# Temperatura_=_-0.4
# Concentracion g/m^3_=_1620.0
# C_Vs_to_Am_M_A/Vsm_=_65563218390.804596
# pendiente_HvsI_1/m_=_3716.3
# ordenada_HvsI_A/m_=_1297.0
# frecuencia_Hz_=_135092.23048091726

Tiempo_(s)	Campo_(V.s)	Magnetizacion_(V.s)	Campo_(kA/m)	Magnetizacion_(A/m)
0.000000e+00	-5.526443e-06	-1.603797e-09	-3.837738e+01	-1.036415e+02
1.000000e-08	-5.526639e-06	-1.602557e-09	-3.837875e+01	-1.035973e+02
2.000000e-08	-5.526633e-06	-1.601894e-09	-3.837870e+01	-1.035523e+02
3.000000e-08	-5.526329e-06	-1.604041e-09	-3.837659e+01	-1.035066e+02
4.000000e-08	-5.525639e-06	-1.606348e-09	-3.837180e+01	-1.034602e+02
5.000000e-08	-5.524323e-06	-1.606032e-09	-3.836266e+01	-1.034133e+02
6.000000e-08	-5.522273e-06	-1.601472e-09	-3.834843e+01	-1.033659e+02
7.000000e-08	-5.519624e-06	-1.595221e-09	-3.833003e+01	-1.033181e+02
8.000000e-08	-5.516522e-06	-1.626464e-09	-3.830849e+01	-1.032699e+02
9.000000e-08	-5.513009e-06	-1.643159e-09	-3.828409e+01	-1.032214e+02
1.000000e-07	-5.509018e-06	-1.621659e-09	-3.825638e+01	-1.031724e+02
1.100000e-07	-5.504685e-06	-1.604349e-09	-3.822629e+01	-1.031231e+02
1.200000e-07	-5.500142e-06	-1.576178e-09	-3.819474e+01	-1.030735e+02
1.300000e-07	-5.495336e-06	-1.593221e-09	-3.816136e+01	-1.030233e+02
1.400000e-07	-5.490159e-06	-1.594240e-09	-3.812541e+01	-1.029727e+02
1.500000e-07	-5.484602e-06	-1.592026e-09	-3.808683e+01	-1.029216e+02
1.600000e-07	-5.478702e-06	-1.642925e-09	-3.804585e+01	-1.028698e+02
1.700000e-07	-5.472441e-06	-1.596788e-09	-3.800237e+01	-1.028172e+02
1.800000e-07	-5.465693e-06	-1.628948e-09	-3.795551e+01	-1.027637e+02
1.900000e-07	-5.458458e-06	-1.549290e-09	-3.790527e+01	-1.027093e+02
2.000000e-07	-5.451011e-06	-1.582222e-09	-3.785356e+01	-1.026537e+02
2.100000e-07	-5.443372e-06	-1.538992e-09	-3.780051e+01	-1.025968e+02
2.200000e-07	-5.435483e-06	-1.594559e-09	-3.774573e+01	-1.025384e+02
2.300000e-07	-5.427348e-06	-1.563640e-09	-3.768923e+01	-1.024784e+02
2.400000e-07	-5.418878e-06	-1.576694e-09	-3.763041e+01	-1.024166e+02
2.500000e-07	-5.409630e-06	-1.538994e-09	-3.756620e+01	-1.023527e+02
2.600000e-07	-5.399595e-06	-1.539800e-09	-3.749651e+01	-1.022865e+02
2.700000e-07	-5.389023e-06	-1.540293e-09	-3.742309e+01	-1.022179e+02
2.800000e-07	-5.377842e-06	-1.545806e-09	-3.734545e+01	-1.021466e+02
2.900000e-07	-5.366234e-06	-1.548731e-09	-3.726484e+01	-1.020724e+02
3.000000e-07	-5.354309e-06	-1.519596e-09	-3.718203e+01	-1.019950e+02
3.100000e-07	-5.342048e-06	-1.549836e-09	-3.709688e+01	-1.019143e+02
3.200000e-07	-5.329357e-06	-1.517493e-09	-3.700876e+01	-1.018300e+02
3.300000e-07	-5.316187e-06	-1.537610e-09	-3.691729e+01	-1.017419e+02
3.400000e-07	-5.302631e-06	-1.487872e-09	-3.682316e+01	-1.016497e+02
3.500000e-07	-5.288832e-06	-1.529939e-09	-3.672734e+01	-1.015533e+02
3.600000e-07	-5.274650e-06	-1.502710e-09	-3.662885e+01	-1.014523e+02
3.700000e-07	-5.259880e-06	-1.520704e-09	-3.652629e+01	-1.013467e+02
3.800000e-07	-5.244577e-06	-1.479089e-09	-3.642002e+01	-1.012363e+02
3.900000e-07	-5.228741e-06	-1.516906e-09	-3.631004e+01	-1.011207e+02
4.000000e-07	-5.212394e-06	-1.490519e-09	-3.619652e+01	-1.009999e+02
4.100000e-07	-5.195705e-06	-1.496079e-09	-3.608063e+01	-1.008736e+02
4.200000e-07	-5.178744e-06	-1.485620e-09	-3.596285e+01	-1.007417e+02
4.300000e-07	-5.161466e-06	-1.518279e-09	-3.584287e+01	-1.006042e+02
4.400000e-07	-5.143792e-06	-1.474701e-09	-3.572013e+01	-1.004607e+02
4.500000e-07	-5.125842e-06	-1.483088e-09	-3.559548e+01	-1.003113e+02
4.600000e-07	-5.107467e-06	-1.487911e-09	-3.546788e+01	-1.001558e+02
4.700000e-07	-5.088533e-06	-1.491807e-09	-3.533640e+01	-9.999423e+01
4.800000e-07	-5.069282e-06	-1.459080e-09	-3.520271e+01	-9.982640e+01
4.900000e-07	-5.049834e-06	-1.493914e-09	-3.506765e+01	-9.965232e+01
5.000000e-07	-5.030222e-06	-1.488534e-09	-3.493147e+01	-9.947195e+01
5.100000e-07	-5.010423e-06	-1.458661e-09	-3.479398e+01	-9.928530e+01
5.200000e-07	-4.990301e-06	-1.456468e-09	-3.465424e+01	-9.909236e+01
5.300000e-07	-4.969764e-06	-1.478437e-09	-3.451163e+01	-9.889316e+01
5.400000e-07	-4.948788e-06	-1.445795e-09	-3.436596e+01	-9.868775e+01
5.500000e-07	-4.927456e-06	-1.429803e-09	-3.421782e+01	-9.847617e+01
5.600000e-07	-4.905794e-06	-1.455897e-09	-3.406740e+01	-9.825851e+01
5.700000e-07	-4.883892e-06	-1.444530e-09	-3.391530e+01	-9.803485e+01
5.800000e-07	-4.861725e-06	-1.428238e-09	-3.376137e+01	-9.780529e+01
5.900000e-07	-4.839224e-06	-1.442163e-09	-3.360511e+01	-9.756994e+01
6.000000e-07	-4.816224e-06	-1.448037e-09	-3.344540e+01	-9.732894e+01
6.100000e-07	-4.792766e-06	-1.414164e-09	-3.328250e+01	-9.708242e+01
6.200000e-07	-4.769146e-06	-1.430046e-09	-3.311847e+01	-9.683053e+01
6.300000e-07	-4.745386e-06	-1.430086e-09	-3.295347e+01	-9.657341e+01
6.400000e-07	-4.721459e-06	-1.420243e-09	-3.278732e+01	-9.631122e+01
6.500000e-07	-4.697245e-06	-1.409791e-09	-3.261917e+01	-9.604412e+01
6.600000e-07	-4.672535e-06	-1.433184e-09	-3.244757e+01	-9.577229e+01
6.700000e-07	-4.647165e-06	-1.407200e-09	-3.227139e+01	-9.549587e+01
6.800000e-07	-4.621181e-06	-1.403121e-09	-3.209096e+01	-9.521505e+01
6.900000e-07	-4.594747e-06	-1.396883e-09	-3.190739e+01	-9.492996e+01
7.000000e-07	-4.567842e-06	-1.397727e-09	-3.172055e+01	-9.464079e+01
7.100000e-07	-4.540523e-06	-1.375000e-09	-3.153084e+01	-9.434766e+01
7.200000e-07	-4.512975e-06	-1.393623e-09	-3.133954e+01	-9.405072e+01
7.300000e-07	-4.485292e-06	-1.389399e-09	-3.114730e+01	-9.375011e+01
7.400000e-07	-4.457485e-06	-1.385080e-09	-3.095420e+01	-9.344594e+01
7.500000e-07	-4.429479e-06	-1.372454e-09	-3.075972e+01	-9.313833e+01
7.600000e-07	-4.401200e-06	-1.373984e-09	-3.056334e+01	-9.282736e+01
7.700000e-07	-4.372662e-06	-1.352743e-09	-3.036516e+01	-9.251312e+01
7.800000e-07	-4.343726e-06	-1.347839e-09	-3.016422e+01	-9.219567e+01
7.900000e-07	-4.314306e-06	-1.347085e-09	-2.995991e+01	-9.187505e+01
8.000000e-07	-4.284661e-06	-1.347928e-09	-2.975405e+01	-9.155130e+01
8.100000e-07	-4.254828e-06	-1.338140e-09	-2.954689e+01	-9.122443e+01
8.200000e-07	-4.224730e-06	-1.334426e-09	-2.933787e+01	-9.089443e+01
8.300000e-07	-4.194163e-06	-1.322790e-09	-2.912560e+01	-9.056126e+01
8.400000e-07	-4.163176e-06	-1.305834e-09	-2.891043e+01	-9.022490e+01
8.500000e-07	-4.131995e-06	-1.298550e-09	-2.869389e+01	-8.988527e+01
8.600000e-07	-4.100673e-06	-1.294136e-09	-2.847638e+01	-8.954229e+01
8.700000e-07	-4.069159e-06	-1.292086e-09	-2.825754e+01	-8.919586e+01
8.800000e-07	-4.037461e-06	-1.289711e-09	-2.803742e+01	-8.884586e+01
8.900000e-07	-4.005668e-06	-1.295373e-09	-2.781664e+01	-8.849217e+01
9.000000e-07	-3.973684e-06	-1.281581e-09	-2.759453e+01	-8.813464e+01
9.100000e-07	-3.941406e-06	-1.270509e-09	-2.737038e+01	-8.777310e+01
9.200000e-07	-3.908758e-06	-1.258445e-09	-2.714366e+01	-8.740738e+01
9.300000e-07	-3.875602e-06	-1.251476e-09	-2.691341e+01	-8.703730e+01
9.400000e-07	-3.841886e-06	-1.237643e-09	-2.667928e+01	-8.666266e+01
9.500000e-07	-3.807761e-06	-1.240825e-09	-2.644231e+01	-8.628328e+01
9.600000e-07	-3.773196e-06	-1.235339e-09	-2.620228e+01	-8.589893e+01
9.700000e-07	-3.738201e-06	-1.234007e-09	-2.595926e+01	-8.550942e+01
9.800000e-07	-3.702945e-06	-1.225499e-09	-2.571443e+01	-8.511454e+01
9.900000e-07	-3.667465e-06	-1.224403e-09	-2.546804e+01	-8.471407e+01
1.000000e-06	-3.631825e-06	-1.209535e-09	-2.522055e+01	-8.430780e+01
1.010000e-06	-3.596094e-06	-1.203189e-09	-2.497243e+01	-8.389555e+01
1.020000e-06	-3.560242e-06	-1.194449e-09	-2.472345e+01	-8.347711e+01
1.030000e-06	-3.524177e-06	-1.190106e-09	-2.447301e+01	-8.305230e+01
1.040000e-06	-3.487937e-06	-1.183102e-09	-2.422135e+01	-8.262094e+01
1.050000e-06	-3.451504e-06	-1.186796e-09	-2.396835e+01	-8.218286e+01
1.060000e-06	-3.414804e-06	-1.181991e-09	-2.371349e+01	-8.173793e+01
1.070000e-06	-3.377746e-06	-1.175827e-09	-2.345615e+01	-8.128599e+01
1.080000e-06	-3.340357e-06	-1.169633e-09	-2.319650e+01	-8.082695e+01
1.090000e-06	-3.302777e-06	-1.164293e-09	-2.293554e+01	-8.036068e+01
1.100000e-06	-3.264964e-06	-1.151019e-09	-2.267295e+01	-7.988712e+01
1.110000e-06	-3.227018e-06	-1.138391e-09	-2.240944e+01	-7.940620e+01
1.120000e-06	-3.188932e-06	-1.127644e-09	-2.214496e+01	-7.891787e+01
1.130000e-06	-3.150576e-06	-1.118747e-09	-2.187861e+01	-7.842211e+01
1.140000e-06	-3.111965e-06	-1.114160e-09	-2.161047e+01	-7.791892e+01
1.150000e-06	-3.073012e-06	-1.110067e-09	-2.133997e+01	-7.740831e+01
1.160000e-06	-3.033870e-06	-1.105841e-09	-2.106816e+01	-7.689031e+01
1.170000e-06	-2.994645e-06	-1.096865e-09	-2.079577e+01	-7.636497e+01
1.180000e-06	-2.955205e-06	-1.086712e-09	-2.052189e+01	-7.583236e+01
1.190000e-06	-2.915636e-06	-1.072010e-09	-2.024710e+01	-7.529257e+01
1.200000e-06	-2.875947e-06	-1.060449e-09	-1.997149e+01	-7.474568e+01
1.210000e-06	-2.836130e-06	-1.050534e-09	-1.969499e+01	-7.419182e+01
1.220000e-06	-2.796204e-06	-1.047929e-09	-1.941773e+01	-7.363108e+01
1.230000e-06	-2.756079e-06	-1.043027e-09	-1.913909e+01	-7.306361e+01
1.240000e-06	-2.715779e-06	-1.040170e-09	-1.885924e+01	-7.248953e+01
1.250000e-06	-2.675351e-06	-1.031386e-09	-1.857849e+01	-7.190896e+01
1.260000e-06	-2.634748e-06	-1.021829e-09	-1.829653e+01	-7.132206e+01
1.270000e-06	-2.593820e-06	-1.005220e-09	-1.801231e+01	-7.072893e+01
1.280000e-06	-2.552466e-06	-9.929539e-10	-1.772514e+01	-7.012970e+01
1.290000e-06	-2.510732e-06	-9.824956e-10	-1.743533e+01	-6.952449e+01
1.300000e-06	-2.468817e-06	-9.769898e-10	-1.714426e+01	-6.891339e+01
1.310000e-06	-2.426667e-06	-9.698722e-10	-1.685155e+01	-6.829649e+01
1.320000e-06	-2.384157e-06	-9.649610e-10	-1.655634e+01	-6.767384e+01
1.330000e-06	-2.341325e-06	-9.534623e-10	-1.625891e+01	-6.704550e+01
1.340000e-06	-2.298204e-06	-9.420868e-10	-1.595946e+01	-6.641147e+01
1.350000e-06	-2.254907e-06	-9.288327e-10	-1.565880e+01	-6.577175e+01
1.360000e-06	-2.211491e-06	-9.162937e-10	-1.535730e+01	-6.512629e+01
1.370000e-06	-2.167999e-06	-9.050726e-10	-1.505527e+01	-6.447503e+01
1.380000e-06	-2.124380e-06	-9.003993e-10	-1.475237e+01	-6.381784e+01
1.390000e-06	-2.080688e-06	-8.927129e-10	-1.444896e+01	-6.315458e+01
1.400000e-06	-2.036978e-06	-8.814539e-10	-1.414542e+01	-6.248506e+01
1.410000e-06	-1.993157e-06	-8.688601e-10	-1.384112e+01	-6.180906e+01
1.420000e-06	-1.949229e-06	-8.573004e-10	-1.353607e+01	-6.112630e+01
1.430000e-06	-1.905176e-06	-8.442231e-10	-1.323015e+01	-6.043647e+01
1.440000e-06	-1.860999e-06	-8.286092e-10	-1.292337e+01	-5.973922e+01
1.450000e-06	-1.816801e-06	-8.152561e-10	-1.261645e+01	-5.903414e+01
1.460000e-06	-1.772534e-06	-8.021758e-10	-1.230904e+01	-5.832080e+01
1.470000e-06	-1.728049e-06	-7.911441e-10	-1.200013e+01	-5.759871e+01
1.480000e-06	-1.683372e-06	-7.804287e-10	-1.168987e+01	-5.686735e+01
1.490000e-06	-1.638590e-06	-7.723669e-10	-1.137889e+01	-5.612614e+01
1.500000e-06	-1.593631e-06	-7.633254e-10	-1.106668e+01	-5.537450e+01
1.510000e-06	-1.548500e-06	-7.518549e-10	-1.075328e+01	-5.461179e+01
1.520000e-06	-1.503247e-06	-7.342308e-10	-1.043903e+01	-5.383733e+01
1.530000e-06	-1.457874e-06	-7.168255e-10	-1.012395e+01	-5.305043e+01
1.540000e-06	-1.412497e-06	-7.000025e-10	-9.808831e+00	-5.225037e+01
1.550000e-06	-1.367036e-06	-6.881165e-10	-9.493137e+00	-5.143640e+01
1.560000e-06	-1.321407e-06	-6.762297e-10	-9.176270e+00	-5.060776e+01
1.570000e-06	-1.275787e-06	-6.680964e-10	-8.859474e+00	-4.976367e+01
1.580000e-06	-1.230128e-06	-6.580408e-10	-8.542398e+00	-4.890336e+01
1.590000e-06	-1.184352e-06	-6.434592e-10	-8.224520e+00	-4.802603e+01
1.600000e-06	-1.138518e-06	-6.249919e-10	-7.906233e+00	-4.713091e+01
1.610000e-06	-1.092561e-06	-6.079964e-10	-7.587093e+00	-4.621721e+01
1.620000e-06	-1.046495e-06	-5.881333e-10	-7.267192e+00	-4.528418e+01
1.630000e-06	-1.000370e-06	-5.719260e-10	-6.946886e+00	-4.433106e+01
1.640000e-06	-9.541820e-07	-5.596064e-10	-6.626144e+00	-4.335714e+01
1.650000e-06	-9.078701e-07	-5.466554e-10	-6.304540e+00	-4.236173e+01
1.660000e-06	-8.614896e-07	-5.319352e-10	-5.982459e+00	-4.134417e+01
1.670000e-06	-8.151767e-07	-5.154761e-10	-5.660847e+00	-4.030385e+01
1.680000e-06	-7.688436e-07	-4.982326e-10	-5.339095e+00	-3.924020e+01
1.690000e-06	-7.224180e-07	-4.820130e-10	-5.016701e+00	-3.815271e+01
1.700000e-06	-6.758960e-07	-4.662105e-10	-4.693637e+00	-3.704092e+01
1.710000e-06	-6.293232e-07	-4.485725e-10	-4.370221e+00	-3.590443e+01
1.720000e-06	-5.827185e-07	-4.307309e-10	-4.046583e+00	-3.474290e+01
1.730000e-06	-5.361188e-07	-4.126759e-10	-3.722980e+00	-3.355609e+01
1.740000e-06	-4.894834e-07	-3.930352e-10	-3.399129e+00	-3.234379e+01
1.750000e-06	-4.427543e-07	-3.724016e-10	-3.074627e+00	-3.110591e+01
1.760000e-06	-3.959819e-07	-3.546988e-10	-2.749824e+00	-2.984241e+01
1.770000e-06	-3.492242e-07	-3.380184e-10	-2.425124e+00	-2.855334e+01
1.780000e-06	-3.024123e-07	-3.187763e-10	-2.100047e+00	-2.723885e+01
1.790000e-06	-2.554994e-07	-2.992727e-10	-1.774269e+00	-2.589916e+01
1.800000e-06	-2.085458e-07	-2.820759e-10	-1.448208e+00	-2.453458e+01
1.810000e-06	-1.616245e-07	-2.623140e-10	-1.122372e+00	-2.314551e+01
1.820000e-06	-1.147275e-07	-2.409963e-10	-7.967041e-01	-2.173245e+01
1.830000e-06	-6.776631e-08	-2.191716e-10	-4.705908e-01	-2.029596e+01
1.840000e-06	-2.085529e-08	-1.979485e-10	-1.448258e-01	-1.883672e+01
1.850000e-06	2.599638e-08	-1.766133e-10	1.805271e-01	-1.735546e+01
1.860000e-06	7.286443e-08	-1.568386e-10	5.059938e-01	-1.585302e+01
1.870000e-06	1.197705e-07	-1.349824e-10	8.317242e-01	-1.433031e+01
1.880000e-06	1.666351e-07	-1.124818e-10	1.157167e+00	-1.278831e+01
1.890000e-06	2.134414e-07	-9.105986e-11	1.482205e+00	-1.122809e+01
1.900000e-06	2.602442e-07	-7.001491e-11	1.807218e+00	-9.650782e+00
1.910000e-06	3.071151e-07	-4.849057e-11	2.132705e+00	-8.057572e+00
1.920000e-06	3.540586e-07	-2.652608e-11	2.458696e+00	-6.449719e+00
1.930000e-06	4.009381e-07	-3.295611e-12	2.784242e+00	-4.828533e+00
1.940000e-06	4.476878e-07	2.043842e-11	3.108887e+00	-3.195373e+00
1.950000e-06	4.943701e-07	4.474719e-11	3.433063e+00	-1.551644e+00
1.960000e-06	5.410462e-07	6.768520e-11	3.757198e+00	1.012149e-01
1.970000e-06	5.876494e-07	8.905578e-11	4.080825e+00	1.761730e+00
1.980000e-06	6.341017e-07	1.105404e-10	4.403404e+00	3.428405e+00
1.990000e-06	6.804216e-07	1.310424e-10	4.725064e+00	5.099723e+00
2.000000e-06	7.268000e-07	1.499110e-10	5.047131e+00	6.774155e+00
2.010000e-06	7.733544e-07	1.710269e-10	5.370420e+00	8.450168e+00
2.020000e-06	8.197835e-07	1.931197e-10	5.692838e+00	1.012623e+01
2.030000e-06	8.660671e-07	2.178271e-10	6.014246e+00	1.180081e+01
2.040000e-06	9.122896e-07	2.451504e-10	6.335230e+00	1.347241e+01
2.050000e-06	9.584051e-07	2.697666e-10	6.655471e+00	1.513952e+01
2.060000e-06	1.004450e-06	2.933298e-10	6.975223e+00	1.680069e+01
2.070000e-06	1.050433e-06	3.157921e-10	7.294541e+00	1.845447e+01
2.080000e-06	1.096395e-06	3.383305e-10	7.613718e+00	2.009948e+01
2.090000e-06	1.142304e-06	3.586915e-10	7.932525e+00	2.173435e+01
2.100000e-06	1.188028e-06	3.794696e-10	8.250047e+00	2.335778e+01
2.110000e-06	1.233586e-06	4.014316e-10	8.566415e+00	2.496852e+01
2.120000e-06	1.279172e-06	4.233662e-10	8.882979e+00	2.656536e+01
2.130000e-06	1.324748e-06	4.443402e-10	9.199472e+00	2.814717e+01
2.140000e-06	1.370229e-06	4.652538e-10	9.515310e+00	2.971286e+01
2.150000e-06	1.415546e-06	4.856139e-10	9.830003e+00	3.126142e+01
2.160000e-06	1.460736e-06	5.050191e-10	1.014381e+01	3.279191e+01
2.170000e-06	1.505851e-06	5.246128e-10	1.045711e+01	3.430347e+01
2.180000e-06	1.550873e-06	5.429492e-10	1.076976e+01	3.579527e+01
2.190000e-06	1.595776e-06	5.613624e-10	1.108158e+01	3.726660e+01
2.200000e-06	1.640529e-06	5.822659e-10	1.139236e+01	3.871681e+01
2.210000e-06	1.685163e-06	6.023831e-10	1.170231e+01	4.014529e+01
2.220000e-06	1.729660e-06	6.207436e-10	1.201131e+01	4.155156e+01
2.230000e-06	1.774025e-06	6.379605e-10	1.231940e+01	4.293516e+01
2.240000e-06	1.818304e-06	6.570640e-10	1.262688e+01	4.429574e+01
2.250000e-06	1.862537e-06	6.774886e-10	1.293405e+01	4.563300e+01
2.260000e-06	1.906643e-06	6.973315e-10	1.324034e+01	4.694670e+01
2.270000e-06	1.950553e-06	7.156961e-10	1.354526e+01	4.823670e+01
2.280000e-06	1.994361e-06	7.317410e-10	1.384948e+01	4.950288e+01
2.290000e-06	2.038134e-06	7.459415e-10	1.415345e+01	5.074522e+01
2.300000e-06	2.081853e-06	7.607372e-10	1.445705e+01	5.196372e+01
2.310000e-06	2.125469e-06	7.752269e-10	1.475993e+01	5.315847e+01
2.320000e-06	2.168975e-06	7.907571e-10	1.506205e+01	5.432960e+01
2.330000e-06	2.212441e-06	8.088741e-10	1.536390e+01	5.547726e+01
2.340000e-06	2.255838e-06	8.251154e-10	1.566526e+01	5.660169e+01
2.350000e-06	2.299042e-06	8.393136e-10	1.596528e+01	5.770314e+01
2.360000e-06	2.341982e-06	8.534727e-10	1.626347e+01	5.878189e+01
2.370000e-06	2.384691e-06	8.664996e-10	1.656005e+01	5.983829e+01
2.380000e-06	2.427076e-06	8.773601e-10	1.685439e+01	6.087268e+01
2.390000e-06	2.469217e-06	8.913218e-10	1.714703e+01	6.188543e+01
2.400000e-06	2.511187e-06	9.062229e-10	1.743848e+01	6.287696e+01
2.410000e-06	2.552802e-06	9.194388e-10	1.772747e+01	6.384768e+01
2.420000e-06	2.594036e-06	9.312665e-10	1.801381e+01	6.479802e+01
2.430000e-06	2.634967e-06	9.441051e-10	1.829805e+01	6.572843e+01
2.440000e-06	2.675606e-06	9.566736e-10	1.858026e+01	6.663935e+01
2.450000e-06	2.716026e-06	9.660612e-10	1.886095e+01	6.753124e+01
2.460000e-06	2.756273e-06	9.745726e-10	1.914044e+01	6.840456e+01
2.470000e-06	2.796272e-06	9.847277e-10	1.941821e+01	6.925975e+01
2.480000e-06	2.836163e-06	9.954078e-10	1.969522e+01	7.009728e+01
2.490000e-06	2.876028e-06	1.005174e-09	1.997205e+01	7.091759e+01
2.500000e-06	2.915754e-06	1.015398e-09	2.024792e+01	7.172111e+01
2.510000e-06	2.955251e-06	1.027487e-09	2.052221e+01	7.250828e+01
2.520000e-06	2.994545e-06	1.038413e-09	2.079507e+01	7.327950e+01
2.530000e-06	3.033639e-06	1.049697e-09	2.106656e+01	7.403520e+01
2.540000e-06	3.072505e-06	1.062694e-09	2.133645e+01	7.477575e+01
2.550000e-06	3.111156e-06	1.074344e-09	2.160486e+01	7.550154e+01
2.560000e-06	3.149611e-06	1.082579e-09	2.187190e+01	7.621293e+01
2.570000e-06	3.187953e-06	1.089100e-09	2.213816e+01	7.691027e+01
2.580000e-06	3.226081e-06	1.096531e-09	2.240294e+01	7.759388e+01
2.590000e-06	3.263929e-06	1.105891e-09	2.266576e+01	7.826410e+01
2.600000e-06	3.301607e-06	1.115779e-09	2.292741e+01	7.892122e+01
2.610000e-06	3.339023e-06	1.125342e-09	2.318724e+01	7.956553e+01
2.620000e-06	3.376183e-06	1.134175e-09	2.344529e+01	8.019730e+01
2.630000e-06	3.413167e-06	1.141514e-09	2.370212e+01	8.081680e+01
2.640000e-06	3.449864e-06	1.147565e-09	2.395696e+01	8.142428e+01
2.650000e-06	3.486311e-06	1.154429e-09	2.421005e+01	8.201996e+01
2.660000e-06	3.522588e-06	1.165289e-09	2.446197e+01	8.260407e+01
2.670000e-06	3.558650e-06	1.175183e-09	2.471240e+01	8.317683e+01
2.680000e-06	3.594549e-06	1.183335e-09	2.496170e+01	8.373845e+01
2.690000e-06	3.630316e-06	1.189207e-09	2.521008e+01	8.428911e+01
2.700000e-06	3.665920e-06	1.192703e-09	2.545732e+01	8.482901e+01
2.710000e-06	3.701384e-06	1.197786e-09	2.570359e+01	8.535833e+01
2.720000e-06	3.736596e-06	1.204833e-09	2.594811e+01	8.587725e+01
2.730000e-06	3.771478e-06	1.213047e-09	2.619035e+01	8.638595e+01
2.740000e-06	3.806136e-06	1.223562e-09	2.643102e+01	8.688458e+01
2.750000e-06	3.840409e-06	1.231777e-09	2.666902e+01	8.737333e+01
2.760000e-06	3.874014e-06	1.237641e-09	2.690239e+01	8.785235e+01
2.770000e-06	3.907053e-06	1.241543e-09	2.713182e+01	8.832180e+01
2.780000e-06	3.939713e-06	1.244701e-09	2.735863e+01	8.878186e+01
2.790000e-06	3.971996e-06	1.248207e-09	2.758281e+01	8.923267e+01
2.800000e-06	4.003997e-06	1.253349e-09	2.780503e+01	8.967441e+01
2.810000e-06	4.035823e-06	1.260916e-09	2.802604e+01	9.010724e+01
2.820000e-06	4.067495e-06	1.267298e-09	2.824598e+01	9.053131e+01
2.830000e-06	4.098978e-06	1.274009e-09	2.846461e+01	9.094679e+01
2.840000e-06	4.130281e-06	1.281294e-09	2.868199e+01	9.135385e+01
2.850000e-06	4.161360e-06	1.286991e-09	2.889781e+01	9.175265e+01
2.860000e-06	4.192063e-06	1.293373e-09	2.911102e+01	9.214336e+01
2.870000e-06	4.222555e-06	1.299041e-09	2.932277e+01	9.252613e+01
2.880000e-06	4.252751e-06	1.302480e-09	2.953246e+01	9.290113e+01
2.890000e-06	4.282565e-06	1.303745e-09	2.973950e+01	9.326853e+01
2.900000e-06	4.312135e-06	1.305886e-09	2.994484e+01	9.362848e+01
