# Temperatura_=_-1.0
# Concentracion g/m^3_=_1620.0
# C_Vs_to_Am_M_A/Vsm_=_65563218390.804596
# pendiente_HvsI_1/m_=_3716.3
# ordenada_HvsI_A/m_=_1297.0
# frecuencia_Hz_=_135099.34549617782

Tiempo_(s)	Campo_(V.s)	Magnetizacion_(V.s)	Campo_(kA/m)	Magnetizacion_(A/m)
0.000000e+00	-5.517102e-06	-1.209085e-09	-3.837920e+01	-7.774978e+01
1.000000e-08	-5.517311e-06	-1.205340e-09	-3.838066e+01	-7.775699e+01
2.000000e-08	-5.517362e-06	-1.203576e-09	-3.838101e+01	-7.776305e+01
3.000000e-08	-5.517090e-06	-1.203655e-09	-3.837912e+01	-7.776764e+01
4.000000e-08	-5.516355e-06	-1.206660e-09	-3.837400e+01	-7.777043e+01
5.000000e-08	-5.515091e-06	-1.207389e-09	-3.836521e+01	-7.777110e+01
6.000000e-08	-5.513286e-06	-1.201986e-09	-3.835266e+01	-7.776930e+01
7.000000e-08	-5.510867e-06	-1.188948e-09	-3.833583e+01	-7.776469e+01
8.000000e-08	-5.507828e-06	-1.212443e-09	-3.831468e+01	-7.775692e+01
9.000000e-08	-5.504331e-06	-1.258007e-09	-3.829036e+01	-7.774564e+01
1.000000e-07	-5.500323e-06	-1.240442e-09	-3.826248e+01	-7.773052e+01
1.100000e-07	-5.495911e-06	-1.172110e-09	-3.823179e+01	-7.771122e+01
1.200000e-07	-5.491344e-06	-1.154491e-09	-3.820002e+01	-7.768742e+01
1.300000e-07	-5.486547e-06	-1.231881e-09	-3.816665e+01	-7.765881e+01
1.400000e-07	-5.481351e-06	-1.248338e-09	-3.813050e+01	-7.762512e+01
1.500000e-07	-5.475767e-06	-1.166243e-09	-3.809166e+01	-7.758607e+01
1.600000e-07	-5.469880e-06	-1.149434e-09	-3.805071e+01	-7.754141e+01
1.700000e-07	-5.463576e-06	-1.211270e-09	-3.800685e+01	-7.749094e+01
1.800000e-07	-5.456731e-06	-1.273406e-09	-3.795923e+01	-7.743445e+01
1.900000e-07	-5.449491e-06	-1.212077e-09	-3.790887e+01	-7.737179e+01
2.000000e-07	-5.441970e-06	-1.187810e-09	-3.785655e+01	-7.730282e+01
2.100000e-07	-5.434188e-06	-1.201854e-09	-3.780242e+01	-7.722744e+01
2.200000e-07	-5.426183e-06	-1.247760e-09	-3.774673e+01	-7.714559e+01
2.300000e-07	-5.417933e-06	-1.211911e-09	-3.768934e+01	-7.705723e+01
2.400000e-07	-5.409358e-06	-1.190570e-09	-3.762969e+01	-7.696236e+01
2.500000e-07	-5.400180e-06	-1.193939e-09	-3.756585e+01	-7.686102e+01
2.600000e-07	-5.390240e-06	-1.218852e-09	-3.749670e+01	-7.675327e+01
2.700000e-07	-5.379674e-06	-1.194112e-09	-3.742319e+01	-7.663921e+01
2.800000e-07	-5.368581e-06	-1.155288e-09	-3.734603e+01	-7.651896e+01
2.900000e-07	-5.357023e-06	-1.160822e-09	-3.726563e+01	-7.639270e+01
3.000000e-07	-5.345116e-06	-1.166613e-09	-3.718280e+01	-7.626060e+01
3.100000e-07	-5.332883e-06	-1.140277e-09	-3.709770e+01	-7.612288e+01
3.200000e-07	-5.320210e-06	-1.097302e-09	-3.700954e+01	-7.597977e+01
3.300000e-07	-5.307062e-06	-1.142846e-09	-3.691808e+01	-7.583154e+01
3.400000e-07	-5.293566e-06	-1.162041e-09	-3.682420e+01	-7.567847e+01
3.500000e-07	-5.279722e-06	-1.130638e-09	-3.672789e+01	-7.552084e+01
3.600000e-07	-5.265365e-06	-1.100749e-09	-3.662802e+01	-7.535897e+01
3.700000e-07	-5.250608e-06	-1.146265e-09	-3.652536e+01	-7.519317e+01
3.800000e-07	-5.235385e-06	-1.125955e-09	-3.641946e+01	-7.502376e+01
3.900000e-07	-5.219514e-06	-1.095022e-09	-3.630906e+01	-7.485109e+01
4.000000e-07	-5.203251e-06	-1.128895e-09	-3.619592e+01	-7.467547e+01
4.100000e-07	-5.186723e-06	-1.159791e-09	-3.608095e+01	-7.449724e+01
4.200000e-07	-5.169773e-06	-1.084970e-09	-3.596304e+01	-7.431671e+01
4.300000e-07	-5.152442e-06	-1.089621e-09	-3.584248e+01	-7.413421e+01
4.400000e-07	-5.134864e-06	-1.154122e-09	-3.572020e+01	-7.395004e+01
4.500000e-07	-5.116894e-06	-1.124620e-09	-3.559519e+01	-7.376448e+01
4.600000e-07	-5.098410e-06	-1.058263e-09	-3.546661e+01	-7.357782e+01
4.700000e-07	-5.079549e-06	-1.122706e-09	-3.533540e+01	-7.339030e+01
4.800000e-07	-5.060432e-06	-1.138263e-09	-3.520242e+01	-7.320217e+01
4.900000e-07	-5.041003e-06	-1.074674e-09	-3.506726e+01	-7.301363e+01
5.000000e-07	-5.021267e-06	-1.090160e-09	-3.492997e+01	-7.282488e+01
5.100000e-07	-5.001295e-06	-1.136483e-09	-3.479104e+01	-7.263608e+01
5.200000e-07	-4.981061e-06	-1.069816e-09	-3.465029e+01	-7.244736e+01
5.300000e-07	-4.960520e-06	-1.056311e-09	-3.450739e+01	-7.225883e+01
5.400000e-07	-4.939616e-06	-1.121393e-09	-3.436198e+01	-7.207059e+01
5.500000e-07	-4.918350e-06	-1.097679e-09	-3.421404e+01	-7.188267e+01
5.600000e-07	-4.896712e-06	-1.046363e-09	-3.406352e+01	-7.169512e+01
5.700000e-07	-4.874795e-06	-1.091087e-09	-3.391105e+01	-7.150792e+01
5.800000e-07	-4.852629e-06	-1.102679e-09	-3.375686e+01	-7.132105e+01
5.900000e-07	-4.830014e-06	-1.051989e-09	-3.359954e+01	-7.113445e+01
6.000000e-07	-4.806997e-06	-1.069686e-09	-3.343942e+01	-7.094806e+01
6.100000e-07	-4.783739e-06	-1.093592e-09	-3.327763e+01	-7.076175e+01
6.200000e-07	-4.760231e-06	-1.057449e-09	-3.311410e+01	-7.057542e+01
6.300000e-07	-4.736468e-06	-1.048013e-09	-3.294879e+01	-7.038892e+01
6.400000e-07	-4.712443e-06	-1.075645e-09	-3.278167e+01	-7.020208e+01
6.500000e-07	-4.688099e-06	-1.051905e-09	-3.261232e+01	-7.001472e+01
6.600000e-07	-4.663449e-06	-1.041658e-09	-3.244084e+01	-6.982666e+01
6.700000e-07	-4.638506e-06	-1.057940e-09	-3.226733e+01	-6.963768e+01
6.800000e-07	-4.612983e-06	-1.050526e-09	-3.208978e+01	-6.944758e+01
6.900000e-07	-4.586825e-06	-1.027114e-09	-3.190781e+01	-6.925612e+01
7.000000e-07	-4.560101e-06	-1.042629e-09	-3.172192e+01	-6.906309e+01
7.100000e-07	-4.532867e-06	-1.035515e-09	-3.153246e+01	-6.886826e+01
7.200000e-07	-4.505361e-06	-1.017568e-09	-3.134112e+01	-6.867139e+01
7.300000e-07	-4.477662e-06	-1.016927e-09	-3.114844e+01	-6.847225e+01
7.400000e-07	-4.449769e-06	-1.023827e-09	-3.095440e+01	-6.827063e+01
7.500000e-07	-4.421689e-06	-1.014089e-09	-3.075906e+01	-6.806631e+01
7.600000e-07	-4.393371e-06	-1.023182e-09	-3.056207e+01	-6.785907e+01
7.700000e-07	-4.364760e-06	-1.026336e-09	-3.036304e+01	-6.764871e+01
7.800000e-07	-4.335756e-06	-1.009469e-09	-3.016128e+01	-6.743504e+01
7.900000e-07	-4.306436e-06	-9.986200e-10	-2.995732e+01	-6.721789e+01
8.000000e-07	-4.276950e-06	-1.001016e-09	-2.975220e+01	-6.699708e+01
8.100000e-07	-4.247174e-06	-9.836793e-10	-2.954507e+01	-6.677248e+01
8.200000e-07	-4.217003e-06	-9.731181e-10	-2.933519e+01	-6.654393e+01
8.300000e-07	-4.186561e-06	-9.834796e-10	-2.912342e+01	-6.631133e+01
8.400000e-07	-4.155908e-06	-9.860621e-10	-2.891018e+01	-6.607457e+01
8.500000e-07	-4.124899e-06	-9.750603e-10	-2.869447e+01	-6.583355e+01
8.600000e-07	-4.093553e-06	-9.751105e-10	-2.847641e+01	-6.558821e+01
8.700000e-07	-4.062048e-06	-9.752114e-10	-2.825726e+01	-6.533849e+01
8.800000e-07	-4.030447e-06	-9.625609e-10	-2.803743e+01	-6.508435e+01
8.900000e-07	-3.998653e-06	-9.591684e-10	-2.781625e+01	-6.482575e+01
9.000000e-07	-3.966653e-06	-9.607166e-10	-2.759365e+01	-6.456268e+01
9.100000e-07	-3.934358e-06	-9.498752e-10	-2.736899e+01	-6.429514e+01
9.200000e-07	-3.901658e-06	-9.377737e-10	-2.714152e+01	-6.402314e+01
9.300000e-07	-3.868596e-06	-9.414086e-10	-2.691152e+01	-6.374670e+01
9.400000e-07	-3.835115e-06	-9.357310e-10	-2.667862e+01	-6.346584e+01
9.500000e-07	-3.801154e-06	-9.247805e-10	-2.644237e+01	-6.318059e+01
9.600000e-07	-3.766764e-06	-9.241437e-10	-2.620314e+01	-6.289101e+01
9.700000e-07	-3.731989e-06	-9.257276e-10	-2.596123e+01	-6.259713e+01
9.800000e-07	-3.696847e-06	-9.137711e-10	-2.571677e+01	-6.229901e+01
9.900000e-07	-3.661436e-06	-9.117948e-10	-2.547044e+01	-6.199669e+01
1.000000e-06	-3.625915e-06	-9.128505e-10	-2.522333e+01	-6.169022e+01
1.010000e-06	-3.590292e-06	-9.061633e-10	-2.497553e+01	-6.137965e+01
1.020000e-06	-3.554481e-06	-8.974819e-10	-2.472641e+01	-6.106504e+01
1.030000e-06	-3.518523e-06	-8.969417e-10	-2.447627e+01	-6.074641e+01
1.040000e-06	-3.482437e-06	-8.887768e-10	-2.422524e+01	-6.042381e+01
1.050000e-06	-3.446049e-06	-8.812136e-10	-2.397211e+01	-6.009727e+01
1.060000e-06	-3.409363e-06	-8.786611e-10	-2.371691e+01	-5.976681e+01
1.070000e-06	-3.372442e-06	-8.759490e-10	-2.346008e+01	-5.943245e+01
1.080000e-06	-3.335148e-06	-8.660444e-10	-2.320065e+01	-5.909419e+01
1.090000e-06	-3.297592e-06	-8.603070e-10	-2.293939e+01	-5.875204e+01
1.100000e-06	-3.259900e-06	-8.540400e-10	-2.267719e+01	-5.840598e+01
1.110000e-06	-3.222027e-06	-8.431432e-10	-2.241373e+01	-5.805598e+01
1.120000e-06	-3.183957e-06	-8.352139e-10	-2.214890e+01	-5.770202e+01
1.130000e-06	-3.145654e-06	-8.333797e-10	-2.188245e+01	-5.734406e+01
1.140000e-06	-3.107136e-06	-8.287065e-10	-2.161450e+01	-5.698203e+01
1.150000e-06	-3.068354e-06	-8.217366e-10	-2.134472e+01	-5.661588e+01
1.160000e-06	-3.029372e-06	-8.180912e-10	-2.107354e+01	-5.624553e+01
1.170000e-06	-2.990217e-06	-8.135915e-10	-2.080116e+01	-5.587090e+01
1.180000e-06	-2.950788e-06	-8.068529e-10	-2.052688e+01	-5.549189e+01
1.190000e-06	-2.911187e-06	-8.035104e-10	-2.025140e+01	-5.510841e+01
1.200000e-06	-2.871502e-06	-7.992324e-10	-1.997533e+01	-5.472034e+01
1.210000e-06	-2.831706e-06	-7.867567e-10	-1.969850e+01	-5.432757e+01
1.220000e-06	-2.791778e-06	-7.782534e-10	-1.942074e+01	-5.392997e+01
1.230000e-06	-2.751735e-06	-7.731863e-10	-1.914219e+01	-5.352741e+01
1.240000e-06	-2.711530e-06	-7.653245e-10	-1.886250e+01	-5.311976e+01
1.250000e-06	-2.671189e-06	-7.562494e-10	-1.858188e+01	-5.270687e+01
1.260000e-06	-2.630617e-06	-7.528239e-10	-1.829964e+01	-5.228859e+01
1.270000e-06	-2.589654e-06	-7.494581e-10	-1.801468e+01	-5.186478e+01
1.280000e-06	-2.548429e-06	-7.458148e-10	-1.772791e+01	-5.143528e+01
1.290000e-06	-2.507008e-06	-7.401435e-10	-1.743977e+01	-5.099993e+01
1.300000e-06	-2.465253e-06	-7.339777e-10	-1.714930e+01	-5.055856e+01
1.310000e-06	-2.423129e-06	-7.236051e-10	-1.685627e+01	-5.011102e+01
1.320000e-06	-2.380725e-06	-7.122382e-10	-1.656129e+01	-4.965714e+01
1.330000e-06	-2.338096e-06	-7.010739e-10	-1.626475e+01	-4.919674e+01
1.340000e-06	-2.295264e-06	-6.913960e-10	-1.596679e+01	-4.872965e+01
1.350000e-06	-2.252163e-06	-6.845535e-10	-1.566696e+01	-4.825570e+01
1.360000e-06	-2.208853e-06	-6.824911e-10	-1.536568e+01	-4.777471e+01
1.370000e-06	-2.165420e-06	-6.809590e-10	-1.506354e+01	-4.728649e+01
1.380000e-06	-2.121813e-06	-6.750331e-10	-1.476019e+01	-4.679085e+01
1.390000e-06	-2.078069e-06	-6.625063e-10	-1.445589e+01	-4.628761e+01
1.400000e-06	-2.034284e-06	-6.476289e-10	-1.415131e+01	-4.577657e+01
1.410000e-06	-1.990458e-06	-6.328438e-10	-1.384644e+01	-4.525753e+01
1.420000e-06	-1.946514e-06	-6.241494e-10	-1.354074e+01	-4.473027e+01
1.430000e-06	-1.902527e-06	-6.205481e-10	-1.323475e+01	-4.419458e+01
1.440000e-06	-1.858509e-06	-6.185406e-10	-1.292854e+01	-4.365024e+01
1.450000e-06	-1.814346e-06	-6.139796e-10	-1.262132e+01	-4.309702e+01
1.460000e-06	-1.770086e-06	-6.052802e-10	-1.231344e+01	-4.253468e+01
1.470000e-06	-1.725764e-06	-5.928585e-10	-1.200512e+01	-4.196298e+01
1.480000e-06	-1.681290e-06	-5.779759e-10	-1.169573e+01	-4.138164e+01
1.490000e-06	-1.636643e-06	-5.659205e-10	-1.138515e+01	-4.079041e+01
1.500000e-06	-1.591839e-06	-5.581989e-10	-1.107348e+01	-4.018900e+01
1.510000e-06	-1.546809e-06	-5.526573e-10	-1.076023e+01	-3.957714e+01
1.520000e-06	-1.501625e-06	-5.449411e-10	-1.044592e+01	-3.895452e+01
1.530000e-06	-1.456368e-06	-5.347320e-10	-1.013109e+01	-3.832083e+01
1.540000e-06	-1.410977e-06	-5.219734e-10	-9.815327e+00	-3.767575e+01
1.550000e-06	-1.365533e-06	-5.083100e-10	-9.499200e+00	-3.701896e+01
1.560000e-06	-1.320078e-06	-4.956202e-10	-9.182995e+00	-3.635013e+01
1.570000e-06	-1.274557e-06	-4.863922e-10	-8.866333e+00	-3.566891e+01
1.580000e-06	-1.228932e-06	-4.789007e-10	-8.548952e+00	-3.497496e+01
1.590000e-06	-1.183214e-06	-4.705761e-10	-8.230916e+00	-3.426792e+01
1.600000e-06	-1.137414e-06	-4.594845e-10	-7.912312e+00	-3.354743e+01
1.610000e-06	-1.091546e-06	-4.473437e-10	-7.593237e+00	-3.281315e+01
1.620000e-06	-1.045578e-06	-4.314577e-10	-7.273465e+00	-3.206472e+01
1.630000e-06	-9.994842e-07	-4.154706e-10	-6.952818e+00	-3.130178e+01
1.640000e-06	-9.533697e-07	-4.014753e-10	-6.632027e+00	-3.052399e+01
1.650000e-06	-9.072155e-07	-3.901206e-10	-6.310959e+00	-2.973101e+01
1.660000e-06	-8.609810e-07	-3.778483e-10	-5.989333e+00	-2.892251e+01
1.670000e-06	-8.147136e-07	-3.650413e-10	-5.667478e+00	-2.809819e+01
1.680000e-06	-7.684450e-07	-3.532147e-10	-5.345616e+00	-2.725775e+01
1.690000e-06	-7.221419e-07	-3.423974e-10	-5.023512e+00	-2.640090e+01
1.700000e-06	-6.757661e-07	-3.290806e-10	-4.700903e+00	-2.552741e+01
1.710000e-06	-6.293474e-07	-3.134716e-10	-4.377996e+00	-2.463705e+01
1.720000e-06	-5.829034e-07	-2.955565e-10	-4.054912e+00	-2.372962e+01
1.730000e-06	-5.364362e-07	-2.771007e-10	-3.731668e+00	-2.280496e+01
1.740000e-06	-4.898921e-07	-2.609873e-10	-3.407888e+00	-2.186295e+01
1.750000e-06	-4.432755e-07	-2.465602e-10	-3.083605e+00	-2.090349e+01
1.760000e-06	-3.965405e-07	-2.345064e-10	-2.758497e+00	-1.992656e+01
1.770000e-06	-3.496992e-07	-2.239429e-10	-2.432649e+00	-1.893214e+01
1.780000e-06	-3.029213e-07	-2.107062e-10	-2.107244e+00	-1.792030e+01
1.790000e-06	-2.561461e-07	-1.944020e-10	-1.781856e+00	-1.689113e+01
1.800000e-06	-2.092599e-07	-1.775326e-10	-1.455697e+00	-1.584478e+01
1.810000e-06	-1.623970e-07	-1.588326e-10	-1.129699e+00	-1.478147e+01
1.820000e-06	-1.156015e-07	-1.407580e-10	-8.041707e-01	-1.370146e+01
1.830000e-06	-6.872719e-08	-1.238285e-10	-4.780942e-01	-1.260506e+01
1.840000e-06	-2.185454e-08	-1.083545e-10	-1.520290e-01	-1.149267e+01
1.850000e-06	2.500815e-08	-9.454327e-11	1.739668e-01	-1.036472e+01
1.860000e-06	7.187159e-08	-8.096960e-11	4.999680e-01	-9.221706e+00
1.870000e-06	1.186504e-07	-6.329715e-11	8.253800e-01	-8.064188e+00
1.880000e-06	1.653439e-07	-4.533226e-11	1.150199e+00	-6.892783e+00
1.890000e-06	2.120075e-07	-2.909260e-11	1.474810e+00	-5.708162e+00
1.900000e-06	2.587687e-07	-1.395890e-11	1.800100e+00	-4.511057e+00
1.910000e-06	3.055036e-07	2.091591e-14	2.125207e+00	-3.302249e+00
1.920000e-06	3.522064e-07	1.544993e-11	2.450091e+00	-2.082574e+00
1.930000e-06	3.989480e-07	3.486927e-11	2.775244e+00	-8.529167e-01
1.940000e-06	4.455473e-07	5.451243e-11	3.099408e+00	3.857921e-01
1.950000e-06	4.920628e-07	7.367766e-11	3.422988e+00	1.632579e+00
1.960000e-06	5.385937e-07	9.278033e-11	3.746677e+00	2.886432e+00
1.970000e-06	5.850405e-07	1.105619e-10	4.069779e+00	4.146302e+00
1.980000e-06	6.314438e-07	1.274016e-10	4.392579e+00	5.411113e+00
1.990000e-06	6.778402e-07	1.422087e-10	4.715332e+00	6.679757e+00
2.000000e-06	7.241798e-07	1.565403e-10	5.037688e+00	7.951111e+00
2.010000e-06	7.704245e-07	1.745909e-10	5.359386e+00	9.224032e+00
2.020000e-06	8.165618e-07	1.934132e-10	5.680336e+00	1.049737e+01
2.030000e-06	8.626672e-07	2.135006e-10	6.001063e+00	1.176995e+01
2.040000e-06	9.087624e-07	2.342797e-10	6.321720e+00	1.304063e+01
2.050000e-06	9.548147e-07	2.515282e-10	6.642078e+00	1.430826e+01
2.060000e-06	1.000783e-06	2.673894e-10	6.961856e+00	1.557167e+01
2.070000e-06	1.046723e-06	2.826018e-10	7.281432e+00	1.682975e+01
2.080000e-06	1.092644e-06	2.984704e-10	7.600873e+00	1.808138e+01
2.090000e-06	1.138458e-06	3.157584e-10	7.919578e+00	1.932548e+01
2.100000e-06	1.184169e-06	3.359349e-10	8.237562e+00	2.056100e+01
2.110000e-06	1.229808e-06	3.554459e-10	8.555042e+00	2.178692e+01
2.120000e-06	1.275397e-06	3.735236e-10	8.872178e+00	2.300226e+01
2.130000e-06	1.320952e-06	3.899401e-10	9.189077e+00	2.420608e+01
2.140000e-06	1.366388e-06	4.056416e-10	9.505149e+00	2.539750e+01
2.150000e-06	1.411703e-06	4.215219e-10	9.820380e+00	2.657567e+01
2.160000e-06	1.456890e-06	4.378594e-10	1.013472e+01	2.773982e+01
2.170000e-06	1.501974e-06	4.545399e-10	1.044834e+01	2.888922e+01
2.180000e-06	1.546911e-06	4.704590e-10	1.076094e+01	3.002318e+01
2.190000e-06	1.591643e-06	4.867933e-10	1.107211e+01	3.114112e+01
2.200000e-06	1.636293e-06	5.042594e-10	1.138272e+01	3.224246e+01
2.210000e-06	1.680814e-06	5.197435e-10	1.169243e+01	3.332674e+01
2.220000e-06	1.725268e-06	5.333783e-10	1.200167e+01	3.439352e+01
2.230000e-06	1.769658e-06	5.466020e-10	1.231046e+01	3.544244e+01
2.240000e-06	1.813856e-06	5.604650e-10	1.261792e+01	3.647320e+01
2.250000e-06	1.857944e-06	5.762933e-10	1.292461e+01	3.748556e+01
2.260000e-06	1.901982e-06	5.936074e-10	1.323096e+01	3.847934e+01
2.270000e-06	1.945882e-06	6.084599e-10	1.353634e+01	3.945443e+01
2.280000e-06	1.989685e-06	6.206036e-10	1.384106e+01	4.041074e+01
2.290000e-06	2.033485e-06	6.334157e-10	1.414574e+01	4.134827e+01
2.300000e-06	2.077274e-06	6.466875e-10	1.445036e+01	4.226705e+01
2.310000e-06	2.121028e-06	6.591418e-10	1.475473e+01	4.316717e+01
2.320000e-06	2.164688e-06	6.728832e-10	1.505845e+01	4.404876e+01
2.330000e-06	2.208182e-06	6.892791e-10	1.536101e+01	4.491198e+01
2.340000e-06	2.251516e-06	7.055719e-10	1.566246e+01	4.575704e+01
2.350000e-06	2.294714e-06	7.171790e-10	1.596296e+01	4.658418e+01
2.360000e-06	2.337654e-06	7.246127e-10	1.626167e+01	4.739366e+01
2.370000e-06	2.380283e-06	7.320633e-10	1.655821e+01	4.818577e+01
2.380000e-06	2.422666e-06	7.389435e-10	1.685304e+01	4.896084e+01
2.390000e-06	2.464740e-06	7.498106e-10	1.714574e+01	4.971917e+01
2.400000e-06	2.506527e-06	7.627503e-10	1.743642e+01	5.046112e+01
2.410000e-06	2.548014e-06	7.769809e-10	1.772502e+01	5.118705e+01
2.420000e-06	2.589087e-06	7.901189e-10	1.801074e+01	5.189729e+01
2.430000e-06	2.629851e-06	8.030799e-10	1.829431e+01	5.259222e+01
2.440000e-06	2.670375e-06	8.132492e-10	1.857621e+01	5.327220e+01
2.450000e-06	2.710649e-06	8.184961e-10	1.885638e+01	5.393756e+01
2.460000e-06	2.750760e-06	8.238662e-10	1.913540e+01	5.458867e+01
2.470000e-06	2.790784e-06	8.309065e-10	1.941383e+01	5.522584e+01
2.480000e-06	2.830731e-06	8.401942e-10	1.969171e+01	5.584942e+01
2.490000e-06	2.870551e-06	8.496746e-10	1.996871e+01	5.645971e+01
2.500000e-06	2.910240e-06	8.607102e-10	2.024481e+01	5.705700e+01
2.510000e-06	2.949825e-06	8.723945e-10	2.052018e+01	5.764157e+01
2.520000e-06	2.989218e-06	8.808797e-10	2.079421e+01	5.821367e+01
2.530000e-06	3.028445e-06	8.872233e-10	2.106709e+01	5.877356e+01
2.540000e-06	3.067500e-06	8.920293e-10	2.133877e+01	5.932146e+01
2.550000e-06	3.106236e-06	8.984360e-10	2.160824e+01	5.985755e+01
2.560000e-06	3.144640e-06	9.042322e-10	2.187539e+01	6.038205e+01
2.570000e-06	3.182829e-06	9.107876e-10	2.214105e+01	6.089510e+01
2.580000e-06	3.220909e-06	9.221455e-10	2.240595e+01	6.139686e+01
2.590000e-06	3.258794e-06	9.314707e-10	2.266950e+01	6.188747e+01
2.600000e-06	3.296459e-06	9.392204e-10	2.293151e+01	6.236704e+01
2.610000e-06	3.333904e-06	9.437326e-10	2.319199e+01	6.283569e+01
2.620000e-06	3.371008e-06	9.480760e-10	2.345010e+01	6.329351e+01
2.630000e-06	3.407760e-06	9.534742e-10	2.370577e+01	6.374060e+01
2.640000e-06	3.444270e-06	9.581443e-10	2.395974e+01	6.417702e+01
2.650000e-06	3.480569e-06	9.661014e-10	2.421225e+01	6.460286e+01
2.660000e-06	3.516685e-06	9.775478e-10	2.446349e+01	6.501819e+01
2.670000e-06	3.552675e-06	9.875445e-10	2.471385e+01	6.542307e+01
2.680000e-06	3.588543e-06	9.902544e-10	2.496336e+01	6.581760e+01
2.690000e-06	3.624326e-06	9.884591e-10	2.521228e+01	6.620183e+01
2.700000e-06	3.659951e-06	9.852304e-10	2.546010e+01	6.657585e+01
2.710000e-06	3.695327e-06	9.845003e-10	2.570619e+01	6.693974e+01
2.720000e-06	3.730460e-06	9.898484e-10	2.595060e+01	6.729362e+01
2.730000e-06	3.765246e-06	9.992913e-10	2.619258e+01	6.763757e+01
2.740000e-06	3.799531e-06	1.009282e-09	2.643108e+01	6.797172e+01
2.750000e-06	3.833360e-06	1.016807e-09	2.666641e+01	6.829621e+01
2.760000e-06	3.866723e-06	1.021304e-09	2.689850e+01	6.861117e+01
2.770000e-06	3.899528e-06	1.021175e-09	2.712670e+01	6.891677e+01
2.780000e-06	3.932024e-06	1.019434e-09	2.735276e+01	6.921317e+01
2.790000e-06	3.964288e-06	1.018613e-09	2.757720e+01	6.950057e+01
2.800000e-06	3.996295e-06	1.019264e-09	2.779985e+01	6.977918e+01
2.810000e-06	4.028167e-06	1.022640e-09	2.802157e+01	7.004920e+01
2.820000e-06	4.059907e-06	1.030723e-09	2.824236e+01	7.031088e+01
2.830000e-06	4.091494e-06	1.039737e-09	2.846209e+01	7.056446e+01
2.840000e-06	4.122841e-06	1.045664e-09	2.868015e+01	7.081020e+01
2.850000e-06	4.153849e-06	1.048342e-09	2.889586e+01	7.104836e+01
2.860000e-06	4.184533e-06	1.046991e-09	2.910931e+01	7.127923e+01
2.870000e-06	4.214878e-06	1.044470e-09	2.932040e+01	7.150309e+01
2.880000e-06	4.244851e-06	1.042692e-09	2.952890e+01	7.172024e+01
2.890000e-06	4.274591e-06	1.041040e-09	2.973579e+01	7.193097e+01
2.900000e-06	4.304130e-06	1.043142e-09	2.994128e+01	7.213558e+01
