# Temperatura_=_-0.3
# Concentracion g/m^3_=_1620.0
# C_Vs_to_Am_M_A/Vsm_=_65563218390.804596
# pendiente_HvsI_1/m_=_3716.3
# ordenada_HvsI_A/m_=_1297.0
# frecuencia_Hz_=_135104.39859540472

Tiempo_(s)	Campo_(V.s)	Magnetizacion_(V.s)	Campo_(kA/m)	Magnetizacion_(A/m)
0.000000e+00	-5.525537e-06	-1.473376e-09	-3.836755e+01	-9.619404e+01
1.000000e-08	-5.525650e-06	-1.471399e-09	-3.836834e+01	-9.618849e+01
2.000000e-08	-5.525493e-06	-1.470248e-09	-3.836725e+01	-9.618138e+01
3.000000e-08	-5.524831e-06	-1.469196e-09	-3.836266e+01	-9.617259e+01
4.000000e-08	-5.523554e-06	-1.467168e-09	-3.835379e+01	-9.616202e+01
5.000000e-08	-5.521713e-06	-1.462209e-09	-3.834100e+01	-9.614951e+01
6.000000e-08	-5.519266e-06	-1.448525e-09	-3.832402e+01	-9.613492e+01
7.000000e-08	-5.516238e-06	-1.447581e-09	-3.830299e+01	-9.611810e+01
8.000000e-08	-5.512819e-06	-1.474942e-09	-3.827925e+01	-9.609888e+01
9.000000e-08	-5.509013e-06	-1.514119e-09	-3.825282e+01	-9.607709e+01
1.000000e-07	-5.504760e-06	-1.502624e-09	-3.822329e+01	-9.605256e+01
1.100000e-07	-5.500194e-06	-1.446761e-09	-3.819158e+01	-9.602512e+01
1.200000e-07	-5.495482e-06	-1.412844e-09	-3.815886e+01	-9.599457e+01
1.300000e-07	-5.490518e-06	-1.465502e-09	-3.812440e+01	-9.596073e+01
1.400000e-07	-5.485151e-06	-1.476772e-09	-3.808713e+01	-9.592341e+01
1.500000e-07	-5.479395e-06	-1.459928e-09	-3.804716e+01	-9.588244e+01
1.600000e-07	-5.473267e-06	-1.420167e-09	-3.800461e+01	-9.583762e+01
1.700000e-07	-5.466685e-06	-1.462624e-09	-3.795891e+01	-9.578877e+01
1.800000e-07	-5.459660e-06	-1.474765e-09	-3.791013e+01	-9.573572e+01
1.900000e-07	-5.452334e-06	-1.460357e-09	-3.785926e+01	-9.567828e+01
2.000000e-07	-5.444711e-06	-1.430124e-09	-3.780633e+01	-9.561629e+01
2.100000e-07	-5.436814e-06	-1.451146e-09	-3.775149e+01	-9.554957e+01
2.200000e-07	-5.428636e-06	-1.474794e-09	-3.769471e+01	-9.547797e+01
2.300000e-07	-5.420144e-06	-1.458397e-09	-3.763574e+01	-9.540133e+01
2.400000e-07	-5.411133e-06	-1.437596e-09	-3.757317e+01	-9.531951e+01
2.500000e-07	-5.401252e-06	-1.426835e-09	-3.750457e+01	-9.523236e+01
2.600000e-07	-5.390564e-06	-1.441150e-09	-3.743035e+01	-9.513975e+01
2.700000e-07	-5.379442e-06	-1.425238e-09	-3.735312e+01	-9.504156e+01
2.800000e-07	-5.367977e-06	-1.420956e-09	-3.727351e+01	-9.493767e+01
2.900000e-07	-5.356200e-06	-1.412295e-09	-3.719174e+01	-9.482797e+01
3.000000e-07	-5.344138e-06	-1.432848e-09	-3.710798e+01	-9.471236e+01
3.100000e-07	-5.331634e-06	-1.404729e-09	-3.702116e+01	-9.459075e+01
3.200000e-07	-5.318695e-06	-1.399564e-09	-3.693131e+01	-9.446307e+01
3.300000e-07	-5.305371e-06	-1.391993e-09	-3.683879e+01	-9.432924e+01
3.400000e-07	-5.291724e-06	-1.412173e-09	-3.674403e+01	-9.418920e+01
3.500000e-07	-5.277574e-06	-1.388287e-09	-3.664578e+01	-9.404289e+01
3.600000e-07	-5.262782e-06	-1.393011e-09	-3.654307e+01	-9.389028e+01
3.700000e-07	-5.247638e-06	-1.390726e-09	-3.643792e+01	-9.373132e+01
3.800000e-07	-5.232095e-06	-1.385357e-09	-3.632999e+01	-9.356599e+01
3.900000e-07	-5.215922e-06	-1.362991e-09	-3.621769e+01	-9.339428e+01
4.000000e-07	-5.199354e-06	-1.385056e-09	-3.610265e+01	-9.321617e+01
4.100000e-07	-5.182564e-06	-1.392108e-09	-3.598607e+01	-9.303166e+01
4.200000e-07	-5.165428e-06	-1.364910e-09	-3.586708e+01	-9.284078e+01
4.300000e-07	-5.147885e-06	-1.355797e-09	-3.574526e+01	-9.264353e+01
4.400000e-07	-5.130074e-06	-1.381313e-09	-3.562159e+01	-9.243995e+01
4.500000e-07	-5.111873e-06	-1.367323e-09	-3.549521e+01	-9.223006e+01
4.600000e-07	-5.093124e-06	-1.337596e-09	-3.536502e+01	-9.201392e+01
4.700000e-07	-5.073982e-06	-1.358272e-09	-3.523211e+01	-9.179158e+01
4.800000e-07	-5.054586e-06	-1.374362e-09	-3.509743e+01	-9.156309e+01
4.900000e-07	-5.034986e-06	-1.353085e-09	-3.496133e+01	-9.132852e+01
5.000000e-07	-5.015182e-06	-1.345984e-09	-3.482382e+01	-9.108796e+01
5.100000e-07	-4.995164e-06	-1.364033e-09	-3.468482e+01	-9.084147e+01
5.200000e-07	-4.974779e-06	-1.340954e-09	-3.454327e+01	-9.058916e+01
5.300000e-07	-4.953963e-06	-1.327842e-09	-3.439873e+01	-9.033112e+01
5.400000e-07	-4.932781e-06	-1.340077e-09	-3.425165e+01	-9.006744e+01
5.500000e-07	-4.911236e-06	-1.339476e-09	-3.410205e+01	-8.979825e+01
5.600000e-07	-4.889374e-06	-1.316985e-09	-3.395025e+01	-8.952364e+01
5.700000e-07	-4.867229e-06	-1.330795e-09	-3.379648e+01	-8.924375e+01
5.800000e-07	-4.844687e-06	-1.334250e-09	-3.363995e+01	-8.895869e+01
5.900000e-07	-4.821792e-06	-1.322431e-09	-3.348098e+01	-8.866859e+01
6.000000e-07	-4.798682e-06	-1.318688e-09	-3.332051e+01	-8.837358e+01
6.100000e-07	-4.775315e-06	-1.327979e-09	-3.315826e+01	-8.807379e+01
6.200000e-07	-4.751686e-06	-1.311172e-09	-3.299419e+01	-8.776935e+01
6.300000e-07	-4.727833e-06	-1.309748e-09	-3.282855e+01	-8.746041e+01
6.400000e-07	-4.703683e-06	-1.309395e-09	-3.266087e+01	-8.714710e+01
6.500000e-07	-4.679114e-06	-1.299746e-09	-3.249027e+01	-8.682955e+01
6.600000e-07	-4.654065e-06	-1.290168e-09	-3.231633e+01	-8.650791e+01
6.700000e-07	-4.628499e-06	-1.296046e-09	-3.213881e+01	-8.618229e+01
6.800000e-07	-4.602372e-06	-1.285650e-09	-3.195740e+01	-8.585283e+01
6.900000e-07	-4.575713e-06	-1.280994e-09	-3.177228e+01	-8.551966e+01
7.000000e-07	-4.548562e-06	-1.282754e-09	-3.158375e+01	-8.518290e+01
7.100000e-07	-4.521106e-06	-1.273464e-09	-3.139311e+01	-8.484266e+01
7.200000e-07	-4.493539e-06	-1.260365e-09	-3.120169e+01	-8.449905e+01
7.300000e-07	-4.465864e-06	-1.261007e-09	-3.100953e+01	-8.415217e+01
7.400000e-07	-4.437959e-06	-1.250178e-09	-3.081576e+01	-8.380212e+01
7.500000e-07	-4.409707e-06	-1.239590e-09	-3.061959e+01	-8.344898e+01
7.600000e-07	-4.381134e-06	-1.246637e-09	-3.042119e+01	-8.309282e+01
7.700000e-07	-4.352254e-06	-1.241327e-09	-3.022066e+01	-8.273372e+01
7.800000e-07	-4.323029e-06	-1.224202e-09	-3.001773e+01	-8.237171e+01
7.900000e-07	-4.293502e-06	-1.220845e-09	-2.981270e+01	-8.200686e+01
8.000000e-07	-4.263748e-06	-1.219487e-09	-2.960610e+01	-8.163917e+01
8.100000e-07	-4.233752e-06	-1.198601e-09	-2.939781e+01	-8.126867e+01
8.200000e-07	-4.203336e-06	-1.189135e-09	-2.918662e+01	-8.089537e+01
8.300000e-07	-4.172472e-06	-1.187402e-09	-2.897231e+01	-8.051926e+01
8.400000e-07	-4.141387e-06	-1.179232e-09	-2.875646e+01	-8.014031e+01
8.500000e-07	-4.110178e-06	-1.168711e-09	-2.853976e+01	-7.975848e+01
8.600000e-07	-4.078787e-06	-1.169490e-09	-2.832179e+01	-7.937375e+01
8.700000e-07	-4.047211e-06	-1.158960e-09	-2.810253e+01	-7.898603e+01
8.800000e-07	-4.015498e-06	-1.148691e-09	-2.788233e+01	-7.859526e+01
8.900000e-07	-3.983648e-06	-1.144312e-09	-2.766117e+01	-7.820136e+01
9.000000e-07	-3.951576e-06	-1.140454e-09	-2.743848e+01	-7.780423e+01
9.100000e-07	-3.919085e-06	-1.126741e-09	-2.721287e+01	-7.740378e+01
9.200000e-07	-3.886055e-06	-1.120391e-09	-2.698352e+01	-7.699987e+01
9.300000e-07	-3.852585e-06	-1.116583e-09	-2.675111e+01	-7.659240e+01
9.400000e-07	-3.818634e-06	-1.108728e-09	-2.651537e+01	-7.618123e+01
9.500000e-07	-3.784213e-06	-1.098801e-09	-2.627636e+01	-7.576623e+01
9.600000e-07	-3.749455e-06	-1.095657e-09	-2.603501e+01	-7.534726e+01
9.700000e-07	-3.714328e-06	-1.087904e-09	-2.579110e+01	-7.492418e+01
9.800000e-07	-3.678928e-06	-1.079668e-09	-2.554530e+01	-7.449684e+01
9.900000e-07	-3.643392e-06	-1.074555e-09	-2.529855e+01	-7.406509e+01
1.000000e-06	-3.607773e-06	-1.070710e-09	-2.505122e+01	-7.362880e+01
1.010000e-06	-3.572054e-06	-1.065130e-09	-2.480320e+01	-7.318782e+01
1.020000e-06	-3.536118e-06	-1.059795e-09	-2.455367e+01	-7.274200e+01
1.030000e-06	-3.499935e-06	-1.052153e-09	-2.430242e+01	-7.229123e+01
1.040000e-06	-3.463565e-06	-1.043359e-09	-2.404988e+01	-7.183537e+01
1.050000e-06	-3.426957e-06	-1.037062e-09	-2.379569e+01	-7.137429e+01
1.060000e-06	-3.390033e-06	-1.031262e-09	-2.353931e+01	-7.090790e+01
1.070000e-06	-3.352802e-06	-1.024248e-09	-2.328078e+01	-7.043610e+01
1.080000e-06	-3.315329e-06	-1.017539e-09	-2.302058e+01	-6.995878e+01
1.090000e-06	-3.277666e-06	-1.014561e-09	-2.275906e+01	-6.947588e+01
1.100000e-06	-3.239853e-06	-1.007251e-09	-2.249650e+01	-6.898734e+01
1.110000e-06	-3.201789e-06	-1.000332e-09	-2.223220e+01	-6.849310e+01
1.120000e-06	-3.163449e-06	-9.930544e-10	-2.196597e+01	-6.799313e+01
1.130000e-06	-3.124935e-06	-9.846198e-10	-2.169855e+01	-6.748739e+01
1.140000e-06	-3.086182e-06	-9.738325e-10	-2.142946e+01	-6.697590e+01
1.150000e-06	-3.047165e-06	-9.640218e-10	-2.115854e+01	-6.645864e+01
1.160000e-06	-3.007969e-06	-9.550792e-10	-2.088638e+01	-6.593564e+01
1.170000e-06	-2.968584e-06	-9.470852e-10	-2.061290e+01	-6.540692e+01
1.180000e-06	-2.929017e-06	-9.418435e-10	-2.033815e+01	-6.487254e+01
1.190000e-06	-2.889368e-06	-9.383074e-10	-2.006284e+01	-6.433253e+01
1.200000e-06	-2.849649e-06	-9.304247e-10	-1.978705e+01	-6.378697e+01
1.210000e-06	-2.809750e-06	-9.223906e-10	-1.951000e+01	-6.323593e+01
1.220000e-06	-2.769725e-06	-9.132596e-10	-1.923208e+01	-6.267948e+01
1.230000e-06	-2.729556e-06	-9.011669e-10	-1.895316e+01	-6.211771e+01
1.240000e-06	-2.689152e-06	-8.867050e-10	-1.867261e+01	-6.155069e+01
1.250000e-06	-2.648516e-06	-8.768083e-10	-1.839044e+01	-6.097852e+01
1.260000e-06	-2.607588e-06	-8.679329e-10	-1.810625e+01	-6.040127e+01
1.270000e-06	-2.566376e-06	-8.595552e-10	-1.782010e+01	-5.981902e+01
1.280000e-06	-2.524981e-06	-8.535575e-10	-1.753266e+01	-5.923186e+01
1.290000e-06	-2.483247e-06	-8.472372e-10	-1.724287e+01	-5.863983e+01
1.300000e-06	-2.441109e-06	-8.374275e-10	-1.695028e+01	-5.804299e+01
1.310000e-06	-2.398697e-06	-8.254003e-10	-1.665578e+01	-5.744138e+01
1.320000e-06	-2.355996e-06	-8.127219e-10	-1.635928e+01	-5.683501e+01
1.330000e-06	-2.313078e-06	-7.978820e-10	-1.606127e+01	-5.622388e+01
1.340000e-06	-2.269895e-06	-7.847999e-10	-1.576142e+01	-5.560798e+01
1.350000e-06	-2.226463e-06	-7.773984e-10	-1.545985e+01	-5.498725e+01
1.360000e-06	-2.182922e-06	-7.702674e-10	-1.515751e+01	-5.436163e+01
1.370000e-06	-2.139331e-06	-7.609522e-10	-1.485483e+01	-5.373100e+01
1.380000e-06	-2.095704e-06	-7.496313e-10	-1.455190e+01	-5.309524e+01
1.390000e-06	-2.052005e-06	-7.377140e-10	-1.424846e+01	-5.245417e+01
1.400000e-06	-2.008211e-06	-7.269998e-10	-1.394437e+01	-5.180761e+01
1.410000e-06	-1.964327e-06	-7.159867e-10	-1.363965e+01	-5.115532e+01
1.420000e-06	-1.920373e-06	-7.053935e-10	-1.333445e+01	-5.049702e+01
1.430000e-06	-1.876337e-06	-6.941715e-10	-1.302868e+01	-4.983242e+01
1.440000e-06	-1.832166e-06	-6.840308e-10	-1.272197e+01	-4.916117e+01
1.450000e-06	-1.787850e-06	-6.740495e-10	-1.241426e+01	-4.848289e+01
1.460000e-06	-1.743405e-06	-6.629929e-10	-1.210564e+01	-4.779716e+01
1.470000e-06	-1.698825e-06	-6.513124e-10	-1.179609e+01	-4.710354e+01
1.480000e-06	-1.654098e-06	-6.404999e-10	-1.148553e+01	-4.640155e+01
1.490000e-06	-1.609206e-06	-6.303972e-10	-1.117381e+01	-4.569066e+01
1.500000e-06	-1.564144e-06	-6.210785e-10	-1.086091e+01	-4.497033e+01
1.510000e-06	-1.518955e-06	-6.116876e-10	-1.054713e+01	-4.424000e+01
1.520000e-06	-1.473631e-06	-5.999181e-10	-1.023242e+01	-4.349905e+01
1.530000e-06	-1.428145e-06	-5.855332e-10	-9.916580e+00	-4.274687e+01
1.540000e-06	-1.382614e-06	-5.716280e-10	-9.600431e+00	-4.198282e+01
1.550000e-06	-1.337102e-06	-5.568323e-10	-9.284407e+00	-4.120624e+01
1.560000e-06	-1.291539e-06	-5.417262e-10	-8.968033e+00	-4.041647e+01
1.570000e-06	-1.245878e-06	-5.272439e-10	-8.650980e+00	-3.961283e+01
1.580000e-06	-1.200136e-06	-5.146806e-10	-8.333359e+00	-3.879466e+01
1.590000e-06	-1.154288e-06	-5.020885e-10	-8.015009e+00	-3.796126e+01
1.600000e-06	-1.108324e-06	-4.882132e-10	-7.695850e+00	-3.711199e+01
1.610000e-06	-1.062348e-06	-4.738784e-10	-7.376606e+00	-3.624618e+01
1.620000e-06	-1.016329e-06	-4.592333e-10	-7.057061e+00	-3.536320e+01
1.630000e-06	-9.701499e-07	-4.446732e-10	-6.736410e+00	-3.446244e+01
1.640000e-06	-9.238633e-07	-4.292313e-10	-6.415011e+00	-3.354330e+01
1.650000e-06	-8.775394e-07	-4.127799e-10	-6.093352e+00	-3.260524e+01
1.660000e-06	-8.311925e-07	-3.968742e-10	-5.771534e+00	-3.164774e+01
1.670000e-06	-7.847551e-07	-3.823532e-10	-5.449088e+00	-3.067032e+01
1.680000e-06	-7.382294e-07	-3.684261e-10	-5.126028e+00	-2.967256e+01
1.690000e-06	-6.916581e-07	-3.541367e-10	-4.802652e+00	-2.865409e+01
1.700000e-06	-6.450932e-07	-3.388812e-10	-4.479320e+00	-2.761458e+01
1.710000e-06	-5.985105e-07	-3.237033e-10	-4.155865e+00	-2.655379e+01
1.720000e-06	-5.518647e-07	-3.083521e-10	-3.831972e+00	-2.547153e+01
1.730000e-06	-5.052100e-07	-2.899548e-10	-3.508016e+00	-2.436766e+01
1.740000e-06	-4.585109e-07	-2.688217e-10	-3.183753e+00	-2.324213e+01
1.750000e-06	-4.117386e-07	-2.496809e-10	-2.858981e+00	-2.209497e+01
1.760000e-06	-3.648857e-07	-2.320792e-10	-2.533650e+00	-2.092628e+01
1.770000e-06	-3.180509e-07	-2.149326e-10	-2.208443e+00	-1.973623e+01
1.780000e-06	-2.711793e-07	-2.000863e-10	-1.882982e+00	-1.852507e+01
1.790000e-06	-2.242641e-07	-1.871439e-10	-1.557218e+00	-1.729314e+01
1.800000e-06	-1.773857e-07	-1.713304e-10	-1.231709e+00	-1.604084e+01
1.810000e-06	-1.305391e-07	-1.526677e-10	-9.064213e-01	-1.476869e+01
1.820000e-06	-8.363915e-08	-1.328717e-10	-5.807634e-01	-1.347724e+01
1.830000e-06	-3.666963e-08	-1.132405e-10	-2.546221e-01	-1.216715e+01
1.840000e-06	1.029339e-08	-9.545664e-11	7.147400e-02	-1.083914e+01
1.850000e-06	5.725647e-08	-8.048168e-11	3.975706e-01	-9.494020e+00
1.860000e-06	1.041454e-07	-6.329948e-11	7.231524e-01	-8.132657e+00
1.870000e-06	1.510190e-07	-4.239704e-11	1.048628e+00	-6.755991e+00
1.880000e-06	1.978994e-07	-2.302117e-11	1.374150e+00	-5.365025e+00
1.890000e-06	2.448014e-07	-3.717602e-12	1.699822e+00	-3.960823e+00
1.900000e-06	2.916976e-07	1.415874e-11	2.025455e+00	-2.544504e+00
1.910000e-06	3.385176e-07	3.060732e-11	2.350558e+00	-1.117238e+00
1.920000e-06	3.853167e-07	4.891138e-11	2.675516e+00	3.197619e-01
1.930000e-06	4.321032e-07	7.034685e-11	3.000386e+00	1.765239e+00
1.940000e-06	4.788429e-07	9.472098e-11	3.324932e+00	3.217905e+00
1.950000e-06	5.255002e-07	1.185483e-10	3.648905e+00	4.676442e+00
1.960000e-06	5.721109e-07	1.399178e-10	3.972555e+00	6.139511e+00
1.970000e-06	6.186881e-07	1.579610e-10	4.295972e+00	7.605755e+00
1.980000e-06	6.651967e-07	1.733064e-10	4.618912e+00	9.073810e+00
1.990000e-06	7.115932e-07	1.872902e-10	4.941075e+00	1.054231e+01
2.000000e-06	7.579866e-07	2.051025e-10	5.263216e+00	1.200988e+01
2.010000e-06	8.044053e-07	2.250630e-10	5.585533e+00	1.347517e+01
2.020000e-06	8.506971e-07	2.481751e-10	5.906968e+00	1.493684e+01
2.030000e-06	8.968914e-07	2.766917e-10	6.227726e+00	1.639356e+01
2.040000e-06	9.430292e-07	3.026794e-10	6.548092e+00	1.784404e+01
2.050000e-06	9.890883e-07	3.241477e-10	6.867912e+00	1.928702e+01
2.060000e-06	1.035050e-06	3.410638e-10	7.187057e+00	2.072128e+01
2.070000e-06	1.080981e-06	3.555724e-10	7.505982e+00	2.214563e+01
2.080000e-06	1.126869e-06	3.713735e-10	7.824620e+00	2.355894e+01
2.090000e-06	1.172652e-06	3.915655e-10	8.142523e+00	2.496011e+01
2.100000e-06	1.218364e-06	4.158050e-10	8.459928e+00	2.634813e+01
2.110000e-06	1.263997e-06	4.396135e-10	8.776789e+00	2.772202e+01
2.120000e-06	1.309556e-06	4.606438e-10	9.093137e+00	2.908087e+01
2.130000e-06	1.354966e-06	4.783186e-10	9.408453e+00	3.042382e+01
2.140000e-06	1.400255e-06	4.926597e-10	9.722921e+00	3.175011e+01
2.150000e-06	1.445565e-06	5.066545e-10	1.003754e+01	3.305901e+01
2.160000e-06	1.490827e-06	5.230948e-10	1.035183e+01	3.434987e+01
2.170000e-06	1.535946e-06	5.428319e-10	1.066512e+01	3.562212e+01
2.180000e-06	1.580920e-06	5.642948e-10	1.097740e+01	3.687525e+01
2.190000e-06	1.625794e-06	5.860378e-10	1.128899e+01	3.810881e+01
2.200000e-06	1.670542e-06	6.024651e-10	1.159971e+01	3.932243e+01
2.210000e-06	1.715051e-06	6.125202e-10	1.190876e+01	4.051580e+01
2.220000e-06	1.759381e-06	6.219859e-10	1.221658e+01	4.168868e+01
2.230000e-06	1.803592e-06	6.355610e-10	1.252357e+01	4.284089e+01
2.240000e-06	1.847745e-06	6.533273e-10	1.283015e+01	4.397231e+01
2.250000e-06	1.891806e-06	6.731165e-10	1.313610e+01	4.508287e+01
2.260000e-06	1.935673e-06	6.920278e-10	1.344070e+01	4.617259e+01
2.270000e-06	1.979405e-06	7.086003e-10	1.374436e+01	4.724149e+01
2.280000e-06	2.023092e-06	7.218927e-10	1.404770e+01	4.828967e+01
2.290000e-06	2.066773e-06	7.313074e-10	1.435101e+01	4.931729e+01
2.300000e-06	2.110407e-06	7.394379e-10	1.465399e+01	5.032451e+01
2.310000e-06	2.153966e-06	7.511689e-10	1.495645e+01	5.131157e+01
2.320000e-06	2.197440e-06	7.667863e-10	1.525832e+01	5.227871e+01
2.330000e-06	2.240811e-06	7.841418e-10	1.555947e+01	5.322622e+01
2.340000e-06	2.283999e-06	8.007355e-10	1.585935e+01	5.415442e+01
2.350000e-06	2.327018e-06	8.151266e-10	1.615807e+01	5.506365e+01
2.360000e-06	2.369874e-06	8.273344e-10	1.645565e+01	5.595424e+01
2.370000e-06	2.412487e-06	8.357501e-10	1.675153e+01	5.682659e+01
2.380000e-06	2.454773e-06	8.451040e-10	1.704516e+01	5.768107e+01
2.390000e-06	2.496700e-06	8.562877e-10	1.733629e+01	5.851807e+01
2.400000e-06	2.538299e-06	8.686131e-10	1.762514e+01	5.933799e+01
2.410000e-06	2.579627e-06	8.816938e-10	1.791210e+01	6.014123e+01
2.420000e-06	2.620721e-06	8.951829e-10	1.819745e+01	6.092819e+01
2.430000e-06	2.661462e-06	9.067224e-10	1.848034e+01	6.169928e+01
2.440000e-06	2.701855e-06	9.155726e-10	1.876081e+01	6.245487e+01
2.450000e-06	2.742018e-06	9.243650e-10	1.903969e+01	6.319537e+01
2.460000e-06	2.782011e-06	9.338843e-10	1.931739e+01	6.392115e+01
2.470000e-06	2.821852e-06	9.433013e-10	1.959403e+01	6.463257e+01
2.480000e-06	2.861588e-06	9.522185e-10	1.986995e+01	6.533001e+01
2.490000e-06	2.901305e-06	9.616554e-10	2.014573e+01	6.601380e+01
2.500000e-06	2.940945e-06	9.715272e-10	2.042098e+01	6.668427e+01
2.510000e-06	2.980466e-06	9.820879e-10	2.069540e+01	6.734176e+01
2.520000e-06	3.019821e-06	9.927496e-10	2.096867e+01	6.798656e+01
2.530000e-06	3.058905e-06	1.002402e-09	2.124006e+01	6.861897e+01
2.540000e-06	3.097742e-06	1.012301e-09	2.150973e+01	6.923928e+01
2.550000e-06	3.136313e-06	1.021265e-09	2.177755e+01	6.984776e+01
2.560000e-06	3.174644e-06	1.029998e-09	2.204371e+01	7.044465e+01
2.570000e-06	3.212748e-06	1.038783e-09	2.230830e+01	7.103021e+01
2.580000e-06	3.250611e-06	1.046374e-09	2.257120e+01	7.160468e+01
2.590000e-06	3.288283e-06	1.053558e-09	2.283278e+01	7.216828e+01
2.600000e-06	3.325793e-06	1.058966e-09	2.309324e+01	7.272124e+01
2.610000e-06	3.363114e-06	1.063784e-09	2.335238e+01	7.326375e+01
2.620000e-06	3.400115e-06	1.069937e-09	2.360931e+01	7.379604e+01
2.630000e-06	3.436839e-06	1.077383e-09	2.386431e+01	7.431830e+01
2.640000e-06	3.473325e-06	1.086052e-09	2.411766e+01	7.483073e+01
2.650000e-06	3.509581e-06	1.097178e-09	2.436940e+01	7.533352e+01
2.660000e-06	3.545640e-06	1.107059e-09	2.461979e+01	7.582687e+01
2.670000e-06	3.581456e-06	1.114168e-09	2.486848e+01	7.631096e+01
2.680000e-06	3.617117e-06	1.119296e-09	2.511610e+01	7.678601e+01
2.690000e-06	3.652691e-06	1.121527e-09	2.536312e+01	7.725219e+01
2.700000e-06	3.688171e-06	1.125809e-09	2.560947e+01	7.770970e+01
2.710000e-06	3.723520e-06	1.133086e-09	2.585493e+01	7.815875e+01
2.720000e-06	3.758672e-06	1.141167e-09	2.609902e+01	7.859952e+01
2.730000e-06	3.793523e-06	1.149671e-09	2.634101e+01	7.903223e+01
2.740000e-06	3.827910e-06	1.156904e-09	2.657978e+01	7.945709e+01
2.750000e-06	3.861718e-06	1.162124e-09	2.681453e+01	7.987430e+01
2.760000e-06	3.895047e-06	1.164519e-09	2.704596e+01	8.028407e+01
2.770000e-06	3.927917e-06	1.165750e-09	2.727420e+01	8.068662e+01
2.780000e-06	3.960323e-06	1.168796e-09	2.749921e+01	8.108216e+01
2.790000e-06	3.992465e-06	1.173337e-09	2.772240e+01	8.147092e+01
2.800000e-06	4.024365e-06	1.178754e-09	2.794390e+01	8.185311e+01
2.810000e-06	4.056077e-06	1.184010e-09	2.816410e+01	8.222895e+01
2.820000e-06	4.087679e-06	1.189542e-09	2.838353e+01	8.259865e+01
2.830000e-06	4.119078e-06	1.195650e-09	2.860156e+01	8.296244e+01
2.840000e-06	4.150248e-06	1.200020e-09	2.881799e+01	8.332051e+01
2.850000e-06	4.181177e-06	1.204532e-09	2.903275e+01	8.367308e+01
2.860000e-06	4.211743e-06	1.210463e-09	2.924499e+01	8.402035e+01
2.870000e-06	4.241905e-06	1.215947e-09	2.945443e+01	8.436251e+01
2.880000e-06	4.271772e-06	1.219345e-09	2.966182e+01	8.469974e+01
2.890000e-06	4.301377e-06	1.219859e-09	2.986738e+01	8.503222e+01
2.900000e-06	4.330742e-06	1.221146e-09	3.007128e+01	8.536012e+01
2.910000e-06	4.359862e-06	1.226504e-09	3.027348e+01	8.568358e+01
