# Temperatura_=_-14.25
# Concentracion g/m^3_=_1620.0
# C_Vs_to_Am_M_A/Vsm_=_65563218390.804596
# pendiente_HvsI_1/m_=_3716.3
# ordenada_HvsI_A/m_=_1297.0
# frecuencia_Hz_=_135101.97380666112

Tiempo_(s)	Campo_(V.s)	Magnetizacion_(V.s)	Campo_(kA/m)	Magnetizacion_(A/m)
0.000000e+00	-5.508077e-06	-7.566214e-10	-3.837690e+01	-4.908202e+01
1.000000e-08	-5.508252e-06	-7.580858e-10	-3.837813e+01	-4.907017e+01
2.000000e-08	-5.508147e-06	-7.613125e-10	-3.837739e+01	-4.905694e+01
3.000000e-08	-5.507701e-06	-7.642114e-10	-3.837429e+01	-4.904230e+01
4.000000e-08	-5.506996e-06	-7.660995e-10	-3.836938e+01	-4.902617e+01
5.000000e-08	-5.505862e-06	-7.644082e-10	-3.836147e+01	-4.900853e+01
6.000000e-08	-5.504017e-06	-7.634212e-10	-3.834862e+01	-4.898935e+01
7.000000e-08	-5.501512e-06	-7.520226e-10	-3.833117e+01	-4.896860e+01
8.000000e-08	-5.498446e-06	-7.550548e-10	-3.830980e+01	-4.894630e+01
9.000000e-08	-5.494827e-06	-7.616360e-10	-3.828459e+01	-4.892244e+01
1.000000e-07	-5.490773e-06	-7.474317e-10	-3.825634e+01	-4.889705e+01
1.100000e-07	-5.486452e-06	-7.322119e-10	-3.822624e+01	-4.887016e+01
1.200000e-07	-5.481995e-06	-7.989687e-10	-3.819518e+01	-4.884182e+01
1.300000e-07	-5.477267e-06	-7.604248e-10	-3.816224e+01	-4.881208e+01
1.400000e-07	-5.472120e-06	-7.558469e-10	-3.812638e+01	-4.878101e+01
1.500000e-07	-5.466549e-06	-7.066177e-10	-3.808757e+01	-4.874869e+01
1.600000e-07	-5.460643e-06	-8.016780e-10	-3.804642e+01	-4.871521e+01
1.700000e-07	-5.454301e-06	-7.785221e-10	-3.800223e+01	-4.868065e+01
1.800000e-07	-5.447488e-06	-7.229863e-10	-3.795476e+01	-4.864513e+01
1.900000e-07	-5.440288e-06	-6.909157e-10	-3.790459e+01	-4.860875e+01
2.000000e-07	-5.432768e-06	-7.466594e-10	-3.785220e+01	-4.857163e+01
2.100000e-07	-5.425013e-06	-7.773563e-10	-3.779817e+01	-4.853390e+01
2.200000e-07	-5.417025e-06	-7.290806e-10	-3.774251e+01	-4.849566e+01
2.300000e-07	-5.408885e-06	-7.164044e-10	-3.768580e+01	-4.845705e+01
2.400000e-07	-5.400455e-06	-7.073293e-10	-3.762706e+01	-4.841820e+01
2.500000e-07	-5.391337e-06	-7.311175e-10	-3.756353e+01	-4.837922e+01
2.600000e-07	-5.381384e-06	-6.789759e-10	-3.749419e+01	-4.834025e+01
2.700000e-07	-5.370788e-06	-7.079401e-10	-3.742036e+01	-4.830140e+01
2.800000e-07	-5.359681e-06	-7.042577e-10	-3.734297e+01	-4.826279e+01
2.900000e-07	-5.348109e-06	-7.303305e-10	-3.726235e+01	-4.822452e+01
3.000000e-07	-5.336151e-06	-6.794617e-10	-3.717903e+01	-4.818672e+01
3.100000e-07	-5.323801e-06	-7.056076e-10	-3.709298e+01	-4.814946e+01
3.200000e-07	-5.311003e-06	-6.804724e-10	-3.700382e+01	-4.811284e+01
3.300000e-07	-5.297893e-06	-7.068528e-10	-3.691248e+01	-4.807695e+01
3.400000e-07	-5.284392e-06	-6.698015e-10	-3.681841e+01	-4.804184e+01
3.500000e-07	-5.270459e-06	-6.810747e-10	-3.672133e+01	-4.800758e+01
3.600000e-07	-5.256132e-06	-6.815396e-10	-3.662151e+01	-4.797422e+01
3.700000e-07	-5.241412e-06	-7.209624e-10	-3.651895e+01	-4.794180e+01
3.800000e-07	-5.226078e-06	-6.817329e-10	-3.641211e+01	-4.791033e+01
3.900000e-07	-5.210164e-06	-6.811222e-10	-3.630123e+01	-4.787984e+01
4.000000e-07	-5.193820e-06	-7.013092e-10	-3.618736e+01	-4.785032e+01
4.100000e-07	-5.177077e-06	-6.915110e-10	-3.607070e+01	-4.782177e+01
4.200000e-07	-5.159954e-06	-6.632003e-10	-3.595140e+01	-4.779416e+01
4.300000e-07	-5.142448e-06	-7.045055e-10	-3.582943e+01	-4.776745e+01
4.400000e-07	-5.124749e-06	-7.241582e-10	-3.570611e+01	-4.774161e+01
4.500000e-07	-5.106796e-06	-6.659148e-10	-3.558102e+01	-4.771657e+01
4.600000e-07	-5.088353e-06	-6.898352e-10	-3.545253e+01	-4.769227e+01
4.700000e-07	-5.069429e-06	-7.316352e-10	-3.532067e+01	-4.766863e+01
4.800000e-07	-5.050202e-06	-6.941882e-10	-3.518671e+01	-4.764557e+01
4.900000e-07	-5.030702e-06	-6.623753e-10	-3.505085e+01	-4.762299e+01
5.000000e-07	-5.010978e-06	-7.305194e-10	-3.491342e+01	-4.760080e+01
5.100000e-07	-4.991072e-06	-6.993238e-10	-3.477473e+01	-4.757887e+01
5.200000e-07	-4.970877e-06	-6.621578e-10	-3.463402e+01	-4.755711e+01
5.300000e-07	-4.950314e-06	-7.071622e-10	-3.449075e+01	-4.753538e+01
5.400000e-07	-4.929449e-06	-7.345609e-10	-3.434538e+01	-4.751356e+01
5.500000e-07	-4.908226e-06	-6.572319e-10	-3.419751e+01	-4.749154e+01
5.600000e-07	-4.886637e-06	-6.944252e-10	-3.404709e+01	-4.746917e+01
5.700000e-07	-4.864752e-06	-7.314785e-10	-3.389462e+01	-4.744632e+01
5.800000e-07	-4.842583e-06	-6.853562e-10	-3.374015e+01	-4.742287e+01
5.900000e-07	-4.820100e-06	-6.651954e-10	-3.358350e+01	-4.739868e+01
6.000000e-07	-4.797248e-06	-7.313692e-10	-3.342429e+01	-4.737362e+01
6.100000e-07	-4.773977e-06	-6.982359e-10	-3.326215e+01	-4.734756e+01
6.200000e-07	-4.750355e-06	-6.772256e-10	-3.309756e+01	-4.732036e+01
6.300000e-07	-4.726585e-06	-7.173178e-10	-3.293195e+01	-4.729190e+01
6.400000e-07	-4.702633e-06	-7.248140e-10	-3.276506e+01	-4.726205e+01
6.500000e-07	-4.678375e-06	-6.823145e-10	-3.259605e+01	-4.723070e+01
6.600000e-07	-4.653763e-06	-7.069509e-10	-3.242457e+01	-4.719773e+01
6.700000e-07	-4.628674e-06	-7.113275e-10	-3.224977e+01	-4.716302e+01
6.800000e-07	-4.603144e-06	-6.831014e-10	-3.207189e+01	-4.712646e+01
6.900000e-07	-4.577113e-06	-6.901609e-10	-3.189052e+01	-4.708795e+01
7.000000e-07	-4.550435e-06	-7.124499e-10	-3.170465e+01	-4.704738e+01
7.100000e-07	-4.523232e-06	-6.944057e-10	-3.151511e+01	-4.700466e+01
7.200000e-07	-4.495704e-06	-6.927241e-10	-3.132331e+01	-4.695969e+01
7.300000e-07	-4.467961e-06	-7.103789e-10	-3.113002e+01	-4.691238e+01
7.400000e-07	-4.440051e-06	-6.965999e-10	-3.093556e+01	-4.686266e+01
7.500000e-07	-4.411953e-06	-6.832906e-10	-3.073979e+01	-4.681043e+01
7.600000e-07	-4.383632e-06	-6.888173e-10	-3.054246e+01	-4.675563e+01
7.700000e-07	-4.354990e-06	-6.916466e-10	-3.034290e+01	-4.669816e+01
7.800000e-07	-4.326009e-06	-6.809563e-10	-3.014098e+01	-4.663797e+01
7.900000e-07	-4.296739e-06	-6.938402e-10	-2.993705e+01	-4.657499e+01
8.000000e-07	-4.267175e-06	-6.939095e-10	-2.973106e+01	-4.650913e+01
8.100000e-07	-4.237342e-06	-6.856514e-10	-2.952320e+01	-4.644036e+01
8.200000e-07	-4.207212e-06	-6.772555e-10	-2.931328e+01	-4.636859e+01
8.300000e-07	-4.176872e-06	-6.838302e-10	-2.910188e+01	-4.629377e+01
8.400000e-07	-4.146219e-06	-6.682744e-10	-2.888832e+01	-4.621584e+01
8.500000e-07	-4.115234e-06	-6.669585e-10	-2.867243e+01	-4.613474e+01
8.600000e-07	-4.084013e-06	-6.712183e-10	-2.845490e+01	-4.605041e+01
8.700000e-07	-4.052552e-06	-6.747967e-10	-2.823570e+01	-4.596281e+01
8.800000e-07	-4.020882e-06	-6.655455e-10	-2.801504e+01	-4.587186e+01
8.900000e-07	-3.989071e-06	-6.745209e-10	-2.779340e+01	-4.577753e+01
9.000000e-07	-3.957120e-06	-6.681079e-10	-2.757079e+01	-4.567975e+01
9.100000e-07	-3.924877e-06	-6.568833e-10	-2.734614e+01	-4.557847e+01
9.200000e-07	-3.892314e-06	-6.502113e-10	-2.711926e+01	-4.547365e+01
9.300000e-07	-3.859376e-06	-6.535569e-10	-2.688977e+01	-4.536522e+01
9.400000e-07	-3.825986e-06	-6.460466e-10	-2.665713e+01	-4.525315e+01
9.500000e-07	-3.792165e-06	-6.490540e-10	-2.642149e+01	-4.513738e+01
9.600000e-07	-3.757811e-06	-6.547438e-10	-2.618213e+01	-4.501788e+01
9.700000e-07	-3.723010e-06	-6.512806e-10	-2.593965e+01	-4.489458e+01
9.800000e-07	-3.687838e-06	-6.435484e-10	-2.569459e+01	-4.476747e+01
9.900000e-07	-3.652322e-06	-6.453876e-10	-2.544714e+01	-4.463649e+01
1.000000e-06	-3.616667e-06	-6.410928e-10	-2.519872e+01	-4.450161e+01
1.010000e-06	-3.580905e-06	-6.341371e-10	-2.494955e+01	-4.436280e+01
1.020000e-06	-3.545034e-06	-6.383736e-10	-2.469962e+01	-4.422002e+01
1.030000e-06	-3.509011e-06	-6.412618e-10	-2.444864e+01	-4.407327e+01
1.040000e-06	-3.472787e-06	-6.384686e-10	-2.419625e+01	-4.392251e+01
1.050000e-06	-3.436375e-06	-6.378194e-10	-2.394256e+01	-4.376774e+01
1.060000e-06	-3.399771e-06	-6.399234e-10	-2.368753e+01	-4.360893e+01
1.070000e-06	-3.362908e-06	-6.299470e-10	-2.343068e+01	-4.344609e+01
1.080000e-06	-3.325754e-06	-6.245096e-10	-2.317181e+01	-4.327921e+01
1.090000e-06	-3.288374e-06	-6.246090e-10	-2.291137e+01	-4.310830e+01
1.100000e-06	-3.250757e-06	-6.275991e-10	-2.264928e+01	-4.293336e+01
1.110000e-06	-3.212864e-06	-6.231855e-10	-2.238527e+01	-4.275442e+01
1.120000e-06	-3.174740e-06	-6.256226e-10	-2.211964e+01	-4.257148e+01
1.130000e-06	-3.136482e-06	-6.224136e-10	-2.185308e+01	-4.238458e+01
1.140000e-06	-3.098044e-06	-6.170394e-10	-2.158527e+01	-4.219374e+01
1.150000e-06	-3.059273e-06	-6.121973e-10	-2.131514e+01	-4.199899e+01
1.160000e-06	-3.020235e-06	-6.131299e-10	-2.104314e+01	-4.180036e+01
1.170000e-06	-2.981018e-06	-6.059340e-10	-2.076991e+01	-4.159789e+01
1.180000e-06	-2.941584e-06	-6.029494e-10	-2.049516e+01	-4.139162e+01
1.190000e-06	-2.902025e-06	-6.016804e-10	-2.021953e+01	-4.118159e+01
1.200000e-06	-2.862405e-06	-6.001592e-10	-1.994348e+01	-4.096783e+01
1.210000e-06	-2.822657e-06	-5.956702e-10	-1.966655e+01	-4.075039e+01
1.220000e-06	-2.782778e-06	-5.940964e-10	-1.938869e+01	-4.052929e+01
1.230000e-06	-2.742765e-06	-5.875576e-10	-1.910990e+01	-4.030458e+01
1.240000e-06	-2.702554e-06	-5.814168e-10	-1.882974e+01	-4.007627e+01
1.250000e-06	-2.662130e-06	-5.778292e-10	-1.854809e+01	-3.984439e+01
1.260000e-06	-2.621468e-06	-5.781458e-10	-1.826478e+01	-3.960896e+01
1.270000e-06	-2.580533e-06	-5.771924e-10	-1.797957e+01	-3.936998e+01
1.280000e-06	-2.539442e-06	-5.740530e-10	-1.769328e+01	-3.912745e+01
1.290000e-06	-2.498176e-06	-5.723435e-10	-1.740576e+01	-3.888135e+01
1.300000e-06	-2.456609e-06	-5.673473e-10	-1.711615e+01	-3.863167e+01
1.310000e-06	-2.414732e-06	-5.597344e-10	-1.682438e+01	-3.837837e+01
1.320000e-06	-2.372598e-06	-5.550592e-10	-1.653081e+01	-3.812139e+01
1.330000e-06	-2.330201e-06	-5.535796e-10	-1.623541e+01	-3.786066e+01
1.340000e-06	-2.287395e-06	-5.493199e-10	-1.593717e+01	-3.759610e+01
1.350000e-06	-2.244245e-06	-5.474607e-10	-1.563653e+01	-3.732762e+01
1.360000e-06	-2.200965e-06	-5.466670e-10	-1.533497e+01	-3.705508e+01
1.370000e-06	-2.157538e-06	-5.430410e-10	-1.503240e+01	-3.677836e+01
1.380000e-06	-2.113946e-06	-5.359614e-10	-1.472868e+01	-3.649730e+01
1.390000e-06	-2.070269e-06	-5.297706e-10	-1.442437e+01	-3.621172e+01
1.400000e-06	-2.026518e-06	-5.217336e-10	-1.411953e+01	-3.592143e+01
1.410000e-06	-1.982691e-06	-5.162256e-10	-1.381418e+01	-3.562620e+01
1.420000e-06	-1.938804e-06	-5.134796e-10	-1.350840e+01	-3.532581e+01
1.430000e-06	-1.894853e-06	-5.134556e-10	-1.320217e+01	-3.501999e+01
1.440000e-06	-1.850782e-06	-5.093541e-10	-1.289512e+01	-3.470848e+01
1.450000e-06	-1.806595e-06	-5.040012e-10	-1.258725e+01	-3.439097e+01
1.460000e-06	-1.762367e-06	-4.970963e-10	-1.227909e+01	-3.406717e+01
1.470000e-06	-1.718011e-06	-4.896919e-10	-1.197005e+01	-3.373673e+01
1.480000e-06	-1.673473e-06	-4.812624e-10	-1.165973e+01	-3.339933e+01
1.490000e-06	-1.628868e-06	-4.750283e-10	-1.134895e+01	-3.305459e+01
1.500000e-06	-1.584115e-06	-4.695094e-10	-1.103715e+01	-3.270216e+01
1.510000e-06	-1.539175e-06	-4.650770e-10	-1.072403e+01	-3.234166e+01
1.520000e-06	-1.494161e-06	-4.577863e-10	-1.041040e+01	-3.197268e+01
1.530000e-06	-1.449044e-06	-4.507313e-10	-1.009605e+01	-3.159485e+01
1.540000e-06	-1.403831e-06	-4.445271e-10	-9.781032e+00	-3.120775e+01
1.550000e-06	-1.358569e-06	-4.418641e-10	-9.465673e+00	-3.081099e+01
1.560000e-06	-1.313251e-06	-4.354298e-10	-9.149927e+00	-3.040416e+01
1.570000e-06	-1.267789e-06	-4.273040e-10	-8.833179e+00	-2.998687e+01
1.580000e-06	-1.222181e-06	-4.201010e-10	-8.515408e+00	-2.955871e+01
1.590000e-06	-1.176510e-06	-4.112084e-10	-8.197203e+00	-2.911930e+01
1.600000e-06	-1.130780e-06	-4.045149e-10	-7.878585e+00	-2.866826e+01
1.610000e-06	-1.084973e-06	-3.985762e-10	-7.559428e+00	-2.820522e+01
1.620000e-06	-1.039081e-06	-3.906367e-10	-7.239681e+00	-2.772985e+01
1.630000e-06	-9.931339e-07	-3.788821e-10	-6.919548e+00	-2.724179e+01
1.640000e-06	-9.471443e-07	-3.677762e-10	-6.599121e+00	-2.674075e+01
1.650000e-06	-9.010907e-07	-3.579515e-10	-6.278248e+00	-2.622643e+01
1.660000e-06	-8.548836e-07	-3.495024e-10	-5.956305e+00	-2.569858e+01
1.670000e-06	-8.084978e-07	-3.412922e-10	-5.633117e+00	-2.515694e+01
1.680000e-06	-7.621619e-07	-3.374390e-10	-5.310278e+00	-2.460132e+01
1.690000e-06	-7.159314e-07	-3.341588e-10	-4.988172e+00	-2.403155e+01
1.700000e-06	-6.696520e-07	-3.303204e-10	-4.665725e+00	-2.344747e+01
1.710000e-06	-6.233055e-07	-3.199944e-10	-4.342811e+00	-2.284898e+01
1.720000e-06	-5.769784e-07	-3.071716e-10	-4.020032e+00	-2.223602e+01
1.730000e-06	-5.306569e-07	-2.928767e-10	-3.697292e+00	-2.160854e+01
1.740000e-06	-4.842239e-07	-2.780794e-10	-3.373775e+00	-2.096656e+01
1.750000e-06	-4.376146e-07	-2.672046e-10	-3.049031e+00	-2.031012e+01
1.760000e-06	-3.909856e-07	-2.611845e-10	-2.724148e+00	-1.963929e+01
1.770000e-06	-3.443702e-07	-2.569529e-10	-2.399361e+00	-1.895422e+01
1.780000e-06	-2.977330e-07	-2.490476e-10	-2.074421e+00	-1.825505e+01
1.790000e-06	-2.510545e-07	-2.376661e-10	-1.749194e+00	-1.754201e+01
1.800000e-06	-2.042583e-07	-2.254276e-10	-1.423147e+00	-1.681532e+01
1.810000e-06	-1.575023e-07	-2.109266e-10	-1.097379e+00	-1.607528e+01
1.820000e-06	-1.107624e-07	-1.977054e-10	-7.717244e-01	-1.532221e+01
1.830000e-06	-6.400514e-08	-1.867895e-10	-4.459486e-01	-1.455646e+01
1.840000e-06	-1.732595e-08	-1.779770e-10	-1.207166e-01	-1.377845e+01
1.850000e-06	2.932470e-08	-1.703239e-10	2.043165e-01	-1.298858e+01
1.860000e-06	7.594938e-08	-1.611455e-10	5.291687e-01	-1.218734e+01
1.870000e-06	1.225488e-07	-1.490665e-10	8.538450e-01	-1.137521e+01
1.880000e-06	1.692170e-07	-1.354473e-10	1.179000e+00	-1.055272e+01
1.890000e-06	2.159276e-07	-1.228510e-10	1.504452e+00	-9.720420e+00
1.900000e-06	2.626670e-07	-1.095369e-10	1.830103e+00	-8.878890e+00
1.910000e-06	3.093391e-07	-9.760364e-11	2.155285e+00	-8.028729e+00
1.920000e-06	3.558551e-07	-8.764280e-11	2.479380e+00	-7.170557e+00
1.930000e-06	4.023830e-07	-7.681099e-11	2.803558e+00	-6.305014e+00
1.940000e-06	4.489503e-07	-6.417033e-11	3.128011e+00	-5.432753e+00
1.950000e-06	4.954762e-07	-5.169060e-11	3.452174e+00	-4.554442e+00
1.960000e-06	5.420053e-07	-4.012862e-11	3.776361e+00	-3.670759e+00
1.970000e-06	5.884648e-07	-2.966071e-11	4.100062e+00	-2.782390e+00
1.980000e-06	6.349369e-07	-1.716674e-11	4.423851e+00	-1.890028e+00
1.990000e-06	6.814663e-07	-4.986382e-12	4.748040e+00	-9.943654e-01
2.000000e-06	7.278115e-07	5.869550e-12	5.070945e+00	-9.609975e-02
2.010000e-06	7.740379e-07	1.734847e-11	5.393022e+00	8.040749e-01
2.020000e-06	8.202477e-07	2.890948e-11	5.714984e+00	1.705468e+00
2.030000e-06	8.664179e-07	4.211016e-11	6.036669e+00	2.607394e+00
2.040000e-06	9.125753e-07	5.849372e-11	6.358266e+00	3.509176e+00
2.050000e-06	9.586349e-07	7.441893e-11	6.679181e+00	4.410146e+00
2.060000e-06	1.004533e-06	8.895065e-11	6.998973e+00	5.309647e+00
2.070000e-06	1.050337e-06	1.004370e-10	7.318102e+00	6.207036e+00
2.080000e-06	1.096100e-06	1.105427e-10	7.636956e+00	7.101682e+00
2.090000e-06	1.141855e-06	1.214575e-10	7.955743e+00	7.992972e+00
2.100000e-06	1.187579e-06	1.343317e-10	8.274321e+00	8.880308e+00
2.110000e-06	1.233146e-06	1.480133e-10	8.591809e+00	9.763110e+00
2.120000e-06	1.278607e-06	1.623727e-10	8.908551e+00	1.064082e+01
2.130000e-06	1.324003e-06	1.768911e-10	9.224839e+00	1.151288e+01
2.140000e-06	1.369309e-06	1.901302e-10	9.540503e+00	1.237879e+01
2.150000e-06	1.414469e-06	2.009337e-10	9.855157e+00	1.323803e+01
2.160000e-06	1.459488e-06	2.102671e-10	1.016882e+01	1.409013e+01
2.170000e-06	1.504457e-06	2.205351e-10	1.048214e+01	1.493462e+01
2.180000e-06	1.549328e-06	2.316194e-10	1.079477e+01	1.577105e+01
2.190000e-06	1.594103e-06	2.443911e-10	1.110673e+01	1.659902e+01
2.200000e-06	1.638750e-06	2.579648e-10	1.141780e+01	1.741811e+01
2.210000e-06	1.683226e-06	2.696662e-10	1.172769e+01	1.822795e+01
2.220000e-06	1.727566e-06	2.786744e-10	1.203662e+01	1.902818e+01
2.230000e-06	1.771852e-06	2.883250e-10	1.234518e+01	1.981845e+01
2.240000e-06	1.816085e-06	3.001784e-10	1.265337e+01	2.059844e+01
2.250000e-06	1.860201e-06	3.130365e-10	1.296074e+01	2.136785e+01
2.260000e-06	1.904204e-06	3.271453e-10	1.326733e+01	2.212639e+01
2.270000e-06	1.948134e-06	3.402211e-10	1.357340e+01	2.287380e+01
2.280000e-06	1.992015e-06	3.484309e-10	1.387914e+01	2.360983e+01
2.290000e-06	2.035848e-06	3.546723e-10	1.418454e+01	2.433423e+01
2.300000e-06	2.079622e-06	3.619322e-10	1.448953e+01	2.504680e+01
2.310000e-06	2.123318e-06	3.684087e-10	1.479398e+01	2.574733e+01
2.320000e-06	2.166860e-06	3.760423e-10	1.509735e+01	2.643565e+01
2.330000e-06	2.210267e-06	3.883183e-10	1.539979e+01	2.711157e+01
2.340000e-06	2.253507e-06	4.008359e-10	1.570106e+01	2.777494e+01
2.350000e-06	2.296447e-06	4.119679e-10	1.600023e+01	2.842564e+01
2.360000e-06	2.339130e-06	4.216242e-10	1.629763e+01	2.906352e+01
2.370000e-06	2.381617e-06	4.287138e-10	1.659365e+01	2.968848e+01
2.380000e-06	2.423811e-06	4.348196e-10	1.688763e+01	3.030042e+01
2.390000e-06	2.465534e-06	4.444520e-10	1.717833e+01	3.089927e+01
2.400000e-06	2.506873e-06	4.560476e-10	1.746636e+01	3.148496e+01
2.410000e-06	2.547977e-06	4.661578e-10	1.775274e+01	3.205743e+01
2.420000e-06	2.588809e-06	4.748651e-10	1.803723e+01	3.261666e+01
2.430000e-06	2.629441e-06	4.821852e-10	1.832034e+01	3.316260e+01
2.440000e-06	2.669863e-06	4.891416e-10	1.860197e+01	3.369527e+01
2.450000e-06	2.710105e-06	4.950280e-10	1.888235e+01	3.421467e+01
2.460000e-06	2.750264e-06	5.001202e-10	1.916215e+01	3.472082e+01
2.470000e-06	2.790223e-06	5.059739e-10	1.944056e+01	3.521375e+01
2.480000e-06	2.830042e-06	5.115956e-10	1.971800e+01	3.569354e+01
2.490000e-06	2.869803e-06	5.176637e-10	1.999503e+01	3.616024e+01
2.500000e-06	2.909367e-06	5.253066e-10	2.027068e+01	3.661394e+01
2.510000e-06	2.948695e-06	5.344081e-10	2.054470e+01	3.705475e+01
2.520000e-06	2.987843e-06	5.423526e-10	2.081746e+01	3.748279e+01
2.530000e-06	3.026832e-06	5.478474e-10	2.108911e+01	3.789819e+01
2.540000e-06	3.065598e-06	5.531928e-10	2.135921e+01	3.830109e+01
2.550000e-06	3.104100e-06	5.593774e-10	2.162746e+01	3.869168e+01
2.560000e-06	3.142397e-06	5.646821e-10	2.189430e+01	3.907013e+01
2.570000e-06	3.180565e-06	5.694418e-10	2.216023e+01	3.943664e+01
2.580000e-06	3.218546e-06	5.759136e-10	2.242486e+01	3.979143e+01
2.590000e-06	3.256290e-06	5.835546e-10	2.268784e+01	4.013471e+01
2.600000e-06	3.293830e-06	5.890277e-10	2.294939e+01	4.046674e+01
2.610000e-06	3.331118e-06	5.908836e-10	2.320919e+01	4.078777e+01
2.620000e-06	3.368089e-06	5.924624e-10	2.346678e+01	4.109805e+01
2.630000e-06	3.404784e-06	5.960692e-10	2.372245e+01	4.139789e+01
2.640000e-06	3.441260e-06	6.011733e-10	2.397659e+01	4.168755e+01
2.650000e-06	3.477483e-06	6.079318e-10	2.422897e+01	4.196734e+01
2.660000e-06	3.513530e-06	6.167274e-10	2.448013e+01	4.223757e+01
2.670000e-06	3.549493e-06	6.223483e-10	2.473069e+01	4.249855e+01
2.680000e-06	3.585374e-06	6.249329e-10	2.498069e+01	4.275060e+01
2.690000e-06	3.621140e-06	6.262134e-10	2.522989e+01	4.299405e+01
2.700000e-06	3.656702e-06	6.260092e-10	2.547766e+01	4.322921e+01
2.710000e-06	3.691991e-06	6.281591e-10	2.572353e+01	4.345642e+01
2.720000e-06	3.726963e-06	6.338862e-10	2.596719e+01	4.367602e+01
2.730000e-06	3.761583e-06	6.400767e-10	2.620841e+01	4.388831e+01
2.740000e-06	3.795815e-06	6.454385e-10	2.644692e+01	4.409364e+01
2.750000e-06	3.829515e-06	6.487135e-10	2.668171e+01	4.429231e+01
2.760000e-06	3.862770e-06	6.490880e-10	2.691342e+01	4.448465e+01
2.770000e-06	3.895671e-06	6.479973e-10	2.714265e+01	4.467095e+01
2.780000e-06	3.928208e-06	6.467071e-10	2.736935e+01	4.485153e+01
2.790000e-06	3.960545e-06	6.477783e-10	2.759465e+01	4.502665e+01
2.800000e-06	3.992672e-06	6.498994e-10	2.781849e+01	4.519660e+01
2.810000e-06	4.024527e-06	6.529860e-10	2.804044e+01	4.536165e+01
2.820000e-06	4.056165e-06	6.569394e-10	2.826087e+01	4.552204e+01
2.830000e-06	4.087653e-06	6.612540e-10	2.848026e+01	4.567801e+01
2.840000e-06	4.118958e-06	6.654306e-10	2.869838e+01	4.582978e+01
2.850000e-06	4.149896e-06	6.671332e-10	2.891393e+01	4.597755e+01
2.860000e-06	4.180431e-06	6.677329e-10	2.912668e+01	4.612150e+01
2.870000e-06	4.210690e-06	6.685134e-10	2.933751e+01	4.626182e+01
2.880000e-06	4.240648e-06	6.696926e-10	2.954624e+01	4.639865e+01
2.890000e-06	4.270331e-06	6.717119e-10	2.975305e+01	4.653212e+01
2.900000e-06	4.299805e-06	6.754671e-10	2.995841e+01	4.666236e+01
