# Temperatura_=_-5.11
# Concentracion g/m^3_=_1620.0
# C_Vs_to_Am_M_A/Vsm_=_65563218390.804596
# pendiente_HvsI_1/m_=_3716.3
# ordenada_HvsI_A/m_=_1297.0
# frecuencia_Hz_=_135100.76894125892

Tiempo_(s)	Campo_(V.s)	Magnetizacion_(V.s)	Campo_(kA/m)	Magnetizacion_(A/m)
0.000000e+00	-5.532228e-06	-9.146717e-10	-3.837406e+01	-6.051762e+01
1.000000e-08	-5.532525e-06	-9.117488e-10	-3.837612e+01	-6.049966e+01
2.000000e-08	-5.532510e-06	-9.080356e-10	-3.837602e+01	-6.047916e+01
3.000000e-08	-5.532225e-06	-9.076537e-10	-3.837404e+01	-6.045598e+01
4.000000e-08	-5.531520e-06	-9.080952e-10	-3.836915e+01	-6.043004e+01
5.000000e-08	-5.530201e-06	-9.054933e-10	-3.836000e+01	-6.040123e+01
6.000000e-08	-5.528347e-06	-9.013595e-10	-3.834714e+01	-6.036949e+01
7.000000e-08	-5.525937e-06	-8.953355e-10	-3.833042e+01	-6.033473e+01
8.000000e-08	-5.522900e-06	-9.252658e-10	-3.830935e+01	-6.029691e+01
9.000000e-08	-5.519365e-06	-9.371738e-10	-3.828484e+01	-6.025599e+01
1.000000e-07	-5.515428e-06	-8.659410e-10	-3.825753e+01	-6.021194e+01
1.100000e-07	-5.511099e-06	-8.367317e-10	-3.822750e+01	-6.016475e+01
1.200000e-07	-5.506571e-06	-9.553042e-10	-3.819609e+01	-6.011443e+01
1.300000e-07	-5.501850e-06	-9.582689e-10	-3.816334e+01	-6.006100e+01
1.400000e-07	-5.496790e-06	-8.991486e-10	-3.812824e+01	-6.000448e+01
1.500000e-07	-5.491333e-06	-8.139867e-10	-3.809040e+01	-5.994494e+01
1.600000e-07	-5.485542e-06	-9.521743e-10	-3.805022e+01	-5.988242e+01
1.700000e-07	-5.479368e-06	-9.745160e-10	-3.800740e+01	-5.981702e+01
1.800000e-07	-5.472693e-06	-8.675878e-10	-3.796110e+01	-5.974882e+01
1.900000e-07	-5.465639e-06	-8.000741e-10	-3.791217e+01	-5.967793e+01
2.000000e-07	-5.458275e-06	-8.859551e-10	-3.786109e+01	-5.960446e+01
2.100000e-07	-5.450598e-06	-9.688333e-10	-3.780784e+01	-5.952853e+01
2.200000e-07	-5.442682e-06	-9.173779e-10	-3.775293e+01	-5.945030e+01
2.300000e-07	-5.434521e-06	-8.799296e-10	-3.769632e+01	-5.936989e+01
2.400000e-07	-5.425971e-06	-8.843998e-10	-3.763701e+01	-5.928747e+01
2.500000e-07	-5.416708e-06	-9.291544e-10	-3.757276e+01	-5.920319e+01
2.600000e-07	-5.406679e-06	-8.692708e-10	-3.750319e+01	-5.911722e+01
2.700000e-07	-5.395997e-06	-8.643829e-10	-3.742910e+01	-5.902973e+01
2.800000e-07	-5.384810e-06	-8.741770e-10	-3.735150e+01	-5.894087e+01
2.900000e-07	-5.373330e-06	-9.199319e-10	-3.727187e+01	-5.885083e+01
3.000000e-07	-5.361529e-06	-8.567382e-10	-3.719001e+01	-5.875977e+01
3.100000e-07	-5.349309e-06	-8.467973e-10	-3.710525e+01	-5.866785e+01
3.200000e-07	-5.336676e-06	-8.478030e-10	-3.701762e+01	-5.857524e+01
3.300000e-07	-5.323697e-06	-9.010161e-10	-3.692759e+01	-5.848209e+01
3.400000e-07	-5.310303e-06	-8.507950e-10	-3.683469e+01	-5.838855e+01
3.500000e-07	-5.296452e-06	-8.274581e-10	-3.673861e+01	-5.829475e+01
3.600000e-07	-5.282018e-06	-8.624894e-10	-3.663849e+01	-5.820084e+01
3.700000e-07	-5.267148e-06	-9.054079e-10	-3.653535e+01	-5.810691e+01
3.800000e-07	-5.251690e-06	-8.283578e-10	-3.642812e+01	-5.801309e+01
3.900000e-07	-5.235639e-06	-8.302578e-10	-3.631679e+01	-5.791947e+01
4.000000e-07	-5.219377e-06	-8.992647e-10	-3.620399e+01	-5.782612e+01
4.100000e-07	-5.202770e-06	-8.528469e-10	-3.608879e+01	-5.773310e+01
4.200000e-07	-5.185753e-06	-7.868030e-10	-3.597075e+01	-5.764048e+01
4.300000e-07	-5.168385e-06	-8.800485e-10	-3.585028e+01	-5.754827e+01
4.400000e-07	-5.150765e-06	-9.075199e-10	-3.572806e+01	-5.745650e+01
4.500000e-07	-5.132808e-06	-7.767159e-10	-3.560350e+01	-5.736517e+01
4.600000e-07	-5.114406e-06	-8.169067e-10	-3.547585e+01	-5.727426e+01
4.700000e-07	-5.095573e-06	-9.175131e-10	-3.534522e+01	-5.718374e+01
4.800000e-07	-5.076356e-06	-8.279677e-10	-3.521193e+01	-5.709356e+01
4.900000e-07	-5.056852e-06	-7.676246e-10	-3.507664e+01	-5.700366e+01
5.000000e-07	-5.037216e-06	-8.986099e-10	-3.494043e+01	-5.691394e+01
5.100000e-07	-5.017441e-06	-8.545094e-10	-3.480327e+01	-5.682434e+01
5.200000e-07	-4.997321e-06	-7.607957e-10	-3.466370e+01	-5.673472e+01
5.300000e-07	-4.976802e-06	-8.583823e-10	-3.452137e+01	-5.664497e+01
5.400000e-07	-4.955967e-06	-9.027101e-10	-3.437685e+01	-5.655497e+01
5.500000e-07	-4.934754e-06	-7.546147e-10	-3.422971e+01	-5.646456e+01
5.600000e-07	-4.913176e-06	-8.022351e-10	-3.408003e+01	-5.637359e+01
5.700000e-07	-4.891275e-06	-8.977410e-10	-3.392812e+01	-5.628191e+01
5.800000e-07	-4.869011e-06	-8.076406e-10	-3.377368e+01	-5.618933e+01
5.900000e-07	-4.846362e-06	-7.687043e-10	-3.361658e+01	-5.609570e+01
6.000000e-07	-4.823448e-06	-8.833627e-10	-3.345764e+01	-5.600083e+01
6.100000e-07	-4.800267e-06	-8.387525e-10	-3.329684e+01	-5.590453e+01
6.200000e-07	-4.776787e-06	-7.781286e-10	-3.313397e+01	-5.580664e+01
6.300000e-07	-4.753120e-06	-8.458676e-10	-3.296981e+01	-5.570697e+01
6.400000e-07	-4.729224e-06	-8.519476e-10	-3.280406e+01	-5.560533e+01
6.500000e-07	-4.704994e-06	-7.737187e-10	-3.263599e+01	-5.550155e+01
6.600000e-07	-4.680250e-06	-8.101896e-10	-3.246435e+01	-5.539546e+01
6.700000e-07	-4.654901e-06	-8.335196e-10	-3.228852e+01	-5.528690e+01
6.800000e-07	-4.629075e-06	-7.830964e-10	-3.210938e+01	-5.517569e+01
6.900000e-07	-4.602798e-06	-7.952731e-10	-3.192711e+01	-5.506170e+01
7.000000e-07	-4.576031e-06	-8.315031e-10	-3.174144e+01	-5.494477e+01
7.100000e-07	-4.548849e-06	-7.930943e-10	-3.155290e+01	-5.482478e+01
7.200000e-07	-4.521407e-06	-7.808770e-10	-3.136255e+01	-5.470161e+01
7.300000e-07	-4.493810e-06	-8.108890e-10	-3.117112e+01	-5.457513e+01
7.400000e-07	-4.466051e-06	-7.882731e-10	-3.097857e+01	-5.444526e+01
7.500000e-07	-4.438081e-06	-7.672941e-10	-3.078456e+01	-5.431191e+01
7.600000e-07	-4.409812e-06	-7.863925e-10	-3.058847e+01	-5.417501e+01
7.700000e-07	-4.381233e-06	-7.890326e-10	-3.039023e+01	-5.403448e+01
7.800000e-07	-4.352306e-06	-7.688296e-10	-3.018958e+01	-5.389030e+01
7.900000e-07	-4.323028e-06	-7.849494e-10	-2.998650e+01	-5.374241e+01
8.000000e-07	-4.293511e-06	-7.801011e-10	-2.978175e+01	-5.359081e+01
8.100000e-07	-4.263744e-06	-7.551920e-10	-2.957528e+01	-5.343548e+01
8.200000e-07	-4.233686e-06	-7.515787e-10	-2.936678e+01	-5.327642e+01
8.300000e-07	-4.203300e-06	-7.657297e-10	-2.915601e+01	-5.311365e+01
8.400000e-07	-4.172608e-06	-7.442745e-10	-2.894312e+01	-5.294719e+01
8.500000e-07	-4.141609e-06	-7.439344e-10	-2.872809e+01	-5.277708e+01
8.600000e-07	-4.110255e-06	-7.580631e-10	-2.851061e+01	-5.260335e+01
8.700000e-07	-4.078683e-06	-7.536580e-10	-2.829161e+01	-5.242607e+01
8.800000e-07	-4.047020e-06	-7.384693e-10	-2.807198e+01	-5.224529e+01
8.900000e-07	-4.015272e-06	-7.561478e-10	-2.785176e+01	-5.206107e+01
9.000000e-07	-3.983380e-06	-7.521580e-10	-2.763055e+01	-5.187348e+01
9.100000e-07	-3.951168e-06	-7.341927e-10	-2.740711e+01	-5.168261e+01
9.200000e-07	-3.918597e-06	-7.379892e-10	-2.718118e+01	-5.148852e+01
9.300000e-07	-3.885636e-06	-7.457289e-10	-2.695254e+01	-5.129129e+01
9.400000e-07	-3.852140e-06	-7.258079e-10	-2.672021e+01	-5.109100e+01
9.500000e-07	-3.818008e-06	-7.239715e-10	-2.648345e+01	-5.088774e+01
9.600000e-07	-3.783408e-06	-7.362020e-10	-2.624345e+01	-5.068158e+01
9.700000e-07	-3.748457e-06	-7.288067e-10	-2.600101e+01	-5.047259e+01
9.800000e-07	-3.713161e-06	-7.209251e-10	-2.575618e+01	-5.026084e+01
9.900000e-07	-3.677712e-06	-7.319714e-10	-2.551029e+01	-5.004641e+01
1.000000e-06	-3.642148e-06	-7.293543e-10	-2.526360e+01	-4.982934e+01
1.010000e-06	-3.606466e-06	-7.163045e-10	-2.501610e+01	-4.960970e+01
1.020000e-06	-3.570682e-06	-7.227984e-10	-2.476788e+01	-4.938754e+01
1.030000e-06	-3.534748e-06	-7.243941e-10	-2.451863e+01	-4.916289e+01
1.040000e-06	-3.498595e-06	-7.109711e-10	-2.426785e+01	-4.893578e+01
1.050000e-06	-3.462191e-06	-7.089589e-10	-2.401534e+01	-4.870625e+01
1.060000e-06	-3.425457e-06	-7.168972e-10	-2.376053e+01	-4.847430e+01
1.070000e-06	-3.388344e-06	-7.063375e-10	-2.350310e+01	-4.823994e+01
1.080000e-06	-3.350973e-06	-6.976301e-10	-2.324388e+01	-4.800316e+01
1.090000e-06	-3.313455e-06	-6.989234e-10	-2.298364e+01	-4.776395e+01
1.100000e-06	-3.275747e-06	-6.962672e-10	-2.272208e+01	-4.752229e+01
1.110000e-06	-3.237782e-06	-6.847796e-10	-2.245874e+01	-4.727815e+01
1.120000e-06	-3.199567e-06	-6.879046e-10	-2.219366e+01	-4.703147e+01
1.130000e-06	-3.161120e-06	-6.865273e-10	-2.192697e+01	-4.678221e+01
1.140000e-06	-3.122449e-06	-6.788959e-10	-2.165873e+01	-4.653030e+01
1.150000e-06	-3.083571e-06	-6.743071e-10	-2.138906e+01	-4.627568e+01
1.160000e-06	-3.044467e-06	-6.757798e-10	-2.111781e+01	-4.601826e+01
1.170000e-06	-3.005145e-06	-6.650587e-10	-2.084506e+01	-4.575796e+01
1.180000e-06	-2.965666e-06	-6.570539e-10	-2.057121e+01	-4.549467e+01
1.190000e-06	-2.926045e-06	-6.566812e-10	-2.029638e+01	-4.522830e+01
1.200000e-06	-2.886354e-06	-6.540600e-10	-2.002107e+01	-4.495873e+01
1.210000e-06	-2.846594e-06	-6.468502e-10	-1.974528e+01	-4.468584e+01
1.220000e-06	-2.806726e-06	-6.465122e-10	-1.946874e+01	-4.440952e+01
1.230000e-06	-2.766698e-06	-6.417051e-10	-1.919108e+01	-4.412962e+01
1.240000e-06	-2.726471e-06	-6.305125e-10	-1.891205e+01	-4.384601e+01
1.250000e-06	-2.685937e-06	-6.233113e-10	-1.863088e+01	-4.355855e+01
1.260000e-06	-2.645038e-06	-6.204024e-10	-1.834719e+01	-4.326710e+01
1.270000e-06	-2.603951e-06	-6.150347e-10	-1.806219e+01	-4.297149e+01
1.280000e-06	-2.562593e-06	-6.113962e-10	-1.777532e+01	-4.267157e+01
1.290000e-06	-2.520891e-06	-6.110816e-10	-1.748605e+01	-4.236718e+01
1.300000e-06	-2.478953e-06	-6.071072e-10	-1.719515e+01	-4.205815e+01
1.310000e-06	-2.436690e-06	-6.000882e-10	-1.690199e+01	-4.174431e+01
1.320000e-06	-2.393951e-06	-5.930917e-10	-1.660554e+01	-4.142549e+01
1.330000e-06	-2.350910e-06	-5.865958e-10	-1.630698e+01	-4.110150e+01
1.340000e-06	-2.307768e-06	-5.790575e-10	-1.600773e+01	-4.077216e+01
1.350000e-06	-2.264558e-06	-5.759447e-10	-1.570801e+01	-4.043728e+01
1.360000e-06	-2.221226e-06	-5.739506e-10	-1.540744e+01	-4.009667e+01
1.370000e-06	-2.177761e-06	-5.700815e-10	-1.510594e+01	-3.975013e+01
1.380000e-06	-2.134218e-06	-5.650989e-10	-1.480391e+01	-3.939745e+01
1.390000e-06	-2.090602e-06	-5.606031e-10	-1.450137e+01	-3.903842e+01
1.400000e-06	-2.046891e-06	-5.523990e-10	-1.419817e+01	-3.867283e+01
1.410000e-06	-2.003104e-06	-5.452462e-10	-1.389444e+01	-3.830046e+01
1.420000e-06	-1.959220e-06	-5.388458e-10	-1.359005e+01	-3.792108e+01
1.430000e-06	-1.915255e-06	-5.334824e-10	-1.328508e+01	-3.753446e+01
1.440000e-06	-1.871262e-06	-5.274088e-10	-1.297993e+01	-3.714035e+01
1.450000e-06	-1.827134e-06	-5.221763e-10	-1.267383e+01	-3.673852e+01
1.460000e-06	-1.782851e-06	-5.154444e-10	-1.236667e+01	-3.632870e+01
1.470000e-06	-1.738414e-06	-5.092784e-10	-1.205843e+01	-3.591064e+01
1.480000e-06	-1.693766e-06	-5.033171e-10	-1.174873e+01	-3.548407e+01
1.490000e-06	-1.648972e-06	-4.987216e-10	-1.143803e+01	-3.504872e+01
1.500000e-06	-1.603945e-06	-4.940197e-10	-1.112570e+01	-3.460432e+01
1.510000e-06	-1.558753e-06	-4.897872e-10	-1.081222e+01	-3.415057e+01
1.520000e-06	-1.513534e-06	-4.826979e-10	-1.049856e+01	-3.368719e+01
1.530000e-06	-1.468189e-06	-4.744342e-10	-1.018403e+01	-3.321389e+01
1.540000e-06	-1.422755e-06	-4.667386e-10	-9.868880e+00	-3.273036e+01
1.550000e-06	-1.377282e-06	-4.610635e-10	-9.553455e+00	-3.223631e+01
1.560000e-06	-1.331744e-06	-4.541840e-10	-9.237586e+00	-3.173142e+01
1.570000e-06	-1.286106e-06	-4.473212e-10	-8.921018e+00	-3.121540e+01
1.580000e-06	-1.240327e-06	-4.422302e-10	-8.603475e+00	-3.068794e+01
1.590000e-06	-1.194447e-06	-4.353954e-10	-8.285227e+00	-3.014873e+01
1.600000e-06	-1.148512e-06	-4.280243e-10	-7.966606e+00	-2.959747e+01
1.610000e-06	-1.102541e-06	-4.206741e-10	-7.647727e+00	-2.903387e+01
1.620000e-06	-1.056578e-06	-4.100685e-10	-7.328904e+00	-2.845762e+01
1.630000e-06	-1.010487e-06	-3.968521e-10	-7.009202e+00	-2.786845e+01
1.640000e-06	-9.642596e-07	-3.866362e-10	-6.688545e+00	-2.726608e+01
1.650000e-06	-9.178948e-07	-3.776067e-10	-6.366937e+00	-2.665024e+01
1.660000e-06	-8.713908e-07	-3.678405e-10	-6.044365e+00	-2.602068e+01
1.670000e-06	-8.249076e-07	-3.585068e-10	-5.721936e+00	-2.537717e+01
1.680000e-06	-7.784814e-07	-3.509454e-10	-5.399903e+00	-2.471947e+01
1.690000e-06	-7.319831e-07	-3.415072e-10	-5.077369e+00	-2.404740e+01
1.700000e-06	-6.854150e-07	-3.317469e-10	-4.754352e+00	-2.336076e+01
1.710000e-06	-6.387675e-07	-3.197092e-10	-4.430783e+00	-2.265941e+01
1.720000e-06	-5.920041e-07	-3.075129e-10	-4.106411e+00	-2.194321e+01
1.730000e-06	-5.452067e-07	-2.959503e-10	-3.781802e+00	-2.121205e+01
1.740000e-06	-4.983571e-07	-2.839901e-10	-3.456833e+00	-2.046587e+01
1.750000e-06	-4.515501e-07	-2.711186e-10	-3.132158e+00	-1.970462e+01
1.760000e-06	-4.047748e-07	-2.588386e-10	-2.807703e+00	-1.892828e+01
1.770000e-06	-3.578758e-07	-2.476974e-10	-2.482390e+00	-1.813688e+01
1.780000e-06	-3.109948e-07	-2.353240e-10	-2.157202e+00	-1.733049e+01
1.790000e-06	-2.641012e-07	-2.240430e-10	-1.831926e+00	-1.650920e+01
1.800000e-06	-2.171122e-07	-2.142176e-10	-1.505989e+00	-1.567314e+01
1.810000e-06	-1.701478e-07	-2.036271e-10	-1.180223e+00	-1.482250e+01
1.820000e-06	-1.231799e-07	-1.896358e-10	-8.544322e-01	-1.395749e+01
1.830000e-06	-7.618181e-08	-1.731296e-10	-5.284318e-01	-1.307837e+01
1.840000e-06	-2.913425e-08	-1.562938e-10	-2.020885e-01	-1.218544e+01
1.850000e-06	1.790580e-08	-1.411355e-10	1.242028e-01	-1.127905e+01
1.860000e-06	6.491648e-08	-1.300786e-10	4.502903e-01	-1.035958e+01
1.870000e-06	1.118815e-07	-1.170867e-10	7.760615e-01	-9.427457e+00
1.880000e-06	1.587397e-07	-1.021685e-10	1.101091e+00	-8.483154e+00
1.890000e-06	2.055903e-07	-8.919488e-11	1.426068e+00	-7.527179e+00
1.900000e-06	2.524958e-07	-7.686622e-11	1.751426e+00	-6.560083e+00
1.910000e-06	2.994154e-07	-6.467445e-11	2.076882e+00	-5.582453e+00
1.920000e-06	3.462534e-07	-5.015123e-11	2.401772e+00	-4.594916e+00
1.930000e-06	3.929921e-07	-3.073097e-11	2.725972e+00	-3.598132e+00
1.940000e-06	4.397405e-07	-1.130412e-11	3.050241e+00	-2.592796e+00
1.950000e-06	4.864599e-07	5.436363e-12	3.374308e+00	-1.579634e+00
1.960000e-06	5.331600e-07	1.881932e-11	3.698241e+00	-5.594025e-01
1.970000e-06	5.797838e-07	2.968955e-11	4.021645e+00	4.671176e-01
1.980000e-06	6.263228e-07	4.132916e-11	4.344461e+00	1.499120e+00
1.990000e-06	6.728527e-07	5.459937e-11	4.667214e+00	2.535777e+00
2.000000e-06	7.193096e-07	6.870795e-11	4.989460e+00	3.576243e+00
2.010000e-06	7.657292e-07	8.616990e-11	5.311447e+00	4.619658e+00
2.020000e-06	8.121688e-07	1.020795e-10	5.633574e+00	5.665148e+00
2.030000e-06	8.585665e-07	1.176284e-10	5.955409e+00	6.711834e+00
2.040000e-06	9.048314e-07	1.361251e-10	6.276324e+00	7.758828e+00
2.050000e-06	9.510057e-07	1.525334e-10	6.596610e+00	8.805241e+00
2.060000e-06	9.971173e-07	1.675249e-10	6.916461e+00	9.850186e+00
2.070000e-06	1.043174e-06	1.816260e-10	7.235928e+00	1.089278e+01
2.080000e-06	1.089201e-06	1.957597e-10	7.555194e+00	1.193215e+01
2.090000e-06	1.135137e-06	2.106455e-10	7.873832e+00	1.296744e+01
2.100000e-06	1.180972e-06	2.275056e-10	8.191763e+00	1.399778e+01
2.110000e-06	1.226684e-06	2.422866e-10	8.508839e+00	1.502236e+01
2.120000e-06	1.272294e-06	2.556866e-10	8.825211e+00	1.604036e+01
2.130000e-06	1.317875e-06	2.689488e-10	9.141381e+00	1.705100e+01
2.140000e-06	1.363317e-06	2.835197e-10	9.456591e+00	1.805351e+01
2.150000e-06	1.408644e-06	2.978113e-10	9.770998e+00	1.904717e+01
2.160000e-06	1.453942e-06	3.110811e-10	1.008521e+01	2.003127e+01
2.170000e-06	1.499109e-06	3.236038e-10	1.039850e+01	2.100514e+01
2.180000e-06	1.544167e-06	3.355857e-10	1.071105e+01	2.196816e+01
2.190000e-06	1.589159e-06	3.489719e-10	1.102313e+01	2.291971e+01
2.200000e-06	1.634047e-06	3.626406e-10	1.133450e+01	2.385926e+01
2.210000e-06	1.678767e-06	3.735489e-10	1.164469e+01	2.478628e+01
2.220000e-06	1.723363e-06	3.834686e-10	1.195403e+01	2.570029e+01
2.230000e-06	1.767828e-06	3.931702e-10	1.226246e+01	2.660085e+01
2.240000e-06	1.812082e-06	4.040528e-10	1.256943e+01	2.748757e+01
2.250000e-06	1.856228e-06	4.167004e-10	1.287564e+01	2.836010e+01
2.260000e-06	1.900222e-06	4.304216e-10	1.318081e+01	2.921813e+01
2.270000e-06	1.944115e-06	4.446554e-10	1.348527e+01	3.006138e+01
2.280000e-06	1.988053e-06	4.571340e-10	1.379005e+01	3.088963e+01
2.290000e-06	2.031906e-06	4.675223e-10	1.409423e+01	3.170269e+01
2.300000e-06	2.075621e-06	4.756396e-10	1.439745e+01	3.250042e+01
2.310000e-06	2.119282e-06	4.836443e-10	1.470031e+01	3.328270e+01
2.320000e-06	2.162871e-06	4.937788e-10	1.500266e+01	3.404946e+01
2.330000e-06	2.206360e-06	5.060856e-10	1.530432e+01	3.480067e+01
2.340000e-06	2.249744e-06	5.187165e-10	1.560525e+01	3.553633e+01
2.350000e-06	2.293031e-06	5.316440e-10	1.590551e+01	3.625647e+01
2.360000e-06	2.336189e-06	5.417510e-10	1.620487e+01	3.696115e+01
2.370000e-06	2.379110e-06	5.495449e-10	1.650259e+01	3.765047e+01
2.380000e-06	2.421759e-06	5.572640e-10	1.679842e+01	3.832454e+01
2.390000e-06	2.464128e-06	5.648484e-10	1.709232e+01	3.898351e+01
2.400000e-06	2.506230e-06	5.707318e-10	1.738435e+01	3.962755e+01
2.410000e-06	2.548006e-06	5.787133e-10	1.767413e+01	4.025684e+01
2.420000e-06	2.589423e-06	5.896690e-10	1.796142e+01	4.087159e+01
2.430000e-06	2.630522e-06	6.010199e-10	1.824650e+01	4.147202e+01
2.440000e-06	2.671260e-06	6.116804e-10	1.852908e+01	4.205837e+01
2.450000e-06	2.711731e-06	6.194559e-10	1.880980e+01	4.263089e+01
2.460000e-06	2.752024e-06	6.252656e-10	1.908929e+01	4.318983e+01
2.470000e-06	2.792131e-06	6.317471e-10	1.936749e+01	4.373546e+01
2.480000e-06	2.832074e-06	6.388286e-10	1.964456e+01	4.426806e+01
2.490000e-06	2.871872e-06	6.450116e-10	1.992061e+01	4.478790e+01
2.500000e-06	2.911576e-06	6.523065e-10	2.019602e+01	4.529526e+01
2.510000e-06	2.951148e-06	6.631270e-10	2.047051e+01	4.579041e+01
2.520000e-06	2.990548e-06	6.731252e-10	2.074381e+01	4.627364e+01
2.530000e-06	3.029762e-06	6.806945e-10	2.101581e+01	4.674522e+01
2.540000e-06	3.068873e-06	6.892958e-10	2.128711e+01	4.720543e+01
2.550000e-06	3.107922e-06	6.981312e-10	2.155797e+01	4.765453e+01
2.560000e-06	3.146663e-06	7.042668e-10	2.182669e+01	4.809278e+01
2.570000e-06	3.185006e-06	7.097536e-10	2.209266e+01	4.852043e+01
2.580000e-06	3.223093e-06	7.176256e-10	2.235684e+01	4.893775e+01
2.590000e-06	3.260985e-06	7.255966e-10	2.261968e+01	4.934495e+01
2.600000e-06	3.298658e-06	7.312428e-10	2.288100e+01	4.974227e+01
2.610000e-06	3.336146e-06	7.340135e-10	2.314103e+01	5.012994e+01
2.620000e-06	3.373408e-06	7.381541e-10	2.339950e+01	5.050816e+01
2.630000e-06	3.410445e-06	7.455843e-10	2.365641e+01	5.087714e+01
2.640000e-06	3.447202e-06	7.533881e-10	2.391136e+01	5.123707e+01
2.650000e-06	3.483618e-06	7.617994e-10	2.416396e+01	5.158812e+01
2.660000e-06	3.519868e-06	7.717534e-10	2.441541e+01	5.193047e+01
2.670000e-06	3.555945e-06	7.765212e-10	2.466566e+01	5.226429e+01
2.680000e-06	3.591823e-06	7.749791e-10	2.491453e+01	5.258972e+01
2.690000e-06	3.627553e-06	7.735278e-10	2.516236e+01	5.290691e+01
2.700000e-06	3.663137e-06	7.720336e-10	2.540919e+01	5.321601e+01
2.710000e-06	3.698594e-06	7.738857e-10	2.565514e+01	5.351712e+01
2.720000e-06	3.733864e-06	7.808221e-10	2.589978e+01	5.381039e+01
2.730000e-06	3.768836e-06	7.897611e-10	2.614237e+01	5.409592e+01
2.740000e-06	3.803441e-06	7.976212e-10	2.638241e+01	5.437382e+01
2.750000e-06	3.837688e-06	8.018985e-10	2.661995e+01	5.464420e+01
2.760000e-06	3.871473e-06	8.032504e-10	2.685431e+01	5.490714e+01
2.770000e-06	3.904672e-06	8.027211e-10	2.708459e+01	5.516274e+01
2.780000e-06	3.937403e-06	8.033594e-10	2.731163e+01	5.541110e+01
2.790000e-06	3.969825e-06	8.080809e-10	2.753652e+01	5.565229e+01
2.800000e-06	4.002000e-06	8.142796e-10	2.775970e+01	5.588640e+01
2.810000e-06	4.033929e-06	8.201314e-10	2.798117e+01	5.611352e+01
2.820000e-06	4.065637e-06	8.236856e-10	2.820111e+01	5.633371e+01
2.830000e-06	4.097209e-06	8.243212e-10	2.842011e+01	5.654705e+01
2.840000e-06	4.128636e-06	8.244542e-10	2.863810e+01	5.675363e+01
2.850000e-06	4.159841e-06	8.254172e-10	2.885456e+01	5.695351e+01
2.860000e-06	4.190734e-06	8.264976e-10	2.906885e+01	5.714678e+01
2.870000e-06	4.221261e-06	8.282044e-10	2.928060e+01	5.733351e+01
2.880000e-06	4.251439e-06	8.306917e-10	2.948992e+01	5.751378e+01
2.890000e-06	4.281290e-06	8.310146e-10	2.969698e+01	5.768767e+01
2.900000e-06	4.310814e-06	8.301924e-10	2.990177e+01	5.785526e+01
