# Temperatura_=_-0.4
# Concentracion g/m^3_=_1620.0
# C_Vs_to_Am_M_A/Vsm_=_65563218390.804596
# pendiente_HvsI_1/m_=_3716.3
# ordenada_HvsI_A/m_=_1297.0
# frecuencia_Hz_=_135092.59977104806

Tiempo_(s)	Campo_(V.s)	Magnetizacion_(V.s)	Campo_(kA/m)	Magnetizacion_(A/m)
0.000000e+00	-5.528126e-06	-1.557712e-09	-3.837839e+01	-1.005704e+02
1.000000e-08	-5.528351e-06	-1.555419e-09	-3.837995e+01	-1.005367e+02
2.000000e-08	-5.528466e-06	-1.554528e-09	-3.838076e+01	-1.005020e+02
3.000000e-08	-5.528240e-06	-1.556399e-09	-3.837919e+01	-1.004664e+02
4.000000e-08	-5.527525e-06	-1.559410e-09	-3.837422e+01	-1.004301e+02
5.000000e-08	-5.526287e-06	-1.562748e-09	-3.836563e+01	-1.003935e+02
6.000000e-08	-5.524368e-06	-1.561885e-09	-3.835231e+01	-1.003568e+02
7.000000e-08	-5.521840e-06	-1.554418e-09	-3.833476e+01	-1.003201e+02
8.000000e-08	-5.518850e-06	-1.558844e-09	-3.831400e+01	-1.002836e+02
9.000000e-08	-5.515432e-06	-1.557924e-09	-3.829027e+01	-1.002475e+02
1.000000e-07	-5.511656e-06	-1.582274e-09	-3.826405e+01	-1.002120e+02
1.100000e-07	-5.507431e-06	-1.612317e-09	-3.823472e+01	-1.001770e+02
1.200000e-07	-5.502822e-06	-1.562257e-09	-3.820273e+01	-1.001428e+02
1.300000e-07	-5.498082e-06	-1.482712e-09	-3.816982e+01	-1.001093e+02
1.400000e-07	-5.493135e-06	-1.521156e-09	-3.813547e+01	-1.000766e+02
1.500000e-07	-5.487682e-06	-1.559921e-09	-3.809761e+01	-1.000447e+02
1.600000e-07	-5.481711e-06	-1.591515e-09	-3.805616e+01	-1.000134e+02
1.700000e-07	-5.475455e-06	-1.498590e-09	-3.801273e+01	-9.998278e+01
1.800000e-07	-5.468888e-06	-1.561187e-09	-3.796714e+01	-9.995266e+01
1.900000e-07	-5.461844e-06	-1.555163e-09	-3.791824e+01	-9.992289e+01
2.000000e-07	-5.454409e-06	-1.543426e-09	-3.786662e+01	-9.989332e+01
2.100000e-07	-5.446806e-06	-1.457853e-09	-3.781384e+01	-9.986374e+01
2.200000e-07	-5.439037e-06	-1.501974e-09	-3.775990e+01	-9.983391e+01
2.300000e-07	-5.430974e-06	-1.535328e-09	-3.770393e+01	-9.980358e+01
2.400000e-07	-5.422532e-06	-1.536914e-09	-3.764532e+01	-9.977247e+01
2.500000e-07	-5.413515e-06	-1.500780e-09	-3.758272e+01	-9.974026e+01
2.600000e-07	-5.403781e-06	-1.483412e-09	-3.751515e+01	-9.970665e+01
2.700000e-07	-5.393198e-06	-1.497703e-09	-3.744167e+01	-9.967128e+01
2.800000e-07	-5.382089e-06	-1.486528e-09	-3.736455e+01	-9.963380e+01
2.900000e-07	-5.370704e-06	-1.495743e-09	-3.728551e+01	-9.959384e+01
3.000000e-07	-5.358919e-06	-1.463868e-09	-3.720370e+01	-9.955104e+01
3.100000e-07	-5.346754e-06	-1.513599e-09	-3.711924e+01	-9.950500e+01
3.200000e-07	-5.334152e-06	-1.499843e-09	-3.703175e+01	-9.945534e+01
3.300000e-07	-5.321166e-06	-1.514100e-09	-3.694160e+01	-9.940169e+01
3.400000e-07	-5.307785e-06	-1.451434e-09	-3.684871e+01	-9.934367e+01
3.500000e-07	-5.293999e-06	-1.511226e-09	-3.675300e+01	-9.928090e+01
3.600000e-07	-5.279845e-06	-1.491729e-09	-3.665473e+01	-9.921303e+01
3.700000e-07	-5.265145e-06	-1.481974e-09	-3.655268e+01	-9.913971e+01
3.800000e-07	-5.249794e-06	-1.452783e-09	-3.644611e+01	-9.906061e+01
3.900000e-07	-5.234051e-06	-1.520332e-09	-3.633682e+01	-9.897542e+01
4.000000e-07	-5.217783e-06	-1.469994e-09	-3.622387e+01	-9.888386e+01
4.100000e-07	-5.201060e-06	-1.453545e-09	-3.610778e+01	-9.878565e+01
4.200000e-07	-5.184135e-06	-1.496714e-09	-3.599028e+01	-9.868055e+01
4.300000e-07	-5.166901e-06	-1.514272e-09	-3.587063e+01	-9.856837e+01
4.400000e-07	-5.149229e-06	-1.426908e-09	-3.574794e+01	-9.844891e+01
4.500000e-07	-5.131219e-06	-1.462774e-09	-3.562291e+01	-9.832202e+01
4.600000e-07	-5.112977e-06	-1.517351e-09	-3.549627e+01	-9.818759e+01
4.700000e-07	-5.094222e-06	-1.450543e-09	-3.536606e+01	-9.804552e+01
4.800000e-07	-5.074990e-06	-1.413693e-09	-3.523255e+01	-9.789576e+01
4.900000e-07	-5.055553e-06	-1.497452e-09	-3.509761e+01	-9.773829e+01
5.000000e-07	-5.035971e-06	-1.480526e-09	-3.496166e+01	-9.757312e+01
5.100000e-07	-5.016220e-06	-1.405527e-09	-3.482455e+01	-9.740029e+01
5.200000e-07	-4.996203e-06	-1.463606e-09	-3.468558e+01	-9.721987e+01
5.300000e-07	-4.975842e-06	-1.479815e-09	-3.454423e+01	-9.703196e+01
5.400000e-07	-4.954997e-06	-1.401697e-09	-3.439951e+01	-9.683669e+01
5.500000e-07	-4.933773e-06	-1.415984e-09	-3.425216e+01	-9.663422e+01
5.600000e-07	-4.912272e-06	-1.478743e-09	-3.410290e+01	-9.642474e+01
5.700000e-07	-4.890348e-06	-1.409049e-09	-3.395069e+01	-9.620843e+01
5.800000e-07	-4.868114e-06	-1.401382e-09	-3.379634e+01	-9.598552e+01
5.900000e-07	-4.845637e-06	-1.460992e-09	-3.364029e+01	-9.575626e+01
6.000000e-07	-4.822691e-06	-1.439461e-09	-3.348099e+01	-9.552089e+01
6.100000e-07	-4.799332e-06	-1.383896e-09	-3.331883e+01	-9.527968e+01
6.200000e-07	-4.775835e-06	-1.437954e-09	-3.315570e+01	-9.503289e+01
6.300000e-07	-4.752158e-06	-1.422889e-09	-3.299132e+01	-9.478082e+01
6.400000e-07	-4.728269e-06	-1.381348e-09	-3.282548e+01	-9.452373e+01
6.500000e-07	-4.704117e-06	-1.396437e-09	-3.265780e+01	-9.426191e+01
6.600000e-07	-4.679498e-06	-1.423241e-09	-3.248689e+01	-9.399563e+01
6.700000e-07	-4.654270e-06	-1.379234e-09	-3.231175e+01	-9.372515e+01
6.800000e-07	-4.628612e-06	-1.390929e-09	-3.213362e+01	-9.345075e+01
6.900000e-07	-4.602458e-06	-1.400564e-09	-3.195205e+01	-9.317265e+01
7.000000e-07	-4.575559e-06	-1.373091e-09	-3.176530e+01	-9.289109e+01
7.100000e-07	-4.548201e-06	-1.354447e-09	-3.157537e+01	-9.260629e+01
7.200000e-07	-4.520709e-06	-1.383165e-09	-3.138451e+01	-9.231843e+01
7.300000e-07	-4.493132e-06	-1.370093e-09	-3.119307e+01	-9.202768e+01
7.400000e-07	-4.465434e-06	-1.364745e-09	-3.100077e+01	-9.173420e+01
7.500000e-07	-4.437487e-06	-1.371441e-09	-3.080675e+01	-9.143810e+01
7.600000e-07	-4.409232e-06	-1.363625e-09	-3.061060e+01	-9.113947e+01
7.700000e-07	-4.380725e-06	-1.340142e-09	-3.041269e+01	-9.083839e+01
7.800000e-07	-4.351882e-06	-1.338659e-09	-3.021245e+01	-9.053490e+01
7.900000e-07	-4.322629e-06	-1.335327e-09	-3.000937e+01	-9.022900e+01
8.000000e-07	-4.293081e-06	-1.325092e-09	-2.980424e+01	-8.992068e+01
8.100000e-07	-4.263347e-06	-1.330059e-09	-2.959781e+01	-8.960990e+01
8.200000e-07	-4.233377e-06	-1.329943e-09	-2.938975e+01	-8.929657e+01
8.300000e-07	-4.203075e-06	-1.313434e-09	-2.917938e+01	-8.898061e+01
8.400000e-07	-4.172506e-06	-1.298287e-09	-2.896715e+01	-8.866189e+01
8.500000e-07	-4.141569e-06	-1.301247e-09	-2.875238e+01	-8.834025e+01
8.600000e-07	-4.110321e-06	-1.286189e-09	-2.853545e+01	-8.801554e+01
8.700000e-07	-4.078978e-06	-1.280305e-09	-2.831785e+01	-8.768755e+01
8.800000e-07	-4.047432e-06	-1.284447e-09	-2.809885e+01	-8.735608e+01
8.900000e-07	-4.015712e-06	-1.288026e-09	-2.787863e+01	-8.702090e+01
9.000000e-07	-3.983880e-06	-1.268951e-09	-2.765764e+01	-8.668177e+01
9.100000e-07	-3.951750e-06	-1.265394e-09	-2.743458e+01	-8.633845e+01
9.200000e-07	-3.919208e-06	-1.254863e-09	-2.720866e+01	-8.599067e+01
9.300000e-07	-3.886350e-06	-1.241458e-09	-2.698055e+01	-8.563817e+01
9.400000e-07	-3.852995e-06	-1.230769e-09	-2.674899e+01	-8.528068e+01
9.500000e-07	-3.819012e-06	-1.236257e-09	-2.651306e+01	-8.491794e+01
9.600000e-07	-3.784525e-06	-1.224217e-09	-2.627364e+01	-8.454968e+01
9.700000e-07	-3.749664e-06	-1.218894e-09	-2.603162e+01	-8.417565e+01
9.800000e-07	-3.714565e-06	-1.216569e-09	-2.578795e+01	-8.379560e+01
9.900000e-07	-3.679224e-06	-1.213682e-09	-2.554260e+01	-8.340928e+01
1.000000e-06	-3.643664e-06	-1.198312e-09	-2.529573e+01	-8.301647e+01
1.010000e-06	-3.607980e-06	-1.195948e-09	-2.504799e+01	-8.261696e+01
1.020000e-06	-3.572200e-06	-1.191567e-09	-2.479960e+01	-8.221056e+01
1.030000e-06	-3.536264e-06	-1.182783e-09	-2.455012e+01	-8.179710e+01
1.040000e-06	-3.500145e-06	-1.175919e-09	-2.429937e+01	-8.137643e+01
1.050000e-06	-3.463855e-06	-1.177492e-09	-2.404742e+01	-8.094842e+01
1.060000e-06	-3.427228e-06	-1.169641e-09	-2.379315e+01	-8.051295e+01
1.070000e-06	-3.390197e-06	-1.159429e-09	-2.353606e+01	-8.006996e+01
1.080000e-06	-3.352888e-06	-1.154497e-09	-2.327705e+01	-7.961939e+01
1.090000e-06	-3.315383e-06	-1.146659e-09	-2.301667e+01	-7.916120e+01
1.100000e-06	-3.277672e-06	-1.137087e-09	-2.275487e+01	-7.869539e+01
1.110000e-06	-3.239752e-06	-1.131205e-09	-2.249162e+01	-7.822198e+01
1.120000e-06	-3.201696e-06	-1.128589e-09	-2.222741e+01	-7.774102e+01
1.130000e-06	-3.163450e-06	-1.119132e-09	-2.196190e+01	-7.725256e+01
1.140000e-06	-3.124907e-06	-1.112135e-09	-2.169432e+01	-7.675669e+01
1.150000e-06	-3.086123e-06	-1.103736e-09	-2.142506e+01	-7.625354e+01
1.160000e-06	-3.047095e-06	-1.094205e-09	-2.115412e+01	-7.574320e+01
1.170000e-06	-3.007859e-06	-1.082325e-09	-2.088173e+01	-7.522584e+01
1.180000e-06	-2.968500e-06	-1.078261e-09	-2.060848e+01	-7.470160e+01
1.190000e-06	-2.928975e-06	-1.071430e-09	-2.033408e+01	-7.417065e+01
1.200000e-06	-2.889316e-06	-1.065764e-09	-2.005875e+01	-7.363317e+01
1.210000e-06	-2.849580e-06	-1.056686e-09	-1.978289e+01	-7.308932e+01
1.220000e-06	-2.809792e-06	-1.049185e-09	-1.950666e+01	-7.253930e+01
1.230000e-06	-2.769873e-06	-1.034503e-09	-1.922954e+01	-7.198328e+01
1.240000e-06	-2.729706e-06	-1.022493e-09	-1.895068e+01	-7.142144e+01
1.250000e-06	-2.689290e-06	-1.012110e-09	-1.867010e+01	-7.085395e+01
1.260000e-06	-2.648635e-06	-1.004764e-09	-1.838785e+01	-7.028096e+01
1.270000e-06	-2.607734e-06	-9.962823e-10	-1.810390e+01	-6.970262e+01
1.280000e-06	-2.566494e-06	-9.909364e-10	-1.781760e+01	-6.911905e+01
1.290000e-06	-2.524840e-06	-9.842810e-10	-1.752842e+01	-6.853035e+01
1.300000e-06	-2.482900e-06	-9.748919e-10	-1.723726e+01	-6.793661e+01
1.310000e-06	-2.440626e-06	-9.596152e-10	-1.694377e+01	-6.733788e+01
1.320000e-06	-2.398095e-06	-9.460718e-10	-1.664850e+01	-6.673419e+01
1.330000e-06	-2.355425e-06	-9.322266e-10	-1.635227e+01	-6.612553e+01
1.340000e-06	-2.312477e-06	-9.205797e-10	-1.605411e+01	-6.551185e+01
1.350000e-06	-2.269335e-06	-9.112133e-10	-1.575460e+01	-6.489308e+01
1.360000e-06	-2.226070e-06	-9.035764e-10	-1.545424e+01	-6.426911e+01
1.370000e-06	-2.182651e-06	-8.938585e-10	-1.515281e+01	-6.363978e+01
1.380000e-06	-2.139122e-06	-8.830714e-10	-1.485061e+01	-6.300489e+01
1.390000e-06	-2.095472e-06	-8.692723e-10	-1.454758e+01	-6.236421e+01
1.400000e-06	-2.051686e-06	-8.520711e-10	-1.424360e+01	-6.171746e+01
1.410000e-06	-2.007811e-06	-8.375853e-10	-1.393900e+01	-6.106431e+01
1.420000e-06	-1.963883e-06	-8.263377e-10	-1.363404e+01	-6.040441e+01
1.430000e-06	-1.919930e-06	-8.187398e-10	-1.332890e+01	-5.973735e+01
1.440000e-06	-1.875882e-06	-8.115391e-10	-1.302310e+01	-5.906269e+01
1.450000e-06	-1.831698e-06	-8.046523e-10	-1.271636e+01	-5.837993e+01
1.460000e-06	-1.787425e-06	-7.942765e-10	-1.240900e+01	-5.768857e+01
1.470000e-06	-1.743023e-06	-7.812592e-10	-1.210074e+01	-5.698804e+01
1.480000e-06	-1.698452e-06	-7.671460e-10	-1.179131e+01	-5.627775e+01
1.490000e-06	-1.653776e-06	-7.551013e-10	-1.148116e+01	-5.555709e+01
1.500000e-06	-1.608991e-06	-7.430002e-10	-1.117024e+01	-5.482540e+01
1.510000e-06	-1.564032e-06	-7.330180e-10	-1.085812e+01	-5.408202e+01
1.520000e-06	-1.518872e-06	-7.236359e-10	-1.054460e+01	-5.332624e+01
1.530000e-06	-1.473537e-06	-7.161132e-10	-1.022986e+01	-5.255737e+01
1.540000e-06	-1.428054e-06	-7.050630e-10	-9.914104e+00	-5.177467e+01
1.550000e-06	-1.382498e-06	-6.923825e-10	-9.597837e+00	-5.097741e+01
1.560000e-06	-1.336892e-06	-6.765498e-10	-9.281223e+00	-5.016486e+01
1.570000e-06	-1.291220e-06	-6.629603e-10	-8.964152e+00	-4.933628e+01
1.580000e-06	-1.245536e-06	-6.502883e-10	-8.646992e+00	-4.849093e+01
1.590000e-06	-1.199774e-06	-6.395640e-10	-8.329294e+00	-4.762809e+01
1.600000e-06	-1.153883e-06	-6.278384e-10	-8.010704e+00	-4.674705e+01
1.610000e-06	-1.107881e-06	-6.168360e-10	-7.691341e+00	-4.584712e+01
1.620000e-06	-1.061900e-06	-6.035149e-10	-7.372123e+00	-4.492761e+01
1.630000e-06	-1.015833e-06	-5.887591e-10	-7.052304e+00	-4.398790e+01
1.640000e-06	-9.696792e-07	-5.745475e-10	-6.731889e+00	-4.302737e+01
1.650000e-06	-9.235036e-07	-5.591280e-10	-6.411320e+00	-4.204544e+01
1.660000e-06	-8.772065e-07	-5.429655e-10	-6.089908e+00	-4.104157e+01
1.670000e-06	-8.308086e-07	-5.256905e-10	-5.767796e+00	-4.001529e+01
1.680000e-06	-7.843460e-07	-5.095160e-10	-5.445235e+00	-3.896614e+01
1.690000e-06	-7.378376e-07	-4.943222e-10	-5.122355e+00	-3.789374e+01
1.700000e-06	-6.913519e-07	-4.806232e-10	-4.799633e+00	-3.679776e+01
1.710000e-06	-6.448561e-07	-4.640525e-10	-4.476841e+00	-3.567791e+01
1.720000e-06	-5.982923e-07	-4.444125e-10	-4.153577e+00	-3.453399e+01
1.730000e-06	-5.516906e-07	-4.232376e-10	-3.830050e+00	-3.336584e+01
1.740000e-06	-5.050125e-07	-4.005498e-10	-3.505993e+00	-3.217339e+01
1.750000e-06	-4.582556e-07	-3.799410e-10	-3.181388e+00	-3.095662e+01
1.760000e-06	-4.114447e-07	-3.617706e-10	-2.856409e+00	-2.971559e+01
1.770000e-06	-3.645920e-07	-3.472583e-10	-2.531139e+00	-2.845042e+01
1.780000e-06	-3.176739e-07	-3.339763e-10	-2.205415e+00	-2.716132e+01
1.790000e-06	-2.707620e-07	-3.157405e-10	-1.879735e+00	-2.584857e+01
1.800000e-06	-2.238621e-07	-2.951405e-10	-1.554138e+00	-2.451250e+01
1.810000e-06	-1.768952e-07	-2.735615e-10	-1.228075e+00	-2.315355e+01
1.820000e-06	-1.299184e-07	-2.522396e-10	-9.019441e-01	-2.177220e+01
1.830000e-06	-8.295777e-08	-2.321239e-10	-5.759250e-01	-2.036902e+01
1.840000e-06	-3.609894e-08	-2.147337e-10	-2.506128e-01	-1.894465e+01
1.850000e-06	1.065541e-08	-1.964404e-10	7.397398e-02	-1.749979e+01
1.860000e-06	5.743071e-08	-1.787277e-10	3.987063e-01	-1.603522e+01
1.870000e-06	1.042643e-07	-1.585785e-10	7.238434e-01	-1.455177e+01
1.880000e-06	1.511790e-07	-1.340688e-10	1.049543e+00	-1.305035e+01
1.890000e-06	1.980121e-07	-1.097274e-10	1.374677e+00	-1.153191e+01
1.900000e-06	2.448365e-07	-9.026307e-11	1.699750e+00	-9.997479e+00
1.910000e-06	2.917013e-07	-7.426211e-11	2.025104e+00	-8.448123e+00
1.920000e-06	3.384750e-07	-5.669852e-11	2.349824e+00	-6.884964e+00
1.930000e-06	3.852432e-07	-3.438036e-11	2.674508e+00	-5.309170e+00
1.940000e-06	4.320585e-07	-9.298260e-12	2.999518e+00	-3.721950e+00
1.950000e-06	4.788587e-07	1.816653e-11	3.324423e+00	-2.124552e+00
1.960000e-06	5.256432e-07	4.496599e-11	3.649219e+00	-5.182590e-01
1.970000e-06	5.723155e-07	6.623073e-11	3.973236e+00	1.095619e+00
1.980000e-06	6.188281e-07	8.490248e-11	4.296145e+00	2.715747e+00
1.990000e-06	6.653604e-07	1.028065e-10	4.619190e+00	4.340768e+00
2.000000e-06	7.119324e-07	1.197671e-10	4.942511e+00	5.969311e+00
2.010000e-06	7.585087e-07	1.393081e-10	5.265861e+00	7.599994e+00
2.020000e-06	8.049264e-07	1.610708e-10	5.588111e+00	9.231430e+00
2.030000e-06	8.511489e-07	1.871153e-10	5.909006e+00	1.086223e+01
2.040000e-06	8.973825e-07	2.175968e-10	6.229978e+00	1.249101e+01
2.050000e-06	9.436110e-07	2.446036e-10	6.550914e+00	1.411639e+01
2.060000e-06	9.897105e-07	2.670020e-10	6.870954e+00	1.573702e+01
2.070000e-06	1.035649e-06	2.874168e-10	7.189879e+00	1.735153e+01
2.080000e-06	1.081581e-06	3.073823e-10	7.508758e+00	1.895862e+01
2.090000e-06	1.127545e-06	3.265051e-10	7.827851e+00	2.055699e+01
2.100000e-06	1.173392e-06	3.494591e-10	8.146146e+00	2.214536e+01
2.110000e-06	1.219129e-06	3.745312e-10	8.463665e+00	2.372251e+01
2.120000e-06	1.264737e-06	3.997289e-10	8.780292e+00	2.528724e+01
2.130000e-06	1.310260e-06	4.235275e-10	9.096335e+00	2.683841e+01
2.140000e-06	1.355760e-06	4.462403e-10	9.412212e+00	2.837491e+01
2.150000e-06	1.401152e-06	4.653262e-10	9.727338e+00	2.989568e+01
2.160000e-06	1.446390e-06	4.818318e-10	1.004140e+01	3.139972e+01
2.170000e-06	1.491542e-06	5.001936e-10	1.035486e+01	3.288608e+01
2.180000e-06	1.536641e-06	5.206134e-10	1.066795e+01	3.435387e+01
2.190000e-06	1.581613e-06	5.429277e-10	1.098017e+01	3.580225e+01
2.200000e-06	1.626464e-06	5.658966e-10	1.129154e+01	3.723046e+01
2.210000e-06	1.671167e-06	5.869199e-10	1.160189e+01	3.863777e+01
2.220000e-06	1.715705e-06	6.048136e-10	1.191109e+01	4.002356e+01
2.230000e-06	1.760121e-06	6.197332e-10	1.221945e+01	4.138722e+01
2.240000e-06	1.804411e-06	6.352400e-10	1.252692e+01	4.272826e+01
2.250000e-06	1.848611e-06	6.531242e-10	1.283378e+01	4.404621e+01
2.260000e-06	1.892700e-06	6.713391e-10	1.313986e+01	4.534070e+01
2.270000e-06	1.936703e-06	6.889670e-10	1.344534e+01	4.661141e+01
2.280000e-06	1.980633e-06	7.045420e-10	1.375032e+01	4.785808e+01
2.290000e-06	2.024475e-06	7.197987e-10	1.405469e+01	4.908053e+01
2.300000e-06	2.068211e-06	7.373295e-10	1.435832e+01	5.027864e+01
2.310000e-06	2.111848e-06	7.537567e-10	1.466127e+01	5.145234e+01
2.320000e-06	2.155396e-06	7.679555e-10	1.496359e+01	5.260162e+01
2.330000e-06	2.198829e-06	7.829902e-10	1.526512e+01	5.372656e+01
2.340000e-06	2.242196e-06	7.988016e-10	1.556620e+01	5.482725e+01
2.350000e-06	2.285534e-06	8.138426e-10	1.586707e+01	5.590387e+01
2.360000e-06	2.328653e-06	8.272523e-10	1.616641e+01	5.695664e+01
2.370000e-06	2.371391e-06	8.408371e-10	1.646311e+01	5.798583e+01
2.380000e-06	2.413988e-06	8.531776e-10	1.675884e+01	5.899174e+01
2.390000e-06	2.456313e-06	8.661846e-10	1.705268e+01	5.997474e+01
2.400000e-06	2.498216e-06	8.797604e-10	1.734359e+01	6.093522e+01
2.410000e-06	2.539873e-06	8.930097e-10	1.763278e+01	6.187361e+01
2.420000e-06	2.581252e-06	9.056106e-10	1.792005e+01	6.279037e+01
2.430000e-06	2.622348e-06	9.177316e-10	1.820536e+01	6.368601e+01
2.440000e-06	2.663195e-06	9.295870e-10	1.848893e+01	6.456104e+01
2.450000e-06	2.703850e-06	9.398313e-10	1.877118e+01	6.541599e+01
2.460000e-06	2.744261e-06	9.496332e-10	1.905172e+01	6.625142e+01
2.470000e-06	2.784362e-06	9.614856e-10	1.933012e+01	6.706792e+01
2.480000e-06	2.824338e-06	9.736624e-10	1.960765e+01	6.786604e+01
2.490000e-06	2.864209e-06	9.835861e-10	1.988445e+01	6.864640e+01
2.500000e-06	2.903937e-06	9.922179e-10	2.016025e+01	6.940957e+01
2.510000e-06	2.943545e-06	1.001474e-09	2.043523e+01	7.015615e+01
2.520000e-06	2.982966e-06	1.011048e-09	2.070891e+01	7.088672e+01
2.530000e-06	3.022153e-06	1.021203e-09	2.098096e+01	7.160187e+01
2.540000e-06	3.061135e-06	1.033171e-09	2.125159e+01	7.230217e+01
2.550000e-06	3.099961e-06	1.045525e-09	2.152113e+01	7.298817e+01
2.560000e-06	3.138535e-06	1.054136e-09	2.178892e+01	7.366041e+01
2.570000e-06	3.176785e-06	1.059223e-09	2.205447e+01	7.431941e+01
2.580000e-06	3.214887e-06	1.066207e-09	2.231899e+01	7.496569e+01
2.590000e-06	3.252890e-06	1.076671e-09	2.258282e+01	7.559971e+01
2.600000e-06	3.290717e-06	1.086667e-09	2.284543e+01	7.622193e+01
2.610000e-06	3.328294e-06	1.094684e-09	2.310631e+01	7.683279e+01
2.620000e-06	3.365509e-06	1.102914e-09	2.336467e+01	7.743268e+01
2.630000e-06	3.402410e-06	1.112545e-09	2.362085e+01	7.802198e+01
2.640000e-06	3.439162e-06	1.121683e-09	2.387600e+01	7.860103e+01
2.650000e-06	3.475700e-06	1.129646e-09	2.412966e+01	7.917015e+01
2.660000e-06	3.511950e-06	1.139429e-09	2.438132e+01	7.972962e+01
2.670000e-06	3.548049e-06	1.147424e-09	2.463193e+01	8.027970e+01
2.680000e-06	3.583956e-06	1.154716e-09	2.488121e+01	8.082061e+01
2.690000e-06	3.619647e-06	1.163028e-09	2.512900e+01	8.135254e+01
2.700000e-06	3.655242e-06	1.168671e-09	2.537611e+01	8.187567e+01
2.710000e-06	3.690693e-06	1.174080e-09	2.562223e+01	8.239014e+01
2.720000e-06	3.725925e-06	1.181575e-09	2.586681e+01	8.289606e+01
2.730000e-06	3.760890e-06	1.189235e-09	2.610956e+01	8.339351e+01
2.740000e-06	3.795543e-06	1.196267e-09	2.635013e+01	8.388258e+01
2.750000e-06	3.829807e-06	1.202904e-09	2.658801e+01	8.436330e+01
2.760000e-06	3.863525e-06	1.210044e-09	2.682209e+01	8.483569e+01
2.770000e-06	3.896764e-06	1.215470e-09	2.705285e+01	8.529978e+01
2.780000e-06	3.929548e-06	1.218625e-09	2.728045e+01	8.575555e+01
2.790000e-06	3.961918e-06	1.221916e-09	2.750517e+01	8.620299e+01
2.800000e-06	3.993994e-06	1.225615e-09	2.772786e+01	8.664206e+01
2.810000e-06	4.025840e-06	1.231915e-09	2.794894e+01	8.707273e+01
2.820000e-06	4.057568e-06	1.240281e-09	2.816921e+01	8.749496e+01
2.830000e-06	4.089165e-06	1.248808e-09	2.838857e+01	8.790870e+01
2.840000e-06	4.120540e-06	1.256980e-09	2.860639e+01	8.831391e+01
2.850000e-06	4.151721e-06	1.262741e-09	2.882286e+01	8.871053e+01
2.860000e-06	4.182712e-06	1.266824e-09	2.903801e+01	8.909853e+01
2.870000e-06	4.213337e-06	1.270517e-09	2.925062e+01	8.947788e+01
2.880000e-06	4.243620e-06	1.274314e-09	2.946085e+01	8.984853e+01
2.890000e-06	4.273580e-06	1.277047e-09	2.966885e+01	9.021048e+01
2.900000e-06	4.303177e-06	1.279296e-09	2.987432e+01	9.056371e+01
