# Temperatura_=_-1.1
# Concentracion g/m^3_=_1620.0
# C_Vs_to_Am_M_A/Vsm_=_65563218390.804596
# pendiente_HvsI_1/m_=_3716.3
# ordenada_HvsI_A/m_=_1297.0
# frecuencia_Hz_=_135098.282958103

Tiempo_(s)	Campo_(V.s)	Magnetizacion_(V.s)	Campo_(kA/m)	Magnetizacion_(A/m)
0.000000e+00	-5.507766e-06	-1.223312e-09	-3.837613e+01	-8.044463e+01
1.000000e-08	-5.507959e-06	-1.219527e-09	-3.837748e+01	-8.043012e+01
2.000000e-08	-5.507997e-06	-1.217241e-09	-3.837774e+01	-8.041223e+01
3.000000e-08	-5.507668e-06	-1.219681e-09	-3.837545e+01	-8.039058e+01
4.000000e-08	-5.506789e-06	-1.222270e-09	-3.836933e+01	-8.036479e+01
5.000000e-08	-5.505290e-06	-1.220098e-09	-3.835888e+01	-8.033450e+01
6.000000e-08	-5.503155e-06	-1.212255e-09	-3.834400e+01	-8.029936e+01
7.000000e-08	-5.500436e-06	-1.197209e-09	-3.832506e+01	-8.025904e+01
8.000000e-08	-5.497283e-06	-1.216885e-09	-3.830309e+01	-8.021321e+01
9.000000e-08	-5.493771e-06	-1.278646e-09	-3.827862e+01	-8.016158e+01
1.000000e-07	-5.489774e-06	-1.281032e-09	-3.825077e+01	-8.010388e+01
1.100000e-07	-5.485350e-06	-1.207066e-09	-3.821995e+01	-8.003987e+01
1.200000e-07	-5.480760e-06	-1.176244e-09	-3.818796e+01	-7.996933e+01
1.300000e-07	-5.476081e-06	-1.226840e-09	-3.815536e+01	-7.989207e+01
1.400000e-07	-5.470967e-06	-1.266764e-09	-3.811973e+01	-7.980795e+01
1.500000e-07	-5.465304e-06	-1.189295e-09	-3.808027e+01	-7.971684e+01
1.600000e-07	-5.459325e-06	-1.174630e-09	-3.803861e+01	-7.961867e+01
1.700000e-07	-5.452999e-06	-1.244177e-09	-3.799453e+01	-7.951339e+01
1.800000e-07	-5.446153e-06	-1.281483e-09	-3.794684e+01	-7.940098e+01
1.900000e-07	-5.438869e-06	-1.205538e-09	-3.789608e+01	-7.928149e+01
2.000000e-07	-5.431385e-06	-1.145699e-09	-3.784394e+01	-7.915496e+01
2.100000e-07	-5.423723e-06	-1.206258e-09	-3.779055e+01	-7.902152e+01
2.200000e-07	-5.415801e-06	-1.263593e-09	-3.773535e+01	-7.888128e+01
2.300000e-07	-5.407721e-06	-1.234682e-09	-3.767905e+01	-7.873443e+01
2.400000e-07	-5.399398e-06	-1.183419e-09	-3.762106e+01	-7.858118e+01
2.500000e-07	-5.390371e-06	-1.204448e-09	-3.755816e+01	-7.842174e+01
2.600000e-07	-5.380425e-06	-1.214969e-09	-3.748886e+01	-7.825641e+01
2.700000e-07	-5.369774e-06	-1.178046e-09	-3.741465e+01	-7.808546e+01
2.800000e-07	-5.358621e-06	-1.134606e-09	-3.733694e+01	-7.790921e+01
2.900000e-07	-5.347085e-06	-1.165322e-09	-3.725656e+01	-7.772802e+01
3.000000e-07	-5.335201e-06	-1.172987e-09	-3.717376e+01	-7.754223e+01
3.100000e-07	-5.322896e-06	-1.132017e-09	-3.708803e+01	-7.735223e+01
3.200000e-07	-5.310134e-06	-1.101025e-09	-3.699910e+01	-7.715840e+01
3.300000e-07	-5.297017e-06	-1.143297e-09	-3.690771e+01	-7.696114e+01
3.400000e-07	-5.283578e-06	-1.149891e-09	-3.681407e+01	-7.676086e+01
3.500000e-07	-5.269759e-06	-1.101012e-09	-3.671779e+01	-7.655797e+01
3.600000e-07	-5.255584e-06	-1.098683e-09	-3.661902e+01	-7.635288e+01
3.700000e-07	-5.241084e-06	-1.150475e-09	-3.651799e+01	-7.614599e+01
3.800000e-07	-5.226068e-06	-1.134057e-09	-3.641336e+01	-7.593769e+01
3.900000e-07	-5.210232e-06	-1.091502e-09	-3.630302e+01	-7.572839e+01
4.000000e-07	-5.193756e-06	-1.124117e-09	-3.618822e+01	-7.551845e+01
4.100000e-07	-5.177010e-06	-1.147344e-09	-3.607154e+01	-7.530822e+01
4.200000e-07	-5.159986e-06	-1.090997e-09	-3.595292e+01	-7.509806e+01
4.300000e-07	-5.142619e-06	-1.085110e-09	-3.583192e+01	-7.488827e+01
4.400000e-07	-5.125012e-06	-1.143575e-09	-3.570924e+01	-7.467914e+01
4.500000e-07	-5.107098e-06	-1.115058e-09	-3.558442e+01	-7.447095e+01
4.600000e-07	-5.088686e-06	-1.063570e-09	-3.545613e+01	-7.426393e+01
4.700000e-07	-5.069839e-06	-1.101734e-09	-3.532481e+01	-7.405828e+01
4.800000e-07	-5.050677e-06	-1.127256e-09	-3.519130e+01	-7.385419e+01
4.900000e-07	-5.031234e-06	-1.081081e-09	-3.505582e+01	-7.365179e+01
5.000000e-07	-5.011569e-06	-1.091927e-09	-3.491881e+01	-7.345119e+01
5.100000e-07	-4.991694e-06	-1.110527e-09	-3.478033e+01	-7.325247e+01
5.200000e-07	-4.971545e-06	-1.064670e-09	-3.463994e+01	-7.305566e+01
5.300000e-07	-4.951061e-06	-1.055256e-09	-3.449721e+01	-7.286078e+01
5.400000e-07	-4.930177e-06	-1.107063e-09	-3.435170e+01	-7.266779e+01
5.500000e-07	-4.908898e-06	-1.082629e-09	-3.420343e+01	-7.247664e+01
5.600000e-07	-4.887329e-06	-1.046366e-09	-3.405315e+01	-7.228722e+01
5.700000e-07	-4.865512e-06	-1.082651e-09	-3.390114e+01	-7.209942e+01
5.800000e-07	-4.843378e-06	-1.095429e-09	-3.374691e+01	-7.191307e+01
5.900000e-07	-4.820867e-06	-1.055719e-09	-3.359006e+01	-7.172800e+01
6.000000e-07	-4.797932e-06	-1.069595e-09	-3.343027e+01	-7.154399e+01
6.100000e-07	-4.774670e-06	-1.086965e-09	-3.326818e+01	-7.136082e+01
6.200000e-07	-4.751146e-06	-1.059290e-09	-3.310428e+01	-7.117822e+01
6.300000e-07	-4.727385e-06	-1.054950e-09	-3.293872e+01	-7.099591e+01
6.400000e-07	-4.703457e-06	-1.074557e-09	-3.277199e+01	-7.081362e+01
6.500000e-07	-4.679229e-06	-1.054061e-09	-3.260318e+01	-7.063103e+01
6.600000e-07	-4.654592e-06	-1.042440e-09	-3.243152e+01	-7.044781e+01
6.700000e-07	-4.629459e-06	-1.058125e-09	-3.225640e+01	-7.026366e+01
6.800000e-07	-4.603750e-06	-1.050260e-09	-3.207727e+01	-7.007822e+01
6.900000e-07	-4.577483e-06	-1.038270e-09	-3.189425e+01	-6.989117e+01
7.000000e-07	-4.550654e-06	-1.049100e-09	-3.170732e+01	-6.970216e+01
7.100000e-07	-4.523339e-06	-1.041539e-09	-3.151700e+01	-6.951086e+01
7.200000e-07	-4.495816e-06	-1.022473e-09	-3.132523e+01	-6.931695e+01
7.300000e-07	-4.468168e-06	-1.031823e-09	-3.113259e+01	-6.912009e+01
7.400000e-07	-4.440362e-06	-1.033539e-09	-3.093885e+01	-6.891997e+01
7.500000e-07	-4.412404e-06	-1.015289e-09	-3.074404e+01	-6.871629e+01
7.600000e-07	-4.384226e-06	-1.015262e-09	-3.054771e+01	-6.850876e+01
7.700000e-07	-4.355686e-06	-1.021059e-09	-3.034885e+01	-6.829710e+01
7.800000e-07	-4.326686e-06	-1.003703e-09	-3.014679e+01	-6.808107e+01
7.900000e-07	-4.297365e-06	-9.993345e-10	-2.994249e+01	-6.786042e+01
8.000000e-07	-4.267807e-06	-1.004493e-09	-2.973654e+01	-6.763493e+01
8.100000e-07	-4.237952e-06	-9.883273e-10	-2.952852e+01	-6.740442e+01
8.200000e-07	-4.207844e-06	-9.709435e-10	-2.931874e+01	-6.716870e+01
8.300000e-07	-4.177480e-06	-9.796829e-10	-2.910717e+01	-6.692763e+01
8.400000e-07	-4.146733e-06	-9.765805e-10	-2.889294e+01	-6.668109e+01
8.500000e-07	-4.115750e-06	-9.636582e-10	-2.867706e+01	-6.642896e+01
8.600000e-07	-4.084597e-06	-9.676120e-10	-2.846000e+01	-6.617116e+01
8.700000e-07	-4.053206e-06	-9.701265e-10	-2.824128e+01	-6.590765e+01
8.800000e-07	-4.021614e-06	-9.539229e-10	-2.802116e+01	-6.563839e+01
8.900000e-07	-3.989839e-06	-9.498449e-10	-2.779976e+01	-6.536336e+01
9.000000e-07	-3.957868e-06	-9.475794e-10	-2.757700e+01	-6.508258e+01
9.100000e-07	-3.925621e-06	-9.302656e-10	-2.735232e+01	-6.479608e+01
9.200000e-07	-3.893088e-06	-9.199057e-10	-2.712564e+01	-6.450390e+01
9.300000e-07	-3.860217e-06	-9.252679e-10	-2.689660e+01	-6.420612e+01
9.400000e-07	-3.826859e-06	-9.208379e-10	-2.666418e+01	-6.390281e+01
9.500000e-07	-3.793040e-06	-9.109191e-10	-2.642853e+01	-6.359409e+01
9.600000e-07	-3.758736e-06	-9.127411e-10	-2.618952e+01	-6.328005e+01
9.700000e-07	-3.723895e-06	-9.099684e-10	-2.594676e+01	-6.296083e+01
9.800000e-07	-3.688637e-06	-8.979363e-10	-2.570109e+01	-6.263656e+01
9.900000e-07	-3.653142e-06	-8.950709e-10	-2.545378e+01	-6.230739e+01
1.000000e-06	-3.617529e-06	-8.953521e-10	-2.520564e+01	-6.197346e+01
1.010000e-06	-3.581828e-06	-8.867408e-10	-2.495689e+01	-6.163493e+01
1.020000e-06	-3.546010e-06	-8.829696e-10	-2.470732e+01	-6.129195e+01
1.030000e-06	-3.509992e-06	-8.829340e-10	-2.445636e+01	-6.094468e+01
1.040000e-06	-3.473824e-06	-8.746265e-10	-2.420435e+01	-6.059327e+01
1.050000e-06	-3.437465e-06	-8.672145e-10	-2.395102e+01	-6.023789e+01
1.060000e-06	-3.400828e-06	-8.661025e-10	-2.369574e+01	-5.987868e+01
1.070000e-06	-3.363921e-06	-8.583463e-10	-2.343859e+01	-5.951578e+01
1.080000e-06	-3.326694e-06	-8.471829e-10	-2.317921e+01	-5.914933e+01
1.090000e-06	-3.289167e-06	-8.433384e-10	-2.291773e+01	-5.877945e+01
1.100000e-06	-3.251527e-06	-8.408673e-10	-2.265547e+01	-5.840627e+01
1.110000e-06	-3.213674e-06	-8.316309e-10	-2.239172e+01	-5.802987e+01
1.120000e-06	-3.175558e-06	-8.280450e-10	-2.212615e+01	-5.765036e+01
1.130000e-06	-3.137299e-06	-8.265726e-10	-2.185957e+01	-5.726781e+01
1.140000e-06	-3.098802e-06	-8.185246e-10	-2.159134e+01	-5.688228e+01
1.150000e-06	-3.060052e-06	-8.092397e-10	-2.132134e+01	-5.649382e+01
1.160000e-06	-3.021119e-06	-8.066184e-10	-2.105007e+01	-5.610245e+01
1.170000e-06	-2.982022e-06	-8.019939e-10	-2.077765e+01	-5.570819e+01
1.180000e-06	-2.942760e-06	-7.962405e-10	-2.050409e+01	-5.531104e+01
1.190000e-06	-2.903306e-06	-7.938711e-10	-2.022919e+01	-5.491096e+01
1.200000e-06	-2.863682e-06	-7.885515e-10	-1.995311e+01	-5.450792e+01
1.210000e-06	-2.823909e-06	-7.774842e-10	-1.967598e+01	-5.410184e+01
1.220000e-06	-2.784077e-06	-7.684160e-10	-1.939845e+01	-5.369266e+01
1.230000e-06	-2.744159e-06	-7.595768e-10	-1.912031e+01	-5.328028e+01
1.240000e-06	-2.703993e-06	-7.472744e-10	-1.884045e+01	-5.286456e+01
1.250000e-06	-2.663640e-06	-7.400738e-10	-1.855928e+01	-5.244538e+01
1.260000e-06	-2.623125e-06	-7.376350e-10	-1.827699e+01	-5.202258e+01
1.270000e-06	-2.582424e-06	-7.344705e-10	-1.799340e+01	-5.159599e+01
1.280000e-06	-2.541449e-06	-7.301538e-10	-1.770790e+01	-5.116541e+01
1.290000e-06	-2.500141e-06	-7.256058e-10	-1.742008e+01	-5.073062e+01
1.300000e-06	-2.458435e-06	-7.177304e-10	-1.712949e+01	-5.029141e+01
1.310000e-06	-2.416389e-06	-7.054942e-10	-1.683653e+01	-4.984753e+01
1.320000e-06	-2.374037e-06	-6.955990e-10	-1.654144e+01	-4.939871e+01
1.330000e-06	-2.331368e-06	-6.890263e-10	-1.624413e+01	-4.894468e+01
1.340000e-06	-2.288470e-06	-6.821718e-10	-1.594523e+01	-4.848515e+01
1.350000e-06	-2.245376e-06	-6.767576e-10	-1.564497e+01	-4.801980e+01
1.360000e-06	-2.202172e-06	-6.729093e-10	-1.534394e+01	-4.754832e+01
1.370000e-06	-2.158763e-06	-6.668771e-10	-1.504148e+01	-4.707037e+01
1.380000e-06	-2.115143e-06	-6.577094e-10	-1.473756e+01	-4.658561e+01
1.390000e-06	-2.071440e-06	-6.453907e-10	-1.443305e+01	-4.609367e+01
1.400000e-06	-2.027668e-06	-6.319278e-10	-1.412806e+01	-4.559418e+01
1.410000e-06	-1.983852e-06	-6.206008e-10	-1.382277e+01	-4.508677e+01
1.420000e-06	-1.939989e-06	-6.108549e-10	-1.351715e+01	-4.457104e+01
1.430000e-06	-1.896078e-06	-6.037442e-10	-1.321119e+01	-4.404660e+01
1.440000e-06	-1.852072e-06	-5.959603e-10	-1.290457e+01	-4.351304e+01
1.450000e-06	-1.807991e-06	-5.876994e-10	-1.259743e+01	-4.296995e+01
1.460000e-06	-1.763784e-06	-5.759595e-10	-1.228941e+01	-4.241690e+01
1.470000e-06	-1.719416e-06	-5.642852e-10	-1.198027e+01	-4.185349e+01
1.480000e-06	-1.674963e-06	-5.520081e-10	-1.167054e+01	-4.127928e+01
1.490000e-06	-1.630356e-06	-5.400569e-10	-1.135973e+01	-4.069385e+01
1.500000e-06	-1.585566e-06	-5.320030e-10	-1.104765e+01	-4.009678e+01
1.510000e-06	-1.540783e-06	-5.246527e-10	-1.073562e+01	-3.948763e+01
1.520000e-06	-1.495912e-06	-5.149015e-10	-1.042298e+01	-3.886598e+01
1.530000e-06	-1.450765e-06	-5.024772e-10	-1.010841e+01	-3.823143e+01
1.540000e-06	-1.405533e-06	-4.897852e-10	-9.793246e+00	-3.758354e+01
1.550000e-06	-1.360213e-06	-4.792815e-10	-9.477477e+00	-3.692192e+01
1.560000e-06	-1.314776e-06	-4.691866e-10	-9.160888e+00	-3.624618e+01
1.570000e-06	-1.269293e-06	-4.604624e-10	-8.843978e+00	-3.555592e+01
1.580000e-06	-1.223740e-06	-4.535039e-10	-8.526578e+00	-3.485077e+01
1.590000e-06	-1.178099e-06	-4.434280e-10	-8.208572e+00	-3.413037e+01
1.600000e-06	-1.132328e-06	-4.333060e-10	-7.889655e+00	-3.339438e+01
1.610000e-06	-1.086511e-06	-4.222992e-10	-7.570419e+00	-3.264247e+01
1.620000e-06	-1.040700e-06	-4.083213e-10	-7.251220e+00	-3.187435e+01
1.630000e-06	-9.947121e-07	-3.938393e-10	-6.930796e+00	-3.108972e+01
1.640000e-06	-9.486096e-07	-3.827609e-10	-6.609570e+00	-3.028834e+01
1.650000e-06	-9.024762e-07	-3.722952e-10	-6.288129e+00	-2.946996e+01
1.660000e-06	-8.563294e-07	-3.605413e-10	-5.966595e+00	-2.863438e+01
1.670000e-06	-8.101612e-07	-3.503129e-10	-5.644911e+00	-2.778144e+01
1.680000e-06	-7.638777e-07	-3.394398e-10	-5.322424e+00	-2.691097e+01
1.690000e-06	-7.176090e-07	-3.268540e-10	-5.000041e+00	-2.602289e+01
1.700000e-06	-6.713300e-07	-3.129308e-10	-4.677586e+00	-2.511711e+01
1.710000e-06	-6.249588e-07	-2.972122e-10	-4.354488e+00	-2.419360e+01
1.720000e-06	-5.785457e-07	-2.817584e-10	-4.031098e+00	-2.325235e+01
1.730000e-06	-5.321140e-07	-2.666108e-10	-3.707579e+00	-2.229341e+01
1.740000e-06	-4.856280e-07	-2.540587e-10	-3.383681e+00	-2.131686e+01
1.750000e-06	-4.390489e-07	-2.409672e-10	-3.059135e+00	-2.032283e+01
1.760000e-06	-3.924283e-07	-2.282337e-10	-2.734299e+00	-1.931147e+01
1.770000e-06	-3.458178e-07	-2.139157e-10	-2.409534e+00	-1.828300e+01
1.780000e-06	-2.991980e-07	-1.988244e-10	-2.084704e+00	-1.723768e+01
1.790000e-06	-2.524591e-07	-1.835022e-10	-1.759044e+00	-1.617580e+01
1.800000e-06	-2.056956e-07	-1.686229e-10	-1.433213e+00	-1.509771e+01
1.810000e-06	-1.589066e-07	-1.531792e-10	-1.107204e+00	-1.400380e+01
1.820000e-06	-1.121227e-07	-1.370242e-10	-7.812303e-01	-1.289450e+01
1.830000e-06	-6.544667e-08	-1.208644e-10	-4.560088e-01	-1.177028e+01
1.840000e-06	-1.865860e-08	-1.035074e-10	-1.300064e-01	-1.063168e+01
1.850000e-06	2.819999e-08	-8.593919e-11	1.964874e-01	-9.479241e+00
1.860000e-06	7.491505e-08	-7.022447e-11	5.219811e-01	-8.313582e+00
1.870000e-06	1.215790e-07	-5.400355e-11	8.471189e-01	-7.135344e+00
1.880000e-06	1.682636e-07	-3.644277e-11	1.172400e+00	-5.945208e+00
1.890000e-06	2.149882e-07	-2.059102e-11	1.497960e+00	-4.743895e+00
1.900000e-06	2.616360e-07	-5.325403e-12	1.822985e+00	-3.532158e+00
1.910000e-06	3.081913e-07	8.621123e-12	2.147366e+00	-2.310782e+00
1.920000e-06	3.548062e-07	2.627747e-11	2.472162e+00	-1.080583e+00
1.930000e-06	4.014051e-07	4.573044e-11	2.796846e+00	1.575965e-01
1.940000e-06	4.479127e-07	6.495175e-11	3.120895e+00	1.402889e+00
1.950000e-06	4.943319e-07	8.435273e-11	3.444327e+00	2.654406e+00
1.960000e-06	5.407214e-07	1.028301e-10	3.767552e+00	3.911240e+00
1.970000e-06	5.871260e-07	1.190264e-10	4.090882e+00	5.172468e+00
1.980000e-06	6.335330e-07	1.347957e-10	4.414230e+00	6.437154e+00
1.990000e-06	6.799029e-07	1.490105e-10	4.737319e+00	7.704354e+00
2.000000e-06	7.261812e-07	1.633964e-10	5.059769e+00	8.973118e+00
2.010000e-06	7.723719e-07	1.820527e-10	5.381609e+00	1.024249e+01
2.020000e-06	8.184937e-07	2.015423e-10	5.702969e+00	1.151153e+01
2.030000e-06	8.645682e-07	2.219152e-10	6.024000e+00	1.277927e+01
2.040000e-06	9.106071e-07	2.450039e-10	6.344783e+00	1.404479e+01
2.050000e-06	9.565517e-07	2.653169e-10	6.664908e+00	1.530715e+01
2.060000e-06	1.002418e-06	2.827255e-10	6.984488e+00	1.656543e+01
2.070000e-06	1.048281e-06	2.971162e-10	7.304048e+00	1.781874e+01
2.080000e-06	1.094126e-06	3.123329e-10	7.623474e+00	1.906619e+01
2.090000e-06	1.139802e-06	3.285610e-10	7.941731e+00	2.030693e+01
2.100000e-06	1.185340e-06	3.466886e-10	8.259025e+00	2.154013e+01
2.110000e-06	1.230857e-06	3.679013e-10	8.576167e+00	2.276497e+01
2.120000e-06	1.276304e-06	3.883640e-10	8.892830e+00	2.398069e+01
2.130000e-06	1.321640e-06	4.072657e-10	9.208711e+00	2.518653e+01
2.140000e-06	1.366878e-06	4.240306e-10	9.523912e+00	2.638179e+01
2.150000e-06	1.412091e-06	4.383199e-10	9.838943e+00	2.756580e+01
2.160000e-06	1.457195e-06	4.513298e-10	1.015321e+01	2.873790e+01
2.170000e-06	1.502122e-06	4.666170e-10	1.046624e+01	2.989749e+01
2.180000e-06	1.546963e-06	4.834696e-10	1.077868e+01	3.104402e+01
2.190000e-06	1.591678e-06	5.015566e-10	1.109024e+01	3.217696e+01
2.200000e-06	1.636235e-06	5.207002e-10	1.140070e+01	3.329581e+01
2.210000e-06	1.680762e-06	5.366394e-10	1.171094e+01	3.440013e+01
2.220000e-06	1.725151e-06	5.478639e-10	1.202023e+01	3.548952e+01
2.230000e-06	1.769363e-06	5.579973e-10	1.232828e+01	3.656360e+01
2.240000e-06	1.813446e-06	5.704142e-10	1.263544e+01	3.762205e+01
2.250000e-06	1.857393e-06	5.860664e-10	1.294164e+01	3.866458e+01
2.260000e-06	1.901313e-06	6.025210e-10	1.324766e+01	3.969093e+01
2.270000e-06	1.945200e-06	6.173320e-10	1.355345e+01	4.070088e+01
2.280000e-06	1.989033e-06	6.292448e-10	1.385886e+01	4.169426e+01
2.290000e-06	2.032794e-06	6.404539e-10	1.416378e+01	4.267092e+01
2.300000e-06	2.076477e-06	6.515756e-10	1.446814e+01	4.363074e+01
2.310000e-06	2.120094e-06	6.620163e-10	1.477205e+01	4.457365e+01
2.320000e-06	2.163631e-06	6.756061e-10	1.507540e+01	4.549958e+01
2.330000e-06	2.207045e-06	6.931765e-10	1.537789e+01	4.640852e+01
2.340000e-06	2.250275e-06	7.101397e-10	1.567911e+01	4.730047e+01
2.350000e-06	2.293206e-06	7.230224e-10	1.597824e+01	4.817545e+01
2.360000e-06	2.335808e-06	7.319053e-10	1.627507e+01	4.903352e+01
2.370000e-06	2.378208e-06	7.390829e-10	1.657050e+01	4.987474e+01
2.380000e-06	2.420365e-06	7.456626e-10	1.686423e+01	5.069922e+01
2.390000e-06	2.462171e-06	7.556642e-10	1.715552e+01	5.150705e+01
2.400000e-06	2.503663e-06	7.676416e-10	1.744462e+01	5.229837e+01
2.410000e-06	2.544880e-06	7.801739e-10	1.773181e+01	5.307332e+01
2.420000e-06	2.585892e-06	7.928106e-10	1.801756e+01	5.383205e+01
2.430000e-06	2.626605e-06	8.039295e-10	1.830123e+01	5.457473e+01
2.440000e-06	2.667028e-06	8.125115e-10	1.858289e+01	5.530154e+01
2.450000e-06	2.707213e-06	8.205294e-10	1.886289e+01	5.601266e+01
2.460000e-06	2.747233e-06	8.305167e-10	1.914173e+01	5.670830e+01
2.470000e-06	2.787166e-06	8.404068e-10	1.941997e+01	5.738865e+01
2.480000e-06	2.826948e-06	8.494572e-10	1.969716e+01	5.805392e+01
2.490000e-06	2.866649e-06	8.572259e-10	1.997378e+01	5.870433e+01
2.500000e-06	2.906238e-06	8.653245e-10	2.024962e+01	5.934009e+01
2.510000e-06	2.945667e-06	8.739822e-10	2.052435e+01	5.996144e+01
2.520000e-06	2.984927e-06	8.831523e-10	2.079789e+01	6.056859e+01
2.530000e-06	3.023957e-06	8.922171e-10	2.106984e+01	6.116179e+01
2.540000e-06	3.062711e-06	9.016825e-10	2.133987e+01	6.174125e+01
2.550000e-06	3.101264e-06	9.119935e-10	2.160849e+01	6.230721e+01
2.560000e-06	3.139682e-06	9.188677e-10	2.187618e+01	6.285993e+01
2.570000e-06	3.177845e-06	9.239009e-10	2.214208e+01	6.339962e+01
2.580000e-06	3.215737e-06	9.303752e-10	2.240610e+01	6.392653e+01
2.590000e-06	3.253469e-06	9.375581e-10	2.266900e+01	6.444092e+01
2.600000e-06	3.291073e-06	9.447085e-10	2.293101e+01	6.494301e+01
2.610000e-06	3.328445e-06	9.505409e-10	2.319141e+01	6.543306e+01
2.620000e-06	3.365556e-06	9.566736e-10	2.344998e+01	6.591132e+01
2.630000e-06	3.402376e-06	9.654419e-10	2.370653e+01	6.637803e+01
2.640000e-06	3.438824e-06	9.746900e-10	2.396049e+01	6.683345e+01
2.650000e-06	3.474996e-06	9.839052e-10	2.421252e+01	6.727782e+01
2.660000e-06	3.511016e-06	9.932493e-10	2.446350e+01	6.771140e+01
2.670000e-06	3.546956e-06	9.983501e-10	2.471391e+01	6.813445e+01
2.680000e-06	3.582803e-06	1.000141e-09	2.496368e+01	6.854722e+01
2.690000e-06	3.618504e-06	1.001030e-09	2.521243e+01	6.894996e+01
2.700000e-06	3.653996e-06	1.001918e-09	2.545973e+01	6.934293e+01
2.710000e-06	3.689313e-06	1.006522e-09	2.570581e+01	6.972638e+01
2.720000e-06	3.724416e-06	1.016262e-09	2.595039e+01	7.010058e+01
2.730000e-06	3.759103e-06	1.026014e-09	2.619207e+01	7.046576e+01
2.740000e-06	3.793420e-06	1.033603e-09	2.643118e+01	7.082220e+01
2.750000e-06	3.827276e-06	1.039785e-09	2.666708e+01	7.117012e+01
2.760000e-06	3.860559e-06	1.043970e-09	2.689898e+01	7.150978e+01
2.770000e-06	3.893485e-06	1.045863e-09	2.712840e+01	7.184143e+01
2.780000e-06	3.926035e-06	1.047240e-09	2.735519e+01	7.216529e+01
2.790000e-06	3.958201e-06	1.052108e-09	2.757932e+01	7.248159e+01
2.800000e-06	3.990173e-06	1.058766e-09	2.780209e+01	7.279057e+01
2.810000e-06	4.022017e-06	1.065049e-09	2.802396e+01	7.309245e+01
2.820000e-06	4.053728e-06	1.072480e-09	2.824491e+01	7.338742e+01
2.830000e-06	4.085270e-06	1.078900e-09	2.846469e+01	7.367569e+01
2.840000e-06	4.116512e-06	1.082857e-09	2.868237e+01	7.395745e+01
2.850000e-06	4.147477e-06	1.084716e-09	2.889813e+01	7.423288e+01
2.860000e-06	4.178175e-06	1.087038e-09	2.911202e+01	7.450214e+01
2.870000e-06	4.208473e-06	1.089815e-09	2.932312e+01	7.476540e+01
2.880000e-06	4.238392e-06	1.091441e-09	2.953159e+01	7.502279e+01
2.890000e-06	4.267982e-06	1.092202e-09	2.973776e+01	7.527445e+01
2.900000e-06	4.297396e-06	1.092643e-09	2.994271e+01	7.552048e+01
2.910000e-06	4.326736e-06	1.094958e-09	3.014714e+01	7.576099e+01
