# Temperatura_=_-1.2
# Concentracion g/m^3_=_1620.0
# C_Vs_to_Am_M_A/Vsm_=_65563218390.804596
# pendiente_HvsI_1/m_=_3716.3
# ordenada_HvsI_A/m_=_1297.0
# frecuencia_Hz_=_135099.27020038565

Tiempo_(s)	Campo_(V.s)	Magnetizacion_(V.s)	Campo_(kA/m)	Magnetizacion_(A/m)
0.000000e+00	-5.528957e-06	-1.223060e-09	-3.837009e+01	-8.070801e+01
1.000000e-08	-5.529203e-06	-1.221471e-09	-3.837180e+01	-8.069133e+01
2.000000e-08	-5.529211e-06	-1.221393e-09	-3.837186e+01	-8.067038e+01
3.000000e-08	-5.528849e-06	-1.222588e-09	-3.836934e+01	-8.064494e+01
4.000000e-08	-5.527948e-06	-1.222319e-09	-3.836309e+01	-8.061480e+01
5.000000e-08	-5.526404e-06	-1.220957e-09	-3.835238e+01	-8.057978e+01
6.000000e-08	-5.524213e-06	-1.217834e-09	-3.833717e+01	-8.053969e+01
7.000000e-08	-5.521441e-06	-1.222038e-09	-3.831793e+01	-8.049435e+01
8.000000e-08	-5.518225e-06	-1.219883e-09	-3.829561e+01	-8.044363e+01
9.000000e-08	-5.514642e-06	-1.197143e-09	-3.827075e+01	-8.038739e+01
1.000000e-07	-5.510731e-06	-1.206174e-09	-3.824361e+01	-8.032552e+01
1.100000e-07	-5.506409e-06	-1.278394e-09	-3.821361e+01	-8.025794e+01
1.200000e-07	-5.501717e-06	-1.206563e-09	-3.818105e+01	-8.018458e+01
1.300000e-07	-5.496858e-06	-1.187981e-09	-3.814733e+01	-8.010540e+01
1.400000e-07	-5.491690e-06	-1.175968e-09	-3.811146e+01	-8.002038e+01
1.500000e-07	-5.486141e-06	-1.263939e-09	-3.807296e+01	-7.992954e+01
1.600000e-07	-5.480204e-06	-1.239023e-09	-3.803175e+01	-7.983291e+01
1.700000e-07	-5.473936e-06	-1.174478e-09	-3.798825e+01	-7.973055e+01
1.800000e-07	-5.467235e-06	-1.197457e-09	-3.794175e+01	-7.962255e+01
1.900000e-07	-5.460008e-06	-1.222913e-09	-3.789159e+01	-7.950902e+01
2.000000e-07	-5.452480e-06	-1.229411e-09	-3.783936e+01	-7.939009e+01
2.100000e-07	-5.444709e-06	-1.176415e-09	-3.778542e+01	-7.926592e+01
2.200000e-07	-5.436692e-06	-1.220044e-09	-3.772978e+01	-7.913669e+01
2.300000e-07	-5.428373e-06	-1.225709e-09	-3.767205e+01	-7.900260e+01
2.400000e-07	-5.419645e-06	-1.230196e-09	-3.761148e+01	-7.886387e+01
2.500000e-07	-5.410350e-06	-1.161526e-09	-3.754698e+01	-7.872073e+01
2.600000e-07	-5.400322e-06	-1.189540e-09	-3.747738e+01	-7.857345e+01
2.700000e-07	-5.389700e-06	-1.180689e-09	-3.740367e+01	-7.842227e+01
2.800000e-07	-5.378598e-06	-1.183392e-09	-3.732662e+01	-7.826749e+01
2.900000e-07	-5.366976e-06	-1.146872e-09	-3.724597e+01	-7.810937e+01
3.000000e-07	-5.354924e-06	-1.172830e-09	-3.716233e+01	-7.794821e+01
3.100000e-07	-5.342479e-06	-1.162294e-09	-3.707596e+01	-7.778432e+01
3.200000e-07	-5.329674e-06	-1.156595e-09	-3.698710e+01	-7.761797e+01
3.300000e-07	-5.316478e-06	-1.135452e-09	-3.689552e+01	-7.744946e+01
3.400000e-07	-5.302968e-06	-1.146553e-09	-3.680176e+01	-7.727908e+01
3.500000e-07	-5.289122e-06	-1.146518e-09	-3.670567e+01	-7.710712e+01
3.600000e-07	-5.274845e-06	-1.138142e-09	-3.660659e+01	-7.693384e+01
3.700000e-07	-5.260027e-06	-1.123113e-09	-3.650376e+01	-7.675952e+01
3.800000e-07	-5.244707e-06	-1.150734e-09	-3.639744e+01	-7.658439e+01
3.900000e-07	-5.228925e-06	-1.163917e-09	-3.628792e+01	-7.640869e+01
4.000000e-07	-5.212627e-06	-1.112504e-09	-3.617481e+01	-7.623263e+01
4.100000e-07	-5.195926e-06	-1.116727e-09	-3.605891e+01	-7.605641e+01
4.200000e-07	-5.178898e-06	-1.164197e-09	-3.594074e+01	-7.588021e+01
4.300000e-07	-5.161562e-06	-1.148837e-09	-3.582043e+01	-7.570417e+01
4.400000e-07	-5.143909e-06	-1.082658e-09	-3.569792e+01	-7.552841e+01
4.500000e-07	-5.125943e-06	-1.149217e-09	-3.557323e+01	-7.535306e+01
4.600000e-07	-5.107566e-06	-1.163581e-09	-3.544571e+01	-7.517817e+01
4.700000e-07	-5.088720e-06	-1.096676e-09	-3.531492e+01	-7.500380e+01
4.800000e-07	-5.069528e-06	-1.093860e-09	-3.518172e+01	-7.482998e+01
4.900000e-07	-5.050122e-06	-1.177924e-09	-3.504705e+01	-7.465669e+01
5.000000e-07	-5.030502e-06	-1.114357e-09	-3.491089e+01	-7.448393e+01
5.100000e-07	-5.010660e-06	-1.082981e-09	-3.477319e+01	-7.431162e+01
5.200000e-07	-4.990544e-06	-1.138466e-09	-3.463359e+01	-7.413969e+01
5.300000e-07	-4.970055e-06	-1.134468e-09	-3.449140e+01	-7.396804e+01
5.400000e-07	-4.949135e-06	-1.055700e-09	-3.434621e+01	-7.379654e+01
5.500000e-07	-4.927851e-06	-1.111111e-09	-3.419851e+01	-7.362505e+01
5.600000e-07	-4.906259e-06	-1.128929e-09	-3.404866e+01	-7.345339e+01
5.700000e-07	-4.884327e-06	-1.070580e-09	-3.389646e+01	-7.328139e+01
5.800000e-07	-4.862025e-06	-1.080862e-09	-3.374169e+01	-7.310883e+01
5.900000e-07	-4.839375e-06	-1.139503e-09	-3.358450e+01	-7.293550e+01
6.000000e-07	-4.816365e-06	-1.088822e-09	-3.342481e+01	-7.276117e+01
6.100000e-07	-4.793070e-06	-1.073342e-09	-3.326315e+01	-7.258561e+01
6.200000e-07	-4.769537e-06	-1.113932e-09	-3.309984e+01	-7.240856e+01
6.300000e-07	-4.745790e-06	-1.095491e-09	-3.293503e+01	-7.222977e+01
6.400000e-07	-4.721843e-06	-1.065725e-09	-3.276885e+01	-7.204898e+01
6.500000e-07	-4.697560e-06	-1.097479e-09	-3.260033e+01	-7.186594e+01
6.600000e-07	-4.672795e-06	-1.095685e-09	-3.242846e+01	-7.168039e+01
6.700000e-07	-4.647566e-06	-1.063892e-09	-3.225338e+01	-7.149207e+01
6.800000e-07	-4.621797e-06	-1.080686e-09	-3.207454e+01	-7.130074e+01
6.900000e-07	-4.595446e-06	-1.083671e-09	-3.189167e+01	-7.110616e+01
7.000000e-07	-4.568636e-06	-1.062063e-09	-3.170562e+01	-7.090810e+01
7.100000e-07	-4.541477e-06	-1.061703e-09	-3.151713e+01	-7.070633e+01
7.200000e-07	-4.514077e-06	-1.069575e-09	-3.132699e+01	-7.050064e+01
7.300000e-07	-4.486457e-06	-1.048989e-09	-3.113530e+01	-7.029086e+01
7.400000e-07	-4.458627e-06	-1.054375e-09	-3.094217e+01	-7.007679e+01
7.500000e-07	-4.430617e-06	-1.053050e-09	-3.074778e+01	-6.985828e+01
7.600000e-07	-4.402389e-06	-1.041821e-09	-3.055188e+01	-6.963519e+01
7.700000e-07	-4.373859e-06	-1.034010e-09	-3.035390e+01	-6.940739e+01
7.800000e-07	-4.344967e-06	-1.043280e-09	-3.015339e+01	-6.917477e+01
7.900000e-07	-4.315690e-06	-1.025354e-09	-2.995021e+01	-6.893725e+01
8.000000e-07	-4.286112e-06	-1.021233e-09	-2.974494e+01	-6.869477e+01
8.100000e-07	-4.256243e-06	-1.018629e-09	-2.953766e+01	-6.844727e+01
8.200000e-07	-4.226036e-06	-1.009998e-09	-2.932803e+01	-6.819473e+01
8.300000e-07	-4.195580e-06	-9.921472e-10	-2.911667e+01	-6.793713e+01
8.400000e-07	-4.164853e-06	-1.000307e-09	-2.890342e+01	-6.767448e+01
8.500000e-07	-4.133817e-06	-9.949185e-10	-2.868804e+01	-6.740681e+01
8.600000e-07	-4.102560e-06	-9.847471e-10	-2.847112e+01	-6.713415e+01
8.700000e-07	-4.071132e-06	-9.821397e-10	-2.825301e+01	-6.685657e+01
8.800000e-07	-4.039589e-06	-9.865588e-10	-2.803411e+01	-6.657412e+01
8.900000e-07	-4.007847e-06	-9.746588e-10	-2.781383e+01	-6.628689e+01
9.000000e-07	-3.975817e-06	-9.693703e-10	-2.759154e+01	-6.599496e+01
9.100000e-07	-3.943506e-06	-9.672932e-10	-2.736731e+01	-6.569844e+01
9.200000e-07	-3.910750e-06	-9.574113e-10	-2.713999e+01	-6.539743e+01
9.300000e-07	-3.877506e-06	-9.462805e-10	-2.690928e+01	-6.509204e+01
9.400000e-07	-3.843925e-06	-9.503138e-10	-2.667623e+01	-6.478239e+01
9.500000e-07	-3.809921e-06	-9.514337e-10	-2.644025e+01	-6.446860e+01
9.600000e-07	-3.775394e-06	-9.432857e-10	-2.620064e+01	-6.415078e+01
9.700000e-07	-3.740502e-06	-9.396361e-10	-2.595849e+01	-6.382905e+01
9.800000e-07	-3.705330e-06	-9.336680e-10	-2.571441e+01	-6.350352e+01
9.900000e-07	-3.669890e-06	-9.250412e-10	-2.546846e+01	-6.317430e+01
1.000000e-06	-3.634307e-06	-9.162410e-10	-2.522152e+01	-6.284150e+01
1.010000e-06	-3.598623e-06	-9.171784e-10	-2.497388e+01	-6.250521e+01
1.020000e-06	-3.562812e-06	-9.130923e-10	-2.472535e+01	-6.216552e+01
1.030000e-06	-3.526806e-06	-9.109694e-10	-2.447548e+01	-6.182251e+01
1.040000e-06	-3.490617e-06	-9.079187e-10	-2.422433e+01	-6.147624e+01
1.050000e-06	-3.454218e-06	-9.072063e-10	-2.397173e+01	-6.112677e+01
1.060000e-06	-3.417484e-06	-8.987124e-10	-2.371680e+01	-6.077415e+01
1.070000e-06	-3.380414e-06	-8.941324e-10	-2.345954e+01	-6.041840e+01
1.080000e-06	-3.343071e-06	-8.854646e-10	-2.320038e+01	-6.005955e+01
1.090000e-06	-3.305520e-06	-8.817309e-10	-2.293978e+01	-5.969759e+01
1.100000e-06	-3.267790e-06	-8.774376e-10	-2.267795e+01	-5.933251e+01
1.110000e-06	-3.229816e-06	-8.767099e-10	-2.241441e+01	-5.896429e+01
1.120000e-06	-3.191619e-06	-8.697714e-10	-2.214934e+01	-5.859289e+01
1.130000e-06	-3.153301e-06	-8.636486e-10	-2.188341e+01	-5.821827e+01
1.140000e-06	-3.114670e-06	-8.539266e-10	-2.161532e+01	-5.784034e+01
1.150000e-06	-3.075807e-06	-8.454368e-10	-2.134562e+01	-5.745903e+01
1.160000e-06	-3.036839e-06	-8.357148e-10	-2.107518e+01	-5.707425e+01
1.170000e-06	-2.997583e-06	-8.301506e-10	-2.080275e+01	-5.668590e+01
1.180000e-06	-2.958185e-06	-8.236049e-10	-2.052934e+01	-5.629385e+01
1.190000e-06	-2.918679e-06	-8.198624e-10	-2.025517e+01	-5.589799e+01
1.200000e-06	-2.878977e-06	-8.146170e-10	-1.997964e+01	-5.549816e+01
1.210000e-06	-2.839133e-06	-8.049430e-10	-1.970314e+01	-5.509423e+01
1.220000e-06	-2.799170e-06	-7.932058e-10	-1.942580e+01	-5.468604e+01
1.230000e-06	-2.759005e-06	-7.845082e-10	-1.914706e+01	-5.427342e+01
1.240000e-06	-2.718631e-06	-7.787883e-10	-1.886687e+01	-5.385619e+01
1.250000e-06	-2.678068e-06	-7.743224e-10	-1.858537e+01	-5.343419e+01
1.260000e-06	-2.637202e-06	-7.719451e-10	-1.830177e+01	-5.300723e+01
1.270000e-06	-2.596075e-06	-7.655976e-10	-1.801635e+01	-5.257510e+01
1.280000e-06	-2.554589e-06	-7.581914e-10	-1.772845e+01	-5.213763e+01
1.290000e-06	-2.512778e-06	-7.505338e-10	-1.743828e+01	-5.169460e+01
1.300000e-06	-2.470732e-06	-7.427916e-10	-1.714649e+01	-5.124581e+01
1.310000e-06	-2.428417e-06	-7.319890e-10	-1.685283e+01	-5.079105e+01
1.320000e-06	-2.385840e-06	-7.234442e-10	-1.655736e+01	-5.033011e+01
1.330000e-06	-2.342933e-06	-7.132595e-10	-1.625959e+01	-4.986277e+01
1.340000e-06	-2.299818e-06	-7.042522e-10	-1.596038e+01	-4.938882e+01
1.350000e-06	-2.256553e-06	-6.960284e-10	-1.566013e+01	-4.890802e+01
1.360000e-06	-2.213171e-06	-6.905700e-10	-1.535906e+01	-4.842016e+01
1.370000e-06	-2.169713e-06	-6.836677e-10	-1.505747e+01	-4.792500e+01
1.380000e-06	-2.126109e-06	-6.768916e-10	-1.475486e+01	-4.742232e+01
1.390000e-06	-2.082417e-06	-6.677533e-10	-1.445164e+01	-4.691186e+01
1.400000e-06	-2.038707e-06	-6.587314e-10	-1.414830e+01	-4.639340e+01
1.410000e-06	-1.994884e-06	-6.469257e-10	-1.384418e+01	-4.586669e+01
1.420000e-06	-1.950943e-06	-6.361283e-10	-1.353924e+01	-4.533147e+01
1.430000e-06	-1.906953e-06	-6.258586e-10	-1.323395e+01	-4.478750e+01
1.440000e-06	-1.862880e-06	-6.176805e-10	-1.292809e+01	-4.423451e+01
1.450000e-06	-1.818702e-06	-6.083798e-10	-1.262151e+01	-4.367224e+01
1.460000e-06	-1.774369e-06	-5.978318e-10	-1.231384e+01	-4.310042e+01
1.470000e-06	-1.729856e-06	-5.866611e-10	-1.200493e+01	-4.251877e+01
1.480000e-06	-1.685314e-06	-5.760132e-10	-1.169581e+01	-4.192702e+01
1.490000e-06	-1.640640e-06	-5.667590e-10	-1.138578e+01	-4.132486e+01
1.500000e-06	-1.595566e-06	-5.593496e-10	-1.107298e+01	-4.071202e+01
1.510000e-06	-1.550407e-06	-5.517200e-10	-1.075958e+01	-4.008819e+01
1.520000e-06	-1.505320e-06	-5.433349e-10	-1.044668e+01	-3.945306e+01
1.530000e-06	-1.460050e-06	-5.331851e-10	-1.013252e+01	-3.880634e+01
1.540000e-06	-1.414634e-06	-5.225867e-10	-9.817340e+00	-3.814770e+01
1.550000e-06	-1.369196e-06	-5.100814e-10	-9.502006e+00	-3.747684e+01
1.560000e-06	-1.323736e-06	-4.989638e-10	-9.186521e+00	-3.679344e+01
1.570000e-06	-1.278192e-06	-4.888067e-10	-8.870449e+00	-3.609717e+01
1.580000e-06	-1.232516e-06	-4.775814e-10	-8.553466e+00	-3.538771e+01
1.590000e-06	-1.186711e-06	-4.648558e-10	-8.235590e+00	-3.466476e+01
1.600000e-06	-1.140877e-06	-4.506247e-10	-7.917505e+00	-3.392799e+01
1.610000e-06	-1.094965e-06	-4.389816e-10	-7.598884e+00	-3.317710e+01
1.620000e-06	-1.049006e-06	-4.266986e-10	-7.279934e+00	-3.241178e+01
1.630000e-06	-1.002971e-06	-4.162203e-10	-6.960461e+00	-3.163173e+01
1.640000e-06	-9.568269e-07	-4.053191e-10	-6.640228e+00	-3.083666e+01
1.650000e-06	-9.106514e-07	-3.925718e-10	-6.319777e+00	-3.002632e+01
1.660000e-06	-8.643391e-07	-3.774865e-10	-5.998377e+00	-2.920043e+01
1.670000e-06	-8.178900e-07	-3.634240e-10	-5.676028e+00	-2.835875e+01
1.680000e-06	-7.713498e-07	-3.483742e-10	-5.353046e+00	-2.750108e+01
1.690000e-06	-7.247919e-07	-3.351772e-10	-5.029942e+00	-2.662719e+01
1.700000e-06	-6.782416e-07	-3.214834e-10	-4.706890e+00	-2.573692e+01
1.710000e-06	-6.316141e-07	-3.068742e-10	-4.383302e+00	-2.483013e+01
1.720000e-06	-5.849200e-07	-2.920874e-10	-4.059253e+00	-2.390669e+01
1.730000e-06	-5.381914e-07	-2.782903e-10	-3.734963e+00	-2.296652e+01
1.740000e-06	-4.914395e-07	-2.630223e-10	-3.410513e+00	-2.200957e+01
1.750000e-06	-4.446553e-07	-2.456910e-10	-3.085837e+00	-2.103582e+01
1.760000e-06	-3.978263e-07	-2.298045e-10	-2.760852e+00	-2.004530e+01
1.770000e-06	-3.509677e-07	-2.171153e-10	-2.435660e+00	-1.903807e+01
1.780000e-06	-3.040830e-07	-2.031130e-10	-2.110288e+00	-1.801424e+01
1.790000e-06	-2.572519e-07	-1.881392e-10	-1.785288e+00	-1.697397e+01
1.800000e-06	-2.104310e-07	-1.733455e-10	-1.460358e+00	-1.591744e+01
1.810000e-06	-1.635939e-07	-1.568646e-10	-1.135316e+00	-1.484492e+01
1.820000e-06	-1.166901e-07	-1.393281e-10	-8.098106e-01	-1.375669e+01
1.830000e-06	-6.967183e-08	-1.206809e-10	-4.835115e-01	-1.265310e+01
1.840000e-06	-2.270483e-08	-1.030822e-10	-1.575679e-01	-1.153454e+01
1.850000e-06	2.418507e-08	-8.751067e-11	1.678406e-01	-1.040145e+01
1.860000e-06	7.112874e-08	-7.297378e-11	4.936223e-01	-9.254328e+00
1.870000e-06	1.181135e-07	-5.577992e-11	8.196889e-01	-8.093717e+00
1.880000e-06	1.650845e-07	-3.792199e-11	1.145660e+00	-6.920207e+00
1.890000e-06	2.120358e-07	-2.240383e-11	1.471495e+00	-5.734436e+00
1.900000e-06	2.589254e-07	-7.918149e-12	1.796902e+00	-4.537089e+00
1.910000e-06	3.058329e-07	7.575868e-12	2.122432e+00	-3.328896e+00
1.920000e-06	3.527800e-07	2.569690e-11	2.448238e+00	-2.110629e+00
1.930000e-06	3.996227e-07	4.675785e-11	2.773319e+00	-8.831013e-01
1.940000e-06	4.463912e-07	6.541464e-11	3.097884e+00	3.528362e-01
1.950000e-06	4.931497e-07	8.303589e-11	3.422381e+00	1.596297e+00
1.960000e-06	5.398137e-07	1.002292e-10	3.746222e+00	2.846363e+00
1.970000e-06	5.864369e-07	1.168190e-10	4.069780e+00	4.102087e+00
1.980000e-06	6.330678e-07	1.332592e-10	4.393391e+00	5.362495e+00
1.990000e-06	6.796323e-07	1.490377e-10	4.716541e+00	6.626592e+00
2.000000e-06	7.261339e-07	1.642107e-10	5.039255e+00	7.893365e+00
2.010000e-06	7.726062e-07	1.820635e-10	5.361766e+00	9.161788e+00
2.020000e-06	8.190089e-07	2.005249e-10	5.683792e+00	1.043082e+01
2.030000e-06	8.653134e-07	2.210163e-10	6.005139e+00	1.169942e+01
2.040000e-06	9.115565e-07	2.429888e-10	6.326058e+00	1.296655e+01
2.050000e-06	9.576893e-07	2.614877e-10	6.646213e+00	1.423115e+01
2.060000e-06	1.003759e-06	2.782908e-10	6.965929e+00	1.549219e+01
2.070000e-06	1.049804e-06	2.945497e-10	7.285476e+00	1.674865e+01
2.080000e-06	1.095784e-06	3.104502e-10	7.604567e+00	1.799952e+01
2.090000e-06	1.141698e-06	3.263336e-10	7.923202e+00	1.924380e+01
2.100000e-06	1.187512e-06	3.441620e-10	8.241146e+00	2.048053e+01
2.110000e-06	1.233239e-06	3.632736e-10	8.558482e+00	2.170875e+01
2.120000e-06	1.278843e-06	3.816156e-10	8.874968e+00	2.292756e+01
2.130000e-06	1.324356e-06	3.972764e-10	9.190824e+00	2.413608e+01
2.140000e-06	1.369800e-06	4.102412e-10	9.506195e+00	2.533345e+01
2.150000e-06	1.415107e-06	4.220623e-10	9.820620e+00	2.651888e+01
2.160000e-06	1.460363e-06	4.342148e-10	1.013469e+01	2.769160e+01
2.170000e-06	1.505544e-06	4.474261e-10	1.044824e+01	2.885089e+01
2.180000e-06	1.550550e-06	4.634256e-10	1.076057e+01	2.999607e+01
2.190000e-06	1.595475e-06	4.820176e-10	1.107235e+01	3.112652e+01
2.200000e-06	1.640306e-06	5.002074e-10	1.138346e+01	3.224166e+01
2.210000e-06	1.685006e-06	5.147081e-10	1.169368e+01	3.334096e+01
2.220000e-06	1.729542e-06	5.269950e-10	1.200275e+01	3.442395e+01
2.230000e-06	1.773922e-06	5.386858e-10	1.231074e+01	3.549019e+01
2.240000e-06	1.818165e-06	5.514468e-10	1.261778e+01	3.653932e+01
2.250000e-06	1.862241e-06	5.655208e-10	1.292366e+01	3.757100e+01
2.260000e-06	1.906190e-06	5.803175e-10	1.322866e+01	3.858497e+01
2.270000e-06	1.950070e-06	5.953731e-10	1.353318e+01	3.958100e+01
2.280000e-06	1.993890e-06	6.089677e-10	1.383728e+01	4.055891e+01
2.290000e-06	2.037635e-06	6.203667e-10	1.414087e+01	4.151859e+01
2.300000e-06	2.081306e-06	6.311457e-10	1.444393e+01	4.245994e+01
2.310000e-06	2.124928e-06	6.413862e-10	1.474667e+01	4.338293e+01
2.320000e-06	2.168497e-06	6.534110e-10	1.504903e+01	4.428758e+01
2.330000e-06	2.211943e-06	6.674010e-10	1.535054e+01	4.517391e+01
2.340000e-06	2.255274e-06	6.807170e-10	1.565125e+01	4.604202e+01
2.350000e-06	2.298489e-06	6.919922e-10	1.595115e+01	4.689202e+01
2.360000e-06	2.341599e-06	7.014149e-10	1.625033e+01	4.772407e+01
2.370000e-06	2.384531e-06	7.104221e-10	1.654827e+01	4.853836e+01
2.380000e-06	2.427196e-06	7.199960e-10	1.684436e+01	4.933508e+01
2.390000e-06	2.469519e-06	7.323124e-10	1.713807e+01	5.011447e+01
2.400000e-06	2.511428e-06	7.452306e-10	1.742892e+01	5.087680e+01
2.410000e-06	2.553016e-06	7.584608e-10	1.771753e+01	5.162234e+01
2.420000e-06	2.594397e-06	7.704189e-10	1.800471e+01	5.235138e+01
2.430000e-06	2.635564e-06	7.802390e-10	1.829040e+01	5.306423e+01
2.440000e-06	2.676344e-06	7.884747e-10	1.857340e+01	5.376121e+01
2.450000e-06	2.716746e-06	7.955378e-10	1.885379e+01	5.444266e+01
2.460000e-06	2.756996e-06	8.029954e-10	1.913312e+01	5.510890e+01
2.470000e-06	2.797057e-06	8.114917e-10	1.941114e+01	5.576027e+01
2.480000e-06	2.836894e-06	8.199744e-10	1.968759e+01	5.639713e+01
2.490000e-06	2.876646e-06	8.280103e-10	1.996347e+01	5.701981e+01
2.500000e-06	2.916345e-06	8.358141e-10	2.023897e+01	5.762866e+01
2.510000e-06	2.955912e-06	8.442090e-10	2.051356e+01	5.822403e+01
2.520000e-06	2.995313e-06	8.543276e-10	2.078700e+01	5.880623e+01
2.530000e-06	3.034523e-06	8.650062e-10	2.105911e+01	5.937562e+01
2.540000e-06	3.073550e-06	8.752816e-10	2.132995e+01	5.993250e+01
2.550000e-06	3.112423e-06	8.842643e-10	2.159972e+01	6.047721e+01
2.560000e-06	3.150991e-06	8.893183e-10	2.186738e+01	6.101004e+01
2.570000e-06	3.189270e-06	8.936970e-10	2.213303e+01	6.153130e+01
2.580000e-06	3.227351e-06	9.017411e-10	2.239730e+01	6.204128e+01
2.590000e-06	3.265222e-06	9.120841e-10	2.266013e+01	6.254026e+01
2.600000e-06	3.302916e-06	9.208803e-10	2.292171e+01	6.302852e+01
2.610000e-06	3.340366e-06	9.288820e-10	2.318162e+01	6.350630e+01
2.620000e-06	3.377593e-06	9.367692e-10	2.343997e+01	6.397387e+01
2.630000e-06	3.414643e-06	9.438428e-10	2.369709e+01	6.443147e+01
2.640000e-06	3.451411e-06	9.489692e-10	2.395225e+01	6.487932e+01
2.650000e-06	3.487894e-06	9.533536e-10	2.420543e+01	6.531766e+01
2.660000e-06	3.524124e-06	9.614154e-10	2.445687e+01	6.574669e+01
2.670000e-06	3.560097e-06	9.698896e-10	2.470651e+01	6.616663e+01
2.680000e-06	3.595838e-06	9.767056e-10	2.495455e+01	6.657767e+01
2.690000e-06	3.631457e-06	9.819076e-10	2.520174e+01	6.698000e+01
2.700000e-06	3.667035e-06	9.846908e-10	2.544865e+01	6.737382e+01
2.710000e-06	3.702456e-06	9.874978e-10	2.569446e+01	6.775928e+01
2.720000e-06	3.737667e-06	9.919925e-10	2.593882e+01	6.813658e+01
2.730000e-06	3.772609e-06	9.980252e-10	2.618131e+01	6.850587e+01
2.740000e-06	3.807245e-06	1.003727e-09	2.642168e+01	6.886732e+01
2.750000e-06	3.841455e-06	1.007656e-09	2.665909e+01	6.922108e+01
2.760000e-06	3.875141e-06	1.011859e-09	2.689287e+01	6.956731e+01
2.770000e-06	3.908364e-06	1.014579e-09	2.712343e+01	6.990616e+01
2.780000e-06	3.941142e-06	1.016883e-09	2.735091e+01	7.023777e+01
2.790000e-06	3.973506e-06	1.021151e-09	2.757551e+01	7.056229e+01
2.800000e-06	4.005586e-06	1.024792e-09	2.779814e+01	7.087985e+01
2.810000e-06	4.037481e-06	1.027439e-09	2.801948e+01	7.119059e+01
2.820000e-06	4.069184e-06	1.032437e-09	2.823950e+01	7.149465e+01
2.830000e-06	4.100712e-06	1.038685e-09	2.845830e+01	7.179214e+01
2.840000e-06	4.132020e-06	1.044363e-09	2.867557e+01	7.208320e+01
2.850000e-06	4.163094e-06	1.047606e-09	2.889121e+01	7.236796e+01
2.860000e-06	4.193930e-06	1.050315e-09	2.910521e+01	7.264652e+01
2.870000e-06	4.224416e-06	1.054744e-09	2.931678e+01	7.291900e+01
2.880000e-06	4.254500e-06	1.057599e-09	2.952556e+01	7.318552e+01
2.890000e-06	4.284265e-06	1.058404e-09	2.973212e+01	7.344619e+01
2.900000e-06	4.313749e-06	1.060436e-09	2.993674e+01	7.370109e+01
