# Temperatura_=_-0.4
# Concentracion g/m^3_=_1620.0
# C_Vs_to_Am_M_A/Vsm_=_65563218390.804596
# pendiente_HvsI_1/m_=_3716.3
# ordenada_HvsI_A/m_=_1297.0
# frecuencia_Hz_=_135091.25124975838

Tiempo_(s)	Campo_(V.s)	Magnetizacion_(V.s)	Campo_(kA/m)	Magnetizacion_(A/m)
0.000000e+00	-5.533842e-06	-1.447053e-09	-3.838352e+01	-9.391871e+01
1.000000e-08	-5.533949e-06	-1.444946e-09	-3.838426e+01	-9.387944e+01
2.000000e-08	-5.533693e-06	-1.445881e-09	-3.838249e+01	-9.383692e+01
3.000000e-08	-5.532967e-06	-1.445312e-09	-3.837746e+01	-9.379108e+01
4.000000e-08	-5.531666e-06	-1.445610e-09	-3.836843e+01	-9.374190e+01
5.000000e-08	-5.529807e-06	-1.451642e-09	-3.835553e+01	-9.368933e+01
6.000000e-08	-5.527415e-06	-1.468182e-09	-3.833895e+01	-9.363333e+01
7.000000e-08	-5.524477e-06	-1.482566e-09	-3.831857e+01	-9.357388e+01
8.000000e-08	-5.521016e-06	-1.423834e-09	-3.829456e+01	-9.351096e+01
9.000000e-08	-5.517108e-06	-1.348930e-09	-3.826746e+01	-9.344453e+01
1.000000e-07	-5.512971e-06	-1.392436e-09	-3.823876e+01	-9.337459e+01
1.100000e-07	-5.508630e-06	-1.556096e-09	-3.820865e+01	-9.330113e+01
1.200000e-07	-5.503951e-06	-1.484849e-09	-3.817620e+01	-9.322414e+01
1.300000e-07	-5.498980e-06	-1.396776e-09	-3.814171e+01	-9.314364e+01
1.400000e-07	-5.493680e-06	-1.364444e-09	-3.810496e+01	-9.305962e+01
1.500000e-07	-5.487880e-06	-1.523663e-09	-3.806472e+01	-9.297212e+01
1.600000e-07	-5.481657e-06	-1.480549e-09	-3.802156e+01	-9.288114e+01
1.700000e-07	-5.475139e-06	-1.365140e-09	-3.797635e+01	-9.278672e+01
1.800000e-07	-5.468263e-06	-1.367389e-09	-3.792866e+01	-9.268890e+01
1.900000e-07	-5.461029e-06	-1.452867e-09	-3.787848e+01	-9.258772e+01
2.000000e-07	-5.453473e-06	-1.464003e-09	-3.782607e+01	-9.248322e+01
2.100000e-07	-5.445612e-06	-1.367210e-09	-3.777155e+01	-9.237546e+01
2.200000e-07	-5.437473e-06	-1.376373e-09	-3.771509e+01	-9.226450e+01
2.300000e-07	-5.428849e-06	-1.395070e-09	-3.765528e+01	-9.215039e+01
2.400000e-07	-5.419613e-06	-1.421618e-09	-3.759121e+01	-9.203321e+01
2.500000e-07	-5.409797e-06	-1.351498e-09	-3.752313e+01	-9.191302e+01
2.600000e-07	-5.399388e-06	-1.372849e-09	-3.745093e+01	-9.178989e+01
2.700000e-07	-5.388384e-06	-1.357159e-09	-3.737460e+01	-9.166389e+01
2.800000e-07	-5.376964e-06	-1.375732e-09	-3.729540e+01	-9.153510e+01
2.900000e-07	-5.365222e-06	-1.327521e-09	-3.721395e+01	-9.140359e+01
3.000000e-07	-5.353045e-06	-1.347558e-09	-3.712949e+01	-9.126944e+01
3.100000e-07	-5.340431e-06	-1.334298e-09	-3.704200e+01	-9.113271e+01
3.200000e-07	-5.327428e-06	-1.370330e-09	-3.695181e+01	-9.099348e+01
3.300000e-07	-5.314030e-06	-1.327599e-09	-3.685888e+01	-9.085181e+01
3.400000e-07	-5.300213e-06	-1.321871e-09	-3.676304e+01	-9.070777e+01
3.500000e-07	-5.285861e-06	-1.323225e-09	-3.666349e+01	-9.056142e+01
3.600000e-07	-5.271047e-06	-1.340591e-09	-3.656074e+01	-9.041282e+01
3.700000e-07	-5.255798e-06	-1.289406e-09	-3.645497e+01	-9.026202e+01
3.800000e-07	-5.240065e-06	-1.325059e-09	-3.634584e+01	-9.010905e+01
3.900000e-07	-5.223895e-06	-1.357213e-09	-3.623368e+01	-8.995397e+01
4.000000e-07	-5.207209e-06	-1.297470e-09	-3.611795e+01	-8.979681e+01
4.100000e-07	-5.190120e-06	-1.281644e-09	-3.599941e+01	-8.963759e+01
4.200000e-07	-5.172917e-06	-1.363063e-09	-3.588010e+01	-8.947633e+01
4.300000e-07	-5.155500e-06	-1.345088e-09	-3.575929e+01	-8.931305e+01
4.400000e-07	-5.137613e-06	-1.235868e-09	-3.563522e+01	-8.914775e+01
4.500000e-07	-5.119356e-06	-1.311380e-09	-3.550859e+01	-8.898043e+01
4.600000e-07	-5.100748e-06	-1.361908e-09	-3.537952e+01	-8.881108e+01
4.700000e-07	-5.081714e-06	-1.271573e-09	-3.524750e+01	-8.863969e+01
4.800000e-07	-5.062303e-06	-1.251132e-09	-3.511286e+01	-8.846624e+01
4.900000e-07	-5.042714e-06	-1.365108e-09	-3.497699e+01	-8.829069e+01
5.000000e-07	-5.022900e-06	-1.296738e-09	-3.483955e+01	-8.811301e+01
5.100000e-07	-5.002739e-06	-1.248770e-09	-3.469971e+01	-8.793316e+01
5.200000e-07	-4.982211e-06	-1.323780e-09	-3.455733e+01	-8.775110e+01
5.300000e-07	-4.961344e-06	-1.321690e-09	-3.441260e+01	-8.756677e+01
5.400000e-07	-4.940203e-06	-1.207677e-09	-3.426596e+01	-8.738011e+01
5.500000e-07	-4.918653e-06	-1.284269e-09	-3.411648e+01	-8.719107e+01
5.600000e-07	-4.896808e-06	-1.328315e-09	-3.396496e+01	-8.699959e+01
5.700000e-07	-4.874725e-06	-1.248819e-09	-3.381179e+01	-8.680559e+01
5.800000e-07	-4.852279e-06	-1.242631e-09	-3.365611e+01	-8.660901e+01
5.900000e-07	-4.829491e-06	-1.323947e-09	-3.349804e+01	-8.640978e+01
6.000000e-07	-4.806335e-06	-1.258014e-09	-3.333743e+01	-8.620782e+01
6.100000e-07	-4.782935e-06	-1.230616e-09	-3.317512e+01	-8.600308e+01
6.200000e-07	-4.759324e-06	-1.287419e-09	-3.301135e+01	-8.579546e+01
6.300000e-07	-4.735381e-06	-1.273265e-09	-3.284528e+01	-8.558490e+01
6.400000e-07	-4.711049e-06	-1.221045e-09	-3.267651e+01	-8.537134e+01
6.500000e-07	-4.686348e-06	-1.263411e-09	-3.250519e+01	-8.515469e+01
6.600000e-07	-4.661220e-06	-1.265591e-09	-3.233089e+01	-8.493490e+01
6.700000e-07	-4.635383e-06	-1.219037e-09	-3.215168e+01	-8.471189e+01
6.800000e-07	-4.609033e-06	-1.234401e-09	-3.196891e+01	-8.448560e+01
6.900000e-07	-4.582356e-06	-1.253282e-09	-3.178388e+01	-8.425598e+01
7.000000e-07	-4.555266e-06	-1.218391e-09	-3.159598e+01	-8.402296e+01
7.100000e-07	-4.527882e-06	-1.212766e-09	-3.140604e+01	-8.378648e+01
7.200000e-07	-4.500280e-06	-1.235469e-09	-3.121459e+01	-8.354650e+01
7.300000e-07	-4.472537e-06	-1.215200e-09	-3.102216e+01	-8.330296e+01
7.400000e-07	-4.444550e-06	-1.208474e-09	-3.082804e+01	-8.305582e+01
7.500000e-07	-4.416258e-06	-1.219819e-09	-3.063180e+01	-8.280503e+01
7.600000e-07	-4.387720e-06	-1.216069e-09	-3.043385e+01	-8.255054e+01
7.700000e-07	-4.358860e-06	-1.195349e-09	-3.023368e+01	-8.229232e+01
7.800000e-07	-4.329682e-06	-1.204810e-09	-3.003130e+01	-8.203033e+01
7.900000e-07	-4.300172e-06	-1.192445e-09	-2.982661e+01	-8.176453e+01
8.000000e-07	-4.270370e-06	-1.180413e-09	-2.961990e+01	-8.149488e+01
8.100000e-07	-4.240317e-06	-1.179315e-09	-2.941145e+01	-8.122135e+01
8.200000e-07	-4.209956e-06	-1.187728e-09	-2.920086e+01	-8.094391e+01
8.300000e-07	-4.179333e-06	-1.167138e-09	-2.898845e+01	-8.066251e+01
8.400000e-07	-4.148430e-06	-1.167209e-09	-2.877410e+01	-8.037713e+01
8.500000e-07	-4.117187e-06	-1.167518e-09	-2.855740e+01	-8.008772e+01
8.600000e-07	-4.085801e-06	-1.159530e-09	-2.833970e+01	-7.979425e+01
8.700000e-07	-4.054342e-06	-1.144740e-09	-2.812150e+01	-7.949668e+01
8.800000e-07	-4.022617e-06	-1.153812e-09	-2.790145e+01	-7.919497e+01
8.900000e-07	-3.990540e-06	-1.141899e-09	-2.767896e+01	-7.888907e+01
9.000000e-07	-3.958231e-06	-1.128536e-09	-2.745486e+01	-7.857894e+01
9.100000e-07	-3.925615e-06	-1.123809e-09	-2.722863e+01	-7.826453e+01
9.200000e-07	-3.892540e-06	-1.122960e-09	-2.699922e+01	-7.794579e+01
9.300000e-07	-3.859044e-06	-1.108867e-09	-2.676688e+01	-7.762266e+01
9.400000e-07	-3.825073e-06	-1.110749e-09	-2.653126e+01	-7.729509e+01
9.500000e-07	-3.790710e-06	-1.112867e-09	-2.629291e+01	-7.696301e+01
9.600000e-07	-3.756030e-06	-1.097717e-09	-2.605236e+01	-7.662636e+01
9.700000e-07	-3.720943e-06	-1.084585e-09	-2.580900e+01	-7.628506e+01
9.800000e-07	-3.685593e-06	-1.086083e-09	-2.556380e+01	-7.593905e+01
9.900000e-07	-3.650118e-06	-1.083485e-09	-2.531774e+01	-7.558826e+01
1.000000e-06	-3.614490e-06	-1.073963e-09	-2.507062e+01	-7.523259e+01
1.010000e-06	-3.578682e-06	-1.079914e-09	-2.482225e+01	-7.487199e+01
1.020000e-06	-3.542655e-06	-1.080919e-09	-2.457237e+01	-7.450635e+01
1.030000e-06	-3.506463e-06	-1.071065e-09	-2.432133e+01	-7.413561e+01
1.040000e-06	-3.470024e-06	-1.064549e-09	-2.406859e+01	-7.375966e+01
1.050000e-06	-3.433325e-06	-1.064973e-09	-2.381403e+01	-7.337844e+01
1.060000e-06	-3.396415e-06	-1.050764e-09	-2.355802e+01	-7.299184e+01
1.070000e-06	-3.359133e-06	-1.041999e-09	-2.329943e+01	-7.259978e+01
1.080000e-06	-3.321550e-06	-1.038220e-09	-2.303875e+01	-7.220218e+01
1.090000e-06	-3.283804e-06	-1.039628e-09	-2.277694e+01	-7.179894e+01
1.100000e-06	-3.245808e-06	-1.029952e-09	-2.251339e+01	-7.138999e+01
1.110000e-06	-3.207649e-06	-1.030818e-09	-2.224872e+01	-7.097524e+01
1.120000e-06	-3.169324e-06	-1.024356e-09	-2.198289e+01	-7.055459e+01
1.130000e-06	-3.130658e-06	-1.012905e-09	-2.171469e+01	-7.012799e+01
1.140000e-06	-3.091766e-06	-1.003588e-09	-2.144493e+01	-6.969534e+01
1.150000e-06	-3.052772e-06	-1.001935e-09	-2.117446e+01	-6.925657e+01
1.160000e-06	-3.013578e-06	-9.925070e-10	-2.090261e+01	-6.881160e+01
1.170000e-06	-2.974220e-06	-9.832687e-10	-2.062962e+01	-6.836037e+01
1.180000e-06	-2.934760e-06	-9.778759e-10	-2.035591e+01	-6.790280e+01
1.190000e-06	-2.895157e-06	-9.736178e-10	-2.008122e+01	-6.743883e+01
1.200000e-06	-2.855447e-06	-9.638279e-10	-1.980579e+01	-6.696839e+01
1.210000e-06	-2.815640e-06	-9.598442e-10	-1.952968e+01	-6.649142e+01
1.220000e-06	-2.775624e-06	-9.542477e-10	-1.925213e+01	-6.600785e+01
1.230000e-06	-2.735340e-06	-9.438572e-10	-1.897271e+01	-6.551762e+01
1.240000e-06	-2.694771e-06	-9.333896e-10	-1.869132e+01	-6.502068e+01
1.250000e-06	-2.653980e-06	-9.264827e-10	-1.840839e+01	-6.451694e+01
1.260000e-06	-2.612985e-06	-9.185301e-10	-1.812404e+01	-6.400636e+01
1.270000e-06	-2.571659e-06	-9.103114e-10	-1.783739e+01	-6.348885e+01
1.280000e-06	-2.529960e-06	-9.059609e-10	-1.754816e+01	-6.296434e+01
1.290000e-06	-2.487908e-06	-8.999014e-10	-1.725648e+01	-6.243275e+01
1.300000e-06	-2.445646e-06	-8.893240e-10	-1.696335e+01	-6.189401e+01
1.310000e-06	-2.403234e-06	-8.769249e-10	-1.666918e+01	-6.134801e+01
1.320000e-06	-2.360575e-06	-8.659813e-10	-1.637329e+01	-6.079465e+01
1.330000e-06	-2.317641e-06	-8.536668e-10	-1.607549e+01	-6.023383e+01
1.340000e-06	-2.274440e-06	-8.441482e-10	-1.577584e+01	-5.966541e+01
1.350000e-06	-2.231033e-06	-8.373283e-10	-1.547477e+01	-5.908926e+01
1.360000e-06	-2.187528e-06	-8.317716e-10	-1.517301e+01	-5.850523e+01
1.370000e-06	-2.143954e-06	-8.201891e-10	-1.487077e+01	-5.791316e+01
1.380000e-06	-2.100278e-06	-8.090253e-10	-1.456783e+01	-5.731285e+01
1.390000e-06	-2.056499e-06	-7.953388e-10	-1.426417e+01	-5.670412e+01
1.400000e-06	-2.012703e-06	-7.832003e-10	-1.396040e+01	-5.608674e+01
1.410000e-06	-1.968856e-06	-7.713983e-10	-1.365627e+01	-5.546048e+01
1.420000e-06	-1.924880e-06	-7.641775e-10	-1.335124e+01	-5.482507e+01
1.430000e-06	-1.880817e-06	-7.564854e-10	-1.304562e+01	-5.418025e+01
1.440000e-06	-1.836567e-06	-7.474321e-10	-1.273870e+01	-5.352570e+01
1.450000e-06	-1.792156e-06	-7.356088e-10	-1.243065e+01	-5.286112e+01
1.460000e-06	-1.747613e-06	-7.236428e-10	-1.212170e+01	-5.218616e+01
1.470000e-06	-1.702958e-06	-7.113836e-10	-1.181196e+01	-5.150045e+01
1.480000e-06	-1.658213e-06	-7.006040e-10	-1.150160e+01	-5.080362e+01
1.490000e-06	-1.613294e-06	-6.899888e-10	-1.119004e+01	-5.009526e+01
1.500000e-06	-1.568144e-06	-6.805762e-10	-1.087687e+01	-4.937495e+01
1.510000e-06	-1.522872e-06	-6.712235e-10	-1.056286e+01	-4.864226e+01
1.520000e-06	-1.477503e-06	-6.603306e-10	-1.024818e+01	-4.789671e+01
1.530000e-06	-1.431996e-06	-6.473373e-10	-9.932533e+00	-4.713786e+01
1.540000e-06	-1.386529e-06	-6.359872e-10	-9.617163e+00	-4.636520e+01
1.550000e-06	-1.341016e-06	-6.228096e-10	-9.301480e+00	-4.557824e+01
1.560000e-06	-1.295316e-06	-6.094570e-10	-8.984499e+00	-4.477649e+01
1.570000e-06	-1.249576e-06	-5.966485e-10	-8.667237e+00	-4.395944e+01
1.580000e-06	-1.203781e-06	-5.827655e-10	-8.349595e+00	-4.312656e+01
1.590000e-06	-1.157840e-06	-5.687045e-10	-8.030945e+00	-4.227735e+01
1.600000e-06	-1.111829e-06	-5.572188e-10	-7.711807e+00	-4.141130e+01
1.610000e-06	-1.065676e-06	-5.424649e-10	-7.391684e+00	-4.052790e+01
1.620000e-06	-1.019458e-06	-5.231712e-10	-7.071107e+00	-3.962667e+01
1.630000e-06	-9.732702e-07	-5.060803e-10	-6.750742e+00	-3.870711e+01
1.640000e-06	-9.269523e-07	-4.928074e-10	-6.429474e+00	-3.776878e+01
1.650000e-06	-8.805710e-07	-4.806706e-10	-6.107767e+00	-3.681121e+01
1.660000e-06	-8.341690e-07	-4.663859e-10	-5.785916e+00	-3.583401e+01
1.670000e-06	-7.876353e-07	-4.515755e-10	-5.463152e+00	-3.483677e+01
1.680000e-06	-7.410488e-07	-4.358453e-10	-5.140021e+00	-3.381914e+01
1.690000e-06	-6.945208e-07	-4.210260e-10	-4.817296e+00	-3.278081e+01
1.700000e-06	-6.479350e-07	-4.049709e-10	-4.494170e+00	-3.172148e+01
1.710000e-06	-6.012822e-07	-3.885846e-10	-4.170580e+00	-3.064092e+01
1.720000e-06	-5.545937e-07	-3.725066e-10	-3.846742e+00	-2.953894e+01
1.730000e-06	-5.077691e-07	-3.581802e-10	-3.521959e+00	-2.841541e+01
1.740000e-06	-4.608649e-07	-3.408463e-10	-3.196625e+00	-2.727022e+01
1.750000e-06	-4.139668e-07	-3.238437e-10	-2.871333e+00	-2.610335e+01
1.760000e-06	-3.671807e-07	-3.082175e-10	-2.546818e+00	-2.491483e+01
1.770000e-06	-3.203113e-07	-2.924622e-10	-2.221725e+00	-2.370475e+01
1.780000e-06	-2.733009e-07	-2.723185e-10	-1.895654e+00	-2.247325e+01
1.790000e-06	-2.263688e-07	-2.541783e-10	-1.570127e+00	-2.122056e+01
1.800000e-06	-1.794503e-07	-2.384390e-10	-1.244693e+00	-1.994696e+01
1.810000e-06	-1.325550e-07	-2.193185e-10	-9.194206e-01	-1.865280e+01
1.820000e-06	-8.559937e-08	-2.014648e-10	-5.937295e-01	-1.733849e+01
1.830000e-06	-3.871985e-08	-1.827543e-10	-2.685664e-01	-1.600453e+01
1.840000e-06	8.096227e-09	-1.651994e-10	5.615660e-02	-1.465147e+01
1.850000e-06	5.503589e-08	-1.497509e-10	3.817369e-01	-1.327993e+01
1.860000e-06	1.020027e-07	-1.318663e-10	7.075051e-01	-1.189061e+01
1.870000e-06	1.490131e-07	-1.061637e-10	1.033576e+00	-1.048425e+01
1.880000e-06	1.959349e-07	-8.128323e-11	1.359033e+00	-9.061686e+00
1.890000e-06	2.428097e-07	-6.268951e-11	1.684163e+00	-7.623792e+00
1.900000e-06	2.897662e-07	-4.488877e-11	2.009860e+00	-6.171509e+00
1.910000e-06	3.366227e-07	-2.818801e-11	2.334864e+00	-4.705834e+00
1.920000e-06	3.834423e-07	-7.833081e-12	2.659611e+00	-3.227819e+00
1.930000e-06	4.303040e-07	1.563266e-11	2.984650e+00	-1.738562e+00
1.940000e-06	4.770788e-07	3.841836e-11	3.309087e+00	-2.392099e-01
1.950000e-06	5.237896e-07	6.035494e-11	3.633080e+00	1.269050e+00
1.960000e-06	5.704731e-07	7.961319e-11	3.956884e+00	2.784993e+00
1.970000e-06	6.171472e-07	9.811270e-11	4.280622e+00	4.307362e+00
1.980000e-06	6.638643e-07	1.168232e-10	4.604658e+00	5.834873e+00
1.990000e-06	7.104997e-07	1.345243e-10	4.928128e+00	7.366217e+00
2.000000e-06	7.569465e-07	1.550838e-10	5.250289e+00	8.900070e+00
2.010000e-06	8.033311e-07	1.751333e-10	5.572020e+00	1.043510e+01
2.020000e-06	8.496456e-07	1.995066e-10	5.893264e+00	1.196995e+01
2.030000e-06	8.959308e-07	2.265473e-10	6.214305e+00	1.350328e+01
2.040000e-06	9.422093e-07	2.500184e-10	6.535299e+00	1.503376e+01
2.050000e-06	9.883969e-07	2.687237e-10	6.855662e+00	1.656005e+01
2.060000e-06	1.034469e-06	2.834744e-10	7.175224e+00	1.808082e+01
2.070000e-06	1.080453e-06	3.005540e-10	7.494176e+00	1.959480e+01
2.080000e-06	1.126433e-06	3.215439e-10	7.813103e+00	2.110069e+01
2.090000e-06	1.172263e-06	3.454571e-10	8.130986e+00	2.259727e+01
2.100000e-06	1.217932e-06	3.687858e-10	8.447751e+00	2.408331e+01
2.110000e-06	1.263567e-06	3.894059e-10	8.764282e+00	2.555766e+01
2.120000e-06	1.309194e-06	4.088585e-10	9.080759e+00	2.701918e+01
2.130000e-06	1.354794e-06	4.272493e-10	9.397047e+00	2.846679e+01
2.140000e-06	1.400327e-06	4.436943e-10	9.712872e+00	2.989947e+01
2.150000e-06	1.445701e-06	4.599819e-10	1.002759e+01	3.131624e+01
2.160000e-06	1.490932e-06	4.789916e-10	1.034132e+01	3.271618e+01
2.170000e-06	1.536051e-06	5.016889e-10	1.065427e+01	3.409843e+01
2.180000e-06	1.581031e-06	5.248189e-10	1.096626e+01	3.546219e+01
2.190000e-06	1.625962e-06	5.479791e-10	1.127791e+01	3.680672e+01
2.200000e-06	1.670745e-06	5.670732e-10	1.158852e+01	3.813135e+01
2.210000e-06	1.715339e-06	5.806793e-10	1.189784e+01	3.943548e+01
2.220000e-06	1.759824e-06	5.911006e-10	1.220639e+01	4.071857e+01
2.230000e-06	1.804164e-06	6.056058e-10	1.251394e+01	4.198014e+01
2.240000e-06	1.848335e-06	6.249937e-10	1.282032e+01	4.321978e+01
2.250000e-06	1.892414e-06	6.466773e-10	1.312606e+01	4.443715e+01
2.260000e-06	1.936324e-06	6.681856e-10	1.343062e+01	4.563197e+01
2.270000e-06	1.980084e-06	6.861004e-10	1.373415e+01	4.680404e+01
2.280000e-06	2.023834e-06	7.016541e-10	1.403761e+01	4.795318e+01
2.290000e-06	2.067581e-06	7.155287e-10	1.434104e+01	4.907932e+01
2.300000e-06	2.111253e-06	7.269791e-10	1.464396e+01	5.018241e+01
2.310000e-06	2.154777e-06	7.372206e-10	1.494584e+01	5.126248e+01
2.320000e-06	2.198220e-06	7.505644e-10	1.524717e+01	5.231961e+01
2.330000e-06	2.241602e-06	7.671286e-10	1.554808e+01	5.335390e+01
2.340000e-06	2.284896e-06	7.839646e-10	1.584837e+01	5.436554e+01
2.350000e-06	2.328109e-06	8.005242e-10	1.614810e+01	5.535475e+01
2.360000e-06	2.371205e-06	8.173897e-10	1.644702e+01	5.632176e+01
2.370000e-06	2.414017e-06	8.308414e-10	1.674397e+01	5.726689e+01
2.380000e-06	2.456606e-06	8.406831e-10	1.703937e+01	5.819045e+01
2.390000e-06	2.498994e-06	8.494859e-10	1.733338e+01	5.909279e+01
2.400000e-06	2.540940e-06	8.582499e-10	1.762432e+01	5.997431e+01
2.410000e-06	2.582494e-06	8.685165e-10	1.791255e+01	6.083541e+01
2.420000e-06	2.623668e-06	8.817386e-10	1.819814e+01	6.167652e+01
2.430000e-06	2.664492e-06	8.958470e-10	1.848130e+01	6.249808e+01
2.440000e-06	2.705012e-06	9.080354e-10	1.876235e+01	6.330054e+01
2.450000e-06	2.745341e-06	9.189452e-10	1.904208e+01	6.408437e+01
2.460000e-06	2.785570e-06	9.294264e-10	1.932111e+01	6.485005e+01
2.470000e-06	2.825551e-06	9.376971e-10	1.959843e+01	6.559804e+01
2.480000e-06	2.865302e-06	9.451344e-10	1.987415e+01	6.632883e+01
2.490000e-06	2.904968e-06	9.537629e-10	2.014927e+01	6.704290e+01
2.500000e-06	2.944528e-06	9.651647e-10	2.042367e+01	6.774072e+01
2.510000e-06	2.983940e-06	9.787528e-10	2.069704e+01	6.842274e+01
2.520000e-06	3.023237e-06	9.906576e-10	2.096961e+01	6.908944e+01
2.530000e-06	3.062367e-06	9.994273e-10	2.124101e+01	6.974127e+01
2.540000e-06	3.101236e-06	1.006571e-09	2.151062e+01	7.037865e+01
2.550000e-06	3.139921e-06	1.013348e-09	2.177894e+01	7.100201e+01
2.560000e-06	3.178394e-06	1.019234e-09	2.204580e+01	7.161177e+01
2.570000e-06	3.216531e-06	1.026178e-09	2.231032e+01	7.220831e+01
2.580000e-06	3.254392e-06	1.037040e-09	2.257293e+01	7.279203e+01
2.590000e-06	3.292084e-06	1.048624e-09	2.283437e+01	7.336328e+01
2.600000e-06	3.329632e-06	1.057516e-09	2.309481e+01	7.392241e+01
2.610000e-06	3.367013e-06	1.064433e-09	2.335409e+01	7.446976e+01
2.620000e-06	3.404203e-06	1.070332e-09	2.361204e+01	7.500564e+01
2.630000e-06	3.441113e-06	1.075310e-09	2.386805e+01	7.553034e+01
2.640000e-06	3.477746e-06	1.080008e-09	2.412215e+01	7.604414e+01
2.650000e-06	3.514090e-06	1.087680e-09	2.437423e+01	7.654733e+01
2.660000e-06	3.550135e-06	1.098282e-09	2.462425e+01	7.704013e+01
2.670000e-06	3.585976e-06	1.109384e-09	2.487284e+01	7.752279e+01
2.680000e-06	3.621650e-06	1.118974e-09	2.512029e+01	7.799554e+01
2.690000e-06	3.657229e-06	1.125493e-09	2.536706e+01	7.845858e+01
2.700000e-06	3.692728e-06	1.129426e-09	2.561329e+01	7.891210e+01
2.710000e-06	3.728084e-06	1.134668e-09	2.585852e+01	7.935630e+01
2.720000e-06	3.763231e-06	1.141727e-09	2.610231e+01	7.979134e+01
2.730000e-06	3.797976e-06	1.147964e-09	2.634331e+01	8.021739e+01
2.740000e-06	3.832270e-06	1.154321e-09	2.658118e+01	8.063461e+01
2.750000e-06	3.866171e-06	1.162471e-09	2.681631e+01	8.104315e+01
2.760000e-06	3.899526e-06	1.168421e-09	2.704767e+01	8.144315e+01
2.770000e-06	3.932390e-06	1.171159e-09	2.727562e+01	8.183474e+01
2.780000e-06	3.964961e-06	1.175538e-09	2.750154e+01	8.221805e+01
2.790000e-06	3.997133e-06	1.180373e-09	2.772469e+01	8.259321e+01
2.800000e-06	4.029021e-06	1.185404e-09	2.794587e+01	8.296034e+01
2.810000e-06	4.060835e-06	1.190816e-09	2.816653e+01	8.331956e+01
2.820000e-06	4.092419e-06	1.196058e-09	2.838560e+01	8.367098e+01
2.830000e-06	4.123770e-06	1.202541e-09	2.860306e+01	8.401473e+01
2.840000e-06	4.154953e-06	1.208748e-09	2.881935e+01	8.435090e+01
2.850000e-06	4.185858e-06	1.214219e-09	2.903371e+01	8.467962e+01
2.860000e-06	4.216518e-06	1.218957e-09	2.924638e+01	8.500099e+01
2.870000e-06	4.246824e-06	1.222394e-09	2.945658e+01	8.531512e+01
2.880000e-06	4.276674e-06	1.225329e-09	2.966362e+01	8.562211e+01
2.890000e-06	4.306260e-06	1.227769e-09	2.986884e+01	8.592208e+01
2.900000e-06	4.335620e-06	1.231193e-09	3.007248e+01	8.621514e+01
