# Temperatura_=_8.9
# Concentracion g/m^3_=_1620.0
# C_Vs_to_Am_M_A/Vsm_=_65563218390.804596
# pendiente_HvsI_1/m_=_3716.3
# ordenada_HvsI_A/m_=_1297.0
# frecuencia_Hz_=_135106.5904623644

Tiempo_(s)	Campo_(V.s)	Magnetizacion_(V.s)	Campo_(kA/m)	Magnetizacion_(A/m)
0.000000e+00	-5.519599e-06	-1.233560e-09	-3.837617e+01	-8.182071e+01
1.000000e-08	-5.519717e-06	-1.233338e-09	-3.837699e+01	-8.180525e+01
2.000000e-08	-5.519614e-06	-1.233826e-09	-3.837628e+01	-8.179041e+01
3.000000e-08	-5.519125e-06	-1.235761e-09	-3.837287e+01	-8.177610e+01
4.000000e-08	-5.518122e-06	-1.236545e-09	-3.836590e+01	-8.176222e+01
5.000000e-08	-5.516557e-06	-1.234089e-09	-3.835502e+01	-8.174863e+01
6.000000e-08	-5.514344e-06	-1.228936e-09	-3.833964e+01	-8.173515e+01
7.000000e-08	-5.511473e-06	-1.214776e-09	-3.831967e+01	-8.172160e+01
8.000000e-08	-5.508063e-06	-1.206904e-09	-3.829596e+01	-8.170776e+01
9.000000e-08	-5.504235e-06	-1.248522e-09	-3.826935e+01	-8.169338e+01
1.000000e-07	-5.499949e-06	-1.288999e-09	-3.823955e+01	-8.167820e+01
1.100000e-07	-5.495310e-06	-1.213267e-09	-3.820730e+01	-8.166194e+01
1.200000e-07	-5.490592e-06	-1.183429e-09	-3.817449e+01	-8.164430e+01
1.300000e-07	-5.485643e-06	-1.213144e-09	-3.814009e+01	-8.162496e+01
1.400000e-07	-5.480252e-06	-1.277879e-09	-3.810260e+01	-8.160360e+01
1.500000e-07	-5.474496e-06	-1.234826e-09	-3.806258e+01	-8.157989e+01
1.600000e-07	-5.468483e-06	-1.164111e-09	-3.802078e+01	-8.155347e+01
1.700000e-07	-5.462058e-06	-1.201468e-09	-3.797610e+01	-8.152400e+01
1.800000e-07	-5.455008e-06	-1.218614e-09	-3.792709e+01	-8.149115e+01
1.900000e-07	-5.447560e-06	-1.213852e-09	-3.787530e+01	-8.145455e+01
2.000000e-07	-5.439973e-06	-1.174212e-09	-3.782255e+01	-8.141388e+01
2.100000e-07	-5.432216e-06	-1.244452e-09	-3.776862e+01	-8.136879e+01
2.200000e-07	-5.424167e-06	-1.272974e-09	-3.771266e+01	-8.131897e+01
2.300000e-07	-5.415777e-06	-1.256441e-09	-3.765432e+01	-8.126411e+01
2.400000e-07	-5.406942e-06	-1.200264e-09	-3.759290e+01	-8.120392e+01
2.500000e-07	-5.397325e-06	-1.227659e-09	-3.752603e+01	-8.113811e+01
2.600000e-07	-5.386916e-06	-1.242640e-09	-3.745367e+01	-8.106643e+01
2.700000e-07	-5.376015e-06	-1.243128e-09	-3.737787e+01	-8.098865e+01
2.800000e-07	-5.364667e-06	-1.218486e-09	-3.729897e+01	-8.090455e+01
2.900000e-07	-5.352934e-06	-1.231515e-09	-3.721739e+01	-8.081395e+01
3.000000e-07	-5.340851e-06	-1.244139e-09	-3.713339e+01	-8.071668e+01
3.100000e-07	-5.328311e-06	-1.226806e-09	-3.704620e+01	-8.061262e+01
3.200000e-07	-5.315309e-06	-1.202822e-09	-3.695580e+01	-8.050165e+01
3.300000e-07	-5.301958e-06	-1.204369e-09	-3.686297e+01	-8.038370e+01
3.400000e-07	-5.288273e-06	-1.229215e-09	-3.676783e+01	-8.025873e+01
3.500000e-07	-5.274161e-06	-1.208664e-09	-3.666971e+01	-8.012670e+01
3.600000e-07	-5.259529e-06	-1.204270e-09	-3.656798e+01	-7.998764e+01
3.700000e-07	-5.244516e-06	-1.225300e-09	-3.646359e+01	-7.984158e+01
3.800000e-07	-5.229073e-06	-1.226078e-09	-3.635622e+01	-7.968859e+01
3.900000e-07	-5.212955e-06	-1.167137e-09	-3.624417e+01	-7.952876e+01
4.000000e-07	-5.196256e-06	-1.190637e-09	-3.612806e+01	-7.936221e+01
4.100000e-07	-5.179231e-06	-1.229616e-09	-3.600969e+01	-7.918907e+01
4.200000e-07	-5.161984e-06	-1.194853e-09	-3.588978e+01	-7.900953e+01
4.300000e-07	-5.144481e-06	-1.152279e-09	-3.576808e+01	-7.882376e+01
4.400000e-07	-5.126744e-06	-1.221226e-09	-3.564476e+01	-7.863196e+01
4.500000e-07	-5.108622e-06	-1.210210e-09	-3.551876e+01	-7.843437e+01
4.600000e-07	-5.089967e-06	-1.145987e-09	-3.538907e+01	-7.823123e+01
4.700000e-07	-5.070852e-06	-1.165384e-09	-3.525616e+01	-7.802277e+01
4.800000e-07	-5.051471e-06	-1.215642e-09	-3.512141e+01	-7.780926e+01
4.900000e-07	-5.031866e-06	-1.151059e-09	-3.498510e+01	-7.759098e+01
5.000000e-07	-5.012059e-06	-1.148506e-09	-3.484739e+01	-7.736820e+01
5.100000e-07	-4.992075e-06	-1.199166e-09	-3.470845e+01	-7.714120e+01
5.200000e-07	-4.971782e-06	-1.167607e-09	-3.456736e+01	-7.691025e+01
5.300000e-07	-4.951002e-06	-1.120507e-09	-3.442288e+01	-7.667564e+01
5.400000e-07	-4.929753e-06	-1.175064e-09	-3.427514e+01	-7.643764e+01
5.500000e-07	-4.908236e-06	-1.167841e-09	-3.412554e+01	-7.619653e+01
5.600000e-07	-4.886509e-06	-1.114334e-09	-3.397448e+01	-7.595255e+01
5.700000e-07	-4.864427e-06	-1.143377e-09	-3.382095e+01	-7.570597e+01
5.800000e-07	-4.841960e-06	-1.170668e-09	-3.366474e+01	-7.545701e+01
5.900000e-07	-4.819086e-06	-1.119802e-09	-3.350571e+01	-7.520591e+01
6.000000e-07	-4.795856e-06	-1.120875e-09	-3.334420e+01	-7.495288e+01
6.100000e-07	-4.772426e-06	-1.153098e-09	-3.318129e+01	-7.469809e+01
6.200000e-07	-4.748715e-06	-1.119533e-09	-3.301643e+01	-7.444174e+01
6.300000e-07	-4.724733e-06	-1.107004e-09	-3.284970e+01	-7.418397e+01
6.400000e-07	-4.700526e-06	-1.132917e-09	-3.268139e+01	-7.392491e+01
6.500000e-07	-4.675937e-06	-1.117370e-09	-3.251043e+01	-7.366467e+01
6.600000e-07	-4.650920e-06	-1.091527e-09	-3.233650e+01	-7.340335e+01
6.700000e-07	-4.625429e-06	-1.113338e-09	-3.215927e+01	-7.314101e+01
6.800000e-07	-4.599245e-06	-1.103198e-09	-3.197721e+01	-7.287770e+01
6.900000e-07	-4.572404e-06	-1.083930e-09	-3.179059e+01	-7.261343e+01
7.000000e-07	-4.545257e-06	-1.093815e-09	-3.160186e+01	-7.234821e+01
7.100000e-07	-4.517921e-06	-1.100537e-09	-3.141179e+01	-7.208201e+01
7.200000e-07	-4.490343e-06	-1.078905e-09	-3.122005e+01	-7.181478e+01
7.300000e-07	-4.462576e-06	-1.085553e-09	-3.102700e+01	-7.154647e+01
7.400000e-07	-4.434638e-06	-1.078158e-09	-3.083275e+01	-7.127698e+01
7.500000e-07	-4.406479e-06	-1.057694e-09	-3.063697e+01	-7.100622e+01
7.600000e-07	-4.378063e-06	-1.055839e-09	-3.043940e+01	-7.073405e+01
7.700000e-07	-4.349303e-06	-1.068414e-09	-3.023944e+01	-7.046034e+01
7.800000e-07	-4.320117e-06	-1.051802e-09	-3.003652e+01	-7.018493e+01
7.900000e-07	-4.290574e-06	-1.051051e-09	-2.983112e+01	-6.990767e+01
8.000000e-07	-4.260763e-06	-1.056031e-09	-2.962385e+01	-6.962835e+01
8.100000e-07	-4.230753e-06	-1.038848e-09	-2.941520e+01	-6.934680e+01
8.200000e-07	-4.200436e-06	-1.017593e-09	-2.920441e+01	-6.906282e+01
8.300000e-07	-4.169784e-06	-1.021979e-09	-2.899130e+01	-6.877619e+01
8.400000e-07	-4.138872e-06	-1.017180e-09	-2.877638e+01	-6.848671e+01
8.500000e-07	-4.107675e-06	-1.007643e-09	-2.855947e+01	-6.819415e+01
8.600000e-07	-4.076245e-06	-1.011303e-09	-2.834095e+01	-6.789831e+01
8.700000e-07	-4.044643e-06	-1.009969e-09	-2.812123e+01	-6.759896e+01
8.800000e-07	-4.012875e-06	-9.913276e-10	-2.790036e+01	-6.729588e+01
8.900000e-07	-3.980949e-06	-9.821636e-10	-2.767838e+01	-6.698886e+01
9.000000e-07	-3.948838e-06	-9.794093e-10	-2.745512e+01	-6.667770e+01
9.100000e-07	-3.916394e-06	-9.666982e-10	-2.722955e+01	-6.636220e+01
9.200000e-07	-3.883485e-06	-9.598225e-10	-2.700075e+01	-6.604214e+01
9.300000e-07	-3.850134e-06	-9.647575e-10	-2.676886e+01	-6.571737e+01
9.400000e-07	-3.816401e-06	-9.610194e-10	-2.653433e+01	-6.538768e+01
9.500000e-07	-3.782192e-06	-9.469817e-10	-2.629648e+01	-6.505294e+01
9.600000e-07	-3.747498e-06	-9.433451e-10	-2.605527e+01	-6.471298e+01
9.700000e-07	-3.712429e-06	-9.355166e-10	-2.581144e+01	-6.436766e+01
9.800000e-07	-3.677084e-06	-9.255688e-10	-2.556570e+01	-6.401687e+01
9.900000e-07	-3.641527e-06	-9.211766e-10	-2.531848e+01	-6.366050e+01
1.000000e-06	-3.605804e-06	-9.262697e-10	-2.507011e+01	-6.329846e+01
1.010000e-06	-3.569961e-06	-9.219360e-10	-2.482090e+01	-6.293067e+01
1.020000e-06	-3.534046e-06	-9.179145e-10	-2.457119e+01	-6.255707e+01
1.030000e-06	-3.498023e-06	-9.109669e-10	-2.432074e+01	-6.217762e+01
1.040000e-06	-3.461720e-06	-9.022563e-10	-2.406833e+01	-6.179229e+01
1.050000e-06	-3.425103e-06	-8.922169e-10	-2.381375e+01	-6.140108e+01
1.060000e-06	-3.388203e-06	-8.883399e-10	-2.355719e+01	-6.100398e+01
1.070000e-06	-3.351022e-06	-8.800017e-10	-2.329869e+01	-6.060102e+01
1.080000e-06	-3.313644e-06	-8.729174e-10	-2.303881e+01	-6.019223e+01
1.090000e-06	-3.276006e-06	-8.678754e-10	-2.277712e+01	-5.977766e+01
1.100000e-06	-3.238086e-06	-8.645253e-10	-2.251347e+01	-5.935738e+01
1.110000e-06	-3.199965e-06	-8.573258e-10	-2.224843e+01	-5.893146e+01
1.120000e-06	-3.161662e-06	-8.532400e-10	-2.198212e+01	-5.849998e+01
1.130000e-06	-3.123194e-06	-8.475854e-10	-2.171466e+01	-5.806305e+01
1.140000e-06	-3.084508e-06	-8.396383e-10	-2.144569e+01	-5.762075e+01
1.150000e-06	-3.045533e-06	-8.318228e-10	-2.117471e+01	-5.717322e+01
1.160000e-06	-3.006320e-06	-8.264677e-10	-2.090207e+01	-5.672055e+01
1.170000e-06	-2.967020e-06	-8.191538e-10	-2.062883e+01	-5.626288e+01
1.180000e-06	-2.927599e-06	-8.119357e-10	-2.035475e+01	-5.580032e+01
1.190000e-06	-2.888020e-06	-8.043726e-10	-2.007957e+01	-5.533301e+01
1.200000e-06	-2.848284e-06	-7.959346e-10	-1.980329e+01	-5.486106e+01
1.210000e-06	-2.808349e-06	-7.869563e-10	-1.952564e+01	-5.438460e+01
1.220000e-06	-2.768261e-06	-7.809211e-10	-1.924691e+01	-5.390374e+01
1.230000e-06	-2.728060e-06	-7.761252e-10	-1.896741e+01	-5.341858e+01
1.240000e-06	-2.687681e-06	-7.671527e-10	-1.868667e+01	-5.292924e+01
1.250000e-06	-2.647069e-06	-7.605389e-10	-1.840430e+01	-5.243580e+01
1.260000e-06	-2.606274e-06	-7.527903e-10	-1.812067e+01	-5.193835e+01
1.270000e-06	-2.565174e-06	-7.470511e-10	-1.783491e+01	-5.143694e+01
1.280000e-06	-2.523716e-06	-7.383535e-10	-1.754666e+01	-5.093162e+01
1.290000e-06	-2.481950e-06	-7.313992e-10	-1.725628e+01	-5.042244e+01
1.300000e-06	-2.439913e-06	-7.234037e-10	-1.696401e+01	-4.990941e+01
1.310000e-06	-2.397691e-06	-7.159535e-10	-1.667045e+01	-4.939251e+01
1.320000e-06	-2.355198e-06	-7.069048e-10	-1.637501e+01	-4.887172e+01
1.330000e-06	-2.312331e-06	-6.975825e-10	-1.607697e+01	-4.834699e+01
1.340000e-06	-2.269177e-06	-6.878044e-10	-1.577693e+01	-4.781824e+01
1.350000e-06	-2.225856e-06	-6.797459e-10	-1.547573e+01	-4.728537e+01
1.360000e-06	-2.182383e-06	-6.712698e-10	-1.517348e+01	-4.674826e+01
1.370000e-06	-2.138754e-06	-6.624034e-10	-1.487013e+01	-4.620675e+01
1.380000e-06	-2.095032e-06	-6.548255e-10	-1.456615e+01	-4.566066e+01
1.390000e-06	-2.051277e-06	-6.491536e-10	-1.426194e+01	-4.510977e+01
1.400000e-06	-2.007467e-06	-6.405762e-10	-1.395733e+01	-4.455384e+01
1.410000e-06	-1.963578e-06	-6.308980e-10	-1.365219e+01	-4.399261e+01
1.420000e-06	-1.919610e-06	-6.202350e-10	-1.334649e+01	-4.342577e+01
1.430000e-06	-1.875552e-06	-6.094847e-10	-1.304017e+01	-4.285301e+01
1.440000e-06	-1.831410e-06	-5.968403e-10	-1.273326e+01	-4.227396e+01
1.450000e-06	-1.787261e-06	-5.848143e-10	-1.242630e+01	-4.168825e+01
1.460000e-06	-1.742950e-06	-5.734606e-10	-1.211822e+01	-4.109546e+01
1.470000e-06	-1.698467e-06	-5.648117e-10	-1.180895e+01	-4.049517e+01
1.480000e-06	-1.653887e-06	-5.587877e-10	-1.149900e+01	-3.988691e+01
1.490000e-06	-1.609157e-06	-5.513315e-10	-1.118800e+01	-3.927021e+01
1.500000e-06	-1.564283e-06	-5.427178e-10	-1.087600e+01	-3.864456e+01
1.510000e-06	-1.519271e-06	-5.317599e-10	-1.056305e+01	-3.800944e+01
1.520000e-06	-1.474155e-06	-5.200301e-10	-1.024937e+01	-3.736433e+01
1.530000e-06	-1.428937e-06	-5.081475e-10	-9.934983e+00	-3.670868e+01
1.540000e-06	-1.383614e-06	-4.960253e-10	-9.619870e+00	-3.604192e+01
1.550000e-06	-1.338188e-06	-4.842564e-10	-9.304031e+00	-3.536349e+01
1.560000e-06	-1.292602e-06	-4.742980e-10	-8.987085e+00	-3.467281e+01
1.570000e-06	-1.246920e-06	-4.635983e-10	-8.669470e+00	-3.396932e+01
1.580000e-06	-1.201249e-06	-4.509692e-10	-8.351934e+00	-3.325244e+01
1.590000e-06	-1.155545e-06	-4.377460e-10	-8.034171e+00	-3.252160e+01
1.600000e-06	-1.109779e-06	-4.247447e-10	-7.715971e+00	-3.177625e+01
1.610000e-06	-1.063910e-06	-4.096216e-10	-7.397055e+00	-3.101584e+01
1.620000e-06	-1.017901e-06	-3.950448e-10	-7.077168e+00	-3.023983e+01
1.630000e-06	-9.717385e-07	-3.804075e-10	-6.756216e+00	-2.944773e+01
1.640000e-06	-9.254927e-07	-3.687299e-10	-6.434682e+00	-2.863904e+01
1.650000e-06	-8.791994e-07	-3.577421e-10	-6.112818e+00	-2.781330e+01
1.660000e-06	-8.328424e-07	-3.458015e-10	-5.790512e+00	-2.697009e+01
1.670000e-06	-7.864084e-07	-3.311874e-10	-5.467669e+00	-2.610902e+01
1.680000e-06	-7.399774e-07	-3.160190e-10	-5.144848e+00	-2.522973e+01
1.690000e-06	-6.936556e-07	-3.010708e-10	-4.822786e+00	-2.433192e+01
1.700000e-06	-6.472758e-07	-2.874746e-10	-4.500321e+00	-2.341532e+01
1.710000e-06	-6.007126e-07	-2.746049e-10	-4.176581e+00	-2.247971e+01
1.720000e-06	-5.540936e-07	-2.627681e-10	-3.852452e+00	-2.152494e+01
1.730000e-06	-5.074553e-07	-2.518923e-10	-3.528189e+00	-2.055089e+01
1.740000e-06	-4.608293e-07	-2.409127e-10	-3.204013e+00	-1.955753e+01
1.750000e-06	-4.141970e-07	-2.274264e-10	-2.879792e+00	-1.854486e+01
1.760000e-06	-3.674084e-07	-2.115157e-10	-2.554484e+00	-1.751295e+01
1.770000e-06	-3.206053e-07	-1.937347e-10	-2.229076e+00	-1.646196e+01
1.780000e-06	-2.738422e-07	-1.761963e-10	-1.903945e+00	-1.539207e+01
1.790000e-06	-2.270312e-07	-1.608949e-10	-1.578482e+00	-1.430357e+01
1.800000e-06	-1.801860e-07	-1.463629e-10	-1.252781e+00	-1.319680e+01
1.810000e-06	-1.333125e-07	-1.331010e-10	-9.268831e-01	-1.207216e+01
1.820000e-06	-8.647988e-08	-1.189300e-10	-6.012695e-01	-1.093013e+01
1.830000e-06	-3.966281e-08	-1.027870e-10	-2.757640e-01	-9.771261e+00
1.840000e-06	7.237432e-09	-8.434627e-11	5.031977e-02	-8.596164e+00
1.850000e-06	5.411396e-08	-6.561206e-11	3.762386e-01	-7.405516e+00
1.860000e-06	1.009088e-07	-4.635610e-11	7.015894e-01	-6.200063e+00
1.870000e-06	1.477055e-07	-2.731928e-11	1.026953e+00	-4.980609e+00
1.880000e-06	1.944914e-07	-1.016920e-11	1.352242e+00	-3.748023e+00
1.890000e-06	2.412162e-07	4.469388e-12	1.677106e+00	-2.503226e+00
1.900000e-06	2.878770e-07	1.821544e-11	2.001525e+00	-1.247199e+00
1.910000e-06	3.345795e-07	3.269551e-11	2.326234e+00	1.903070e-02
1.920000e-06	3.813117e-07	5.048569e-11	2.651150e+00	1.294386e+00
1.930000e-06	4.280496e-07	7.122688e-11	2.976105e+00	2.577748e+00
1.940000e-06	4.747636e-07	9.323264e-11	3.300893e+00	3.867959e+00
1.950000e-06	5.213579e-07	1.135728e-10	3.624850e+00	5.163828e+00
1.960000e-06	5.678526e-07	1.324738e-10	3.948114e+00	6.464135e+00
1.970000e-06	6.143250e-07	1.508834e-10	4.271223e+00	7.767637e+00
1.980000e-06	6.607923e-07	1.673361e-10	4.594297e+00	9.073071e+00
1.990000e-06	7.071755e-07	1.800370e-10	4.916786e+00	1.037916e+01
2.000000e-06	7.534794e-07	1.955165e-10	5.238724e+00	1.168463e+01
2.010000e-06	7.997584e-07	2.133905e-10	5.560488e+00	1.298819e+01
2.020000e-06	8.460451e-07	2.320729e-10	5.882306e+00	1.428857e+01
2.030000e-06	8.923133e-07	2.542914e-10	6.203995e+00	1.558449e+01
2.040000e-06	9.384386e-07	2.768311e-10	6.524691e+00	1.687470e+01
2.050000e-06	9.844583e-07	2.972180e-10	6.844653e+00	1.815797e+01
2.060000e-06	1.030454e-06	3.149871e-10	7.164446e+00	1.943310e+01
2.070000e-06	1.076385e-06	3.309459e-10	7.483792e+00	2.069891e+01
2.080000e-06	1.122235e-06	3.449803e-10	7.802576e+00	2.195426e+01
2.090000e-06	1.168037e-06	3.617300e-10	8.121019e+00	2.319806e+01
2.100000e-06	1.213781e-06	3.826514e-10	8.439069e+00	2.442927e+01
2.110000e-06	1.259429e-06	4.051754e-10	8.756442e+00	2.564687e+01
2.120000e-06	1.304944e-06	4.254396e-10	9.072900e+00	2.684994e+01
2.130000e-06	1.350380e-06	4.430273e-10	9.388797e+00	2.803758e+01
2.140000e-06	1.395717e-06	4.582023e-10	9.704016e+00	2.920897e+01
2.150000e-06	1.440871e-06	4.709191e-10	1.001795e+01	3.036336e+01
2.160000e-06	1.485881e-06	4.837129e-10	1.033090e+01	3.150005e+01
2.170000e-06	1.530878e-06	4.985471e-10	1.064375e+01	3.261842e+01
2.180000e-06	1.575869e-06	5.145693e-10	1.095656e+01	3.371791e+01
2.190000e-06	1.620681e-06	5.316574e-10	1.126812e+01	3.479805e+01
2.200000e-06	1.665286e-06	5.480924e-10	1.157825e+01	3.585841e+01
2.210000e-06	1.709735e-06	5.624994e-10	1.188729e+01	3.689867e+01
2.220000e-06	1.754076e-06	5.742733e-10	1.219558e+01	3.791856e+01
2.230000e-06	1.798335e-06	5.870939e-10	1.250330e+01	3.891788e+01
2.240000e-06	1.842442e-06	6.014039e-10	1.280997e+01	3.989650e+01
2.250000e-06	1.886403e-06	6.158224e-10	1.311561e+01	4.085436e+01
2.260000e-06	1.930275e-06	6.312251e-10	1.342064e+01	4.179148e+01
2.270000e-06	1.974086e-06	6.462682e-10	1.372525e+01	4.270793e+01
2.280000e-06	2.017865e-06	6.593880e-10	1.402963e+01	4.360383e+01
2.290000e-06	2.061600e-06	6.705462e-10	1.433371e+01	4.447937e+01
2.300000e-06	2.105297e-06	6.787708e-10	1.463752e+01	4.533480e+01
2.310000e-06	2.148974e-06	6.868713e-10	1.494119e+01	4.617041e+01
2.320000e-06	2.192613e-06	6.980823e-10	1.524460e+01	4.698654e+01
2.330000e-06	2.236130e-06	7.108566e-10	1.554716e+01	4.778357e+01
2.340000e-06	2.279458e-06	7.232100e-10	1.584841e+01	4.856193e+01
2.350000e-06	2.322608e-06	7.330723e-10	1.614842e+01	4.932206e+01
2.360000e-06	2.365512e-06	7.427354e-10	1.644672e+01	5.006445e+01
2.370000e-06	2.408113e-06	7.519746e-10	1.674291e+01	5.078961e+01
2.380000e-06	2.450376e-06	7.610543e-10	1.703676e+01	5.149805e+01
2.390000e-06	2.492312e-06	7.702885e-10	1.732833e+01	5.219033e+01
2.400000e-06	2.533899e-06	7.804443e-10	1.761747e+01	5.286699e+01
2.410000e-06	2.575115e-06	7.925485e-10	1.790402e+01	5.352859e+01
2.420000e-06	2.616040e-06	8.027339e-10	1.818856e+01	5.417569e+01
2.430000e-06	2.656685e-06	8.105392e-10	1.847116e+01	5.480885e+01
2.440000e-06	2.697076e-06	8.165177e-10	1.875199e+01	5.542861e+01
2.450000e-06	2.737285e-06	8.230364e-10	1.903155e+01	5.603553e+01
2.460000e-06	2.777320e-06	8.317600e-10	1.930990e+01	5.663011e+01
2.470000e-06	2.817221e-06	8.393795e-10	1.958732e+01	5.721289e+01
2.480000e-06	2.857005e-06	8.458244e-10	1.986392e+01	5.778434e+01
2.490000e-06	2.896668e-06	8.529771e-10	2.013970e+01	5.834493e+01
2.500000e-06	2.936212e-06	8.624995e-10	2.041463e+01	5.889512e+01
2.510000e-06	2.975639e-06	8.714599e-10	2.068875e+01	5.943531e+01
2.520000e-06	3.014893e-06	8.803694e-10	2.096167e+01	5.996590e+01
2.530000e-06	3.053885e-06	8.894521e-10	2.123277e+01	6.048725e+01
2.540000e-06	3.092634e-06	8.975512e-10	2.150219e+01	6.099968e+01
2.550000e-06	3.131204e-06	9.030809e-10	2.177035e+01	6.150352e+01
2.560000e-06	3.169603e-06	9.077513e-10	2.203733e+01	6.199901e+01
2.570000e-06	3.207745e-06	9.150653e-10	2.230252e+01	6.248641e+01
2.580000e-06	3.245621e-06	9.236329e-10	2.256586e+01	6.296592e+01
2.590000e-06	3.283323e-06	9.323564e-10	2.282799e+01	6.343774e+01
2.600000e-06	3.320884e-06	9.418055e-10	2.308914e+01	6.390201e+01
2.610000e-06	3.358206e-06	9.496777e-10	2.334863e+01	6.435886e+01
2.620000e-06	3.395294e-06	9.546163e-10	2.360650e+01	6.480840e+01
2.630000e-06	3.432138e-06	9.559230e-10	2.386266e+01	6.525071e+01
2.640000e-06	3.468635e-06	9.581995e-10	2.411641e+01	6.568585e+01
2.650000e-06	3.504815e-06	9.658583e-10	2.436796e+01	6.611386e+01
2.660000e-06	3.540765e-06	9.765957e-10	2.461791e+01	6.653477e+01
2.670000e-06	3.576589e-06	9.874625e-10	2.486699e+01	6.694860e+01
2.680000e-06	3.612349e-06	9.954497e-10	2.511561e+01	6.735533e+01
2.690000e-06	3.648047e-06	9.991583e-10	2.536381e+01	6.775497e+01
2.700000e-06	3.683653e-06	1.000802e-09	2.561137e+01	6.814751e+01
2.710000e-06	3.719055e-06	1.003610e-09	2.585751e+01	6.853291e+01
2.720000e-06	3.754153e-06	1.007100e-09	2.610154e+01	6.891117e+01
2.730000e-06	3.788912e-06	1.012156e-09	2.634320e+01	6.928227e+01
2.740000e-06	3.823276e-06	1.018701e-09	2.658213e+01	6.964619e+01
2.750000e-06	3.857118e-06	1.025349e-09	2.681742e+01	7.000293e+01
2.760000e-06	3.890372e-06	1.032760e-09	2.704863e+01	7.035247e+01
2.770000e-06	3.923090e-06	1.038877e-09	2.727611e+01	7.069483e+01
2.780000e-06	3.955377e-06	1.042807e-09	2.750059e+01	7.103002e+01
2.790000e-06	3.987432e-06	1.045024e-09	2.772346e+01	7.135808e+01
2.800000e-06	4.019353e-06	1.045903e-09	2.794539e+01	7.167904e+01
2.810000e-06	4.051097e-06	1.048930e-09	2.816610e+01	7.199297e+01
2.820000e-06	4.082698e-06	1.054567e-09	2.838582e+01	7.229992e+01
2.830000e-06	4.114202e-06	1.061606e-09	2.860485e+01	7.259999e+01
2.840000e-06	4.145513e-06	1.067726e-09	2.882255e+01	7.289328e+01
2.850000e-06	4.176427e-06	1.072441e-09	2.903748e+01	7.317990e+01
2.860000e-06	4.206905e-06	1.076251e-09	2.924939e+01	7.345998e+01
2.870000e-06	4.237043e-06	1.079851e-09	2.945893e+01	7.373366e+01
2.880000e-06	4.266912e-06	1.082803e-09	2.966660e+01	7.400110e+01
2.890000e-06	4.296571e-06	1.084720e-09	2.987281e+01	7.426246e+01
2.900000e-06	4.326019e-06	1.086321e-09	3.007756e+01	7.451793e+01
2.910000e-06	4.355152e-06	1.089173e-09	3.028011e+01	7.476769e+01
