# Temperatura_=_-0.33
# Concentracion g/m^3_=_1620.0
# C_Vs_to_Am_M_A/Vsm_=_65563218390.804596
# pendiente_HvsI_1/m_=_3716.3
# ordenada_HvsI_A/m_=_1297.0
# frecuencia_Hz_=_135089.4172027463

Tiempo_(s)	Campo_(V.s)	Magnetizacion_(V.s)	Campo_(kA/m)	Magnetizacion_(A/m)
0.000000e+00	-5.505911e-06	-1.706632e-09	-3.837835e+01	-1.098106e+02
1.000000e-08	-5.506005e-06	-1.703076e-09	-3.837900e+01	-1.097444e+02
2.000000e-08	-5.505856e-06	-1.699987e-09	-3.837796e+01	-1.096750e+02
3.000000e-08	-5.505296e-06	-1.697913e-09	-3.837406e+01	-1.096027e+02
4.000000e-08	-5.504241e-06	-1.697679e-09	-3.836671e+01	-1.095274e+02
5.000000e-08	-5.502548e-06	-1.696535e-09	-3.835491e+01	-1.094494e+02
6.000000e-08	-5.500171e-06	-1.690088e-09	-3.833834e+01	-1.093687e+02
7.000000e-08	-5.497298e-06	-1.694759e-09	-3.831832e+01	-1.092855e+02
8.000000e-08	-5.493901e-06	-1.720114e-09	-3.829464e+01	-1.091997e+02
9.000000e-08	-5.489985e-06	-1.734825e-09	-3.826734e+01	-1.091115e+02
1.000000e-07	-5.485696e-06	-1.695012e-09	-3.823744e+01	-1.090210e+02
1.100000e-07	-5.481205e-06	-1.653616e-09	-3.820614e+01	-1.089281e+02
1.200000e-07	-5.476631e-06	-1.698101e-09	-3.817426e+01	-1.088329e+02
1.300000e-07	-5.471759e-06	-1.719284e-09	-3.814030e+01	-1.087356e+02
1.400000e-07	-5.466411e-06	-1.682880e-09	-3.810302e+01	-1.086360e+02
1.500000e-07	-5.460666e-06	-1.656604e-09	-3.806297e+01	-1.085341e+02
1.600000e-07	-5.454579e-06	-1.700307e-09	-3.802054e+01	-1.084301e+02
1.700000e-07	-5.447873e-06	-1.752554e-09	-3.797380e+01	-1.083239e+02
1.800000e-07	-5.440721e-06	-1.664784e-09	-3.792395e+01	-1.082153e+02
1.900000e-07	-5.433405e-06	-1.612320e-09	-3.787295e+01	-1.081045e+02
2.000000e-07	-5.425885e-06	-1.612699e-09	-3.782054e+01	-1.079913e+02
2.100000e-07	-5.418195e-06	-1.697465e-09	-3.776693e+01	-1.078757e+02
2.200000e-07	-5.410097e-06	-1.669649e-09	-3.771048e+01	-1.077576e+02
2.300000e-07	-5.401692e-06	-1.637550e-09	-3.765190e+01	-1.076370e+02
2.400000e-07	-5.392828e-06	-1.615669e-09	-3.759012e+01	-1.075137e+02
2.500000e-07	-5.382986e-06	-1.626486e-09	-3.752151e+01	-1.073876e+02
2.600000e-07	-5.372428e-06	-1.604860e-09	-3.744792e+01	-1.072586e+02
2.700000e-07	-5.361504e-06	-1.598302e-09	-3.737178e+01	-1.071267e+02
2.800000e-07	-5.350078e-06	-1.597160e-09	-3.729213e+01	-1.069917e+02
2.900000e-07	-5.338325e-06	-1.594216e-09	-3.721021e+01	-1.068534e+02
3.000000e-07	-5.326310e-06	-1.597566e-09	-3.712646e+01	-1.067118e+02
3.100000e-07	-5.313820e-06	-1.583013e-09	-3.703940e+01	-1.065667e+02
3.200000e-07	-5.300868e-06	-1.579410e-09	-3.694912e+01	-1.064180e+02
3.300000e-07	-5.287529e-06	-1.561203e-09	-3.685614e+01	-1.062656e+02
3.400000e-07	-5.273903e-06	-1.573875e-09	-3.676116e+01	-1.061093e+02
3.500000e-07	-5.259875e-06	-1.550430e-09	-3.666338e+01	-1.059491e+02
3.600000e-07	-5.245363e-06	-1.561233e-09	-3.656222e+01	-1.057848e+02
3.700000e-07	-5.230425e-06	-1.558830e-09	-3.645810e+01	-1.056162e+02
3.800000e-07	-5.214856e-06	-1.560816e-09	-3.634958e+01	-1.054434e+02
3.900000e-07	-5.198701e-06	-1.535408e-09	-3.623697e+01	-1.052661e+02
4.000000e-07	-5.182270e-06	-1.557963e-09	-3.612245e+01	-1.050843e+02
4.100000e-07	-5.165559e-06	-1.543403e-09	-3.600596e+01	-1.048980e+02
4.200000e-07	-5.148461e-06	-1.528415e-09	-3.588678e+01	-1.047070e+02
4.300000e-07	-5.131043e-06	-1.530896e-09	-3.576537e+01	-1.045113e+02
4.400000e-07	-5.113320e-06	-1.553487e-09	-3.564184e+01	-1.043108e+02
4.500000e-07	-5.095238e-06	-1.509118e-09	-3.551580e+01	-1.041055e+02
4.600000e-07	-5.076681e-06	-1.505181e-09	-3.538645e+01	-1.038954e+02
4.700000e-07	-5.057661e-06	-1.528922e-09	-3.525387e+01	-1.036804e+02
4.800000e-07	-5.038353e-06	-1.524861e-09	-3.511929e+01	-1.034606e+02
4.900000e-07	-5.018787e-06	-1.494807e-09	-3.498291e+01	-1.032359e+02
5.000000e-07	-4.999007e-06	-1.518158e-09	-3.484503e+01	-1.030064e+02
5.100000e-07	-4.979019e-06	-1.509012e-09	-3.470571e+01	-1.027721e+02
5.200000e-07	-4.958643e-06	-1.474741e-09	-3.456368e+01	-1.025331e+02
5.300000e-07	-4.937801e-06	-1.486552e-09	-3.441840e+01	-1.022893e+02
5.400000e-07	-4.916744e-06	-1.504704e-09	-3.427163e+01	-1.020409e+02
5.500000e-07	-4.895377e-06	-1.465119e-09	-3.412269e+01	-1.017878e+02
5.600000e-07	-4.873628e-06	-1.463450e-09	-3.397109e+01	-1.015303e+02
5.700000e-07	-4.851652e-06	-1.492661e-09	-3.381791e+01	-1.012683e+02
5.800000e-07	-4.829327e-06	-1.468895e-09	-3.366229e+01	-1.010019e+02
5.900000e-07	-4.806537e-06	-1.452254e-09	-3.350344e+01	-1.007313e+02
6.000000e-07	-4.783435e-06	-1.473880e-09	-3.334241e+01	-1.004564e+02
6.100000e-07	-4.760076e-06	-1.471922e-09	-3.317959e+01	-1.001775e+02
6.200000e-07	-4.736451e-06	-1.439763e-09	-3.301491e+01	-9.989455e+01
6.300000e-07	-4.712559e-06	-1.453679e-09	-3.284837e+01	-9.960766e+01
6.400000e-07	-4.688344e-06	-1.451440e-09	-3.267959e+01	-9.931692e+01
6.500000e-07	-4.663877e-06	-1.433445e-09	-3.250904e+01	-9.902240e+01
6.600000e-07	-4.639020e-06	-1.431034e-09	-3.233578e+01	-9.872417e+01
6.700000e-07	-4.613476e-06	-1.440503e-09	-3.215773e+01	-9.842230e+01
6.800000e-07	-4.587386e-06	-1.418862e-09	-3.197587e+01	-9.811683e+01
6.900000e-07	-4.560874e-06	-1.418436e-09	-3.179107e+01	-9.780782e+01
7.000000e-07	-4.533809e-06	-1.415837e-09	-3.160242e+01	-9.749529e+01
7.100000e-07	-4.506395e-06	-1.407836e-09	-3.141133e+01	-9.717926e+01
7.200000e-07	-4.478807e-06	-1.398254e-09	-3.121903e+01	-9.685975e+01
7.300000e-07	-4.451065e-06	-1.405608e-09	-3.102566e+01	-9.653674e+01
7.400000e-07	-4.423161e-06	-1.395533e-09	-3.083116e+01	-9.621022e+01
7.500000e-07	-4.395091e-06	-1.389298e-09	-3.063550e+01	-9.588015e+01
7.600000e-07	-4.366647e-06	-1.381223e-09	-3.043723e+01	-9.554649e+01
7.700000e-07	-4.337820e-06	-1.372384e-09	-3.023630e+01	-9.520916e+01
7.800000e-07	-4.308743e-06	-1.361676e-09	-3.003362e+01	-9.486809e+01
7.900000e-07	-4.279345e-06	-1.364228e-09	-2.982870e+01	-9.452319e+01
8.000000e-07	-4.249668e-06	-1.357430e-09	-2.962185e+01	-9.417434e+01
8.100000e-07	-4.219732e-06	-1.348062e-09	-2.941318e+01	-9.382144e+01
8.200000e-07	-4.189477e-06	-1.341247e-09	-2.920229e+01	-9.346433e+01
8.300000e-07	-4.158988e-06	-1.335064e-09	-2.898977e+01	-9.310288e+01
8.400000e-07	-4.128184e-06	-1.325909e-09	-2.877505e+01	-9.273694e+01
8.500000e-07	-4.097088e-06	-1.320345e-09	-2.855830e+01	-9.236632e+01
8.600000e-07	-4.065805e-06	-1.319382e-09	-2.834025e+01	-9.199086e+01
8.700000e-07	-4.034338e-06	-1.312784e-09	-2.812091e+01	-9.161037e+01
8.800000e-07	-4.002660e-06	-1.306799e-09	-2.790010e+01	-9.122466e+01
8.900000e-07	-3.970721e-06	-1.299649e-09	-2.767748e+01	-9.083355e+01
9.000000e-07	-3.938601e-06	-1.290786e-09	-2.745358e+01	-9.043683e+01
9.100000e-07	-3.906258e-06	-1.276408e-09	-2.722814e+01	-9.003432e+01
9.200000e-07	-3.873508e-06	-1.272575e-09	-2.699986e+01	-8.962581e+01
9.300000e-07	-3.840229e-06	-1.269220e-09	-2.676789e+01	-8.921113e+01
9.400000e-07	-3.806606e-06	-1.265838e-09	-2.653353e+01	-8.879007e+01
9.500000e-07	-3.772556e-06	-1.257665e-09	-2.629619e+01	-8.836247e+01
9.600000e-07	-3.738052e-06	-1.252299e-09	-2.605568e+01	-8.792815e+01
9.700000e-07	-3.703165e-06	-1.237487e-09	-2.581250e+01	-8.748695e+01
9.800000e-07	-3.667914e-06	-1.227107e-09	-2.556679e+01	-8.703873e+01
9.900000e-07	-3.632444e-06	-1.221155e-09	-2.531955e+01	-8.658334e+01
1.000000e-06	-3.596777e-06	-1.219457e-09	-2.507094e+01	-8.612068e+01
1.010000e-06	-3.560979e-06	-1.213010e-09	-2.482141e+01	-8.565064e+01
1.020000e-06	-3.525072e-06	-1.208430e-09	-2.457113e+01	-8.517313e+01
1.030000e-06	-3.489003e-06	-1.199498e-09	-2.431972e+01	-8.468808e+01
1.040000e-06	-3.452681e-06	-1.192177e-09	-2.406653e+01	-8.419545e+01
1.050000e-06	-3.416087e-06	-1.181110e-09	-2.381146e+01	-8.369521e+01
1.060000e-06	-3.379217e-06	-1.173955e-09	-2.355446e+01	-8.318735e+01
1.070000e-06	-3.342078e-06	-1.164840e-09	-2.329559e+01	-8.267188e+01
1.080000e-06	-3.304700e-06	-1.157086e-09	-2.303505e+01	-8.214883e+01
1.090000e-06	-3.267153e-06	-1.152337e-09	-2.277333e+01	-8.161826e+01
1.100000e-06	-3.229341e-06	-1.146914e-09	-2.250977e+01	-8.108024e+01
1.110000e-06	-3.191194e-06	-1.138175e-09	-2.224387e+01	-8.053486e+01
1.120000e-06	-3.152907e-06	-1.130224e-09	-2.197699e+01	-7.998221e+01
1.130000e-06	-3.114473e-06	-1.121903e-09	-2.170909e+01	-7.942244e+01
1.140000e-06	-3.075888e-06	-1.110641e-09	-2.144014e+01	-7.885568e+01
1.150000e-06	-3.037105e-06	-1.099319e-09	-2.116981e+01	-7.828207e+01
1.160000e-06	-2.998099e-06	-1.092121e-09	-2.089792e+01	-7.770178e+01
1.170000e-06	-2.958864e-06	-1.087740e-09	-2.062444e+01	-7.711498e+01
1.180000e-06	-2.919401e-06	-1.080573e-09	-2.034936e+01	-7.652186e+01
1.190000e-06	-2.879801e-06	-1.072607e-09	-2.007334e+01	-7.592259e+01
1.200000e-06	-2.840038e-06	-1.061777e-09	-1.979617e+01	-7.531735e+01
1.210000e-06	-2.800154e-06	-1.051100e-09	-1.951816e+01	-7.470634e+01
1.220000e-06	-2.760191e-06	-1.038171e-09	-1.923961e+01	-7.408972e+01
1.230000e-06	-2.720108e-06	-1.028024e-09	-1.896021e+01	-7.346768e+01
1.240000e-06	-2.679888e-06	-1.018934e-09	-1.867986e+01	-7.284036e+01
1.250000e-06	-2.639415e-06	-1.014017e-09	-1.839775e+01	-7.220793e+01
1.260000e-06	-2.598665e-06	-1.006728e-09	-1.811371e+01	-7.157051e+01
1.270000e-06	-2.557739e-06	-9.973437e-10	-1.782844e+01	-7.092821e+01
1.280000e-06	-2.516511e-06	-9.875535e-10	-1.754106e+01	-7.028113e+01
1.290000e-06	-2.474971e-06	-9.787267e-10	-1.725151e+01	-6.962934e+01
1.300000e-06	-2.433192e-06	-9.668167e-10	-1.696030e+01	-6.897286e+01
1.310000e-06	-2.391188e-06	-9.545649e-10	-1.666752e+01	-6.831172e+01
1.320000e-06	-2.348865e-06	-9.407565e-10	-1.637251e+01	-6.764589e+01
1.330000e-06	-2.306144e-06	-9.285973e-10	-1.607473e+01	-6.697530e+01
1.340000e-06	-2.263115e-06	-9.189765e-10	-1.577480e+01	-6.629986e+01
1.350000e-06	-2.219887e-06	-9.093603e-10	-1.547348e+01	-6.561943e+01
1.360000e-06	-2.176524e-06	-8.971425e-10	-1.517122e+01	-6.493384e+01
1.370000e-06	-2.133107e-06	-8.862434e-10	-1.486858e+01	-6.424288e+01
1.380000e-06	-2.089634e-06	-8.723598e-10	-1.456556e+01	-6.354627e+01
1.390000e-06	-2.046001e-06	-8.567734e-10	-1.426142e+01	-6.284373e+01
1.400000e-06	-2.002229e-06	-8.437575e-10	-1.395632e+01	-6.213489e+01
1.410000e-06	-1.958380e-06	-8.335949e-10	-1.365067e+01	-6.141937e+01
1.420000e-06	-1.914450e-06	-8.230706e-10	-1.334446e+01	-6.069674e+01
1.430000e-06	-1.870451e-06	-8.124160e-10	-1.303777e+01	-5.996651e+01
1.440000e-06	-1.826412e-06	-8.012507e-10	-1.273080e+01	-5.922818e+01
1.450000e-06	-1.782274e-06	-7.888533e-10	-1.242314e+01	-5.848118e+01
1.460000e-06	-1.737972e-06	-7.764660e-10	-1.211435e+01	-5.772493e+01
1.470000e-06	-1.693457e-06	-7.640935e-10	-1.180405e+01	-5.695878e+01
1.480000e-06	-1.648823e-06	-7.515165e-10	-1.149294e+01	-5.618208e+01
1.490000e-06	-1.604179e-06	-7.393544e-10	-1.118176e+01	-5.539414e+01
1.500000e-06	-1.559397e-06	-7.285776e-10	-1.086960e+01	-5.459422e+01
1.510000e-06	-1.514409e-06	-7.178601e-10	-1.055602e+01	-5.378160e+01
1.520000e-06	-1.469329e-06	-7.047934e-10	-1.024180e+01	-5.295550e+01
1.530000e-06	-1.424226e-06	-6.920437e-10	-9.927408e+00	-5.211514e+01
1.540000e-06	-1.379070e-06	-6.817638e-10	-9.612659e+00	-5.125974e+01
1.550000e-06	-1.333882e-06	-6.671902e-10	-9.297679e+00	-5.038850e+01
1.560000e-06	-1.288532e-06	-6.515746e-10	-8.981569e+00	-4.950062e+01
1.570000e-06	-1.242874e-06	-6.373920e-10	-8.663318e+00	-4.859530e+01
1.580000e-06	-1.197232e-06	-6.239262e-10	-8.345171e+00	-4.767176e+01
1.590000e-06	-1.151569e-06	-6.085358e-10	-8.026886e+00	-4.672922e+01
1.600000e-06	-1.105730e-06	-5.945774e-10	-7.707367e+00	-4.576693e+01
1.610000e-06	-1.059853e-06	-5.814350e-10	-7.387592e+00	-4.478415e+01
1.620000e-06	-1.013940e-06	-5.672682e-10	-7.067556e+00	-4.378017e+01
1.630000e-06	-9.679363e-07	-5.533445e-10	-6.746894e+00	-4.275432e+01
1.640000e-06	-9.218642e-07	-5.405754e-10	-6.425754e+00	-4.170598e+01
1.650000e-06	-8.757299e-07	-5.241995e-10	-6.104179e+00	-4.063455e+01
1.660000e-06	-8.295350e-07	-5.057970e-10	-5.782183e+00	-3.953948e+01
1.670000e-06	-7.833270e-07	-4.870347e-10	-5.460095e+00	-3.842030e+01
1.680000e-06	-7.370816e-07	-4.691843e-10	-5.137747e+00	-3.727657e+01
1.690000e-06	-6.908636e-07	-4.530917e-10	-4.815589e+00	-3.610791e+01
1.700000e-06	-6.445142e-07	-4.363754e-10	-4.492515e+00	-3.491402e+01
1.710000e-06	-5.980558e-07	-4.169437e-10	-4.168682e+00	-3.369467e+01
1.720000e-06	-5.515826e-07	-3.969120e-10	-3.844746e+00	-3.244968e+01
1.730000e-06	-5.050551e-07	-3.755965e-10	-3.520431e+00	-3.117896e+01
1.740000e-06	-4.585536e-07	-3.550519e-10	-3.196298e+00	-2.988250e+01
1.750000e-06	-4.119375e-07	-3.384776e-10	-2.871365e+00	-2.856035e+01
1.760000e-06	-3.653296e-07	-3.216145e-10	-2.546490e+00	-2.721266e+01
1.770000e-06	-3.187369e-07	-3.021273e-10	-2.221721e+00	-2.583966e+01
1.780000e-06	-2.719435e-07	-2.816749e-10	-1.895552e+00	-2.444164e+01
1.790000e-06	-2.251177e-07	-2.615529e-10	-1.569158e+00	-2.301899e+01
1.800000e-06	-1.783572e-07	-2.405548e-10	-1.243219e+00	-2.157218e+01
1.810000e-06	-1.316077e-07	-2.192423e-10	-9.173571e-01	-2.010176e+01
1.820000e-06	-8.486620e-08	-1.975840e-10	-5.915506e-01	-1.860835e+01
1.830000e-06	-3.810489e-08	-1.768830e-10	-2.656059e-01	-1.709268e+01
1.840000e-06	8.664252e-09	-1.560976e-10	6.039322e-02	-1.555552e+01
1.850000e-06	5.538188e-08	-1.353832e-10	3.860333e-01	-1.399773e+01
1.860000e-06	1.020953e-07	-1.138596e-10	7.116444e-01	-1.242024e+01
1.870000e-06	1.488401e-07	-9.003806e-11	1.037474e+00	-1.082405e+01
1.880000e-06	1.955909e-07	-6.669977e-11	1.363345e+00	-9.210227e+00
1.890000e-06	2.422635e-07	-4.548124e-11	1.688671e+00	-7.579895e+00
1.900000e-06	2.889560e-07	-2.487336e-11	2.014136e+00	-5.934235e+00
1.910000e-06	3.355771e-07	-5.012123e-12	2.339103e+00	-4.274482e+00
1.920000e-06	3.820255e-07	1.712726e-11	2.662867e+00	-2.601919e+00
1.930000e-06	4.284696e-07	4.182875e-11	2.986600e+00	-9.178718e-01
1.940000e-06	4.749347e-07	6.729009e-11	3.310480e+00	7.762977e-01
1.950000e-06	5.214562e-07	9.078685e-11	3.634754e+00	2.479193e+00
1.960000e-06	5.679752e-07	1.128087e-10	3.959009e+00	4.189393e+00
1.970000e-06	6.144326e-07	1.368100e-10	4.282835e+00	5.905452e+00
1.980000e-06	6.608001e-07	1.595986e-10	4.606034e+00	7.625912e+00
1.990000e-06	7.070902e-07	1.787071e-10	4.928695e+00	9.349302e+00
2.000000e-06	7.532412e-07	1.993783e-10	5.250385e+00	1.107415e+01
2.010000e-06	7.993006e-07	2.210002e-10	5.571437e+00	1.279898e+01
2.020000e-06	8.453340e-07	2.451765e-10	5.892308e+00	1.452232e+01
2.030000e-06	8.913169e-07	2.735661e-10	6.212826e+00	1.624273e+01
2.040000e-06	9.372500e-07	3.000584e-10	6.532998e+00	1.795876e+01
2.050000e-06	9.831435e-07	3.232691e-10	6.852894e+00	1.966900e+01
2.060000e-06	1.029072e-06	3.438719e-10	7.173031e+00	2.137206e+01
2.070000e-06	1.074887e-06	3.643296e-10	7.492379e+00	2.306660e+01
2.080000e-06	1.120537e-06	3.856542e-10	7.810583e+00	2.475128e+01
2.090000e-06	1.166169e-06	4.092978e-10	8.128655e+00	2.642484e+01
2.100000e-06	1.211799e-06	4.332610e-10	8.446711e+00	2.808604e+01
2.110000e-06	1.257365e-06	4.572032e-10	8.764325e+00	2.973371e+01
2.120000e-06	1.302805e-06	4.803913e-10	9.081059e+00	3.136671e+01
2.130000e-06	1.348128e-06	5.007221e-10	9.396977e+00	3.298396e+01
2.140000e-06	1.393330e-06	5.190868e-10	9.712052e+00	3.458445e+01
2.150000e-06	1.438410e-06	5.382825e-10	1.002628e+01	3.616723e+01
2.160000e-06	1.483373e-06	5.595337e-10	1.033969e+01	3.773140e+01
2.170000e-06	1.528229e-06	5.814189e-10	1.065235e+01	3.927614e+01
2.180000e-06	1.572987e-06	6.043164e-10	1.096433e+01	4.080067e+01
2.190000e-06	1.617592e-06	6.288004e-10	1.127525e+01	4.230430e+01
2.200000e-06	1.662059e-06	6.497920e-10	1.158520e+01	4.378639e+01
2.210000e-06	1.706457e-06	6.651282e-10	1.189467e+01	4.524640e+01
2.220000e-06	1.750714e-06	6.788785e-10	1.220316e+01	4.668381e+01
2.230000e-06	1.794828e-06	6.953866e-10	1.251065e+01	4.809820e+01
2.240000e-06	1.838826e-06	7.153658e-10	1.281733e+01	4.948921e+01
2.250000e-06	1.882671e-06	7.387506e-10	1.312295e+01	5.085653e+01
2.260000e-06	1.926433e-06	7.619794e-10	1.342799e+01	5.219993e+01
2.270000e-06	1.970143e-06	7.807618e-10	1.373266e+01	5.351924e+01
2.280000e-06	2.013846e-06	7.966911e-10	1.403729e+01	5.481434e+01
2.290000e-06	2.057545e-06	8.116228e-10	1.434189e+01	5.608518e+01
2.300000e-06	2.101180e-06	8.264207e-10	1.464604e+01	5.733176e+01
2.310000e-06	2.144743e-06	8.421620e-10	1.494970e+01	5.855413e+01
2.320000e-06	2.188207e-06	8.602611e-10	1.525266e+01	5.975238e+01
2.330000e-06	2.231534e-06	8.787361e-10	1.555466e+01	6.092668e+01
2.340000e-06	2.274688e-06	8.945143e-10	1.585546e+01	6.207721e+01
2.350000e-06	2.317635e-06	9.077545e-10	1.615482e+01	6.320422e+01
2.360000e-06	2.360314e-06	9.208786e-10	1.645231e+01	6.430797e+01
2.370000e-06	2.402748e-06	9.346880e-10	1.674809e+01	6.538878e+01
2.380000e-06	2.444865e-06	9.501238e-10	1.704167e+01	6.644698e+01
2.390000e-06	2.486637e-06	9.650501e-10	1.733283e+01	6.748295e+01
2.400000e-06	2.528080e-06	9.796178e-10	1.762171e+01	6.849707e+01
2.410000e-06	2.569098e-06	9.939111e-10	1.790762e+01	6.948976e+01
2.420000e-06	2.609815e-06	1.006073e-09	1.819143e+01	7.046145e+01
2.430000e-06	2.650365e-06	1.018603e-09	1.847408e+01	7.141260e+01
2.440000e-06	2.690787e-06	1.029998e-09	1.875583e+01	7.234366e+01
2.450000e-06	2.731038e-06	1.042181e-09	1.903640e+01	7.325510e+01
2.460000e-06	2.771077e-06	1.056946e-09	1.931549e+01	7.414740e+01
2.470000e-06	2.810963e-06	1.068965e-09	1.959351e+01	7.502103e+01
2.480000e-06	2.850725e-06	1.081813e-09	1.987066e+01	7.587649e+01
2.490000e-06	2.890332e-06	1.092750e-09	2.014674e+01	7.671424e+01
2.500000e-06	2.929808e-06	1.099967e-09	2.042190e+01	7.753476e+01
2.510000e-06	2.969141e-06	1.110385e-09	2.069607e+01	7.833852e+01
2.520000e-06	3.008279e-06	1.120460e-09	2.096888e+01	7.912597e+01
2.530000e-06	3.047236e-06	1.133857e-09	2.124043e+01	7.989758e+01
2.540000e-06	3.085925e-06	1.146968e-09	2.151010e+01	8.065377e+01
2.550000e-06	3.124324e-06	1.158159e-09	2.177776e+01	8.139497e+01
2.560000e-06	3.162582e-06	1.166065e-09	2.204443e+01	8.212159e+01
2.570000e-06	3.200662e-06	1.172430e-09	2.230987e+01	8.283404e+01
2.580000e-06	3.238463e-06	1.183760e-09	2.257335e+01	8.353268e+01
2.590000e-06	3.276120e-06	1.198377e-09	2.283584e+01	8.421789e+01
2.600000e-06	3.313519e-06	1.209764e-09	2.309652e+01	8.489001e+01
2.610000e-06	3.350580e-06	1.218033e-09	2.335485e+01	8.554936e+01
2.620000e-06	3.387434e-06	1.225979e-09	2.361174e+01	8.619625e+01
2.630000e-06	3.424048e-06	1.232857e-09	2.386695e+01	8.683099e+01
2.640000e-06	3.460383e-06	1.238918e-09	2.412022e+01	8.745383e+01
2.650000e-06	3.496491e-06	1.248086e-09	2.437191e+01	8.806504e+01
2.660000e-06	3.532442e-06	1.261751e-09	2.462250e+01	8.866486e+01
2.670000e-06	3.568251e-06	1.273838e-09	2.487210e+01	8.925352e+01
2.680000e-06	3.603982e-06	1.282905e-09	2.512116e+01	8.983120e+01
2.690000e-06	3.639583e-06	1.286313e-09	2.536931e+01	9.039812e+01
2.700000e-06	3.675020e-06	1.287280e-09	2.561633e+01	9.095444e+01
2.710000e-06	3.710236e-06	1.291614e-09	2.586179e+01	9.150033e+01
2.720000e-06	3.745087e-06	1.299232e-09	2.610472e+01	9.203594e+01
2.730000e-06	3.779541e-06	1.307848e-09	2.634488e+01	9.256141e+01
2.740000e-06	3.813622e-06	1.319098e-09	2.658243e+01	9.307687e+01
2.750000e-06	3.847187e-06	1.327840e-09	2.681639e+01	9.358243e+01
2.760000e-06	3.880243e-06	1.335649e-09	2.704681e+01	9.407820e+01
2.770000e-06	3.912851e-06	1.339009e-09	2.727410e+01	9.456430e+01
2.780000e-06	3.945087e-06	1.340206e-09	2.749880e+01	9.504082e+01
2.790000e-06	3.977082e-06	1.342986e-09	2.772181e+01	9.550784e+01
2.800000e-06	4.008904e-06	1.347302e-09	2.794363e+01	9.596546e+01
2.810000e-06	4.040619e-06	1.358820e-09	2.816469e+01	9.641376e+01
2.820000e-06	4.072211e-06	1.370441e-09	2.838490e+01	9.685282e+01
2.830000e-06	4.103611e-06	1.380728e-09	2.860377e+01	9.728273e+01
2.840000e-06	4.134683e-06	1.387296e-09	2.882036e+01	9.770356e+01
2.850000e-06	4.165317e-06	1.388030e-09	2.903388e+01	9.811541e+01
2.860000e-06	4.195650e-06	1.388415e-09	2.924532e+01	9.851835e+01
2.870000e-06	4.225746e-06	1.391854e-09	2.945510e+01	9.891246e+01
2.880000e-06	4.255504e-06	1.395758e-09	2.966252e+01	9.929784e+01
2.890000e-06	4.285008e-06	1.401749e-09	2.986818e+01	9.967458e+01
2.900000e-06	4.314275e-06	1.410540e-09	3.007218e+01	1.000428e+02
