# Temperatura_=_-0.4
# Concentracion g/m^3_=_1620.0
# C_Vs_to_Am_M_A/Vsm_=_65563218390.804596
# pendiente_HvsI_1/m_=_3716.3
# ordenada_HvsI_A/m_=_1297.0
# frecuencia_Hz_=_135086.87882962596

Tiempo_(s)	Campo_(V.s)	Magnetizacion_(V.s)	Campo_(kA/m)	Magnetizacion_(A/m)
0.000000e+00	-5.510793e-06	-1.701142e-09	-3.837708e+01	-1.102237e+02
1.000000e-08	-5.510901e-06	-1.697605e-09	-3.837783e+01	-1.101768e+02
2.000000e-08	-5.510709e-06	-1.694283e-09	-3.837649e+01	-1.101271e+02
3.000000e-08	-5.510060e-06	-1.693548e-09	-3.837197e+01	-1.100747e+02
4.000000e-08	-5.508804e-06	-1.695725e-09	-3.836323e+01	-1.100196e+02
5.000000e-08	-5.507091e-06	-1.706516e-09	-3.835130e+01	-1.099618e+02
6.000000e-08	-5.504885e-06	-1.734232e-09	-3.833594e+01	-1.099014e+02
7.000000e-08	-5.502148e-06	-1.732573e-09	-3.831688e+01	-1.098383e+02
8.000000e-08	-5.498886e-06	-1.647818e-09	-3.829416e+01	-1.097727e+02
9.000000e-08	-5.495161e-06	-1.608501e-09	-3.826822e+01	-1.097045e+02
1.000000e-07	-5.491045e-06	-1.741483e-09	-3.823955e+01	-1.096338e+02
1.100000e-07	-5.486614e-06	-1.811571e-09	-3.820870e+01	-1.095605e+02
1.200000e-07	-5.481968e-06	-1.683529e-09	-3.817634e+01	-1.094846e+02
1.300000e-07	-5.477141e-06	-1.595528e-09	-3.814272e+01	-1.094062e+02
1.400000e-07	-5.471978e-06	-1.701279e-09	-3.810677e+01	-1.093252e+02
1.500000e-07	-5.466226e-06	-1.806816e-09	-3.806671e+01	-1.092416e+02
1.600000e-07	-5.460102e-06	-1.691263e-09	-3.802407e+01	-1.091554e+02
1.700000e-07	-5.453712e-06	-1.590186e-09	-3.797957e+01	-1.090665e+02
1.800000e-07	-5.446829e-06	-1.662103e-09	-3.793163e+01	-1.089749e+02
1.900000e-07	-5.439505e-06	-1.724529e-09	-3.788063e+01	-1.088806e+02
2.000000e-07	-5.431985e-06	-1.663975e-09	-3.782826e+01	-1.087835e+02
2.100000e-07	-5.424271e-06	-1.591644e-09	-3.777454e+01	-1.086836e+02
2.200000e-07	-5.416262e-06	-1.626661e-09	-3.771877e+01	-1.085808e+02
2.300000e-07	-5.407850e-06	-1.663852e-09	-3.766018e+01	-1.084751e+02
2.400000e-07	-5.398960e-06	-1.637977e-09	-3.759828e+01	-1.083663e+02
2.500000e-07	-5.389512e-06	-1.600220e-09	-3.753248e+01	-1.082544e+02
2.600000e-07	-5.379275e-06	-1.609747e-09	-3.746119e+01	-1.081393e+02
2.700000e-07	-5.368377e-06	-1.628430e-09	-3.738530e+01	-1.080209e+02
2.800000e-07	-5.357208e-06	-1.631620e-09	-3.730752e+01	-1.078991e+02
2.900000e-07	-5.345691e-06	-1.599814e-09	-3.722731e+01	-1.077739e+02
3.000000e-07	-5.333646e-06	-1.581110e-09	-3.714343e+01	-1.076452e+02
3.100000e-07	-5.321216e-06	-1.609301e-09	-3.705687e+01	-1.075127e+02
3.200000e-07	-5.308483e-06	-1.622422e-09	-3.696820e+01	-1.073765e+02
3.300000e-07	-5.295251e-06	-1.569156e-09	-3.687605e+01	-1.072364e+02
3.400000e-07	-5.281542e-06	-1.557906e-09	-3.678058e+01	-1.070924e+02
3.500000e-07	-5.267551e-06	-1.612800e-09	-3.668314e+01	-1.069442e+02
3.600000e-07	-5.253159e-06	-1.590721e-09	-3.658292e+01	-1.067918e+02
3.700000e-07	-5.238262e-06	-1.547444e-09	-3.647918e+01	-1.066351e+02
3.800000e-07	-5.222881e-06	-1.598178e-09	-3.637206e+01	-1.064740e+02
3.900000e-07	-5.206910e-06	-1.598476e-09	-3.626085e+01	-1.063083e+02
4.000000e-07	-5.190332e-06	-1.507679e-09	-3.614539e+01	-1.061380e+02
4.100000e-07	-5.173534e-06	-1.549447e-09	-3.602841e+01	-1.059629e+02
4.200000e-07	-5.156521e-06	-1.631160e-09	-3.590993e+01	-1.057830e+02
4.300000e-07	-5.139033e-06	-1.534310e-09	-3.578815e+01	-1.055982e+02
4.400000e-07	-5.121224e-06	-1.479944e-09	-3.566413e+01	-1.054083e+02
4.500000e-07	-5.103136e-06	-1.604296e-09	-3.553816e+01	-1.052133e+02
4.600000e-07	-5.084629e-06	-1.591094e-09	-3.540928e+01	-1.050132e+02
4.700000e-07	-5.065710e-06	-1.473412e-09	-3.527753e+01	-1.048078e+02
4.800000e-07	-5.046519e-06	-1.537843e-09	-3.514388e+01	-1.045971e+02
4.900000e-07	-5.027023e-06	-1.597649e-09	-3.500811e+01	-1.043810e+02
5.000000e-07	-5.007190e-06	-1.488711e-09	-3.486999e+01	-1.041596e+02
5.100000e-07	-4.987206e-06	-1.501728e-09	-3.473082e+01	-1.039327e+02
5.200000e-07	-4.967045e-06	-1.592762e-09	-3.459043e+01	-1.037003e+02
5.300000e-07	-4.946444e-06	-1.506649e-09	-3.444696e+01	-1.034625e+02
5.400000e-07	-4.925435e-06	-1.453217e-09	-3.430065e+01	-1.032192e+02
5.500000e-07	-4.904097e-06	-1.561713e-09	-3.415206e+01	-1.029705e+02
5.600000e-07	-4.882382e-06	-1.544095e-09	-3.400083e+01	-1.027164e+02
5.700000e-07	-4.860296e-06	-1.455259e-09	-3.384703e+01	-1.024568e+02
5.800000e-07	-4.837872e-06	-1.516537e-09	-3.369087e+01	-1.021919e+02
5.900000e-07	-4.815219e-06	-1.545602e-09	-3.353311e+01	-1.019217e+02
6.000000e-07	-4.792250e-06	-1.460714e-09	-3.337316e+01	-1.016462e+02
6.100000e-07	-4.768935e-06	-1.479578e-09	-3.321079e+01	-1.013655e+02
6.200000e-07	-4.745366e-06	-1.531054e-09	-3.304666e+01	-1.010797e+02
6.300000e-07	-4.721481e-06	-1.474965e-09	-3.288032e+01	-1.007889e+02
6.400000e-07	-4.697304e-06	-1.459853e-09	-3.271196e+01	-1.004931e+02
6.500000e-07	-4.672831e-06	-1.505838e-09	-3.254152e+01	-1.001925e+02
6.600000e-07	-4.647931e-06	-1.472107e-09	-3.236812e+01	-9.988714e+01
6.700000e-07	-4.622611e-06	-1.435723e-09	-3.219179e+01	-9.957712e+01
6.800000e-07	-4.596815e-06	-1.468655e-09	-3.201215e+01	-9.926255e+01
6.900000e-07	-4.570413e-06	-1.459216e-09	-3.182829e+01	-9.894352e+01
7.000000e-07	-4.543478e-06	-1.424115e-09	-3.164071e+01	-9.862015e+01
7.100000e-07	-4.516216e-06	-1.442869e-09	-3.145086e+01	-9.829253e+01
7.200000e-07	-4.488707e-06	-1.448893e-09	-3.125929e+01	-9.796076e+01
7.300000e-07	-4.460919e-06	-1.415444e-09	-3.106578e+01	-9.762492e+01
7.400000e-07	-4.432940e-06	-1.414059e-09	-3.087093e+01	-9.728511e+01
7.500000e-07	-4.404812e-06	-1.421958e-09	-3.067504e+01	-9.694141e+01
7.600000e-07	-4.376437e-06	-1.403218e-09	-3.047744e+01	-9.659388e+01
7.700000e-07	-4.347756e-06	-1.397872e-09	-3.027771e+01	-9.624258e+01
7.800000e-07	-4.318772e-06	-1.404925e-09	-3.007586e+01	-9.588757e+01
7.900000e-07	-4.289437e-06	-1.384330e-09	-2.987157e+01	-9.552888e+01
8.000000e-07	-4.259783e-06	-1.370062e-09	-2.966506e+01	-9.516653e+01
8.100000e-07	-4.229832e-06	-1.375891e-09	-2.945649e+01	-9.480055e+01
8.200000e-07	-4.199564e-06	-1.362126e-09	-2.924570e+01	-9.443093e+01
8.300000e-07	-4.169001e-06	-1.339515e-09	-2.903286e+01	-9.405765e+01
8.400000e-07	-4.138155e-06	-1.344701e-09	-2.881805e+01	-9.368069e+01
8.500000e-07	-4.107060e-06	-1.347289e-09	-2.860151e+01	-9.329999e+01
8.600000e-07	-4.075743e-06	-1.332113e-09	-2.838341e+01	-9.291550e+01
8.700000e-07	-4.044213e-06	-1.328732e-09	-2.816384e+01	-9.252714e+01
8.800000e-07	-4.012551e-06	-1.331664e-09	-2.794335e+01	-9.213482e+01
8.900000e-07	-3.980699e-06	-1.314178e-09	-2.772153e+01	-9.173844e+01
9.000000e-07	-3.948601e-06	-1.300091e-09	-2.749800e+01	-9.133788e+01
9.100000e-07	-3.916190e-06	-1.300578e-09	-2.727229e+01	-9.093300e+01
9.200000e-07	-3.883375e-06	-1.288884e-09	-2.704377e+01	-9.052366e+01
9.300000e-07	-3.850146e-06	-1.274579e-09	-2.681236e+01	-9.010972e+01
9.400000e-07	-3.816469e-06	-1.279729e-09	-2.657784e+01	-8.969100e+01
9.500000e-07	-3.782323e-06	-1.279201e-09	-2.634004e+01	-8.926733e+01
9.600000e-07	-3.747773e-06	-1.262721e-09	-2.609943e+01	-8.883853e+01
9.700000e-07	-3.712963e-06	-1.256173e-09	-2.585702e+01	-8.840442e+01
9.800000e-07	-3.677878e-06	-1.253269e-09	-2.561269e+01	-8.796480e+01
9.900000e-07	-3.642530e-06	-1.236151e-09	-2.536652e+01	-8.751949e+01
1.000000e-06	-3.607004e-06	-1.225059e-09	-2.511912e+01	-8.706829e+01
1.010000e-06	-3.571344e-06	-1.229682e-09	-2.487078e+01	-8.661100e+01
1.020000e-06	-3.535454e-06	-1.225197e-09	-2.462085e+01	-8.614745e+01
1.030000e-06	-3.499339e-06	-1.212744e-09	-2.436935e+01	-8.567744e+01
1.040000e-06	-3.463080e-06	-1.210016e-09	-2.411683e+01	-8.520080e+01
1.050000e-06	-3.426550e-06	-1.206555e-09	-2.386244e+01	-8.471735e+01
1.060000e-06	-3.389656e-06	-1.191976e-09	-2.360551e+01	-8.422695e+01
1.070000e-06	-3.352477e-06	-1.183295e-09	-2.334660e+01	-8.372942e+01
1.080000e-06	-3.315123e-06	-1.180129e-09	-2.308646e+01	-8.322464e+01
1.090000e-06	-3.277566e-06	-1.170253e-09	-2.282492e+01	-8.271249e+01
1.100000e-06	-3.239875e-06	-1.161104e-09	-2.256244e+01	-8.219285e+01
1.110000e-06	-3.202006e-06	-1.159717e-09	-2.229872e+01	-8.166562e+01
1.120000e-06	-3.163852e-06	-1.153107e-09	-2.203302e+01	-8.113073e+01
1.130000e-06	-3.125393e-06	-1.141259e-09	-2.176519e+01	-8.058812e+01
1.140000e-06	-3.086689e-06	-1.132624e-09	-2.149565e+01	-8.003774e+01
1.150000e-06	-3.047849e-06	-1.126452e-09	-2.122518e+01	-7.947956e+01
1.160000e-06	-3.008772e-06	-1.113521e-09	-2.095304e+01	-7.891357e+01
1.170000e-06	-2.969468e-06	-1.103617e-09	-2.067933e+01	-7.833976e+01
1.180000e-06	-2.930044e-06	-1.097867e-09	-2.040478e+01	-7.775817e+01
1.190000e-06	-2.890439e-06	-1.089538e-09	-2.012897e+01	-7.716882e+01
1.200000e-06	-2.850722e-06	-1.081595e-09	-1.985238e+01	-7.657176e+01
1.210000e-06	-2.810971e-06	-1.074194e-09	-1.957556e+01	-7.596705e+01
1.220000e-06	-2.771120e-06	-1.064052e-09	-1.929804e+01	-7.535476e+01
1.230000e-06	-2.731052e-06	-1.049675e-09	-1.901901e+01	-7.473496e+01
1.240000e-06	-2.690821e-06	-1.040787e-09	-1.873884e+01	-7.410773e+01
1.250000e-06	-2.650366e-06	-1.035597e-09	-1.845711e+01	-7.347317e+01
1.260000e-06	-2.609616e-06	-1.030646e-09	-1.817333e+01	-7.283136e+01
1.270000e-06	-2.568633e-06	-1.023721e-09	-1.788792e+01	-7.218239e+01
1.280000e-06	-2.527345e-06	-1.014506e-09	-1.760039e+01	-7.152634e+01
1.290000e-06	-2.485754e-06	-1.002543e-09	-1.731075e+01	-7.086330e+01
1.300000e-06	-2.443922e-06	-9.877532e-10	-1.701943e+01	-7.019334e+01
1.310000e-06	-2.401786e-06	-9.753400e-10	-1.672600e+01	-6.951650e+01
1.320000e-06	-2.359314e-06	-9.660076e-10	-1.643023e+01	-6.883283e+01
1.330000e-06	-2.316630e-06	-9.573190e-10	-1.613297e+01	-6.814236e+01
1.340000e-06	-2.273779e-06	-9.498150e-10	-1.583456e+01	-6.744509e+01
1.350000e-06	-2.230717e-06	-9.415875e-10	-1.553468e+01	-6.674101e+01
1.360000e-06	-2.187437e-06	-9.319574e-10	-1.523328e+01	-6.603006e+01
1.370000e-06	-2.144107e-06	-9.172906e-10	-1.493153e+01	-6.531218e+01
1.380000e-06	-2.100689e-06	-9.014332e-10	-1.462916e+01	-6.458725e+01
1.390000e-06	-2.057076e-06	-8.855770e-10	-1.432545e+01	-6.385516e+01
1.400000e-06	-2.013371e-06	-8.706665e-10	-1.402109e+01	-6.311571e+01
1.410000e-06	-1.969583e-06	-8.592673e-10	-1.371615e+01	-6.236872e+01
1.420000e-06	-1.925711e-06	-8.513587e-10	-1.341063e+01	-6.161393e+01
1.430000e-06	-1.881748e-06	-8.441701e-10	-1.310447e+01	-6.085106e+01
1.440000e-06	-1.837709e-06	-8.330059e-10	-1.279778e+01	-6.007980e+01
1.450000e-06	-1.793674e-06	-8.183659e-10	-1.249112e+01	-5.929978e+01
1.460000e-06	-1.749509e-06	-8.024928e-10	-1.218355e+01	-5.851061e+01
1.470000e-06	-1.705130e-06	-7.856701e-10	-1.187450e+01	-5.771185e+01
1.480000e-06	-1.660504e-06	-7.698351e-10	-1.156372e+01	-5.690303e+01
1.490000e-06	-1.615724e-06	-7.580281e-10	-1.125188e+01	-5.608363e+01
1.500000e-06	-1.570914e-06	-7.476858e-10	-1.093982e+01	-5.525312e+01
1.510000e-06	-1.525984e-06	-7.365439e-10	-1.062693e+01	-5.441092e+01
1.520000e-06	-1.480952e-06	-7.229870e-10	-1.031333e+01	-5.355641e+01
1.530000e-06	-1.435859e-06	-7.102984e-10	-9.999298e+00	-5.268898e+01
1.540000e-06	-1.390614e-06	-6.968945e-10	-9.684217e+00	-5.180795e+01
1.550000e-06	-1.345201e-06	-6.816646e-10	-9.367960e+00	-5.091266e+01
1.560000e-06	-1.299785e-06	-6.659338e-10	-9.051683e+00	-5.000242e+01
1.570000e-06	-1.254327e-06	-6.515461e-10	-8.735111e+00	-4.907651e+01
1.580000e-06	-1.208760e-06	-6.370800e-10	-8.417785e+00	-4.813422e+01
1.590000e-06	-1.163095e-06	-6.226634e-10	-8.099777e+00	-4.717485e+01
1.600000e-06	-1.117383e-06	-6.089379e-10	-7.781438e+00	-4.619767e+01
1.610000e-06	-1.071668e-06	-5.925950e-10	-7.463077e+00	-4.520198e+01
1.620000e-06	-1.025788e-06	-5.722137e-10	-7.143574e+00	-4.418708e+01
1.630000e-06	-9.797617e-07	-5.544946e-10	-6.823046e+00	-4.315231e+01
1.640000e-06	-9.336899e-07	-5.398095e-10	-6.502202e+00	-4.209701e+01
1.650000e-06	-8.875411e-07	-5.242517e-10	-6.180823e+00	-4.102056e+01
1.660000e-06	-8.414086e-07	-5.090698e-10	-5.859557e+00	-3.992236e+01
1.670000e-06	-7.953059e-07	-4.941843e-10	-5.538498e+00	-3.880187e+01
1.680000e-06	-7.491137e-07	-4.780352e-10	-5.216817e+00	-3.765858e+01
1.690000e-06	-7.028288e-07	-4.616479e-10	-4.894489e+00	-3.649205e+01
1.700000e-06	-6.564963e-07	-4.433174e-10	-4.571830e+00	-3.530186e+01
1.710000e-06	-6.101095e-07	-4.227647e-10	-4.248793e+00	-3.408768e+01
1.720000e-06	-5.636748e-07	-4.027201e-10	-3.925423e+00	-3.284924e+01
1.730000e-06	-5.171737e-07	-3.830291e-10	-3.601590e+00	-3.158631e+01
1.740000e-06	-4.706076e-07	-3.637392e-10	-3.277304e+00	-3.029878e+01
1.750000e-06	-4.240319e-07	-3.463126e-10	-2.952952e+00	-2.898656e+01
1.760000e-06	-3.773399e-07	-3.313599e-10	-2.627789e+00	-2.764969e+01
1.770000e-06	-3.305601e-07	-3.146319e-10	-2.302015e+00	-2.628824e+01
1.780000e-06	-2.838764e-07	-2.949972e-10	-1.976911e+00	-2.490241e+01
1.790000e-06	-2.371128e-07	-2.745288e-10	-1.651250e+00	-2.349245e+01
1.800000e-06	-1.902727e-07	-2.547816e-10	-1.325056e+00	-2.205870e+01
1.810000e-06	-1.435558e-07	-2.340051e-10	-9.997202e-01	-2.060160e+01
1.820000e-06	-9.687312e-08	-2.116491e-10	-6.746229e-01	-1.912166e+01
1.830000e-06	-5.009415e-08	-1.895614e-10	-3.488549e-01	-1.761948e+01
1.840000e-06	-3.429834e-09	-1.686850e-10	-2.388531e-02	-1.609574e+01
1.850000e-06	4.318657e-08	-1.488455e-10	3.007506e-01	-1.455120e+01
1.860000e-06	8.988772e-08	-1.290162e-10	6.259767e-01	-1.298671e+01
1.870000e-06	1.365945e-07	-1.068194e-10	9.512420e-01	-1.140318e+01
1.880000e-06	1.832855e-07	-8.578459e-11	1.276397e+00	-9.801614e+00
1.890000e-06	2.299385e-07	-6.608345e-11	1.601288e+00	-8.183066e+00
1.900000e-06	2.766141e-07	-4.522787e-11	1.926336e+00	-6.548665e+00
1.910000e-06	3.232621e-07	-2.375459e-11	2.251193e+00	-4.899601e+00
1.920000e-06	3.700371e-07	2.129239e-13	2.576932e+00	-3.237118e+00
1.930000e-06	4.167748e-07	2.671502e-11	2.902413e+00	-1.562514e+00
1.940000e-06	4.634064e-07	5.143409e-11	3.227155e+00	1.228710e-01
1.950000e-06	5.099838e-07	7.469243e-11	3.551520e+00	1.817653e+00
1.960000e-06	5.565142e-07	9.611684e-11	3.875556e+00	3.520418e+00
1.970000e-06	6.029085e-07	1.172716e-10	4.198646e+00	5.229720e+00
1.980000e-06	6.491607e-07	1.398963e-10	4.520745e+00	6.944095e+00
1.990000e-06	6.954021e-07	1.600501e-10	4.842770e+00	8.662062e+00
2.000000e-06	7.416231e-07	1.820438e-10	5.164652e+00	1.038213e+01
2.010000e-06	7.878527e-07	2.068822e-10	5.486595e+00	1.210281e+01
2.020000e-06	8.339969e-07	2.344338e-10	5.807942e+00	1.382262e+01
2.030000e-06	8.801131e-07	2.634626e-10	6.129095e+00	1.554007e+01
2.040000e-06	9.261822e-07	2.911013e-10	6.449919e+00	1.725371e+01
2.050000e-06	9.721337e-07	3.155903e-10	6.769924e+00	1.896209e+01
2.060000e-06	1.018080e-06	3.370771e-10	7.089894e+00	2.066382e+01
2.070000e-06	1.063970e-06	3.555877e-10	7.409469e+00	2.235750e+01
2.080000e-06	1.109646e-06	3.749677e-10	7.727560e+00	2.404180e+01
2.090000e-06	1.155233e-06	3.966260e-10	8.045027e+00	2.571544e+01
2.100000e-06	1.200829e-06	4.219135e-10	8.362555e+00	2.737715e+01
2.110000e-06	1.246362e-06	4.496517e-10	8.679649e+00	2.902575e+01
2.120000e-06	1.291767e-06	4.756999e-10	8.995848e+00	3.066011e+01
2.130000e-06	1.337050e-06	4.999420e-10	9.311198e+00	3.227913e+01
2.140000e-06	1.382271e-06	5.213420e-10	9.626112e+00	3.388182e+01
2.150000e-06	1.427486e-06	5.395716e-10	9.940991e+00	3.546720e+01
2.160000e-06	1.472597e-06	5.560914e-10	1.025514e+01	3.703441e+01
2.170000e-06	1.517585e-06	5.748402e-10	1.056844e+01	3.858262e+01
2.180000e-06	1.562418e-06	5.955633e-10	1.088066e+01	4.011108e+01
2.190000e-06	1.607095e-06	6.193420e-10	1.119178e+01	4.161912e+01
2.200000e-06	1.651675e-06	6.434148e-10	1.150224e+01	4.310614e+01
2.210000e-06	1.696188e-06	6.644153e-10	1.181223e+01	4.457159e+01
2.220000e-06	1.740522e-06	6.822033e-10	1.212097e+01	4.601500e+01
2.230000e-06	1.784674e-06	7.002845e-10	1.242844e+01	4.743598e+01
2.240000e-06	1.828789e-06	7.183914e-10	1.273566e+01	4.883419e+01
2.250000e-06	1.872787e-06	7.362002e-10	1.304206e+01	5.020937e+01
2.260000e-06	1.916677e-06	7.540523e-10	1.334771e+01	5.156131e+01
2.270000e-06	1.960475e-06	7.722931e-10	1.365272e+01	5.288985e+01
2.280000e-06	2.004163e-06	7.923877e-10	1.395696e+01	5.419493e+01
2.290000e-06	2.047807e-06	8.121909e-10	1.426090e+01	5.547650e+01
2.300000e-06	2.091436e-06	8.282496e-10	1.456473e+01	5.673458e+01
2.310000e-06	2.135026e-06	8.412977e-10	1.486829e+01	5.796924e+01
2.320000e-06	2.178590e-06	8.558699e-10	1.517167e+01	5.918059e+01
2.330000e-06	2.222041e-06	8.729549e-10	1.547426e+01	6.036878e+01
2.340000e-06	2.265276e-06	8.916815e-10	1.577535e+01	6.153402e+01
2.350000e-06	2.308294e-06	9.099491e-10	1.607492e+01	6.267651e+01
2.360000e-06	2.351079e-06	9.258465e-10	1.637288e+01	6.379652e+01
2.370000e-06	2.393553e-06	9.397533e-10	1.666867e+01	6.489434e+01
2.380000e-06	2.435721e-06	9.520531e-10	1.696232e+01	6.597026e+01
2.390000e-06	2.477619e-06	9.641337e-10	1.725410e+01	6.702461e+01
2.400000e-06	2.519134e-06	9.779803e-10	1.754321e+01	6.805774e+01
2.410000e-06	2.560297e-06	9.936623e-10	1.782987e+01	6.907000e+01
2.420000e-06	2.601245e-06	1.008927e-09	1.811503e+01	7.006175e+01
2.430000e-06	2.641979e-06	1.022261e-09	1.839870e+01	7.103337e+01
2.440000e-06	2.682428e-06	1.035394e-09	1.868039e+01	7.198523e+01
2.450000e-06	2.722649e-06	1.048595e-09	1.896049e+01	7.291771e+01
2.460000e-06	2.762716e-06	1.060232e-09	1.923951e+01	7.383120e+01
2.470000e-06	2.802609e-06	1.071071e-09	1.951733e+01	7.472606e+01
2.480000e-06	2.842348e-06	1.081674e-09	1.979407e+01	7.560266e+01
2.490000e-06	2.881946e-06	1.091532e-09	2.006983e+01	7.646138e+01
2.500000e-06	2.921475e-06	1.104618e-09	2.034511e+01	7.730257e+01
2.510000e-06	2.960883e-06	1.119719e-09	2.061955e+01	7.812658e+01
2.520000e-06	3.000119e-06	1.132330e-09	2.089279e+01	7.893374e+01
2.530000e-06	3.039108e-06	1.143525e-09	2.116430e+01	7.972440e+01
2.540000e-06	3.077768e-06	1.156401e-09	2.143353e+01	8.049886e+01
2.550000e-06	3.116278e-06	1.167623e-09	2.170171e+01	8.125744e+01
2.560000e-06	3.154621e-06	1.175366e-09	2.196873e+01	8.200044e+01
2.570000e-06	3.192723e-06	1.183899e-09	2.223407e+01	8.272815e+01
2.580000e-06	3.230658e-06	1.196217e-09	2.249825e+01	8.344084e+01
2.590000e-06	3.268378e-06	1.209305e-09	2.276094e+01	8.413878e+01
2.600000e-06	3.305830e-06	1.219580e-09	2.302175e+01	8.482222e+01
2.610000e-06	3.342987e-06	1.228928e-09	2.328051e+01	8.549143e+01
2.620000e-06	3.379977e-06	1.237590e-09	2.353811e+01	8.614664e+01
2.630000e-06	3.416833e-06	1.245396e-09	2.379477e+01	8.678808e+01
2.640000e-06	3.453338e-06	1.253250e-09	2.404899e+01	8.741600e+01
2.650000e-06	3.489517e-06	1.263610e-09	2.430094e+01	8.803060e+01
2.660000e-06	3.525499e-06	1.274246e-09	2.455152e+01	8.863212e+01
2.670000e-06	3.561342e-06	1.281547e-09	2.480113e+01	8.922076e+01
2.680000e-06	3.597098e-06	1.287294e-09	2.505013e+01	8.979675e+01
2.690000e-06	3.632747e-06	1.292223e-09	2.529840e+01	9.036029e+01
2.700000e-06	3.668225e-06	1.297366e-09	2.554546e+01	9.091160e+01
2.710000e-06	3.703517e-06	1.305978e-09	2.579124e+01	9.145090e+01
2.720000e-06	3.738623e-06	1.316606e-09	2.603571e+01	9.197839e+01
2.730000e-06	3.773389e-06	1.325983e-09	2.627782e+01	9.249429e+01
2.740000e-06	3.807623e-06	1.333359e-09	2.651623e+01	9.299882e+01
2.750000e-06	3.841331e-06	1.338064e-09	2.675097e+01	9.349220e+01
2.760000e-06	3.874579e-06	1.340489e-09	2.698251e+01	9.397466e+01
2.770000e-06	3.907317e-06	1.343449e-09	2.721050e+01	9.444641e+01
2.780000e-06	3.939741e-06	1.349745e-09	2.743630e+01	9.490768e+01
2.790000e-06	3.971947e-06	1.357178e-09	2.766058e+01	9.535872e+01
2.800000e-06	4.003905e-06	1.364407e-09	2.788313e+01	9.579974e+01
2.810000e-06	4.035667e-06	1.372419e-09	2.810432e+01	9.623099e+01
2.820000e-06	4.067216e-06	1.379970e-09	2.832403e+01	9.665271e+01
2.830000e-06	4.098559e-06	1.385264e-09	2.854230e+01	9.706513e+01
2.840000e-06	4.129639e-06	1.389298e-09	2.875874e+01	9.746850e+01
2.850000e-06	4.160391e-06	1.392864e-09	2.897290e+01	9.786306e+01
2.860000e-06	4.190848e-06	1.397521e-09	2.918500e+01	9.824905e+01
2.870000e-06	4.220938e-06	1.402714e-09	2.939454e+01	9.862671e+01
2.880000e-06	4.250753e-06	1.406160e-09	2.960218e+01	9.899628e+01
2.890000e-06	4.280405e-06	1.407440e-09	2.980867e+01	9.935799e+01
2.900000e-06	4.309815e-06	1.409985e-09	3.001348e+01	9.971208e+01
