# Temperatura_=_-0.89
# Concentracion g/m^3_=_1620.0
# C_Vs_to_Am_M_A/Vsm_=_65563218390.804596
# pendiente_HvsI_1/m_=_3716.3
# ordenada_HvsI_A/m_=_1297.0
# frecuencia_Hz_=_135095.82002579968

Tiempo_(s)	Campo_(V.s)	Magnetizacion_(V.s)	Campo_(kA/m)	Magnetizacion_(A/m)
0.000000e+00	-5.525391e-06	-1.279412e-09	-3.837130e+01	-8.390569e+01
1.000000e-08	-5.525650e-06	-1.277234e-09	-3.837311e+01	-8.389817e+01
2.000000e-08	-5.525697e-06	-1.275141e-09	-3.837343e+01	-8.388994e+01
3.000000e-08	-5.525428e-06	-1.274348e-09	-3.837156e+01	-8.388074e+01
4.000000e-08	-5.524661e-06	-1.275078e-09	-3.836624e+01	-8.387028e+01
5.000000e-08	-5.523292e-06	-1.276177e-09	-3.835673e+01	-8.385825e+01
6.000000e-08	-5.521274e-06	-1.278628e-09	-3.834272e+01	-8.384435e+01
7.000000e-08	-5.518553e-06	-1.285119e-09	-3.832382e+01	-8.382823e+01
8.000000e-08	-5.515385e-06	-1.289621e-09	-3.830182e+01	-8.380955e+01
9.000000e-08	-5.511873e-06	-1.268563e-09	-3.827743e+01	-8.378797e+01
1.000000e-07	-5.507899e-06	-1.257701e-09	-3.824983e+01	-8.376312e+01
1.100000e-07	-5.503507e-06	-1.278976e-09	-3.821933e+01	-8.373465e+01
1.200000e-07	-5.498915e-06	-1.288905e-09	-3.818744e+01	-8.370222e+01
1.300000e-07	-5.494100e-06	-1.275550e-09	-3.815401e+01	-8.366547e+01
1.400000e-07	-5.488881e-06	-1.244341e-09	-3.811776e+01	-8.362408e+01
1.500000e-07	-5.483269e-06	-1.261691e-09	-3.807878e+01	-8.357772e+01
1.600000e-07	-5.477346e-06	-1.287746e-09	-3.803766e+01	-8.352610e+01
1.700000e-07	-5.470980e-06	-1.275989e-09	-3.799344e+01	-8.346892e+01
1.800000e-07	-5.464165e-06	-1.273393e-09	-3.794612e+01	-8.340594e+01
1.900000e-07	-5.457009e-06	-1.267612e-09	-3.789642e+01	-8.333692e+01
2.000000e-07	-5.449529e-06	-1.289445e-09	-3.784448e+01	-8.326165e+01
2.100000e-07	-5.441830e-06	-1.275533e-09	-3.779101e+01	-8.317996e+01
2.200000e-07	-5.433899e-06	-1.281057e-09	-3.773593e+01	-8.309171e+01
2.300000e-07	-5.425621e-06	-1.267828e-09	-3.767845e+01	-8.299679e+01
2.400000e-07	-5.416848e-06	-1.279844e-09	-3.761753e+01	-8.289513e+01
2.500000e-07	-5.407432e-06	-1.273821e-09	-3.755214e+01	-8.278668e+01
2.600000e-07	-5.397314e-06	-1.267393e-09	-3.748187e+01	-8.267144e+01
2.700000e-07	-5.386676e-06	-1.248064e-09	-3.740800e+01	-8.254946e+01
2.800000e-07	-5.375629e-06	-1.247189e-09	-3.733128e+01	-8.242079e+01
2.900000e-07	-5.364129e-06	-1.248645e-09	-3.725142e+01	-8.228554e+01
3.000000e-07	-5.352270e-06	-1.238482e-09	-3.716906e+01	-8.214385e+01
3.100000e-07	-5.340057e-06	-1.231307e-09	-3.708425e+01	-8.199590e+01
3.200000e-07	-5.327414e-06	-1.230161e-09	-3.699644e+01	-8.184187e+01
3.300000e-07	-5.314327e-06	-1.241518e-09	-3.690556e+01	-8.168201e+01
3.400000e-07	-5.300837e-06	-1.226973e-09	-3.681188e+01	-8.151656e+01
3.500000e-07	-5.286870e-06	-1.221152e-09	-3.671489e+01	-8.134581e+01
3.600000e-07	-5.272372e-06	-1.212974e-09	-3.661420e+01	-8.117006e+01
3.700000e-07	-5.257458e-06	-1.223718e-09	-3.651064e+01	-8.098963e+01
3.800000e-07	-5.242168e-06	-1.219218e-09	-3.640445e+01	-8.080484e+01
3.900000e-07	-5.226350e-06	-1.221793e-09	-3.629460e+01	-8.061605e+01
4.000000e-07	-5.209980e-06	-1.208008e-09	-3.618092e+01	-8.042360e+01
4.100000e-07	-5.193287e-06	-1.206770e-09	-3.606499e+01	-8.022785e+01
4.200000e-07	-5.176328e-06	-1.206518e-09	-3.594722e+01	-8.002916e+01
4.300000e-07	-5.158975e-06	-1.212315e-09	-3.582672e+01	-7.982789e+01
4.400000e-07	-5.141263e-06	-1.196591e-09	-3.570371e+01	-7.962437e+01
4.500000e-07	-5.123256e-06	-1.196312e-09	-3.557866e+01	-7.941895e+01
4.600000e-07	-5.104856e-06	-1.193585e-09	-3.545088e+01	-7.921195e+01
4.700000e-07	-5.086001e-06	-1.193012e-09	-3.531994e+01	-7.900368e+01
4.800000e-07	-5.066781e-06	-1.185241e-09	-3.518647e+01	-7.879444e+01
4.900000e-07	-5.047315e-06	-1.197067e-09	-3.505129e+01	-7.858449e+01
5.000000e-07	-5.027651e-06	-1.193714e-09	-3.491473e+01	-7.837407e+01
5.100000e-07	-5.007751e-06	-1.182272e-09	-3.477653e+01	-7.816341e+01
5.200000e-07	-4.987581e-06	-1.175417e-09	-3.463646e+01	-7.795269e+01
5.300000e-07	-4.967043e-06	-1.181246e-09	-3.449384e+01	-7.774208e+01
5.400000e-07	-4.946121e-06	-1.167378e-09	-3.434854e+01	-7.753171e+01
5.500000e-07	-4.924834e-06	-1.155420e-09	-3.420071e+01	-7.732168e+01
5.600000e-07	-4.903187e-06	-1.159913e-09	-3.405038e+01	-7.711204e+01
5.700000e-07	-4.881226e-06	-1.163959e-09	-3.389787e+01	-7.690285e+01
5.800000e-07	-4.858934e-06	-1.155291e-09	-3.374307e+01	-7.669409e+01
5.900000e-07	-4.836283e-06	-1.157364e-09	-3.358577e+01	-7.648575e+01
6.000000e-07	-4.813256e-06	-1.162403e-09	-3.342586e+01	-7.627775e+01
6.100000e-07	-4.789908e-06	-1.150326e-09	-3.326371e+01	-7.607002e+01
6.200000e-07	-4.766333e-06	-1.141808e-09	-3.310000e+01	-7.586242e+01
6.300000e-07	-4.742626e-06	-1.144791e-09	-3.293536e+01	-7.565482e+01
6.400000e-07	-4.718702e-06	-1.144024e-09	-3.276922e+01	-7.544704e+01
6.500000e-07	-4.694336e-06	-1.133360e-09	-3.260001e+01	-7.523889e+01
6.600000e-07	-4.669443e-06	-1.136890e-09	-3.242714e+01	-7.503015e+01
6.700000e-07	-4.644074e-06	-1.132561e-09	-3.225097e+01	-7.482059e+01
6.800000e-07	-4.618230e-06	-1.124185e-09	-3.207149e+01	-7.460997e+01
6.900000e-07	-4.591822e-06	-1.121415e-09	-3.188810e+01	-7.439802e+01
7.000000e-07	-4.564889e-06	-1.124885e-09	-3.170106e+01	-7.418447e+01
7.100000e-07	-4.537664e-06	-1.108801e-09	-3.151199e+01	-7.396904e+01
7.200000e-07	-4.510221e-06	-1.101338e-09	-3.132141e+01	-7.375146e+01
7.300000e-07	-4.482527e-06	-1.103398e-09	-3.112909e+01	-7.353143e+01
7.400000e-07	-4.454672e-06	-1.102384e-09	-3.093566e+01	-7.330869e+01
7.500000e-07	-4.426586e-06	-1.091169e-09	-3.074061e+01	-7.308294e+01
7.600000e-07	-4.398123e-06	-1.094735e-09	-3.054295e+01	-7.285392e+01
7.700000e-07	-4.369280e-06	-1.093969e-09	-3.034265e+01	-7.262137e+01
7.800000e-07	-4.340201e-06	-1.087284e-09	-3.014071e+01	-7.238504e+01
7.900000e-07	-4.310950e-06	-1.081749e-09	-2.993757e+01	-7.214470e+01
8.000000e-07	-4.281384e-06	-1.080161e-09	-2.973225e+01	-7.190011e+01
8.100000e-07	-4.251494e-06	-1.066517e-09	-2.952468e+01	-7.165109e+01
8.200000e-07	-4.221395e-06	-1.056326e-09	-2.931565e+01	-7.139743e+01
8.300000e-07	-4.190977e-06	-1.052480e-09	-2.910442e+01	-7.113899e+01
8.400000e-07	-4.160144e-06	-1.046566e-09	-2.889029e+01	-7.087561e+01
8.500000e-07	-4.129049e-06	-1.040543e-09	-2.867435e+01	-7.060717e+01
8.600000e-07	-4.097798e-06	-1.042910e-09	-2.845733e+01	-7.033357e+01
8.700000e-07	-4.066353e-06	-1.042541e-09	-2.823896e+01	-7.005472e+01
8.800000e-07	-4.034676e-06	-1.037258e-09	-2.801897e+01	-6.977058e+01
8.900000e-07	-4.002862e-06	-1.034587e-09	-2.779804e+01	-6.948110e+01
9.000000e-07	-3.970886e-06	-1.026833e-09	-2.757598e+01	-6.918625e+01
9.100000e-07	-3.938597e-06	-1.015688e-09	-2.735175e+01	-6.888606e+01
9.200000e-07	-3.905836e-06	-1.008916e-09	-2.712424e+01	-6.858052e+01
9.300000e-07	-3.872658e-06	-1.006798e-09	-2.689383e+01	-6.826969e+01
9.400000e-07	-3.839074e-06	-1.001698e-09	-2.666061e+01	-6.795361e+01
9.500000e-07	-3.804952e-06	-1.001237e-09	-2.642364e+01	-6.763235e+01
9.600000e-07	-3.770300e-06	-1.001180e-09	-2.618300e+01	-6.730598e+01
9.700000e-07	-3.735306e-06	-9.947357e-10	-2.593999e+01	-6.697459e+01
9.800000e-07	-3.700109e-06	-9.843470e-10	-2.569556e+01	-6.663828e+01
9.900000e-07	-3.664693e-06	-9.803200e-10	-2.544961e+01	-6.629715e+01
1.000000e-06	-3.629128e-06	-9.724661e-10	-2.520263e+01	-6.595130e+01
1.010000e-06	-3.593456e-06	-9.656497e-10	-2.495491e+01	-6.560085e+01
1.020000e-06	-3.557649e-06	-9.634159e-10	-2.470624e+01	-6.524589e+01
1.030000e-06	-3.521651e-06	-9.615617e-10	-2.445625e+01	-6.488653e+01
1.040000e-06	-3.485356e-06	-9.524351e-10	-2.420420e+01	-6.452287e+01
1.050000e-06	-3.448772e-06	-9.469850e-10	-2.395014e+01	-6.415501e+01
1.060000e-06	-3.411932e-06	-9.401447e-10	-2.369430e+01	-6.378303e+01
1.070000e-06	-3.374843e-06	-9.300255e-10	-2.343674e+01	-6.340701e+01
1.080000e-06	-3.337483e-06	-9.222375e-10	-2.317729e+01	-6.302702e+01
1.090000e-06	-3.299831e-06	-9.213317e-10	-2.291581e+01	-6.264310e+01
1.100000e-06	-3.262003e-06	-9.165656e-10	-2.265311e+01	-6.225531e+01
1.110000e-06	-3.223990e-06	-9.110373e-10	-2.238913e+01	-6.186366e+01
1.120000e-06	-3.185808e-06	-9.063642e-10	-2.212398e+01	-6.146817e+01
1.130000e-06	-3.147422e-06	-8.988605e-10	-2.185740e+01	-6.106884e+01
1.140000e-06	-3.108807e-06	-8.894481e-10	-2.158924e+01	-6.066563e+01
1.150000e-06	-3.069960e-06	-8.831938e-10	-2.131946e+01	-6.025853e+01
1.160000e-06	-3.030853e-06	-8.777852e-10	-2.104789e+01	-5.984747e+01
1.170000e-06	-2.991633e-06	-8.716399e-10	-2.077552e+01	-5.943239e+01
1.180000e-06	-2.952262e-06	-8.667987e-10	-2.050211e+01	-5.901320e+01
1.190000e-06	-2.912709e-06	-8.625351e-10	-2.022743e+01	-5.858981e+01
1.200000e-06	-2.873054e-06	-8.543436e-10	-1.995204e+01	-5.816209e+01
1.210000e-06	-2.833325e-06	-8.440783e-10	-1.967614e+01	-5.772991e+01
1.220000e-06	-2.793466e-06	-8.365278e-10	-1.939934e+01	-5.729315e+01
1.230000e-06	-2.753401e-06	-8.272136e-10	-1.912111e+01	-5.685163e+01
1.240000e-06	-2.713122e-06	-8.176159e-10	-1.884139e+01	-5.640519e+01
1.250000e-06	-2.672560e-06	-8.101438e-10	-1.855971e+01	-5.595365e+01
1.260000e-06	-2.631770e-06	-8.062882e-10	-1.827643e+01	-5.549683e+01
1.270000e-06	-2.590782e-06	-7.993684e-10	-1.799179e+01	-5.503453e+01
1.280000e-06	-2.549550e-06	-7.920585e-10	-1.770545e+01	-5.456654e+01
1.290000e-06	-2.508049e-06	-7.856353e-10	-1.741725e+01	-5.409266e+01
1.300000e-06	-2.466150e-06	-7.746868e-10	-1.712628e+01	-5.361266e+01
1.310000e-06	-2.423783e-06	-7.605721e-10	-1.683206e+01	-5.312632e+01
1.320000e-06	-2.381216e-06	-7.510387e-10	-1.653645e+01	-5.263343e+01
1.330000e-06	-2.338443e-06	-7.431078e-10	-1.623941e+01	-5.213374e+01
1.340000e-06	-2.295403e-06	-7.371533e-10	-1.594052e+01	-5.162703e+01
1.350000e-06	-2.252248e-06	-7.328225e-10	-1.564083e+01	-5.111307e+01
1.360000e-06	-2.208891e-06	-7.292746e-10	-1.533973e+01	-5.059160e+01
1.370000e-06	-2.165383e-06	-7.194874e-10	-1.503759e+01	-5.006241e+01
1.380000e-06	-2.121761e-06	-7.095302e-10	-1.473465e+01	-4.952524e+01
1.390000e-06	-2.078081e-06	-6.977842e-10	-1.443132e+01	-4.897985e+01
1.400000e-06	-2.034386e-06	-6.866776e-10	-1.412788e+01	-4.842602e+01
1.410000e-06	-1.990540e-06	-6.776597e-10	-1.382338e+01	-4.786348e+01
1.420000e-06	-1.946514e-06	-6.744986e-10	-1.351765e+01	-4.729199e+01
1.430000e-06	-1.902417e-06	-6.712018e-10	-1.321141e+01	-4.671131e+01
1.440000e-06	-1.858315e-06	-6.639435e-10	-1.290514e+01	-4.612119e+01
1.450000e-06	-1.814088e-06	-6.500455e-10	-1.259801e+01	-4.552137e+01
1.460000e-06	-1.769670e-06	-6.336172e-10	-1.228955e+01	-4.491159e+01
1.470000e-06	-1.725091e-06	-6.181634e-10	-1.197997e+01	-4.429160e+01
1.480000e-06	-1.680406e-06	-6.016392e-10	-1.166965e+01	-4.366114e+01
1.490000e-06	-1.635596e-06	-5.926483e-10	-1.135847e+01	-4.301992e+01
1.500000e-06	-1.590647e-06	-5.901573e-10	-1.104631e+01	-4.236767e+01
1.510000e-06	-1.545593e-06	-5.888662e-10	-1.073344e+01	-4.170413e+01
1.520000e-06	-1.500378e-06	-5.791223e-10	-1.041944e+01	-4.102899e+01
1.530000e-06	-1.455047e-06	-5.627379e-10	-1.010464e+01	-4.034197e+01
1.540000e-06	-1.409662e-06	-5.466078e-10	-9.789455e+00	-3.964276e+01
1.550000e-06	-1.364201e-06	-5.301373e-10	-9.473747e+00	-3.893107e+01
1.560000e-06	-1.318677e-06	-5.153008e-10	-9.157609e+00	-3.820658e+01
1.570000e-06	-1.273115e-06	-5.078375e-10	-8.841203e+00	-3.746898e+01
1.580000e-06	-1.227491e-06	-5.021725e-10	-8.524358e+00	-3.671794e+01
1.590000e-06	-1.181748e-06	-4.945005e-10	-8.206698e+00	-3.595315e+01
1.600000e-06	-1.135784e-06	-4.841969e-10	-7.887498e+00	-3.517428e+01
1.610000e-06	-1.089700e-06	-4.741100e-10	-7.567469e+00	-3.438099e+01
1.620000e-06	-1.043650e-06	-4.582353e-10	-7.247669e+00	-3.357297e+01
1.630000e-06	-9.975962e-07	-4.404360e-10	-6.927848e+00	-3.274988e+01
1.640000e-06	-9.514371e-07	-4.229170e-10	-6.607294e+00	-3.191140e+01
1.650000e-06	-9.051936e-07	-4.074716e-10	-6.286154e+00	-3.105722e+01
1.660000e-06	-8.588801e-07	-3.951162e-10	-5.964528e+00	-3.018703e+01
1.670000e-06	-8.124890e-07	-3.867397e-10	-5.642364e+00	-2.930053e+01
1.680000e-06	-7.660772e-07	-3.784904e-10	-5.320055e+00	-2.839745e+01
1.690000e-06	-7.196237e-07	-3.674310e-10	-4.997456e+00	-2.747750e+01
1.700000e-06	-6.731211e-07	-3.520946e-10	-4.674517e+00	-2.654046e+01
1.710000e-06	-6.264690e-07	-3.342723e-10	-4.350540e+00	-2.558609e+01
1.720000e-06	-5.798006e-07	-3.146975e-10	-4.026449e+00	-2.461419e+01
1.730000e-06	-5.332217e-07	-2.965255e-10	-3.702980e+00	-2.362461e+01
1.740000e-06	-4.866280e-07	-2.818626e-10	-3.379408e+00	-2.261720e+01
1.750000e-06	-4.399536e-07	-2.685739e-10	-3.055276e+00	-2.159187e+01
1.760000e-06	-3.932438e-07	-2.554111e-10	-2.730898e+00	-2.054856e+01
1.770000e-06	-3.464906e-07	-2.433581e-10	-2.406218e+00	-1.948725e+01
1.780000e-06	-2.996608e-07	-2.301715e-10	-2.081006e+00	-1.840798e+01
1.790000e-06	-2.527677e-07	-2.137133e-10	-1.755356e+00	-1.731081e+01
1.800000e-06	-2.058642e-07	-1.961140e-10	-1.429632e+00	-1.619589e+01
1.810000e-06	-1.589803e-07	-1.780178e-10	-1.104045e+00	-1.506340e+01
1.820000e-06	-1.120904e-07	-1.601881e-10	-7.784167e-01	-1.391357e+01
1.830000e-06	-6.518400e-08	-1.428075e-10	-4.526730e-01	-1.274672e+01
1.840000e-06	-1.827848e-08	-1.269233e-10	-1.269356e-01	-1.156319e+01
1.850000e-06	2.853833e-08	-1.108694e-10	1.981856e-01	-1.036341e+01
1.860000e-06	7.542580e-08	-9.558680e-11	5.237976e-01	-9.147863e+00
1.870000e-06	1.223559e-07	-7.816524e-11	8.497057e-01	-7.917096e+00
1.880000e-06	1.691887e-07	-5.973875e-11	1.174938e+00	-6.671717e+00
1.890000e-06	2.160473e-07	-4.206526e-11	1.500349e+00	-5.412399e+00
1.900000e-06	2.629083e-07	-2.549605e-11	1.825777e+00	-4.139874e+00
1.910000e-06	3.097385e-07	-9.153726e-12	2.150992e+00	-2.854938e+00
1.920000e-06	3.566134e-07	8.306565e-12	2.476517e+00	-1.558443e+00
1.930000e-06	4.034436e-07	2.948664e-11	2.801731e+00	-2.512988e-01
1.940000e-06	4.502132e-07	5.205353e-11	3.126524e+00	1.065532e+00
1.950000e-06	4.969234e-07	7.411966e-11	3.450905e+00	2.391034e+00
1.960000e-06	5.435991e-07	9.347101e-11	3.775046e+00	3.724146e+00
1.970000e-06	5.902361e-07	1.110282e-10	4.098919e+00	5.063764e+00
1.980000e-06	6.367807e-07	1.270770e-10	4.422150e+00	6.408743e+00
1.990000e-06	6.832976e-07	1.426587e-10	4.745188e+00	7.757906e+00
2.000000e-06	7.297865e-07	1.587762e-10	5.068032e+00	9.110044e+00
2.010000e-06	7.761746e-07	1.771700e-10	5.390177e+00	1.046393e+01
2.020000e-06	8.224655e-07	1.963419e-10	5.711645e+00	1.181831e+01
2.030000e-06	8.686758e-07	2.186161e-10	6.032555e+00	1.317192e+01
2.040000e-06	9.147982e-07	2.436707e-10	6.352854e+00	1.452350e+01
2.050000e-06	9.608856e-07	2.661772e-10	6.672909e+00	1.587177e+01
2.060000e-06	1.006943e-06	2.859321e-10	6.992760e+00	1.721547e+01
2.070000e-06	1.052938e-06	3.015252e-10	7.312174e+00	1.855336e+01
2.080000e-06	1.098900e-06	3.161405e-10	7.631354e+00	1.988419e+01
2.090000e-06	1.144747e-06	3.329038e-10	7.949741e+00	2.120677e+01
2.100000e-06	1.190474e-06	3.537177e-10	8.267295e+00	2.251990e+01
2.110000e-06	1.236159e-06	3.746572e-10	8.584560e+00	2.382245e+01
2.120000e-06	1.281725e-06	3.938715e-10	8.900992e+00	2.511331e+01
2.130000e-06	1.327178e-06	4.114756e-10	9.216639e+00	2.639144e+01
2.140000e-06	1.372548e-06	4.280848e-10	9.531713e+00	2.765582e+01
2.150000e-06	1.417802e-06	4.429980e-10	9.845987e+00	2.890551e+01
2.160000e-06	1.463030e-06	4.569038e-10	1.016007e+01	3.013963e+01
2.170000e-06	1.508202e-06	4.716692e-10	1.047377e+01	3.135734e+01
2.180000e-06	1.553161e-06	4.873423e-10	1.078599e+01	3.255790e+01
2.190000e-06	1.597987e-06	5.041060e-10	1.109728e+01	3.374063e+01
2.200000e-06	1.642752e-06	5.223637e-10	1.140816e+01	3.490490e+01
2.210000e-06	1.687402e-06	5.391281e-10	1.171823e+01	3.605018e+01
2.220000e-06	1.731887e-06	5.538662e-10	1.202716e+01	3.717600e+01
2.230000e-06	1.776180e-06	5.665246e-10	1.233476e+01	3.828198e+01
2.240000e-06	1.820362e-06	5.798321e-10	1.264158e+01	3.936781e+01
2.250000e-06	1.864451e-06	5.960987e-10	1.294776e+01	4.043325e+01
2.260000e-06	1.908405e-06	6.134573e-10	1.325300e+01	4.147814e+01
2.270000e-06	1.952333e-06	6.297221e-10	1.355805e+01	4.250239e+01
2.280000e-06	1.996235e-06	6.437446e-10	1.386293e+01	4.350597e+01
2.290000e-06	2.040009e-06	6.561173e-10	1.416693e+01	4.448894e+01
2.300000e-06	2.083700e-06	6.676195e-10	1.447034e+01	4.545141e+01
2.310000e-06	2.127351e-06	6.776514e-10	1.477348e+01	4.639356e+01
2.320000e-06	2.170910e-06	6.887368e-10	1.507597e+01	4.731561e+01
2.330000e-06	2.214363e-06	7.028266e-10	1.537773e+01	4.821785e+01
2.340000e-06	2.257713e-06	7.181859e-10	1.567878e+01	4.910061e+01
2.350000e-06	2.300944e-06	7.327269e-10	1.597900e+01	4.996428e+01
2.360000e-06	2.344020e-06	7.454800e-10	1.627814e+01	5.080925e+01
2.370000e-06	2.386780e-06	7.564462e-10	1.657509e+01	5.163599e+01
2.380000e-06	2.429220e-06	7.658841e-10	1.686982e+01	5.244497e+01
2.390000e-06	2.471439e-06	7.766978e-10	1.716301e+01	5.323668e+01
2.400000e-06	2.513245e-06	7.885568e-10	1.745333e+01	5.401164e+01
2.410000e-06	2.554722e-06	8.004378e-10	1.774137e+01	5.477037e+01
2.420000e-06	2.595985e-06	8.137662e-10	1.802792e+01	5.551342e+01
2.430000e-06	2.637021e-06	8.265126e-10	1.831290e+01	5.624131e+01
2.440000e-06	2.677872e-06	8.356863e-10	1.859659e+01	5.695458e+01
2.450000e-06	2.718352e-06	8.437751e-10	1.887771e+01	5.765374e+01
2.460000e-06	2.758605e-06	8.523148e-10	1.915724e+01	5.833930e+01
2.470000e-06	2.798706e-06	8.634081e-10	1.943573e+01	5.901176e+01
2.480000e-06	2.838577e-06	8.735322e-10	1.971261e+01	5.967159e+01
2.490000e-06	2.878345e-06	8.828495e-10	1.998878e+01	6.031923e+01
2.500000e-06	2.917960e-06	8.908985e-10	2.026389e+01	6.095510e+01
2.510000e-06	2.957421e-06	8.998363e-10	2.053793e+01	6.157960e+01
2.520000e-06	2.996730e-06	9.093773e-10	2.081092e+01	6.219307e+01
2.530000e-06	3.035873e-06	9.204821e-10	2.108274e+01	6.279585e+01
2.540000e-06	3.074821e-06	9.321652e-10	2.135322e+01	6.338822e+01
2.550000e-06	3.113547e-06	9.431666e-10	2.162215e+01	6.397044e+01
2.560000e-06	3.152031e-06	9.505310e-10	2.188941e+01	6.454272e+01
2.570000e-06	3.190192e-06	9.545976e-10	2.215442e+01	6.510524e+01
2.580000e-06	3.228190e-06	9.626474e-10	2.241830e+01	6.565816e+01
2.590000e-06	3.266076e-06	9.721267e-10	2.268140e+01	6.620159e+01
2.600000e-06	3.303810e-06	9.809026e-10	2.294345e+01	6.673560e+01
2.610000e-06	3.341320e-06	9.882217e-10	2.320393e+01	6.726026e+01
2.620000e-06	3.378517e-06	9.952077e-10	2.346225e+01	6.777557e+01
2.630000e-06	3.415422e-06	9.995600e-10	2.371854e+01	6.828154e+01
2.640000e-06	3.452009e-06	1.002717e-09	2.397262e+01	6.877815e+01
2.650000e-06	3.488363e-06	1.010542e-09	2.422508e+01	6.926533e+01
2.660000e-06	3.524521e-06	1.020855e-09	2.447618e+01	6.974303e+01
2.670000e-06	3.560462e-06	1.029276e-09	2.472577e+01	7.021117e+01
2.680000e-06	3.596262e-06	1.037711e-09	2.497439e+01	7.066966e+01
2.690000e-06	3.631925e-06	1.044676e-09	2.522205e+01	7.111840e+01
2.700000e-06	3.667434e-06	1.047910e-09	2.546864e+01	7.155730e+01
2.710000e-06	3.702825e-06	1.051345e-09	2.571442e+01	7.198626e+01
2.720000e-06	3.738044e-06	1.057639e-09	2.595900e+01	7.240518e+01
2.730000e-06	3.773011e-06	1.063825e-09	2.620183e+01	7.281397e+01
2.740000e-06	3.807649e-06	1.072446e-09	2.644237e+01	7.321255e+01
2.750000e-06	3.841773e-06	1.080469e-09	2.667935e+01	7.360086e+01
2.760000e-06	3.875351e-06	1.085519e-09	2.691254e+01	7.397885e+01
2.770000e-06	3.908416e-06	1.088068e-09	2.714216e+01	7.434648e+01
2.780000e-06	3.941101e-06	1.090776e-09	2.736914e+01	7.470373e+01
2.790000e-06	3.973437e-06	1.095233e-09	2.759370e+01	7.505063e+01
2.800000e-06	4.005407e-06	1.100287e-09	2.781572e+01	7.538720e+01
2.810000e-06	4.037171e-06	1.106283e-09	2.803630e+01	7.571350e+01
2.820000e-06	4.068799e-06	1.111109e-09	2.825594e+01	7.602961e+01
2.830000e-06	4.100314e-06	1.116823e-09	2.847480e+01	7.633563e+01
2.840000e-06	4.131601e-06	1.122603e-09	2.869208e+01	7.663171e+01
2.850000e-06	4.162638e-06	1.127258e-09	2.890761e+01	7.691800e+01
2.860000e-06	4.193421e-06	1.132174e-09	2.912138e+01	7.719469e+01
2.870000e-06	4.223880e-06	1.135479e-09	2.933291e+01	7.746199e+01
2.880000e-06	4.253999e-06	1.137861e-09	2.954207e+01	7.772012e+01
2.890000e-06	4.283806e-06	1.140514e-09	2.974907e+01	7.796935e+01
2.900000e-06	4.313350e-06	1.142982e-09	2.995424e+01	7.820995e+01
