# Temperatura_=_-0.4
# Concentracion g/m^3_=_1620.0
# C_Vs_to_Am_M_A/Vsm_=_65563218390.804596
# pendiente_HvsI_1/m_=_3716.3
# ordenada_HvsI_A/m_=_1297.0
# frecuencia_Hz_=_135091.29716552913

Tiempo_(s)	Campo_(V.s)	Magnetizacion_(V.s)	Campo_(kA/m)	Magnetizacion_(A/m)
0.000000e+00	-5.523316e-06	-1.701208e-09	-3.837068e+01	-1.107542e+02
1.000000e-08	-5.523591e-06	-1.695852e-09	-3.837259e+01	-1.107185e+02
2.000000e-08	-5.523625e-06	-1.692260e-09	-3.837283e+01	-1.106800e+02
3.000000e-08	-5.523345e-06	-1.690710e-09	-3.837089e+01	-1.106388e+02
4.000000e-08	-5.522484e-06	-1.692211e-09	-3.836491e+01	-1.105950e+02
5.000000e-08	-5.521137e-06	-1.696597e-09	-3.835555e+01	-1.105487e+02
6.000000e-08	-5.519326e-06	-1.713723e-09	-3.834297e+01	-1.104999e+02
7.000000e-08	-5.516909e-06	-1.730505e-09	-3.832618e+01	-1.104488e+02
8.000000e-08	-5.513960e-06	-1.711511e-09	-3.830569e+01	-1.103954e+02
9.000000e-08	-5.510598e-06	-1.635893e-09	-3.828233e+01	-1.103398e+02
1.000000e-07	-5.506824e-06	-1.595557e-09	-3.825611e+01	-1.102820e+02
1.100000e-07	-5.502628e-06	-1.649756e-09	-3.822696e+01	-1.102220e+02
1.200000e-07	-5.498131e-06	-1.784883e-09	-3.819572e+01	-1.101600e+02
1.300000e-07	-5.493338e-06	-1.772682e-09	-3.816243e+01	-1.100959e+02
1.400000e-07	-5.488244e-06	-1.646371e-09	-3.812704e+01	-1.100297e+02
1.500000e-07	-5.482913e-06	-1.643314e-09	-3.809001e+01	-1.099614e+02
1.600000e-07	-5.477203e-06	-1.738615e-09	-3.805033e+01	-1.098911e+02
1.700000e-07	-5.471083e-06	-1.755920e-09	-3.800782e+01	-1.098187e+02
1.800000e-07	-5.464618e-06	-1.605338e-09	-3.796291e+01	-1.097441e+02
1.900000e-07	-5.457783e-06	-1.596811e-09	-3.791543e+01	-1.096673e+02
2.000000e-07	-5.450561e-06	-1.684505e-09	-3.786525e+01	-1.095882e+02
2.100000e-07	-5.442948e-06	-1.736626e-09	-3.781237e+01	-1.095068e+02
2.200000e-07	-5.434994e-06	-1.656834e-09	-3.775711e+01	-1.094230e+02
2.300000e-07	-5.426840e-06	-1.622863e-09	-3.770046e+01	-1.093367e+02
2.400000e-07	-5.418319e-06	-1.643403e-09	-3.764127e+01	-1.092478e+02
2.500000e-07	-5.409102e-06	-1.662430e-09	-3.757724e+01	-1.091562e+02
2.600000e-07	-5.399169e-06	-1.630170e-09	-3.750823e+01	-1.090617e+02
2.700000e-07	-5.388673e-06	-1.612252e-09	-3.743532e+01	-1.089643e+02
2.800000e-07	-5.377722e-06	-1.634273e-09	-3.735924e+01	-1.088637e+02
2.900000e-07	-5.366269e-06	-1.640311e-09	-3.727967e+01	-1.087599e+02
3.000000e-07	-5.354417e-06	-1.616830e-09	-3.719734e+01	-1.086527e+02
3.100000e-07	-5.342289e-06	-1.605410e-09	-3.711309e+01	-1.085419e+02
3.200000e-07	-5.329766e-06	-1.626177e-09	-3.702608e+01	-1.084274e+02
3.300000e-07	-5.316793e-06	-1.620814e-09	-3.693596e+01	-1.083090e+02
3.400000e-07	-5.303390e-06	-1.610597e-09	-3.684285e+01	-1.081866e+02
3.500000e-07	-5.289562e-06	-1.579436e-09	-3.674678e+01	-1.080599e+02
3.600000e-07	-5.275348e-06	-1.598219e-09	-3.664804e+01	-1.079290e+02
3.700000e-07	-5.260671e-06	-1.601084e-09	-3.654608e+01	-1.077935e+02
3.800000e-07	-5.245460e-06	-1.596325e-09	-3.644041e+01	-1.076533e+02
3.900000e-07	-5.229701e-06	-1.577149e-09	-3.633093e+01	-1.075084e+02
4.000000e-07	-5.213647e-06	-1.605163e-09	-3.621940e+01	-1.073584e+02
4.100000e-07	-5.197219e-06	-1.577286e-09	-3.610528e+01	-1.072034e+02
4.200000e-07	-5.180294e-06	-1.562399e-09	-3.598770e+01	-1.070432e+02
4.300000e-07	-5.163075e-06	-1.601091e-09	-3.586808e+01	-1.068776e+02
4.400000e-07	-5.145530e-06	-1.614022e-09	-3.574619e+01	-1.067065e+02
4.500000e-07	-5.127538e-06	-1.534796e-09	-3.562120e+01	-1.065299e+02
4.600000e-07	-5.109084e-06	-1.545163e-09	-3.549300e+01	-1.063476e+02
4.700000e-07	-5.090279e-06	-1.614033e-09	-3.536236e+01	-1.061596e+02
4.800000e-07	-5.071136e-06	-1.568871e-09	-3.522938e+01	-1.059657e+02
4.900000e-07	-5.051715e-06	-1.512410e-09	-3.509446e+01	-1.057660e+02
5.000000e-07	-5.032085e-06	-1.581252e-09	-3.495808e+01	-1.055604e+02
5.100000e-07	-5.012229e-06	-1.587562e-09	-3.482014e+01	-1.053488e+02
5.200000e-07	-4.992163e-06	-1.513402e-09	-3.468074e+01	-1.051313e+02
5.300000e-07	-4.971760e-06	-1.551776e-09	-3.453900e+01	-1.049077e+02
5.400000e-07	-4.951026e-06	-1.588716e-09	-3.439497e+01	-1.046782e+02
5.500000e-07	-4.929936e-06	-1.507096e-09	-3.424845e+01	-1.044426e+02
5.600000e-07	-4.908414e-06	-1.504464e-09	-3.409894e+01	-1.042011e+02
5.700000e-07	-4.886574e-06	-1.584046e-09	-3.394721e+01	-1.039536e+02
5.800000e-07	-4.864464e-06	-1.533307e-09	-3.379362e+01	-1.037003e+02
5.900000e-07	-4.841950e-06	-1.484832e-09	-3.363721e+01	-1.034411e+02
6.000000e-07	-4.819046e-06	-1.546028e-09	-3.347810e+01	-1.031761e+02
6.100000e-07	-4.795890e-06	-1.544382e-09	-3.331723e+01	-1.029053e+02
6.200000e-07	-4.772434e-06	-1.479153e-09	-3.315428e+01	-1.026289e+02
6.300000e-07	-4.748802e-06	-1.516695e-09	-3.299011e+01	-1.023469e+02
6.400000e-07	-4.724927e-06	-1.536534e-09	-3.282424e+01	-1.020594e+02
6.500000e-07	-4.700631e-06	-1.484637e-09	-3.265546e+01	-1.017665e+02
6.600000e-07	-4.675963e-06	-1.483762e-09	-3.248409e+01	-1.014682e+02
6.700000e-07	-4.650900e-06	-1.511816e-09	-3.230998e+01	-1.011647e+02
6.800000e-07	-4.625293e-06	-1.469805e-09	-3.213208e+01	-1.008560e+02
6.900000e-07	-4.599185e-06	-1.458765e-09	-3.195071e+01	-1.005423e+02
7.000000e-07	-4.572536e-06	-1.486750e-09	-3.176558e+01	-1.002235e+02
7.100000e-07	-4.545403e-06	-1.474464e-09	-3.157709e+01	-9.989982e+01
7.200000e-07	-4.518037e-06	-1.449989e-09	-3.138697e+01	-9.957130e+01
7.300000e-07	-4.490515e-06	-1.465539e-09	-3.119577e+01	-9.923803e+01
7.400000e-07	-4.462823e-06	-1.455997e-09	-3.100340e+01	-9.890006e+01
7.500000e-07	-4.434844e-06	-1.433578e-09	-3.080903e+01	-9.855746e+01
7.600000e-07	-4.406514e-06	-1.432972e-09	-3.061222e+01	-9.821028e+01
7.700000e-07	-4.377934e-06	-1.437260e-09	-3.041367e+01	-9.785858e+01
7.800000e-07	-4.349109e-06	-1.420483e-09	-3.021342e+01	-9.750240e+01
7.900000e-07	-4.320008e-06	-1.417920e-09	-3.001126e+01	-9.714176e+01
8.000000e-07	-4.290602e-06	-1.417201e-09	-2.980697e+01	-9.677669e+01
8.100000e-07	-4.260874e-06	-1.400153e-09	-2.960045e+01	-9.640721e+01
8.200000e-07	-4.230907e-06	-1.389768e-09	-2.939227e+01	-9.603333e+01
8.300000e-07	-4.200659e-06	-1.386070e-09	-2.918214e+01	-9.565504e+01
8.400000e-07	-4.170041e-06	-1.373428e-09	-2.896943e+01	-9.527233e+01
8.500000e-07	-4.139075e-06	-1.361027e-09	-2.875431e+01	-9.488517e+01
8.600000e-07	-4.107913e-06	-1.367052e-09	-2.853783e+01	-9.449356e+01
8.700000e-07	-4.076597e-06	-1.365095e-09	-2.832027e+01	-9.409744e+01
8.800000e-07	-4.044998e-06	-1.352825e-09	-2.810075e+01	-9.369677e+01
8.900000e-07	-4.013176e-06	-1.343092e-09	-2.787968e+01	-9.329151e+01
9.000000e-07	-3.981213e-06	-1.336054e-09	-2.765764e+01	-9.288160e+01
9.100000e-07	-3.948957e-06	-1.318886e-09	-2.743355e+01	-9.246698e+01
9.200000e-07	-3.916276e-06	-1.314518e-09	-2.720652e+01	-9.204757e+01
9.300000e-07	-3.883199e-06	-1.315291e-09	-2.697673e+01	-9.162332e+01
9.400000e-07	-3.849811e-06	-1.307661e-09	-2.674478e+01	-9.119414e+01
9.500000e-07	-3.816013e-06	-1.299005e-09	-2.650999e+01	-9.075996e+01
9.600000e-07	-3.781731e-06	-1.302975e-09	-2.627183e+01	-9.032070e+01
9.700000e-07	-3.746986e-06	-1.290845e-09	-2.603046e+01	-8.987629e+01
9.800000e-07	-3.711863e-06	-1.275562e-09	-2.578645e+01	-8.942664e+01
9.900000e-07	-3.676546e-06	-1.271329e-09	-2.554111e+01	-8.897168e+01
1.000000e-06	-3.641091e-06	-1.270980e-09	-2.529480e+01	-8.851133e+01
1.010000e-06	-3.605465e-06	-1.261163e-09	-2.504730e+01	-8.804552e+01
1.020000e-06	-3.569678e-06	-1.258889e-09	-2.479869e+01	-8.757419e+01
1.030000e-06	-3.533713e-06	-1.258387e-09	-2.454884e+01	-8.709726e+01
1.040000e-06	-3.497607e-06	-1.245750e-09	-2.429801e+01	-8.661469e+01
1.050000e-06	-3.461246e-06	-1.232696e-09	-2.404541e+01	-8.612640e+01
1.060000e-06	-3.424629e-06	-1.229525e-09	-2.379103e+01	-8.563236e+01
1.070000e-06	-3.387734e-06	-1.221183e-09	-2.353472e+01	-8.513252e+01
1.080000e-06	-3.350454e-06	-1.208949e-09	-2.327573e+01	-8.462684e+01
1.090000e-06	-3.312980e-06	-1.204939e-09	-2.301540e+01	-8.411529e+01
1.100000e-06	-3.275356e-06	-1.201471e-09	-2.275402e+01	-8.359785e+01
1.110000e-06	-3.237485e-06	-1.190714e-09	-2.249093e+01	-8.307450e+01
1.120000e-06	-3.199351e-06	-1.182479e-09	-2.222601e+01	-8.254521e+01
1.130000e-06	-3.160994e-06	-1.177857e-09	-2.195954e+01	-8.200999e+01
1.140000e-06	-3.122431e-06	-1.166263e-09	-2.169165e+01	-8.146882e+01
1.150000e-06	-3.083633e-06	-1.155792e-09	-2.142212e+01	-8.092171e+01
1.160000e-06	-3.044677e-06	-1.149706e-09	-2.115149e+01	-8.036866e+01
1.170000e-06	-3.005540e-06	-1.142057e-09	-2.087960e+01	-7.980967e+01
1.180000e-06	-2.966225e-06	-1.128332e-09	-2.060648e+01	-7.924475e+01
1.190000e-06	-2.926821e-06	-1.120178e-09	-2.033274e+01	-7.867390e+01
1.200000e-06	-2.887225e-06	-1.112538e-09	-2.005766e+01	-7.809713e+01
1.210000e-06	-2.847452e-06	-1.102877e-09	-1.978136e+01	-7.751442e+01
1.220000e-06	-2.807614e-06	-1.092801e-09	-1.950460e+01	-7.692579e+01
1.230000e-06	-2.767590e-06	-1.086105e-09	-1.922656e+01	-7.633122e+01
1.240000e-06	-2.727324e-06	-1.072947e-09	-1.894682e+01	-7.573070e+01
1.250000e-06	-2.686850e-06	-1.058886e-09	-1.866565e+01	-7.512419e+01
1.260000e-06	-2.646157e-06	-1.050540e-09	-1.838296e+01	-7.451166e+01
1.270000e-06	-2.605259e-06	-1.042855e-09	-1.809883e+01	-7.389305e+01
1.280000e-06	-2.564032e-06	-1.033352e-09	-1.781243e+01	-7.326832e+01
1.290000e-06	-2.522506e-06	-1.025016e-09	-1.752395e+01	-7.263737e+01
1.300000e-06	-2.480586e-06	-1.013547e-09	-1.723272e+01	-7.200011e+01
1.310000e-06	-2.438297e-06	-9.997117e-10	-1.693894e+01	-7.135644e+01
1.320000e-06	-2.395872e-06	-9.853837e-10	-1.664421e+01	-7.070620e+01
1.330000e-06	-2.353219e-06	-9.741892e-10	-1.634790e+01	-7.004925e+01
1.340000e-06	-2.310321e-06	-9.620544e-10	-1.604989e+01	-6.938542e+01
1.350000e-06	-2.267212e-06	-9.506517e-10	-1.575041e+01	-6.871449e+01
1.360000e-06	-2.223896e-06	-9.394191e-10	-1.544949e+01	-6.803624e+01
1.370000e-06	-2.180499e-06	-9.289910e-10	-1.514801e+01	-6.735042e+01
1.380000e-06	-2.137030e-06	-9.177011e-10	-1.484603e+01	-6.665676e+01
1.390000e-06	-2.093426e-06	-9.049678e-10	-1.454311e+01	-6.595494e+01
1.400000e-06	-2.049677e-06	-8.903112e-10	-1.423918e+01	-6.524464e+01
1.410000e-06	-2.005841e-06	-8.742312e-10	-1.393465e+01	-6.452550e+01
1.420000e-06	-1.961986e-06	-8.607257e-10	-1.362999e+01	-6.379714e+01
1.430000e-06	-1.918064e-06	-8.507324e-10	-1.332486e+01	-6.305915e+01
1.440000e-06	-1.874009e-06	-8.406421e-10	-1.301881e+01	-6.231108e+01
1.450000e-06	-1.829794e-06	-8.280552e-10	-1.271165e+01	-6.155249e+01
1.460000e-06	-1.785457e-06	-8.152034e-10	-1.240364e+01	-6.078288e+01
1.470000e-06	-1.741004e-06	-8.018012e-10	-1.209482e+01	-6.000176e+01
1.480000e-06	-1.696430e-06	-7.873210e-10	-1.178516e+01	-5.920859e+01
1.490000e-06	-1.651729e-06	-7.729593e-10	-1.147463e+01	-5.840282e+01
1.500000e-06	-1.606904e-06	-7.635943e-10	-1.116322e+01	-5.758390e+01
1.510000e-06	-1.561926e-06	-7.545622e-10	-1.085076e+01	-5.675125e+01
1.520000e-06	-1.516845e-06	-7.442660e-10	-1.053758e+01	-5.590428e+01
1.530000e-06	-1.471692e-06	-7.320386e-10	-1.022390e+01	-5.504238e+01
1.540000e-06	-1.426420e-06	-7.216517e-10	-9.909392e+00	-5.416496e+01
1.550000e-06	-1.381014e-06	-7.084931e-10	-9.593959e+00	-5.327140e+01
1.560000e-06	-1.335552e-06	-6.928711e-10	-9.278130e+00	-5.236108e+01
1.570000e-06	-1.290041e-06	-6.770018e-10	-8.961962e+00	-5.143342e+01
1.580000e-06	-1.244448e-06	-6.624728e-10	-8.645230e+00	-5.048779e+01
1.590000e-06	-1.198767e-06	-6.457431e-10	-8.327880e+00	-4.952361e+01
1.600000e-06	-1.152989e-06	-6.306211e-10	-8.009861e+00	-4.854030e+01
1.610000e-06	-1.107198e-06	-6.154398e-10	-7.691747e+00	-4.753729e+01
1.620000e-06	-1.061314e-06	-5.980679e-10	-7.372990e+00	-4.651405e+01
1.630000e-06	-1.015209e-06	-5.800143e-10	-7.052694e+00	-4.547006e+01
1.640000e-06	-9.689551e-07	-5.658559e-10	-6.731368e+00	-4.440482e+01
1.650000e-06	-9.227503e-07	-5.545005e-10	-6.410381e+00	-4.331788e+01
1.660000e-06	-8.765738e-07	-5.396836e-10	-6.089591e+00	-4.220881e+01
1.670000e-06	-8.302509e-07	-5.228054e-10	-5.767784e+00	-4.107723e+01
1.680000e-06	-7.837740e-07	-5.045877e-10	-5.444908e+00	-3.992280e+01
1.690000e-06	-7.373151e-07	-4.861542e-10	-5.122156e+00	-3.874522e+01
1.700000e-06	-6.908451e-07	-4.689634e-10	-4.799327e+00	-3.754425e+01
1.710000e-06	-6.442792e-07	-4.543815e-10	-4.475832e+00	-3.631968e+01
1.720000e-06	-5.975893e-07	-4.378018e-10	-4.151476e+00	-3.507138e+01
1.730000e-06	-5.508471e-07	-4.193215e-10	-3.826755e+00	-3.379926e+01
1.740000e-06	-5.041611e-07	-4.006293e-10	-3.502426e+00	-3.250329e+01
1.750000e-06	-4.574327e-07	-3.815874e-10	-3.177802e+00	-3.118351e+01
1.760000e-06	-4.106977e-07	-3.610746e-10	-2.853132e+00	-2.984002e+01
1.770000e-06	-3.639752e-07	-3.413452e-10	-2.528549e+00	-2.847299e+01
1.780000e-06	-3.171979e-07	-3.227699e-10	-2.203586e+00	-2.708264e+01
1.790000e-06	-2.703477e-07	-3.036168e-10	-1.878116e+00	-2.566926e+01
1.800000e-06	-2.234209e-07	-2.843410e-10	-1.552113e+00	-2.423323e+01
1.810000e-06	-1.764674e-07	-2.655734e-10	-1.225926e+00	-2.277498e+01
1.820000e-06	-1.295240e-07	-2.461502e-10	-8.998081e-01	-2.129500e+01
1.830000e-06	-8.266857e-08	-2.252831e-10	-5.743017e-01	-1.979386e+01
1.840000e-06	-3.588231e-08	-2.034136e-10	-2.492757e-01	-1.827219e+01
1.850000e-06	1.089161e-08	-1.823053e-10	7.566444e-02	-1.673069e+01
1.860000e-06	5.769465e-08	-1.617668e-10	4.008069e-01	-1.517013e+01
1.870000e-06	1.045316e-07	-1.392879e-10	7.261851e-01	-1.359133e+01
1.880000e-06	1.513629e-07	-1.159422e-10	1.051524e+00	-1.199517e+01
1.890000e-06	1.981582e-07	-9.475943e-11	1.376613e+00	-1.038260e+01
1.900000e-06	2.449229e-07	-7.492066e-11	1.701489e+00	-8.754620e+00
1.910000e-06	2.917841e-07	-5.582381e-11	2.027035e+00	-7.112271e+00
1.920000e-06	3.386628e-07	-3.620347e-11	2.352703e+00	-5.456659e+00
1.930000e-06	3.854381e-07	-1.198307e-11	2.677653e+00	-3.788927e+00
1.940000e-06	4.320619e-07	1.713890e-11	3.001550e+00	-2.110262e+00
1.950000e-06	4.786834e-07	4.350815e-11	3.325432e+00	-4.218909e-01
1.960000e-06	5.253877e-07	7.032303e-11	3.649888e+00	1.274929e+00
1.970000e-06	5.720253e-07	9.234360e-11	3.973881e+00	2.978909e+00
1.980000e-06	6.184949e-07	1.120244e-10	4.296708e+00	4.688735e+00
1.990000e-06	6.648380e-07	1.325359e-10	4.618655e+00	6.403074e+00
2.000000e-06	7.111211e-07	1.546220e-10	4.940186e+00	8.120575e+00
2.010000e-06	7.573342e-07	1.801987e-10	5.261230e+00	9.839876e+00
2.020000e-06	8.034856e-07	2.059201e-10	5.581845e+00	1.155961e+01
2.030000e-06	8.495484e-07	2.323920e-10	5.901845e+00	1.327841e+01
2.040000e-06	8.956750e-07	2.579603e-10	6.222288e+00	1.499491e+01
2.050000e-06	9.418972e-07	2.832648e-10	6.543395e+00	1.670774e+01
2.060000e-06	9.879969e-07	3.060059e-10	6.863652e+00	1.841557e+01
2.070000e-06	1.033937e-06	3.289619e-10	7.182801e+00	2.011707e+01
2.080000e-06	1.079831e-06	3.505708e-10	7.501626e+00	2.181093e+01
2.090000e-06	1.125651e-06	3.732108e-10	7.819939e+00	2.349586e+01
2.100000e-06	1.171373e-06	3.992624e-10	8.137570e+00	2.517063e+01
2.110000e-06	1.217014e-06	4.234037e-10	8.454643e+00	2.683401e+01
2.120000e-06	1.262629e-06	4.449394e-10	8.771534e+00	2.848482e+01
2.130000e-06	1.308170e-06	4.662384e-10	9.087907e+00	3.012194e+01
2.140000e-06	1.353560e-06	4.886277e-10	9.403235e+00	3.174427e+01
2.150000e-06	1.398838e-06	5.113973e-10	9.717781e+00	3.335077e+01
2.160000e-06	1.444025e-06	5.307133e-10	1.003170e+01	3.494045e+01
2.170000e-06	1.489141e-06	5.507972e-10	1.034512e+01	3.651238e+01
2.180000e-06	1.534168e-06	5.701603e-10	1.065792e+01	3.806567e+01
2.190000e-06	1.579115e-06	5.903805e-10	1.097017e+01	3.959950e+01
2.200000e-06	1.623894e-06	6.112348e-10	1.128125e+01	4.111312e+01
2.210000e-06	1.668510e-06	6.314797e-10	1.159120e+01	4.260582e+01
2.220000e-06	1.713123e-06	6.496256e-10	1.190113e+01	4.407696e+01
2.230000e-06	1.757640e-06	6.657316e-10	1.221039e+01	4.552598e+01
2.240000e-06	1.801918e-06	6.833387e-10	1.251799e+01	4.695236e+01
2.250000e-06	1.845987e-06	7.018227e-10	1.282414e+01	4.835565e+01
2.260000e-06	1.889932e-06	7.226468e-10	1.312943e+01	4.973548e+01
2.270000e-06	1.933812e-06	7.439374e-10	1.343426e+01	5.109153e+01
2.280000e-06	1.977554e-06	7.635822e-10	1.373814e+01	5.242353e+01
2.290000e-06	2.021196e-06	7.814507e-10	1.404132e+01	5.373130e+01
2.300000e-06	2.064806e-06	7.977691e-10	1.434428e+01	5.501470e+01
2.310000e-06	2.108377e-06	8.108522e-10	1.464698e+01	5.627366e+01
2.320000e-06	2.151929e-06	8.233522e-10	1.494953e+01	5.750815e+01
2.330000e-06	2.195430e-06	8.391496e-10	1.525173e+01	5.871822e+01
2.340000e-06	2.238867e-06	8.575169e-10	1.555349e+01	5.990395e+01
2.350000e-06	2.282226e-06	8.757283e-10	1.585471e+01	6.106549e+01
2.360000e-06	2.325398e-06	8.916177e-10	1.615463e+01	6.220302e+01
2.370000e-06	2.368335e-06	9.046056e-10	1.645291e+01	6.331677e+01
2.380000e-06	2.411040e-06	9.165395e-10	1.674959e+01	6.440702e+01
2.390000e-06	2.453487e-06	9.305028e-10	1.704447e+01	6.547407e+01
2.400000e-06	2.495622e-06	9.451729e-10	1.733718e+01	6.651829e+01
2.410000e-06	2.537430e-06	9.582614e-10	1.762762e+01	6.754005e+01
2.420000e-06	2.578858e-06	9.720544e-10	1.791543e+01	6.853976e+01
2.430000e-06	2.619780e-06	9.866789e-10	1.819971e+01	6.951786e+01
2.440000e-06	2.660408e-06	9.989753e-10	1.848196e+01	7.047481e+01
2.450000e-06	2.700891e-06	1.008745e-09	1.876319e+01	7.141109e+01
2.460000e-06	2.741129e-06	1.019389e-09	1.904273e+01	7.232719e+01
2.470000e-06	2.781154e-06	1.030457e-09	1.932078e+01	7.322363e+01
2.480000e-06	2.821019e-06	1.042666e-09	1.959773e+01	7.410091e+01
2.490000e-06	2.860787e-06	1.054980e-09	1.987399e+01	7.495957e+01
2.500000e-06	2.900445e-06	1.066381e-09	2.014950e+01	7.580014e+01
2.510000e-06	2.939978e-06	1.079189e-09	2.042414e+01	7.662314e+01
2.520000e-06	2.979350e-06	1.093772e-09	2.069766e+01	7.742910e+01
2.530000e-06	3.018560e-06	1.106971e-09	2.097005e+01	7.821854e+01
2.540000e-06	3.057586e-06	1.118293e-09	2.124116e+01	7.899199e+01
2.550000e-06	3.096332e-06	1.128223e-09	2.151033e+01	7.974995e+01
2.560000e-06	3.134840e-06	1.137816e-09	2.177785e+01	8.049291e+01
2.570000e-06	3.173150e-06	1.148253e-09	2.204400e+01	8.122135e+01
2.580000e-06	3.211289e-06	1.160603e-09	2.230894e+01	8.193576e+01
2.590000e-06	3.249242e-06	1.175694e-09	2.257260e+01	8.263657e+01
2.600000e-06	3.286998e-06	1.190298e-09	2.283490e+01	8.332422e+01
2.610000e-06	3.324554e-06	1.200573e-09	2.309580e+01	8.399912e+01
2.620000e-06	3.361870e-06	1.206957e-09	2.335504e+01	8.466168e+01
2.630000e-06	3.398917e-06	1.213690e-09	2.361241e+01	8.531226e+01
2.640000e-06	3.435715e-06	1.221774e-09	2.386804e+01	8.595121e+01
2.650000e-06	3.472274e-06	1.231442e-09	2.412202e+01	8.657887e+01
2.660000e-06	3.508516e-06	1.243195e-09	2.437380e+01	8.719554e+01
2.670000e-06	3.544526e-06	1.255049e-09	2.462396e+01	8.780151e+01
2.680000e-06	3.580359e-06	1.266419e-09	2.487289e+01	8.839705e+01
2.690000e-06	3.616024e-06	1.275954e-09	2.512065e+01	8.898240e+01
2.700000e-06	3.651569e-06	1.280142e-09	2.536759e+01	8.955778e+01
2.710000e-06	3.686992e-06	1.284234e-09	2.561368e+01	9.012339e+01
2.720000e-06	3.722270e-06	1.293108e-09	2.585875e+01	9.067942e+01
2.730000e-06	3.757303e-06	1.302138e-09	2.610212e+01	9.122604e+01
2.740000e-06	3.791939e-06	1.310494e-09	2.634274e+01	9.176337e+01
2.750000e-06	3.826134e-06	1.319115e-09	2.658030e+01	9.229156e+01
2.760000e-06	3.859894e-06	1.325217e-09	2.681483e+01	9.281072e+01
2.770000e-06	3.893179e-06	1.329432e-09	2.704606e+01	9.332094e+01
2.780000e-06	3.925955e-06	1.334758e-09	2.727376e+01	9.382232e+01
2.790000e-06	3.958372e-06	1.341544e-09	2.749896e+01	9.431492e+01
2.800000e-06	3.990516e-06	1.347394e-09	2.772226e+01	9.479881e+01
2.810000e-06	4.022370e-06	1.355035e-09	2.794355e+01	9.527405e+01
2.820000e-06	4.054097e-06	1.363486e-09	2.816397e+01	9.574068e+01
2.830000e-06	4.085659e-06	1.368811e-09	2.838323e+01	9.619873e+01
2.840000e-06	4.117023e-06	1.372872e-09	2.860111e+01	9.664826e+01
2.850000e-06	4.148163e-06	1.378038e-09	2.881744e+01	9.708928e+01
2.860000e-06	4.178988e-06	1.383191e-09	2.903159e+01	9.752182e+01
2.870000e-06	4.209543e-06	1.388787e-09	2.924386e+01	9.794592e+01
2.880000e-06	4.239748e-06	1.396080e-09	2.945369e+01	9.836160e+01
2.890000e-06	4.269541e-06	1.401446e-09	2.966066e+01	9.876889e+01
2.900000e-06	4.299126e-06	1.405765e-09	2.986619e+01	9.916782e+01
