# Temperatura_=_-0.3
# Concentracion g/m^3_=_1620.0
# C_Vs_to_Am_M_A/Vsm_=_65563218390.804596
# pendiente_HvsI_1/m_=_3716.3
# ordenada_HvsI_A/m_=_1297.0
# frecuencia_Hz_=_135100.94299529557

Tiempo_(s)	Campo_(V.s)	Magnetizacion_(V.s)	Campo_(kA/m)	Magnetizacion_(A/m)
0.000000e+00	-5.511775e-06	-1.571265e-09	-3.838339e+01	-1.024017e+02
1.000000e-08	-5.511946e-06	-1.571327e-09	-3.838458e+01	-1.023227e+02
2.000000e-08	-5.511786e-06	-1.570998e-09	-3.838347e+01	-1.022430e+02
3.000000e-08	-5.511280e-06	-1.570846e-09	-3.837994e+01	-1.021631e+02
4.000000e-08	-5.510304e-06	-1.569741e-09	-3.837314e+01	-1.020831e+02
5.000000e-08	-5.508760e-06	-1.571707e-09	-3.836239e+01	-1.020033e+02
6.000000e-08	-5.506649e-06	-1.592032e-09	-3.834769e+01	-1.019240e+02
7.000000e-08	-5.503974e-06	-1.619153e-09	-3.832906e+01	-1.018454e+02
8.000000e-08	-5.500815e-06	-1.601273e-09	-3.830706e+01	-1.017675e+02
9.000000e-08	-5.497261e-06	-1.501854e-09	-3.828232e+01	-1.016906e+02
1.000000e-07	-5.493266e-06	-1.444549e-09	-3.825449e+01	-1.016146e+02
1.100000e-07	-5.488971e-06	-1.534324e-09	-3.822458e+01	-1.015397e+02
1.200000e-07	-5.484572e-06	-1.686064e-09	-3.819395e+01	-1.014658e+02
1.300000e-07	-5.479825e-06	-1.619306e-09	-3.816090e+01	-1.013930e+02
1.400000e-07	-5.474613e-06	-1.522123e-09	-3.812459e+01	-1.013212e+02
1.500000e-07	-5.469035e-06	-1.526052e-09	-3.808575e+01	-1.012502e+02
1.600000e-07	-5.463132e-06	-1.660548e-09	-3.804465e+01	-1.011799e+02
1.700000e-07	-5.456794e-06	-1.602861e-09	-3.800051e+01	-1.011102e+02
1.800000e-07	-5.450044e-06	-1.473949e-09	-3.795350e+01	-1.010408e+02
1.900000e-07	-5.442974e-06	-1.485309e-09	-3.790426e+01	-1.009716e+02
2.000000e-07	-5.435508e-06	-1.595990e-09	-3.785228e+01	-1.009022e+02
2.100000e-07	-5.427742e-06	-1.621253e-09	-3.779819e+01	-1.008324e+02
2.200000e-07	-5.419744e-06	-1.521478e-09	-3.774249e+01	-1.007619e+02
2.300000e-07	-5.411412e-06	-1.498953e-09	-3.768447e+01	-1.006903e+02
2.400000e-07	-5.402614e-06	-1.520217e-09	-3.762320e+01	-1.006173e+02
2.500000e-07	-5.393198e-06	-1.548930e-09	-3.755763e+01	-1.005425e+02
2.600000e-07	-5.383159e-06	-1.498719e-09	-3.748772e+01	-1.004655e+02
2.700000e-07	-5.372531e-06	-1.511445e-09	-3.741371e+01	-1.003861e+02
2.800000e-07	-5.361388e-06	-1.507437e-09	-3.733611e+01	-1.003037e+02
2.900000e-07	-5.349916e-06	-1.517742e-09	-3.725622e+01	-1.002179e+02
3.000000e-07	-5.338007e-06	-1.478075e-09	-3.717329e+01	-1.001285e+02
3.100000e-07	-5.325657e-06	-1.494428e-09	-3.708729e+01	-1.000351e+02
3.200000e-07	-5.312922e-06	-1.503724e-09	-3.699860e+01	-9.993712e+01
3.300000e-07	-5.299799e-06	-1.529701e-09	-3.690721e+01	-9.983436e+01
3.400000e-07	-5.286281e-06	-1.494583e-09	-3.681308e+01	-9.972644e+01
3.500000e-07	-5.272343e-06	-1.483420e-09	-3.671601e+01	-9.961301e+01
3.600000e-07	-5.257980e-06	-1.487800e-09	-3.661599e+01	-9.949378e+01
3.700000e-07	-5.243107e-06	-1.491985e-09	-3.651241e+01	-9.936843e+01
3.800000e-07	-5.227706e-06	-1.466082e-09	-3.640517e+01	-9.923671e+01
3.900000e-07	-5.211874e-06	-1.484891e-09	-3.629491e+01	-9.909837e+01
4.000000e-07	-5.195640e-06	-1.494393e-09	-3.618186e+01	-9.895320e+01
4.100000e-07	-5.178979e-06	-1.453849e-09	-3.606583e+01	-9.880101e+01
4.200000e-07	-5.161974e-06	-1.456809e-09	-3.594741e+01	-9.864163e+01
4.300000e-07	-5.144666e-06	-1.501492e-09	-3.582688e+01	-9.847494e+01
4.400000e-07	-5.126951e-06	-1.473511e-09	-3.570351e+01	-9.830085e+01
4.500000e-07	-5.108815e-06	-1.408678e-09	-3.557722e+01	-9.811927e+01
4.600000e-07	-5.090315e-06	-1.464933e-09	-3.544839e+01	-9.793018e+01
4.700000e-07	-5.071464e-06	-1.491064e-09	-3.531711e+01	-9.773357e+01
4.800000e-07	-5.052353e-06	-1.431381e-09	-3.518403e+01	-9.752946e+01
4.900000e-07	-5.033037e-06	-1.416134e-09	-3.504951e+01	-9.731790e+01
5.000000e-07	-5.013459e-06	-1.471520e-09	-3.491317e+01	-9.709896e+01
5.100000e-07	-4.993564e-06	-1.423085e-09	-3.477463e+01	-9.687275e+01
5.200000e-07	-4.973339e-06	-1.403944e-09	-3.463378e+01	-9.663939e+01
5.300000e-07	-4.952796e-06	-1.453868e-09	-3.449072e+01	-9.639903e+01
5.400000e-07	-4.931882e-06	-1.441718e-09	-3.434508e+01	-9.615184e+01
5.500000e-07	-4.910508e-06	-1.369626e-09	-3.419623e+01	-9.589799e+01
5.600000e-07	-4.888766e-06	-1.419076e-09	-3.404482e+01	-9.563770e+01
5.700000e-07	-4.866745e-06	-1.443561e-09	-3.389147e+01	-9.537116e+01
5.800000e-07	-4.844411e-06	-1.385685e-09	-3.373594e+01	-9.509860e+01
5.900000e-07	-4.821670e-06	-1.380392e-09	-3.357758e+01	-9.482025e+01
6.000000e-07	-4.798641e-06	-1.432412e-09	-3.341721e+01	-9.453634e+01
6.100000e-07	-4.775394e-06	-1.391557e-09	-3.325531e+01	-9.424710e+01
6.200000e-07	-4.751863e-06	-1.369412e-09	-3.309144e+01	-9.395277e+01
6.300000e-07	-4.728142e-06	-1.409128e-09	-3.292626e+01	-9.365357e+01
6.400000e-07	-4.704105e-06	-1.404304e-09	-3.275887e+01	-9.334973e+01
6.500000e-07	-4.679668e-06	-1.367461e-09	-3.258869e+01	-9.304147e+01
6.600000e-07	-4.654877e-06	-1.390236e-09	-3.241605e+01	-9.272898e+01
6.700000e-07	-4.629570e-06	-1.389635e-09	-3.223981e+01	-9.241246e+01
6.800000e-07	-4.603686e-06	-1.351160e-09	-3.205956e+01	-9.209208e+01
6.900000e-07	-4.577263e-06	-1.355044e-09	-3.187555e+01	-9.176801e+01
7.000000e-07	-4.550433e-06	-1.367307e-09	-3.168871e+01	-9.144038e+01
7.100000e-07	-4.523288e-06	-1.342629e-09	-3.149968e+01	-9.110932e+01
7.200000e-07	-4.495841e-06	-1.336797e-09	-3.130854e+01	-9.077493e+01
7.300000e-07	-4.468228e-06	-1.360791e-09	-3.111624e+01	-9.043728e+01
7.400000e-07	-4.440394e-06	-1.346677e-09	-3.092241e+01	-9.009644e+01
7.500000e-07	-4.412277e-06	-1.331168e-09	-3.072661e+01	-8.975244e+01
7.600000e-07	-4.383944e-06	-1.333624e-09	-3.052930e+01	-8.940530e+01
7.700000e-07	-4.355342e-06	-1.327996e-09	-3.033012e+01	-8.905500e+01
7.800000e-07	-4.326421e-06	-1.307045e-09	-3.012872e+01	-8.870151e+01
7.900000e-07	-4.297212e-06	-1.310045e-09	-2.992531e+01	-8.834478e+01
8.000000e-07	-4.267681e-06	-1.302831e-09	-2.971966e+01	-8.798473e+01
8.100000e-07	-4.237843e-06	-1.286388e-09	-2.951187e+01	-8.762127e+01
8.200000e-07	-4.207769e-06	-1.277997e-09	-2.930244e+01	-8.725430e+01
8.300000e-07	-4.177438e-06	-1.281792e-09	-2.909121e+01	-8.688367e+01
8.400000e-07	-4.146847e-06	-1.266630e-09	-2.887818e+01	-8.650924e+01
8.500000e-07	-4.115932e-06	-1.262794e-09	-2.866289e+01	-8.613087e+01
8.600000e-07	-4.084664e-06	-1.265330e-09	-2.844515e+01	-8.574838e+01
8.700000e-07	-4.053172e-06	-1.259415e-09	-2.822584e+01	-8.536158e+01
8.800000e-07	-4.021552e-06	-1.243146e-09	-2.800564e+01	-8.497031e+01
8.900000e-07	-3.989810e-06	-1.240594e-09	-2.778459e+01	-8.457436e+01
9.000000e-07	-3.957808e-06	-1.228305e-09	-2.756174e+01	-8.417354e+01
9.100000e-07	-3.925461e-06	-1.214229e-09	-2.733648e+01	-8.376767e+01
9.200000e-07	-3.892755e-06	-1.211117e-09	-2.710871e+01	-8.335654e+01
9.300000e-07	-3.859702e-06	-1.209764e-09	-2.687853e+01	-8.293997e+01
9.400000e-07	-3.826336e-06	-1.197335e-09	-2.664618e+01	-8.251777e+01
9.500000e-07	-3.792478e-06	-1.192171e-09	-2.641040e+01	-8.208978e+01
9.600000e-07	-3.758041e-06	-1.189768e-09	-2.617058e+01	-8.165583e+01
9.700000e-07	-3.723214e-06	-1.175582e-09	-2.592805e+01	-8.121576e+01
9.800000e-07	-3.688131e-06	-1.162196e-09	-2.568374e+01	-8.076944e+01
9.900000e-07	-3.652819e-06	-1.158989e-09	-2.543783e+01	-8.031674e+01
1.000000e-06	-3.617371e-06	-1.152714e-09	-2.519097e+01	-7.985757e+01
1.010000e-06	-3.581777e-06	-1.140340e-09	-2.494310e+01	-7.939182e+01
1.020000e-06	-3.545972e-06	-1.137480e-09	-2.469375e+01	-7.891943e+01
1.030000e-06	-3.509981e-06	-1.132589e-09	-2.444312e+01	-7.844035e+01
1.040000e-06	-3.473786e-06	-1.122318e-09	-2.419106e+01	-7.795454e+01
1.050000e-06	-3.437326e-06	-1.115213e-09	-2.393716e+01	-7.746201e+01
1.060000e-06	-3.400612e-06	-1.111309e-09	-2.368149e+01	-7.696275e+01
1.070000e-06	-3.363669e-06	-1.097814e-09	-2.342422e+01	-7.645680e+01
1.080000e-06	-3.326442e-06	-1.088023e-09	-2.316498e+01	-7.594420e+01
1.090000e-06	-3.288958e-06	-1.080994e-09	-2.290394e+01	-7.542503e+01
1.100000e-06	-3.251241e-06	-1.072572e-09	-2.264128e+01	-7.489937e+01
1.110000e-06	-3.213306e-06	-1.058466e-09	-2.237711e+01	-7.436733e+01
1.120000e-06	-3.175172e-06	-1.052839e-09	-2.211155e+01	-7.382902e+01
1.130000e-06	-3.136784e-06	-1.043583e-09	-2.184422e+01	-7.328458e+01
1.140000e-06	-3.098201e-06	-1.033355e-09	-2.157553e+01	-7.273415e+01
1.150000e-06	-3.059435e-06	-1.026317e-09	-2.130557e+01	-7.217789e+01
1.160000e-06	-3.020400e-06	-1.023269e-09	-2.103373e+01	-7.161597e+01
1.170000e-06	-2.981190e-06	-1.012289e-09	-2.076067e+01	-7.104854e+01
1.180000e-06	-2.941888e-06	-9.986762e-10	-2.048698e+01	-7.047578e+01
1.190000e-06	-2.902487e-06	-9.868244e-10	-2.021260e+01	-6.989788e+01
1.200000e-06	-2.862947e-06	-9.771789e-10	-1.993725e+01	-6.931499e+01
1.210000e-06	-2.823218e-06	-9.670205e-10	-1.966057e+01	-6.872728e+01
1.220000e-06	-2.783358e-06	-9.620117e-10	-1.938299e+01	-6.813493e+01
1.230000e-06	-2.743402e-06	-9.575119e-10	-1.910475e+01	-6.753806e+01
1.240000e-06	-2.703259e-06	-9.496184e-10	-1.882519e+01	-6.693684e+01
1.250000e-06	-2.662882e-06	-9.411141e-10	-1.854402e+01	-6.633137e+01
1.260000e-06	-2.622315e-06	-9.315447e-10	-1.826151e+01	-6.572176e+01
1.270000e-06	-2.581529e-06	-9.201236e-10	-1.797748e+01	-6.510810e+01
1.280000e-06	-2.540418e-06	-9.102654e-10	-1.769119e+01	-6.449044e+01
1.290000e-06	-2.498992e-06	-9.038330e-10	-1.740270e+01	-6.386884e+01
1.300000e-06	-2.457325e-06	-8.950993e-10	-1.711254e+01	-6.324328e+01
1.310000e-06	-2.415289e-06	-8.828662e-10	-1.681981e+01	-6.261376e+01
1.320000e-06	-2.372809e-06	-8.715175e-10	-1.652398e+01	-6.198023e+01
1.330000e-06	-2.330065e-06	-8.618320e-10	-1.622632e+01	-6.134259e+01
1.340000e-06	-2.287152e-06	-8.500293e-10	-1.592747e+01	-6.070074e+01
1.350000e-06	-2.244086e-06	-8.426997e-10	-1.562756e+01	-6.005452e+01
1.360000e-06	-2.200877e-06	-8.361303e-10	-1.532666e+01	-5.940374e+01
1.370000e-06	-2.157498e-06	-8.273086e-10	-1.502458e+01	-5.874818e+01
1.380000e-06	-2.113951e-06	-8.140256e-10	-1.472132e+01	-5.808756e+01
1.390000e-06	-2.070337e-06	-8.000616e-10	-1.441760e+01	-5.742160e+01
1.400000e-06	-2.026661e-06	-7.853858e-10	-1.411344e+01	-5.674996e+01
1.410000e-06	-1.982859e-06	-7.738225e-10	-1.380841e+01	-5.607226e+01
1.420000e-06	-1.938982e-06	-7.640675e-10	-1.350286e+01	-5.538809e+01
1.430000e-06	-1.895026e-06	-7.567004e-10	-1.319675e+01	-5.469701e+01
1.440000e-06	-1.850984e-06	-7.484539e-10	-1.289005e+01	-5.399854e+01
1.450000e-06	-1.806848e-06	-7.396519e-10	-1.258269e+01	-5.329217e+01
1.460000e-06	-1.762583e-06	-7.272084e-10	-1.227443e+01	-5.257736e+01
1.470000e-06	-1.718199e-06	-7.131808e-10	-1.196535e+01	-5.185355e+01
1.480000e-06	-1.673681e-06	-6.969818e-10	-1.165533e+01	-5.112014e+01
1.490000e-06	-1.629021e-06	-6.844353e-10	-1.134432e+01	-5.037652e+01
1.500000e-06	-1.584219e-06	-6.766235e-10	-1.103232e+01	-4.962205e+01
1.510000e-06	-1.539318e-06	-6.694444e-10	-1.071964e+01	-4.885609e+01
1.520000e-06	-1.494285e-06	-6.597160e-10	-1.040604e+01	-4.807796e+01
1.530000e-06	-1.449169e-06	-6.472354e-10	-1.009185e+01	-4.728700e+01
1.540000e-06	-1.403981e-06	-6.350514e-10	-9.777171e+00	-4.648252e+01
1.550000e-06	-1.358668e-06	-6.229016e-10	-9.461614e+00	-4.566384e+01
1.560000e-06	-1.313264e-06	-6.093760e-10	-9.145425e+00	-4.483027e+01
1.570000e-06	-1.267721e-06	-5.967102e-10	-8.828269e+00	-4.398115e+01
1.580000e-06	-1.222083e-06	-5.844995e-10	-8.510447e+00	-4.311580e+01
1.590000e-06	-1.176350e-06	-5.690436e-10	-8.191974e+00	-4.223358e+01
1.600000e-06	-1.130524e-06	-5.540573e-10	-7.872846e+00	-4.133383e+01
1.610000e-06	-1.084690e-06	-5.404396e-10	-7.553659e+00	-4.041597e+01
1.620000e-06	-1.038803e-06	-5.256358e-10	-7.234110e+00	-3.947938e+01
1.630000e-06	-9.927750e-07	-5.085133e-10	-6.913575e+00	-3.852353e+01
1.640000e-06	-9.466576e-07	-4.941243e-10	-6.592419e+00	-3.754788e+01
1.650000e-06	-9.005683e-07	-4.816753e-10	-6.271458e+00	-3.655196e+01
1.660000e-06	-8.545135e-07	-4.702882e-10	-5.950737e+00	-3.553530e+01
1.670000e-06	-8.083385e-07	-4.574639e-10	-5.629179e+00	-3.449753e+01
1.680000e-06	-7.620178e-07	-4.418415e-10	-5.306607e+00	-3.343829e+01
1.690000e-06	-7.157058e-07	-4.238717e-10	-4.984096e+00	-3.235729e+01
1.700000e-06	-6.694245e-07	-4.049468e-10	-4.661798e+00	-3.125428e+01
1.710000e-06	-6.229816e-07	-3.851123e-10	-4.338375e+00	-3.012907e+01
1.720000e-06	-5.763803e-07	-3.665197e-10	-4.013849e+00	-2.898156e+01
1.730000e-06	-5.298251e-07	-3.479811e-10	-3.689643e+00	-2.781167e+01
1.740000e-06	-4.832789e-07	-3.306807e-10	-3.365501e+00	-2.661941e+01
1.750000e-06	-4.367433e-07	-3.148980e-10	-3.041432e+00	-2.540485e+01
1.760000e-06	-3.901767e-07	-2.986487e-10	-2.717147e+00	-2.416814e+01
1.770000e-06	-3.434686e-07	-2.813225e-10	-2.391877e+00	-2.290949e+01
1.780000e-06	-2.967037e-07	-2.622531e-10	-2.066211e+00	-2.162916e+01
1.790000e-06	-2.499211e-07	-2.425958e-10	-1.740423e+00	-2.032752e+01
1.800000e-06	-2.031411e-07	-2.245326e-10	-1.414652e+00	-1.900498e+01
1.810000e-06	-1.563605e-07	-2.065089e-10	-1.088877e+00	-1.766203e+01
1.820000e-06	-1.095713e-07	-1.880700e-10	-7.630425e-01	-1.629923e+01
1.830000e-06	-6.283177e-08	-1.695485e-10	-4.375535e-01	-1.491722e+01
1.840000e-06	-1.611513e-08	-1.507519e-10	-1.122240e-01	-1.351668e+01
1.850000e-06	3.057539e-08	-1.332478e-10	2.129237e-01	-1.209837e+01
1.860000e-06	7.727393e-08	-1.154854e-10	5.381271e-01	-1.066313e+01
1.870000e-06	1.239963e-07	-9.449298e-11	8.634965e-01	-9.211840e+00
1.880000e-06	1.706892e-07	-7.159809e-11	1.188661e+00	-7.745439e+00
1.890000e-06	2.174773e-07	-5.045230e-11	1.514488e+00	-6.264931e+00
1.900000e-06	2.643097e-07	-3.048119e-11	1.840623e+00	-4.771368e+00
1.910000e-06	3.110321e-07	-1.104746e-11	2.165993e+00	-3.265852e+00
1.920000e-06	3.577091e-07	8.945110e-12	2.491047e+00	-1.749527e+00
1.930000e-06	4.042948e-07	2.871547e-11	2.815464e+00	-2.235819e-01
1.940000e-06	4.508068e-07	4.788148e-11	3.139368e+00	1.310761e+00
1.950000e-06	4.973745e-07	6.731877e-11	3.463661e+00	2.852246e+00
1.960000e-06	5.439350e-07	8.839228e-11	3.787903e+00	4.399590e+00
1.970000e-06	5.904232e-07	1.101467e-10	4.111642e+00	5.951489e+00
1.980000e-06	6.368569e-07	1.318707e-10	4.435001e+00	7.506619e+00
1.990000e-06	6.832460e-07	1.515233e-10	4.758049e+00	9.063646e+00
2.000000e-06	7.295292e-07	1.687577e-10	5.080360e+00	1.062123e+01
2.010000e-06	7.756892e-07	1.872454e-10	5.401813e+00	1.217802e+01
2.020000e-06	8.219089e-07	2.076724e-10	5.723682e+00	1.373267e+01
2.030000e-06	8.681474e-07	2.315736e-10	6.045682e+00	1.528386e+01
2.040000e-06	9.142688e-07	2.569988e-10	6.366866e+00	1.683027e+01
2.050000e-06	9.603215e-07	2.792519e-10	6.687572e+00	1.837059e+01
2.060000e-06	1.006258e-06	3.009173e-10	7.007470e+00	1.990355e+01
2.070000e-06	1.052082e-06	3.214500e-10	7.326586e+00	2.142789e+01
2.080000e-06	1.097830e-06	3.388924e-10	7.645167e+00	2.294241e+01
2.090000e-06	1.143475e-06	3.564878e-10	7.963033e+00	2.444592e+01
2.100000e-06	1.189054e-06	3.773885e-10	8.280437e+00	2.593728e+01
2.110000e-06	1.234624e-06	3.987191e-10	8.597785e+00	2.741542e+01
2.120000e-06	1.280133e-06	4.195323e-10	8.914701e+00	2.887927e+01
2.130000e-06	1.325503e-06	4.413811e-10	9.230654e+00	3.032787e+01
2.140000e-06	1.370787e-06	4.620063e-10	9.546006e+00	3.176028e+01
2.150000e-06	1.416045e-06	4.803509e-10	9.861179e+00	3.317563e+01
2.160000e-06	1.461237e-06	4.973266e-10	1.017589e+01	3.457311e+01
2.170000e-06	1.506382e-06	5.145029e-10	1.049028e+01	3.595198e+01
2.180000e-06	1.551414e-06	5.323073e-10	1.080388e+01	3.731156e+01
2.190000e-06	1.596235e-06	5.524598e-10	1.111600e+01	3.865124e+01
2.200000e-06	1.640880e-06	5.746304e-10	1.142691e+01	3.997048e+01
2.210000e-06	1.685459e-06	5.947835e-10	1.173735e+01	4.126882e+01
2.220000e-06	1.729921e-06	6.124741e-10	1.204698e+01	4.254585e+01
2.230000e-06	1.774156e-06	6.275511e-10	1.235503e+01	4.380124e+01
2.240000e-06	1.818198e-06	6.404628e-10	1.266173e+01	4.503473e+01
2.250000e-06	1.862081e-06	6.549200e-10	1.296733e+01	4.624614e+01
2.260000e-06	1.905881e-06	6.734236e-10	1.327234e+01	4.743533e+01
2.270000e-06	1.949701e-06	6.922409e-10	1.357750e+01	4.860225e+01
2.280000e-06	1.993506e-06	7.089230e-10	1.388255e+01	4.974690e+01
2.290000e-06	2.037203e-06	7.252448e-10	1.418686e+01	5.086936e+01
2.300000e-06	2.080838e-06	7.408697e-10	1.449073e+01	5.196975e+01
2.310000e-06	2.124404e-06	7.549351e-10	1.479411e+01	5.304825e+01
2.320000e-06	2.167846e-06	7.689103e-10	1.509664e+01	5.410511e+01
2.330000e-06	2.211157e-06	7.844834e-10	1.539825e+01	5.514060e+01
2.340000e-06	2.254370e-06	7.998305e-10	1.569918e+01	5.615507e+01
2.350000e-06	2.297494e-06	8.126447e-10	1.599949e+01	5.714889e+01
2.360000e-06	2.340426e-06	8.241508e-10	1.629847e+01	5.812248e+01
2.370000e-06	2.383117e-06	8.362752e-10	1.659576e+01	5.907628e+01
2.380000e-06	2.425510e-06	8.486715e-10	1.689098e+01	6.001076e+01
2.390000e-06	2.467567e-06	8.619589e-10	1.718386e+01	6.092645e+01
2.400000e-06	2.509230e-06	8.749359e-10	1.747400e+01	6.182386e+01
2.410000e-06	2.550518e-06	8.876872e-10	1.776152e+01	6.270353e+01
2.420000e-06	2.591550e-06	9.000809e-10	1.804726e+01	6.356602e+01
2.430000e-06	2.632299e-06	9.119963e-10	1.833104e+01	6.441189e+01
2.440000e-06	2.672772e-06	9.231549e-10	1.861289e+01	6.524172e+01
2.450000e-06	2.713014e-06	9.321515e-10	1.889313e+01	6.605607e+01
2.460000e-06	2.753083e-06	9.417114e-10	1.917217e+01	6.685549e+01
2.470000e-06	2.793007e-06	9.534797e-10	1.945019e+01	6.764055e+01
2.480000e-06	2.832812e-06	9.644914e-10	1.972739e+01	6.841180e+01
2.490000e-06	2.872489e-06	9.751764e-10	2.000369e+01	6.916975e+01
2.500000e-06	2.911967e-06	9.878599e-10	2.027862e+01	6.991492e+01
2.510000e-06	2.951325e-06	1.002187e-09	2.055270e+01	7.064779e+01
2.520000e-06	2.990628e-06	1.015433e-09	2.082640e+01	7.136884e+01
2.530000e-06	3.029715e-06	1.026554e-09	2.109860e+01	7.207851e+01
2.540000e-06	3.068438e-06	1.037118e-09	2.136826e+01	7.277720e+01
2.550000e-06	3.106919e-06	1.046122e-09	2.163624e+01	7.346529e+01
2.560000e-06	3.145258e-06	1.052378e-09	2.190322e+01	7.414314e+01
2.570000e-06	3.183350e-06	1.059220e-09	2.216850e+01	7.481107e+01
2.580000e-06	3.221292e-06	1.068842e-09	2.243272e+01	7.546936e+01
2.590000e-06	3.259081e-06	1.080581e-09	2.269588e+01	7.611827e+01
2.600000e-06	3.296646e-06	1.092910e-09	2.295748e+01	7.675802e+01
2.610000e-06	3.334053e-06	1.103174e-09	2.321797e+01	7.738879e+01
2.620000e-06	3.371251e-06	1.110879e-09	2.347702e+01	7.801074e+01
2.630000e-06	3.408167e-06	1.116905e-09	2.373409e+01	7.862400e+01
2.640000e-06	3.444704e-06	1.122559e-09	2.398854e+01	7.922865e+01
2.650000e-06	3.480881e-06	1.129176e-09	2.424047e+01	7.982478e+01
2.660000e-06	3.516867e-06	1.138124e-09	2.449107e+01	8.041242e+01
2.670000e-06	3.552798e-06	1.148387e-09	2.474129e+01	8.099158e+01
2.680000e-06	3.588647e-06	1.158441e-09	2.499094e+01	8.156226e+01
2.690000e-06	3.624347e-06	1.166279e-09	2.523955e+01	8.212444e+01
2.700000e-06	3.659847e-06	1.171761e-09	2.548677e+01	8.267806e+01
2.710000e-06	3.695159e-06	1.178669e-09	2.573268e+01	8.322308e+01
2.720000e-06	3.730194e-06	1.187012e-09	2.597666e+01	8.375943e+01
2.730000e-06	3.764840e-06	1.194588e-09	2.621792e+01	8.428702e+01
2.740000e-06	3.799173e-06	1.201670e-09	2.645702e+01	8.480577e+01
2.750000e-06	3.833139e-06	1.209178e-09	2.669356e+01	8.531559e+01
2.760000e-06	3.866649e-06	1.216129e-09	2.692691e+01	8.581640e+01
2.770000e-06	3.899756e-06	1.220751e-09	2.715747e+01	8.630810e+01
2.780000e-06	3.932420e-06	1.226173e-09	2.738493e+01	8.679063e+01
2.790000e-06	3.964679e-06	1.234802e-09	2.760958e+01	8.726389e+01
2.800000e-06	3.996686e-06	1.243301e-09	2.783248e+01	8.772783e+01
2.810000e-06	4.028472e-06	1.250354e-09	2.805383e+01	8.818239e+01
2.820000e-06	4.060081e-06	1.256449e-09	2.827396e+01	8.862755e+01
2.830000e-06	4.091527e-06	1.261605e-09	2.849294e+01	8.906326e+01
2.840000e-06	4.122754e-06	1.266734e-09	2.871040e+01	8.948954e+01
2.850000e-06	4.153680e-06	1.271006e-09	2.892576e+01	8.990639e+01
2.860000e-06	4.184256e-06	1.274485e-09	2.913869e+01	9.031385e+01
2.870000e-06	4.214521e-06	1.278508e-09	2.934946e+01	9.071197e+01
2.880000e-06	4.244467e-06	1.283388e-09	2.955800e+01	9.110083e+01
2.890000e-06	4.274103e-06	1.287916e-09	2.976438e+01	9.148053e+01
2.900000e-06	4.303540e-06	1.293559e-09	2.996938e+01	9.185118e+01
