# Temperatura_=_9.39
# Concentracion g/m^3_=_1620.0
# C_Vs_to_Am_M_A/Vsm_=_65563218390.804596
# pendiente_HvsI_1/m_=_3716.3
# ordenada_HvsI_A/m_=_1297.0
# frecuencia_Hz_=_135108.02871473084

Tiempo_(s)	Campo_(V.s)	Magnetizacion_(V.s)	Campo_(kA/m)	Magnetizacion_(A/m)
0.000000e+00	-5.519460e-06	-1.191131e-09	-3.837252e+01	-7.773918e+01
1.000000e-08	-5.519708e-06	-1.189199e-09	-3.837425e+01	-7.772624e+01
2.000000e-08	-5.519731e-06	-1.185951e-09	-3.837441e+01	-7.771275e+01
3.000000e-08	-5.519370e-06	-1.184159e-09	-3.837190e+01	-7.769866e+01
4.000000e-08	-5.518486e-06	-1.182466e-09	-3.836576e+01	-7.768386e+01
5.000000e-08	-5.517119e-06	-1.180423e-09	-3.835625e+01	-7.766825e+01
6.000000e-08	-5.515207e-06	-1.180376e-09	-3.834296e+01	-7.765171e+01
7.000000e-08	-5.512734e-06	-1.192483e-09	-3.832576e+01	-7.763412e+01
8.000000e-08	-5.509777e-06	-1.213759e-09	-3.830520e+01	-7.761531e+01
9.000000e-08	-5.506249e-06	-1.180691e-09	-3.828068e+01	-7.759512e+01
1.000000e-07	-5.502251e-06	-1.118335e-09	-3.825288e+01	-7.757339e+01
1.100000e-07	-5.497973e-06	-1.153241e-09	-3.822315e+01	-7.754993e+01
1.200000e-07	-5.493395e-06	-1.216984e-09	-3.819132e+01	-7.752454e+01
1.300000e-07	-5.488580e-06	-1.210750e-09	-3.815784e+01	-7.749703e+01
1.400000e-07	-5.483476e-06	-1.154346e-09	-3.812235e+01	-7.746719e+01
1.500000e-07	-5.477934e-06	-1.127473e-09	-3.808383e+01	-7.743481e+01
1.600000e-07	-5.472042e-06	-1.205311e-09	-3.804286e+01	-7.739966e+01
1.700000e-07	-5.465757e-06	-1.187411e-09	-3.799917e+01	-7.736155e+01
1.800000e-07	-5.458978e-06	-1.171429e-09	-3.795204e+01	-7.732025e+01
1.900000e-07	-5.451852e-06	-1.150984e-09	-3.790250e+01	-7.727556e+01
2.000000e-07	-5.444485e-06	-1.194650e-09	-3.785128e+01	-7.722725e+01
2.100000e-07	-5.436870e-06	-1.193383e-09	-3.779834e+01	-7.717514e+01
2.200000e-07	-5.428985e-06	-1.181295e-09	-3.774352e+01	-7.711902e+01
2.300000e-07	-5.420699e-06	-1.160845e-09	-3.768591e+01	-7.705870e+01
2.400000e-07	-5.411840e-06	-1.165520e-09	-3.762433e+01	-7.699401e+01
2.500000e-07	-5.402419e-06	-1.173468e-09	-3.755883e+01	-7.692479e+01
2.600000e-07	-5.392432e-06	-1.163192e-09	-3.748940e+01	-7.685086e+01
2.700000e-07	-5.381815e-06	-1.154460e-09	-3.741559e+01	-7.677211e+01
2.800000e-07	-5.370760e-06	-1.143305e-09	-3.733873e+01	-7.668840e+01
2.900000e-07	-5.359296e-06	-1.158911e-09	-3.725903e+01	-7.659961e+01
3.000000e-07	-5.347377e-06	-1.138338e-09	-3.717617e+01	-7.650566e+01
3.100000e-07	-5.335123e-06	-1.139166e-09	-3.709097e+01	-7.640647e+01
3.200000e-07	-5.322484e-06	-1.139265e-09	-3.700310e+01	-7.630198e+01
3.300000e-07	-5.309380e-06	-1.173609e-09	-3.691200e+01	-7.619214e+01
3.400000e-07	-5.295891e-06	-1.135855e-09	-3.681822e+01	-7.607694e+01
3.500000e-07	-5.282013e-06	-1.125210e-09	-3.672174e+01	-7.595635e+01
3.600000e-07	-5.267707e-06	-1.125511e-09	-3.662228e+01	-7.583040e+01
3.700000e-07	-5.252968e-06	-1.127476e-09	-3.651981e+01	-7.569911e+01
3.800000e-07	-5.237782e-06	-1.098473e-09	-3.641424e+01	-7.556252e+01
3.900000e-07	-5.222020e-06	-1.143285e-09	-3.630466e+01	-7.542069e+01
4.000000e-07	-5.205601e-06	-1.145482e-09	-3.619051e+01	-7.527370e+01
4.100000e-07	-5.188860e-06	-1.098820e-09	-3.607412e+01	-7.512164e+01
4.200000e-07	-5.171910e-06	-1.107662e-09	-3.595628e+01	-7.496461e+01
4.300000e-07	-5.154615e-06	-1.164812e-09	-3.583604e+01	-7.480273e+01
4.400000e-07	-5.136967e-06	-1.110505e-09	-3.571335e+01	-7.463612e+01
4.500000e-07	-5.118989e-06	-1.072283e-09	-3.558836e+01	-7.446491e+01
4.600000e-07	-5.100595e-06	-1.130147e-09	-3.546048e+01	-7.428927e+01
4.700000e-07	-5.081753e-06	-1.124714e-09	-3.532949e+01	-7.410933e+01
4.800000e-07	-5.062663e-06	-1.061484e-09	-3.519677e+01	-7.392525e+01
4.900000e-07	-5.043329e-06	-1.108273e-09	-3.506235e+01	-7.373720e+01
5.000000e-07	-5.023718e-06	-1.140925e-09	-3.492601e+01	-7.354534e+01
5.100000e-07	-5.003864e-06	-1.061497e-09	-3.478799e+01	-7.334985e+01
5.200000e-07	-4.983685e-06	-1.066209e-09	-3.464770e+01	-7.315087e+01
5.300000e-07	-4.963189e-06	-1.126740e-09	-3.450520e+01	-7.294859e+01
5.400000e-07	-4.942345e-06	-1.075970e-09	-3.436029e+01	-7.274315e+01
5.500000e-07	-4.921058e-06	-1.034557e-09	-3.421230e+01	-7.253472e+01
5.600000e-07	-4.899398e-06	-1.100084e-09	-3.406172e+01	-7.232345e+01
5.700000e-07	-4.877441e-06	-1.084737e-09	-3.390906e+01	-7.210949e+01
5.800000e-07	-4.855182e-06	-1.035516e-09	-3.375431e+01	-7.189296e+01
5.900000e-07	-4.832647e-06	-1.074915e-09	-3.359765e+01	-7.167400e+01
6.000000e-07	-4.809757e-06	-1.093668e-09	-3.343851e+01	-7.145271e+01
6.100000e-07	-4.786462e-06	-1.036082e-09	-3.327656e+01	-7.122922e+01
6.200000e-07	-4.762960e-06	-1.055784e-09	-3.311317e+01	-7.100360e+01
6.300000e-07	-4.739337e-06	-1.080596e-09	-3.294893e+01	-7.077594e+01
6.400000e-07	-4.715381e-06	-1.045237e-09	-3.278238e+01	-7.054631e+01
6.500000e-07	-4.691011e-06	-1.036620e-09	-3.261296e+01	-7.031476e+01
6.600000e-07	-4.666257e-06	-1.068013e-09	-3.244087e+01	-7.008133e+01
6.700000e-07	-4.641095e-06	-1.035265e-09	-3.226593e+01	-6.984605e+01
6.800000e-07	-4.615494e-06	-1.016203e-09	-3.208795e+01	-6.960892e+01
6.900000e-07	-4.589300e-06	-1.037008e-09	-3.190585e+01	-6.936995e+01
7.000000e-07	-4.562519e-06	-1.034749e-09	-3.171966e+01	-6.912913e+01
7.100000e-07	-4.535332e-06	-1.012008e-09	-3.153064e+01	-6.888641e+01
7.200000e-07	-4.507858e-06	-1.026460e-09	-3.133964e+01	-6.864176e+01
7.300000e-07	-4.480191e-06	-1.027910e-09	-3.114729e+01	-6.839513e+01
7.400000e-07	-4.452344e-06	-1.013243e-09	-3.095369e+01	-6.814645e+01
7.500000e-07	-4.424316e-06	-1.014594e-09	-3.075884e+01	-6.789564e+01
7.600000e-07	-4.396004e-06	-1.017140e-09	-3.056200e+01	-6.764262e+01
7.700000e-07	-4.367356e-06	-1.001148e-09	-3.036284e+01	-6.738728e+01
7.800000e-07	-4.338457e-06	-9.988636e-10	-3.016193e+01	-6.712953e+01
7.900000e-07	-4.309244e-06	-1.005287e-09	-2.995883e+01	-6.686924e+01
8.000000e-07	-4.279734e-06	-9.942934e-10	-2.975367e+01	-6.660632e+01
8.100000e-07	-4.249960e-06	-9.840305e-10	-2.954667e+01	-6.634062e+01
8.200000e-07	-4.219878e-06	-9.851324e-10	-2.933754e+01	-6.607202e+01
8.300000e-07	-4.189541e-06	-9.785317e-10	-2.912663e+01	-6.580040e+01
8.400000e-07	-4.158928e-06	-9.618826e-10	-2.891380e+01	-6.552562e+01
8.500000e-07	-4.127918e-06	-9.613199e-10	-2.869822e+01	-6.524755e+01
8.600000e-07	-4.096599e-06	-9.590190e-10	-2.848048e+01	-6.496606e+01
8.700000e-07	-4.065086e-06	-9.510269e-10	-2.826139e+01	-6.468101e+01
8.800000e-07	-4.033372e-06	-9.489767e-10	-2.804091e+01	-6.439230e+01
8.900000e-07	-4.001567e-06	-9.551676e-10	-2.781979e+01	-6.409979e+01
9.000000e-07	-3.969631e-06	-9.436746e-10	-2.759776e+01	-6.380337e+01
9.100000e-07	-3.937333e-06	-9.350796e-10	-2.737322e+01	-6.350292e+01
9.200000e-07	-3.904597e-06	-9.317184e-10	-2.714564e+01	-6.319835e+01
9.300000e-07	-3.871519e-06	-9.214053e-10	-2.691567e+01	-6.288956e+01
9.400000e-07	-3.838111e-06	-9.043022e-10	-2.668341e+01	-6.257647e+01
9.500000e-07	-3.804222e-06	-9.042575e-10	-2.644780e+01	-6.225899e+01
9.600000e-07	-3.769814e-06	-9.026783e-10	-2.620859e+01	-6.193707e+01
9.700000e-07	-3.735023e-06	-8.947646e-10	-2.596672e+01	-6.161064e+01
9.800000e-07	-3.699949e-06	-8.906838e-10	-2.572287e+01	-6.127966e+01
9.900000e-07	-3.664605e-06	-8.913524e-10	-2.547716e+01	-6.094409e+01
1.000000e-06	-3.629055e-06	-8.805328e-10	-2.523001e+01	-6.060392e+01
1.010000e-06	-3.593361e-06	-8.743873e-10	-2.498185e+01	-6.025913e+01
1.020000e-06	-3.557506e-06	-8.759935e-10	-2.473258e+01	-5.990973e+01
1.030000e-06	-3.521458e-06	-8.734471e-10	-2.448197e+01	-5.955571e+01
1.040000e-06	-3.485205e-06	-8.657308e-10	-2.422993e+01	-5.919712e+01
1.050000e-06	-3.448716e-06	-8.652664e-10	-2.397625e+01	-5.883397e+01
1.060000e-06	-3.411965e-06	-8.608290e-10	-2.372075e+01	-5.846632e+01
1.070000e-06	-3.374999e-06	-8.498030e-10	-2.346375e+01	-5.809421e+01
1.080000e-06	-3.337803e-06	-8.430751e-10	-2.320515e+01	-5.771770e+01
1.090000e-06	-3.300358e-06	-8.395088e-10	-2.294483e+01	-5.733688e+01
1.100000e-06	-3.262661e-06	-8.326399e-10	-2.268275e+01	-5.695181e+01
1.110000e-06	-3.224703e-06	-8.261850e-10	-2.241886e+01	-5.656258e+01
1.120000e-06	-3.186534e-06	-8.254097e-10	-2.215350e+01	-5.616928e+01
1.130000e-06	-3.148183e-06	-8.206436e-10	-2.188687e+01	-5.577200e+01
1.140000e-06	-3.109565e-06	-8.129624e-10	-2.161839e+01	-5.537083e+01
1.150000e-06	-3.070721e-06	-8.040983e-10	-2.134834e+01	-5.496588e+01
1.160000e-06	-3.031730e-06	-7.946223e-10	-2.107726e+01	-5.455725e+01
1.170000e-06	-2.992523e-06	-7.839827e-10	-2.080469e+01	-5.414502e+01
1.180000e-06	-2.953143e-06	-7.782276e-10	-2.053091e+01	-5.372930e+01
1.190000e-06	-2.913661e-06	-7.746527e-10	-2.025643e+01	-5.331018e+01
1.200000e-06	-2.873996e-06	-7.686994e-10	-1.998067e+01	-5.288775e+01
1.210000e-06	-2.834130e-06	-7.596225e-10	-1.970351e+01	-5.246207e+01
1.220000e-06	-2.794187e-06	-7.527380e-10	-1.942581e+01	-5.203323e+01
1.230000e-06	-2.754171e-06	-7.444322e-10	-1.914762e+01	-5.160127e+01
1.240000e-06	-2.713976e-06	-7.366250e-10	-1.886817e+01	-5.116626e+01
1.250000e-06	-2.673513e-06	-7.311371e-10	-1.858686e+01	-5.072823e+01
1.260000e-06	-2.632777e-06	-7.296308e-10	-1.830366e+01	-5.028719e+01
1.270000e-06	-2.591815e-06	-7.226976e-10	-1.801888e+01	-4.984315e+01
1.280000e-06	-2.550570e-06	-7.127257e-10	-1.773213e+01	-4.939611e+01
1.290000e-06	-2.509037e-06	-7.039967e-10	-1.744339e+01	-4.894602e+01
1.300000e-06	-2.467179e-06	-6.968650e-10	-1.715238e+01	-4.849284e+01
1.310000e-06	-2.425059e-06	-6.892251e-10	-1.685956e+01	-4.803650e+01
1.320000e-06	-2.382779e-06	-6.844680e-10	-1.656562e+01	-4.757690e+01
1.330000e-06	-2.340188e-06	-6.789954e-10	-1.626951e+01	-4.711392e+01
1.340000e-06	-2.297236e-06	-6.722054e-10	-1.597090e+01	-4.664742e+01
1.350000e-06	-2.254066e-06	-6.639156e-10	-1.567077e+01	-4.617724e+01
1.360000e-06	-2.210735e-06	-6.559235e-10	-1.536953e+01	-4.570317e+01
1.370000e-06	-2.167247e-06	-6.481784e-10	-1.506719e+01	-4.522501e+01
1.380000e-06	-2.123706e-06	-6.416678e-10	-1.476448e+01	-4.474250e+01
1.390000e-06	-2.080118e-06	-6.349316e-10	-1.446145e+01	-4.425537e+01
1.400000e-06	-2.036378e-06	-6.254270e-10	-1.415735e+01	-4.376333e+01
1.410000e-06	-1.992460e-06	-6.166735e-10	-1.385203e+01	-4.326605e+01
1.420000e-06	-1.948463e-06	-6.085864e-10	-1.354616e+01	-4.276317e+01
1.430000e-06	-1.904488e-06	-5.995084e-10	-1.324043e+01	-4.225432e+01
1.440000e-06	-1.860458e-06	-5.899688e-10	-1.293432e+01	-4.173910e+01
1.450000e-06	-1.816279e-06	-5.815102e-10	-1.262718e+01	-4.121708e+01
1.460000e-06	-1.772018e-06	-5.724755e-10	-1.231947e+01	-4.068780e+01
1.470000e-06	-1.727645e-06	-5.641464e-10	-1.201097e+01	-4.015080e+01
1.480000e-06	-1.683050e-06	-5.558261e-10	-1.170094e+01	-3.960558e+01
1.490000e-06	-1.638300e-06	-5.483219e-10	-1.138983e+01	-3.905164e+01
1.500000e-06	-1.593484e-06	-5.419579e-10	-1.107826e+01	-3.848843e+01
1.510000e-06	-1.548567e-06	-5.354145e-10	-1.076598e+01	-3.791543e+01
1.520000e-06	-1.503549e-06	-5.258289e-10	-1.045301e+01	-3.733207e+01
1.530000e-06	-1.458411e-06	-5.140785e-10	-1.013920e+01	-3.673779e+01
1.540000e-06	-1.413093e-06	-5.027243e-10	-9.824138e+00	-3.613201e+01
1.550000e-06	-1.367638e-06	-4.923501e-10	-9.508124e+00	-3.551415e+01
1.560000e-06	-1.322085e-06	-4.812262e-10	-9.191430e+00	-3.488364e+01
1.570000e-06	-1.276492e-06	-4.715650e-10	-8.874461e+00	-3.423989e+01
1.580000e-06	-1.230845e-06	-4.607211e-10	-8.557113e+00	-3.358233e+01
1.590000e-06	-1.185028e-06	-4.486295e-10	-8.238578e+00	-3.291038e+01
1.600000e-06	-1.139162e-06	-4.369738e-10	-7.919707e+00	-3.222349e+01
1.610000e-06	-1.093284e-06	-4.261395e-10	-7.600758e+00	-3.152111e+01
1.620000e-06	-1.047314e-06	-4.131824e-10	-7.281161e+00	-3.080272e+01
1.630000e-06	-1.001289e-06	-3.983100e-10	-6.961182e+00	-3.006780e+01
1.640000e-06	-9.552431e-07	-3.838585e-10	-6.641064e+00	-2.931589e+01
1.650000e-06	-9.091250e-07	-3.704452e-10	-6.320441e+00	-2.854651e+01
1.660000e-06	-8.629328e-07	-3.554036e-10	-5.999303e+00	-2.775926e+01
1.670000e-06	-8.166475e-07	-3.420025e-10	-5.677517e+00	-2.695373e+01
1.680000e-06	-7.701898e-07	-3.306123e-10	-5.354533e+00	-2.612959e+01
1.690000e-06	-7.236640e-07	-3.199385e-10	-5.031074e+00	-2.528652e+01
1.700000e-06	-6.771145e-07	-3.098981e-10	-4.707452e+00	-2.442425e+01
1.710000e-06	-6.305314e-07	-2.989736e-10	-4.383596e+00	-2.354258e+01
1.720000e-06	-5.839141e-07	-2.856295e-10	-4.059502e+00	-2.264133e+01
1.730000e-06	-5.372885e-07	-2.683994e-10	-3.735350e+00	-2.172040e+01
1.740000e-06	-4.906740e-07	-2.502612e-10	-3.411276e+00	-2.077971e+01
1.750000e-06	-4.440508e-07	-2.333709e-10	-3.087141e+00	-1.981928e+01
1.760000e-06	-3.973232e-07	-2.194351e-10	-2.762280e+00	-1.883916e+01
1.770000e-06	-3.505271e-07	-2.084299e-10	-2.436943e+00	-1.783948e+01
1.780000e-06	-3.037353e-07	-1.969367e-10	-2.111636e+00	-1.682041e+01
1.790000e-06	-2.568799e-07	-1.824171e-10	-1.785887e+00	-1.578219e+01
1.800000e-06	-2.100004e-07	-1.673178e-10	-1.459970e+00	-1.472515e+01
1.810000e-06	-1.631248e-07	-1.511492e-10	-1.134080e+00	-1.364966e+01
1.820000e-06	-1.162741e-07	-1.337784e-10	-8.083636e-01	-1.255616e+01
1.830000e-06	-6.943683e-08	-1.163215e-10	-4.827404e-01	-1.144514e+01
1.840000e-06	-2.256218e-08	-1.007958e-10	-1.568573e-01	-1.031719e+01
1.850000e-06	2.432969e-08	-8.591258e-11	1.691454e-01	-9.172939e+00
1.860000e-06	7.118755e-08	-7.108783e-11	4.949119e-01	-8.013073e+00
1.870000e-06	1.180087e-07	-5.280500e-11	8.204231e-01	-6.838350e+00
1.880000e-06	1.648806e-07	-3.205538e-11	1.146287e+00	-5.649583e+00
1.890000e-06	2.116934e-07	-1.496770e-11	1.471740e+00	-4.447641e+00
1.900000e-06	2.584524e-07	-2.162918e-12	1.796819e+00	-3.233445e+00
1.910000e-06	3.052480e-07	1.110308e-11	2.122153e+00	-2.007966e+00
1.920000e-06	3.520112e-07	2.803520e-11	2.447261e+00	-7.722234e-01
1.930000e-06	3.987889e-07	4.830038e-11	2.772470e+00	4.727223e-01
1.940000e-06	4.454673e-07	6.890194e-11	3.096989e+00	1.725770e+00
1.950000e-06	4.920861e-07	8.919022e-11	3.421093e+00	2.985785e+00
1.960000e-06	5.387491e-07	1.086596e-10	3.745505e+00	4.251600e+00
1.970000e-06	5.853583e-07	1.259301e-10	4.069542e+00	5.522024e+00
1.980000e-06	6.318450e-07	1.422982e-10	4.392728e+00	6.795841e+00
1.990000e-06	6.782882e-07	1.576538e-10	4.715612e+00	8.071823e+00
2.000000e-06	7.246960e-07	1.714835e-10	5.038249e+00	9.348729e+00
2.010000e-06	7.709918e-07	1.877822e-10	5.360108e+00	1.062531e+01
2.020000e-06	8.172341e-07	2.051631e-10	5.681595e+00	1.190032e+01
2.030000e-06	8.634514e-07	2.249178e-10	6.002908e+00	1.317251e+01
2.040000e-06	9.095998e-07	2.474874e-10	6.323742e+00	1.444064e+01
2.050000e-06	9.556881e-07	2.676283e-10	6.644158e+00	1.570351e+01
2.060000e-06	1.001688e-06	2.863705e-10	6.963959e+00	1.695989e+01
2.070000e-06	1.047633e-06	3.044206e-10	7.283381e+00	1.820863e+01
2.080000e-06	1.093540e-06	3.226057e-10	7.602534e+00	1.944857e+01
2.090000e-06	1.139340e-06	3.398917e-10	7.920946e+00	2.067859e+01
2.100000e-06	1.185059e-06	3.577052e-10	8.238794e+00	2.189763e+01
2.110000e-06	1.230756e-06	3.755162e-10	8.556492e+00	2.310465e+01
2.120000e-06	1.276405e-06	3.919645e-10	8.873855e+00	2.429867e+01
2.130000e-06	1.321908e-06	4.063469e-10	9.190204e+00	2.547874e+01
2.140000e-06	1.367316e-06	4.214081e-10	9.505888e+00	2.664399e+01
2.150000e-06	1.412640e-06	4.361838e-10	9.820990e+00	2.779360e+01
2.160000e-06	1.457839e-06	4.499465e-10	1.013522e+01	2.892679e+01
2.170000e-06	1.502933e-06	4.652498e-10	1.044873e+01	3.004287e+01
2.180000e-06	1.547933e-06	4.811504e-10	1.076158e+01	3.114119e+01
2.190000e-06	1.592763e-06	4.960843e-10	1.107325e+01	3.222118e+01
2.200000e-06	1.637474e-06	5.103501e-10	1.138408e+01	3.328232e+01
2.210000e-06	1.682092e-06	5.229817e-10	1.169428e+01	3.432418e+01
2.220000e-06	1.726476e-06	5.343905e-10	1.200285e+01	3.534639e+01
2.230000e-06	1.770736e-06	5.455249e-10	1.231056e+01	3.634863e+01
2.240000e-06	1.814912e-06	5.598740e-10	1.261768e+01	3.733066e+01
2.250000e-06	1.858946e-06	5.775914e-10	1.292381e+01	3.829231e+01
2.260000e-06	1.902954e-06	5.958291e-10	1.322976e+01	3.923348e+01
2.270000e-06	1.946878e-06	6.117637e-10	1.353513e+01	4.015411e+01
2.280000e-06	1.990680e-06	6.212673e-10	1.383966e+01	4.105422e+01
2.290000e-06	2.034460e-06	6.287526e-10	1.414402e+01	4.193389e+01
2.300000e-06	2.078191e-06	6.377056e-10	1.444805e+01	4.279324e+01
2.310000e-06	2.121817e-06	6.455346e-10	1.475134e+01	4.363246e+01
2.320000e-06	2.165321e-06	6.550557e-10	1.505380e+01	4.445179e+01
2.330000e-06	2.208751e-06	6.701593e-10	1.535573e+01	4.525151e+01
2.340000e-06	2.252074e-06	6.864287e-10	1.565692e+01	4.603194e+01
2.350000e-06	2.295257e-06	7.000653e-10	1.595714e+01	4.679345e+01
2.360000e-06	2.338223e-06	7.099278e-10	1.625585e+01	4.753645e+01
2.370000e-06	2.380909e-06	7.153675e-10	1.655261e+01	4.826137e+01
2.380000e-06	2.423418e-06	7.189850e-10	1.684814e+01	4.896866e+01
2.390000e-06	2.465603e-06	7.261358e-10	1.714143e+01	4.965883e+01
2.400000e-06	2.507288e-06	7.365465e-10	1.743123e+01	5.033237e+01
2.410000e-06	2.548602e-06	7.485137e-10	1.771845e+01	5.098980e+01
2.420000e-06	2.589666e-06	7.603895e-10	1.800394e+01	5.163167e+01
2.430000e-06	2.630499e-06	7.707326e-10	1.828782e+01	5.225850e+01
2.440000e-06	2.671049e-06	7.776731e-10	1.856973e+01	5.287086e+01
2.450000e-06	2.711337e-06	7.821713e-10	1.884982e+01	5.346928e+01
2.460000e-06	2.751458e-06	7.873122e-10	1.912875e+01	5.405430e+01
2.470000e-06	2.791434e-06	7.939059e-10	1.940668e+01	5.462646e+01
2.480000e-06	2.831331e-06	8.011080e-10	1.968405e+01	5.518628e+01
2.490000e-06	2.871142e-06	8.082600e-10	1.996082e+01	5.573429e+01
2.500000e-06	2.910788e-06	8.164124e-10	2.023645e+01	5.627096e+01
2.510000e-06	2.950290e-06	8.262904e-10	2.051108e+01	5.679679e+01
2.520000e-06	2.989671e-06	8.357722e-10	2.078487e+01	5.731222e+01
2.530000e-06	3.028825e-06	8.429868e-10	2.105707e+01	5.781770e+01
2.540000e-06	3.067658e-06	8.499771e-10	2.132705e+01	5.831363e+01
2.550000e-06	3.106326e-06	8.575561e-10	2.159588e+01	5.880041e+01
2.560000e-06	3.144829e-06	8.629345e-10	2.186356e+01	5.927838e+01
2.570000e-06	3.183033e-06	8.676178e-10	2.212916e+01	5.974788e+01
2.580000e-06	3.221006e-06	8.749155e-10	2.239315e+01	6.020922e+01
2.590000e-06	3.258787e-06	8.838975e-10	2.265582e+01	6.066268e+01
2.600000e-06	3.296378e-06	8.913349e-10	2.291716e+01	6.110850e+01
2.610000e-06	3.333745e-06	8.963062e-10	2.317694e+01	6.154690e+01
2.620000e-06	3.370890e-06	9.008138e-10	2.343518e+01	6.197809e+01
2.630000e-06	3.407799e-06	9.052028e-10	2.369178e+01	6.240223e+01
2.640000e-06	3.444417e-06	9.101832e-10	2.394636e+01	6.281946e+01
2.650000e-06	3.480741e-06	9.176528e-10	2.419890e+01	6.322992e+01
2.660000e-06	3.516862e-06	9.274267e-10	2.445001e+01	6.363369e+01
2.670000e-06	3.552832e-06	9.372777e-10	2.470009e+01	6.403085e+01
2.680000e-06	3.588673e-06	9.421478e-10	2.494926e+01	6.442148e+01
2.690000e-06	3.624430e-06	9.429511e-10	2.519785e+01	6.480560e+01
2.700000e-06	3.660064e-06	9.417823e-10	2.544559e+01	6.518325e+01
2.710000e-06	3.695523e-06	9.439629e-10	2.569211e+01	6.555444e+01
2.720000e-06	3.730755e-06	9.515048e-10	2.593705e+01	6.591917e+01
2.730000e-06	3.765652e-06	9.592753e-10	2.617966e+01	6.627745e+01
2.740000e-06	3.800014e-06	9.674874e-10	2.641855e+01	6.662926e+01
2.750000e-06	3.833815e-06	9.743043e-10	2.665354e+01	6.697457e+01
2.760000e-06	3.867216e-06	9.776451e-10	2.688575e+01	6.731338e+01
2.770000e-06	3.900231e-06	9.774900e-10	2.711528e+01	6.764565e+01
2.780000e-06	3.932847e-06	9.786163e-10	2.734203e+01	6.797137e+01
2.790000e-06	3.965077e-06	9.818744e-10	2.756610e+01	6.829051e+01
2.800000e-06	3.997070e-06	9.844206e-10	2.778853e+01	6.860307e+01
2.810000e-06	4.028978e-06	9.881543e-10	2.801036e+01	6.890903e+01
2.820000e-06	4.060762e-06	9.940388e-10	2.823133e+01	6.920837e+01
2.830000e-06	4.092328e-06	9.999599e-10	2.845079e+01	6.950112e+01
2.840000e-06	4.123634e-06	1.004575e-09	2.866843e+01	6.978728e+01
2.850000e-06	4.154622e-06	1.007302e-09	2.888386e+01	7.006686e+01
2.860000e-06	4.185282e-06	1.009130e-09	2.909702e+01	7.033990e+01
2.870000e-06	4.215673e-06	1.010464e-09	2.930831e+01	7.060643e+01
2.880000e-06	4.245788e-06	1.014210e-09	2.951767e+01	7.086652e+01
2.890000e-06	4.275554e-06	1.018041e-09	2.972461e+01	7.112020e+01
2.900000e-06	4.304994e-06	1.019958e-09	2.992928e+01	7.136756e+01
