# Temperatura_=_-0.3
# Concentracion g/m^3_=_1620.0
# C_Vs_to_Am_M_A/Vsm_=_65563218390.804596
# pendiente_HvsI_1/m_=_3716.3
# ordenada_HvsI_A/m_=_1297.0
# frecuencia_Hz_=_135091.75483973057

Tiempo_(s)	Campo_(V.s)	Magnetizacion_(V.s)	Campo_(kA/m)	Magnetizacion_(A/m)
0.000000e+00	-5.497029e-06	-1.721616e-09	-3.838260e+01	-1.101193e+02
1.000000e-08	-5.497133e-06	-1.720583e-09	-3.838332e+01	-1.101050e+02
2.000000e-08	-5.496860e-06	-1.723255e-09	-3.838142e+01	-1.100877e+02
3.000000e-08	-5.496178e-06	-1.724751e-09	-3.837665e+01	-1.100674e+02
4.000000e-08	-5.494975e-06	-1.725804e-09	-3.836825e+01	-1.100441e+02
5.000000e-08	-5.493103e-06	-1.723311e-09	-3.835519e+01	-1.100179e+02
6.000000e-08	-5.490721e-06	-1.722115e-09	-3.833855e+01	-1.099887e+02
7.000000e-08	-5.487939e-06	-1.762873e-09	-3.831912e+01	-1.099566e+02
8.000000e-08	-5.484634e-06	-1.763691e-09	-3.829605e+01	-1.099216e+02
9.000000e-08	-5.480699e-06	-1.667957e-09	-3.826857e+01	-1.098837e+02
1.000000e-07	-5.476374e-06	-1.637694e-09	-3.823838e+01	-1.098430e+02
1.100000e-07	-5.471939e-06	-1.761626e-09	-3.820741e+01	-1.097993e+02
1.200000e-07	-5.467283e-06	-1.819738e-09	-3.817490e+01	-1.097528e+02
1.300000e-07	-5.462212e-06	-1.712583e-09	-3.813949e+01	-1.097034e+02
1.400000e-07	-5.456837e-06	-1.604512e-09	-3.810196e+01	-1.096511e+02
1.500000e-07	-5.451233e-06	-1.748538e-09	-3.806283e+01	-1.095958e+02
1.600000e-07	-5.445082e-06	-1.798589e-09	-3.801988e+01	-1.095375e+02
1.700000e-07	-5.438465e-06	-1.711036e-09	-3.797367e+01	-1.094762e+02
1.800000e-07	-5.431541e-06	-1.609532e-09	-3.792533e+01	-1.094119e+02
1.900000e-07	-5.424222e-06	-1.723610e-09	-3.787423e+01	-1.093444e+02
2.000000e-07	-5.416583e-06	-1.772818e-09	-3.782089e+01	-1.092737e+02
2.100000e-07	-5.408765e-06	-1.704490e-09	-3.776630e+01	-1.091997e+02
2.200000e-07	-5.400752e-06	-1.623001e-09	-3.771035e+01	-1.091223e+02
2.300000e-07	-5.392335e-06	-1.649743e-09	-3.765158e+01	-1.090415e+02
2.400000e-07	-5.383355e-06	-1.686560e-09	-3.758888e+01	-1.089571e+02
2.500000e-07	-5.373623e-06	-1.648342e-09	-3.752093e+01	-1.088690e+02
2.600000e-07	-5.363230e-06	-1.626452e-09	-3.744836e+01	-1.087771e+02
2.700000e-07	-5.352466e-06	-1.624582e-09	-3.737319e+01	-1.086813e+02
2.800000e-07	-5.341281e-06	-1.638826e-09	-3.729510e+01	-1.085814e+02
2.900000e-07	-5.329609e-06	-1.595381e-09	-3.721360e+01	-1.084773e+02
3.000000e-07	-5.317466e-06	-1.597375e-09	-3.712881e+01	-1.083689e+02
3.100000e-07	-5.304930e-06	-1.580079e-09	-3.704128e+01	-1.082560e+02
3.200000e-07	-5.292123e-06	-1.623652e-09	-3.695185e+01	-1.081385e+02
3.300000e-07	-5.278979e-06	-1.595154e-09	-3.686008e+01	-1.080161e+02
3.400000e-07	-5.265436e-06	-1.585617e-09	-3.676551e+01	-1.078889e+02
3.500000e-07	-5.251447e-06	-1.580153e-09	-3.666784e+01	-1.077565e+02
3.600000e-07	-5.236957e-06	-1.620927e-09	-3.656667e+01	-1.076189e+02
3.700000e-07	-5.221957e-06	-1.565380e-09	-3.646193e+01	-1.074759e+02
3.800000e-07	-5.206485e-06	-1.563714e-09	-3.635390e+01	-1.073273e+02
3.900000e-07	-5.190611e-06	-1.604045e-09	-3.624306e+01	-1.071730e+02
4.000000e-07	-5.174419e-06	-1.587618e-09	-3.612999e+01	-1.070129e+02
4.100000e-07	-5.157715e-06	-1.519872e-09	-3.601336e+01	-1.068468e+02
4.200000e-07	-5.140686e-06	-1.586599e-09	-3.589446e+01	-1.066746e+02
4.300000e-07	-5.123421e-06	-1.613942e-09	-3.577391e+01	-1.064961e+02
4.400000e-07	-5.105687e-06	-1.520378e-09	-3.565008e+01	-1.063113e+02
4.500000e-07	-5.087522e-06	-1.518172e-09	-3.552325e+01	-1.061201e+02
4.600000e-07	-5.068936e-06	-1.612738e-09	-3.539347e+01	-1.059223e+02
4.700000e-07	-5.049965e-06	-1.553127e-09	-3.526100e+01	-1.057179e+02
4.800000e-07	-5.030653e-06	-1.487281e-09	-3.512616e+01	-1.055068e+02
4.900000e-07	-5.011103e-06	-1.569018e-09	-3.498966e+01	-1.052890e+02
5.000000e-07	-4.991401e-06	-1.569294e-09	-3.485209e+01	-1.050643e+02
5.100000e-07	-4.971423e-06	-1.488880e-09	-3.471259e+01	-1.048328e+02
5.200000e-07	-4.951100e-06	-1.545579e-09	-3.457069e+01	-1.045945e+02
5.300000e-07	-4.930460e-06	-1.593836e-09	-3.442657e+01	-1.043494e+02
5.400000e-07	-4.909437e-06	-1.489803e-09	-3.427978e+01	-1.040974e+02
5.500000e-07	-4.888121e-06	-1.493970e-09	-3.413094e+01	-1.038385e+02
5.600000e-07	-4.866534e-06	-1.574176e-09	-3.398021e+01	-1.035729e+02
5.700000e-07	-4.844475e-06	-1.519170e-09	-3.382619e+01	-1.033006e+02
5.800000e-07	-4.821972e-06	-1.459361e-09	-3.366906e+01	-1.030216e+02
5.900000e-07	-4.799165e-06	-1.536863e-09	-3.350981e+01	-1.027360e+02
6.000000e-07	-4.776073e-06	-1.524303e-09	-3.334857e+01	-1.024439e+02
6.100000e-07	-4.752723e-06	-1.466249e-09	-3.318553e+01	-1.021454e+02
6.200000e-07	-4.729145e-06	-1.499410e-09	-3.302090e+01	-1.018406e+02
6.300000e-07	-4.705402e-06	-1.530318e-09	-3.285512e+01	-1.015296e+02
6.400000e-07	-4.681354e-06	-1.469557e-09	-3.268721e+01	-1.012125e+02
6.500000e-07	-4.656970e-06	-1.476180e-09	-3.251694e+01	-1.008895e+02
6.600000e-07	-4.632238e-06	-1.498525e-09	-3.234426e+01	-1.005607e+02
6.700000e-07	-4.606971e-06	-1.464583e-09	-3.216783e+01	-1.002262e+02
6.800000e-07	-4.581103e-06	-1.443614e-09	-3.198721e+01	-9.988625e+01
6.900000e-07	-4.554680e-06	-1.477150e-09	-3.180271e+01	-9.954089e+01
7.000000e-07	-4.527851e-06	-1.460096e-09	-3.161538e+01	-9.919032e+01
7.100000e-07	-4.500648e-06	-1.434536e-09	-3.142544e+01	-9.883467e+01
7.200000e-07	-4.473136e-06	-1.443327e-09	-3.123334e+01	-9.847407e+01
7.300000e-07	-4.445472e-06	-1.445557e-09	-3.104018e+01	-9.810869e+01
7.400000e-07	-4.417612e-06	-1.420071e-09	-3.084565e+01	-9.773864e+01
7.500000e-07	-4.389494e-06	-1.422773e-09	-3.064932e+01	-9.736405e+01
7.600000e-07	-4.361041e-06	-1.430466e-09	-3.045065e+01	-9.698506e+01
7.700000e-07	-4.332236e-06	-1.414233e-09	-3.024952e+01	-9.660176e+01
7.800000e-07	-4.303183e-06	-1.402874e-09	-3.004666e+01	-9.621428e+01
7.900000e-07	-4.273913e-06	-1.399165e-09	-2.984228e+01	-9.582269e+01
8.000000e-07	-4.244358e-06	-1.381474e-09	-2.963591e+01	-9.542709e+01
8.100000e-07	-4.214543e-06	-1.364274e-09	-2.942773e+01	-9.502754e+01
8.200000e-07	-4.184451e-06	-1.370237e-09	-2.921762e+01	-9.462412e+01
8.300000e-07	-4.153964e-06	-1.362539e-09	-2.900475e+01	-9.421685e+01
8.400000e-07	-4.123150e-06	-1.350080e-09	-2.878959e+01	-9.380579e+01
8.500000e-07	-4.092117e-06	-1.350746e-09	-2.857290e+01	-9.339094e+01
8.600000e-07	-4.060834e-06	-1.349770e-09	-2.835447e+01	-9.297232e+01
8.700000e-07	-4.029353e-06	-1.328733e-09	-2.813466e+01	-9.254993e+01
8.800000e-07	-3.997713e-06	-1.326916e-09	-2.791374e+01	-9.212374e+01
8.900000e-07	-3.965870e-06	-1.323653e-09	-2.769139e+01	-9.169371e+01
9.000000e-07	-3.933857e-06	-1.307641e-09	-2.746786e+01	-9.125982e+01
9.100000e-07	-3.901581e-06	-1.294549e-09	-2.724250e+01	-9.082201e+01
9.200000e-07	-3.868929e-06	-1.296916e-09	-2.701451e+01	-9.038020e+01
9.300000e-07	-3.835833e-06	-1.281985e-09	-2.678342e+01	-8.993432e+01
9.400000e-07	-3.802307e-06	-1.270569e-09	-2.654933e+01	-8.948429e+01
9.500000e-07	-3.768281e-06	-1.269422e-09	-2.631174e+01	-8.903001e+01
9.600000e-07	-3.733783e-06	-1.263468e-09	-2.607086e+01	-8.857138e+01
9.700000e-07	-3.699004e-06	-1.244623e-09	-2.582802e+01	-8.810830e+01
9.800000e-07	-3.664009e-06	-1.240820e-09	-2.558367e+01	-8.764065e+01
9.900000e-07	-3.628806e-06	-1.236114e-09	-2.533787e+01	-8.716831e+01
1.000000e-06	-3.593342e-06	-1.224250e-09	-2.509025e+01	-8.669117e+01
1.010000e-06	-3.557674e-06	-1.220607e-09	-2.484119e+01	-8.620911e+01
1.020000e-06	-3.521884e-06	-1.225297e-09	-2.459129e+01	-8.572200e+01
1.030000e-06	-3.485926e-06	-1.216186e-09	-2.434022e+01	-8.522973e+01
1.040000e-06	-3.449669e-06	-1.205436e-09	-2.408706e+01	-8.473218e+01
1.050000e-06	-3.413219e-06	-1.201149e-09	-2.383255e+01	-8.422923e+01
1.060000e-06	-3.376568e-06	-1.189930e-09	-2.357664e+01	-8.372077e+01
1.070000e-06	-3.339585e-06	-1.173758e-09	-2.331841e+01	-8.320670e+01
1.080000e-06	-3.302429e-06	-1.167717e-09	-2.305896e+01	-8.268693e+01
1.090000e-06	-3.265070e-06	-1.164861e-09	-2.279811e+01	-8.216135e+01
1.100000e-06	-3.227380e-06	-1.152678e-09	-2.253494e+01	-8.162988e+01
1.110000e-06	-3.189408e-06	-1.145434e-09	-2.226981e+01	-8.109245e+01
1.120000e-06	-3.151267e-06	-1.141558e-09	-2.200349e+01	-8.054898e+01
1.130000e-06	-3.112885e-06	-1.131963e-09	-2.173549e+01	-7.999942e+01
1.140000e-06	-3.074292e-06	-1.119639e-09	-2.146602e+01	-7.944371e+01
1.150000e-06	-3.035476e-06	-1.116345e-09	-2.119498e+01	-7.888181e+01
1.160000e-06	-2.996413e-06	-1.109735e-09	-2.092223e+01	-7.831367e+01
1.170000e-06	-2.957255e-06	-1.099820e-09	-2.064882e+01	-7.773927e+01
1.180000e-06	-2.917894e-06	-1.090809e-09	-2.037398e+01	-7.715858e+01
1.190000e-06	-2.878393e-06	-1.083964e-09	-2.009817e+01	-7.657159e+01
1.200000e-06	-2.838750e-06	-1.070758e-09	-1.982136e+01	-7.597828e+01
1.210000e-06	-2.798965e-06	-1.059929e-09	-1.954356e+01	-7.537865e+01
1.220000e-06	-2.759093e-06	-1.050791e-09	-1.926516e+01	-7.477267e+01
1.230000e-06	-2.719090e-06	-1.040210e-09	-1.898585e+01	-7.416035e+01
1.240000e-06	-2.678923e-06	-1.029355e-09	-1.870538e+01	-7.354167e+01
1.250000e-06	-2.638544e-06	-1.023807e-09	-1.842344e+01	-7.291663e+01
1.260000e-06	-2.597934e-06	-1.015838e-09	-1.813988e+01	-7.228521e+01
1.270000e-06	-2.556968e-06	-1.004833e-09	-1.785384e+01	-7.164740e+01
1.280000e-06	-2.515708e-06	-9.930871e-10	-1.756575e+01	-7.100315e+01
1.290000e-06	-2.474272e-06	-9.829291e-10	-1.727642e+01	-7.035244e+01
1.300000e-06	-2.432601e-06	-9.677853e-10	-1.698545e+01	-6.969521e+01
1.310000e-06	-2.390670e-06	-9.545753e-10	-1.669267e+01	-6.903140e+01
1.320000e-06	-2.348439e-06	-9.455667e-10	-1.639780e+01	-6.836094e+01
1.330000e-06	-2.305844e-06	-9.360282e-10	-1.610039e+01	-6.768372e+01
1.340000e-06	-2.262869e-06	-9.245294e-10	-1.580031e+01	-6.699963e+01
1.350000e-06	-2.219695e-06	-9.154808e-10	-1.549886e+01	-6.630854e+01
1.360000e-06	-2.176411e-06	-9.063605e-10	-1.519663e+01	-6.561029e+01
1.370000e-06	-2.132961e-06	-8.944481e-10	-1.489324e+01	-6.490469e+01
1.380000e-06	-2.089425e-06	-8.810108e-10	-1.458925e+01	-6.419155e+01
1.390000e-06	-2.045808e-06	-8.661404e-10	-1.428470e+01	-6.347062e+01
1.400000e-06	-2.002086e-06	-8.506416e-10	-1.397941e+01	-6.274166e+01
1.410000e-06	-1.958302e-06	-8.351188e-10	-1.367370e+01	-6.200437e+01
1.420000e-06	-1.914492e-06	-8.237993e-10	-1.336780e+01	-6.125844e+01
1.430000e-06	-1.870580e-06	-8.151381e-10	-1.306118e+01	-6.050353e+01
1.440000e-06	-1.826543e-06	-8.070110e-10	-1.275370e+01	-5.973926e+01
1.450000e-06	-1.782444e-06	-7.981756e-10	-1.244579e+01	-5.896525e+01
1.460000e-06	-1.738362e-06	-7.883683e-10	-1.213798e+01	-5.818106e+01
1.470000e-06	-1.694158e-06	-7.736818e-10	-1.182933e+01	-5.738624e+01
1.480000e-06	-1.649698e-06	-7.579675e-10	-1.151889e+01	-5.658031e+01
1.490000e-06	-1.605162e-06	-7.454573e-10	-1.120793e+01	-5.576278e+01
1.500000e-06	-1.560513e-06	-7.351712e-10	-1.089616e+01	-5.493313e+01
1.510000e-06	-1.515729e-06	-7.223229e-10	-1.058346e+01	-5.409080e+01
1.520000e-06	-1.470875e-06	-7.098924e-10	-1.027028e+01	-5.323524e+01
1.530000e-06	-1.425886e-06	-6.958670e-10	-9.956145e+00	-5.236587e+01
1.540000e-06	-1.380794e-06	-6.831310e-10	-9.641289e+00	-5.148211e+01
1.550000e-06	-1.335580e-06	-6.694564e-10	-9.325587e+00	-5.058336e+01
1.560000e-06	-1.290190e-06	-6.563377e-10	-9.008657e+00	-4.966901e+01
1.570000e-06	-1.244627e-06	-6.428618e-10	-8.690514e+00	-4.873846e+01
1.580000e-06	-1.198997e-06	-6.272147e-10	-8.371905e+00	-4.779110e+01
1.590000e-06	-1.153341e-06	-6.103142e-10	-8.053117e+00	-4.682633e+01
1.600000e-06	-1.107671e-06	-5.953324e-10	-7.734233e+00	-4.584356e+01
1.610000e-06	-1.061953e-06	-5.792604e-10	-7.415010e+00	-4.484221e+01
1.620000e-06	-1.016133e-06	-5.622784e-10	-7.095071e+00	-4.382171e+01
1.630000e-06	-9.702433e-07	-5.486215e-10	-6.774652e+00	-4.278152e+01
1.640000e-06	-9.243049e-07	-5.347524e-10	-6.453890e+00	-4.172113e+01
1.650000e-06	-8.783019e-07	-5.184882e-10	-6.132678e+00	-4.064005e+01
1.660000e-06	-8.322419e-07	-5.025005e-10	-5.811067e+00	-3.953782e+01
1.670000e-06	-7.861536e-07	-4.884465e-10	-5.489259e+00	-3.841402e+01
1.680000e-06	-7.400012e-07	-4.722314e-10	-5.167004e+00	-3.726829e+01
1.690000e-06	-6.937320e-07	-4.545074e-10	-4.843932e+00	-3.610028e+01
1.700000e-06	-6.473976e-07	-4.345102e-10	-4.520406e+00	-3.490972e+01
1.710000e-06	-6.010616e-07	-4.123452e-10	-4.196868e+00	-3.369639e+01
1.720000e-06	-5.547523e-07	-3.922691e-10	-3.873517e+00	-3.246010e+01
1.730000e-06	-5.084005e-07	-3.725899e-10	-3.549869e+00	-3.120074e+01
1.740000e-06	-4.619927e-07	-3.536013e-10	-3.225830e+00	-2.991827e+01
1.750000e-06	-4.155745e-07	-3.364388e-10	-2.901718e+00	-2.861269e+01
1.760000e-06	-3.690468e-07	-3.198723e-10	-2.576842e+00	-2.728408e+01
1.770000e-06	-3.224173e-07	-3.014491e-10	-2.251255e+00	-2.593260e+01
1.780000e-06	-2.758535e-07	-2.803692e-10	-1.926127e+00	-2.455845e+01
1.790000e-06	-2.293684e-07	-2.599665e-10	-1.601548e+00	-2.316193e+01
1.800000e-06	-1.828497e-07	-2.387343e-10	-1.276735e+00	-2.174340e+01
1.810000e-06	-1.363122e-07	-2.183942e-10	-9.517900e-01	-2.030329e+01
1.820000e-06	-8.979726e-08	-1.999826e-10	-6.270027e-01	-1.884210e+01
1.830000e-06	-4.322016e-08	-1.805510e-10	-3.017816e-01	-1.736042e+01
1.840000e-06	3.458473e-09	-1.599873e-10	2.414853e-02	-1.585888e+01
1.850000e-06	5.018337e-08	-1.394234e-10	3.504017e-01	-1.433822e+01
1.860000e-06	9.687714e-08	-1.171932e-10	6.764374e-01	-1.279921e+01
1.870000e-06	1.435166e-07	-9.335518e-11	1.002094e+00	-1.124270e+01
1.880000e-06	1.900865e-07	-7.031985e-11	1.327265e+00	-9.669617e+00
1.890000e-06	2.366223e-07	-4.880711e-11	1.652198e+00	-8.080936e+00
1.900000e-06	2.831341e-07	-2.927840e-11	1.976963e+00	-6.477692e+00
1.910000e-06	3.295829e-07	-1.058944e-11	2.301288e+00	-4.860976e+00
1.920000e-06	3.761081e-07	1.361994e-11	2.626147e+00	-3.231931e+00
1.930000e-06	4.226833e-07	3.920032e-11	2.951355e+00	-1.591745e+00
1.940000e-06	4.690676e-07	6.431570e-11	3.275229e+00	5.834867e-02
1.950000e-06	5.153758e-07	8.612820e-11	3.598573e+00	1.717080e+00
1.960000e-06	5.617184e-07	1.067397e-10	3.922157e+00	3.383145e+00
1.970000e-06	6.079299e-07	1.267181e-10	4.244826e+00	5.055210e+00
1.980000e-06	6.541062e-07	1.467718e-10	4.567248e+00	6.731919e+00
1.990000e-06	7.003124e-07	1.683005e-10	4.889880e+00	8.411896e+00
2.000000e-06	7.463891e-07	1.936015e-10	5.211606e+00	1.009375e+01
2.010000e-06	7.924087e-07	2.196309e-10	5.532935e+00	1.177610e+01
2.020000e-06	8.384766e-07	2.447475e-10	5.854601e+00	1.345752e+01
2.030000e-06	8.844916e-07	2.717415e-10	6.175897e+00	1.513664e+01
2.040000e-06	9.304163e-07	2.955633e-10	6.496562e+00	1.681205e+01
2.050000e-06	9.762579e-07	3.150301e-10	6.816648e+00	1.848240e+01
2.060000e-06	1.022006e-06	3.322970e-10	7.136078e+00	2.014631e+01
2.070000e-06	1.067684e-06	3.525890e-10	7.455021e+00	2.180246e+01
2.080000e-06	1.113339e-06	3.757256e-10	7.773808e+00	2.344954e+01
2.090000e-06	1.158993e-06	4.046583e-10	8.092581e+00	2.508628e+01
2.100000e-06	1.204564e-06	4.330066e-10	8.410778e+00	2.671145e+01
2.110000e-06	1.249978e-06	4.555076e-10	8.727877e+00	2.832385e+01
2.120000e-06	1.295263e-06	4.742504e-10	9.044075e+00	2.992235e+01
2.130000e-06	1.340440e-06	4.920813e-10	9.359523e+00	3.150583e+01
2.140000e-06	1.385555e-06	5.107251e-10	9.674535e+00	3.307325e+01
2.150000e-06	1.430576e-06	5.306056e-10	9.988889e+00	3.462363e+01
2.160000e-06	1.475487e-06	5.517129e-10	1.030248e+01	3.615604e+01
2.170000e-06	1.520265e-06	5.740257e-10	1.061514e+01	3.766960e+01
2.180000e-06	1.564935e-06	5.955818e-10	1.092704e+01	3.916351e+01
2.190000e-06	1.609554e-06	6.176964e-10	1.123859e+01	4.063702e+01
2.200000e-06	1.654049e-06	6.378603e-10	1.154927e+01	4.208946e+01
2.210000e-06	1.698395e-06	6.556890e-10	1.185892e+01	4.352021e+01
2.220000e-06	1.742629e-06	6.727943e-10	1.216778e+01	4.492875e+01
2.230000e-06	1.786717e-06	6.907558e-10	1.247562e+01	4.631458e+01
2.240000e-06	1.830654e-06	7.097537e-10	1.278240e+01	4.767731e+01
2.250000e-06	1.874483e-06	7.277607e-10	1.308844e+01	4.901659e+01
2.260000e-06	1.918217e-06	7.449781e-10	1.339381e+01	5.033215e+01
2.270000e-06	1.961891e-06	7.628229e-10	1.369876e+01	5.162378e+01
2.280000e-06	2.005540e-06	7.809582e-10	1.400353e+01	5.289134e+01
2.290000e-06	2.049151e-06	7.977833e-10	1.430804e+01	5.413475e+01
2.300000e-06	2.092669e-06	8.126443e-10	1.461191e+01	5.535398e+01
2.310000e-06	2.136104e-06	8.271070e-10	1.491519e+01	5.654908e+01
2.320000e-06	2.179484e-06	8.421991e-10	1.521809e+01	5.772013e+01
2.330000e-06	2.222705e-06	8.586070e-10	1.551987e+01	5.886728e+01
2.340000e-06	2.265771e-06	8.767735e-10	1.582058e+01	5.999074e+01
2.350000e-06	2.308543e-06	8.931001e-10	1.611923e+01	6.109073e+01
2.360000e-06	2.351007e-06	9.056424e-10	1.641573e+01	6.216756e+01
2.370000e-06	2.393232e-06	9.148683e-10	1.671056e+01	6.322154e+01
2.380000e-06	2.435205e-06	9.247495e-10	1.700364e+01	6.425305e+01
2.390000e-06	2.476973e-06	9.373222e-10	1.729528e+01	6.526249e+01
2.400000e-06	2.518379e-06	9.522944e-10	1.758440e+01	6.625029e+01
2.410000e-06	2.559451e-06	9.689165e-10	1.787118e+01	6.721691e+01
2.420000e-06	2.600269e-06	9.857792e-10	1.815619e+01	6.816282e+01
2.430000e-06	2.640755e-06	9.980994e-10	1.843888e+01	6.908854e+01
2.440000e-06	2.680944e-06	1.007348e-09	1.871949e+01	6.999458e+01
2.450000e-06	2.721002e-06	1.016469e-09	1.899919e+01	7.088148e+01
2.460000e-06	2.760935e-06	1.025351e-09	1.927802e+01	7.174977e+01
2.470000e-06	2.800743e-06	1.034032e-09	1.955598e+01	7.260001e+01
2.480000e-06	2.840445e-06	1.044269e-09	1.983320e+01	7.343275e+01
2.490000e-06	2.879998e-06	1.057025e-09	2.010937e+01	7.424855e+01
2.500000e-06	2.919393e-06	1.072983e-09	2.038444e+01	7.504795e+01
2.510000e-06	2.958664e-06	1.088837e-09	2.065865e+01	7.583150e+01
2.520000e-06	2.997759e-06	1.101569e-09	2.093163e+01	7.659974e+01
2.530000e-06	3.036652e-06	1.111506e-09	2.120319e+01	7.735319e+01
2.540000e-06	3.075327e-06	1.119065e-09	2.147324e+01	7.809239e+01
2.550000e-06	3.113735e-06	1.123644e-09	2.174143e+01	7.881781e+01
2.560000e-06	3.151879e-06	1.127681e-09	2.200776e+01	7.952997e+01
2.570000e-06	3.189765e-06	1.136156e-09	2.227230e+01	8.022931e+01
2.580000e-06	3.227476e-06	1.149482e-09	2.253561e+01	8.091630e+01
2.590000e-06	3.265015e-06	1.164396e-09	2.279772e+01	8.159136e+01
2.600000e-06	3.302396e-06	1.176819e-09	2.305873e+01	8.225490e+01
2.610000e-06	3.339503e-06	1.184977e-09	2.331783e+01	8.290731e+01
2.620000e-06	3.376251e-06	1.192602e-09	2.357442e+01	8.354895e+01
2.630000e-06	3.412860e-06	1.201234e-09	2.383004e+01	8.418016e+01
2.640000e-06	3.449250e-06	1.208555e-09	2.408413e+01	8.480126e+01
2.650000e-06	3.485363e-06	1.217442e-09	2.433629e+01	8.541254e+01
2.660000e-06	3.521292e-06	1.228115e-09	2.458716e+01	8.601427e+01
2.670000e-06	3.557000e-06	1.237432e-09	2.483649e+01	8.660670e+01
2.680000e-06	3.592584e-06	1.244068e-09	2.508495e+01	8.719005e+01
2.690000e-06	3.628163e-06	1.249538e-09	2.533338e+01	8.776452e+01
2.700000e-06	3.663580e-06	1.256133e-09	2.558068e+01	8.833029e+01
2.710000e-06	3.698663e-06	1.264811e-09	2.582564e+01	8.888753e+01
2.720000e-06	3.733423e-06	1.273315e-09	2.606835e+01	8.943637e+01
2.730000e-06	3.767891e-06	1.280444e-09	2.630902e+01	8.997692e+01
2.740000e-06	3.801948e-06	1.287618e-09	2.654682e+01	9.050930e+01
2.750000e-06	3.835560e-06	1.294949e-09	2.678151e+01	9.103358e+01
2.760000e-06	3.868821e-06	1.301934e-09	2.701376e+01	9.154984e+01
2.770000e-06	3.901606e-06	1.307181e-09	2.724267e+01	9.205813e+01
2.780000e-06	3.933923e-06	1.312779e-09	2.746833e+01	9.255849e+01
2.790000e-06	3.966001e-06	1.321245e-09	2.769231e+01	9.305095e+01
2.800000e-06	3.997864e-06	1.329730e-09	2.791479e+01	9.353553e+01
2.810000e-06	4.029515e-06	1.336639e-09	2.813579e+01	9.401224e+01
2.820000e-06	4.061004e-06	1.341691e-09	2.835566e+01	9.448108e+01
2.830000e-06	4.092308e-06	1.347629e-09	2.857424e+01	9.494205e+01
2.840000e-06	4.123339e-06	1.354468e-09	2.879091e+01	9.539513e+01
2.850000e-06	4.154031e-06	1.360890e-09	2.900521e+01	9.584032e+01
2.860000e-06	4.184446e-06	1.367028e-09	2.921758e+01	9.627760e+01
2.870000e-06	4.214593e-06	1.370972e-09	2.942808e+01	9.670695e+01
2.880000e-06	4.244417e-06	1.374162e-09	2.963633e+01	9.712835e+01
2.890000e-06	4.273920e-06	1.377475e-09	2.984233e+01	9.754179e+01
2.900000e-06	4.303189e-06	1.381105e-09	3.004670e+01	9.794724e+01
