# Temperatura_=_-55.45
# Concentracion g/m^3_=_1620.0
# C_Vs_to_Am_M_A/Vsm_=_65563218390.804596
# pendiente_HvsI_1/m_=_3716.3
# ordenada_HvsI_A/m_=_1297.0
# frecuencia_Hz_=_135104.27739453522

Tiempo_(s)	Campo_(V.s)	Magnetizacion_(V.s)	Campo_(kA/m)	Magnetizacion_(A/m)
0.000000e+00	-5.505685e-06	-9.506830e-10	-3.837336e+01	-6.041636e+01
1.000000e-08	-5.505818e-06	-9.492266e-10	-3.837429e+01	-6.043355e+01
2.000000e-08	-5.505687e-06	-9.480466e-10	-3.837338e+01	-6.044979e+01
3.000000e-08	-5.505260e-06	-9.489057e-10	-3.837040e+01	-6.046503e+01
4.000000e-08	-5.504355e-06	-9.490947e-10	-3.836409e+01	-6.047925e+01
5.000000e-08	-5.502886e-06	-9.494086e-10	-3.835385e+01	-6.049238e+01
6.000000e-08	-5.500930e-06	-9.566239e-10	-3.834022e+01	-6.050439e+01
7.000000e-08	-5.498516e-06	-9.598499e-10	-3.832340e+01	-6.051521e+01
8.000000e-08	-5.495532e-06	-9.576460e-10	-3.830259e+01	-6.052480e+01
9.000000e-08	-5.492027e-06	-9.178659e-10	-3.827816e+01	-6.053309e+01
1.000000e-07	-5.488060e-06	-8.765653e-10	-3.825052e+01	-6.054002e+01
1.100000e-07	-5.483736e-06	-9.256081e-10	-3.822038e+01	-6.054554e+01
1.200000e-07	-5.479204e-06	-1.019441e-09	-3.818880e+01	-6.054959e+01
1.300000e-07	-5.474394e-06	-9.619484e-10	-3.815527e+01	-6.055209e+01
1.400000e-07	-5.469249e-06	-8.979625e-10	-3.811941e+01	-6.055300e+01
1.500000e-07	-5.463757e-06	-8.909111e-10	-3.808113e+01	-6.055226e+01
1.600000e-07	-5.457886e-06	-1.015286e-09	-3.804021e+01	-6.054980e+01
1.700000e-07	-5.451595e-06	-9.687893e-10	-3.799636e+01	-6.054557e+01
1.800000e-07	-5.444869e-06	-8.806263e-10	-3.794949e+01	-6.053953e+01
1.900000e-07	-5.437719e-06	-8.747753e-10	-3.789965e+01	-6.053162e+01
2.000000e-07	-5.430251e-06	-9.685962e-10	-3.784760e+01	-6.052180e+01
2.100000e-07	-5.422511e-06	-9.725643e-10	-3.779366e+01	-6.051003e+01
2.200000e-07	-5.414489e-06	-9.057099e-10	-3.773775e+01	-6.049625e+01
2.300000e-07	-5.406303e-06	-8.938511e-10	-3.768069e+01	-6.048046e+01
2.400000e-07	-5.397765e-06	-9.249825e-10	-3.762118e+01	-6.046260e+01
2.500000e-07	-5.388593e-06	-9.387334e-10	-3.755726e+01	-6.044266e+01
2.600000e-07	-5.378787e-06	-8.860210e-10	-3.748891e+01	-6.042061e+01
2.700000e-07	-5.368323e-06	-8.950094e-10	-3.741598e+01	-6.039644e+01
2.800000e-07	-5.357225e-06	-9.008326e-10	-3.733863e+01	-6.037013e+01
2.900000e-07	-5.345699e-06	-9.198695e-10	-3.725829e+01	-6.034167e+01
3.000000e-07	-5.333845e-06	-8.777960e-10	-3.717567e+01	-6.031107e+01
3.100000e-07	-5.321591e-06	-8.977837e-10	-3.709027e+01	-6.027832e+01
3.200000e-07	-5.308937e-06	-8.972132e-10	-3.700207e+01	-6.024342e+01
3.300000e-07	-5.295962e-06	-9.254008e-10	-3.691164e+01	-6.020638e+01
3.400000e-07	-5.282552e-06	-8.829160e-10	-3.681818e+01	-6.016722e+01
3.500000e-07	-5.268764e-06	-8.841573e-10	-3.672208e+01	-6.012594e+01
3.600000e-07	-5.254685e-06	-8.956054e-10	-3.662395e+01	-6.008257e+01
3.700000e-07	-5.240169e-06	-9.157930e-10	-3.652277e+01	-6.003713e+01
3.800000e-07	-5.225035e-06	-8.718248e-10	-3.641729e+01	-5.998964e+01
3.900000e-07	-5.209451e-06	-8.944126e-10	-3.630868e+01	-5.994013e+01
4.000000e-07	-5.193376e-06	-9.159653e-10	-3.619664e+01	-5.988862e+01
4.100000e-07	-5.176731e-06	-8.770734e-10	-3.608062e+01	-5.983516e+01
4.200000e-07	-5.159739e-06	-8.604421e-10	-3.596220e+01	-5.977977e+01
4.300000e-07	-5.142428e-06	-9.286843e-10	-3.584154e+01	-5.972249e+01
4.400000e-07	-5.124856e-06	-9.083254e-10	-3.571907e+01	-5.966335e+01
4.500000e-07	-5.106923e-06	-8.311528e-10	-3.559408e+01	-5.960239e+01
4.600000e-07	-5.088561e-06	-8.862234e-10	-3.546610e+01	-5.953966e+01
4.700000e-07	-5.069778e-06	-9.342578e-10	-3.533519e+01	-5.947518e+01
4.800000e-07	-5.050618e-06	-8.536558e-10	-3.520165e+01	-5.940899e+01
4.900000e-07	-5.031192e-06	-8.456892e-10	-3.506625e+01	-5.934115e+01
5.000000e-07	-5.011521e-06	-9.306184e-10	-3.492915e+01	-5.927168e+01
5.100000e-07	-4.991615e-06	-8.727350e-10	-3.479041e+01	-5.920062e+01
5.200000e-07	-4.971446e-06	-8.276765e-10	-3.464984e+01	-5.912801e+01
5.300000e-07	-4.951012e-06	-9.060340e-10	-3.450742e+01	-5.905389e+01
5.400000e-07	-4.930283e-06	-9.021160e-10	-3.436294e+01	-5.897830e+01
5.500000e-07	-4.909160e-06	-8.094778e-10	-3.421572e+01	-5.890126e+01
5.600000e-07	-4.887696e-06	-8.730257e-10	-3.406612e+01	-5.882281e+01
5.700000e-07	-4.865932e-06	-9.121415e-10	-3.391443e+01	-5.874299e+01
5.800000e-07	-4.843793e-06	-8.337441e-10	-3.376013e+01	-5.866182e+01
5.900000e-07	-4.821254e-06	-8.351392e-10	-3.360304e+01	-5.857932e+01
6.000000e-07	-4.798319e-06	-9.111219e-10	-3.344318e+01	-5.849553e+01
6.100000e-07	-4.775044e-06	-8.578598e-10	-3.328096e+01	-5.841047e+01
6.200000e-07	-4.751484e-06	-8.366436e-10	-3.311675e+01	-5.832415e+01
6.300000e-07	-4.727720e-06	-8.922723e-10	-3.295112e+01	-5.823659e+01
6.400000e-07	-4.703753e-06	-8.797795e-10	-3.278408e+01	-5.814781e+01
6.500000e-07	-4.679502e-06	-8.317216e-10	-3.261506e+01	-5.805782e+01
6.600000e-07	-4.654947e-06	-8.742629e-10	-3.244391e+01	-5.796662e+01
6.700000e-07	-4.629980e-06	-8.752227e-10	-3.226990e+01	-5.787421e+01
6.800000e-07	-4.604467e-06	-8.366695e-10	-3.209208e+01	-5.778061e+01
6.900000e-07	-4.578408e-06	-8.523707e-10	-3.191045e+01	-5.768579e+01
7.000000e-07	-4.551866e-06	-8.718227e-10	-3.172546e+01	-5.758975e+01
7.100000e-07	-4.524867e-06	-8.354834e-10	-3.153729e+01	-5.749249e+01
7.200000e-07	-4.497492e-06	-8.358754e-10	-3.134649e+01	-5.739397e+01
7.300000e-07	-4.469889e-06	-8.565972e-10	-3.115410e+01	-5.729419e+01
7.400000e-07	-4.442101e-06	-8.397501e-10	-3.096043e+01	-5.719311e+01
7.500000e-07	-4.414037e-06	-8.308544e-10	-3.076482e+01	-5.709070e+01
7.600000e-07	-4.385721e-06	-8.458277e-10	-3.056747e+01	-5.698693e+01
7.700000e-07	-4.357200e-06	-8.408012e-10	-3.036868e+01	-5.688176e+01
7.800000e-07	-4.328370e-06	-8.262306e-10	-3.016775e+01	-5.677513e+01
7.900000e-07	-4.299163e-06	-8.356011e-10	-2.996418e+01	-5.666700e+01
8.000000e-07	-4.269583e-06	-8.297983e-10	-2.975801e+01	-5.655732e+01
8.100000e-07	-4.239719e-06	-8.145776e-10	-2.954987e+01	-5.644601e+01
8.200000e-07	-4.209704e-06	-8.141455e-10	-2.934067e+01	-5.633303e+01
8.300000e-07	-4.179425e-06	-8.160959e-10	-2.912963e+01	-5.621829e+01
8.400000e-07	-4.148748e-06	-7.978811e-10	-2.891582e+01	-5.610172e+01
8.500000e-07	-4.117732e-06	-8.010470e-10	-2.869965e+01	-5.598324e+01
8.600000e-07	-4.086504e-06	-8.109760e-10	-2.848199e+01	-5.586277e+01
8.700000e-07	-4.055062e-06	-8.084409e-10	-2.826285e+01	-5.574022e+01
8.800000e-07	-4.023435e-06	-8.001733e-10	-2.804242e+01	-5.561550e+01
8.900000e-07	-3.991668e-06	-8.070654e-10	-2.782101e+01	-5.548852e+01
9.000000e-07	-3.959696e-06	-7.932306e-10	-2.759817e+01	-5.535917e+01
9.100000e-07	-3.927450e-06	-7.785645e-10	-2.737343e+01	-5.522736e+01
9.200000e-07	-3.894915e-06	-7.789187e-10	-2.714666e+01	-5.509298e+01
9.300000e-07	-3.862152e-06	-7.819780e-10	-2.691831e+01	-5.495593e+01
9.400000e-07	-3.828903e-06	-7.725713e-10	-2.668658e+01	-5.481610e+01
9.500000e-07	-3.795075e-06	-7.791524e-10	-2.645080e+01	-5.467338e+01
9.600000e-07	-3.760846e-06	-7.867008e-10	-2.621223e+01	-5.452767e+01
9.700000e-07	-3.726250e-06	-7.773171e-10	-2.597111e+01	-5.437885e+01
9.800000e-07	-3.691248e-06	-7.660175e-10	-2.572715e+01	-5.422682e+01
9.900000e-07	-3.655886e-06	-7.694045e-10	-2.548069e+01	-5.407146e+01
1.000000e-06	-3.620317e-06	-7.623356e-10	-2.523278e+01	-5.391268e+01
1.010000e-06	-3.584605e-06	-7.557461e-10	-2.498388e+01	-5.375037e+01
1.020000e-06	-3.548746e-06	-7.640432e-10	-2.473395e+01	-5.358441e+01
1.030000e-06	-3.512713e-06	-7.694772e-10	-2.448280e+01	-5.341473e+01
1.040000e-06	-3.476514e-06	-7.618096e-10	-2.423050e+01	-5.324121e+01
1.050000e-06	-3.440141e-06	-7.579320e-10	-2.397700e+01	-5.306376e+01
1.060000e-06	-3.403484e-06	-7.578533e-10	-2.372150e+01	-5.288230e+01
1.070000e-06	-3.366450e-06	-7.482244e-10	-2.346339e+01	-5.269674e+01
1.080000e-06	-3.329224e-06	-7.437906e-10	-2.320393e+01	-5.250700e+01
1.090000e-06	-3.291871e-06	-7.449587e-10	-2.294358e+01	-5.231301e+01
1.100000e-06	-3.254304e-06	-7.416534e-10	-2.268175e+01	-5.211469e+01
1.110000e-06	-3.216503e-06	-7.352172e-10	-2.241829e+01	-5.191199e+01
1.120000e-06	-3.178434e-06	-7.367855e-10	-2.215296e+01	-5.170483e+01
1.130000e-06	-3.140126e-06	-7.336366e-10	-2.188596e+01	-5.149317e+01
1.140000e-06	-3.101631e-06	-7.266538e-10	-2.161766e+01	-5.127697e+01
1.150000e-06	-3.062980e-06	-7.223947e-10	-2.134827e+01	-5.105617e+01
1.160000e-06	-3.024097e-06	-7.243865e-10	-2.107726e+01	-5.083074e+01
1.170000e-06	-2.985026e-06	-7.193736e-10	-2.080495e+01	-5.060065e+01
1.180000e-06	-2.945787e-06	-7.177137e-10	-2.053146e+01	-5.036587e+01
1.190000e-06	-2.906343e-06	-7.176097e-10	-2.025654e+01	-5.012638e+01
1.200000e-06	-2.866794e-06	-7.140117e-10	-1.998090e+01	-4.988216e+01
1.210000e-06	-2.827134e-06	-7.065764e-10	-1.970448e+01	-4.963319e+01
1.220000e-06	-2.787253e-06	-7.040048e-10	-1.942652e+01	-4.937947e+01
1.230000e-06	-2.747167e-06	-6.988475e-10	-1.914712e+01	-4.912098e+01
1.240000e-06	-2.706978e-06	-6.926989e-10	-1.886702e+01	-4.885771e+01
1.250000e-06	-2.666630e-06	-6.883769e-10	-1.858580e+01	-4.858967e+01
1.260000e-06	-2.626086e-06	-6.864346e-10	-1.830322e+01	-4.831684e+01
1.270000e-06	-2.585318e-06	-6.814400e-10	-1.801907e+01	-4.803922e+01
1.280000e-06	-2.544284e-06	-6.766924e-10	-1.773307e+01	-4.775679e+01
1.290000e-06	-2.502999e-06	-6.737538e-10	-1.744533e+01	-4.746956e+01
1.300000e-06	-2.461362e-06	-6.694384e-10	-1.715513e+01	-4.717751e+01
1.310000e-06	-2.419332e-06	-6.615979e-10	-1.686219e+01	-4.688062e+01
1.320000e-06	-2.377110e-06	-6.566330e-10	-1.656791e+01	-4.657887e+01
1.330000e-06	-2.334705e-06	-6.551558e-10	-1.627236e+01	-4.627224e+01
1.340000e-06	-2.291932e-06	-6.508453e-10	-1.597424e+01	-4.596069e+01
1.350000e-06	-2.248873e-06	-6.466655e-10	-1.567412e+01	-4.564419e+01
1.360000e-06	-2.205647e-06	-6.440695e-10	-1.537285e+01	-4.532269e+01
1.370000e-06	-2.162311e-06	-6.401561e-10	-1.507081e+01	-4.499614e+01
1.380000e-06	-2.118846e-06	-6.331771e-10	-1.476787e+01	-4.466446e+01
1.390000e-06	-2.075212e-06	-6.262241e-10	-1.446375e+01	-4.432760e+01
1.400000e-06	-2.031466e-06	-6.178696e-10	-1.415885e+01	-4.398545e+01
1.410000e-06	-1.987691e-06	-6.116553e-10	-1.385375e+01	-4.363794e+01
1.420000e-06	-1.943842e-06	-6.070132e-10	-1.354813e+01	-4.328495e+01
1.430000e-06	-1.899891e-06	-6.038422e-10	-1.324180e+01	-4.292636e+01
1.440000e-06	-1.855919e-06	-5.978434e-10	-1.293533e+01	-4.256206e+01
1.450000e-06	-1.811856e-06	-5.918040e-10	-1.262822e+01	-4.219190e+01
1.460000e-06	-1.767653e-06	-5.862053e-10	-1.232014e+01	-4.181572e+01
1.470000e-06	-1.723317e-06	-5.801956e-10	-1.201113e+01	-4.143338e+01
1.480000e-06	-1.678847e-06	-5.721497e-10	-1.170118e+01	-4.104468e+01
1.490000e-06	-1.634278e-06	-5.660783e-10	-1.139054e+01	-4.064947e+01
1.500000e-06	-1.589574e-06	-5.624513e-10	-1.107897e+01	-4.024753e+01
1.510000e-06	-1.544704e-06	-5.600117e-10	-1.076623e+01	-3.983866e+01
1.520000e-06	-1.499768e-06	-5.530797e-10	-1.045304e+01	-3.942267e+01
1.530000e-06	-1.454794e-06	-5.430062e-10	-1.013958e+01	-3.899932e+01
1.540000e-06	-1.409658e-06	-5.330424e-10	-9.824991e+00	-3.856839e+01
1.550000e-06	-1.364377e-06	-5.246743e-10	-9.509392e+00	-3.812965e+01
1.560000e-06	-1.319052e-06	-5.162261e-10	-9.193492e+00	-3.768286e+01
1.570000e-06	-1.273693e-06	-5.095309e-10	-8.877346e+00	-3.722779e+01
1.580000e-06	-1.228235e-06	-5.041844e-10	-8.560514e+00	-3.676420e+01
1.590000e-06	-1.182597e-06	-4.973213e-10	-8.242427e+00	-3.629183e+01
1.600000e-06	-1.136845e-06	-4.898922e-10	-7.923547e+00	-3.581045e+01
1.610000e-06	-1.091053e-06	-4.822101e-10	-7.604386e+00	-3.531983e+01
1.620000e-06	-1.045219e-06	-4.718458e-10	-7.284939e+00	-3.481972e+01
1.630000e-06	-9.992917e-07	-4.586958e-10	-6.964833e+00	-3.430990e+01
1.640000e-06	-9.531979e-07	-4.476775e-10	-6.643571e+00	-3.379014e+01
1.650000e-06	-9.070927e-07	-4.394318e-10	-6.322228e+00	-3.326023e+01
1.660000e-06	-8.609580e-07	-4.324966e-10	-6.000679e+00	-3.271996e+01
1.670000e-06	-8.147032e-07	-4.265243e-10	-5.678294e+00	-3.216915e+01
1.680000e-06	-7.684865e-07	-4.197807e-10	-5.356174e+00	-3.160761e+01
1.690000e-06	-7.222550e-07	-4.104442e-10	-5.033951e+00	-3.103517e+01
1.700000e-06	-6.759806e-07	-3.999137e-10	-4.711430e+00	-3.045170e+01
1.710000e-06	-6.296880e-07	-3.891379e-10	-4.388781e+00	-2.985706e+01
1.720000e-06	-5.832852e-07	-3.819107e-10	-4.065364e+00	-2.925113e+01
1.730000e-06	-5.367991e-07	-3.759411e-10	-3.741366e+00	-2.863383e+01
1.740000e-06	-4.902525e-07	-3.680429e-10	-3.416947e+00	-2.800508e+01
1.750000e-06	-4.436413e-07	-3.591313e-10	-3.092078e+00	-2.736484e+01
1.760000e-06	-3.969764e-07	-3.496494e-10	-2.766834e+00	-2.671308e+01
1.770000e-06	-3.503600e-07	-3.391265e-10	-2.441929e+00	-2.604979e+01
1.780000e-06	-3.037469e-07	-3.288837e-10	-2.117046e+00	-2.537500e+01
1.790000e-06	-2.570300e-07	-3.190631e-10	-1.791440e+00	-2.468875e+01
1.800000e-06	-2.102502e-07	-3.114354e-10	-1.465396e+00	-2.399113e+01
1.810000e-06	-1.635057e-07	-3.027158e-10	-1.139597e+00	-2.328221e+01
1.820000e-06	-1.168987e-07	-2.918492e-10	-8.147572e-01	-2.256213e+01
1.830000e-06	-7.028649e-08	-2.800300e-10	-4.898807e-01	-2.183104e+01
1.840000e-06	-2.358835e-08	-2.690979e-10	-1.644053e-01	-2.108911e+01
1.850000e-06	2.307874e-08	-2.593896e-10	1.608535e-01	-2.033654e+01
1.860000e-06	6.972213e-08	-2.509977e-10	4.859472e-01	-1.957354e+01
1.870000e-06	1.164720e-07	-2.411066e-10	8.117834e-01	-1.880038e+01
1.880000e-06	1.632442e-07	-2.292553e-10	1.137774e+00	-1.801731e+01
1.890000e-06	2.099143e-07	-2.174513e-10	1.463055e+00	-1.722463e+01
1.900000e-06	2.566299e-07	-2.061480e-10	1.788651e+00	-1.642266e+01
1.910000e-06	3.033090e-07	-1.950928e-10	2.113994e+00	-1.561172e+01
1.920000e-06	3.498438e-07	-1.829331e-10	2.438331e+00	-1.479218e+01
1.930000e-06	3.963646e-07	-1.690118e-10	2.762570e+00	-1.396439e+01
1.940000e-06	4.429312e-07	-1.554503e-10	3.087128e+00	-1.312876e+01
1.950000e-06	4.894480e-07	-1.426176e-10	3.411340e+00	-1.228568e+01
1.960000e-06	5.358144e-07	-1.302439e-10	3.734503e+00	-1.143556e+01
1.970000e-06	5.821487e-07	-1.190456e-10	4.057443e+00	-1.057885e+01
1.980000e-06	6.285067e-07	-1.079596e-10	4.380547e+00	-9.715979e+00
1.990000e-06	6.747887e-07	-9.792108e-11	4.703122e+00	-8.847394e+00
2.000000e-06	7.210266e-07	-8.766354e-11	5.025390e+00	-7.973555e+00
2.010000e-06	7.672056e-07	-7.460286e-11	5.347247e+00	-7.094926e+00
2.020000e-06	8.132485e-07	-6.187230e-11	5.668156e+00	-6.211977e+00
2.030000e-06	8.592500e-07	-4.850734e-11	5.988775e+00	-5.325178e+00
2.040000e-06	9.052825e-07	-3.253807e-11	6.309611e+00	-4.435005e+00
2.050000e-06	9.512654e-07	-1.766448e-11	6.630102e+00	-3.541932e+00
2.060000e-06	9.972043e-07	-3.376282e-12	6.950285e+00	-2.646434e+00
2.070000e-06	1.043095e-06	8.111609e-12	7.270133e+00	-1.748983e+00
2.080000e-06	1.088904e-06	1.821630e-11	7.589411e+00	-8.500476e-01
2.090000e-06	1.134663e-06	2.825771e-11	7.908339e+00	4.990655e-02
2.100000e-06	1.180336e-06	4.232643e-11	8.226673e+00	9.504200e-01
2.110000e-06	1.225905e-06	5.730574e-11	8.544275e+00	1.851039e+00
2.120000e-06	1.271370e-06	7.074523e-11	8.861158e+00	2.751318e+00
2.130000e-06	1.316724e-06	8.383972e-11	9.177267e+00	3.650818e+00
2.140000e-06	1.361972e-06	9.716184e-11	9.492634e+00	4.549109e+00
2.150000e-06	1.407067e-06	1.094642e-10	9.806936e+00	5.445771e+00
2.160000e-06	1.452080e-06	1.198942e-10	1.012066e+01	6.340391e+00
2.170000e-06	1.497056e-06	1.313729e-10	1.043413e+01	7.232569e+00
2.180000e-06	1.541839e-06	1.436443e-10	1.074626e+01	8.121914e+00
2.190000e-06	1.586416e-06	1.561925e-10	1.105696e+01	9.008046e+00
2.200000e-06	1.630907e-06	1.703862e-10	1.136705e+01	9.890594e+00
2.210000e-06	1.675332e-06	1.848727e-10	1.167668e+01	1.076920e+01
2.220000e-06	1.719620e-06	1.966899e-10	1.198536e+01	1.164352e+01
2.230000e-06	1.763802e-06	2.059117e-10	1.229330e+01	1.251321e+01
2.240000e-06	1.807905e-06	2.165083e-10	1.260068e+01	1.337794e+01
2.250000e-06	1.851916e-06	2.285560e-10	1.290743e+01	1.423741e+01
2.260000e-06	1.895879e-06	2.422749e-10	1.321384e+01	1.509129e+01
2.270000e-06	1.939814e-06	2.562083e-10	1.352006e+01	1.593931e+01
2.280000e-06	1.983690e-06	2.688382e-10	1.382587e+01	1.678117e+01
2.290000e-06	2.027481e-06	2.809026e-10	1.413108e+01	1.761659e+01
2.300000e-06	2.071197e-06	2.925353e-10	1.443577e+01	1.844531e+01
2.310000e-06	2.114858e-06	3.026319e-10	1.474007e+01	1.926707e+01
2.320000e-06	2.158422e-06	3.118028e-10	1.504371e+01	2.008162e+01
2.330000e-06	2.201840e-06	3.238477e-10	1.534632e+01	2.088871e+01
2.340000e-06	2.245143e-06	3.370514e-10	1.564813e+01	2.168813e+01
2.350000e-06	2.288285e-06	3.514998e-10	1.594882e+01	2.247963e+01
2.360000e-06	2.331124e-06	3.631912e-10	1.624740e+01	2.326300e+01
2.370000e-06	2.373597e-06	3.743737e-10	1.654343e+01	2.403804e+01
2.380000e-06	2.415691e-06	3.838755e-10	1.683681e+01	2.480454e+01
2.390000e-06	2.457429e-06	3.925344e-10	1.712771e+01	2.556230e+01
2.400000e-06	2.498876e-06	4.013267e-10	1.741659e+01	2.631115e+01
2.410000e-06	2.540116e-06	4.118428e-10	1.770403e+01	2.705089e+01
2.420000e-06	2.581047e-06	4.241264e-10	1.798930e+01	2.778136e+01
2.430000e-06	2.621582e-06	4.358556e-10	1.827182e+01	2.850240e+01
2.440000e-06	2.661953e-06	4.455445e-10	1.855320e+01	2.921384e+01
2.450000e-06	2.702226e-06	4.536429e-10	1.883389e+01	2.991554e+01
2.460000e-06	2.742309e-06	4.607020e-10	1.911326e+01	3.060736e+01
2.470000e-06	2.782234e-06	4.680226e-10	1.939153e+01	3.128916e+01
2.480000e-06	2.822044e-06	4.770582e-10	1.966900e+01	3.196082e+01
2.490000e-06	2.861769e-06	4.853155e-10	1.994587e+01	3.262224e+01
2.500000e-06	2.901375e-06	4.940808e-10	2.022192e+01	3.327330e+01
2.510000e-06	2.940850e-06	5.045332e-10	2.049705e+01	3.391392e+01
2.520000e-06	2.980169e-06	5.146993e-10	2.077109e+01	3.454401e+01
2.530000e-06	3.019247e-06	5.235950e-10	2.104346e+01	3.516349e+01
2.540000e-06	3.058109e-06	5.322533e-10	2.131432e+01	3.577231e+01
2.550000e-06	3.096773e-06	5.411979e-10	2.158380e+01	3.637041e+01
2.560000e-06	3.135189e-06	5.485770e-10	2.185155e+01	3.695776e+01
2.570000e-06	3.173363e-06	5.541767e-10	2.211761e+01	3.753434e+01
2.580000e-06	3.211367e-06	5.618821e-10	2.238249e+01	3.810012e+01
2.590000e-06	3.249171e-06	5.708515e-10	2.264598e+01	3.865512e+01
2.600000e-06	3.286716e-06	5.804208e-10	2.290765e+01	3.919934e+01
2.610000e-06	3.324038e-06	5.871825e-10	2.316778e+01	3.973281e+01
2.620000e-06	3.361100e-06	5.922645e-10	2.342610e+01	4.025558e+01
2.630000e-06	3.397806e-06	5.991269e-10	2.368192e+01	4.076769e+01
2.640000e-06	3.434234e-06	6.069800e-10	2.393582e+01	4.126921e+01
2.650000e-06	3.470499e-06	6.152438e-10	2.418858e+01	4.176022e+01
2.660000e-06	3.506579e-06	6.252892e-10	2.444005e+01	4.224082e+01
2.670000e-06	3.542550e-06	6.326498e-10	2.469076e+01	4.271111e+01
2.680000e-06	3.578423e-06	6.358569e-10	2.494079e+01	4.317122e+01
2.690000e-06	3.614163e-06	6.376213e-10	2.518989e+01	4.362127e+01
2.700000e-06	3.649735e-06	6.396464e-10	2.543781e+01	4.406140e+01
2.710000e-06	3.685134e-06	6.439628e-10	2.568454e+01	4.449178e+01
2.720000e-06	3.720264e-06	6.513708e-10	2.592939e+01	4.491257e+01
2.730000e-06	3.754999e-06	6.599017e-10	2.617148e+01	4.532394e+01
2.740000e-06	3.789289e-06	6.674995e-10	2.641047e+01	4.572607e+01
2.750000e-06	3.823005e-06	6.722514e-10	2.664547e+01	4.611916e+01
2.760000e-06	3.856189e-06	6.743694e-10	2.687675e+01	4.650341e+01
2.770000e-06	3.888978e-06	6.764191e-10	2.710528e+01	4.687902e+01
2.780000e-06	3.921459e-06	6.798115e-10	2.733167e+01	4.724621e+01
2.790000e-06	3.953650e-06	6.853539e-10	2.755603e+01	4.760519e+01
2.800000e-06	3.985627e-06	6.908480e-10	2.777891e+01	4.795618e+01
2.810000e-06	4.017468e-06	6.969426e-10	2.800083e+01	4.829940e+01
2.820000e-06	4.049160e-06	7.024423e-10	2.822171e+01	4.863507e+01
2.830000e-06	4.080697e-06	7.059115e-10	2.844152e+01	4.896341e+01
2.840000e-06	4.112058e-06	7.096551e-10	2.866010e+01	4.928465e+01
2.850000e-06	4.143117e-06	7.138556e-10	2.887657e+01	4.959901e+01
2.860000e-06	4.173769e-06	7.181228e-10	2.909021e+01	4.990669e+01
2.870000e-06	4.204095e-06	7.226217e-10	2.930157e+01	5.020791e+01
2.880000e-06	4.234127e-06	7.263003e-10	2.951089e+01	5.050288e+01
2.890000e-06	4.263892e-06	7.283378e-10	2.971835e+01	5.079180e+01
2.900000e-06	4.293377e-06	7.282710e-10	2.992385e+01	5.107484e+01
