# Temperatura_=_15.2
# Concentracion g/m^3_=_1620.0
# C_Vs_to_Am_M_A/Vsm_=_65563218390.804596
# pendiente_HvsI_1/m_=_3716.3
# ordenada_HvsI_A/m_=_1297.0
# frecuencia_Hz_=_135106.4029559695

Tiempo_(s)	Campo_(V.s)	Magnetizacion_(V.s)	Campo_(kA/m)	Magnetizacion_(A/m)
0.000000e+00	-5.513612e-06	-1.125803e-09	-3.836810e+01	-7.344927e+01
1.000000e-08	-5.513793e-06	-1.125658e-09	-3.836936e+01	-7.343032e+01
2.000000e-08	-5.513707e-06	-1.126852e-09	-3.836877e+01	-7.341273e+01
3.000000e-08	-5.513273e-06	-1.127337e-09	-3.836574e+01	-7.339641e+01
4.000000e-08	-5.512325e-06	-1.127182e-09	-3.835915e+01	-7.338128e+01
5.000000e-08	-5.510739e-06	-1.126090e-09	-3.834811e+01	-7.336719e+01
6.000000e-08	-5.508543e-06	-1.119203e-09	-3.833283e+01	-7.335402e+01
7.000000e-08	-5.505822e-06	-1.124375e-09	-3.831390e+01	-7.334160e+01
8.000000e-08	-5.502631e-06	-1.151998e-09	-3.829169e+01	-7.332975e+01
9.000000e-08	-5.498997e-06	-1.154157e-09	-3.826640e+01	-7.331829e+01
1.000000e-07	-5.494912e-06	-1.100540e-09	-3.823797e+01	-7.330702e+01
1.100000e-07	-5.490485e-06	-1.092717e-09	-3.820717e+01	-7.329571e+01
1.200000e-07	-5.485847e-06	-1.147182e-09	-3.817489e+01	-7.328415e+01
1.300000e-07	-5.480961e-06	-1.185961e-09	-3.814089e+01	-7.327211e+01
1.400000e-07	-5.475719e-06	-1.114132e-09	-3.810441e+01	-7.325934e+01
1.500000e-07	-5.470125e-06	-1.083189e-09	-3.806549e+01	-7.324561e+01
1.600000e-07	-5.464197e-06	-1.129693e-09	-3.802423e+01	-7.323066e+01
1.700000e-07	-5.457833e-06	-1.173869e-09	-3.797995e+01	-7.321426e+01
1.800000e-07	-5.450968e-06	-1.113007e-09	-3.793218e+01	-7.319616e+01
1.900000e-07	-5.443795e-06	-1.079955e-09	-3.788226e+01	-7.317610e+01
2.000000e-07	-5.436334e-06	-1.141459e-09	-3.783034e+01	-7.315386e+01
2.100000e-07	-5.428533e-06	-1.191804e-09	-3.777605e+01	-7.312918e+01
2.200000e-07	-5.420467e-06	-1.169941e-09	-3.771992e+01	-7.310184e+01
2.300000e-07	-5.412062e-06	-1.122077e-09	-3.766144e+01	-7.307160e+01
2.400000e-07	-5.403189e-06	-1.149924e-09	-3.759969e+01	-7.303825e+01
2.500000e-07	-5.393641e-06	-1.168761e-09	-3.753325e+01	-7.300156e+01
2.600000e-07	-5.383339e-06	-1.153486e-09	-3.746156e+01	-7.296134e+01
2.700000e-07	-5.372516e-06	-1.120651e-09	-3.738624e+01	-7.291737e+01
2.800000e-07	-5.361285e-06	-1.143172e-09	-3.730809e+01	-7.286949e+01
2.900000e-07	-5.349620e-06	-1.152323e-09	-3.722692e+01	-7.281749e+01
3.000000e-07	-5.337624e-06	-1.141284e-09	-3.714344e+01	-7.276123e+01
3.100000e-07	-5.325267e-06	-1.104318e-09	-3.705745e+01	-7.270052e+01
3.200000e-07	-5.312452e-06	-1.116283e-09	-3.696827e+01	-7.263524e+01
3.300000e-07	-5.299237e-06	-1.130060e-09	-3.687631e+01	-7.256524e+01
3.400000e-07	-5.285676e-06	-1.113458e-09	-3.678194e+01	-7.249039e+01
3.500000e-07	-5.271676e-06	-1.077207e-09	-3.668452e+01	-7.241059e+01
3.600000e-07	-5.257160e-06	-1.104091e-09	-3.658351e+01	-7.232572e+01
3.700000e-07	-5.242210e-06	-1.116980e-09	-3.647947e+01	-7.223569e+01
3.800000e-07	-5.226749e-06	-1.081411e-09	-3.637188e+01	-7.214043e+01
3.900000e-07	-5.210637e-06	-1.075196e-09	-3.625976e+01	-7.203986e+01
4.000000e-07	-5.194142e-06	-1.114911e-09	-3.614498e+01	-7.193394e+01
4.100000e-07	-5.177412e-06	-1.086522e-09	-3.602856e+01	-7.182260e+01
4.200000e-07	-5.160272e-06	-1.046323e-09	-3.590928e+01	-7.170583e+01
4.300000e-07	-5.142792e-06	-1.094271e-09	-3.578764e+01	-7.158359e+01
4.400000e-07	-5.125060e-06	-1.109534e-09	-3.566425e+01	-7.145588e+01
4.500000e-07	-5.106947e-06	-1.046628e-09	-3.553821e+01	-7.132271e+01
4.600000e-07	-5.088397e-06	-1.051747e-09	-3.540912e+01	-7.118408e+01
4.700000e-07	-5.069458e-06	-1.110274e-09	-3.527732e+01	-7.104001e+01
4.800000e-07	-5.050241e-06	-1.067409e-09	-3.514360e+01	-7.089056e+01
4.900000e-07	-5.030744e-06	-1.040242e-09	-3.500793e+01	-7.073576e+01
5.000000e-07	-5.011032e-06	-1.085548e-09	-3.487075e+01	-7.057568e+01
5.100000e-07	-4.991089e-06	-1.075201e-09	-3.473198e+01	-7.041039e+01
5.200000e-07	-4.970853e-06	-1.022301e-09	-3.459115e+01	-7.023997e+01
5.300000e-07	-4.950343e-06	-1.067737e-09	-3.444843e+01	-7.006451e+01
5.400000e-07	-4.929425e-06	-1.077831e-09	-3.430287e+01	-6.988413e+01
5.500000e-07	-4.908078e-06	-1.018661e-09	-3.415431e+01	-6.969893e+01
5.600000e-07	-4.886425e-06	-1.029221e-09	-3.400363e+01	-6.950904e+01
5.700000e-07	-4.864460e-06	-1.078038e-09	-3.385079e+01	-6.931459e+01
5.800000e-07	-4.842140e-06	-1.034902e-09	-3.369547e+01	-6.911573e+01
5.900000e-07	-4.819489e-06	-1.021285e-09	-3.353784e+01	-6.891260e+01
6.000000e-07	-4.796460e-06	-1.062030e-09	-3.337759e+01	-6.870536e+01
6.100000e-07	-4.773122e-06	-1.049039e-09	-3.321519e+01	-6.849417e+01
6.200000e-07	-4.749571e-06	-1.016710e-09	-3.305130e+01	-6.827921e+01
6.300000e-07	-4.725772e-06	-1.045400e-09	-3.288568e+01	-6.806063e+01
6.400000e-07	-4.701682e-06	-1.042810e-09	-3.271805e+01	-6.783861e+01
6.500000e-07	-4.677262e-06	-1.015763e-09	-3.254811e+01	-6.761334e+01
6.600000e-07	-4.652510e-06	-1.029967e-09	-3.237587e+01	-6.738498e+01
6.700000e-07	-4.627280e-06	-1.035018e-09	-3.220030e+01	-6.715371e+01
6.800000e-07	-4.601373e-06	-1.006810e-09	-3.202002e+01	-6.691971e+01
6.900000e-07	-4.574878e-06	-1.011511e-09	-3.183564e+01	-6.668313e+01
7.000000e-07	-4.547897e-06	-1.019169e-09	-3.164789e+01	-6.644414e+01
7.100000e-07	-4.520579e-06	-9.942546e-10	-3.145779e+01	-6.620290e+01
7.200000e-07	-4.493035e-06	-9.921514e-10	-3.126612e+01	-6.595955e+01
7.300000e-07	-4.465290e-06	-1.004821e-09	-3.107305e+01	-6.571422e+01
7.400000e-07	-4.437404e-06	-9.913587e-10	-3.087899e+01	-6.546704e+01
7.500000e-07	-4.409303e-06	-9.824257e-10	-3.068344e+01	-6.521812e+01
7.600000e-07	-4.380916e-06	-9.941402e-10	-3.048590e+01	-6.496755e+01
7.700000e-07	-4.352205e-06	-9.824800e-10	-3.028611e+01	-6.471542e+01
7.800000e-07	-4.323113e-06	-9.714516e-10	-3.008366e+01	-6.446177e+01
7.900000e-07	-4.293739e-06	-9.783172e-10	-2.987925e+01	-6.420667e+01
8.000000e-07	-4.264124e-06	-9.724948e-10	-2.967317e+01	-6.395012e+01
8.100000e-07	-4.234214e-06	-9.506393e-10	-2.946504e+01	-6.369213e+01
8.200000e-07	-4.204097e-06	-9.536093e-10	-2.925545e+01	-6.343268e+01
8.300000e-07	-4.173627e-06	-9.525818e-10	-2.904342e+01	-6.317173e+01
8.400000e-07	-4.142766e-06	-9.374370e-10	-2.882867e+01	-6.290923e+01
8.500000e-07	-4.111724e-06	-9.334451e-10	-2.861265e+01	-6.264508e+01
8.600000e-07	-4.080452e-06	-9.404329e-10	-2.839503e+01	-6.237919e+01
8.700000e-07	-4.048937e-06	-9.274114e-10	-2.817573e+01	-6.211142e+01
8.800000e-07	-4.017274e-06	-9.189071e-10	-2.795539e+01	-6.184163e+01
8.900000e-07	-3.985414e-06	-9.214713e-10	-2.773368e+01	-6.156965e+01
9.000000e-07	-3.953326e-06	-9.136253e-10	-2.751039e+01	-6.129530e+01
9.100000e-07	-3.921001e-06	-8.962818e-10	-2.728545e+01	-6.101838e+01
9.200000e-07	-3.888385e-06	-8.953893e-10	-2.705848e+01	-6.073866e+01
9.300000e-07	-3.855367e-06	-8.912699e-10	-2.682871e+01	-6.045592e+01
9.400000e-07	-3.821793e-06	-8.789737e-10	-2.659508e+01	-6.016991e+01
9.500000e-07	-3.787710e-06	-8.773500e-10	-2.635790e+01	-5.988038e+01
9.600000e-07	-3.753203e-06	-8.802645e-10	-2.611778e+01	-5.958706e+01
9.700000e-07	-3.718327e-06	-8.687188e-10	-2.587508e+01	-5.928969e+01
9.800000e-07	-3.683130e-06	-8.583655e-10	-2.563015e+01	-5.898801e+01
9.900000e-07	-3.647687e-06	-8.577543e-10	-2.538351e+01	-5.868173e+01
1.000000e-06	-3.612128e-06	-8.512630e-10	-2.513606e+01	-5.837061e+01
1.010000e-06	-3.576455e-06	-8.446215e-10	-2.488782e+01	-5.805437e+01
1.020000e-06	-3.540627e-06	-8.450043e-10	-2.463850e+01	-5.773278e+01
1.030000e-06	-3.504618e-06	-8.403727e-10	-2.438792e+01	-5.740558e+01
1.040000e-06	-3.468350e-06	-8.309938e-10	-2.413554e+01	-5.707257e+01
1.050000e-06	-3.431775e-06	-8.305814e-10	-2.388102e+01	-5.673353e+01
1.060000e-06	-3.394872e-06	-8.265416e-10	-2.362423e+01	-5.638828e+01
1.070000e-06	-3.357768e-06	-8.165068e-10	-2.336603e+01	-5.603666e+01
1.080000e-06	-3.320490e-06	-8.102842e-10	-2.310662e+01	-5.567852e+01
1.090000e-06	-3.282992e-06	-8.104077e-10	-2.284567e+01	-5.531375e+01
1.100000e-06	-3.245326e-06	-8.034462e-10	-2.258356e+01	-5.494227e+01
1.110000e-06	-3.207382e-06	-7.948289e-10	-2.231952e+01	-5.456403e+01
1.120000e-06	-3.169225e-06	-7.885373e-10	-2.205399e+01	-5.417900e+01
1.130000e-06	-3.130898e-06	-7.798329e-10	-2.178728e+01	-5.378719e+01
1.140000e-06	-3.092274e-06	-7.684467e-10	-2.151850e+01	-5.338865e+01
1.150000e-06	-3.053343e-06	-7.625779e-10	-2.124759e+01	-5.298344e+01
1.160000e-06	-3.014281e-06	-7.575064e-10	-2.097577e+01	-5.257167e+01
1.170000e-06	-2.975102e-06	-7.525080e-10	-2.070313e+01	-5.215347e+01
1.180000e-06	-2.935789e-06	-7.479864e-10	-2.042956e+01	-5.172903e+01
1.190000e-06	-2.896340e-06	-7.431324e-10	-2.015504e+01	-5.129852e+01
1.200000e-06	-2.856678e-06	-7.333235e-10	-1.987904e+01	-5.086217e+01
1.210000e-06	-2.816884e-06	-7.249783e-10	-1.960212e+01	-5.042024e+01
1.220000e-06	-2.776967e-06	-7.197383e-10	-1.932435e+01	-4.997298e+01
1.230000e-06	-2.736892e-06	-7.142207e-10	-1.904548e+01	-4.952068e+01
1.240000e-06	-2.696648e-06	-7.071881e-10	-1.876543e+01	-4.906365e+01
1.250000e-06	-2.656274e-06	-7.029595e-10	-1.848447e+01	-4.860220e+01
1.260000e-06	-2.615706e-06	-6.983658e-10	-1.820217e+01	-4.813664e+01
1.270000e-06	-2.574868e-06	-6.934292e-10	-1.791798e+01	-4.766730e+01
1.280000e-06	-2.533676e-06	-6.882728e-10	-1.763133e+01	-4.719451e+01
1.290000e-06	-2.492120e-06	-6.822663e-10	-1.734215e+01	-4.671857e+01
1.300000e-06	-2.450320e-06	-6.749712e-10	-1.705128e+01	-4.623979e+01
1.310000e-06	-2.408203e-06	-6.647017e-10	-1.675819e+01	-4.575845e+01
1.320000e-06	-2.365696e-06	-6.544384e-10	-1.646240e+01	-4.527483e+01
1.330000e-06	-2.322848e-06	-6.435824e-10	-1.616423e+01	-4.478915e+01
1.340000e-06	-2.279838e-06	-6.353520e-10	-1.586493e+01	-4.430163e+01
1.350000e-06	-2.236731e-06	-6.298545e-10	-1.556495e+01	-4.381243e+01
1.360000e-06	-2.193408e-06	-6.263492e-10	-1.526348e+01	-4.332169e+01
1.370000e-06	-2.149911e-06	-6.216252e-10	-1.496080e+01	-4.282950e+01
1.380000e-06	-2.106338e-06	-6.158130e-10	-1.465758e+01	-4.233588e+01
1.390000e-06	-2.062670e-06	-6.061235e-10	-1.435370e+01	-4.184082e+01
1.400000e-06	-2.018896e-06	-5.939546e-10	-1.404909e+01	-4.134425e+01
1.410000e-06	-1.975062e-06	-5.813914e-10	-1.374405e+01	-4.084603e+01
1.420000e-06	-1.931169e-06	-5.744167e-10	-1.343861e+01	-4.034598e+01
1.430000e-06	-1.887205e-06	-5.711242e-10	-1.313268e+01	-3.984383e+01
1.440000e-06	-1.843165e-06	-5.678061e-10	-1.282621e+01	-3.933925e+01
1.450000e-06	-1.798979e-06	-5.626855e-10	-1.251873e+01	-3.883187e+01
1.460000e-06	-1.754650e-06	-5.553840e-10	-1.221025e+01	-3.832123e+01
1.470000e-06	-1.710251e-06	-5.456265e-10	-1.190129e+01	-3.780681e+01
1.480000e-06	-1.665771e-06	-5.346942e-10	-1.159176e+01	-3.728802e+01
1.490000e-06	-1.621120e-06	-5.256983e-10	-1.128105e+01	-3.676422e+01
1.500000e-06	-1.576287e-06	-5.180185e-10	-1.096906e+01	-3.623472e+01
1.510000e-06	-1.531311e-06	-5.102657e-10	-1.065608e+01	-3.569873e+01
1.520000e-06	-1.486210e-06	-5.037827e-10	-1.034223e+01	-3.515546e+01
1.530000e-06	-1.441019e-06	-4.979777e-10	-1.002776e+01	-3.460405e+01
1.540000e-06	-1.395686e-06	-4.916810e-10	-9.712295e+00	-3.404358e+01
1.550000e-06	-1.350224e-06	-4.835350e-10	-9.395935e+00	-3.347312e+01
1.560000e-06	-1.304730e-06	-4.733706e-10	-9.079351e+00	-3.289170e+01
1.570000e-06	-1.259187e-06	-4.610968e-10	-8.762423e+00	-3.229832e+01
1.580000e-06	-1.213529e-06	-4.484383e-10	-8.444700e+00	-3.169196e+01
1.590000e-06	-1.167762e-06	-4.375150e-10	-8.126219e+00	-3.107162e+01
1.600000e-06	-1.121927e-06	-4.282923e-10	-7.807258e+00	-3.043625e+01
1.610000e-06	-1.076007e-06	-4.184459e-10	-7.487712e+00	-2.978485e+01
1.620000e-06	-1.029979e-06	-4.058768e-10	-7.167413e+00	-2.911642e+01
1.630000e-06	-9.838765e-07	-3.906787e-10	-6.846596e+00	-2.842997e+01
1.640000e-06	-9.376959e-07	-3.761783e-10	-6.525235e+00	-2.772457e+01
1.650000e-06	-8.914396e-07	-3.636230e-10	-6.203347e+00	-2.699931e+01
1.660000e-06	-8.451295e-07	-3.516765e-10	-5.881084e+00	-2.625333e+01
1.670000e-06	-7.987710e-07	-3.432947e-10	-5.558485e+00	-2.548584e+01
1.680000e-06	-7.523935e-07	-3.346015e-10	-5.235753e+00	-2.469610e+01
1.690000e-06	-7.059161e-07	-3.222224e-10	-4.912327e+00	-2.388347e+01
1.700000e-06	-6.594079e-07	-3.084447e-10	-4.588685e+00	-2.304736e+01
1.710000e-06	-6.129089e-07	-2.941049e-10	-4.265108e+00	-2.218729e+01
1.720000e-06	-5.663402e-07	-2.792219e-10	-3.941046e+00	-2.130286e+01
1.730000e-06	-5.198188e-07	-2.640819e-10	-3.617313e+00	-2.039379e+01
1.740000e-06	-4.732459e-07	-2.477183e-10	-3.293222e+00	-1.945988e+01
1.750000e-06	-4.265699e-07	-2.323230e-10	-2.968413e+00	-1.850105e+01
1.760000e-06	-3.798635e-07	-2.194899e-10	-2.643393e+00	-1.751735e+01
1.770000e-06	-3.331383e-07	-2.069767e-10	-2.318241e+00	-1.650891e+01
1.780000e-06	-2.864593e-07	-1.920966e-10	-1.993412e+00	-1.547602e+01
1.790000e-06	-2.397844e-07	-1.783062e-10	-1.668611e+00	-1.441906e+01
1.800000e-06	-1.930678e-07	-1.641083e-10	-1.343520e+00	-1.333855e+01
1.810000e-06	-1.463100e-07	-1.462992e-10	-1.018142e+00	-1.223510e+01
1.820000e-06	-9.955623e-08	-1.271347e-10	-6.927915e-01	-1.110946e+01
1.830000e-06	-5.285413e-08	-1.100410e-10	-3.678011e-01	-9.962504e+00
1.840000e-06	-6.129045e-09	-9.405809e-11	-4.265078e-02	-8.795191e+00
1.850000e-06	4.070679e-08	-7.955498e-11	2.832703e-01	-7.608605e+00
1.860000e-06	8.752335e-08	-6.611447e-11	6.090572e-01	-6.403928e+00
1.870000e-06	1.342562e-07	-5.095923e-11	9.342617e-01	-5.182439e+00
1.880000e-06	1.810201e-07	-3.352246e-11	1.259682e+00	-3.945506e+00
1.890000e-06	2.278288e-07	-1.590214e-11	1.585414e+00	-2.694583e+00
1.900000e-06	2.746988e-07	1.560480e-12	1.911573e+00	-1.431195e+00
1.910000e-06	3.215406e-07	1.967496e-11	2.237536e+00	-1.569364e-01
1.920000e-06	3.683194e-07	3.833238e-11	2.563060e+00	1.126544e+00
1.930000e-06	4.150028e-07	5.744209e-11	2.887920e+00	2.417547e+00
1.940000e-06	4.615775e-07	7.647602e-11	3.212024e+00	3.714337e+00
1.950000e-06	5.080579e-07	9.506833e-11	3.535472e+00	5.015151e+00
1.960000e-06	5.545078e-07	1.128703e-10	3.858707e+00	6.318206e+00
1.970000e-06	6.009329e-07	1.295203e-10	4.181770e+00	7.621716e+00
1.980000e-06	6.473106e-07	1.438354e-10	4.504503e+00	8.923895e+00
1.990000e-06	6.937019e-07	1.567604e-10	4.827330e+00	1.022297e+01
2.000000e-06	7.401186e-07	1.722857e-10	5.150335e+00	1.151720e+01
2.010000e-06	7.865594e-07	1.905979e-10	5.473507e+00	1.280487e+01
2.020000e-06	8.328722e-07	2.089539e-10	5.795788e+00	1.408432e+01
2.030000e-06	8.790416e-07	2.287576e-10	6.117072e+00	1.535392e+01
2.040000e-06	9.250642e-07	2.481939e-10	6.437334e+00	1.661213e+01
2.050000e-06	9.710084e-07	2.656931e-10	6.757050e+00	1.785746e+01
2.060000e-06	1.016972e-06	2.825821e-10	7.076898e+00	1.908851e+01
2.070000e-06	1.062883e-06	2.990026e-10	7.396389e+00	2.030397e+01
2.080000e-06	1.108704e-06	3.169483e-10	7.715247e+00	2.150261e+01
2.090000e-06	1.154488e-06	3.349216e-10	8.033847e+00	2.268329e+01
2.100000e-06	1.200208e-06	3.516782e-10	8.352002e+00	2.384500e+01
2.110000e-06	1.245840e-06	3.690548e-10	8.669550e+00	2.498681e+01
2.120000e-06	1.291393e-06	3.840711e-10	8.986539e+00	2.610791e+01
2.130000e-06	1.336788e-06	3.985796e-10	9.302436e+00	2.720760e+01
2.140000e-06	1.382042e-06	4.125939e-10	9.617350e+00	2.828529e+01
2.150000e-06	1.427201e-06	4.270718e-10	9.931598e+00	2.934051e+01
2.160000e-06	1.472307e-06	4.414611e-10	1.024548e+01	3.037290e+01
2.170000e-06	1.517295e-06	4.550901e-10	1.055854e+01	3.138220e+01
2.180000e-06	1.562109e-06	4.685064e-10	1.087040e+01	3.236826e+01
2.190000e-06	1.606854e-06	4.823262e-10	1.118177e+01	3.333106e+01
2.200000e-06	1.651513e-06	4.947168e-10	1.149254e+01	3.427066e+01
2.210000e-06	1.695984e-06	5.055583e-10	1.180201e+01	3.518721e+01
2.220000e-06	1.740245e-06	5.177789e-10	1.211001e+01	3.608097e+01
2.230000e-06	1.784402e-06	5.322210e-10	1.241729e+01	3.695228e+01
2.240000e-06	1.828546e-06	5.473231e-10	1.272448e+01	3.780155e+01
2.250000e-06	1.872624e-06	5.616977e-10	1.303121e+01	3.862929e+01
2.260000e-06	1.916602e-06	5.757381e-10	1.333725e+01	3.943604e+01
2.270000e-06	1.960508e-06	5.887435e-10	1.364278e+01	4.022243e+01
2.280000e-06	2.004341e-06	6.008833e-10	1.394780e+01	4.098911e+01
2.290000e-06	2.048080e-06	6.104140e-10	1.425217e+01	4.173679e+01
2.300000e-06	2.091761e-06	6.178196e-10	1.455614e+01	4.246622e+01
2.310000e-06	2.135368e-06	6.263763e-10	1.485959e+01	4.317817e+01
2.320000e-06	2.178812e-06	6.371578e-10	1.516191e+01	4.387341e+01
2.330000e-06	2.222139e-06	6.494536e-10	1.546342e+01	4.455273e+01
2.340000e-06	2.265373e-06	6.627153e-10	1.576427e+01	4.521694e+01
2.350000e-06	2.308363e-06	6.740957e-10	1.606343e+01	4.586683e+01
2.360000e-06	2.351064e-06	6.838575e-10	1.636058e+01	4.650316e+01
2.370000e-06	2.393469e-06	6.915194e-10	1.665566e+01	4.712670e+01
2.380000e-06	2.435652e-06	6.986857e-10	1.694920e+01	4.773818e+01
2.390000e-06	2.477563e-06	7.057823e-10	1.724086e+01	4.833828e+01
2.400000e-06	2.519097e-06	7.140000e-10	1.752988e+01	4.892768e+01
2.410000e-06	2.560392e-06	7.248206e-10	1.781725e+01	4.950699e+01
2.420000e-06	2.601413e-06	7.374782e-10	1.810270e+01	5.007678e+01
2.430000e-06	2.642103e-06	7.497234e-10	1.838586e+01	5.063759e+01
2.440000e-06	2.682526e-06	7.583912e-10	1.866715e+01	5.118986e+01
2.450000e-06	2.722731e-06	7.638508e-10	1.894693e+01	5.173404e+01
2.460000e-06	2.762791e-06	7.685079e-10	1.922570e+01	5.227047e+01
2.470000e-06	2.802739e-06	7.723402e-10	1.950369e+01	5.279946e+01
2.480000e-06	2.842559e-06	7.765091e-10	1.978079e+01	5.332127e+01
2.490000e-06	2.882220e-06	7.825566e-10	2.005678e+01	5.383608e+01
2.500000e-06	2.921755e-06	7.911425e-10	2.033190e+01	5.434404e+01
2.510000e-06	2.961168e-06	8.021943e-10	2.060616e+01	5.484523e+01
2.520000e-06	3.000407e-06	8.134494e-10	2.087922e+01	5.533970e+01
2.530000e-06	3.039448e-06	8.217986e-10	2.115090e+01	5.582743e+01
2.540000e-06	3.078170e-06	8.284823e-10	2.142036e+01	5.630837e+01
2.550000e-06	3.116644e-06	8.345106e-10	2.168809e+01	5.678244e+01
2.560000e-06	3.154987e-06	8.391101e-10	2.195491e+01	5.724950e+01
2.570000e-06	3.193127e-06	8.453184e-10	2.222032e+01	5.770941e+01
2.580000e-06	3.231041e-06	8.534149e-10	2.248416e+01	5.816197e+01
2.590000e-06	3.268719e-06	8.618066e-10	2.274635e+01	5.860700e+01
2.600000e-06	3.306233e-06	8.681112e-10	2.300741e+01	5.904426e+01
2.610000e-06	3.343563e-06	8.736927e-10	2.326718e+01	5.947353e+01
2.620000e-06	3.380574e-06	8.785425e-10	2.352472e+01	5.989459e+01
2.630000e-06	3.417256e-06	8.809555e-10	2.377999e+01	6.030718e+01
2.640000e-06	3.453716e-06	8.821326e-10	2.403370e+01	6.071110e+01
2.650000e-06	3.490042e-06	8.868054e-10	2.428649e+01	6.110611e+01
2.660000e-06	3.526147e-06	8.962397e-10	2.453774e+01	6.149202e+01
2.670000e-06	3.562073e-06	9.037835e-10	2.478774e+01	6.186864e+01
2.680000e-06	3.597886e-06	9.086226e-10	2.503696e+01	6.223581e+01
2.690000e-06	3.633506e-06	9.110519e-10	2.528483e+01	6.259340e+01
2.700000e-06	3.669026e-06	9.122112e-10	2.553201e+01	6.294129e+01
2.710000e-06	3.704397e-06	9.144121e-10	2.577814e+01	6.327942e+01
2.720000e-06	3.739434e-06	9.181122e-10	2.602196e+01	6.360775e+01
2.730000e-06	3.774071e-06	9.230264e-10	2.626299e+01	6.392627e+01
2.740000e-06	3.808297e-06	9.272241e-10	2.650116e+01	6.423502e+01
2.750000e-06	3.842134e-06	9.302798e-10	2.673663e+01	6.453408e+01
2.760000e-06	3.875497e-06	9.311334e-10	2.696880e+01	6.482356e+01
2.770000e-06	3.908337e-06	9.307301e-10	2.719732e+01	6.510361e+01
2.780000e-06	3.940789e-06	9.316561e-10	2.742315e+01	6.537443e+01
2.790000e-06	3.972963e-06	9.336310e-10	2.764704e+01	6.563624e+01
2.800000e-06	4.004917e-06	9.364328e-10	2.786940e+01	6.588931e+01
2.810000e-06	4.036715e-06	9.394436e-10	2.809068e+01	6.613394e+01
2.820000e-06	4.068363e-06	9.438344e-10	2.831091e+01	6.637044e+01
2.830000e-06	4.099833e-06	9.493900e-10	2.852990e+01	6.659918e+01
2.840000e-06	4.131112e-06	9.543355e-10	2.874757e+01	6.682053e+01
2.850000e-06	4.162047e-06	9.588851e-10	2.896284e+01	6.703490e+01
2.860000e-06	4.192574e-06	9.642795e-10	2.917527e+01	6.724271e+01
2.870000e-06	4.222803e-06	9.707987e-10	2.938562e+01	6.744438e+01
2.880000e-06	4.252773e-06	9.749830e-10	2.959418e+01	6.764037e+01
2.890000e-06	4.282518e-06	9.762404e-10	2.980117e+01	6.783110e+01
2.900000e-06	4.311946e-06	9.774801e-10	3.000595e+01	6.801704e+01
2.910000e-06	4.340992e-06	9.807870e-10	3.020808e+01	6.819863e+01
