# Temperatura_=_-0.3
# Concentracion g/m^3_=_1620.0
# C_Vs_to_Am_M_A/Vsm_=_65563218390.804596
# pendiente_HvsI_1/m_=_3716.3
# ordenada_HvsI_A/m_=_1297.0
# frecuencia_Hz_=_135105.44502749076

Tiempo_(s)	Campo_(V.s)	Magnetizacion_(V.s)	Campo_(kA/m)	Magnetizacion_(A/m)
0.000000e+00	-5.507549e-06	-1.545423e-09	-3.837120e+01	-1.002257e+02
1.000000e-08	-5.507737e-06	-1.544764e-09	-3.837251e+01	-1.002269e+02
2.000000e-08	-5.507731e-06	-1.544658e-09	-3.837247e+01	-1.002251e+02
3.000000e-08	-5.507444e-06	-1.546058e-09	-3.837047e+01	-1.002202e+02
4.000000e-08	-5.506719e-06	-1.547220e-09	-3.836541e+01	-1.002120e+02
5.000000e-08	-5.505369e-06	-1.544928e-09	-3.835602e+01	-1.002003e+02
6.000000e-08	-5.503364e-06	-1.537675e-09	-3.834204e+01	-1.001850e+02
7.000000e-08	-5.500829e-06	-1.525655e-09	-3.832438e+01	-1.001659e+02
8.000000e-08	-5.497780e-06	-1.545415e-09	-3.830314e+01	-1.001428e+02
9.000000e-08	-5.494265e-06	-1.580656e-09	-3.827865e+01	-1.001156e+02
1.000000e-07	-5.490303e-06	-1.561921e-09	-3.825105e+01	-1.000842e+02
1.100000e-07	-5.485954e-06	-1.502092e-09	-3.822075e+01	-1.000483e+02
1.200000e-07	-5.481452e-06	-1.532209e-09	-3.818938e+01	-1.000080e+02
1.300000e-07	-5.476806e-06	-1.545705e-09	-3.815701e+01	-9.996297e+01
1.400000e-07	-5.471789e-06	-1.564641e-09	-3.812206e+01	-9.991319e+01
1.500000e-07	-5.466355e-06	-1.492292e-09	-3.808420e+01	-9.985854e+01
1.600000e-07	-5.460621e-06	-1.538587e-09	-3.804425e+01	-9.979892e+01
1.700000e-07	-5.454509e-06	-1.563996e-09	-3.800167e+01	-9.973425e+01
1.800000e-07	-5.447907e-06	-1.549787e-09	-3.795567e+01	-9.966444e+01
1.900000e-07	-5.440871e-06	-1.485400e-09	-3.790665e+01	-9.958944e+01
2.000000e-07	-5.433503e-06	-1.492222e-09	-3.785532e+01	-9.950918e+01
2.100000e-07	-5.425886e-06	-1.549083e-09	-3.780225e+01	-9.942364e+01
2.200000e-07	-5.417966e-06	-1.562540e-09	-3.774708e+01	-9.933276e+01
2.300000e-07	-5.409822e-06	-1.535668e-09	-3.769033e+01	-9.923654e+01
2.400000e-07	-5.401367e-06	-1.504105e-09	-3.763143e+01	-9.913496e+01
2.500000e-07	-5.392283e-06	-1.529919e-09	-3.756814e+01	-9.902802e+01
2.600000e-07	-5.382443e-06	-1.503996e-09	-3.749958e+01	-9.891572e+01
2.700000e-07	-5.371923e-06	-1.498714e-09	-3.742629e+01	-9.879807e+01
2.800000e-07	-5.360854e-06	-1.476982e-09	-3.734917e+01	-9.867510e+01
2.900000e-07	-5.349344e-06	-1.512935e-09	-3.726898e+01	-9.854683e+01
3.000000e-07	-5.337523e-06	-1.490661e-09	-3.718662e+01	-9.841329e+01
3.100000e-07	-5.325312e-06	-1.490197e-09	-3.710155e+01	-9.827454e+01
3.200000e-07	-5.312589e-06	-1.458676e-09	-3.701291e+01	-9.813060e+01
3.300000e-07	-5.299473e-06	-1.494991e-09	-3.692153e+01	-9.798152e+01
3.400000e-07	-5.286052e-06	-1.473505e-09	-3.682803e+01	-9.782736e+01
3.500000e-07	-5.272303e-06	-1.458113e-09	-3.673224e+01	-9.766817e+01
3.600000e-07	-5.258067e-06	-1.450300e-09	-3.663305e+01	-9.750400e+01
3.700000e-07	-5.243442e-06	-1.496492e-09	-3.653116e+01	-9.733490e+01
3.800000e-07	-5.228468e-06	-1.457148e-09	-3.642684e+01	-9.716093e+01
3.900000e-07	-5.212882e-06	-1.437684e-09	-3.631825e+01	-9.698215e+01
4.000000e-07	-5.196710e-06	-1.466568e-09	-3.620558e+01	-9.679859e+01
4.100000e-07	-5.180122e-06	-1.474601e-09	-3.609001e+01	-9.661033e+01
4.200000e-07	-5.163169e-06	-1.428357e-09	-3.597190e+01	-9.641740e+01
4.300000e-07	-5.145864e-06	-1.449394e-09	-3.585133e+01	-9.621986e+01
4.400000e-07	-5.128361e-06	-1.486314e-09	-3.572939e+01	-9.601775e+01
4.500000e-07	-5.110505e-06	-1.427323e-09	-3.560499e+01	-9.581111e+01
4.600000e-07	-5.092185e-06	-1.408989e-09	-3.547735e+01	-9.559999e+01
4.700000e-07	-5.073464e-06	-1.456420e-09	-3.534692e+01	-9.538441e+01
4.800000e-07	-5.054361e-06	-1.446177e-09	-3.521383e+01	-9.516443e+01
4.900000e-07	-5.034941e-06	-1.397142e-09	-3.507853e+01	-9.494007e+01
5.000000e-07	-5.015287e-06	-1.444024e-09	-3.494160e+01	-9.471136e+01
5.100000e-07	-4.995495e-06	-1.438645e-09	-3.480371e+01	-9.447833e+01
5.200000e-07	-4.975450e-06	-1.387978e-09	-3.466406e+01	-9.424100e+01
5.300000e-07	-4.955055e-06	-1.405911e-09	-3.452196e+01	-9.399941e+01
5.400000e-07	-4.934319e-06	-1.448114e-09	-3.437750e+01	-9.375356e+01
5.500000e-07	-4.913149e-06	-1.381706e-09	-3.423000e+01	-9.350349e+01
5.600000e-07	-4.891566e-06	-1.379200e-09	-3.407963e+01	-9.324921e+01
5.700000e-07	-4.869680e-06	-1.425193e-09	-3.392715e+01	-9.299074e+01
5.800000e-07	-4.847498e-06	-1.405632e-09	-3.377261e+01	-9.272810e+01
5.900000e-07	-4.824953e-06	-1.361783e-09	-3.361554e+01	-9.246130e+01
6.000000e-07	-4.802049e-06	-1.402366e-09	-3.345597e+01	-9.219036e+01
6.100000e-07	-4.778847e-06	-1.392741e-09	-3.329432e+01	-9.191529e+01
6.200000e-07	-4.755350e-06	-1.359099e-09	-3.313062e+01	-9.163612e+01
6.300000e-07	-4.731673e-06	-1.374197e-09	-3.296566e+01	-9.135285e+01
6.400000e-07	-4.707869e-06	-1.394268e-09	-3.279981e+01	-9.106551e+01
6.500000e-07	-4.683755e-06	-1.358993e-09	-3.263181e+01	-9.077410e+01
6.600000e-07	-4.659217e-06	-1.360243e-09	-3.246086e+01	-9.047865e+01
6.700000e-07	-4.634224e-06	-1.367683e-09	-3.228673e+01	-9.017915e+01
6.800000e-07	-4.608599e-06	-1.343947e-09	-3.210820e+01	-8.987564e+01
6.900000e-07	-4.582268e-06	-1.329695e-09	-3.192475e+01	-8.956811e+01
7.000000e-07	-4.555428e-06	-1.343434e-09	-3.173776e+01	-8.925658e+01
7.100000e-07	-4.528261e-06	-1.333766e-09	-3.154848e+01	-8.894106e+01
7.200000e-07	-4.500858e-06	-1.323825e-09	-3.135756e+01	-8.862155e+01
7.300000e-07	-4.473304e-06	-1.333590e-09	-3.116560e+01	-8.829806e+01
7.400000e-07	-4.445613e-06	-1.328667e-09	-3.097267e+01	-8.797059e+01
7.500000e-07	-4.417725e-06	-1.312288e-09	-3.077837e+01	-8.763914e+01
7.600000e-07	-4.389516e-06	-1.306919e-09	-3.058184e+01	-8.730369e+01
7.700000e-07	-4.360942e-06	-1.306976e-09	-3.038277e+01	-8.696424e+01
7.800000e-07	-4.331973e-06	-1.289447e-09	-3.018094e+01	-8.662078e+01
7.900000e-07	-4.302633e-06	-1.285356e-09	-2.997653e+01	-8.627327e+01
8.000000e-07	-4.273080e-06	-1.283401e-09	-2.977063e+01	-8.592170e+01
8.100000e-07	-4.243371e-06	-1.273239e-09	-2.956365e+01	-8.556603e+01
8.200000e-07	-4.213412e-06	-1.257218e-09	-2.935492e+01	-8.520623e+01
8.300000e-07	-4.183026e-06	-1.257700e-09	-2.914323e+01	-8.484223e+01
8.400000e-07	-4.152218e-06	-1.244180e-09	-2.892858e+01	-8.447400e+01
8.500000e-07	-4.121152e-06	-1.233581e-09	-2.871214e+01	-8.410148e+01
8.600000e-07	-4.089917e-06	-1.229856e-09	-2.849453e+01	-8.372458e+01
8.700000e-07	-4.058506e-06	-1.229999e-09	-2.827569e+01	-8.334325e+01
8.800000e-07	-4.026933e-06	-1.215606e-09	-2.805572e+01	-8.295740e+01
8.900000e-07	-3.995233e-06	-1.214861e-09	-2.783486e+01	-8.256695e+01
9.000000e-07	-3.963322e-06	-1.208023e-09	-2.761254e+01	-8.217179e+01
9.100000e-07	-3.931161e-06	-1.194152e-09	-2.738847e+01	-8.177184e+01
9.200000e-07	-3.898641e-06	-1.184339e-09	-2.716191e+01	-8.136699e+01
9.300000e-07	-3.865687e-06	-1.185453e-09	-2.693231e+01	-8.095713e+01
9.400000e-07	-3.832281e-06	-1.172705e-09	-2.669958e+01	-8.054214e+01
9.500000e-07	-3.798427e-06	-1.162492e-09	-2.646371e+01	-8.012192e+01
9.600000e-07	-3.764128e-06	-1.161087e-09	-2.622475e+01	-7.969635e+01
9.700000e-07	-3.729387e-06	-1.154778e-09	-2.598271e+01	-7.926531e+01
9.800000e-07	-3.694305e-06	-1.140222e-09	-2.573829e+01	-7.882868e+01
9.900000e-07	-3.659027e-06	-1.135656e-09	-2.549251e+01	-7.838636e+01
1.000000e-06	-3.623575e-06	-1.132252e-09	-2.524552e+01	-7.793822e+01
1.010000e-06	-3.587950e-06	-1.122711e-09	-2.499731e+01	-7.748416e+01
1.020000e-06	-3.552204e-06	-1.119120e-09	-2.474827e+01	-7.702407e+01
1.030000e-06	-3.516305e-06	-1.117653e-09	-2.449817e+01	-7.655786e+01
1.040000e-06	-3.480181e-06	-1.108913e-09	-2.424649e+01	-7.608544e+01
1.050000e-06	-3.443708e-06	-1.099529e-09	-2.399238e+01	-7.560673e+01
1.060000e-06	-3.406988e-06	-1.096575e-09	-2.373655e+01	-7.512166e+01
1.070000e-06	-3.370120e-06	-1.086634e-09	-2.347969e+01	-7.463016e+01
1.080000e-06	-3.333028e-06	-1.074433e-09	-2.322127e+01	-7.413219e+01
1.090000e-06	-3.295661e-06	-1.066800e-09	-2.296093e+01	-7.362772e+01
1.100000e-06	-3.258036e-06	-1.062802e-09	-2.269880e+01	-7.311672e+01
1.110000e-06	-3.220154e-06	-1.050884e-09	-2.243487e+01	-7.259918e+01
1.120000e-06	-3.182025e-06	-1.045803e-09	-2.216923e+01	-7.207511e+01
1.130000e-06	-3.143709e-06	-1.041276e-09	-2.190228e+01	-7.154454e+01
1.140000e-06	-3.105139e-06	-1.032553e-09	-2.163357e+01	-7.100748e+01
1.150000e-06	-3.066399e-06	-1.020952e-09	-2.136366e+01	-7.046400e+01
1.160000e-06	-3.027483e-06	-1.014885e-09	-2.109253e+01	-6.991416e+01
1.170000e-06	-2.988356e-06	-1.006534e-09	-2.081993e+01	-6.935803e+01
1.180000e-06	-2.949035e-06	-9.976347e-10	-2.054599e+01	-6.879570e+01
1.190000e-06	-2.909546e-06	-9.904640e-10	-2.027086e+01	-6.822727e+01
1.200000e-06	-2.869960e-06	-9.836695e-10	-1.999506e+01	-6.765286e+01
1.210000e-06	-2.830253e-06	-9.721322e-10	-1.971843e+01	-6.707258e+01
1.220000e-06	-2.790456e-06	-9.639628e-10	-1.944116e+01	-6.648656e+01
1.230000e-06	-2.750556e-06	-9.553777e-10	-1.916317e+01	-6.589493e+01
1.240000e-06	-2.710506e-06	-9.446427e-10	-1.888415e+01	-6.529783e+01
1.250000e-06	-2.670248e-06	-9.355034e-10	-1.860367e+01	-6.469539e+01
1.260000e-06	-2.629817e-06	-9.302575e-10	-1.832199e+01	-6.408775e+01
1.270000e-06	-2.589149e-06	-9.219819e-10	-1.803865e+01	-6.347504e+01
1.280000e-06	-2.548078e-06	-9.102010e-10	-1.775251e+01	-6.285738e+01
1.290000e-06	-2.506689e-06	-8.979563e-10	-1.746415e+01	-6.223488e+01
1.300000e-06	-2.465093e-06	-8.854306e-10	-1.717435e+01	-6.160766e+01
1.310000e-06	-2.423243e-06	-8.702627e-10	-1.688278e+01	-6.097580e+01
1.320000e-06	-2.381036e-06	-8.575638e-10	-1.658872e+01	-6.033936e+01
1.330000e-06	-2.338483e-06	-8.479013e-10	-1.629225e+01	-5.969840e+01
1.340000e-06	-2.295615e-06	-8.395083e-10	-1.599359e+01	-5.905295e+01
1.350000e-06	-2.252512e-06	-8.310057e-10	-1.569329e+01	-5.840301e+01
1.360000e-06	-2.209263e-06	-8.212239e-10	-1.539198e+01	-5.774854e+01
1.370000e-06	-2.165830e-06	-8.100214e-10	-1.508938e+01	-5.708949e+01
1.380000e-06	-2.122257e-06	-7.964824e-10	-1.478581e+01	-5.642576e+01
1.390000e-06	-2.078621e-06	-7.831299e-10	-1.448179e+01	-5.575724e+01
1.400000e-06	-2.034950e-06	-7.682495e-10	-1.417753e+01	-5.508374e+01
1.410000e-06	-1.991235e-06	-7.529305e-10	-1.387297e+01	-5.440508e+01
1.420000e-06	-1.947433e-06	-7.409102e-10	-1.356781e+01	-5.372100e+01
1.430000e-06	-1.903542e-06	-7.334578e-10	-1.326201e+01	-5.303122e+01
1.440000e-06	-1.859589e-06	-7.265387e-10	-1.295579e+01	-5.233542e+01
1.450000e-06	-1.815524e-06	-7.188158e-10	-1.264879e+01	-5.163323e+01
1.460000e-06	-1.771306e-06	-7.082377e-10	-1.234073e+01	-5.092424e+01
1.470000e-06	-1.726925e-06	-6.954713e-10	-1.203152e+01	-5.020800e+01
1.480000e-06	-1.682391e-06	-6.781212e-10	-1.172125e+01	-4.948402e+01
1.490000e-06	-1.637802e-06	-6.632077e-10	-1.141060e+01	-4.875177e+01
1.500000e-06	-1.593101e-06	-6.509097e-10	-1.109916e+01	-4.801070e+01
1.510000e-06	-1.548109e-06	-6.438136e-10	-1.078570e+01	-4.726019e+01
1.520000e-06	-1.503008e-06	-6.370022e-10	-1.047148e+01	-4.649962e+01
1.530000e-06	-1.457926e-06	-6.312612e-10	-1.015740e+01	-4.572833e+01
1.540000e-06	-1.412715e-06	-6.222842e-10	-9.842410e+00	-4.494563e+01
1.550000e-06	-1.367416e-06	-6.086281e-10	-9.526813e+00	-4.415082e+01
1.560000e-06	-1.322012e-06	-5.912370e-10	-9.210480e+00	-4.334316e+01
1.570000e-06	-1.276497e-06	-5.744482e-10	-8.893382e+00	-4.252193e+01
1.580000e-06	-1.230975e-06	-5.598134e-10	-8.576224e+00	-4.168637e+01
1.590000e-06	-1.185395e-06	-5.463445e-10	-8.258673e+00	-4.083573e+01
1.600000e-06	-1.139711e-06	-5.350732e-10	-7.940388e+00	-3.996926e+01
1.610000e-06	-1.093881e-06	-5.260904e-10	-7.621091e+00	-3.908623e+01
1.620000e-06	-1.047948e-06	-5.126431e-10	-7.301075e+00	-3.818589e+01
1.630000e-06	-1.001973e-06	-4.973184e-10	-6.980765e+00	-3.726754e+01
1.640000e-06	-9.559237e-07	-4.831923e-10	-6.659939e+00	-3.633049e+01
1.650000e-06	-9.098432e-07	-4.695442e-10	-6.338895e+00	-3.537409e+01
1.660000e-06	-8.637556e-07	-4.541079e-10	-6.017802e+00	-3.439770e+01
1.670000e-06	-8.175931e-07	-4.359569e-10	-5.696187e+00	-3.340074e+01
1.680000e-06	-7.713546e-07	-4.207058e-10	-5.374042e+00	-3.238268e+01
1.690000e-06	-7.251117e-07	-4.058435e-10	-5.051867e+00	-3.134304e+01
1.700000e-06	-6.788063e-07	-3.929486e-10	-4.729257e+00	-3.028138e+01
1.710000e-06	-6.323704e-07	-3.780982e-10	-4.405737e+00	-2.919735e+01
1.720000e-06	-5.859118e-07	-3.604345e-10	-4.082059e+00	-2.809063e+01
1.730000e-06	-5.394199e-07	-3.392027e-10	-3.758149e+00	-2.696101e+01
1.740000e-06	-4.929128e-07	-3.207495e-10	-3.434133e+00	-2.580832e+01
1.750000e-06	-4.463526e-07	-3.038662e-10	-3.109747e+00	-2.463250e+01
1.760000e-06	-3.996497e-07	-2.871836e-10	-2.784367e+00	-2.343354e+01
1.770000e-06	-3.529727e-07	-2.707702e-10	-2.459167e+00	-2.221152e+01
1.780000e-06	-3.063343e-07	-2.526165e-10	-2.134237e+00	-2.096663e+01
1.790000e-06	-2.596269e-07	-2.345174e-10	-1.808826e+00	-1.969912e+01
1.800000e-06	-2.128313e-07	-2.175450e-10	-1.482800e+00	-1.840934e+01
1.810000e-06	-1.660488e-07	-1.978390e-10	-1.156866e+00	-1.709772e+01
1.820000e-06	-1.192787e-07	-1.773613e-10	-8.310169e-01	-1.576478e+01
1.830000e-06	-7.246753e-08	-1.568390e-10	-5.048827e-01	-1.441113e+01
1.840000e-06	-2.561323e-08	-1.381724e-10	-1.784479e-01	-1.303747e+01
1.850000e-06	2.121938e-08	-1.207482e-10	1.478358e-01	-1.164456e+01
1.860000e-06	6.796444e-08	-1.036735e-10	4.735095e-01	-1.023328e+01
1.870000e-06	1.146421e-07	-8.260087e-11	7.987137e-01	-8.804555e+00
1.880000e-06	1.612985e-07	-5.840323e-11	1.123770e+00	-7.359394e+00
1.890000e-06	2.080066e-07	-3.665524e-11	1.449186e+00	-5.898880e+00
1.900000e-06	2.547182e-07	-1.748870e-11	1.774627e+00	-4.424159e+00
1.910000e-06	3.014234e-07	8.544028e-13	2.100022e+00	-2.936438e+00
1.920000e-06	3.481418e-07	1.961632e-11	2.425511e+00	-1.436979e+00
1.930000e-06	3.947855e-07	3.955483e-11	2.750478e+00	7.290614e-02
1.940000e-06	4.413601e-07	6.164207e-11	3.074964e+00	1.591861e+00
1.950000e-06	4.879215e-07	8.426934e-11	3.399359e+00	3.118493e+00
1.960000e-06	5.343384e-07	1.077854e-10	3.722746e+00	4.651378e+00
1.970000e-06	5.807068e-07	1.306962e-10	4.045796e+00	6.189069e+00
1.980000e-06	6.270871e-07	1.517249e-10	4.368928e+00	7.730101e+00
1.990000e-06	6.733959e-07	1.706639e-10	4.691563e+00	9.272998e+00
2.000000e-06	7.196248e-07	1.903165e-10	5.013640e+00	1.081628e+01
2.010000e-06	7.658159e-07	2.120735e-10	5.335454e+00	1.235848e+01
2.020000e-06	8.120083e-07	2.335691e-10	5.657278e+00	1.389812e+01
2.030000e-06	8.581567e-07	2.572266e-10	5.978794e+00	1.543377e+01
2.040000e-06	9.042557e-07	2.837431e-10	6.299967e+00	1.696399e+01
2.050000e-06	9.502506e-07	3.075368e-10	6.620414e+00	1.848739e+01
2.060000e-06	9.961667e-07	3.305534e-10	6.940312e+00	2.000262e+01
2.070000e-06	1.042000e-06	3.517450e-10	7.259633e+00	2.150836e+01
2.080000e-06	1.087747e-06	3.710932e-10	7.578354e+00	2.300334e+01
2.090000e-06	1.133425e-06	3.904485e-10	7.896597e+00	2.448634e+01
2.100000e-06	1.179023e-06	4.136880e-10	8.214274e+00	2.595620e+01
2.110000e-06	1.224642e-06	4.371352e-10	8.532104e+00	2.741182e+01
2.120000e-06	1.270217e-06	4.581767e-10	8.849625e+00	2.885218e+01
2.130000e-06	1.315632e-06	4.769201e-10	9.166031e+00	3.027629e+01
2.140000e-06	1.360959e-06	4.943010e-10	9.481830e+00	3.168327e+01
2.150000e-06	1.406247e-06	5.112330e-10	9.797348e+00	3.307229e+01
2.160000e-06	1.451464e-06	5.282530e-10	1.011238e+01	3.444260e+01
2.170000e-06	1.496592e-06	5.458717e-10	1.042678e+01	3.579351e+01
2.180000e-06	1.541510e-06	5.643212e-10	1.073973e+01	3.712445e+01
2.190000e-06	1.586207e-06	5.853243e-10	1.105113e+01	3.843487e+01
2.200000e-06	1.630817e-06	6.081330e-10	1.136194e+01	3.972434e+01
2.210000e-06	1.675400e-06	6.283125e-10	1.167255e+01	4.099247e+01
2.220000e-06	1.719874e-06	6.426263e-10	1.198239e+01	4.223898e+01
2.230000e-06	1.764169e-06	6.531490e-10	1.229100e+01	4.346362e+01
2.240000e-06	1.808301e-06	6.646472e-10	1.259847e+01	4.466625e+01
2.250000e-06	1.852303e-06	6.788764e-10	1.290503e+01	4.584678e+01
2.260000e-06	1.896299e-06	6.964087e-10	1.321155e+01	4.700516e+01
2.270000e-06	1.940254e-06	7.163128e-10	1.351778e+01	4.814145e+01
2.280000e-06	1.984075e-06	7.351642e-10	1.382309e+01	4.925572e+01
2.290000e-06	2.027812e-06	7.522715e-10	1.412780e+01	5.034813e+01
2.300000e-06	2.071461e-06	7.668830e-10	1.443191e+01	5.141886e+01
2.310000e-06	2.114998e-06	7.772994e-10	1.473523e+01	5.246815e+01
2.320000e-06	2.158408e-06	7.857309e-10	1.503767e+01	5.349630e+01
2.330000e-06	2.201704e-06	7.977442e-10	1.533932e+01	5.450361e+01
2.340000e-06	2.244900e-06	8.122001e-10	1.564026e+01	5.549043e+01
2.350000e-06	2.287968e-06	8.273037e-10	1.594032e+01	5.645715e+01
2.360000e-06	2.330814e-06	8.419064e-10	1.623882e+01	5.740417e+01
2.370000e-06	2.373390e-06	8.563972e-10	1.653545e+01	5.833191e+01
2.380000e-06	2.415681e-06	8.694507e-10	1.683010e+01	5.924081e+01
2.390000e-06	2.457660e-06	8.824369e-10	1.712257e+01	6.013132e+01
2.400000e-06	2.499348e-06	8.939496e-10	1.741300e+01	6.100391e+01
2.410000e-06	2.540763e-06	9.037693e-10	1.770154e+01	6.185903e+01
2.420000e-06	2.581813e-06	9.131157e-10	1.798754e+01	6.269715e+01
2.430000e-06	2.622581e-06	9.230186e-10	1.827157e+01	6.351873e+01
2.440000e-06	2.663152e-06	9.347641e-10	1.855423e+01	6.432424e+01
2.450000e-06	2.703424e-06	9.470945e-10	1.883481e+01	6.511411e+01
2.460000e-06	2.743476e-06	9.584511e-10	1.911385e+01	6.588880e+01
2.470000e-06	2.783427e-06	9.683162e-10	1.939219e+01	6.664873e+01
2.480000e-06	2.823290e-06	9.769311e-10	1.966992e+01	6.739432e+01
2.490000e-06	2.863047e-06	9.843993e-10	1.994690e+01	6.812596e+01
2.500000e-06	2.902646e-06	9.934886e-10	2.022279e+01	6.884404e+01
2.510000e-06	2.942064e-06	1.006756e-09	2.049742e+01	6.954892e+01
2.520000e-06	2.981388e-06	1.020690e-09	2.077139e+01	7.024096e+01
2.530000e-06	3.020512e-06	1.032719e-09	2.104397e+01	7.092048e+01
2.540000e-06	3.059386e-06	1.043351e-09	2.131480e+01	7.158780e+01
2.550000e-06	3.098008e-06	1.051396e-09	2.158388e+01	7.224321e+01
2.560000e-06	3.136372e-06	1.055816e-09	2.185116e+01	7.288699e+01
2.570000e-06	3.174591e-06	1.059564e-09	2.211743e+01	7.351940e+01
2.580000e-06	3.212607e-06	1.067550e-09	2.238230e+01	7.414067e+01
2.590000e-06	3.250373e-06	1.080107e-09	2.264541e+01	7.475105e+01
2.600000e-06	3.287940e-06	1.093896e-09	2.290714e+01	7.535073e+01
2.610000e-06	3.325256e-06	1.105753e-09	2.316712e+01	7.593993e+01
2.620000e-06	3.362357e-06	1.114212e-09	2.342560e+01	7.651882e+01
2.630000e-06	3.399242e-06	1.119077e-09	2.368259e+01	7.708759e+01
2.640000e-06	3.435844e-06	1.122513e-09	2.393759e+01	7.764641e+01
2.650000e-06	3.472146e-06	1.125778e-09	2.419051e+01	7.819542e+01
2.660000e-06	3.508191e-06	1.133315e-09	2.444164e+01	7.873479e+01
2.670000e-06	3.544053e-06	1.143377e-09	2.469149e+01	7.926466e+01
2.680000e-06	3.579825e-06	1.153409e-09	2.494071e+01	7.978517e+01
2.690000e-06	3.615532e-06	1.162662e-09	2.518948e+01	8.029646e+01
2.700000e-06	3.651089e-06	1.168967e-09	2.543720e+01	8.079867e+01
2.710000e-06	3.686481e-06	1.174251e-09	2.568378e+01	8.129194e+01
2.720000e-06	3.721627e-06	1.178980e-09	2.592865e+01	8.177639e+01
2.730000e-06	3.756430e-06	1.183965e-09	2.617112e+01	8.225216e+01
2.740000e-06	3.790808e-06	1.190143e-09	2.641063e+01	8.271940e+01
2.750000e-06	3.824696e-06	1.197072e-09	2.664673e+01	8.317823e+01
2.760000e-06	3.858115e-06	1.204290e-09	2.687956e+01	8.362880e+01
2.770000e-06	3.891056e-06	1.210665e-09	2.710906e+01	8.407124e+01
2.780000e-06	3.923591e-06	1.216702e-09	2.733573e+01	8.450570e+01
2.790000e-06	3.955814e-06	1.224266e-09	2.756023e+01	8.493232e+01
2.800000e-06	3.987783e-06	1.232194e-09	2.778296e+01	8.535126e+01
2.810000e-06	4.019575e-06	1.239047e-09	2.800446e+01	8.576264e+01
2.820000e-06	4.051219e-06	1.244994e-09	2.822492e+01	8.616663e+01
2.830000e-06	4.082723e-06	1.250922e-09	2.844441e+01	8.656337e+01
2.840000e-06	4.114043e-06	1.256190e-09	2.866261e+01	8.695301e+01
2.850000e-06	4.145091e-06	1.259347e-09	2.887893e+01	8.733569e+01
2.860000e-06	4.175771e-06	1.262534e-09	2.909268e+01	8.771156e+01
2.870000e-06	4.206089e-06	1.266813e-09	2.930390e+01	8.808075e+01
2.880000e-06	4.236105e-06	1.271848e-09	2.951302e+01	8.844341e+01
2.890000e-06	4.265822e-06	1.277512e-09	2.972007e+01	8.879967e+01
2.900000e-06	4.295234e-06	1.281837e-09	2.992498e+01	8.914965e+01
