# Temperatura_=_12.76
# Concentracion g/m^3_=_1620.0
# C_Vs_to_Am_M_A/Vsm_=_65563218390.804596
# pendiente_HvsI_1/m_=_3716.3
# ordenada_HvsI_A/m_=_1297.0
# frecuencia_Hz_=_135108.3560319169

Tiempo_(s)	Campo_(V.s)	Magnetizacion_(V.s)	Campo_(kA/m)	Magnetizacion_(A/m)
0.000000e+00	-5.509922e-06	-1.154481e-09	-3.835861e+01	-7.510004e+01
1.000000e-08	-5.510170e-06	-1.153170e-09	-3.836033e+01	-7.508893e+01
2.000000e-08	-5.510238e-06	-1.151138e-09	-3.836080e+01	-7.507659e+01
3.000000e-08	-5.510032e-06	-1.149793e-09	-3.835937e+01	-7.506276e+01
4.000000e-08	-5.509384e-06	-1.148136e-09	-3.835486e+01	-7.504721e+01
5.000000e-08	-5.508253e-06	-1.146038e-09	-3.834698e+01	-7.502968e+01
6.000000e-08	-5.506582e-06	-1.142022e-09	-3.833535e+01	-7.500989e+01
7.000000e-08	-5.504308e-06	-1.136586e-09	-3.831952e+01	-7.498760e+01
8.000000e-08	-5.501482e-06	-1.144257e-09	-3.829984e+01	-7.496251e+01
9.000000e-08	-5.498149e-06	-1.152533e-09	-3.827664e+01	-7.493437e+01
1.000000e-07	-5.494294e-06	-1.146339e-09	-3.824981e+01	-7.490292e+01
1.100000e-07	-5.490002e-06	-1.127356e-09	-3.821993e+01	-7.486788e+01
1.200000e-07	-5.485453e-06	-1.143157e-09	-3.818826e+01	-7.482901e+01
1.300000e-07	-5.480709e-06	-1.153966e-09	-3.815523e+01	-7.478607e+01
1.400000e-07	-5.475608e-06	-1.165033e-09	-3.811972e+01	-7.473884e+01
1.500000e-07	-5.470112e-06	-1.116325e-09	-3.808146e+01	-7.468709e+01
1.600000e-07	-5.464360e-06	-1.133453e-09	-3.804141e+01	-7.463063e+01
1.700000e-07	-5.458246e-06	-1.139763e-09	-3.799885e+01	-7.456928e+01
1.800000e-07	-5.451672e-06	-1.149976e-09	-3.795308e+01	-7.450290e+01
1.900000e-07	-5.444665e-06	-1.101517e-09	-3.790430e+01	-7.443133e+01
2.000000e-07	-5.437328e-06	-1.112006e-09	-3.785322e+01	-7.435447e+01
2.100000e-07	-5.429710e-06	-1.145694e-09	-3.780019e+01	-7.427223e+01
2.200000e-07	-5.421826e-06	-1.176920e-09	-3.774530e+01	-7.418455e+01
2.300000e-07	-5.413660e-06	-1.148099e-09	-3.768846e+01	-7.409138e+01
2.400000e-07	-5.405157e-06	-1.120459e-09	-3.762926e+01	-7.399270e+01
2.500000e-07	-5.396205e-06	-1.125060e-09	-3.756694e+01	-7.388854e+01
2.600000e-07	-5.386593e-06	-1.123425e-09	-3.750002e+01	-7.377893e+01
2.700000e-07	-5.376307e-06	-1.123620e-09	-3.742841e+01	-7.366392e+01
2.800000e-07	-5.365451e-06	-1.105307e-09	-3.735284e+01	-7.354360e+01
2.900000e-07	-5.354108e-06	-1.127414e-09	-3.727387e+01	-7.341808e+01
3.000000e-07	-5.342434e-06	-1.123569e-09	-3.719260e+01	-7.328748e+01
3.100000e-07	-5.330447e-06	-1.125534e-09	-3.710915e+01	-7.315196e+01
3.200000e-07	-5.317934e-06	-1.085917e-09	-3.702204e+01	-7.301168e+01
3.300000e-07	-5.304878e-06	-1.105771e-09	-3.693114e+01	-7.286683e+01
3.400000e-07	-5.291463e-06	-1.094868e-09	-3.683775e+01	-7.271761e+01
3.500000e-07	-5.277734e-06	-1.094850e-09	-3.674217e+01	-7.256423e+01
3.600000e-07	-5.263472e-06	-1.071378e-09	-3.664289e+01	-7.240692e+01
3.700000e-07	-5.248746e-06	-1.111401e-09	-3.654037e+01	-7.224592e+01
3.800000e-07	-5.233696e-06	-1.097119e-09	-3.643560e+01	-7.208146e+01
3.900000e-07	-5.218065e-06	-1.083517e-09	-3.632677e+01	-7.191380e+01
4.000000e-07	-5.201838e-06	-1.070339e-09	-3.621380e+01	-7.174317e+01
4.100000e-07	-5.185232e-06	-1.087863e-09	-3.609820e+01	-7.156984e+01
4.200000e-07	-5.168350e-06	-1.068165e-09	-3.598067e+01	-7.139404e+01
4.300000e-07	-5.151176e-06	-1.072404e-09	-3.586111e+01	-7.121602e+01
4.400000e-07	-5.133633e-06	-1.091273e-09	-3.573898e+01	-7.103602e+01
4.500000e-07	-5.115730e-06	-1.081556e-09	-3.561435e+01	-7.085425e+01
4.600000e-07	-5.097371e-06	-1.055920e-09	-3.548653e+01	-7.067094e+01
4.700000e-07	-5.078538e-06	-1.067977e-09	-3.535542e+01	-7.048629e+01
4.800000e-07	-5.059403e-06	-1.075975e-09	-3.522221e+01	-7.030049e+01
4.900000e-07	-5.040027e-06	-1.049234e-09	-3.508732e+01	-7.011370e+01
5.000000e-07	-5.020399e-06	-1.053447e-09	-3.495068e+01	-6.992608e+01
5.100000e-07	-5.000569e-06	-1.064548e-09	-3.481262e+01	-6.973776e+01
5.200000e-07	-4.980503e-06	-1.051129e-09	-3.467293e+01	-6.954887e+01
5.300000e-07	-4.960171e-06	-1.040517e-09	-3.453139e+01	-6.935949e+01
5.400000e-07	-4.939478e-06	-1.065388e-09	-3.438733e+01	-6.916969e+01
5.500000e-07	-4.918375e-06	-1.045149e-09	-3.424041e+01	-6.897953e+01
5.600000e-07	-4.896906e-06	-1.023601e-09	-3.409095e+01	-6.878903e+01
5.700000e-07	-4.875101e-06	-1.035781e-09	-3.393915e+01	-6.859820e+01
5.800000e-07	-4.852990e-06	-1.050660e-09	-3.378522e+01	-6.840701e+01
5.900000e-07	-4.830520e-06	-1.023397e-09	-3.362879e+01	-6.821543e+01
6.000000e-07	-4.807614e-06	-1.032257e-09	-3.346932e+01	-6.802339e+01
6.100000e-07	-4.784400e-06	-1.043199e-09	-3.330771e+01	-6.783081e+01
6.200000e-07	-4.760992e-06	-1.032078e-09	-3.314475e+01	-6.763759e+01
6.300000e-07	-4.737315e-06	-1.015111e-09	-3.297992e+01	-6.744359e+01
6.400000e-07	-4.713397e-06	-1.033309e-09	-3.281341e+01	-6.724868e+01
6.500000e-07	-4.689220e-06	-1.020878e-09	-3.264510e+01	-6.705270e+01
6.600000e-07	-4.664682e-06	-1.005478e-09	-3.247427e+01	-6.685547e+01
6.700000e-07	-4.639644e-06	-1.005178e-09	-3.229996e+01	-6.665680e+01
6.800000e-07	-4.614094e-06	-1.005573e-09	-3.212209e+01	-6.645650e+01
6.900000e-07	-4.588068e-06	-9.848166e-10	-3.194090e+01	-6.625434e+01
7.000000e-07	-4.561512e-06	-9.872948e-10	-3.175603e+01	-6.605011e+01
7.100000e-07	-4.534421e-06	-9.898740e-10	-3.156742e+01	-6.584357e+01
7.200000e-07	-4.506975e-06	-9.803752e-10	-3.137636e+01	-6.563450e+01
7.300000e-07	-4.479332e-06	-9.745204e-10	-3.118391e+01	-6.542265e+01
7.400000e-07	-4.451486e-06	-9.802966e-10	-3.099005e+01	-6.520779e+01
7.500000e-07	-4.423438e-06	-9.665804e-10	-3.079479e+01	-6.498967e+01
7.600000e-07	-4.395206e-06	-9.526200e-10	-3.059825e+01	-6.476805e+01
7.700000e-07	-4.366703e-06	-9.549550e-10	-3.039982e+01	-6.454271e+01
7.800000e-07	-4.337825e-06	-9.508972e-10	-3.019878e+01	-6.431341e+01
7.900000e-07	-4.308588e-06	-9.407895e-10	-2.999524e+01	-6.407994e+01
8.000000e-07	-4.279100e-06	-9.411786e-10	-2.978995e+01	-6.384207e+01
8.100000e-07	-4.249405e-06	-9.415444e-10	-2.958322e+01	-6.359961e+01
8.200000e-07	-4.219419e-06	-9.254215e-10	-2.937446e+01	-6.335235e+01
8.300000e-07	-4.189156e-06	-9.240427e-10	-2.916378e+01	-6.310014e+01
8.400000e-07	-4.158571e-06	-9.201111e-10	-2.895086e+01	-6.284279e+01
8.500000e-07	-4.127662e-06	-9.092456e-10	-2.873568e+01	-6.258015e+01
8.600000e-07	-4.096461e-06	-9.030244e-10	-2.851846e+01	-6.231210e+01
8.700000e-07	-4.065002e-06	-9.111375e-10	-2.829945e+01	-6.203852e+01
8.800000e-07	-4.033400e-06	-9.060079e-10	-2.807946e+01	-6.175929e+01
8.900000e-07	-4.001648e-06	-9.009456e-10	-2.785840e+01	-6.147435e+01
9.000000e-07	-3.969712e-06	-8.958311e-10	-2.763607e+01	-6.118362e+01
9.100000e-07	-3.937506e-06	-8.878500e-10	-2.741186e+01	-6.088705e+01
9.200000e-07	-3.904960e-06	-8.743153e-10	-2.718529e+01	-6.058462e+01
9.300000e-07	-3.872022e-06	-8.748259e-10	-2.695598e+01	-6.027632e+01
9.400000e-07	-3.838691e-06	-8.716776e-10	-2.672394e+01	-5.996215e+01
9.500000e-07	-3.804911e-06	-8.642635e-10	-2.648877e+01	-5.964214e+01
9.600000e-07	-3.770564e-06	-8.610795e-10	-2.624966e+01	-5.931633e+01
9.700000e-07	-3.735841e-06	-8.628272e-10	-2.600793e+01	-5.898478e+01
9.800000e-07	-3.700834e-06	-8.525888e-10	-2.576422e+01	-5.864757e+01
9.900000e-07	-3.665504e-06	-8.456895e-10	-2.551826e+01	-5.830479e+01
1.000000e-06	-3.629955e-06	-8.425578e-10	-2.527078e+01	-5.795656e+01
1.010000e-06	-3.594255e-06	-8.373136e-10	-2.502224e+01	-5.760298e+01
1.020000e-06	-3.558454e-06	-8.301819e-10	-2.477301e+01	-5.724419e+01
1.030000e-06	-3.522543e-06	-8.274388e-10	-2.452300e+01	-5.688035e+01
1.040000e-06	-3.486438e-06	-8.222407e-10	-2.427165e+01	-5.651161e+01
1.050000e-06	-3.450055e-06	-8.160033e-10	-2.401836e+01	-5.613813e+01
1.060000e-06	-3.413395e-06	-8.151017e-10	-2.376314e+01	-5.576010e+01
1.070000e-06	-3.376538e-06	-8.136946e-10	-2.350655e+01	-5.537769e+01
1.080000e-06	-3.339484e-06	-8.060879e-10	-2.324860e+01	-5.499109e+01
1.090000e-06	-3.302174e-06	-7.974860e-10	-2.298885e+01	-5.460050e+01
1.100000e-06	-3.264548e-06	-7.902622e-10	-2.272691e+01	-5.420612e+01
1.110000e-06	-3.226642e-06	-7.783480e-10	-2.246302e+01	-5.380814e+01
1.120000e-06	-3.188454e-06	-7.725287e-10	-2.219716e+01	-5.340675e+01
1.130000e-06	-3.150126e-06	-7.726915e-10	-2.193034e+01	-5.300216e+01
1.140000e-06	-3.111693e-06	-7.718799e-10	-2.166278e+01	-5.259456e+01
1.150000e-06	-3.072937e-06	-7.638437e-10	-2.139296e+01	-5.218414e+01
1.160000e-06	-3.033918e-06	-7.585009e-10	-2.112132e+01	-5.177107e+01
1.170000e-06	-2.994793e-06	-7.518708e-10	-2.084895e+01	-5.135554e+01
1.180000e-06	-2.955510e-06	-7.427758e-10	-2.057547e+01	-5.093770e+01
1.190000e-06	-2.916007e-06	-7.353720e-10	-2.030046e+01	-5.051771e+01
1.200000e-06	-2.876411e-06	-7.315428e-10	-2.002480e+01	-5.009570e+01
1.210000e-06	-2.836758e-06	-7.231716e-10	-1.974875e+01	-4.967182e+01
1.220000e-06	-2.796940e-06	-7.173548e-10	-1.947155e+01	-4.924616e+01
1.230000e-06	-2.756959e-06	-7.123481e-10	-1.919321e+01	-4.881881e+01
1.240000e-06	-2.716879e-06	-7.044555e-10	-1.891418e+01	-4.838986e+01
1.250000e-06	-2.676620e-06	-6.938045e-10	-1.863391e+01	-4.795936e+01
1.260000e-06	-2.636096e-06	-6.887986e-10	-1.835180e+01	-4.752733e+01
1.270000e-06	-2.595342e-06	-6.845140e-10	-1.806808e+01	-4.709379e+01
1.280000e-06	-2.554359e-06	-6.793277e-10	-1.778277e+01	-4.665872e+01
1.290000e-06	-2.513094e-06	-6.739488e-10	-1.749549e+01	-4.622208e+01
1.300000e-06	-2.471519e-06	-6.684917e-10	-1.720606e+01	-4.578380e+01
1.310000e-06	-2.429649e-06	-6.578532e-10	-1.691456e+01	-4.534379e+01
1.320000e-06	-2.387467e-06	-6.465837e-10	-1.662091e+01	-4.490191e+01
1.330000e-06	-2.344987e-06	-6.389027e-10	-1.632517e+01	-4.445803e+01
1.340000e-06	-2.302287e-06	-6.321580e-10	-1.602791e+01	-4.401194e+01
1.350000e-06	-2.259296e-06	-6.277894e-10	-1.572861e+01	-4.356345e+01
1.360000e-06	-2.215990e-06	-6.245548e-10	-1.542713e+01	-4.311229e+01
1.370000e-06	-2.172533e-06	-6.187651e-10	-1.512460e+01	-4.265820e+01
1.380000e-06	-2.129007e-06	-6.081560e-10	-1.482158e+01	-4.220086e+01
1.390000e-06	-2.085375e-06	-5.946174e-10	-1.451783e+01	-4.173994e+01
1.400000e-06	-2.041638e-06	-5.802674e-10	-1.421334e+01	-4.127507e+01
1.410000e-06	-1.997820e-06	-5.685119e-10	-1.390829e+01	-4.080583e+01
1.420000e-06	-1.953925e-06	-5.604329e-10	-1.360270e+01	-4.033180e+01
1.430000e-06	-1.909938e-06	-5.575602e-10	-1.329647e+01	-3.985252e+01
1.440000e-06	-1.865886e-06	-5.546287e-10	-1.298980e+01	-3.936749e+01
1.450000e-06	-1.821830e-06	-5.495943e-10	-1.268309e+01	-3.887620e+01
1.460000e-06	-1.777698e-06	-5.404894e-10	-1.237586e+01	-3.837811e+01
1.470000e-06	-1.733394e-06	-5.288113e-10	-1.206743e+01	-3.787265e+01
1.480000e-06	-1.688874e-06	-5.145712e-10	-1.175749e+01	-3.735923e+01
1.490000e-06	-1.644200e-06	-5.022092e-10	-1.144648e+01	-3.683724e+01
1.500000e-06	-1.599420e-06	-4.947878e-10	-1.113473e+01	-3.630606e+01
1.510000e-06	-1.554520e-06	-4.902473e-10	-1.082215e+01	-3.576506e+01
1.520000e-06	-1.509519e-06	-4.848021e-10	-1.050887e+01	-3.521357e+01
1.530000e-06	-1.464371e-06	-4.783129e-10	-1.019456e+01	-3.465093e+01
1.540000e-06	-1.419103e-06	-4.692777e-10	-9.879413e+00	-3.407649e+01
1.550000e-06	-1.373742e-06	-4.592486e-10	-9.563625e+00	-3.348957e+01
1.560000e-06	-1.328307e-06	-4.478167e-10	-9.247321e+00	-3.288950e+01
1.570000e-06	-1.282822e-06	-4.369400e-10	-8.930662e+00	-3.227562e+01
1.580000e-06	-1.237258e-06	-4.262161e-10	-8.613458e+00	-3.164728e+01
1.590000e-06	-1.191592e-06	-4.130831e-10	-8.295544e+00	-3.100383e+01
1.600000e-06	-1.145800e-06	-4.000821e-10	-7.976750e+00	-3.034465e+01
1.610000e-06	-1.099942e-06	-3.896666e-10	-7.657505e+00	-2.966913e+01
1.620000e-06	-1.054065e-06	-3.787144e-10	-7.338121e+00	-2.897669e+01
1.630000e-06	-1.008139e-06	-3.653386e-10	-7.018396e+00	-2.826677e+01
1.640000e-06	-9.621362e-07	-3.521415e-10	-6.698135e+00	-2.753886e+01
1.650000e-06	-9.160113e-07	-3.395993e-10	-6.377026e+00	-2.679247e+01
1.660000e-06	-8.697876e-07	-3.264692e-10	-6.055228e+00	-2.602715e+01
1.670000e-06	-8.234699e-07	-3.133881e-10	-5.732777e+00	-2.524251e+01
1.680000e-06	-7.770763e-07	-3.025045e-10	-5.409798e+00	-2.443820e+01
1.690000e-06	-7.306939e-07	-2.942876e-10	-5.086895e+00	-2.361390e+01
1.700000e-06	-6.843187e-07	-2.858500e-10	-4.764044e+00	-2.276938e+01
1.710000e-06	-6.378591e-07	-2.736465e-10	-4.440605e+00	-2.190445e+01
1.720000e-06	-5.913827e-07	-2.591369e-10	-4.117048e+00	-2.101898e+01
1.730000e-06	-5.448774e-07	-2.446555e-10	-3.793291e+00	-2.011290e+01
1.740000e-06	-4.981789e-07	-2.304767e-10	-3.468188e+00	-1.918622e+01
1.750000e-06	-4.514360e-07	-2.166979e-10	-3.142777e+00	-1.823900e+01
1.760000e-06	-4.047842e-07	-2.056538e-10	-2.817999e+00	-1.727138e+01
1.770000e-06	-3.581459e-07	-1.962716e-10	-2.493316e+00	-1.628357e+01
1.780000e-06	-3.114895e-07	-1.840278e-10	-2.168506e+00	-1.527585e+01
1.790000e-06	-2.648086e-07	-1.692191e-10	-1.843527e+00	-1.424856e+01
1.800000e-06	-2.181375e-07	-1.543954e-10	-1.518615e+00	-1.320214e+01
1.810000e-06	-1.714352e-07	-1.369460e-10	-1.193486e+00	-1.213708e+01
1.820000e-06	-1.247173e-07	-1.182882e-10	-8.682485e-01	-1.105394e+01
1.830000e-06	-7.804388e-08	-1.011060e-10	-5.433206e-01	-9.953363e+00
1.840000e-06	-3.130400e-08	-8.561752e-11	-2.179301e-01	-8.836046e+00
1.850000e-06	1.552147e-08	-7.104313e-11	1.080563e-01	-7.702762e+00
1.860000e-06	6.229382e-08	-5.911802e-11	4.336729e-01	-6.554345e+00
1.870000e-06	1.090248e-07	-4.477322e-11	7.590015e-01	-5.391690e+00
1.880000e-06	1.556888e-07	-2.731412e-11	1.083864e+00	-4.215750e+00
1.890000e-06	2.022859e-07	-1.022729e-11	1.408261e+00	-3.027532e+00
1.900000e-06	2.489546e-07	7.019190e-12	1.733155e+00	-1.828095e+00
1.910000e-06	2.957020e-07	2.478517e-11	2.058598e+00	-6.185420e-01
1.920000e-06	3.424913e-07	4.360410e-11	2.384333e+00	5.999813e-01
1.930000e-06	3.892366e-07	6.485567e-11	2.709761e+00	1.826292e+00
1.940000e-06	4.358666e-07	8.570234e-11	3.034387e+00	3.059177e+00
1.950000e-06	4.824442e-07	1.048090e-10	3.358648e+00	4.297394e+00
1.960000e-06	5.290188e-07	1.232814e-10	3.682888e+00	5.539682e+00
1.970000e-06	5.755724e-07	1.406914e-10	4.006981e+00	6.784763e+00
1.980000e-06	6.220753e-07	1.581084e-10	4.330722e+00	8.031350e+00
1.990000e-06	6.685042e-07	1.757755e-10	4.653947e+00	9.278152e+00
2.000000e-06	7.148779e-07	1.932436e-10	4.976789e+00	1.052388e+01
2.010000e-06	7.611915e-07	2.124706e-10	5.299212e+00	1.176725e+01
2.020000e-06	8.074858e-07	2.302578e-10	5.621501e+00	1.300699e+01
2.030000e-06	8.537953e-07	2.487365e-10	5.943895e+00	1.424186e+01
2.040000e-06	8.999952e-07	2.702293e-10	6.265526e+00	1.547062e+01
2.050000e-06	9.460459e-07	2.877128e-10	6.586118e+00	1.669208e+01
2.060000e-06	9.920358e-07	3.032512e-10	6.906288e+00	1.790509e+01
2.070000e-06	1.037953e-06	3.184898e-10	7.225953e+00	1.910850e+01
2.080000e-06	1.083805e-06	3.337450e-10	7.545163e+00	2.030125e+01
2.090000e-06	1.129605e-06	3.491827e-10	7.864005e+00	2.148230e+01
2.100000e-06	1.175393e-06	3.677421e-10	8.182775e+00	2.265068e+01
2.110000e-06	1.221089e-06	3.863554e-10	8.500893e+00	2.380546e+01
2.120000e-06	1.266664e-06	4.026729e-10	8.818175e+00	2.494578e+01
2.130000e-06	1.312171e-06	4.175834e-10	9.134983e+00	2.607083e+01
2.140000e-06	1.357557e-06	4.327812e-10	9.450949e+00	2.717987e+01
2.150000e-06	1.402856e-06	4.463135e-10	9.766310e+00	2.827223e+01
2.160000e-06	1.448030e-06	4.571674e-10	1.008080e+01	2.934730e+01
2.170000e-06	1.493012e-06	4.703834e-10	1.039395e+01	3.040455e+01
2.180000e-06	1.537888e-06	4.852874e-10	1.070637e+01	3.144350e+01
2.190000e-06	1.582664e-06	5.000105e-10	1.101808e+01	3.246374e+01
2.200000e-06	1.627306e-06	5.183673e-10	1.132887e+01	3.346496e+01
2.210000e-06	1.671867e-06	5.339415e-10	1.163909e+01	3.444687e+01
2.220000e-06	1.716290e-06	5.450538e-10	1.194835e+01	3.540928e+01
2.230000e-06	1.760547e-06	5.537205e-10	1.225646e+01	3.635206e+01
2.240000e-06	1.804695e-06	5.643385e-10	1.256380e+01	3.727514e+01
2.250000e-06	1.848784e-06	5.773793e-10	1.287074e+01	3.817849e+01
2.260000e-06	1.892801e-06	5.920000e-10	1.317718e+01	3.906218e+01
2.270000e-06	1.936732e-06	6.067675e-10	1.348301e+01	3.992630e+01
2.280000e-06	1.980581e-06	6.172920e-10	1.378828e+01	4.077100e+01
2.290000e-06	2.024368e-06	6.270640e-10	1.409311e+01	4.159649e+01
2.300000e-06	2.068058e-06	6.367662e-10	1.439727e+01	4.240301e+01
2.310000e-06	2.111642e-06	6.465815e-10	1.470069e+01	4.319085e+01
2.320000e-06	2.155217e-06	6.565054e-10	1.500404e+01	4.396034e+01
2.330000e-06	2.198734e-06	6.691710e-10	1.530700e+01	4.471182e+01
2.340000e-06	2.242028e-06	6.830467e-10	1.560840e+01	4.544569e+01
2.350000e-06	2.285097e-06	6.939392e-10	1.590824e+01	4.616235e+01
2.360000e-06	2.328001e-06	7.010768e-10	1.620692e+01	4.686224e+01
2.370000e-06	2.370701e-06	7.063064e-10	1.650419e+01	4.754580e+01
2.380000e-06	2.413110e-06	7.112375e-10	1.679943e+01	4.821349e+01
2.390000e-06	2.455159e-06	7.202017e-10	1.709216e+01	4.886579e+01
2.400000e-06	2.496854e-06	7.308176e-10	1.738243e+01	4.950315e+01
2.410000e-06	2.538183e-06	7.422812e-10	1.767015e+01	5.012605e+01
2.420000e-06	2.579218e-06	7.540701e-10	1.795583e+01	5.073497e+01
2.430000e-06	2.620002e-06	7.659082e-10	1.823976e+01	5.133037e+01
2.440000e-06	2.660545e-06	7.744602e-10	1.852200e+01	5.191271e+01
2.450000e-06	2.700907e-06	7.802372e-10	1.880299e+01	5.248243e+01
2.460000e-06	2.741120e-06	7.856560e-10	1.908295e+01	5.303997e+01
2.470000e-06	2.781151e-06	7.909776e-10	1.936163e+01	5.358574e+01
2.480000e-06	2.821000e-06	7.972719e-10	1.963905e+01	5.412014e+01
2.490000e-06	2.860763e-06	8.051467e-10	1.991587e+01	5.464356e+01
2.500000e-06	2.900421e-06	8.157482e-10	2.019196e+01	5.515636e+01
2.510000e-06	2.939907e-06	8.274021e-10	2.046685e+01	5.565887e+01
2.520000e-06	2.979194e-06	8.367212e-10	2.074035e+01	5.615142e+01
2.530000e-06	3.018274e-06	8.430956e-10	2.101242e+01	5.663430e+01
2.540000e-06	3.057120e-06	8.476920e-10	2.128285e+01	5.710780e+01
2.550000e-06	3.095735e-06	8.535096e-10	2.155168e+01	5.757216e+01
2.560000e-06	3.134173e-06	8.585550e-10	2.181927e+01	5.802762e+01
2.570000e-06	3.172411e-06	8.617805e-10	2.208548e+01	5.847439e+01
2.580000e-06	3.210507e-06	8.679531e-10	2.235069e+01	5.891267e+01
2.590000e-06	3.248458e-06	8.775282e-10	2.261490e+01	5.934262e+01
2.600000e-06	3.286118e-06	8.874389e-10	2.287707e+01	5.976442e+01
2.610000e-06	3.323520e-06	8.953066e-10	2.313746e+01	6.017820e+01
2.620000e-06	3.360623e-06	9.029336e-10	2.339576e+01	6.058410e+01
2.630000e-06	3.397441e-06	9.094083e-10	2.365207e+01	6.098222e+01
2.640000e-06	3.434058e-06	9.136918e-10	2.390699e+01	6.137268e+01
2.650000e-06	3.470432e-06	9.174481e-10	2.416022e+01	6.175557e+01
2.660000e-06	3.506589e-06	9.252471e-10	2.441194e+01	6.213099e+01
2.670000e-06	3.542554e-06	9.334896e-10	2.466231e+01	6.249902e+01
2.680000e-06	3.578394e-06	9.388456e-10	2.491182e+01	6.285973e+01
2.690000e-06	3.614134e-06	9.426634e-10	2.516064e+01	6.321322e+01
2.700000e-06	3.649789e-06	9.436601e-10	2.540886e+01	6.355955e+01
2.710000e-06	3.685304e-06	9.462110e-10	2.565610e+01	6.389881e+01
2.720000e-06	3.720562e-06	9.536335e-10	2.590156e+01	6.423108e+01
2.730000e-06	3.755442e-06	9.618670e-10	2.614438e+01	6.455643e+01
2.740000e-06	3.789857e-06	9.685231e-10	2.638397e+01	6.487498e+01
2.750000e-06	3.823785e-06	9.731069e-10	2.662017e+01	6.518679e+01
2.760000e-06	3.857198e-06	9.751915e-10	2.685278e+01	6.549199e+01
2.770000e-06	3.890174e-06	9.740328e-10	2.708235e+01	6.579066e+01
2.780000e-06	3.922765e-06	9.730779e-10	2.730924e+01	6.608293e+01
2.790000e-06	3.955090e-06	9.772340e-10	2.753428e+01	6.636892e+01
2.800000e-06	3.987243e-06	9.837854e-10	2.775812e+01	6.664874e+01
2.810000e-06	4.019193e-06	9.924148e-10	2.798055e+01	6.692255e+01
2.820000e-06	4.050932e-06	1.001522e-09	2.820150e+01	6.719046e+01
2.830000e-06	4.082418e-06	1.007663e-09	2.842070e+01	6.745264e+01
2.840000e-06	4.113724e-06	1.011260e-09	2.863865e+01	6.770923e+01
2.850000e-06	4.144771e-06	1.010921e-09	2.885479e+01	6.796037e+01
2.860000e-06	4.175416e-06	1.008592e-09	2.906813e+01	6.820624e+01
2.870000e-06	4.205742e-06	1.007891e-09	2.927925e+01	6.844698e+01
2.880000e-06	4.235766e-06	1.009671e-09	2.948827e+01	6.868275e+01
2.890000e-06	4.265540e-06	1.012284e-09	2.969555e+01	6.891372e+01
2.900000e-06	4.295069e-06	1.014860e-09	2.990112e+01	6.914004e+01
2.910000e-06	4.324296e-06	1.019426e-09	3.010459e+01	6.936186e+01
