# Temperatura_=_-0.3
# Concentracion g/m^3_=_1620.0
# C_Vs_to_Am_M_A/Vsm_=_65563218390.804596
# pendiente_HvsI_1/m_=_3716.3
# ordenada_HvsI_A/m_=_1297.0
# frecuencia_Hz_=_135108.014959365

Tiempo_(s)	Campo_(V.s)	Magnetizacion_(V.s)	Campo_(kA/m)	Magnetizacion_(A/m)
0.000000e+00	-5.503611e-06	-1.454285e-09	-3.836513e+01	-9.655190e+01
1.000000e-08	-5.503821e-06	-1.450134e-09	-3.836660e+01	-9.654536e+01
2.000000e-08	-5.503838e-06	-1.446142e-09	-3.836671e+01	-9.653713e+01
3.000000e-08	-5.503522e-06	-1.445640e-09	-3.836451e+01	-9.652709e+01
4.000000e-08	-5.502750e-06	-1.445375e-09	-3.835913e+01	-9.651508e+01
5.000000e-08	-5.501494e-06	-1.443194e-09	-3.835037e+01	-9.650095e+01
6.000000e-08	-5.499661e-06	-1.438783e-09	-3.833759e+01	-9.648452e+01
7.000000e-08	-5.497130e-06	-1.434923e-09	-3.831995e+01	-9.646562e+01
8.000000e-08	-5.494033e-06	-1.451419e-09	-3.829837e+01	-9.644404e+01
9.000000e-08	-5.490506e-06	-1.472103e-09	-3.827378e+01	-9.641958e+01
1.000000e-07	-5.486521e-06	-1.447941e-09	-3.824600e+01	-9.639204e+01
1.100000e-07	-5.482157e-06	-1.404628e-09	-3.821558e+01	-9.636119e+01
1.200000e-07	-5.477614e-06	-1.422476e-09	-3.818391e+01	-9.632683e+01
1.300000e-07	-5.472924e-06	-1.461349e-09	-3.815121e+01	-9.628873e+01
1.400000e-07	-5.467783e-06	-1.457213e-09	-3.811538e+01	-9.624667e+01
1.500000e-07	-5.462167e-06	-1.399002e-09	-3.807623e+01	-9.620044e+01
1.600000e-07	-5.456338e-06	-1.411424e-09	-3.803560e+01	-9.614983e+01
1.700000e-07	-5.450249e-06	-1.456461e-09	-3.799315e+01	-9.609463e+01
1.800000e-07	-5.443631e-06	-1.465490e-09	-3.794702e+01	-9.603463e+01
1.900000e-07	-5.436533e-06	-1.419864e-09	-3.789754e+01	-9.596966e+01
2.000000e-07	-5.429124e-06	-1.416189e-09	-3.784589e+01	-9.589952e+01
2.100000e-07	-5.421496e-06	-1.446473e-09	-3.779272e+01	-9.582404e+01
2.200000e-07	-5.413653e-06	-1.471441e-09	-3.773804e+01	-9.574308e+01
2.300000e-07	-5.405567e-06	-1.456763e-09	-3.768168e+01	-9.565648e+01
2.400000e-07	-5.397065e-06	-1.443680e-09	-3.762241e+01	-9.556411e+01
2.500000e-07	-5.387932e-06	-1.453878e-09	-3.755875e+01	-9.546587e+01
2.600000e-07	-5.378140e-06	-1.461731e-09	-3.749049e+01	-9.536165e+01
2.700000e-07	-5.367741e-06	-1.449890e-09	-3.741800e+01	-9.525136e+01
2.800000e-07	-5.356836e-06	-1.419512e-09	-3.734198e+01	-9.513495e+01
2.900000e-07	-5.345421e-06	-1.423983e-09	-3.726241e+01	-9.501236e+01
3.000000e-07	-5.333648e-06	-1.425762e-09	-3.718034e+01	-9.488355e+01
3.100000e-07	-5.321615e-06	-1.416602e-09	-3.709645e+01	-9.474852e+01
3.200000e-07	-5.309196e-06	-1.396796e-09	-3.700989e+01	-9.460726e+01
3.300000e-07	-5.296234e-06	-1.427604e-09	-3.691953e+01	-9.445978e+01
3.400000e-07	-5.282842e-06	-1.436655e-09	-3.682618e+01	-9.430611e+01
3.500000e-07	-5.269145e-06	-1.409813e-09	-3.673069e+01	-9.414630e+01
3.600000e-07	-5.255028e-06	-1.389777e-09	-3.663229e+01	-9.398039e+01
3.700000e-07	-5.240478e-06	-1.417082e-09	-3.653086e+01	-9.380846e+01
3.800000e-07	-5.225477e-06	-1.398251e-09	-3.642629e+01	-9.363059e+01
3.900000e-07	-5.209866e-06	-1.377296e-09	-3.631747e+01	-9.344687e+01
4.000000e-07	-5.193683e-06	-1.399342e-09	-3.620466e+01	-9.325739e+01
4.100000e-07	-5.177152e-06	-1.406901e-09	-3.608942e+01	-9.306226e+01
4.200000e-07	-5.160267e-06	-1.360021e-09	-3.597172e+01	-9.286159e+01
4.300000e-07	-5.143026e-06	-1.372938e-09	-3.585153e+01	-9.265551e+01
4.400000e-07	-5.125501e-06	-1.409745e-09	-3.572936e+01	-9.244412e+01
4.500000e-07	-5.107607e-06	-1.371526e-09	-3.560463e+01	-9.222756e+01
4.600000e-07	-5.089299e-06	-1.341507e-09	-3.547700e+01	-9.200595e+01
4.700000e-07	-5.070578e-06	-1.388258e-09	-3.534650e+01	-9.177941e+01
4.800000e-07	-5.051523e-06	-1.384490e-09	-3.521367e+01	-9.154807e+01
4.900000e-07	-5.032204e-06	-1.339397e-09	-3.507900e+01	-9.131205e+01
5.000000e-07	-5.012609e-06	-1.368877e-09	-3.494241e+01	-9.107147e+01
5.100000e-07	-4.992796e-06	-1.383113e-09	-3.480429e+01	-9.082644e+01
5.200000e-07	-4.972734e-06	-1.328962e-09	-3.466444e+01	-9.057706e+01
5.300000e-07	-4.952329e-06	-1.334618e-09	-3.452220e+01	-9.032344e+01
5.400000e-07	-4.931545e-06	-1.379268e-09	-3.437732e+01	-9.006568e+01
5.500000e-07	-4.910393e-06	-1.338762e-09	-3.422987e+01	-8.980386e+01
5.600000e-07	-4.888863e-06	-1.315061e-09	-3.407978e+01	-8.953805e+01
5.700000e-07	-4.866998e-06	-1.353613e-09	-3.392736e+01	-8.926833e+01
5.800000e-07	-4.844819e-06	-1.340021e-09	-3.377276e+01	-8.899476e+01
5.900000e-07	-4.822308e-06	-1.300574e-09	-3.361583e+01	-8.871738e+01
6.000000e-07	-4.799505e-06	-1.332016e-09	-3.345688e+01	-8.843625e+01
6.100000e-07	-4.776381e-06	-1.338299e-09	-3.329568e+01	-8.815139e+01
6.200000e-07	-4.752934e-06	-1.303930e-09	-3.313224e+01	-8.786282e+01
6.300000e-07	-4.729285e-06	-1.312890e-09	-3.296738e+01	-8.757055e+01
6.400000e-07	-4.705466e-06	-1.330572e-09	-3.280135e+01	-8.727460e+01
6.500000e-07	-4.681354e-06	-1.296638e-09	-3.263326e+01	-8.697495e+01
6.600000e-07	-4.656838e-06	-1.293425e-09	-3.246236e+01	-8.667159e+01
6.700000e-07	-4.631889e-06	-1.309902e-09	-3.228844e+01	-8.636450e+01
6.800000e-07	-4.606296e-06	-1.289847e-09	-3.211004e+01	-8.605365e+01
6.900000e-07	-4.579987e-06	-1.275211e-09	-3.192664e+01	-8.573901e+01
7.000000e-07	-4.553216e-06	-1.292948e-09	-3.174002e+01	-8.542053e+01
7.100000e-07	-4.526102e-06	-1.278772e-09	-3.155101e+01	-8.509816e+01
7.200000e-07	-4.498681e-06	-1.255652e-09	-3.135986e+01	-8.477186e+01
7.300000e-07	-4.471096e-06	-1.262087e-09	-3.116757e+01	-8.444156e+01
7.400000e-07	-4.443409e-06	-1.261744e-09	-3.097457e+01	-8.410721e+01
7.500000e-07	-4.415545e-06	-1.243555e-09	-3.078033e+01	-8.376874e+01
7.600000e-07	-4.387380e-06	-1.248496e-09	-3.058399e+01	-8.342608e+01
7.700000e-07	-4.358899e-06	-1.253377e-09	-3.038546e+01	-8.307918e+01
7.800000e-07	-4.330103e-06	-1.234633e-09	-3.018472e+01	-8.272796e+01
7.900000e-07	-4.300980e-06	-1.226892e-09	-2.998171e+01	-8.237235e+01
8.000000e-07	-4.271548e-06	-1.228487e-09	-2.977654e+01	-8.201230e+01
8.100000e-07	-4.241751e-06	-1.209615e-09	-2.956883e+01	-8.164773e+01
8.200000e-07	-4.211702e-06	-1.192864e-09	-2.935936e+01	-8.127858e+01
8.300000e-07	-4.181418e-06	-1.197033e-09	-2.914826e+01	-8.090480e+01
8.400000e-07	-4.150707e-06	-1.188253e-09	-2.893417e+01	-8.052632e+01
8.500000e-07	-4.119715e-06	-1.173353e-09	-2.871813e+01	-8.014308e+01
8.600000e-07	-4.088550e-06	-1.175151e-09	-2.850088e+01	-7.975505e+01
8.700000e-07	-4.057211e-06	-1.175920e-09	-2.828242e+01	-7.936217e+01
8.800000e-07	-4.025726e-06	-1.160418e-09	-2.806294e+01	-7.896439e+01
8.900000e-07	-3.994039e-06	-1.156754e-09	-2.784205e+01	-7.856169e+01
9.000000e-07	-3.962125e-06	-1.153085e-09	-2.761959e+01	-7.815402e+01
9.100000e-07	-3.929896e-06	-1.134669e-09	-2.739492e+01	-7.774137e+01
9.200000e-07	-3.897344e-06	-1.120265e-09	-2.716800e+01	-7.732370e+01
9.300000e-07	-3.864417e-06	-1.120278e-09	-2.693847e+01	-7.690100e+01
9.400000e-07	-3.831062e-06	-1.112696e-09	-2.670596e+01	-7.647326e+01
9.500000e-07	-3.797299e-06	-1.104206e-09	-2.647060e+01	-7.604047e+01
9.600000e-07	-3.763152e-06	-1.107384e-09	-2.623256e+01	-7.560263e+01
9.700000e-07	-3.728636e-06	-1.104798e-09	-2.599195e+01	-7.515974e+01
9.800000e-07	-3.693791e-06	-1.089634e-09	-2.574906e+01	-7.471180e+01
9.900000e-07	-3.658603e-06	-1.083691e-09	-2.550376e+01	-7.425883e+01
1.000000e-06	-3.623122e-06	-1.078682e-09	-2.525642e+01	-7.380085e+01
1.010000e-06	-3.587519e-06	-1.064689e-09	-2.500825e+01	-7.333788e+01
1.020000e-06	-3.551834e-06	-1.055997e-09	-2.475948e+01	-7.286994e+01
1.030000e-06	-3.515980e-06	-1.057344e-09	-2.450955e+01	-7.239706e+01
1.040000e-06	-3.479929e-06	-1.051902e-09	-2.425824e+01	-7.191927e+01
1.050000e-06	-3.443658e-06	-1.046299e-09	-2.400540e+01	-7.143661e+01
1.060000e-06	-3.407156e-06	-1.045071e-09	-2.375095e+01	-7.094912e+01
1.070000e-06	-3.370389e-06	-1.036281e-09	-2.349465e+01	-7.045684e+01
1.080000e-06	-3.333304e-06	-1.020585e-09	-2.323614e+01	-6.995981e+01
1.090000e-06	-3.295931e-06	-1.012554e-09	-2.297561e+01	-6.945807e+01
1.100000e-06	-3.258281e-06	-1.007703e-09	-2.271316e+01	-6.895168e+01
1.110000e-06	-3.220397e-06	-9.981812e-10	-2.244907e+01	-6.844067e+01
1.120000e-06	-3.182381e-06	-9.939307e-10	-2.218407e+01	-6.792509e+01
1.130000e-06	-3.144173e-06	-9.915792e-10	-2.191772e+01	-6.740500e+01
1.140000e-06	-3.105614e-06	-9.828027e-10	-2.164893e+01	-6.688043e+01
1.150000e-06	-3.066737e-06	-9.729833e-10	-2.137793e+01	-6.635143e+01
1.160000e-06	-3.027711e-06	-9.673982e-10	-2.110588e+01	-6.581804e+01
1.170000e-06	-2.988588e-06	-9.572547e-10	-2.083315e+01	-6.528030e+01
1.180000e-06	-2.949285e-06	-9.442160e-10	-2.055917e+01	-6.473824e+01
1.190000e-06	-2.909816e-06	-9.367442e-10	-2.028405e+01	-6.419190e+01
1.200000e-06	-2.870221e-06	-9.305122e-10	-2.000803e+01	-6.364131e+01
1.210000e-06	-2.830519e-06	-9.196188e-10	-1.973127e+01	-6.308648e+01
1.220000e-06	-2.790723e-06	-9.125776e-10	-1.945386e+01	-6.252742e+01
1.230000e-06	-2.750802e-06	-9.072560e-10	-1.917557e+01	-6.196415e+01
1.240000e-06	-2.710717e-06	-8.961556e-10	-1.889614e+01	-6.139665e+01
1.250000e-06	-2.670454e-06	-8.829940e-10	-1.861547e+01	-6.082493e+01
1.260000e-06	-2.629978e-06	-8.739983e-10	-1.833332e+01	-6.024895e+01
1.270000e-06	-2.589205e-06	-8.623820e-10	-1.804909e+01	-5.966869e+01
1.280000e-06	-2.548202e-06	-8.496234e-10	-1.776327e+01	-5.908409e+01
1.290000e-06	-2.506970e-06	-8.396868e-10	-1.747584e+01	-5.849510e+01
1.300000e-06	-2.465490e-06	-8.310716e-10	-1.718669e+01	-5.790165e+01
1.310000e-06	-2.423711e-06	-8.217859e-10	-1.689545e+01	-5.730364e+01
1.320000e-06	-2.381527e-06	-8.137328e-10	-1.660139e+01	-5.670097e+01
1.330000e-06	-2.339009e-06	-8.040378e-10	-1.630500e+01	-5.609352e+01
1.340000e-06	-2.296279e-06	-7.900148e-10	-1.600714e+01	-5.548115e+01
1.350000e-06	-2.253390e-06	-7.775522e-10	-1.570816e+01	-5.486370e+01
1.360000e-06	-2.210253e-06	-7.687280e-10	-1.540746e+01	-5.424098e+01
1.370000e-06	-2.166889e-06	-7.594993e-10	-1.510517e+01	-5.361280e+01
1.380000e-06	-2.123400e-06	-7.502352e-10	-1.480202e+01	-5.297895e+01
1.390000e-06	-2.079839e-06	-7.405451e-10	-1.449835e+01	-5.233916e+01
1.400000e-06	-2.036143e-06	-7.275786e-10	-1.419375e+01	-5.169319e+01
1.410000e-06	-1.992323e-06	-7.127638e-10	-1.388829e+01	-5.104074e+01
1.420000e-06	-1.948492e-06	-6.997262e-10	-1.358275e+01	-5.038150e+01
1.430000e-06	-1.904591e-06	-6.897822e-10	-1.327672e+01	-4.971515e+01
1.440000e-06	-1.860587e-06	-6.793577e-10	-1.296997e+01	-4.904133e+01
1.450000e-06	-1.816524e-06	-6.691222e-10	-1.266281e+01	-4.835965e+01
1.460000e-06	-1.772357e-06	-6.586719e-10	-1.235493e+01	-4.766973e+01
1.470000e-06	-1.728091e-06	-6.465358e-10	-1.204635e+01	-4.697114e+01
1.480000e-06	-1.683724e-06	-6.332222e-10	-1.173707e+01	-4.626345e+01
1.490000e-06	-1.639188e-06	-6.207015e-10	-1.142662e+01	-4.554620e+01
1.500000e-06	-1.594442e-06	-6.079771e-10	-1.111470e+01	-4.481891e+01
1.510000e-06	-1.549521e-06	-5.948364e-10	-1.080156e+01	-4.408109e+01
1.520000e-06	-1.504469e-06	-5.821758e-10	-1.048751e+01	-4.333224e+01
1.530000e-06	-1.459285e-06	-5.690873e-10	-1.017253e+01	-4.257184e+01
1.540000e-06	-1.413965e-06	-5.599911e-10	-9.856612e+00	-4.179936e+01
1.550000e-06	-1.368575e-06	-5.533510e-10	-9.540199e+00	-4.101427e+01
1.560000e-06	-1.323189e-06	-5.437871e-10	-9.223818e+00	-4.021602e+01
1.570000e-06	-1.277706e-06	-5.319944e-10	-8.906763e+00	-3.940407e+01
1.580000e-06	-1.232176e-06	-5.180504e-10	-8.589380e+00	-3.857788e+01
1.590000e-06	-1.186675e-06	-5.023793e-10	-8.272196e+00	-3.773691e+01
1.600000e-06	-1.141031e-06	-4.845999e-10	-7.954017e+00	-3.688062e+01
1.610000e-06	-1.095195e-06	-4.686549e-10	-7.634499e+00	-3.600849e+01
1.620000e-06	-1.049251e-06	-4.537092e-10	-7.314226e+00	-3.512002e+01
1.630000e-06	-1.003249e-06	-4.403427e-10	-6.993549e+00	-3.421470e+01
1.640000e-06	-9.572295e-07	-4.318710e-10	-6.672753e+00	-3.329207e+01
1.650000e-06	-9.111645e-07	-4.242442e-10	-6.351639e+00	-3.235168e+01
1.660000e-06	-8.650182e-07	-4.122399e-10	-6.029957e+00	-3.139311e+01
1.670000e-06	-8.188677e-07	-3.949557e-10	-5.708246e+00	-3.041598e+01
1.680000e-06	-7.726917e-07	-3.755790e-10	-5.386358e+00	-2.941992e+01
1.690000e-06	-7.265136e-07	-3.558941e-10	-5.064455e+00	-2.840462e+01
1.700000e-06	-6.803240e-07	-3.384786e-10	-4.742472e+00	-2.736982e+01
1.710000e-06	-6.339726e-07	-3.251176e-10	-4.419361e+00	-2.631529e+01
1.720000e-06	-5.875377e-07	-3.133484e-10	-4.095668e+00	-2.524085e+01
1.730000e-06	-5.410693e-07	-3.001771e-10	-3.771741e+00	-2.414638e+01
1.740000e-06	-4.945351e-07	-2.845386e-10	-3.447356e+00	-2.303180e+01
1.750000e-06	-4.480186e-07	-2.670230e-10	-3.123094e+00	-2.189712e+01
1.760000e-06	-4.014597e-07	-2.476735e-10	-2.798536e+00	-2.074237e+01
1.770000e-06	-3.548398e-07	-2.283062e-10	-2.473553e+00	-1.956766e+01
1.780000e-06	-3.082011e-07	-2.097172e-10	-2.148440e+00	-1.837318e+01
1.790000e-06	-2.615409e-07	-1.931377e-10	-1.823176e+00	-1.715916e+01
1.800000e-06	-2.148643e-07	-1.800083e-10	-1.497798e+00	-1.592591e+01
1.810000e-06	-1.681304e-07	-1.665397e-10	-1.172020e+00	-1.467379e+01
1.820000e-06	-1.214028e-07	-1.492043e-10	-8.462867e-01	-1.340326e+01
1.830000e-06	-7.472516e-08	-1.271534e-10	-5.209018e-01	-1.211482e+01
1.840000e-06	-2.804763e-08	-1.046926e-10	-1.955172e-01	-1.080904e+01
1.850000e-06	1.860128e-08	-8.331133e-11	1.296677e-01	-9.486576e+00
1.860000e-06	6.525922e-08	-6.418081e-11	4.549156e-01	-8.148122e+00
1.870000e-06	1.119619e-07	-4.575397e-11	7.804756e-01	-6.794453e+00
1.880000e-06	1.587043e-07	-2.797769e-11	1.106312e+00	-5.426400e+00
1.890000e-06	2.054362e-07	-1.279975e-11	1.432076e+00	-4.044855e+00
1.900000e-06	2.520827e-07	1.902824e-12	1.757244e+00	-2.650763e+00
1.910000e-06	2.987281e-07	1.871852e-11	2.082404e+00	-1.245125e+00
1.920000e-06	3.453695e-07	4.043659e-11	2.407537e+00	1.710105e-01
1.930000e-06	3.919587e-07	6.618441e-11	2.732306e+00	1.596549e+00
1.940000e-06	4.385241e-07	9.068528e-11	3.056909e+00	3.030355e+00
1.950000e-06	4.850295e-07	1.118827e-10	3.381093e+00	4.471255e+00
1.960000e-06	5.314181e-07	1.302710e-10	3.704463e+00	5.918045e+00
1.970000e-06	5.777583e-07	1.463101e-10	4.027496e+00	7.369492e+00
1.980000e-06	6.241415e-07	1.622845e-10	4.350829e+00	8.824343e+00
1.990000e-06	6.705547e-07	1.804416e-10	4.674371e+00	1.028133e+01
2.000000e-06	7.169494e-07	2.006941e-10	4.997784e+00	1.173916e+01
2.010000e-06	7.632410e-07	2.245458e-10	5.320478e+00	1.319656e+01
2.020000e-06	8.094321e-07	2.476592e-10	5.642472e+00	1.465223e+01
2.030000e-06	8.555993e-07	2.694303e-10	5.964299e+00	1.610489e+01
2.040000e-06	9.016596e-07	2.925093e-10	6.285381e+00	1.755328e+01
2.050000e-06	9.476216e-07	3.127601e-10	6.605778e+00	1.899613e+01
2.060000e-06	9.934990e-07	3.306218e-10	6.925584e+00	2.043221e+01
2.070000e-06	1.039341e-06	3.476824e-10	7.245145e+00	2.186032e+01
2.080000e-06	1.085145e-06	3.658794e-10	7.564442e+00	2.327928e+01
2.090000e-06	1.130825e-06	3.858803e-10	7.882870e+00	2.468795e+01
2.100000e-06	1.176443e-06	4.090393e-10	8.200872e+00	2.608523e+01
2.110000e-06	1.222021e-06	4.324885e-10	8.518586e+00	2.747009e+01
2.120000e-06	1.267589e-06	4.550027e-10	8.836239e+00	2.884151e+01
2.130000e-06	1.313065e-06	4.750470e-10	9.153245e+00	3.019854e+01
2.140000e-06	1.358370e-06	4.929068e-10	9.469065e+00	3.154030e+01
2.150000e-06	1.403584e-06	5.090899e-10	9.784249e+00	3.286596e+01
2.160000e-06	1.448592e-06	5.247397e-10	1.009799e+01	3.417475e+01
2.170000e-06	1.493461e-06	5.417778e-10	1.041077e+01	3.546595e+01
2.180000e-06	1.538305e-06	5.615090e-10	1.072337e+01	3.673893e+01
2.190000e-06	1.583044e-06	5.804619e-10	1.103524e+01	3.799312e+01
2.200000e-06	1.627603e-06	6.001818e-10	1.134586e+01	3.922802e+01
2.210000e-06	1.672003e-06	6.177988e-10	1.165537e+01	4.044318e+01
2.220000e-06	1.716339e-06	6.321079e-10	1.196443e+01	4.163823e+01
2.230000e-06	1.760578e-06	6.453027e-10	1.227282e+01	4.281288e+01
2.240000e-06	1.804724e-06	6.617328e-10	1.258056e+01	4.396688e+01
2.250000e-06	1.848742e-06	6.807212e-10	1.288740e+01	4.510008e+01
2.260000e-06	1.892658e-06	6.976706e-10	1.319354e+01	4.621235e+01
2.270000e-06	1.936524e-06	7.141835e-10	1.349932e+01	4.730366e+01
2.280000e-06	1.980312e-06	7.270343e-10	1.380456e+01	4.837402e+01
2.290000e-06	2.024021e-06	7.367244e-10	1.410925e+01	4.942349e+01
2.300000e-06	2.067706e-06	7.460614e-10	1.441377e+01	5.045220e+01
2.310000e-06	2.111358e-06	7.577415e-10	1.471807e+01	5.146033e+01
2.320000e-06	2.154878e-06	7.720515e-10	1.502144e+01	5.244808e+01
2.330000e-06	2.198266e-06	7.894305e-10	1.532390e+01	5.341573e+01
2.340000e-06	2.241467e-06	8.078589e-10	1.562505e+01	5.436356e+01
2.350000e-06	2.284455e-06	8.234841e-10	1.592471e+01	5.529192e+01
2.360000e-06	2.327324e-06	8.340666e-10	1.622355e+01	5.620118e+01
2.370000e-06	2.369982e-06	8.440608e-10	1.652091e+01	5.709171e+01
2.380000e-06	2.412327e-06	8.528417e-10	1.681610e+01	5.796394e+01
2.390000e-06	2.454273e-06	8.642839e-10	1.710850e+01	5.881830e+01
2.400000e-06	2.495872e-06	8.782933e-10	1.739848e+01	5.965524e+01
2.410000e-06	2.537237e-06	8.942068e-10	1.768683e+01	6.047521e+01
2.420000e-06	2.578364e-06	9.084338e-10	1.797352e+01	6.127868e+01
2.430000e-06	2.619307e-06	9.189607e-10	1.825893e+01	6.206612e+01
2.440000e-06	2.659938e-06	9.260648e-10	1.854217e+01	6.283799e+01
2.450000e-06	2.700199e-06	9.311359e-10	1.882282e+01	6.359475e+01
2.460000e-06	2.740261e-06	9.380188e-10	1.910209e+01	6.433687e+01
2.470000e-06	2.780165e-06	9.478386e-10	1.938026e+01	6.506478e+01
2.480000e-06	2.819914e-06	9.591903e-10	1.965734e+01	6.577892e+01
2.490000e-06	2.859589e-06	9.704261e-10	1.993391e+01	6.647972e+01
2.500000e-06	2.899167e-06	9.819466e-10	2.020981e+01	6.716756e+01
2.510000e-06	2.938606e-06	9.922478e-10	2.048474e+01	6.784285e+01
2.520000e-06	2.977899e-06	1.000221e-09	2.075864e+01	6.850593e+01
2.530000e-06	3.016974e-06	1.007118e-09	2.103103e+01	6.915717e+01
2.540000e-06	3.055796e-06	1.015026e-09	2.130166e+01	6.979687e+01
2.550000e-06	3.094401e-06	1.024413e-09	2.157077e+01	7.042534e+01
2.560000e-06	3.132787e-06	1.033688e-09	2.183835e+01	7.104286e+01
2.570000e-06	3.170897e-06	1.041685e-09	2.210401e+01	7.164968e+01
2.580000e-06	3.208746e-06	1.052622e-09	2.236786e+01	7.224603e+01
2.590000e-06	3.246430e-06	1.064187e-09	2.263054e+01	7.283214e+01
2.600000e-06	3.283994e-06	1.073070e-09	2.289240e+01	7.340819e+01
2.610000e-06	3.321380e-06	1.079871e-09	2.315301e+01	7.397435e+01
2.620000e-06	3.358510e-06	1.086944e-09	2.341184e+01	7.453079e+01
2.630000e-06	3.395416e-06	1.094854e-09	2.366911e+01	7.507763e+01
2.640000e-06	3.432029e-06	1.102942e-09	2.392434e+01	7.561499e+01
2.650000e-06	3.468286e-06	1.111067e-09	2.417708e+01	7.614300e+01
2.660000e-06	3.504330e-06	1.122132e-09	2.442834e+01	7.666174e+01
2.670000e-06	3.540224e-06	1.131861e-09	2.467856e+01	7.717129e+01
2.680000e-06	3.575959e-06	1.139161e-09	2.492766e+01	7.767175e+01
2.690000e-06	3.611586e-06	1.146099e-09	2.517602e+01	7.816316e+01
2.700000e-06	3.647111e-06	1.150485e-09	2.542365e+01	7.864561e+01
2.710000e-06	3.682505e-06	1.158341e-09	2.567038e+01	7.911916e+01
2.720000e-06	3.717593e-06	1.166306e-09	2.591498e+01	7.958386e+01
2.730000e-06	3.752314e-06	1.172354e-09	2.615701e+01	8.003978e+01
2.740000e-06	3.786690e-06	1.177986e-09	2.639664e+01	8.048698e+01
2.750000e-06	3.820470e-06	1.183920e-09	2.663212e+01	8.092552e+01
2.760000e-06	3.853778e-06	1.189288e-09	2.686431e+01	8.135549e+01
2.770000e-06	3.886751e-06	1.194507e-09	2.709416e+01	8.177695e+01
2.780000e-06	3.919251e-06	1.199298e-09	2.732072e+01	8.218998e+01
2.790000e-06	3.951439e-06	1.201975e-09	2.754509e+01	8.259469e+01
2.800000e-06	3.983428e-06	1.204953e-09	2.776809e+01	8.299116e+01
2.810000e-06	4.015215e-06	1.208655e-09	2.798967e+01	8.337951e+01
2.820000e-06	4.046861e-06	1.213842e-09	2.821027e+01	8.375984e+01
2.830000e-06	4.078354e-06	1.220750e-09	2.842981e+01	8.413229e+01
2.840000e-06	4.109627e-06	1.228869e-09	2.864781e+01	8.449699e+01
2.850000e-06	4.140602e-06	1.236846e-09	2.886373e+01	8.485407e+01
2.860000e-06	4.171251e-06	1.241124e-09	2.907738e+01	8.520369e+01
2.870000e-06	4.201595e-06	1.242189e-09	2.928891e+01	8.554601e+01
2.880000e-06	4.231663e-06	1.243766e-09	2.949851e+01	8.588118e+01
2.890000e-06	4.261482e-06	1.245278e-09	2.970637e+01	8.620937e+01
2.900000e-06	4.291021e-06	1.247709e-09	2.991229e+01	8.653077e+01
2.910000e-06	4.320303e-06	1.251624e-09	3.011641e+01	8.684553e+01
