# Temperatura_=_-0.4
# Concentracion g/m^3_=_1620.0
# C_Vs_to_Am_M_A/Vsm_=_65563218390.804596
# pendiente_HvsI_1/m_=_3716.3
# ordenada_HvsI_A/m_=_1297.0
# frecuencia_Hz_=_135086.25671153894

Tiempo_(s)	Campo_(V.s)	Magnetizacion_(V.s)	Campo_(kA/m)	Magnetizacion_(A/m)
0.000000e+00	-5.513492e-06	-1.673828e-09	-3.837559e+01	-1.081423e+02
1.000000e-08	-5.513748e-06	-1.671462e-09	-3.837737e+01	-1.080764e+02
2.000000e-08	-5.513742e-06	-1.668746e-09	-3.837733e+01	-1.080070e+02
3.000000e-08	-5.513311e-06	-1.668109e-09	-3.837433e+01	-1.079342e+02
4.000000e-08	-5.512319e-06	-1.668599e-09	-3.836742e+01	-1.078582e+02
5.000000e-08	-5.510720e-06	-1.670579e-09	-3.835629e+01	-1.077791e+02
6.000000e-08	-5.508422e-06	-1.673141e-09	-3.834030e+01	-1.076971e+02
7.000000e-08	-5.505567e-06	-1.672289e-09	-3.832042e+01	-1.076125e+02
8.000000e-08	-5.502335e-06	-1.675795e-09	-3.829793e+01	-1.075254e+02
9.000000e-08	-5.498691e-06	-1.668720e-09	-3.827256e+01	-1.074359e+02
1.000000e-07	-5.494610e-06	-1.686428e-09	-3.824416e+01	-1.073442e+02
1.100000e-07	-5.490083e-06	-1.689658e-09	-3.821265e+01	-1.072505e+02
1.200000e-07	-5.485419e-06	-1.658101e-09	-3.818019e+01	-1.071548e+02
1.300000e-07	-5.480599e-06	-1.628751e-09	-3.814664e+01	-1.070573e+02
1.400000e-07	-5.475376e-06	-1.653769e-09	-3.811028e+01	-1.069582e+02
1.500000e-07	-5.469759e-06	-1.686082e-09	-3.807119e+01	-1.068575e+02
1.600000e-07	-5.463786e-06	-1.703710e-09	-3.802961e+01	-1.067552e+02
1.700000e-07	-5.457481e-06	-1.643511e-09	-3.798573e+01	-1.066515e+02
1.800000e-07	-5.450806e-06	-1.659994e-09	-3.793927e+01	-1.065463e+02
1.900000e-07	-5.443714e-06	-1.641137e-09	-3.788991e+01	-1.064398e+02
2.000000e-07	-5.436260e-06	-1.647594e-09	-3.783803e+01	-1.063319e+02
2.100000e-07	-5.428521e-06	-1.584687e-09	-3.778416e+01	-1.062227e+02
2.200000e-07	-5.420522e-06	-1.606983e-09	-3.772849e+01	-1.061120e+02
2.300000e-07	-5.412270e-06	-1.611809e-09	-3.767105e+01	-1.060000e+02
2.400000e-07	-5.403622e-06	-1.621873e-09	-3.761086e+01	-1.058864e+02
2.500000e-07	-5.394314e-06	-1.590252e-09	-3.754607e+01	-1.057713e+02
2.600000e-07	-5.384291e-06	-1.579373e-09	-3.747631e+01	-1.056545e+02
2.700000e-07	-5.373596e-06	-1.595640e-09	-3.740187e+01	-1.055360e+02
2.800000e-07	-5.362307e-06	-1.594498e-09	-3.732329e+01	-1.054156e+02
2.900000e-07	-5.350693e-06	-1.591002e-09	-3.724246e+01	-1.052933e+02
3.000000e-07	-5.338720e-06	-1.574260e-09	-3.715912e+01	-1.051688e+02
3.100000e-07	-5.326379e-06	-1.609302e-09	-3.707322e+01	-1.050420e+02
3.200000e-07	-5.313703e-06	-1.583566e-09	-3.698500e+01	-1.049128e+02
3.300000e-07	-5.300568e-06	-1.584004e-09	-3.689357e+01	-1.047809e+02
3.400000e-07	-5.287041e-06	-1.543023e-09	-3.679942e+01	-1.046462e+02
3.500000e-07	-5.273185e-06	-1.580141e-09	-3.670297e+01	-1.045086e+02
3.600000e-07	-5.258814e-06	-1.559696e-09	-3.660295e+01	-1.043677e+02
3.700000e-07	-5.243936e-06	-1.569171e-09	-3.649939e+01	-1.042234e+02
3.800000e-07	-5.228649e-06	-1.552231e-09	-3.639299e+01	-1.040756e+02
3.900000e-07	-5.212937e-06	-1.583256e-09	-3.628363e+01	-1.039240e+02
4.000000e-07	-5.196616e-06	-1.549758e-09	-3.617003e+01	-1.037684e+02
4.100000e-07	-5.179760e-06	-1.541973e-09	-3.605271e+01	-1.036086e+02
4.200000e-07	-5.162748e-06	-1.551546e-09	-3.593430e+01	-1.034444e+02
4.300000e-07	-5.145510e-06	-1.555945e-09	-3.581432e+01	-1.032757e+02
4.400000e-07	-5.127929e-06	-1.508874e-09	-3.569195e+01	-1.031022e+02
4.500000e-07	-5.109960e-06	-1.527971e-09	-3.556688e+01	-1.029239e+02
4.600000e-07	-5.091513e-06	-1.551530e-09	-3.543848e+01	-1.027405e+02
4.700000e-07	-5.072651e-06	-1.523933e-09	-3.530720e+01	-1.025518e+02
4.800000e-07	-5.053436e-06	-1.500137e-09	-3.517345e+01	-1.023578e+02
4.900000e-07	-5.033960e-06	-1.540837e-09	-3.503790e+01	-1.021584e+02
5.000000e-07	-5.014331e-06	-1.524141e-09	-3.490127e+01	-1.019533e+02
5.100000e-07	-4.994460e-06	-1.479450e-09	-3.476297e+01	-1.017425e+02
5.200000e-07	-4.974227e-06	-1.500594e-09	-3.462213e+01	-1.015260e+02
5.300000e-07	-4.953663e-06	-1.509164e-09	-3.447900e+01	-1.013037e+02
5.400000e-07	-4.932745e-06	-1.467414e-09	-3.433341e+01	-1.010754e+02
5.500000e-07	-4.911456e-06	-1.474232e-09	-3.418523e+01	-1.008412e+02
5.600000e-07	-4.889842e-06	-1.510903e-09	-3.403479e+01	-1.006011e+02
5.700000e-07	-4.867945e-06	-1.473779e-09	-3.388238e+01	-1.003551e+02
5.800000e-07	-4.845702e-06	-1.462566e-09	-3.372756e+01	-1.001031e+02
5.900000e-07	-4.823012e-06	-1.488878e-09	-3.356964e+01	-9.984516e+01
6.000000e-07	-4.799926e-06	-1.475114e-09	-3.340895e+01	-9.958139e+01
6.100000e-07	-4.776610e-06	-1.440847e-09	-3.324666e+01	-9.931180e+01
6.200000e-07	-4.753121e-06	-1.470051e-09	-3.308317e+01	-9.903647e+01
6.300000e-07	-4.729401e-06	-1.463967e-09	-3.291807e+01	-9.875546e+01
6.400000e-07	-4.705332e-06	-1.443912e-09	-3.275054e+01	-9.846888e+01
6.500000e-07	-4.680785e-06	-1.450194e-09	-3.257969e+01	-9.817682e+01
6.600000e-07	-4.655759e-06	-1.460614e-09	-3.240551e+01	-9.787939e+01
6.700000e-07	-4.630368e-06	-1.426919e-09	-3.222877e+01	-9.757669e+01
6.800000e-07	-4.604504e-06	-1.431708e-09	-3.204875e+01	-9.726886e+01
6.900000e-07	-4.578038e-06	-1.432136e-09	-3.186454e+01	-9.695600e+01
7.000000e-07	-4.551147e-06	-1.420756e-09	-3.167737e+01	-9.663825e+01
7.100000e-07	-4.523880e-06	-1.415969e-09	-3.148758e+01	-9.631572e+01
7.200000e-07	-4.496346e-06	-1.431279e-09	-3.129594e+01	-9.598855e+01
7.300000e-07	-4.468645e-06	-1.412700e-09	-3.110313e+01	-9.565685e+01
7.400000e-07	-4.440757e-06	-1.403545e-09	-3.090903e+01	-9.532074e+01
7.500000e-07	-4.412660e-06	-1.401040e-09	-3.071346e+01	-9.498032e+01
7.600000e-07	-4.384389e-06	-1.393381e-09	-3.051668e+01	-9.463571e+01
7.700000e-07	-4.355860e-06	-1.383783e-09	-3.031811e+01	-9.428699e+01
7.800000e-07	-4.326957e-06	-1.386724e-09	-3.011694e+01	-9.393425e+01
7.900000e-07	-4.297707e-06	-1.376479e-09	-2.991335e+01	-9.357756e+01
8.000000e-07	-4.268153e-06	-1.364800e-09	-2.970764e+01	-9.321698e+01
8.100000e-07	-4.238350e-06	-1.360865e-09	-2.950020e+01	-9.285256e+01
8.200000e-07	-4.208255e-06	-1.350764e-09	-2.929073e+01	-9.248433e+01
8.300000e-07	-4.177759e-06	-1.336537e-09	-2.907848e+01	-9.211231e+01
8.400000e-07	-4.146929e-06	-1.330957e-09	-2.886389e+01	-9.173651e+01
8.500000e-07	-4.115843e-06	-1.330430e-09	-2.864752e+01	-9.135690e+01
8.600000e-07	-4.084581e-06	-1.320667e-09	-2.842993e+01	-9.097347e+01
8.700000e-07	-4.053157e-06	-1.318490e-09	-2.821121e+01	-9.058616e+01
8.800000e-07	-4.021574e-06	-1.316043e-09	-2.799138e+01	-9.019492e+01
8.900000e-07	-3.989863e-06	-1.311352e-09	-2.777066e+01	-8.979967e+01
9.000000e-07	-3.957863e-06	-1.294410e-09	-2.754794e+01	-8.940032e+01
9.100000e-07	-3.925486e-06	-1.287231e-09	-2.732258e+01	-8.899677e+01
9.200000e-07	-3.892688e-06	-1.276592e-09	-2.709429e+01	-8.858889e+01
9.300000e-07	-3.859556e-06	-1.269153e-09	-2.686368e+01	-8.817656e+01
9.400000e-07	-3.826023e-06	-1.263740e-09	-2.663029e+01	-8.775964e+01
9.500000e-07	-3.791940e-06	-1.265806e-09	-2.639306e+01	-8.733797e+01
9.600000e-07	-3.757356e-06	-1.256463e-09	-2.615234e+01	-8.691140e+01
9.700000e-07	-3.722425e-06	-1.251311e-09	-2.590921e+01	-8.647975e+01
9.800000e-07	-3.687285e-06	-1.244750e-09	-2.566463e+01	-8.604286e+01
9.900000e-07	-3.651899e-06	-1.238355e-09	-2.541833e+01	-8.560054e+01
1.000000e-06	-3.616355e-06	-1.224603e-09	-2.517093e+01	-8.515263e+01
1.010000e-06	-3.580719e-06	-1.220191e-09	-2.492289e+01	-8.469894e+01
1.020000e-06	-3.544889e-06	-1.215546e-09	-2.467351e+01	-8.423929e+01
1.030000e-06	-3.508861e-06	-1.208877e-09	-2.442274e+01	-8.377351e+01
1.040000e-06	-3.472645e-06	-1.200130e-09	-2.417067e+01	-8.330143e+01
1.050000e-06	-3.436191e-06	-1.196440e-09	-2.391694e+01	-8.282288e+01
1.060000e-06	-3.399427e-06	-1.186143e-09	-2.366105e+01	-8.233772e+01
1.070000e-06	-3.362414e-06	-1.175227e-09	-2.340343e+01	-8.184580e+01
1.080000e-06	-3.325260e-06	-1.167606e-09	-2.314482e+01	-8.134698e+01
1.090000e-06	-3.287800e-06	-1.159283e-09	-2.288409e+01	-8.084114e+01
1.100000e-06	-3.250035e-06	-1.148440e-09	-2.262124e+01	-8.032817e+01
1.110000e-06	-3.212060e-06	-1.140292e-09	-2.235691e+01	-7.980798e+01
1.120000e-06	-3.173863e-06	-1.132658e-09	-2.209106e+01	-7.928049e+01
1.130000e-06	-3.135479e-06	-1.120558e-09	-2.182389e+01	-7.874564e+01
1.140000e-06	-3.096861e-06	-1.111599e-09	-2.155509e+01	-7.820338e+01
1.150000e-06	-3.058037e-06	-1.102649e-09	-2.128487e+01	-7.765368e+01
1.160000e-06	-3.019078e-06	-1.094477e-09	-2.101370e+01	-7.709653e+01
1.170000e-06	-2.979912e-06	-1.083949e-09	-2.074110e+01	-7.653192e+01
1.180000e-06	-2.940493e-06	-1.076177e-09	-2.046673e+01	-7.595988e+01
1.190000e-06	-2.900957e-06	-1.066625e-09	-2.019155e+01	-7.538044e+01
1.200000e-06	-2.861324e-06	-1.057300e-09	-1.991569e+01	-7.479364e+01
1.210000e-06	-2.821498e-06	-1.046648e-09	-1.963848e+01	-7.419954e+01
1.220000e-06	-2.781524e-06	-1.038127e-09	-1.936026e+01	-7.359821e+01
1.230000e-06	-2.741480e-06	-1.027075e-09	-1.908154e+01	-7.298973e+01
1.240000e-06	-2.701290e-06	-1.018266e-09	-1.880181e+01	-7.237418e+01
1.250000e-06	-2.660962e-06	-1.008740e-09	-1.852111e+01	-7.175166e+01
1.260000e-06	-2.620388e-06	-1.001847e-09	-1.823870e+01	-7.112225e+01
1.270000e-06	-2.579473e-06	-9.918495e-10	-1.795392e+01	-7.048606e+01
1.280000e-06	-2.538193e-06	-9.833928e-10	-1.766659e+01	-6.984317e+01
1.290000e-06	-2.496735e-06	-9.727849e-10	-1.737803e+01	-6.919368e+01
1.300000e-06	-2.455107e-06	-9.619703e-10	-1.708829e+01	-6.853766e+01
1.310000e-06	-2.413039e-06	-9.476752e-10	-1.679549e+01	-6.787520e+01
1.320000e-06	-2.370661e-06	-9.343595e-10	-1.650052e+01	-6.720633e+01
1.330000e-06	-2.328015e-06	-9.202433e-10	-1.620369e+01	-6.653111e+01
1.340000e-06	-2.285117e-06	-9.104894e-10	-1.590511e+01	-6.584957e+01
1.350000e-06	-2.242010e-06	-9.032316e-10	-1.560507e+01	-6.516170e+01
1.360000e-06	-2.198694e-06	-8.954198e-10	-1.530358e+01	-6.446748e+01
1.370000e-06	-2.155256e-06	-8.855136e-10	-1.500124e+01	-6.376687e+01
1.380000e-06	-2.111732e-06	-8.737483e-10	-1.469830e+01	-6.305978e+01
1.390000e-06	-2.068077e-06	-8.591635e-10	-1.439445e+01	-6.234612e+01
1.400000e-06	-2.024348e-06	-8.424389e-10	-1.409008e+01	-6.162574e+01
1.410000e-06	-1.980561e-06	-8.278426e-10	-1.378531e+01	-6.089846e+01
1.420000e-06	-1.936667e-06	-8.155039e-10	-1.347979e+01	-6.016407e+01
1.430000e-06	-1.892722e-06	-8.056461e-10	-1.317392e+01	-5.942232e+01
1.440000e-06	-1.848724e-06	-7.967762e-10	-1.286768e+01	-5.867293e+01
1.450000e-06	-1.804633e-06	-7.881307e-10	-1.256080e+01	-5.791556e+01
1.460000e-06	-1.760323e-06	-7.758883e-10	-1.225238e+01	-5.714984e+01
1.470000e-06	-1.715797e-06	-7.619464e-10	-1.194247e+01	-5.637538e+01
1.480000e-06	-1.671241e-06	-7.453969e-10	-1.163235e+01	-5.559171e+01
1.490000e-06	-1.626638e-06	-7.314595e-10	-1.132189e+01	-5.479837e+01
1.500000e-06	-1.581837e-06	-7.191754e-10	-1.101007e+01	-5.399482e+01
1.510000e-06	-1.536870e-06	-7.092229e-10	-1.069709e+01	-5.318051e+01
1.520000e-06	-1.491863e-06	-6.985254e-10	-1.038382e+01	-5.235485e+01
1.530000e-06	-1.446832e-06	-6.877554e-10	-1.007039e+01	-5.151722e+01
1.540000e-06	-1.401650e-06	-6.760766e-10	-9.755911e+00	-5.066696e+01
1.550000e-06	-1.356327e-06	-6.629984e-10	-9.440447e+00	-4.980341e+01
1.560000e-06	-1.310864e-06	-6.480791e-10	-9.124016e+00	-4.892586e+01
1.570000e-06	-1.265317e-06	-6.353481e-10	-8.806993e+00	-4.803361e+01
1.580000e-06	-1.219743e-06	-6.208671e-10	-8.489782e+00	-4.712592e+01
1.590000e-06	-1.174118e-06	-6.064710e-10	-8.172218e+00	-4.620206e+01
1.600000e-06	-1.128407e-06	-5.926000e-10	-7.854059e+00	-4.526129e+01
1.610000e-06	-1.082579e-06	-5.782159e-10	-7.535082e+00	-4.430286e+01
1.620000e-06	-1.036646e-06	-5.606613e-10	-7.215371e+00	-4.332604e+01
1.630000e-06	-9.906380e-07	-5.446034e-10	-6.895143e+00	-4.233010e+01
1.640000e-06	-9.445648e-07	-5.294649e-10	-6.574459e+00	-4.131433e+01
1.650000e-06	-8.983397e-07	-5.125821e-10	-6.252718e+00	-4.027805e+01
1.660000e-06	-8.520765e-07	-4.949834e-10	-5.930712e+00	-3.922060e+01
1.670000e-06	-8.058134e-07	-4.780898e-10	-5.608707e+00	-3.814134e+01
1.680000e-06	-7.595379e-07	-4.620914e-10	-5.286615e+00	-3.703969e+01
1.690000e-06	-7.131570e-07	-4.462411e-10	-4.963790e+00	-3.591509e+01
1.700000e-06	-6.666121e-07	-4.311392e-10	-4.639824e+00	-3.476706e+01
1.710000e-06	-6.201114e-07	-4.137293e-10	-4.316164e+00	-3.359514e+01
1.720000e-06	-5.736013e-07	-3.955918e-10	-3.992440e+00	-3.239896e+01
1.730000e-06	-5.270412e-07	-3.764982e-10	-3.668367e+00	-3.117818e+01
1.740000e-06	-4.804572e-07	-3.567117e-10	-3.344129e+00	-2.993256e+01
1.750000e-06	-4.337974e-07	-3.348927e-10	-3.019362e+00	-2.866191e+01
1.760000e-06	-3.871491e-07	-3.135979e-10	-2.694676e+00	-2.736612e+01
1.770000e-06	-3.404403e-07	-2.958644e-10	-2.369568e+00	-2.604517e+01
1.780000e-06	-2.937127e-07	-2.789843e-10	-2.044330e+00	-2.469911e+01
1.790000e-06	-2.470082e-07	-2.619251e-10	-1.719253e+00	-2.332807e+01
1.800000e-06	-2.002154e-07	-2.447646e-10	-1.393560e+00	-2.193229e+01
1.810000e-06	-1.534067e-07	-2.224458e-10	-1.067757e+00	-2.051206e+01
1.820000e-06	-1.066576e-07	-1.995032e-10	-7.423694e-01	-1.906779e+01
1.830000e-06	-5.992789e-08	-1.767069e-10	-4.171164e-01	-1.759996e+01
1.840000e-06	-1.322474e-08	-1.546602e-10	-9.204825e-02	-1.610916e+01
1.850000e-06	3.349777e-08	-1.329701e-10	2.331547e-01	-1.459605e+01
1.860000e-06	8.020025e-08	-1.132661e-10	5.582182e-01	-1.306138e+01
1.870000e-06	1.268862e-07	-9.123364e-11	8.831666e-01	-1.150598e+01
1.880000e-06	1.736329e-07	-6.872426e-11	1.208538e+00	-9.930773e+00
1.890000e-06	2.203862e-07	-4.975961e-11	1.533955e+00	-8.336763e+00
1.900000e-06	2.671272e-07	-3.113516e-11	1.859287e+00	-6.725024e+00
1.910000e-06	3.137988e-07	-1.035012e-11	2.184135e+00	-5.096705e+00
1.920000e-06	3.604043e-07	1.528725e-11	2.508524e+00	-3.453023e+00
1.930000e-06	4.070562e-07	4.508029e-11	2.833235e+00	-1.795261e+00
1.940000e-06	4.537296e-07	7.209198e-11	3.158096e+00	-1.247606e-01
1.950000e-06	5.003473e-07	9.585244e-11	3.482570e+00	1.557085e+00
1.960000e-06	5.469719e-07	1.170950e-10	3.807091e+00	3.248832e+00
1.970000e-06	5.934385e-07	1.358893e-10	4.130513e+00	4.948996e+00
1.980000e-06	6.398092e-07	1.560199e-10	4.453267e+00	6.656058e+00
1.990000e-06	6.862002e-07	1.768446e-10	4.776163e+00	8.368470e+00
2.000000e-06	7.324367e-07	2.006512e-10	5.097983e+00	1.008466e+01
2.010000e-06	7.786000e-07	2.278146e-10	5.419294e+00	1.180304e+01
2.020000e-06	8.247550e-07	2.536022e-10	5.740547e+00	1.352202e+01
2.030000e-06	8.708953e-07	2.791141e-10	6.061697e+00	1.524000e+01
2.040000e-06	9.169521e-07	3.049979e-10	6.382267e+00	1.695540e+01
2.050000e-06	9.629505e-07	3.277688e-10	6.702429e+00	1.866662e+01
2.060000e-06	1.008982e-06	3.513313e-10	7.022822e+00	2.037212e+01
2.070000e-06	1.054982e-06	3.732427e-10	7.342997e+00	2.207036e+01
2.080000e-06	1.100842e-06	3.943179e-10	7.662196e+00	2.375984e+01
2.090000e-06	1.146584e-06	4.160064e-10	7.980571e+00	2.543910e+01
2.100000e-06	1.192222e-06	4.405412e-10	8.298228e+00	2.710671e+01
2.110000e-06	1.237792e-06	4.659650e-10	8.615411e+00	2.876130e+01
2.120000e-06	1.283292e-06	4.901661e-10	8.932101e+00	3.040157e+01
2.130000e-06	1.328651e-06	5.127433e-10	9.247815e+00	3.202626e+01
2.140000e-06	1.373991e-06	5.340149e-10	9.563398e+00	3.363417e+01
2.150000e-06	1.419210e-06	5.527892e-10	9.878136e+00	3.522419e+01
2.160000e-06	1.464244e-06	5.694238e-10	1.019158e+01	3.679525e+01
2.170000e-06	1.509172e-06	5.883108e-10	1.050430e+01	3.834640e+01
2.180000e-06	1.553967e-06	6.093152e-10	1.081608e+01	3.987672e+01
2.190000e-06	1.598821e-06	6.312013e-10	1.112828e+01	4.138539e+01
2.200000e-06	1.643564e-06	6.549367e-10	1.143970e+01	4.287168e+01
2.210000e-06	1.687985e-06	6.761508e-10	1.174889e+01	4.433493e+01
2.220000e-06	1.732380e-06	6.910283e-10	1.205789e+01	4.577457e+01
2.230000e-06	1.776722e-06	7.038451e-10	1.236653e+01	4.719009e+01
2.240000e-06	1.820903e-06	7.192817e-10	1.267404e+01	4.858109e+01
2.250000e-06	1.864900e-06	7.392869e-10	1.298028e+01	4.994724e+01
2.260000e-06	1.908763e-06	7.607550e-10	1.328557e+01	5.128830e+01
2.270000e-06	1.952543e-06	7.804297e-10	1.359029e+01	5.260407e+01
2.280000e-06	1.996253e-06	7.986939e-10	1.389453e+01	5.389447e+01
2.290000e-06	2.039942e-06	8.125552e-10	1.419862e+01	5.515948e+01
2.300000e-06	2.083553e-06	8.237485e-10	1.450216e+01	5.639913e+01
2.310000e-06	2.127144e-06	8.359663e-10	1.480557e+01	5.761354e+01
2.320000e-06	2.170670e-06	8.518553e-10	1.510853e+01	5.880287e+01
2.330000e-06	2.214045e-06	8.716179e-10	1.541043e+01	5.996737e+01
2.340000e-06	2.257281e-06	8.919097e-10	1.571137e+01	6.110731e+01
2.350000e-06	2.300421e-06	9.087507e-10	1.601163e+01	6.222304e+01
2.360000e-06	2.343411e-06	9.210971e-10	1.631085e+01	6.331493e+01
2.370000e-06	2.386061e-06	9.327838e-10	1.660771e+01	6.438340e+01
2.380000e-06	2.428378e-06	9.434905e-10	1.690225e+01	6.542891e+01
2.390000e-06	2.470434e-06	9.557705e-10	1.719498e+01	6.645196e+01
2.400000e-06	2.512152e-06	9.686728e-10	1.748534e+01	6.745304e+01
2.410000e-06	2.553541e-06	9.828413e-10	1.777342e+01	6.843270e+01
2.420000e-06	2.594613e-06	9.969564e-10	1.805930e+01	6.939150e+01
2.430000e-06	2.635343e-06	1.010554e-09	1.834279e+01	7.032999e+01
2.440000e-06	2.675795e-06	1.023763e-09	1.862435e+01	7.124874e+01
2.450000e-06	2.716005e-06	1.035984e-09	1.890422e+01	7.214834e+01
2.460000e-06	2.756049e-06	1.048524e-09	1.918294e+01	7.302934e+01
2.470000e-06	2.795965e-06	1.060842e-09	1.946077e+01	7.389234e+01
2.480000e-06	2.835711e-06	1.072651e-09	1.973741e+01	7.473787e+01
2.490000e-06	2.875308e-06	1.082249e-09	2.001302e+01	7.556650e+01
2.500000e-06	2.914822e-06	1.091509e-09	2.028805e+01	7.637874e+01
2.510000e-06	2.954231e-06	1.103703e-09	2.056235e+01	7.717513e+01
2.520000e-06	2.993442e-06	1.117370e-09	2.083527e+01	7.795615e+01
2.530000e-06	3.032477e-06	1.131874e-09	2.110697e+01	7.872227e+01
2.540000e-06	3.071357e-06	1.145372e-09	2.137758e+01	7.947395e+01
2.550000e-06	3.109970e-06	1.155319e-09	2.164634e+01	8.021159e+01
2.560000e-06	3.148280e-06	1.162196e-09	2.191299e+01	8.093560e+01
2.570000e-06	3.186378e-06	1.167586e-09	2.217816e+01	8.164633e+01
2.580000e-06	3.224253e-06	1.175075e-09	2.244178e+01	8.234413e+01
2.590000e-06	3.261950e-06	1.186743e-09	2.270416e+01	8.302930e+01
2.600000e-06	3.299465e-06	1.200021e-09	2.296529e+01	8.370212e+01
2.610000e-06	3.336749e-06	1.210562e-09	2.322479e+01	8.436284e+01
2.620000e-06	3.373808e-06	1.218842e-09	2.348273e+01	8.501168e+01
2.630000e-06	3.410667e-06	1.225059e-09	2.373928e+01	8.564883e+01
2.640000e-06	3.447276e-06	1.229719e-09	2.399409e+01	8.627446e+01
2.650000e-06	3.483522e-06	1.238499e-09	2.424638e+01	8.688872e+01
2.660000e-06	3.519541e-06	1.252070e-09	2.449708e+01	8.749172e+01
2.670000e-06	3.555369e-06	1.262678e-09	2.474645e+01	8.808357e+01
2.680000e-06	3.591006e-06	1.270753e-09	2.499450e+01	8.866434e+01
2.690000e-06	3.626591e-06	1.275375e-09	2.524218e+01	8.923411e+01
2.700000e-06	3.662149e-06	1.277390e-09	2.548967e+01	8.979290e+01
2.710000e-06	3.697525e-06	1.282904e-09	2.573590e+01	9.034077e+01
2.720000e-06	3.732622e-06	1.293061e-09	2.598019e+01	9.087773e+01
2.730000e-06	3.767475e-06	1.305574e-09	2.622278e+01	9.140380e+01
2.740000e-06	3.801919e-06	1.316039e-09	2.646251e+01	9.191899e+01
2.750000e-06	3.835824e-06	1.321259e-09	2.669850e+01	9.242330e+01
2.760000e-06	3.869200e-06	1.324501e-09	2.693081e+01	9.291675e+01
2.770000e-06	3.902138e-06	1.326826e-09	2.716007e+01	9.339933e+01
2.780000e-06	3.934599e-06	1.329269e-09	2.738601e+01	9.387105e+01
2.790000e-06	3.966670e-06	1.335439e-09	2.760924e+01	9.433192e+01
2.800000e-06	3.998528e-06	1.342301e-09	2.783097e+01	9.478197e+01
2.810000e-06	4.030246e-06	1.347206e-09	2.805174e+01	9.522122e+01
2.820000e-06	4.061861e-06	1.351802e-09	2.827179e+01	9.564971e+01
2.830000e-06	4.093323e-06	1.359377e-09	2.849077e+01	9.606749e+01
2.840000e-06	4.124595e-06	1.367448e-09	2.870844e+01	9.647461e+01
2.850000e-06	4.155573e-06	1.372493e-09	2.892406e+01	9.687116e+01
2.860000e-06	4.186271e-06	1.378073e-09	2.913772e+01	9.725723e+01
2.870000e-06	4.216598e-06	1.384242e-09	2.934880e+01	9.763291e+01
2.880000e-06	4.246527e-06	1.387949e-09	2.955712e+01	9.799833e+01
2.890000e-06	4.276182e-06	1.389441e-09	2.976353e+01	9.835362e+01
2.900000e-06	4.305598e-06	1.392417e-09	2.996827e+01	9.869894e+01
