# Temperatura_=_-1.4
# Concentracion g/m^3_=_1620.0
# C_Vs_to_Am_M_A/Vsm_=_65563218390.804596
# pendiente_HvsI_1/m_=_3716.3
# ordenada_HvsI_A/m_=_1297.0
# frecuencia_Hz_=_135100.74528106698

Tiempo_(s)	Campo_(V.s)	Magnetizacion_(V.s)	Campo_(kA/m)	Magnetizacion_(A/m)
0.000000e+00	-5.534332e-06	-1.020065e-09	-3.837254e+01	-6.716209e+01
1.000000e-08	-5.534572e-06	-1.016000e-09	-3.837420e+01	-6.714290e+01
2.000000e-08	-5.534489e-06	-1.014169e-09	-3.837362e+01	-6.712426e+01
3.000000e-08	-5.534077e-06	-1.014803e-09	-3.837077e+01	-6.710589e+01
4.000000e-08	-5.533229e-06	-1.017184e-09	-3.836489e+01	-6.708747e+01
5.000000e-08	-5.531749e-06	-1.018273e-09	-3.835463e+01	-6.706869e+01
6.000000e-08	-5.529646e-06	-1.015052e-09	-3.834005e+01	-6.704922e+01
7.000000e-08	-5.526961e-06	-1.011950e-09	-3.832143e+01	-6.702872e+01
8.000000e-08	-5.523741e-06	-1.010869e-09	-3.829910e+01	-6.700685e+01
9.000000e-08	-5.520139e-06	-1.024770e-09	-3.827413e+01	-6.698326e+01
1.000000e-07	-5.516116e-06	-1.040189e-09	-3.824624e+01	-6.695762e+01
1.100000e-07	-5.511692e-06	-1.033450e-09	-3.821556e+01	-6.692959e+01
1.200000e-07	-5.507068e-06	-9.953053e-10	-3.818350e+01	-6.689884e+01
1.300000e-07	-5.502244e-06	-9.955928e-10	-3.815005e+01	-6.686507e+01
1.400000e-07	-5.497054e-06	-1.029467e-09	-3.811406e+01	-6.682797e+01
1.500000e-07	-5.491458e-06	-1.039404e-09	-3.807527e+01	-6.678728e+01
1.600000e-07	-5.485535e-06	-1.001342e-09	-3.803420e+01	-6.674273e+01
1.700000e-07	-5.479263e-06	-9.933679e-10	-3.799071e+01	-6.669410e+01
1.800000e-07	-5.472512e-06	-1.011823e-09	-3.794391e+01	-6.664118e+01
1.900000e-07	-5.465347e-06	-1.035547e-09	-3.789423e+01	-6.658380e+01
2.000000e-07	-5.457843e-06	-1.013375e-09	-3.784220e+01	-6.652181e+01
2.100000e-07	-5.450076e-06	-1.023216e-09	-3.778834e+01	-6.645509e+01
2.200000e-07	-5.442139e-06	-1.044354e-09	-3.773331e+01	-6.638357e+01
2.300000e-07	-5.433972e-06	-1.051094e-09	-3.767669e+01	-6.630719e+01
2.400000e-07	-5.425406e-06	-1.027022e-09	-3.761729e+01	-6.622594e+01
2.500000e-07	-5.416144e-06	-1.011206e-09	-3.755308e+01	-6.613984e+01
2.600000e-07	-5.406007e-06	-1.017363e-09	-3.748279e+01	-6.604894e+01
2.700000e-07	-5.395252e-06	-1.024214e-09	-3.740822e+01	-6.595331e+01
2.800000e-07	-5.384119e-06	-1.008094e-09	-3.733103e+01	-6.585308e+01
2.900000e-07	-5.372493e-06	-9.940206e-10	-3.725042e+01	-6.574838e+01
3.000000e-07	-5.360530e-06	-1.005112e-09	-3.716747e+01	-6.563939e+01
3.100000e-07	-5.348316e-06	-9.941560e-10	-3.708279e+01	-6.552630e+01
3.200000e-07	-5.335631e-06	-9.788209e-10	-3.699483e+01	-6.540932e+01
3.300000e-07	-5.322450e-06	-9.705961e-10	-3.690344e+01	-6.528871e+01
3.400000e-07	-5.308887e-06	-9.961231e-10	-3.680940e+01	-6.516470e+01
3.500000e-07	-5.294925e-06	-9.829543e-10	-3.671260e+01	-6.503759e+01
3.600000e-07	-5.280503e-06	-9.765357e-10	-3.661260e+01	-6.490765e+01
3.700000e-07	-5.265690e-06	-9.797970e-10	-3.650989e+01	-6.477518e+01
3.800000e-07	-5.250385e-06	-9.914079e-10	-3.640378e+01	-6.464047e+01
3.900000e-07	-5.234392e-06	-9.643592e-10	-3.629289e+01	-6.450383e+01
4.000000e-07	-5.217924e-06	-9.612430e-10	-3.617871e+01	-6.436556e+01
4.100000e-07	-5.201221e-06	-9.854412e-10	-3.606289e+01	-6.422596e+01
4.200000e-07	-5.184300e-06	-9.879749e-10	-3.594557e+01	-6.408531e+01
4.300000e-07	-5.167026e-06	-9.580961e-10	-3.582580e+01	-6.394389e+01
4.400000e-07	-5.149429e-06	-9.730499e-10	-3.570379e+01	-6.380196e+01
4.500000e-07	-5.131527e-06	-9.902779e-10	-3.557967e+01	-6.365979e+01
4.600000e-07	-5.113098e-06	-9.659168e-10	-3.545189e+01	-6.351759e+01
4.700000e-07	-5.094194e-06	-9.506914e-10	-3.532082e+01	-6.337558e+01
4.800000e-07	-5.074970e-06	-9.823535e-10	-3.518753e+01	-6.323394e+01
4.900000e-07	-5.055465e-06	-9.779725e-10	-3.505229e+01	-6.309282e+01
5.000000e-07	-5.035751e-06	-9.537515e-10	-3.491561e+01	-6.295238e+01
5.100000e-07	-5.015858e-06	-9.680325e-10	-3.477768e+01	-6.281269e+01
5.200000e-07	-4.995689e-06	-9.777880e-10	-3.463783e+01	-6.267386e+01
5.300000e-07	-4.975137e-06	-9.516012e-10	-3.449534e+01	-6.253591e+01
5.400000e-07	-4.954165e-06	-9.515270e-10	-3.434992e+01	-6.239886e+01
5.500000e-07	-4.932851e-06	-9.689467e-10	-3.420214e+01	-6.226270e+01
5.600000e-07	-4.911251e-06	-9.491868e-10	-3.405237e+01	-6.212738e+01
5.700000e-07	-4.889309e-06	-9.366552e-10	-3.390024e+01	-6.199283e+01
5.800000e-07	-4.867016e-06	-9.537817e-10	-3.374567e+01	-6.185894e+01
5.900000e-07	-4.844313e-06	-9.506773e-10	-3.358826e+01	-6.172557e+01
6.000000e-07	-4.821233e-06	-9.320784e-10	-3.342823e+01	-6.159257e+01
6.100000e-07	-4.797907e-06	-9.442952e-10	-3.326650e+01	-6.145976e+01
6.200000e-07	-4.774318e-06	-9.469003e-10	-3.310295e+01	-6.132693e+01
6.300000e-07	-4.750486e-06	-9.340994e-10	-3.293770e+01	-6.119385e+01
6.400000e-07	-4.726505e-06	-9.353182e-10	-3.277143e+01	-6.106029e+01
6.500000e-07	-4.702176e-06	-9.430864e-10	-3.260274e+01	-6.092597e+01
6.600000e-07	-4.677294e-06	-9.285305e-10	-3.243023e+01	-6.079062e+01
6.700000e-07	-4.651909e-06	-9.273139e-10	-3.225421e+01	-6.065397e+01
6.800000e-07	-4.626071e-06	-9.313926e-10	-3.207507e+01	-6.051572e+01
6.900000e-07	-4.599715e-06	-9.249759e-10	-3.189233e+01	-6.037558e+01
7.000000e-07	-4.572769e-06	-9.186743e-10	-3.170550e+01	-6.023324e+01
7.100000e-07	-4.545454e-06	-9.261831e-10	-3.151611e+01	-6.008842e+01
7.200000e-07	-4.517938e-06	-9.198455e-10	-3.132532e+01	-5.994081e+01
7.300000e-07	-4.490245e-06	-9.154575e-10	-3.113331e+01	-5.979014e+01
7.400000e-07	-4.462400e-06	-9.165030e-10	-3.094025e+01	-5.963614e+01
7.500000e-07	-4.434331e-06	-9.097732e-10	-3.074563e+01	-5.947852e+01
7.600000e-07	-4.405991e-06	-9.001725e-10	-3.054913e+01	-5.931705e+01
7.700000e-07	-4.377325e-06	-9.044072e-10	-3.035038e+01	-5.915149e+01
7.800000e-07	-4.348348e-06	-9.017774e-10	-3.014946e+01	-5.898163e+01
7.900000e-07	-4.319072e-06	-8.933820e-10	-2.994648e+01	-5.880726e+01
8.000000e-07	-4.289440e-06	-8.936205e-10	-2.974102e+01	-5.862822e+01
8.100000e-07	-4.259446e-06	-8.913218e-10	-2.953306e+01	-5.844436e+01
8.200000e-07	-4.229132e-06	-8.761174e-10	-2.932287e+01	-5.825554e+01
8.300000e-07	-4.198512e-06	-8.706379e-10	-2.911057e+01	-5.806166e+01
8.400000e-07	-4.167676e-06	-8.742981e-10	-2.889676e+01	-5.786265e+01
8.500000e-07	-4.136616e-06	-8.682967e-10	-2.868141e+01	-5.765845e+01
8.600000e-07	-4.105261e-06	-8.632843e-10	-2.846401e+01	-5.744903e+01
8.700000e-07	-4.073726e-06	-8.637243e-10	-2.824536e+01	-5.723439e+01
8.800000e-07	-4.042035e-06	-8.585774e-10	-2.802563e+01	-5.701456e+01
8.900000e-07	-4.010174e-06	-8.487251e-10	-2.780472e+01	-5.678956e+01
9.000000e-07	-3.978122e-06	-8.454474e-10	-2.758249e+01	-5.655947e+01
9.100000e-07	-3.945725e-06	-8.379659e-10	-2.735786e+01	-5.632438e+01
9.200000e-07	-3.912911e-06	-8.295056e-10	-2.713034e+01	-5.608439e+01
9.300000e-07	-3.879655e-06	-8.277763e-10	-2.689976e+01	-5.583963e+01
9.400000e-07	-3.846072e-06	-8.311708e-10	-2.666691e+01	-5.559023e+01
9.500000e-07	-3.812126e-06	-8.252519e-10	-2.643154e+01	-5.533635e+01
9.600000e-07	-3.777564e-06	-8.202395e-10	-2.619190e+01	-5.507815e+01
9.700000e-07	-3.742599e-06	-8.162059e-10	-2.594948e+01	-5.481580e+01
9.800000e-07	-3.707388e-06	-8.092243e-10	-2.570534e+01	-5.454949e+01
9.900000e-07	-3.671898e-06	-8.000271e-10	-2.545926e+01	-5.427941e+01
1.000000e-06	-3.636266e-06	-7.975074e-10	-2.521221e+01	-5.400573e+01
1.010000e-06	-3.600564e-06	-7.943988e-10	-2.496467e+01	-5.372865e+01
1.020000e-06	-3.564747e-06	-7.914072e-10	-2.471633e+01	-5.344836e+01
1.030000e-06	-3.528751e-06	-7.900533e-10	-2.446675e+01	-5.316503e+01
1.040000e-06	-3.492514e-06	-7.875823e-10	-2.421550e+01	-5.287884e+01
1.050000e-06	-3.455930e-06	-7.811452e-10	-2.396184e+01	-5.258996e+01
1.060000e-06	-3.419088e-06	-7.764905e-10	-2.370640e+01	-5.229854e+01
1.070000e-06	-3.382016e-06	-7.707838e-10	-2.344936e+01	-5.200472e+01
1.080000e-06	-3.344664e-06	-7.625794e-10	-2.319037e+01	-5.170862e+01
1.090000e-06	-3.307114e-06	-7.556172e-10	-2.293002e+01	-5.141037e+01
1.100000e-06	-3.269366e-06	-7.511526e-10	-2.266830e+01	-5.111004e+01
1.110000e-06	-3.231379e-06	-7.452712e-10	-2.240491e+01	-5.080772e+01
1.120000e-06	-3.193091e-06	-7.405207e-10	-2.213944e+01	-5.050346e+01
1.130000e-06	-3.154546e-06	-7.393833e-10	-2.187218e+01	-5.019729e+01
1.140000e-06	-3.115758e-06	-7.366636e-10	-2.160325e+01	-4.988923e+01
1.150000e-06	-3.076745e-06	-7.316712e-10	-2.133274e+01	-4.957925e+01
1.160000e-06	-3.037551e-06	-7.262753e-10	-2.106099e+01	-4.926733e+01
1.170000e-06	-2.998119e-06	-7.200734e-10	-2.078759e+01	-4.895340e+01
1.180000e-06	-2.958590e-06	-7.111477e-10	-2.051351e+01	-4.863739e+01
1.190000e-06	-2.919015e-06	-7.056188e-10	-2.023912e+01	-4.831920e+01
1.200000e-06	-2.879300e-06	-7.021097e-10	-1.996375e+01	-4.799870e+01
1.210000e-06	-2.839436e-06	-6.984325e-10	-1.968735e+01	-4.767575e+01
1.220000e-06	-2.799428e-06	-6.941358e-10	-1.940995e+01	-4.735017e+01
1.230000e-06	-2.759289e-06	-6.923276e-10	-1.913165e+01	-4.702177e+01
1.240000e-06	-2.718905e-06	-6.862887e-10	-1.885165e+01	-4.669036e+01
1.250000e-06	-2.678253e-06	-6.794174e-10	-1.856979e+01	-4.635569e+01
1.260000e-06	-2.637473e-06	-6.752517e-10	-1.828704e+01	-4.601753e+01
1.270000e-06	-2.596431e-06	-6.702602e-10	-1.800247e+01	-4.567562e+01
1.280000e-06	-2.554977e-06	-6.632644e-10	-1.771505e+01	-4.532967e+01
1.290000e-06	-2.513172e-06	-6.588705e-10	-1.742519e+01	-4.497941e+01
1.300000e-06	-2.471016e-06	-6.547477e-10	-1.713290e+01	-4.462452e+01
1.310000e-06	-2.428553e-06	-6.486815e-10	-1.683848e+01	-4.426469e+01
1.320000e-06	-2.385860e-06	-6.413057e-10	-1.654247e+01	-4.389959e+01
1.330000e-06	-2.342996e-06	-6.330130e-10	-1.624527e+01	-4.352889e+01
1.340000e-06	-2.299964e-06	-6.235823e-10	-1.594691e+01	-4.315225e+01
1.350000e-06	-2.256770e-06	-6.167299e-10	-1.564742e+01	-4.276931e+01
1.360000e-06	-2.213387e-06	-6.136043e-10	-1.534662e+01	-4.237973e+01
1.370000e-06	-2.169858e-06	-6.109642e-10	-1.504480e+01	-4.198315e+01
1.380000e-06	-2.126247e-06	-6.062871e-10	-1.474243e+01	-4.157919e+01
1.390000e-06	-2.082539e-06	-5.987003e-10	-1.443938e+01	-4.116750e+01
1.400000e-06	-2.038749e-06	-5.890343e-10	-1.413575e+01	-4.074771e+01
1.410000e-06	-1.994878e-06	-5.799541e-10	-1.383157e+01	-4.031945e+01
1.420000e-06	-1.950939e-06	-5.722463e-10	-1.352692e+01	-3.988236e+01
1.430000e-06	-1.906927e-06	-5.659104e-10	-1.322176e+01	-3.943607e+01
1.440000e-06	-1.862801e-06	-5.604382e-10	-1.291581e+01	-3.898023e+01
1.450000e-06	-1.818486e-06	-5.554702e-10	-1.260855e+01	-3.851446e+01
1.460000e-06	-1.773987e-06	-5.484933e-10	-1.230002e+01	-3.803841e+01
1.470000e-06	-1.729380e-06	-5.385031e-10	-1.199073e+01	-3.755173e+01
1.480000e-06	-1.684676e-06	-5.278896e-10	-1.168078e+01	-3.705407e+01
1.490000e-06	-1.639807e-06	-5.179087e-10	-1.136968e+01	-3.654509e+01
1.500000e-06	-1.594722e-06	-5.086497e-10	-1.105707e+01	-3.602444e+01
1.510000e-06	-1.549539e-06	-4.996798e-10	-1.074380e+01	-3.549181e+01
1.520000e-06	-1.504332e-06	-4.924997e-10	-1.043035e+01	-3.494687e+01
1.530000e-06	-1.459029e-06	-4.861503e-10	-1.011625e+01	-3.438930e+01
1.540000e-06	-1.413593e-06	-4.809450e-10	-9.801211e+00	-3.381879e+01
1.550000e-06	-1.368015e-06	-4.736639e-10	-9.485195e+00	-3.323506e+01
1.560000e-06	-1.322306e-06	-4.639867e-10	-9.168265e+00	-3.263780e+01
1.570000e-06	-1.276520e-06	-4.535084e-10	-8.850806e+00	-3.202674e+01
1.580000e-06	-1.230655e-06	-4.413993e-10	-8.532799e+00	-3.140162e+01
1.590000e-06	-1.184673e-06	-4.271492e-10	-8.213980e+00	-3.076219e+01
1.600000e-06	-1.138637e-06	-4.149685e-10	-7.894788e+00	-3.010821e+01
1.610000e-06	-1.092545e-06	-4.048046e-10	-7.575211e+00	-2.943944e+01
1.620000e-06	-1.046349e-06	-3.942172e-10	-7.254908e+00	-2.875569e+01
1.630000e-06	-1.000070e-06	-3.831541e-10	-6.934031e+00	-2.805676e+01
1.640000e-06	-9.536974e-07	-3.718728e-10	-6.612503e+00	-2.734248e+01
1.650000e-06	-9.073197e-07	-3.600735e-10	-6.290941e+00	-2.661269e+01
1.660000e-06	-8.609440e-07	-3.485303e-10	-5.969394e+00	-2.586726e+01
1.670000e-06	-8.144737e-07	-3.363788e-10	-5.647189e+00	-2.510609e+01
1.680000e-06	-7.679414e-07	-3.227901e-10	-5.324556e+00	-2.432907e+01
1.690000e-06	-7.214245e-07	-3.092053e-10	-5.002029e+00	-2.353616e+01
1.700000e-06	-6.748621e-07	-2.970072e-10	-4.679186e+00	-2.272731e+01
1.710000e-06	-6.282280e-07	-2.849402e-10	-4.355847e+00	-2.190252e+01
1.720000e-06	-5.816127e-07	-2.729936e-10	-4.032637e+00	-2.106180e+01
1.730000e-06	-5.349661e-07	-2.616810e-10	-3.709211e+00	-2.020522e+01
1.740000e-06	-4.882224e-07	-2.489634e-10	-3.385112e+00	-1.933285e+01
1.750000e-06	-4.413896e-07	-2.342211e-10	-3.060394e+00	-1.844481e+01
1.760000e-06	-3.944808e-07	-2.194553e-10	-2.735150e+00	-1.754125e+01
1.770000e-06	-3.475675e-07	-2.054380e-10	-2.409874e+00	-1.662237e+01
1.780000e-06	-3.006136e-07	-1.897931e-10	-2.084318e+00	-1.568838e+01
1.790000e-06	-2.535684e-07	-1.755189e-10	-1.758128e+00	-1.473955e+01
1.800000e-06	-2.064669e-07	-1.638867e-10	-1.431548e+00	-1.377618e+01
1.810000e-06	-1.594248e-07	-1.517584e-10	-1.105379e+00	-1.279861e+01
1.820000e-06	-1.125333e-07	-1.387183e-10	-7.802546e-01	-1.180720e+01
1.830000e-06	-6.561072e-08	-1.252490e-10	-4.549148e-01	-1.080239e+01
1.840000e-06	-1.863863e-08	-1.093366e-10	-1.292318e-01	-9.784616e+00
1.850000e-06	2.828482e-08	-9.412448e-11	1.961141e-01	-8.754384e+00
1.860000e-06	7.519979e-08	-8.193781e-11	5.214011e-01	-7.712223e+00
1.870000e-06	1.220773e-07	-6.714385e-11	8.464281e-01	-6.658703e+00
1.880000e-06	1.689507e-07	-5.038527e-11	1.171427e+00	-5.594431e+00
1.890000e-06	2.158821e-07	-3.675732e-11	1.496828e+00	-4.520049e+00
1.900000e-06	2.628558e-07	-2.388374e-11	1.822522e+00	-3.436233e+00
1.910000e-06	3.097811e-07	-9.605882e-12	2.147881e+00	-2.343691e+00
1.920000e-06	3.566567e-07	5.533273e-12	2.472895e+00	-1.243163e+00
1.930000e-06	4.035328e-07	2.219851e-11	2.797913e+00	-1.354166e-01
1.940000e-06	4.502827e-07	4.051348e-11	3.122055e+00	9.787547e-01
1.950000e-06	4.969110e-07	5.878439e-11	3.445354e+00	2.098533e+00
1.960000e-06	5.435667e-07	7.477713e-11	3.768844e+00	3.223080e+00
1.970000e-06	5.903187e-07	8.855070e-11	4.093001e+00	4.351538e+00
1.980000e-06	6.370776e-07	1.027877e-10	4.417206e+00	5.483036e+00
1.990000e-06	6.837226e-07	1.174283e-10	4.740621e+00	6.616689e+00
2.000000e-06	7.302225e-07	1.318892e-10	5.063030e+00	7.751603e+00
2.010000e-06	7.767175e-07	1.494674e-10	5.385405e+00	8.886880e+00
2.020000e-06	8.231901e-07	1.667508e-10	5.707625e+00	1.002162e+01
2.030000e-06	8.695584e-07	1.848725e-10	6.029121e+00	1.115492e+01
2.040000e-06	9.157766e-07	2.054575e-10	6.349578e+00	1.228588e+01
2.050000e-06	9.619742e-07	2.228999e-10	6.669891e+00	1.341362e+01
2.060000e-06	1.008135e-06	2.377147e-10	6.989947e+00	1.453726e+01
2.070000e-06	1.054119e-06	2.520248e-10	7.308783e+00	1.565594e+01
2.080000e-06	1.100056e-06	2.661618e-10	7.627288e+00	1.676880e+01
2.090000e-06	1.145889e-06	2.811559e-10	7.945072e+00	1.787504e+01
2.100000e-06	1.191662e-06	2.998025e-10	8.262441e+00	1.897384e+01
2.110000e-06	1.237480e-06	3.192483e-10	8.580124e+00	2.006443e+01
2.120000e-06	1.283190e-06	3.360022e-10	8.897055e+00	2.114606e+01
2.130000e-06	1.328754e-06	3.509820e-10	9.212977e+00	2.221803e+01
2.140000e-06	1.374215e-06	3.648009e-10	9.528179e+00	2.327964e+01
2.150000e-06	1.419539e-06	3.762704e-10	9.842438e+00	2.433026e+01
2.160000e-06	1.464765e-06	3.868051e-10	1.015601e+01	2.536926e+01
2.170000e-06	1.509908e-06	3.997983e-10	1.046902e+01	2.639609e+01
2.180000e-06	1.555021e-06	4.144266e-10	1.078180e+01	2.741020e+01
2.190000e-06	1.600041e-06	4.300194e-10	1.109396e+01	2.841111e+01
2.200000e-06	1.644867e-06	4.471700e-10	1.140476e+01	2.939837e+01
2.210000e-06	1.689584e-06	4.622979e-10	1.171481e+01	3.037156e+01
2.220000e-06	1.734235e-06	4.732775e-10	1.202440e+01	3.133031e+01
2.230000e-06	1.778756e-06	4.833159e-10	1.233308e+01	3.227430e+01
2.240000e-06	1.823065e-06	4.950488e-10	1.264030e+01	3.320323e+01
2.250000e-06	1.867158e-06	5.076989e-10	1.294603e+01	3.411686e+01
2.260000e-06	1.911187e-06	5.223521e-10	1.325130e+01	3.501498e+01
2.270000e-06	1.955146e-06	5.379249e-10	1.355609e+01	3.589741e+01
2.280000e-06	1.999015e-06	5.520261e-10	1.386026e+01	3.676402e+01
2.290000e-06	2.042867e-06	5.653782e-10	1.416431e+01	3.761469e+01
2.300000e-06	2.086705e-06	5.763939e-10	1.446826e+01	3.844937e+01
2.310000e-06	2.130432e-06	5.841388e-10	1.477144e+01	3.926801e+01
2.320000e-06	2.174009e-06	5.930261e-10	1.507359e+01	4.007059e+01
2.330000e-06	2.217505e-06	6.051187e-10	1.537517e+01	4.085714e+01
2.340000e-06	2.260877e-06	6.170989e-10	1.567589e+01	4.162768e+01
2.350000e-06	2.304092e-06	6.291701e-10	1.597553e+01	4.238229e+01
2.360000e-06	2.347187e-06	6.395506e-10	1.627432e+01	4.312103e+01
2.370000e-06	2.390035e-06	6.488632e-10	1.657141e+01	4.384401e+01
2.380000e-06	2.432628e-06	6.582312e-10	1.686673e+01	4.455135e+01
2.390000e-06	2.475051e-06	6.681082e-10	1.716087e+01	4.524315e+01
2.400000e-06	2.517242e-06	6.786451e-10	1.745341e+01	4.591957e+01
2.410000e-06	2.559028e-06	6.875574e-10	1.774314e+01	4.658075e+01
2.420000e-06	2.600313e-06	6.948541e-10	1.802939e+01	4.722684e+01
2.430000e-06	2.641209e-06	7.012512e-10	1.831294e+01	4.785800e+01
2.440000e-06	2.681861e-06	7.078071e-10	1.859480e+01	4.847439e+01
2.450000e-06	2.722411e-06	7.154651e-10	1.887595e+01	4.907618e+01
2.460000e-06	2.762778e-06	7.251477e-10	1.915585e+01	4.966354e+01
2.470000e-06	2.802887e-06	7.369236e-10	1.943394e+01	5.023663e+01
2.480000e-06	2.842801e-06	7.473238e-10	1.971069e+01	5.079563e+01
2.490000e-06	2.882587e-06	7.551616e-10	1.998654e+01	5.134069e+01
2.500000e-06	2.922294e-06	7.590640e-10	2.026185e+01	5.187198e+01
2.510000e-06	2.961874e-06	7.616008e-10	2.053628e+01	5.238967e+01
2.520000e-06	3.001319e-06	7.662901e-10	2.080978e+01	5.289391e+01
2.530000e-06	3.040533e-06	7.740672e-10	2.108167e+01	5.338488e+01
2.540000e-06	3.079479e-06	7.861821e-10	2.135171e+01	5.386272e+01
2.550000e-06	3.118170e-06	7.991633e-10	2.161997e+01	5.432759e+01
2.560000e-06	3.156521e-06	8.083594e-10	2.188588e+01	5.477965e+01
2.570000e-06	3.194692e-06	8.114931e-10	2.215054e+01	5.521906e+01
2.580000e-06	3.232739e-06	8.134801e-10	2.241434e+01	5.564598e+01
2.590000e-06	3.270592e-06	8.189100e-10	2.267679e+01	5.606057e+01
2.600000e-06	3.308230e-06	8.255119e-10	2.293776e+01	5.646300e+01
2.610000e-06	3.345648e-06	8.326072e-10	2.319720e+01	5.685343e+01
2.620000e-06	3.382923e-06	8.409134e-10	2.345565e+01	5.723205e+01
2.630000e-06	3.419987e-06	8.496505e-10	2.371263e+01	5.759902e+01
2.640000e-06	3.456741e-06	8.547256e-10	2.396747e+01	5.795454e+01
2.650000e-06	3.493186e-06	8.570229e-10	2.422016e+01	5.829881e+01
2.660000e-06	3.529360e-06	8.611510e-10	2.447097e+01	5.863204e+01
2.670000e-06	3.565346e-06	8.654071e-10	2.472049e+01	5.895443e+01
2.680000e-06	3.601179e-06	8.694986e-10	2.496893e+01	5.926622e+01
2.690000e-06	3.636866e-06	8.719546e-10	2.521637e+01	5.956764e+01
2.700000e-06	3.672414e-06	8.736452e-10	2.546285e+01	5.985896e+01
2.710000e-06	3.707822e-06	8.794830e-10	2.570835e+01	6.014042e+01
2.720000e-06	3.743090e-06	8.886118e-10	2.595288e+01	6.041232e+01
2.730000e-06	3.778118e-06	8.946493e-10	2.619575e+01	6.067493e+01
2.740000e-06	3.812817e-06	8.978338e-10	2.643634e+01	6.092855e+01
2.750000e-06	3.847022e-06	8.979094e-10	2.667349e+01	6.117351e+01
2.760000e-06	3.880661e-06	8.965656e-10	2.690673e+01	6.141012e+01
2.770000e-06	3.913853e-06	8.983576e-10	2.713688e+01	6.163871e+01
2.780000e-06	3.946596e-06	9.012097e-10	2.736390e+01	6.185964e+01
2.790000e-06	3.978942e-06	9.088008e-10	2.758817e+01	6.207325e+01
2.800000e-06	4.011025e-06	9.151499e-10	2.781062e+01	6.227990e+01
2.810000e-06	4.042930e-06	9.164788e-10	2.803183e+01	6.247995e+01
2.820000e-06	4.074693e-06	9.171063e-10	2.825207e+01	6.267377e+01
2.830000e-06	4.106283e-06	9.184351e-10	2.847110e+01	6.286173e+01
2.840000e-06	4.137579e-06	9.211991e-10	2.868809e+01	6.304419e+01
2.850000e-06	4.168635e-06	9.233090e-10	2.890341e+01	6.322153e+01
2.860000e-06	4.199487e-06	9.269872e-10	2.911733e+01	6.339409e+01
2.870000e-06	4.229939e-06	9.309233e-10	2.932847e+01	6.356225e+01
2.880000e-06	4.260001e-06	9.328351e-10	2.953691e+01	6.372633e+01
2.890000e-06	4.289776e-06	9.324634e-10	2.974335e+01	6.388668e+01
2.900000e-06	4.319312e-06	9.324828e-10	2.994814e+01	6.404361e+01
