# Temperatura_=_-1.4
# Concentracion g/m^3_=_1620.0
# C_Vs_to_Am_M_A/Vsm_=_65563218390.804596
# pendiente_HvsI_1/m_=_3716.3
# ordenada_HvsI_A/m_=_1297.0
# frecuencia_Hz_=_135101.48703315342

Tiempo_(s)	Campo_(V.s)	Magnetizacion_(V.s)	Campo_(kA/m)	Magnetizacion_(A/m)
0.000000e+00	-5.518795e-06	-1.002264e-09	-3.838124e+01	-6.609626e+01
1.000000e-08	-5.518983e-06	-9.972273e-10	-3.838255e+01	-6.608727e+01
2.000000e-08	-5.518997e-06	-9.916676e-10	-3.838265e+01	-6.607827e+01
3.000000e-08	-5.518667e-06	-9.886391e-10	-3.838035e+01	-6.606887e+01
4.000000e-08	-5.517936e-06	-9.875030e-10	-3.837527e+01	-6.605869e+01
5.000000e-08	-5.516722e-06	-9.879148e-10	-3.836683e+01	-6.604736e+01
6.000000e-08	-5.514860e-06	-9.883966e-10	-3.835388e+01	-6.603447e+01
7.000000e-08	-5.512359e-06	-9.924990e-10	-3.833648e+01	-6.601963e+01
8.000000e-08	-5.509293e-06	-1.007887e-09	-3.831516e+01	-6.600244e+01
9.000000e-08	-5.505761e-06	-9.986026e-10	-3.829060e+01	-6.598251e+01
1.000000e-07	-5.501775e-06	-9.565668e-10	-3.826287e+01	-6.595947e+01
1.100000e-07	-5.497392e-06	-9.704414e-10	-3.823239e+01	-6.593296e+01
1.200000e-07	-5.492832e-06	-1.009013e-09	-3.820068e+01	-6.590261e+01
1.300000e-07	-5.488126e-06	-1.015376e-09	-3.816795e+01	-6.586811e+01
1.400000e-07	-5.483112e-06	-9.691001e-10	-3.813308e+01	-6.582915e+01
1.500000e-07	-5.477716e-06	-9.538411e-10	-3.809555e+01	-6.578545e+01
1.600000e-07	-5.471925e-06	-9.996040e-10	-3.805528e+01	-6.573676e+01
1.700000e-07	-5.465730e-06	-9.904540e-10	-3.801220e+01	-6.568286e+01
1.800000e-07	-5.459103e-06	-9.697968e-10	-3.796611e+01	-6.562355e+01
1.900000e-07	-5.452036e-06	-9.534640e-10	-3.791696e+01	-6.555870e+01
2.000000e-07	-5.444617e-06	-9.928550e-10	-3.786536e+01	-6.548819e+01
2.100000e-07	-5.436920e-06	-9.885506e-10	-3.781184e+01	-6.541192e+01
2.200000e-07	-5.428988e-06	-9.900293e-10	-3.775667e+01	-6.532988e+01
2.300000e-07	-5.420796e-06	-9.763357e-10	-3.769969e+01	-6.524204e+01
2.400000e-07	-5.412192e-06	-9.872669e-10	-3.763986e+01	-6.514845e+01
2.500000e-07	-5.402963e-06	-9.731061e-10	-3.757567e+01	-6.504917e+01
2.600000e-07	-5.392999e-06	-9.657005e-10	-3.750638e+01	-6.494432e+01
2.700000e-07	-5.382429e-06	-9.541189e-10	-3.743287e+01	-6.483404e+01
2.800000e-07	-5.371470e-06	-9.383832e-10	-3.735665e+01	-6.471851e+01
2.900000e-07	-5.360098e-06	-9.322539e-10	-3.727756e+01	-6.459794e+01
3.000000e-07	-5.348280e-06	-9.373789e-10	-3.719537e+01	-6.447256e+01
3.100000e-07	-5.336061e-06	-9.376738e-10	-3.711039e+01	-6.434266e+01
3.200000e-07	-5.323400e-06	-9.138097e-10	-3.702234e+01	-6.420851e+01
3.300000e-07	-5.310368e-06	-9.272614e-10	-3.693171e+01	-6.407044e+01
3.400000e-07	-5.296983e-06	-9.234213e-10	-3.683862e+01	-6.392878e+01
3.500000e-07	-5.283184e-06	-9.060013e-10	-3.674265e+01	-6.378388e+01
3.600000e-07	-5.268960e-06	-8.942808e-10	-3.664373e+01	-6.363610e+01
3.700000e-07	-5.254382e-06	-9.149259e-10	-3.654234e+01	-6.348581e+01
3.800000e-07	-5.239267e-06	-8.970204e-10	-3.643722e+01	-6.333338e+01
3.900000e-07	-5.223454e-06	-9.088275e-10	-3.632726e+01	-6.317920e+01
4.000000e-07	-5.207265e-06	-9.240277e-10	-3.621467e+01	-6.302365e+01
4.100000e-07	-5.190729e-06	-9.121468e-10	-3.609966e+01	-6.286708e+01
4.200000e-07	-5.173748e-06	-8.870767e-10	-3.598157e+01	-6.270987e+01
4.300000e-07	-5.156489e-06	-9.276827e-10	-3.586153e+01	-6.255235e+01
4.400000e-07	-5.138930e-06	-9.221696e-10	-3.573942e+01	-6.239488e+01
4.500000e-07	-5.120995e-06	-8.791269e-10	-3.561469e+01	-6.223775e+01
4.600000e-07	-5.102648e-06	-8.879016e-10	-3.548709e+01	-6.208126e+01
4.700000e-07	-5.083842e-06	-9.286915e-10	-3.535630e+01	-6.192569e+01
4.800000e-07	-5.064657e-06	-8.886057e-10	-3.522288e+01	-6.177128e+01
4.900000e-07	-5.045173e-06	-8.789802e-10	-3.508737e+01	-6.161824e+01
5.000000e-07	-5.025450e-06	-9.227979e-10	-3.495021e+01	-6.146676e+01
5.100000e-07	-5.005596e-06	-9.080301e-10	-3.481213e+01	-6.131699e+01
5.200000e-07	-4.985542e-06	-8.622109e-10	-3.467266e+01	-6.116906e+01
5.300000e-07	-4.965148e-06	-8.973993e-10	-3.453082e+01	-6.102304e+01
5.400000e-07	-4.944297e-06	-9.100387e-10	-3.438582e+01	-6.087900e+01
5.500000e-07	-4.923034e-06	-8.660851e-10	-3.423794e+01	-6.073695e+01
5.600000e-07	-4.901471e-06	-8.777762e-10	-3.408798e+01	-6.059688e+01
5.700000e-07	-4.879556e-06	-9.085739e-10	-3.393557e+01	-6.045873e+01
5.800000e-07	-4.857322e-06	-8.780003e-10	-3.378094e+01	-6.032243e+01
5.900000e-07	-4.834725e-06	-8.712585e-10	-3.362378e+01	-6.018786e+01
6.000000e-07	-4.811773e-06	-9.082655e-10	-3.346416e+01	-6.005488e+01
6.100000e-07	-4.788579e-06	-8.904996e-10	-3.330285e+01	-5.992331e+01
6.200000e-07	-4.765087e-06	-8.690296e-10	-3.313947e+01	-5.979295e+01
6.300000e-07	-4.741354e-06	-8.904751e-10	-3.297442e+01	-5.966358e+01
6.400000e-07	-4.717428e-06	-8.933109e-10	-3.280802e+01	-5.953495e+01
6.500000e-07	-4.693229e-06	-8.633883e-10	-3.263973e+01	-5.940679e+01
6.600000e-07	-4.668640e-06	-8.755189e-10	-3.246872e+01	-5.927880e+01
6.700000e-07	-4.643512e-06	-8.795581e-10	-3.229396e+01	-5.915070e+01
6.800000e-07	-4.617929e-06	-8.584657e-10	-3.211604e+01	-5.902217e+01
6.900000e-07	-4.591837e-06	-8.559067e-10	-3.193459e+01	-5.889288e+01
7.000000e-07	-4.565166e-06	-8.750028e-10	-3.174909e+01	-5.876251e+01
7.100000e-07	-4.538052e-06	-8.626456e-10	-3.156053e+01	-5.863072e+01
7.200000e-07	-4.510603e-06	-8.577846e-10	-3.136963e+01	-5.849718e+01
7.300000e-07	-4.482974e-06	-8.667139e-10	-3.117748e+01	-5.836156e+01
7.400000e-07	-4.455209e-06	-8.659212e-10	-3.098438e+01	-5.822353e+01
7.500000e-07	-4.427276e-06	-8.493122e-10	-3.079012e+01	-5.808279e+01
7.600000e-07	-4.399090e-06	-8.526869e-10	-3.059409e+01	-5.793901e+01
7.700000e-07	-4.370601e-06	-8.523381e-10	-3.039597e+01	-5.779191e+01
7.800000e-07	-4.341789e-06	-8.434426e-10	-3.019559e+01	-5.764121e+01
7.900000e-07	-4.312600e-06	-8.416619e-10	-2.999259e+01	-5.748664e+01
8.000000e-07	-4.283076e-06	-8.466017e-10	-2.978726e+01	-5.732796e+01
8.100000e-07	-4.253235e-06	-8.348481e-10	-2.957973e+01	-5.716494e+01
8.200000e-07	-4.223083e-06	-8.261806e-10	-2.937003e+01	-5.699739e+01
8.300000e-07	-4.192644e-06	-8.268821e-10	-2.915834e+01	-5.682513e+01
8.400000e-07	-4.161939e-06	-8.197674e-10	-2.894479e+01	-5.664799e+01
8.500000e-07	-4.130925e-06	-8.105739e-10	-2.872910e+01	-5.646585e+01
8.600000e-07	-4.099639e-06	-8.133321e-10	-2.851153e+01	-5.627861e+01
8.700000e-07	-4.068179e-06	-8.141016e-10	-2.829273e+01	-5.608616e+01
8.800000e-07	-4.036554e-06	-8.052667e-10	-2.807279e+01	-5.588847e+01
8.900000e-07	-4.004752e-06	-8.065260e-10	-2.785162e+01	-5.568549e+01
9.000000e-07	-3.972725e-06	-8.070713e-10	-2.762888e+01	-5.547722e+01
9.100000e-07	-3.940451e-06	-7.978059e-10	-2.740443e+01	-5.526367e+01
9.200000e-07	-3.907838e-06	-7.893764e-10	-2.717762e+01	-5.504486e+01
9.300000e-07	-3.874792e-06	-7.895454e-10	-2.694779e+01	-5.482086e+01
9.400000e-07	-3.841238e-06	-7.830284e-10	-2.671444e+01	-5.459174e+01
9.500000e-07	-3.807231e-06	-7.781959e-10	-2.647793e+01	-5.435758e+01
9.600000e-07	-3.772796e-06	-7.787453e-10	-2.623844e+01	-5.411851e+01
9.700000e-07	-3.738050e-06	-7.763611e-10	-2.599680e+01	-5.387462e+01
9.800000e-07	-3.703019e-06	-7.653119e-10	-2.575317e+01	-5.362607e+01
9.900000e-07	-3.667646e-06	-7.640014e-10	-2.550717e+01	-5.337298e+01
1.000000e-06	-3.632125e-06	-7.611840e-10	-2.526013e+01	-5.311552e+01
1.010000e-06	-3.596481e-06	-7.549145e-10	-2.501224e+01	-5.285384e+01
1.020000e-06	-3.560671e-06	-7.532742e-10	-2.476319e+01	-5.258810e+01
1.030000e-06	-3.524705e-06	-7.562239e-10	-2.451307e+01	-5.231847e+01
1.040000e-06	-3.488545e-06	-7.482097e-10	-2.426158e+01	-5.204510e+01
1.050000e-06	-3.452131e-06	-7.435221e-10	-2.400834e+01	-5.176817e+01
1.060000e-06	-3.415403e-06	-7.418880e-10	-2.375290e+01	-5.148782e+01
1.070000e-06	-3.378365e-06	-7.355485e-10	-2.349532e+01	-5.120422e+01
1.080000e-06	-3.341079e-06	-7.255515e-10	-2.323601e+01	-5.091750e+01
1.090000e-06	-3.303558e-06	-7.240038e-10	-2.297507e+01	-5.062780e+01
1.100000e-06	-3.265878e-06	-7.227905e-10	-2.271301e+01	-5.033525e+01
1.110000e-06	-3.228007e-06	-7.164129e-10	-2.244964e+01	-5.003995e+01
1.120000e-06	-3.189925e-06	-7.138054e-10	-2.218479e+01	-4.974202e+01
1.130000e-06	-3.151651e-06	-7.142147e-10	-2.191860e+01	-4.944152e+01
1.140000e-06	-3.113113e-06	-7.093241e-10	-2.165059e+01	-4.913854e+01
1.150000e-06	-3.074281e-06	-7.030867e-10	-2.138052e+01	-4.883312e+01
1.160000e-06	-3.035279e-06	-7.004018e-10	-2.110928e+01	-4.852530e+01
1.170000e-06	-2.996096e-06	-6.959994e-10	-2.083677e+01	-4.821510e+01
1.180000e-06	-2.956677e-06	-6.908270e-10	-2.056263e+01	-4.790251e+01
1.190000e-06	-2.917187e-06	-6.893885e-10	-2.028799e+01	-4.758751e+01
1.200000e-06	-2.877642e-06	-6.879011e-10	-2.001297e+01	-4.727007e+01
1.210000e-06	-2.837946e-06	-6.806695e-10	-1.973690e+01	-4.695013e+01
1.220000e-06	-2.798051e-06	-6.746966e-10	-1.945945e+01	-4.662760e+01
1.230000e-06	-2.758002e-06	-6.684604e-10	-1.918092e+01	-4.630239e+01
1.240000e-06	-2.717813e-06	-6.608359e-10	-1.890142e+01	-4.597439e+01
1.250000e-06	-2.677442e-06	-6.544706e-10	-1.862065e+01	-4.564346e+01
1.260000e-06	-2.636841e-06	-6.524683e-10	-1.833829e+01	-4.530945e+01
1.270000e-06	-2.595943e-06	-6.469876e-10	-1.805385e+01	-4.497219e+01
1.280000e-06	-2.554697e-06	-6.398541e-10	-1.776701e+01	-4.463148e+01
1.290000e-06	-2.513163e-06	-6.339856e-10	-1.747815e+01	-4.428713e+01
1.300000e-06	-2.471375e-06	-6.275512e-10	-1.718753e+01	-4.393891e+01
1.310000e-06	-2.429286e-06	-6.178914e-10	-1.689481e+01	-4.358659e+01
1.320000e-06	-2.386939e-06	-6.124469e-10	-1.660031e+01	-4.322991e+01
1.330000e-06	-2.344410e-06	-6.109283e-10	-1.630453e+01	-4.286861e+01
1.340000e-06	-2.301609e-06	-6.078574e-10	-1.600687e+01	-4.250242e+01
1.350000e-06	-2.258514e-06	-6.017412e-10	-1.570715e+01	-4.213103e+01
1.360000e-06	-2.215242e-06	-5.955374e-10	-1.540621e+01	-4.175415e+01
1.370000e-06	-2.171807e-06	-5.866135e-10	-1.510414e+01	-4.137145e+01
1.380000e-06	-2.128269e-06	-5.754059e-10	-1.480135e+01	-4.098262e+01
1.390000e-06	-2.084608e-06	-5.661580e-10	-1.449770e+01	-4.058732e+01
1.400000e-06	-2.040819e-06	-5.608364e-10	-1.419317e+01	-4.018520e+01
1.410000e-06	-1.996968e-06	-5.570610e-10	-1.388820e+01	-3.977591e+01
1.420000e-06	-1.953026e-06	-5.536005e-10	-1.358260e+01	-3.935909e+01
1.430000e-06	-1.908965e-06	-5.474999e-10	-1.327617e+01	-3.893438e+01
1.440000e-06	-1.864860e-06	-5.388800e-10	-1.296943e+01	-3.850140e+01
1.450000e-06	-1.820669e-06	-5.290116e-10	-1.266210e+01	-3.805977e+01
1.460000e-06	-1.776413e-06	-5.180620e-10	-1.235431e+01	-3.760911e+01
1.470000e-06	-1.732080e-06	-5.078722e-10	-1.204600e+01	-3.714903e+01
1.480000e-06	-1.687573e-06	-4.984925e-10	-1.173647e+01	-3.667915e+01
1.490000e-06	-1.642939e-06	-4.927917e-10	-1.142605e+01	-3.619908e+01
1.500000e-06	-1.598171e-06	-4.890233e-10	-1.111471e+01	-3.570842e+01
1.510000e-06	-1.553253e-06	-4.840687e-10	-1.080232e+01	-3.520679e+01
1.520000e-06	-1.508192e-06	-4.774874e-10	-1.048894e+01	-3.469379e+01
1.530000e-06	-1.462990e-06	-4.679772e-10	-1.017457e+01	-3.416905e+01
1.540000e-06	-1.417649e-06	-4.571080e-10	-9.859242e+00	-3.363218e+01
1.550000e-06	-1.372239e-06	-4.481042e-10	-9.543433e+00	-3.308280e+01
1.560000e-06	-1.326746e-06	-4.377309e-10	-9.227043e+00	-3.252055e+01
1.570000e-06	-1.281155e-06	-4.270062e-10	-8.909977e+00	-3.194505e+01
1.580000e-06	-1.235531e-06	-4.186396e-10	-8.592673e+00	-3.135596e+01
1.590000e-06	-1.189788e-06	-4.090592e-10	-8.274550e+00	-3.075294e+01
1.600000e-06	-1.143911e-06	-3.987998e-10	-7.955494e+00	-3.013565e+01
1.610000e-06	-1.097986e-06	-3.902960e-10	-7.636099e+00	-2.950379e+01
1.620000e-06	-1.052026e-06	-3.797365e-10	-7.316465e+00	-2.885704e+01
1.630000e-06	-1.005998e-06	-3.688375e-10	-6.996357e+00	-2.819513e+01
1.640000e-06	-9.598596e-07	-3.611491e-10	-6.675480e+00	-2.751780e+01
1.650000e-06	-9.136641e-07	-3.543788e-10	-6.354207e+00	-2.682480e+01
1.660000e-06	-8.674553e-07	-3.435171e-10	-6.032841e+00	-2.611592e+01
1.670000e-06	-8.211810e-07	-3.305381e-10	-5.711020e+00	-2.539096e+01
1.680000e-06	-7.748211e-07	-3.184170e-10	-5.388604e+00	-2.464976e+01
1.690000e-06	-7.284371e-07	-3.076816e-10	-5.066019e+00	-2.389218e+01
1.700000e-06	-6.820449e-07	-2.981115e-10	-4.743378e+00	-2.311811e+01
1.710000e-06	-6.355625e-07	-2.891469e-10	-4.420109e+00	-2.232748e+01
1.720000e-06	-5.890195e-07	-2.797282e-10	-4.096420e+00	-2.152025e+01
1.730000e-06	-5.424906e-07	-2.675019e-10	-3.772828e+00	-2.069641e+01
1.740000e-06	-4.959168e-07	-2.526691e-10	-3.448924e+00	-1.985599e+01
1.750000e-06	-4.491876e-07	-2.358914e-10	-3.123939e+00	-1.899906e+01
1.760000e-06	-4.023293e-07	-2.203532e-10	-2.798056e+00	-1.812574e+01
1.770000e-06	-3.555424e-07	-2.080853e-10	-2.472670e+00	-1.723618e+01
1.780000e-06	-3.087975e-07	-1.961715e-10	-2.147576e+00	-1.633057e+01
1.790000e-06	-2.620236e-07	-1.870104e-10	-1.822280e+00	-1.540914e+01
1.800000e-06	-2.151808e-07	-1.799852e-10	-1.496506e+00	-1.447217e+01
1.810000e-06	-1.682707e-07	-1.698001e-10	-1.170262e+00	-1.351999e+01
1.820000e-06	-1.214423e-07	-1.528234e-10	-8.445881e-01	-1.255297e+01
1.830000e-06	-7.467477e-08	-1.356637e-10	-5.193363e-01	-1.157151e+01
1.840000e-06	-2.790284e-08	-1.190264e-10	-1.940542e-01	-1.057607e+01
1.850000e-06	1.892017e-08	-1.017153e-10	1.315830e-01	-9.567139e+00
1.860000e-06	6.577851e-08	-8.840894e-11	4.574660e-01	-8.545269e+00
1.870000e-06	1.125272e-07	-7.456236e-11	7.825864e-01	-7.511034e+00
1.880000e-06	1.592411e-07	-5.806336e-11	1.107465e+00	-6.465056e+00
1.890000e-06	2.060256e-07	-4.595906e-11	1.432835e+00	-5.407994e+00
1.900000e-06	2.528153e-07	-3.515277e-11	1.758240e+00	-4.340545e+00
1.910000e-06	2.996093e-07	-2.308162e-11	2.083675e+00	-3.263440e+00
1.920000e-06	3.463457e-07	-7.510931e-12	2.408710e+00	-2.177443e+00
1.930000e-06	3.930418e-07	1.165301e-11	2.733465e+00	-1.083347e+00
1.940000e-06	4.398796e-07	3.009196e-11	3.059205e+00	1.802551e-02
1.950000e-06	4.866338e-07	4.867912e-11	3.384364e+00	1.125828e+00
1.960000e-06	5.331736e-07	6.407694e-11	3.708032e+00	2.239192e+00
1.970000e-06	5.796706e-07	7.817847e-11	4.031401e+00	3.357229e+00
1.980000e-06	6.261335e-07	9.287277e-11	4.354535e+00	4.479038e+00
1.990000e-06	6.725602e-07	1.066226e-10	4.677416e+00	5.603702e+00
2.000000e-06	7.189214e-07	1.191038e-10	4.999841e+00	6.730297e+00
2.010000e-06	7.651904e-07	1.337078e-10	5.321625e+00	7.857894e+00
2.020000e-06	8.113843e-07	1.478301e-10	5.642887e+00	8.985561e+00
2.030000e-06	8.575564e-07	1.648965e-10	5.963998e+00	1.011237e+01
2.040000e-06	9.037318e-07	1.855824e-10	6.285131e+00	1.123739e+01
2.050000e-06	9.498320e-07	2.045165e-10	6.605741e+00	1.235972e+01
2.060000e-06	9.957585e-07	2.219334e-10	6.925144e+00	1.347844e+01
2.070000e-06	1.041579e-06	2.383686e-10	7.243808e+00	1.459267e+01
2.080000e-06	1.087385e-06	2.505385e-10	7.562372e+00	1.570153e+01
2.090000e-06	1.133195e-06	2.616859e-10	7.880965e+00	1.680419e+01
2.100000e-06	1.178977e-06	2.768616e-10	8.199365e+00	1.789981e+01
2.110000e-06	1.224678e-06	2.937317e-10	8.517198e+00	1.898761e+01
2.120000e-06	1.270258e-06	3.107564e-10	8.834187e+00	2.006680e+01
2.130000e-06	1.315683e-06	3.281876e-10	9.150107e+00	2.113667e+01
2.140000e-06	1.361063e-06	3.453104e-10	9.465707e+00	2.219651e+01
2.150000e-06	1.406472e-06	3.596798e-10	9.781513e+00	2.324564e+01
2.160000e-06	1.451779e-06	3.714383e-10	1.009661e+01	2.428346e+01
2.170000e-06	1.496838e-06	3.837581e-10	1.040997e+01	2.530937e+01
2.180000e-06	1.541662e-06	3.972214e-10	1.072171e+01	2.632281e+01
2.190000e-06	1.586411e-06	4.122470e-10	1.103292e+01	2.732329e+01
2.200000e-06	1.631109e-06	4.295972e-10	1.134378e+01	2.831034e+01
2.210000e-06	1.675696e-06	4.460078e-10	1.165386e+01	2.928353e+01
2.220000e-06	1.720153e-06	4.583663e-10	1.196305e+01	3.024248e+01
2.230000e-06	1.764490e-06	4.669772e-10	1.227140e+01	3.118685e+01
2.240000e-06	1.808709e-06	4.758690e-10	1.257893e+01	3.211633e+01
2.250000e-06	1.852818e-06	4.871708e-10	1.288569e+01	3.303066e+01
2.260000e-06	1.896843e-06	5.006474e-10	1.319187e+01	3.392962e+01
2.270000e-06	1.940787e-06	5.147559e-10	1.349748e+01	3.481303e+01
2.280000e-06	1.984674e-06	5.282329e-10	1.380270e+01	3.568072e+01
2.290000e-06	2.028534e-06	5.416230e-10	1.410773e+01	3.653259e+01
2.300000e-06	2.072376e-06	5.536942e-10	1.441263e+01	3.736856e+01
2.310000e-06	2.116107e-06	5.605891e-10	1.471677e+01	3.818857e+01
2.320000e-06	2.159718e-06	5.672533e-10	1.502006e+01	3.899259e+01
2.330000e-06	2.203208e-06	5.774305e-10	1.532252e+01	3.978064e+01
2.340000e-06	2.246526e-06	5.885065e-10	1.562378e+01	4.055274e+01
2.350000e-06	2.289720e-06	5.993561e-10	1.592418e+01	4.130895e+01
2.360000e-06	2.332726e-06	6.095272e-10	1.622327e+01	4.204934e+01
2.370000e-06	2.375442e-06	6.195150e-10	1.652035e+01	4.277399e+01
2.380000e-06	2.417837e-06	6.283396e-10	1.681519e+01	4.348302e+01
2.390000e-06	2.459810e-06	6.372609e-10	1.710710e+01	4.417654e+01
2.400000e-06	2.501461e-06	6.448711e-10	1.739677e+01	4.485470e+01
2.410000e-06	2.542818e-06	6.513477e-10	1.768439e+01	4.551764e+01
2.420000e-06	2.583911e-06	6.599938e-10	1.797018e+01	4.616551e+01
2.430000e-06	2.624793e-06	6.690320e-10	1.825450e+01	4.679848e+01
2.440000e-06	2.665339e-06	6.768172e-10	1.853648e+01	4.741670e+01
2.450000e-06	2.705650e-06	6.839233e-10	1.881683e+01	4.802036e+01
2.460000e-06	2.745826e-06	6.915986e-10	1.909624e+01	4.860964e+01
2.470000e-06	2.785828e-06	7.000222e-10	1.937443e+01	4.918469e+01
2.480000e-06	2.825653e-06	7.073513e-10	1.965141e+01	4.974572e+01
2.490000e-06	2.865437e-06	7.138052e-10	1.992809e+01	5.029289e+01
2.500000e-06	2.905200e-06	7.196641e-10	2.020462e+01	5.082640e+01
2.510000e-06	2.944784e-06	7.258850e-10	2.047992e+01	5.134641e+01
2.520000e-06	2.984096e-06	7.333795e-10	2.075332e+01	5.185311e+01
2.530000e-06	3.023215e-06	7.413867e-10	2.102538e+01	5.234669e+01
2.540000e-06	3.062153e-06	7.500088e-10	2.129617e+01	5.282732e+01
2.550000e-06	3.100855e-06	7.581682e-10	2.156533e+01	5.329518e+01
2.560000e-06	3.139299e-06	7.647484e-10	2.183270e+01	5.375046e+01
2.570000e-06	3.177522e-06	7.703364e-10	2.209853e+01	5.419333e+01
2.580000e-06	3.215572e-06	7.771893e-10	2.236316e+01	5.462399e+01
2.590000e-06	3.253401e-06	7.856896e-10	2.262624e+01	5.504263e+01
2.600000e-06	3.291125e-06	7.930513e-10	2.288860e+01	5.544942e+01
2.610000e-06	3.328683e-06	7.978106e-10	2.314980e+01	5.584457e+01
2.620000e-06	3.365896e-06	8.000443e-10	2.340860e+01	5.622828e+01
2.630000e-06	3.402838e-06	8.015430e-10	2.366552e+01	5.660074e+01
2.640000e-06	3.439465e-06	8.036120e-10	2.392025e+01	5.696217e+01
2.650000e-06	3.475811e-06	8.087831e-10	2.417302e+01	5.731278e+01
2.660000e-06	3.511964e-06	8.179723e-10	2.442445e+01	5.765280e+01
2.670000e-06	3.547940e-06	8.266516e-10	2.467465e+01	5.798246e+01
2.680000e-06	3.583852e-06	8.332333e-10	2.492441e+01	5.830200e+01
2.690000e-06	3.619665e-06	8.375313e-10	2.517347e+01	5.861166e+01
2.700000e-06	3.655336e-06	8.382522e-10	2.542155e+01	5.891169e+01
2.710000e-06	3.690865e-06	8.400120e-10	2.566865e+01	5.920237e+01
2.720000e-06	3.726165e-06	8.452614e-10	2.591414e+01	5.948397e+01
2.730000e-06	3.761086e-06	8.507570e-10	2.615701e+01	5.975676e+01
2.740000e-06	3.795508e-06	8.554910e-10	2.639640e+01	6.002103e+01
2.750000e-06	3.829376e-06	8.586816e-10	2.663194e+01	6.027707e+01
2.760000e-06	3.862718e-06	8.617656e-10	2.686382e+01	6.052519e+01
2.770000e-06	3.895633e-06	8.647466e-10	2.709273e+01	6.076570e+01
2.780000e-06	3.928212e-06	8.677278e-10	2.731931e+01	6.099889e+01
2.790000e-06	3.960490e-06	8.735167e-10	2.754379e+01	6.122510e+01
2.800000e-06	3.992514e-06	8.790187e-10	2.776651e+01	6.144462e+01
2.810000e-06	4.024371e-06	8.838269e-10	2.798806e+01	6.165778e+01
2.820000e-06	4.056099e-06	8.882334e-10	2.820872e+01	6.186489e+01
2.830000e-06	4.087685e-06	8.895041e-10	2.842839e+01	6.206626e+01
2.840000e-06	4.119027e-06	8.913762e-10	2.864636e+01	6.226220e+01
2.850000e-06	4.150053e-06	8.924643e-10	2.886213e+01	6.245300e+01
2.860000e-06	4.180808e-06	8.937877e-10	2.907602e+01	6.263897e+01
2.870000e-06	4.211249e-06	8.966126e-10	2.928773e+01	6.282037e+01
2.880000e-06	4.241358e-06	8.998597e-10	2.949713e+01	6.299749e+01
2.890000e-06	4.271141e-06	9.032896e-10	2.970426e+01	6.317057e+01
2.900000e-06	4.300591e-06	9.039411e-10	2.990907e+01	6.333987e+01
