# Temperatura_=_-15.62
# Concentracion g/m^3_=_1620.0
# C_Vs_to_Am_M_A/Vsm_=_65563218390.804596
# pendiente_HvsI_1/m_=_3716.3
# ordenada_HvsI_A/m_=_1297.0
# frecuencia_Hz_=_135100.72918841033

Tiempo_(s)	Campo_(V.s)	Magnetizacion_(V.s)	Campo_(kA/m)	Magnetizacion_(A/m)
0.000000e+00	-5.516884e-06	-8.022847e-10	-3.838242e+01	-5.207239e+01
1.000000e-08	-5.516922e-06	-8.003040e-10	-3.838268e+01	-5.209724e+01
2.000000e-08	-5.516689e-06	-8.002651e-10	-3.838107e+01	-5.212071e+01
3.000000e-08	-5.516068e-06	-8.022424e-10	-3.837675e+01	-5.214248e+01
4.000000e-08	-5.515044e-06	-8.044139e-10	-3.836962e+01	-5.216223e+01
5.000000e-08	-5.513507e-06	-8.037170e-10	-3.835892e+01	-5.217962e+01
6.000000e-08	-5.511386e-06	-8.067414e-10	-3.834417e+01	-5.219437e+01
7.000000e-08	-5.508665e-06	-8.209528e-10	-3.832524e+01	-5.220617e+01
8.000000e-08	-5.505436e-06	-7.959645e-10	-3.830277e+01	-5.221475e+01
9.000000e-08	-5.501646e-06	-7.281604e-10	-3.827641e+01	-5.221986e+01
1.000000e-07	-5.497438e-06	-7.775705e-10	-3.824713e+01	-5.222124e+01
1.100000e-07	-5.493073e-06	-8.899465e-10	-3.821676e+01	-5.221870e+01
1.200000e-07	-5.488512e-06	-8.374165e-10	-3.818503e+01	-5.221204e+01
1.300000e-07	-5.483663e-06	-7.438479e-10	-3.815129e+01	-5.220111e+01
1.400000e-07	-5.478488e-06	-7.480155e-10	-3.811529e+01	-5.218578e+01
1.500000e-07	-5.472849e-06	-8.771567e-10	-3.807606e+01	-5.216594e+01
1.600000e-07	-5.466656e-06	-8.426580e-10	-3.803297e+01	-5.214154e+01
1.700000e-07	-5.460104e-06	-7.250159e-10	-3.798739e+01	-5.211252e+01
1.800000e-07	-5.453218e-06	-7.654654e-10	-3.793948e+01	-5.207890e+01
1.900000e-07	-5.445844e-06	-8.628306e-10	-3.788818e+01	-5.204070e+01
2.000000e-07	-5.438104e-06	-8.594687e-10	-3.783433e+01	-5.199797e+01
2.100000e-07	-5.430194e-06	-7.553300e-10	-3.777930e+01	-5.195082e+01
2.200000e-07	-5.422087e-06	-7.753633e-10	-3.772289e+01	-5.189937e+01
2.300000e-07	-5.413633e-06	-8.266215e-10	-3.766407e+01	-5.184377e+01
2.400000e-07	-5.404783e-06	-8.299706e-10	-3.760250e+01	-5.178420e+01
2.500000e-07	-5.395349e-06	-7.638631e-10	-3.753687e+01	-5.172088e+01
2.600000e-07	-5.385175e-06	-7.790565e-10	-3.746609e+01	-5.165403e+01
2.700000e-07	-5.374381e-06	-7.956578e-10	-3.739099e+01	-5.158390e+01
2.800000e-07	-5.363147e-06	-7.809331e-10	-3.731283e+01	-5.151079e+01
2.900000e-07	-5.351541e-06	-7.400944e-10	-3.723209e+01	-5.143497e+01
3.000000e-07	-5.339487e-06	-7.574516e-10	-3.714823e+01	-5.135676e+01
3.100000e-07	-5.326949e-06	-7.773412e-10	-3.706099e+01	-5.127647e+01
3.200000e-07	-5.314014e-06	-7.716295e-10	-3.697100e+01	-5.119444e+01
3.300000e-07	-5.300658e-06	-7.491222e-10	-3.687808e+01	-5.111100e+01
3.400000e-07	-5.286942e-06	-7.504783e-10	-3.678265e+01	-5.102647e+01
3.500000e-07	-5.273021e-06	-7.818100e-10	-3.668580e+01	-5.094121e+01
3.600000e-07	-5.258632e-06	-7.625642e-10	-3.658569e+01	-5.085554e+01
3.700000e-07	-5.243556e-06	-7.253697e-10	-3.648081e+01	-5.076979e+01
3.800000e-07	-5.228009e-06	-7.622013e-10	-3.637264e+01	-5.068427e+01
3.900000e-07	-5.212084e-06	-8.045266e-10	-3.626184e+01	-5.059928e+01
4.000000e-07	-5.195590e-06	-7.295935e-10	-3.614709e+01	-5.051512e+01
4.100000e-07	-5.178633e-06	-7.204593e-10	-3.602912e+01	-5.043206e+01
4.200000e-07	-5.161423e-06	-8.132156e-10	-3.590938e+01	-5.035034e+01
4.300000e-07	-5.143881e-06	-7.893093e-10	-3.578734e+01	-5.027019e+01
4.400000e-07	-5.125951e-06	-6.812370e-10	-3.566260e+01	-5.019181e+01
4.500000e-07	-5.107808e-06	-7.621697e-10	-3.553637e+01	-5.011539e+01
4.600000e-07	-5.089327e-06	-8.175433e-10	-3.540779e+01	-5.004107e+01
4.700000e-07	-5.070312e-06	-7.078906e-10	-3.527550e+01	-4.996898e+01
4.800000e-07	-5.050960e-06	-7.000787e-10	-3.514086e+01	-4.989919e+01
4.900000e-07	-5.031389e-06	-8.188385e-10	-3.500471e+01	-4.983178e+01
5.000000e-07	-5.011577e-06	-7.502115e-10	-3.486686e+01	-4.976677e+01
5.100000e-07	-4.991520e-06	-6.867227e-10	-3.472733e+01	-4.970417e+01
5.200000e-07	-4.971188e-06	-7.846644e-10	-3.458587e+01	-4.964393e+01
5.300000e-07	-4.950531e-06	-7.804203e-10	-3.444215e+01	-4.958600e+01
5.400000e-07	-4.929494e-06	-6.734829e-10	-3.429579e+01	-4.953029e+01
5.500000e-07	-4.908094e-06	-7.510390e-10	-3.414691e+01	-4.947668e+01
5.600000e-07	-4.886363e-06	-8.052815e-10	-3.399572e+01	-4.942503e+01
5.700000e-07	-4.864306e-06	-7.028546e-10	-3.384226e+01	-4.937516e+01
5.800000e-07	-4.841860e-06	-7.117730e-10	-3.368610e+01	-4.932687e+01
5.900000e-07	-4.819093e-06	-8.045297e-10	-3.352770e+01	-4.927997e+01
6.000000e-07	-4.796014e-06	-7.406542e-10	-3.336714e+01	-4.923420e+01
6.100000e-07	-4.772564e-06	-7.010431e-10	-3.320399e+01	-4.918932e+01
6.200000e-07	-4.748924e-06	-7.779892e-10	-3.303952e+01	-4.914507e+01
6.300000e-07	-4.725081e-06	-7.615277e-10	-3.287364e+01	-4.910116e+01
6.400000e-07	-4.700896e-06	-7.059795e-10	-3.270538e+01	-4.905731e+01
6.500000e-07	-4.676403e-06	-7.516749e-10	-3.253497e+01	-4.901322e+01
6.600000e-07	-4.651508e-06	-7.625943e-10	-3.236177e+01	-4.896861e+01
6.700000e-07	-4.626086e-06	-7.083874e-10	-3.218490e+01	-4.892316e+01
6.800000e-07	-4.600215e-06	-7.308172e-10	-3.200491e+01	-4.887659e+01
6.900000e-07	-4.573827e-06	-7.564100e-10	-3.182132e+01	-4.882860e+01
7.000000e-07	-4.546906e-06	-7.235048e-10	-3.163403e+01	-4.877891e+01
7.100000e-07	-4.519607e-06	-7.212321e-10	-3.144410e+01	-4.872723e+01
7.200000e-07	-4.492024e-06	-7.500201e-10	-3.125220e+01	-4.867331e+01
7.300000e-07	-4.464266e-06	-7.305562e-10	-3.105908e+01	-4.861688e+01
7.400000e-07	-4.436348e-06	-7.245321e-10	-3.086484e+01	-4.855772e+01
7.500000e-07	-4.408203e-06	-7.421271e-10	-3.066903e+01	-4.849560e+01
7.600000e-07	-4.379743e-06	-7.356256e-10	-3.047103e+01	-4.843032e+01
7.700000e-07	-4.350917e-06	-7.177532e-10	-3.027048e+01	-4.836170e+01
7.800000e-07	-4.321763e-06	-7.315674e-10	-3.006765e+01	-4.828958e+01
7.900000e-07	-4.292357e-06	-7.258560e-10	-2.986306e+01	-4.821383e+01
8.000000e-07	-4.262665e-06	-7.109251e-10	-2.965649e+01	-4.813431e+01
8.100000e-07	-4.232687e-06	-7.160537e-10	-2.944792e+01	-4.805096e+01
8.200000e-07	-4.202470e-06	-7.195408e-10	-2.923769e+01	-4.796368e+01
8.300000e-07	-4.171965e-06	-6.995960e-10	-2.902546e+01	-4.787244e+01
8.400000e-07	-4.141129e-06	-7.024650e-10	-2.881093e+01	-4.777721e+01
8.500000e-07	-4.110008e-06	-7.128182e-10	-2.859441e+01	-4.767799e+01
8.600000e-07	-4.078654e-06	-7.048065e-10	-2.837627e+01	-4.757479e+01
8.700000e-07	-4.047035e-06	-7.017615e-10	-2.815629e+01	-4.746767e+01
8.800000e-07	-4.015234e-06	-7.153360e-10	-2.793504e+01	-4.735666e+01
8.900000e-07	-3.983295e-06	-7.080572e-10	-2.771284e+01	-4.724186e+01
9.000000e-07	-3.951070e-06	-6.940447e-10	-2.748864e+01	-4.712335e+01
9.100000e-07	-3.918525e-06	-6.980186e-10	-2.726222e+01	-4.700124e+01
9.200000e-07	-3.885722e-06	-6.953185e-10	-2.703400e+01	-4.687564e+01
9.300000e-07	-3.852623e-06	-6.833668e-10	-2.680372e+01	-4.674669e+01
9.400000e-07	-3.819131e-06	-6.881917e-10	-2.657071e+01	-4.661453e+01
9.500000e-07	-3.785116e-06	-6.975403e-10	-2.633405e+01	-4.647929e+01
9.600000e-07	-3.750626e-06	-6.861130e-10	-2.609410e+01	-4.634113e+01
9.700000e-07	-3.715821e-06	-6.784233e-10	-2.585195e+01	-4.620020e+01
9.800000e-07	-3.680678e-06	-6.821136e-10	-2.560745e+01	-4.605665e+01
9.900000e-07	-3.645243e-06	-6.786512e-10	-2.536092e+01	-4.591063e+01
1.000000e-06	-3.609544e-06	-6.713646e-10	-2.511255e+01	-4.576230e+01
1.010000e-06	-3.573649e-06	-6.799193e-10	-2.486282e+01	-4.561178e+01
1.020000e-06	-3.537683e-06	-6.839846e-10	-2.461260e+01	-4.545921e+01
1.030000e-06	-3.501614e-06	-6.813322e-10	-2.436166e+01	-4.530472e+01
1.040000e-06	-3.465419e-06	-6.820320e-10	-2.410984e+01	-4.514842e+01
1.050000e-06	-3.428968e-06	-6.842015e-10	-2.385623e+01	-4.499040e+01
1.060000e-06	-3.392249e-06	-6.730237e-10	-2.360077e+01	-4.483077e+01
1.070000e-06	-3.355269e-06	-6.653877e-10	-2.334349e+01	-4.466958e+01
1.080000e-06	-3.317982e-06	-6.648547e-10	-2.308408e+01	-4.450689e+01
1.090000e-06	-3.280428e-06	-6.634189e-10	-2.282281e+01	-4.434274e+01
1.100000e-06	-3.242615e-06	-6.596791e-10	-2.255973e+01	-4.417716e+01
1.110000e-06	-3.204635e-06	-6.623514e-10	-2.229549e+01	-4.401013e+01
1.120000e-06	-3.166473e-06	-6.605817e-10	-2.202999e+01	-4.384165e+01
1.130000e-06	-3.128017e-06	-6.567508e-10	-2.176244e+01	-4.367168e+01
1.140000e-06	-3.089326e-06	-6.547886e-10	-2.149326e+01	-4.350017e+01
1.150000e-06	-3.050540e-06	-6.512144e-10	-2.122341e+01	-4.332704e+01
1.160000e-06	-3.011561e-06	-6.438457e-10	-2.095222e+01	-4.315219e+01
1.170000e-06	-2.972324e-06	-6.397793e-10	-2.067924e+01	-4.297552e+01
1.180000e-06	-2.932797e-06	-6.373425e-10	-2.040425e+01	-4.279690e+01
1.190000e-06	-2.893051e-06	-6.351804e-10	-2.012772e+01	-4.261618e+01
1.200000e-06	-2.853237e-06	-6.353372e-10	-1.985072e+01	-4.243321e+01
1.210000e-06	-2.813323e-06	-6.343818e-10	-1.957303e+01	-4.224780e+01
1.220000e-06	-2.773276e-06	-6.285842e-10	-1.929441e+01	-4.205976e+01
1.230000e-06	-2.733073e-06	-6.210152e-10	-1.901471e+01	-4.186889e+01
1.240000e-06	-2.692722e-06	-6.173448e-10	-1.873398e+01	-4.167498e+01
1.250000e-06	-2.652296e-06	-6.153697e-10	-1.845272e+01	-4.147778e+01
1.260000e-06	-2.611715e-06	-6.139939e-10	-1.817039e+01	-4.127708e+01
1.270000e-06	-2.570805e-06	-6.106720e-10	-1.788577e+01	-4.107261e+01
1.280000e-06	-2.529534e-06	-6.092623e-10	-1.759864e+01	-4.086414e+01
1.290000e-06	-2.487967e-06	-6.067150e-10	-1.730944e+01	-4.065139e+01
1.300000e-06	-2.446090e-06	-6.028578e-10	-1.701809e+01	-4.043410e+01
1.310000e-06	-2.403951e-06	-5.988123e-10	-1.672492e+01	-4.021200e+01
1.320000e-06	-2.361563e-06	-5.951703e-10	-1.643002e+01	-3.998482e+01
1.330000e-06	-2.318932e-06	-5.883423e-10	-1.613342e+01	-3.975229e+01
1.340000e-06	-2.276079e-06	-5.835977e-10	-1.583528e+01	-3.951413e+01
1.350000e-06	-2.232871e-06	-5.822473e-10	-1.553468e+01	-3.927007e+01
1.360000e-06	-2.189394e-06	-5.807051e-10	-1.523219e+01	-3.901983e+01
1.370000e-06	-2.145831e-06	-5.760029e-10	-1.492911e+01	-3.876313e+01
1.380000e-06	-2.102137e-06	-5.688578e-10	-1.462512e+01	-3.849972e+01
1.390000e-06	-2.058312e-06	-5.592640e-10	-1.432022e+01	-3.822931e+01
1.400000e-06	-2.014430e-06	-5.513004e-10	-1.401492e+01	-3.795164e+01
1.410000e-06	-1.970506e-06	-5.453974e-10	-1.370933e+01	-3.766646e+01
1.420000e-06	-1.926530e-06	-5.413240e-10	-1.340338e+01	-3.737350e+01
1.430000e-06	-1.882454e-06	-5.379018e-10	-1.309673e+01	-3.707251e+01
1.440000e-06	-1.838257e-06	-5.341872e-10	-1.278924e+01	-3.676324e+01
1.450000e-06	-1.793967e-06	-5.293307e-10	-1.248110e+01	-3.644544e+01
1.460000e-06	-1.749606e-06	-5.232583e-10	-1.217247e+01	-3.611887e+01
1.470000e-06	-1.705219e-06	-5.145795e-10	-1.186366e+01	-3.578329e+01
1.480000e-06	-1.660743e-06	-5.067920e-10	-1.155423e+01	-3.543848e+01
1.490000e-06	-1.616089e-06	-5.022161e-10	-1.124356e+01	-3.508420e+01
1.500000e-06	-1.571307e-06	-4.998668e-10	-1.093200e+01	-3.472023e+01
1.510000e-06	-1.526309e-06	-4.985307e-10	-1.061894e+01	-3.434636e+01
1.520000e-06	-1.481132e-06	-4.950518e-10	-1.030463e+01	-3.396236e+01
1.530000e-06	-1.435935e-06	-4.896641e-10	-9.990179e+00	-3.356802e+01
1.540000e-06	-1.390728e-06	-4.832567e-10	-9.675663e+00	-3.316314e+01
1.550000e-06	-1.345422e-06	-4.749917e-10	-9.360454e+00	-3.274752e+01
1.560000e-06	-1.299945e-06	-4.654431e-10	-9.044064e+00	-3.232096e+01
1.570000e-06	-1.254351e-06	-4.559481e-10	-8.726853e+00	-3.188327e+01
1.580000e-06	-1.208685e-06	-4.454156e-10	-8.409142e+00	-3.143426e+01
1.590000e-06	-1.162900e-06	-4.355580e-10	-8.090602e+00	-3.097374e+01
1.600000e-06	-1.117037e-06	-4.279703e-10	-7.771524e+00	-3.050154e+01
1.610000e-06	-1.071097e-06	-4.215509e-10	-7.451904e+00	-3.001750e+01
1.620000e-06	-1.024976e-06	-4.147127e-10	-7.131027e+00	-2.952144e+01
1.630000e-06	-9.788079e-07	-4.077310e-10	-6.809825e+00	-2.901321e+01
1.640000e-06	-9.326587e-07	-4.000123e-10	-6.488753e+00	-2.849266e+01
1.650000e-06	-8.863929e-07	-3.910546e-10	-6.166870e+00	-2.795966e+01
1.660000e-06	-8.400733e-07	-3.801424e-10	-5.844612e+00	-2.741407e+01
1.670000e-06	-7.937589e-07	-3.699272e-10	-5.522391e+00	-2.685577e+01
1.680000e-06	-7.473880e-07	-3.593165e-10	-5.199776e+00	-2.628466e+01
1.690000e-06	-7.009611e-07	-3.501049e-10	-4.876771e+00	-2.570065e+01
1.700000e-06	-6.545076e-07	-3.424522e-10	-4.553582e+00	-2.510365e+01
1.710000e-06	-6.080105e-07	-3.358449e-10	-4.230089e+00	-2.449359e+01
1.720000e-06	-5.615298e-07	-3.267695e-10	-3.906711e+00	-2.387044e+01
1.730000e-06	-5.150356e-07	-3.136481e-10	-3.583239e+00	-2.323415e+01
1.740000e-06	-4.683706e-07	-3.000736e-10	-3.258578e+00	-2.258472e+01
1.750000e-06	-4.216367e-07	-2.880238e-10	-2.933438e+00	-2.192215e+01
1.760000e-06	-3.749015e-07	-2.780572e-10	-2.608289e+00	-2.124647e+01
1.770000e-06	-3.282045e-07	-2.683011e-10	-2.283405e+00	-2.055774e+01
1.780000e-06	-2.815287e-07	-2.577686e-10	-1.958670e+00	-1.985602e+01
1.790000e-06	-2.347887e-07	-2.495906e-10	-1.633487e+00	-1.914142e+01
1.800000e-06	-1.880913e-07	-2.426221e-10	-1.308601e+00	-1.841406e+01
1.810000e-06	-1.413662e-07	-2.345654e-10	-9.835221e-01	-1.767410e+01
1.820000e-06	-9.463607e-08	-2.258281e-10	-6.584082e-01	-1.692171e+01
1.830000e-06	-4.793584e-08	-2.136742e-10	-3.335023e-01	-1.615710e+01
1.840000e-06	-1.121309e-09	-1.997195e-10	-7.801245e-03	-1.538050e+01
1.850000e-06	4.566382e-08	-1.864512e-10	3.176952e-01	-1.459218e+01
1.860000e-06	9.233048e-08	-1.734297e-10	6.423675e-01	-1.379244e+01
1.870000e-06	1.390052e-07	-1.598112e-10	9.670956e-01	-1.298159e+01
1.880000e-06	1.857310e-07	-1.473924e-10	1.292179e+00	-1.216000e+01
1.890000e-06	2.324892e-07	-1.382497e-10	1.617489e+00	-1.132803e+01
1.900000e-06	2.792497e-07	-1.320044e-10	1.942814e+00	-1.048612e+01
1.910000e-06	3.258894e-07	-1.243967e-10	2.267299e+00	-9.634681e+00
1.920000e-06	3.724749e-07	-1.125365e-10	2.591406e+00	-8.774198e+00
1.930000e-06	4.191104e-07	-9.727226e-11	2.915862e+00	-7.905163e+00
1.940000e-06	4.657710e-07	-8.118490e-11	3.240492e+00	-7.028095e+00
1.950000e-06	5.124383e-07	-6.595261e-11	3.565169e+00	-6.143541e+00
1.960000e-06	5.590442e-07	-5.291606e-11	3.889419e+00	-5.252069e+00
1.970000e-06	6.055319e-07	-4.146306e-11	4.212846e+00	-4.354272e+00
1.980000e-06	6.519185e-07	-3.102968e-11	4.535569e+00	-3.450761e+00
1.990000e-06	6.983347e-07	-2.353246e-11	4.858499e+00	-2.542167e+00
2.000000e-06	7.447047e-07	-1.434514e-11	5.181108e+00	-1.629137e+00
2.010000e-06	7.909259e-07	-4.901169e-13	5.502681e+00	-7.123334e-01
2.020000e-06	8.371330e-07	1.727756e-11	5.824156e+00	2.075684e-01
2.030000e-06	8.832509e-07	3.824683e-11	6.145010e+00	1.129882e+00
2.040000e-06	9.292541e-07	5.643216e-11	6.465066e+00	2.053914e+00
2.050000e-06	9.752673e-07	6.953244e-11	6.785192e+00	2.978963e+00
2.060000e-06	1.021234e-06	7.960807e-11	7.104994e+00	3.904324e+00
2.070000e-06	1.067105e-06	8.789779e-11	7.424129e+00	4.829291e+00
2.080000e-06	1.112899e-06	9.679068e-11	7.742735e+00	5.753158e+00
2.090000e-06	1.158623e-06	1.112273e-10	8.060849e+00	6.675222e+00
2.100000e-06	1.204296e-06	1.295717e-10	8.378603e+00	7.594785e+00
2.110000e-06	1.249890e-06	1.471992e-10	8.695817e+00	8.511158e+00
2.120000e-06	1.295389e-06	1.629188e-10	9.012365e+00	9.423658e+00
2.130000e-06	1.340844e-06	1.769465e-10	9.328607e+00	1.033162e+01
2.140000e-06	1.386203e-06	1.874409e-10	9.644181e+00	1.123438e+01
2.150000e-06	1.431420e-06	1.952757e-10	9.958769e+00	1.213130e+01
2.160000e-06	1.476518e-06	2.054056e-10	1.027253e+01	1.302177e+01
2.170000e-06	1.521496e-06	2.168498e-10	1.058545e+01	1.390517e+01
2.180000e-06	1.566335e-06	2.290406e-10	1.089741e+01	1.478093e+01
2.190000e-06	1.611091e-06	2.445923e-10	1.120878e+01	1.564848e+01
2.200000e-06	1.655768e-06	2.619629e-10	1.151962e+01	1.650728e+01
2.210000e-06	1.700294e-06	2.785575e-10	1.182939e+01	1.735682e+01
2.220000e-06	1.744667e-06	2.901269e-10	1.213811e+01	1.819662e+01
2.230000e-06	1.788906e-06	2.983382e-10	1.244589e+01	1.902620e+01
2.240000e-06	1.833049e-06	3.063013e-10	1.275300e+01	1.984514e+01
2.250000e-06	1.877174e-06	3.150610e-10	1.306000e+01	2.065303e+01
2.260000e-06	1.921214e-06	3.261535e-10	1.336640e+01	2.144949e+01
2.270000e-06	1.965181e-06	3.393203e-10	1.367228e+01	2.223417e+01
2.280000e-06	2.009045e-06	3.528985e-10	1.397746e+01	2.300674e+01
2.290000e-06	2.052801e-06	3.664114e-10	1.428188e+01	2.376691e+01
2.300000e-06	2.096552e-06	3.774915e-10	1.458627e+01	2.451442e+01
2.310000e-06	2.140227e-06	3.857912e-10	1.489013e+01	2.524902e+01
2.320000e-06	2.183763e-06	3.945375e-10	1.519302e+01	2.597050e+01
2.330000e-06	2.227155e-06	4.032336e-10	1.549491e+01	2.667869e+01
2.340000e-06	2.270367e-06	4.122048e-10	1.579554e+01	2.737342e+01
2.350000e-06	2.313371e-06	4.219568e-10	1.609473e+01	2.805457e+01
2.360000e-06	2.356125e-06	4.323602e-10	1.639219e+01	2.872203e+01
2.370000e-06	2.398508e-06	4.415436e-10	1.668706e+01	2.937572e+01
2.380000e-06	2.440572e-06	4.518904e-10	1.697971e+01	3.001558e+01
2.390000e-06	2.482366e-06	4.615412e-10	1.727048e+01	3.064159e+01
2.400000e-06	2.523777e-06	4.672923e-10	1.755859e+01	3.125372e+01
2.410000e-06	2.564854e-06	4.737284e-10	1.784437e+01	3.185201e+01
2.420000e-06	2.605736e-06	4.819474e-10	1.812879e+01	3.243647e+01
2.430000e-06	2.646431e-06	4.906490e-10	1.841192e+01	3.300716e+01
2.440000e-06	2.686872e-06	4.995198e-10	1.869328e+01	3.356414e+01
2.450000e-06	2.727117e-06	5.075962e-10	1.897328e+01	3.410752e+01
2.460000e-06	2.767191e-06	5.159247e-10	1.925208e+01	3.463740e+01
2.470000e-06	2.807114e-06	5.236365e-10	1.952983e+01	3.515389e+01
2.480000e-06	2.846961e-06	5.305821e-10	1.980706e+01	3.565715e+01
2.490000e-06	2.886644e-06	5.361448e-10	2.008315e+01	3.614732e+01
2.500000e-06	2.926113e-06	5.419639e-10	2.035774e+01	3.662457e+01
2.510000e-06	2.965530e-06	5.487581e-10	2.063197e+01	3.708908e+01
2.520000e-06	3.004817e-06	5.553635e-10	2.090531e+01	3.754105e+01
2.530000e-06	3.043810e-06	5.625399e-10	2.117659e+01	3.798068e+01
2.540000e-06	3.082609e-06	5.710052e-10	2.144652e+01	3.840820e+01
2.550000e-06	3.121207e-06	5.774601e-10	2.171506e+01	3.882383e+01
2.560000e-06	3.159484e-06	5.804341e-10	2.198137e+01	3.922780e+01
2.570000e-06	3.197584e-06	5.842551e-10	2.224644e+01	3.962037e+01
2.580000e-06	3.235548e-06	5.909122e-10	2.251056e+01	4.000180e+01
2.590000e-06	3.273266e-06	5.987683e-10	2.277298e+01	4.037234e+01
2.600000e-06	3.310807e-06	6.053824e-10	2.303416e+01	4.073226e+01
2.610000e-06	3.348109e-06	6.102835e-10	2.329368e+01	4.108186e+01
2.620000e-06	3.385080e-06	6.148233e-10	2.355090e+01	4.142141e+01
2.630000e-06	3.421841e-06	6.202213e-10	2.380665e+01	4.175120e+01
2.640000e-06	3.458413e-06	6.258588e-10	2.406110e+01	4.207153e+01
2.650000e-06	3.494758e-06	6.319590e-10	2.431396e+01	4.238269e+01
2.660000e-06	3.530898e-06	6.380756e-10	2.456539e+01	4.268499e+01
2.670000e-06	3.566893e-06	6.432602e-10	2.481582e+01	4.297874e+01
2.680000e-06	3.602756e-06	6.461591e-10	2.506533e+01	4.326423e+01
2.690000e-06	3.638470e-06	6.471986e-10	2.531380e+01	4.354178e+01
2.700000e-06	3.674024e-06	6.490793e-10	2.556116e+01	4.381169e+01
2.710000e-06	3.709351e-06	6.533210e-10	2.580694e+01	4.407426e+01
2.720000e-06	3.744322e-06	6.581069e-10	2.605024e+01	4.432981e+01
2.730000e-06	3.778771e-06	6.631244e-10	2.628991e+01	4.457862e+01
2.740000e-06	3.812774e-06	6.676394e-10	2.652648e+01	4.482100e+01
2.750000e-06	3.846448e-06	6.706752e-10	2.676076e+01	4.505724e+01
2.760000e-06	3.879679e-06	6.729156e-10	2.699196e+01	4.528761e+01
2.770000e-06	3.912362e-06	6.741700e-10	2.721934e+01	4.551240e+01
2.780000e-06	3.944644e-06	6.757165e-10	2.744393e+01	4.573187e+01
2.790000e-06	3.976749e-06	6.791583e-10	2.766729e+01	4.594628e+01
2.800000e-06	4.008729e-06	6.840263e-10	2.788979e+01	4.615588e+01
2.810000e-06	4.040527e-06	6.884003e-10	2.811101e+01	4.636090e+01
2.820000e-06	4.072093e-06	6.914481e-10	2.833063e+01	4.656158e+01
2.830000e-06	4.103456e-06	6.934234e-10	2.854883e+01	4.675811e+01
2.840000e-06	4.134661e-06	6.935414e-10	2.876593e+01	4.695069e+01
2.850000e-06	4.165601e-06	6.918301e-10	2.898119e+01	4.713950e+01
2.860000e-06	4.196195e-06	6.918167e-10	2.919404e+01	4.732471e+01
2.870000e-06	4.226463e-06	6.944213e-10	2.940462e+01	4.750647e+01
2.880000e-06	4.256424e-06	6.979639e-10	2.961307e+01	4.768489e+01
2.890000e-06	4.286115e-06	7.017696e-10	2.981963e+01	4.786010e+01
2.900000e-06	4.315530e-06	7.051681e-10	3.002428e+01	4.803218e+01
