# Temperatura_=_-0.4
# Concentracion g/m^3_=_1620.0
# C_Vs_to_Am_M_A/Vsm_=_65563218390.804596
# pendiente_HvsI_1/m_=_3716.3
# ordenada_HvsI_A/m_=_1297.0
# frecuencia_Hz_=_135090.70883956176

Tiempo_(s)	Campo_(V.s)	Magnetizacion_(V.s)	Campo_(kA/m)	Magnetizacion_(A/m)
0.000000e+00	-5.516560e-06	-1.586611e-09	-3.838261e+01	-1.023417e+02
1.000000e-08	-5.516667e-06	-1.583218e-09	-3.838336e+01	-1.022949e+02
2.000000e-08	-5.516507e-06	-1.580931e-09	-3.838224e+01	-1.022455e+02
3.000000e-08	-5.515910e-06	-1.581885e-09	-3.837809e+01	-1.021936e+02
4.000000e-08	-5.514695e-06	-1.584019e-09	-3.836964e+01	-1.021392e+02
5.000000e-08	-5.512827e-06	-1.583490e-09	-3.835664e+01	-1.020824e+02
6.000000e-08	-5.510332e-06	-1.577630e-09	-3.833927e+01	-1.020232e+02
7.000000e-08	-5.507300e-06	-1.582995e-09	-3.831818e+01	-1.019617e+02
8.000000e-08	-5.503859e-06	-1.591831e-09	-3.829424e+01	-1.018978e+02
9.000000e-08	-5.500077e-06	-1.605496e-09	-3.826792e+01	-1.018317e+02
1.000000e-07	-5.495936e-06	-1.624038e-09	-3.823911e+01	-1.017634e+02
1.100000e-07	-5.491440e-06	-1.584555e-09	-3.820783e+01	-1.016928e+02
1.200000e-07	-5.486706e-06	-1.548207e-09	-3.817489e+01	-1.016201e+02
1.300000e-07	-5.481729e-06	-1.557837e-09	-3.814027e+01	-1.015453e+02
1.400000e-07	-5.476416e-06	-1.581130e-09	-3.810330e+01	-1.014683e+02
1.500000e-07	-5.470702e-06	-1.592663e-09	-3.806354e+01	-1.013893e+02
1.600000e-07	-5.464647e-06	-1.566886e-09	-3.802142e+01	-1.013081e+02
1.700000e-07	-5.458142e-06	-1.586967e-09	-3.797615e+01	-1.012249e+02
1.800000e-07	-5.451108e-06	-1.579687e-09	-3.792721e+01	-1.011397e+02
1.900000e-07	-5.443800e-06	-1.549454e-09	-3.787637e+01	-1.010523e+02
2.000000e-07	-5.436273e-06	-1.509353e-09	-3.782400e+01	-1.009629e+02
2.100000e-07	-5.428422e-06	-1.530964e-09	-3.776937e+01	-1.008714e+02
2.200000e-07	-5.420239e-06	-1.557640e-09	-3.771244e+01	-1.007778e+02
2.300000e-07	-5.411724e-06	-1.548795e-09	-3.765319e+01	-1.006821e+02
2.400000e-07	-5.402667e-06	-1.516750e-09	-3.759018e+01	-1.005842e+02
2.500000e-07	-5.392956e-06	-1.503208e-09	-3.752261e+01	-1.004841e+02
2.600000e-07	-5.382452e-06	-1.502543e-09	-3.744953e+01	-1.003817e+02
2.700000e-07	-5.371377e-06	-1.499364e-09	-3.737247e+01	-1.002771e+02
2.800000e-07	-5.359925e-06	-1.506845e-09	-3.729279e+01	-1.001700e+02
2.900000e-07	-5.348184e-06	-1.496643e-09	-3.721110e+01	-1.000605e+02
3.000000e-07	-5.336175e-06	-1.498624e-09	-3.712754e+01	-9.994846e+01
3.100000e-07	-5.323746e-06	-1.498207e-09	-3.704106e+01	-9.983378e+01
3.200000e-07	-5.310883e-06	-1.494011e-09	-3.695157e+01	-9.971637e+01
3.300000e-07	-5.297501e-06	-1.464922e-09	-3.685846e+01	-9.959612e+01
3.400000e-07	-5.283770e-06	-1.468100e-09	-3.676292e+01	-9.947291e+01
3.500000e-07	-5.269706e-06	-1.482648e-09	-3.666507e+01	-9.934662e+01
3.600000e-07	-5.255020e-06	-1.478790e-09	-3.656289e+01	-9.921712e+01
3.700000e-07	-5.239836e-06	-1.466945e-09	-3.645725e+01	-9.908428e+01
3.800000e-07	-5.224326e-06	-1.483217e-09	-3.634933e+01	-9.894794e+01
3.900000e-07	-5.208207e-06	-1.469067e-09	-3.623718e+01	-9.880798e+01
4.000000e-07	-5.191609e-06	-1.440131e-09	-3.612170e+01	-9.866423e+01
4.100000e-07	-5.174805e-06	-1.456036e-09	-3.600478e+01	-9.851654e+01
4.200000e-07	-5.157744e-06	-1.481448e-09	-3.588607e+01	-9.836476e+01
4.300000e-07	-5.140320e-06	-1.445250e-09	-3.576484e+01	-9.820873e+01
4.400000e-07	-5.122432e-06	-1.437400e-09	-3.564038e+01	-9.804831e+01
4.500000e-07	-5.104185e-06	-1.473343e-09	-3.551343e+01	-9.788332e+01
4.600000e-07	-5.085635e-06	-1.451680e-09	-3.538436e+01	-9.771364e+01
4.700000e-07	-5.066611e-06	-1.405672e-09	-3.525200e+01	-9.753909e+01
4.800000e-07	-5.047271e-06	-1.441754e-09	-3.511743e+01	-9.735955e+01
4.900000e-07	-5.027721e-06	-1.462247e-09	-3.498141e+01	-9.717488e+01
5.000000e-07	-5.007998e-06	-1.414668e-09	-3.484419e+01	-9.698495e+01
5.100000e-07	-4.988087e-06	-1.416061e-09	-3.470565e+01	-9.678964e+01
5.200000e-07	-4.967842e-06	-1.448360e-09	-3.456479e+01	-9.658883e+01
5.300000e-07	-4.947178e-06	-1.412630e-09	-3.442102e+01	-9.638244e+01
5.400000e-07	-4.926098e-06	-1.393138e-09	-3.427435e+01	-9.617036e+01
5.500000e-07	-4.904691e-06	-1.427698e-09	-3.412541e+01	-9.595253e+01
5.600000e-07	-4.882917e-06	-1.412733e-09	-3.397391e+01	-9.572888e+01
5.700000e-07	-4.860816e-06	-1.384082e-09	-3.382013e+01	-9.549936e+01
5.800000e-07	-4.838309e-06	-1.410990e-09	-3.366353e+01	-9.526394e+01
5.900000e-07	-4.815420e-06	-1.413756e-09	-3.350428e+01	-9.502260e+01
6.000000e-07	-4.792370e-06	-1.377828e-09	-3.334390e+01	-9.477533e+01
6.100000e-07	-4.769096e-06	-1.391036e-09	-3.318197e+01	-9.452214e+01
6.200000e-07	-4.745527e-06	-1.403202e-09	-3.301799e+01	-9.426306e+01
6.300000e-07	-4.721740e-06	-1.376018e-09	-3.285249e+01	-9.399813e+01
6.400000e-07	-4.697687e-06	-1.374161e-09	-3.268513e+01	-9.372740e+01
6.500000e-07	-4.673130e-06	-1.391121e-09	-3.251427e+01	-9.345094e+01
6.600000e-07	-4.647980e-06	-1.368980e-09	-3.233928e+01	-9.316884e+01
6.700000e-07	-4.622310e-06	-1.360024e-09	-3.216068e+01	-9.288120e+01
6.800000e-07	-4.596100e-06	-1.371378e-09	-3.197832e+01	-9.258811e+01
6.900000e-07	-4.569431e-06	-1.358434e-09	-3.179276e+01	-9.228971e+01
7.000000e-07	-4.542494e-06	-1.344781e-09	-3.160534e+01	-9.198611e+01
7.100000e-07	-4.515253e-06	-1.355878e-09	-3.141581e+01	-9.167745e+01
7.200000e-07	-4.487739e-06	-1.348631e-09	-3.122437e+01	-9.136389e+01
7.300000e-07	-4.460064e-06	-1.334530e-09	-3.103182e+01	-9.104556e+01
7.400000e-07	-4.432203e-06	-1.336196e-09	-3.083797e+01	-9.072263e+01
7.500000e-07	-4.404028e-06	-1.331604e-09	-3.064194e+01	-9.039524e+01
7.600000e-07	-4.375520e-06	-1.314695e-09	-3.044359e+01	-9.006356e+01
7.700000e-07	-4.346697e-06	-1.311542e-09	-3.024304e+01	-8.972773e+01
7.800000e-07	-4.317596e-06	-1.307116e-09	-3.004057e+01	-8.938792e+01
7.900000e-07	-4.288242e-06	-1.293282e-09	-2.983633e+01	-8.904428e+01
8.000000e-07	-4.258669e-06	-1.288645e-09	-2.963057e+01	-8.869694e+01
8.100000e-07	-4.228792e-06	-1.287931e-09	-2.942269e+01	-8.834603e+01
8.200000e-07	-4.198503e-06	-1.275362e-09	-2.921195e+01	-8.799169e+01
8.300000e-07	-4.167914e-06	-1.266638e-09	-2.899913e+01	-8.763403e+01
8.400000e-07	-4.137030e-06	-1.268172e-09	-2.878425e+01	-8.727314e+01
8.500000e-07	-4.105873e-06	-1.262418e-09	-2.856746e+01	-8.690913e+01
8.600000e-07	-4.074539e-06	-1.252492e-09	-2.834945e+01	-8.654206e+01
8.700000e-07	-4.043036e-06	-1.248701e-09	-2.813026e+01	-8.617198e+01
8.800000e-07	-4.011370e-06	-1.244893e-09	-2.790994e+01	-8.579895e+01
8.900000e-07	-3.979554e-06	-1.233133e-09	-2.768857e+01	-8.542298e+01
9.000000e-07	-3.947443e-06	-1.224686e-09	-2.746515e+01	-8.504407e+01
9.100000e-07	-3.915025e-06	-1.221533e-09	-2.723960e+01	-8.466223e+01
9.200000e-07	-3.882134e-06	-1.213268e-09	-2.701075e+01	-8.427740e+01
9.300000e-07	-3.848728e-06	-1.204456e-09	-2.677832e+01	-8.388955e+01
9.400000e-07	-3.814959e-06	-1.203815e-09	-2.654337e+01	-8.349861e+01
9.500000e-07	-3.780743e-06	-1.200085e-09	-2.630531e+01	-8.310449e+01
9.600000e-07	-3.746036e-06	-1.191693e-09	-2.606382e+01	-8.270709e+01
9.700000e-07	-3.711051e-06	-1.184399e-09	-2.582041e+01	-8.230628e+01
9.800000e-07	-3.675883e-06	-1.180945e-09	-2.557572e+01	-8.190194e+01
9.900000e-07	-3.640468e-06	-1.172434e-09	-2.532931e+01	-8.149390e+01
1.000000e-06	-3.604933e-06	-1.168263e-09	-2.508207e+01	-8.108202e+01
1.010000e-06	-3.569259e-06	-1.169361e-09	-2.483386e+01	-8.066611e+01
1.020000e-06	-3.533425e-06	-1.166728e-09	-2.458454e+01	-8.024599e+01
1.030000e-06	-3.497316e-06	-1.159687e-09	-2.433330e+01	-7.982146e+01
1.040000e-06	-3.460942e-06	-1.156561e-09	-2.408022e+01	-7.939233e+01
1.050000e-06	-3.424327e-06	-1.151932e-09	-2.382546e+01	-7.895839e+01
1.060000e-06	-3.387395e-06	-1.142330e-09	-2.356850e+01	-7.851942e+01
1.070000e-06	-3.350326e-06	-1.132085e-09	-2.331059e+01	-7.807522e+01
1.080000e-06	-3.312988e-06	-1.121785e-09	-2.305080e+01	-7.762558e+01
1.090000e-06	-3.275365e-06	-1.109924e-09	-2.278903e+01	-7.717028e+01
1.100000e-06	-3.237572e-06	-1.101662e-09	-2.252608e+01	-7.670913e+01
1.110000e-06	-3.199508e-06	-1.097985e-09	-2.226124e+01	-7.624192e+01
1.120000e-06	-3.161197e-06	-1.094470e-09	-2.199468e+01	-7.576846e+01
1.130000e-06	-3.122748e-06	-1.088385e-09	-2.172717e+01	-7.528856e+01
1.140000e-06	-3.084082e-06	-1.080950e-09	-2.145814e+01	-7.480204e+01
1.150000e-06	-3.045178e-06	-1.071636e-09	-2.118746e+01	-7.430876e+01
1.160000e-06	-3.006062e-06	-1.058922e-09	-2.091530e+01	-7.380854e+01
1.170000e-06	-2.966851e-06	-1.047145e-09	-2.064248e+01	-7.330125e+01
1.180000e-06	-2.927617e-06	-1.040881e-09	-2.036950e+01	-7.278677e+01
1.190000e-06	-2.888202e-06	-1.036161e-09	-2.009527e+01	-7.226497e+01
1.200000e-06	-2.848592e-06	-1.029268e-09	-1.981967e+01	-7.173576e+01
1.210000e-06	-2.808837e-06	-1.023008e-09	-1.954307e+01	-7.119905e+01
1.220000e-06	-2.768918e-06	-1.014060e-09	-1.926532e+01	-7.065477e+01
1.230000e-06	-2.728823e-06	-1.002867e-09	-1.898635e+01	-7.010285e+01
1.240000e-06	-2.688506e-06	-9.922350e-10	-1.870584e+01	-6.954324e+01
1.250000e-06	-2.647913e-06	-9.827014e-10	-1.842341e+01	-6.897590e+01
1.260000e-06	-2.607138e-06	-9.745925e-10	-1.813970e+01	-6.840079e+01
1.270000e-06	-2.566019e-06	-9.685665e-10	-1.785361e+01	-6.781791e+01
1.280000e-06	-2.524575e-06	-9.626008e-10	-1.756525e+01	-6.722722e+01
1.290000e-06	-2.482859e-06	-9.553130e-10	-1.727501e+01	-6.662870e+01
1.300000e-06	-2.440743e-06	-9.439708e-10	-1.698197e+01	-6.602236e+01
1.310000e-06	-2.398358e-06	-9.318602e-10	-1.668707e+01	-6.540816e+01
1.320000e-06	-2.355826e-06	-9.194857e-10	-1.639115e+01	-6.478611e+01
1.330000e-06	-2.313041e-06	-9.072476e-10	-1.609346e+01	-6.415616e+01
1.340000e-06	-2.270017e-06	-8.969124e-10	-1.579411e+01	-6.351830e+01
1.350000e-06	-2.226893e-06	-8.906608e-10	-1.549407e+01	-6.287248e+01
1.360000e-06	-2.183601e-06	-8.818885e-10	-1.519285e+01	-6.221864e+01
1.370000e-06	-2.140170e-06	-8.708172e-10	-1.489068e+01	-6.155673e+01
1.380000e-06	-2.096639e-06	-8.568689e-10	-1.458780e+01	-6.088664e+01
1.390000e-06	-2.053041e-06	-8.393799e-10	-1.428446e+01	-6.020828e+01
1.400000e-06	-2.009378e-06	-8.243291e-10	-1.398066e+01	-5.952151e+01
1.410000e-06	-1.965599e-06	-8.147203e-10	-1.367607e+01	-5.882617e+01
1.420000e-06	-1.921722e-06	-8.098952e-10	-1.337078e+01	-5.812209e+01
1.430000e-06	-1.877745e-06	-8.072654e-10	-1.306480e+01	-5.740905e+01
1.440000e-06	-1.833703e-06	-8.005086e-10	-1.275837e+01	-5.668682e+01
1.450000e-06	-1.789570e-06	-7.907483e-10	-1.245131e+01	-5.595511e+01
1.460000e-06	-1.745208e-06	-7.783243e-10	-1.214264e+01	-5.521364e+01
1.470000e-06	-1.700673e-06	-7.638439e-10	-1.183278e+01	-5.446205e+01
1.480000e-06	-1.656062e-06	-7.512591e-10	-1.152240e+01	-5.369999e+01
1.490000e-06	-1.611297e-06	-7.400027e-10	-1.121093e+01	-5.292706e+01
1.500000e-06	-1.566424e-06	-7.296011e-10	-1.089872e+01	-5.214281e+01
1.510000e-06	-1.521447e-06	-7.190777e-10	-1.058578e+01	-5.134679e+01
1.520000e-06	-1.476322e-06	-7.090397e-10	-1.027182e+01	-5.053849e+01
1.530000e-06	-1.431145e-06	-6.976998e-10	-9.957488e+00	-4.971741e+01
1.540000e-06	-1.385847e-06	-6.839486e-10	-9.642319e+00	-4.888299e+01
1.550000e-06	-1.340377e-06	-6.656863e-10	-9.325954e+00	-4.803466e+01
1.560000e-06	-1.294842e-06	-6.464484e-10	-9.009133e+00	-4.717182e+01
1.570000e-06	-1.249265e-06	-6.292463e-10	-8.692017e+00	-4.629387e+01
1.580000e-06	-1.203587e-06	-6.142965e-10	-8.374204e+00	-4.540018e+01
1.590000e-06	-1.157899e-06	-6.008208e-10	-8.056322e+00	-4.449012e+01
1.600000e-06	-1.112228e-06	-5.901003e-10	-7.738556e+00	-4.356305e+01
1.610000e-06	-1.066436e-06	-5.782774e-10	-7.419952e+00	-4.261832e+01
1.620000e-06	-1.020511e-06	-5.628198e-10	-7.100414e+00	-4.165530e+01
1.630000e-06	-9.745295e-07	-5.470853e-10	-6.780491e+00	-4.067336e+01
1.640000e-06	-9.284733e-07	-5.327352e-10	-6.460046e+00	-3.967187e+01
1.650000e-06	-8.822043e-07	-5.163524e-10	-6.138119e+00	-3.865024e+01
1.660000e-06	-8.358397e-07	-4.981110e-10	-5.815528e+00	-3.760790e+01
1.670000e-06	-7.895118e-07	-4.827875e-10	-5.493192e+00	-3.654430e+01
1.680000e-06	-7.431584e-07	-4.697592e-10	-5.170678e+00	-3.545892e+01
1.690000e-06	-6.967347e-07	-4.559089e-10	-4.847676e+00	-3.435129e+01
1.700000e-06	-6.502742e-07	-4.406270e-10	-4.524417e+00	-3.322098e+01
1.710000e-06	-6.038152e-07	-4.211544e-10	-4.201169e+00	-3.206762e+01
1.720000e-06	-5.573515e-07	-4.015872e-10	-3.877889e+00	-3.089088e+01
1.730000e-06	-5.107581e-07	-3.850770e-10	-3.553706e+00	-2.969050e+01
1.740000e-06	-4.640551e-07	-3.688395e-10	-3.228760e+00	-2.846628e+01
1.750000e-06	-4.173204e-07	-3.504513e-10	-2.903593e+00	-2.721808e+01
1.760000e-06	-3.706104e-07	-3.320471e-10	-2.578599e+00	-2.594585e+01
1.770000e-06	-3.238386e-07	-3.141392e-10	-2.253174e+00	-2.464959e+01
1.780000e-06	-2.769494e-07	-2.930575e-10	-1.926933e+00	-2.332941e+01
1.790000e-06	-2.301699e-07	-2.730404e-10	-1.601455e+00	-2.198547e+01
1.800000e-06	-1.833792e-07	-2.550063e-10	-1.275899e+00	-2.061803e+01
1.810000e-06	-1.365241e-07	-2.362395e-10	-9.498949e-01	-1.922744e+01
1.820000e-06	-8.964990e-08	-2.174076e-10	-6.237578e-01	-1.781411e+01
1.830000e-06	-4.277323e-08	-1.978796e-10	-2.976036e-01	-1.637856e+01
1.840000e-06	4.038000e-09	-1.780552e-10	2.809522e-02	-1.492139e+01
1.850000e-06	5.078954e-08	-1.579181e-10	3.533788e-01	-1.344327e+01
1.860000e-06	9.745739e-08	-1.361455e-10	6.780800e-01	-1.194498e+01
1.870000e-06	1.441504e-07	-1.127030e-10	1.002956e+00	-1.042736e+01
1.880000e-06	1.908716e-07	-9.002502e-11	1.328028e+00	-8.891339e+00
1.890000e-06	2.375897e-07	-6.966390e-11	1.653079e+00	-7.337923e+00
1.900000e-06	2.842576e-07	-5.040519e-11	1.977781e+00	-5.768191e+00
1.910000e-06	3.308881e-07	-2.984252e-11	2.302222e+00	-4.183292e+00
1.920000e-06	3.775586e-07	-5.802601e-12	2.626942e+00	-2.584441e+00
1.930000e-06	4.242372e-07	1.901514e-11	2.951718e+00	-9.729136e-01
1.940000e-06	4.708878e-07	4.224702e-11	3.276300e+00	6.499580e-01
1.950000e-06	5.173863e-07	6.460412e-11	3.599823e+00	2.282792e+00
1.960000e-06	5.637147e-07	8.750127e-11	3.922162e+00	3.924162e+00
1.970000e-06	6.100755e-07	1.087297e-10	4.244727e+00	5.572603e+00
1.980000e-06	6.564446e-07	1.287386e-10	4.567349e+00	7.226618e+00
1.990000e-06	7.027815e-07	1.500677e-10	4.889748e+00	8.884684e+00
2.000000e-06	7.491409e-07	1.733582e-10	5.212303e+00	1.054526e+01
2.010000e-06	7.954482e-07	1.976773e-10	5.534495e+00	1.220680e+01
2.020000e-06	8.417821e-07	2.230953e-10	5.856873e+00	1.386773e+01
2.030000e-06	8.879889e-07	2.494416e-10	6.178367e+00	1.552652e+01
2.040000e-06	9.340492e-07	2.737765e-10	6.498841e+00	1.718160e+01
2.050000e-06	9.800038e-07	2.953617e-10	6.818580e+00	1.883145e+01
2.060000e-06	1.025877e-06	3.166837e-10	7.137752e+00	2.047455e+01
2.070000e-06	1.071719e-06	3.391737e-10	7.456706e+00	2.210945e+01
2.080000e-06	1.117424e-06	3.617240e-10	7.774712e+00	2.373467e+01
2.090000e-06	1.163048e-06	3.858798e-10	8.092145e+00	2.534883e+01
2.100000e-06	1.208615e-06	4.124431e-10	8.409191e+00	2.695057e+01
2.110000e-06	1.254127e-06	4.386785e-10	8.725845e+00	2.853858e+01
2.120000e-06	1.299574e-06	4.600822e-10	9.042057e+00	3.011162e+01
2.130000e-06	1.344932e-06	4.796087e-10	9.357641e+00	3.166849e+01
2.140000e-06	1.390250e-06	4.996821e-10	9.672951e+00	3.320809e+01
2.150000e-06	1.435431e-06	5.189521e-10	9.987311e+00	3.472935e+01
2.160000e-06	1.480462e-06	5.397218e-10	1.030062e+01	3.623129e+01
2.170000e-06	1.525502e-06	5.613554e-10	1.061400e+01	3.771302e+01
2.180000e-06	1.570417e-06	5.819309e-10	1.092650e+01	3.917371e+01
2.190000e-06	1.615138e-06	6.029932e-10	1.123765e+01	4.061260e+01
2.200000e-06	1.659796e-06	6.234253e-10	1.154837e+01	4.202903e+01
2.210000e-06	1.704335e-06	6.403611e-10	1.185826e+01	4.342240e+01
2.220000e-06	1.748612e-06	6.549509e-10	1.216633e+01	4.479220e+01
2.230000e-06	1.792788e-06	6.697941e-10	1.247369e+01	4.613801e+01
2.240000e-06	1.836859e-06	6.876742e-10	1.278033e+01	4.745946e+01
2.250000e-06	1.880797e-06	7.069926e-10	1.308604e+01	4.875630e+01
2.260000e-06	1.924639e-06	7.254884e-10	1.339107e+01	5.002831e+01
2.270000e-06	1.968399e-06	7.441820e-10	1.369554e+01	5.127537e+01
2.280000e-06	2.012102e-06	7.625911e-10	1.399962e+01	5.249743e+01
2.290000e-06	2.055724e-06	7.786870e-10	1.430313e+01	5.369449e+01
2.300000e-06	2.099279e-06	7.933497e-10	1.460617e+01	5.486663e+01
2.310000e-06	2.142752e-06	8.074268e-10	1.490864e+01	5.601398e+01
2.320000e-06	2.186144e-06	8.226281e-10	1.521055e+01	5.713675e+01
2.330000e-06	2.229484e-06	8.392541e-10	1.551210e+01	5.823517e+01
2.340000e-06	2.272691e-06	8.558126e-10	1.581272e+01	5.930954e+01
2.350000e-06	2.315653e-06	8.708354e-10	1.611164e+01	6.036019e+01
2.360000e-06	2.358485e-06	8.837776e-10	1.640965e+01	6.138751e+01
2.370000e-06	2.401135e-06	8.955790e-10	1.670639e+01	6.239190e+01
2.380000e-06	2.443465e-06	9.074476e-10	1.700092e+01	6.337381e+01
2.390000e-06	2.485585e-06	9.201144e-10	1.729398e+01	6.433371e+01
2.400000e-06	2.527421e-06	9.345705e-10	1.758506e+01	6.527208e+01
2.410000e-06	2.568779e-06	9.492053e-10	1.787281e+01	6.618944e+01
2.420000e-06	2.609823e-06	9.615471e-10	1.815838e+01	6.708631e+01
2.430000e-06	2.650602e-06	9.727744e-10	1.844211e+01	6.796320e+01
2.440000e-06	2.691089e-06	9.830516e-10	1.872381e+01	6.882067e+01
2.450000e-06	2.731405e-06	9.917967e-10	1.900432e+01	6.965925e+01
2.460000e-06	2.771501e-06	1.000838e-09	1.928330e+01	7.047946e+01
2.470000e-06	2.811334e-06	1.012773e-09	1.956044e+01	7.128184e+01
2.480000e-06	2.851011e-06	1.025335e-09	1.983650e+01	7.206690e+01
2.490000e-06	2.890577e-06	1.037371e-09	2.011179e+01	7.283517e+01
2.500000e-06	2.930070e-06	1.050823e-09	2.038657e+01	7.358712e+01
2.510000e-06	2.969454e-06	1.064401e-09	2.066059e+01	7.432325e+01
2.520000e-06	3.008596e-06	1.074927e-09	2.093293e+01	7.504401e+01
2.530000e-06	3.047606e-06	1.083441e-09	2.120435e+01	7.574985e+01
2.540000e-06	3.086467e-06	1.092721e-09	2.147473e+01	7.644119e+01
2.550000e-06	3.124974e-06	1.101826e-09	2.174265e+01	7.711845e+01
2.560000e-06	3.163272e-06	1.110681e-09	2.200912e+01	7.778199e+01
2.570000e-06	3.201393e-06	1.121605e-09	2.227435e+01	7.843218e+01
2.580000e-06	3.239269e-06	1.134679e-09	2.253789e+01	7.906936e+01
2.590000e-06	3.276942e-06	1.146174e-09	2.280000e+01	7.969385e+01
2.600000e-06	3.314439e-06	1.155165e-09	2.306090e+01	8.030595e+01
2.610000e-06	3.351742e-06	1.162911e-09	2.332044e+01	8.090592e+01
2.620000e-06	3.388748e-06	1.171113e-09	2.357792e+01	8.149402e+01
2.630000e-06	3.425489e-06	1.180266e-09	2.383355e+01	8.207050e+01
2.640000e-06	3.461987e-06	1.188418e-09	2.408749e+01	8.263556e+01
2.650000e-06	3.498131e-06	1.197867e-09	2.433897e+01	8.318942e+01
2.660000e-06	3.534031e-06	1.208671e-09	2.458875e+01	8.373226e+01
2.670000e-06	3.569817e-06	1.218562e-09	2.483774e+01	8.426425e+01
2.680000e-06	3.605493e-06	1.226002e-09	2.508596e+01	8.478555e+01
2.690000e-06	3.641101e-06	1.228622e-09	2.533372e+01	8.529632e+01
2.700000e-06	3.676551e-06	1.231020e-09	2.558037e+01	8.579669e+01
2.710000e-06	3.711802e-06	1.237059e-09	2.582563e+01	8.628681e+01
2.720000e-06	3.746797e-06	1.244989e-09	2.606912e+01	8.676679e+01
2.730000e-06	3.781498e-06	1.254264e-09	2.631055e+01	8.723676e+01
2.740000e-06	3.815931e-06	1.261905e-09	2.655013e+01	8.769684e+01
2.750000e-06	3.849901e-06	1.266503e-09	2.678649e+01	8.814714e+01
2.760000e-06	3.883316e-06	1.269174e-09	2.701898e+01	8.858779e+01
2.770000e-06	3.916164e-06	1.271368e-09	2.724752e+01	8.901889e+01
2.780000e-06	3.948571e-06	1.276460e-09	2.747300e+01	8.944057e+01
2.790000e-06	3.980624e-06	1.283814e-09	2.769602e+01	8.985294e+01
2.800000e-06	4.012406e-06	1.290454e-09	2.791715e+01	9.025613e+01
2.810000e-06	4.044055e-06	1.295950e-09	2.813735e+01	9.065026e+01
2.820000e-06	4.075542e-06	1.300739e-09	2.835643e+01	9.103545e+01
2.830000e-06	4.106903e-06	1.304522e-09	2.857463e+01	9.141185e+01
2.840000e-06	4.138099e-06	1.307633e-09	2.879168e+01	9.177959e+01
2.850000e-06	4.169045e-06	1.310090e-09	2.900699e+01	9.213880e+01
2.860000e-06	4.199663e-06	1.314209e-09	2.922003e+01	9.248964e+01
2.870000e-06	4.229866e-06	1.320686e-09	2.943017e+01	9.283226e+01
2.880000e-06	4.259706e-06	1.326151e-09	2.963779e+01	9.316681e+01
2.890000e-06	4.289262e-06	1.328674e-09	2.984343e+01	9.349343e+01
2.900000e-06	4.318594e-06	1.330382e-09	3.004751e+01	9.381231e+01
