# Temperatura_=_-0.61
# Concentracion g/m^3_=_1620.0
# C_Vs_to_Am_M_A/Vsm_=_65563218390.804596
# pendiente_HvsI_1/m_=_3716.3
# ordenada_HvsI_A/m_=_1297.0
# frecuencia_Hz_=_135097.7735452509

Tiempo_(s)	Campo_(V.s)	Magnetizacion_(V.s)	Campo_(kA/m)	Magnetizacion_(A/m)
0.000000e+00	-5.532661e-06	-1.319300e-09	-3.838906e+01	-8.611899e+01
1.000000e-08	-5.532887e-06	-1.316812e-09	-3.839062e+01	-8.609933e+01
2.000000e-08	-5.532763e-06	-1.314442e-09	-3.838977e+01	-8.607976e+01
3.000000e-08	-5.532362e-06	-1.312949e-09	-3.838699e+01	-8.606005e+01
4.000000e-08	-5.531595e-06	-1.311202e-09	-3.838166e+01	-8.603996e+01
5.000000e-08	-5.530342e-06	-1.316686e-09	-3.837297e+01	-8.601922e+01
6.000000e-08	-5.528537e-06	-1.348030e-09	-3.836044e+01	-8.599756e+01
7.000000e-08	-5.526136e-06	-1.383182e-09	-3.834378e+01	-8.597467e+01
8.000000e-08	-5.523117e-06	-1.356297e-09	-3.832284e+01	-8.595027e+01
9.000000e-08	-5.519625e-06	-1.221006e-09	-3.829861e+01	-8.592405e+01
1.000000e-07	-5.515809e-06	-1.126641e-09	-3.827213e+01	-8.589570e+01
1.100000e-07	-5.511717e-06	-1.272719e-09	-3.824373e+01	-8.586493e+01
1.200000e-07	-5.507264e-06	-1.417766e-09	-3.821284e+01	-8.583142e+01
1.300000e-07	-5.502438e-06	-1.389919e-09	-3.817936e+01	-8.579489e+01
1.400000e-07	-5.497212e-06	-1.273479e-09	-3.814309e+01	-8.575506e+01
1.500000e-07	-5.491676e-06	-1.266333e-09	-3.810468e+01	-8.571164e+01
1.600000e-07	-5.485822e-06	-1.400013e-09	-3.806406e+01	-8.566439e+01
1.700000e-07	-5.479534e-06	-1.334866e-09	-3.802043e+01	-8.561306e+01
1.800000e-07	-5.472877e-06	-1.247035e-09	-3.797424e+01	-8.555743e+01
1.900000e-07	-5.465741e-06	-1.201741e-09	-3.792473e+01	-8.549729e+01
2.000000e-07	-5.458216e-06	-1.331006e-09	-3.787251e+01	-8.543247e+01
2.100000e-07	-5.450551e-06	-1.357581e-09	-3.781933e+01	-8.536280e+01
2.200000e-07	-5.442660e-06	-1.312928e-09	-3.776458e+01	-8.528815e+01
2.300000e-07	-5.434361e-06	-1.239390e-09	-3.770699e+01	-8.520841e+01
2.400000e-07	-5.425566e-06	-1.271964e-09	-3.764597e+01	-8.512350e+01
2.500000e-07	-5.416239e-06	-1.291188e-09	-3.758125e+01	-8.503336e+01
2.600000e-07	-5.406341e-06	-1.271645e-09	-3.751258e+01	-8.493795e+01
2.700000e-07	-5.395904e-06	-1.251909e-09	-3.744015e+01	-8.483726e+01
2.800000e-07	-5.384967e-06	-1.247517e-09	-3.736427e+01	-8.473131e+01
2.900000e-07	-5.373550e-06	-1.256956e-09	-3.728505e+01	-8.462015e+01
3.000000e-07	-5.361744e-06	-1.216429e-09	-3.720313e+01	-8.450383e+01
3.100000e-07	-5.349546e-06	-1.219061e-09	-3.711849e+01	-8.438244e+01
3.200000e-07	-5.336945e-06	-1.225875e-09	-3.703106e+01	-8.425608e+01
3.300000e-07	-5.323939e-06	-1.260455e-09	-3.694082e+01	-8.412488e+01
3.400000e-07	-5.310472e-06	-1.211385e-09	-3.684738e+01	-8.398898e+01
3.500000e-07	-5.296567e-06	-1.212390e-09	-3.675090e+01	-8.384854e+01
3.600000e-07	-5.282193e-06	-1.207261e-09	-3.665115e+01	-8.370372e+01
3.700000e-07	-5.267302e-06	-1.213015e-09	-3.654783e+01	-8.355472e+01
3.800000e-07	-5.251931e-06	-1.189499e-09	-3.644118e+01	-8.340172e+01
3.900000e-07	-5.236146e-06	-1.234881e-09	-3.633165e+01	-8.324492e+01
4.000000e-07	-5.219927e-06	-1.201407e-09	-3.621912e+01	-8.308454e+01
4.100000e-07	-5.203332e-06	-1.169322e-09	-3.610397e+01	-8.292077e+01
4.200000e-07	-5.186351e-06	-1.196687e-09	-3.598615e+01	-8.275384e+01
4.300000e-07	-5.168945e-06	-1.254294e-09	-3.586537e+01	-8.258395e+01
4.400000e-07	-5.151150e-06	-1.181536e-09	-3.574190e+01	-8.241131e+01
4.500000e-07	-5.133090e-06	-1.159807e-09	-3.561659e+01	-8.223613e+01
4.600000e-07	-5.114787e-06	-1.213075e-09	-3.548959e+01	-8.205860e+01
4.700000e-07	-5.096005e-06	-1.210285e-09	-3.535927e+01	-8.187892e+01
4.800000e-07	-5.076822e-06	-1.156250e-09	-3.522616e+01	-8.169726e+01
4.900000e-07	-5.057377e-06	-1.198764e-09	-3.509124e+01	-8.151381e+01
5.000000e-07	-5.037617e-06	-1.208929e-09	-3.495413e+01	-8.132871e+01
5.100000e-07	-5.017613e-06	-1.154987e-09	-3.481533e+01	-8.114213e+01
5.200000e-07	-4.997366e-06	-1.174433e-09	-3.467485e+01	-8.095418e+01
5.300000e-07	-4.976726e-06	-1.215788e-09	-3.453164e+01	-8.076499e+01
5.400000e-07	-4.955753e-06	-1.160542e-09	-3.438611e+01	-8.057466e+01
5.500000e-07	-4.934526e-06	-1.133461e-09	-3.423883e+01	-8.038327e+01
5.600000e-07	-4.912934e-06	-1.191686e-09	-3.408901e+01	-8.019091e+01
5.700000e-07	-4.890980e-06	-1.184550e-09	-3.393667e+01	-7.999763e+01
5.800000e-07	-4.868753e-06	-1.154195e-09	-3.378245e+01	-7.980345e+01
5.900000e-07	-4.846183e-06	-1.177776e-09	-3.362585e+01	-7.960841e+01
6.000000e-07	-4.823285e-06	-1.186801e-09	-3.346696e+01	-7.941251e+01
6.100000e-07	-4.800177e-06	-1.145842e-09	-3.330663e+01	-7.921574e+01
6.200000e-07	-4.776802e-06	-1.161008e-09	-3.314444e+01	-7.901807e+01
6.300000e-07	-4.753093e-06	-1.171964e-09	-3.297993e+01	-7.881947e+01
6.400000e-07	-4.729032e-06	-1.157502e-09	-3.281298e+01	-7.861987e+01
6.500000e-07	-4.704570e-06	-1.152119e-09	-3.264325e+01	-7.841921e+01
6.600000e-07	-4.679732e-06	-1.175910e-09	-3.247091e+01	-7.821740e+01
6.700000e-07	-4.654505e-06	-1.152966e-09	-3.229587e+01	-7.801436e+01
6.800000e-07	-4.628750e-06	-1.141394e-09	-3.211716e+01	-7.780996e+01
6.900000e-07	-4.602404e-06	-1.140898e-09	-3.193435e+01	-7.760411e+01
7.000000e-07	-4.575679e-06	-1.142429e-09	-3.174892e+01	-7.739666e+01
7.100000e-07	-4.548599e-06	-1.127058e-09	-3.156102e+01	-7.718749e+01
7.200000e-07	-4.521166e-06	-1.135700e-09	-3.137068e+01	-7.697644e+01
7.300000e-07	-4.493543e-06	-1.135740e-09	-3.117901e+01	-7.676338e+01
7.400000e-07	-4.465653e-06	-1.134580e-09	-3.098549e+01	-7.654814e+01
7.500000e-07	-4.437503e-06	-1.125425e-09	-3.079017e+01	-7.633057e+01
7.600000e-07	-4.409115e-06	-1.126435e-09	-3.059320e+01	-7.611049e+01
7.700000e-07	-4.380459e-06	-1.120550e-09	-3.039436e+01	-7.588773e+01
7.800000e-07	-4.351502e-06	-1.114690e-09	-3.019344e+01	-7.566213e+01
7.900000e-07	-4.322216e-06	-1.106107e-09	-2.999024e+01	-7.543350e+01
8.000000e-07	-4.292681e-06	-1.100954e-09	-2.978530e+01	-7.520168e+01
8.100000e-07	-4.262843e-06	-1.094585e-09	-2.957827e+01	-7.496648e+01
8.200000e-07	-4.232664e-06	-1.092324e-09	-2.936887e+01	-7.472773e+01
8.300000e-07	-4.202174e-06	-1.089735e-09	-2.915731e+01	-7.448525e+01
8.400000e-07	-4.171437e-06	-1.080379e-09	-2.894403e+01	-7.423888e+01
8.500000e-07	-4.140454e-06	-1.075677e-09	-2.872906e+01	-7.398843e+01
8.600000e-07	-4.109192e-06	-1.072207e-09	-2.851214e+01	-7.373374e+01
8.700000e-07	-4.077698e-06	-1.068109e-09	-2.829362e+01	-7.347464e+01
8.800000e-07	-4.045993e-06	-1.058603e-09	-2.807363e+01	-7.321097e+01
8.900000e-07	-4.014025e-06	-1.055971e-09	-2.785181e+01	-7.294257e+01
9.000000e-07	-3.981818e-06	-1.046633e-09	-2.762834e+01	-7.266929e+01
9.100000e-07	-3.949424e-06	-1.042376e-09	-2.740357e+01	-7.239098e+01
9.200000e-07	-3.916762e-06	-1.037897e-09	-2.717694e+01	-7.210749e+01
9.300000e-07	-3.883694e-06	-1.033959e-09	-2.694750e+01	-7.181870e+01
9.400000e-07	-3.850152e-06	-1.021711e-09	-2.671476e+01	-7.152446e+01
9.500000e-07	-3.816186e-06	-1.018980e-09	-2.647908e+01	-7.122466e+01
9.600000e-07	-3.781760e-06	-1.013203e-09	-2.624021e+01	-7.091918e+01
9.700000e-07	-3.746951e-06	-1.007060e-09	-2.599869e+01	-7.060791e+01
9.800000e-07	-3.711888e-06	-9.985904e-10	-2.575540e+01	-7.029076e+01
9.900000e-07	-3.676570e-06	-9.995037e-10	-2.551034e+01	-6.996764e+01
1.000000e-06	-3.640989e-06	-9.913359e-10	-2.526345e+01	-6.963846e+01
1.010000e-06	-3.605225e-06	-9.860937e-10	-2.501530e+01	-6.930316e+01
1.020000e-06	-3.569291e-06	-9.844962e-10	-2.476597e+01	-6.896167e+01
1.030000e-06	-3.533158e-06	-9.851557e-10	-2.451526e+01	-6.861394e+01
1.040000e-06	-3.496867e-06	-9.756000e-10	-2.426345e+01	-6.825994e+01
1.050000e-06	-3.460394e-06	-9.711387e-10	-2.401037e+01	-6.789963e+01
1.060000e-06	-3.423701e-06	-9.667824e-10	-2.375577e+01	-6.753301e+01
1.070000e-06	-3.386730e-06	-9.579298e-10	-2.349925e+01	-6.716006e+01
1.080000e-06	-3.349441e-06	-9.475508e-10	-2.324051e+01	-6.678078e+01
1.090000e-06	-3.311886e-06	-9.414543e-10	-2.297993e+01	-6.639521e+01
1.100000e-06	-3.274118e-06	-9.329570e-10	-2.271788e+01	-6.600335e+01
1.110000e-06	-3.236152e-06	-9.241610e-10	-2.245444e+01	-6.560526e+01
1.120000e-06	-3.197932e-06	-9.207260e-10	-2.218925e+01	-6.520098e+01
1.130000e-06	-3.159395e-06	-9.163137e-10	-2.192186e+01	-6.479058e+01
1.140000e-06	-3.120648e-06	-9.088632e-10	-2.165300e+01	-6.437412e+01
1.150000e-06	-3.081770e-06	-9.029898e-10	-2.138325e+01	-6.395169e+01
1.160000e-06	-3.042757e-06	-9.015848e-10	-2.111255e+01	-6.352337e+01
1.170000e-06	-3.003580e-06	-8.949432e-10	-2.084071e+01	-6.308925e+01
1.180000e-06	-2.964177e-06	-8.867874e-10	-2.056731e+01	-6.264945e+01
1.190000e-06	-2.924595e-06	-8.795685e-10	-2.029267e+01	-6.220406e+01
1.200000e-06	-2.884943e-06	-8.733623e-10	-2.001753e+01	-6.175320e+01
1.210000e-06	-2.845191e-06	-8.661519e-10	-1.974171e+01	-6.129698e+01
1.220000e-06	-2.805258e-06	-8.641133e-10	-1.946463e+01	-6.083551e+01
1.230000e-06	-2.765086e-06	-8.576973e-10	-1.918589e+01	-6.036892e+01
1.240000e-06	-2.724729e-06	-8.507131e-10	-1.890587e+01	-5.989730e+01
1.250000e-06	-2.684173e-06	-8.438665e-10	-1.862447e+01	-5.942076e+01
1.260000e-06	-2.643367e-06	-8.410132e-10	-1.834133e+01	-5.893941e+01
1.270000e-06	-2.602317e-06	-8.319685e-10	-1.805650e+01	-5.845334e+01
1.280000e-06	-2.560980e-06	-8.238483e-10	-1.776968e+01	-5.796262e+01
1.290000e-06	-2.519415e-06	-8.168514e-10	-1.748128e+01	-5.746731e+01
1.300000e-06	-2.477517e-06	-8.081053e-10	-1.719056e+01	-5.696748e+01
1.310000e-06	-2.435262e-06	-7.959230e-10	-1.689737e+01	-5.646314e+01
1.320000e-06	-2.392778e-06	-7.868286e-10	-1.660259e+01	-5.595433e+01
1.330000e-06	-2.349993e-06	-7.768543e-10	-1.630572e+01	-5.544101e+01
1.340000e-06	-2.306956e-06	-7.661592e-10	-1.600710e+01	-5.492317e+01
1.350000e-06	-2.263752e-06	-7.582410e-10	-1.570733e+01	-5.440074e+01
1.360000e-06	-2.220377e-06	-7.543985e-10	-1.540637e+01	-5.387362e+01
1.370000e-06	-2.176881e-06	-7.494313e-10	-1.510456e+01	-5.334172e+01
1.380000e-06	-2.133224e-06	-7.411103e-10	-1.480164e+01	-5.280486e+01
1.390000e-06	-2.089465e-06	-7.295704e-10	-1.449802e+01	-5.226287e+01
1.400000e-06	-2.045664e-06	-7.159428e-10	-1.419410e+01	-5.171552e+01
1.410000e-06	-2.001777e-06	-7.036994e-10	-1.388958e+01	-5.116258e+01
1.420000e-06	-1.957820e-06	-6.941807e-10	-1.358458e+01	-5.060373e+01
1.430000e-06	-1.913772e-06	-6.884732e-10	-1.327894e+01	-5.003866e+01
1.440000e-06	-1.869610e-06	-6.820011e-10	-1.297253e+01	-4.946701e+01
1.450000e-06	-1.825321e-06	-6.754753e-10	-1.266521e+01	-4.888836e+01
1.460000e-06	-1.780862e-06	-6.674370e-10	-1.235673e+01	-4.830229e+01
1.470000e-06	-1.736326e-06	-6.574241e-10	-1.204771e+01	-4.770832e+01
1.480000e-06	-1.691713e-06	-6.454760e-10	-1.173816e+01	-4.710595e+01
1.490000e-06	-1.646941e-06	-6.351658e-10	-1.142750e+01	-4.649463e+01
1.500000e-06	-1.601995e-06	-6.262860e-10	-1.111564e+01	-4.587379e+01
1.510000e-06	-1.556856e-06	-6.179785e-10	-1.080244e+01	-4.524284e+01
1.520000e-06	-1.511628e-06	-6.089127e-10	-1.048862e+01	-4.460115e+01
1.530000e-06	-1.466309e-06	-5.983468e-10	-1.017417e+01	-4.394806e+01
1.540000e-06	-1.420880e-06	-5.879473e-10	-9.858950e+00	-4.328292e+01
1.550000e-06	-1.375370e-06	-5.800383e-10	-9.543173e+00	-4.260504e+01
1.560000e-06	-1.329767e-06	-5.713288e-10	-9.226758e+00	-4.191371e+01
1.570000e-06	-1.284149e-06	-5.606028e-10	-8.910229e+00	-4.120823e+01
1.580000e-06	-1.238494e-06	-5.463265e-10	-8.593446e+00	-4.048789e+01
1.590000e-06	-1.192668e-06	-5.315231e-10	-8.275475e+00	-3.975198e+01
1.600000e-06	-1.146688e-06	-5.187964e-10	-7.956436e+00	-3.899980e+01
1.610000e-06	-1.100654e-06	-5.081466e-10	-7.637025e+00	-3.823066e+01
1.620000e-06	-1.054470e-06	-4.938107e-10	-7.316571e+00	-3.744386e+01
1.630000e-06	-1.008231e-06	-4.777614e-10	-6.995740e+00	-3.663877e+01
1.640000e-06	-9.620268e-07	-4.653396e-10	-6.675143e+00	-3.581473e+01
1.650000e-06	-9.157608e-07	-4.553098e-10	-6.354121e+00	-3.497116e+01
1.660000e-06	-8.694067e-07	-4.443794e-10	-6.032487e+00	-3.410749e+01
1.670000e-06	-8.230258e-07	-4.309834e-10	-5.710667e+00	-3.322318e+01
1.680000e-06	-7.766927e-07	-4.158370e-10	-5.389179e+00	-3.231778e+01
1.690000e-06	-7.303033e-07	-4.004522e-10	-5.067301e+00	-3.139084e+01
1.700000e-06	-6.837703e-07	-3.845170e-10	-4.744426e+00	-3.044199e+01
1.710000e-06	-6.371184e-07	-3.691982e-10	-4.420726e+00	-2.947094e+01
1.720000e-06	-5.904622e-07	-3.543231e-10	-4.096996e+00	-2.847742e+01
1.730000e-06	-5.438886e-07	-3.395052e-10	-3.773839e+00	-2.746126e+01
1.740000e-06	-4.971646e-07	-3.253267e-10	-3.449639e+00	-2.642235e+01
1.750000e-06	-4.502320e-07	-3.106602e-10	-3.123991e+00	-2.536065e+01
1.760000e-06	-4.033839e-07	-2.959389e-10	-2.798930e+00	-2.427621e+01
1.770000e-06	-3.566045e-07	-2.806837e-10	-2.474345e+00	-2.316915e+01
1.780000e-06	-3.096919e-07	-2.640025e-10	-2.148836e+00	-2.203966e+01
1.790000e-06	-2.626882e-07	-2.461367e-10	-1.822695e+00	-2.088802e+01
1.800000e-06	-2.157444e-07	-2.300647e-10	-1.496969e+00	-1.971460e+01
1.810000e-06	-1.687585e-07	-2.143501e-10	-1.170952e+00	-1.851984e+01
1.820000e-06	-1.217169e-07	-1.998584e-10	-8.445478e-01	-1.730426e+01
1.830000e-06	-7.466776e-08	-1.860707e-10	-5.180916e-01	-1.606847e+01
1.840000e-06	-2.763540e-08	-1.700008e-10	-1.917517e-01	-1.481315e+01
1.850000e-06	1.932185e-08	-1.518966e-10	1.340670e-01	-1.353904e+01
1.860000e-06	6.629603e-08	-1.339026e-10	4.600033e-01	-1.224700e+01
1.870000e-06	1.133089e-07	-1.123229e-10	7.862082e-01	-1.093791e+01
1.880000e-06	1.602295e-07	-9.032275e-11	1.111772e+00	-9.612735e+00
1.890000e-06	2.071560e-07	-7.191282e-11	1.437378e+00	-8.272514e+00
1.900000e-06	2.541757e-07	-5.684201e-11	1.763630e+00	-6.918329e+00
1.910000e-06	3.011561e-07	-4.296522e-11	2.089609e+00	-5.551319e+00
1.920000e-06	3.480502e-07	-2.670070e-11	2.414990e+00	-4.172670e+00
1.930000e-06	3.948828e-07	-6.682514e-12	2.739944e+00	-2.783611e+00
1.940000e-06	4.417298e-07	1.549337e-11	3.064997e+00	-1.385404e+00
1.950000e-06	4.885077e-07	3.755934e-11	3.389572e+00	2.065535e-02
1.960000e-06	5.351972e-07	5.829100e-11	3.713533e+00	1.433251e+00
1.970000e-06	5.818433e-07	7.586398e-11	4.037192e+00	2.851048e+00
1.980000e-06	6.284325e-07	9.082344e-11	4.360458e+00	4.272701e+00
1.990000e-06	6.749809e-07	1.058378e-10	4.683439e+00	5.696861e+00
2.000000e-06	7.214375e-07	1.207727e-10	5.005784e+00	7.122182e+00
2.010000e-06	7.678165e-07	1.400768e-10	5.327591e+00	8.547324e+00
2.020000e-06	8.141797e-07	1.616807e-10	5.649287e+00	9.970965e+00
2.030000e-06	8.604676e-07	1.832634e-10	5.970462e+00	1.139180e+01
2.040000e-06	9.066028e-07	2.051042e-10	6.290577e+00	1.280856e+01
2.050000e-06	9.527090e-07	2.244559e-10	6.610491e+00	1.421999e+01
2.060000e-06	9.987987e-07	2.430284e-10	6.930290e+00	1.562489e+01
2.070000e-06	1.044779e-06	2.588181e-10	7.249331e+00	1.702210e+01
2.080000e-06	1.090699e-06	2.754437e-10	7.567951e+00	1.841050e+01
2.090000e-06	1.136619e-06	2.943291e-10	7.886572e+00	1.978902e+01
2.100000e-06	1.182494e-06	3.163632e-10	8.204882e+00	2.115665e+01
2.110000e-06	1.228303e-06	3.379573e-10	8.522732e+00	2.251245e+01
2.120000e-06	1.274022e-06	3.576311e-10	8.839959e+00	2.385551e+01
2.130000e-06	1.319567e-06	3.762226e-10	9.155980e+00	2.518501e+01
2.140000e-06	1.364960e-06	3.928470e-10	9.470944e+00	2.650018e+01
2.150000e-06	1.410281e-06	4.071829e-10	9.785412e+00	2.780032e+01
2.160000e-06	1.455586e-06	4.218297e-10	1.009977e+01	2.908480e+01
2.170000e-06	1.500771e-06	4.403732e-10	1.041329e+01	3.035304e+01
2.180000e-06	1.545870e-06	4.612844e-10	1.072621e+01	3.160455e+01
2.190000e-06	1.590877e-06	4.816698e-10	1.103850e+01	3.283888e+01
2.200000e-06	1.635687e-06	5.021160e-10	1.134942e+01	3.405566e+01
2.210000e-06	1.680395e-06	5.193539e-10	1.165963e+01	3.525458e+01
2.220000e-06	1.724956e-06	5.326151e-10	1.196883e+01	3.643538e+01
2.230000e-06	1.769319e-06	5.434834e-10	1.227664e+01	3.759787e+01
2.240000e-06	1.813574e-06	5.560526e-10	1.258371e+01	3.874190e+01
2.250000e-06	1.857708e-06	5.728041e-10	1.288994e+01	3.986739e+01
2.260000e-06	1.901657e-06	5.926150e-10	1.319489e+01	4.097427e+01
2.270000e-06	1.945554e-06	6.125484e-10	1.349947e+01	4.206256e+01
2.280000e-06	1.989472e-06	6.293294e-10	1.380420e+01	4.313229e+01
2.290000e-06	2.033308e-06	6.442249e-10	1.410836e+01	4.418353e+01
2.300000e-06	2.077048e-06	6.577503e-10	1.441186e+01	4.521639e+01
2.310000e-06	2.120738e-06	6.687994e-10	1.471501e+01	4.623100e+01
2.320000e-06	2.164359e-06	6.800664e-10	1.501768e+01	4.722751e+01
2.330000e-06	2.207937e-06	6.949694e-10	1.532004e+01	4.820609e+01
2.340000e-06	2.251426e-06	7.111800e-10	1.562180e+01	4.916693e+01
2.350000e-06	2.294705e-06	7.271523e-10	1.592210e+01	5.011024e+01
2.360000e-06	2.337772e-06	7.394267e-10	1.622092e+01	5.103621e+01
2.370000e-06	2.380660e-06	7.490485e-10	1.651851e+01	5.194505e+01
2.380000e-06	2.423292e-06	7.584334e-10	1.681431e+01	5.283699e+01
2.390000e-06	2.465551e-06	7.694412e-10	1.710753e+01	5.371221e+01
2.400000e-06	2.507518e-06	7.798441e-10	1.739873e+01	5.457094e+01
2.410000e-06	2.549217e-06	7.920303e-10	1.768806e+01	5.541335e+01
2.420000e-06	2.590626e-06	8.079629e-10	1.797538e+01	5.623964e+01
2.430000e-06	2.631634e-06	8.237372e-10	1.825992e+01	5.704997e+01
2.440000e-06	2.672317e-06	8.346445e-10	1.854220e+01	5.784452e+01
2.450000e-06	2.712802e-06	8.405122e-10	1.882311e+01	5.862342e+01
2.460000e-06	2.753108e-06	8.453691e-10	1.910278e+01	5.938682e+01
2.470000e-06	2.793252e-06	8.513874e-10	1.938133e+01	6.013482e+01
2.480000e-06	2.833218e-06	8.601984e-10	1.965864e+01	6.086754e+01
2.490000e-06	2.873079e-06	8.723145e-10	1.993522e+01	6.158507e+01
2.500000e-06	2.912786e-06	8.851695e-10	2.021073e+01	6.228748e+01
2.510000e-06	2.952360e-06	8.964763e-10	2.048532e+01	6.297485e+01
2.520000e-06	2.991713e-06	9.054765e-10	2.075837e+01	6.364723e+01
2.530000e-06	3.030870e-06	9.116136e-10	2.103007e+01	6.430466e+01
2.540000e-06	3.069883e-06	9.183464e-10	2.130077e+01	6.494720e+01
2.550000e-06	3.108685e-06	9.272055e-10	2.157000e+01	6.557489e+01
2.560000e-06	3.147308e-06	9.349233e-10	2.183799e+01	6.618774e+01
2.570000e-06	3.185669e-06	9.410809e-10	2.210417e+01	6.678582e+01
2.580000e-06	3.223719e-06	9.498372e-10	2.236818e+01	6.736914e+01
2.590000e-06	3.261624e-06	9.619170e-10	2.263119e+01	6.793777e+01
2.600000e-06	3.299387e-06	9.717063e-10	2.289321e+01	6.849174e+01
2.610000e-06	3.336882e-06	9.775873e-10	2.315337e+01	6.903113e+01
2.620000e-06	3.374152e-06	9.827368e-10	2.341198e+01	6.955601e+01
2.630000e-06	3.411185e-06	9.890594e-10	2.366893e+01	7.006647e+01
2.640000e-06	3.447926e-06	9.951888e-10	2.392386e+01	7.056262e+01
2.650000e-06	3.484375e-06	1.001465e-09	2.417677e+01	7.104459e+01
2.660000e-06	3.520619e-06	1.011163e-09	2.442825e+01	7.151253e+01
2.670000e-06	3.556686e-06	1.019363e-09	2.467851e+01	7.196661e+01
2.680000e-06	3.592561e-06	1.026529e-09	2.492743e+01	7.240704e+01
2.690000e-06	3.628301e-06	1.031682e-09	2.517542e+01	7.283402e+01
2.700000e-06	3.663933e-06	1.032484e-09	2.542265e+01	7.324781e+01
2.710000e-06	3.699331e-06	1.035369e-09	2.566827e+01	7.364869e+01
2.720000e-06	3.734486e-06	1.043219e-09	2.591220e+01	7.403695e+01
2.730000e-06	3.769422e-06	1.052386e-09	2.615461e+01	7.441292e+01
2.740000e-06	3.803988e-06	1.059533e-09	2.639444e+01	7.477696e+01
2.750000e-06	3.838134e-06	1.065135e-09	2.663137e+01	7.512944e+01
2.760000e-06	3.871872e-06	1.069846e-09	2.686547e+01	7.547077e+01
2.770000e-06	3.905161e-06	1.071509e-09	2.709644e+01	7.580136e+01
2.780000e-06	3.937963e-06	1.071856e-09	2.732405e+01	7.612165e+01
2.790000e-06	3.970376e-06	1.075564e-09	2.754895e+01	7.643211e+01
2.800000e-06	4.002504e-06	1.080870e-09	2.777187e+01	7.673322e+01
2.810000e-06	4.034385e-06	1.087265e-09	2.799309e+01	7.702545e+01
2.820000e-06	4.066109e-06	1.094406e-09	2.821321e+01	7.730931e+01
2.830000e-06	4.097628e-06	1.099901e-09	2.843190e+01	7.758530e+01
2.840000e-06	4.128922e-06	1.103903e-09	2.864904e+01	7.785393e+01
2.850000e-06	4.160000e-06	1.106565e-09	2.886468e+01	7.811570e+01
2.860000e-06	4.190781e-06	1.108173e-09	2.907826e+01	7.837112e+01
2.870000e-06	4.221265e-06	1.110407e-09	2.928978e+01	7.862067e+01
2.880000e-06	4.251436e-06	1.114679e-09	2.949912e+01	7.886486e+01
2.890000e-06	4.281329e-06	1.119467e-09	2.970653e+01	7.910414e+01
2.900000e-06	4.311038e-06	1.122199e-09	2.991268e+01	7.933897e+01
