# Temperatura_=_-0.43
# Concentracion g/m^3_=_1620.0
# C_Vs_to_Am_M_A/Vsm_=_65563218390.804596
# pendiente_HvsI_1/m_=_3716.3
# ordenada_HvsI_A/m_=_1297.0
# frecuencia_Hz_=_135095.71137733533

Tiempo_(s)	Campo_(V.s)	Magnetizacion_(V.s)	Campo_(kA/m)	Magnetizacion_(A/m)
0.000000e+00	-5.517779e-06	-1.453852e-09	-3.836924e+01	-9.418398e+01
1.000000e-08	-5.518148e-06	-1.450942e-09	-3.837181e+01	-9.415477e+01
2.000000e-08	-5.518279e-06	-1.445147e-09	-3.837272e+01	-9.412259e+01
3.000000e-08	-5.518024e-06	-1.439936e-09	-3.837095e+01	-9.408743e+01
4.000000e-08	-5.517321e-06	-1.437432e-09	-3.836606e+01	-9.404930e+01
5.000000e-08	-5.515991e-06	-1.437137e-09	-3.835681e+01	-9.400818e+01
6.000000e-08	-5.514035e-06	-1.440749e-09	-3.834321e+01	-9.396405e+01
7.000000e-08	-5.511551e-06	-1.443272e-09	-3.832593e+01	-9.391689e+01
8.000000e-08	-5.508476e-06	-1.435508e-09	-3.830455e+01	-9.386670e+01
9.000000e-08	-5.505000e-06	-1.427839e-09	-3.828038e+01	-9.381346e+01
1.000000e-07	-5.501141e-06	-1.442814e-09	-3.825355e+01	-9.375714e+01
1.100000e-07	-5.496833e-06	-1.452320e-09	-3.822359e+01	-9.369772e+01
1.200000e-07	-5.492219e-06	-1.435294e-09	-3.819150e+01	-9.363518e+01
1.300000e-07	-5.487386e-06	-1.409355e-09	-3.815790e+01	-9.356952e+01
1.400000e-07	-5.482339e-06	-1.414492e-09	-3.812280e+01	-9.350069e+01
1.500000e-07	-5.476955e-06	-1.430826e-09	-3.808537e+01	-9.342870e+01
1.600000e-07	-5.471153e-06	-1.430448e-09	-3.804502e+01	-9.335352e+01
1.700000e-07	-5.465033e-06	-1.432239e-09	-3.800246e+01	-9.327513e+01
1.800000e-07	-5.458497e-06	-1.423049e-09	-3.795701e+01	-9.319354e+01
1.900000e-07	-5.451486e-06	-1.425029e-09	-3.790826e+01	-9.310872e+01
2.000000e-07	-5.444204e-06	-1.405948e-09	-3.785762e+01	-9.302067e+01
2.100000e-07	-5.436602e-06	-1.415637e-09	-3.780476e+01	-9.292939e+01
2.200000e-07	-5.428640e-06	-1.419759e-09	-3.774939e+01	-9.283489e+01
2.300000e-07	-5.420509e-06	-1.425144e-09	-3.769285e+01	-9.273716e+01
2.400000e-07	-5.412100e-06	-1.412262e-09	-3.763438e+01	-9.263622e+01
2.500000e-07	-5.403046e-06	-1.399272e-09	-3.757142e+01	-9.253207e+01
2.600000e-07	-5.393193e-06	-1.388386e-09	-3.750290e+01	-9.242475e+01
2.700000e-07	-5.382669e-06	-1.384036e-09	-3.742972e+01	-9.231426e+01
2.800000e-07	-5.371727e-06	-1.378297e-09	-3.735363e+01	-9.220063e+01
2.900000e-07	-5.360377e-06	-1.375617e-09	-3.727471e+01	-9.208390e+01
3.000000e-07	-5.348561e-06	-1.376375e-09	-3.719255e+01	-9.196409e+01
3.100000e-07	-5.336423e-06	-1.381318e-09	-3.710814e+01	-9.184124e+01
3.200000e-07	-5.323833e-06	-1.383824e-09	-3.702059e+01	-9.171539e+01
3.300000e-07	-5.310772e-06	-1.366641e-09	-3.692977e+01	-9.158658e+01
3.400000e-07	-5.297398e-06	-1.363721e-09	-3.683677e+01	-9.145484e+01
3.500000e-07	-5.283711e-06	-1.356414e-09	-3.674160e+01	-9.132023e+01
3.600000e-07	-5.269541e-06	-1.353487e-09	-3.664306e+01	-9.118277e+01
3.700000e-07	-5.254885e-06	-1.350427e-09	-3.654115e+01	-9.104252e+01
3.800000e-07	-5.239847e-06	-1.370597e-09	-3.643658e+01	-9.089952e+01
3.900000e-07	-5.224310e-06	-1.371121e-09	-3.632854e+01	-9.075380e+01
4.000000e-07	-5.208208e-06	-1.360447e-09	-3.621656e+01	-9.060540e+01
4.100000e-07	-5.191686e-06	-1.358222e-09	-3.610168e+01	-9.045436e+01
4.200000e-07	-5.174788e-06	-1.370465e-09	-3.598417e+01	-9.030070e+01
4.300000e-07	-5.157488e-06	-1.353669e-09	-3.586387e+01	-9.014445e+01
4.400000e-07	-5.139938e-06	-1.341811e-09	-3.574184e+01	-8.998563e+01
4.500000e-07	-5.122042e-06	-1.345361e-09	-3.561739e+01	-8.982425e+01
4.600000e-07	-5.103690e-06	-1.351356e-09	-3.548977e+01	-8.966031e+01
4.700000e-07	-5.084835e-06	-1.340330e-09	-3.535866e+01	-8.949383e+01
4.800000e-07	-5.065624e-06	-1.345799e-09	-3.522507e+01	-8.932478e+01
4.900000e-07	-5.046273e-06	-1.350576e-09	-3.509051e+01	-8.915315e+01
5.000000e-07	-5.026719e-06	-1.341091e-09	-3.495454e+01	-8.897893e+01
5.100000e-07	-5.006944e-06	-1.324867e-09	-3.481703e+01	-8.880206e+01
5.200000e-07	-4.986887e-06	-1.319362e-09	-3.467756e+01	-8.862252e+01
5.300000e-07	-4.966415e-06	-1.310641e-09	-3.453519e+01	-8.844025e+01
5.400000e-07	-4.945571e-06	-1.306598e-09	-3.439025e+01	-8.825520e+01
5.500000e-07	-4.924415e-06	-1.309579e-09	-3.424314e+01	-8.806728e+01
5.600000e-07	-4.902885e-06	-1.309428e-09	-3.409343e+01	-8.787643e+01
5.700000e-07	-4.881010e-06	-1.309244e-09	-3.394131e+01	-8.768255e+01
5.800000e-07	-4.858878e-06	-1.309786e-09	-3.378741e+01	-8.748556e+01
5.900000e-07	-4.836289e-06	-1.302084e-09	-3.363033e+01	-8.728536e+01
6.000000e-07	-4.813242e-06	-1.288931e-09	-3.347007e+01	-8.708183e+01
6.100000e-07	-4.789959e-06	-1.285747e-09	-3.330816e+01	-8.687487e+01
6.200000e-07	-4.766525e-06	-1.280553e-09	-3.314521e+01	-8.666435e+01
6.300000e-07	-4.742904e-06	-1.277963e-09	-3.298096e+01	-8.645016e+01
6.400000e-07	-4.719021e-06	-1.283555e-09	-3.281488e+01	-8.623216e+01
6.500000e-07	-4.694797e-06	-1.290054e-09	-3.264644e+01	-8.601022e+01
6.600000e-07	-4.670116e-06	-1.279297e-09	-3.247481e+01	-8.578422e+01
6.700000e-07	-4.644967e-06	-1.271709e-09	-3.229993e+01	-8.555402e+01
6.800000e-07	-4.619286e-06	-1.264636e-09	-3.212135e+01	-8.531950e+01
6.900000e-07	-4.593003e-06	-1.253053e-09	-3.193859e+01	-8.508051e+01
7.000000e-07	-4.566199e-06	-1.244121e-09	-3.175220e+01	-8.483694e+01
7.100000e-07	-4.539023e-06	-1.251077e-09	-3.156322e+01	-8.458867e+01
7.200000e-07	-4.511686e-06	-1.248446e-09	-3.137313e+01	-8.433556e+01
7.300000e-07	-4.484201e-06	-1.244158e-09	-3.118201e+01	-8.407752e+01
7.400000e-07	-4.456462e-06	-1.246002e-09	-3.098911e+01	-8.381442e+01
7.500000e-07	-4.428519e-06	-1.241084e-09	-3.079481e+01	-8.354619e+01
7.600000e-07	-4.400331e-06	-1.224072e-09	-3.059879e+01	-8.327271e+01
7.700000e-07	-4.371851e-06	-1.221021e-09	-3.040075e+01	-8.299392e+01
7.800000e-07	-4.343036e-06	-1.219290e-09	-3.020037e+01	-8.270973e+01
7.900000e-07	-4.313916e-06	-1.209841e-09	-2.999788e+01	-8.242010e+01
8.000000e-07	-4.284519e-06	-1.208020e-09	-2.979346e+01	-8.212496e+01
8.100000e-07	-4.254785e-06	-1.210924e-09	-2.958670e+01	-8.182428e+01
8.200000e-07	-4.224731e-06	-1.197679e-09	-2.937772e+01	-8.151802e+01
8.300000e-07	-4.194341e-06	-1.184684e-09	-2.916639e+01	-8.120618e+01
8.400000e-07	-4.163638e-06	-1.181621e-09	-2.895289e+01	-8.088874e+01
8.500000e-07	-4.132732e-06	-1.173475e-09	-2.873798e+01	-8.056572e+01
8.600000e-07	-4.101703e-06	-1.165691e-09	-2.852221e+01	-8.023713e+01
8.700000e-07	-4.070479e-06	-1.169197e-09	-2.830508e+01	-7.990299e+01
8.800000e-07	-4.039014e-06	-1.170042e-09	-2.808628e+01	-7.956335e+01
8.900000e-07	-4.007369e-06	-1.161273e-09	-2.786624e+01	-7.921826e+01
9.000000e-07	-3.975429e-06	-1.154245e-09	-2.764413e+01	-7.886777e+01
9.100000e-07	-3.943207e-06	-1.143950e-09	-2.742007e+01	-7.851196e+01
9.200000e-07	-3.910636e-06	-1.131940e-09	-2.719358e+01	-7.815089e+01
9.300000e-07	-3.877530e-06	-1.125126e-09	-2.696337e+01	-7.778465e+01
9.400000e-07	-3.843983e-06	-1.126155e-09	-2.673009e+01	-7.741332e+01
9.500000e-07	-3.810071e-06	-1.121584e-09	-2.649427e+01	-7.703701e+01
9.600000e-07	-3.775737e-06	-1.118245e-09	-2.625552e+01	-7.665580e+01
9.700000e-07	-3.740971e-06	-1.114017e-09	-2.601377e+01	-7.626979e+01
9.800000e-07	-3.705914e-06	-1.104955e-09	-2.576999e+01	-7.587909e+01
9.900000e-07	-3.670611e-06	-1.093346e-09	-2.552450e+01	-7.548379e+01
1.000000e-06	-3.635150e-06	-1.087125e-09	-2.527792e+01	-7.508401e+01
1.010000e-06	-3.599569e-06	-1.082066e-09	-2.503050e+01	-7.467982e+01
1.020000e-06	-3.563822e-06	-1.079549e-09	-2.478192e+01	-7.427134e+01
1.030000e-06	-3.527939e-06	-1.077761e-09	-2.453240e+01	-7.385865e+01
1.040000e-06	-3.491900e-06	-1.074838e-09	-2.428179e+01	-7.344183e+01
1.050000e-06	-3.455628e-06	-1.068142e-09	-2.402957e+01	-7.302097e+01
1.060000e-06	-3.419109e-06	-1.063094e-09	-2.377562e+01	-7.259614e+01
1.070000e-06	-3.382320e-06	-1.057783e-09	-2.351980e+01	-7.216740e+01
1.080000e-06	-3.345189e-06	-1.049923e-09	-2.326160e+01	-7.173479e+01
1.090000e-06	-3.307734e-06	-1.044428e-09	-2.300115e+01	-7.129838e+01
1.100000e-06	-3.270037e-06	-1.041136e-09	-2.273902e+01	-7.085818e+01
1.110000e-06	-3.232116e-06	-1.033675e-09	-2.247532e+01	-7.041422e+01
1.120000e-06	-3.193968e-06	-1.026099e-09	-2.221005e+01	-6.996650e+01
1.130000e-06	-3.155653e-06	-1.022296e-09	-2.194361e+01	-6.951502e+01
1.140000e-06	-3.117132e-06	-1.016787e-09	-2.167575e+01	-6.905977e+01
1.150000e-06	-3.078439e-06	-1.007756e-09	-2.140669e+01	-6.860071e+01
1.160000e-06	-3.039576e-06	-1.000275e-09	-2.113645e+01	-6.813780e+01
1.170000e-06	-3.000543e-06	-9.945973e-10	-2.086502e+01	-6.767097e+01
1.180000e-06	-2.961365e-06	-9.845944e-10	-2.059259e+01	-6.720016e+01
1.190000e-06	-2.921959e-06	-9.749139e-10	-2.031857e+01	-6.672528e+01
1.200000e-06	-2.882390e-06	-9.664133e-10	-2.004341e+01	-6.624622e+01
1.210000e-06	-2.842698e-06	-9.582759e-10	-1.976741e+01	-6.576287e+01
1.220000e-06	-2.802830e-06	-9.495056e-10	-1.949017e+01	-6.527511e+01
1.230000e-06	-2.762836e-06	-9.417935e-10	-1.921206e+01	-6.478278e+01
1.240000e-06	-2.722705e-06	-9.320647e-10	-1.893300e+01	-6.428575e+01
1.250000e-06	-2.682265e-06	-9.223690e-10	-1.865179e+01	-6.378383e+01
1.260000e-06	-2.641556e-06	-9.136146e-10	-1.836871e+01	-6.327685e+01
1.270000e-06	-2.600653e-06	-9.051196e-10	-1.808429e+01	-6.276461e+01
1.280000e-06	-2.559573e-06	-8.956623e-10	-1.779862e+01	-6.224692e+01
1.290000e-06	-2.518194e-06	-8.888021e-10	-1.751088e+01	-6.172355e+01
1.300000e-06	-2.476319e-06	-8.827313e-10	-1.721970e+01	-6.119429e+01
1.310000e-06	-2.434128e-06	-8.724873e-10	-1.692631e+01	-6.065888e+01
1.320000e-06	-2.391728e-06	-8.601226e-10	-1.663147e+01	-6.011710e+01
1.330000e-06	-2.349025e-06	-8.489608e-10	-1.633453e+01	-5.956867e+01
1.340000e-06	-2.306076e-06	-8.359948e-10	-1.603587e+01	-5.901334e+01
1.350000e-06	-2.262965e-06	-8.250187e-10	-1.573609e+01	-5.845082e+01
1.360000e-06	-2.219739e-06	-8.176811e-10	-1.543551e+01	-5.788084e+01
1.370000e-06	-2.176388e-06	-8.111926e-10	-1.513406e+01	-5.730310e+01
1.380000e-06	-2.132939e-06	-8.029696e-10	-1.483192e+01	-5.671730e+01
1.390000e-06	-2.089410e-06	-7.913022e-10	-1.452923e+01	-5.612313e+01
1.400000e-06	-2.045745e-06	-7.761834e-10	-1.422559e+01	-5.552028e+01
1.410000e-06	-2.001976e-06	-7.615844e-10	-1.392124e+01	-5.490841e+01
1.420000e-06	-1.958141e-06	-7.498129e-10	-1.361642e+01	-5.428721e+01
1.430000e-06	-1.914237e-06	-7.411436e-10	-1.331112e+01	-5.365632e+01
1.440000e-06	-1.870214e-06	-7.323206e-10	-1.300500e+01	-5.301541e+01
1.450000e-06	-1.826112e-06	-7.222827e-10	-1.269832e+01	-5.236412e+01
1.460000e-06	-1.781888e-06	-7.121091e-10	-1.239080e+01	-5.170209e+01
1.470000e-06	-1.737506e-06	-7.014563e-10	-1.208218e+01	-5.102895e+01
1.480000e-06	-1.693034e-06	-6.915984e-10	-1.177293e+01	-5.034434e+01
1.490000e-06	-1.648384e-06	-6.841395e-10	-1.146244e+01	-4.964787e+01
1.500000e-06	-1.603526e-06	-6.771404e-10	-1.115052e+01	-4.893917e+01
1.510000e-06	-1.558583e-06	-6.677459e-10	-1.083800e+01	-4.821784e+01
1.520000e-06	-1.513534e-06	-6.548999e-10	-1.052473e+01	-4.748350e+01
1.530000e-06	-1.468326e-06	-6.396867e-10	-1.021037e+01	-4.673574e+01
1.540000e-06	-1.423080e-06	-6.262970e-10	-9.895740e+00	-4.597418e+01
1.550000e-06	-1.377732e-06	-6.133249e-10	-9.580399e+00	-4.519841e+01
1.560000e-06	-1.332242e-06	-6.019556e-10	-9.264072e+00	-4.440803e+01
1.570000e-06	-1.286726e-06	-5.913820e-10	-8.947567e+00	-4.360264e+01
1.580000e-06	-1.241114e-06	-5.810749e-10	-8.630397e+00	-4.278184e+01
1.590000e-06	-1.195402e-06	-5.681263e-10	-8.312524e+00	-4.194523e+01
1.600000e-06	-1.149638e-06	-5.533399e-10	-7.994291e+00	-4.109243e+01
1.610000e-06	-1.103842e-06	-5.369400e-10	-7.675840e+00	-4.022303e+01
1.620000e-06	-1.057925e-06	-5.206875e-10	-7.356544e+00	-3.933667e+01
1.630000e-06	-1.011847e-06	-5.067749e-10	-7.036132e+00	-3.843297e+01
1.640000e-06	-9.657623e-07	-4.954630e-10	-6.715667e+00	-3.751158e+01
1.650000e-06	-9.195727e-07	-4.867774e-10	-6.394477e+00	-3.657214e+01
1.660000e-06	-8.733046e-07	-4.769418e-10	-6.072740e+00	-3.561434e+01
1.670000e-06	-8.270468e-07	-4.627189e-10	-5.751075e+00	-3.463784e+01
1.680000e-06	-7.807667e-07	-4.449895e-10	-5.429255e+00	-3.364238e+01
1.690000e-06	-7.344314e-07	-4.269085e-10	-5.107051e+00	-3.262767e+01
1.700000e-06	-6.880144e-07	-4.080055e-10	-4.784279e+00	-3.159347e+01
1.710000e-06	-6.415501e-07	-3.897654e-10	-4.461178e+00	-3.053957e+01
1.720000e-06	-5.950087e-07	-3.748104e-10	-4.137540e+00	-2.946579e+01
1.730000e-06	-5.483607e-07	-3.616385e-10	-3.813162e+00	-2.837197e+01
1.740000e-06	-5.015987e-07	-3.488800e-10	-3.487991e+00	-2.725800e+01
1.750000e-06	-4.548386e-07	-3.342263e-10	-3.162833e+00	-2.612382e+01
1.760000e-06	-4.081779e-07	-3.178718e-10	-2.838366e+00	-2.496938e+01
1.770000e-06	-3.615114e-07	-2.993574e-10	-2.513859e+00	-2.379469e+01
1.780000e-06	-3.147086e-07	-2.760333e-10	-2.188404e+00	-2.259982e+01
1.790000e-06	-2.678574e-07	-2.532794e-10	-1.862613e+00	-2.138487e+01
1.800000e-06	-2.209952e-07	-2.358461e-10	-1.536745e+00	-2.014999e+01
1.810000e-06	-1.741404e-07	-2.203185e-10	-1.210928e+00	-1.889541e+01
1.820000e-06	-1.272777e-07	-2.041253e-10	-8.850567e-01	-1.762138e+01
1.830000e-06	-8.039272e-08	-1.875614e-10	-5.590307e-01	-1.632823e+01
1.840000e-06	-3.362901e-08	-1.696114e-10	-2.338476e-01	-1.501634e+01
1.850000e-06	1.303509e-08	-1.484371e-10	9.064271e-02	-1.368614e+01
1.860000e-06	5.980125e-08	-1.263626e-10	4.158428e-01	-1.233814e+01
1.870000e-06	1.066954e-07	-1.040656e-10	7.419329e-01	-1.097289e+01
1.880000e-06	1.535101e-07	-8.203915e-11	1.067470e+00	-9.591009e+00
1.890000e-06	2.001937e-07	-6.285429e-11	1.392096e+00	-8.193176e+00
1.900000e-06	2.468758e-07	-4.619625e-11	1.716712e+00	-6.780129e+00
1.910000e-06	2.936251e-07	-3.013469e-11	2.041795e+00	-5.352663e+00
1.920000e-06	3.404083e-07	-1.255650e-11	2.367113e+00	-3.911634e+00
1.930000e-06	3.871587e-07	8.293334e-12	2.692204e+00	-2.457949e+00
1.940000e-06	4.338742e-07	3.244491e-11	3.017052e+00	-9.925715e-01
1.950000e-06	4.804926e-07	5.674771e-11	3.341224e+00	4.834833e-01
1.960000e-06	5.270744e-07	7.943391e-11	3.665142e+00	1.969152e+00
1.970000e-06	5.736776e-07	9.872826e-11	3.989209e+00	3.463327e+00
1.980000e-06	6.201520e-07	1.166979e-10	4.312380e+00	4.964854e+00
1.990000e-06	6.665874e-07	1.349380e-10	4.635281e+00	6.472546e+00
2.000000e-06	7.129542e-07	1.525188e-10	4.957704e+00	7.985175e+00
2.010000e-06	7.592437e-07	1.737094e-10	5.279589e+00	9.501486e+00
2.020000e-06	8.055183e-07	1.973317e-10	5.601371e+00	1.102020e+01
2.030000e-06	8.516804e-07	2.229804e-10	5.922371e+00	1.254001e+01
2.040000e-06	8.978224e-07	2.491875e-10	6.243231e+00	1.405959e+01
2.050000e-06	9.439505e-07	2.712164e-10	6.563994e+00	1.557763e+01
2.060000e-06	9.899322e-07	2.910987e-10	6.883739e+00	1.709277e+01
2.070000e-06	1.035854e-06	3.097270e-10	7.203064e+00	1.860369e+01
2.080000e-06	1.081781e-06	3.273873e-10	7.522434e+00	2.010904e+01
2.090000e-06	1.127645e-06	3.452038e-10	7.841358e+00	2.160751e+01
2.100000e-06	1.173386e-06	3.667522e-10	8.159433e+00	2.309779e+01
2.110000e-06	1.218994e-06	3.893638e-10	8.476577e+00	2.457859e+01
2.120000e-06	1.264531e-06	4.121742e-10	8.793227e+00	2.604866e+01
2.130000e-06	1.310055e-06	4.344923e-10	9.109793e+00	2.750676e+01
2.140000e-06	1.355476e-06	4.542268e-10	9.425642e+00	2.895170e+01
2.150000e-06	1.400675e-06	4.709681e-10	9.739939e+00	3.038234e+01
2.160000e-06	1.445819e-06	4.868367e-10	1.005386e+01	3.179757e+01
2.170000e-06	1.490926e-06	5.045824e-10	1.036753e+01	3.319633e+01
2.180000e-06	1.535828e-06	5.237126e-10	1.067976e+01	3.457763e+01
2.190000e-06	1.580607e-06	5.446068e-10	1.099115e+01	3.594053e+01
2.200000e-06	1.625363e-06	5.655618e-10	1.130236e+01	3.728415e+01
2.210000e-06	1.670039e-06	5.850289e-10	1.161303e+01	3.860767e+01
2.220000e-06	1.714571e-06	6.003882e-10	1.192270e+01	3.991036e+01
2.230000e-06	1.758952e-06	6.137085e-10	1.223131e+01	4.119153e+01
2.240000e-06	1.803143e-06	6.299682e-10	1.253860e+01	4.245058e+01
2.250000e-06	1.847173e-06	6.475138e-10	1.284478e+01	4.368698e+01
2.260000e-06	1.891153e-06	6.660637e-10	1.315060e+01	4.490027e+01
2.270000e-06	1.935053e-06	6.838056e-10	1.345587e+01	4.609008e+01
2.280000e-06	1.978790e-06	7.002752e-10	1.376001e+01	4.725609e+01
2.290000e-06	2.022434e-06	7.149495e-10	1.406350e+01	4.839807e+01
2.300000e-06	2.066076e-06	7.278400e-10	1.436697e+01	4.951587e+01
2.310000e-06	2.109709e-06	7.393937e-10	1.467038e+01	5.060940e+01
2.320000e-06	2.153299e-06	7.529635e-10	1.497350e+01	5.167863e+01
2.330000e-06	2.196839e-06	7.698116e-10	1.527626e+01	5.272362e+01
2.340000e-06	2.240256e-06	7.850619e-10	1.557817e+01	5.374450e+01
2.350000e-06	2.283533e-06	7.981370e-10	1.587912e+01	5.474143e+01
2.360000e-06	2.326634e-06	8.111139e-10	1.617883e+01	5.571467e+01
2.370000e-06	2.369440e-06	8.242473e-10	1.647649e+01	5.666450e+01
2.380000e-06	2.411980e-06	8.356643e-10	1.677230e+01	5.759129e+01
2.390000e-06	2.454291e-06	8.470076e-10	1.706652e+01	5.849543e+01
2.400000e-06	2.496249e-06	8.580345e-10	1.735829e+01	5.937735e+01
2.410000e-06	2.537843e-06	8.697906e-10	1.764752e+01	6.023756e+01
2.420000e-06	2.579150e-06	8.812011e-10	1.793476e+01	6.107656e+01
2.430000e-06	2.620106e-06	8.915532e-10	1.821955e+01	6.189491e+01
2.440000e-06	2.660714e-06	9.026315e-10	1.850193e+01	6.269318e+01
2.450000e-06	2.701027e-06	9.144535e-10	1.878226e+01	6.347197e+01
2.460000e-06	2.741250e-06	9.241630e-10	1.906196e+01	6.423190e+01
2.470000e-06	2.781338e-06	9.332911e-10	1.934073e+01	6.497359e+01
2.480000e-06	2.821171e-06	9.434765e-10	1.961772e+01	6.569768e+01
2.490000e-06	2.860899e-06	9.531744e-10	1.989397e+01	6.640481e+01
2.500000e-06	2.900552e-06	9.631196e-10	2.016971e+01	6.709561e+01
2.510000e-06	2.940029e-06	9.761345e-10	2.044422e+01	6.777071e+01
2.520000e-06	2.979397e-06	9.896006e-10	2.071798e+01	6.843074e+01
2.530000e-06	3.018656e-06	9.996826e-10	2.099097e+01	6.907631e+01
2.540000e-06	3.057604e-06	1.008076e-09	2.126181e+01	6.970800e+01
2.550000e-06	3.096280e-06	1.016792e-09	2.153075e+01	7.032640e+01
2.560000e-06	3.134763e-06	1.022941e-09	2.179835e+01	7.093205e+01
2.570000e-06	3.173018e-06	1.027825e-09	2.206437e+01	7.152548e+01
2.580000e-06	3.211074e-06	1.035139e-09	2.232900e+01	7.210719e+01
2.590000e-06	3.248958e-06	1.044088e-09	2.259243e+01	7.267764e+01
2.600000e-06	3.286623e-06	1.054908e-09	2.285434e+01	7.323728e+01
2.610000e-06	3.324082e-06	1.066148e-09	2.311483e+01	7.378652e+01
2.620000e-06	3.361335e-06	1.074869e-09	2.337387e+01	7.432573e+01
2.630000e-06	3.398277e-06	1.083181e-09	2.363076e+01	7.485525e+01
2.640000e-06	3.434901e-06	1.091959e-09	2.388543e+01	7.537539e+01
2.650000e-06	3.471286e-06	1.099260e-09	2.413844e+01	7.588643e+01
2.660000e-06	3.507453e-06	1.108190e-09	2.438994e+01	7.638861e+01
2.670000e-06	3.543462e-06	1.118402e-09	2.464034e+01	7.688214e+01
2.680000e-06	3.579266e-06	1.126422e-09	2.488932e+01	7.736721e+01
2.690000e-06	3.614896e-06	1.131711e-09	2.513708e+01	7.784397e+01
2.700000e-06	3.650406e-06	1.133318e-09	2.538401e+01	7.831254e+01
2.710000e-06	3.685799e-06	1.136776e-09	2.563011e+01	7.877301e+01
2.720000e-06	3.721110e-06	1.144547e-09	2.587566e+01	7.922547e+01
2.730000e-06	3.756168e-06	1.153815e-09	2.611945e+01	7.966996e+01
2.740000e-06	3.790840e-06	1.162189e-09	2.636054e+01	8.010652e+01
2.750000e-06	3.825125e-06	1.169429e-09	2.659895e+01	8.053515e+01
2.760000e-06	3.858913e-06	1.176472e-09	2.683391e+01	8.095586e+01
2.770000e-06	3.892106e-06	1.180541e-09	2.706472e+01	8.136864e+01
2.780000e-06	3.924792e-06	1.182042e-09	2.729201e+01	8.177346e+01
2.790000e-06	3.957111e-06	1.185175e-09	2.751676e+01	8.217028e+01
2.800000e-06	3.989090e-06	1.190178e-09	2.773913e+01	8.255908e+01
2.810000e-06	4.020845e-06	1.195948e-09	2.795994e+01	8.293980e+01
2.820000e-06	4.052499e-06	1.203145e-09	2.818006e+01	8.331241e+01
2.830000e-06	4.084047e-06	1.209672e-09	2.839943e+01	8.367688e+01
2.840000e-06	4.115413e-06	1.215038e-09	2.861755e+01	8.403315e+01
2.850000e-06	4.146572e-06	1.218353e-09	2.883422e+01	8.438121e+01
2.860000e-06	4.177405e-06	1.220134e-09	2.904862e+01	8.472103e+01
2.870000e-06	4.207837e-06	1.220121e-09	2.926023e+01	8.505259e+01
2.880000e-06	4.237940e-06	1.222627e-09	2.946957e+01	8.537590e+01
2.890000e-06	4.267773e-06	1.227313e-09	2.967702e+01	8.569096e+01
2.900000e-06	4.297407e-06	1.230608e-09	2.988308e+01	8.599778e+01
