# Temperatura_=_-49.57
# Concentracion g/m^3_=_1620.0
# C_Vs_to_Am_M_A/Vsm_=_65563218390.804596
# pendiente_HvsI_1/m_=_3716.3
# ordenada_HvsI_A/m_=_1297.0
# frecuencia_Hz_=_135104.3292336276

Tiempo_(s)	Campo_(V.s)	Magnetizacion_(V.s)	Campo_(kA/m)	Magnetizacion_(A/m)
0.000000e+00	-5.520417e-06	-8.774569e-10	-3.838393e+01	-5.630491e+01
1.000000e-08	-5.520592e-06	-8.764840e-10	-3.838514e+01	-5.632873e+01
2.000000e-08	-5.520446e-06	-8.780377e-10	-3.838413e+01	-5.635081e+01
3.000000e-08	-5.519868e-06	-8.805011e-10	-3.838011e+01	-5.637102e+01
4.000000e-08	-5.518724e-06	-8.849828e-10	-3.837216e+01	-5.638922e+01
5.000000e-08	-5.517062e-06	-8.888863e-10	-3.836060e+01	-5.640531e+01
6.000000e-08	-5.514895e-06	-8.939267e-10	-3.834553e+01	-5.641917e+01
7.000000e-08	-5.512124e-06	-8.863369e-10	-3.832626e+01	-5.643071e+01
8.000000e-08	-5.508823e-06	-8.477914e-10	-3.830331e+01	-5.643985e+01
9.000000e-08	-5.505093e-06	-8.372143e-10	-3.827738e+01	-5.644652e+01
1.000000e-07	-5.501043e-06	-9.115955e-10	-3.824922e+01	-5.645065e+01
1.100000e-07	-5.496690e-06	-9.325024e-10	-3.821895e+01	-5.645221e+01
1.200000e-07	-5.492022e-06	-8.584891e-10	-3.818649e+01	-5.645117e+01
1.300000e-07	-5.487110e-06	-8.459466e-10	-3.815234e+01	-5.644750e+01
1.400000e-07	-5.481877e-06	-9.018219e-10	-3.811595e+01	-5.644120e+01
1.500000e-07	-5.476200e-06	-9.452252e-10	-3.807648e+01	-5.643229e+01
1.600000e-07	-5.470111e-06	-8.586842e-10	-3.803414e+01	-5.642079e+01
1.700000e-07	-5.463683e-06	-8.439086e-10	-3.798945e+01	-5.640673e+01
1.800000e-07	-5.456835e-06	-9.033105e-10	-3.794183e+01	-5.639017e+01
1.900000e-07	-5.449559e-06	-9.133817e-10	-3.789125e+01	-5.637116e+01
2.000000e-07	-5.441992e-06	-8.474921e-10	-3.783863e+01	-5.634978e+01
2.100000e-07	-5.434186e-06	-8.221744e-10	-3.778435e+01	-5.632610e+01
2.200000e-07	-5.426092e-06	-8.716567e-10	-3.772807e+01	-5.630021e+01
2.300000e-07	-5.417684e-06	-8.767122e-10	-3.766962e+01	-5.627222e+01
2.400000e-07	-5.408925e-06	-8.427777e-10	-3.760871e+01	-5.624221e+01
2.500000e-07	-5.399548e-06	-8.118536e-10	-3.754352e+01	-5.621030e+01
2.600000e-07	-5.389342e-06	-8.350797e-10	-3.747255e+01	-5.617659e+01
2.700000e-07	-5.378495e-06	-8.302835e-10	-3.739713e+01	-5.614120e+01
2.800000e-07	-5.367285e-06	-8.301764e-10	-3.731918e+01	-5.610423e+01
2.900000e-07	-5.355663e-06	-8.254715e-10	-3.723838e+01	-5.606580e+01
3.000000e-07	-5.343645e-06	-8.443798e-10	-3.715481e+01	-5.602602e+01
3.100000e-07	-5.331335e-06	-8.455924e-10	-3.706922e+01	-5.598499e+01
3.200000e-07	-5.318591e-06	-8.440307e-10	-3.698061e+01	-5.594282e+01
3.300000e-07	-5.305329e-06	-8.186048e-10	-3.688840e+01	-5.589960e+01
3.400000e-07	-5.291726e-06	-8.207692e-10	-3.679382e+01	-5.585541e+01
3.500000e-07	-5.277811e-06	-8.283518e-10	-3.669706e+01	-5.581035e+01
3.600000e-07	-5.263405e-06	-8.130880e-10	-3.659690e+01	-5.576448e+01
3.700000e-07	-5.248492e-06	-8.087486e-10	-3.649321e+01	-5.571787e+01
3.800000e-07	-5.233175e-06	-8.499808e-10	-3.638671e+01	-5.567057e+01
3.900000e-07	-5.217285e-06	-8.375413e-10	-3.627623e+01	-5.562263e+01
4.000000e-07	-5.200800e-06	-7.915105e-10	-3.616160e+01	-5.557408e+01
4.100000e-07	-5.184034e-06	-8.242325e-10	-3.604503e+01	-5.552493e+01
4.200000e-07	-5.167048e-06	-8.541843e-10	-3.592692e+01	-5.547521e+01
4.300000e-07	-5.149668e-06	-7.912921e-10	-3.580607e+01	-5.542491e+01
4.400000e-07	-5.131853e-06	-7.832933e-10	-3.568221e+01	-5.537401e+01
4.500000e-07	-5.113762e-06	-8.611569e-10	-3.555642e+01	-5.532250e+01
4.600000e-07	-5.095298e-06	-8.300000e-10	-3.542804e+01	-5.527034e+01
4.700000e-07	-5.076411e-06	-7.767895e-10	-3.529672e+01	-5.521748e+01
4.800000e-07	-5.057194e-06	-8.313891e-10	-3.516310e+01	-5.516388e+01
4.900000e-07	-5.037651e-06	-8.503058e-10	-3.502722e+01	-5.510947e+01
5.000000e-07	-5.017888e-06	-7.759044e-10	-3.488980e+01	-5.505418e+01
5.100000e-07	-4.997953e-06	-8.052041e-10	-3.475119e+01	-5.499793e+01
5.200000e-07	-4.977731e-06	-8.499063e-10	-3.461058e+01	-5.494063e+01
5.300000e-07	-4.957171e-06	-7.945281e-10	-3.446763e+01	-5.488220e+01
5.400000e-07	-4.936205e-06	-7.845691e-10	-3.432185e+01	-5.482254e+01
5.500000e-07	-4.914803e-06	-8.522149e-10	-3.417304e+01	-5.476155e+01
5.600000e-07	-4.893099e-06	-8.118964e-10	-3.402213e+01	-5.469913e+01
5.700000e-07	-4.871102e-06	-7.704552e-10	-3.386919e+01	-5.463518e+01
5.800000e-07	-4.848835e-06	-8.236256e-10	-3.371436e+01	-5.456958e+01
5.900000e-07	-4.826302e-06	-8.313241e-10	-3.355768e+01	-5.450225e+01
6.000000e-07	-4.803365e-06	-7.812671e-10	-3.339820e+01	-5.443307e+01
6.100000e-07	-4.780035e-06	-8.154750e-10	-3.323599e+01	-5.436194e+01
6.200000e-07	-4.756427e-06	-8.383985e-10	-3.307184e+01	-5.428877e+01
6.300000e-07	-4.732631e-06	-7.970060e-10	-3.290639e+01	-5.421347e+01
6.400000e-07	-4.708620e-06	-7.994392e-10	-3.273943e+01	-5.413595e+01
6.500000e-07	-4.684246e-06	-8.270272e-10	-3.256996e+01	-5.405612e+01
6.600000e-07	-4.659449e-06	-7.968252e-10	-3.239755e+01	-5.397391e+01
6.700000e-07	-4.634206e-06	-7.844606e-10	-3.222202e+01	-5.388925e+01
6.800000e-07	-4.608391e-06	-8.112037e-10	-3.204253e+01	-5.380207e+01
6.900000e-07	-4.581964e-06	-8.036727e-10	-3.185878e+01	-5.371233e+01
7.000000e-07	-4.554972e-06	-7.891590e-10	-3.167111e+01	-5.361997e+01
7.100000e-07	-4.527651e-06	-8.026632e-10	-3.148114e+01	-5.352496e+01
7.200000e-07	-4.500147e-06	-7.999692e-10	-3.128990e+01	-5.342726e+01
7.300000e-07	-4.472431e-06	-7.818336e-10	-3.109719e+01	-5.332684e+01
7.400000e-07	-4.444554e-06	-7.870136e-10	-3.090336e+01	-5.322370e+01
7.500000e-07	-4.416460e-06	-7.871966e-10	-3.070802e+01	-5.311782e+01
7.600000e-07	-4.388070e-06	-7.761062e-10	-3.051062e+01	-5.300919e+01
7.700000e-07	-4.359393e-06	-7.767701e-10	-3.031123e+01	-5.289784e+01
7.800000e-07	-4.330352e-06	-7.830024e-10	-3.010931e+01	-5.278376e+01
7.900000e-07	-4.300962e-06	-7.720244e-10	-2.990495e+01	-5.266697e+01
8.000000e-07	-4.271349e-06	-7.705540e-10	-2.969905e+01	-5.254750e+01
8.100000e-07	-4.241443e-06	-7.716423e-10	-2.949111e+01	-5.242537e+01
8.200000e-07	-4.211210e-06	-7.615511e-10	-2.928090e+01	-5.230061e+01
8.300000e-07	-4.180689e-06	-7.494700e-10	-2.906868e+01	-5.217326e+01
8.400000e-07	-4.149839e-06	-7.543271e-10	-2.885419e+01	-5.204335e+01
8.500000e-07	-4.118703e-06	-7.522830e-10	-2.863769e+01	-5.191092e+01
8.600000e-07	-4.087355e-06	-7.479430e-10	-2.841973e+01	-5.177600e+01
8.700000e-07	-4.055820e-06	-7.522489e-10	-2.820046e+01	-5.163865e+01
8.800000e-07	-4.024164e-06	-7.555902e-10	-2.798036e+01	-5.149890e+01
8.900000e-07	-3.992341e-06	-7.451227e-10	-2.775909e+01	-5.135677e+01
9.000000e-07	-3.960249e-06	-7.404204e-10	-2.753595e+01	-5.121232e+01
9.100000e-07	-3.927859e-06	-7.370468e-10	-2.731073e+01	-5.106558e+01
9.200000e-07	-3.895191e-06	-7.272420e-10	-2.708360e+01	-5.091657e+01
9.300000e-07	-3.862106e-06	-7.235292e-10	-2.685355e+01	-5.076532e+01
9.400000e-07	-3.828455e-06	-7.306993e-10	-2.661957e+01	-5.061185e+01
9.500000e-07	-3.794287e-06	-7.289239e-10	-2.638200e+01	-5.045619e+01
9.600000e-07	-3.759676e-06	-7.231743e-10	-2.614135e+01	-5.029835e+01
9.700000e-07	-3.724748e-06	-7.247026e-10	-2.589849e+01	-5.013833e+01
9.800000e-07	-3.689558e-06	-7.250928e-10	-2.565381e+01	-4.997614e+01
9.900000e-07	-3.654115e-06	-7.180053e-10	-2.540737e+01	-4.981177e+01
1.000000e-06	-3.618476e-06	-7.145447e-10	-2.515957e+01	-4.964522e+01
1.010000e-06	-3.582695e-06	-7.176832e-10	-2.491078e+01	-4.947647e+01
1.020000e-06	-3.546825e-06	-7.137843e-10	-2.466137e+01	-4.930550e+01
1.030000e-06	-3.510790e-06	-7.084962e-10	-2.441082e+01	-4.913229e+01
1.040000e-06	-3.474505e-06	-7.096577e-10	-2.415853e+01	-4.895681e+01
1.050000e-06	-3.437942e-06	-7.095139e-10	-2.390430e+01	-4.877901e+01
1.060000e-06	-3.401105e-06	-7.040383e-10	-2.364817e+01	-4.859885e+01
1.070000e-06	-3.363988e-06	-7.032392e-10	-2.339009e+01	-4.841629e+01
1.080000e-06	-3.326560e-06	-7.016235e-10	-2.312985e+01	-4.823127e+01
1.090000e-06	-3.288911e-06	-6.979927e-10	-2.286807e+01	-4.804373e+01
1.100000e-06	-3.251111e-06	-6.933333e-10	-2.260525e+01	-4.785362e+01
1.110000e-06	-3.213198e-06	-6.928845e-10	-2.234164e+01	-4.766086e+01
1.120000e-06	-3.175043e-06	-6.891448e-10	-2.207634e+01	-4.746538e+01
1.130000e-06	-3.136606e-06	-6.847664e-10	-2.180909e+01	-4.726711e+01
1.140000e-06	-3.097905e-06	-6.822327e-10	-2.154000e+01	-4.706597e+01
1.150000e-06	-3.058957e-06	-6.801444e-10	-2.126918e+01	-4.686187e+01
1.160000e-06	-3.019837e-06	-6.755824e-10	-2.099718e+01	-4.665474e+01
1.170000e-06	-2.980571e-06	-6.724453e-10	-2.072416e+01	-4.644449e+01
1.180000e-06	-2.941143e-06	-6.691711e-10	-2.045001e+01	-4.623102e+01
1.190000e-06	-2.901519e-06	-6.655053e-10	-2.017451e+01	-4.601424e+01
1.200000e-06	-2.861758e-06	-6.626411e-10	-1.989804e+01	-4.579406e+01
1.210000e-06	-2.821932e-06	-6.615181e-10	-1.962113e+01	-4.557038e+01
1.220000e-06	-2.781984e-06	-6.581256e-10	-1.934337e+01	-4.534310e+01
1.230000e-06	-2.741860e-06	-6.540689e-10	-1.906438e+01	-4.511212e+01
1.240000e-06	-2.701589e-06	-6.490058e-10	-1.878438e+01	-4.487733e+01
1.250000e-06	-2.661069e-06	-6.442944e-10	-1.850264e+01	-4.463862e+01
1.260000e-06	-2.620286e-06	-6.400376e-10	-1.821907e+01	-4.439589e+01
1.270000e-06	-2.579230e-06	-6.372173e-10	-1.793361e+01	-4.414902e+01
1.280000e-06	-2.537917e-06	-6.370651e-10	-1.764635e+01	-4.389790e+01
1.290000e-06	-2.496343e-06	-6.355211e-10	-1.735729e+01	-4.364240e+01
1.300000e-06	-2.454480e-06	-6.323627e-10	-1.706621e+01	-4.338240e+01
1.310000e-06	-2.412347e-06	-6.278473e-10	-1.677325e+01	-4.311779e+01
1.320000e-06	-2.369868e-06	-6.223467e-10	-1.647790e+01	-4.284842e+01
1.330000e-06	-2.327014e-06	-6.149646e-10	-1.617993e+01	-4.257416e+01
1.340000e-06	-2.283884e-06	-6.077843e-10	-1.588004e+01	-4.229487e+01
1.350000e-06	-2.240586e-06	-6.031443e-10	-1.557898e+01	-4.201041e+01
1.360000e-06	-2.197217e-06	-6.009748e-10	-1.527743e+01	-4.172063e+01
1.370000e-06	-2.153753e-06	-5.984929e-10	-1.497523e+01	-4.142538e+01
1.380000e-06	-2.110146e-06	-5.952712e-10	-1.467202e+01	-4.112450e+01
1.390000e-06	-2.066453e-06	-5.897258e-10	-1.436822e+01	-4.081782e+01
1.400000e-06	-2.022670e-06	-5.833362e-10	-1.406379e+01	-4.050517e+01
1.410000e-06	-1.978771e-06	-5.779129e-10	-1.375856e+01	-4.018639e+01
1.420000e-06	-1.934737e-06	-5.738786e-10	-1.345239e+01	-3.986128e+01
1.430000e-06	-1.890704e-06	-5.685920e-10	-1.314623e+01	-3.952967e+01
1.440000e-06	-1.846698e-06	-5.632205e-10	-1.284024e+01	-3.919135e+01
1.450000e-06	-1.802591e-06	-5.575536e-10	-1.253357e+01	-3.884615e+01
1.460000e-06	-1.758334e-06	-5.517952e-10	-1.222585e+01	-3.849385e+01
1.470000e-06	-1.713846e-06	-5.447169e-10	-1.191652e+01	-3.813426e+01
1.480000e-06	-1.669124e-06	-5.378207e-10	-1.160556e+01	-3.776717e+01
1.490000e-06	-1.624266e-06	-5.317991e-10	-1.129366e+01	-3.739237e+01
1.500000e-06	-1.579352e-06	-5.251845e-10	-1.098137e+01	-3.700964e+01
1.510000e-06	-1.534408e-06	-5.181346e-10	-1.066887e+01	-3.661878e+01
1.520000e-06	-1.489343e-06	-5.107134e-10	-1.035553e+01	-3.621956e+01
1.530000e-06	-1.444066e-06	-5.037039e-10	-1.004071e+01	-3.581179e+01
1.540000e-06	-1.398696e-06	-5.000162e-10	-9.725248e+00	-3.539524e+01
1.550000e-06	-1.353249e-06	-4.956784e-10	-9.409253e+00	-3.496970e+01
1.560000e-06	-1.307708e-06	-4.889056e-10	-9.092606e+00	-3.453497e+01
1.570000e-06	-1.262087e-06	-4.813158e-10	-8.775401e+00	-3.409085e+01
1.580000e-06	-1.216382e-06	-4.726458e-10	-8.457608e+00	-3.363714e+01
1.590000e-06	-1.170638e-06	-4.633794e-10	-8.139542e+00	-3.317365e+01
1.600000e-06	-1.124777e-06	-4.560323e-10	-7.820667e+00	-3.270019e+01
1.610000e-06	-1.078753e-06	-4.497252e-10	-7.500660e+00	-3.221660e+01
1.620000e-06	-1.032710e-06	-4.421561e-10	-7.180517e+00	-3.172271e+01
1.630000e-06	-9.866535e-07	-4.350994e-10	-6.860285e+00	-3.121837e+01
1.640000e-06	-9.405331e-07	-4.283393e-10	-6.539606e+00	-3.070344e+01
1.650000e-06	-8.943583e-07	-4.195807e-10	-6.218549e+00	-3.017779e+01
1.660000e-06	-8.480753e-07	-4.085524e-10	-5.896739e+00	-2.964133e+01
1.670000e-06	-8.017057e-07	-3.979040e-10	-5.574327e+00	-2.909394e+01
1.680000e-06	-7.552902e-07	-3.885334e-10	-5.251597e+00	-2.853556e+01
1.690000e-06	-7.088757e-07	-3.830411e-10	-4.928873e+00	-2.796613e+01
1.700000e-06	-6.624688e-07	-3.801411e-10	-4.606202e+00	-2.738559e+01
1.710000e-06	-6.160164e-07	-3.758044e-10	-4.283214e+00	-2.679394e+01
1.720000e-06	-5.694807e-07	-3.679832e-10	-3.959648e+00	-2.619116e+01
1.730000e-06	-5.228707e-07	-3.580847e-10	-3.635564e+00	-2.557728e+01
1.740000e-06	-4.762188e-07	-3.453124e-10	-3.311190e+00	-2.495233e+01
1.750000e-06	-4.295331e-07	-3.322437e-10	-2.986580e+00	-2.431638e+01
1.760000e-06	-3.828192e-07	-3.220316e-10	-2.661774e+00	-2.366949e+01
1.770000e-06	-3.360338e-07	-3.132175e-10	-2.336472e+00	-2.301178e+01
1.780000e-06	-2.892465e-07	-3.042380e-10	-2.011155e+00	-2.234337e+01
1.790000e-06	-2.425217e-07	-2.967545e-10	-1.686274e+00	-2.166440e+01
1.800000e-06	-1.957289e-07	-2.904385e-10	-1.360920e+00	-2.097503e+01
1.810000e-06	-1.488151e-07	-2.823747e-10	-1.034724e+00	-2.027545e+01
1.820000e-06	-1.018941e-07	-2.712708e-10	-7.084786e-01	-1.956586e+01
1.830000e-06	-5.495627e-08	-2.566695e-10	-3.821156e-01	-1.884650e+01
1.840000e-06	-8.036502e-09	-2.401672e-10	-5.587848e-02	-1.811759e+01
1.850000e-06	3.877879e-08	-2.261324e-10	2.696322e-01	-1.737940e+01
1.860000e-06	8.554334e-08	-2.159253e-10	5.947901e-01	-1.663220e+01
1.870000e-06	1.323448e-07	-2.077744e-10	9.202043e-01	-1.587629e+01
1.880000e-06	1.791489e-07	-2.013859e-10	1.245638e+00	-1.511198e+01
1.890000e-06	2.259447e-07	-1.958083e-10	1.571013e+00	-1.433959e+01
1.900000e-06	2.727837e-07	-1.878229e-10	1.896688e+00	-1.355944e+01
1.910000e-06	3.195952e-07	-1.753829e-10	2.222172e+00	-1.277189e+01
1.920000e-06	3.664008e-07	-1.585828e-10	2.547616e+00	-1.197729e+01
1.930000e-06	4.131536e-07	-1.407771e-10	2.872692e+00	-1.117600e+01
1.940000e-06	4.598262e-07	-1.244799e-10	3.197210e+00	-1.036841e+01
1.950000e-06	5.064088e-07	-1.111987e-10	3.521103e+00	-9.554882e+00
1.960000e-06	5.529136e-07	-1.018264e-10	3.844455e+00	-8.735809e+00
1.970000e-06	5.994400e-07	-9.471823e-11	4.167957e+00	-7.911582e+00
1.980000e-06	6.459025e-07	-8.742323e-11	4.491015e+00	-7.082593e+00
1.990000e-06	6.922808e-07	-7.813928e-11	4.813487e+00	-6.249240e+00
2.000000e-06	7.386486e-07	-6.644071e-11	5.135886e+00	-5.411920e+00
2.010000e-06	7.849993e-07	-4.981191e-11	5.458166e+00	-4.571032e+00
2.020000e-06	8.312150e-07	-3.337869e-11	5.779508e+00	-3.726976e+00
2.030000e-06	8.773595e-07	-1.728783e-11	6.100355e+00	-2.880148e+00
2.040000e-06	9.235532e-07	-3.269769e-12	6.421544e+00	-2.030945e+00
2.050000e-06	9.695833e-07	6.307180e-12	6.741595e+00	-1.179763e+00
2.060000e-06	1.015487e-06	1.478499e-11	7.060765e+00	-3.269918e-01
2.070000e-06	1.061396e-06	2.583343e-11	7.379979e+00	5.269793e-01
2.080000e-06	1.107202e-06	3.820414e-11	7.698472e+00	1.381765e+00
2.090000e-06	1.152912e-06	5.198040e-11	8.016297e+00	2.236983e+00
2.100000e-06	1.198557e-06	6.560836e-11	8.333670e+00	3.092257e+00
2.110000e-06	1.244080e-06	7.805245e-11	8.650192e+00	3.947212e+00
2.120000e-06	1.289531e-06	9.015925e-11	8.966220e+00	4.801479e+00
2.130000e-06	1.334927e-06	1.012267e-10	9.281861e+00	5.654691e+00
2.140000e-06	1.380237e-06	1.116772e-10	9.596905e+00	6.506486e+00
2.150000e-06	1.425450e-06	1.210919e-10	9.911272e+00	7.356507e+00
2.160000e-06	1.470621e-06	1.320266e-10	1.022535e+01	8.204398e+00
2.170000e-06	1.515707e-06	1.441591e-10	1.053884e+01	9.049809e+00
2.180000e-06	1.560655e-06	1.561416e-10	1.085136e+01	9.892392e+00
2.190000e-06	1.605549e-06	1.688295e-10	1.116352e+01	1.073180e+01
2.200000e-06	1.650260e-06	1.815497e-10	1.147440e+01	1.156770e+01
2.210000e-06	1.694816e-06	1.915667e-10	1.178420e+01	1.239974e+01
2.220000e-06	1.739314e-06	2.005452e-10	1.209360e+01	1.322759e+01
2.230000e-06	1.783631e-06	2.095650e-10	1.240174e+01	1.405091e+01
2.240000e-06	1.827754e-06	2.205033e-10	1.270853e+01	1.486938e+01
2.250000e-06	1.871785e-06	2.329045e-10	1.301468e+01	1.568266e+01
2.260000e-06	1.915758e-06	2.476326e-10	1.332043e+01	1.649042e+01
2.270000e-06	1.959627e-06	2.609574e-10	1.362545e+01	1.729234e+01
2.280000e-06	2.003374e-06	2.711245e-10	1.392963e+01	1.808810e+01
2.290000e-06	2.047075e-06	2.801455e-10	1.423349e+01	1.887737e+01
2.300000e-06	2.090726e-06	2.889116e-10	1.453699e+01	1.965983e+01
2.310000e-06	2.134334e-06	2.974234e-10	1.484020e+01	2.043518e+01
2.320000e-06	2.177856e-06	3.068214e-10	1.514282e+01	2.120310e+01
2.330000e-06	2.221242e-06	3.177798e-10	1.544448e+01	2.196327e+01
2.340000e-06	2.264506e-06	3.295682e-10	1.574530e+01	2.271541e+01
2.350000e-06	2.307567e-06	3.409412e-10	1.604471e+01	2.345921e+01
2.360000e-06	2.350332e-06	3.504282e-10	1.634206e+01	2.419438e+01
2.370000e-06	2.392805e-06	3.579265e-10	1.663737e+01	2.492064e+01
2.380000e-06	2.435027e-06	3.654909e-10	1.693095e+01	2.563771e+01
2.390000e-06	2.476930e-06	3.735840e-10	1.722230e+01	2.634532e+01
2.400000e-06	2.518481e-06	3.824172e-10	1.751121e+01	2.704321e+01
2.410000e-06	2.559743e-06	3.940483e-10	1.779811e+01	2.773115e+01
2.420000e-06	2.600796e-06	4.059963e-10	1.808355e+01	2.840888e+01
2.430000e-06	2.641633e-06	4.165012e-10	1.836750e+01	2.907620e+01
2.440000e-06	2.682222e-06	4.252125e-10	1.864972e+01	2.973289e+01
2.450000e-06	2.722548e-06	4.338353e-10	1.893011e+01	3.037876e+01
2.460000e-06	2.762675e-06	4.434358e-10	1.920911e+01	3.101363e+01
2.470000e-06	2.802696e-06	4.510807e-10	1.948738e+01	3.163735e+01
2.480000e-06	2.842566e-06	4.587725e-10	1.976460e+01	3.224976e+01
2.490000e-06	2.882289e-06	4.667677e-10	2.004080e+01	3.285076e+01
2.500000e-06	2.921888e-06	4.742888e-10	2.031614e+01	3.344023e+01
2.510000e-06	2.961341e-06	4.827411e-10	2.059046e+01	3.401809e+01
2.520000e-06	3.000696e-06	4.923453e-10	2.086410e+01	3.458429e+01
2.530000e-06	3.039854e-06	5.029234e-10	2.113636e+01	3.513879e+01
2.540000e-06	3.078778e-06	5.136600e-10	2.140700e+01	3.568156e+01
2.550000e-06	3.117466e-06	5.237273e-10	2.167600e+01	3.621262e+01
2.560000e-06	3.155899e-06	5.298795e-10	2.194323e+01	3.673199e+01
2.570000e-06	3.194051e-06	5.351582e-10	2.220851e+01	3.723973e+01
2.580000e-06	3.231963e-06	5.417426e-10	2.247211e+01	3.773591e+01
2.590000e-06	3.269740e-06	5.497909e-10	2.273478e+01	3.822063e+01
2.600000e-06	3.307299e-06	5.586446e-10	2.299593e+01	3.869401e+01
2.610000e-06	3.344654e-06	5.676065e-10	2.325566e+01	3.915619e+01
2.620000e-06	3.381768e-06	5.772075e-10	2.351372e+01	3.960733e+01
2.630000e-06	3.418561e-06	5.861589e-10	2.376954e+01	4.004761e+01
2.640000e-06	3.455070e-06	5.935555e-10	2.402339e+01	4.047723e+01
2.650000e-06	3.491363e-06	6.004617e-10	2.427574e+01	4.089642e+01
2.660000e-06	3.527486e-06	6.080387e-10	2.452691e+01	4.130540e+01
2.670000e-06	3.563440e-06	6.155532e-10	2.477690e+01	4.170442e+01
2.680000e-06	3.599249e-06	6.197771e-10	2.502588e+01	4.209375e+01
2.690000e-06	3.634954e-06	6.219834e-10	2.527414e+01	4.247366e+01
2.700000e-06	3.670474e-06	6.245045e-10	2.552112e+01	4.284444e+01
2.710000e-06	3.705754e-06	6.298631e-10	2.576642e+01	4.320637e+01
2.720000e-06	3.740804e-06	6.368327e-10	2.601012e+01	4.355976e+01
2.730000e-06	3.775532e-06	6.431472e-10	2.625159e+01	4.390491e+01
2.740000e-06	3.809799e-06	6.492354e-10	2.648985e+01	4.424212e+01
2.750000e-06	3.843555e-06	6.539305e-10	2.672456e+01	4.457169e+01
2.760000e-06	3.876897e-06	6.572852e-10	2.695640e+01	4.489394e+01
2.770000e-06	3.909904e-06	6.600293e-10	2.718589e+01	4.520916e+01
2.780000e-06	3.942486e-06	6.643188e-10	2.741244e+01	4.551764e+01
2.790000e-06	3.974672e-06	6.703036e-10	2.763623e+01	4.581967e+01
2.800000e-06	4.006610e-06	6.761241e-10	2.785830e+01	4.611552e+01
2.810000e-06	4.038375e-06	6.811061e-10	2.807917e+01	4.640547e+01
2.820000e-06	4.069934e-06	6.846784e-10	2.829859e+01	4.668976e+01
2.830000e-06	4.101317e-06	6.876407e-10	2.851681e+01	4.696864e+01
2.840000e-06	4.132561e-06	6.912284e-10	2.873404e+01	4.724233e+01
2.850000e-06	4.163487e-06	6.947197e-10	2.894908e+01	4.751103e+01
2.860000e-06	4.194038e-06	6.982273e-10	2.916150e+01	4.777494e+01
2.870000e-06	4.224243e-06	7.016871e-10	2.937152e+01	4.803422e+01
2.880000e-06	4.254182e-06	7.041897e-10	2.957969e+01	4.828903e+01
2.890000e-06	4.283926e-06	7.043084e-10	2.978650e+01	4.853951e+01
2.900000e-06	4.313384e-06	7.038114e-10	2.999133e+01	4.878575e+01
