# Temperatura_=_14.9
# Concentracion g/m^3_=_1620.0
# C_Vs_to_Am_M_A/Vsm_=_65563218390.804596
# pendiente_HvsI_1/m_=_3716.3
# ordenada_HvsI_A/m_=_1297.0
# frecuencia_Hz_=_135105.99943722843

Tiempo_(s)	Campo_(V.s)	Magnetizacion_(V.s)	Campo_(kA/m)	Magnetizacion_(A/m)
0.000000e+00	-5.514133e-06	-1.163445e-09	-3.836964e+01	-7.579929e+01
1.000000e-08	-5.514442e-06	-1.158325e-09	-3.837180e+01	-7.577580e+01
2.000000e-08	-5.514503e-06	-1.154832e-09	-3.837222e+01	-7.574701e+01
3.000000e-08	-5.514257e-06	-1.153711e-09	-3.837050e+01	-7.571271e+01
4.000000e-08	-5.513584e-06	-1.154753e-09	-3.836582e+01	-7.567271e+01
5.000000e-08	-5.512326e-06	-1.157507e-09	-3.835707e+01	-7.562685e+01
6.000000e-08	-5.510475e-06	-1.160263e-09	-3.834419e+01	-7.557500e+01
7.000000e-08	-5.507998e-06	-1.169800e-09	-3.832696e+01	-7.551705e+01
8.000000e-08	-5.504933e-06	-1.174447e-09	-3.830563e+01	-7.545293e+01
9.000000e-08	-5.501358e-06	-1.135874e-09	-3.828075e+01	-7.538262e+01
1.000000e-07	-5.497386e-06	-1.113812e-09	-3.825311e+01	-7.530611e+01
1.100000e-07	-5.493125e-06	-1.180587e-09	-3.822347e+01	-7.522345e+01
1.200000e-07	-5.488639e-06	-1.189962e-09	-3.819225e+01	-7.513470e+01
1.300000e-07	-5.483856e-06	-1.137476e-09	-3.815897e+01	-7.503997e+01
1.400000e-07	-5.478723e-06	-1.097534e-09	-3.812325e+01	-7.493941e+01
1.500000e-07	-5.473271e-06	-1.156574e-09	-3.808531e+01	-7.483319e+01
1.600000e-07	-5.467436e-06	-1.216149e-09	-3.804470e+01	-7.472152e+01
1.700000e-07	-5.461227e-06	-1.124968e-09	-3.800150e+01	-7.460464e+01
1.800000e-07	-5.454559e-06	-1.092909e-09	-3.795510e+01	-7.448281e+01
1.900000e-07	-5.447417e-06	-1.112011e-09	-3.790541e+01	-7.435632e+01
2.000000e-07	-5.439982e-06	-1.175775e-09	-3.785367e+01	-7.422547e+01
2.100000e-07	-5.432306e-06	-1.117031e-09	-3.780026e+01	-7.409061e+01
2.200000e-07	-5.424404e-06	-1.096912e-09	-3.774527e+01	-7.395208e+01
2.300000e-07	-5.416261e-06	-1.080204e-09	-3.768861e+01	-7.381023e+01
2.400000e-07	-5.407723e-06	-1.105313e-09	-3.762920e+01	-7.366544e+01
2.500000e-07	-5.398641e-06	-1.068269e-09	-3.756600e+01	-7.351807e+01
2.600000e-07	-5.388877e-06	-1.061627e-09	-3.749806e+01	-7.336850e+01
2.700000e-07	-5.378338e-06	-1.080236e-09	-3.742472e+01	-7.321710e+01
2.800000e-07	-5.367235e-06	-1.097691e-09	-3.734747e+01	-7.306422e+01
2.900000e-07	-5.355728e-06	-1.078978e-09	-3.726740e+01	-7.291023e+01
3.000000e-07	-5.343800e-06	-1.047906e-09	-3.718439e+01	-7.275546e+01
3.100000e-07	-5.331567e-06	-1.063084e-09	-3.709927e+01	-7.260024e+01
3.200000e-07	-5.319064e-06	-1.068386e-09	-3.701228e+01	-7.244485e+01
3.300000e-07	-5.306088e-06	-1.076417e-09	-3.692198e+01	-7.228959e+01
3.400000e-07	-5.292620e-06	-1.041418e-09	-3.682827e+01	-7.213469e+01
3.500000e-07	-5.278773e-06	-1.072599e-09	-3.673191e+01	-7.198038e+01
3.600000e-07	-5.264458e-06	-1.080622e-09	-3.663230e+01	-7.182685e+01
3.700000e-07	-5.249663e-06	-1.065507e-09	-3.652935e+01	-7.167425e+01
3.800000e-07	-5.234418e-06	-1.025585e-09	-3.642327e+01	-7.152271e+01
3.900000e-07	-5.218748e-06	-1.070985e-09	-3.631423e+01	-7.137230e+01
4.000000e-07	-5.202619e-06	-1.055848e-09	-3.620200e+01	-7.122308e+01
4.100000e-07	-5.186036e-06	-1.029062e-09	-3.608661e+01	-7.107505e+01
4.200000e-07	-5.169151e-06	-1.051457e-09	-3.596912e+01	-7.092820e+01
4.300000e-07	-5.151962e-06	-1.093355e-09	-3.584951e+01	-7.078244e+01
4.400000e-07	-5.134391e-06	-1.018383e-09	-3.572724e+01	-7.063769e+01
4.500000e-07	-5.116468e-06	-1.006942e-09	-3.560252e+01	-7.049382e+01
4.600000e-07	-5.098111e-06	-1.061793e-09	-3.547479e+01	-7.035064e+01
4.700000e-07	-5.079314e-06	-1.048957e-09	-3.534399e+01	-7.020798e+01
4.800000e-07	-5.060148e-06	-9.918147e-10	-3.521063e+01	-7.006559e+01
4.900000e-07	-5.040693e-06	-1.047899e-09	-3.507525e+01	-6.992322e+01
5.000000e-07	-5.021093e-06	-1.055985e-09	-3.493887e+01	-6.978061e+01
5.100000e-07	-5.001285e-06	-9.924419e-10	-3.480104e+01	-6.963744e+01
5.200000e-07	-4.981164e-06	-1.007748e-09	-3.466102e+01	-6.949341e+01
5.300000e-07	-4.960740e-06	-1.047776e-09	-3.451891e+01	-6.934818e+01
5.400000e-07	-4.939884e-06	-9.848082e-10	-3.437378e+01	-6.920142e+01
5.500000e-07	-4.918700e-06	-9.795278e-10	-3.422637e+01	-6.905278e+01
5.600000e-07	-4.897270e-06	-1.049656e-09	-3.407726e+01	-6.890191e+01
5.700000e-07	-4.875478e-06	-1.023963e-09	-3.392561e+01	-6.874847e+01
5.800000e-07	-4.853379e-06	-9.809992e-10	-3.377184e+01	-6.859210e+01
5.900000e-07	-4.830859e-06	-1.021073e-09	-3.361514e+01	-6.843247e+01
6.000000e-07	-4.807868e-06	-1.020463e-09	-3.345516e+01	-6.826925e+01
6.100000e-07	-4.784580e-06	-9.676107e-10	-3.329311e+01	-6.810213e+01
6.200000e-07	-4.761101e-06	-9.967302e-10	-3.312973e+01	-6.793082e+01
6.300000e-07	-4.737414e-06	-1.015519e-09	-3.296491e+01	-6.775503e+01
6.400000e-07	-4.713512e-06	-9.852363e-10	-3.279859e+01	-6.757453e+01
6.500000e-07	-4.689329e-06	-9.841601e-10	-3.263031e+01	-6.738907e+01
6.600000e-07	-4.664691e-06	-1.006700e-09	-3.245887e+01	-6.719846e+01
6.700000e-07	-4.639506e-06	-9.731877e-10	-3.228363e+01	-6.700251e+01
6.800000e-07	-4.613770e-06	-9.670936e-10	-3.210454e+01	-6.680110e+01
6.900000e-07	-4.587549e-06	-9.784468e-10	-3.192209e+01	-6.659410e+01
7.000000e-07	-4.560824e-06	-9.692547e-10	-3.173612e+01	-6.638142e+01
7.100000e-07	-4.533581e-06	-9.514682e-10	-3.154656e+01	-6.616303e+01
7.200000e-07	-4.506112e-06	-9.680404e-10	-3.135541e+01	-6.593889e+01
7.300000e-07	-4.478537e-06	-9.563770e-10	-3.116353e+01	-6.570901e+01
7.400000e-07	-4.450781e-06	-9.425147e-10	-3.097039e+01	-6.547343e+01
7.500000e-07	-4.422848e-06	-9.409158e-10	-3.077603e+01	-6.523221e+01
7.600000e-07	-4.394703e-06	-9.454261e-10	-3.058018e+01	-6.498546e+01
7.700000e-07	-4.366220e-06	-9.373671e-10	-3.038198e+01	-6.473328e+01
7.800000e-07	-4.337321e-06	-9.451689e-10	-3.018089e+01	-6.447582e+01
7.900000e-07	-4.308097e-06	-9.444317e-10	-2.997754e+01	-6.421322e+01
8.000000e-07	-4.278648e-06	-9.321252e-10	-2.977262e+01	-6.394569e+01
8.100000e-07	-4.248947e-06	-9.198290e-10	-2.956595e+01	-6.367339e+01
8.200000e-07	-4.218856e-06	-9.119285e-10	-2.935657e+01	-6.339655e+01
8.300000e-07	-4.188402e-06	-8.966117e-10	-2.914466e+01	-6.311537e+01
8.400000e-07	-4.157642e-06	-8.909446e-10	-2.893061e+01	-6.283008e+01
8.500000e-07	-4.126595e-06	-9.002501e-10	-2.871457e+01	-6.254089e+01
8.600000e-07	-4.095361e-06	-9.028320e-10	-2.849724e+01	-6.224804e+01
8.700000e-07	-4.063956e-06	-8.964997e-10	-2.827870e+01	-6.195175e+01
8.800000e-07	-4.032387e-06	-8.926996e-10	-2.805903e+01	-6.165224e+01
8.900000e-07	-4.000694e-06	-8.875206e-10	-2.783850e+01	-6.134971e+01
9.000000e-07	-3.968841e-06	-8.708718e-10	-2.761685e+01	-6.104436e+01
9.100000e-07	-3.936676e-06	-8.645731e-10	-2.739304e+01	-6.073638e+01
9.200000e-07	-3.904161e-06	-8.609879e-10	-2.716678e+01	-6.042594e+01
9.300000e-07	-3.871190e-06	-8.567434e-10	-2.693736e+01	-6.011320e+01
9.400000e-07	-3.837828e-06	-8.528585e-10	-2.670521e+01	-5.979828e+01
9.500000e-07	-3.804074e-06	-8.592128e-10	-2.647034e+01	-5.948131e+01
9.600000e-07	-3.769684e-06	-8.524789e-10	-2.623104e+01	-5.916238e+01
9.700000e-07	-3.734825e-06	-8.417389e-10	-2.598847e+01	-5.884155e+01
9.800000e-07	-3.699721e-06	-8.349241e-10	-2.574420e+01	-5.851889e+01
9.900000e-07	-3.664365e-06	-8.332279e-10	-2.549819e+01	-5.819441e+01
1.000000e-06	-3.628831e-06	-8.224300e-10	-2.525093e+01	-5.786813e+01
1.010000e-06	-3.593216e-06	-8.207801e-10	-2.500310e+01	-5.754002e+01
1.020000e-06	-3.557487e-06	-8.215535e-10	-2.475449e+01	-5.721004e+01
1.030000e-06	-3.521616e-06	-8.175259e-10	-2.450488e+01	-5.687814e+01
1.040000e-06	-3.485522e-06	-8.084147e-10	-2.425372e+01	-5.654423e+01
1.050000e-06	-3.449151e-06	-8.094639e-10	-2.400064e+01	-5.620823e+01
1.060000e-06	-3.412512e-06	-8.060191e-10	-2.374568e+01	-5.587001e+01
1.070000e-06	-3.375588e-06	-7.999764e-10	-2.348875e+01	-5.552945e+01
1.080000e-06	-3.338419e-06	-7.947517e-10	-2.323012e+01	-5.518640e+01
1.090000e-06	-3.301001e-06	-7.917199e-10	-2.296975e+01	-5.484072e+01
1.100000e-06	-3.263339e-06	-7.832261e-10	-2.270768e+01	-5.449225e+01
1.110000e-06	-3.225494e-06	-7.748575e-10	-2.244434e+01	-5.414082e+01
1.120000e-06	-3.187490e-06	-7.694245e-10	-2.217989e+01	-5.378626e+01
1.130000e-06	-3.149270e-06	-7.626889e-10	-2.191394e+01	-5.342840e+01
1.140000e-06	-3.110765e-06	-7.569806e-10	-2.164600e+01	-5.306707e+01
1.150000e-06	-3.071955e-06	-7.546817e-10	-2.137595e+01	-5.270209e+01
1.160000e-06	-3.032889e-06	-7.508312e-10	-2.110411e+01	-5.233330e+01
1.170000e-06	-2.993693e-06	-7.427286e-10	-2.083137e+01	-5.196054e+01
1.180000e-06	-2.954404e-06	-7.364428e-10	-2.055798e+01	-5.158365e+01
1.190000e-06	-2.914931e-06	-7.303813e-10	-2.028331e+01	-5.120249e+01
1.200000e-06	-2.875270e-06	-7.225534e-10	-2.000733e+01	-5.081693e+01
1.210000e-06	-2.835538e-06	-7.129563e-10	-1.973086e+01	-5.042683e+01
1.220000e-06	-2.795737e-06	-7.057679e-10	-1.945391e+01	-5.003207e+01
1.230000e-06	-2.755764e-06	-6.968946e-10	-1.917576e+01	-4.963256e+01
1.240000e-06	-2.715583e-06	-6.904865e-10	-1.889616e+01	-4.922820e+01
1.250000e-06	-2.675195e-06	-6.851036e-10	-1.861513e+01	-4.881891e+01
1.260000e-06	-2.634581e-06	-6.818607e-10	-1.833252e+01	-4.840460e+01
1.270000e-06	-2.593794e-06	-6.756310e-10	-1.804871e+01	-4.798522e+01
1.280000e-06	-2.552673e-06	-6.716973e-10	-1.776257e+01	-4.756069e+01
1.290000e-06	-2.511230e-06	-6.656581e-10	-1.747419e+01	-4.713098e+01
1.300000e-06	-2.469527e-06	-6.565332e-10	-1.718400e+01	-4.669602e+01
1.310000e-06	-2.427409e-06	-6.432106e-10	-1.689093e+01	-4.625578e+01
1.320000e-06	-2.384960e-06	-6.332899e-10	-1.659555e+01	-4.581020e+01
1.330000e-06	-2.342197e-06	-6.248346e-10	-1.629799e+01	-4.535924e+01
1.340000e-06	-2.299123e-06	-6.191677e-10	-1.599826e+01	-4.490283e+01
1.350000e-06	-2.255894e-06	-6.154641e-10	-1.569745e+01	-4.444092e+01
1.360000e-06	-2.212597e-06	-6.126805e-10	-1.539617e+01	-4.397343e+01
1.370000e-06	-2.169175e-06	-6.062090e-10	-1.509402e+01	-4.350027e+01
1.380000e-06	-2.125635e-06	-5.987281e-10	-1.479106e+01	-4.302134e+01
1.390000e-06	-2.082034e-06	-5.884445e-10	-1.448767e+01	-4.253653e+01
1.400000e-06	-2.038337e-06	-5.755936e-10	-1.418360e+01	-4.204568e+01
1.410000e-06	-1.994573e-06	-5.634009e-10	-1.387907e+01	-4.154863e+01
1.420000e-06	-1.950764e-06	-5.527035e-10	-1.357423e+01	-4.104520e+01
1.430000e-06	-1.906818e-06	-5.432583e-10	-1.326843e+01	-4.053516e+01
1.440000e-06	-1.862813e-06	-5.358065e-10	-1.296223e+01	-4.001826e+01
1.450000e-06	-1.818686e-06	-5.296074e-10	-1.265518e+01	-3.949423e+01
1.460000e-06	-1.774332e-06	-5.232848e-10	-1.234654e+01	-3.896275e+01
1.470000e-06	-1.729918e-06	-5.173801e-10	-1.203749e+01	-3.842349e+01
1.480000e-06	-1.685437e-06	-5.104739e-10	-1.172797e+01	-3.787606e+01
1.490000e-06	-1.640715e-06	-5.028916e-10	-1.141678e+01	-3.732005e+01
1.500000e-06	-1.595826e-06	-4.944339e-10	-1.110442e+01	-3.675503e+01
1.510000e-06	-1.550910e-06	-4.871194e-10	-1.079188e+01	-3.618053e+01
1.520000e-06	-1.505949e-06	-4.784120e-10	-1.047903e+01	-3.559603e+01
1.530000e-06	-1.460852e-06	-4.701278e-10	-1.016522e+01	-3.500101e+01
1.540000e-06	-1.415520e-06	-4.624972e-10	-9.849780e+00	-3.439491e+01
1.550000e-06	-1.370094e-06	-4.571540e-10	-9.533690e+00	-3.377716e+01
1.560000e-06	-1.324655e-06	-4.498001e-10	-9.217506e+00	-3.314714e+01
1.570000e-06	-1.279036e-06	-4.414912e-10	-8.900065e+00	-3.250425e+01
1.580000e-06	-1.233319e-06	-4.313028e-10	-8.581949e+00	-3.184786e+01
1.590000e-06	-1.187609e-06	-4.187401e-10	-8.263878e+00	-3.117733e+01
1.600000e-06	-1.141774e-06	-4.041598e-10	-7.944942e+00	-3.049203e+01
1.610000e-06	-1.095897e-06	-3.901320e-10	-7.625713e+00	-2.979131e+01
1.620000e-06	-1.050066e-06	-3.756885e-10	-7.306801e+00	-2.907454e+01
1.630000e-06	-1.004107e-06	-3.624588e-10	-6.986996e+00	-2.834111e+01
1.640000e-06	-9.579371e-07	-3.519614e-10	-6.665727e+00	-2.759042e+01
1.650000e-06	-9.116815e-07	-3.428203e-10	-6.343861e+00	-2.682189e+01
1.660000e-06	-8.653733e-07	-3.328522e-10	-6.021630e+00	-2.603498e+01
1.670000e-06	-8.190458e-07	-3.236387e-10	-5.699263e+00	-2.522918e+01
1.680000e-06	-7.726843e-07	-3.152927e-10	-5.376660e+00	-2.440401e+01
1.690000e-06	-7.263352e-07	-3.053435e-10	-5.054144e+00	-2.355907e+01
1.700000e-06	-6.799599e-07	-2.921459e-10	-4.731446e+00	-2.269397e+01
1.710000e-06	-6.335212e-07	-2.784986e-10	-4.408306e+00	-2.180841e+01
1.720000e-06	-5.870948e-07	-2.644436e-10	-4.085251e+00	-2.090215e+01
1.730000e-06	-5.406679e-07	-2.491135e-10	-3.762194e+00	-1.997499e+01
1.740000e-06	-4.941713e-07	-2.345194e-10	-3.438650e+00	-1.902683e+01
1.750000e-06	-4.475662e-07	-2.202051e-10	-3.114353e+00	-1.805764e+01
1.760000e-06	-4.008669e-07	-2.050017e-10	-2.789400e+00	-1.706746e+01
1.770000e-06	-3.541050e-07	-1.902468e-10	-2.464011e+00	-1.605642e+01
1.780000e-06	-3.073599e-07	-1.769507e-10	-2.138739e+00	-1.502473e+01
1.790000e-06	-2.604894e-07	-1.629491e-10	-1.812594e+00	-1.397269e+01
1.800000e-06	-2.135317e-07	-1.487749e-10	-1.485843e+00	-1.290068e+01
1.810000e-06	-1.666925e-07	-1.333664e-10	-1.159916e+00	-1.180916e+01
1.820000e-06	-1.198996e-07	-1.157505e-10	-8.343119e-01	-1.069870e+01
1.830000e-06	-7.305089e-08	-9.593484e-11	-5.083187e-01	-9.569949e+00
1.840000e-06	-2.620720e-08	-7.803020e-11	-1.823606e-01	-8.423622e+00
1.850000e-06	2.058198e-08	-6.319601e-11	1.432180e-01	-7.260536e+00
1.860000e-06	6.738781e-08	-5.055197e-11	4.689126e-01	-6.081581e+00
1.870000e-06	1.142299e-07	-3.562668e-11	7.948592e-01	-4.887725e+00
1.880000e-06	1.609921e-07	-1.951751e-11	1.120251e+00	-3.680008e+00
1.890000e-06	2.077383e-07	-3.925710e-12	1.445530e+00	-2.459537e+00
1.900000e-06	2.545341e-07	1.197249e-11	1.771155e+00	-1.227484e+00
1.910000e-06	3.012656e-07	2.915906e-11	2.096332e+00	1.492410e-02
1.920000e-06	3.479161e-07	4.837379e-11	2.420946e+00	1.266407e+00
1.930000e-06	3.945728e-07	6.936057e-11	2.745603e+00	2.525640e+00
1.940000e-06	4.412141e-07	9.101935e-11	3.070152e+00	3.791261e+00
1.950000e-06	4.877988e-07	1.101663e-10	3.394308e+00	5.061875e+00
1.960000e-06	5.343247e-07	1.252737e-10	3.718055e+00	6.336064e+00
1.970000e-06	5.808169e-07	1.394739e-10	4.041567e+00	7.612395e+00
1.980000e-06	6.272631e-07	1.554928e-10	4.364759e+00	8.889424e+00
1.990000e-06	6.737313e-07	1.723835e-10	4.688104e+00	1.016571e+01
2.000000e-06	7.202243e-07	1.900409e-10	5.011622e+00	1.143980e+01
2.010000e-06	7.666092e-07	2.112040e-10	5.334388e+00	1.271029e+01
2.020000e-06	8.129785e-07	2.308519e-10	5.657045e+00	1.397576e+01
2.030000e-06	8.592705e-07	2.503870e-10	5.979164e+00	1.523484e+01
2.040000e-06	9.053750e-07	2.714071e-10	6.299978e+00	1.648619e+01
2.050000e-06	9.514218e-07	2.884154e-10	6.620391e+00	1.772851e+01
2.060000e-06	9.974689e-07	3.030880e-10	6.940806e+00	1.896055e+01
2.070000e-06	1.043390e-06	3.167638e-10	7.260344e+00	2.018112e+01
2.080000e-06	1.089244e-06	3.322713e-10	7.579414e+00	2.138906e+01
2.090000e-06	1.135181e-06	3.488705e-10	7.899064e+00	2.258332e+01
2.100000e-06	1.181067e-06	3.689899e-10	8.218359e+00	2.376288e+01
2.110000e-06	1.226751e-06	3.896135e-10	8.536250e+00	2.492680e+01
2.120000e-06	1.272316e-06	4.069009e-10	8.853305e+00	2.607423e+01
2.130000e-06	1.317782e-06	4.223369e-10	9.169680e+00	2.720438e+01
2.140000e-06	1.363152e-06	4.372120e-10	9.485381e+00	2.831655e+01
2.150000e-06	1.408457e-06	4.535008e-10	9.800636e+00	2.941012e+01
2.160000e-06	1.453578e-06	4.671449e-10	1.011461e+01	3.048453e+01
2.170000e-06	1.498593e-06	4.795517e-10	1.042784e+01	3.153934e+01
2.180000e-06	1.543566e-06	4.926744e-10	1.074078e+01	3.257416e+01
2.190000e-06	1.588454e-06	5.053512e-10	1.105312e+01	3.358869e+01
2.200000e-06	1.633206e-06	5.201285e-10	1.136453e+01	3.458271e+01
2.210000e-06	1.677794e-06	5.343412e-10	1.167479e+01	3.555606e+01
2.220000e-06	1.722281e-06	5.466287e-10	1.198435e+01	3.650868e+01
2.230000e-06	1.766645e-06	5.581195e-10	1.229305e+01	3.744055e+01
2.240000e-06	1.810847e-06	5.698239e-10	1.260063e+01	3.835175e+01
2.250000e-06	1.854903e-06	5.819498e-10	1.290719e+01	3.924238e+01
2.260000e-06	1.898864e-06	5.925981e-10	1.321309e+01	4.011264e+01
2.270000e-06	1.942717e-06	6.028229e-10	1.351824e+01	4.096276e+01
2.280000e-06	1.986462e-06	6.126907e-10	1.382263e+01	4.179302e+01
2.290000e-06	2.030173e-06	6.215244e-10	1.412680e+01	4.260374e+01
2.300000e-06	2.073854e-06	6.308232e-10	1.443074e+01	4.339529e+01
2.310000e-06	2.117444e-06	6.389671e-10	1.473406e+01	4.416806e+01
2.320000e-06	2.160964e-06	6.488327e-10	1.503689e+01	4.492249e+01
2.330000e-06	2.204406e-06	6.614074e-10	1.533918e+01	4.565902e+01
2.340000e-06	2.247746e-06	6.732753e-10	1.564076e+01	4.637813e+01
2.350000e-06	2.290985e-06	6.827721e-10	1.594163e+01	4.708028e+01
2.360000e-06	2.333991e-06	6.910686e-10	1.624088e+01	4.776597e+01
2.370000e-06	2.376680e-06	6.989328e-10	1.653793e+01	4.843568e+01
2.380000e-06	2.419055e-06	7.045301e-10	1.683280e+01	4.908993e+01
2.390000e-06	2.461161e-06	7.111929e-10	1.712579e+01	4.972918e+01
2.400000e-06	2.503101e-06	7.193497e-10	1.741762e+01	5.035393e+01
2.410000e-06	2.544628e-06	7.293724e-10	1.770659e+01	5.096464e+01
2.420000e-06	2.585683e-06	7.423692e-10	1.799226e+01	5.156177e+01
2.430000e-06	2.626480e-06	7.547427e-10	1.827615e+01	5.214575e+01
2.440000e-06	2.667063e-06	7.638473e-10	1.855854e+01	5.271702e+01
2.450000e-06	2.707407e-06	7.687753e-10	1.883927e+01	5.327596e+01
2.460000e-06	2.747571e-06	7.723720e-10	1.911875e+01	5.382296e+01
2.470000e-06	2.787608e-06	7.767253e-10	1.939734e+01	5.435838e+01
2.480000e-06	2.827479e-06	7.829773e-10	1.967478e+01	5.488254e+01
2.490000e-06	2.867200e-06	7.910968e-10	1.995118e+01	5.539577e+01
2.500000e-06	2.906783e-06	8.006267e-10	2.022661e+01	5.589835e+01
2.510000e-06	2.946205e-06	8.104761e-10	2.050093e+01	5.639054e+01
2.520000e-06	2.985460e-06	8.190750e-10	2.077408e+01	5.687259e+01
2.530000e-06	3.024533e-06	8.270781e-10	2.104597e+01	5.734472e+01
2.540000e-06	3.063413e-06	8.348679e-10	2.131651e+01	5.780714e+01
2.550000e-06	3.102092e-06	8.422422e-10	2.158565e+01	5.826003e+01
2.560000e-06	3.140567e-06	8.489356e-10	2.185338e+01	5.870357e+01
2.570000e-06	3.178860e-06	8.549859e-10	2.211984e+01	5.913790e+01
2.580000e-06	3.216943e-06	8.612039e-10	2.238484e+01	5.956319e+01
2.590000e-06	3.254837e-06	8.678157e-10	2.264852e+01	5.997956e+01
2.600000e-06	3.292583e-06	8.729801e-10	2.291117e+01	6.038714e+01
2.610000e-06	3.330065e-06	8.775174e-10	2.317199e+01	6.078605e+01
2.620000e-06	3.367208e-06	8.825948e-10	2.343045e+01	6.117642e+01
2.630000e-06	3.404155e-06	8.888646e-10	2.368754e+01	6.155836e+01
2.640000e-06	3.440841e-06	8.954167e-10	2.394281e+01	6.193198e+01
2.650000e-06	3.477203e-06	9.034761e-10	2.419583e+01	6.229742e+01
2.660000e-06	3.513354e-06	9.132609e-10	2.444739e+01	6.265479e+01
2.670000e-06	3.549317e-06	9.191798e-10	2.469763e+01	6.300422e+01
2.680000e-06	3.585124e-06	9.207949e-10	2.494680e+01	6.334585e+01
2.690000e-06	3.620810e-06	9.215502e-10	2.519511e+01	6.367982e+01
2.700000e-06	3.656351e-06	9.214766e-10	2.544242e+01	6.400629e+01
2.710000e-06	3.691704e-06	9.247323e-10	2.568842e+01	6.432541e+01
2.720000e-06	3.726847e-06	9.336568e-10	2.593296e+01	6.463735e+01
2.730000e-06	3.761652e-06	9.437915e-10	2.617515e+01	6.494230e+01
2.740000e-06	3.796060e-06	9.517777e-10	2.641457e+01	6.524043e+01
2.750000e-06	3.830045e-06	9.570689e-10	2.665105e+01	6.553195e+01
2.760000e-06	3.863596e-06	9.598533e-10	2.688452e+01	6.581706e+01
2.770000e-06	3.896760e-06	9.604731e-10	2.711529e+01	6.609596e+01
2.780000e-06	3.929474e-06	9.605012e-10	2.734293e+01	6.636888e+01
2.790000e-06	3.961773e-06	9.616298e-10	2.756768e+01	6.663604e+01
2.800000e-06	3.993838e-06	9.637783e-10	2.779080e+01	6.689765e+01
2.810000e-06	4.025704e-06	9.678824e-10	2.801253e+01	6.715394e+01
2.820000e-06	4.057349e-06	9.748040e-10	2.823273e+01	6.740513e+01
2.830000e-06	4.088796e-06	9.821631e-10	2.845156e+01	6.765146e+01
2.840000e-06	4.120005e-06	9.872307e-10	2.866872e+01	6.789313e+01
2.850000e-06	4.150992e-06	9.900762e-10	2.888434e+01	6.813035e+01
2.860000e-06	4.181702e-06	9.904853e-10	2.909804e+01	6.836333e+01
2.870000e-06	4.212144e-06	9.894901e-10	2.930986e+01	6.859227e+01
2.880000e-06	4.242281e-06	9.893373e-10	2.951957e+01	6.881735e+01
2.890000e-06	4.272035e-06	9.896580e-10	2.972661e+01	6.903873e+01
2.900000e-06	4.301417e-06	9.897837e-10	2.993106e+01	6.925657e+01
2.910000e-06	4.330484e-06	9.924463e-10	3.013332e+01	6.947102e+01
