# Temperatura_=_5.81
# Concentracion g/m^3_=_1620.0
# C_Vs_to_Am_M_A/Vsm_=_65563218390.804596
# pendiente_HvsI_1/m_=_3716.3
# ordenada_HvsI_A/m_=_1297.0
# frecuencia_Hz_=_135108.06210239927

Tiempo_(s)	Campo_(V.s)	Magnetizacion_(V.s)	Campo_(kA/m)	Magnetizacion_(A/m)
0.000000e+00	-5.510400e-06	-1.362156e-09	-3.836247e+01	-8.817016e+01
1.000000e-08	-5.510566e-06	-1.361892e-09	-3.836363e+01	-8.810637e+01
2.000000e-08	-5.510386e-06	-1.362160e-09	-3.836238e+01	-8.803951e+01
3.000000e-08	-5.509847e-06	-1.361719e-09	-3.835863e+01	-8.796957e+01
4.000000e-08	-5.508852e-06	-1.360133e-09	-3.835170e+01	-8.789656e+01
5.000000e-08	-5.507240e-06	-1.361508e-09	-3.834048e+01	-8.782046e+01
6.000000e-08	-5.504997e-06	-1.377560e-09	-3.832486e+01	-8.774130e+01
7.000000e-08	-5.502228e-06	-1.394356e-09	-3.830558e+01	-8.765907e+01
8.000000e-08	-5.498978e-06	-1.355851e-09	-3.828295e+01	-8.757378e+01
9.000000e-08	-5.495264e-06	-1.265983e-09	-3.825710e+01	-8.748546e+01
1.000000e-07	-5.491183e-06	-1.268530e-09	-3.822869e+01	-8.739413e+01
1.100000e-07	-5.486806e-06	-1.392543e-09	-3.819822e+01	-8.729982e+01
1.200000e-07	-5.482145e-06	-1.481335e-09	-3.816577e+01	-8.720256e+01
1.300000e-07	-5.477169e-06	-1.358584e-09	-3.813112e+01	-8.710240e+01
1.400000e-07	-5.471883e-06	-1.273214e-09	-3.809433e+01	-8.699940e+01
1.500000e-07	-5.466251e-06	-1.348218e-09	-3.805512e+01	-8.689360e+01
1.600000e-07	-5.460177e-06	-1.429975e-09	-3.801283e+01	-8.678507e+01
1.700000e-07	-5.453626e-06	-1.341142e-09	-3.796722e+01	-8.667388e+01
1.800000e-07	-5.446702e-06	-1.245926e-09	-3.791902e+01	-8.656010e+01
1.900000e-07	-5.439511e-06	-1.330511e-09	-3.786896e+01	-8.644382e+01
2.000000e-07	-5.431985e-06	-1.400480e-09	-3.781656e+01	-8.632512e+01
2.100000e-07	-5.424199e-06	-1.338992e-09	-3.776236e+01	-8.620407e+01
2.200000e-07	-5.416208e-06	-1.238350e-09	-3.770673e+01	-8.608078e+01
2.300000e-07	-5.407819e-06	-1.266227e-09	-3.764832e+01	-8.595532e+01
2.400000e-07	-5.398925e-06	-1.309603e-09	-3.758640e+01	-8.582779e+01
2.500000e-07	-5.389499e-06	-1.303634e-09	-3.752078e+01	-8.569827e+01
2.600000e-07	-5.379505e-06	-1.260624e-09	-3.745121e+01	-8.556684e+01
2.700000e-07	-5.368926e-06	-1.274313e-09	-3.737756e+01	-8.543358e+01
2.800000e-07	-5.357690e-06	-1.278459e-09	-3.729933e+01	-8.529856e+01
2.900000e-07	-5.345997e-06	-1.270708e-09	-3.721792e+01	-8.516185e+01
3.000000e-07	-5.333992e-06	-1.254408e-09	-3.713435e+01	-8.502351e+01
3.100000e-07	-5.321614e-06	-1.277735e-09	-3.704818e+01	-8.488357e+01
3.200000e-07	-5.308847e-06	-1.300850e-09	-3.695930e+01	-8.474209e+01
3.300000e-07	-5.295677e-06	-1.294992e-09	-3.686761e+01	-8.459907e+01
3.400000e-07	-5.282041e-06	-1.261714e-09	-3.677267e+01	-8.445454e+01
3.500000e-07	-5.267996e-06	-1.254965e-09	-3.667490e+01	-8.430849e+01
3.600000e-07	-5.253581e-06	-1.262486e-09	-3.657454e+01	-8.416090e+01
3.700000e-07	-5.238761e-06	-1.243974e-09	-3.647137e+01	-8.401175e+01
3.800000e-07	-5.223439e-06	-1.241568e-09	-3.636470e+01	-8.386098e+01
3.900000e-07	-5.207537e-06	-1.275605e-09	-3.625399e+01	-8.370854e+01
4.000000e-07	-5.191164e-06	-1.271289e-09	-3.614001e+01	-8.355436e+01
4.100000e-07	-5.174374e-06	-1.225837e-09	-3.602312e+01	-8.339833e+01
4.200000e-07	-5.157245e-06	-1.255114e-09	-3.590387e+01	-8.324035e+01
4.300000e-07	-5.139852e-06	-1.279529e-09	-3.578278e+01	-8.308031e+01
4.400000e-07	-5.122127e-06	-1.220723e-09	-3.565939e+01	-8.291807e+01
4.500000e-07	-5.104008e-06	-1.190185e-09	-3.553324e+01	-8.275347e+01
4.600000e-07	-5.085490e-06	-1.261677e-09	-3.540432e+01	-8.258638e+01
4.700000e-07	-5.066630e-06	-1.255149e-09	-3.527302e+01	-8.241660e+01
4.800000e-07	-5.047421e-06	-1.197921e-09	-3.513929e+01	-8.224398e+01
4.900000e-07	-5.027914e-06	-1.220938e-09	-3.500349e+01	-8.206832e+01
5.000000e-07	-5.008192e-06	-1.254387e-09	-3.486619e+01	-8.188944e+01
5.100000e-07	-4.988214e-06	-1.197710e-09	-3.472711e+01	-8.170714e+01
5.200000e-07	-4.967929e-06	-1.200204e-09	-3.458588e+01	-8.152122e+01
5.300000e-07	-4.947333e-06	-1.237404e-09	-3.444250e+01	-8.133148e+01
5.400000e-07	-4.926452e-06	-1.192392e-09	-3.429712e+01	-8.113773e+01
5.500000e-07	-4.905201e-06	-1.157369e-09	-3.414918e+01	-8.093978e+01
5.600000e-07	-4.883535e-06	-1.219559e-09	-3.399835e+01	-8.073743e+01
5.700000e-07	-4.861487e-06	-1.213975e-09	-3.384485e+01	-8.053050e+01
5.800000e-07	-4.839079e-06	-1.157464e-09	-3.368885e+01	-8.031883e+01
5.900000e-07	-4.816385e-06	-1.183944e-09	-3.353086e+01	-8.010224e+01
6.000000e-07	-4.793471e-06	-1.215228e-09	-3.337133e+01	-7.988058e+01
6.100000e-07	-4.770250e-06	-1.169918e-09	-3.320967e+01	-7.965372e+01
6.200000e-07	-4.746713e-06	-1.166452e-09	-3.304582e+01	-7.942153e+01
6.300000e-07	-4.722892e-06	-1.198743e-09	-3.287998e+01	-7.918389e+01
6.400000e-07	-4.698818e-06	-1.171159e-09	-3.271238e+01	-7.894072e+01
6.500000e-07	-4.674461e-06	-1.146577e-09	-3.254280e+01	-7.869194e+01
6.600000e-07	-4.649636e-06	-1.165507e-09	-3.236998e+01	-7.843749e+01
6.700000e-07	-4.624292e-06	-1.153076e-09	-3.219354e+01	-7.817732e+01
6.800000e-07	-4.598500e-06	-1.125321e-09	-3.201398e+01	-7.791142e+01
6.900000e-07	-4.572241e-06	-1.143503e-09	-3.183117e+01	-7.763978e+01
7.000000e-07	-4.545472e-06	-1.148503e-09	-3.164481e+01	-7.736241e+01
7.100000e-07	-4.518265e-06	-1.127748e-09	-3.145540e+01	-7.707934e+01
7.200000e-07	-4.490733e-06	-1.130404e-09	-3.126372e+01	-7.679063e+01
7.300000e-07	-4.462974e-06	-1.139868e-09	-3.107047e+01	-7.649632e+01
7.400000e-07	-4.435040e-06	-1.117285e-09	-3.087600e+01	-7.619650e+01
7.500000e-07	-4.406898e-06	-1.109351e-09	-3.068008e+01	-7.589126e+01
7.600000e-07	-4.378517e-06	-1.115248e-09	-3.048249e+01	-7.558071e+01
7.700000e-07	-4.349903e-06	-1.107355e-09	-3.028329e+01	-7.526495e+01
7.800000e-07	-4.321018e-06	-1.093677e-09	-3.008220e+01	-7.494411e+01
7.900000e-07	-4.291842e-06	-1.096572e-09	-2.987908e+01	-7.461832e+01
8.000000e-07	-4.262379e-06	-1.087246e-09	-2.967396e+01	-7.428771e+01
8.100000e-07	-4.232488e-06	-1.076223e-09	-2.946587e+01	-7.395242e+01
8.200000e-07	-4.202256e-06	-1.076340e-09	-2.925539e+01	-7.361259e+01
8.300000e-07	-4.171797e-06	-1.072701e-09	-2.904335e+01	-7.326836e+01
8.400000e-07	-4.141076e-06	-1.055309e-09	-2.882947e+01	-7.291987e+01
8.500000e-07	-4.110091e-06	-1.052138e-09	-2.861376e+01	-7.256725e+01
8.600000e-07	-4.078835e-06	-1.051314e-09	-2.839616e+01	-7.221063e+01
8.700000e-07	-4.047394e-06	-1.040776e-09	-2.817727e+01	-7.185014e+01
8.800000e-07	-4.015752e-06	-1.035189e-09	-2.795699e+01	-7.148587e+01
8.900000e-07	-3.983887e-06	-1.037112e-09	-2.773515e+01	-7.111793e+01
9.000000e-07	-3.951784e-06	-1.026364e-09	-2.751165e+01	-7.074641e+01
9.100000e-07	-3.919382e-06	-1.016377e-09	-2.728607e+01	-7.037139e+01
9.200000e-07	-3.886628e-06	-1.015431e-09	-2.705805e+01	-6.999292e+01
9.300000e-07	-3.853483e-06	-1.006829e-09	-2.682730e+01	-6.961106e+01
9.400000e-07	-3.819826e-06	-9.940166e-10	-2.659298e+01	-6.922584e+01
9.500000e-07	-3.785707e-06	-9.920260e-10	-2.635545e+01	-6.883727e+01
9.600000e-07	-3.751314e-06	-9.896502e-10	-2.611602e+01	-6.844536e+01
9.700000e-07	-3.716581e-06	-9.761267e-10	-2.587421e+01	-6.805010e+01
9.800000e-07	-3.681519e-06	-9.693882e-10	-2.563011e+01	-6.765144e+01
9.900000e-07	-3.646165e-06	-9.668217e-10	-2.538399e+01	-6.724936e+01
1.000000e-06	-3.610504e-06	-9.588761e-10	-2.513572e+01	-6.684380e+01
1.010000e-06	-3.574658e-06	-9.518990e-10	-2.488616e+01	-6.643469e+01
1.020000e-06	-3.538688e-06	-9.541443e-10	-2.463575e+01	-6.602194e+01
1.030000e-06	-3.502618e-06	-9.477852e-10	-2.438463e+01	-6.560547e+01
1.040000e-06	-3.466415e-06	-9.374209e-10	-2.413260e+01	-6.518518e+01
1.050000e-06	-3.430017e-06	-9.323431e-10	-2.387920e+01	-6.476097e+01
1.060000e-06	-3.393336e-06	-9.258405e-10	-2.362383e+01	-6.433271e+01
1.070000e-06	-3.356340e-06	-9.113792e-10	-2.336628e+01	-6.390031e+01
1.080000e-06	-3.319061e-06	-9.046891e-10	-2.310675e+01	-6.346364e+01
1.090000e-06	-3.281502e-06	-9.026762e-10	-2.284526e+01	-6.302259e+01
1.100000e-06	-3.243712e-06	-8.965972e-10	-2.258218e+01	-6.257704e+01
1.110000e-06	-3.205767e-06	-8.886048e-10	-2.231801e+01	-6.212688e+01
1.120000e-06	-3.167606e-06	-8.838395e-10	-2.205234e+01	-6.167202e+01
1.130000e-06	-3.129157e-06	-8.749440e-10	-2.178466e+01	-6.121234e+01
1.140000e-06	-3.090554e-06	-8.648235e-10	-2.151591e+01	-6.074776e+01
1.150000e-06	-3.051782e-06	-8.570827e-10	-2.124599e+01	-6.027820e+01
1.160000e-06	-3.012780e-06	-8.490677e-10	-2.097446e+01	-5.980360e+01
1.170000e-06	-2.973574e-06	-8.371212e-10	-2.070152e+01	-5.932389e+01
1.180000e-06	-2.934203e-06	-8.292937e-10	-2.042743e+01	-5.883902e+01
1.190000e-06	-2.894719e-06	-8.247903e-10	-2.015255e+01	-5.834898e+01
1.200000e-06	-2.855095e-06	-8.178202e-10	-1.987669e+01	-5.785374e+01
1.210000e-06	-2.815265e-06	-8.111707e-10	-1.959940e+01	-5.735330e+01
1.220000e-06	-2.775276e-06	-8.068188e-10	-1.932100e+01	-5.684765e+01
1.230000e-06	-2.735180e-06	-7.981448e-10	-1.904186e+01	-5.633684e+01
1.240000e-06	-2.694934e-06	-7.848980e-10	-1.876167e+01	-5.582087e+01
1.250000e-06	-2.654443e-06	-7.743990e-10	-1.847978e+01	-5.529981e+01
1.260000e-06	-2.613677e-06	-7.649004e-10	-1.819598e+01	-5.477369e+01
1.270000e-06	-2.572616e-06	-7.563680e-10	-1.791012e+01	-5.424258e+01
1.280000e-06	-2.531268e-06	-7.501328e-10	-1.762226e+01	-5.370654e+01
1.290000e-06	-2.489708e-06	-7.472838e-10	-1.733293e+01	-5.316563e+01
1.300000e-06	-2.447880e-06	-7.408210e-10	-1.704173e+01	-5.261992e+01
1.310000e-06	-2.405771e-06	-7.303112e-10	-1.674857e+01	-5.206947e+01
1.320000e-06	-2.363451e-06	-7.198423e-10	-1.645395e+01	-5.151435e+01
1.330000e-06	-2.320924e-06	-7.117138e-10	-1.615788e+01	-5.095460e+01
1.340000e-06	-2.278084e-06	-7.047718e-10	-1.585963e+01	-5.039027e+01
1.350000e-06	-2.234943e-06	-6.995768e-10	-1.555929e+01	-4.982137e+01
1.360000e-06	-2.191602e-06	-6.920485e-10	-1.525756e+01	-4.924793e+01
1.370000e-06	-2.148091e-06	-6.823436e-10	-1.495465e+01	-4.866992e+01
1.380000e-06	-2.104462e-06	-6.717907e-10	-1.465091e+01	-4.808733e+01
1.390000e-06	-2.060763e-06	-6.618449e-10	-1.434668e+01	-4.750007e+01
1.400000e-06	-2.016990e-06	-6.517435e-10	-1.404194e+01	-4.690808e+01
1.410000e-06	-1.973145e-06	-6.420352e-10	-1.373670e+01	-4.631123e+01
1.420000e-06	-1.929274e-06	-6.342370e-10	-1.343128e+01	-4.570937e+01
1.430000e-06	-1.885362e-06	-6.271841e-10	-1.312557e+01	-4.510230e+01
1.440000e-06	-1.841362e-06	-6.176458e-10	-1.281925e+01	-4.448981e+01
1.450000e-06	-1.797252e-06	-6.070225e-10	-1.251216e+01	-4.387163e+01
1.460000e-06	-1.752937e-06	-5.963603e-10	-1.220365e+01	-4.324745e+01
1.470000e-06	-1.708438e-06	-5.835201e-10	-1.189385e+01	-4.261694e+01
1.480000e-06	-1.663799e-06	-5.698356e-10	-1.158309e+01	-4.197970e+01
1.490000e-06	-1.619046e-06	-5.604251e-10	-1.127153e+01	-4.133530e+01
1.500000e-06	-1.574244e-06	-5.543991e-10	-1.095962e+01	-4.068330e+01
1.510000e-06	-1.529327e-06	-5.482181e-10	-1.064691e+01	-4.002316e+01
1.520000e-06	-1.484290e-06	-5.406305e-10	-1.033337e+01	-3.935437e+01
1.530000e-06	-1.439190e-06	-5.317309e-10	-1.001940e+01	-3.867633e+01
1.540000e-06	-1.393931e-06	-5.220222e-10	-9.704315e+00	-3.798843e+01
1.550000e-06	-1.348455e-06	-5.100399e-10	-9.387718e+00	-3.729005e+01
1.560000e-06	-1.302908e-06	-4.958290e-10	-9.070628e+00	-3.658050e+01
1.570000e-06	-1.257350e-06	-4.817686e-10	-8.753460e+00	-3.585910e+01
1.580000e-06	-1.211718e-06	-4.689518e-10	-8.435778e+00	-3.512515e+01
1.590000e-06	-1.166019e-06	-4.582963e-10	-8.117628e+00	-3.437793e+01
1.600000e-06	-1.120239e-06	-4.488782e-10	-7.798913e+00	-3.361670e+01
1.610000e-06	-1.074320e-06	-4.360690e-10	-7.479232e+00	-3.284074e+01
1.620000e-06	-1.028373e-06	-4.204535e-10	-7.159357e+00	-3.204932e+01
1.630000e-06	-9.824266e-07	-4.068745e-10	-6.839488e+00	-3.124172e+01
1.640000e-06	-9.362739e-07	-3.963880e-10	-6.518181e+00	-3.041723e+01
1.650000e-06	-8.899894e-07	-3.837930e-10	-6.195956e+00	-2.957519e+01
1.660000e-06	-8.437615e-07	-3.685311e-10	-5.874125e+00	-2.871492e+01
1.670000e-06	-7.975303e-07	-3.528053e-10	-5.552271e+00	-2.783581e+01
1.680000e-06	-7.512034e-07	-3.383892e-10	-5.229751e+00	-2.693729e+01
1.690000e-06	-7.048056e-07	-3.243175e-10	-4.906738e+00	-2.601881e+01
1.700000e-06	-6.582951e-07	-3.123256e-10	-4.582939e+00	-2.507990e+01
1.710000e-06	-6.117239e-07	-2.999830e-10	-4.258719e+00	-2.412013e+01
1.720000e-06	-5.651251e-07	-2.862546e-10	-3.934306e+00	-2.313914e+01
1.730000e-06	-5.184451e-07	-2.705693e-10	-3.609327e+00	-2.213665e+01
1.740000e-06	-4.717674e-07	-2.524719e-10	-3.284365e+00	-2.111245e+01
1.750000e-06	-4.250680e-07	-2.337744e-10	-2.959251e+00	-2.006638e+01
1.760000e-06	-3.783252e-07	-2.158434e-10	-2.633836e+00	-1.899841e+01
1.770000e-06	-3.316306e-07	-1.994398e-10	-2.308756e+00	-1.790855e+01
1.780000e-06	-2.849617e-07	-1.846220e-10	-1.983855e+00	-1.679695e+01
1.790000e-06	-2.382342e-07	-1.724067e-10	-1.658546e+00	-1.566379e+01
1.800000e-06	-1.914219e-07	-1.598293e-10	-1.332647e+00	-1.450940e+01
1.810000e-06	-1.446268e-07	-1.439503e-10	-1.006868e+00	-1.333417e+01
1.820000e-06	-9.788660e-08	-1.260122e-10	-6.814700e-01	-1.213859e+01
1.830000e-06	-5.110306e-08	-1.065446e-10	-3.557709e-01	-1.092325e+01
1.840000e-06	-4.335044e-09	-8.724984e-11	-3.017984e-02	-9.688828e+00
1.850000e-06	4.241071e-08	-7.037244e-11	2.952562e-01	-8.436101e+00
1.860000e-06	8.910634e-08	-5.203799e-11	6.203433e-01	-7.165925e+00
1.870000e-06	1.357241e-07	-3.234052e-11	9.448881e-01	-5.879247e+00
1.880000e-06	1.823242e-07	-1.539890e-11	1.269310e+00	-4.577093e+00
1.890000e-06	2.289554e-07	-1.049986e-12	1.593949e+00	-3.260569e+00
1.900000e-06	2.756384e-07	1.445325e-11	1.918948e+00	-1.930851e+00
1.910000e-06	3.222690e-07	3.232384e-11	2.243582e+00	-5.891844e-01
1.920000e-06	3.688614e-07	5.283986e-11	2.567951e+00	7.631258e-01
1.930000e-06	4.154946e-07	7.571683e-11	2.892603e+00	2.124720e+00
1.940000e-06	4.621384e-07	9.847096e-11	3.217329e+00	3.494191e+00
1.950000e-06	5.087049e-07	1.191377e-10	3.541518e+00	4.870092e+00
1.960000e-06	5.551518e-07	1.389928e-10	3.864873e+00	6.250944e+00
1.970000e-06	6.015336e-07	1.578932e-10	4.187775e+00	7.635242e+00
1.980000e-06	6.479614e-07	1.758470e-10	4.510997e+00	9.021466e+00
1.990000e-06	6.943672e-07	1.925205e-10	4.834067e+00	1.040809e+01
2.000000e-06	7.406678e-07	2.105415e-10	5.156404e+00	1.179358e+01
2.010000e-06	7.869334e-07	2.297742e-10	5.478497e+00	1.317642e+01
2.020000e-06	8.332218e-07	2.482658e-10	5.800749e+00	1.455510e+01
2.030000e-06	8.794795e-07	2.692173e-10	6.122788e+00	1.592815e+01
2.040000e-06	9.255313e-07	2.907615e-10	6.443392e+00	1.729411e+01
2.050000e-06	9.714926e-07	3.110304e-10	6.763367e+00	1.865159e+01
2.060000e-06	1.017401e-06	3.289446e-10	7.082973e+00	1.999921e+01
2.070000e-06	1.063132e-06	3.473403e-10	7.401347e+00	2.133568e+01
2.080000e-06	1.108735e-06	3.648928e-10	7.718823e+00	2.265974e+01
2.090000e-06	1.154312e-06	3.817750e-10	8.036128e+00	2.397022e+01
2.100000e-06	1.199937e-06	4.010972e-10	8.353756e+00	2.526600e+01
2.110000e-06	1.245483e-06	4.195274e-10	8.670845e+00	2.654606e+01
2.120000e-06	1.290846e-06	4.346878e-10	8.986653e+00	2.780943e+01
2.130000e-06	1.336139e-06	4.488290e-10	9.301971e+00	2.905525e+01
2.140000e-06	1.381440e-06	4.634180e-10	9.617349e+00	3.028273e+01
2.150000e-06	1.426672e-06	4.785028e-10	9.932248e+00	3.149117e+01
2.160000e-06	1.471769e-06	4.949161e-10	1.024620e+01	3.267998e+01
2.170000e-06	1.516759e-06	5.128676e-10	1.055942e+01	3.384864e+01
2.180000e-06	1.561644e-06	5.309227e-10	1.087190e+01	3.499672e+01
2.190000e-06	1.606380e-06	5.485613e-10	1.118334e+01	3.612388e+01
2.200000e-06	1.651023e-06	5.646447e-10	1.149415e+01	3.722989e+01
2.210000e-06	1.695570e-06	5.748748e-10	1.180427e+01	3.831458e+01
2.220000e-06	1.739988e-06	5.824503e-10	1.211350e+01	3.937788e+01
2.230000e-06	1.784234e-06	5.928098e-10	1.242154e+01	4.041980e+01
2.240000e-06	1.828265e-06	6.079183e-10	1.272807e+01	4.144042e+01
2.250000e-06	1.872211e-06	6.264598e-10	1.303402e+01	4.243989e+01
2.260000e-06	1.916099e-06	6.454519e-10	1.333955e+01	4.341846e+01
2.270000e-06	1.959878e-06	6.616066e-10	1.364434e+01	4.437640e+01
2.280000e-06	2.003608e-06	6.736145e-10	1.394878e+01	4.531406e+01
2.290000e-06	2.047315e-06	6.834449e-10	1.425306e+01	4.623185e+01
2.300000e-06	2.090972e-06	6.925260e-10	1.455699e+01	4.713023e+01
2.310000e-06	2.134534e-06	7.015221e-10	1.486027e+01	4.800967e+01
2.320000e-06	2.177948e-06	7.136246e-10	1.516251e+01	4.887070e+01
2.330000e-06	2.221226e-06	7.279114e-10	1.546380e+01	4.971389e+01
2.340000e-06	2.264456e-06	7.413115e-10	1.576476e+01	5.053980e+01
2.350000e-06	2.307529e-06	7.530222e-10	1.606463e+01	5.134903e+01
2.360000e-06	2.350276e-06	7.629783e-10	1.636223e+01	5.214218e+01
2.370000e-06	2.392732e-06	7.717875e-10	1.665780e+01	5.291987e+01
2.380000e-06	2.434866e-06	7.808599e-10	1.695113e+01	5.368269e+01
2.390000e-06	2.476628e-06	7.911003e-10	1.724187e+01	5.443126e+01
2.400000e-06	2.518184e-06	8.020443e-10	1.753117e+01	5.516615e+01
2.410000e-06	2.559496e-06	8.125868e-10	1.781878e+01	5.588795e+01
2.420000e-06	2.600408e-06	8.231362e-10	1.810360e+01	5.659721e+01
2.430000e-06	2.640985e-06	8.330371e-10	1.838609e+01	5.729445e+01
2.440000e-06	2.681336e-06	8.420122e-10	1.866701e+01	5.798018e+01
2.450000e-06	2.721576e-06	8.505282e-10	1.894715e+01	5.865487e+01
2.460000e-06	2.761644e-06	8.589121e-10	1.922610e+01	5.931895e+01
2.470000e-06	2.801547e-06	8.682663e-10	1.950390e+01	5.997284e+01
2.480000e-06	2.841383e-06	8.767913e-10	1.978123e+01	6.061688e+01
2.490000e-06	2.881143e-06	8.856627e-10	2.005803e+01	6.125142e+01
2.500000e-06	2.920812e-06	8.948318e-10	2.033420e+01	6.187674e+01
2.510000e-06	2.960355e-06	9.052212e-10	2.060949e+01	6.249309e+01
2.520000e-06	2.999699e-06	9.149672e-10	2.088340e+01	6.310069e+01
2.530000e-06	3.038760e-06	9.237830e-10	2.115533e+01	6.369971e+01
2.540000e-06	3.077597e-06	9.332582e-10	2.142571e+01	6.429030e+01
2.550000e-06	3.116254e-06	9.421248e-10	2.169483e+01	6.487256e+01
2.560000e-06	3.154620e-06	9.482111e-10	2.196193e+01	6.544658e+01
2.570000e-06	3.192748e-06	9.541551e-10	2.222738e+01	6.601238e+01
2.580000e-06	3.230668e-06	9.645206e-10	2.249136e+01	6.657000e+01
2.590000e-06	3.268331e-06	9.776180e-10	2.275357e+01	6.711943e+01
2.600000e-06	3.305750e-06	9.877129e-10	2.301407e+01	6.766063e+01
2.610000e-06	3.342959e-06	9.938376e-10	2.327311e+01	6.819357e+01
2.620000e-06	3.379949e-06	9.985785e-10	2.353063e+01	6.871819e+01
2.630000e-06	3.416653e-06	1.003547e-09	2.378616e+01	6.923441e+01
2.640000e-06	3.453096e-06	1.009174e-09	2.403987e+01	6.974215e+01
2.650000e-06	3.489325e-06	1.017266e-09	2.429209e+01	7.024134e+01
2.660000e-06	3.525361e-06	1.028520e-09	2.454297e+01	7.073187e+01
2.670000e-06	3.561248e-06	1.037248e-09	2.479281e+01	7.121369e+01
2.680000e-06	3.597033e-06	1.043882e-09	2.504194e+01	7.168669e+01
2.690000e-06	3.632694e-06	1.047326e-09	2.529020e+01	7.215081e+01
2.700000e-06	3.668217e-06	1.049794e-09	2.553750e+01	7.260599e+01
2.710000e-06	3.703567e-06	1.054964e-09	2.578361e+01	7.305219e+01
2.720000e-06	3.738701e-06	1.061764e-09	2.602820e+01	7.348936e+01
2.730000e-06	3.773418e-06	1.069253e-09	2.626990e+01	7.391749e+01
2.740000e-06	3.807600e-06	1.076280e-09	2.650787e+01	7.433659e+01
2.750000e-06	3.841309e-06	1.080645e-09	2.674254e+01	7.474667e+01
2.760000e-06	3.874472e-06	1.082877e-09	2.697342e+01	7.514778e+01
2.770000e-06	3.907177e-06	1.085522e-09	2.720110e+01	7.553997e+01
2.780000e-06	3.939539e-06	1.091316e-09	2.742641e+01	7.592334e+01
2.790000e-06	3.971645e-06	1.098041e-09	2.764992e+01	7.629799e+01
2.800000e-06	4.003592e-06	1.103745e-09	2.787233e+01	7.666405e+01
2.810000e-06	4.035377e-06	1.108853e-09	2.809362e+01	7.702166e+01
2.820000e-06	4.066986e-06	1.113217e-09	2.831367e+01	7.737099e+01
2.830000e-06	4.098427e-06	1.117190e-09	2.853256e+01	7.771222e+01
2.840000e-06	4.129661e-06	1.119523e-09	2.875000e+01	7.804557e+01
2.850000e-06	4.160572e-06	1.121884e-09	2.896520e+01	7.837124e+01
2.860000e-06	4.191080e-06	1.127607e-09	2.917759e+01	7.868946e+01
2.870000e-06	4.221266e-06	1.134488e-09	2.938774e+01	7.900048e+01
2.880000e-06	4.251203e-06	1.139839e-09	2.959616e+01	7.930455e+01
2.890000e-06	4.280802e-06	1.142346e-09	2.980222e+01	7.960192e+01
2.900000e-06	4.310106e-06	1.142886e-09	3.000623e+01	7.989285e+01
2.910000e-06	4.339231e-06	1.146055e-09	3.020899e+01	8.017761e+01
