# Temperatura_=_10.6
# Concentracion g/m^3_=_1620.0
# C_Vs_to_Am_M_A/Vsm_=_65563218390.804596
# pendiente_HvsI_1/m_=_3716.3
# ordenada_HvsI_A/m_=_1297.0
# frecuencia_Hz_=_135107.3271352357

Tiempo_(s)	Campo_(V.s)	Magnetizacion_(V.s)	Campo_(kA/m)	Magnetizacion_(A/m)
0.000000e+00	-5.508690e-06	-1.151982e-09	-3.837257e+01	-7.667206e+01
1.000000e-08	-5.508893e-06	-1.147784e-09	-3.837397e+01	-7.665511e+01
2.000000e-08	-5.508742e-06	-1.145234e-09	-3.837293e+01	-7.663845e+01
3.000000e-08	-5.508197e-06	-1.145319e-09	-3.836913e+01	-7.662192e+01
4.000000e-08	-5.507206e-06	-1.146012e-09	-3.836222e+01	-7.660537e+01
5.000000e-08	-5.505573e-06	-1.150786e-09	-3.835085e+01	-7.658860e+01
6.000000e-08	-5.503331e-06	-1.154314e-09	-3.833523e+01	-7.657142e+01
7.000000e-08	-5.500641e-06	-1.143051e-09	-3.831649e+01	-7.655359e+01
8.000000e-08	-5.497445e-06	-1.121277e-09	-3.829423e+01	-7.653488e+01
9.000000e-08	-5.493776e-06	-1.129360e-09	-3.826868e+01	-7.651504e+01
1.000000e-07	-5.489660e-06	-1.165653e-09	-3.824001e+01	-7.649382e+01
1.100000e-07	-5.485217e-06	-1.163290e-09	-3.820905e+01	-7.647094e+01
1.200000e-07	-5.480592e-06	-1.122993e-09	-3.817684e+01	-7.644615e+01
1.300000e-07	-5.475689e-06	-1.138247e-09	-3.814268e+01	-7.641916e+01
1.400000e-07	-5.470354e-06	-1.177226e-09	-3.810552e+01	-7.638970e+01
1.500000e-07	-5.464617e-06	-1.163788e-09	-3.806556e+01	-7.635752e+01
1.600000e-07	-5.458595e-06	-1.117769e-09	-3.802361e+01	-7.632234e+01
1.700000e-07	-5.452163e-06	-1.102426e-09	-3.797880e+01	-7.628390e+01
1.800000e-07	-5.445253e-06	-1.156608e-09	-3.793067e+01	-7.624198e+01
1.900000e-07	-5.437981e-06	-1.146617e-09	-3.788002e+01	-7.619632e+01
2.000000e-07	-5.430483e-06	-1.136806e-09	-3.782779e+01	-7.614672e+01
2.100000e-07	-5.422716e-06	-1.137473e-09	-3.777368e+01	-7.609296e+01
2.200000e-07	-5.414648e-06	-1.186995e-09	-3.771748e+01	-7.603488e+01
2.300000e-07	-5.406300e-06	-1.168587e-09	-3.765933e+01	-7.597229e+01
2.400000e-07	-5.397476e-06	-1.146971e-09	-3.759787e+01	-7.590505e+01
2.500000e-07	-5.387887e-06	-1.136312e-09	-3.753107e+01	-7.583304e+01
2.600000e-07	-5.377513e-06	-1.167362e-09	-3.745881e+01	-7.575616e+01
2.700000e-07	-5.366645e-06	-1.163717e-09	-3.738310e+01	-7.567433e+01
2.800000e-07	-5.355438e-06	-1.149809e-09	-3.730503e+01	-7.558748e+01
2.900000e-07	-5.343852e-06	-1.155814e-09	-3.722433e+01	-7.549560e+01
3.000000e-07	-5.331847e-06	-1.170584e-09	-3.714070e+01	-7.539865e+01
3.100000e-07	-5.319479e-06	-1.173862e-09	-3.705455e+01	-7.529667e+01
3.200000e-07	-5.306660e-06	-1.149252e-09	-3.696526e+01	-7.518967e+01
3.300000e-07	-5.293368e-06	-1.161446e-09	-3.687266e+01	-7.507772e+01
3.400000e-07	-5.279794e-06	-1.159182e-09	-3.677811e+01	-7.496090e+01
3.500000e-07	-5.265864e-06	-1.155971e-09	-3.668108e+01	-7.483928e+01
3.600000e-07	-5.251442e-06	-1.126826e-09	-3.658062e+01	-7.471299e+01
3.700000e-07	-5.236522e-06	-1.155001e-09	-3.647669e+01	-7.458215e+01
3.800000e-07	-5.221047e-06	-1.160810e-09	-3.636889e+01	-7.444690e+01
3.900000e-07	-5.204989e-06	-1.147413e-09	-3.625703e+01	-7.430740e+01
4.000000e-07	-5.188448e-06	-1.127618e-09	-3.614182e+01	-7.416381e+01
4.100000e-07	-5.171706e-06	-1.160420e-09	-3.602519e+01	-7.401630e+01
4.200000e-07	-5.154714e-06	-1.140136e-09	-3.590683e+01	-7.386505e+01
4.300000e-07	-5.137330e-06	-1.107434e-09	-3.578573e+01	-7.371024e+01
4.400000e-07	-5.119632e-06	-1.117400e-09	-3.566246e+01	-7.355206e+01
4.500000e-07	-5.101542e-06	-1.148875e-09	-3.553644e+01	-7.339070e+01
4.600000e-07	-5.082945e-06	-1.111758e-09	-3.540690e+01	-7.322633e+01
4.700000e-07	-5.063926e-06	-1.106545e-09	-3.527442e+01	-7.305913e+01
4.800000e-07	-5.044651e-06	-1.140214e-09	-3.514015e+01	-7.288929e+01
4.900000e-07	-5.025205e-06	-1.130199e-09	-3.500469e+01	-7.271696e+01
5.000000e-07	-5.005553e-06	-1.090572e-09	-3.486780e+01	-7.254230e+01
5.100000e-07	-4.985641e-06	-1.113763e-09	-3.472910e+01	-7.236545e+01
5.200000e-07	-4.965437e-06	-1.120280e-09	-3.458836e+01	-7.218654e+01
5.300000e-07	-4.944906e-06	-1.084683e-09	-3.444534e+01	-7.200570e+01
5.400000e-07	-4.923996e-06	-1.093891e-09	-3.429969e+01	-7.182302e+01
5.500000e-07	-4.902741e-06	-1.121534e-09	-3.415163e+01	-7.163859e+01
5.600000e-07	-4.881081e-06	-1.092548e-09	-3.400075e+01	-7.145247e+01
5.700000e-07	-4.858997e-06	-1.078443e-09	-3.384691e+01	-7.126472e+01
5.800000e-07	-4.836569e-06	-1.110186e-09	-3.369068e+01	-7.107537e+01
5.900000e-07	-4.813708e-06	-1.096690e-09	-3.353144e+01	-7.088443e+01
6.000000e-07	-4.790534e-06	-1.071906e-09	-3.337001e+01	-7.069190e+01
6.100000e-07	-4.767195e-06	-1.090076e-09	-3.320744e+01	-7.049774e+01
6.200000e-07	-4.743649e-06	-1.097538e-09	-3.304342e+01	-7.030192e+01
6.300000e-07	-4.719893e-06	-1.067318e-09	-3.287794e+01	-7.010438e+01
6.400000e-07	-4.695876e-06	-1.075398e-09	-3.271064e+01	-6.990503e+01
6.500000e-07	-4.671509e-06	-1.084559e-09	-3.254090e+01	-6.970378e+01
6.600000e-07	-4.646742e-06	-1.069555e-09	-3.236839e+01	-6.950052e+01
6.700000e-07	-4.621410e-06	-1.062700e-09	-3.219193e+01	-6.929512e+01
6.800000e-07	-4.595494e-06	-1.078019e-09	-3.201140e+01	-6.908745e+01
6.900000e-07	-4.568990e-06	-1.063382e-09	-3.182678e+01	-6.887734e+01
7.000000e-07	-4.541949e-06	-1.055390e-09	-3.163841e+01	-6.866465e+01
7.100000e-07	-4.514621e-06	-1.057430e-09	-3.144806e+01	-6.844919e+01
7.200000e-07	-4.487080e-06	-1.054173e-09	-3.125621e+01	-6.823078e+01
7.300000e-07	-4.459367e-06	-1.041529e-09	-3.106316e+01	-6.800925e+01
7.400000e-07	-4.431514e-06	-1.046077e-09	-3.086914e+01	-6.778439e+01
7.500000e-07	-4.403489e-06	-1.039510e-09	-3.067393e+01	-6.755602e+01
7.600000e-07	-4.375170e-06	-1.032752e-09	-3.047666e+01	-6.732394e+01
7.700000e-07	-4.346484e-06	-1.031317e-09	-3.027684e+01	-6.708795e+01
7.800000e-07	-4.317427e-06	-1.029122e-09	-3.007444e+01	-6.684787e+01
7.900000e-07	-4.288078e-06	-1.019560e-09	-2.987000e+01	-6.660351e+01
8.000000e-07	-4.258487e-06	-1.018790e-09	-2.966387e+01	-6.635467e+01
8.100000e-07	-4.228651e-06	-1.012434e-09	-2.945604e+01	-6.610119e+01
8.200000e-07	-4.198556e-06	-9.981342e-10	-2.924640e+01	-6.584289e+01
8.300000e-07	-4.168107e-06	-9.905027e-10	-2.903430e+01	-6.557962e+01
8.400000e-07	-4.137354e-06	-9.891764e-10	-2.882007e+01	-6.531122e+01
8.500000e-07	-4.106333e-06	-9.825452e-10	-2.860399e+01	-6.503756e+01
8.600000e-07	-4.075017e-06	-9.794426e-10	-2.838585e+01	-6.475852e+01
8.700000e-07	-4.043506e-06	-9.837711e-10	-2.816635e+01	-6.447397e+01
8.800000e-07	-4.011919e-06	-9.793075e-10	-2.794632e+01	-6.418383e+01
8.900000e-07	-3.980157e-06	-9.713269e-10	-2.772507e+01	-6.388802e+01
9.000000e-07	-3.948137e-06	-9.635966e-10	-2.750203e+01	-6.358645e+01
9.100000e-07	-3.915817e-06	-9.549236e-10	-2.727689e+01	-6.327910e+01
9.200000e-07	-3.883063e-06	-9.395364e-10	-2.704873e+01	-6.296591e+01
9.300000e-07	-3.849853e-06	-9.334665e-10	-2.681740e+01	-6.264687e+01
9.400000e-07	-3.816210e-06	-9.304656e-10	-2.658305e+01	-6.232197e+01
9.500000e-07	-3.782183e-06	-9.268369e-10	-2.634602e+01	-6.199124e+01
9.600000e-07	-3.747795e-06	-9.219076e-10	-2.610648e+01	-6.165469e+01
9.700000e-07	-3.712995e-06	-9.206818e-10	-2.586407e+01	-6.131237e+01
9.800000e-07	-3.677800e-06	-9.110195e-10	-2.561890e+01	-6.096435e+01
9.900000e-07	-3.642429e-06	-9.015849e-10	-2.537251e+01	-6.061068e+01
1.000000e-06	-3.606953e-06	-8.947286e-10	-2.512539e+01	-6.025146e+01
1.010000e-06	-3.571292e-06	-8.919996e-10	-2.487699e+01	-5.988679e+01
1.020000e-06	-3.535504e-06	-8.854782e-10	-2.462770e+01	-5.951677e+01
1.030000e-06	-3.499555e-06	-8.840505e-10	-2.437728e+01	-5.914153e+01
1.040000e-06	-3.463408e-06	-8.817224e-10	-2.412549e+01	-5.876120e+01
1.050000e-06	-3.426964e-06	-8.749523e-10	-2.387162e+01	-5.837592e+01
1.060000e-06	-3.390177e-06	-8.643401e-10	-2.361537e+01	-5.798583e+01
1.070000e-06	-3.353134e-06	-8.568592e-10	-2.335734e+01	-5.759108e+01
1.080000e-06	-3.315865e-06	-8.493252e-10	-2.309773e+01	-5.719184e+01
1.090000e-06	-3.278380e-06	-8.443510e-10	-2.283662e+01	-5.678826e+01
1.100000e-06	-3.240698e-06	-8.412057e-10	-2.257413e+01	-5.638052e+01
1.110000e-06	-3.202817e-06	-8.370434e-10	-2.231026e+01	-5.596877e+01
1.120000e-06	-3.164744e-06	-8.296242e-10	-2.204505e+01	-5.555318e+01
1.130000e-06	-3.126432e-06	-8.213533e-10	-2.177817e+01	-5.513391e+01
1.140000e-06	-3.087870e-06	-8.140201e-10	-2.150956e+01	-5.471111e+01
1.150000e-06	-3.049138e-06	-8.068890e-10	-2.123976e+01	-5.428496e+01
1.160000e-06	-3.010138e-06	-8.022949e-10	-2.096809e+01	-5.385558e+01
1.170000e-06	-2.970888e-06	-7.979301e-10	-2.069468e+01	-5.342312e+01
1.180000e-06	-2.931519e-06	-7.923988e-10	-2.042044e+01	-5.298772e+01
1.190000e-06	-2.892043e-06	-7.859978e-10	-2.014546e+01	-5.254949e+01
1.200000e-06	-2.852454e-06	-7.802244e-10	-1.986969e+01	-5.210854e+01
1.210000e-06	-2.812692e-06	-7.698854e-10	-1.959272e+01	-5.166497e+01
1.220000e-06	-2.772776e-06	-7.591365e-10	-1.931467e+01	-5.121885e+01
1.230000e-06	-2.732732e-06	-7.487478e-10	-1.903573e+01	-5.077026e+01
1.240000e-06	-2.692589e-06	-7.402324e-10	-1.875610e+01	-5.031923e+01
1.250000e-06	-2.652283e-06	-7.329736e-10	-1.847534e+01	-4.986581e+01
1.260000e-06	-2.611732e-06	-7.301300e-10	-1.819287e+01	-4.940998e+01
1.270000e-06	-2.570885e-06	-7.259979e-10	-1.790833e+01	-4.895176e+01
1.280000e-06	-2.529632e-06	-7.204680e-10	-1.762097e+01	-4.849109e+01
1.290000e-06	-2.488080e-06	-7.116548e-10	-1.733153e+01	-4.802793e+01
1.300000e-06	-2.446231e-06	-7.020059e-10	-1.704001e+01	-4.756219e+01
1.310000e-06	-2.404045e-06	-6.900812e-10	-1.674616e+01	-4.709377e+01
1.320000e-06	-2.361606e-06	-6.796545e-10	-1.645053e+01	-4.662254e+01
1.330000e-06	-2.318995e-06	-6.696473e-10	-1.615371e+01	-4.614834e+01
1.340000e-06	-2.276099e-06	-6.616067e-10	-1.585491e+01	-4.567099e+01
1.350000e-06	-2.232907e-06	-6.562856e-10	-1.555403e+01	-4.519028e+01
1.360000e-06	-2.189578e-06	-6.514213e-10	-1.525221e+01	-4.470596e+01
1.370000e-06	-2.146162e-06	-6.440572e-10	-1.494978e+01	-4.421777e+01
1.380000e-06	-2.102622e-06	-6.330725e-10	-1.464649e+01	-4.372543e+01
1.390000e-06	-2.058985e-06	-6.198052e-10	-1.434252e+01	-4.322860e+01
1.400000e-06	-2.015310e-06	-6.088710e-10	-1.403830e+01	-4.272694e+01
1.410000e-06	-1.971562e-06	-6.001884e-10	-1.373355e+01	-4.222007e+01
1.420000e-06	-1.927756e-06	-5.923601e-10	-1.342841e+01	-4.170759e+01
1.430000e-06	-1.883906e-06	-5.871460e-10	-1.312296e+01	-4.118908e+01
1.440000e-06	-1.839975e-06	-5.815458e-10	-1.281694e+01	-4.066407e+01
1.450000e-06	-1.795861e-06	-5.726216e-10	-1.250965e+01	-4.013209e+01
1.460000e-06	-1.751619e-06	-5.600365e-10	-1.220147e+01	-3.959264e+01
1.470000e-06	-1.707286e-06	-5.469635e-10	-1.189265e+01	-3.904520e+01
1.480000e-06	-1.662790e-06	-5.340951e-10	-1.158270e+01	-3.848923e+01
1.490000e-06	-1.618082e-06	-5.242693e-10	-1.127128e+01	-3.792418e+01
1.500000e-06	-1.573250e-06	-5.172478e-10	-1.095898e+01	-3.734946e+01
1.510000e-06	-1.528405e-06	-5.119000e-10	-1.064660e+01	-3.676450e+01
1.520000e-06	-1.483429e-06	-5.043323e-10	-1.033331e+01	-3.616870e+01
1.530000e-06	-1.438323e-06	-4.949660e-10	-1.001910e+01	-3.556146e+01
1.540000e-06	-1.393103e-06	-4.843419e-10	-9.704112e+00	-3.494215e+01
1.550000e-06	-1.347754e-06	-4.710645e-10	-9.388213e+00	-3.431018e+01
1.560000e-06	-1.302332e-06	-4.571116e-10	-9.071818e+00	-3.366493e+01
1.570000e-06	-1.256794e-06	-4.455625e-10	-8.754606e+00	-3.300579e+01
1.580000e-06	-1.211109e-06	-4.341597e-10	-8.436371e+00	-3.233217e+01
1.590000e-06	-1.165296e-06	-4.233331e-10	-8.117247e+00	-3.164347e+01
1.600000e-06	-1.119413e-06	-4.155477e-10	-7.797632e+00	-3.093913e+01
1.610000e-06	-1.073586e-06	-4.063919e-10	-7.478409e+00	-3.021859e+01
1.620000e-06	-1.027776e-06	-3.910228e-10	-7.159304e+00	-2.948131e+01
1.630000e-06	-9.819082e-07	-3.745146e-10	-6.839799e+00	-2.872679e+01
1.640000e-06	-9.358927e-07	-3.591366e-10	-6.519263e+00	-2.795456e+01
1.650000e-06	-8.897472e-07	-3.451738e-10	-6.197822e+00	-2.716418e+01
1.660000e-06	-8.436376e-07	-3.336319e-10	-5.876631e+00	-2.635522e+01
1.670000e-06	-7.974850e-07	-3.255409e-10	-5.555140e+00	-2.552735e+01
1.680000e-06	-7.511791e-07	-3.177867e-10	-5.232581e+00	-2.468022e+01
1.690000e-06	-7.048446e-07	-3.077360e-10	-4.909823e+00	-2.381358e+01
1.700000e-06	-6.584868e-07	-2.937587e-10	-4.586903e+00	-2.292719e+01
1.710000e-06	-6.121155e-07	-2.768059e-10	-4.263888e+00	-2.202091e+01
1.720000e-06	-5.657216e-07	-2.594453e-10	-3.940717e+00	-2.109461e+01
1.730000e-06	-5.191397e-07	-2.444507e-10	-3.616235e+00	-2.014826e+01
1.740000e-06	-4.725480e-07	-2.312807e-10	-3.291686e+00	-1.918186e+01
1.750000e-06	-4.260595e-07	-2.180077e-10	-2.967855e+00	-1.819550e+01
1.760000e-06	-3.795645e-07	-2.052312e-10	-2.643980e+00	-1.718932e+01
1.770000e-06	-3.329261e-07	-1.930201e-10	-2.319104e+00	-1.616354e+01
1.780000e-06	-2.861349e-07	-1.799508e-10	-1.993165e+00	-1.511844e+01
1.790000e-06	-2.393101e-07	-1.652223e-10	-1.666992e+00	-1.405437e+01
1.800000e-06	-1.925340e-07	-1.492500e-10	-1.341158e+00	-1.297176e+01
1.810000e-06	-1.458342e-07	-1.316192e-10	-1.015855e+00	-1.187111e+01
1.820000e-06	-9.914281e-08	-1.137939e-10	-6.906113e-01	-1.075297e+01
1.830000e-06	-5.242207e-08	-9.574289e-11	-3.651629e-01	-9.617978e+00
1.840000e-06	-5.675952e-09	-7.924565e-11	-3.953768e-02	-8.466839e+00
1.850000e-06	4.110998e-08	-6.432526e-11	2.863649e-01	-7.300317e+00
1.860000e-06	8.783955e-08	-4.869480e-11	6.118748e-01	-6.119245e+00
1.870000e-06	1.345188e-07	-3.069528e-11	9.370339e-01	-4.924516e+00
1.880000e-06	1.812691e-07	-1.382343e-11	1.262688e+00	-3.717080e+00
1.890000e-06	2.280439e-07	1.734985e-12	1.588514e+00	-2.497946e+00
1.900000e-06	2.747929e-07	1.717092e-11	1.914159e+00	-1.268172e+00
1.910000e-06	3.214689e-07	3.241704e-11	2.239296e+00	-2.886495e-02
1.920000e-06	3.680887e-07	4.972661e-11	2.564041e+00	1.218825e+00
1.930000e-06	4.146618e-07	6.948545e-11	2.888461e+00	2.473710e+00
1.940000e-06	4.612289e-07	8.992362e-11	3.212839e+00	3.734566e+00
1.950000e-06	5.077772e-07	1.098845e-10	3.537086e+00	5.000143e+00
1.960000e-06	5.542757e-07	1.270731e-10	3.860987e+00	6.269166e+00
1.970000e-06	6.007679e-07	1.433228e-10	4.184843e+00	7.540344e+00
1.980000e-06	6.471657e-07	1.585798e-10	4.508042e+00	8.812371e+00
1.990000e-06	6.934704e-07	1.724639e-10	4.830593e+00	1.008394e+01
2.000000e-06	7.397066e-07	1.888167e-10	5.152666e+00	1.135374e+01
2.010000e-06	7.859069e-07	2.075999e-10	5.474488e+00	1.262046e+01
2.020000e-06	8.320913e-07	2.265934e-10	5.796201e+00	1.388281e+01
2.030000e-06	8.781703e-07	2.492495e-10	6.117179e+00	1.513953e+01
2.040000e-06	9.241596e-07	2.723966e-10	6.437533e+00	1.638934e+01
2.050000e-06	9.701960e-07	2.915467e-10	6.758214e+00	1.763104e+01
2.060000e-06	1.016244e-06	3.077769e-10	7.078978e+00	1.886344e+01
2.070000e-06	1.062149e-06	3.210982e-10	7.398741e+00	2.008537e+01
2.080000e-06	1.107924e-06	3.353061e-10	7.717606e+00	2.129575e+01
2.090000e-06	1.153622e-06	3.531248e-10	8.035924e+00	2.249350e+01
2.100000e-06	1.199216e-06	3.728641e-10	8.353530e+00	2.367764e+01
2.110000e-06	1.244723e-06	3.931776e-10	8.670518e+00	2.484721e+01
2.120000e-06	1.290173e-06	4.118159e-10	8.987117e+00	2.600134e+01
2.130000e-06	1.335571e-06	4.280931e-10	9.303354e+00	2.713919e+01
2.140000e-06	1.380837e-06	4.435791e-10	9.618670e+00	2.826002e+01
2.150000e-06	1.425946e-06	4.579229e-10	9.932889e+00	2.936315e+01
2.160000e-06	1.470997e-06	4.720395e-10	1.024671e+01	3.044795e+01
2.170000e-06	1.516017e-06	4.849680e-10	1.056030e+01	3.151389e+01
2.180000e-06	1.560968e-06	4.982616e-10	1.087343e+01	3.256050e+01
2.190000e-06	1.605774e-06	5.129553e-10	1.118554e+01	3.358739e+01
2.200000e-06	1.650344e-06	5.272945e-10	1.149600e+01	3.459424e+01
2.210000e-06	1.694776e-06	5.397481e-10	1.180551e+01	3.558079e+01
2.220000e-06	1.739114e-06	5.521314e-10	1.211436e+01	3.654687e+01
2.230000e-06	1.783298e-06	5.648657e-10	1.242214e+01	3.749239e+01
2.240000e-06	1.827385e-06	5.778135e-10	1.272924e+01	3.841729e+01
2.250000e-06	1.871362e-06	5.921335e-10	1.303558e+01	3.932160e+01
2.260000e-06	1.915234e-06	6.068972e-10	1.334118e+01	4.020543e+01
2.270000e-06	1.959000e-06	6.192550e-10	1.364605e+01	4.106892e+01
2.280000e-06	2.002671e-06	6.296955e-10	1.395025e+01	4.191228e+01
2.290000e-06	2.046353e-06	6.400340e-10	1.425454e+01	4.273578e+01
2.300000e-06	2.090020e-06	6.492155e-10	1.455871e+01	4.353972e+01
2.310000e-06	2.133586e-06	6.586036e-10	1.486218e+01	4.432446e+01
2.320000e-06	2.177009e-06	6.712936e-10	1.516466e+01	4.509040e+01
2.330000e-06	2.220270e-06	6.846885e-10	1.546601e+01	4.583797e+01
2.340000e-06	2.263378e-06	6.978415e-10	1.576629e+01	4.656764e+01
2.350000e-06	2.306248e-06	7.079985e-10	1.606492e+01	4.727990e+01
2.360000e-06	2.348878e-06	7.146136e-10	1.636187e+01	4.797525e+01
2.370000e-06	2.391322e-06	7.204409e-10	1.665753e+01	4.865423e+01
2.380000e-06	2.433493e-06	7.284290e-10	1.695128e+01	4.931739e+01
2.390000e-06	2.475345e-06	7.403627e-10	1.724282e+01	4.996526e+01
2.400000e-06	2.516900e-06	7.530730e-10	1.753228e+01	5.059842e+01
2.410000e-06	2.558191e-06	7.651417e-10	1.781991e+01	5.121739e+01
2.420000e-06	2.599137e-06	7.742733e-10	1.810513e+01	5.182275e+01
2.430000e-06	2.639687e-06	7.806205e-10	1.838759e+01	5.241502e+01
2.440000e-06	2.680056e-06	7.843603e-10	1.866880e+01	5.299473e+01
2.450000e-06	2.720348e-06	7.886828e-10	1.894946e+01	5.356239e+01
2.460000e-06	2.760437e-06	7.967602e-10	1.922871e+01	5.411850e+01
2.470000e-06	2.800362e-06	8.081716e-10	1.950683e+01	5.466353e+01
2.480000e-06	2.840152e-06	8.197403e-10	1.978400e+01	5.519792e+01
2.490000e-06	2.879769e-06	8.300267e-10	2.005996e+01	5.572210e+01
2.500000e-06	2.919188e-06	8.384888e-10	2.033455e+01	5.623646e+01
2.510000e-06	2.958458e-06	8.438814e-10	2.060810e+01	5.674138e+01
2.520000e-06	2.997647e-06	8.465857e-10	2.088108e+01	5.723719e+01
2.530000e-06	3.036688e-06	8.519439e-10	2.115303e+01	5.772419e+01
2.540000e-06	3.075521e-06	8.622748e-10	2.142354e+01	5.820267e+01
2.550000e-06	3.114035e-06	8.741367e-10	2.169182e+01	5.867288e+01
2.560000e-06	3.152233e-06	8.838504e-10	2.195790e+01	5.913504e+01
2.570000e-06	3.190301e-06	8.928349e-10	2.222307e+01	5.958933e+01
2.580000e-06	3.228302e-06	9.017374e-10	2.248778e+01	6.003593e+01
2.590000e-06	3.266080e-06	9.075827e-10	2.275094e+01	6.047498e+01
2.600000e-06	3.303599e-06	9.099707e-10	2.301229e+01	6.090658e+01
2.610000e-06	3.340912e-06	9.122199e-10	2.327220e+01	6.133084e+01
2.620000e-06	3.377987e-06	9.171744e-10	2.353046e+01	6.174783e+01
2.630000e-06	3.414760e-06	9.248162e-10	2.378662e+01	6.215760e+01
2.640000e-06	3.451234e-06	9.351449e-10	2.404069e+01	6.256019e+01
2.650000e-06	3.487430e-06	9.466878e-10	2.429282e+01	6.295563e+01
2.660000e-06	3.523393e-06	9.566473e-10	2.454333e+01	6.334393e+01
2.670000e-06	3.559220e-06	9.616229e-10	2.479290e+01	6.372511e+01
2.680000e-06	3.594931e-06	9.626679e-10	2.504165e+01	6.409916e+01
2.690000e-06	3.630518e-06	9.609698e-10	2.528955e+01	6.446608e+01
2.700000e-06	3.665935e-06	9.601923e-10	2.553626e+01	6.482588e+01
2.710000e-06	3.701110e-06	9.643224e-10	2.578128e+01	6.517855e+01
2.720000e-06	3.735970e-06	9.716937e-10	2.602411e+01	6.552409e+01
2.730000e-06	3.770535e-06	9.791615e-10	2.626488e+01	6.586251e+01
2.740000e-06	3.804771e-06	9.855748e-10	2.650336e+01	6.619383e+01
2.750000e-06	3.838531e-06	9.907360e-10	2.673853e+01	6.651807e+01
2.760000e-06	3.871805e-06	9.949677e-10	2.697031e+01	6.683527e+01
2.770000e-06	3.904610e-06	9.974557e-10	2.719882e+01	6.714548e+01
2.780000e-06	3.937022e-06	9.990215e-10	2.742460e+01	6.744875e+01
2.790000e-06	3.969177e-06	1.001728e-09	2.764859e+01	6.774515e+01
2.800000e-06	4.001120e-06	1.005704e-09	2.787109e+01	6.803478e+01
2.810000e-06	4.032872e-06	1.010596e-09	2.809227e+01	6.831773e+01
2.820000e-06	4.064462e-06	1.016586e-09	2.831232e+01	6.859412e+01
2.830000e-06	4.095917e-06	1.023387e-09	2.853144e+01	6.886408e+01
2.840000e-06	4.127129e-06	1.029442e-09	2.874885e+01	6.912774e+01
2.850000e-06	4.157924e-06	1.030988e-09	2.896337e+01	6.938527e+01
2.860000e-06	4.188316e-06	1.031580e-09	2.917507e+01	6.963682e+01
2.870000e-06	4.218412e-06	1.034133e-09	2.938471e+01	6.988257e+01
2.880000e-06	4.248248e-06	1.037751e-09	2.959255e+01	7.012270e+01
2.890000e-06	4.277885e-06	1.042295e-09	2.979899e+01	7.035742e+01
2.900000e-06	4.307266e-06	1.046684e-09	3.000365e+01	7.058690e+01
2.910000e-06	4.336352e-06	1.051881e-09	3.020626e+01	7.081136e+01
