# Temperatura_=_13.61
# Concentracion g/m^3_=_1620.0
# C_Vs_to_Am_M_A/Vsm_=_65563218390.804596
# pendiente_HvsI_1/m_=_3716.3
# ordenada_HvsI_A/m_=_1297.0
# frecuencia_Hz_=_135106.7120066977

Tiempo_(s)	Campo_(V.s)	Magnetizacion_(V.s)	Campo_(kA/m)	Magnetizacion_(A/m)
0.000000e+00	-5.521857e-06	-1.167146e-09	-3.837453e+01	-7.586578e+01
1.000000e-08	-5.522037e-06	-1.163830e-09	-3.837577e+01	-7.583028e+01
2.000000e-08	-5.521932e-06	-1.162068e-09	-3.837505e+01	-7.579282e+01
3.000000e-08	-5.521401e-06	-1.162357e-09	-3.837136e+01	-7.575332e+01
4.000000e-08	-5.520225e-06	-1.161751e-09	-3.836318e+01	-7.571168e+01
5.000000e-08	-5.518427e-06	-1.161454e-09	-3.835069e+01	-7.566781e+01
6.000000e-08	-5.516100e-06	-1.157805e-09	-3.833452e+01	-7.562161e+01
7.000000e-08	-5.513259e-06	-1.170222e-09	-3.831477e+01	-7.557300e+01
8.000000e-08	-5.509993e-06	-1.196849e-09	-3.829208e+01	-7.552191e+01
9.000000e-08	-5.506212e-06	-1.175117e-09	-3.826580e+01	-7.546824e+01
1.000000e-07	-5.501997e-06	-1.106569e-09	-3.823651e+01	-7.541194e+01
1.100000e-07	-5.497568e-06	-1.139577e-09	-3.820573e+01	-7.535294e+01
1.200000e-07	-5.492939e-06	-1.206420e-09	-3.817356e+01	-7.529119e+01
1.300000e-07	-5.487950e-06	-1.203423e-09	-3.813889e+01	-7.522665e+01
1.400000e-07	-5.482521e-06	-1.112628e-09	-3.810116e+01	-7.515929e+01
1.500000e-07	-5.476759e-06	-1.126826e-09	-3.806111e+01	-7.508907e+01
1.600000e-07	-5.470617e-06	-1.207686e-09	-3.801843e+01	-7.501599e+01
1.700000e-07	-5.464000e-06	-1.186879e-09	-3.797245e+01	-7.494004e+01
1.800000e-07	-5.456993e-06	-1.079877e-09	-3.792375e+01	-7.486122e+01
1.900000e-07	-5.449762e-06	-1.079006e-09	-3.787350e+01	-7.477953e+01
2.000000e-07	-5.442289e-06	-1.160156e-09	-3.782156e+01	-7.469501e+01
2.100000e-07	-5.434499e-06	-1.170779e-09	-3.776743e+01	-7.460766e+01
2.200000e-07	-5.426465e-06	-1.106635e-09	-3.771160e+01	-7.451753e+01
2.300000e-07	-5.418152e-06	-1.083497e-09	-3.765382e+01	-7.442464e+01
2.400000e-07	-5.409252e-06	-1.115445e-09	-3.759197e+01	-7.432904e+01
2.500000e-07	-5.399526e-06	-1.104197e-09	-3.752438e+01	-7.423076e+01
2.600000e-07	-5.389082e-06	-1.087025e-09	-3.745180e+01	-7.412985e+01
2.700000e-07	-5.378121e-06	-1.085946e-09	-3.737562e+01	-7.402635e+01
2.800000e-07	-5.366682e-06	-1.103116e-09	-3.729613e+01	-7.392030e+01
2.900000e-07	-5.354885e-06	-1.089211e-09	-3.721414e+01	-7.381174e+01
3.000000e-07	-5.342864e-06	-1.090557e-09	-3.713060e+01	-7.370070e+01
3.100000e-07	-5.330456e-06	-1.080079e-09	-3.704437e+01	-7.358723e+01
3.200000e-07	-5.317520e-06	-1.092367e-09	-3.695447e+01	-7.347133e+01
3.300000e-07	-5.304283e-06	-1.094529e-09	-3.686248e+01	-7.335304e+01
3.400000e-07	-5.290769e-06	-1.086394e-09	-3.676857e+01	-7.323236e+01
3.500000e-07	-5.276705e-06	-1.060737e-09	-3.667082e+01	-7.310931e+01
3.600000e-07	-5.262149e-06	-1.086663e-09	-3.656967e+01	-7.298386e+01
3.700000e-07	-5.247176e-06	-1.083337e-09	-3.646562e+01	-7.285602e+01
3.800000e-07	-5.231581e-06	-1.055995e-09	-3.635723e+01	-7.272576e+01
3.900000e-07	-5.215447e-06	-1.071503e-09	-3.624511e+01	-7.259305e+01
4.000000e-07	-5.198949e-06	-1.104746e-09	-3.613046e+01	-7.245784e+01
4.100000e-07	-5.182109e-06	-1.060675e-09	-3.601342e+01	-7.232009e+01
4.200000e-07	-5.165008e-06	-1.047299e-09	-3.589458e+01	-7.217973e+01
4.300000e-07	-5.147699e-06	-1.102309e-09	-3.577429e+01	-7.203671e+01
4.400000e-07	-5.130070e-06	-1.069034e-09	-3.565178e+01	-7.189093e+01
4.500000e-07	-5.111833e-06	-1.001691e-09	-3.552504e+01	-7.174233e+01
4.600000e-07	-5.093149e-06	-1.053031e-09	-3.539519e+01	-7.159082e+01
4.700000e-07	-5.074246e-06	-1.096191e-09	-3.526382e+01	-7.143629e+01
4.800000e-07	-5.055053e-06	-1.030559e-09	-3.513044e+01	-7.127866e+01
4.900000e-07	-5.035601e-06	-1.041525e-09	-3.499526e+01	-7.111782e+01
5.000000e-07	-5.015940e-06	-1.092908e-09	-3.485862e+01	-7.095368e+01
5.100000e-07	-4.995970e-06	-1.034116e-09	-3.471984e+01	-7.078613e+01
5.200000e-07	-4.975570e-06	-9.970593e-10	-3.457807e+01	-7.061507e+01
5.300000e-07	-4.954801e-06	-1.065433e-09	-3.443373e+01	-7.044042e+01
5.400000e-07	-4.933692e-06	-1.039513e-09	-3.428703e+01	-7.026207e+01
5.500000e-07	-4.912213e-06	-9.850912e-10	-3.413776e+01	-7.007994e+01
5.600000e-07	-4.890422e-06	-1.043424e-09	-3.398633e+01	-6.989396e+01
5.700000e-07	-4.868370e-06	-1.071443e-09	-3.383307e+01	-6.970405e+01
5.800000e-07	-4.845930e-06	-9.967217e-10	-3.367713e+01	-6.951014e+01
5.900000e-07	-4.823127e-06	-1.008258e-09	-3.351865e+01	-6.931220e+01
6.000000e-07	-4.800030e-06	-1.046739e-09	-3.335814e+01	-6.911017e+01
6.100000e-07	-4.776697e-06	-1.002745e-09	-3.319598e+01	-6.890403e+01
6.200000e-07	-4.753159e-06	-9.916835e-10	-3.303241e+01	-6.869377e+01
6.300000e-07	-4.729363e-06	-1.042374e-09	-3.286704e+01	-6.847938e+01
6.400000e-07	-4.705273e-06	-1.019817e-09	-3.269962e+01	-6.826088e+01
6.500000e-07	-4.680796e-06	-9.924308e-10	-3.252952e+01	-6.803828e+01
6.600000e-07	-4.655752e-06	-1.016342e-09	-3.235547e+01	-6.781162e+01
6.700000e-07	-4.630060e-06	-1.005162e-09	-3.217692e+01	-6.758096e+01
6.800000e-07	-4.603861e-06	-9.705667e-10	-3.199485e+01	-6.734635e+01
6.900000e-07	-4.577280e-06	-9.886985e-10	-3.181013e+01	-6.710788e+01
7.000000e-07	-4.550316e-06	-9.976059e-10	-3.162274e+01	-6.686561e+01
7.100000e-07	-4.522999e-06	-9.743675e-10	-3.143290e+01	-6.661966e+01
7.200000e-07	-4.495488e-06	-9.792065e-10	-3.124170e+01	-6.637012e+01
7.300000e-07	-4.467771e-06	-9.899086e-10	-3.104908e+01	-6.611709e+01
7.400000e-07	-4.439817e-06	-9.692865e-10	-3.085482e+01	-6.586070e+01
7.500000e-07	-4.411658e-06	-9.609204e-10	-3.065912e+01	-6.560107e+01
7.600000e-07	-4.383221e-06	-9.697821e-10	-3.046149e+01	-6.533830e+01
7.700000e-07	-4.354385e-06	-9.552941e-10	-3.026110e+01	-6.507253e+01
7.800000e-07	-4.325222e-06	-9.455746e-10	-3.005843e+01	-6.480388e+01
7.900000e-07	-4.295871e-06	-9.525249e-10	-2.985445e+01	-6.453246e+01
8.000000e-07	-4.266323e-06	-9.454511e-10	-2.964910e+01	-6.425838e+01
8.100000e-07	-4.236451e-06	-9.289176e-10	-2.944151e+01	-6.398174e+01
8.200000e-07	-4.206205e-06	-9.341374e-10	-2.923131e+01	-6.370265e+01
8.300000e-07	-4.175656e-06	-9.309369e-10	-2.901901e+01	-6.342118e+01
8.400000e-07	-4.144792e-06	-9.166327e-10	-2.880452e+01	-6.313741e+01
8.500000e-07	-4.113654e-06	-9.150081e-10	-2.858812e+01	-6.285140e+01
8.600000e-07	-4.082320e-06	-9.201901e-10	-2.837037e+01	-6.256319e+01
8.700000e-07	-4.050779e-06	-9.063812e-10	-2.815117e+01	-6.227281e+01
8.800000e-07	-4.019054e-06	-9.002451e-10	-2.793069e+01	-6.198028e+01
8.900000e-07	-3.987142e-06	-9.020709e-10	-2.770892e+01	-6.168558e+01
9.000000e-07	-3.954966e-06	-8.926104e-10	-2.748531e+01	-6.138869e+01
9.100000e-07	-3.922473e-06	-8.800657e-10	-2.725950e+01	-6.108957e+01
9.200000e-07	-3.889549e-06	-8.823175e-10	-2.703069e+01	-6.078816e+01
9.300000e-07	-3.856049e-06	-8.768530e-10	-2.679788e+01	-6.048438e+01
9.400000e-07	-3.822042e-06	-8.643781e-10	-2.656154e+01	-6.017814e+01
9.500000e-07	-3.787717e-06	-8.629030e-10	-2.632300e+01	-5.986931e+01
9.600000e-07	-3.753040e-06	-8.640103e-10	-2.608201e+01	-5.955777e+01
9.700000e-07	-3.718015e-06	-8.526478e-10	-2.583860e+01	-5.924337e+01
9.800000e-07	-3.682751e-06	-8.463189e-10	-2.559353e+01	-5.892596e+01
9.900000e-07	-3.647315e-06	-8.463568e-10	-2.534727e+01	-5.860537e+01
1.000000e-06	-3.611745e-06	-8.380774e-10	-2.510007e+01	-5.828141e+01
1.010000e-06	-3.576036e-06	-8.292838e-10	-2.485191e+01	-5.795389e+01
1.020000e-06	-3.540134e-06	-8.301089e-10	-2.460241e+01	-5.762263e+01
1.030000e-06	-3.504023e-06	-8.275723e-10	-2.435145e+01	-5.728742e+01
1.040000e-06	-3.467644e-06	-8.185861e-10	-2.409863e+01	-5.694806e+01
1.050000e-06	-3.430982e-06	-8.171987e-10	-2.384384e+01	-5.660435e+01
1.060000e-06	-3.394119e-06	-8.158118e-10	-2.358766e+01	-5.625611e+01
1.070000e-06	-3.357001e-06	-8.052485e-10	-2.332971e+01	-5.590313e+01
1.080000e-06	-3.319685e-06	-7.947186e-10	-2.307038e+01	-5.554523e+01
1.090000e-06	-3.282119e-06	-7.911627e-10	-2.280931e+01	-5.518225e+01
1.100000e-06	-3.244252e-06	-7.831627e-10	-2.254615e+01	-5.481402e+01
1.110000e-06	-3.206149e-06	-7.771679e-10	-2.228135e+01	-5.444041e+01
1.120000e-06	-3.167800e-06	-7.763049e-10	-2.201485e+01	-5.406127e+01
1.130000e-06	-3.129228e-06	-7.745246e-10	-2.174679e+01	-5.367651e+01
1.140000e-06	-3.090423e-06	-7.662545e-10	-2.147711e+01	-5.328602e+01
1.150000e-06	-3.051465e-06	-7.584494e-10	-2.120637e+01	-5.288975e+01
1.160000e-06	-3.012357e-06	-7.504700e-10	-2.093458e+01	-5.248764e+01
1.170000e-06	-2.973105e-06	-7.425575e-10	-2.066180e+01	-5.207966e+01
1.180000e-06	-2.933735e-06	-7.378732e-10	-2.038819e+01	-5.166582e+01
1.190000e-06	-2.894239e-06	-7.362605e-10	-2.011371e+01	-5.124613e+01
1.200000e-06	-2.854614e-06	-7.308463e-10	-1.983834e+01	-5.082063e+01
1.210000e-06	-2.814786e-06	-7.248056e-10	-1.956155e+01	-5.038938e+01
1.220000e-06	-2.774818e-06	-7.184404e-10	-1.928379e+01	-4.995246e+01
1.230000e-06	-2.734672e-06	-7.087713e-10	-1.900479e+01	-4.950998e+01
1.240000e-06	-2.694308e-06	-6.969420e-10	-1.872428e+01	-4.906205e+01
1.250000e-06	-2.653763e-06	-6.909209e-10	-1.844251e+01	-4.860880e+01
1.260000e-06	-2.612990e-06	-6.873337e-10	-1.815915e+01	-4.815038e+01
1.270000e-06	-2.571904e-06	-6.826667e-10	-1.787363e+01	-4.768693e+01
1.280000e-06	-2.530436e-06	-6.786989e-10	-1.758544e+01	-4.721862e+01
1.290000e-06	-2.488574e-06	-6.736977e-10	-1.729451e+01	-4.674560e+01
1.300000e-06	-2.446415e-06	-6.644168e-10	-1.700153e+01	-4.626804e+01
1.310000e-06	-2.404018e-06	-6.539090e-10	-1.670689e+01	-4.578610e+01
1.320000e-06	-2.361344e-06	-6.460864e-10	-1.641032e+01	-4.529992e+01
1.330000e-06	-2.318414e-06	-6.398320e-10	-1.611198e+01	-4.480965e+01
1.340000e-06	-2.275277e-06	-6.333908e-10	-1.581220e+01	-4.431539e+01
1.350000e-06	-2.232013e-06	-6.259921e-10	-1.551153e+01	-4.381726e+01
1.360000e-06	-2.188627e-06	-6.192838e-10	-1.521001e+01	-4.331532e+01
1.370000e-06	-2.145126e-06	-6.109560e-10	-1.490770e+01	-4.280964e+01
1.380000e-06	-2.101538e-06	-6.016743e-10	-1.460478e+01	-4.230022e+01
1.390000e-06	-2.057868e-06	-5.926537e-10	-1.430130e+01	-4.178706e+01
1.400000e-06	-2.014166e-06	-5.848594e-10	-1.399758e+01	-4.127009e+01
1.410000e-06	-1.970366e-06	-5.779909e-10	-1.369320e+01	-4.074923e+01
1.420000e-06	-1.926425e-06	-5.730168e-10	-1.338782e+01	-4.022433e+01
1.430000e-06	-1.882389e-06	-5.657972e-10	-1.308179e+01	-3.969521e+01
1.440000e-06	-1.838249e-06	-5.566703e-10	-1.277504e+01	-3.916164e+01
1.450000e-06	-1.794011e-06	-5.463578e-10	-1.246760e+01	-3.862334e+01
1.460000e-06	-1.749632e-06	-5.380417e-10	-1.215919e+01	-3.807998e+01
1.470000e-06	-1.705090e-06	-5.299439e-10	-1.184964e+01	-3.753118e+01
1.480000e-06	-1.660473e-06	-5.211218e-10	-1.153957e+01	-3.697651e+01
1.490000e-06	-1.615771e-06	-5.145960e-10	-1.122891e+01	-3.641549e+01
1.500000e-06	-1.570877e-06	-5.085030e-10	-1.091692e+01	-3.584759e+01
1.510000e-06	-1.525797e-06	-4.987080e-10	-1.060363e+01	-3.527223e+01
1.520000e-06	-1.480598e-06	-4.879941e-10	-1.028952e+01	-3.468881e+01
1.530000e-06	-1.435340e-06	-4.773929e-10	-9.974994e+00	-3.409665e+01
1.540000e-06	-1.389940e-06	-4.677627e-10	-9.659484e+00	-3.349508e+01
1.550000e-06	-1.344402e-06	-4.577950e-10	-9.343012e+00	-3.288334e+01
1.560000e-06	-1.298861e-06	-4.469984e-10	-9.026528e+00	-3.226070e+01
1.570000e-06	-1.253235e-06	-4.370704e-10	-8.709441e+00	-3.162635e+01
1.580000e-06	-1.207481e-06	-4.259413e-10	-8.391473e+00	-3.097952e+01
1.590000e-06	-1.161663e-06	-4.141079e-10	-8.073055e+00	-3.031937e+01
1.600000e-06	-1.115724e-06	-4.016273e-10	-7.753801e+00	-2.964509e+01
1.610000e-06	-1.069721e-06	-3.879337e-10	-7.434103e+00	-2.895587e+01
1.620000e-06	-1.023703e-06	-3.733635e-10	-7.114293e+00	-2.825088e+01
1.630000e-06	-9.776300e-07	-3.606107e-10	-6.794107e+00	-2.752933e+01
1.640000e-06	-9.314721e-07	-3.501770e-10	-6.473330e+00	-2.679045e+01
1.650000e-06	-8.851606e-07	-3.397654e-10	-6.151484e+00	-2.603348e+01
1.660000e-06	-8.388503e-07	-3.278787e-10	-5.829648e+00	-2.525771e+01
1.670000e-06	-7.925215e-07	-3.143136e-10	-5.507683e+00	-2.446247e+01
1.680000e-06	-7.460046e-07	-3.004900e-10	-5.184410e+00	-2.364713e+01
1.690000e-06	-6.994402e-07	-2.887340e-10	-4.860808e+00	-2.281114e+01
1.700000e-06	-6.528898e-07	-2.758991e-10	-4.537303e+00	-2.195399e+01
1.710000e-06	-6.063247e-07	-2.614411e-10	-4.213696e+00	-2.107525e+01
1.720000e-06	-5.597786e-07	-2.477621e-10	-3.890220e+00	-2.017456e+01
1.730000e-06	-5.132210e-07	-2.332163e-10	-3.566665e+00	-1.925164e+01
1.740000e-06	-4.665823e-07	-2.177753e-10	-3.242546e+00	-1.830632e+01
1.750000e-06	-4.198280e-07	-2.039402e-10	-2.917623e+00	-1.733848e+01
1.760000e-06	-3.730878e-07	-1.901268e-10	-2.592800e+00	-1.634812e+01
1.770000e-06	-3.264166e-07	-1.751382e-10	-2.268455e+00	-1.533533e+01
1.780000e-06	-2.796730e-07	-1.592459e-10	-1.943607e+00	-1.430030e+01
1.790000e-06	-2.327964e-07	-1.447198e-10	-1.617834e+00	-1.324333e+01
1.800000e-06	-1.858224e-07	-1.307681e-10	-1.291385e+00	-1.216481e+01
1.810000e-06	-1.388096e-07	-1.141742e-10	-9.646666e-01	-1.106524e+01
1.820000e-06	-9.173748e-08	-9.731253e-11	-6.375359e-01	-9.945211e+00
1.830000e-06	-4.471408e-08	-8.050709e-11	-3.107436e-01	-8.805433e+00
1.840000e-06	2.230105e-09	-6.322582e-11	1.549827e-02	-7.646703e+00
1.850000e-06	4.907592e-08	-4.714226e-11	3.410565e-01	-6.469917e+00
1.860000e-06	9.581419e-08	-2.782501e-11	6.658674e-01	-5.276067e+00
1.870000e-06	1.425188e-07	-9.130289e-12	9.904442e-01	-4.066228e+00
1.880000e-06	1.893045e-07	6.275891e-12	1.315585e+00	-2.841564e+00
1.890000e-06	2.361924e-07	1.970690e-11	1.641435e+00	-1.603312e+00
1.900000e-06	2.830204e-07	3.403734e-11	1.966870e+00	-3.527863e-01
1.910000e-06	3.298533e-07	5.011066e-11	2.292338e+00	9.086382e-01
1.920000e-06	3.766333e-07	6.928322e-11	2.617439e+00	2.179526e+00
1.930000e-06	4.234044e-07	9.178235e-11	2.942478e+00	3.458393e+00
1.940000e-06	4.702357e-07	1.121835e-10	3.267936e+00	4.743712e+00
1.950000e-06	5.169170e-07	1.286330e-10	3.592350e+00	6.033923e+00
1.960000e-06	5.636218e-07	1.442651e-10	3.916929e+00	7.327439e+00
1.970000e-06	6.103430e-07	1.620596e-10	4.241621e+00	8.622659e+00
1.980000e-06	6.568279e-07	1.797470e-10	4.564671e+00	9.917975e+00
1.990000e-06	7.032734e-07	1.948853e-10	4.887447e+00	1.121178e+01
2.000000e-06	7.497400e-07	2.116881e-10	5.210370e+00	1.250247e+01
2.010000e-06	7.961326e-07	2.309977e-10	5.532778e+00	1.378848e+01
2.020000e-06	8.424232e-07	2.514927e-10	5.854478e+00	1.506826e+01
2.030000e-06	8.886460e-07	2.738388e-10	6.175707e+00	1.634029e+01
2.040000e-06	9.347798e-07	2.928691e-10	6.496317e+00	1.760310e+01
2.050000e-06	9.808039e-07	3.096467e-10	6.816165e+00	1.885529e+01
2.060000e-06	1.026753e-06	3.234545e-10	7.135490e+00	2.009549e+01
2.070000e-06	1.072636e-06	3.384689e-10	7.454358e+00	2.132241e+01
2.080000e-06	1.118492e-06	3.557232e-10	7.773039e+00	2.253484e+01
2.090000e-06	1.164294e-06	3.758421e-10	8.091339e+00	2.373164e+01
2.100000e-06	1.209960e-06	3.965654e-10	8.408702e+00	2.491176e+01
2.110000e-06	1.255498e-06	4.145908e-10	8.725170e+00	2.607421e+01
2.120000e-06	1.300996e-06	4.293419e-10	9.041360e+00	2.721812e+01
2.130000e-06	1.346424e-06	4.425102e-10	9.357066e+00	2.834271e+01
2.140000e-06	1.391777e-06	4.563246e-10	9.672249e+00	2.944729e+01
2.150000e-06	1.437026e-06	4.688555e-10	9.986713e+00	3.053125e+01
2.160000e-06	1.482145e-06	4.809252e-10	1.030027e+01	3.159410e+01
2.170000e-06	1.527150e-06	4.952582e-10	1.061304e+01	3.263544e+01
2.180000e-06	1.572080e-06	5.108996e-10	1.092528e+01	3.365497e+01
2.190000e-06	1.616931e-06	5.271640e-10	1.123697e+01	3.465247e+01
2.200000e-06	1.661611e-06	5.415968e-10	1.154748e+01	3.562782e+01
2.210000e-06	1.706152e-06	5.523304e-10	1.185702e+01	3.658100e+01
2.220000e-06	1.750587e-06	5.604909e-10	1.216583e+01	3.751205e+01
2.230000e-06	1.794886e-06	5.690014e-10	1.247368e+01	3.842112e+01
2.240000e-06	1.839023e-06	5.806734e-10	1.278042e+01	3.930840e+01
2.250000e-06	1.883040e-06	5.944661e-10	1.308632e+01	4.017420e+01
2.260000e-06	1.926974e-06	6.098416e-10	1.339164e+01	4.101886e+01
2.270000e-06	1.970801e-06	6.239920e-10	1.369622e+01	4.184278e+01
2.280000e-06	2.014521e-06	6.344622e-10	1.400005e+01	4.264643e+01
2.290000e-06	2.058140e-06	6.431499e-10	1.430319e+01	4.343031e+01
2.300000e-06	2.101717e-06	6.511916e-10	1.460603e+01	4.419499e+01
2.310000e-06	2.145258e-06	6.593470e-10	1.490862e+01	4.494104e+01
2.320000e-06	2.188767e-06	6.699837e-10	1.521099e+01	4.566908e+01
2.330000e-06	2.232228e-06	6.819764e-10	1.551302e+01	4.637974e+01
2.340000e-06	2.275524e-06	6.943586e-10	1.581391e+01	4.707367e+01
2.350000e-06	2.318623e-06	7.046767e-10	1.611343e+01	4.775153e+01
2.360000e-06	2.361486e-06	7.124783e-10	1.641131e+01	4.841396e+01
2.370000e-06	2.404129e-06	7.188522e-10	1.670766e+01	4.906164e+01
2.380000e-06	2.446489e-06	7.259978e-10	1.700205e+01	4.969520e+01
2.390000e-06	2.488452e-06	7.352449e-10	1.729367e+01	5.031528e+01
2.400000e-06	2.530079e-06	7.460772e-10	1.758296e+01	5.092248e+01
2.410000e-06	2.571475e-06	7.560316e-10	1.787064e+01	5.151740e+01
2.420000e-06	2.612655e-06	7.639584e-10	1.815682e+01	5.210059e+01
2.430000e-06	2.653492e-06	7.710358e-10	1.844062e+01	5.267259e+01
2.440000e-06	2.694000e-06	7.777142e-10	1.872214e+01	5.323388e+01
2.450000e-06	2.734290e-06	7.829326e-10	1.900214e+01	5.378493e+01
2.460000e-06	2.774366e-06	7.884166e-10	1.928065e+01	5.432616e+01
2.470000e-06	2.814257e-06	7.959877e-10	1.955787e+01	5.485796e+01
2.480000e-06	2.854035e-06	8.040264e-10	1.983432e+01	5.538066e+01
2.490000e-06	2.893687e-06	8.105775e-10	2.010988e+01	5.589456e+01
2.500000e-06	2.933164e-06	8.175919e-10	2.038423e+01	5.639993e+01
2.510000e-06	2.972517e-06	8.249474e-10	2.065771e+01	5.689700e+01
2.520000e-06	3.011765e-06	8.314288e-10	2.093047e+01	5.738594e+01
2.530000e-06	3.050826e-06	8.377055e-10	2.120193e+01	5.786691e+01
2.540000e-06	3.089704e-06	8.435815e-10	2.147211e+01	5.834001e+01
2.550000e-06	3.128394e-06	8.482966e-10	2.174099e+01	5.880534e+01
2.560000e-06	3.166822e-06	8.533087e-10	2.200805e+01	5.926294e+01
2.570000e-06	3.204963e-06	8.613552e-10	2.227311e+01	5.971284e+01
2.580000e-06	3.242947e-06	8.705824e-10	2.253708e+01	6.015505e+01
2.590000e-06	3.280763e-06	8.787480e-10	2.279989e+01	6.058954e+01
2.600000e-06	3.318354e-06	8.853403e-10	2.306113e+01	6.101628e+01
2.610000e-06	3.355702e-06	8.896732e-10	2.332068e+01	6.143522e+01
2.620000e-06	3.392771e-06	8.928430e-10	2.357830e+01	6.184631e+01
2.630000e-06	3.429627e-06	8.970555e-10	2.383443e+01	6.224948e+01
2.640000e-06	3.466248e-06	9.008546e-10	2.408893e+01	6.264468e+01
2.650000e-06	3.502588e-06	9.062766e-10	2.434148e+01	6.303183e+01
2.660000e-06	3.538637e-06	9.138993e-10	2.459201e+01	6.341087e+01
2.670000e-06	3.574476e-06	9.196354e-10	2.484107e+01	6.378176e+01
2.680000e-06	3.610160e-06	9.226023e-10	2.508905e+01	6.414444e+01
2.690000e-06	3.645703e-06	9.239356e-10	2.533606e+01	6.449889e+01
2.700000e-06	3.681103e-06	9.256738e-10	2.558208e+01	6.484509e+01
2.710000e-06	3.716284e-06	9.299201e-10	2.582657e+01	6.518305e+01
2.720000e-06	3.751226e-06	9.341657e-10	2.606940e+01	6.551278e+01
2.730000e-06	3.785922e-06	9.384894e-10	2.631053e+01	6.583432e+01
2.740000e-06	3.820267e-06	9.417914e-10	2.654921e+01	6.614773e+01
2.750000e-06	3.854157e-06	9.442098e-10	2.678473e+01	6.645310e+01
2.760000e-06	3.887601e-06	9.498347e-10	2.701715e+01	6.675053e+01
2.770000e-06	3.920578e-06	9.556942e-10	2.724633e+01	6.704014e+01
2.780000e-06	3.953055e-06	9.621544e-10	2.747203e+01	6.732208e+01
2.790000e-06	3.985129e-06	9.672034e-10	2.769493e+01	6.759653e+01
2.800000e-06	4.016945e-06	9.689600e-10	2.791604e+01	6.786366e+01
2.810000e-06	4.048652e-06	9.698382e-10	2.813638e+01	6.812368e+01
2.820000e-06	4.080235e-06	9.711174e-10	2.835587e+01	6.837682e+01
2.830000e-06	4.111606e-06	9.754729e-10	2.857389e+01	6.862332e+01
2.840000e-06	4.142809e-06	9.818420e-10	2.879074e+01	6.886342e+01
2.850000e-06	4.173776e-06	9.872414e-10	2.900595e+01	6.909739e+01
2.860000e-06	4.204329e-06	9.930986e-10	2.921827e+01	6.932549e+01
2.870000e-06	4.234544e-06	9.978045e-10	2.942825e+01	6.954801e+01
2.880000e-06	4.264512e-06	9.990790e-10	2.963652e+01	6.976522e+01
2.890000e-06	4.294158e-06	9.988199e-10	2.984255e+01	6.997739e+01
2.900000e-06	4.323575e-06	9.995178e-10	3.004698e+01	7.018482e+01
2.910000e-06	4.352784e-06	1.002724e-09	3.024997e+01	7.038777e+01
