# Temperatura_=_-0.4
# Concentracion g/m^3_=_1620.0
# C_Vs_to_Am_M_A/Vsm_=_65563218390.804596
# pendiente_HvsI_1/m_=_3716.3
# ordenada_HvsI_A/m_=_1297.0
# frecuencia_Hz_=_135088.7366703996

Tiempo_(s)	Campo_(V.s)	Magnetizacion_(V.s)	Campo_(kA/m)	Magnetizacion_(A/m)
0.000000e+00	-5.515955e-06	-1.586402e-09	-3.838893e+01	-1.026819e+02
1.000000e-08	-5.516126e-06	-1.583959e-09	-3.839012e+01	-1.026021e+02
2.000000e-08	-5.516047e-06	-1.580864e-09	-3.838957e+01	-1.025183e+02
3.000000e-08	-5.515536e-06	-1.580871e-09	-3.838602e+01	-1.024309e+02
4.000000e-08	-5.514469e-06	-1.581013e-09	-3.837859e+01	-1.023402e+02
5.000000e-08	-5.512901e-06	-1.578084e-09	-3.836768e+01	-1.022463e+02
6.000000e-08	-5.510741e-06	-1.570455e-09	-3.835265e+01	-1.021496e+02
7.000000e-08	-5.507975e-06	-1.563271e-09	-3.833340e+01	-1.020503e+02
8.000000e-08	-5.504734e-06	-1.580094e-09	-3.831084e+01	-1.019488e+02
9.000000e-08	-5.501008e-06	-1.615227e-09	-3.828491e+01	-1.018453e+02
1.000000e-07	-5.496782e-06	-1.612199e-09	-3.825550e+01	-1.017402e+02
1.100000e-07	-5.492361e-06	-1.576752e-09	-3.822473e+01	-1.016336e+02
1.200000e-07	-5.487813e-06	-1.532482e-09	-3.819307e+01	-1.015259e+02
1.300000e-07	-5.482903e-06	-1.553000e-09	-3.815890e+01	-1.014174e+02
1.400000e-07	-5.477561e-06	-1.573600e-09	-3.812173e+01	-1.013082e+02
1.500000e-07	-5.471876e-06	-1.554736e-09	-3.808216e+01	-1.011986e+02
1.600000e-07	-5.465929e-06	-1.556551e-09	-3.804077e+01	-1.010888e+02
1.700000e-07	-5.459594e-06	-1.579214e-09	-3.799668e+01	-1.009790e+02
1.800000e-07	-5.452745e-06	-1.573241e-09	-3.794902e+01	-1.008695e+02
1.900000e-07	-5.445440e-06	-1.535827e-09	-3.789818e+01	-1.007603e+02
2.000000e-07	-5.437876e-06	-1.529943e-09	-3.784553e+01	-1.006515e+02
2.100000e-07	-5.430157e-06	-1.548087e-09	-3.779181e+01	-1.005434e+02
2.200000e-07	-5.422078e-06	-1.542421e-09	-3.773558e+01	-1.004360e+02
2.300000e-07	-5.413727e-06	-1.515271e-09	-3.767747e+01	-1.003292e+02
2.400000e-07	-5.405010e-06	-1.510409e-09	-3.761680e+01	-1.002233e+02
2.500000e-07	-5.395479e-06	-1.492324e-09	-3.755046e+01	-1.001181e+02
2.600000e-07	-5.385194e-06	-1.490072e-09	-3.747888e+01	-1.000136e+02
2.700000e-07	-5.374298e-06	-1.497767e-09	-3.740305e+01	-9.990987e+01
2.800000e-07	-5.362904e-06	-1.499344e-09	-3.732376e+01	-9.980668e+01
2.900000e-07	-5.351165e-06	-1.481426e-09	-3.724205e+01	-9.970398e+01
3.000000e-07	-5.339181e-06	-1.479532e-09	-3.715866e+01	-9.960162e+01
3.100000e-07	-5.326824e-06	-1.492966e-09	-3.707265e+01	-9.949944e+01
3.200000e-07	-5.313960e-06	-1.482898e-09	-3.698312e+01	-9.939724e+01
3.300000e-07	-5.300689e-06	-1.462160e-09	-3.689077e+01	-9.929482e+01
3.400000e-07	-5.287090e-06	-1.473175e-09	-3.679612e+01	-9.919192e+01
3.500000e-07	-5.273039e-06	-1.484551e-09	-3.669833e+01	-9.908830e+01
3.600000e-07	-5.258534e-06	-1.476731e-09	-3.659738e+01	-9.898368e+01
3.700000e-07	-5.243712e-06	-1.473119e-09	-3.649422e+01	-9.887776e+01
3.800000e-07	-5.228349e-06	-1.476084e-09	-3.638731e+01	-9.877023e+01
3.900000e-07	-5.212293e-06	-1.467041e-09	-3.627556e+01	-9.866076e+01
4.000000e-07	-5.195921e-06	-1.461655e-09	-3.616162e+01	-9.854903e+01
4.100000e-07	-5.179329e-06	-1.476710e-09	-3.604614e+01	-9.843469e+01
4.200000e-07	-5.162285e-06	-1.471502e-09	-3.592752e+01	-9.831738e+01
4.300000e-07	-5.144953e-06	-1.459324e-09	-3.580690e+01	-9.819677e+01
4.400000e-07	-5.127344e-06	-1.462193e-09	-3.568435e+01	-9.807250e+01
4.500000e-07	-5.109256e-06	-1.461910e-09	-3.555847e+01	-9.794421e+01
4.600000e-07	-5.090704e-06	-1.448298e-09	-3.542935e+01	-9.781157e+01
4.700000e-07	-5.071755e-06	-1.450881e-09	-3.529747e+01	-9.767422e+01
4.800000e-07	-5.052472e-06	-1.454901e-09	-3.516327e+01	-9.753184e+01
4.900000e-07	-5.032921e-06	-1.447479e-09	-3.502720e+01	-9.738412e+01
5.000000e-07	-5.013190e-06	-1.441412e-09	-3.488988e+01	-9.723074e+01
5.100000e-07	-4.993317e-06	-1.440630e-09	-3.475157e+01	-9.707142e+01
5.200000e-07	-4.973108e-06	-1.429684e-09	-3.461092e+01	-9.690589e+01
5.300000e-07	-4.952453e-06	-1.425440e-09	-3.446717e+01	-9.673388e+01
5.400000e-07	-4.931483e-06	-1.427242e-09	-3.432123e+01	-9.655519e+01
5.500000e-07	-4.910180e-06	-1.420530e-09	-3.417297e+01	-9.636958e+01
5.600000e-07	-4.888540e-06	-1.412727e-09	-3.402236e+01	-9.617689e+01
5.700000e-07	-4.866557e-06	-1.417745e-09	-3.386937e+01	-9.597694e+01
5.800000e-07	-4.844200e-06	-1.412434e-09	-3.371377e+01	-9.576962e+01
5.900000e-07	-4.821489e-06	-1.401128e-09	-3.355571e+01	-9.555481e+01
6.000000e-07	-4.798416e-06	-1.399933e-09	-3.339513e+01	-9.533243e+01
6.100000e-07	-4.775090e-06	-1.402777e-09	-3.323280e+01	-9.510242e+01
6.200000e-07	-4.751541e-06	-1.399211e-09	-3.306891e+01	-9.486477e+01
6.300000e-07	-4.727753e-06	-1.398321e-09	-3.290335e+01	-9.461947e+01
6.400000e-07	-4.703746e-06	-1.396411e-09	-3.273627e+01	-9.436655e+01
6.500000e-07	-4.679378e-06	-1.386333e-09	-3.256667e+01	-9.410606e+01
6.600000e-07	-4.654541e-06	-1.376989e-09	-3.239382e+01	-9.383808e+01
6.700000e-07	-4.629062e-06	-1.373635e-09	-3.221650e+01	-9.356270e+01
6.800000e-07	-4.602911e-06	-1.372367e-09	-3.203450e+01	-9.328004e+01
6.900000e-07	-4.576341e-06	-1.365319e-09	-3.184958e+01	-9.299025e+01
7.000000e-07	-4.549332e-06	-1.360642e-09	-3.166161e+01	-9.269348e+01
7.100000e-07	-4.522007e-06	-1.360713e-09	-3.147144e+01	-9.238992e+01
7.200000e-07	-4.494532e-06	-1.355948e-09	-3.128022e+01	-9.207975e+01
7.300000e-07	-4.466897e-06	-1.345041e-09	-3.108789e+01	-9.176317e+01
7.400000e-07	-4.439112e-06	-1.340784e-09	-3.089452e+01	-9.144040e+01
7.500000e-07	-4.411047e-06	-1.337738e-09	-3.069919e+01	-9.111167e+01
7.600000e-07	-4.382620e-06	-1.329426e-09	-3.050136e+01	-9.077719e+01
7.700000e-07	-4.353922e-06	-1.321762e-09	-3.030162e+01	-9.043720e+01
7.800000e-07	-4.324885e-06	-1.316681e-09	-3.009954e+01	-9.009194e+01
7.900000e-07	-4.295525e-06	-1.304126e-09	-2.989521e+01	-8.974163e+01
8.000000e-07	-4.265875e-06	-1.294909e-09	-2.968885e+01	-8.938651e+01
8.100000e-07	-4.235950e-06	-1.291298e-09	-2.948059e+01	-8.902680e+01
8.200000e-07	-4.205660e-06	-1.283701e-09	-2.926978e+01	-8.866271e+01
8.300000e-07	-4.175041e-06	-1.275531e-09	-2.905668e+01	-8.829445e+01
8.400000e-07	-4.144240e-06	-1.273064e-09	-2.884232e+01	-8.792222e+01
8.500000e-07	-4.113098e-06	-1.267759e-09	-2.862558e+01	-8.754620e+01
8.600000e-07	-4.081739e-06	-1.261038e-09	-2.840734e+01	-8.716656e+01
8.700000e-07	-4.050248e-06	-1.256745e-09	-2.818817e+01	-8.678344e+01
8.800000e-07	-4.018562e-06	-1.253952e-09	-2.796765e+01	-8.639698e+01
8.900000e-07	-3.986728e-06	-1.248299e-09	-2.774610e+01	-8.600730e+01
9.000000e-07	-3.954683e-06	-1.240990e-09	-2.752308e+01	-8.561449e+01
9.100000e-07	-3.922340e-06	-1.235129e-09	-2.729798e+01	-8.521863e+01
9.200000e-07	-3.889643e-06	-1.229582e-09	-2.707042e+01	-8.481977e+01
9.300000e-07	-3.856526e-06	-1.224836e-09	-2.683994e+01	-8.441795e+01
9.400000e-07	-3.822858e-06	-1.222305e-09	-2.660563e+01	-8.401317e+01
9.500000e-07	-3.788766e-06	-1.216879e-09	-2.636836e+01	-8.360543e+01
9.600000e-07	-3.754253e-06	-1.209165e-09	-2.612816e+01	-8.319471e+01
9.700000e-07	-3.719302e-06	-1.201843e-09	-2.588492e+01	-8.278094e+01
9.800000e-07	-3.684118e-06	-1.193083e-09	-2.564005e+01	-8.236407e+01
9.900000e-07	-3.648703e-06	-1.185088e-09	-2.539357e+01	-8.194400e+01
1.000000e-06	-3.613099e-06	-1.179838e-09	-2.514579e+01	-8.152063e+01
1.010000e-06	-3.577386e-06	-1.176340e-09	-2.489723e+01	-8.109383e+01
1.020000e-06	-3.541571e-06	-1.173187e-09	-2.464798e+01	-8.066348e+01
1.030000e-06	-3.505607e-06	-1.170366e-09	-2.439768e+01	-8.022942e+01
1.040000e-06	-3.469387e-06	-1.166576e-09	-2.414560e+01	-7.979148e+01
1.050000e-06	-3.432914e-06	-1.158873e-09	-2.389177e+01	-7.934949e+01
1.060000e-06	-3.396148e-06	-1.147577e-09	-2.363589e+01	-7.890328e+01
1.070000e-06	-3.359044e-06	-1.136697e-09	-2.337766e+01	-7.845264e+01
1.080000e-06	-3.321710e-06	-1.127653e-09	-2.311783e+01	-7.799738e+01
1.090000e-06	-3.284207e-06	-1.121761e-09	-2.285682e+01	-7.753730e+01
1.100000e-06	-3.246442e-06	-1.115578e-09	-2.259399e+01	-7.707220e+01
1.110000e-06	-3.208376e-06	-1.108531e-09	-2.232906e+01	-7.660187e+01
1.120000e-06	-3.170074e-06	-1.099305e-09	-2.206250e+01	-7.612611e+01
1.130000e-06	-3.131571e-06	-1.090315e-09	-2.179453e+01	-7.564472e+01
1.140000e-06	-3.092927e-06	-1.081336e-09	-2.152558e+01	-7.515749e+01
1.150000e-06	-3.054089e-06	-1.071355e-09	-2.125529e+01	-7.466424e+01
1.160000e-06	-3.015037e-06	-1.061706e-09	-2.098350e+01	-7.416477e+01
1.170000e-06	-2.975798e-06	-1.053547e-09	-2.071041e+01	-7.365891e+01
1.180000e-06	-2.936414e-06	-1.044565e-09	-2.043631e+01	-7.314648e+01
1.190000e-06	-2.896924e-06	-1.035646e-09	-2.016148e+01	-7.262731e+01
1.200000e-06	-2.857282e-06	-1.027452e-09	-1.988559e+01	-7.210124e+01
1.210000e-06	-2.817494e-06	-1.017967e-09	-1.960868e+01	-7.156814e+01
1.220000e-06	-2.777547e-06	-1.005933e-09	-1.933067e+01	-7.102784e+01
1.230000e-06	-2.737425e-06	-9.951895e-10	-1.905143e+01	-7.048023e+01
1.240000e-06	-2.697046e-06	-9.868322e-10	-1.877040e+01	-6.992518e+01
1.250000e-06	-2.656482e-06	-9.797849e-10	-1.848810e+01	-6.936257e+01
1.260000e-06	-2.615794e-06	-9.734666e-10	-1.820492e+01	-6.879230e+01
1.270000e-06	-2.574791e-06	-9.655323e-10	-1.791956e+01	-6.821425e+01
1.280000e-06	-2.533551e-06	-9.557520e-10	-1.763254e+01	-6.762834e+01
1.290000e-06	-2.492011e-06	-9.438004e-10	-1.734344e+01	-6.703446e+01
1.300000e-06	-2.450116e-06	-9.317897e-10	-1.705187e+01	-6.643252e+01
1.310000e-06	-2.407947e-06	-9.197514e-10	-1.675839e+01	-6.582243e+01
1.320000e-06	-2.365453e-06	-9.087308e-10	-1.646264e+01	-6.520410e+01
1.330000e-06	-2.322615e-06	-8.997020e-10	-1.616451e+01	-6.457743e+01
1.340000e-06	-2.279576e-06	-8.922135e-10	-1.586498e+01	-6.394232e+01
1.350000e-06	-2.236361e-06	-8.841657e-10	-1.556422e+01	-6.329866e+01
1.360000e-06	-2.192928e-06	-8.749734e-10	-1.526194e+01	-6.264635e+01
1.370000e-06	-2.149429e-06	-8.646486e-10	-1.495920e+01	-6.198525e+01
1.380000e-06	-2.105861e-06	-8.516011e-10	-1.465598e+01	-6.131524e+01
1.390000e-06	-2.062206e-06	-8.360031e-10	-1.435217e+01	-6.063615e+01
1.400000e-06	-2.018486e-06	-8.207183e-10	-1.404789e+01	-5.994783e+01
1.410000e-06	-1.974762e-06	-8.093616e-10	-1.374359e+01	-5.925010e+01
1.420000e-06	-1.931002e-06	-8.024404e-10	-1.343903e+01	-5.854276e+01
1.430000e-06	-1.887121e-06	-7.947106e-10	-1.313364e+01	-5.782558e+01
1.440000e-06	-1.843117e-06	-7.860295e-10	-1.282739e+01	-5.709832e+01
1.450000e-06	-1.799013e-06	-7.759245e-10	-1.252044e+01	-5.636073e+01
1.460000e-06	-1.754755e-06	-7.628608e-10	-1.221242e+01	-5.561252e+01
1.470000e-06	-1.710241e-06	-7.492674e-10	-1.190262e+01	-5.485338e+01
1.480000e-06	-1.665622e-06	-7.351763e-10	-1.159209e+01	-5.408298e+01
1.490000e-06	-1.620853e-06	-7.222096e-10	-1.128051e+01	-5.330097e+01
1.500000e-06	-1.575941e-06	-7.121497e-10	-1.096794e+01	-5.250696e+01
1.510000e-06	-1.530946e-06	-7.035886e-10	-1.065480e+01	-5.170055e+01
1.520000e-06	-1.485821e-06	-6.943943e-10	-1.034075e+01	-5.088133e+01
1.530000e-06	-1.440589e-06	-6.828604e-10	-1.002595e+01	-5.004884e+01
1.540000e-06	-1.395258e-06	-6.692216e-10	-9.710459e+00	-4.920263e+01
1.550000e-06	-1.349862e-06	-6.536981e-10	-9.394519e+00	-4.834221e+01
1.560000e-06	-1.304362e-06	-6.375845e-10	-9.077863e+00	-4.746709e+01
1.570000e-06	-1.258795e-06	-6.230318e-10	-8.760731e+00	-4.657675e+01
1.580000e-06	-1.213163e-06	-6.105856e-10	-8.443150e+00	-4.567067e+01
1.590000e-06	-1.167432e-06	-5.973812e-10	-8.124879e+00	-4.474833e+01
1.600000e-06	-1.121672e-06	-5.842096e-10	-7.806408e+00	-4.380918e+01
1.610000e-06	-1.075855e-06	-5.710377e-10	-7.487539e+00	-4.285270e+01
1.620000e-06	-1.029874e-06	-5.566823e-10	-7.167530e+00	-4.187834e+01
1.630000e-06	-9.838348e-07	-5.430761e-10	-6.847113e+00	-4.088558e+01
1.640000e-06	-9.377501e-07	-5.298149e-10	-6.526381e+00	-3.987389e+01
1.650000e-06	-8.915281e-07	-5.159188e-10	-6.204694e+00	-3.884277e+01
1.660000e-06	-8.452144e-07	-4.999022e-10	-5.882369e+00	-3.779173e+01
1.670000e-06	-7.988513e-07	-4.839218e-10	-5.559699e+00	-3.672031e+01
1.680000e-06	-7.524670e-07	-4.686598e-10	-5.236882e+00	-3.562806e+01
1.690000e-06	-7.060983e-07	-4.535676e-10	-4.914174e+00	-3.451457e+01
1.700000e-06	-6.596393e-07	-4.370175e-10	-4.590836e+00	-3.337946e+01
1.710000e-06	-6.131272e-07	-4.187629e-10	-4.267130e+00	-3.222240e+01
1.720000e-06	-5.664989e-07	-4.011505e-10	-3.942615e+00	-3.104310e+01
1.730000e-06	-5.197029e-07	-3.840667e-10	-3.616933e+00	-2.984130e+01
1.740000e-06	-4.730696e-07	-3.664787e-10	-3.292383e+00	-2.861682e+01
1.750000e-06	-4.265099e-07	-3.475765e-10	-2.968345e+00	-2.736951e+01
1.760000e-06	-3.797706e-07	-3.297730e-10	-2.643057e+00	-2.609928e+01
1.770000e-06	-3.328537e-07	-3.111336e-10	-2.316534e+00	-2.480613e+01
1.780000e-06	-2.859213e-07	-2.906487e-10	-1.989903e+00	-2.349008e+01
1.790000e-06	-2.391247e-07	-2.729049e-10	-1.664216e+00	-2.215126e+01
1.800000e-06	-1.923212e-07	-2.554981e-10	-1.338482e+00	-2.078985e+01
1.810000e-06	-1.454814e-07	-2.338020e-10	-1.012495e+00	-1.940609e+01
1.820000e-06	-9.865995e-08	-2.116094e-10	-6.866354e-01	-1.800031e+01
1.830000e-06	-5.186464e-08	-1.914990e-10	-3.609580e-01	-1.657292e+01
1.840000e-06	-5.126089e-09	-1.711912e-10	-3.567562e-02	-1.512438e+01
1.850000e-06	4.159631e-08	-1.504478e-10	2.894944e-01	-1.365526e+01
1.860000e-06	8.837949e-08	-1.299821e-10	6.150874e-01	-1.216617e+01
1.870000e-06	1.352585e-07	-1.081157e-10	9.413471e-01	-1.065782e+01
1.880000e-06	1.821391e-07	-8.608253e-11	1.267618e+00	-9.130984e+00
1.890000e-06	2.290022e-07	-6.513509e-11	1.593768e+00	-7.586515e+00
1.900000e-06	2.758437e-07	-4.497360e-11	1.919766e+00	-6.025332e+00
1.910000e-06	3.226150e-07	-2.456659e-11	2.245277e+00	-4.448422e+00
1.920000e-06	3.692722e-07	-1.413970e-12	2.569993e+00	-2.856843e+00
1.930000e-06	4.158345e-07	2.200204e-11	2.894048e+00	-1.251711e+00
1.940000e-06	4.623654e-07	4.524823e-11	3.217886e+00	3.657959e-01
1.950000e-06	5.089644e-07	6.826992e-11	3.542197e+00	1.994444e+00
1.960000e-06	5.555131e-07	8.972757e-11	3.866158e+00	3.632950e+00
1.970000e-06	6.019969e-07	1.111358e-10	4.189667e+00	5.279981e+00
1.980000e-06	6.484049e-07	1.336146e-10	4.512650e+00	6.934166e+00
1.990000e-06	6.946469e-07	1.546784e-10	4.834476e+00	8.594094e+00
2.000000e-06	7.409656e-07	1.763528e-10	5.156837e+00	1.025832e+01
2.010000e-06	7.872138e-07	2.000987e-10	5.478706e+00	1.192539e+01
2.020000e-06	8.333044e-07	2.219551e-10	5.799479e+00	1.359381e+01
2.030000e-06	8.794712e-07	2.446860e-10	6.120783e+00	1.526207e+01
2.040000e-06	9.255741e-07	2.681755e-10	6.441641e+00	1.692868e+01
2.050000e-06	9.715454e-07	2.897801e-10	6.761583e+00	1.859212e+01
2.060000e-06	1.017447e-06	3.134439e-10	7.081038e+00	2.025089e+01
2.070000e-06	1.063329e-06	3.384113e-10	7.400365e+00	2.190349e+01
2.080000e-06	1.109199e-06	3.609866e-10	7.719599e+00	2.354844e+01
2.090000e-06	1.154910e-06	3.825004e-10	8.037733e+00	2.518429e+01
2.100000e-06	1.200450e-06	4.065818e-10	8.354674e+00	2.680962e+01
2.110000e-06	1.245950e-06	4.310021e-10	8.671333e+00	2.842302e+01
2.120000e-06	1.291430e-06	4.518473e-10	8.987856e+00	3.002315e+01
2.130000e-06	1.336859e-06	4.712150e-10	9.304029e+00	3.160870e+01
2.140000e-06	1.382078e-06	4.899627e-10	9.618734e+00	3.317842e+01
2.150000e-06	1.427121e-06	5.077210e-10	9.932214e+00	3.473108e+01
2.160000e-06	1.472212e-06	5.254419e-10	1.024603e+01	3.626557e+01
2.170000e-06	1.517181e-06	5.454536e-10	1.055900e+01	3.778078e+01
2.180000e-06	1.561993e-06	5.677710e-10	1.087087e+01	3.927571e+01
2.190000e-06	1.606718e-06	5.910938e-10	1.118214e+01	4.074941e+01
2.200000e-06	1.651390e-06	6.136061e-10	1.149304e+01	4.220102e+01
2.210000e-06	1.695969e-06	6.317233e-10	1.180330e+01	4.362972e+01
2.220000e-06	1.740359e-06	6.454319e-10	1.211223e+01	4.503480e+01
2.230000e-06	1.784533e-06	6.593941e-10	1.241966e+01	4.641563e+01
2.240000e-06	1.828527e-06	6.760498e-10	1.272585e+01	4.777163e+01
2.250000e-06	1.872462e-06	6.958950e-10	1.303162e+01	4.910233e+01
2.260000e-06	1.916308e-06	7.182197e-10	1.333677e+01	5.040732e+01
2.270000e-06	1.960054e-06	7.391227e-10	1.364122e+01	5.168628e+01
2.280000e-06	2.003753e-06	7.561858e-10	1.394535e+01	5.293897e+01
2.290000e-06	2.047430e-06	7.691234e-10	1.424933e+01	5.416523e+01
2.300000e-06	2.091100e-06	7.813525e-10	1.455325e+01	5.536496e+01
2.310000e-06	2.134710e-06	7.940108e-10	1.485677e+01	5.653815e+01
2.320000e-06	2.178210e-06	8.094193e-10	1.515951e+01	5.768487e+01
2.330000e-06	2.221570e-06	8.280097e-10	1.546128e+01	5.880524e+01
2.340000e-06	2.264802e-06	8.480472e-10	1.576215e+01	5.989945e+01
2.350000e-06	2.307954e-06	8.628618e-10	1.606247e+01	6.096777e+01
2.360000e-06	2.350868e-06	8.764246e-10	1.636114e+01	6.201051e+01
2.370000e-06	2.393430e-06	8.882092e-10	1.665735e+01	6.302804e+01
2.380000e-06	2.435786e-06	8.968949e-10	1.695214e+01	6.402078e+01
2.390000e-06	2.477832e-06	9.096583e-10	1.724476e+01	6.498922e+01
2.400000e-06	2.519556e-06	9.234948e-10	1.753514e+01	6.593386e+01
2.410000e-06	2.560970e-06	9.403499e-10	1.782337e+01	6.685526e+01
2.420000e-06	2.601992e-06	9.566743e-10	1.810887e+01	6.775400e+01
2.430000e-06	2.642765e-06	9.705052e-10	1.839263e+01	6.863069e+01
2.440000e-06	2.683319e-06	9.817551e-10	1.867487e+01	6.948598e+01
2.450000e-06	2.723636e-06	9.907141e-10	1.895546e+01	7.032052e+01
2.460000e-06	2.763738e-06	9.990170e-10	1.923456e+01	7.113499e+01
2.470000e-06	2.803726e-06	1.011084e-09	1.951286e+01	7.193006e+01
2.480000e-06	2.843522e-06	1.023603e-09	1.978982e+01	7.270643e+01
2.490000e-06	2.883143e-06	1.035078e-09	2.006557e+01	7.346478e+01
2.500000e-06	2.922689e-06	1.048320e-09	2.034079e+01	7.420581e+01
2.510000e-06	2.962012e-06	1.061915e-09	2.061447e+01	7.493018e+01
2.520000e-06	3.001162e-06	1.074234e-09	2.088694e+01	7.563857e+01
2.530000e-06	3.040169e-06	1.084685e-09	2.115841e+01	7.633163e+01
2.540000e-06	3.079015e-06	1.093574e-09	2.142876e+01	7.700999e+01
2.550000e-06	3.117650e-06	1.102602e-09	2.169765e+01	7.767427e+01
2.560000e-06	3.155904e-06	1.109315e-09	2.196388e+01	7.832506e+01
2.570000e-06	3.193890e-06	1.116902e-09	2.222825e+01	7.896292e+01
2.580000e-06	3.231690e-06	1.127000e-09	2.249132e+01	7.958839e+01
2.590000e-06	3.269315e-06	1.140854e-09	2.275318e+01	8.020197e+01
2.600000e-06	3.306839e-06	1.154960e-09	2.301433e+01	8.080414e+01
2.610000e-06	3.344204e-06	1.165669e-09	2.327437e+01	8.139533e+01
2.620000e-06	3.381268e-06	1.176707e-09	2.353233e+01	8.197595e+01
2.630000e-06	3.418106e-06	1.184021e-09	2.378871e+01	8.254638e+01
2.640000e-06	3.454643e-06	1.188711e-09	2.404299e+01	8.310694e+01
2.650000e-06	3.490852e-06	1.195694e-09	2.429499e+01	8.365794e+01
2.660000e-06	3.526873e-06	1.205949e-09	2.454568e+01	8.419965e+01
2.670000e-06	3.562731e-06	1.214459e-09	2.479524e+01	8.473229e+01
2.680000e-06	3.598462e-06	1.222395e-09	2.504391e+01	8.525607e+01
2.690000e-06	3.634030e-06	1.229365e-09	2.529146e+01	8.577115e+01
2.700000e-06	3.669442e-06	1.234553e-09	2.553791e+01	8.627766e+01
2.710000e-06	3.704716e-06	1.239246e-09	2.578340e+01	8.677572e+01
2.720000e-06	3.739793e-06	1.245869e-09	2.602753e+01	8.726540e+01
2.730000e-06	3.774536e-06	1.251885e-09	2.626932e+01	8.774676e+01
2.740000e-06	3.808898e-06	1.258076e-09	2.650847e+01	8.821982e+01
2.750000e-06	3.842743e-06	1.264896e-09	2.674402e+01	8.868459e+01
2.760000e-06	3.875971e-06	1.270084e-09	2.697527e+01	8.914106e+01
2.770000e-06	3.908678e-06	1.273931e-09	2.720290e+01	8.958921e+01
2.780000e-06	3.941013e-06	1.279218e-09	2.742794e+01	9.002899e+01
2.790000e-06	3.973110e-06	1.285912e-09	2.765132e+01	9.046036e+01
2.800000e-06	4.004983e-06	1.292916e-09	2.787314e+01	9.088324e+01
2.810000e-06	4.036693e-06	1.298946e-09	2.809384e+01	9.129757e+01
2.820000e-06	4.068288e-06	1.304770e-09	2.831373e+01	9.170329e+01
2.830000e-06	4.099755e-06	1.310652e-09	2.853272e+01	9.210031e+01
2.840000e-06	4.131004e-06	1.314954e-09	2.875020e+01	9.248857e+01
2.850000e-06	4.161879e-06	1.317321e-09	2.896508e+01	9.286799e+01
2.860000e-06	4.192455e-06	1.319779e-09	2.917788e+01	9.323852e+01
2.870000e-06	4.222711e-06	1.324125e-09	2.938845e+01	9.360009e+01
2.880000e-06	4.252602e-06	1.328714e-09	2.959648e+01	9.395267e+01
2.890000e-06	4.282210e-06	1.330587e-09	2.980254e+01	9.429621e+01
2.900000e-06	4.311571e-06	1.331901e-09	3.000688e+01	9.463070e+01
