# Temperatura_=_0.9
# Concentracion g/m^3_=_1620.0
# C_Vs_to_Am_M_A/Vsm_=_65563218390.804596
# pendiente_HvsI_1/m_=_3716.3
# ordenada_HvsI_A/m_=_1297.0
# frecuencia_Hz_=_135105.6663576678

Tiempo_(s)	Campo_(V.s)	Magnetizacion_(V.s)	Campo_(kA/m)	Magnetizacion_(A/m)
0.000000e+00	-5.513431e-06	-1.413249e-09	-3.837021e+01	-9.096780e+01
1.000000e-08	-5.513665e-06	-1.407393e-09	-3.837184e+01	-9.094255e+01
2.000000e-08	-5.513483e-06	-1.401544e-09	-3.837057e+01	-9.091642e+01
3.000000e-08	-5.512840e-06	-1.395852e-09	-3.836610e+01	-9.088931e+01
4.000000e-08	-5.511711e-06	-1.394468e-09	-3.835824e+01	-9.086111e+01
5.000000e-08	-5.510089e-06	-1.397901e-09	-3.834695e+01	-9.083170e+01
6.000000e-08	-5.507914e-06	-1.408670e-09	-3.833182e+01	-9.080096e+01
7.000000e-08	-5.505164e-06	-1.429661e-09	-3.831268e+01	-9.076873e+01
8.000000e-08	-5.501896e-06	-1.442045e-09	-3.828993e+01	-9.073488e+01
9.000000e-08	-5.498202e-06	-1.403088e-09	-3.826423e+01	-9.069923e+01
1.000000e-07	-5.494147e-06	-1.344118e-09	-3.823601e+01	-9.066163e+01
1.100000e-07	-5.489763e-06	-1.342915e-09	-3.820550e+01	-9.062191e+01
1.200000e-07	-5.485207e-06	-1.455540e-09	-3.817379e+01	-9.057990e+01
1.300000e-07	-5.480289e-06	-1.473620e-09	-3.813956e+01	-9.053541e+01
1.400000e-07	-5.474858e-06	-1.387605e-09	-3.810177e+01	-9.048827e+01
1.500000e-07	-5.469109e-06	-1.328440e-09	-3.806175e+01	-9.043830e+01
1.600000e-07	-5.463106e-06	-1.408281e-09	-3.801998e+01	-9.038532e+01
1.700000e-07	-5.456696e-06	-1.461693e-09	-3.797537e+01	-9.032916e+01
1.800000e-07	-5.449761e-06	-1.393565e-09	-3.792710e+01	-9.026964e+01
1.900000e-07	-5.442421e-06	-1.344586e-09	-3.787602e+01	-9.020660e+01
2.000000e-07	-5.434874e-06	-1.414039e-09	-3.782350e+01	-9.013988e+01
2.100000e-07	-5.427055e-06	-1.472656e-09	-3.776909e+01	-9.006930e+01
2.200000e-07	-5.418967e-06	-1.418031e-09	-3.771280e+01	-8.999473e+01
2.300000e-07	-5.410592e-06	-1.349015e-09	-3.765451e+01	-8.991601e+01
2.400000e-07	-5.401606e-06	-1.359968e-09	-3.759197e+01	-8.983301e+01
2.500000e-07	-5.391845e-06	-1.405210e-09	-3.752404e+01	-8.974559e+01
2.600000e-07	-5.381514e-06	-1.389606e-09	-3.745214e+01	-8.965364e+01
2.700000e-07	-5.370764e-06	-1.359443e-09	-3.737733e+01	-8.955703e+01
2.800000e-07	-5.359516e-06	-1.351308e-09	-3.729905e+01	-8.945565e+01
2.900000e-07	-5.347869e-06	-1.372257e-09	-3.721800e+01	-8.934942e+01
3.000000e-07	-5.335930e-06	-1.352372e-09	-3.713491e+01	-8.923823e+01
3.100000e-07	-5.323571e-06	-1.334169e-09	-3.704889e+01	-8.912201e+01
3.200000e-07	-5.310737e-06	-1.341877e-09	-3.695958e+01	-8.900068e+01
3.300000e-07	-5.297539e-06	-1.380339e-09	-3.686773e+01	-8.887417e+01
3.400000e-07	-5.283980e-06	-1.353165e-09	-3.677337e+01	-8.874243e+01
3.500000e-07	-5.269996e-06	-1.324628e-09	-3.667605e+01	-8.860541e+01
3.600000e-07	-5.255527e-06	-1.331014e-09	-3.657535e+01	-8.846305e+01
3.700000e-07	-5.240502e-06	-1.351208e-09	-3.647079e+01	-8.831533e+01
3.800000e-07	-5.224910e-06	-1.312533e-09	-3.636227e+01	-8.816222e+01
3.900000e-07	-5.208786e-06	-1.322707e-09	-3.625006e+01	-8.800368e+01
4.000000e-07	-5.192270e-06	-1.366198e-09	-3.613512e+01	-8.783971e+01
4.100000e-07	-5.175491e-06	-1.340936e-09	-3.601835e+01	-8.767030e+01
4.200000e-07	-5.158350e-06	-1.292729e-09	-3.589906e+01	-8.749543e+01
4.300000e-07	-5.140935e-06	-1.336732e-09	-3.577786e+01	-8.731511e+01
4.400000e-07	-5.123312e-06	-1.350766e-09	-3.565521e+01	-8.712934e+01
4.500000e-07	-5.105188e-06	-1.271529e-09	-3.552908e+01	-8.693814e+01
4.600000e-07	-5.086491e-06	-1.279845e-09	-3.539896e+01	-8.674151e+01
4.700000e-07	-5.067420e-06	-1.352010e-09	-3.526624e+01	-8.653949e+01
4.800000e-07	-5.048079e-06	-1.315338e-09	-3.513164e+01	-8.633209e+01
4.900000e-07	-5.028543e-06	-1.266695e-09	-3.499568e+01	-8.611935e+01
5.000000e-07	-5.008826e-06	-1.325089e-09	-3.485846e+01	-8.590129e+01
5.100000e-07	-4.988858e-06	-1.319582e-09	-3.471949e+01	-8.567797e+01
5.200000e-07	-4.968515e-06	-1.253832e-09	-3.457792e+01	-8.544941e+01
5.300000e-07	-4.947832e-06	-1.279353e-09	-3.443398e+01	-8.521568e+01
5.400000e-07	-4.926826e-06	-1.309740e-09	-3.428779e+01	-8.497681e+01
5.500000e-07	-4.905421e-06	-1.241004e-09	-3.413882e+01	-8.473287e+01
5.600000e-07	-4.883701e-06	-1.246018e-09	-3.398766e+01	-8.448392e+01
5.700000e-07	-4.861681e-06	-1.304411e-09	-3.383442e+01	-8.423002e+01
5.800000e-07	-4.839275e-06	-1.269618e-09	-3.367848e+01	-8.397125e+01
5.900000e-07	-4.816385e-06	-1.227727e-09	-3.351918e+01	-8.370768e+01
6.000000e-07	-4.793170e-06	-1.278010e-09	-3.335762e+01	-8.343938e+01
6.100000e-07	-4.769733e-06	-1.272883e-09	-3.319451e+01	-8.316645e+01
6.200000e-07	-4.746082e-06	-1.222867e-09	-3.302991e+01	-8.288896e+01
6.300000e-07	-4.722297e-06	-1.236227e-09	-3.286439e+01	-8.260701e+01
6.400000e-07	-4.698180e-06	-1.251575e-09	-3.269655e+01	-8.232069e+01
6.500000e-07	-4.673585e-06	-1.212057e-09	-3.252538e+01	-8.203010e+01
6.600000e-07	-4.648536e-06	-1.213538e-09	-3.235105e+01	-8.173534e+01
6.700000e-07	-4.623061e-06	-1.232816e-09	-3.217376e+01	-8.143652e+01
6.800000e-07	-4.597141e-06	-1.210514e-09	-3.199337e+01	-8.113373e+01
6.900000e-07	-4.570726e-06	-1.198311e-09	-3.180954e+01	-8.082709e+01
7.000000e-07	-4.543791e-06	-1.215903e-09	-3.162209e+01	-8.051670e+01
7.100000e-07	-4.516486e-06	-1.201497e-09	-3.143206e+01	-8.020267e+01
7.200000e-07	-4.488973e-06	-1.180893e-09	-3.124059e+01	-7.988511e+01
7.300000e-07	-4.461326e-06	-1.186156e-09	-3.104818e+01	-7.956413e+01
7.400000e-07	-4.433546e-06	-1.180296e-09	-3.085485e+01	-7.923983e+01
7.500000e-07	-4.405472e-06	-1.164368e-09	-3.065947e+01	-7.891231e+01
7.600000e-07	-4.377096e-06	-1.167709e-09	-3.046200e+01	-7.858167e+01
7.700000e-07	-4.348392e-06	-1.167955e-09	-3.026223e+01	-7.824800e+01
7.800000e-07	-4.319300e-06	-1.153340e-09	-3.005977e+01	-7.791140e+01
7.900000e-07	-4.289950e-06	-1.152399e-09	-2.985551e+01	-7.757195e+01
8.000000e-07	-4.260402e-06	-1.146373e-09	-2.964987e+01	-7.722972e+01
8.100000e-07	-4.230526e-06	-1.125391e-09	-2.944195e+01	-7.688478e+01
8.200000e-07	-4.200315e-06	-1.113918e-09	-2.923170e+01	-7.653719e+01
8.300000e-07	-4.169772e-06	-1.115885e-09	-2.901914e+01	-7.618700e+01
8.400000e-07	-4.138891e-06	-1.102450e-09	-2.880423e+01	-7.583425e+01
8.500000e-07	-4.107817e-06	-1.095524e-09	-2.858797e+01	-7.547897e+01
8.600000e-07	-4.076599e-06	-1.101226e-09	-2.837071e+01	-7.512117e+01
8.700000e-07	-4.045159e-06	-1.095936e-09	-2.815191e+01	-7.476087e+01
8.800000e-07	-4.013498e-06	-1.081451e-09	-2.793156e+01	-7.439805e+01
8.900000e-07	-3.981640e-06	-1.082646e-09	-2.770985e+01	-7.403269e+01
9.000000e-07	-3.949536e-06	-1.077518e-09	-2.748643e+01	-7.366477e+01
9.100000e-07	-3.917166e-06	-1.061791e-09	-2.726115e+01	-7.329422e+01
9.200000e-07	-3.884306e-06	-1.055179e-09	-2.703247e+01	-7.292100e+01
9.300000e-07	-3.850957e-06	-1.053962e-09	-2.680038e+01	-7.254503e+01
9.400000e-07	-3.817225e-06	-1.036696e-09	-2.656562e+01	-7.216623e+01
9.500000e-07	-3.783053e-06	-1.027274e-09	-2.632781e+01	-7.178450e+01
9.600000e-07	-3.748520e-06	-1.030766e-09	-2.608748e+01	-7.139972e+01
9.700000e-07	-3.713569e-06	-1.024891e-09	-2.584424e+01	-7.101178e+01
9.800000e-07	-3.678289e-06	-1.012324e-09	-2.559871e+01	-7.062055e+01
9.900000e-07	-3.642895e-06	-1.012700e-09	-2.535239e+01	-7.022588e+01
1.000000e-06	-3.607355e-06	-1.010428e-09	-2.510505e+01	-6.982763e+01
1.010000e-06	-3.571657e-06	-9.995935e-10	-2.485662e+01	-6.942564e+01
1.020000e-06	-3.535801e-06	-9.951721e-10	-2.460708e+01	-6.901974e+01
1.030000e-06	-3.499688e-06	-9.899945e-10	-2.435576e+01	-6.860976e+01
1.040000e-06	-3.463262e-06	-9.767794e-10	-2.410225e+01	-6.819553e+01
1.050000e-06	-3.426611e-06	-9.673979e-10	-2.384718e+01	-6.777689e+01
1.060000e-06	-3.389819e-06	-9.643199e-10	-2.359113e+01	-6.735364e+01
1.070000e-06	-3.352734e-06	-9.534202e-10	-2.333304e+01	-6.692561e+01
1.080000e-06	-3.315328e-06	-9.438670e-10	-2.307272e+01	-6.649263e+01
1.090000e-06	-3.277766e-06	-9.424795e-10	-2.281131e+01	-6.605453e+01
1.100000e-06	-3.240053e-06	-9.383201e-10	-2.254885e+01	-6.561114e+01
1.110000e-06	-3.202081e-06	-9.292453e-10	-2.228459e+01	-6.516230e+01
1.120000e-06	-3.163892e-06	-9.249507e-10	-2.201881e+01	-6.470785e+01
1.130000e-06	-3.125504e-06	-9.192589e-10	-2.175165e+01	-6.424764e+01
1.140000e-06	-3.086907e-06	-9.077994e-10	-2.148304e+01	-6.378155e+01
1.150000e-06	-3.048065e-06	-8.964569e-10	-2.121272e+01	-6.330944e+01
1.160000e-06	-3.008989e-06	-8.903008e-10	-2.094078e+01	-6.283119e+01
1.170000e-06	-2.969721e-06	-8.832882e-10	-2.066750e+01	-6.234671e+01
1.180000e-06	-2.930255e-06	-8.793321e-10	-2.039284e+01	-6.185590e+01
1.190000e-06	-2.890719e-06	-8.776833e-10	-2.011769e+01	-6.135867e+01
1.200000e-06	-2.851123e-06	-8.723341e-10	-1.984212e+01	-6.085496e+01
1.210000e-06	-2.811372e-06	-8.627944e-10	-1.956548e+01	-6.034472e+01
1.220000e-06	-2.771441e-06	-8.558299e-10	-1.928759e+01	-5.982790e+01
1.230000e-06	-2.731392e-06	-8.467325e-10	-1.900887e+01	-5.930446e+01
1.240000e-06	-2.691147e-06	-8.348406e-10	-1.872879e+01	-5.877439e+01
1.250000e-06	-2.650678e-06	-8.249610e-10	-1.844715e+01	-5.823768e+01
1.260000e-06	-2.609966e-06	-8.163223e-10	-1.816381e+01	-5.769431e+01
1.270000e-06	-2.568885e-06	-8.065798e-10	-1.787792e+01	-5.714430e+01
1.280000e-06	-2.527509e-06	-7.975117e-10	-1.758996e+01	-5.658766e+01
1.290000e-06	-2.485832e-06	-7.899713e-10	-1.729992e+01	-5.602440e+01
1.300000e-06	-2.443837e-06	-7.823772e-10	-1.700766e+01	-5.545454e+01
1.310000e-06	-2.401563e-06	-7.715857e-10	-1.671345e+01	-5.487810e+01
1.320000e-06	-2.358995e-06	-7.606387e-10	-1.641721e+01	-5.429510e+01
1.330000e-06	-2.316242e-06	-7.486764e-10	-1.611967e+01	-5.370555e+01
1.340000e-06	-2.273258e-06	-7.356571e-10	-1.582053e+01	-5.310947e+01
1.350000e-06	-2.230014e-06	-7.257171e-10	-1.551957e+01	-5.250685e+01
1.360000e-06	-2.186609e-06	-7.170702e-10	-1.521750e+01	-5.189768e+01
1.370000e-06	-2.143102e-06	-7.076765e-10	-1.491472e+01	-5.128195e+01
1.380000e-06	-2.099512e-06	-6.969227e-10	-1.461136e+01	-5.065963e+01
1.390000e-06	-2.055819e-06	-6.871032e-10	-1.430728e+01	-5.003065e+01
1.400000e-06	-2.012105e-06	-6.775484e-10	-1.400306e+01	-4.939496e+01
1.410000e-06	-1.968362e-06	-6.666269e-10	-1.369863e+01	-4.875246e+01
1.420000e-06	-1.924530e-06	-6.584448e-10	-1.339359e+01	-4.810305e+01
1.430000e-06	-1.880587e-06	-6.526083e-10	-1.308777e+01	-4.744657e+01
1.440000e-06	-1.836531e-06	-6.434490e-10	-1.278117e+01	-4.678289e+01
1.450000e-06	-1.792408e-06	-6.313965e-10	-1.247410e+01	-4.611180e+01
1.460000e-06	-1.748222e-06	-6.193400e-10	-1.216659e+01	-4.543309e+01
1.470000e-06	-1.703914e-06	-6.089898e-10	-1.185823e+01	-4.474653e+01
1.480000e-06	-1.659366e-06	-5.996858e-10	-1.154820e+01	-4.405183e+01
1.490000e-06	-1.614633e-06	-5.930106e-10	-1.123689e+01	-4.334871e+01
1.500000e-06	-1.569848e-06	-5.869024e-10	-1.092521e+01	-4.263682e+01
1.510000e-06	-1.524900e-06	-5.801085e-10	-1.061240e+01	-4.191583e+01
1.520000e-06	-1.479742e-06	-5.670824e-10	-1.029813e+01	-4.118534e+01
1.530000e-06	-1.434442e-06	-5.499537e-10	-9.982864e+00	-4.044495e+01
1.540000e-06	-1.389061e-06	-5.340163e-10	-9.667041e+00	-3.969422e+01
1.550000e-06	-1.343685e-06	-5.188630e-10	-9.351251e+00	-3.893270e+01
1.560000e-06	-1.298238e-06	-5.054372e-10	-9.034967e+00	-3.815993e+01
1.570000e-06	-1.252655e-06	-4.955190e-10	-8.717739e+00	-3.737541e+01
1.580000e-06	-1.206933e-06	-4.863243e-10	-8.399535e+00	-3.657863e+01
1.590000e-06	-1.161126e-06	-4.781658e-10	-8.080751e+00	-3.576909e+01
1.600000e-06	-1.115280e-06	-4.681829e-10	-7.761689e+00	-3.494625e+01
1.610000e-06	-1.069381e-06	-4.549268e-10	-7.442257e+00	-3.410960e+01
1.620000e-06	-1.023420e-06	-4.375271e-10	-7.122399e+00	-3.325861e+01
1.630000e-06	-9.774187e-07	-4.197185e-10	-6.802255e+00	-3.239276e+01
1.640000e-06	-9.313186e-07	-4.064847e-10	-6.481425e+00	-3.151154e+01
1.650000e-06	-8.851211e-07	-3.941688e-10	-6.159918e+00	-3.061446e+01
1.660000e-06	-8.388439e-07	-3.816395e-10	-5.837856e+00	-2.970102e+01
1.670000e-06	-7.924533e-07	-3.680604e-10	-5.515005e+00	-2.877079e+01
1.680000e-06	-7.460877e-07	-3.557332e-10	-5.192328e+00	-2.782333e+01
1.690000e-06	-6.997947e-07	-3.417103e-10	-4.870156e+00	-2.685824e+01
1.700000e-06	-6.534237e-07	-3.262762e-10	-4.547442e+00	-2.587516e+01
1.710000e-06	-6.069285e-07	-3.080614e-10	-4.223863e+00	-2.487379e+01
1.720000e-06	-5.603735e-07	-2.907017e-10	-3.899867e+00	-2.385384e+01
1.730000e-06	-5.137754e-07	-2.745358e-10	-3.575572e+00	-2.281510e+01
1.740000e-06	-4.671093e-07	-2.564211e-10	-3.250803e+00	-2.175741e+01
1.750000e-06	-4.204223e-07	-2.404595e-10	-2.925890e+00	-2.068064e+01
1.760000e-06	-3.737688e-07	-2.274065e-10	-2.601209e+00	-1.958475e+01
1.770000e-06	-3.270271e-07	-2.143710e-10	-2.275915e+00	-1.846977e+01
1.780000e-06	-2.801778e-07	-1.983353e-10	-1.949872e+00	-1.733576e+01
1.790000e-06	-2.333284e-07	-1.797217e-10	-1.623828e+00	-1.618289e+01
1.800000e-06	-1.865111e-07	-1.618097e-10	-1.298006e+00	-1.501138e+01
1.810000e-06	-1.396821e-07	-1.434409e-10	-9.721045e-01	-1.382153e+01
1.820000e-06	-9.285103e-08	-1.263143e-10	-6.461881e-01	-1.261369e+01
1.830000e-06	-4.608932e-08	-1.104776e-10	-3.207544e-01	-1.138832e+01
1.840000e-06	6.811663e-10	-9.494088e-11	4.740513e-03	-1.014594e+01
1.850000e-06	4.742691e-08	-7.822148e-11	3.300632e-01	-8.887121e+00
1.860000e-06	9.415955e-08	-5.709608e-11	6.552946e-01	-7.612540e+00
1.870000e-06	1.409548e-07	-3.491192e-11	9.809621e-01	-6.322927e+00
1.880000e-06	1.877486e-07	-1.453543e-11	1.306619e+00	-5.019081e+00
1.890000e-06	2.345609e-07	3.499454e-12	1.632405e+00	-3.701870e+00
1.900000e-06	2.813566e-07	1.901546e-11	1.958075e+00	-2.372224e+00
1.910000e-06	3.281015e-07	3.304129e-11	2.283392e+00	-1.031132e+00
1.920000e-06	3.747895e-07	5.007237e-11	2.608313e+00	3.203623e-01
1.930000e-06	4.214407e-07	7.116264e-11	2.932977e+00	1.681162e+00
1.940000e-06	4.680039e-07	9.391665e-11	3.257030e+00	3.050126e+00
1.950000e-06	5.144745e-07	1.171277e-10	3.580437e+00	4.426071e+00
1.960000e-06	5.609289e-07	1.391720e-10	3.903732e+00	5.807778e+00
1.970000e-06	6.073722e-07	1.579418e-10	4.226950e+00	7.193997e+00
1.980000e-06	6.537813e-07	1.734956e-10	4.549930e+00	8.583455e+00
1.990000e-06	7.001254e-07	1.855228e-10	4.872457e+00	9.974860e+00
2.000000e-06	7.464154e-07	2.008388e-10	5.194609e+00	1.136691e+01
2.010000e-06	7.926750e-07	2.199258e-10	5.516548e+00	1.275829e+01
2.020000e-06	8.388600e-07	2.415373e-10	5.837968e+00	1.414769e+01
2.030000e-06	8.849388e-07	2.669034e-10	6.158649e+00	1.553381e+01
2.040000e-06	9.308908e-07	2.899870e-10	6.478448e+00	1.691537e+01
2.050000e-06	9.767830e-07	3.121356e-10	6.797830e+00	1.829108e+01
2.060000e-06	1.022658e-06	3.309340e-10	7.117091e+00	1.965971e+01
2.070000e-06	1.068478e-06	3.453416e-10	7.435972e+00	2.102003e+01
2.080000e-06	1.114241e-06	3.606559e-10	7.754455e+00	2.237088e+01
2.090000e-06	1.159963e-06	3.787280e-10	8.072658e+00	2.371111e+01
2.100000e-06	1.205555e-06	3.995036e-10	8.389945e+00	2.503963e+01
2.110000e-06	1.251008e-06	4.200809e-10	8.706271e+00	2.635541e+01
2.120000e-06	1.296427e-06	4.397234e-10	9.022361e+00	2.765746e+01
2.130000e-06	1.341723e-06	4.575498e-10	9.337598e+00	2.894486e+01
2.140000e-06	1.386920e-06	4.746952e-10	9.652142e+00	3.021674e+01
2.150000e-06	1.432029e-06	4.892789e-10	9.966073e+00	3.147231e+01
2.160000e-06	1.477051e-06	5.046234e-10	1.027940e+01	3.271084e+01
2.170000e-06	1.522048e-06	5.228352e-10	1.059255e+01	3.393167e+01
2.180000e-06	1.566939e-06	5.416455e-10	1.090497e+01	3.513422e+01
2.190000e-06	1.611651e-06	5.612109e-10	1.121613e+01	3.631796e+01
2.200000e-06	1.656288e-06	5.783128e-10	1.152678e+01	3.748245e+01
2.210000e-06	1.700802e-06	5.912542e-10	1.183657e+01	3.862733e+01
2.220000e-06	1.745133e-06	6.005725e-10	1.214509e+01	3.975228e+01
2.230000e-06	1.789357e-06	6.109745e-10	1.245287e+01	4.085709e+01
2.240000e-06	1.833446e-06	6.263094e-10	1.275969e+01	4.194159e+01
2.250000e-06	1.877432e-06	6.447773e-10	1.306581e+01	4.300569e+01
2.260000e-06	1.921356e-06	6.664325e-10	1.337150e+01	4.404936e+01
2.270000e-06	1.965217e-06	6.850317e-10	1.367675e+01	4.507263e+01
2.280000e-06	2.009040e-06	6.986484e-10	1.398173e+01	4.607561e+01
2.290000e-06	2.052779e-06	7.088914e-10	1.428612e+01	4.705843e+01
2.300000e-06	2.096399e-06	7.160690e-10	1.458969e+01	4.802130e+01
2.310000e-06	2.139937e-06	7.243450e-10	1.489269e+01	4.896446e+01
2.320000e-06	2.183413e-06	7.366699e-10	1.519526e+01	4.988822e+01
2.330000e-06	2.226853e-06	7.525403e-10	1.549757e+01	5.079290e+01
2.340000e-06	2.270137e-06	7.679450e-10	1.579881e+01	5.167886e+01
2.350000e-06	2.313187e-06	7.819413e-10	1.609841e+01	5.254652e+01
2.360000e-06	2.355953e-06	7.948916e-10	1.639604e+01	5.339628e+01
2.370000e-06	2.398367e-06	8.063686e-10	1.669121e+01	5.422861e+01
2.380000e-06	2.440493e-06	8.169562e-10	1.698438e+01	5.504396e+01
2.390000e-06	2.482321e-06	8.259275e-10	1.727548e+01	5.584281e+01
2.400000e-06	2.523817e-06	8.347219e-10	1.756427e+01	5.662565e+01
2.410000e-06	2.565043e-06	8.444808e-10	1.785118e+01	5.739296e+01
2.420000e-06	2.606000e-06	8.567476e-10	1.813621e+01	5.814525e+01
2.430000e-06	2.646720e-06	8.682579e-10	1.841960e+01	5.888299e+01
2.440000e-06	2.687248e-06	8.750736e-10	1.870165e+01	5.960667e+01
2.450000e-06	2.727533e-06	8.829576e-10	1.898201e+01	6.031676e+01
2.460000e-06	2.767674e-06	8.928745e-10	1.926137e+01	6.101373e+01
2.470000e-06	2.807659e-06	9.056708e-10	1.953964e+01	6.169801e+01
2.480000e-06	2.847465e-06	9.152396e-10	1.981667e+01	6.237004e+01
2.490000e-06	2.887109e-06	9.237952e-10	2.009257e+01	6.303022e+01
2.500000e-06	2.926543e-06	9.296322e-10	2.036700e+01	6.367893e+01
2.510000e-06	2.965852e-06	9.357594e-10	2.064057e+01	6.431656e+01
2.520000e-06	3.005081e-06	9.421012e-10	2.091358e+01	6.494343e+01
2.530000e-06	3.044109e-06	9.501586e-10	2.118520e+01	6.555986e+01
2.540000e-06	3.082862e-06	9.648528e-10	2.145489e+01	6.616615e+01
2.550000e-06	3.121406e-06	9.808919e-10	2.172313e+01	6.676256e+01
2.560000e-06	3.159780e-06	9.931267e-10	2.199019e+01	6.734935e+01
2.570000e-06	3.197935e-06	1.002159e-09	2.225573e+01	6.792672e+01
2.580000e-06	3.235825e-06	1.010336e-09	2.251942e+01	6.849488e+01
2.590000e-06	3.273449e-06	1.016016e-09	2.278127e+01	6.905400e+01
2.600000e-06	3.310868e-06	1.019615e-09	2.304168e+01	6.960425e+01
2.610000e-06	3.348072e-06	1.024218e-09	2.330059e+01	7.014574e+01
2.620000e-06	3.385025e-06	1.035075e-09	2.355777e+01	7.067861e+01
2.630000e-06	3.421762e-06	1.047934e-09	2.381343e+01	7.120296e+01
2.640000e-06	3.458229e-06	1.058407e-09	2.406722e+01	7.171887e+01
2.650000e-06	3.494466e-06	1.067697e-09	2.431941e+01	7.222641e+01
2.660000e-06	3.530554e-06	1.074280e-09	2.457056e+01	7.272566e+01
2.670000e-06	3.566500e-06	1.078540e-09	2.482072e+01	7.321667e+01
2.680000e-06	3.602295e-06	1.081435e-09	2.506984e+01	7.369949e+01
2.690000e-06	3.637914e-06	1.079977e-09	2.531772e+01	7.417416e+01
2.700000e-06	3.673352e-06	1.083161e-09	2.556435e+01	7.464072e+01
2.710000e-06	3.708586e-06	1.092261e-09	2.580956e+01	7.509922e+01
2.720000e-06	3.743492e-06	1.103605e-09	2.605248e+01	7.554970e+01
2.730000e-06	3.777976e-06	1.110612e-09	2.629247e+01	7.599219e+01
2.740000e-06	3.812035e-06	1.114404e-09	2.652951e+01	7.642675e+01
2.750000e-06	3.845714e-06	1.117485e-09	2.676389e+01	7.685341e+01
2.760000e-06	3.879031e-06	1.119894e-09	2.699575e+01	7.727225e+01
2.770000e-06	3.911860e-06	1.123607e-09	2.722422e+01	7.768332e+01
2.780000e-06	3.944266e-06	1.130128e-09	2.744975e+01	7.808668e+01
2.790000e-06	3.976448e-06	1.139447e-09	2.767372e+01	7.848241e+01
2.800000e-06	4.008421e-06	1.150014e-09	2.789624e+01	7.887060e+01
2.810000e-06	4.040177e-06	1.157106e-09	2.811724e+01	7.925134e+01
2.820000e-06	4.071768e-06	1.160648e-09	2.833709e+01	7.962472e+01
2.830000e-06	4.103147e-06	1.161156e-09	2.855547e+01	7.999086e+01
2.840000e-06	4.134181e-06	1.158714e-09	2.877145e+01	8.034986e+01
2.850000e-06	4.164936e-06	1.159404e-09	2.898548e+01	8.070184e+01
2.860000e-06	4.195422e-06	1.164791e-09	2.919765e+01	8.104693e+01
2.870000e-06	4.225579e-06	1.173533e-09	2.940752e+01	8.138526e+01
2.880000e-06	4.255508e-06	1.181989e-09	2.961581e+01	8.171696e+01
2.890000e-06	4.285224e-06	1.188525e-09	2.982262e+01	8.204217e+01
2.900000e-06	4.314680e-06	1.191385e-09	3.002761e+01	8.236102e+01
2.910000e-06	4.343818e-06	1.191414e-09	3.023040e+01	8.267365e+01
