# Temperatura_=_6.55
# Concentracion g/m^3_=_1620.0
# C_Vs_to_Am_M_A/Vsm_=_65563218390.804596
# pendiente_HvsI_1/m_=_3716.3
# ordenada_HvsI_A/m_=_1297.0
# frecuencia_Hz_=_135107.36855106684

Tiempo_(s)	Campo_(V.s)	Magnetizacion_(V.s)	Campo_(kA/m)	Magnetizacion_(A/m)
0.000000e+00	-5.510415e-06	-1.326993e-09	-3.836850e+01	-8.472059e+01
1.000000e-08	-5.510651e-06	-1.326002e-09	-3.837014e+01	-8.470844e+01
2.000000e-08	-5.510616e-06	-1.322183e-09	-3.836990e+01	-8.469362e+01
3.000000e-08	-5.510274e-06	-1.318762e-09	-3.836752e+01	-8.467599e+01
4.000000e-08	-5.509513e-06	-1.317121e-09	-3.836221e+01	-8.465541e+01
5.000000e-08	-5.508204e-06	-1.314385e-09	-3.835310e+01	-8.463174e+01
6.000000e-08	-5.506309e-06	-1.312049e-09	-3.833991e+01	-8.460486e+01
7.000000e-08	-5.503815e-06	-1.317872e-09	-3.832254e+01	-8.457461e+01
8.000000e-08	-5.500806e-06	-1.339688e-09	-3.830159e+01	-8.454088e+01
9.000000e-08	-5.497398e-06	-1.331874e-09	-3.827786e+01	-8.450353e+01
1.000000e-07	-5.493551e-06	-1.278516e-09	-3.825107e+01	-8.446244e+01
1.100000e-07	-5.489302e-06	-1.282576e-09	-3.822149e+01	-8.441749e+01
1.200000e-07	-5.484857e-06	-1.368729e-09	-3.819054e+01	-8.436858e+01
1.300000e-07	-5.480193e-06	-1.347566e-09	-3.815806e+01	-8.431561e+01
1.400000e-07	-5.475171e-06	-1.289531e-09	-3.812310e+01	-8.425848e+01
1.500000e-07	-5.469737e-06	-1.242029e-09	-3.808526e+01	-8.419711e+01
1.600000e-07	-5.463908e-06	-1.353584e-09	-3.804467e+01	-8.413142e+01
1.700000e-07	-5.457664e-06	-1.362266e-09	-3.800120e+01	-8.406137e+01
1.800000e-07	-5.450938e-06	-1.285684e-09	-3.795436e+01	-8.398689e+01
1.900000e-07	-5.443870e-06	-1.245397e-09	-3.790515e+01	-8.390795e+01
2.000000e-07	-5.436556e-06	-1.290296e-09	-3.785422e+01	-8.382451e+01
2.100000e-07	-5.428954e-06	-1.305929e-09	-3.780129e+01	-8.373657e+01
2.200000e-07	-5.421094e-06	-1.246861e-09	-3.774656e+01	-8.364411e+01
2.300000e-07	-5.413001e-06	-1.237086e-09	-3.769021e+01	-8.354713e+01
2.400000e-07	-5.404526e-06	-1.253087e-09	-3.763120e+01	-8.344566e+01
2.500000e-07	-5.395358e-06	-1.272289e-09	-3.756737e+01	-8.333971e+01
2.600000e-07	-5.385452e-06	-1.233008e-09	-3.749839e+01	-8.322933e+01
2.700000e-07	-5.374966e-06	-1.245413e-09	-3.742537e+01	-8.311455e+01
2.800000e-07	-5.363886e-06	-1.237599e-09	-3.734823e+01	-8.299543e+01
2.900000e-07	-5.352428e-06	-1.253866e-09	-3.726844e+01	-8.287202e+01
3.000000e-07	-5.340749e-06	-1.235622e-09	-3.718712e+01	-8.274440e+01
3.100000e-07	-5.328685e-06	-1.254596e-09	-3.710313e+01	-8.261262e+01
3.200000e-07	-5.316129e-06	-1.244182e-09	-3.701570e+01	-8.247678e+01
3.300000e-07	-5.303128e-06	-1.266478e-09	-3.692517e+01	-8.233694e+01
3.400000e-07	-5.289775e-06	-1.242939e-09	-3.683220e+01	-8.219320e+01
3.500000e-07	-5.276001e-06	-1.225379e-09	-3.673630e+01	-8.204563e+01
3.600000e-07	-5.261742e-06	-1.222332e-09	-3.663701e+01	-8.189433e+01
3.700000e-07	-5.247049e-06	-1.245681e-09	-3.653470e+01	-8.173938e+01
3.800000e-07	-5.231859e-06	-1.215023e-09	-3.642894e+01	-8.158086e+01
3.900000e-07	-5.216140e-06	-1.232534e-09	-3.631949e+01	-8.141885e+01
4.000000e-07	-5.199919e-06	-1.265630e-09	-3.620654e+01	-8.125345e+01
4.100000e-07	-5.183309e-06	-1.229981e-09	-3.609089e+01	-8.108472e+01
4.200000e-07	-5.166428e-06	-1.189801e-09	-3.597335e+01	-8.091274e+01
4.300000e-07	-5.149259e-06	-1.240314e-09	-3.585380e+01	-8.073758e+01
4.400000e-07	-5.131813e-06	-1.243932e-09	-3.573233e+01	-8.055929e+01
4.500000e-07	-5.114006e-06	-1.161210e-09	-3.560834e+01	-8.037794e+01
4.600000e-07	-5.095740e-06	-1.195920e-09	-3.548115e+01	-8.019358e+01
4.700000e-07	-5.077033e-06	-1.254292e-09	-3.535089e+01	-8.000625e+01
4.800000e-07	-5.057913e-06	-1.196267e-09	-3.521777e+01	-7.981598e+01
4.900000e-07	-5.038503e-06	-1.161369e-09	-3.508261e+01	-7.962280e+01
5.000000e-07	-5.018913e-06	-1.241230e-09	-3.494621e+01	-7.942674e+01
5.100000e-07	-4.999113e-06	-1.204229e-09	-3.480835e+01	-7.922781e+01
5.200000e-07	-4.978996e-06	-1.145031e-09	-3.466827e+01	-7.902600e+01
5.300000e-07	-4.958523e-06	-1.197177e-09	-3.452572e+01	-7.882134e+01
5.400000e-07	-4.937642e-06	-1.220571e-09	-3.438033e+01	-7.861379e+01
5.500000e-07	-4.916352e-06	-1.133964e-09	-3.423209e+01	-7.840335e+01
5.600000e-07	-4.894822e-06	-1.167264e-09	-3.408218e+01	-7.818999e+01
5.700000e-07	-4.873008e-06	-1.212620e-09	-3.393029e+01	-7.797369e+01
5.800000e-07	-4.850827e-06	-1.152796e-09	-3.377584e+01	-7.775441e+01
5.900000e-07	-4.828276e-06	-1.128950e-09	-3.361882e+01	-7.753210e+01
6.000000e-07	-4.805391e-06	-1.194691e-09	-3.345948e+01	-7.730673e+01
6.100000e-07	-4.782190e-06	-1.161169e-09	-3.329793e+01	-7.707824e+01
6.200000e-07	-4.758734e-06	-1.124654e-09	-3.313461e+01	-7.684657e+01
6.300000e-07	-4.735076e-06	-1.164529e-09	-3.296988e+01	-7.661167e+01
6.400000e-07	-4.711168e-06	-1.167904e-09	-3.280342e+01	-7.637348e+01
6.500000e-07	-4.686972e-06	-1.120674e-09	-3.263494e+01	-7.613193e+01
6.600000e-07	-4.662389e-06	-1.141701e-09	-3.246377e+01	-7.588695e+01
6.700000e-07	-4.637369e-06	-1.151767e-09	-3.228956e+01	-7.563848e+01
6.800000e-07	-4.611844e-06	-1.114367e-09	-3.211183e+01	-7.538645e+01
6.900000e-07	-4.585637e-06	-1.115603e-09	-3.192936e+01	-7.513079e+01
7.000000e-07	-4.558797e-06	-1.139539e-09	-3.174247e+01	-7.487143e+01
7.100000e-07	-4.531579e-06	-1.119956e-09	-3.155295e+01	-7.460829e+01
7.200000e-07	-4.504137e-06	-1.107900e-09	-3.136188e+01	-7.434132e+01
7.300000e-07	-4.476507e-06	-1.123860e-09	-3.116949e+01	-7.407044e+01
7.400000e-07	-4.448677e-06	-1.110700e-09	-3.097572e+01	-7.379557e+01
7.500000e-07	-4.420687e-06	-1.090538e-09	-3.078082e+01	-7.351667e+01
7.600000e-07	-4.392531e-06	-1.091229e-09	-3.058478e+01	-7.323366e+01
7.700000e-07	-4.364049e-06	-1.089617e-09	-3.038646e+01	-7.294648e+01
7.800000e-07	-4.335204e-06	-1.069969e-09	-3.018561e+01	-7.265506e+01
7.900000e-07	-4.305987e-06	-1.074824e-09	-2.998218e+01	-7.235935e+01
8.000000e-07	-4.276401e-06	-1.075132e-09	-2.977617e+01	-7.205929e+01
8.100000e-07	-4.246638e-06	-1.060044e-09	-2.956894e+01	-7.175482e+01
8.200000e-07	-4.216654e-06	-1.046497e-09	-2.936016e+01	-7.144590e+01
8.300000e-07	-4.186373e-06	-1.048739e-09	-2.914932e+01	-7.113245e+01
8.400000e-07	-4.155825e-06	-1.030844e-09	-2.893661e+01	-7.081445e+01
8.500000e-07	-4.124923e-06	-1.021033e-09	-2.872145e+01	-7.049183e+01
8.600000e-07	-4.093701e-06	-1.022379e-09	-2.850405e+01	-7.016456e+01
8.700000e-07	-4.062251e-06	-1.020765e-09	-2.828507e+01	-6.983257e+01
8.800000e-07	-4.030627e-06	-1.009510e-09	-2.806487e+01	-6.949584e+01
8.900000e-07	-3.998911e-06	-1.015908e-09	-2.784404e+01	-6.915432e+01
9.000000e-07	-3.967001e-06	-1.010540e-09	-2.762185e+01	-6.880797e+01
9.100000e-07	-3.934729e-06	-9.946992e-10	-2.739715e+01	-6.845676e+01
9.200000e-07	-3.902218e-06	-9.854850e-10	-2.717077e+01	-6.810063e+01
9.300000e-07	-3.869424e-06	-9.826963e-10	-2.694243e+01	-6.773957e+01
9.400000e-07	-3.836116e-06	-9.696957e-10	-2.671051e+01	-6.737354e+01
9.500000e-07	-3.802309e-06	-9.660283e-10	-2.647511e+01	-6.700250e+01
9.600000e-07	-3.768109e-06	-9.701252e-10	-2.623699e+01	-6.662643e+01
9.700000e-07	-3.733482e-06	-9.616783e-10	-2.599588e+01	-6.624530e+01
9.800000e-07	-3.698451e-06	-9.471042e-10	-2.575196e+01	-6.585910e+01
9.900000e-07	-3.663118e-06	-9.440110e-10	-2.550594e+01	-6.546779e+01
1.000000e-06	-3.627598e-06	-9.382861e-10	-2.525862e+01	-6.507136e+01
1.010000e-06	-3.591992e-06	-9.255489e-10	-2.501070e+01	-6.466980e+01
1.020000e-06	-3.556228e-06	-9.241637e-10	-2.476168e+01	-6.426310e+01
1.030000e-06	-3.520250e-06	-9.250143e-10	-2.451117e+01	-6.385125e+01
1.040000e-06	-3.484044e-06	-9.184981e-10	-2.425906e+01	-6.343425e+01
1.050000e-06	-3.447650e-06	-9.119992e-10	-2.400566e+01	-6.301209e+01
1.060000e-06	-3.411052e-06	-9.092728e-10	-2.375083e+01	-6.258480e+01
1.070000e-06	-3.374220e-06	-8.945698e-10	-2.349437e+01	-6.215237e+01
1.080000e-06	-3.337166e-06	-8.818005e-10	-2.323637e+01	-6.171483e+01
1.090000e-06	-3.299840e-06	-8.772577e-10	-2.297647e+01	-6.127219e+01
1.100000e-06	-3.262231e-06	-8.746809e-10	-2.271460e+01	-6.082449e+01
1.110000e-06	-3.224370e-06	-8.671439e-10	-2.245098e+01	-6.037176e+01
1.120000e-06	-3.186275e-06	-8.659745e-10	-2.218573e+01	-5.991403e+01
1.130000e-06	-3.148015e-06	-8.611044e-10	-2.191933e+01	-5.945135e+01
1.140000e-06	-3.109578e-06	-8.502227e-10	-2.165170e+01	-5.898376e+01
1.150000e-06	-3.070891e-06	-8.368057e-10	-2.138233e+01	-5.851132e+01
1.160000e-06	-3.031978e-06	-8.309998e-10	-2.111137e+01	-5.803408e+01
1.170000e-06	-2.992905e-06	-8.233293e-10	-2.083931e+01	-5.755211e+01
1.180000e-06	-2.953646e-06	-8.170091e-10	-2.056596e+01	-5.706547e+01
1.190000e-06	-2.914191e-06	-8.134618e-10	-2.029123e+01	-5.657422e+01
1.200000e-06	-2.874586e-06	-8.088422e-10	-2.001547e+01	-5.607843e+01
1.210000e-06	-2.834834e-06	-7.990608e-10	-1.973868e+01	-5.557817e+01
1.220000e-06	-2.794969e-06	-7.917666e-10	-1.946111e+01	-5.507351e+01
1.230000e-06	-2.755021e-06	-7.866113e-10	-1.918295e+01	-5.456452e+01
1.240000e-06	-2.714954e-06	-7.786335e-10	-1.890397e+01	-5.405125e+01
1.250000e-06	-2.674640e-06	-7.712416e-10	-1.862326e+01	-5.353377e+01
1.260000e-06	-2.634160e-06	-7.663986e-10	-1.834141e+01	-5.301213e+01
1.270000e-06	-2.593430e-06	-7.578747e-10	-1.805780e+01	-5.248639e+01
1.280000e-06	-2.552310e-06	-7.473238e-10	-1.777149e+01	-5.195657e+01
1.290000e-06	-2.510950e-06	-7.385545e-10	-1.748351e+01	-5.142271e+01
1.300000e-06	-2.469264e-06	-7.300399e-10	-1.719325e+01	-5.088483e+01
1.310000e-06	-2.427261e-06	-7.201682e-10	-1.690079e+01	-5.034292e+01
1.320000e-06	-2.384968e-06	-7.108678e-10	-1.660631e+01	-4.979699e+01
1.330000e-06	-2.342402e-06	-7.048045e-10	-1.630992e+01	-4.924699e+01
1.340000e-06	-2.299661e-06	-6.959320e-10	-1.601232e+01	-4.869288e+01
1.350000e-06	-2.256658e-06	-6.866993e-10	-1.571289e+01	-4.813461e+01
1.360000e-06	-2.213410e-06	-6.762941e-10	-1.541177e+01	-4.757207e+01
1.370000e-06	-2.170023e-06	-6.648644e-10	-1.510967e+01	-4.700516e+01
1.380000e-06	-2.126565e-06	-6.543690e-10	-1.480707e+01	-4.643375e+01
1.390000e-06	-2.082987e-06	-6.467347e-10	-1.450364e+01	-4.585767e+01
1.400000e-06	-2.039266e-06	-6.396250e-10	-1.419922e+01	-4.527674e+01
1.410000e-06	-1.995500e-06	-6.324130e-10	-1.389447e+01	-4.469074e+01
1.420000e-06	-1.951695e-06	-6.238892e-10	-1.358946e+01	-4.409944e+01
1.430000e-06	-1.907785e-06	-6.153825e-10	-1.328372e+01	-4.350256e+01
1.440000e-06	-1.863725e-06	-6.014546e-10	-1.297694e+01	-4.289980e+01
1.450000e-06	-1.819597e-06	-5.877284e-10	-1.266968e+01	-4.229085e+01
1.460000e-06	-1.775434e-06	-5.763190e-10	-1.236218e+01	-4.167534e+01
1.470000e-06	-1.731150e-06	-5.658799e-10	-1.205383e+01	-4.105289e+01
1.480000e-06	-1.686665e-06	-5.553542e-10	-1.174409e+01	-4.042309e+01
1.490000e-06	-1.641994e-06	-5.470896e-10	-1.143305e+01	-3.978551e+01
1.500000e-06	-1.597194e-06	-5.408674e-10	-1.112111e+01	-3.913968e+01
1.510000e-06	-1.552276e-06	-5.336431e-10	-1.080835e+01	-3.848513e+01
1.520000e-06	-1.507268e-06	-5.224042e-10	-1.049496e+01	-3.782134e+01
1.530000e-06	-1.462127e-06	-5.094378e-10	-1.018065e+01	-3.714779e+01
1.540000e-06	-1.416918e-06	-4.979570e-10	-9.865867e+00	-3.646395e+01
1.550000e-06	-1.371582e-06	-4.881626e-10	-9.550192e+00	-3.576926e+01
1.560000e-06	-1.326092e-06	-4.766092e-10	-9.233451e+00	-3.506316e+01
1.570000e-06	-1.280594e-06	-4.635283e-10	-8.916655e+00	-3.434506e+01
1.580000e-06	-1.234989e-06	-4.481911e-10	-8.599109e+00	-3.361441e+01
1.590000e-06	-1.189210e-06	-4.331758e-10	-8.280358e+00	-3.287061e+01
1.600000e-06	-1.143364e-06	-4.211648e-10	-7.961135e+00	-3.211310e+01
1.610000e-06	-1.097456e-06	-4.100453e-10	-7.641485e+00	-3.134131e+01
1.620000e-06	-1.051491e-06	-3.989373e-10	-7.321434e+00	-3.055468e+01
1.630000e-06	-1.005498e-06	-3.873413e-10	-7.001185e+00	-2.975268e+01
1.640000e-06	-9.594357e-07	-3.762052e-10	-6.680459e+00	-2.893478e+01
1.650000e-06	-9.133299e-07	-3.621907e-10	-6.359429e+00	-2.810050e+01
1.660000e-06	-8.671792e-07	-3.461863e-10	-6.038086e+00	-2.724935e+01
1.670000e-06	-8.209436e-07	-3.306234e-10	-5.716152e+00	-2.638092e+01
1.680000e-06	-7.745772e-07	-3.174229e-10	-5.393307e+00	-2.549479e+01
1.690000e-06	-7.281699e-07	-3.051218e-10	-5.070177e+00	-2.459062e+01
1.700000e-06	-6.817642e-07	-2.946448e-10	-4.747060e+00	-2.366808e+01
1.710000e-06	-6.353066e-07	-2.831113e-10	-4.423579e+00	-2.272693e+01
1.720000e-06	-5.888520e-07	-2.697406e-10	-4.100121e+00	-2.176695e+01
1.730000e-06	-5.423973e-07	-2.550410e-10	-3.776661e+00	-2.078797e+01
1.740000e-06	-4.958502e-07	-2.394107e-10	-3.452557e+00	-1.978992e+01
1.750000e-06	-4.492227e-07	-2.216188e-10	-3.127895e+00	-1.877275e+01
1.760000e-06	-4.026033e-07	-2.041853e-10	-2.803289e+00	-1.773649e+01
1.770000e-06	-3.559853e-07	-1.897181e-10	-2.478692e+00	-1.668124e+01
1.780000e-06	-3.092968e-07	-1.768015e-10	-2.153604e+00	-1.560716e+01
1.790000e-06	-2.625231e-07	-1.630446e-10	-1.827924e+00	-1.451449e+01
1.800000e-06	-2.157258e-07	-1.507002e-10	-1.502078e+00	-1.340353e+01
1.810000e-06	-1.689298e-07	-1.380593e-10	-1.176242e+00	-1.227466e+01
1.820000e-06	-1.222138e-07	-1.227194e-10	-8.509632e-01	-1.112832e+01
1.830000e-06	-7.555435e-08	-1.056763e-10	-5.260778e-01	-9.965030e+00
1.840000e-06	-2.882615e-08	-8.826169e-11	-2.007137e-01	-8.785375e+00
1.850000e-06	1.790310e-08	-7.008108e-11	1.246576e-01	-7.590011e+00
1.860000e-06	6.465804e-08	-5.293134e-11	4.502077e-01	-6.379660e+00
1.870000e-06	1.114866e-07	-3.676412e-11	7.762705e-01	-5.155109e+00
1.880000e-06	1.583322e-07	-2.097735e-11	1.102452e+00	-3.917206e+00
1.890000e-06	2.051801e-07	-5.787285e-12	1.428649e+00	-2.666860e+00
1.900000e-06	2.519344e-07	9.531274e-12	1.754195e+00	-1.405035e+00
1.910000e-06	2.985970e-07	2.436857e-11	2.079103e+00	-1.327462e-01
1.920000e-06	3.451894e-07	4.175236e-11	2.403521e+00	1.148943e+00
1.930000e-06	3.917548e-07	6.276326e-11	2.727751e+00	2.438925e+00
1.940000e-06	4.383677e-07	8.452640e-11	3.052312e+00	3.736055e+00
1.950000e-06	4.850073e-07	1.047310e-10	3.377060e+00	5.039154e+00
1.960000e-06	5.316850e-07	1.241461e-10	3.702072e+00	6.347015e+00
1.970000e-06	5.783055e-07	1.425644e-10	4.026686e+00	7.658406e+00
1.980000e-06	6.247988e-07	1.614410e-10	4.350415e+00	8.972081e+00
1.990000e-06	6.711955e-07	1.777995e-10	4.673470e+00	1.028678e+01
2.000000e-06	7.174934e-07	1.915566e-10	4.995838e+00	1.160124e+01
2.010000e-06	7.637497e-07	2.093566e-10	5.317916e+00	1.291420e+01
2.020000e-06	8.099891e-07	2.287929e-10	5.639877e+00	1.422439e+01
2.030000e-06	8.561856e-07	2.495294e-10	5.961539e+00	1.553057e+01
2.040000e-06	9.023595e-07	2.732254e-10	6.283043e+00	1.683152e+01
2.050000e-06	9.484350e-07	2.945695e-10	6.603863e+00	1.812602e+01
2.060000e-06	9.943784e-07	3.133876e-10	6.923762e+00	1.941289e+01
2.070000e-06	1.040301e-06	3.291321e-10	7.243514e+00	2.069099e+01
2.080000e-06	1.086186e-06	3.452737e-10	7.563012e+00	2.195922e+01
2.090000e-06	1.132003e-06	3.636406e-10	7.882031e+00	2.321650e+01
2.100000e-06	1.177758e-06	3.832230e-10	8.200616e+00	2.446183e+01
2.110000e-06	1.223392e-06	4.020427e-10	8.518360e+00	2.569423e+01
2.120000e-06	1.268938e-06	4.186496e-10	8.835492e+00	2.691280e+01
2.130000e-06	1.314453e-06	4.331881e-10	9.152408e+00	2.811669e+01
2.140000e-06	1.359842e-06	4.486070e-10	9.468453e+00	2.930509e+01
2.150000e-06	1.405041e-06	4.652462e-10	9.783168e+00	3.047728e+01
2.160000e-06	1.450080e-06	4.830898e-10	1.009677e+01	3.163261e+01
2.170000e-06	1.495027e-06	5.020637e-10	1.040973e+01	3.277046e+01
2.180000e-06	1.539978e-06	5.203011e-10	1.072272e+01	3.389032e+01
2.190000e-06	1.584858e-06	5.362067e-10	1.103522e+01	3.499171e+01
2.200000e-06	1.629602e-06	5.510536e-10	1.134676e+01	3.607425e+01
2.210000e-06	1.674202e-06	5.637420e-10	1.165731e+01	3.713761e+01
2.220000e-06	1.718637e-06	5.736505e-10	1.196671e+01	3.818154e+01
2.230000e-06	1.762894e-06	5.836731e-10	1.227486e+01	3.920584e+01
2.240000e-06	1.807019e-06	5.982642e-10	1.258210e+01	4.021038e+01
2.250000e-06	1.851075e-06	6.163065e-10	1.288886e+01	4.119511e+01
2.260000e-06	1.895018e-06	6.358129e-10	1.319483e+01	4.216001e+01
2.270000e-06	1.938851e-06	6.550964e-10	1.350003e+01	4.310515e+01
2.280000e-06	1.982622e-06	6.689275e-10	1.380481e+01	4.403062e+01
2.290000e-06	2.026339e-06	6.783651e-10	1.410921e+01	4.493661e+01
2.300000e-06	2.070002e-06	6.853089e-10	1.441323e+01	4.582330e+01
2.310000e-06	2.113582e-06	6.904642e-10	1.471667e+01	4.669097e+01
2.320000e-06	2.157069e-06	6.990259e-10	1.501946e+01	4.753990e+01
2.330000e-06	2.200466e-06	7.127597e-10	1.532163e+01	4.837043e+01
2.340000e-06	2.243684e-06	7.279559e-10	1.562256e+01	4.918293e+01
2.350000e-06	2.286589e-06	7.447547e-10	1.592130e+01	4.997779e+01
2.360000e-06	2.329344e-06	7.573106e-10	1.621900e+01	5.075543e+01
2.370000e-06	2.371948e-06	7.670894e-10	1.651565e+01	5.151629e+01
2.380000e-06	2.414272e-06	7.739415e-10	1.681034e+01	5.226083e+01
2.390000e-06	2.456309e-06	7.800969e-10	1.710305e+01	5.298952e+01
2.400000e-06	2.497935e-06	7.883930e-10	1.739288e+01	5.370285e+01
2.410000e-06	2.539163e-06	7.992697e-10	1.767995e+01	5.440129e+01
2.420000e-06	2.580179e-06	8.127599e-10	1.796554e+01	5.508534e+01
2.430000e-06	2.621004e-06	8.248172e-10	1.824980e+01	5.575548e+01
2.440000e-06	2.661549e-06	8.344529e-10	1.853211e+01	5.641218e+01
2.450000e-06	2.701897e-06	8.399676e-10	1.881305e+01	5.705593e+01
2.460000e-06	2.742088e-06	8.456416e-10	1.909290e+01	5.768717e+01
2.470000e-06	2.782132e-06	8.543802e-10	1.937172e+01	5.830636e+01
2.480000e-06	2.822014e-06	8.652632e-10	1.964941e+01	5.891393e+01
2.490000e-06	2.861723e-06	8.752593e-10	1.992591e+01	5.951029e+01
2.500000e-06	2.901325e-06	8.836513e-10	2.020165e+01	6.009584e+01
2.510000e-06	2.940841e-06	8.931477e-10	2.047679e+01	6.067095e+01
2.520000e-06	2.980212e-06	9.018358e-10	2.075093e+01	6.123598e+01
2.530000e-06	3.019336e-06	9.084251e-10	2.102335e+01	6.179124e+01
2.540000e-06	3.058220e-06	9.158209e-10	2.129409e+01	6.233706e+01
2.550000e-06	3.096815e-06	9.253587e-10	2.156283e+01	6.287371e+01
2.560000e-06	3.135156e-06	9.336576e-10	2.182979e+01	6.340145e+01
2.570000e-06	3.173360e-06	9.413743e-10	2.209580e+01	6.392052e+01
2.580000e-06	3.211378e-06	9.517546e-10	2.236052e+01	6.443114e+01
2.590000e-06	3.249201e-06	9.617669e-10	2.262388e+01	6.493349e+01
2.600000e-06	3.286826e-06	9.682871e-10	2.288586e+01	6.542774e+01
2.610000e-06	3.324187e-06	9.717701e-10	2.314600e+01	6.591405e+01
2.620000e-06	3.361258e-06	9.746251e-10	2.340412e+01	6.639255e+01
2.630000e-06	3.398044e-06	9.798566e-10	2.366025e+01	6.686334e+01
2.640000e-06	3.434522e-06	9.861917e-10	2.391425e+01	6.732654e+01
2.650000e-06	3.470756e-06	9.921790e-10	2.416655e+01	6.778221e+01
2.660000e-06	3.506865e-06	1.001611e-09	2.441797e+01	6.823044e+01
2.670000e-06	3.542892e-06	1.011262e-09	2.466882e+01	6.867127e+01
2.680000e-06	3.578789e-06	1.018522e-09	2.491877e+01	6.910476e+01
2.690000e-06	3.614519e-06	1.023479e-09	2.516755e+01	6.953095e+01
2.700000e-06	3.650083e-06	1.025825e-09	2.541518e+01	6.994986e+01
2.710000e-06	3.685462e-06	1.029748e-09	2.566152e+01	7.036153e+01
2.720000e-06	3.720616e-06	1.035866e-09	2.590629e+01	7.076597e+01
2.730000e-06	3.755467e-06	1.040408e-09	2.614896e+01	7.116322e+01
2.740000e-06	3.789892e-06	1.043862e-09	2.638866e+01	7.155329e+01
2.750000e-06	3.823887e-06	1.049357e-09	2.662536e+01	7.193621e+01
2.760000e-06	3.857425e-06	1.056911e-09	2.685888e+01	7.231199e+01
2.770000e-06	3.890517e-06	1.065339e-09	2.708930e+01	7.268066e+01
2.780000e-06	3.923194e-06	1.072472e-09	2.731683e+01	7.304225e+01
2.790000e-06	3.955512e-06	1.079249e-09	2.754185e+01	7.339679e+01
2.800000e-06	3.987585e-06	1.082550e-09	2.776517e+01	7.374432e+01
2.810000e-06	4.019434e-06	1.083741e-09	2.798694e+01	7.408489e+01
2.820000e-06	4.051108e-06	1.085571e-09	2.820748e+01	7.441853e+01
2.830000e-06	4.082617e-06	1.089017e-09	2.842687e+01	7.474531e+01
2.840000e-06	4.113899e-06	1.096017e-09	2.864469e+01	7.506528e+01
2.850000e-06	4.144877e-06	1.102314e-09	2.886039e+01	7.537851e+01
2.860000e-06	4.175522e-06	1.107329e-09	2.907376e+01	7.568506e+01
2.870000e-06	4.205887e-06	1.112176e-09	2.928519e+01	7.598502e+01
2.880000e-06	4.236023e-06	1.115585e-09	2.949503e+01	7.627846e+01
2.890000e-06	4.265930e-06	1.117401e-09	2.970326e+01	7.656546e+01
2.900000e-06	4.295520e-06	1.118765e-09	2.990929e+01	7.684612e+01
2.910000e-06	4.324727e-06	1.121421e-09	3.011266e+01	7.712053e+01
