# Temperatura_=_-0.3
# Concentracion g/m^3_=_1620.0
# C_Vs_to_Am_M_A/Vsm_=_65563218390.804596
# pendiente_HvsI_1/m_=_3716.3
# ordenada_HvsI_A/m_=_1297.0
# frecuencia_Hz_=_135103.5706942051

Tiempo_(s)	Campo_(V.s)	Magnetizacion_(V.s)	Campo_(kA/m)	Magnetizacion_(A/m)
0.000000e+00	-5.493445e-06	-1.612941e-09	-3.837056e+01	-1.052040e+02
1.000000e-08	-5.493511e-06	-1.612695e-09	-3.837102e+01	-1.051832e+02
2.000000e-08	-5.493242e-06	-1.611631e-09	-3.836914e+01	-1.051597e+02
3.000000e-08	-5.492531e-06	-1.610619e-09	-3.836418e+01	-1.051335e+02
4.000000e-08	-5.491291e-06	-1.608188e-09	-3.835552e+01	-1.051048e+02
5.000000e-08	-5.489587e-06	-1.606620e-09	-3.834361e+01	-1.050737e+02
6.000000e-08	-5.487306e-06	-1.605594e-09	-3.832768e+01	-1.050400e+02
7.000000e-08	-5.484398e-06	-1.626503e-09	-3.830737e+01	-1.050040e+02
8.000000e-08	-5.481050e-06	-1.650698e-09	-3.828398e+01	-1.049656e+02
9.000000e-08	-5.477270e-06	-1.609174e-09	-3.825758e+01	-1.049248e+02
1.000000e-07	-5.473070e-06	-1.549179e-09	-3.822824e+01	-1.048817e+02
1.100000e-07	-5.468602e-06	-1.614648e-09	-3.819704e+01	-1.048363e+02
1.200000e-07	-5.463868e-06	-1.652561e-09	-3.816397e+01	-1.047885e+02
1.300000e-07	-5.458775e-06	-1.620681e-09	-3.812840e+01	-1.047384e+02
1.400000e-07	-5.453367e-06	-1.544594e-09	-3.809062e+01	-1.046859e+02
1.500000e-07	-5.447670e-06	-1.608828e-09	-3.805083e+01	-1.046310e+02
1.600000e-07	-5.441595e-06	-1.683526e-09	-3.800840e+01	-1.045736e+02
1.700000e-07	-5.435064e-06	-1.624568e-09	-3.796278e+01	-1.045136e+02
1.800000e-07	-5.428158e-06	-1.556122e-09	-3.791454e+01	-1.044511e+02
1.900000e-07	-5.420955e-06	-1.563047e-09	-3.786424e+01	-1.043858e+02
2.000000e-07	-5.413444e-06	-1.621372e-09	-3.781177e+01	-1.043177e+02
2.100000e-07	-5.405662e-06	-1.602059e-09	-3.775742e+01	-1.042467e+02
2.200000e-07	-5.397651e-06	-1.584552e-09	-3.770146e+01	-1.041727e+02
2.300000e-07	-5.389295e-06	-1.583082e-09	-3.764309e+01	-1.040955e+02
2.400000e-07	-5.380382e-06	-1.607538e-09	-3.758084e+01	-1.040150e+02
2.500000e-07	-5.370777e-06	-1.572935e-09	-3.751375e+01	-1.039310e+02
2.600000e-07	-5.360489e-06	-1.561435e-09	-3.744189e+01	-1.038434e+02
2.700000e-07	-5.349588e-06	-1.555362e-09	-3.736575e+01	-1.037521e+02
2.800000e-07	-5.338252e-06	-1.561237e-09	-3.728657e+01	-1.036568e+02
2.900000e-07	-5.326619e-06	-1.550804e-09	-3.720531e+01	-1.035573e+02
3.000000e-07	-5.314594e-06	-1.559696e-09	-3.712132e+01	-1.034536e+02
3.100000e-07	-5.302083e-06	-1.549861e-09	-3.703393e+01	-1.033454e+02
3.200000e-07	-5.289184e-06	-1.557727e-09	-3.694384e+01	-1.032325e+02
3.300000e-07	-5.275924e-06	-1.562392e-09	-3.685122e+01	-1.031147e+02
3.400000e-07	-5.262253e-06	-1.543106e-09	-3.675573e+01	-1.029920e+02
3.500000e-07	-5.248176e-06	-1.529394e-09	-3.665741e+01	-1.028639e+02
3.600000e-07	-5.233692e-06	-1.552516e-09	-3.655624e+01	-1.027305e+02
3.700000e-07	-5.218783e-06	-1.536657e-09	-3.645211e+01	-1.025915e+02
3.800000e-07	-5.203296e-06	-1.511744e-09	-3.634393e+01	-1.024467e+02
3.900000e-07	-5.187302e-06	-1.545205e-09	-3.623222e+01	-1.022960e+02
4.000000e-07	-5.170898e-06	-1.544246e-09	-3.611764e+01	-1.021392e+02
4.100000e-07	-5.154045e-06	-1.496748e-09	-3.599992e+01	-1.019762e+02
4.200000e-07	-5.136927e-06	-1.521373e-09	-3.588036e+01	-1.018068e+02
4.300000e-07	-5.119592e-06	-1.576523e-09	-3.575928e+01	-1.016309e+02
4.400000e-07	-5.101922e-06	-1.507494e-09	-3.563585e+01	-1.014483e+02
4.500000e-07	-5.083813e-06	-1.478913e-09	-3.550936e+01	-1.012590e+02
4.600000e-07	-5.065222e-06	-1.544500e-09	-3.537951e+01	-1.010628e+02
4.700000e-07	-5.046222e-06	-1.529061e-09	-3.524680e+01	-1.008598e+02
4.800000e-07	-5.026883e-06	-1.452141e-09	-3.511172e+01	-1.006497e+02
4.900000e-07	-5.007308e-06	-1.513507e-09	-3.497500e+01	-1.004326e+02
5.000000e-07	-4.987554e-06	-1.539343e-09	-3.483702e+01	-1.002084e+02
5.100000e-07	-4.967576e-06	-1.464418e-09	-3.469748e+01	-9.997703e+01
5.200000e-07	-4.947260e-06	-1.475656e-09	-3.455558e+01	-9.973858e+01
5.300000e-07	-4.926619e-06	-1.539593e-09	-3.441140e+01	-9.949300e+01
5.400000e-07	-4.905686e-06	-1.466263e-09	-3.426518e+01	-9.924032e+01
5.500000e-07	-4.884313e-06	-1.440629e-09	-3.411590e+01	-9.898057e+01
5.600000e-07	-4.862535e-06	-1.511059e-09	-3.396379e+01	-9.871379e+01
5.700000e-07	-4.840469e-06	-1.484059e-09	-3.380966e+01	-9.844005e+01
5.800000e-07	-4.818077e-06	-1.415294e-09	-3.365325e+01	-9.815941e+01
5.900000e-07	-4.795376e-06	-1.466232e-09	-3.349469e+01	-9.787198e+01
6.000000e-07	-4.772361e-06	-1.479413e-09	-3.333394e+01	-9.757784e+01
6.100000e-07	-4.749034e-06	-1.420909e-09	-3.317100e+01	-9.727710e+01
6.200000e-07	-4.725454e-06	-1.438181e-09	-3.300631e+01	-9.696989e+01
6.300000e-07	-4.701674e-06	-1.470735e-09	-3.284020e+01	-9.665633e+01
6.400000e-07	-4.677667e-06	-1.422365e-09	-3.267252e+01	-9.633655e+01
6.500000e-07	-4.653304e-06	-1.410223e-09	-3.250235e+01	-9.601070e+01
6.600000e-07	-4.628514e-06	-1.440067e-09	-3.232920e+01	-9.567892e+01
6.700000e-07	-4.603202e-06	-1.409164e-09	-3.215240e+01	-9.534137e+01
6.800000e-07	-4.577293e-06	-1.381671e-09	-3.197143e+01	-9.499820e+01
6.900000e-07	-4.550840e-06	-1.404276e-09	-3.178666e+01	-9.464956e+01
7.000000e-07	-4.523897e-06	-1.399659e-09	-3.159847e+01	-9.429562e+01
7.100000e-07	-4.496604e-06	-1.368329e-09	-3.140784e+01	-9.393652e+01
7.200000e-07	-4.469116e-06	-1.377785e-09	-3.121584e+01	-9.357242e+01
7.300000e-07	-4.441437e-06	-1.380526e-09	-3.102250e+01	-9.320347e+01
7.400000e-07	-4.413538e-06	-1.359046e-09	-3.082763e+01	-9.282981e+01
7.500000e-07	-4.385394e-06	-1.352339e-09	-3.063105e+01	-9.245159e+01
7.600000e-07	-4.357059e-06	-1.359253e-09	-3.043314e+01	-9.206892e+01
7.700000e-07	-4.328445e-06	-1.339762e-09	-3.023328e+01	-9.168194e+01
7.800000e-07	-4.299458e-06	-1.329879e-09	-3.003081e+01	-9.129076e+01
7.900000e-07	-4.270144e-06	-1.330546e-09	-2.982606e+01	-9.089549e+01
8.000000e-07	-4.240496e-06	-1.318050e-09	-2.961898e+01	-9.049622e+01
8.100000e-07	-4.210551e-06	-1.297514e-09	-2.940981e+01	-9.009303e+01
8.200000e-07	-4.180326e-06	-1.298994e-09	-2.919870e+01	-8.968600e+01
8.300000e-07	-4.149772e-06	-1.290792e-09	-2.898529e+01	-8.927518e+01
8.400000e-07	-4.118895e-06	-1.276302e-09	-2.876961e+01	-8.886062e+01
8.500000e-07	-4.087732e-06	-1.275368e-09	-2.855195e+01	-8.844235e+01
8.600000e-07	-4.056376e-06	-1.277654e-09	-2.833293e+01	-8.802041e+01
8.700000e-07	-4.024902e-06	-1.262903e-09	-2.811310e+01	-8.759479e+01
8.800000e-07	-3.993288e-06	-1.257022e-09	-2.789228e+01	-8.716549e+01
8.900000e-07	-3.961475e-06	-1.253352e-09	-2.767007e+01	-8.673249e+01
9.000000e-07	-3.929412e-06	-1.235965e-09	-2.744612e+01	-8.629578e+01
9.100000e-07	-3.897065e-06	-1.222115e-09	-2.722018e+01	-8.585531e+01
9.200000e-07	-3.864404e-06	-1.224445e-09	-2.699205e+01	-8.541102e+01
9.300000e-07	-3.831335e-06	-1.220944e-09	-2.676107e+01	-8.496287e+01
9.400000e-07	-3.797755e-06	-1.213437e-09	-2.652652e+01	-8.451077e+01
9.500000e-07	-3.763696e-06	-1.217231e-09	-2.628862e+01	-8.405466e+01
9.600000e-07	-3.729163e-06	-1.212029e-09	-2.604742e+01	-8.359445e+01
9.700000e-07	-3.694193e-06	-1.192178e-09	-2.580316e+01	-8.313005e+01
9.800000e-07	-3.658908e-06	-1.179208e-09	-2.555671e+01	-8.266135e+01
9.900000e-07	-3.623435e-06	-1.176476e-09	-2.530893e+01	-8.218827e+01
1.000000e-06	-3.587840e-06	-1.167607e-09	-2.506031e+01	-8.171069e+01
1.010000e-06	-3.552131e-06	-1.164385e-09	-2.481089e+01	-8.122850e+01
1.020000e-06	-3.516316e-06	-1.168468e-09	-2.456073e+01	-8.074161e+01
1.030000e-06	-3.480363e-06	-1.163918e-09	-2.430961e+01	-8.024989e+01
1.040000e-06	-3.444146e-06	-1.152060e-09	-2.405664e+01	-7.975325e+01
1.050000e-06	-3.407638e-06	-1.148504e-09	-2.380163e+01	-7.925157e+01
1.060000e-06	-3.370858e-06	-1.137602e-09	-2.354474e+01	-7.874476e+01
1.070000e-06	-3.333866e-06	-1.120579e-09	-2.328635e+01	-7.823272e+01
1.080000e-06	-3.296692e-06	-1.111495e-09	-2.302670e+01	-7.771534e+01
1.090000e-06	-3.259274e-06	-1.110843e-09	-2.276535e+01	-7.719254e+01
1.100000e-06	-3.221605e-06	-1.102435e-09	-2.250223e+01	-7.666423e+01
1.110000e-06	-3.183710e-06	-1.095545e-09	-2.223755e+01	-7.613034e+01
1.120000e-06	-3.145549e-06	-1.092196e-09	-2.197100e+01	-7.559079e+01
1.130000e-06	-3.107135e-06	-1.083558e-09	-2.170268e+01	-7.504552e+01
1.140000e-06	-3.068573e-06	-1.068906e-09	-2.143334e+01	-7.449447e+01
1.150000e-06	-3.029778e-06	-1.061461e-09	-2.116237e+01	-7.393758e+01
1.160000e-06	-2.990799e-06	-1.054817e-09	-2.089011e+01	-7.337480e+01
1.170000e-06	-2.951678e-06	-1.043850e-09	-2.061685e+01	-7.280610e+01
1.180000e-06	-2.912382e-06	-1.036414e-09	-2.034238e+01	-7.223145e+01
1.190000e-06	-2.872922e-06	-1.031375e-09	-2.006676e+01	-7.165080e+01
1.200000e-06	-2.833291e-06	-1.019538e-09	-1.978994e+01	-7.106414e+01
1.210000e-06	-2.793542e-06	-1.006848e-09	-1.951231e+01	-7.047144e+01
1.220000e-06	-2.753681e-06	-9.974658e-10	-1.923388e+01	-6.987267e+01
1.230000e-06	-2.713653e-06	-9.844338e-10	-1.895430e+01	-6.926782e+01
1.240000e-06	-2.673377e-06	-9.711675e-10	-1.867298e+01	-6.865687e+01
1.250000e-06	-2.632762e-06	-9.634781e-10	-1.838929e+01	-6.803980e+01
1.260000e-06	-2.591881e-06	-9.563297e-10	-1.810374e+01	-6.741657e+01
1.270000e-06	-2.550931e-06	-9.469311e-10	-1.781771e+01	-6.678717e+01
1.280000e-06	-2.509905e-06	-9.372379e-10	-1.753116e+01	-6.615155e+01
1.290000e-06	-2.468604e-06	-9.258549e-10	-1.724268e+01	-6.550966e+01
1.300000e-06	-2.426833e-06	-9.114726e-10	-1.695092e+01	-6.486147e+01
1.310000e-06	-2.384708e-06	-8.961480e-10	-1.665669e+01	-6.420690e+01
1.320000e-06	-2.342377e-06	-8.849888e-10	-1.636101e+01	-6.354589e+01
1.330000e-06	-2.299760e-06	-8.756152e-10	-1.606334e+01	-6.287833e+01
1.340000e-06	-2.256882e-06	-8.679029e-10	-1.576385e+01	-6.220412e+01
1.350000e-06	-2.213842e-06	-8.608655e-10	-1.546322e+01	-6.152316e+01
1.360000e-06	-2.170629e-06	-8.525146e-10	-1.516139e+01	-6.083528e+01
1.370000e-06	-2.127228e-06	-8.398858e-10	-1.485824e+01	-6.014035e+01
1.380000e-06	-2.083755e-06	-8.242379e-10	-1.455459e+01	-5.943817e+01
1.390000e-06	-2.040231e-06	-8.043188e-10	-1.425058e+01	-5.872854e+01
1.400000e-06	-1.996592e-06	-7.855301e-10	-1.394577e+01	-5.801125e+01
1.410000e-06	-1.952864e-06	-7.719130e-10	-1.364034e+01	-5.728605e+01
1.420000e-06	-1.909079e-06	-7.659252e-10	-1.333451e+01	-5.655267e+01
1.430000e-06	-1.865209e-06	-7.609436e-10	-1.302810e+01	-5.581082e+01
1.440000e-06	-1.821254e-06	-7.536168e-10	-1.272108e+01	-5.506018e+01
1.450000e-06	-1.777247e-06	-7.422823e-10	-1.241370e+01	-5.430042e+01
1.460000e-06	-1.733155e-06	-7.264650e-10	-1.210573e+01	-5.353117e+01
1.470000e-06	-1.688881e-06	-7.071142e-10	-1.179648e+01	-5.275205e+01
1.480000e-06	-1.644427e-06	-6.883572e-10	-1.148598e+01	-5.196266e+01
1.490000e-06	-1.599819e-06	-6.731736e-10	-1.117440e+01	-5.116257e+01
1.500000e-06	-1.555092e-06	-6.620775e-10	-1.086199e+01	-5.035133e+01
1.510000e-06	-1.510291e-06	-6.526842e-10	-1.054906e+01	-4.952850e+01
1.520000e-06	-1.465341e-06	-6.448487e-10	-1.023510e+01	-4.869358e+01
1.530000e-06	-1.420272e-06	-6.383222e-10	-9.920300e+00	-4.784609e+01
1.540000e-06	-1.375096e-06	-6.291355e-10	-9.604758e+00	-4.698554e+01
1.550000e-06	-1.329792e-06	-6.132580e-10	-9.288318e+00	-4.611142e+01
1.560000e-06	-1.284413e-06	-5.941716e-10	-8.971353e+00	-4.522320e+01
1.570000e-06	-1.238955e-06	-5.764606e-10	-8.653838e+00	-4.432038e+01
1.580000e-06	-1.193430e-06	-5.587848e-10	-8.335857e+00	-4.340244e+01
1.590000e-06	-1.147811e-06	-5.446722e-10	-8.017219e+00	-4.246886e+01
1.600000e-06	-1.102012e-06	-5.338864e-10	-7.697320e+00	-4.151915e+01
1.610000e-06	-1.056123e-06	-5.233600e-10	-7.376796e+00	-4.055280e+01
1.620000e-06	-1.010276e-06	-5.116626e-10	-7.056565e+00	-3.956935e+01
1.630000e-06	-9.643986e-07	-4.999340e-10	-6.736121e+00	-3.856831e+01
1.640000e-06	-9.184451e-07	-4.876047e-10	-6.415146e+00	-3.754926e+01
1.650000e-06	-8.725337e-07	-4.726333e-10	-6.094465e+00	-3.651177e+01
1.660000e-06	-8.265765e-07	-4.552963e-10	-5.773463e+00	-3.545546e+01
1.670000e-06	-7.805159e-07	-4.396251e-10	-5.451739e+00	-3.437998e+01
1.680000e-06	-7.344012e-07	-4.256815e-10	-5.129638e+00	-3.328499e+01
1.690000e-06	-6.881617e-07	-4.123885e-10	-4.806665e+00	-3.217023e+01
1.700000e-06	-6.419371e-07	-3.968590e-10	-4.483796e+00	-3.103545e+01
1.710000e-06	-5.957605e-07	-3.788523e-10	-4.161262e+00	-2.988046e+01
1.720000e-06	-5.494616e-07	-3.604003e-10	-3.837874e+00	-2.870513e+01
1.730000e-06	-5.031152e-07	-3.419284e-10	-3.514154e+00	-2.750934e+01
1.740000e-06	-4.567267e-07	-3.237642e-10	-3.190140e+00	-2.629308e+01
1.750000e-06	-4.102208e-07	-3.071458e-10	-2.865306e+00	-2.505636e+01
1.760000e-06	-3.637294e-07	-2.903470e-10	-2.540574e+00	-2.379925e+01
1.770000e-06	-3.172701e-07	-2.734236e-10	-2.216065e+00	-2.252190e+01
1.780000e-06	-2.706923e-07	-2.562607e-10	-1.890729e+00	-2.122450e+01
1.790000e-06	-2.240728e-07	-2.397479e-10	-1.565101e+00	-1.990733e+01
1.800000e-06	-1.775162e-07	-2.214710e-10	-1.239914e+00	-1.857070e+01
1.810000e-06	-1.309689e-07	-2.018442e-10	-9.147899e-01	-1.721501e+01
1.820000e-06	-8.442561e-08	-1.826071e-10	-5.896952e-01	-1.584072e+01
1.830000e-06	-3.784385e-08	-1.628123e-10	-2.643313e-01	-1.444835e+01
1.840000e-06	8.710615e-09	-1.439192e-10	6.084181e-02	-1.303848e+01
1.850000e-06	5.524364e-08	-1.270745e-10	3.858652e-01	-1.161177e+01
1.860000e-06	1.017960e-07	-1.079240e-10	7.110239e-01	-1.016893e+01
1.870000e-06	1.483004e-07	-8.566230e-11	1.035847e+00	-8.710730e+00
1.880000e-06	1.947734e-07	-6.359645e-11	1.360451e+00	-7.237997e+00
1.890000e-06	2.412712e-07	-4.141212e-11	1.685229e+00	-5.751621e+00
1.900000e-06	2.878028e-07	-1.930947e-11	2.010242e+00	-4.252541e+00
1.910000e-06	3.343545e-07	2.893051e-12	2.335396e+00	-2.741748e+00
1.920000e-06	3.808929e-07	2.379540e-11	2.660457e+00	-1.220279e+00
1.930000e-06	4.273237e-07	4.401692e-11	2.984766e+00	3.107829e-01
1.940000e-06	4.737277e-07	6.566517e-11	3.308889e+00	1.850317e+00
1.950000e-06	5.201445e-07	8.870552e-11	3.633100e+00	3.397165e+00
1.960000e-06	5.664885e-07	1.109374e-10	3.956803e+00	4.950137e+00
1.970000e-06	6.127039e-07	1.341608e-10	4.279608e+00	6.508018e+00
1.980000e-06	6.588937e-07	1.582617e-10	4.602234e+00	8.069567e+00
1.990000e-06	7.050780e-07	1.795029e-10	4.924822e+00	9.633527e+00
2.000000e-06	7.511580e-07	2.010196e-10	5.246681e+00	1.119863e+01
2.010000e-06	7.971374e-07	2.230530e-10	5.567837e+00	1.276359e+01
2.020000e-06	8.430594e-07	2.454217e-10	5.888593e+00	1.432713e+01
2.030000e-06	8.889827e-07	2.705332e-10	6.209357e+00	1.588797e+01
2.040000e-06	9.348674e-07	2.950215e-10	6.529853e+00	1.744484e+01
2.050000e-06	9.806514e-07	3.172876e-10	6.849644e+00	1.899647e+01
2.060000e-06	1.026356e-06	3.372148e-10	7.168884e+00	2.054162e+01
2.070000e-06	1.072048e-06	3.577573e-10	7.488032e+00	2.207907e+01
2.080000e-06	1.117678e-06	3.789148e-10	7.806747e+00	2.360761e+01
2.090000e-06	1.163274e-06	4.018959e-10	8.125224e+00	2.512607e+01
2.100000e-06	1.208811e-06	4.258409e-10	8.443293e+00	2.663334e+01
2.110000e-06	1.254189e-06	4.480017e-10	8.760248e+00	2.812830e+01
2.120000e-06	1.299477e-06	4.681370e-10	9.076574e+00	2.960991e+01
2.130000e-06	1.344679e-06	4.864576e-10	9.392303e+00	3.107716e+01
2.140000e-06	1.389817e-06	5.028033e-10	9.707583e+00	3.252909e+01
2.150000e-06	1.434900e-06	5.200931e-10	1.002248e+01	3.396481e+01
2.160000e-06	1.479867e-06	5.404628e-10	1.033656e+01	3.538346e+01
2.170000e-06	1.524656e-06	5.613518e-10	1.064940e+01	3.678425e+01
2.180000e-06	1.569255e-06	5.820049e-10	1.096092e+01	3.816644e+01
2.190000e-06	1.613762e-06	6.039215e-10	1.127179e+01	3.952937e+01
2.200000e-06	1.658124e-06	6.243140e-10	1.158165e+01	4.087243e+01
2.210000e-06	1.702343e-06	6.402068e-10	1.189051e+01	4.219508e+01
2.220000e-06	1.746439e-06	6.524865e-10	1.219851e+01	4.349683e+01
2.230000e-06	1.790443e-06	6.637620e-10	1.250587e+01	4.477726e+01
2.240000e-06	1.834403e-06	6.769767e-10	1.281292e+01	4.603604e+01
2.250000e-06	1.878264e-06	6.931031e-10	1.311928e+01	4.727287e+01
2.260000e-06	1.922030e-06	7.116026e-10	1.342498e+01	4.848753e+01
2.270000e-06	1.965750e-06	7.285872e-10	1.373035e+01	4.967985e+01
2.280000e-06	2.009432e-06	7.434230e-10	1.403546e+01	5.084975e+01
2.290000e-06	2.053073e-06	7.580316e-10	1.434029e+01	5.199718e+01
2.300000e-06	2.096656e-06	7.709883e-10	1.464470e+01	5.312216e+01
2.310000e-06	2.140124e-06	7.833484e-10	1.494832e+01	5.422476e+01
2.320000e-06	2.183439e-06	7.982219e-10	1.525086e+01	5.530511e+01
2.330000e-06	2.226588e-06	8.138139e-10	1.555225e+01	5.636339e+01
2.340000e-06	2.269572e-06	8.287096e-10	1.585248e+01	5.739983e+01
2.350000e-06	2.312427e-06	8.421484e-10	1.615182e+01	5.841469e+01
2.360000e-06	2.355114e-06	8.543821e-10	1.644997e+01	5.940829e+01
2.370000e-06	2.397395e-06	8.663232e-10	1.674530e+01	6.038098e+01
2.380000e-06	2.439262e-06	8.801546e-10	1.703773e+01	6.133314e+01
2.390000e-06	2.480826e-06	8.939664e-10	1.732805e+01	6.226519e+01
2.400000e-06	2.522025e-06	9.078296e-10	1.761581e+01	6.317757e+01
2.410000e-06	2.562925e-06	9.207932e-10	1.790149e+01	6.407076e+01
2.420000e-06	2.603633e-06	9.313814e-10	1.818583e+01	6.494523e+01
2.430000e-06	2.644100e-06	9.403765e-10	1.846849e+01	6.580150e+01
2.440000e-06	2.684282e-06	9.471606e-10	1.874914e+01	6.664009e+01
2.450000e-06	2.724307e-06	9.559563e-10	1.902871e+01	6.746153e+01
2.460000e-06	2.764256e-06	9.685736e-10	1.930774e+01	6.826635e+01
2.470000e-06	2.804054e-06	9.817817e-10	1.958573e+01	6.905510e+01
2.480000e-06	2.843746e-06	9.940687e-10	1.986297e+01	6.982832e+01
2.490000e-06	2.883338e-06	1.006470e-09	2.013951e+01	7.058654e+01
2.500000e-06	2.922773e-06	1.019538e-09	2.041495e+01	7.133030e+01
2.510000e-06	2.962056e-06	1.031967e-09	2.068934e+01	7.206012e+01
2.520000e-06	3.001123e-06	1.041751e-09	2.096222e+01	7.277651e+01
2.530000e-06	3.039905e-06	1.051405e-09	2.123310e+01	7.347998e+01
2.540000e-06	3.078454e-06	1.063030e-09	2.150235e+01	7.417102e+01
2.550000e-06	3.116779e-06	1.072436e-09	2.177005e+01	7.485008e+01
2.560000e-06	3.154837e-06	1.080261e-09	2.203588e+01	7.551762e+01
2.570000e-06	3.192677e-06	1.091270e-09	2.230018e+01	7.617407e+01
2.580000e-06	3.230375e-06	1.104709e-09	2.256349e+01	7.681983e+01
2.590000e-06	3.267934e-06	1.116997e-09	2.282583e+01	7.745529e+01
2.600000e-06	3.305270e-06	1.126554e-09	2.308662e+01	7.808082e+01
2.610000e-06	3.342403e-06	1.134710e-09	2.334598e+01	7.869674e+01
2.620000e-06	3.379279e-06	1.143031e-09	2.360355e+01	7.930338e+01
2.630000e-06	3.415787e-06	1.150767e-09	2.385856e+01	7.990101e+01
2.640000e-06	3.452000e-06	1.157688e-09	2.411149e+01	8.048990e+01
2.650000e-06	3.488018e-06	1.167596e-09	2.436307e+01	8.107030e+01
2.660000e-06	3.523887e-06	1.179341e-09	2.461361e+01	8.164241e+01
2.670000e-06	3.559616e-06	1.189767e-09	2.486317e+01	8.220643e+01
2.680000e-06	3.595282e-06	1.197988e-09	2.511229e+01	8.276252e+01
2.690000e-06	3.630876e-06	1.203799e-09	2.536091e+01	8.331083e+01
2.700000e-06	3.666332e-06	1.210719e-09	2.560856e+01	8.385150e+01
2.710000e-06	3.701560e-06	1.220101e-09	2.585462e+01	8.438461e+01
2.720000e-06	3.736413e-06	1.228531e-09	2.609806e+01	8.491026e+01
2.730000e-06	3.770920e-06	1.235708e-09	2.633909e+01	8.542852e+01
2.740000e-06	3.805021e-06	1.241724e-09	2.657727e+01	8.593944e+01
2.750000e-06	3.838550e-06	1.246303e-09	2.681147e+01	8.644306e+01
2.760000e-06	3.871491e-06	1.251291e-09	2.704155e+01	8.693940e+01
2.770000e-06	3.903957e-06	1.257504e-09	2.726832e+01	8.742848e+01
2.780000e-06	3.936123e-06	1.266417e-09	2.749299e+01	8.791031e+01
2.790000e-06	3.968068e-06	1.275998e-09	2.771612e+01	8.838487e+01
2.800000e-06	3.999842e-06	1.283715e-09	2.793806e+01	8.885216e+01
2.810000e-06	4.031462e-06	1.289701e-09	2.815892e+01	8.931215e+01
2.820000e-06	4.062951e-06	1.295256e-09	2.837886e+01	8.976483e+01
2.830000e-06	4.094268e-06	1.300590e-09	2.859760e+01	9.021017e+01
2.840000e-06	4.125304e-06	1.304277e-09	2.881438e+01	9.064814e+01
2.850000e-06	4.156087e-06	1.307828e-09	2.902939e+01	9.107872e+01
2.860000e-06	4.186595e-06	1.313777e-09	2.924249e+01	9.150188e+01
2.870000e-06	4.216753e-06	1.319880e-09	2.945313e+01	9.191760e+01
2.880000e-06	4.246576e-06	1.323351e-09	2.966144e+01	9.232586e+01
2.890000e-06	4.276075e-06	1.326699e-09	2.986748e+01	9.272665e+01
2.900000e-06	4.305308e-06	1.331975e-09	3.007167e+01	9.311994e+01
2.910000e-06	4.334327e-06	1.338007e-09	3.027436e+01	9.350573e+01
