# Temperatura_=_-0.3
# Concentracion g/m^3_=_1620.0
# C_Vs_to_Am_M_A/Vsm_=_65563218390.804596
# pendiente_HvsI_1/m_=_3716.3
# ordenada_HvsI_A/m_=_1297.0
# frecuencia_Hz_=_135103.22336790783

Tiempo_(s)	Campo_(V.s)	Magnetizacion_(V.s)	Campo_(kA/m)	Magnetizacion_(A/m)
0.000000e+00	-5.505231e-06	-1.550423e-09	-3.836736e+01	-1.000709e+02
1.000000e-08	-5.505515e-06	-1.546705e-09	-3.836934e+01	-1.000431e+02
2.000000e-08	-5.505578e-06	-1.541566e-09	-3.836978e+01	-1.000125e+02
3.000000e-08	-5.505402e-06	-1.539683e-09	-3.836855e+01	-9.997906e+01
4.000000e-08	-5.504797e-06	-1.541298e-09	-3.836434e+01	-9.994289e+01
5.000000e-08	-5.503639e-06	-1.543338e-09	-3.835627e+01	-9.990397e+01
6.000000e-08	-5.501843e-06	-1.545534e-09	-3.834375e+01	-9.986228e+01
7.000000e-08	-5.499359e-06	-1.545739e-09	-3.832644e+01	-9.981783e+01
8.000000e-08	-5.496308e-06	-1.568501e-09	-3.830517e+01	-9.977057e+01
9.000000e-08	-5.492816e-06	-1.572733e-09	-3.828084e+01	-9.972049e+01
1.000000e-07	-5.488828e-06	-1.509490e-09	-3.825304e+01	-9.966754e+01
1.100000e-07	-5.484491e-06	-1.493085e-09	-3.822282e+01	-9.961167e+01
1.200000e-07	-5.480035e-06	-1.580970e-09	-3.819176e+01	-9.955283e+01
1.300000e-07	-5.475344e-06	-1.579423e-09	-3.815907e+01	-9.949096e+01
1.400000e-07	-5.470323e-06	-1.527135e-09	-3.812408e+01	-9.942598e+01
1.500000e-07	-5.464954e-06	-1.472957e-09	-3.808666e+01	-9.935782e+01
1.600000e-07	-5.459165e-06	-1.583014e-09	-3.804632e+01	-9.928640e+01
1.700000e-07	-5.452996e-06	-1.603770e-09	-3.800332e+01	-9.921162e+01
1.800000e-07	-5.446430e-06	-1.526923e-09	-3.795756e+01	-9.913341e+01
1.900000e-07	-5.439442e-06	-1.478579e-09	-3.790886e+01	-9.905167e+01
2.000000e-07	-5.432177e-06	-1.533845e-09	-3.785823e+01	-9.896629e+01
2.100000e-07	-5.424629e-06	-1.575788e-09	-3.780563e+01	-9.887718e+01
2.200000e-07	-5.416798e-06	-1.531041e-09	-3.775105e+01	-9.878423e+01
2.300000e-07	-5.408736e-06	-1.512820e-09	-3.769486e+01	-9.868735e+01
2.400000e-07	-5.400228e-06	-1.528771e-09	-3.763557e+01	-9.858642e+01
2.500000e-07	-5.391039e-06	-1.554004e-09	-3.757153e+01	-9.848134e+01
2.600000e-07	-5.381253e-06	-1.500769e-09	-3.750333e+01	-9.837200e+01
2.700000e-07	-5.370917e-06	-1.482864e-09	-3.743130e+01	-9.825831e+01
2.800000e-07	-5.359892e-06	-1.481581e-09	-3.735446e+01	-9.814015e+01
2.900000e-07	-5.348384e-06	-1.512402e-09	-3.727425e+01	-9.801743e+01
3.000000e-07	-5.336616e-06	-1.477768e-09	-3.719224e+01	-9.789004e+01
3.100000e-07	-5.324438e-06	-1.465073e-09	-3.710737e+01	-9.775789e+01
3.200000e-07	-5.311761e-06	-1.457403e-09	-3.701902e+01	-9.762089e+01
3.300000e-07	-5.298767e-06	-1.495414e-09	-3.692847e+01	-9.747895e+01
3.400000e-07	-5.285448e-06	-1.462400e-09	-3.683564e+01	-9.733198e+01
3.500000e-07	-5.271759e-06	-1.427605e-09	-3.674024e+01	-9.717991e+01
3.600000e-07	-5.257655e-06	-1.443140e-09	-3.664194e+01	-9.702266e+01
3.700000e-07	-5.243044e-06	-1.479751e-09	-3.654011e+01	-9.686016e+01
3.800000e-07	-5.227921e-06	-1.428472e-09	-3.643472e+01	-9.669235e+01
3.900000e-07	-5.212269e-06	-1.426035e-09	-3.632564e+01	-9.651917e+01
4.000000e-07	-5.196167e-06	-1.476341e-09	-3.621342e+01	-9.634057e+01
4.100000e-07	-5.179678e-06	-1.438552e-09	-3.609850e+01	-9.615652e+01
4.200000e-07	-5.162789e-06	-1.384469e-09	-3.598080e+01	-9.596697e+01
4.300000e-07	-5.145548e-06	-1.455653e-09	-3.586064e+01	-9.577191e+01
4.400000e-07	-5.128150e-06	-1.475650e-09	-3.573939e+01	-9.557131e+01
4.500000e-07	-5.110464e-06	-1.370557e-09	-3.561613e+01	-9.536517e+01
4.600000e-07	-5.092211e-06	-1.398448e-09	-3.548892e+01	-9.515348e+01
4.700000e-07	-5.073482e-06	-1.480649e-09	-3.535839e+01	-9.493626e+01
4.800000e-07	-5.054417e-06	-1.407857e-09	-3.522552e+01	-9.471352e+01
4.900000e-07	-5.035100e-06	-1.360489e-09	-3.509090e+01	-9.448528e+01
5.000000e-07	-5.015602e-06	-1.462702e-09	-3.495501e+01	-9.425159e+01
5.100000e-07	-4.995880e-06	-1.423781e-09	-3.481756e+01	-9.401248e+01
5.200000e-07	-4.975899e-06	-1.337994e-09	-3.467831e+01	-9.376802e+01
5.300000e-07	-4.955600e-06	-1.415443e-09	-3.453685e+01	-9.351826e+01
5.400000e-07	-4.934877e-06	-1.449112e-09	-3.439242e+01	-9.326327e+01
5.500000e-07	-4.913698e-06	-1.327608e-09	-3.424482e+01	-9.300314e+01
5.600000e-07	-4.892128e-06	-1.358817e-09	-3.409449e+01	-9.273795e+01
5.700000e-07	-4.870289e-06	-1.435357e-09	-3.394229e+01	-9.246780e+01
5.800000e-07	-4.848183e-06	-1.357756e-09	-3.378823e+01	-9.219279e+01
5.900000e-07	-4.825725e-06	-1.324739e-09	-3.363171e+01	-9.191302e+01
6.000000e-07	-4.802842e-06	-1.413101e-09	-3.347223e+01	-9.162862e+01
6.100000e-07	-4.779620e-06	-1.371744e-09	-3.331040e+01	-9.133969e+01
6.200000e-07	-4.756197e-06	-1.315306e-09	-3.314715e+01	-9.104637e+01
6.300000e-07	-4.732590e-06	-1.371922e-09	-3.298263e+01	-9.074879e+01
6.400000e-07	-4.708769e-06	-1.375511e-09	-3.281662e+01	-9.044706e+01
6.500000e-07	-4.684609e-06	-1.311571e-09	-3.264824e+01	-9.014133e+01
6.600000e-07	-4.660055e-06	-1.344821e-09	-3.247711e+01	-8.983173e+01
6.700000e-07	-4.635012e-06	-1.360858e-09	-3.230259e+01	-8.951837e+01
6.800000e-07	-4.609396e-06	-1.308194e-09	-3.212406e+01	-8.920141e+01
6.900000e-07	-4.583223e-06	-1.314270e-09	-3.194165e+01	-8.888095e+01
7.000000e-07	-4.556587e-06	-1.341383e-09	-3.175602e+01	-8.855713e+01
7.100000e-07	-4.529563e-06	-1.300921e-09	-3.156768e+01	-8.823006e+01
7.200000e-07	-4.502178e-06	-1.288795e-09	-3.137683e+01	-8.789985e+01
7.300000e-07	-4.474603e-06	-1.317295e-09	-3.118466e+01	-8.756660e+01
7.400000e-07	-4.446907e-06	-1.297151e-09	-3.099163e+01	-8.723041e+01
7.500000e-07	-4.419031e-06	-1.276149e-09	-3.079735e+01	-8.689137e+01
7.600000e-07	-4.390834e-06	-1.290658e-09	-3.060085e+01	-8.654954e+01
7.700000e-07	-4.362306e-06	-1.286213e-09	-3.040202e+01	-8.620499e+01
7.800000e-07	-4.333585e-06	-1.265297e-09	-3.020187e+01	-8.585777e+01
7.900000e-07	-4.304592e-06	-1.279798e-09	-2.999980e+01	-8.550792e+01
8.000000e-07	-4.275228e-06	-1.277441e-09	-2.979516e+01	-8.515544e+01
8.100000e-07	-4.245555e-06	-1.253666e-09	-2.958836e+01	-8.480036e+01
8.200000e-07	-4.215553e-06	-1.249788e-09	-2.937926e+01	-8.444266e+01
8.300000e-07	-4.185214e-06	-1.256306e-09	-2.916782e+01	-8.408232e+01
8.400000e-07	-4.154656e-06	-1.231069e-09	-2.895486e+01	-8.371929e+01
8.500000e-07	-4.123779e-06	-1.222801e-09	-2.873967e+01	-8.335352e+01
8.600000e-07	-4.092536e-06	-1.231500e-09	-2.852193e+01	-8.298494e+01
8.700000e-07	-4.061137e-06	-1.222650e-09	-2.830310e+01	-8.261344e+01
8.800000e-07	-4.029630e-06	-1.206684e-09	-2.808352e+01	-8.223894e+01
8.900000e-07	-3.997963e-06	-1.217944e-09	-2.786283e+01	-8.186130e+01
9.000000e-07	-3.966082e-06	-1.209252e-09	-2.764064e+01	-8.148040e+01
9.100000e-07	-3.933932e-06	-1.184680e-09	-2.741658e+01	-8.109607e+01
9.200000e-07	-3.901492e-06	-1.182262e-09	-2.719050e+01	-8.070818e+01
9.300000e-07	-3.868697e-06	-1.185220e-09	-2.696194e+01	-8.031653e+01
9.400000e-07	-3.835373e-06	-1.167235e-09	-2.672969e+01	-7.992094e+01
9.500000e-07	-3.801507e-06	-1.160529e-09	-2.649368e+01	-7.952124e+01
9.600000e-07	-3.767214e-06	-1.165066e-09	-2.625468e+01	-7.911720e+01
9.700000e-07	-3.732518e-06	-1.152147e-09	-2.601287e+01	-7.870864e+01
9.800000e-07	-3.697485e-06	-1.138191e-09	-2.576872e+01	-7.829533e+01
9.900000e-07	-3.662224e-06	-1.142715e-09	-2.552298e+01	-7.787707e+01
1.000000e-06	-3.626787e-06	-1.135255e-09	-2.527600e+01	-7.745365e+01
1.010000e-06	-3.591167e-06	-1.116388e-09	-2.502776e+01	-7.702486e+01
1.020000e-06	-3.555414e-06	-1.114845e-09	-2.477859e+01	-7.659048e+01
1.030000e-06	-3.519566e-06	-1.112782e-09	-2.452876e+01	-7.615032e+01
1.040000e-06	-3.483553e-06	-1.098275e-09	-2.427777e+01	-7.570418e+01
1.050000e-06	-3.447249e-06	-1.090462e-09	-2.402476e+01	-7.525187e+01
1.060000e-06	-3.410538e-06	-1.088782e-09	-2.376891e+01	-7.479322e+01
1.070000e-06	-3.373537e-06	-1.075160e-09	-2.351104e+01	-7.432807e+01
1.080000e-06	-3.336417e-06	-1.064588e-09	-2.325234e+01	-7.385627e+01
1.090000e-06	-3.299094e-06	-1.063028e-09	-2.299223e+01	-7.337768e+01
1.100000e-06	-3.261484e-06	-1.055136e-09	-2.273012e+01	-7.289218e+01
1.110000e-06	-3.223643e-06	-1.039509e-09	-2.246639e+01	-7.239968e+01
1.120000e-06	-3.185647e-06	-1.035551e-09	-2.220159e+01	-7.190009e+01
1.130000e-06	-3.147370e-06	-1.029439e-09	-2.193483e+01	-7.139335e+01
1.140000e-06	-3.108845e-06	-1.017334e-09	-2.166633e+01	-7.087942e+01
1.150000e-06	-3.070173e-06	-1.008016e-09	-2.139682e+01	-7.035828e+01
1.160000e-06	-3.031328e-06	-1.003364e-09	-2.112610e+01	-6.982992e+01
1.170000e-06	-2.992244e-06	-9.922924e-10	-2.085371e+01	-6.929436e+01
1.180000e-06	-2.952886e-06	-9.815992e-10	-2.057942e+01	-6.875164e+01
1.190000e-06	-2.913400e-06	-9.733965e-10	-2.030423e+01	-6.820182e+01
1.200000e-06	-2.873868e-06	-9.637221e-10	-2.002872e+01	-6.764495e+01
1.210000e-06	-2.834176e-06	-9.527104e-10	-1.975210e+01	-6.708114e+01
1.220000e-06	-2.794316e-06	-9.472828e-10	-1.947430e+01	-6.651048e+01
1.230000e-06	-2.754374e-06	-9.398352e-10	-1.919594e+01	-6.593310e+01
1.240000e-06	-2.714335e-06	-9.290566e-10	-1.891689e+01	-6.534911e+01
1.250000e-06	-2.674090e-06	-9.213741e-10	-1.863642e+01	-6.475865e+01
1.260000e-06	-2.633541e-06	-9.146637e-10	-1.835382e+01	-6.416186e+01
1.270000e-06	-2.592738e-06	-9.047833e-10	-1.806946e+01	-6.355888e+01
1.280000e-06	-2.551747e-06	-8.974481e-10	-1.778377e+01	-6.294986e+01
1.290000e-06	-2.510488e-06	-8.919314e-10	-1.749623e+01	-6.233493e+01
1.300000e-06	-2.468942e-06	-8.832085e-10	-1.720669e+01	-6.171425e+01
1.310000e-06	-2.427014e-06	-8.699041e-10	-1.691448e+01	-6.108792e+01
1.320000e-06	-2.384684e-06	-8.569380e-10	-1.661947e+01	-6.045606e+01
1.330000e-06	-2.342082e-06	-8.448721e-10	-1.632257e+01	-5.981878e+01
1.340000e-06	-2.299301e-06	-8.311091e-10	-1.602442e+01	-5.917616e+01
1.350000e-06	-2.256343e-06	-8.217831e-10	-1.572503e+01	-5.852825e+01
1.360000e-06	-2.213073e-06	-8.146721e-10	-1.542347e+01	-5.787509e+01
1.370000e-06	-2.169591e-06	-8.072821e-10	-1.512043e+01	-5.721669e+01
1.380000e-06	-2.125986e-06	-8.005708e-10	-1.481654e+01	-5.655303e+01
1.390000e-06	-2.082300e-06	-7.917896e-10	-1.451208e+01	-5.588405e+01
1.400000e-06	-2.038586e-06	-7.775609e-10	-1.420743e+01	-5.520967e+01
1.410000e-06	-1.994848e-06	-7.646770e-10	-1.390260e+01	-5.452974e+01
1.420000e-06	-1.950999e-06	-7.546278e-10	-1.359701e+01	-5.384412e+01
1.430000e-06	-1.907016e-06	-7.475108e-10	-1.329048e+01	-5.315259e+01
1.440000e-06	-1.863004e-06	-7.394056e-10	-1.298375e+01	-5.245490e+01
1.450000e-06	-1.818949e-06	-7.302289e-10	-1.267672e+01	-5.175077e+01
1.460000e-06	-1.774808e-06	-7.179416e-10	-1.236909e+01	-5.103985e+01
1.470000e-06	-1.730488e-06	-7.045873e-10	-1.206021e+01	-5.032178e+01
1.480000e-06	-1.685997e-06	-6.907949e-10	-1.175014e+01	-4.959614e+01
1.490000e-06	-1.641460e-06	-6.798707e-10	-1.143976e+01	-4.886247e+01
1.500000e-06	-1.596862e-06	-6.712630e-10	-1.112894e+01	-4.812026e+01
1.510000e-06	-1.552037e-06	-6.626571e-10	-1.081654e+01	-4.736898e+01
1.520000e-06	-1.507043e-06	-6.515817e-10	-1.050297e+01	-4.660806e+01
1.530000e-06	-1.461993e-06	-6.394265e-10	-1.018901e+01	-4.583690e+01
1.540000e-06	-1.416827e-06	-6.282897e-10	-9.874229e+00	-4.505484e+01
1.550000e-06	-1.371553e-06	-6.162480e-10	-9.558701e+00	-4.426124e+01
1.560000e-06	-1.326290e-06	-6.023264e-10	-9.243256e+00	-4.345541e+01
1.570000e-06	-1.280945e-06	-5.903282e-10	-8.927232e+00	-4.263663e+01
1.580000e-06	-1.235395e-06	-5.778593e-10	-8.609782e+00	-4.180420e+01
1.590000e-06	-1.189777e-06	-5.624083e-10	-8.291860e+00	-4.095737e+01
1.600000e-06	-1.144076e-06	-5.477969e-10	-7.973361e+00	-4.009543e+01
1.610000e-06	-1.098215e-06	-5.343100e-10	-7.653739e+00	-3.921765e+01
1.620000e-06	-1.052283e-06	-5.188855e-10	-7.333629e+00	-3.832328e+01
1.630000e-06	-1.006352e-06	-5.011146e-10	-7.013526e+00	-3.741164e+01
1.640000e-06	-9.603781e-07	-4.860835e-10	-6.693120e+00	-3.648202e+01
1.650000e-06	-9.143068e-07	-4.726786e-10	-6.372038e+00	-3.553376e+01
1.660000e-06	-8.681952e-07	-4.570757e-10	-6.050675e+00	-3.456622e+01
1.670000e-06	-8.220383e-07	-4.401998e-10	-5.728995e+00	-3.357881e+01
1.680000e-06	-7.758554e-07	-4.244356e-10	-5.407134e+00	-3.257096e+01
1.690000e-06	-7.296514e-07	-4.072013e-10	-5.085127e+00	-3.154216e+01
1.700000e-06	-6.833672e-07	-3.904766e-10	-4.762561e+00	-3.049197e+01
1.710000e-06	-6.369868e-07	-3.743192e-10	-4.439324e+00	-2.941998e+01
1.720000e-06	-5.905217e-07	-3.573260e-10	-4.115497e+00	-2.832586e+01
1.730000e-06	-5.440640e-07	-3.400658e-10	-3.791721e+00	-2.720934e+01
1.740000e-06	-4.976187e-07	-3.216251e-10	-3.468032e+00	-2.607024e+01
1.750000e-06	-4.511541e-07	-3.032592e-10	-3.144208e+00	-2.490844e+01
1.760000e-06	-4.045895e-07	-2.829030e-10	-2.819688e+00	-2.372391e+01
1.770000e-06	-3.579019e-07	-2.623751e-10	-2.494310e+00	-2.251669e+01
1.780000e-06	-3.112155e-07	-2.425337e-10	-2.168941e+00	-2.128691e+01
1.790000e-06	-2.644498e-07	-2.233775e-10	-1.843018e+00	-2.003481e+01
1.800000e-06	-2.176282e-07	-2.087695e-10	-1.516706e+00	-1.876069e+01
1.810000e-06	-1.709080e-07	-1.931124e-10	-1.191101e+00	-1.746495e+01
1.820000e-06	-1.242078e-07	-1.746444e-10	-8.656362e-01	-1.614808e+01
1.830000e-06	-7.748049e-08	-1.534808e-10	-5.399813e-01	-1.481065e+01
1.840000e-06	-3.080010e-08	-1.307642e-10	-2.146538e-01	-1.345334e+01
1.850000e-06	1.590941e-08	-1.095271e-10	1.108768e-01	-1.207690e+01
1.860000e-06	6.267664e-08	-9.126957e-11	4.368095e-01	-1.068216e+01
1.870000e-06	1.094331e-07	-7.292384e-11	7.626675e-01	-9.270035e+00
1.880000e-06	1.561458e-07	-5.397002e-11	1.088220e+00	-7.841530e+00
1.890000e-06	2.028010e-07	-3.601401e-11	1.413372e+00	-6.397710e+00
1.900000e-06	2.494643e-07	-1.868831e-11	1.738581e+00	-4.939711e+00
1.910000e-06	2.960940e-07	1.426908e-12	2.063555e+00	-3.468736e+00
1.920000e-06	3.426865e-07	2.379648e-11	2.388270e+00	-1.986045e+00
1.930000e-06	3.892752e-07	4.773597e-11	2.712958e+00	-4.929494e-01
1.940000e-06	4.358595e-07	6.992123e-11	3.037616e+00	1.009191e+00
1.950000e-06	4.824079e-07	8.971710e-11	3.362024e+00	2.518979e+00
1.960000e-06	5.289139e-07	1.093851e-10	3.686136e+00	4.034982e+00
1.970000e-06	5.754020e-07	1.278273e-10	4.010124e+00	5.555743e+00
1.980000e-06	6.218117e-07	1.474619e-10	4.333565e+00	7.079787e+00
1.990000e-06	6.681269e-07	1.663918e-10	4.656347e+00	8.605628e+00
2.000000e-06	7.143971e-07	1.841296e-10	4.978816e+00	1.013178e+01
2.010000e-06	7.605691e-07	2.042405e-10	5.300601e+00	1.165674e+01
2.020000e-06	8.066430e-07	2.245045e-10	5.621701e+00	1.317905e+01
2.030000e-06	8.527450e-07	2.462249e-10	5.942998e+00	1.469725e+01
2.040000e-06	8.988411e-07	2.700075e-10	6.264253e+00	1.620991e+01
2.050000e-06	9.448074e-07	2.931004e-10	6.584605e+00	1.771562e+01
2.060000e-06	9.907040e-07	3.144195e-10	6.904470e+00	1.921302e+01
2.070000e-06	1.036602e-06	3.350097e-10	7.224345e+00	2.070081e+01
2.080000e-06	1.082435e-06	3.527227e-10	7.543768e+00	2.217771e+01
2.090000e-06	1.128101e-06	3.678275e-10	7.862023e+00	2.364252e+01
2.100000e-06	1.173632e-06	3.872488e-10	8.179343e+00	2.509409e+01
2.110000e-06	1.219149e-06	4.092150e-10	8.496563e+00	2.653134e+01
2.120000e-06	1.264615e-06	4.320895e-10	8.813427e+00	2.795326e+01
2.130000e-06	1.309970e-06	4.521894e-10	9.129513e+00	2.935892e+01
2.140000e-06	1.355228e-06	4.705649e-10	9.444934e+00	3.074744e+01
2.150000e-06	1.400334e-06	4.855730e-10	9.759283e+00	3.211805e+01
2.160000e-06	1.445344e-06	4.989086e-10	1.007297e+01	3.347005e+01
2.170000e-06	1.490398e-06	5.153200e-10	1.038696e+01	3.480282e+01
2.180000e-06	1.535400e-06	5.342562e-10	1.070059e+01	3.611581e+01
2.190000e-06	1.580121e-06	5.544190e-10	1.101227e+01	3.740858e+01
2.200000e-06	1.624648e-06	5.750131e-10	1.132259e+01	3.868074e+01
2.210000e-06	1.669186e-06	5.927471e-10	1.163298e+01	3.993201e+01
2.220000e-06	1.713548e-06	6.065277e-10	1.194215e+01	4.116217e+01
2.230000e-06	1.757643e-06	6.187169e-10	1.224946e+01	4.237107e+01
2.240000e-06	1.801638e-06	6.333898e-10	1.255608e+01	4.355866e+01
2.250000e-06	1.845562e-06	6.499440e-10	1.286220e+01	4.472493e+01
2.260000e-06	1.889383e-06	6.705252e-10	1.316759e+01	4.586997e+01
2.270000e-06	1.933121e-06	6.909177e-10	1.347242e+01	4.699390e+01
2.280000e-06	1.976835e-06	7.074985e-10	1.377707e+01	4.809692e+01
2.290000e-06	2.020513e-06	7.206353e-10	1.408148e+01	4.917928e+01
2.300000e-06	2.064123e-06	7.317742e-10	1.438540e+01	5.024127e+01
2.310000e-06	2.107672e-06	7.431065e-10	1.468891e+01	5.128324e+01
2.320000e-06	2.151156e-06	7.566868e-10	1.499196e+01	5.230556e+01
2.330000e-06	2.194620e-06	7.751711e-10	1.529487e+01	5.330865e+01
2.340000e-06	2.238040e-06	7.940688e-10	1.559748e+01	5.429295e+01
2.350000e-06	2.281315e-06	8.114801e-10	1.589907e+01	5.525894e+01
2.360000e-06	2.324310e-06	8.261487e-10	1.619871e+01	5.620708e+01
2.370000e-06	2.366906e-06	8.385690e-10	1.649558e+01	5.713788e+01
2.380000e-06	2.409331e-06	8.490831e-10	1.679124e+01	5.805184e+01
2.390000e-06	2.451588e-06	8.603175e-10	1.708575e+01	5.894946e+01
2.400000e-06	2.493458e-06	8.722850e-10	1.737755e+01	5.983125e+01
2.410000e-06	2.534820e-06	8.860370e-10	1.766581e+01	6.069770e+01
2.420000e-06	2.575704e-06	9.008757e-10	1.795074e+01	6.154931e+01
2.430000e-06	2.616368e-06	9.161013e-10	1.823414e+01	6.238653e+01
2.440000e-06	2.656842e-06	9.283595e-10	1.851621e+01	6.320984e+01
2.450000e-06	2.697042e-06	9.387195e-10	1.879637e+01	6.401964e+01
2.460000e-06	2.737017e-06	9.467759e-10	1.907497e+01	6.481637e+01
2.470000e-06	2.776884e-06	9.535362e-10	1.935281e+01	6.560039e+01
2.480000e-06	2.816679e-06	9.621302e-10	1.963015e+01	6.637206e+01
2.490000e-06	2.856363e-06	9.730981e-10	1.990673e+01	6.713171e+01
2.500000e-06	2.895918e-06	9.863963e-10	2.018240e+01	6.787963e+01
2.510000e-06	2.935348e-06	1.000686e-09	2.045719e+01	6.861607e+01
2.520000e-06	2.974627e-06	1.013609e-09	2.073093e+01	6.934128e+01
2.530000e-06	3.013722e-06	1.022237e-09	2.100340e+01	7.005545e+01
2.540000e-06	3.052632e-06	1.030455e-09	2.127457e+01	7.075875e+01
2.550000e-06	3.091312e-06	1.039199e-09	2.154414e+01	7.145132e+01
2.560000e-06	3.129729e-06	1.046202e-09	2.181188e+01	7.213326e+01
2.570000e-06	3.167853e-06	1.053383e-09	2.207758e+01	7.280465e+01
2.580000e-06	3.205700e-06	1.063993e-09	2.234134e+01	7.346556e+01
2.590000e-06	3.243394e-06	1.076326e-09	2.260404e+01	7.411602e+01
2.600000e-06	3.280963e-06	1.086045e-09	2.286587e+01	7.475603e+01
2.610000e-06	3.318314e-06	1.093048e-09	2.312618e+01	7.538559e+01
2.620000e-06	3.355496e-06	1.098181e-09	2.338531e+01	7.600468e+01
2.630000e-06	3.392465e-06	1.103977e-09	2.364296e+01	7.661325e+01
2.640000e-06	3.429009e-06	1.112869e-09	2.389764e+01	7.721127e+01
2.650000e-06	3.465238e-06	1.121592e-09	2.415013e+01	7.779868e+01
2.660000e-06	3.501308e-06	1.133189e-09	2.440151e+01	7.837542e+01
2.670000e-06	3.537188e-06	1.144127e-09	2.465157e+01	7.894143e+01
2.680000e-06	3.572902e-06	1.151168e-09	2.490047e+01	7.949665e+01
2.690000e-06	3.608538e-06	1.155647e-09	2.514883e+01	8.004102e+01
2.700000e-06	3.644102e-06	1.158529e-09	2.539668e+01	8.057450e+01
2.710000e-06	3.679528e-06	1.164355e-09	2.564357e+01	8.109705e+01
2.720000e-06	3.714758e-06	1.172997e-09	2.588910e+01	8.160863e+01
2.730000e-06	3.749687e-06	1.181486e-09	2.613253e+01	8.210924e+01
2.740000e-06	3.784299e-06	1.188163e-09	2.637375e+01	8.259887e+01
2.750000e-06	3.818444e-06	1.192687e-09	2.661172e+01	8.307755e+01
2.760000e-06	3.852003e-06	1.195894e-09	2.684560e+01	8.354531e+01
2.770000e-06	3.884978e-06	1.198887e-09	2.707540e+01	8.400221e+01
2.780000e-06	3.917485e-06	1.202434e-09	2.730195e+01	8.444833e+01
2.790000e-06	3.949697e-06	1.209526e-09	2.752645e+01	8.488375e+01
2.800000e-06	3.981585e-06	1.217410e-09	2.774868e+01	8.530862e+01
2.810000e-06	4.013323e-06	1.222081e-09	2.796987e+01	8.572306e+01
2.820000e-06	4.044962e-06	1.225316e-09	2.819037e+01	8.612724e+01
2.830000e-06	4.076434e-06	1.229756e-09	2.840971e+01	8.652135e+01
2.840000e-06	4.107763e-06	1.236271e-09	2.862805e+01	8.690559e+01
2.850000e-06	4.138844e-06	1.243090e-09	2.884466e+01	8.728019e+01
2.860000e-06	4.169542e-06	1.249572e-09	2.905861e+01	8.764538e+01
2.870000e-06	4.199880e-06	1.255754e-09	2.927004e+01	8.800143e+01
2.880000e-06	4.229906e-06	1.260692e-09	2.947930e+01	8.834860e+01
2.890000e-06	4.259681e-06	1.264437e-09	2.968681e+01	8.868720e+01
2.900000e-06	4.289182e-06	1.266099e-09	2.989240e+01	8.901750e+01
