# Temperatura_=_-0.4
# Concentracion g/m^3_=_1620.0
# C_Vs_to_Am_M_A/Vsm_=_65563218390.804596
# pendiente_HvsI_1/m_=_3716.3
# ordenada_HvsI_A/m_=_1297.0
# frecuencia_Hz_=_135092.3933419518

Tiempo_(s)	Campo_(V.s)	Magnetizacion_(V.s)	Campo_(kA/m)	Magnetizacion_(A/m)
0.000000e+00	-5.524396e-06	-1.583285e-09	-3.837591e+01	-1.014080e+02
1.000000e-08	-5.524711e-06	-1.580405e-09	-3.837810e+01	-1.013608e+02
2.000000e-08	-5.524772e-06	-1.578884e-09	-3.837852e+01	-1.013128e+02
3.000000e-08	-5.524413e-06	-1.577364e-09	-3.837603e+01	-1.012640e+02
4.000000e-08	-5.523544e-06	-1.574155e-09	-3.836999e+01	-1.012146e+02
5.000000e-08	-5.522172e-06	-1.572703e-09	-3.836046e+01	-1.011647e+02
6.000000e-08	-5.520206e-06	-1.569547e-09	-3.834681e+01	-1.011143e+02
7.000000e-08	-5.517602e-06	-1.575549e-09	-3.832872e+01	-1.010635e+02
8.000000e-08	-5.514473e-06	-1.591203e-09	-3.830698e+01	-1.010124e+02
9.000000e-08	-5.510896e-06	-1.567153e-09	-3.828213e+01	-1.009609e+02
1.000000e-07	-5.506941e-06	-1.533916e-09	-3.825465e+01	-1.009092e+02
1.100000e-07	-5.502572e-06	-1.587885e-09	-3.822431e+01	-1.008572e+02
1.200000e-07	-5.497915e-06	-1.559064e-09	-3.819196e+01	-1.008049e+02
1.300000e-07	-5.493159e-06	-1.595530e-09	-3.815892e+01	-1.007522e+02
1.400000e-07	-5.488096e-06	-1.536084e-09	-3.812375e+01	-1.006992e+02
1.500000e-07	-5.482587e-06	-1.560404e-09	-3.808548e+01	-1.006457e+02
1.600000e-07	-5.476591e-06	-1.574802e-09	-3.804383e+01	-1.005917e+02
1.700000e-07	-5.470142e-06	-1.565630e-09	-3.799903e+01	-1.005372e+02
1.800000e-07	-5.463306e-06	-1.594231e-09	-3.795154e+01	-1.004819e+02
1.900000e-07	-5.456060e-06	-1.526363e-09	-3.790121e+01	-1.004258e+02
2.000000e-07	-5.448576e-06	-1.545218e-09	-3.784922e+01	-1.003687e+02
2.100000e-07	-5.440937e-06	-1.498377e-09	-3.779616e+01	-1.003106e+02
2.200000e-07	-5.433025e-06	-1.558116e-09	-3.774119e+01	-1.002512e+02
2.300000e-07	-5.424767e-06	-1.500176e-09	-3.768383e+01	-1.001903e+02
2.400000e-07	-5.416065e-06	-1.536467e-09	-3.762338e+01	-1.001279e+02
2.500000e-07	-5.406754e-06	-1.495301e-09	-3.755870e+01	-1.000637e+02
2.600000e-07	-5.396640e-06	-1.529962e-09	-3.748844e+01	-9.999762e+01
2.700000e-07	-5.385849e-06	-1.491235e-09	-3.741347e+01	-9.992935e+01
2.800000e-07	-5.374801e-06	-1.513582e-09	-3.733673e+01	-9.985874e+01
2.900000e-07	-5.363295e-06	-1.497883e-09	-3.725680e+01	-9.978559e+01
3.000000e-07	-5.351290e-06	-1.498186e-09	-3.717341e+01	-9.970970e+01
3.100000e-07	-5.339004e-06	-1.488769e-09	-3.708806e+01	-9.963087e+01
3.200000e-07	-5.326316e-06	-1.499686e-09	-3.699992e+01	-9.954891e+01
3.300000e-07	-5.313184e-06	-1.501983e-09	-3.690870e+01	-9.946361e+01
3.400000e-07	-5.299756e-06	-1.474066e-09	-3.681542e+01	-9.937479e+01
3.500000e-07	-5.285977e-06	-1.497882e-09	-3.671970e+01	-9.928226e+01
3.600000e-07	-5.271716e-06	-1.493325e-09	-3.662063e+01	-9.918584e+01
3.700000e-07	-5.256866e-06	-1.477632e-09	-3.651748e+01	-9.908535e+01
3.800000e-07	-5.241497e-06	-1.462516e-09	-3.641072e+01	-9.898064e+01
3.900000e-07	-5.225648e-06	-1.508419e-09	-3.630062e+01	-9.887153e+01
4.000000e-07	-5.209313e-06	-1.461905e-09	-3.618715e+01	-9.875790e+01
4.100000e-07	-5.192637e-06	-1.449217e-09	-3.607131e+01	-9.863960e+01
4.200000e-07	-5.175693e-06	-1.471733e-09	-3.595360e+01	-9.851652e+01
4.300000e-07	-5.158448e-06	-1.506368e-09	-3.583381e+01	-9.838853e+01
4.400000e-07	-5.140832e-06	-1.435027e-09	-3.571143e+01	-9.825555e+01
4.500000e-07	-5.122891e-06	-1.475030e-09	-3.558681e+01	-9.811749e+01
4.600000e-07	-5.104529e-06	-1.487629e-09	-3.545925e+01	-9.797427e+01
4.700000e-07	-5.085647e-06	-1.457099e-09	-3.532808e+01	-9.782584e+01
4.800000e-07	-5.066411e-06	-1.417107e-09	-3.519446e+01	-9.767215e+01
4.900000e-07	-5.046976e-06	-1.489227e-09	-3.505945e+01	-9.751317e+01
5.000000e-07	-5.027313e-06	-1.453298e-09	-3.492286e+01	-9.734887e+01
5.100000e-07	-5.007479e-06	-1.431135e-09	-3.478508e+01	-9.717926e+01
5.200000e-07	-4.987295e-06	-1.458855e-09	-3.464487e+01	-9.700433e+01
5.300000e-07	-4.966696e-06	-1.479531e-09	-3.450178e+01	-9.682409e+01
5.400000e-07	-4.945679e-06	-1.413830e-09	-3.435578e+01	-9.663859e+01
5.500000e-07	-4.924298e-06	-1.437969e-09	-3.420726e+01	-9.644784e+01
5.600000e-07	-4.902697e-06	-1.452515e-09	-3.405720e+01	-9.625189e+01
5.700000e-07	-4.880709e-06	-1.421421e-09	-3.390446e+01	-9.605081e+01
5.800000e-07	-4.858338e-06	-1.417333e-09	-3.374906e+01	-9.584463e+01
5.900000e-07	-4.835585e-06	-1.453440e-09	-3.359100e+01	-9.563343e+01
6.000000e-07	-4.812535e-06	-1.424453e-09	-3.343088e+01	-9.541728e+01
6.100000e-07	-4.789304e-06	-1.408900e-09	-3.326950e+01	-9.519625e+01
6.200000e-07	-4.765790e-06	-1.434423e-09	-3.310616e+01	-9.497042e+01
6.300000e-07	-4.742078e-06	-1.414932e-09	-3.294144e+01	-9.473985e+01
6.400000e-07	-4.718123e-06	-1.392609e-09	-3.277503e+01	-9.450463e+01
6.500000e-07	-4.693828e-06	-1.405333e-09	-3.260627e+01	-9.426482e+01
6.600000e-07	-4.669172e-06	-1.408341e-09	-3.243499e+01	-9.402051e+01
6.700000e-07	-4.643887e-06	-1.375214e-09	-3.225935e+01	-9.377175e+01
6.800000e-07	-4.617969e-06	-1.389658e-09	-3.207930e+01	-9.351862e+01
6.900000e-07	-4.591675e-06	-1.388218e-09	-3.189665e+01	-9.326116e+01
7.000000e-07	-4.564954e-06	-1.379242e-09	-3.171103e+01	-9.299943e+01
7.100000e-07	-4.537724e-06	-1.367624e-09	-3.152187e+01	-9.273348e+01
7.200000e-07	-4.510215e-06	-1.379419e-09	-3.133078e+01	-9.246334e+01
7.300000e-07	-4.482621e-06	-1.353996e-09	-3.113909e+01	-9.218903e+01
7.400000e-07	-4.454871e-06	-1.354558e-09	-3.094632e+01	-9.191057e+01
7.500000e-07	-4.426836e-06	-1.349287e-09	-3.075157e+01	-9.162798e+01
7.600000e-07	-4.398521e-06	-1.349818e-09	-3.055488e+01	-9.134124e+01
7.700000e-07	-4.369801e-06	-1.331682e-09	-3.035537e+01	-9.105035e+01
7.800000e-07	-4.340677e-06	-1.340035e-09	-3.015306e+01	-9.075527e+01
7.900000e-07	-4.311326e-06	-1.326903e-09	-2.994917e+01	-9.045598e+01
8.000000e-07	-4.281764e-06	-1.318497e-09	-2.974381e+01	-9.015244e+01
8.100000e-07	-4.251982e-06	-1.303827e-09	-2.953693e+01	-8.984458e+01
8.200000e-07	-4.221869e-06	-1.301806e-09	-2.932774e+01	-8.953235e+01
8.300000e-07	-4.191299e-06	-1.283916e-09	-2.911538e+01	-8.921566e+01
8.400000e-07	-4.160393e-06	-1.281923e-09	-2.890069e+01	-8.889444e+01
8.500000e-07	-4.129260e-06	-1.281245e-09	-2.868443e+01	-8.856861e+01
8.600000e-07	-4.097921e-06	-1.278285e-09	-2.846672e+01	-8.823805e+01
8.700000e-07	-4.066459e-06	-1.269893e-09	-2.824817e+01	-8.790268e+01
8.800000e-07	-4.034900e-06	-1.271693e-09	-2.802894e+01	-8.756238e+01
8.900000e-07	-4.003171e-06	-1.266287e-09	-2.780853e+01	-8.721703e+01
9.000000e-07	-3.971208e-06	-1.251314e-09	-2.758650e+01	-8.686654e+01
9.100000e-07	-3.938932e-06	-1.242732e-09	-2.736228e+01	-8.651078e+01
9.200000e-07	-3.906241e-06	-1.236974e-09	-2.713519e+01	-8.614963e+01
9.300000e-07	-3.873191e-06	-1.230311e-09	-2.690560e+01	-8.578297e+01
9.400000e-07	-3.839624e-06	-1.225458e-09	-2.667243e+01	-8.541070e+01
9.500000e-07	-3.805506e-06	-1.228986e-09	-2.643543e+01	-8.503271e+01
9.600000e-07	-3.770911e-06	-1.221527e-09	-2.619511e+01	-8.464887e+01
9.700000e-07	-3.735968e-06	-1.216221e-09	-2.595237e+01	-8.425910e+01
9.800000e-07	-3.700803e-06	-1.206937e-09	-2.570809e+01	-8.386330e+01
9.900000e-07	-3.665436e-06	-1.203288e-09	-2.546241e+01	-8.346137e+01
1.000000e-06	-3.629965e-06	-1.188284e-09	-2.521601e+01	-8.305325e+01
1.010000e-06	-3.594376e-06	-1.187494e-09	-2.496879e+01	-8.263885e+01
1.020000e-06	-3.558639e-06	-1.183855e-09	-2.472053e+01	-8.221812e+01
1.030000e-06	-3.522681e-06	-1.182751e-09	-2.447074e+01	-8.179101e+01
1.040000e-06	-3.486453e-06	-1.176008e-09	-2.421908e+01	-8.135747e+01
1.050000e-06	-3.449988e-06	-1.179581e-09	-2.396578e+01	-8.091749e+01
1.060000e-06	-3.413277e-06	-1.168118e-09	-2.371076e+01	-8.047104e+01
1.070000e-06	-3.376233e-06	-1.157153e-09	-2.345342e+01	-8.001811e+01
1.080000e-06	-3.338974e-06	-1.143134e-09	-2.319461e+01	-7.955872e+01
1.090000e-06	-3.301496e-06	-1.136307e-09	-2.293426e+01	-7.909289e+01
1.100000e-06	-3.263721e-06	-1.125097e-09	-2.267185e+01	-7.862063e+01
1.110000e-06	-3.225736e-06	-1.121976e-09	-2.240798e+01	-7.814200e+01
1.120000e-06	-3.187454e-06	-1.117933e-09	-2.214205e+01	-7.765703e+01
1.130000e-06	-3.148920e-06	-1.113600e-09	-2.187437e+01	-7.716580e+01
1.140000e-06	-3.110318e-06	-1.105944e-09	-2.160621e+01	-7.666835e+01
1.150000e-06	-3.071505e-06	-1.098313e-09	-2.133660e+01	-7.616477e+01
1.160000e-06	-3.032421e-06	-1.084211e-09	-2.106509e+01	-7.565514e+01
1.170000e-06	-2.993207e-06	-1.072716e-09	-2.079269e+01	-7.513952e+01
1.180000e-06	-2.953853e-06	-1.065042e-09	-2.051931e+01	-7.461801e+01
1.190000e-06	-2.914388e-06	-1.059689e-09	-2.024516e+01	-7.409069e+01
1.200000e-06	-2.874810e-06	-1.055564e-09	-1.997023e+01	-7.355765e+01
1.210000e-06	-2.835018e-06	-1.051582e-09	-1.969381e+01	-7.301895e+01
1.220000e-06	-2.795059e-06	-1.047631e-09	-1.941623e+01	-7.247467e+01
1.230000e-06	-2.754954e-06	-1.034397e-09	-1.913764e+01	-7.192488e+01
1.240000e-06	-2.714691e-06	-1.019731e-09	-1.885794e+01	-7.136965e+01
1.250000e-06	-2.674286e-06	-1.004197e-09	-1.857726e+01	-7.080900e+01
1.260000e-06	-2.633553e-06	-9.946762e-10	-1.829431e+01	-7.024299e+01
1.270000e-06	-2.592537e-06	-9.851354e-10	-1.800938e+01	-6.967162e+01
1.280000e-06	-2.551241e-06	-9.823233e-10	-1.772252e+01	-6.909489e+01
1.290000e-06	-2.509530e-06	-9.787201e-10	-1.743276e+01	-6.851279e+01
1.300000e-06	-2.467464e-06	-9.709013e-10	-1.714055e+01	-6.792527e+01
1.310000e-06	-2.425073e-06	-9.553480e-10	-1.684607e+01	-6.733228e+01
1.320000e-06	-2.382417e-06	-9.404908e-10	-1.654976e+01	-6.673372e+01
1.330000e-06	-2.339572e-06	-9.250013e-10	-1.625213e+01	-6.612949e+01
1.340000e-06	-2.296509e-06	-9.135105e-10	-1.595299e+01	-6.551943e+01
1.350000e-06	-2.253294e-06	-9.042077e-10	-1.565279e+01	-6.490338e+01
1.360000e-06	-2.209933e-06	-8.989023e-10	-1.535157e+01	-6.428115e+01
1.370000e-06	-2.166420e-06	-8.904171e-10	-1.504931e+01	-6.365249e+01
1.380000e-06	-2.122828e-06	-8.835426e-10	-1.474649e+01	-6.301716e+01
1.390000e-06	-2.079183e-06	-8.692693e-10	-1.444331e+01	-6.237485e+01
1.400000e-06	-2.035453e-06	-8.524167e-10	-1.413953e+01	-6.172524e+01
1.410000e-06	-1.991582e-06	-8.342474e-10	-1.383477e+01	-6.106798e+01
1.420000e-06	-1.947623e-06	-8.216694e-10	-1.352941e+01	-6.040268e+01
1.430000e-06	-1.903676e-06	-8.125752e-10	-1.322412e+01	-5.972891e+01
1.440000e-06	-1.859629e-06	-8.058795e-10	-1.291815e+01	-5.904624e+01
1.450000e-06	-1.815430e-06	-7.976184e-10	-1.261111e+01	-5.835418e+01
1.460000e-06	-1.771234e-06	-7.887129e-10	-1.230410e+01	-5.765222e+01
1.470000e-06	-1.726861e-06	-7.766606e-10	-1.199586e+01	-5.693985e+01
1.480000e-06	-1.682244e-06	-7.635528e-10	-1.168592e+01	-5.621650e+01
1.490000e-06	-1.637544e-06	-7.503653e-10	-1.137541e+01	-5.548159e+01
1.500000e-06	-1.592644e-06	-7.396528e-10	-1.106350e+01	-5.473454e+01
1.510000e-06	-1.547623e-06	-7.306456e-10	-1.075076e+01	-5.397472e+01
1.520000e-06	-1.502622e-06	-7.189760e-10	-1.043815e+01	-5.320152e+01
1.530000e-06	-1.457441e-06	-7.073884e-10	-1.012430e+01	-5.241428e+01
1.540000e-06	-1.412104e-06	-6.960847e-10	-9.809359e+00	-5.161237e+01
1.550000e-06	-1.366723e-06	-6.850623e-10	-9.494113e+00	-5.079513e+01
1.560000e-06	-1.321265e-06	-6.711137e-10	-9.178332e+00	-4.996191e+01
1.570000e-06	-1.275725e-06	-6.575808e-10	-8.861983e+00	-4.911207e+01
1.580000e-06	-1.230027e-06	-6.423140e-10	-8.544536e+00	-4.824494e+01
1.590000e-06	-1.184223e-06	-6.259409e-10	-8.226355e+00	-4.735991e+01
1.600000e-06	-1.138347e-06	-6.115666e-10	-7.907672e+00	-4.645635e+01
1.610000e-06	-1.092429e-06	-5.997242e-10	-7.588694e+00	-4.553365e+01
1.620000e-06	-1.046431e-06	-5.842929e-10	-7.269166e+00	-4.459124e+01
1.630000e-06	-1.000267e-06	-5.704219e-10	-6.948481e+00	-4.362856e+01
1.640000e-06	-9.540302e-07	-5.569917e-10	-6.627291e+00	-4.264508e+01
1.650000e-06	-9.077417e-07	-5.441471e-10	-6.305742e+00	-4.164031e+01
1.660000e-06	-8.614782e-07	-5.298788e-10	-5.984367e+00	-4.061379e+01
1.670000e-06	-8.152013e-07	-5.168805e-10	-5.662899e+00	-3.956511e+01
1.680000e-06	-7.688274e-07	-5.015601e-10	-5.340756e+00	-3.849390e+01
1.690000e-06	-7.224876e-07	-4.848293e-10	-5.018851e+00	-3.739983e+01
1.700000e-06	-6.761135e-07	-4.658885e-10	-4.696707e+00	-3.628263e+01
1.710000e-06	-6.295615e-07	-4.475884e-10	-4.373328e+00	-3.514208e+01
1.720000e-06	-5.829395e-07	-4.282969e-10	-4.049462e+00	-3.397801e+01
1.730000e-06	-5.363167e-07	-4.102242e-10	-3.725591e+00	-3.279032e+01
1.740000e-06	-4.896178e-07	-3.922755e-10	-3.401191e+00	-3.157896e+01
1.750000e-06	-4.429014e-07	-3.746032e-10	-3.076670e+00	-3.034396e+01
1.760000e-06	-3.961659e-07	-3.582232e-10	-2.752016e+00	-2.908539e+01
1.770000e-06	-3.493027e-07	-3.414564e-10	-2.426475e+00	-2.780342e+01
1.780000e-06	-3.024259e-07	-3.210760e-10	-2.100839e+00	-2.649824e+01
1.790000e-06	-2.555876e-07	-3.006986e-10	-1.775472e+00	-2.517015e+01
1.800000e-06	-2.087416e-07	-2.830805e-10	-1.450050e+00	-2.381950e+01
1.810000e-06	-1.618776e-07	-2.655479e-10	-1.124503e+00	-2.244671e+01
1.820000e-06	-1.149960e-07	-2.482685e-10	-7.988343e-01	-2.105227e+01
1.830000e-06	-6.813615e-08	-2.297375e-10	-4.733163e-01	-1.963673e+01
1.840000e-06	-2.118572e-08	-2.110023e-10	-1.471693e-01	-1.820071e+01
1.850000e-06	2.576163e-08	-1.905210e-10	1.789564e-01	-1.674490e+01
1.860000e-06	7.259985e-08	-1.702711e-10	5.043240e-01	-1.527005e+01
1.870000e-06	1.194427e-07	-1.475157e-10	8.297239e-01	-1.377697e+01
1.880000e-06	1.662982e-07	-1.248010e-10	1.155211e+00	-1.226653e+01
1.890000e-06	2.131950e-07	-1.042705e-10	1.480986e+00	-1.073967e+01
1.900000e-06	2.601183e-07	-8.540443e-11	1.806944e+00	-9.197351e+00
1.910000e-06	3.069601e-07	-6.657273e-11	2.132337e+00	-7.640618e+00
1.920000e-06	3.537195e-07	-4.729645e-11	2.457157e+00	-6.070545e+00
1.930000e-06	4.004444e-07	-2.466461e-11	2.781737e+00	-4.488259e+00
1.940000e-06	4.471739e-07	-7.407159e-13	3.106350e+00	-2.894921e+00
1.950000e-06	4.938503e-07	2.390659e-11	3.430593e+00	-1.291732e+00
1.960000e-06	5.404398e-07	4.785662e-11	3.754233e+00	3.200761e-01
1.970000e-06	5.869777e-07	7.050644e-11	4.077514e+00	1.939244e+00
1.980000e-06	6.334418e-07	9.269953e-11	4.400283e+00	3.564488e+00
1.990000e-06	6.798655e-07	1.134124e-10	4.722771e+00	5.194506e+00
2.000000e-06	7.263014e-07	1.332548e-10	5.045344e+00	6.827982e+00
2.010000e-06	7.726768e-07	1.574613e-10	5.367497e+00	8.463589e+00
2.020000e-06	8.189334e-07	1.813624e-10	5.688824e+00	1.010000e+01
2.030000e-06	8.651819e-07	2.070727e-10	6.010094e+00	1.173587e+01
2.040000e-06	9.114126e-07	2.358016e-10	6.331242e+00	1.336988e+01
2.050000e-06	9.575402e-07	2.617101e-10	6.651673e+00	1.500072e+01
2.060000e-06	1.003534e-06	2.852976e-10	6.971177e+00	1.662706e+01
2.070000e-06	1.049477e-06	3.056102e-10	7.290321e+00	1.824763e+01
2.080000e-06	1.095354e-06	3.234610e-10	7.609014e+00	1.986116e+01
2.090000e-06	1.141055e-06	3.424506e-10	7.926483e+00	2.146640e+01
2.100000e-06	1.186719e-06	3.656326e-10	8.243694e+00	2.306214e+01
2.110000e-06	1.232353e-06	3.905445e-10	8.560692e+00	2.464720e+01
2.120000e-06	1.277875e-06	4.154362e-10	8.876918e+00	2.622045e+01
2.130000e-06	1.323391e-06	4.394330e-10	9.193101e+00	2.778077e+01
2.140000e-06	1.368825e-06	4.624423e-10	9.508712e+00	2.932711e+01
2.150000e-06	1.414102e-06	4.804886e-10	9.823240e+00	3.085845e+01
2.160000e-06	1.459291e-06	4.972571e-10	1.013715e+01	3.237384e+01
2.170000e-06	1.504452e-06	5.169215e-10	1.045086e+01	3.387235e+01
2.180000e-06	1.549541e-06	5.369749e-10	1.076408e+01	3.535314e+01
2.190000e-06	1.594505e-06	5.588431e-10	1.107643e+01	3.681539e+01
2.200000e-06	1.639295e-06	5.832006e-10	1.138757e+01	3.825835e+01
2.210000e-06	1.683927e-06	6.045582e-10	1.169761e+01	3.968133e+01
2.220000e-06	1.728447e-06	6.207536e-10	1.200687e+01	4.108370e+01
2.230000e-06	1.772779e-06	6.353276e-10	1.231483e+01	4.246489e+01
2.240000e-06	1.816989e-06	6.525142e-10	1.262194e+01	4.382437e+01
2.250000e-06	1.861086e-06	6.708907e-10	1.292827e+01	4.516170e+01
2.260000e-06	1.905101e-06	6.899035e-10	1.323403e+01	4.647648e+01
2.270000e-06	1.949046e-06	7.082321e-10	1.353929e+01	4.776837e+01
2.280000e-06	1.992815e-06	7.249981e-10	1.384334e+01	4.903709e+01
2.290000e-06	2.036551e-06	7.392878e-10	1.414716e+01	5.028242e+01
2.300000e-06	2.080284e-06	7.531152e-10	1.445096e+01	5.150419e+01
2.310000e-06	2.123908e-06	7.650024e-10	1.475400e+01	5.270229e+01
2.320000e-06	2.167477e-06	7.774656e-10	1.505665e+01	5.387666e+01
2.330000e-06	2.210948e-06	7.946977e-10	1.535863e+01	5.502729e+01
2.340000e-06	2.254283e-06	8.119826e-10	1.565966e+01	5.615422e+01
2.350000e-06	2.297523e-06	8.267718e-10	1.596003e+01	5.725755e+01
2.360000e-06	2.340618e-06	8.406911e-10	1.625939e+01	5.833739e+01
2.370000e-06	2.383514e-06	8.555369e-10	1.655738e+01	5.939394e+01
2.380000e-06	2.426057e-06	8.682131e-10	1.685291e+01	6.042739e+01
2.390000e-06	2.468250e-06	8.803930e-10	1.714601e+01	6.143800e+01
2.400000e-06	2.510169e-06	8.932901e-10	1.743720e+01	6.242606e+01
2.410000e-06	2.551812e-06	9.073696e-10	1.772649e+01	6.339188e+01
2.420000e-06	2.593120e-06	9.214218e-10	1.801343e+01	6.433581e+01
2.430000e-06	2.634019e-06	9.342183e-10	1.829754e+01	6.525821e+01
2.440000e-06	2.674601e-06	9.464590e-10	1.857945e+01	6.615949e+01
2.450000e-06	2.714950e-06	9.582143e-10	1.885974e+01	6.704005e+01
2.460000e-06	2.755135e-06	9.689025e-10	1.913889e+01	6.790033e+01
2.470000e-06	2.795179e-06	9.785900e-10	1.941706e+01	6.874078e+01
2.480000e-06	2.835026e-06	9.869503e-10	1.969387e+01	6.956185e+01
2.490000e-06	2.874707e-06	9.945471e-10	1.996951e+01	7.036403e+01
2.500000e-06	2.914272e-06	1.004581e-09	2.024435e+01	7.114777e+01
2.510000e-06	2.953733e-06	1.020384e-09	2.051848e+01	7.191356e+01
2.520000e-06	2.993046e-06	1.037089e-09	2.079157e+01	7.266189e+01
2.530000e-06	3.032156e-06	1.049339e-09	2.106325e+01	7.339325e+01
2.540000e-06	3.071104e-06	1.058045e-09	2.133381e+01	7.410810e+01
2.550000e-06	3.109814e-06	1.066645e-09	2.160271e+01	7.480694e+01
2.560000e-06	3.148339e-06	1.074589e-09	2.187033e+01	7.549024e+01
2.570000e-06	3.186710e-06	1.081779e-09	2.213688e+01	7.615845e+01
2.580000e-06	3.224741e-06	1.093501e-09	2.240107e+01	7.681205e+01
2.590000e-06	3.262474e-06	1.108570e-09	2.266319e+01	7.745148e+01
2.600000e-06	3.300091e-06	1.121331e-09	2.292450e+01	7.807717e+01
2.610000e-06	3.337601e-06	1.130124e-09	2.318506e+01	7.868955e+01
2.620000e-06	3.374881e-06	1.136552e-09	2.344403e+01	7.928903e+01
2.630000e-06	3.411850e-06	1.143517e-09	2.370084e+01	7.987601e+01
2.640000e-06	3.448534e-06	1.150494e-09	2.395567e+01	8.045087e+01
2.650000e-06	3.484953e-06	1.160133e-09	2.420866e+01	8.101399e+01
2.660000e-06	3.521137e-06	1.174241e-09	2.446002e+01	8.156571e+01
2.670000e-06	3.557095e-06	1.186848e-09	2.470981e+01	8.210638e+01
2.680000e-06	3.592877e-06	1.196531e-09	2.495837e+01	8.263631e+01
2.690000e-06	3.628545e-06	1.201353e-09	2.520615e+01	8.315582e+01
2.700000e-06	3.664074e-06	1.201757e-09	2.545295e+01	8.366519e+01
2.710000e-06	3.699483e-06	1.204502e-09	2.569892e+01	8.416470e+01
2.720000e-06	3.734729e-06	1.213942e-09	2.594376e+01	8.465461e+01
2.730000e-06	3.769691e-06	1.223314e-09	2.618663e+01	8.513517e+01
2.740000e-06	3.804331e-06	1.233309e-09	2.642726e+01	8.560661e+01
2.750000e-06	3.838482e-06	1.243680e-09	2.666450e+01	8.606915e+01
2.760000e-06	3.871964e-06	1.250727e-09	2.689709e+01	8.652299e+01
2.770000e-06	3.904954e-06	1.253450e-09	2.712625e+01	8.696833e+01
2.780000e-06	3.937596e-06	1.255781e-09	2.735300e+01	8.740535e+01
2.790000e-06	3.969905e-06	1.262491e-09	2.757745e+01	8.783422e+01
2.800000e-06	4.001934e-06	1.270043e-09	2.779994e+01	8.825510e+01
2.810000e-06	4.033759e-06	1.278721e-09	2.802101e+01	8.866813e+01
2.820000e-06	4.065472e-06	1.288258e-09	2.824131e+01	8.907347e+01
2.830000e-06	4.096960e-06	1.296267e-09	2.846005e+01	8.947123e+01
2.840000e-06	4.128266e-06	1.301764e-09	2.867752e+01	8.986155e+01
2.850000e-06	4.159367e-06	1.304146e-09	2.889357e+01	9.024454e+01
2.860000e-06	4.190122e-06	1.307557e-09	2.910721e+01	9.062032e+01
2.870000e-06	4.220518e-06	1.311226e-09	2.931836e+01	9.098898e+01
2.880000e-06	4.250559e-06	1.315686e-09	2.952704e+01	9.135063e+01
2.890000e-06	4.280343e-06	1.319363e-09	2.973394e+01	9.170536e+01
2.900000e-06	4.309874e-06	1.322152e-09	2.993908e+01	9.205325e+01
