# Temperatura_=_-0.4
# Concentracion g/m^3_=_1620.0
# C_Vs_to_Am_M_A/Vsm_=_65563218390.804596
# pendiente_HvsI_1/m_=_3716.3
# ordenada_HvsI_A/m_=_1297.0
# frecuencia_Hz_=_135090.28595563388

Tiempo_(s)	Campo_(V.s)	Magnetizacion_(V.s)	Campo_(kA/m)	Magnetizacion_(A/m)
0.000000e+00	-5.528094e-06	-1.725642e-09	-3.837988e+01	-1.100877e+02
1.000000e-08	-5.528448e-06	-1.725207e-09	-3.838233e+01	-1.100599e+02
2.000000e-08	-5.528655e-06	-1.723008e-09	-3.838377e+01	-1.100264e+02
3.000000e-08	-5.528525e-06	-1.720162e-09	-3.838287e+01	-1.099873e+02
4.000000e-08	-5.527817e-06	-1.718000e-09	-3.837795e+01	-1.099426e+02
5.000000e-08	-5.526544e-06	-1.713629e-09	-3.836912e+01	-1.098923e+02
6.000000e-08	-5.524751e-06	-1.706646e-09	-3.835667e+01	-1.098365e+02
7.000000e-08	-5.522394e-06	-1.694198e-09	-3.834030e+01	-1.097752e+02
8.000000e-08	-5.519485e-06	-1.714808e-09	-3.832010e+01	-1.097085e+02
9.000000e-08	-5.516057e-06	-1.776472e-09	-3.829630e+01	-1.096367e+02
1.000000e-07	-5.512190e-06	-1.776435e-09	-3.826946e+01	-1.095597e+02
1.100000e-07	-5.507969e-06	-1.651137e-09	-3.824015e+01	-1.094778e+02
1.200000e-07	-5.503596e-06	-1.601773e-09	-3.820979e+01	-1.093911e+02
1.300000e-07	-5.499054e-06	-1.744996e-09	-3.817826e+01	-1.092999e+02
1.400000e-07	-5.493943e-06	-1.814817e-09	-3.814278e+01	-1.092042e+02
1.500000e-07	-5.488309e-06	-1.693276e-09	-3.810366e+01	-1.091044e+02
1.600000e-07	-5.482492e-06	-1.622202e-09	-3.806327e+01	-1.090007e+02
1.700000e-07	-5.476445e-06	-1.744559e-09	-3.802129e+01	-1.088931e+02
1.800000e-07	-5.469768e-06	-1.811906e-09	-3.797494e+01	-1.087821e+02
1.900000e-07	-5.462525e-06	-1.660962e-09	-3.792465e+01	-1.086678e+02
2.000000e-07	-5.455111e-06	-1.584365e-09	-3.787318e+01	-1.085504e+02
2.100000e-07	-5.447505e-06	-1.662667e-09	-3.782037e+01	-1.084301e+02
2.200000e-07	-5.439655e-06	-1.747644e-09	-3.776587e+01	-1.083072e+02
2.300000e-07	-5.431500e-06	-1.679112e-09	-3.770925e+01	-1.081819e+02
2.400000e-07	-5.423018e-06	-1.624148e-09	-3.765037e+01	-1.080543e+02
2.500000e-07	-5.413950e-06	-1.629668e-09	-3.758741e+01	-1.079247e+02
2.600000e-07	-5.404039e-06	-1.645137e-09	-3.751860e+01	-1.077931e+02
2.700000e-07	-5.393439e-06	-1.625775e-09	-3.744501e+01	-1.076599e+02
2.800000e-07	-5.382366e-06	-1.610497e-09	-3.736813e+01	-1.075250e+02
2.900000e-07	-5.370829e-06	-1.609104e-09	-3.728803e+01	-1.073886e+02
3.000000e-07	-5.358933e-06	-1.609741e-09	-3.720544e+01	-1.072507e+02
3.100000e-07	-5.346782e-06	-1.619913e-09	-3.712108e+01	-1.071116e+02
3.200000e-07	-5.334170e-06	-1.599427e-09	-3.703352e+01	-1.069711e+02
3.300000e-07	-5.321069e-06	-1.585833e-09	-3.694257e+01	-1.068293e+02
3.400000e-07	-5.307677e-06	-1.604793e-09	-3.684959e+01	-1.066861e+02
3.500000e-07	-5.293976e-06	-1.616420e-09	-3.675446e+01	-1.065416e+02
3.600000e-07	-5.279708e-06	-1.567221e-09	-3.665541e+01	-1.063957e+02
3.700000e-07	-5.264926e-06	-1.576599e-09	-3.655278e+01	-1.062482e+02
3.800000e-07	-5.249746e-06	-1.598695e-09	-3.644739e+01	-1.060991e+02
3.900000e-07	-5.233957e-06	-1.564372e-09	-3.633777e+01	-1.059481e+02
4.000000e-07	-5.217696e-06	-1.550664e-09	-3.622488e+01	-1.057953e+02
4.100000e-07	-5.201285e-06	-1.616874e-09	-3.611094e+01	-1.056402e+02
4.200000e-07	-5.184502e-06	-1.585959e-09	-3.599442e+01	-1.054828e+02
4.300000e-07	-5.167267e-06	-1.528091e-09	-3.587476e+01	-1.053228e+02
4.400000e-07	-5.149802e-06	-1.588554e-09	-3.575351e+01	-1.051600e+02
4.500000e-07	-5.132060e-06	-1.619226e-09	-3.563033e+01	-1.049940e+02
4.600000e-07	-5.113809e-06	-1.510538e-09	-3.550362e+01	-1.048247e+02
4.700000e-07	-5.095064e-06	-1.521571e-09	-3.537348e+01	-1.046516e+02
4.800000e-07	-5.076013e-06	-1.610985e-09	-3.524121e+01	-1.044746e+02
4.900000e-07	-5.056703e-06	-1.559081e-09	-3.510715e+01	-1.042934e+02
5.000000e-07	-5.037162e-06	-1.505668e-09	-3.497149e+01	-1.041075e+02
5.100000e-07	-5.017420e-06	-1.587874e-09	-3.483442e+01	-1.039167e+02
5.200000e-07	-4.997448e-06	-1.569643e-09	-3.469576e+01	-1.037208e+02
5.300000e-07	-4.977033e-06	-1.494048e-09	-3.455403e+01	-1.035194e+02
5.400000e-07	-4.956149e-06	-1.553270e-09	-3.440904e+01	-1.033122e+02
5.500000e-07	-4.935013e-06	-1.579331e-09	-3.426230e+01	-1.030989e+02
5.600000e-07	-4.913557e-06	-1.485483e-09	-3.411333e+01	-1.028794e+02
5.700000e-07	-4.891710e-06	-1.509919e-09	-3.396165e+01	-1.026533e+02
5.800000e-07	-4.869644e-06	-1.584523e-09	-3.380846e+01	-1.024204e+02
5.900000e-07	-4.847119e-06	-1.519275e-09	-3.365207e+01	-1.021805e+02
6.000000e-07	-4.824112e-06	-1.482137e-09	-3.349234e+01	-1.019334e+02
6.100000e-07	-4.800881e-06	-1.543355e-09	-3.333105e+01	-1.016790e+02
6.200000e-07	-4.777370e-06	-1.523856e-09	-3.316782e+01	-1.014171e+02
6.300000e-07	-4.753657e-06	-1.468848e-09	-3.300320e+01	-1.011476e+02
6.400000e-07	-4.729820e-06	-1.513070e-09	-3.283770e+01	-1.008705e+02
6.500000e-07	-4.705617e-06	-1.518305e-09	-3.266967e+01	-1.005856e+02
6.600000e-07	-4.680869e-06	-1.468740e-09	-3.249785e+01	-1.002930e+02
6.700000e-07	-4.655684e-06	-1.478520e-09	-3.232300e+01	-9.999261e+01
6.800000e-07	-4.630048e-06	-1.497583e-09	-3.214501e+01	-9.968452e+01
6.900000e-07	-4.603807e-06	-1.453014e-09	-3.196283e+01	-9.936878e+01
7.000000e-07	-4.577007e-06	-1.449911e-09	-3.177677e+01	-9.904546e+01
7.100000e-07	-4.549799e-06	-1.470733e-09	-3.158787e+01	-9.871467e+01
7.200000e-07	-4.522352e-06	-1.451859e-09	-3.139731e+01	-9.837656e+01
7.300000e-07	-4.494803e-06	-1.435842e-09	-3.120605e+01	-9.803127e+01
7.400000e-07	-4.467163e-06	-1.456511e-09	-3.101415e+01	-9.767899e+01
7.500000e-07	-4.439305e-06	-1.444331e-09	-3.082074e+01	-9.731991e+01
7.600000e-07	-4.411046e-06	-1.419396e-09	-3.062455e+01	-9.695425e+01
7.700000e-07	-4.382414e-06	-1.417844e-09	-3.042576e+01	-9.658223e+01
7.800000e-07	-4.353523e-06	-1.411700e-09	-3.022518e+01	-9.620410e+01
7.900000e-07	-4.324344e-06	-1.391615e-09	-3.002261e+01	-9.582010e+01
8.000000e-07	-4.294911e-06	-1.398239e-09	-2.981826e+01	-9.543049e+01
8.100000e-07	-4.265161e-06	-1.401260e-09	-2.961172e+01	-9.503552e+01
8.200000e-07	-4.235037e-06	-1.382900e-09	-2.940258e+01	-9.463547e+01
8.300000e-07	-4.204679e-06	-1.374957e-09	-2.919181e+01	-9.423058e+01
8.400000e-07	-4.174021e-06	-1.372048e-09	-2.897896e+01	-9.382111e+01
8.500000e-07	-4.143012e-06	-1.351930e-09	-2.876367e+01	-9.340731e+01
8.600000e-07	-4.111742e-06	-1.339721e-09	-2.854657e+01	-9.298940e+01
8.700000e-07	-4.080359e-06	-1.350007e-09	-2.832869e+01	-9.256763e+01
8.800000e-07	-4.048874e-06	-1.348124e-09	-2.811010e+01	-9.214218e+01
8.900000e-07	-4.017179e-06	-1.338066e-09	-2.789005e+01	-9.171326e+01
9.000000e-07	-3.985240e-06	-1.337989e-09	-2.766831e+01	-9.128105e+01
9.100000e-07	-3.953076e-06	-1.330106e-09	-2.744500e+01	-9.084568e+01
9.200000e-07	-3.920556e-06	-1.307545e-09	-2.721923e+01	-9.040729e+01
9.300000e-07	-3.887517e-06	-1.301117e-09	-2.698985e+01	-8.996599e+01
9.400000e-07	-3.854006e-06	-1.301734e-09	-2.675719e+01	-8.952187e+01
9.500000e-07	-3.820022e-06	-1.291244e-09	-2.652125e+01	-8.907497e+01
9.600000e-07	-3.785463e-06	-1.282473e-09	-2.628132e+01	-8.862533e+01
9.700000e-07	-3.750524e-06	-1.284684e-09	-2.603875e+01	-8.817296e+01
9.800000e-07	-3.715400e-06	-1.272613e-09	-2.579489e+01	-8.771783e+01
9.900000e-07	-3.680115e-06	-1.256418e-09	-2.554992e+01	-8.725990e+01
1.000000e-06	-3.644664e-06	-1.252752e-09	-2.530379e+01	-8.679909e+01
1.010000e-06	-3.609058e-06	-1.254143e-09	-2.505659e+01	-8.633532e+01
1.020000e-06	-3.573336e-06	-1.245639e-09	-2.480859e+01	-8.586846e+01
1.030000e-06	-3.537485e-06	-1.241218e-09	-2.455968e+01	-8.539838e+01
1.040000e-06	-3.501392e-06	-1.237127e-09	-2.430910e+01	-8.492491e+01
1.050000e-06	-3.464993e-06	-1.224318e-09	-2.405639e+01	-8.444787e+01
1.060000e-06	-3.428295e-06	-1.211138e-09	-2.380161e+01	-8.396707e+01
1.070000e-06	-3.391283e-06	-1.207071e-09	-2.354465e+01	-8.348229e+01
1.080000e-06	-3.353968e-06	-1.197140e-09	-2.328558e+01	-8.299332e+01
1.090000e-06	-3.316489e-06	-1.185425e-09	-2.302538e+01	-8.249991e+01
1.100000e-06	-3.278883e-06	-1.180100e-09	-2.276429e+01	-8.200183e+01
1.110000e-06	-3.241043e-06	-1.173393e-09	-2.250157e+01	-8.149882e+01
1.120000e-06	-3.203011e-06	-1.160073e-09	-2.223753e+01	-8.099064e+01
1.130000e-06	-3.164747e-06	-1.154175e-09	-2.197187e+01	-8.047702e+01
1.140000e-06	-3.126212e-06	-1.151213e-09	-2.170434e+01	-7.995772e+01
1.150000e-06	-3.087366e-06	-1.139578e-09	-2.143465e+01	-7.943247e+01
1.160000e-06	-3.048316e-06	-1.127676e-09	-2.116353e+01	-7.890104e+01
1.170000e-06	-3.009064e-06	-1.120852e-09	-2.089102e+01	-7.836317e+01
1.180000e-06	-2.969678e-06	-1.111873e-09	-2.061757e+01	-7.781864e+01
1.190000e-06	-2.930285e-06	-1.099191e-09	-2.034408e+01	-7.726722e+01
1.200000e-06	-2.890700e-06	-1.091808e-09	-2.006925e+01	-7.670869e+01
1.210000e-06	-2.850920e-06	-1.086034e-09	-1.979307e+01	-7.614285e+01
1.220000e-06	-2.810969e-06	-1.079297e-09	-1.951570e+01	-7.556951e+01
1.230000e-06	-2.770880e-06	-1.071841e-09	-1.923738e+01	-7.498849e+01
1.240000e-06	-2.730565e-06	-1.061378e-09	-1.895748e+01	-7.439962e+01
1.250000e-06	-2.690061e-06	-1.046380e-09	-1.867628e+01	-7.380275e+01
1.260000e-06	-2.649389e-06	-1.035207e-09	-1.839390e+01	-7.319774e+01
1.270000e-06	-2.608387e-06	-1.024543e-09	-1.810924e+01	-7.258445e+01
1.280000e-06	-2.567031e-06	-1.013527e-09	-1.782212e+01	-7.196276e+01
1.290000e-06	-2.525336e-06	-1.003406e-09	-1.753264e+01	-7.133258e+01
1.300000e-06	-2.483430e-06	-9.939570e-10	-1.724170e+01	-7.069379e+01
1.310000e-06	-2.441278e-06	-9.826500e-10	-1.694905e+01	-7.004631e+01
1.320000e-06	-2.398808e-06	-9.711713e-10	-1.665420e+01	-6.939004e+01
1.330000e-06	-2.356090e-06	-9.604410e-10	-1.635762e+01	-6.872490e+01
1.340000e-06	-2.313157e-06	-9.498611e-10	-1.605955e+01	-6.805082e+01
1.350000e-06	-2.270022e-06	-9.380573e-10	-1.576007e+01	-6.736770e+01
1.360000e-06	-2.226732e-06	-9.266549e-10	-1.545952e+01	-6.667546e+01
1.370000e-06	-2.183314e-06	-9.152014e-10	-1.515809e+01	-6.597401e+01
1.380000e-06	-2.139791e-06	-9.018435e-10	-1.485592e+01	-6.526325e+01
1.390000e-06	-2.096157e-06	-8.894818e-10	-1.455298e+01	-6.454307e+01
1.400000e-06	-2.052429e-06	-8.793341e-10	-1.424939e+01	-6.381335e+01
1.410000e-06	-2.008633e-06	-8.686979e-10	-1.394533e+01	-6.307395e+01
1.420000e-06	-1.964689e-06	-8.583176e-10	-1.364024e+01	-6.232472e+01
1.430000e-06	-1.920690e-06	-8.461137e-10	-1.333476e+01	-6.156549e+01
1.440000e-06	-1.876694e-06	-8.320247e-10	-1.302932e+01	-6.079606e+01
1.450000e-06	-1.832645e-06	-8.167164e-10	-1.272350e+01	-6.001623e+01
1.460000e-06	-1.788479e-06	-8.037779e-10	-1.241686e+01	-5.922574e+01
1.470000e-06	-1.744121e-06	-7.923292e-10	-1.210890e+01	-5.842434e+01
1.480000e-06	-1.699570e-06	-7.798428e-10	-1.179960e+01	-5.761174e+01
1.490000e-06	-1.654734e-06	-7.666265e-10	-1.148832e+01	-5.678762e+01
1.500000e-06	-1.609748e-06	-7.534933e-10	-1.117599e+01	-5.595164e+01
1.510000e-06	-1.564747e-06	-7.397761e-10	-1.086356e+01	-5.510342e+01
1.520000e-06	-1.519664e-06	-7.272543e-10	-1.055056e+01	-5.424256e+01
1.530000e-06	-1.474475e-06	-7.141382e-10	-1.023683e+01	-5.336865e+01
1.540000e-06	-1.429078e-06	-7.002495e-10	-9.921655e+00	-5.248123e+01
1.550000e-06	-1.383593e-06	-6.894815e-10	-9.605866e+00	-5.157983e+01
1.560000e-06	-1.338096e-06	-6.767182e-10	-9.289992e+00	-5.066396e+01
1.570000e-06	-1.292462e-06	-6.609723e-10	-8.973172e+00	-4.973310e+01
1.580000e-06	-1.246704e-06	-6.431774e-10	-8.655486e+00	-4.878673e+01
1.590000e-06	-1.200840e-06	-6.251087e-10	-8.337069e+00	-4.782430e+01
1.600000e-06	-1.154912e-06	-6.089192e-10	-8.018201e+00	-4.684526e+01
1.610000e-06	-1.108982e-06	-5.954266e-10	-7.699326e+00	-4.584904e+01
1.620000e-06	-1.062989e-06	-5.821503e-10	-7.380006e+00	-4.483508e+01
1.630000e-06	-1.016888e-06	-5.673219e-10	-7.059943e+00	-4.380282e+01
1.640000e-06	-9.707074e-07	-5.530431e-10	-6.739326e+00	-4.275170e+01
1.650000e-06	-9.244623e-07	-5.386919e-10	-6.418261e+00	-4.168117e+01
1.660000e-06	-8.780772e-07	-5.212694e-10	-6.096223e+00	-4.059070e+01
1.670000e-06	-8.316264e-07	-5.031006e-10	-5.773729e+00	-3.947977e+01
1.680000e-06	-7.852317e-07	-4.862767e-10	-5.451625e+00	-3.834790e+01
1.690000e-06	-7.387632e-07	-4.723145e-10	-5.129008e+00	-3.719462e+01
1.700000e-06	-6.921692e-07	-4.579616e-10	-4.805520e+00	-3.601950e+01
1.710000e-06	-6.455315e-07	-4.416553e-10	-4.481729e+00	-3.482216e+01
1.720000e-06	-5.988988e-07	-4.236014e-10	-4.157972e+00	-3.360226e+01
1.730000e-06	-5.522453e-07	-4.051204e-10	-3.834071e+00	-3.235949e+01
1.740000e-06	-5.054996e-07	-3.861781e-10	-3.509530e+00	-3.109361e+01
1.750000e-06	-4.586930e-07	-3.680083e-10	-3.184566e+00	-2.980445e+01
1.760000e-06	-4.119048e-07	-3.491269e-10	-2.859730e+00	-2.849187e+01
1.770000e-06	-3.651627e-07	-3.292752e-10	-2.535214e+00	-2.715582e+01
1.780000e-06	-3.184080e-07	-3.092225e-10	-2.210610e+00	-2.579631e+01
1.790000e-06	-2.714696e-07	-2.892773e-10	-1.884731e+00	-2.441341e+01
1.800000e-06	-2.243772e-07	-2.704198e-10	-1.557783e+00	-2.300729e+01
1.810000e-06	-1.774304e-07	-2.505117e-10	-1.231846e+00	-2.157817e+01
1.820000e-06	-1.306295e-07	-2.295564e-10	-9.069211e-01	-2.012636e+01
1.830000e-06	-8.379131e-08	-2.082868e-10	-5.817376e-01	-1.865226e+01
1.840000e-06	-3.693005e-08	-1.858180e-10	-2.563941e-01	-1.715633e+01
1.850000e-06	9.973406e-09	-1.630789e-10	6.924232e-02	-1.563912e+01
1.860000e-06	5.684637e-08	-1.429149e-10	3.946671e-01	-1.410127e+01
1.870000e-06	1.036425e-07	-1.208679e-10	7.195586e-01	-1.254348e+01
1.880000e-06	1.504303e-07	-9.610887e-11	1.044392e+00	-1.096655e+01
1.890000e-06	1.972753e-07	-7.427863e-11	1.369622e+00	-9.371332e+00
1.900000e-06	2.441882e-07	-5.498728e-11	1.695324e+00	-7.758778e+00
1.910000e-06	2.910606e-07	-3.403010e-11	2.020745e+00	-6.129897e+00
1.920000e-06	3.378454e-07	-1.101253e-11	2.345558e+00	-4.485772e+00
1.930000e-06	3.845641e-07	1.259364e-11	2.669912e+00	-2.827550e+00
1.940000e-06	4.312394e-07	3.496099e-11	2.993964e+00	-1.156438e+00
1.950000e-06	4.779018e-07	5.748001e-11	3.317927e+00	5.262985e-01
1.960000e-06	5.246028e-07	7.903538e-11	3.642158e+00	2.219342e+00
1.970000e-06	5.712481e-07	1.015018e-10	3.966002e+00	3.921330e+00
1.980000e-06	6.178019e-07	1.286449e-10	4.289211e+00	5.630857e+00
1.990000e-06	6.643241e-07	1.533449e-10	4.612201e+00	7.346482e+00
2.000000e-06	7.107660e-07	1.756020e-10	4.934633e+00	9.066735e+00
2.010000e-06	7.571107e-07	1.966994e-10	5.256390e+00	1.079012e+01
2.020000e-06	8.034794e-07	2.157127e-10	5.578313e+00	1.251513e+01
2.030000e-06	8.498511e-07	2.373463e-10	5.900258e+00	1.424025e+01
2.040000e-06	8.961026e-07	2.643179e-10	6.221368e+00	1.596393e+01
2.050000e-06	9.423600e-07	2.937328e-10	6.542519e+00	1.768467e+01
2.060000e-06	9.885563e-07	3.219177e-10	6.863246e+00	1.940094e+01
2.070000e-06	1.034616e-06	3.480549e-10	7.183026e+00	2.111125e+01
2.080000e-06	1.080592e-06	3.697251e-10	7.502219e+00	2.281410e+01
2.090000e-06	1.126436e-06	3.886870e-10	7.820501e+00	2.450806e+01
2.100000e-06	1.172198e-06	4.094751e-10	8.138212e+00	2.619169e+01
2.110000e-06	1.217883e-06	4.322425e-10	8.455389e+00	2.786361e+01
2.120000e-06	1.263483e-06	4.564501e-10	8.771981e+00	2.952249e+01
2.130000e-06	1.309051e-06	4.819277e-10	9.088340e+00	3.116703e+01
2.140000e-06	1.354455e-06	5.080309e-10	9.403567e+00	3.279599e+01
2.150000e-06	1.399800e-06	5.312863e-10	9.718385e+00	3.440819e+01
2.160000e-06	1.445080e-06	5.496222e-10	1.003275e+01	3.600251e+01
2.170000e-06	1.490186e-06	5.670476e-10	1.034591e+01	3.757790e+01
2.180000e-06	1.535187e-06	5.837467e-10	1.065834e+01	3.913336e+01
2.190000e-06	1.580122e-06	6.031778e-10	1.097031e+01	4.066799e+01
2.200000e-06	1.624979e-06	6.266314e-10	1.128173e+01	4.218093e+01
2.210000e-06	1.669720e-06	6.502822e-10	1.159236e+01	4.367142e+01
2.220000e-06	1.714392e-06	6.694592e-10	1.190250e+01	4.513875e+01
2.230000e-06	1.758876e-06	6.868190e-10	1.221134e+01	4.658232e+01
2.240000e-06	1.803067e-06	7.042366e-10	1.251814e+01	4.800158e+01
2.250000e-06	1.847076e-06	7.207893e-10	1.282369e+01	4.939606e+01
2.260000e-06	1.891065e-06	7.380463e-10	1.312909e+01	5.076539e+01
2.270000e-06	1.935035e-06	7.555234e-10	1.343436e+01	5.210923e+01
2.280000e-06	1.978921e-06	7.727655e-10	1.373905e+01	5.342736e+01
2.290000e-06	2.022738e-06	7.896716e-10	1.404326e+01	5.471962e+01
2.300000e-06	2.066509e-06	8.075969e-10	1.434714e+01	5.598589e+01
2.310000e-06	2.110198e-06	8.235588e-10	1.465046e+01	5.722617e+01
2.320000e-06	2.153801e-06	8.380970e-10	1.495319e+01	5.844047e+01
2.330000e-06	2.197308e-06	8.545786e-10	1.525524e+01	5.962892e+01
2.340000e-06	2.240711e-06	8.706525e-10	1.555657e+01	6.079167e+01
2.350000e-06	2.283972e-06	8.839795e-10	1.585693e+01	6.192893e+01
2.360000e-06	2.327120e-06	8.964259e-10	1.615648e+01	6.304098e+01
2.370000e-06	2.369994e-06	9.101775e-10	1.645415e+01	6.412814e+01
2.380000e-06	2.412640e-06	9.245332e-10	1.675023e+01	6.519077e+01
2.390000e-06	2.455057e-06	9.403428e-10	1.704471e+01	6.622928e+01
2.400000e-06	2.497092e-06	9.573541e-10	1.733655e+01	6.724412e+01
2.410000e-06	2.538890e-06	9.703350e-10	1.762674e+01	6.823576e+01
2.420000e-06	2.580288e-06	9.807321e-10	1.791415e+01	6.920471e+01
2.430000e-06	2.621376e-06	9.910846e-10	1.819942e+01	7.015150e+01
2.440000e-06	2.662318e-06	1.001367e-09	1.848366e+01	7.107669e+01
2.450000e-06	2.702924e-06	1.012481e-09	1.876558e+01	7.198085e+01
2.460000e-06	2.743179e-06	1.026084e-09	1.904506e+01	7.286456e+01
2.470000e-06	2.783218e-06	1.041444e-09	1.932304e+01	7.372843e+01
2.480000e-06	2.823095e-06	1.055913e-09	1.959989e+01	7.457306e+01
2.490000e-06	2.862845e-06	1.067498e-09	1.987586e+01	7.539906e+01
2.500000e-06	2.902570e-06	1.078948e-09	2.015166e+01	7.620702e+01
2.510000e-06	2.942203e-06	1.089681e-09	2.042682e+01	7.699756e+01
2.520000e-06	2.981521e-06	1.098090e-09	2.069980e+01	7.777127e+01
2.530000e-06	3.020620e-06	1.107647e-09	2.097125e+01	7.852874e+01
2.540000e-06	3.059635e-06	1.119567e-09	2.124212e+01	7.927056e+01
2.550000e-06	3.098478e-06	1.133493e-09	2.151179e+01	7.999728e+01
2.560000e-06	3.137120e-06	1.147296e-09	2.178007e+01	8.070946e+01
2.570000e-06	3.175524e-06	1.157748e-09	2.204670e+01	8.140763e+01
2.580000e-06	3.213724e-06	1.166531e-09	2.231191e+01	8.209231e+01
2.590000e-06	3.251672e-06	1.176783e-09	2.257537e+01	8.276398e+01
2.600000e-06	3.289366e-06	1.187163e-09	2.283707e+01	8.342312e+01
2.610000e-06	3.326878e-06	1.195830e-09	2.309750e+01	8.407018e+01
2.620000e-06	3.364189e-06	1.204392e-09	2.335654e+01	8.470558e+01
2.630000e-06	3.401301e-06	1.213831e-09	2.361420e+01	8.532973e+01
2.640000e-06	3.438152e-06	1.221372e-09	2.387005e+01	8.594301e+01
2.650000e-06	3.474707e-06	1.229154e-09	2.412383e+01	8.654577e+01
2.660000e-06	3.510971e-06	1.239286e-09	2.437560e+01	8.713833e+01
2.670000e-06	3.547022e-06	1.248951e-09	2.462590e+01	8.772101e+01
2.680000e-06	3.582866e-06	1.257875e-09	2.487475e+01	8.829408e+01
2.690000e-06	3.618516e-06	1.266464e-09	2.512225e+01	8.885779e+01
2.700000e-06	3.654076e-06	1.271970e-09	2.536914e+01	8.941238e+01
2.710000e-06	3.689544e-06	1.277978e-09	2.561538e+01	8.995805e+01
2.720000e-06	3.724799e-06	1.286029e-09	2.586015e+01	9.049500e+01
2.730000e-06	3.759787e-06	1.292887e-09	2.610305e+01	9.102338e+01
2.740000e-06	3.794474e-06	1.298285e-09	2.634388e+01	9.154333e+01
2.750000e-06	3.828737e-06	1.304214e-09	2.658176e+01	9.205499e+01
2.760000e-06	3.862604e-06	1.310636e-09	2.681689e+01	9.255844e+01
2.770000e-06	3.896022e-06	1.316779e-09	2.704890e+01	9.305379e+01
2.780000e-06	3.928897e-06	1.324781e-09	2.727714e+01	9.354109e+01
2.790000e-06	3.961282e-06	1.336270e-09	2.750198e+01	9.402041e+01
2.800000e-06	3.993410e-06	1.345876e-09	2.772503e+01	9.449177e+01
2.810000e-06	4.025467e-06	1.352259e-09	2.794759e+01	9.495521e+01
2.820000e-06	4.057338e-06	1.358388e-09	2.816887e+01	9.541074e+01
2.830000e-06	4.088953e-06	1.361983e-09	2.838836e+01	9.585835e+01
2.840000e-06	4.120378e-06	1.366407e-09	2.860653e+01	9.629805e+01
2.850000e-06	4.151562e-06	1.370879e-09	2.882303e+01	9.672982e+01
2.860000e-06	4.182460e-06	1.375755e-09	2.903754e+01	9.715364e+01
2.870000e-06	4.213030e-06	1.381473e-09	2.924978e+01	9.756947e+01
2.880000e-06	4.243275e-06	1.386987e-09	2.945977e+01	9.797728e+01
2.890000e-06	4.273202e-06	1.392352e-09	2.966754e+01	9.837705e+01
2.900000e-06	4.302789e-06	1.394952e-09	2.987295e+01	9.876873e+01
