# Temperatura_=_-0.39
# Concentracion g/m^3_=_1620.0
# C_Vs_to_Am_M_A/Vsm_=_65563218390.804596
# pendiente_HvsI_1/m_=_3716.3
# ordenada_HvsI_A/m_=_1297.0
# frecuencia_Hz_=_135091.87509227393

Tiempo_(s)	Campo_(V.s)	Magnetizacion_(V.s)	Campo_(kA/m)	Magnetizacion_(A/m)
0.000000e+00	-5.515877e-06	-1.726387e-09	-3.838251e+01	-1.107818e+02
1.000000e-08	-5.516033e-06	-1.724077e-09	-3.838360e+01	-1.107180e+02
2.000000e-08	-5.515790e-06	-1.723640e-09	-3.838191e+01	-1.106510e+02
3.000000e-08	-5.515031e-06	-1.724127e-09	-3.837663e+01	-1.105811e+02
4.000000e-08	-5.513861e-06	-1.723175e-09	-3.836848e+01	-1.105082e+02
5.000000e-08	-5.512141e-06	-1.717606e-09	-3.835651e+01	-1.104326e+02
6.000000e-08	-5.509717e-06	-1.709369e-09	-3.833964e+01	-1.103543e+02
7.000000e-08	-5.506794e-06	-1.727924e-09	-3.831931e+01	-1.102735e+02
8.000000e-08	-5.503453e-06	-1.766644e-09	-3.829606e+01	-1.101903e+02
9.000000e-08	-5.499685e-06	-1.742246e-09	-3.826984e+01	-1.101048e+02
1.000000e-07	-5.495559e-06	-1.673650e-09	-3.824113e+01	-1.100170e+02
1.100000e-07	-5.491248e-06	-1.707796e-09	-3.821113e+01	-1.099271e+02
1.200000e-07	-5.486665e-06	-1.742935e-09	-3.817924e+01	-1.098351e+02
1.300000e-07	-5.481587e-06	-1.765681e-09	-3.814390e+01	-1.097412e+02
1.400000e-07	-5.476175e-06	-1.667026e-09	-3.810624e+01	-1.096453e+02
1.500000e-07	-5.470407e-06	-1.684981e-09	-3.806611e+01	-1.095475e+02
1.600000e-07	-5.464245e-06	-1.760189e-09	-3.802323e+01	-1.094480e+02
1.700000e-07	-5.457690e-06	-1.765271e-09	-3.797761e+01	-1.093466e+02
1.800000e-07	-5.450690e-06	-1.697018e-09	-3.792890e+01	-1.092434e+02
1.900000e-07	-5.443422e-06	-1.624093e-09	-3.787833e+01	-1.091384e+02
2.000000e-07	-5.435923e-06	-1.680986e-09	-3.782615e+01	-1.090317e+02
2.100000e-07	-5.428104e-06	-1.690234e-09	-3.777174e+01	-1.089231e+02
2.200000e-07	-5.419947e-06	-1.687305e-09	-3.771497e+01	-1.088127e+02
2.300000e-07	-5.411526e-06	-1.637021e-09	-3.765638e+01	-1.087003e+02
2.400000e-07	-5.402643e-06	-1.666936e-09	-3.759457e+01	-1.085860e+02
2.500000e-07	-5.393028e-06	-1.641405e-09	-3.752766e+01	-1.084696e+02
2.600000e-07	-5.382719e-06	-1.643082e-09	-3.745593e+01	-1.083510e+02
2.700000e-07	-5.371818e-06	-1.606844e-09	-3.738007e+01	-1.082302e+02
2.800000e-07	-5.360533e-06	-1.621620e-09	-3.730154e+01	-1.081069e+02
2.900000e-07	-5.348904e-06	-1.616476e-09	-3.722062e+01	-1.079811e+02
3.000000e-07	-5.336899e-06	-1.631328e-09	-3.713708e+01	-1.078526e+02
3.100000e-07	-5.324456e-06	-1.614594e-09	-3.705050e+01	-1.077212e+02
3.200000e-07	-5.311562e-06	-1.614373e-09	-3.696078e+01	-1.075867e+02
3.300000e-07	-5.298290e-06	-1.615327e-09	-3.686842e+01	-1.074490e+02
3.400000e-07	-5.284565e-06	-1.594261e-09	-3.677291e+01	-1.073079e+02
3.500000e-07	-5.270365e-06	-1.575645e-09	-3.667410e+01	-1.071631e+02
3.600000e-07	-5.255768e-06	-1.580710e-09	-3.657253e+01	-1.070144e+02
3.700000e-07	-5.240874e-06	-1.582096e-09	-3.646889e+01	-1.068616e+02
3.800000e-07	-5.225363e-06	-1.564720e-09	-3.636095e+01	-1.067045e+02
3.900000e-07	-5.209235e-06	-1.593180e-09	-3.624873e+01	-1.065429e+02
4.000000e-07	-5.192844e-06	-1.589041e-09	-3.613467e+01	-1.063765e+02
4.100000e-07	-5.176126e-06	-1.556382e-09	-3.601833e+01	-1.062051e+02
4.200000e-07	-5.159036e-06	-1.553116e-09	-3.589942e+01	-1.060285e+02
4.300000e-07	-5.141684e-06	-1.604422e-09	-3.577867e+01	-1.058464e+02
4.400000e-07	-5.123970e-06	-1.559247e-09	-3.565541e+01	-1.056586e+02
4.500000e-07	-5.105725e-06	-1.536088e-09	-3.552845e+01	-1.054650e+02
4.600000e-07	-5.087028e-06	-1.564368e-09	-3.539834e+01	-1.052653e+02
4.700000e-07	-5.067978e-06	-1.573507e-09	-3.526578e+01	-1.050594e+02
4.800000e-07	-5.048654e-06	-1.513147e-09	-3.513131e+01	-1.048470e+02
4.900000e-07	-5.029168e-06	-1.547855e-09	-3.499572e+01	-1.046280e+02
5.000000e-07	-5.009455e-06	-1.559812e-09	-3.485855e+01	-1.044023e+02
5.100000e-07	-4.989454e-06	-1.519444e-09	-3.471937e+01	-1.041697e+02
5.200000e-07	-4.969087e-06	-1.513603e-09	-3.457764e+01	-1.039302e+02
5.300000e-07	-4.948314e-06	-1.564638e-09	-3.443310e+01	-1.036836e+02
5.400000e-07	-4.927263e-06	-1.517773e-09	-3.428661e+01	-1.034298e+02
5.500000e-07	-4.905890e-06	-1.492414e-09	-3.413788e+01	-1.031688e+02
5.600000e-07	-4.884160e-06	-1.525660e-09	-3.398668e+01	-1.029006e+02
5.700000e-07	-4.862050e-06	-1.521884e-09	-3.383282e+01	-1.026252e+02
5.800000e-07	-4.839629e-06	-1.475132e-09	-3.367681e+01	-1.023425e+02
5.900000e-07	-4.816932e-06	-1.499209e-09	-3.351886e+01	-1.020526e+02
6.000000e-07	-4.793835e-06	-1.510897e-09	-3.335815e+01	-1.017555e+02
6.100000e-07	-4.770480e-06	-1.479999e-09	-3.319563e+01	-1.014513e+02
6.200000e-07	-4.746962e-06	-1.481625e-09	-3.303198e+01	-1.011401e+02
6.300000e-07	-4.723208e-06	-1.497589e-09	-3.286668e+01	-1.008220e+02
6.400000e-07	-4.699066e-06	-1.473689e-09	-3.269869e+01	-1.004971e+02
6.500000e-07	-4.674460e-06	-1.459145e-09	-3.252746e+01	-1.001655e+02
6.600000e-07	-4.649512e-06	-1.471973e-09	-3.235386e+01	-9.982740e+01
6.700000e-07	-4.624047e-06	-1.455269e-09	-3.217667e+01	-9.948295e+01
6.800000e-07	-4.597879e-06	-1.442208e-09	-3.199458e+01	-9.913231e+01
6.900000e-07	-4.571212e-06	-1.445573e-09	-3.180901e+01	-9.877566e+01
7.000000e-07	-4.544218e-06	-1.445861e-09	-3.162117e+01	-9.841319e+01
7.100000e-07	-4.516999e-06	-1.425691e-09	-3.143177e+01	-9.804509e+01
7.200000e-07	-4.489569e-06	-1.428058e-09	-3.124090e+01	-9.767155e+01
7.300000e-07	-4.461909e-06	-1.424658e-09	-3.104842e+01	-9.729276e+01
7.400000e-07	-4.434084e-06	-1.421092e-09	-3.085480e+01	-9.690891e+01
7.500000e-07	-4.405989e-06	-1.410290e-09	-3.065930e+01	-9.652019e+01
7.600000e-07	-4.377590e-06	-1.409936e-09	-3.046168e+01	-9.612678e+01
7.700000e-07	-4.348901e-06	-1.393885e-09	-3.026205e+01	-9.572885e+01
7.800000e-07	-4.319842e-06	-1.388222e-09	-3.005984e+01	-9.532658e+01
7.900000e-07	-4.290437e-06	-1.379732e-09	-2.985522e+01	-9.492010e+01
8.000000e-07	-4.260619e-06	-1.374576e-09	-2.964773e+01	-9.450956e+01
8.100000e-07	-4.230632e-06	-1.360932e-09	-2.943907e+01	-9.409508e+01
8.200000e-07	-4.200418e-06	-1.361585e-09	-2.922882e+01	-9.367677e+01
8.300000e-07	-4.169767e-06	-1.353695e-09	-2.901553e+01	-9.325473e+01
8.400000e-07	-4.138885e-06	-1.345961e-09	-2.880064e+01	-9.282901e+01
8.500000e-07	-4.107775e-06	-1.339190e-09	-2.858416e+01	-9.239968e+01
8.600000e-07	-4.076470e-06	-1.338102e-09	-2.836632e+01	-9.196676e+01
8.700000e-07	-4.045030e-06	-1.326354e-09	-2.814755e+01	-9.153027e+01
8.800000e-07	-4.013384e-06	-1.318961e-09	-2.792734e+01	-9.109021e+01
8.900000e-07	-3.981534e-06	-1.311521e-09	-2.770571e+01	-9.064653e+01
9.000000e-07	-3.949414e-06	-1.297009e-09	-2.748220e+01	-9.019919e+01
9.100000e-07	-3.916957e-06	-1.285414e-09	-2.725634e+01	-8.974813e+01
9.200000e-07	-3.884112e-06	-1.284998e-09	-2.702779e+01	-8.929326e+01
9.300000e-07	-3.850725e-06	-1.282390e-09	-2.679547e+01	-8.883446e+01
9.400000e-07	-3.816874e-06	-1.272685e-09	-2.655991e+01	-8.837163e+01
9.500000e-07	-3.782680e-06	-1.269558e-09	-2.632197e+01	-8.790462e+01
9.600000e-07	-3.748086e-06	-1.262205e-09	-2.608124e+01	-8.743328e+01
9.700000e-07	-3.713175e-06	-1.248335e-09	-2.583832e+01	-8.695745e+01
9.800000e-07	-3.678025e-06	-1.232371e-09	-2.559372e+01	-8.647696e+01
9.900000e-07	-3.642657e-06	-1.227216e-09	-2.534761e+01	-8.599162e+01
1.000000e-06	-3.607143e-06	-1.218902e-09	-2.510049e+01	-8.550126e+01
1.010000e-06	-3.571444e-06	-1.215987e-09	-2.485207e+01	-8.500568e+01
1.020000e-06	-3.535528e-06	-1.215545e-09	-2.460215e+01	-8.450468e+01
1.030000e-06	-3.499439e-06	-1.214268e-09	-2.435103e+01	-8.399808e+01
1.040000e-06	-3.463150e-06	-1.203401e-09	-2.409850e+01	-8.348568e+01
1.050000e-06	-3.426570e-06	-1.196728e-09	-2.384396e+01	-8.296731e+01
1.060000e-06	-3.389687e-06	-1.182441e-09	-2.358731e+01	-8.244278e+01
1.070000e-06	-3.352491e-06	-1.166661e-09	-2.332848e+01	-8.191193e+01
1.080000e-06	-3.315103e-06	-1.152573e-09	-2.306831e+01	-8.137460e+01
1.090000e-06	-3.277554e-06	-1.147875e-09	-2.280703e+01	-8.083065e+01
1.100000e-06	-3.239714e-06	-1.136611e-09	-2.254371e+01	-8.027994e+01
1.110000e-06	-3.201625e-06	-1.127338e-09	-2.227867e+01	-7.972236e+01
1.120000e-06	-3.163398e-06	-1.121386e-09	-2.201266e+01	-7.915782e+01
1.130000e-06	-3.125012e-06	-1.115604e-09	-2.174555e+01	-7.858622e+01
1.140000e-06	-3.086362e-06	-1.101762e-09	-2.147661e+01	-7.800752e+01
1.150000e-06	-3.047503e-06	-1.091277e-09	-2.120621e+01	-7.742166e+01
1.160000e-06	-3.008434e-06	-1.079830e-09	-2.093434e+01	-7.682862e+01
1.170000e-06	-2.969182e-06	-1.066314e-09	-2.066120e+01	-7.622839e+01
1.180000e-06	-2.929801e-06	-1.055653e-09	-2.038717e+01	-7.562099e+01
1.190000e-06	-2.890257e-06	-1.048926e-09	-2.011200e+01	-7.500643e+01
1.200000e-06	-2.850599e-06	-1.041115e-09	-1.983604e+01	-7.438478e+01
1.210000e-06	-2.810847e-06	-1.033795e-09	-1.955942e+01	-7.375609e+01
1.220000e-06	-2.770921e-06	-1.028946e-09	-1.928160e+01	-7.312042e+01
1.230000e-06	-2.730809e-06	-1.018309e-09	-1.900247e+01	-7.247787e+01
1.240000e-06	-2.690438e-06	-1.005169e-09	-1.872155e+01	-7.182853e+01
1.250000e-06	-2.649687e-06	-9.937836e-10	-1.843798e+01	-7.117250e+01
1.260000e-06	-2.608721e-06	-9.856288e-10	-1.815292e+01	-7.050989e+01
1.270000e-06	-2.567576e-06	-9.733474e-10	-1.786661e+01	-6.984080e+01
1.280000e-06	-2.526212e-06	-9.617233e-10	-1.757877e+01	-6.916533e+01
1.290000e-06	-2.484533e-06	-9.523349e-10	-1.728875e+01	-6.848359e+01
1.300000e-06	-2.442508e-06	-9.425907e-10	-1.699632e+01	-6.779567e+01
1.310000e-06	-2.400271e-06	-9.292538e-10	-1.670241e+01	-6.710165e+01
1.320000e-06	-2.357712e-06	-9.204131e-10	-1.640626e+01	-6.640161e+01
1.330000e-06	-2.314870e-06	-9.120839e-10	-1.610814e+01	-6.569559e+01
1.340000e-06	-2.271895e-06	-9.036184e-10	-1.580910e+01	-6.498362e+01
1.350000e-06	-2.228809e-06	-8.911297e-10	-1.550928e+01	-6.426571e+01
1.360000e-06	-2.185510e-06	-8.784485e-10	-1.520798e+01	-6.354184e+01
1.370000e-06	-2.142017e-06	-8.638911e-10	-1.490533e+01	-6.281197e+01
1.380000e-06	-2.098459e-06	-8.504374e-10	-1.460224e+01	-6.207600e+01
1.390000e-06	-2.054833e-06	-8.353674e-10	-1.429866e+01	-6.133384e+01
1.400000e-06	-2.011141e-06	-8.240538e-10	-1.399463e+01	-6.058532e+01
1.410000e-06	-1.967326e-06	-8.138276e-10	-1.368974e+01	-5.983025e+01
1.420000e-06	-1.923413e-06	-8.037339e-10	-1.338417e+01	-5.906841e+01
1.430000e-06	-1.879386e-06	-7.918586e-10	-1.307780e+01	-5.829952e+01
1.440000e-06	-1.835270e-06	-7.786045e-10	-1.277082e+01	-5.752327e+01
1.450000e-06	-1.791091e-06	-7.639631e-10	-1.246340e+01	-5.673931e+01
1.460000e-06	-1.746791e-06	-7.508765e-10	-1.215513e+01	-5.594723e+01
1.470000e-06	-1.702365e-06	-7.376100e-10	-1.184599e+01	-5.514661e+01
1.480000e-06	-1.657730e-06	-7.237747e-10	-1.153540e+01	-5.433696e+01
1.490000e-06	-1.612928e-06	-7.108781e-10	-1.122364e+01	-5.351775e+01
1.500000e-06	-1.568060e-06	-7.006271e-10	-1.091142e+01	-5.268843e+01
1.510000e-06	-1.523119e-06	-6.902316e-10	-1.059870e+01	-5.184842e+01
1.520000e-06	-1.478020e-06	-6.791129e-10	-1.028488e+01	-5.099707e+01
1.530000e-06	-1.432814e-06	-6.697195e-10	-9.970310e+00	-5.013375e+01
1.540000e-06	-1.387550e-06	-6.585051e-10	-9.655337e+00	-4.925775e+01
1.550000e-06	-1.342148e-06	-6.461285e-10	-9.339407e+00	-4.836838e+01
1.560000e-06	-1.296651e-06	-6.303812e-10	-9.022811e+00	-4.746492e+01
1.570000e-06	-1.251061e-06	-6.135453e-10	-8.705573e+00	-4.654662e+01
1.580000e-06	-1.205369e-06	-5.959404e-10	-8.387625e+00	-4.561275e+01
1.590000e-06	-1.159593e-06	-5.793769e-10	-8.069089e+00	-4.466254e+01
1.600000e-06	-1.113792e-06	-5.644028e-10	-7.750379e+00	-4.369526e+01
1.610000e-06	-1.067947e-06	-5.497864e-10	-7.431365e+00	-4.271015e+01
1.620000e-06	-1.021956e-06	-5.347919e-10	-7.111331e+00	-4.170649e+01
1.630000e-06	-9.759326e-07	-5.200872e-10	-6.791077e+00	-4.068358e+01
1.640000e-06	-9.298534e-07	-5.040831e-10	-6.470432e+00	-3.964071e+01
1.650000e-06	-8.836254e-07	-4.881246e-10	-6.148752e+00	-3.857724e+01
1.660000e-06	-8.373211e-07	-4.695817e-10	-5.826542e+00	-3.749255e+01
1.670000e-06	-7.910030e-07	-4.505075e-10	-5.504234e+00	-3.638606e+01
1.680000e-06	-7.446966e-07	-4.328664e-10	-5.182009e+00	-3.525724e+01
1.690000e-06	-6.982751e-07	-4.171402e-10	-4.858983e+00	-3.410560e+01
1.700000e-06	-6.517843e-07	-3.991997e-10	-4.535474e+00	-3.293074e+01
1.710000e-06	-6.053297e-07	-3.799727e-10	-4.212218e+00	-3.173229e+01
1.720000e-06	-5.587909e-07	-3.605472e-10	-3.888375e+00	-3.050996e+01
1.730000e-06	-5.122335e-07	-3.415281e-10	-3.564403e+00	-2.926353e+01
1.740000e-06	-4.656914e-07	-3.225174e-10	-3.240537e+00	-2.799287e+01
1.750000e-06	-4.190696e-07	-3.046976e-10	-2.916117e+00	-2.669790e+01
1.760000e-06	-3.723866e-07	-2.864657e-10	-2.591271e+00	-2.537865e+01
1.770000e-06	-3.256855e-07	-2.664734e-10	-2.266299e+00	-2.403521e+01
1.780000e-06	-2.790473e-07	-2.454137e-10	-1.941765e+00	-2.266778e+01
1.790000e-06	-2.323349e-07	-2.252068e-10	-1.616714e+00	-2.127663e+01
1.800000e-06	-1.855839e-07	-2.057391e-10	-1.291395e+00	-1.986213e+01
1.810000e-06	-1.388669e-07	-1.853492e-10	-9.663127e-01	-1.842472e+01
1.820000e-06	-9.211273e-08	-1.646565e-10	-6.409711e-01	-1.696495e+01
1.830000e-06	-4.544780e-08	-1.452534e-10	-3.162508e-01	-1.548344e+01
1.840000e-06	1.250515e-09	-1.270010e-10	8.701772e-03	-1.398091e+01
1.850000e-06	4.794126e-08	-1.078337e-10	3.336017e-01	-1.245816e+01
1.860000e-06	9.457183e-08	-8.715629e-11	6.580829e-01	-1.091607e+01
1.870000e-06	1.413001e-07	-6.415791e-11	9.832439e-01	-9.355580e+00
1.880000e-06	1.880723e-07	-4.138818e-11	1.308711e+00	-7.777739e+00
1.890000e-06	2.348378e-07	-1.984711e-11	1.634131e+00	-6.183644e+00
1.900000e-06	2.815538e-07	1.054034e-12	1.959207e+00	-4.574462e+00
1.910000e-06	3.282489e-07	2.169691e-11	2.284136e+00	-2.951423e+00
1.920000e-06	3.749619e-07	4.226815e-11	2.609192e+00	-1.315812e+00
1.930000e-06	4.216143e-07	6.395733e-11	2.933825e+00	3.310365e-01
1.940000e-06	4.681817e-07	8.653837e-11	3.257866e+00	1.987743e+00
1.950000e-06	5.146364e-07	1.092088e-10	3.581123e+00	3.652890e+00
1.960000e-06	5.609949e-07	1.311121e-10	3.903711e+00	5.325031e+00
1.970000e-06	6.074534e-07	1.537689e-10	4.226996e+00	7.002691e+00
1.980000e-06	6.538677e-07	1.752418e-10	4.549972e+00	8.684379e+00
1.990000e-06	7.000961e-07	1.957689e-10	4.871654e+00	1.036859e+01
2.000000e-06	7.462988e-07	2.180468e-10	5.193158e+00	1.205382e+01
2.010000e-06	7.924629e-07	2.405598e-10	5.514393e+00	1.373857e+01
2.020000e-06	8.385622e-07	2.633091e-10	5.835178e+00	1.542133e+01
2.030000e-06	8.846201e-07	2.891713e-10	6.155674e+00	1.710062e+01
2.040000e-06	9.306638e-07	3.138599e-10	6.476072e+00	1.877499e+01
2.050000e-06	9.766816e-07	3.352179e-10	6.796288e+00	2.044301e+01
2.060000e-06	1.022617e-06	3.572011e-10	7.115930e+00	2.210327e+01
2.070000e-06	1.068496e-06	3.803165e-10	7.435187e+00	2.375441e+01
2.080000e-06	1.114261e-06	4.018533e-10	7.753639e+00	2.539513e+01
2.090000e-06	1.159952e-06	4.247858e-10	8.071582e+00	2.702415e+01
2.100000e-06	1.205642e-06	4.490508e-10	8.389523e+00	2.864026e+01
2.110000e-06	1.251209e-06	4.720682e-10	8.706601e+00	3.024231e+01
2.120000e-06	1.296631e-06	4.932254e-10	9.022672e+00	3.182921e+01
2.130000e-06	1.341962e-06	5.130892e-10	9.338110e+00	3.339993e+01
2.140000e-06	1.387228e-06	5.325195e-10	9.653098e+00	3.495351e+01
2.150000e-06	1.432416e-06	5.511939e-10	9.967537e+00	3.648905e+01
2.160000e-06	1.477511e-06	5.710015e-10	1.028134e+01	3.800574e+01
2.170000e-06	1.522473e-06	5.914939e-10	1.059421e+01	3.950282e+01
2.180000e-06	1.567301e-06	6.130233e-10	1.090614e+01	4.097963e+01
2.190000e-06	1.612068e-06	6.362154e-10	1.121766e+01	4.243556e+01
2.200000e-06	1.656682e-06	6.581448e-10	1.152810e+01	4.387008e+01
2.210000e-06	1.701136e-06	6.755763e-10	1.183744e+01	4.528274e+01
2.220000e-06	1.745442e-06	6.893250e-10	1.214574e+01	4.667315e+01
2.230000e-06	1.789554e-06	7.033832e-10	1.245270e+01	4.804100e+01
2.240000e-06	1.833496e-06	7.198545e-10	1.275847e+01	4.938604e+01
2.250000e-06	1.877362e-06	7.375074e-10	1.306372e+01	5.070809e+01
2.260000e-06	1.921204e-06	7.559353e-10	1.336880e+01	5.200704e+01
2.270000e-06	1.964987e-06	7.748564e-10	1.367346e+01	5.328283e+01
2.280000e-06	2.008662e-06	7.943350e-10	1.397737e+01	5.453546e+01
2.290000e-06	2.052220e-06	8.136057e-10	1.428047e+01	5.576499e+01
2.300000e-06	2.095746e-06	8.308780e-10	1.458336e+01	5.697153e+01
2.310000e-06	2.139186e-06	8.450451e-10	1.488563e+01	5.815523e+01
2.320000e-06	2.182537e-06	8.590284e-10	1.518729e+01	5.931628e+01
2.330000e-06	2.225861e-06	8.754784e-10	1.548876e+01	6.045493e+01
2.340000e-06	2.269145e-06	8.911375e-10	1.578996e+01	6.157146e+01
2.350000e-06	2.312280e-06	9.064194e-10	1.609012e+01	6.266615e+01
2.360000e-06	2.355192e-06	9.230023e-10	1.638872e+01	6.373936e+01
2.370000e-06	2.397930e-06	9.391627e-10	1.668612e+01	6.479144e+01
2.380000e-06	2.440317e-06	9.563691e-10	1.698107e+01	6.582276e+01
2.390000e-06	2.482315e-06	9.698725e-10	1.727332e+01	6.683372e+01
2.400000e-06	2.524045e-06	9.820602e-10	1.756369e+01	6.782473e+01
2.410000e-06	2.565454e-06	9.935777e-10	1.785184e+01	6.879620e+01
2.420000e-06	2.606534e-06	1.007188e-09	1.813770e+01	6.974857e+01
2.430000e-06	2.647245e-06	1.021394e-09	1.842099e+01	7.068225e+01
2.440000e-06	2.687689e-06	1.036996e-09	1.870242e+01	7.159768e+01
2.450000e-06	2.727938e-06	1.052078e-09	1.898250e+01	7.249529e+01
2.460000e-06	2.767954e-06	1.062835e-09	1.926095e+01	7.337549e+01
2.470000e-06	2.807820e-06	1.070930e-09	1.953836e+01	7.423871e+01
2.480000e-06	2.847545e-06	1.076526e-09	1.981479e+01	7.508536e+01
2.490000e-06	2.887081e-06	1.084694e-09	2.008990e+01	7.591584e+01
2.500000e-06	2.926551e-06	1.098439e-09	2.036455e+01	7.673052e+01
2.510000e-06	2.966008e-06	1.115809e-09	2.063912e+01	7.752980e+01
2.520000e-06	3.005299e-06	1.132642e-09	2.091253e+01	7.831404e+01
2.530000e-06	3.044376e-06	1.145235e-09	2.118444e+01	7.908359e+01
2.540000e-06	3.083180e-06	1.152853e-09	2.145446e+01	7.983877e+01
2.550000e-06	3.121743e-06	1.157147e-09	2.172280e+01	8.057993e+01
2.560000e-06	3.160086e-06	1.160105e-09	2.198962e+01	8.130736e+01
2.570000e-06	3.198143e-06	1.169250e-09	2.225444e+01	8.202137e+01
2.580000e-06	3.236030e-06	1.182433e-09	2.251808e+01	8.272223e+01
2.590000e-06	3.273779e-06	1.197910e-09	2.278075e+01	8.341020e+01
2.600000e-06	3.311284e-06	1.213261e-09	2.304174e+01	8.408556e+01
2.610000e-06	3.348553e-06	1.224073e-09	2.330107e+01	8.474853e+01
2.620000e-06	3.385602e-06	1.230606e-09	2.355888e+01	8.539936e+01
2.630000e-06	3.422357e-06	1.234514e-09	2.381465e+01	8.603827e+01
2.640000e-06	3.458937e-06	1.237704e-09	2.406919e+01	8.666546e+01
2.650000e-06	3.495308e-06	1.243916e-09	2.432228e+01	8.728115e+01
2.660000e-06	3.531357e-06	1.252259e-09	2.457313e+01	8.788552e+01
2.670000e-06	3.567198e-06	1.260949e-09	2.482253e+01	8.847878e+01
2.680000e-06	3.602909e-06	1.271091e-09	2.507103e+01	8.906110e+01
2.690000e-06	3.638463e-06	1.279676e-09	2.531843e+01	8.963267e+01
2.700000e-06	3.673898e-06	1.283269e-09	2.556501e+01	9.019367e+01
2.710000e-06	3.709200e-06	1.288103e-09	2.581066e+01	9.074425e+01
2.720000e-06	3.744279e-06	1.294402e-09	2.605475e+01	9.128461e+01
2.730000e-06	3.778939e-06	1.300150e-09	2.629594e+01	9.181490e+01
2.740000e-06	3.813113e-06	1.306386e-09	2.653374e+01	9.233530e+01
2.750000e-06	3.846879e-06	1.313075e-09	2.676870e+01	9.284597e+01
2.760000e-06	3.880152e-06	1.319464e-09	2.700024e+01	9.334708e+01
2.770000e-06	3.912925e-06	1.325479e-09	2.722829e+01	9.383879e+01
2.780000e-06	3.945279e-06	1.330052e-09	2.745343e+01	9.432128e+01
2.790000e-06	3.977381e-06	1.335809e-09	2.767681e+01	9.479471e+01
2.800000e-06	4.009273e-06	1.343560e-09	2.789873e+01	9.525925e+01
2.810000e-06	4.040985e-06	1.351337e-09	2.811940e+01	9.571506e+01
2.820000e-06	4.072584e-06	1.358659e-09	2.833928e+01	9.616232e+01
2.830000e-06	4.103950e-06	1.366454e-09	2.855754e+01	9.660119e+01
2.840000e-06	4.135131e-06	1.374079e-09	2.877452e+01	9.703184e+01
2.850000e-06	4.166035e-06	1.378935e-09	2.898957e+01	9.745444e+01
2.860000e-06	4.196552e-06	1.383212e-09	2.920192e+01	9.786915e+01
2.870000e-06	4.226768e-06	1.388304e-09	2.941218e+01	9.827612e+01
2.880000e-06	4.256658e-06	1.392822e-09	2.962017e+01	9.867553e+01
2.890000e-06	4.286307e-06	1.395949e-09	2.982649e+01	9.906753e+01
2.900000e-06	4.315746e-06	1.400806e-09	3.003133e+01	9.945227e+01
2.910000e-06	4.344912e-06	1.408683e-09	3.023429e+01	9.982991e+01
