# Temperatura_=_-1.1
# Concentracion g/m^3_=_1620.0
# C_Vs_to_Am_M_A/Vsm_=_65563218390.804596
# pendiente_HvsI_1/m_=_3716.3
# ordenada_HvsI_A/m_=_1297.0
# frecuencia_Hz_=_135098.05044490498

Tiempo_(s)	Campo_(V.s)	Magnetizacion_(V.s)	Campo_(kA/m)	Magnetizacion_(A/m)
0.000000e+00	-5.531996e-06	-1.239851e-09	-3.838260e+01	-8.187865e+01
1.000000e-08	-5.532310e-06	-1.241634e-09	-3.838477e+01	-8.185994e+01
2.000000e-08	-5.532446e-06	-1.241226e-09	-3.838572e+01	-8.183912e+01
3.000000e-08	-5.532296e-06	-1.241150e-09	-3.838468e+01	-8.181614e+01
4.000000e-08	-5.531605e-06	-1.240281e-09	-3.837989e+01	-8.179090e+01
5.000000e-08	-5.530193e-06	-1.236159e-09	-3.837009e+01	-8.176332e+01
6.000000e-08	-5.528181e-06	-1.231085e-09	-3.835613e+01	-8.173332e+01
7.000000e-08	-5.525673e-06	-1.228045e-09	-3.833873e+01	-8.170080e+01
8.000000e-08	-5.522696e-06	-1.255438e-09	-3.831808e+01	-8.166566e+01
9.000000e-08	-5.519308e-06	-1.288939e-09	-3.829456e+01	-8.162781e+01
1.000000e-07	-5.515394e-06	-1.259216e-09	-3.826741e+01	-8.158714e+01
1.100000e-07	-5.511020e-06	-1.191308e-09	-3.823706e+01	-8.154356e+01
1.200000e-07	-5.506509e-06	-1.209963e-09	-3.820576e+01	-8.149697e+01
1.300000e-07	-5.501878e-06	-1.257870e-09	-3.817363e+01	-8.144726e+01
1.400000e-07	-5.496883e-06	-1.294143e-09	-3.813897e+01	-8.139436e+01
1.500000e-07	-5.491422e-06	-1.203992e-09	-3.810108e+01	-8.133816e+01
1.600000e-07	-5.485640e-06	-1.218177e-09	-3.806097e+01	-8.127860e+01
1.700000e-07	-5.479529e-06	-1.256706e-09	-3.801856e+01	-8.121559e+01
1.800000e-07	-5.472882e-06	-1.279063e-09	-3.797245e+01	-8.114907e+01
1.900000e-07	-5.465788e-06	-1.213176e-09	-3.792322e+01	-8.107898e+01
2.000000e-07	-5.458409e-06	-1.193578e-09	-3.787203e+01	-8.100527e+01
2.100000e-07	-5.450749e-06	-1.253867e-09	-3.781888e+01	-8.092789e+01
2.200000e-07	-5.442751e-06	-1.291407e-09	-3.776339e+01	-8.084683e+01
2.300000e-07	-5.434511e-06	-1.268048e-09	-3.770622e+01	-8.076206e+01
2.400000e-07	-5.426053e-06	-1.218699e-09	-3.764753e+01	-8.067358e+01
2.500000e-07	-5.416968e-06	-1.245362e-09	-3.758450e+01	-8.058138e+01
2.600000e-07	-5.407079e-06	-1.245480e-09	-3.751589e+01	-8.048550e+01
2.700000e-07	-5.396592e-06	-1.245903e-09	-3.744313e+01	-8.038594e+01
2.800000e-07	-5.385609e-06	-1.210289e-09	-3.736693e+01	-8.028276e+01
2.900000e-07	-5.374213e-06	-1.242671e-09	-3.728785e+01	-8.017600e+01
3.000000e-07	-5.362498e-06	-1.234432e-09	-3.720657e+01	-8.006572e+01
3.100000e-07	-5.350384e-06	-1.225039e-09	-3.712252e+01	-7.995200e+01
3.200000e-07	-5.337746e-06	-1.183438e-09	-3.703483e+01	-7.983491e+01
3.300000e-07	-5.324744e-06	-1.225319e-09	-3.694462e+01	-7.971454e+01
3.400000e-07	-5.311398e-06	-1.224053e-09	-3.685202e+01	-7.959099e+01
3.500000e-07	-5.297608e-06	-1.204083e-09	-3.675634e+01	-7.946436e+01
3.600000e-07	-5.283313e-06	-1.189431e-09	-3.665716e+01	-7.933476e+01
3.700000e-07	-5.268636e-06	-1.236902e-09	-3.655533e+01	-7.920231e+01
3.800000e-07	-5.253419e-06	-1.210726e-09	-3.644975e+01	-7.906711e+01
3.900000e-07	-5.237484e-06	-1.183637e-09	-3.633919e+01	-7.892930e+01
4.000000e-07	-5.221109e-06	-1.209994e-09	-3.622558e+01	-7.878899e+01
4.100000e-07	-5.204427e-06	-1.224819e-09	-3.610983e+01	-7.864631e+01
4.200000e-07	-5.187427e-06	-1.173428e-09	-3.599188e+01	-7.850136e+01
4.300000e-07	-5.170055e-06	-1.176484e-09	-3.587135e+01	-7.835428e+01
4.400000e-07	-5.152329e-06	-1.228957e-09	-3.574836e+01	-7.820516e+01
4.500000e-07	-5.134274e-06	-1.193519e-09	-3.562309e+01	-7.805413e+01
4.600000e-07	-5.115887e-06	-1.155146e-09	-3.549551e+01	-7.790128e+01
4.700000e-07	-5.097186e-06	-1.188919e-09	-3.536576e+01	-7.774670e+01
4.800000e-07	-5.078128e-06	-1.211666e-09	-3.523353e+01	-7.759048e+01
4.900000e-07	-5.058735e-06	-1.167407e-09	-3.509898e+01	-7.743270e+01
5.000000e-07	-5.039144e-06	-1.185389e-09	-3.496305e+01	-7.727342e+01
5.100000e-07	-5.019368e-06	-1.198008e-09	-3.482584e+01	-7.711269e+01
5.200000e-07	-4.999324e-06	-1.173135e-09	-3.468676e+01	-7.695057e+01
5.300000e-07	-4.978880e-06	-1.162240e-09	-3.454492e+01	-7.678707e+01
5.400000e-07	-4.958043e-06	-1.198404e-09	-3.440034e+01	-7.662222e+01
5.500000e-07	-4.936802e-06	-1.168158e-09	-3.425297e+01	-7.645602e+01
5.600000e-07	-4.915199e-06	-1.152365e-09	-3.410308e+01	-7.628846e+01
5.700000e-07	-4.893325e-06	-1.172637e-09	-3.395132e+01	-7.611951e+01
5.800000e-07	-4.871158e-06	-1.181896e-09	-3.379751e+01	-7.594915e+01
5.900000e-07	-4.848624e-06	-1.152551e-09	-3.364116e+01	-7.577732e+01
6.000000e-07	-4.825782e-06	-1.168279e-09	-3.348268e+01	-7.560396e+01
6.100000e-07	-4.802615e-06	-1.171540e-09	-3.332194e+01	-7.542899e+01
6.200000e-07	-4.779086e-06	-1.159240e-09	-3.315869e+01	-7.525233e+01
6.300000e-07	-4.755372e-06	-1.156831e-09	-3.299416e+01	-7.507387e+01
6.400000e-07	-4.731512e-06	-1.170377e-09	-3.282861e+01	-7.489351e+01
6.500000e-07	-4.707219e-06	-1.154976e-09	-3.266006e+01	-7.471113e+01
6.600000e-07	-4.682448e-06	-1.152838e-09	-3.248819e+01	-7.452659e+01
6.700000e-07	-4.657290e-06	-1.157501e-09	-3.231363e+01	-7.433977e+01
6.800000e-07	-4.631555e-06	-1.150180e-09	-3.213508e+01	-7.415052e+01
6.900000e-07	-4.605153e-06	-1.143606e-09	-3.195189e+01	-7.395868e+01
7.000000e-07	-4.578249e-06	-1.151710e-09	-3.176523e+01	-7.376411e+01
7.100000e-07	-4.551039e-06	-1.147248e-09	-3.157644e+01	-7.356664e+01
7.200000e-07	-4.523610e-06	-1.134218e-09	-3.138612e+01	-7.336612e+01
7.300000e-07	-4.496028e-06	-1.135939e-09	-3.119475e+01	-7.316239e+01
7.400000e-07	-4.468280e-06	-1.129861e-09	-3.100222e+01	-7.295528e+01
7.500000e-07	-4.440324e-06	-1.115677e-09	-3.080826e+01	-7.274463e+01
7.600000e-07	-4.412127e-06	-1.114423e-09	-3.061262e+01	-7.253030e+01
7.700000e-07	-4.383579e-06	-1.121762e-09	-3.041455e+01	-7.231212e+01
7.800000e-07	-4.354630e-06	-1.111572e-09	-3.021369e+01	-7.208995e+01
7.900000e-07	-4.325354e-06	-1.108733e-09	-3.001057e+01	-7.186364e+01
8.000000e-07	-4.295863e-06	-1.108054e-09	-2.980595e+01	-7.163306e+01
8.100000e-07	-4.266113e-06	-1.095173e-09	-2.959953e+01	-7.139809e+01
8.200000e-07	-4.236018e-06	-1.074523e-09	-2.939073e+01	-7.115860e+01
8.300000e-07	-4.205687e-06	-1.079751e-09	-2.918028e+01	-7.091449e+01
8.400000e-07	-4.174972e-06	-1.074655e-09	-2.896717e+01	-7.066565e+01
8.500000e-07	-4.143848e-06	-1.067662e-09	-2.875122e+01	-7.041200e+01
8.600000e-07	-4.112528e-06	-1.066102e-09	-2.853391e+01	-7.015346e+01
8.700000e-07	-4.081072e-06	-1.069644e-09	-2.831567e+01	-6.988996e+01
8.800000e-07	-4.049492e-06	-1.056216e-09	-2.809656e+01	-6.962145e+01
8.900000e-07	-4.017710e-06	-1.051118e-09	-2.787604e+01	-6.934787e+01
9.000000e-07	-3.985664e-06	-1.046367e-09	-2.765369e+01	-6.906921e+01
9.100000e-07	-3.953331e-06	-1.037573e-09	-2.742936e+01	-6.878544e+01
9.200000e-07	-3.920608e-06	-1.028271e-09	-2.720232e+01	-6.849655e+01
9.300000e-07	-3.887527e-06	-1.032343e-09	-2.697279e+01	-6.820254e+01
9.400000e-07	-3.854014e-06	-1.028497e-09	-2.674027e+01	-6.790342e+01
9.500000e-07	-3.819976e-06	-1.017661e-09	-2.650411e+01	-6.759921e+01
9.600000e-07	-3.785462e-06	-1.012017e-09	-2.626464e+01	-6.728995e+01
9.700000e-07	-3.750531e-06	-1.008745e-09	-2.602227e+01	-6.697567e+01
9.800000e-07	-3.715299e-06	-9.978479e-10	-2.577782e+01	-6.665642e+01
9.900000e-07	-3.679861e-06	-9.929906e-10	-2.553195e+01	-6.633226e+01
1.000000e-06	-3.644341e-06	-9.925194e-10	-2.528550e+01	-6.600323e+01
1.010000e-06	-3.608683e-06	-9.855429e-10	-2.503809e+01	-6.566942e+01
1.020000e-06	-3.572834e-06	-9.788206e-10	-2.478936e+01	-6.533087e+01
1.030000e-06	-3.536840e-06	-9.743596e-10	-2.453963e+01	-6.498768e+01
1.040000e-06	-3.500652e-06	-9.670680e-10	-2.428855e+01	-6.463990e+01
1.050000e-06	-3.464219e-06	-9.586877e-10	-2.403576e+01	-6.428762e+01
1.060000e-06	-3.427522e-06	-9.542036e-10	-2.378114e+01	-6.393090e+01
1.070000e-06	-3.390596e-06	-9.476941e-10	-2.352494e+01	-6.356982e+01
1.080000e-06	-3.353456e-06	-9.392231e-10	-2.326725e+01	-6.320445e+01
1.090000e-06	-3.316025e-06	-9.345038e-10	-2.300754e+01	-6.283485e+01
1.100000e-06	-3.278346e-06	-9.365276e-10	-2.274612e+01	-6.246108e+01
1.110000e-06	-3.240459e-06	-9.301631e-10	-2.248325e+01	-6.208321e+01
1.120000e-06	-3.202331e-06	-9.235952e-10	-2.221871e+01	-6.170127e+01
1.130000e-06	-3.164022e-06	-9.137234e-10	-2.195291e+01	-6.131530e+01
1.140000e-06	-3.125449e-06	-9.047547e-10	-2.168528e+01	-6.092535e+01
1.150000e-06	-3.086549e-06	-8.931699e-10	-2.141538e+01	-6.053142e+01
1.160000e-06	-3.047468e-06	-8.903824e-10	-2.114422e+01	-6.013353e+01
1.170000e-06	-3.008287e-06	-8.883943e-10	-2.087237e+01	-5.973169e+01
1.180000e-06	-2.968951e-06	-8.860982e-10	-2.059945e+01	-5.932587e+01
1.190000e-06	-2.929446e-06	-8.809222e-10	-2.032535e+01	-5.891606e+01
1.200000e-06	-2.889838e-06	-8.720917e-10	-2.005054e+01	-5.850222e+01
1.210000e-06	-2.850137e-06	-8.591477e-10	-1.977508e+01	-5.808430e+01
1.220000e-06	-2.810228e-06	-8.484149e-10	-1.949818e+01	-5.766222e+01
1.230000e-06	-2.770108e-06	-8.405137e-10	-1.921981e+01	-5.723591e+01
1.240000e-06	-2.729855e-06	-8.331562e-10	-1.894053e+01	-5.680528e+01
1.250000e-06	-2.689397e-06	-8.275352e-10	-1.865982e+01	-5.637022e+01
1.260000e-06	-2.648710e-06	-8.261091e-10	-1.837752e+01	-5.593059e+01
1.270000e-06	-2.607709e-06	-8.222214e-10	-1.809305e+01	-5.548626e+01
1.280000e-06	-2.566365e-06	-8.156043e-10	-1.780619e+01	-5.503708e+01
1.290000e-06	-2.524768e-06	-8.079899e-10	-1.751758e+01	-5.458287e+01
1.300000e-06	-2.482919e-06	-7.990273e-10	-1.722722e+01	-5.412344e+01
1.310000e-06	-2.440748e-06	-7.876586e-10	-1.693462e+01	-5.365860e+01
1.320000e-06	-2.398191e-06	-7.766688e-10	-1.663935e+01	-5.318811e+01
1.330000e-06	-2.355438e-06	-7.691476e-10	-1.634271e+01	-5.271177e+01
1.340000e-06	-2.312545e-06	-7.609340e-10	-1.604511e+01	-5.222930e+01
1.350000e-06	-2.269340e-06	-7.543671e-10	-1.574534e+01	-5.174047e+01
1.360000e-06	-2.225937e-06	-7.488344e-10	-1.544420e+01	-5.124498e+01
1.370000e-06	-2.182492e-06	-7.433431e-10	-1.514276e+01	-5.074256e+01
1.380000e-06	-2.138934e-06	-7.344429e-10	-1.484055e+01	-5.023291e+01
1.390000e-06	-2.095248e-06	-7.233278e-10	-1.453744e+01	-4.971571e+01
1.400000e-06	-2.051504e-06	-7.102051e-10	-1.423393e+01	-4.919063e+01
1.410000e-06	-2.007690e-06	-6.984436e-10	-1.392994e+01	-4.865736e+01
1.420000e-06	-1.963790e-06	-6.893991e-10	-1.362534e+01	-4.811554e+01
1.430000e-06	-1.919758e-06	-6.845966e-10	-1.331984e+01	-4.756482e+01
1.440000e-06	-1.875598e-06	-6.777525e-10	-1.301344e+01	-4.700484e+01
1.450000e-06	-1.831349e-06	-6.690591e-10	-1.270644e+01	-4.643524e+01
1.460000e-06	-1.786984e-06	-6.554514e-10	-1.239862e+01	-4.585564e+01
1.470000e-06	-1.742418e-06	-6.396403e-10	-1.208940e+01	-4.526566e+01
1.480000e-06	-1.697659e-06	-6.270521e-10	-1.177885e+01	-4.466493e+01
1.490000e-06	-1.652760e-06	-6.167213e-10	-1.146733e+01	-4.405305e+01
1.500000e-06	-1.607734e-06	-6.106708e-10	-1.115493e+01	-4.342965e+01
1.510000e-06	-1.562689e-06	-6.059230e-10	-1.084239e+01	-4.279434e+01
1.520000e-06	-1.517575e-06	-5.967430e-10	-1.052938e+01	-4.214674e+01
1.530000e-06	-1.472331e-06	-5.835036e-10	-1.021546e+01	-4.148646e+01
1.540000e-06	-1.427031e-06	-5.681815e-10	-9.901157e+00	-4.081313e+01
1.550000e-06	-1.381633e-06	-5.537357e-10	-9.586172e+00	-4.012637e+01
1.560000e-06	-1.336150e-06	-5.379743e-10	-9.270596e+00	-3.942584e+01
1.570000e-06	-1.290553e-06	-5.270357e-10	-8.954231e+00	-3.871116e+01
1.580000e-06	-1.244798e-06	-5.181820e-10	-8.636772e+00	-3.798200e+01
1.590000e-06	-1.198908e-06	-5.084940e-10	-8.318371e+00	-3.723804e+01
1.600000e-06	-1.152953e-06	-4.988145e-10	-7.999526e+00	-3.647894e+01
1.610000e-06	-1.106975e-06	-4.880904e-10	-7.680517e+00	-3.570443e+01
1.620000e-06	-1.060878e-06	-4.750776e-10	-7.360681e+00	-3.491420e+01
1.630000e-06	-1.014661e-06	-4.595144e-10	-7.040011e+00	-3.410801e+01
1.640000e-06	-9.683431e-07	-4.436162e-10	-6.718646e+00	-3.328560e+01
1.650000e-06	-9.219816e-07	-4.289177e-10	-6.396977e+00	-3.244677e+01
1.660000e-06	-8.756904e-07	-4.170061e-10	-6.075795e+00	-3.159132e+01
1.670000e-06	-8.294297e-07	-4.055228e-10	-5.754825e+00	-3.071909e+01
1.680000e-06	-7.830845e-07	-3.936768e-10	-5.433268e+00	-2.982994e+01
1.690000e-06	-7.366110e-07	-3.811974e-10	-5.110821e+00	-2.892377e+01
1.700000e-06	-6.900635e-07	-3.687923e-10	-4.787861e+00	-2.800049e+01
1.710000e-06	-6.435318e-07	-3.553823e-10	-4.465011e+00	-2.706008e+01
1.720000e-06	-5.968654e-07	-3.400836e-10	-4.141226e+00	-2.610252e+01
1.730000e-06	-5.501238e-07	-3.231755e-10	-3.816919e+00	-2.512785e+01
1.740000e-06	-5.033894e-07	-3.060645e-10	-3.492662e+00	-2.413613e+01
1.750000e-06	-4.566013e-07	-2.892203e-10	-3.168032e+00	-2.312747e+01
1.760000e-06	-4.098355e-07	-2.765189e-10	-2.843558e+00	-2.210202e+01
1.770000e-06	-3.629917e-07	-2.657393e-10	-2.518542e+00	-2.105997e+01
1.780000e-06	-3.160539e-07	-2.523949e-10	-2.192874e+00	-2.000154e+01
1.790000e-06	-2.691607e-07	-2.358570e-10	-1.867515e+00	-1.892701e+01
1.800000e-06	-2.222660e-07	-2.194092e-10	-1.542146e+00	-1.783668e+01
1.810000e-06	-1.753462e-07	-2.031157e-10	-1.216603e+00	-1.673092e+01
1.820000e-06	-1.284602e-07	-1.863785e-10	-8.912945e-01	-1.561013e+01
1.830000e-06	-8.147534e-08	-1.700978e-10	-5.652996e-01	-1.447473e+01
1.840000e-06	-3.443865e-08	-1.550502e-10	-2.389454e-01	-1.332522e+01
1.850000e-06	1.246900e-08	-1.404175e-10	8.651356e-02	-1.216212e+01
1.860000e-06	5.945348e-08	-1.265000e-10	4.125055e-01	-1.098599e+01
1.870000e-06	1.064704e-07	-1.094510e-10	7.387229e-01	-9.797437e+00
1.880000e-06	1.533996e-07	-8.948771e-11	1.064331e+00	-8.597106e+00
1.890000e-06	2.003720e-07	-7.026643e-11	1.390239e+00	-7.385673e+00
1.900000e-06	2.472976e-07	-5.318449e-11	1.715823e+00	-6.163854e+00
1.910000e-06	2.941390e-07	-3.801496e-11	2.040822e+00	-4.932398e+00
1.920000e-06	3.409892e-07	-2.295754e-11	2.365882e+00	-3.692084e+00
1.930000e-06	3.878923e-07	-6.580254e-12	2.691310e+00	-2.443722e+00
1.940000e-06	4.348343e-07	1.048561e-11	3.017007e+00	-1.188149e+00
1.950000e-06	4.817135e-07	2.894970e-11	3.342269e+00	7.377603e-02
1.960000e-06	5.284866e-07	4.861340e-11	3.666794e+00	1.341169e+00
1.970000e-06	5.752448e-07	6.605502e-11	3.991216e+00	2.613128e+00
1.980000e-06	6.219185e-07	8.330582e-11	4.315051e+00	3.888735e+00
1.990000e-06	6.683877e-07	9.977364e-11	4.637468e+00	5.167060e+00
2.000000e-06	7.148220e-07	1.129838e-10	4.959643e+00	6.447163e+00
2.010000e-06	7.612982e-07	1.275375e-10	5.282108e+00	7.728095e+00
2.020000e-06	8.076370e-07	1.441678e-10	5.603621e+00	9.008906e+00
2.030000e-06	8.539062e-07	1.641774e-10	5.924650e+00	1.028864e+01
2.040000e-06	9.001422e-07	1.877969e-10	6.245449e+00	1.156636e+01
2.050000e-06	9.463039e-07	2.099916e-10	6.565732e+00	1.284112e+01
2.060000e-06	9.924312e-07	2.296985e-10	6.885776e+00	1.411199e+01
2.070000e-06	1.038464e-06	2.456460e-10	7.205167e+00	1.537805e+01
2.080000e-06	1.084406e-06	2.604880e-10	7.523924e+00	1.663839e+01
2.090000e-06	1.130249e-06	2.751810e-10	7.841994e+00	1.789214e+01
2.100000e-06	1.175961e-06	2.930915e-10	8.159159e+00	1.913843e+01
2.110000e-06	1.221646e-06	3.117585e-10	8.476134e+00	2.037642e+01
2.120000e-06	1.267287e-06	3.293039e-10	8.792805e+00	2.160532e+01
2.130000e-06	1.312808e-06	3.463472e-10	9.108644e+00	2.282433e+01
2.140000e-06	1.358186e-06	3.638059e-10	9.423487e+00	2.403272e+01
2.150000e-06	1.403494e-06	3.805367e-10	9.737850e+00	2.522978e+01
2.160000e-06	1.448782e-06	3.956587e-10	1.005207e+01	2.641482e+01
2.170000e-06	1.493945e-06	4.106787e-10	1.036543e+01	2.758721e+01
2.180000e-06	1.539015e-06	4.256513e-10	1.067813e+01	2.874636e+01
2.190000e-06	1.584089e-06	4.424326e-10	1.099087e+01	2.989171e+01
2.200000e-06	1.629135e-06	4.610484e-10	1.130342e+01	3.102274e+01
2.210000e-06	1.674065e-06	4.767836e-10	1.161515e+01	3.213899e+01
2.220000e-06	1.718715e-06	4.895125e-10	1.192494e+01	3.324003e+01
2.230000e-06	1.763152e-06	5.019423e-10	1.223326e+01	3.432547e+01
2.240000e-06	1.807498e-06	5.172471e-10	1.254095e+01	3.539497e+01
2.250000e-06	1.851760e-06	5.342000e-10	1.284805e+01	3.644823e+01
2.260000e-06	1.895937e-06	5.522663e-10	1.315456e+01	3.748501e+01
2.270000e-06	1.939945e-06	5.710309e-10	1.345991e+01	3.850508e+01
2.280000e-06	1.983810e-06	5.863409e-10	1.376425e+01	3.950829e+01
2.290000e-06	2.027557e-06	5.984030e-10	1.406778e+01	4.049448e+01
2.300000e-06	2.071229e-06	6.089681e-10	1.437079e+01	4.146359e+01
2.310000e-06	2.114859e-06	6.195204e-10	1.467351e+01	4.241554e+01
2.320000e-06	2.158419e-06	6.321037e-10	1.497574e+01	4.335032e+01
2.330000e-06	2.201874e-06	6.485667e-10	1.527724e+01	4.426795e+01
2.340000e-06	2.245259e-06	6.660417e-10	1.557826e+01	4.516847e+01
2.350000e-06	2.288554e-06	6.814094e-10	1.587865e+01	4.605196e+01
2.360000e-06	2.331670e-06	6.932613e-10	1.617780e+01	4.691852e+01
2.370000e-06	2.374666e-06	7.032261e-10	1.647612e+01	4.776829e+01
2.380000e-06	2.417498e-06	7.128774e-10	1.677330e+01	4.860141e+01
2.390000e-06	2.459927e-06	7.242722e-10	1.706769e+01	4.941807e+01
2.400000e-06	2.501913e-06	7.352490e-10	1.735900e+01	5.021846e+01
2.410000e-06	2.543660e-06	7.464445e-10	1.764865e+01	5.100278e+01
2.420000e-06	2.585165e-06	7.580436e-10	1.793663e+01	5.177126e+01
2.430000e-06	2.626223e-06	7.689457e-10	1.822150e+01	5.252414e+01
2.440000e-06	2.666946e-06	7.793725e-10	1.850405e+01	5.326165e+01
2.450000e-06	2.707495e-06	7.897586e-10	1.878539e+01	5.398406e+01
2.460000e-06	2.747838e-06	7.991373e-10	1.906530e+01	5.469161e+01
2.470000e-06	2.787919e-06	8.076239e-10	1.934340e+01	5.538458e+01
2.480000e-06	2.827778e-06	8.158434e-10	1.961994e+01	5.606322e+01
2.490000e-06	2.867505e-06	8.237893e-10	1.989558e+01	5.672780e+01
2.500000e-06	2.907143e-06	8.326918e-10	2.017060e+01	5.737859e+01
2.510000e-06	2.946690e-06	8.424494e-10	2.044499e+01	5.801583e+01
2.520000e-06	2.986098e-06	8.520903e-10	2.071842e+01	5.863978e+01
2.530000e-06	3.025355e-06	8.615123e-10	2.099079e+01	5.925070e+01
2.540000e-06	3.064424e-06	8.721181e-10	2.126186e+01	5.984883e+01
2.550000e-06	3.103229e-06	8.826633e-10	2.153111e+01	6.043440e+01
2.560000e-06	3.141786e-06	8.900591e-10	2.179862e+01	6.100765e+01
2.570000e-06	3.180204e-06	8.956103e-10	2.206518e+01	6.156879e+01
2.580000e-06	3.218391e-06	9.031410e-10	2.233013e+01	6.211804e+01
2.590000e-06	3.256330e-06	9.123555e-10	2.259336e+01	6.265561e+01
2.600000e-06	3.294073e-06	9.203609e-10	2.285523e+01	6.318170e+01
2.610000e-06	3.331568e-06	9.258456e-10	2.311539e+01	6.369649e+01
2.620000e-06	3.368823e-06	9.315096e-10	2.337387e+01	6.420016e+01
2.630000e-06	3.405788e-06	9.384137e-10	2.363035e+01	6.469289e+01
2.640000e-06	3.442598e-06	9.453285e-10	2.388575e+01	6.517485e+01
2.650000e-06	3.479339e-06	9.532341e-10	2.414067e+01	6.564619e+01
2.660000e-06	3.515766e-06	9.640483e-10	2.439341e+01	6.610708e+01
2.670000e-06	3.551790e-06	9.721291e-10	2.464335e+01	6.655767e+01
2.680000e-06	3.587587e-06	9.766707e-10	2.489172e+01	6.699810e+01
2.690000e-06	3.623253e-06	9.807917e-10	2.513918e+01	6.742851e+01
2.700000e-06	3.658797e-06	9.838591e-10	2.538580e+01	6.784906e+01
2.710000e-06	3.694254e-06	9.872962e-10	2.563181e+01	6.825987e+01
2.720000e-06	3.729552e-06	9.935319e-10	2.587672e+01	6.866109e+01
2.730000e-06	3.764520e-06	1.001694e-09	2.611934e+01	6.905285e+01
2.740000e-06	3.799155e-06	1.009457e-09	2.635964e+01	6.943530e+01
2.750000e-06	3.833411e-06	1.016261e-09	2.659732e+01	6.980858e+01
2.760000e-06	3.867154e-06	1.022595e-09	2.683144e+01	7.017282e+01
2.770000e-06	3.900459e-06	1.026121e-09	2.706252e+01	7.052819e+01
2.780000e-06	3.933325e-06	1.028200e-09	2.729055e+01	7.087482e+01
2.790000e-06	3.965840e-06	1.033333e-09	2.751615e+01	7.121287e+01
2.800000e-06	3.998110e-06	1.038460e-09	2.774005e+01	7.154250e+01
2.810000e-06	4.030015e-06	1.042682e-09	2.796142e+01	7.186387e+01
2.820000e-06	4.061658e-06	1.047228e-09	2.818097e+01	7.217714e+01
2.830000e-06	4.093192e-06	1.051612e-09	2.839976e+01	7.248249e+01
2.840000e-06	4.124531e-06	1.056681e-09	2.861720e+01	7.278009e+01
2.850000e-06	4.155679e-06	1.061592e-09	2.883331e+01	7.307012e+01
2.860000e-06	4.186619e-06	1.066922e-09	2.904798e+01	7.335276e+01
2.870000e-06	4.217250e-06	1.071467e-09	2.926051e+01	7.362820e+01
2.880000e-06	4.247577e-06	1.074677e-09	2.947092e+01	7.389663e+01
2.890000e-06	4.277527e-06	1.078691e-09	2.967873e+01	7.415825e+01
2.900000e-06	4.307109e-06	1.081168e-09	2.988397e+01	7.441324e+01
