# Temperatura_=_13.4
# Concentracion g/m^3_=_1620.0
# C_Vs_to_Am_M_A/Vsm_=_65563218390.804596
# pendiente_HvsI_1/m_=_3716.3
# ordenada_HvsI_A/m_=_1297.0
# frecuencia_Hz_=_135107.40007219298

Tiempo_(s)	Campo_(V.s)	Magnetizacion_(V.s)	Campo_(kA/m)	Magnetizacion_(A/m)
0.000000e+00	-5.522208e-06	-1.166252e-09	-3.835981e+01	-7.544949e+01
1.000000e-08	-5.522411e-06	-1.163624e-09	-3.836123e+01	-7.540066e+01
2.000000e-08	-5.522416e-06	-1.163083e-09	-3.836125e+01	-7.534854e+01
3.000000e-08	-5.521981e-06	-1.165597e-09	-3.835824e+01	-7.529319e+01
4.000000e-08	-5.520983e-06	-1.167871e-09	-3.835130e+01	-7.523466e+01
5.000000e-08	-5.519411e-06	-1.165840e-09	-3.834038e+01	-7.517300e+01
6.000000e-08	-5.517245e-06	-1.157117e-09	-3.832534e+01	-7.510826e+01
7.000000e-08	-5.514563e-06	-1.146238e-09	-3.830671e+01	-7.504052e+01
8.000000e-08	-5.511461e-06	-1.154628e-09	-3.828516e+01	-7.496983e+01
9.000000e-08	-5.507934e-06	-1.187985e-09	-3.826066e+01	-7.489627e+01
1.000000e-07	-5.503892e-06	-1.205360e-09	-3.823258e+01	-7.481990e+01
1.100000e-07	-5.499387e-06	-1.154877e-09	-3.820129e+01	-7.474081e+01
1.200000e-07	-5.494670e-06	-1.115311e-09	-3.816852e+01	-7.465905e+01
1.300000e-07	-5.489838e-06	-1.153395e-09	-3.813495e+01	-7.457472e+01
1.400000e-07	-5.484699e-06	-1.195350e-09	-3.809926e+01	-7.448789e+01
1.500000e-07	-5.479135e-06	-1.159480e-09	-3.806061e+01	-7.439863e+01
1.600000e-07	-5.473186e-06	-1.114505e-09	-3.801928e+01	-7.430704e+01
1.700000e-07	-5.466884e-06	-1.133976e-09	-3.797551e+01	-7.421318e+01
1.800000e-07	-5.460103e-06	-1.176411e-09	-3.792840e+01	-7.411714e+01
1.900000e-07	-5.452893e-06	-1.127639e-09	-3.787832e+01	-7.401899e+01
2.000000e-07	-5.445512e-06	-1.102033e-09	-3.782705e+01	-7.391881e+01
2.100000e-07	-5.437847e-06	-1.125019e-09	-3.777380e+01	-7.381668e+01
2.200000e-07	-5.429834e-06	-1.173816e-09	-3.771814e+01	-7.371266e+01
2.300000e-07	-5.421485e-06	-1.146281e-09	-3.766014e+01	-7.360683e+01
2.400000e-07	-5.412729e-06	-1.111443e-09	-3.759932e+01	-7.349925e+01
2.500000e-07	-5.403403e-06	-1.104488e-09	-3.753454e+01	-7.338998e+01
2.600000e-07	-5.393305e-06	-1.119573e-09	-3.746440e+01	-7.327907e+01
2.700000e-07	-5.382532e-06	-1.120253e-09	-3.738956e+01	-7.316658e+01
2.800000e-07	-5.371366e-06	-1.115603e-09	-3.731200e+01	-7.305256e+01
2.900000e-07	-5.359856e-06	-1.115667e-09	-3.723204e+01	-7.293703e+01
3.000000e-07	-5.347883e-06	-1.119543e-09	-3.714887e+01	-7.282004e+01
3.100000e-07	-5.335533e-06	-1.126765e-09	-3.706308e+01	-7.270161e+01
3.200000e-07	-5.322790e-06	-1.102574e-09	-3.697456e+01	-7.258175e+01
3.300000e-07	-5.309623e-06	-1.097369e-09	-3.688310e+01	-7.246048e+01
3.400000e-07	-5.296106e-06	-1.099316e-09	-3.678920e+01	-7.233780e+01
3.500000e-07	-5.282178e-06	-1.110272e-09	-3.669245e+01	-7.221372e+01
3.600000e-07	-5.267753e-06	-1.087012e-09	-3.659225e+01	-7.208820e+01
3.700000e-07	-5.252749e-06	-1.107576e-09	-3.648802e+01	-7.196124e+01
3.800000e-07	-5.237381e-06	-1.110274e-09	-3.638127e+01	-7.183281e+01
3.900000e-07	-5.221628e-06	-1.092824e-09	-3.627184e+01	-7.170287e+01
4.000000e-07	-5.205236e-06	-1.078946e-09	-3.615798e+01	-7.157137e+01
4.100000e-07	-5.188501e-06	-1.114314e-09	-3.604173e+01	-7.143827e+01
4.200000e-07	-5.171574e-06	-1.094154e-09	-3.592415e+01	-7.130350e+01
4.300000e-07	-5.154283e-06	-1.062093e-09	-3.580403e+01	-7.116700e+01
4.400000e-07	-5.136673e-06	-1.091044e-09	-3.568171e+01	-7.102871e+01
4.500000e-07	-5.118846e-06	-1.117663e-09	-3.555787e+01	-7.088853e+01
4.600000e-07	-5.100505e-06	-1.068196e-09	-3.543047e+01	-7.074639e+01
4.700000e-07	-5.081571e-06	-1.064858e-09	-3.529895e+01	-7.060220e+01
4.800000e-07	-5.062342e-06	-1.103578e-09	-3.516537e+01	-7.045587e+01
4.900000e-07	-5.042907e-06	-1.080301e-09	-3.503036e+01	-7.030729e+01
5.000000e-07	-5.023274e-06	-1.046478e-09	-3.489399e+01	-7.015638e+01
5.100000e-07	-5.003424e-06	-1.078652e-09	-3.475610e+01	-7.000302e+01
5.200000e-07	-4.983276e-06	-1.075023e-09	-3.461614e+01	-6.984712e+01
5.300000e-07	-4.962754e-06	-1.036552e-09	-3.447358e+01	-6.968857e+01
5.400000e-07	-4.941818e-06	-1.056898e-09	-3.432816e+01	-6.952727e+01
5.500000e-07	-4.920546e-06	-1.070704e-09	-3.418039e+01	-6.936311e+01
5.600000e-07	-4.898952e-06	-1.032015e-09	-3.403038e+01	-6.919600e+01
5.700000e-07	-4.876977e-06	-1.029617e-09	-3.387774e+01	-6.902582e+01
5.800000e-07	-4.854613e-06	-1.060552e-09	-3.372239e+01	-6.885249e+01
5.900000e-07	-4.831823e-06	-1.038029e-09	-3.356408e+01	-6.867591e+01
6.000000e-07	-4.808760e-06	-1.024576e-09	-3.340387e+01	-6.849600e+01
6.100000e-07	-4.785541e-06	-1.049434e-09	-3.324258e+01	-6.831265e+01
6.200000e-07	-4.762111e-06	-1.044208e-09	-3.307983e+01	-6.812581e+01
6.300000e-07	-4.738429e-06	-1.014886e-09	-3.291532e+01	-6.793539e+01
6.400000e-07	-4.714468e-06	-1.024671e-09	-3.274887e+01	-6.774132e+01
6.500000e-07	-4.690141e-06	-1.023125e-09	-3.257989e+01	-6.754355e+01
6.600000e-07	-4.665315e-06	-1.005566e-09	-3.240744e+01	-6.734202e+01
6.700000e-07	-4.639962e-06	-1.008026e-09	-3.223132e+01	-6.713668e+01
6.800000e-07	-4.614101e-06	-1.019958e-09	-3.205168e+01	-6.692749e+01
6.900000e-07	-4.587663e-06	-1.004057e-09	-3.186803e+01	-6.671442e+01
7.000000e-07	-4.560724e-06	-1.002230e-09	-3.168090e+01	-6.649744e+01
7.100000e-07	-4.533497e-06	-1.004628e-09	-3.149177e+01	-6.627654e+01
7.200000e-07	-4.506044e-06	-9.951354e-10	-3.130107e+01	-6.605169e+01
7.300000e-07	-4.478454e-06	-9.859013e-10	-3.110941e+01	-6.582290e+01
7.400000e-07	-4.450717e-06	-9.896581e-10	-3.091674e+01	-6.559016e+01
7.500000e-07	-4.422663e-06	-9.825423e-10	-3.072187e+01	-6.535348e+01
7.600000e-07	-4.394195e-06	-9.802712e-10	-3.052411e+01	-6.511288e+01
7.700000e-07	-4.365430e-06	-9.834824e-10	-3.032430e+01	-6.486837e+01
7.800000e-07	-4.336485e-06	-9.787577e-10	-3.012323e+01	-6.461996e+01
7.900000e-07	-4.307311e-06	-9.689498e-10	-2.992058e+01	-6.436770e+01
8.000000e-07	-4.277721e-06	-9.675278e-10	-2.971503e+01	-6.411160e+01
8.100000e-07	-4.247670e-06	-9.574717e-10	-2.950628e+01	-6.385170e+01
8.200000e-07	-4.217349e-06	-9.405234e-10	-2.929566e+01	-6.358803e+01
8.300000e-07	-4.186810e-06	-9.358084e-10	-2.908352e+01	-6.332063e+01
8.400000e-07	-4.156074e-06	-9.350969e-10	-2.887002e+01	-6.304953e+01
8.500000e-07	-4.125119e-06	-9.278331e-10	-2.865499e+01	-6.277478e+01
8.600000e-07	-4.093878e-06	-9.249930e-10	-2.843797e+01	-6.249640e+01
8.700000e-07	-4.062413e-06	-9.289927e-10	-2.821940e+01	-6.221445e+01
8.800000e-07	-4.030782e-06	-9.220907e-10	-2.799968e+01	-6.192894e+01
8.900000e-07	-3.998991e-06	-9.135480e-10	-2.777884e+01	-6.163992e+01
9.000000e-07	-3.966973e-06	-9.072281e-10	-2.755643e+01	-6.134741e+01
9.100000e-07	-3.934587e-06	-8.985858e-10	-2.733146e+01	-6.105144e+01
9.200000e-07	-3.901773e-06	-8.882194e-10	-2.710352e+01	-6.075204e+01
9.300000e-07	-3.868517e-06	-8.880737e-10	-2.687251e+01	-6.044924e+01
9.400000e-07	-3.834866e-06	-8.865512e-10	-2.663876e+01	-6.014304e+01
9.500000e-07	-3.800764e-06	-8.812305e-10	-2.640187e+01	-5.983347e+01
9.600000e-07	-3.766153e-06	-8.758877e-10	-2.616144e+01	-5.952053e+01
9.700000e-07	-3.731151e-06	-8.735324e-10	-2.591830e+01	-5.920423e+01
9.800000e-07	-3.695950e-06	-8.630568e-10	-2.567378e+01	-5.888459e+01
9.900000e-07	-3.660584e-06	-8.537783e-10	-2.542811e+01	-5.856159e+01
1.000000e-06	-3.625016e-06	-8.505072e-10	-2.518104e+01	-5.823523e+01
1.010000e-06	-3.589350e-06	-8.488972e-10	-2.493329e+01	-5.790551e+01
1.020000e-06	-3.553563e-06	-8.417416e-10	-2.468470e+01	-5.757242e+01
1.030000e-06	-3.517610e-06	-8.357192e-10	-2.443495e+01	-5.723594e+01
1.040000e-06	-3.481461e-06	-8.305088e-10	-2.418384e+01	-5.689607e+01
1.050000e-06	-3.445062e-06	-8.242741e-10	-2.393099e+01	-5.655277e+01
1.060000e-06	-3.408376e-06	-8.181470e-10	-2.367616e+01	-5.620604e+01
1.070000e-06	-3.371395e-06	-8.155142e-10	-2.341927e+01	-5.585586e+01
1.080000e-06	-3.334104e-06	-8.107051e-10	-2.316023e+01	-5.550220e+01
1.090000e-06	-3.296623e-06	-8.071098e-10	-2.289987e+01	-5.514504e+01
1.100000e-06	-3.258972e-06	-8.040797e-10	-2.263832e+01	-5.478435e+01
1.110000e-06	-3.220968e-06	-7.973434e-10	-2.237434e+01	-5.442013e+01
1.120000e-06	-3.182747e-06	-7.880657e-10	-2.210883e+01	-5.405233e+01
1.130000e-06	-3.144356e-06	-7.817815e-10	-2.184215e+01	-5.368095e+01
1.140000e-06	-3.105677e-06	-7.769847e-10	-2.157347e+01	-5.330596e+01
1.150000e-06	-3.066728e-06	-7.694976e-10	-2.130291e+01	-5.292733e+01
1.160000e-06	-3.027595e-06	-7.641062e-10	-2.103108e+01	-5.254505e+01
1.170000e-06	-2.988384e-06	-7.600296e-10	-2.075870e+01	-5.215910e+01
1.180000e-06	-2.948978e-06	-7.561881e-10	-2.048497e+01	-5.176946e+01
1.190000e-06	-2.909401e-06	-7.506585e-10	-2.021005e+01	-5.137610e+01
1.200000e-06	-2.869748e-06	-7.453770e-10	-1.993459e+01	-5.097901e+01
1.210000e-06	-2.829953e-06	-7.354552e-10	-1.965817e+01	-5.057815e+01
1.220000e-06	-2.790060e-06	-7.252837e-10	-1.938104e+01	-5.017352e+01
1.230000e-06	-2.749973e-06	-7.157862e-10	-1.910259e+01	-4.976508e+01
1.240000e-06	-2.709615e-06	-7.071554e-10	-1.882224e+01	-4.935280e+01
1.250000e-06	-2.669072e-06	-7.009943e-10	-1.854061e+01	-4.893665e+01
1.260000e-06	-2.628212e-06	-6.970263e-10	-1.825678e+01	-4.851659e+01
1.270000e-06	-2.587001e-06	-6.933770e-10	-1.797051e+01	-4.809258e+01
1.280000e-06	-2.545581e-06	-6.876900e-10	-1.768278e+01	-4.766455e+01
1.290000e-06	-2.503922e-06	-6.767647e-10	-1.739340e+01	-4.723246e+01
1.300000e-06	-2.461924e-06	-6.646312e-10	-1.710166e+01	-4.679623e+01
1.310000e-06	-2.419573e-06	-6.511609e-10	-1.680747e+01	-4.635578e+01
1.320000e-06	-2.376959e-06	-6.404123e-10	-1.651146e+01	-4.591101e+01
1.330000e-06	-2.334180e-06	-6.327418e-10	-1.621429e+01	-4.546182e+01
1.340000e-06	-2.291242e-06	-6.281737e-10	-1.591603e+01	-4.500808e+01
1.350000e-06	-2.248058e-06	-6.239398e-10	-1.561605e+01	-4.454966e+01
1.360000e-06	-2.204692e-06	-6.177274e-10	-1.531481e+01	-4.408638e+01
1.370000e-06	-2.161240e-06	-6.107132e-10	-1.501297e+01	-4.361809e+01
1.380000e-06	-2.117687e-06	-6.012497e-10	-1.471043e+01	-4.314457e+01
1.390000e-06	-2.074074e-06	-5.909450e-10	-1.440748e+01	-4.266561e+01
1.400000e-06	-2.030418e-06	-5.825056e-10	-1.410422e+01	-4.218098e+01
1.410000e-06	-1.986653e-06	-5.739924e-10	-1.380021e+01	-4.169040e+01
1.420000e-06	-1.942756e-06	-5.651531e-10	-1.349528e+01	-4.119360e+01
1.430000e-06	-1.898734e-06	-5.580923e-10	-1.318949e+01	-4.069025e+01
1.440000e-06	-1.854667e-06	-5.516896e-10	-1.288337e+01	-4.018004e+01
1.450000e-06	-1.810532e-06	-5.461591e-10	-1.257679e+01	-3.966258e+01
1.460000e-06	-1.766239e-06	-5.386038e-10	-1.226911e+01	-3.913752e+01
1.470000e-06	-1.721835e-06	-5.288491e-10	-1.196066e+01	-3.860443e+01
1.480000e-06	-1.677224e-06	-5.176608e-10	-1.165077e+01	-3.806288e+01
1.490000e-06	-1.632365e-06	-5.061206e-10	-1.133916e+01	-3.751244e+01
1.500000e-06	-1.587422e-06	-4.965300e-10	-1.102697e+01	-3.695261e+01
1.510000e-06	-1.542436e-06	-4.903074e-10	-1.071447e+01	-3.638292e+01
1.520000e-06	-1.497352e-06	-4.850797e-10	-1.040130e+01	-3.580285e+01
1.530000e-06	-1.452138e-06	-4.815358e-10	-1.008722e+01	-3.521187e+01
1.540000e-06	-1.406800e-06	-4.761394e-10	-9.772283e+00	-3.460945e+01
1.550000e-06	-1.361397e-06	-4.667508e-10	-9.456892e+00	-3.399503e+01
1.560000e-06	-1.315901e-06	-4.538805e-10	-9.140854e+00	-3.336806e+01
1.570000e-06	-1.270275e-06	-4.397403e-10	-8.823920e+00	-3.272798e+01
1.580000e-06	-1.224586e-06	-4.258435e-10	-8.506544e+00	-3.207420e+01
1.590000e-06	-1.178834e-06	-4.135753e-10	-8.188728e+00	-3.140618e+01
1.600000e-06	-1.132978e-06	-4.046348e-10	-7.870190e+00	-3.072334e+01
1.610000e-06	-1.087072e-06	-3.969224e-10	-7.551303e+00	-3.002514e+01
1.620000e-06	-1.041096e-06	-3.853838e-10	-7.231937e+00	-2.931103e+01
1.630000e-06	-9.949648e-07	-3.706452e-10	-6.911486e+00	-2.858050e+01
1.640000e-06	-9.486691e-07	-3.551920e-10	-6.589895e+00	-2.783303e+01
1.650000e-06	-9.023339e-07	-3.396424e-10	-6.268029e+00	-2.706814e+01
1.660000e-06	-8.559503e-07	-3.254615e-10	-5.945827e+00	-2.628539e+01
1.670000e-06	-8.095241e-07	-3.143921e-10	-5.623329e+00	-2.548435e+01
1.680000e-06	-7.631378e-07	-3.067017e-10	-5.301108e+00	-2.466465e+01
1.690000e-06	-7.167268e-07	-2.993375e-10	-4.978716e+00	-2.382595e+01
1.700000e-06	-6.702794e-07	-2.887496e-10	-4.656071e+00	-2.296793e+01
1.710000e-06	-6.237887e-07	-2.753811e-10	-4.333125e+00	-2.209037e+01
1.720000e-06	-5.771958e-07	-2.588929e-10	-4.009469e+00	-2.119306e+01
1.730000e-06	-5.304915e-07	-2.410325e-10	-3.685040e+00	-2.027587e+01
1.740000e-06	-4.837441e-07	-2.260882e-10	-3.360311e+00	-1.933871e+01
1.750000e-06	-4.369886e-07	-2.125103e-10	-3.035525e+00	-1.838156e+01
1.760000e-06	-3.901963e-07	-1.997816e-10	-2.710484e+00	-1.740447e+01
1.770000e-06	-3.433431e-07	-1.878305e-10	-2.385020e+00	-1.640755e+01
1.780000e-06	-2.964106e-07	-1.749457e-10	-2.059005e+00	-1.539099e+01
1.790000e-06	-2.494808e-07	-1.605796e-10	-1.733009e+00	-1.435502e+01
1.800000e-06	-2.026089e-07	-1.459650e-10	-1.407415e+00	-1.329998e+01
1.810000e-06	-1.556964e-07	-1.298547e-10	-1.081539e+00	-1.222627e+01
1.820000e-06	-1.087892e-07	-1.115805e-10	-7.556999e-01	-1.113433e+01
1.830000e-06	-6.194816e-08	-9.271175e-11	-4.303206e-01	-1.002473e+01
1.840000e-06	-1.507478e-08	-7.574889e-11	-1.047164e-01	-8.898063e+00
1.850000e-06	3.182428e-08	-6.035366e-11	2.210662e-01	-7.755016e+00
1.860000e-06	7.866675e-08	-4.584554e-11	5.464557e-01	-6.596343e+00
1.870000e-06	1.255361e-07	-3.004710e-11	8.720320e-01	-5.422861e+00
1.880000e-06	1.723851e-07	-1.317409e-11	1.197467e+00	-4.235457e+00
1.890000e-06	2.191654e-07	3.779367e-12	1.522424e+00	-3.035078e+00
1.900000e-06	2.659478e-07	2.032728e-11	1.847397e+00	-1.822730e+00
1.910000e-06	3.127996e-07	3.777637e-11	2.172851e+00	-5.994777e-01
1.920000e-06	3.596971e-07	5.731029e-11	2.498622e+00	6.335658e-01
1.930000e-06	4.065152e-07	7.735922e-11	2.823843e+00	1.875238e+00
1.940000e-06	4.532959e-07	9.666791e-11	3.148803e+00	3.124335e+00
1.950000e-06	5.000392e-07	1.144472e-10	3.473504e+00	4.379614e+00
1.960000e-06	5.466824e-07	1.314227e-10	3.797509e+00	5.639799e+00
1.970000e-06	5.932854e-07	1.482448e-10	4.121235e+00	6.903588e+00
1.980000e-06	6.398425e-07	1.650914e-10	4.444642e+00	8.169659e+00
1.990000e-06	6.864304e-07	1.811786e-10	4.768263e+00	9.436672e+00
2.000000e-06	7.329500e-07	1.983758e-10	5.091410e+00	1.070328e+01
2.010000e-06	7.793146e-07	2.197001e-10	5.413480e+00	1.196813e+01
2.020000e-06	8.256597e-07	2.393322e-10	5.735414e+00	1.322987e+01
2.030000e-06	8.719445e-07	2.603868e-10	6.056930e+00	1.448717e+01
2.040000e-06	9.181290e-07	2.818405e-10	6.377749e+00	1.573869e+01
2.050000e-06	9.642410e-07	2.982248e-10	6.698064e+00	1.698314e+01
2.060000e-06	1.010283e-06	3.126346e-10	7.017891e+00	1.821923e+01
2.070000e-06	1.056215e-06	3.265894e-10	7.336960e+00	1.944572e+01
2.080000e-06	1.102060e-06	3.429202e-10	7.655417e+00	2.066141e+01
2.090000e-06	1.147852e-06	3.608539e-10	7.973514e+00	2.186512e+01
2.100000e-06	1.193543e-06	3.813203e-10	8.290905e+00	2.305575e+01
2.110000e-06	1.239088e-06	4.002654e-10	8.607277e+00	2.423224e+01
2.120000e-06	1.284563e-06	4.172148e-10	8.923167e+00	2.539356e+01
2.130000e-06	1.329987e-06	4.308057e-10	9.238708e+00	2.653879e+01
2.140000e-06	1.375360e-06	4.440864e-10	9.553886e+00	2.766704e+01
2.150000e-06	1.420720e-06	4.572738e-10	9.868982e+00	2.877749e+01
2.160000e-06	1.466033e-06	4.710147e-10	1.018374e+01	2.986941e+01
2.170000e-06	1.511236e-06	4.874906e-10	1.049774e+01	3.094213e+01
2.180000e-06	1.556305e-06	5.044841e-10	1.081081e+01	3.199505e+01
2.190000e-06	1.601221e-06	5.203465e-10	1.112282e+01	3.302766e+01
2.200000e-06	1.646006e-06	5.331500e-10	1.143392e+01	3.403950e+01
2.210000e-06	1.690677e-06	5.426774e-10	1.174422e+01	3.503022e+01
2.220000e-06	1.735216e-06	5.515003e-10	1.205362e+01	3.599952e+01
2.230000e-06	1.779652e-06	5.609754e-10	1.236228e+01	3.694719e+01
2.240000e-06	1.823928e-06	5.730491e-10	1.266985e+01	3.787310e+01
2.250000e-06	1.867969e-06	5.871178e-10	1.297578e+01	3.877717e+01
2.260000e-06	1.911879e-06	6.021620e-10	1.328080e+01	3.965942e+01
2.270000e-06	1.955741e-06	6.161543e-10	1.358548e+01	4.051992e+01
2.280000e-06	1.999549e-06	6.259871e-10	1.388979e+01	4.135881e+01
2.290000e-06	2.043281e-06	6.353089e-10	1.419358e+01	4.217629e+01
2.300000e-06	2.086919e-06	6.437258e-10	1.449671e+01	4.297263e+01
2.310000e-06	2.130491e-06	6.514859e-10	1.479938e+01	4.374816e+01
2.320000e-06	2.173990e-06	6.608067e-10	1.510154e+01	4.450324e+01
2.330000e-06	2.217376e-06	6.713076e-10	1.540292e+01	4.523829e+01
2.340000e-06	2.260685e-06	6.820615e-10	1.570376e+01	4.595379e+01
2.350000e-06	2.303901e-06	6.926818e-10	1.600396e+01	4.665022e+01
2.360000e-06	2.346901e-06	7.024037e-10	1.630266e+01	4.732814e+01
2.370000e-06	2.389700e-06	7.112855e-10	1.659996e+01	4.798810e+01
2.380000e-06	2.432234e-06	7.191703e-10	1.689542e+01	4.863071e+01
2.390000e-06	2.474443e-06	7.269296e-10	1.718863e+01	4.925657e+01
2.400000e-06	2.516389e-06	7.339163e-10	1.748000e+01	4.986631e+01
2.410000e-06	2.558061e-06	7.422129e-10	1.776948e+01	5.046056e+01
2.420000e-06	2.599436e-06	7.519084e-10	1.805689e+01	5.103998e+01
2.430000e-06	2.640429e-06	7.622404e-10	1.834164e+01	5.160521e+01
2.440000e-06	2.681053e-06	7.709916e-10	1.862384e+01	5.215689e+01
2.450000e-06	2.721429e-06	7.796198e-10	1.890431e+01	5.269566e+01
2.460000e-06	2.761630e-06	7.885896e-10	1.918356e+01	5.322214e+01
2.470000e-06	2.801597e-06	7.951063e-10	1.946119e+01	5.373694e+01
2.480000e-06	2.841324e-06	7.989701e-10	1.973715e+01	5.424067e+01
2.490000e-06	2.880921e-06	8.034643e-10	2.001221e+01	5.473388e+01
2.500000e-06	2.920459e-06	8.102896e-10	2.028686e+01	5.521715e+01
2.510000e-06	2.959889e-06	8.196185e-10	2.056076e+01	5.569097e+01
2.520000e-06	2.999151e-06	8.297618e-10	2.083349e+01	5.615586e+01
2.530000e-06	3.038301e-06	8.393384e-10	2.110544e+01	5.661228e+01
2.540000e-06	3.077298e-06	8.473725e-10	2.137633e+01	5.706067e+01
2.550000e-06	3.116030e-06	8.529541e-10	2.164539e+01	5.750142e+01
2.560000e-06	3.154425e-06	8.565922e-10	2.191210e+01	5.793491e+01
2.570000e-06	3.192517e-06	8.617527e-10	2.217670e+01	5.836147e+01
2.580000e-06	3.230445e-06	8.715703e-10	2.244017e+01	5.878141e+01
2.590000e-06	3.268226e-06	8.820101e-10	2.270261e+01	5.919499e+01
2.600000e-06	3.305804e-06	8.901214e-10	2.296364e+01	5.960245e+01
2.610000e-06	3.343231e-06	8.967607e-10	2.322363e+01	6.000399e+01
2.620000e-06	3.380396e-06	9.024244e-10	2.348180e+01	6.039979e+01
2.630000e-06	3.417182e-06	9.065844e-10	2.373733e+01	6.078998e+01
2.640000e-06	3.453770e-06	9.100986e-10	2.399148e+01	6.117468e+01
2.650000e-06	3.490103e-06	9.154969e-10	2.424387e+01	6.155397e+01
2.660000e-06	3.526150e-06	9.233448e-10	2.449427e+01	6.192791e+01
2.670000e-06	3.562009e-06	9.289064e-10	2.474336e+01	6.229654e+01
2.680000e-06	3.597702e-06	9.318237e-10	2.499130e+01	6.265987e+01
2.690000e-06	3.633290e-06	9.335201e-10	2.523851e+01	6.301789e+01
2.700000e-06	3.668781e-06	9.342297e-10	2.548505e+01	6.337059e+01
2.710000e-06	3.704175e-06	9.365526e-10	2.573091e+01	6.371793e+01
2.720000e-06	3.739400e-06	9.419770e-10	2.597560e+01	6.405986e+01
2.730000e-06	3.774346e-06	9.471482e-10	2.621835e+01	6.439631e+01
2.740000e-06	3.808986e-06	9.522938e-10	2.645898e+01	6.472723e+01
2.750000e-06	3.843191e-06	9.580412e-10	2.669658e+01	6.505254e+01
2.760000e-06	3.876779e-06	9.615457e-10	2.692990e+01	6.537216e+01
2.770000e-06	3.909758e-06	9.626399e-10	2.715899e+01	6.568601e+01
2.780000e-06	3.942329e-06	9.648455e-10	2.738524e+01	6.599403e+01
2.790000e-06	3.974551e-06	9.692881e-10	2.760907e+01	6.629614e+01
2.800000e-06	4.006454e-06	9.731324e-10	2.783069e+01	6.659226e+01
2.810000e-06	4.038183e-06	9.767890e-10	2.805109e+01	6.688234e+01
2.820000e-06	4.069765e-06	9.810618e-10	2.827047e+01	6.716631e+01
2.830000e-06	4.101205e-06	9.852364e-10	2.848887e+01	6.744414e+01
2.840000e-06	4.132463e-06	9.895240e-10	2.870600e+01	6.771578e+01
2.850000e-06	4.163523e-06	9.927253e-10	2.892176e+01	6.798121e+01
2.860000e-06	4.194260e-06	9.946103e-10	2.913527e+01	6.824042e+01
2.870000e-06	4.224617e-06	9.959252e-10	2.934615e+01	6.849340e+01
2.880000e-06	4.254652e-06	9.972688e-10	2.955478e+01	6.874017e+01
2.890000e-06	4.284357e-06	9.972332e-10	2.976113e+01	6.898074e+01
2.900000e-06	4.313769e-06	9.966007e-10	2.996543e+01	6.921515e+01
2.910000e-06	4.342937e-06	9.994729e-10	3.016805e+01	6.944346e+01
