# Temperatura_=_3.09
# Concentracion g/m^3_=_1620.0
# C_Vs_to_Am_M_A/Vsm_=_65563218390.804596
# pendiente_HvsI_1/m_=_3716.3
# ordenada_HvsI_A/m_=_1297.0
# frecuencia_Hz_=_135105.89629177004

Tiempo_(s)	Campo_(V.s)	Magnetizacion_(V.s)	Campo_(kA/m)	Magnetizacion_(A/m)
0.000000e+00	-5.495432e-06	-1.389093e-09	-3.836949e+01	-9.058647e+01
1.000000e-08	-5.495700e-06	-1.388509e-09	-3.837136e+01	-9.056518e+01
2.000000e-08	-5.495743e-06	-1.388712e-09	-3.837166e+01	-9.054175e+01
3.000000e-08	-5.495453e-06	-1.388676e-09	-3.836964e+01	-9.051614e+01
4.000000e-08	-5.494674e-06	-1.384805e-09	-3.836420e+01	-9.048832e+01
5.000000e-08	-5.493354e-06	-1.380121e-09	-3.835498e+01	-9.045823e+01
6.000000e-08	-5.491499e-06	-1.379987e-09	-3.834203e+01	-9.042583e+01
7.000000e-08	-5.489099e-06	-1.389964e-09	-3.832527e+01	-9.039105e+01
8.000000e-08	-5.486150e-06	-1.428288e-09	-3.830468e+01	-9.035383e+01
9.000000e-08	-5.482687e-06	-1.407742e-09	-3.828050e+01	-9.031410e+01
1.000000e-07	-5.478738e-06	-1.301072e-09	-3.825293e+01	-9.027178e+01
1.100000e-07	-5.474519e-06	-1.284238e-09	-3.822347e+01	-9.022679e+01
1.200000e-07	-5.470130e-06	-1.435350e-09	-3.819283e+01	-9.017903e+01
1.300000e-07	-5.465427e-06	-1.468396e-09	-3.815999e+01	-9.012842e+01
1.400000e-07	-5.460358e-06	-1.391522e-09	-3.812460e+01	-9.007485e+01
1.500000e-07	-5.454938e-06	-1.268968e-09	-3.808675e+01	-9.001824e+01
1.600000e-07	-5.449217e-06	-1.418071e-09	-3.804681e+01	-8.995846e+01
1.700000e-07	-5.443048e-06	-1.445231e-09	-3.800374e+01	-8.989543e+01
1.800000e-07	-5.436347e-06	-1.361154e-09	-3.795696e+01	-8.982904e+01
1.900000e-07	-5.429255e-06	-1.245578e-09	-3.790744e+01	-8.975917e+01
2.000000e-07	-5.421904e-06	-1.358103e-09	-3.785611e+01	-8.968571e+01
2.100000e-07	-5.414256e-06	-1.469312e-09	-3.780271e+01	-8.960857e+01
2.200000e-07	-5.406269e-06	-1.440190e-09	-3.774695e+01	-8.952763e+01
2.300000e-07	-5.398083e-06	-1.361190e-09	-3.768979e+01	-8.944278e+01
2.400000e-07	-5.389568e-06	-1.349348e-09	-3.763034e+01	-8.935393e+01
2.500000e-07	-5.380425e-06	-1.398362e-09	-3.756650e+01	-8.926096e+01
2.600000e-07	-5.370650e-06	-1.354183e-09	-3.749825e+01	-8.916379e+01
2.700000e-07	-5.360279e-06	-1.352821e-09	-3.742584e+01	-8.906231e+01
2.800000e-07	-5.349317e-06	-1.342407e-09	-3.734931e+01	-8.895643e+01
2.900000e-07	-5.337902e-06	-1.391180e-09	-3.726960e+01	-8.884607e+01
3.000000e-07	-5.326157e-06	-1.334751e-09	-3.718760e+01	-8.873114e+01
3.100000e-07	-5.314012e-06	-1.331207e-09	-3.710281e+01	-8.861156e+01
3.200000e-07	-5.301421e-06	-1.310302e-09	-3.701489e+01	-8.848725e+01
3.300000e-07	-5.288516e-06	-1.377077e-09	-3.692479e+01	-8.835817e+01
3.400000e-07	-5.275289e-06	-1.322473e-09	-3.683244e+01	-8.822423e+01
3.500000e-07	-5.261657e-06	-1.305964e-09	-3.673726e+01	-8.808539e+01
3.600000e-07	-5.247585e-06	-1.308940e-09	-3.663901e+01	-8.794159e+01
3.700000e-07	-5.233050e-06	-1.360462e-09	-3.653752e+01	-8.779280e+01
3.800000e-07	-5.217950e-06	-1.285382e-09	-3.643209e+01	-8.763898e+01
3.900000e-07	-5.202217e-06	-1.305964e-09	-3.632224e+01	-8.748010e+01
4.000000e-07	-5.185983e-06	-1.352954e-09	-3.620889e+01	-8.731614e+01
4.100000e-07	-5.169397e-06	-1.315928e-09	-3.609309e+01	-8.714708e+01
4.200000e-07	-5.152449e-06	-1.249749e-09	-3.597476e+01	-8.697292e+01
4.300000e-07	-5.135160e-06	-1.338020e-09	-3.585404e+01	-8.679365e+01
4.400000e-07	-5.117619e-06	-1.353876e-09	-3.573157e+01	-8.660928e+01
4.500000e-07	-5.099828e-06	-1.235440e-09	-3.560736e+01	-8.641981e+01
4.600000e-07	-5.081640e-06	-1.260583e-09	-3.548036e+01	-8.622528e+01
4.700000e-07	-5.063054e-06	-1.352447e-09	-3.535059e+01	-8.602569e+01
4.800000e-07	-5.044112e-06	-1.287420e-09	-3.521835e+01	-8.582108e+01
4.900000e-07	-5.024823e-06	-1.233583e-09	-3.508366e+01	-8.561148e+01
5.000000e-07	-5.005310e-06	-1.331460e-09	-3.494742e+01	-8.539694e+01
5.100000e-07	-4.985572e-06	-1.292564e-09	-3.480962e+01	-8.517749e+01
5.200000e-07	-4.965516e-06	-1.221125e-09	-3.466958e+01	-8.495319e+01
5.300000e-07	-4.945131e-06	-1.286774e-09	-3.452725e+01	-8.472409e+01
5.400000e-07	-4.924412e-06	-1.317178e-09	-3.438259e+01	-8.449025e+01
5.500000e-07	-4.903269e-06	-1.197303e-09	-3.423497e+01	-8.425172e+01
5.600000e-07	-4.881760e-06	-1.238664e-09	-3.408479e+01	-8.400857e+01
5.700000e-07	-4.860019e-06	-1.309947e-09	-3.393299e+01	-8.376086e+01
5.800000e-07	-4.837959e-06	-1.250705e-09	-3.377897e+01	-8.350866e+01
5.900000e-07	-4.815500e-06	-1.209828e-09	-3.362216e+01	-8.325204e+01
6.000000e-07	-4.792710e-06	-1.287252e-09	-3.346304e+01	-8.299106e+01
6.100000e-07	-4.769638e-06	-1.244807e-09	-3.330194e+01	-8.272581e+01
6.200000e-07	-4.746252e-06	-1.203506e-09	-3.313866e+01	-8.245633e+01
6.300000e-07	-4.722617e-06	-1.243143e-09	-3.297364e+01	-8.218271e+01
6.400000e-07	-4.698743e-06	-1.255856e-09	-3.280695e+01	-8.190501e+01
6.500000e-07	-4.674561e-06	-1.200504e-09	-3.263811e+01	-8.162329e+01
6.600000e-07	-4.650044e-06	-1.226491e-09	-3.246693e+01	-8.133762e+01
6.700000e-07	-4.625016e-06	-1.233490e-09	-3.229218e+01	-8.104806e+01
6.800000e-07	-4.599430e-06	-1.197350e-09	-3.211354e+01	-8.075467e+01
6.900000e-07	-4.573359e-06	-1.193562e-09	-3.193151e+01	-8.045750e+01
7.000000e-07	-4.546873e-06	-1.217970e-09	-3.174659e+01	-8.015660e+01
7.100000e-07	-4.519990e-06	-1.191888e-09	-3.155888e+01	-7.985201e+01
7.200000e-07	-4.492664e-06	-1.183147e-09	-3.136809e+01	-7.954379e+01
7.300000e-07	-4.465048e-06	-1.196171e-09	-3.117528e+01	-7.923196e+01
7.400000e-07	-4.437337e-06	-1.182195e-09	-3.098180e+01	-7.891656e+01
7.500000e-07	-4.409485e-06	-1.163962e-09	-3.078733e+01	-7.859761e+01
7.600000e-07	-4.381362e-06	-1.168577e-09	-3.059097e+01	-7.827513e+01
7.700000e-07	-4.352873e-06	-1.166610e-09	-3.039206e+01	-7.794914e+01
7.800000e-07	-4.324043e-06	-1.150634e-09	-3.019077e+01	-7.761966e+01
7.900000e-07	-4.294951e-06	-1.155260e-09	-2.998765e+01	-7.728667e+01
8.000000e-07	-4.265566e-06	-1.146624e-09	-2.978248e+01	-7.695018e+01
8.100000e-07	-4.235968e-06	-1.128304e-09	-2.957583e+01	-7.661019e+01
8.200000e-07	-4.206128e-06	-1.117935e-09	-2.936748e+01	-7.626668e+01
8.300000e-07	-4.175938e-06	-1.124542e-09	-2.915669e+01	-7.591963e+01
8.400000e-07	-4.145397e-06	-1.106861e-09	-2.894345e+01	-7.556901e+01
8.500000e-07	-4.114455e-06	-1.106038e-09	-2.872741e+01	-7.521481e+01
8.600000e-07	-4.083206e-06	-1.110689e-09	-2.850923e+01	-7.485698e+01
8.700000e-07	-4.051800e-06	-1.107559e-09	-2.828995e+01	-7.449549e+01
8.800000e-07	-4.020293e-06	-1.088650e-09	-2.806997e+01	-7.413029e+01
8.900000e-07	-3.988664e-06	-1.095563e-09	-2.784913e+01	-7.376135e+01
9.000000e-07	-3.956878e-06	-1.083631e-09	-2.762720e+01	-7.338862e+01
9.100000e-07	-3.924803e-06	-1.067510e-09	-2.740325e+01	-7.301204e+01
9.200000e-07	-3.892339e-06	-1.061313e-09	-2.717659e+01	-7.263157e+01
9.300000e-07	-3.859465e-06	-1.064806e-09	-2.694706e+01	-7.224715e+01
9.400000e-07	-3.826145e-06	-1.047573e-09	-2.671441e+01	-7.185874e+01
9.500000e-07	-3.792429e-06	-1.045344e-09	-2.647900e+01	-7.146627e+01
9.600000e-07	-3.758280e-06	-1.050140e-09	-2.624057e+01	-7.106969e+01
9.700000e-07	-3.723769e-06	-1.041848e-09	-2.599962e+01	-7.066896e+01
9.800000e-07	-3.688896e-06	-1.025932e-09	-2.575613e+01	-7.026403e+01
9.900000e-07	-3.653661e-06	-1.025914e-09	-2.551011e+01	-6.985485e+01
1.000000e-06	-3.618220e-06	-1.018153e-09	-2.526266e+01	-6.944137e+01
1.010000e-06	-3.582645e-06	-1.005181e-09	-2.501428e+01	-6.902356e+01
1.020000e-06	-3.546952e-06	-1.004983e-09	-2.476507e+01	-6.860138e+01
1.030000e-06	-3.511068e-06	-1.007175e-09	-2.451452e+01	-6.817479e+01
1.040000e-06	-3.474940e-06	-9.971787e-10	-2.426227e+01	-6.774378e+01
1.050000e-06	-3.438539e-06	-9.902386e-10	-2.400812e+01	-6.730831e+01
1.060000e-06	-3.401929e-06	-9.882070e-10	-2.375250e+01	-6.686838e+01
1.070000e-06	-3.365146e-06	-9.721865e-10	-2.349568e+01	-6.642397e+01
1.080000e-06	-3.328083e-06	-9.594909e-10	-2.323691e+01	-6.597507e+01
1.090000e-06	-3.290714e-06	-9.561398e-10	-2.297600e+01	-6.552169e+01
1.100000e-06	-3.253129e-06	-9.545206e-10	-2.271357e+01	-6.506384e+01
1.110000e-06	-3.215385e-06	-9.422079e-10	-2.245004e+01	-6.460151e+01
1.120000e-06	-3.177443e-06	-9.386401e-10	-2.218513e+01	-6.413474e+01
1.130000e-06	-3.139261e-06	-9.345530e-10	-2.191854e+01	-6.366353e+01
1.140000e-06	-3.100838e-06	-9.283469e-10	-2.165027e+01	-6.318792e+01
1.150000e-06	-3.062180e-06	-9.196790e-10	-2.138036e+01	-6.270793e+01
1.160000e-06	-3.023301e-06	-9.154826e-10	-2.110890e+01	-6.222360e+01
1.170000e-06	-2.984215e-06	-9.026472e-10	-2.083600e+01	-6.173495e+01
1.180000e-06	-2.944916e-06	-8.902121e-10	-2.056161e+01	-6.124202e+01
1.190000e-06	-2.905474e-06	-8.798459e-10	-2.028622e+01	-6.074484e+01
1.200000e-06	-2.865926e-06	-8.747856e-10	-2.001010e+01	-6.024345e+01
1.210000e-06	-2.826308e-06	-8.666048e-10	-1.973348e+01	-5.973788e+01
1.220000e-06	-2.786561e-06	-8.640429e-10	-1.945597e+01	-5.922815e+01
1.230000e-06	-2.746587e-06	-8.574819e-10	-1.917686e+01	-5.871428e+01
1.240000e-06	-2.706482e-06	-8.450754e-10	-1.889684e+01	-5.819629e+01
1.250000e-06	-2.666290e-06	-8.299928e-10	-1.861622e+01	-5.767419e+01
1.260000e-06	-2.625894e-06	-8.205281e-10	-1.833418e+01	-5.714798e+01
1.270000e-06	-2.585245e-06	-8.095836e-10	-1.805036e+01	-5.661764e+01
1.280000e-06	-2.544318e-06	-8.009119e-10	-1.776461e+01	-5.608314e+01
1.290000e-06	-2.502972e-06	-7.968089e-10	-1.747592e+01	-5.554445e+01
1.300000e-06	-2.461353e-06	-7.920175e-10	-1.718534e+01	-5.500152e+01
1.310000e-06	-2.419584e-06	-7.823389e-10	-1.689370e+01	-5.445427e+01
1.320000e-06	-2.377531e-06	-7.703261e-10	-1.660009e+01	-5.390261e+01
1.330000e-06	-2.335175e-06	-7.593188e-10	-1.630435e+01	-5.334644e+01
1.340000e-06	-2.292522e-06	-7.453495e-10	-1.600655e+01	-5.278562e+01
1.350000e-06	-2.249550e-06	-7.345548e-10	-1.570652e+01	-5.222000e+01
1.360000e-06	-2.206301e-06	-7.281991e-10	-1.540455e+01	-5.164941e+01
1.370000e-06	-2.162968e-06	-7.217322e-10	-1.510199e+01	-5.107364e+01
1.380000e-06	-2.119567e-06	-7.138679e-10	-1.479896e+01	-5.049248e+01
1.390000e-06	-2.075995e-06	-7.039332e-10	-1.449474e+01	-4.990567e+01
1.400000e-06	-2.032315e-06	-6.904017e-10	-1.418977e+01	-4.931294e+01
1.410000e-06	-1.988601e-06	-6.780959e-10	-1.388455e+01	-4.871398e+01
1.420000e-06	-1.944834e-06	-6.652872e-10	-1.357897e+01	-4.810848e+01
1.430000e-06	-1.900994e-06	-6.548717e-10	-1.327287e+01	-4.749607e+01
1.440000e-06	-1.857057e-06	-6.447865e-10	-1.296611e+01	-4.687638e+01
1.450000e-06	-1.813005e-06	-6.369828e-10	-1.265853e+01	-4.624900e+01
1.460000e-06	-1.768885e-06	-6.267294e-10	-1.235048e+01	-4.561351e+01
1.470000e-06	-1.724680e-06	-6.165767e-10	-1.204184e+01	-4.496946e+01
1.480000e-06	-1.680383e-06	-6.045955e-10	-1.173255e+01	-4.431636e+01
1.490000e-06	-1.635995e-06	-5.932973e-10	-1.142263e+01	-4.365374e+01
1.500000e-06	-1.591403e-06	-5.825969e-10	-1.111128e+01	-4.298108e+01
1.510000e-06	-1.546619e-06	-5.735843e-10	-1.079860e+01	-4.229785e+01
1.520000e-06	-1.501772e-06	-5.636271e-10	-1.048548e+01	-4.160352e+01
1.530000e-06	-1.456845e-06	-5.536870e-10	-1.017179e+01	-4.089752e+01
1.540000e-06	-1.411822e-06	-5.444418e-10	-9.857437e+00	-4.017930e+01
1.550000e-06	-1.366694e-06	-5.355698e-10	-9.542354e+00	-3.944830e+01
1.560000e-06	-1.321355e-06	-5.219967e-10	-9.225792e+00	-3.870394e+01
1.570000e-06	-1.275868e-06	-5.080523e-10	-8.908198e+00	-3.794564e+01
1.580000e-06	-1.230309e-06	-4.931586e-10	-8.590102e+00	-3.717286e+01
1.590000e-06	-1.184711e-06	-4.776133e-10	-8.271735e+00	-3.638502e+01
1.600000e-06	-1.139099e-06	-4.635418e-10	-7.953266e+00	-3.558159e+01
1.610000e-06	-1.093398e-06	-4.524352e-10	-7.634178e+00	-3.476202e+01
1.620000e-06	-1.047659e-06	-4.397232e-10	-7.314829e+00	-3.392580e+01
1.630000e-06	-1.001884e-06	-4.248438e-10	-6.995225e+00	-3.307245e+01
1.640000e-06	-9.560300e-07	-4.133862e-10	-6.675069e+00	-3.220148e+01
1.650000e-06	-9.101125e-07	-4.021623e-10	-6.354469e+00	-3.131248e+01
1.660000e-06	-8.641188e-07	-3.896340e-10	-6.033338e+00	-3.040503e+01
1.670000e-06	-8.180806e-07	-3.739989e-10	-5.711896e+00	-2.947876e+01
1.680000e-06	-7.720129e-07	-3.584741e-10	-5.390248e+00	-2.853336e+01
1.690000e-06	-7.258800e-07	-3.414519e-10	-5.068145e+00	-2.756853e+01
1.700000e-06	-6.796941e-07	-3.266495e-10	-4.745671e+00	-2.658406e+01
1.710000e-06	-6.334564e-07	-3.129089e-10	-4.422837e+00	-2.557974e+01
1.720000e-06	-5.872002e-07	-2.996427e-10	-4.099873e+00	-2.455546e+01
1.730000e-06	-5.409405e-07	-2.843621e-10	-3.776884e+00	-2.351113e+01
1.740000e-06	-4.946677e-07	-2.665232e-10	-3.453805e+00	-2.244675e+01
1.750000e-06	-4.482862e-07	-2.478446e-10	-3.129966e+00	-2.136235e+01
1.760000e-06	-4.017853e-07	-2.309577e-10	-2.805293e+00	-2.025805e+01
1.770000e-06	-3.552249e-07	-2.147132e-10	-2.480205e+00	-1.913401e+01
1.780000e-06	-3.086194e-07	-1.989265e-10	-2.154802e+00	-1.799047e+01
1.790000e-06	-2.620168e-07	-1.839695e-10	-1.829420e+00	-1.682774e+01
1.800000e-06	-2.154807e-07	-1.704883e-10	-1.504502e+00	-1.564617e+01
1.810000e-06	-1.689577e-07	-1.556494e-10	-1.179674e+00	-1.444621e+01
1.820000e-06	-1.224150e-07	-1.388258e-10	-8.547100e-01	-1.322835e+01
1.830000e-06	-7.587618e-08	-1.197192e-10	-5.297728e-01	-1.199317e+01
1.840000e-06	-2.930439e-08	-9.937868e-11	-2.046053e-01	-1.074129e+01
1.850000e-06	1.725712e-08	-7.979059e-11	1.204904e-01	-9.473396e+00
1.860000e-06	6.378143e-08	-6.249025e-11	4.453264e-01	-8.190255e+00
1.870000e-06	1.103101e-07	-4.464551e-11	7.701925e-01	-6.892674e+00
1.880000e-06	1.568513e-07	-2.494154e-11	1.095147e+00	-5.581524e+00
1.890000e-06	2.033667e-07	-5.909011e-12	1.419921e+00	-4.257728e+00
1.900000e-06	2.499510e-07	1.171594e-11	1.745175e+00	-2.922258e+00
1.910000e-06	2.965523e-07	2.833869e-11	2.070549e+00	-1.576135e+00
1.920000e-06	3.430839e-07	4.579987e-11	2.395436e+00	-2.204225e-01
1.930000e-06	3.896529e-07	6.660970e-11	2.720583e+00	1.143778e+00
1.940000e-06	4.362290e-07	8.997537e-11	3.045781e+00	2.515330e+00
1.950000e-06	4.826611e-07	1.125815e-10	3.369974e+00	3.893065e+00
1.960000e-06	5.289610e-07	1.336961e-10	3.693243e+00	5.275793e+00
1.970000e-06	5.752250e-07	1.511964e-10	4.016261e+00	6.662299e+00
1.980000e-06	6.215048e-07	1.677604e-10	4.339390e+00	8.051356e+00
1.990000e-06	6.677357e-07	1.832866e-10	4.662177e+00	9.441725e+00
2.000000e-06	7.138787e-07	1.989890e-10	4.984351e+00	1.083216e+01
2.010000e-06	7.599680e-07	2.182545e-10	5.306149e+00	1.222142e+01
2.020000e-06	8.060250e-07	2.384426e-10	5.627723e+00	1.360826e+01
2.030000e-06	8.520517e-07	2.606609e-10	5.949085e+00	1.499146e+01
2.040000e-06	8.979805e-07	2.852707e-10	6.269763e+00	1.636979e+01
2.050000e-06	9.438503e-07	3.065994e-10	6.590029e+00	1.774208e+01
2.060000e-06	9.897300e-07	3.245999e-10	6.910364e+00	1.910713e+01
2.070000e-06	1.035531e-06	3.392559e-10	7.230149e+00	2.046383e+01
2.080000e-06	1.081233e-06	3.544746e-10	7.549246e+00	2.181106e+01
2.090000e-06	1.126904e-06	3.709152e-10	7.868122e+00	2.314775e+01
2.100000e-06	1.172523e-06	3.921045e-10	8.186634e+00	2.447288e+01
2.110000e-06	1.218014e-06	4.147764e-10	8.504258e+00	2.578547e+01
2.120000e-06	1.263349e-06	4.365700e-10	8.820790e+00	2.708458e+01
2.130000e-06	1.308574e-06	4.557718e-10	9.136558e+00	2.836935e+01
2.140000e-06	1.353744e-06	4.728356e-10	9.451935e+00	2.963895e+01
2.150000e-06	1.398830e-06	4.883459e-10	9.766731e+00	3.089261e+01
2.160000e-06	1.443845e-06	5.025660e-10	1.008103e+01	3.212963e+01
2.170000e-06	1.488765e-06	5.188120e-10	1.039466e+01	3.334936e+01
2.180000e-06	1.533582e-06	5.355732e-10	1.070758e+01	3.455122e+01
2.190000e-06	1.578323e-06	5.521376e-10	1.101996e+01	3.573470e+01
2.200000e-06	1.622909e-06	5.697611e-10	1.133126e+01	3.689933e+01
2.210000e-06	1.667310e-06	5.865828e-10	1.164128e+01	3.804472e+01
2.220000e-06	1.711536e-06	6.007492e-10	1.195006e+01	3.917055e+01
2.230000e-06	1.755622e-06	6.129251e-10	1.225788e+01	4.027655e+01
2.240000e-06	1.799603e-06	6.265678e-10	1.256496e+01	4.136253e+01
2.250000e-06	1.843528e-06	6.416878e-10	1.287164e+01	4.242834e+01
2.260000e-06	1.887380e-06	6.581931e-10	1.317782e+01	4.347389e+01
2.270000e-06	1.931130e-06	6.756853e-10	1.348329e+01	4.449917e+01
2.280000e-06	1.974846e-06	6.906573e-10	1.378851e+01	4.550420e+01
2.290000e-06	2.018541e-06	7.034501e-10	1.409359e+01	4.648908e+01
2.300000e-06	2.062156e-06	7.141387e-10	1.439812e+01	4.745392e+01
2.310000e-06	2.105692e-06	7.242452e-10	1.470209e+01	4.839893e+01
2.320000e-06	2.149183e-06	7.351071e-10	1.500575e+01	4.932431e+01
2.330000e-06	2.192602e-06	7.495617e-10	1.530890e+01	5.023034e+01
2.340000e-06	2.235802e-06	7.642814e-10	1.561053e+01	5.111732e+01
2.350000e-06	2.278772e-06	7.765626e-10	1.591054e+01	5.198559e+01
2.360000e-06	2.321563e-06	7.869405e-10	1.620932e+01	5.283551e+01
2.370000e-06	2.364088e-06	7.975278e-10	1.650623e+01	5.366749e+01
2.380000e-06	2.406235e-06	8.067393e-10	1.680050e+01	5.448194e+01
2.390000e-06	2.448003e-06	8.162846e-10	1.709212e+01	5.527929e+01
2.400000e-06	2.489464e-06	8.262974e-10	1.738161e+01	5.606000e+01
2.410000e-06	2.530660e-06	8.370308e-10	1.766924e+01	5.682454e+01
2.420000e-06	2.571628e-06	8.481631e-10	1.795529e+01	5.757338e+01
2.430000e-06	2.612334e-06	8.589672e-10	1.823950e+01	5.830700e+01
2.440000e-06	2.652736e-06	8.694057e-10	1.852159e+01	5.902588e+01
2.450000e-06	2.692946e-06	8.769549e-10	1.880234e+01	5.973051e+01
2.460000e-06	2.733016e-06	8.832800e-10	1.908211e+01	6.042135e+01
2.470000e-06	2.772937e-06	8.903463e-10	1.936084e+01	6.109888e+01
2.480000e-06	2.812738e-06	8.976837e-10	1.963873e+01	6.176356e+01
2.490000e-06	2.852416e-06	9.055099e-10	1.991577e+01	6.241583e+01
2.500000e-06	2.891972e-06	9.140230e-10	2.019195e+01	6.305615e+01
2.510000e-06	2.931451e-06	9.244551e-10	2.046760e+01	6.368491e+01
2.520000e-06	2.970735e-06	9.348164e-10	2.074188e+01	6.430253e+01
2.530000e-06	3.009761e-06	9.433845e-10	2.101436e+01	6.490940e+01
2.540000e-06	3.048591e-06	9.526490e-10	2.128548e+01	6.550586e+01
2.550000e-06	3.087158e-06	9.619102e-10	2.155475e+01	6.609227e+01
2.560000e-06	3.125447e-06	9.691032e-10	2.182209e+01	6.666895e+01
2.570000e-06	3.163530e-06	9.758235e-10	2.208799e+01	6.723620e+01
2.580000e-06	3.201435e-06	9.846833e-10	2.235264e+01	6.779429e+01
2.590000e-06	3.239174e-06	9.942710e-10	2.261614e+01	6.834348e+01
2.600000e-06	3.276740e-06	1.002753e-09	2.287843e+01	6.888401e+01
2.610000e-06	3.314061e-06	1.010161e-09	2.313901e+01	6.941607e+01
2.620000e-06	3.351109e-06	1.018310e-09	2.339767e+01	6.993986e+01
2.630000e-06	3.387897e-06	1.025609e-09	2.365454e+01	7.045555e+01
2.640000e-06	3.424440e-06	1.031545e-09	2.390968e+01	7.096329e+01
2.650000e-06	3.460728e-06	1.038463e-09	2.416304e+01	7.146320e+01
2.660000e-06	3.496785e-06	1.048777e-09	2.441480e+01	7.195541e+01
2.670000e-06	3.532699e-06	1.057730e-09	2.466555e+01	7.243999e+01
2.680000e-06	3.568516e-06	1.063571e-09	2.491563e+01	7.291705e+01
2.690000e-06	3.604170e-06	1.067247e-09	2.516457e+01	7.338663e+01
2.700000e-06	3.639635e-06	1.069039e-09	2.541219e+01	7.384880e+01
2.710000e-06	3.674948e-06	1.074389e-09	2.565875e+01	7.430359e+01
2.720000e-06	3.710029e-06	1.082567e-09	2.590368e+01	7.475105e+01
2.730000e-06	3.744679e-06	1.090598e-09	2.614561e+01	7.519120e+01
2.740000e-06	3.778891e-06	1.098389e-09	2.638448e+01	7.562405e+01
2.750000e-06	3.812720e-06	1.104551e-09	2.662067e+01	7.604962e+01
2.760000e-06	3.846043e-06	1.109708e-09	2.685334e+01	7.646792e+01
2.770000e-06	3.878930e-06	1.113867e-09	2.708296e+01	7.687896e+01
2.780000e-06	3.911454e-06	1.116479e-09	2.731005e+01	7.728274e+01
2.790000e-06	3.943585e-06	1.122168e-09	2.753438e+01	7.767928e+01
2.800000e-06	3.975447e-06	1.130594e-09	2.775685e+01	7.806857e+01
2.810000e-06	4.007240e-06	1.140042e-09	2.797883e+01	7.845062e+01
2.820000e-06	4.038934e-06	1.148616e-09	2.820012e+01	7.882546e+01
2.830000e-06	4.070380e-06	1.154022e-09	2.841967e+01	7.919308e+01
2.840000e-06	4.101660e-06	1.157248e-09	2.863808e+01	7.955352e+01
2.850000e-06	4.132711e-06	1.157560e-09	2.885488e+01	7.990680e+01
2.860000e-06	4.163366e-06	1.158198e-09	2.906891e+01	8.025294e+01
2.870000e-06	4.193616e-06	1.162494e-09	2.928012e+01	8.059199e+01
2.880000e-06	4.223568e-06	1.168436e-09	2.948924e+01	8.092397e+01
2.890000e-06	4.253299e-06	1.173510e-09	2.969683e+01	8.124895e+01
2.900000e-06	4.282752e-06	1.176242e-09	2.990247e+01	8.156697e+01
2.910000e-06	4.311902e-06	1.178741e-09	3.010600e+01	8.187810e+01
