# Temperatura_=_14.0
# Concentracion g/m^3_=_1620.0
# C_Vs_to_Am_M_A/Vsm_=_65563218390.804596
# pendiente_HvsI_1/m_=_3716.3
# ordenada_HvsI_A/m_=_1297.0
# frecuencia_Hz_=_135108.2089233982

Tiempo_(s)	Campo_(V.s)	Magnetizacion_(V.s)	Campo_(kA/m)	Magnetizacion_(A/m)
0.000000e+00	-5.513436e-06	-1.081755e-09	-3.836620e+01	-7.110428e+01
1.000000e-08	-5.513640e-06	-1.082306e-09	-3.836762e+01	-7.105848e+01
2.000000e-08	-5.513432e-06	-1.081246e-09	-3.836617e+01	-7.101312e+01
3.000000e-08	-5.512741e-06	-1.080246e-09	-3.836137e+01	-7.096820e+01
4.000000e-08	-5.511631e-06	-1.079981e-09	-3.835364e+01	-7.092373e+01
5.000000e-08	-5.510029e-06	-1.080045e-09	-3.834249e+01	-7.087970e+01
6.000000e-08	-5.507758e-06	-1.082000e-09	-3.832669e+01	-7.083608e+01
7.000000e-08	-5.504879e-06	-1.082954e-09	-3.830665e+01	-7.079280e+01
8.000000e-08	-5.501550e-06	-1.082596e-09	-3.828349e+01	-7.074980e+01
9.000000e-08	-5.497793e-06	-1.076087e-09	-3.825735e+01	-7.070700e+01
1.000000e-07	-5.493581e-06	-1.063107e-09	-3.822804e+01	-7.066428e+01
1.100000e-07	-5.489052e-06	-1.062602e-09	-3.819652e+01	-7.062153e+01
1.200000e-07	-5.484369e-06	-1.117274e-09	-3.816394e+01	-7.057861e+01
1.300000e-07	-5.479449e-06	-1.115642e-09	-3.812970e+01	-7.053537e+01
1.400000e-07	-5.474166e-06	-1.088464e-09	-3.809294e+01	-7.049165e+01
1.500000e-07	-5.468487e-06	-1.041186e-09	-3.805342e+01	-7.044727e+01
1.600000e-07	-5.462489e-06	-1.078899e-09	-3.801168e+01	-7.040204e+01
1.700000e-07	-5.456035e-06	-1.090133e-09	-3.796676e+01	-7.035578e+01
1.800000e-07	-5.449142e-06	-1.056266e-09	-3.791880e+01	-7.030827e+01
1.900000e-07	-5.441947e-06	-1.044312e-09	-3.786873e+01	-7.025931e+01
2.000000e-07	-5.434407e-06	-1.091759e-09	-3.781626e+01	-7.020868e+01
2.100000e-07	-5.426565e-06	-1.135775e-09	-3.776170e+01	-7.015616e+01
2.200000e-07	-5.418450e-06	-1.100030e-09	-3.770522e+01	-7.010154e+01
2.300000e-07	-5.410032e-06	-1.070099e-09	-3.764665e+01	-7.004460e+01
2.400000e-07	-5.401190e-06	-1.061861e-09	-3.758512e+01	-6.998512e+01
2.500000e-07	-5.391653e-06	-1.088299e-09	-3.751876e+01	-6.992289e+01
2.600000e-07	-5.381430e-06	-1.074083e-09	-3.744761e+01	-6.985769e+01
2.700000e-07	-5.370759e-06	-1.080521e-09	-3.737336e+01	-6.978932e+01
2.800000e-07	-5.359553e-06	-1.073381e-09	-3.729538e+01	-6.971760e+01
2.900000e-07	-5.347835e-06	-1.084958e-09	-3.721384e+01	-6.964233e+01
3.000000e-07	-5.335866e-06	-1.068725e-09	-3.713055e+01	-6.956335e+01
3.100000e-07	-5.323592e-06	-1.066247e-09	-3.704514e+01	-6.948048e+01
3.200000e-07	-5.310816e-06	-1.051938e-09	-3.695624e+01	-6.939358e+01
3.300000e-07	-5.297587e-06	-1.065228e-09	-3.686418e+01	-6.930252e+01
3.400000e-07	-5.284018e-06	-1.059363e-09	-3.676976e+01	-6.920718e+01
3.500000e-07	-5.270014e-06	-1.055480e-09	-3.667231e+01	-6.910745e+01
3.600000e-07	-5.255524e-06	-1.053832e-09	-3.657148e+01	-6.900325e+01
3.700000e-07	-5.240617e-06	-1.066388e-09	-3.646775e+01	-6.889450e+01
3.800000e-07	-5.225202e-06	-1.041537e-09	-3.636048e+01	-6.878115e+01
3.900000e-07	-5.209227e-06	-1.029616e-09	-3.624931e+01	-6.866318e+01
4.000000e-07	-5.192842e-06	-1.045974e-09	-3.613530e+01	-6.854056e+01
4.100000e-07	-5.176144e-06	-1.044893e-09	-3.601910e+01	-6.841329e+01
4.200000e-07	-5.159037e-06	-1.026534e-09	-3.590005e+01	-6.828140e+01
4.300000e-07	-5.141605e-06	-1.044470e-09	-3.577875e+01	-6.814493e+01
4.400000e-07	-5.123960e-06	-1.060969e-09	-3.565597e+01	-6.800391e+01
4.500000e-07	-5.105924e-06	-1.018774e-09	-3.553046e+01	-6.785843e+01
4.600000e-07	-5.087387e-06	-1.018044e-09	-3.540147e+01	-6.770857e+01
4.700000e-07	-5.068485e-06	-1.045554e-09	-3.526993e+01	-6.755443e+01
4.800000e-07	-5.049301e-06	-1.031839e-09	-3.513644e+01	-6.739612e+01
4.900000e-07	-5.029884e-06	-1.002314e-09	-3.500132e+01	-6.723377e+01
5.000000e-07	-5.010259e-06	-1.037089e-09	-3.486476e+01	-6.706752e+01
5.100000e-07	-4.990365e-06	-1.029281e-09	-3.472633e+01	-6.689751e+01
5.200000e-07	-4.970155e-06	-9.972387e-10	-3.458569e+01	-6.672389e+01
5.300000e-07	-4.949557e-06	-1.007471e-09	-3.444235e+01	-6.654684e+01
5.400000e-07	-4.928587e-06	-1.025513e-09	-3.429643e+01	-6.636652e+01
5.500000e-07	-4.907212e-06	-9.805523e-10	-3.414769e+01	-6.618310e+01
5.600000e-07	-4.885472e-06	-9.870388e-10	-3.399640e+01	-6.599675e+01
5.700000e-07	-4.863467e-06	-1.016070e-09	-3.384328e+01	-6.580766e+01
5.800000e-07	-4.841110e-06	-9.962005e-10	-3.368770e+01	-6.561598e+01
5.900000e-07	-4.818376e-06	-9.709201e-10	-3.352951e+01	-6.542190e+01
6.000000e-07	-4.795351e-06	-1.000997e-09	-3.336928e+01	-6.522558e+01
6.100000e-07	-4.772044e-06	-9.942698e-10	-3.320710e+01	-6.502719e+01
6.200000e-07	-4.748467e-06	-9.715074e-10	-3.304303e+01	-6.482686e+01
6.300000e-07	-4.724667e-06	-9.850162e-10	-3.287742e+01	-6.462475e+01
6.400000e-07	-4.700614e-06	-9.944498e-10	-3.271004e+01	-6.442099e+01
6.500000e-07	-4.676171e-06	-9.691866e-10	-3.253995e+01	-6.421569e+01
6.600000e-07	-4.651195e-06	-9.702796e-10	-3.236615e+01	-6.400898e+01
6.700000e-07	-4.625713e-06	-9.785099e-10	-3.218883e+01	-6.380093e+01
6.800000e-07	-4.599791e-06	-9.602694e-10	-3.200844e+01	-6.359163e+01
6.900000e-07	-4.573339e-06	-9.546454e-10	-3.182437e+01	-6.338113e+01
7.000000e-07	-4.546460e-06	-9.668643e-10	-3.163733e+01	-6.316949e+01
7.100000e-07	-4.519272e-06	-9.592180e-10	-3.144814e+01	-6.295671e+01
7.200000e-07	-4.491810e-06	-9.449133e-10	-3.125704e+01	-6.274282e+01
7.300000e-07	-4.464199e-06	-9.505654e-10	-3.106491e+01	-6.252780e+01
7.400000e-07	-4.436384e-06	-9.448723e-10	-3.087135e+01	-6.231162e+01
7.500000e-07	-4.408286e-06	-9.329794e-10	-3.067582e+01	-6.209422e+01
7.600000e-07	-4.379948e-06	-9.346929e-10	-3.047863e+01	-6.187555e+01
7.700000e-07	-4.351350e-06	-9.399864e-10	-3.027962e+01	-6.165550e+01
7.800000e-07	-4.322375e-06	-9.293548e-10	-3.007800e+01	-6.143398e+01
7.900000e-07	-4.293038e-06	-9.293066e-10	-2.987385e+01	-6.121086e+01
8.000000e-07	-4.263448e-06	-9.276767e-10	-2.966794e+01	-6.098600e+01
8.100000e-07	-4.233569e-06	-9.167750e-10	-2.946003e+01	-6.075925e+01
8.200000e-07	-4.203353e-06	-9.038454e-10	-2.924976e+01	-6.053043e+01
8.300000e-07	-4.172864e-06	-9.053924e-10	-2.903760e+01	-6.029937e+01
8.400000e-07	-4.142114e-06	-8.965556e-10	-2.882362e+01	-6.006585e+01
8.500000e-07	-4.111072e-06	-8.922710e-10	-2.860761e+01	-5.982969e+01
8.600000e-07	-4.079793e-06	-8.949685e-10	-2.838995e+01	-5.959066e+01
8.700000e-07	-4.048331e-06	-8.941970e-10	-2.817101e+01	-5.934854e+01
8.800000e-07	-4.016671e-06	-8.799793e-10	-2.795070e+01	-5.910310e+01
8.900000e-07	-3.984788e-06	-8.737969e-10	-2.772884e+01	-5.885412e+01
9.000000e-07	-3.952674e-06	-8.658168e-10	-2.750537e+01	-5.860135e+01
9.100000e-07	-3.920299e-06	-8.528657e-10	-2.728008e+01	-5.834457e+01
9.200000e-07	-3.887500e-06	-8.457479e-10	-2.705185e+01	-5.808354e+01
9.300000e-07	-3.854322e-06	-8.481051e-10	-2.682097e+01	-5.781805e+01
9.400000e-07	-3.820732e-06	-8.430402e-10	-2.658723e+01	-5.754786e+01
9.500000e-07	-3.786574e-06	-8.401295e-10	-2.634954e+01	-5.727278e+01
9.600000e-07	-3.751996e-06	-8.401381e-10	-2.610892e+01	-5.699259e+01
9.700000e-07	-3.717126e-06	-8.321554e-10	-2.586627e+01	-5.670712e+01
9.800000e-07	-3.681965e-06	-8.203807e-10	-2.562160e+01	-5.641618e+01
9.900000e-07	-3.646556e-06	-8.160172e-10	-2.537519e+01	-5.611962e+01
1.000000e-06	-3.611020e-06	-8.146633e-10	-2.512791e+01	-5.581730e+01
1.010000e-06	-3.575395e-06	-8.107331e-10	-2.488000e+01	-5.550908e+01
1.020000e-06	-3.539606e-06	-8.116435e-10	-2.463096e+01	-5.519488e+01
1.030000e-06	-3.503573e-06	-8.090290e-10	-2.438022e+01	-5.487460e+01
1.040000e-06	-3.467253e-06	-7.996688e-10	-2.412748e+01	-5.454819e+01
1.050000e-06	-3.430695e-06	-7.902351e-10	-2.387309e+01	-5.421560e+01
1.060000e-06	-3.393947e-06	-7.864876e-10	-2.361737e+01	-5.387682e+01
1.070000e-06	-3.356964e-06	-7.786824e-10	-2.336002e+01	-5.353185e+01
1.080000e-06	-3.319693e-06	-7.735053e-10	-2.310066e+01	-5.318073e+01
1.090000e-06	-3.282169e-06	-7.715356e-10	-2.283954e+01	-5.282352e+01
1.100000e-06	-3.244420e-06	-7.685469e-10	-2.257686e+01	-5.246027e+01
1.110000e-06	-3.206415e-06	-7.592085e-10	-2.231239e+01	-5.209111e+01
1.120000e-06	-3.168191e-06	-7.531448e-10	-2.204641e+01	-5.171613e+01
1.130000e-06	-3.129773e-06	-7.460044e-10	-2.177907e+01	-5.133549e+01
1.140000e-06	-3.091141e-06	-7.378227e-10	-2.151024e+01	-5.094933e+01
1.150000e-06	-3.052291e-06	-7.301106e-10	-2.123990e+01	-5.055784e+01
1.160000e-06	-3.013252e-06	-7.273088e-10	-2.096824e+01	-5.016120e+01
1.170000e-06	-2.974028e-06	-7.206032e-10	-2.069529e+01	-4.975962e+01
1.180000e-06	-2.934644e-06	-7.125552e-10	-2.042123e+01	-4.935331e+01
1.190000e-06	-2.895177e-06	-7.048747e-10	-2.014659e+01	-4.894249e+01
1.200000e-06	-2.855647e-06	-6.971089e-10	-1.987151e+01	-4.852739e+01
1.210000e-06	-2.815984e-06	-6.888878e-10	-1.959551e+01	-4.810824e+01
1.220000e-06	-2.776152e-06	-6.847028e-10	-1.931834e+01	-4.768528e+01
1.230000e-06	-2.736129e-06	-6.790807e-10	-1.903983e+01	-4.725873e+01
1.240000e-06	-2.695915e-06	-6.714320e-10	-1.876000e+01	-4.682882e+01
1.250000e-06	-2.655488e-06	-6.643547e-10	-1.847868e+01	-4.639576e+01
1.260000e-06	-2.614848e-06	-6.609152e-10	-1.819588e+01	-4.595976e+01
1.270000e-06	-2.573979e-06	-6.577563e-10	-1.791148e+01	-4.552100e+01
1.280000e-06	-2.532755e-06	-6.523193e-10	-1.762462e+01	-4.507965e+01
1.290000e-06	-2.491144e-06	-6.473124e-10	-1.733506e+01	-4.463587e+01
1.300000e-06	-2.449200e-06	-6.391833e-10	-1.704318e+01	-4.418978e+01
1.310000e-06	-2.406994e-06	-6.287436e-10	-1.674948e+01	-4.374147e+01
1.320000e-06	-2.364573e-06	-6.187820e-10	-1.645429e+01	-4.329101e+01
1.330000e-06	-2.321955e-06	-6.124418e-10	-1.615773e+01	-4.283845e+01
1.340000e-06	-2.279062e-06	-6.068582e-10	-1.585925e+01	-4.238378e+01
1.350000e-06	-2.235860e-06	-6.030674e-10	-1.555862e+01	-4.192695e+01
1.360000e-06	-2.192511e-06	-5.976074e-10	-1.525697e+01	-4.146791e+01
1.370000e-06	-2.149061e-06	-5.899052e-10	-1.495461e+01	-4.100652e+01
1.380000e-06	-2.105501e-06	-5.792503e-10	-1.465150e+01	-4.054263e+01
1.390000e-06	-2.061867e-06	-5.699302e-10	-1.434786e+01	-4.007604e+01
1.400000e-06	-2.018158e-06	-5.600970e-10	-1.404370e+01	-3.960650e+01
1.410000e-06	-1.974366e-06	-5.513830e-10	-1.373897e+01	-3.913372e+01
1.420000e-06	-1.930453e-06	-5.447320e-10	-1.343339e+01	-3.865735e+01
1.430000e-06	-1.886455e-06	-5.396494e-10	-1.312722e+01	-3.817703e+01
1.440000e-06	-1.842416e-06	-5.310405e-10	-1.282077e+01	-3.769231e+01
1.450000e-06	-1.798264e-06	-5.224742e-10	-1.251353e+01	-3.720274e+01
1.460000e-06	-1.753977e-06	-5.148137e-10	-1.220535e+01	-3.670780e+01
1.470000e-06	-1.709570e-06	-5.067426e-10	-1.189634e+01	-3.620693e+01
1.480000e-06	-1.664995e-06	-4.977970e-10	-1.158616e+01	-3.569956e+01
1.490000e-06	-1.620242e-06	-4.902405e-10	-1.127474e+01	-3.518506e+01
1.500000e-06	-1.575375e-06	-4.845503e-10	-1.096252e+01	-3.466276e+01
1.510000e-06	-1.530342e-06	-4.787093e-10	-1.064915e+01	-3.413199e+01
1.520000e-06	-1.485163e-06	-4.715282e-10	-1.033477e+01	-3.359203e+01
1.530000e-06	-1.439937e-06	-4.648738e-10	-1.002005e+01	-3.304214e+01
1.540000e-06	-1.394626e-06	-4.576667e-10	-9.704745e+00	-3.248158e+01
1.550000e-06	-1.349248e-06	-4.472324e-10	-9.388974e+00	-3.190958e+01
1.560000e-06	-1.303801e-06	-4.361394e-10	-9.072728e+00	-3.132537e+01
1.570000e-06	-1.258300e-06	-4.251108e-10	-8.756099e+00	-3.072816e+01
1.580000e-06	-1.212714e-06	-4.139386e-10	-8.438881e+00	-3.011719e+01
1.590000e-06	-1.167000e-06	-4.019534e-10	-8.120774e+00	-2.949168e+01
1.600000e-06	-1.121223e-06	-3.892884e-10	-7.802228e+00	-2.885088e+01
1.610000e-06	-1.075310e-06	-3.759497e-10	-7.482734e+00	-2.819405e+01
1.620000e-06	-1.029251e-06	-3.632618e-10	-7.162224e+00	-2.752047e+01
1.630000e-06	-9.831546e-07	-3.513674e-10	-6.841452e+00	-2.682945e+01
1.640000e-06	-9.370179e-07	-3.406485e-10	-6.520402e+00	-2.612035e+01
1.650000e-06	-8.908536e-07	-3.300707e-10	-6.199159e+00	-2.539253e+01
1.660000e-06	-8.446845e-07	-3.199768e-10	-5.877884e+00	-2.464544e+01
1.670000e-06	-7.985104e-07	-3.096353e-10	-5.556573e+00	-2.387855e+01
1.680000e-06	-7.522385e-07	-2.994863e-10	-5.234583e+00	-2.309140e+01
1.690000e-06	-7.058280e-07	-2.878811e-10	-4.911626e+00	-2.228357e+01
1.700000e-06	-6.594054e-07	-2.755739e-10	-4.588587e+00	-2.145473e+01
1.710000e-06	-6.129666e-07	-2.639486e-10	-4.265435e+00	-2.060459e+01
1.720000e-06	-5.664004e-07	-2.517181e-10	-3.941396e+00	-1.973296e+01
1.730000e-06	-5.197602e-07	-2.378839e-10	-3.616842e+00	-1.883970e+01
1.740000e-06	-4.731641e-07	-2.229856e-10	-3.292594e+00	-1.792476e+01
1.750000e-06	-4.266125e-07	-2.062078e-10	-2.968657e+00	-1.698816e+01
1.760000e-06	-3.799149e-07	-1.907069e-10	-2.643704e+00	-1.603002e+01
1.770000e-06	-3.330502e-07	-1.750862e-10	-2.317587e+00	-1.505052e+01
1.780000e-06	-2.861738e-07	-1.615399e-10	-1.991390e+00	-1.404994e+01
1.790000e-06	-2.393601e-07	-1.505481e-10	-1.665629e+00	-1.302865e+01
1.800000e-06	-1.926335e-07	-1.382066e-10	-1.340473e+00	-1.198708e+01
1.810000e-06	-1.458967e-07	-1.235006e-10	-1.015247e+00	-1.092577e+01
1.820000e-06	-9.901977e-08	-1.053637e-10	-6.890463e-01	-9.845345e+00
1.830000e-06	-5.204087e-08	-8.596823e-11	-3.621354e-01	-8.746487e+00
1.840000e-06	-5.063074e-09	-6.693791e-11	-3.523228e-02	-7.629978e+00
1.850000e-06	4.188709e-08	-5.075195e-11	2.914786e-01	-6.496673e+00
1.860000e-06	8.871811e-08	-3.537821e-11	6.173604e-01	-5.347498e+00
1.870000e-06	1.354660e-07	-2.043205e-11	9.426638e-01	-4.183455e+00
1.880000e-06	1.821945e-07	-6.922187e-12	1.267832e+00	-3.005608e+00
1.890000e-06	2.289101e-07	7.104742e-12	1.592911e+00	-1.815086e+00
1.900000e-06	2.756534e-07	2.428433e-11	1.918182e+00	-6.130738e-01
1.910000e-06	3.223885e-07	4.317427e-11	2.243396e+00	5.991898e-01
1.920000e-06	3.691685e-07	6.351711e-11	2.568923e+00	1.820420e+00
1.930000e-06	4.159377e-07	8.386973e-11	2.894375e+00	3.049293e+00
1.940000e-06	4.626515e-07	1.018588e-10	3.219441e+00	4.284447e+00
1.950000e-06	5.093481e-07	1.174483e-10	3.544387e+00	5.524494e+00
1.960000e-06	5.558693e-07	1.328376e-10	3.868113e+00	6.768023e+00
1.970000e-06	6.022466e-07	1.484889e-10	4.190838e+00	8.013610e+00
1.980000e-06	6.485985e-07	1.654016e-10	4.513385e+00	9.259819e+00
1.990000e-06	6.949198e-07	1.834970e-10	4.835720e+00	1.050521e+01
2.000000e-06	7.412130e-07	2.018328e-10	5.157860e+00	1.174837e+01
2.010000e-06	7.874606e-07	2.207175e-10	5.479681e+00	1.298786e+01
2.020000e-06	8.336688e-07	2.393491e-10	5.801229e+00	1.422228e+01
2.030000e-06	8.798231e-07	2.590908e-10	6.122402e+00	1.545027e+01
2.040000e-06	9.258557e-07	2.771718e-10	6.442728e+00	1.667047e+01
2.050000e-06	9.718053e-07	2.927163e-10	6.762476e+00	1.788158e+01
2.060000e-06	1.017732e-06	3.084204e-10	7.082063e+00	1.908234e+01
2.070000e-06	1.063574e-06	3.248946e-10	7.401062e+00	2.027153e+01
2.080000e-06	1.109380e-06	3.419223e-10	7.719814e+00	2.144798e+01
2.090000e-06	1.155164e-06	3.598085e-10	8.038406e+00	2.261059e+01
2.100000e-06	1.200851e-06	3.778635e-10	8.356332e+00	2.375833e+01
2.110000e-06	1.246488e-06	3.946909e-10	8.673904e+00	2.489022e+01
2.120000e-06	1.291959e-06	4.100553e-10	8.990319e+00	2.600535e+01
2.130000e-06	1.337242e-06	4.252885e-10	9.305431e+00	2.710290e+01
2.140000e-06	1.382569e-06	4.385543e-10	9.620849e+00	2.818210e+01
2.150000e-06	1.427855e-06	4.488305e-10	9.935978e+00	2.924229e+01
2.160000e-06	1.472991e-06	4.606940e-10	1.025006e+01	3.028286e+01
2.170000e-06	1.517973e-06	4.752734e-10	1.056308e+01	3.130330e+01
2.180000e-06	1.562867e-06	4.907716e-10	1.087548e+01	3.230317e+01
2.190000e-06	1.607690e-06	5.071893e-10	1.118739e+01	3.328212e+01
2.200000e-06	1.652346e-06	5.226369e-10	1.149814e+01	3.423986e+01
2.210000e-06	1.696865e-06	5.350923e-10	1.180793e+01	3.517621e+01
2.220000e-06	1.741256e-06	5.455676e-10	1.211683e+01	3.609104e+01
2.230000e-06	1.785474e-06	5.565631e-10	1.242453e+01	3.698430e+01
2.240000e-06	1.829545e-06	5.690494e-10	1.273120e+01	3.785603e+01
2.250000e-06	1.873519e-06	5.818370e-10	1.303721e+01	3.870633e+01
2.260000e-06	1.917373e-06	5.951439e-10	1.334237e+01	3.953536e+01
2.270000e-06	1.961142e-06	6.067489e-10	1.364695e+01	4.034335e+01
2.280000e-06	2.004905e-06	6.159196e-10	1.395148e+01	4.113059e+01
2.290000e-06	2.048621e-06	6.247613e-10	1.425569e+01	4.189743e+01
2.300000e-06	2.092211e-06	6.330766e-10	1.455901e+01	4.264426e+01
2.310000e-06	2.135731e-06	6.406429e-10	1.486186e+01	4.337152e+01
2.320000e-06	2.179200e-06	6.511180e-10	1.516434e+01	4.407971e+01
2.330000e-06	2.222550e-06	6.663827e-10	1.546600e+01	4.476933e+01
2.340000e-06	2.265820e-06	6.788854e-10	1.576710e+01	4.544094e+01
2.350000e-06	2.308983e-06	6.861870e-10	1.606746e+01	4.609512e+01
2.360000e-06	2.351971e-06	6.922640e-10	1.636660e+01	4.673248e+01
2.370000e-06	2.394740e-06	6.977138e-10	1.666422e+01	4.735361e+01
2.380000e-06	2.437107e-06	7.038881e-10	1.695903e+01	4.795917e+01
2.390000e-06	2.479079e-06	7.123975e-10	1.725110e+01	4.854977e+01
2.400000e-06	2.520745e-06	7.224895e-10	1.754104e+01	4.912606e+01
2.410000e-06	2.562074e-06	7.340091e-10	1.782864e+01	4.968868e+01
2.420000e-06	2.603122e-06	7.453615e-10	1.811428e+01	5.023824e+01
2.430000e-06	2.643822e-06	7.545224e-10	1.839749e+01	5.077537e+01
2.440000e-06	2.684156e-06	7.595585e-10	1.867816e+01	5.130067e+01
2.450000e-06	2.724268e-06	7.628623e-10	1.895729e+01	5.181472e+01
2.460000e-06	2.764219e-06	7.673778e-10	1.923530e+01	5.231808e+01
2.470000e-06	2.804066e-06	7.747590e-10	1.951258e+01	5.281130e+01
2.480000e-06	2.843809e-06	7.851073e-10	1.978914e+01	5.329488e+01
2.490000e-06	2.883435e-06	7.956031e-10	2.006488e+01	5.376931e+01
2.500000e-06	2.922952e-06	8.048181e-10	2.033987e+01	5.423503e+01
2.510000e-06	2.962347e-06	8.130745e-10	2.061401e+01	5.469247e+01
2.520000e-06	3.001557e-06	8.196930e-10	2.088686e+01	5.514200e+01
2.530000e-06	3.040550e-06	8.251966e-10	2.115820e+01	5.558398e+01
2.540000e-06	3.079389e-06	8.321129e-10	2.142847e+01	5.601873e+01
2.550000e-06	3.118040e-06	8.395204e-10	2.169742e+01	5.644651e+01
2.560000e-06	3.156385e-06	8.453108e-10	2.196425e+01	5.686758e+01
2.570000e-06	3.194526e-06	8.513873e-10	2.222967e+01	5.728215e+01
2.580000e-06	3.232491e-06	8.589291e-10	2.249385e+01	5.769039e+01
2.590000e-06	3.270239e-06	8.654572e-10	2.275653e+01	5.809245e+01
2.600000e-06	3.307748e-06	8.699044e-10	2.301754e+01	5.848844e+01
2.610000e-06	3.345017e-06	8.743138e-10	2.327688e+01	5.887846e+01
2.620000e-06	3.382028e-06	8.792488e-10	2.353443e+01	5.926255e+01
2.630000e-06	3.418812e-06	8.834096e-10	2.379040e+01	5.964075e+01
2.640000e-06	3.455385e-06	8.876850e-10	2.404490e+01	6.001308e+01
2.650000e-06	3.491663e-06	8.931234e-10	2.429734e+01	6.037951e+01
2.660000e-06	3.527720e-06	8.996786e-10	2.454825e+01	6.074002e+01
2.670000e-06	3.563584e-06	9.053445e-10	2.479782e+01	6.109457e+01
2.680000e-06	3.599275e-06	9.080910e-10	2.504618e+01	6.144310e+01
2.690000e-06	3.634815e-06	9.082975e-10	2.529349e+01	6.178554e+01
2.700000e-06	3.670296e-06	9.095725e-10	2.554039e+01	6.212181e+01
2.710000e-06	3.705636e-06	9.143664e-10	2.578631e+01	6.245184e+01
2.720000e-06	3.740691e-06	9.206266e-10	2.603025e+01	6.277553e+01
2.730000e-06	3.775408e-06	9.260987e-10	2.627184e+01	6.309281e+01
2.740000e-06	3.809728e-06	9.318519e-10	2.651065e+01	6.340360e+01
2.750000e-06	3.843483e-06	9.370007e-10	2.674554e+01	6.370781e+01
2.760000e-06	3.876633e-06	9.400458e-10	2.697622e+01	6.400537e+01
2.770000e-06	3.909328e-06	9.414818e-10	2.720374e+01	6.429622e+01
2.780000e-06	3.941695e-06	9.449458e-10	2.742897e+01	6.458031e+01
2.790000e-06	3.973760e-06	9.495036e-10	2.765210e+01	6.485758e+01
2.800000e-06	4.005583e-06	9.520519e-10	2.787355e+01	6.512801e+01
2.810000e-06	4.037287e-06	9.549056e-10	2.809416e+01	6.539159e+01
2.820000e-06	4.068824e-06	9.597837e-10	2.831362e+01	6.564830e+01
2.830000e-06	4.100185e-06	9.662800e-10	2.853185e+01	6.589816e+01
2.840000e-06	4.131389e-06	9.712795e-10	2.874899e+01	6.614120e+01
2.850000e-06	4.162334e-06	9.735527e-10	2.896433e+01	6.637745e+01
2.860000e-06	4.192880e-06	9.755910e-10	2.917688e+01	6.660698e+01
2.870000e-06	4.223054e-06	9.785300e-10	2.938685e+01	6.682986e+01
2.880000e-06	4.252962e-06	9.809885e-10	2.959498e+01	6.704617e+01
2.890000e-06	4.282649e-06	9.824277e-10	2.980156e+01	6.725603e+01
2.900000e-06	4.312149e-06	9.839315e-10	3.000684e+01	6.745954e+01
2.910000e-06	4.341386e-06	9.876989e-10	3.021029e+01	6.765683e+01
