# Temperatura_=_-0.3
# Concentracion g/m^3_=_1620.0
# C_Vs_to_Am_M_A/Vsm_=_65563218390.804596
# pendiente_HvsI_1/m_=_3716.3
# ordenada_HvsI_A/m_=_1297.0
# frecuencia_Hz_=_135090.08388176005

Tiempo_(s)	Campo_(V.s)	Magnetizacion_(V.s)	Campo_(kA/m)	Magnetizacion_(A/m)
0.000000e+00	-5.517408e-06	-1.716996e-09	-3.837445e+01	-1.108487e+02
1.000000e-08	-5.517595e-06	-1.715107e-09	-3.837576e+01	-1.108074e+02
2.000000e-08	-5.517484e-06	-1.713143e-09	-3.837499e+01	-1.107635e+02
3.000000e-08	-5.517044e-06	-1.713124e-09	-3.837192e+01	-1.107171e+02
4.000000e-08	-5.516162e-06	-1.715442e-09	-3.836579e+01	-1.106685e+02
5.000000e-08	-5.514750e-06	-1.727283e-09	-3.835596e+01	-1.106179e+02
6.000000e-08	-5.512739e-06	-1.742845e-09	-3.834198e+01	-1.105653e+02
7.000000e-08	-5.510123e-06	-1.740701e-09	-3.832379e+01	-1.105111e+02
8.000000e-08	-5.506938e-06	-1.702850e-09	-3.830164e+01	-1.104552e+02
9.000000e-08	-5.503313e-06	-1.638688e-09	-3.827642e+01	-1.103980e+02
1.000000e-07	-5.499312e-06	-1.636069e-09	-3.824859e+01	-1.103394e+02
1.100000e-07	-5.494959e-06	-1.774931e-09	-3.821832e+01	-1.102795e+02
1.200000e-07	-5.490305e-06	-1.817451e-09	-3.818595e+01	-1.102186e+02
1.300000e-07	-5.485426e-06	-1.692627e-09	-3.815202e+01	-1.101566e+02
1.400000e-07	-5.480299e-06	-1.638322e-09	-3.811635e+01	-1.100935e+02
1.500000e-07	-5.474775e-06	-1.727087e-09	-3.807794e+01	-1.100294e+02
1.600000e-07	-5.468819e-06	-1.822701e-09	-3.803651e+01	-1.099642e+02
1.700000e-07	-5.462494e-06	-1.677678e-09	-3.799252e+01	-1.098980e+02
1.800000e-07	-5.455755e-06	-1.615686e-09	-3.794565e+01	-1.098306e+02
1.900000e-07	-5.448582e-06	-1.693216e-09	-3.789576e+01	-1.097620e+02
2.000000e-07	-5.441137e-06	-1.784322e-09	-3.784397e+01	-1.096920e+02
2.100000e-07	-5.433329e-06	-1.691481e-09	-3.778967e+01	-1.096206e+02
2.200000e-07	-5.425304e-06	-1.630972e-09	-3.773386e+01	-1.095475e+02
2.300000e-07	-5.417044e-06	-1.658055e-09	-3.767641e+01	-1.094726e+02
2.400000e-07	-5.408354e-06	-1.699798e-09	-3.761597e+01	-1.093956e+02
2.500000e-07	-5.399157e-06	-1.660567e-09	-3.755200e+01	-1.093163e+02
2.600000e-07	-5.389318e-06	-1.625420e-09	-3.748357e+01	-1.092344e+02
2.700000e-07	-5.378836e-06	-1.657833e-09	-3.741067e+01	-1.091498e+02
2.800000e-07	-5.367723e-06	-1.661294e-09	-3.733337e+01	-1.090620e+02
2.900000e-07	-5.356140e-06	-1.642544e-09	-3.725281e+01	-1.089708e+02
3.000000e-07	-5.344131e-06	-1.614655e-09	-3.716928e+01	-1.088759e+02
3.100000e-07	-5.331720e-06	-1.647082e-09	-3.708297e+01	-1.087769e+02
3.200000e-07	-5.319038e-06	-1.651084e-09	-3.699476e+01	-1.086736e+02
3.300000e-07	-5.305962e-06	-1.658414e-09	-3.690381e+01	-1.085656e+02
3.400000e-07	-5.292354e-06	-1.609197e-09	-3.680917e+01	-1.084525e+02
3.500000e-07	-5.278327e-06	-1.617738e-09	-3.671161e+01	-1.083341e+02
3.600000e-07	-5.264029e-06	-1.632786e-09	-3.661216e+01	-1.082100e+02
3.700000e-07	-5.249349e-06	-1.632595e-09	-3.651006e+01	-1.080799e+02
3.800000e-07	-5.234024e-06	-1.589748e-09	-3.640347e+01	-1.079436e+02
3.900000e-07	-5.218239e-06	-1.634321e-09	-3.629369e+01	-1.078006e+02
4.000000e-07	-5.202085e-06	-1.632278e-09	-3.618133e+01	-1.076509e+02
4.100000e-07	-5.185394e-06	-1.582985e-09	-3.606524e+01	-1.074941e+02
4.200000e-07	-5.168354e-06	-1.598615e-09	-3.594673e+01	-1.073300e+02
4.300000e-07	-5.151111e-06	-1.657212e-09	-3.582680e+01	-1.071584e+02
4.400000e-07	-5.133474e-06	-1.573701e-09	-3.570413e+01	-1.069792e+02
4.500000e-07	-5.115422e-06	-1.529151e-09	-3.557858e+01	-1.067921e+02
4.600000e-07	-5.096981e-06	-1.624848e-09	-3.545032e+01	-1.065972e+02
4.700000e-07	-5.078158e-06	-1.629229e-09	-3.531940e+01	-1.063943e+02
4.800000e-07	-5.058977e-06	-1.528448e-09	-3.518599e+01	-1.061834e+02
4.900000e-07	-5.039471e-06	-1.572349e-09	-3.505033e+01	-1.059645e+02
5.000000e-07	-5.019702e-06	-1.625910e-09	-3.491283e+01	-1.057376e+02
5.100000e-07	-4.999684e-06	-1.536646e-09	-3.477360e+01	-1.055027e+02
5.200000e-07	-4.979456e-06	-1.532676e-09	-3.463291e+01	-1.052600e+02
5.300000e-07	-4.958928e-06	-1.610885e-09	-3.449013e+01	-1.050095e+02
5.400000e-07	-4.938029e-06	-1.546015e-09	-3.434478e+01	-1.047514e+02
5.500000e-07	-4.916688e-06	-1.496406e-09	-3.419635e+01	-1.044859e+02
5.600000e-07	-4.895045e-06	-1.597379e-09	-3.404582e+01	-1.042132e+02
5.700000e-07	-4.873074e-06	-1.583117e-09	-3.389301e+01	-1.039335e+02
5.800000e-07	-4.850752e-06	-1.494277e-09	-3.373776e+01	-1.036471e+02
5.900000e-07	-4.828137e-06	-1.535920e-09	-3.358046e+01	-1.033542e+02
6.000000e-07	-4.805159e-06	-1.571394e-09	-3.342065e+01	-1.030551e+02
6.100000e-07	-4.781866e-06	-1.490820e-09	-3.325864e+01	-1.027501e+02
6.200000e-07	-4.758336e-06	-1.510087e-09	-3.309499e+01	-1.024396e+02
6.300000e-07	-4.734592e-06	-1.563581e-09	-3.292985e+01	-1.021238e+02
6.400000e-07	-4.710578e-06	-1.523475e-09	-3.276282e+01	-1.018030e+02
6.500000e-07	-4.686233e-06	-1.495859e-09	-3.259350e+01	-1.014776e+02
6.600000e-07	-4.661423e-06	-1.532715e-09	-3.242094e+01	-1.011480e+02
6.700000e-07	-4.636155e-06	-1.496532e-09	-3.224520e+01	-1.008143e+02
6.800000e-07	-4.610402e-06	-1.464996e-09	-3.206608e+01	-1.004769e+02
6.900000e-07	-4.584164e-06	-1.491448e-09	-3.188359e+01	-1.001361e+02
7.000000e-07	-4.557365e-06	-1.493757e-09	-3.169720e+01	-9.979214e+01
7.100000e-07	-4.530046e-06	-1.462943e-09	-3.150720e+01	-9.944526e+01
7.200000e-07	-4.502489e-06	-1.479417e-09	-3.131553e+01	-9.909569e+01
7.300000e-07	-4.474770e-06	-1.478597e-09	-3.112274e+01	-9.874361e+01
7.400000e-07	-4.446897e-06	-1.451764e-09	-3.092888e+01	-9.838920e+01
7.500000e-07	-4.418837e-06	-1.443225e-09	-3.073372e+01	-9.803258e+01
7.600000e-07	-4.390516e-06	-1.448566e-09	-3.053674e+01	-9.767386e+01
7.700000e-07	-4.361907e-06	-1.434382e-09	-3.033776e+01	-9.731312e+01
7.800000e-07	-4.333011e-06	-1.428716e-09	-3.013678e+01	-9.695037e+01
7.900000e-07	-4.303777e-06	-1.430514e-09	-2.993346e+01	-9.658563e+01
8.000000e-07	-4.274172e-06	-1.414019e-09	-2.972755e+01	-9.621884e+01
8.100000e-07	-4.244306e-06	-1.400379e-09	-2.951983e+01	-9.584995e+01
8.200000e-07	-4.214122e-06	-1.397212e-09	-2.930989e+01	-9.547883e+01
8.300000e-07	-4.183622e-06	-1.386098e-09	-2.909776e+01	-9.510535e+01
8.400000e-07	-4.152894e-06	-1.373837e-09	-2.888404e+01	-9.472933e+01
8.500000e-07	-4.121895e-06	-1.381256e-09	-2.866844e+01	-9.435057e+01
8.600000e-07	-4.090565e-06	-1.382682e-09	-2.845053e+01	-9.396881e+01
8.700000e-07	-4.058987e-06	-1.369564e-09	-2.823090e+01	-9.358381e+01
8.800000e-07	-4.027278e-06	-1.358381e-09	-2.801036e+01	-9.319527e+01
8.900000e-07	-3.995387e-06	-1.356828e-09	-2.778856e+01	-9.280287e+01
9.000000e-07	-3.963269e-06	-1.338499e-09	-2.756517e+01	-9.240629e+01
9.100000e-07	-3.930966e-06	-1.329116e-09	-2.734049e+01	-9.200519e+01
9.200000e-07	-3.898311e-06	-1.330740e-09	-2.711338e+01	-9.159920e+01
9.300000e-07	-3.865291e-06	-1.325933e-09	-2.688371e+01	-9.118797e+01
9.400000e-07	-3.831895e-06	-1.313046e-09	-2.665144e+01	-9.077111e+01
9.500000e-07	-3.797913e-06	-1.314429e-09	-2.641509e+01	-9.034827e+01
9.600000e-07	-3.763445e-06	-1.305505e-09	-2.617536e+01	-8.991908e+01
9.700000e-07	-3.728665e-06	-1.287597e-09	-2.593346e+01	-8.948316e+01
9.800000e-07	-3.693629e-06	-1.277207e-09	-2.568978e+01	-8.904019e+01
9.900000e-07	-3.658256e-06	-1.278732e-09	-2.544376e+01	-8.858982e+01
1.000000e-06	-3.622613e-06	-1.268949e-09	-2.519585e+01	-8.813174e+01
1.010000e-06	-3.586849e-06	-1.262916e-09	-2.494711e+01	-8.766565e+01
1.020000e-06	-3.550948e-06	-1.263422e-09	-2.469741e+01	-8.719129e+01
1.030000e-06	-3.514922e-06	-1.255491e-09	-2.444684e+01	-8.670841e+01
1.040000e-06	-3.478716e-06	-1.240397e-09	-2.419503e+01	-8.621681e+01
1.050000e-06	-3.442263e-06	-1.235885e-09	-2.394149e+01	-8.571629e+01
1.060000e-06	-3.405601e-06	-1.229512e-09	-2.368650e+01	-8.520672e+01
1.070000e-06	-3.368656e-06	-1.215350e-09	-2.342954e+01	-8.468798e+01
1.080000e-06	-3.331372e-06	-1.208086e-09	-2.317022e+01	-8.416000e+01
1.090000e-06	-3.293764e-06	-1.206473e-09	-2.290865e+01	-8.362274e+01
1.100000e-06	-3.255979e-06	-1.197373e-09	-2.264585e+01	-8.307620e+01
1.110000e-06	-3.217954e-06	-1.186413e-09	-2.238139e+01	-8.252041e+01
1.120000e-06	-3.179708e-06	-1.179079e-09	-2.211537e+01	-8.195545e+01
1.130000e-06	-3.141358e-06	-1.164986e-09	-2.184865e+01	-8.138143e+01
1.140000e-06	-3.102820e-06	-1.149839e-09	-2.158061e+01	-8.079848e+01
1.150000e-06	-3.064079e-06	-1.141249e-09	-2.131116e+01	-8.020678e+01
1.160000e-06	-3.025006e-06	-1.138566e-09	-2.103940e+01	-7.960652e+01
1.170000e-06	-2.985702e-06	-1.130803e-09	-2.076603e+01	-7.899793e+01
1.180000e-06	-2.946238e-06	-1.123023e-09	-2.049156e+01	-7.838126e+01
1.190000e-06	-2.906634e-06	-1.115306e-09	-2.021610e+01	-7.775677e+01
1.200000e-06	-2.866969e-06	-1.104585e-09	-1.994023e+01	-7.712476e+01
1.210000e-06	-2.827203e-06	-1.091184e-09	-1.966365e+01	-7.648550e+01
1.220000e-06	-2.787295e-06	-1.081773e-09	-1.938608e+01	-7.583932e+01
1.230000e-06	-2.747187e-06	-1.071800e-09	-1.910713e+01	-7.518650e+01
1.240000e-06	-2.706931e-06	-1.063938e-09	-1.882714e+01	-7.452735e+01
1.250000e-06	-2.666502e-06	-1.055793e-09	-1.854595e+01	-7.386217e+01
1.260000e-06	-2.625850e-06	-1.047343e-09	-1.826320e+01	-7.319123e+01
1.270000e-06	-2.584937e-06	-1.035370e-09	-1.797865e+01	-7.251482e+01
1.280000e-06	-2.543679e-06	-1.024441e-09	-1.769169e+01	-7.183317e+01
1.290000e-06	-2.502132e-06	-1.014264e-09	-1.740273e+01	-7.114650e+01
1.300000e-06	-2.460308e-06	-1.001067e-09	-1.711184e+01	-7.045501e+01
1.310000e-06	-2.418141e-06	-9.840588e-10	-1.681856e+01	-6.975886e+01
1.320000e-06	-2.375720e-06	-9.716587e-10	-1.652351e+01	-6.905817e+01
1.330000e-06	-2.333097e-06	-9.610816e-10	-1.622706e+01	-6.835301e+01
1.340000e-06	-2.290210e-06	-9.515584e-10	-1.592878e+01	-6.764341e+01
1.350000e-06	-2.246983e-06	-9.424967e-10	-1.562812e+01	-6.692937e+01
1.360000e-06	-2.203546e-06	-9.346762e-10	-1.532601e+01	-6.621082e+01
1.370000e-06	-2.160078e-06	-9.248973e-10	-1.502369e+01	-6.548764e+01
1.380000e-06	-2.116612e-06	-9.118350e-10	-1.472137e+01	-6.475966e+01
1.390000e-06	-2.073094e-06	-8.979188e-10	-1.441870e+01	-6.402666e+01
1.400000e-06	-2.029437e-06	-8.834695e-10	-1.411506e+01	-6.328835e+01
1.410000e-06	-1.985622e-06	-8.704620e-10	-1.381032e+01	-6.254440e+01
1.420000e-06	-1.941687e-06	-8.606177e-10	-1.350474e+01	-6.179440e+01
1.430000e-06	-1.897644e-06	-8.519493e-10	-1.319841e+01	-6.103792e+01
1.440000e-06	-1.853580e-06	-8.413979e-10	-1.289195e+01	-6.027445e+01
1.450000e-06	-1.809462e-06	-8.301856e-10	-1.258510e+01	-5.950344e+01
1.460000e-06	-1.765229e-06	-8.170683e-10	-1.227745e+01	-5.872428e+01
1.470000e-06	-1.720879e-06	-8.024429e-10	-1.196899e+01	-5.793633e+01
1.480000e-06	-1.676325e-06	-7.863177e-10	-1.165911e+01	-5.713890e+01
1.490000e-06	-1.631648e-06	-7.732192e-10	-1.134837e+01	-5.633125e+01
1.500000e-06	-1.586855e-06	-7.609646e-10	-1.103683e+01	-5.551263e+01
1.510000e-06	-1.541907e-06	-7.500688e-10	-1.072421e+01	-5.468224e+01
1.520000e-06	-1.496912e-06	-7.378514e-10	-1.041126e+01	-5.383927e+01
1.530000e-06	-1.451799e-06	-7.237987e-10	-1.009750e+01	-5.298288e+01
1.540000e-06	-1.406506e-06	-7.083521e-10	-9.782473e+00	-5.211221e+01
1.550000e-06	-1.361136e-06	-6.920336e-10	-9.466919e+00	-5.122642e+01
1.560000e-06	-1.315669e-06	-6.735037e-10	-9.150688e+00	-5.032464e+01
1.570000e-06	-1.270090e-06	-6.565673e-10	-8.833679e+00	-4.940601e+01
1.580000e-06	-1.224463e-06	-6.408697e-10	-8.516333e+00	-4.846970e+01
1.590000e-06	-1.178765e-06	-6.248297e-10	-8.198500e+00	-4.751488e+01
1.600000e-06	-1.132985e-06	-6.099769e-10	-7.880088e+00	-4.654074e+01
1.610000e-06	-1.087161e-06	-5.971244e-10	-7.561380e+00	-4.554651e+01
1.620000e-06	-1.041228e-06	-5.796442e-10	-7.241907e+00	-4.453145e+01
1.630000e-06	-9.951933e-07	-5.604625e-10	-6.921729e+00	-4.349486e+01
1.640000e-06	-9.490760e-07	-5.432607e-10	-6.600975e+00	-4.243609e+01
1.650000e-06	-9.028727e-07	-5.257710e-10	-6.279624e+00	-4.135455e+01
1.660000e-06	-8.566097e-07	-5.078184e-10	-5.957857e+00	-4.024968e+01
1.670000e-06	-8.103395e-07	-4.909695e-10	-5.636041e+00	-3.912102e+01
1.680000e-06	-7.640173e-07	-4.740775e-10	-5.313863e+00	-3.796814e+01
1.690000e-06	-7.175586e-07	-4.569657e-10	-4.990735e+00	-3.679071e+01
1.700000e-06	-6.711017e-07	-4.387221e-10	-4.667619e+00	-3.558845e+01
1.710000e-06	-6.246289e-07	-4.186819e-10	-4.344394e+00	-3.436118e+01
1.720000e-06	-5.780666e-07	-3.980986e-10	-4.020546e+00	-3.310878e+01
1.730000e-06	-5.314225e-07	-3.768057e-10	-3.696129e+00	-3.183121e+01
1.740000e-06	-4.846470e-07	-3.576399e-10	-3.370797e+00	-3.052854e+01
1.750000e-06	-4.378815e-07	-3.369388e-10	-3.045536e+00	-2.920088e+01
1.760000e-06	-3.911568e-07	-3.162599e-10	-2.720558e+00	-2.784847e+01
1.770000e-06	-3.444505e-07	-2.970725e-10	-2.395708e+00	-2.647161e+01
1.780000e-06	-2.977560e-07	-2.776813e-10	-2.070941e+00	-2.507068e+01
1.790000e-06	-2.508957e-07	-2.596614e-10	-1.745020e+00	-2.364615e+01
1.800000e-06	-2.039731e-07	-2.426015e-10	-1.418666e+00	-2.219857e+01
1.810000e-06	-1.571378e-07	-2.220667e-10	-1.092918e+00	-2.072858e+01
1.820000e-06	-1.103394e-07	-1.991246e-10	-7.674280e-01	-1.923688e+01
1.830000e-06	-6.352918e-08	-1.761063e-10	-4.418556e-01	-1.772425e+01
1.840000e-06	-1.669479e-08	-1.540529e-10	-1.161149e-01	-1.619155e+01
1.850000e-06	3.013938e-08	-1.338793e-10	2.096242e-01	-1.463968e+01
1.860000e-06	7.693347e-08	-1.148878e-10	5.350846e-01	-1.306964e+01
1.870000e-06	1.237757e-07	-9.239827e-11	8.608798e-01	-1.148246e+01
1.880000e-06	1.706944e-07	-6.985337e-11	1.187207e+00	-9.879234e+00
1.890000e-06	2.176183e-07	-4.827370e-11	1.513570e+00	-8.261106e+00
1.900000e-06	2.644630e-07	-2.601111e-11	1.839383e+00	-6.629263e+00
1.910000e-06	3.112065e-07	-4.142603e-12	2.164491e+00	-4.984932e+00
1.920000e-06	3.579242e-07	1.935069e-11	2.489420e+00	-3.329373e+00
1.930000e-06	4.046163e-07	4.650681e-11	2.814171e+00	-1.663876e+00
1.940000e-06	4.512470e-07	7.189961e-11	3.138495e+00	1.024721e-02
1.950000e-06	4.978099e-07	9.289226e-11	3.462347e+00	1.691666e+00
1.960000e-06	5.443762e-07	1.129089e-10	3.786223e+00	3.379037e+00
1.970000e-06	5.908964e-07	1.331507e-10	4.109779e+00	5.071010e+00
1.980000e-06	6.374086e-07	1.547912e-10	4.433279e+00	6.766231e+00
1.990000e-06	6.838238e-07	1.768747e-10	4.756104e+00	8.463349e+00
2.000000e-06	7.301865e-07	2.002188e-10	5.078564e+00	1.016102e+01
2.010000e-06	7.766123e-07	2.273888e-10	5.401462e+00	1.185792e+01
2.020000e-06	8.229854e-07	2.523099e-10	5.723995e+00	1.355272e+01
2.030000e-06	8.693055e-07	2.743663e-10	6.046159e+00	1.524413e+01
2.040000e-06	9.154985e-07	2.972976e-10	6.367438e+00	1.693089e+01
2.050000e-06	9.615372e-07	3.186171e-10	6.687645e+00	1.861175e+01
2.060000e-06	1.007526e-06	3.411631e-10	7.007506e+00	2.028550e+01
2.070000e-06	1.053383e-06	3.641451e-10	7.326446e+00	2.195097e+01
2.080000e-06	1.099146e-06	3.886941e-10	7.644737e+00	2.360701e+01
2.090000e-06	1.144939e-06	4.128596e-10	7.963231e+00	2.525253e+01
2.100000e-06	1.190684e-06	4.376845e-10	8.281394e+00	2.688647e+01
2.110000e-06	1.236337e-06	4.627911e-10	8.598921e+00	2.850782e+01
2.120000e-06	1.281793e-06	4.846733e-10	8.915077e+00	3.011562e+01
2.130000e-06	1.327092e-06	5.054239e-10	9.230140e+00	3.170894e+01
2.140000e-06	1.372299e-06	5.263962e-10	9.544562e+00	3.328692e+01
2.150000e-06	1.417495e-06	5.462675e-10	9.858904e+00	3.484873e+01
2.160000e-06	1.462707e-06	5.654692e-10	1.017336e+01	3.639360e+01
2.170000e-06	1.507788e-06	5.871453e-10	1.048691e+01	3.792081e+01
2.180000e-06	1.552766e-06	6.096747e-10	1.079973e+01	3.942969e+01
2.190000e-06	1.597749e-06	6.307970e-10	1.111260e+01	4.091961e+01
2.200000e-06	1.642532e-06	6.516550e-10	1.142407e+01	4.239001e+01
2.210000e-06	1.687107e-06	6.716750e-10	1.173410e+01	4.384036e+01
2.220000e-06	1.731541e-06	6.904323e-10	1.204314e+01	4.527019e+01
2.230000e-06	1.775814e-06	7.084292e-10	1.235107e+01	4.667907e+01
2.240000e-06	1.819992e-06	7.269865e-10	1.265834e+01	4.806662e+01
2.250000e-06	1.864072e-06	7.472168e-10	1.296492e+01	4.943252e+01
2.260000e-06	1.908056e-06	7.670538e-10	1.327084e+01	5.077647e+01
2.270000e-06	1.951962e-06	7.856301e-10	1.357621e+01	5.209824e+01
2.280000e-06	1.995851e-06	8.029921e-10	1.388146e+01	5.339762e+01
2.290000e-06	2.039621e-06	8.196858e-10	1.418589e+01	5.467446e+01
2.300000e-06	2.083297e-06	8.364125e-10	1.448966e+01	5.592864e+01
2.310000e-06	2.126970e-06	8.511928e-10	1.479342e+01	5.716008e+01
2.320000e-06	2.170536e-06	8.668462e-10	1.509642e+01	5.836873e+01
2.330000e-06	2.214008e-06	8.835298e-10	1.539878e+01	5.955460e+01
2.340000e-06	2.257370e-06	9.009362e-10	1.570037e+01	6.071772e+01
2.350000e-06	2.300526e-06	9.187427e-10	1.600053e+01	6.185815e+01
2.360000e-06	2.343433e-06	9.327165e-10	1.629895e+01	6.297598e+01
2.370000e-06	2.386089e-06	9.438897e-10	1.659563e+01	6.407135e+01
2.380000e-06	2.428362e-06	9.553884e-10	1.688965e+01	6.514441e+01
2.390000e-06	2.470261e-06	9.694289e-10	1.718106e+01	6.619534e+01
2.400000e-06	2.511925e-06	9.838931e-10	1.747084e+01	6.722437e+01
2.410000e-06	2.553414e-06	1.000240e-09	1.775940e+01	6.823172e+01
2.420000e-06	2.594560e-06	1.016664e-09	1.804558e+01	6.921765e+01
2.430000e-06	2.635391e-06	1.029982e-09	1.832957e+01	7.018246e+01
2.440000e-06	2.676073e-06	1.039683e-09	1.861251e+01	7.112646e+01
2.450000e-06	2.716400e-06	1.047896e-09	1.889299e+01	7.204995e+01
2.460000e-06	2.756499e-06	1.058436e-09	1.917189e+01	7.295330e+01
2.470000e-06	2.796504e-06	1.071424e-09	1.945013e+01	7.383686e+01
2.480000e-06	2.836374e-06	1.084837e-09	1.972743e+01	7.470102e+01
2.490000e-06	2.876136e-06	1.096250e-09	2.000398e+01	7.554616e+01
2.500000e-06	2.915835e-06	1.107078e-09	2.028010e+01	7.637270e+01
2.510000e-06	2.955384e-06	1.118010e-09	2.055517e+01	7.718105e+01
2.520000e-06	2.994685e-06	1.126773e-09	2.082851e+01	7.797165e+01
2.530000e-06	3.033729e-06	1.135865e-09	2.110007e+01	7.874493e+01
2.540000e-06	3.072534e-06	1.147684e-09	2.136996e+01	7.950133e+01
2.550000e-06	3.111086e-06	1.159364e-09	2.163810e+01	8.024131e+01
2.560000e-06	3.149444e-06	1.168933e-09	2.190489e+01	8.096533e+01
2.570000e-06	3.187609e-06	1.177165e-09	2.217033e+01	8.167385e+01
2.580000e-06	3.225609e-06	1.187721e-09	2.243462e+01	8.236732e+01
2.590000e-06	3.263455e-06	1.200293e-09	2.269785e+01	8.304620e+01
2.600000e-06	3.301084e-06	1.210506e-09	2.295957e+01	8.371096e+01
2.610000e-06	3.338463e-06	1.218646e-09	2.321954e+01	8.436205e+01
2.620000e-06	3.375521e-06	1.226976e-09	2.347729e+01	8.499992e+01
2.630000e-06	3.412312e-06	1.234853e-09	2.373317e+01	8.562501e+01
2.640000e-06	3.448867e-06	1.242480e-09	2.398742e+01	8.623775e+01
2.650000e-06	3.485232e-06	1.252029e-09	2.424035e+01	8.683858e+01
2.660000e-06	3.521402e-06	1.261507e-09	2.449191e+01	8.742791e+01
2.670000e-06	3.557392e-06	1.268596e-09	2.474223e+01	8.800613e+01
2.680000e-06	3.593242e-06	1.275728e-09	2.499157e+01	8.857365e+01
2.690000e-06	3.628945e-06	1.281112e-09	2.523990e+01	8.913084e+01
2.700000e-06	3.664486e-06	1.284838e-09	2.548708e+01	8.967805e+01
2.710000e-06	3.699862e-06	1.291560e-09	2.573313e+01	9.021563e+01
2.720000e-06	3.734983e-06	1.302044e-09	2.597741e+01	9.074390e+01
2.730000e-06	3.769745e-06	1.311066e-09	2.621918e+01	9.126317e+01
2.740000e-06	3.804116e-06	1.318187e-09	2.645823e+01	9.177373e+01
2.750000e-06	3.837976e-06	1.324638e-09	2.669373e+01	9.227585e+01
2.760000e-06	3.871406e-06	1.330280e-09	2.692625e+01	9.276977e+01
2.770000e-06	3.904402e-06	1.335078e-09	2.715574e+01	9.325572e+01
2.780000e-06	3.936971e-06	1.340303e-09	2.738226e+01	9.373391e+01
2.790000e-06	3.969264e-06	1.348755e-09	2.760686e+01	9.420453e+01
2.800000e-06	4.001292e-06	1.357387e-09	2.782963e+01	9.466775e+01
2.810000e-06	4.033103e-06	1.365782e-09	2.805088e+01	9.512372e+01
2.820000e-06	4.064755e-06	1.373057e-09	2.827102e+01	9.557256e+01
2.830000e-06	4.096215e-06	1.379314e-09	2.848983e+01	9.601438e+01
2.840000e-06	4.127523e-06	1.385955e-09	2.870758e+01	9.644929e+01
2.850000e-06	4.158577e-06	1.389364e-09	2.892357e+01	9.687735e+01
2.860000e-06	4.189201e-06	1.392809e-09	2.913656e+01	9.729863e+01
2.870000e-06	4.219515e-06	1.398659e-09	2.934740e+01	9.771317e+01
2.880000e-06	4.249497e-06	1.404095e-09	2.955593e+01	9.812100e+01
2.890000e-06	4.279102e-06	1.409256e-09	2.976184e+01	9.852215e+01
2.900000e-06	4.308470e-06	1.415053e-09	2.996610e+01	9.891663e+01
