# Temperatura_=_-0.4
# Concentracion g/m^3_=_1620.0
# C_Vs_to_Am_M_A/Vsm_=_65563218390.804596
# pendiente_HvsI_1/m_=_3716.3
# ordenada_HvsI_A/m_=_1297.0
# frecuencia_Hz_=_135092.00328970343

Tiempo_(s)	Campo_(V.s)	Magnetizacion_(V.s)	Campo_(kA/m)	Magnetizacion_(A/m)
0.000000e+00	-5.532947e-06	-1.573621e-09	-3.837546e+01	-1.018239e+02
1.000000e-08	-5.533065e-06	-1.571853e-09	-3.837628e+01	-1.017647e+02
2.000000e-08	-5.532846e-06	-1.572853e-09	-3.837476e+01	-1.017020e+02
3.000000e-08	-5.532221e-06	-1.574838e-09	-3.837043e+01	-1.016358e+02
4.000000e-08	-5.531141e-06	-1.575799e-09	-3.836293e+01	-1.015661e+02
5.000000e-08	-5.529354e-06	-1.574720e-09	-3.835055e+01	-1.014931e+02
6.000000e-08	-5.526878e-06	-1.571823e-09	-3.833337e+01	-1.014169e+02
7.000000e-08	-5.523901e-06	-1.566827e-09	-3.831272e+01	-1.013375e+02
8.000000e-08	-5.520480e-06	-1.585616e-09	-3.828899e+01	-1.012551e+02
9.000000e-08	-5.516646e-06	-1.610777e-09	-3.826240e+01	-1.011697e+02
1.000000e-07	-5.512355e-06	-1.588996e-09	-3.823264e+01	-1.010814e+02
1.100000e-07	-5.507823e-06	-1.545889e-09	-3.820121e+01	-1.009904e+02
1.200000e-07	-5.503230e-06	-1.528379e-09	-3.816935e+01	-1.008968e+02
1.300000e-07	-5.498395e-06	-1.567452e-09	-3.813582e+01	-1.008005e+02
1.400000e-07	-5.493068e-06	-1.573977e-09	-3.809887e+01	-1.007018e+02
1.500000e-07	-5.487259e-06	-1.558833e-09	-3.805858e+01	-1.006008e+02
1.600000e-07	-5.481117e-06	-1.584176e-09	-3.801598e+01	-1.004975e+02
1.700000e-07	-5.474459e-06	-1.574310e-09	-3.796980e+01	-1.003921e+02
1.800000e-07	-5.467383e-06	-1.547187e-09	-3.792072e+01	-1.002845e+02
1.900000e-07	-5.460079e-06	-1.480726e-09	-3.787007e+01	-1.001750e+02
2.000000e-07	-5.452518e-06	-1.501480e-09	-3.781762e+01	-1.000637e+02
2.100000e-07	-5.444635e-06	-1.517188e-09	-3.776295e+01	-9.995053e+01
2.200000e-07	-5.436429e-06	-1.527779e-09	-3.770603e+01	-9.983567e+01
2.300000e-07	-5.427945e-06	-1.501205e-09	-3.764719e+01	-9.971920e+01
2.400000e-07	-5.418999e-06	-1.492966e-09	-3.758514e+01	-9.960117e+01
2.500000e-07	-5.409255e-06	-1.474158e-09	-3.751756e+01	-9.948167e+01
2.600000e-07	-5.398741e-06	-1.475412e-09	-3.744463e+01	-9.936076e+01
2.700000e-07	-5.387724e-06	-1.482856e-09	-3.736822e+01	-9.923849e+01
2.800000e-07	-5.376290e-06	-1.487601e-09	-3.728892e+01	-9.911491e+01
2.900000e-07	-5.364499e-06	-1.486085e-09	-3.720714e+01	-9.899006e+01
3.000000e-07	-5.352439e-06	-1.485986e-09	-3.712350e+01	-9.886398e+01
3.100000e-07	-5.340019e-06	-1.496274e-09	-3.703735e+01	-9.873668e+01
3.200000e-07	-5.327060e-06	-1.469068e-09	-3.694747e+01	-9.860817e+01
3.300000e-07	-5.313698e-06	-1.464513e-09	-3.685479e+01	-9.847847e+01
3.400000e-07	-5.300055e-06	-1.462401e-09	-3.676017e+01	-9.834755e+01
3.500000e-07	-5.285899e-06	-1.472178e-09	-3.666199e+01	-9.821540e+01
3.600000e-07	-5.271262e-06	-1.461874e-09	-3.656046e+01	-9.808197e+01
3.700000e-07	-5.256240e-06	-1.477001e-09	-3.645627e+01	-9.794724e+01
3.800000e-07	-5.240548e-06	-1.464669e-09	-3.634744e+01	-9.781113e+01
3.900000e-07	-5.224323e-06	-1.451870e-09	-3.623490e+01	-9.767357e+01
4.000000e-07	-5.207673e-06	-1.452071e-09	-3.611942e+01	-9.753448e+01
4.100000e-07	-5.190738e-06	-1.469140e-09	-3.600197e+01	-9.739377e+01
4.200000e-07	-5.173540e-06	-1.444423e-09	-3.588269e+01	-9.725131e+01
4.300000e-07	-5.156055e-06	-1.443453e-09	-3.576141e+01	-9.710700e+01
4.400000e-07	-5.138279e-06	-1.450201e-09	-3.563812e+01	-9.696069e+01
4.500000e-07	-5.120106e-06	-1.443899e-09	-3.551208e+01	-9.681225e+01
4.600000e-07	-5.101583e-06	-1.418574e-09	-3.538360e+01	-9.666150e+01
4.700000e-07	-5.082595e-06	-1.435256e-09	-3.525191e+01	-9.650829e+01
4.800000e-07	-5.063226e-06	-1.438790e-09	-3.511757e+01	-9.635243e+01
4.900000e-07	-5.043612e-06	-1.430698e-09	-3.498153e+01	-9.619374e+01
5.000000e-07	-5.023755e-06	-1.426592e-09	-3.484381e+01	-9.603202e+01
5.100000e-07	-5.003726e-06	-1.431690e-09	-3.470489e+01	-9.586707e+01
5.200000e-07	-4.983414e-06	-1.415310e-09	-3.456401e+01	-9.569868e+01
5.300000e-07	-4.962610e-06	-1.416309e-09	-3.441972e+01	-9.552664e+01
5.400000e-07	-4.941382e-06	-1.421258e-09	-3.427248e+01	-9.535073e+01
5.500000e-07	-4.919789e-06	-1.409140e-09	-3.412272e+01	-9.517074e+01
5.600000e-07	-4.897832e-06	-1.403746e-09	-3.397043e+01	-9.498643e+01
5.700000e-07	-4.875610e-06	-1.413197e-09	-3.381630e+01	-9.479758e+01
5.800000e-07	-4.853022e-06	-1.404533e-09	-3.365963e+01	-9.460399e+01
5.900000e-07	-4.830028e-06	-1.390060e-09	-3.350015e+01	-9.440543e+01
6.000000e-07	-4.806770e-06	-1.396603e-09	-3.333884e+01	-9.420170e+01
6.100000e-07	-4.783272e-06	-1.391714e-09	-3.317586e+01	-9.399258e+01
6.200000e-07	-4.759605e-06	-1.382995e-09	-3.301171e+01	-9.377787e+01
6.300000e-07	-4.735731e-06	-1.384493e-09	-3.284613e+01	-9.355739e+01
6.400000e-07	-4.711555e-06	-1.384605e-09	-3.267845e+01	-9.333095e+01
6.500000e-07	-4.687082e-06	-1.366253e-09	-3.250871e+01	-9.309839e+01
6.600000e-07	-4.662165e-06	-1.366499e-09	-3.233588e+01	-9.285955e+01
6.700000e-07	-4.636666e-06	-1.363065e-09	-3.215903e+01	-9.261427e+01
6.800000e-07	-4.610446e-06	-1.355503e-09	-3.197717e+01	-9.236244e+01
6.900000e-07	-4.583563e-06	-1.351838e-09	-3.179072e+01	-9.210394e+01
7.000000e-07	-4.556384e-06	-1.358079e-09	-3.160221e+01	-9.183865e+01
7.100000e-07	-4.528933e-06	-1.345037e-09	-3.141181e+01	-9.156651e+01
7.200000e-07	-4.501257e-06	-1.341977e-09	-3.121986e+01	-9.128744e+01
7.300000e-07	-4.473489e-06	-1.339135e-09	-3.102727e+01	-9.100139e+01
7.400000e-07	-4.445557e-06	-1.329800e-09	-3.083354e+01	-9.070833e+01
7.500000e-07	-4.417413e-06	-1.316401e-09	-3.063833e+01	-9.040825e+01
7.600000e-07	-4.388927e-06	-1.318692e-09	-3.044076e+01	-9.010114e+01
7.700000e-07	-4.359997e-06	-1.310983e-09	-3.024010e+01	-8.978702e+01
7.800000e-07	-4.330665e-06	-1.302388e-09	-3.003666e+01	-8.946592e+01
7.900000e-07	-4.301113e-06	-1.299505e-09	-2.983170e+01	-8.913791e+01
8.000000e-07	-4.271348e-06	-1.294030e-09	-2.962525e+01	-8.880305e+01
8.100000e-07	-4.241298e-06	-1.277023e-09	-2.941683e+01	-8.846141e+01
8.200000e-07	-4.210948e-06	-1.269330e-09	-2.920633e+01	-8.811309e+01
8.300000e-07	-4.180239e-06	-1.264481e-09	-2.899334e+01	-8.775820e+01
8.400000e-07	-4.149260e-06	-1.254449e-09	-2.877847e+01	-8.739687e+01
8.500000e-07	-4.118032e-06	-1.247437e-09	-2.856189e+01	-8.702922e+01
8.600000e-07	-4.086645e-06	-1.246820e-09	-2.834419e+01	-8.665539e+01
8.700000e-07	-4.055094e-06	-1.243478e-09	-2.812536e+01	-8.627553e+01
8.800000e-07	-4.023326e-06	-1.236623e-09	-2.790502e+01	-8.588980e+01
8.900000e-07	-3.991408e-06	-1.232105e-09	-2.768365e+01	-8.549836e+01
9.000000e-07	-3.959197e-06	-1.220108e-09	-2.746023e+01	-8.510137e+01
9.100000e-07	-3.926572e-06	-1.207920e-09	-2.723395e+01	-8.469899e+01
9.200000e-07	-3.893497e-06	-1.198678e-09	-2.700455e+01	-8.429140e+01
9.300000e-07	-3.859977e-06	-1.194983e-09	-2.677206e+01	-8.387876e+01
9.400000e-07	-3.826083e-06	-1.186678e-09	-2.653698e+01	-8.346124e+01
9.500000e-07	-3.791758e-06	-1.183279e-09	-2.629891e+01	-8.303899e+01
9.600000e-07	-3.756935e-06	-1.177829e-09	-2.605738e+01	-8.261217e+01
9.700000e-07	-3.721715e-06	-1.171488e-09	-2.581310e+01	-8.218093e+01
9.800000e-07	-3.686309e-06	-1.162599e-09	-2.556754e+01	-8.174541e+01
9.900000e-07	-3.650783e-06	-1.158642e-09	-2.532113e+01	-8.130575e+01
1.000000e-06	-3.615107e-06	-1.152492e-09	-2.507369e+01	-8.086207e+01
1.010000e-06	-3.579357e-06	-1.149090e-09	-2.482574e+01	-8.041447e+01
1.020000e-06	-3.543460e-06	-1.144461e-09	-2.457676e+01	-7.996307e+01
1.030000e-06	-3.507277e-06	-1.139908e-09	-2.432580e+01	-7.950794e+01
1.040000e-06	-3.470837e-06	-1.132532e-09	-2.407306e+01	-7.904916e+01
1.050000e-06	-3.434150e-06	-1.126759e-09	-2.381861e+01	-7.858680e+01
1.060000e-06	-3.397265e-06	-1.116842e-09	-2.356278e+01	-7.812089e+01
1.070000e-06	-3.360112e-06	-1.106364e-09	-2.330510e+01	-7.765148e+01
1.080000e-06	-3.322666e-06	-1.097390e-09	-2.304538e+01	-7.717857e+01
1.090000e-06	-3.284942e-06	-1.091316e-09	-2.278373e+01	-7.670218e+01
1.100000e-06	-3.246934e-06	-1.086010e-09	-2.252012e+01	-7.622228e+01
1.110000e-06	-3.208726e-06	-1.080141e-09	-2.225511e+01	-7.573885e+01
1.120000e-06	-3.170319e-06	-1.072650e-09	-2.198873e+01	-7.525185e+01
1.130000e-06	-3.131731e-06	-1.066464e-09	-2.172109e+01	-7.476121e+01
1.140000e-06	-3.092936e-06	-1.058083e-09	-2.145201e+01	-7.426687e+01
1.150000e-06	-3.053970e-06	-1.051054e-09	-2.118175e+01	-7.376875e+01
1.160000e-06	-3.014802e-06	-1.045252e-09	-2.091009e+01	-7.326674e+01
1.170000e-06	-2.975436e-06	-1.037759e-09	-2.063705e+01	-7.276072e+01
1.180000e-06	-2.935890e-06	-1.028427e-09	-2.036277e+01	-7.225059e+01
1.190000e-06	-2.896188e-06	-1.017750e-09	-2.008740e+01	-7.173619e+01
1.200000e-06	-2.856386e-06	-1.008932e-09	-1.981135e+01	-7.121738e+01
1.210000e-06	-2.816465e-06	-9.984746e-10	-1.953447e+01	-7.069400e+01
1.220000e-06	-2.776356e-06	-9.904424e-10	-1.925628e+01	-7.016589e+01
1.230000e-06	-2.736100e-06	-9.806253e-10	-1.897707e+01	-6.963285e+01
1.240000e-06	-2.695643e-06	-9.724995e-10	-1.869647e+01	-6.909470e+01
1.250000e-06	-2.654894e-06	-9.627743e-10	-1.841383e+01	-6.855124e+01
1.260000e-06	-2.613866e-06	-9.526968e-10	-1.812927e+01	-6.800226e+01
1.270000e-06	-2.572491e-06	-9.407081e-10	-1.784231e+01	-6.744755e+01
1.280000e-06	-2.530785e-06	-9.302612e-10	-1.755304e+01	-6.688687e+01
1.290000e-06	-2.488724e-06	-9.205874e-10	-1.726132e+01	-6.631999e+01
1.300000e-06	-2.446503e-06	-9.123024e-10	-1.696848e+01	-6.574667e+01
1.310000e-06	-2.404077e-06	-9.038390e-10	-1.667422e+01	-6.516665e+01
1.320000e-06	-2.361263e-06	-8.964711e-10	-1.637727e+01	-6.457968e+01
1.330000e-06	-2.318169e-06	-8.840552e-10	-1.607838e+01	-6.398548e+01
1.340000e-06	-2.274896e-06	-8.737797e-10	-1.577824e+01	-6.338378e+01
1.350000e-06	-2.231493e-06	-8.634317e-10	-1.547721e+01	-6.277429e+01
1.360000e-06	-2.187999e-06	-8.533646e-10	-1.517554e+01	-6.215671e+01
1.370000e-06	-2.144395e-06	-8.407385e-10	-1.487311e+01	-6.153074e+01
1.380000e-06	-2.100680e-06	-8.271951e-10	-1.456991e+01	-6.089606e+01
1.390000e-06	-2.056946e-06	-8.154525e-10	-1.426659e+01	-6.025235e+01
1.400000e-06	-2.013101e-06	-8.030953e-10	-1.396248e+01	-5.959925e+01
1.410000e-06	-1.969144e-06	-7.927763e-10	-1.365761e+01	-5.893644e+01
1.420000e-06	-1.925190e-06	-7.834134e-10	-1.335275e+01	-5.826354e+01
1.430000e-06	-1.881155e-06	-7.741286e-10	-1.304733e+01	-5.758019e+01
1.440000e-06	-1.836888e-06	-7.663221e-10	-1.274030e+01	-5.688599e+01
1.450000e-06	-1.792459e-06	-7.548741e-10	-1.243215e+01	-5.618056e+01
1.460000e-06	-1.747927e-06	-7.444358e-10	-1.212329e+01	-5.546349e+01
1.470000e-06	-1.703266e-06	-7.308459e-10	-1.181353e+01	-5.473435e+01
1.480000e-06	-1.658484e-06	-7.181887e-10	-1.150293e+01	-5.399271e+01
1.490000e-06	-1.613537e-06	-7.073413e-10	-1.119118e+01	-5.323814e+01
1.500000e-06	-1.568486e-06	-6.970896e-10	-1.087872e+01	-5.247017e+01
1.510000e-06	-1.523360e-06	-6.867904e-10	-1.056574e+01	-5.168833e+01
1.520000e-06	-1.478099e-06	-6.711061e-10	-1.025181e+01	-5.089216e+01
1.530000e-06	-1.432700e-06	-6.558344e-10	-9.936936e+00	-5.008117e+01
1.540000e-06	-1.387245e-06	-6.393037e-10	-9.621665e+00	-4.925486e+01
1.550000e-06	-1.341716e-06	-6.235552e-10	-9.305884e+00	-4.841275e+01
1.560000e-06	-1.296085e-06	-6.096343e-10	-8.989400e+00	-4.755432e+01
1.570000e-06	-1.250357e-06	-5.982547e-10	-8.672238e+00	-4.667907e+01
1.580000e-06	-1.204509e-06	-5.848743e-10	-8.354241e+00	-4.578650e+01
1.590000e-06	-1.158572e-06	-5.743496e-10	-8.035631e+00	-4.487610e+01
1.600000e-06	-1.112591e-06	-5.638260e-10	-7.716717e+00	-4.394737e+01
1.610000e-06	-1.066587e-06	-5.500666e-10	-7.397645e+00	-4.299981e+01
1.620000e-06	-1.020515e-06	-5.333190e-10	-7.078096e+00	-4.203295e+01
1.630000e-06	-9.742739e-07	-5.178730e-10	-6.757378e+00	-4.104631e+01
1.640000e-06	-9.279309e-07	-5.020118e-10	-6.435951e+00	-4.003943e+01
1.650000e-06	-8.815620e-07	-4.882963e-10	-6.114345e+00	-3.901188e+01
1.660000e-06	-8.351386e-07	-4.765818e-10	-5.792362e+00	-3.796323e+01
1.670000e-06	-7.885237e-07	-4.652170e-10	-5.469050e+00	-3.689311e+01
1.680000e-06	-7.418656e-07	-4.531241e-10	-5.145438e+00	-3.580114e+01
1.690000e-06	-6.952776e-07	-4.381057e-10	-4.822313e+00	-3.468699e+01
1.700000e-06	-6.487167e-07	-4.186641e-10	-4.499375e+00	-3.355039e+01
1.710000e-06	-6.021082e-07	-3.974754e-10	-4.176107e+00	-3.239106e+01
1.720000e-06	-5.554163e-07	-3.779129e-10	-3.852262e+00	-3.120882e+01
1.730000e-06	-5.087615e-07	-3.607973e-10	-3.528673e+00	-3.000349e+01
1.740000e-06	-4.619470e-07	-3.423479e-10	-3.203976e+00	-2.877496e+01
1.750000e-06	-4.150671e-07	-3.275488e-10	-2.878826e+00	-2.752318e+01
1.760000e-06	-3.681559e-07	-3.130545e-10	-2.553459e+00	-2.624815e+01
1.770000e-06	-3.212304e-07	-2.951354e-10	-2.227993e+00	-2.494993e+01
1.780000e-06	-2.743221e-07	-2.738581e-10	-1.902646e+00	-2.362865e+01
1.790000e-06	-2.273744e-07	-2.556307e-10	-1.577025e+00	-2.228449e+01
1.800000e-06	-1.804458e-07	-2.359975e-10	-1.251538e+00	-2.091771e+01
1.810000e-06	-1.334753e-07	-2.141173e-10	-9.257592e-01	-1.952864e+01
1.820000e-06	-8.649578e-08	-1.948006e-10	-5.999182e-01	-1.811767e+01
1.830000e-06	-3.953663e-08	-1.750381e-10	-2.742185e-01	-1.668527e+01
1.840000e-06	7.405792e-09	-1.551463e-10	5.136516e-02	-1.523200e+01
1.850000e-06	5.436123e-08	-1.364392e-10	3.770391e-01	-1.375845e+01
1.860000e-06	1.013246e-07	-1.158499e-10	7.027679e-01	-1.226533e+01
1.870000e-06	1.483064e-07	-9.246846e-11	1.028625e+00	-1.075340e+01
1.880000e-06	1.953251e-07	-7.184288e-11	1.354738e+00	-9.223480e+00
1.890000e-06	2.423657e-07	-5.256161e-11	1.681002e+00	-7.676489e+00
1.900000e-06	2.893328e-07	-3.376641e-11	2.006757e+00	-6.113399e+00
1.910000e-06	3.362348e-07	-1.220400e-11	2.332061e+00	-4.535251e+00
1.920000e-06	3.830914e-07	1.090861e-11	2.657049e+00	-2.943151e+00
1.930000e-06	4.298835e-07	3.738694e-11	2.981590e+00	-1.338265e+00
1.940000e-06	4.766869e-07	6.070345e-11	3.306209e+00	2.781813e-01
1.950000e-06	5.234804e-07	8.041672e-11	3.630760e+00	1.904910e+00
1.960000e-06	5.701930e-07	9.943794e-11	3.954750e+00	3.540593e+00
1.970000e-06	6.168105e-07	1.216807e-10	4.278080e+00	5.183857e+00
1.980000e-06	6.633841e-07	1.454999e-10	4.601105e+00	6.833290e+00
1.990000e-06	7.099166e-07	1.686006e-10	4.923846e+00	8.487445e+00
2.000000e-06	7.563191e-07	1.921126e-10	5.245685e+00	1.014485e+01
2.010000e-06	8.026662e-07	2.147442e-10	5.567139e+00	1.180399e+01
2.020000e-06	8.490018e-07	2.377966e-10	5.888514e+00	1.346337e+01
2.030000e-06	8.952686e-07	2.642292e-10	6.209412e+00	1.512144e+01
2.040000e-06	9.414917e-07	2.895440e-10	6.530006e+00	1.677669e+01
2.050000e-06	9.876276e-07	3.136869e-10	6.849996e+00	1.842757e+01
2.060000e-06	1.033664e-06	3.356076e-10	7.169294e+00	2.007257e+01
2.070000e-06	1.079562e-06	3.570599e-10	7.487638e+00	2.171018e+01
2.080000e-06	1.125414e-06	3.792979e-10	7.805653e+00	2.333890e+01
2.090000e-06	1.171248e-06	4.035970e-10	8.123555e+00	2.495729e+01
2.100000e-06	1.217001e-06	4.273433e-10	8.440886e+00	2.656390e+01
2.110000e-06	1.262688e-06	4.497586e-10	8.757762e+00	2.815736e+01
2.120000e-06	1.308260e-06	4.718691e-10	9.073844e+00	2.973632e+01
2.130000e-06	1.353768e-06	4.922535e-10	9.389478e+00	3.129948e+01
2.140000e-06	1.399199e-06	5.124026e-10	9.704576e+00	3.284562e+01
2.150000e-06	1.444541e-06	5.314533e-10	1.001906e+01	3.437354e+01
2.160000e-06	1.489791e-06	5.507361e-10	1.033290e+01	3.588214e+01
2.170000e-06	1.534921e-06	5.713904e-10	1.064592e+01	3.737038e+01
2.180000e-06	1.579969e-06	5.940692e-10	1.095836e+01	3.883729e+01
2.190000e-06	1.624829e-06	6.168498e-10	1.126951e+01	4.028196e+01
2.200000e-06	1.669490e-06	6.375005e-10	1.157926e+01	4.170358e+01
2.210000e-06	1.714061e-06	6.533414e-10	1.188840e+01	4.310142e+01
2.220000e-06	1.758573e-06	6.656985e-10	1.219712e+01	4.447482e+01
2.230000e-06	1.802990e-06	6.779978e-10	1.250520e+01	4.582321e+01
2.240000e-06	1.847196e-06	6.938417e-10	1.281180e+01	4.714611e+01
2.250000e-06	1.891228e-06	7.135560e-10	1.311720e+01	4.844310e+01
2.260000e-06	1.935191e-06	7.357363e-10	1.342212e+01	4.971388e+01
2.270000e-06	1.979065e-06	7.550854e-10	1.372641e+01	5.095821e+01
2.280000e-06	2.022892e-06	7.712741e-10	1.403039e+01	5.217594e+01
2.290000e-06	2.066647e-06	7.839386e-10	1.433387e+01	5.336700e+01
2.300000e-06	2.110328e-06	7.937631e-10	1.463683e+01	5.453139e+01
2.310000e-06	2.153967e-06	8.058465e-10	1.493951e+01	5.566920e+01
2.320000e-06	2.197521e-06	8.228829e-10	1.524159e+01	5.678057e+01
2.330000e-06	2.240977e-06	8.410922e-10	1.554299e+01	5.786574e+01
2.340000e-06	2.284342e-06	8.579071e-10	1.584376e+01	5.892499e+01
2.350000e-06	2.327499e-06	8.727540e-10	1.614309e+01	5.995868e+01
2.360000e-06	2.370456e-06	8.858683e-10	1.644103e+01	6.096720e+01
2.370000e-06	2.413278e-06	8.968612e-10	1.673803e+01	6.195103e+01
2.380000e-06	2.455790e-06	9.072764e-10	1.703289e+01	6.291066e+01
2.390000e-06	2.497916e-06	9.190211e-10	1.732507e+01	6.384665e+01
2.400000e-06	2.539789e-06	9.319208e-10	1.761549e+01	6.475958e+01
2.410000e-06	2.581402e-06	9.454196e-10	1.790411e+01	6.565008e+01
2.420000e-06	2.622628e-06	9.600113e-10	1.819005e+01	6.651878e+01
2.430000e-06	2.663459e-06	9.719079e-10	1.847324e+01	6.736636e+01
2.440000e-06	2.703984e-06	9.810982e-10	1.875432e+01	6.819350e+01
2.450000e-06	2.744277e-06	9.902962e-10	1.903378e+01	6.900090e+01
2.460000e-06	2.784382e-06	1.000817e-09	1.931194e+01	6.978927e+01
2.470000e-06	2.824339e-06	1.011322e-09	1.958908e+01	7.055931e+01
2.480000e-06	2.864152e-06	1.021694e-09	1.986521e+01	7.131172e+01
2.490000e-06	2.903828e-06	1.031683e-09	2.014039e+01	7.204720e+01
2.500000e-06	2.943409e-06	1.040674e-09	2.041492e+01	7.276643e+01
2.510000e-06	2.982827e-06	1.050172e-09	2.068832e+01	7.347010e+01
2.520000e-06	3.022067e-06	1.059281e-09	2.096048e+01	7.415884e+01
2.530000e-06	3.061218e-06	1.069373e-09	2.123202e+01	7.483330e+01
2.540000e-06	3.100188e-06	1.079020e-09	2.150231e+01	7.549407e+01
2.550000e-06	3.138886e-06	1.087255e-09	2.177071e+01	7.614174e+01
2.560000e-06	3.177339e-06	1.095275e-09	2.203742e+01	7.677686e+01
2.570000e-06	3.215545e-06	1.104827e-09	2.230241e+01	7.739994e+01
2.580000e-06	3.253510e-06	1.115074e-09	2.256573e+01	7.801148e+01
2.590000e-06	3.291253e-06	1.126065e-09	2.282750e+01	7.861193e+01
2.600000e-06	3.328772e-06	1.136297e-09	2.308772e+01	7.920170e+01
2.610000e-06	3.366112e-06	1.145053e-09	2.334671e+01	7.978118e+01
2.620000e-06	3.403240e-06	1.150876e-09	2.360422e+01	8.035071e+01
2.630000e-06	3.440150e-06	1.155766e-09	2.386022e+01	8.091062e+01
2.640000e-06	3.476829e-06	1.162867e-09	2.411462e+01	8.146118e+01
2.650000e-06	3.513183e-06	1.173838e-09	2.436677e+01	8.200263e+01
2.660000e-06	3.549234e-06	1.185997e-09	2.461681e+01	8.253520e+01
2.670000e-06	3.585074e-06	1.196229e-09	2.486539e+01	8.305906e+01
2.680000e-06	3.620775e-06	1.203611e-09	2.511300e+01	8.357437e+01
2.690000e-06	3.656402e-06	1.208143e-09	2.536011e+01	8.408126e+01
2.700000e-06	3.691929e-06	1.210322e-09	2.560652e+01	8.457982e+01
2.710000e-06	3.727218e-06	1.215228e-09	2.585127e+01	8.507014e+01
2.720000e-06	3.762221e-06	1.223519e-09	2.609405e+01	8.555227e+01
2.730000e-06	3.796949e-06	1.231321e-09	2.633491e+01	8.602625e+01
2.740000e-06	3.831302e-06	1.238395e-09	2.657318e+01	8.649211e+01
2.750000e-06	3.865173e-06	1.246256e-09	2.680810e+01	8.694984e+01
2.760000e-06	3.898511e-06	1.253519e-09	2.703933e+01	8.739945e+01
2.770000e-06	3.931417e-06	1.259458e-09	2.726755e+01	8.784093e+01
2.780000e-06	3.964055e-06	1.264219e-09	2.749393e+01	8.827426e+01
2.790000e-06	3.996377e-06	1.266873e-09	2.771811e+01	8.869941e+01
2.800000e-06	4.028415e-06	1.270712e-09	2.794032e+01	8.911635e+01
2.810000e-06	4.060199e-06	1.276652e-09	2.816076e+01	8.952508e+01
2.820000e-06	4.091759e-06	1.283136e-09	2.837966e+01	8.992555e+01
2.830000e-06	4.123199e-06	1.289566e-09	2.859772e+01	9.031775e+01
2.840000e-06	4.154415e-06	1.295056e-09	2.881423e+01	9.070168e+01
2.850000e-06	4.185280e-06	1.298605e-09	2.902830e+01	9.107731e+01
2.860000e-06	4.215760e-06	1.301604e-09	2.923970e+01	9.144467e+01
2.870000e-06	4.245985e-06	1.304459e-09	2.944934e+01	9.180375e+01
2.880000e-06	4.275998e-06	1.306869e-09	2.965751e+01	9.215458e+01
2.890000e-06	4.305702e-06	1.308693e-09	2.986353e+01	9.249719e+01
2.900000e-06	4.335122e-06	1.312461e-09	3.006758e+01	9.283164e+01
