# Temperatura_=_-2.68
# Concentracion g/m^3_=_1620.0
# C_Vs_to_Am_M_A/Vsm_=_65563218390.804596
# pendiente_HvsI_1/m_=_3716.3
# ordenada_HvsI_A/m_=_1297.0
# frecuencia_Hz_=_135100.4877422209

Tiempo_(s)	Campo_(V.s)	Magnetizacion_(V.s)	Campo_(kA/m)	Magnetizacion_(A/m)
0.000000e+00	-5.542065e-06	-1.020879e-09	-3.837262e+01	-6.724453e+01
1.000000e-08	-5.542336e-06	-1.017426e-09	-3.837450e+01	-6.720908e+01
2.000000e-08	-5.542350e-06	-1.013729e-09	-3.837460e+01	-6.717203e+01
3.000000e-08	-5.542007e-06	-1.013425e-09	-3.837222e+01	-6.713328e+01
4.000000e-08	-5.541116e-06	-1.014743e-09	-3.836605e+01	-6.709275e+01
5.000000e-08	-5.539574e-06	-1.015229e-09	-3.835537e+01	-6.705035e+01
6.000000e-08	-5.537388e-06	-1.013584e-09	-3.834024e+01	-6.700597e+01
7.000000e-08	-5.534628e-06	-1.016301e-09	-3.832113e+01	-6.695951e+01
8.000000e-08	-5.531388e-06	-1.023910e-09	-3.829869e+01	-6.691090e+01
9.000000e-08	-5.527744e-06	-1.008137e-09	-3.827347e+01	-6.686002e+01
1.000000e-07	-5.523780e-06	-9.861920e-10	-3.824601e+01	-6.680679e+01
1.100000e-07	-5.519475e-06	-1.003615e-09	-3.821621e+01	-6.675112e+01
1.200000e-07	-5.514961e-06	-1.018011e-09	-3.818496e+01	-6.669294e+01
1.300000e-07	-5.510251e-06	-1.013557e-09	-3.815234e+01	-6.663216e+01
1.400000e-07	-5.505135e-06	-9.862682e-10	-3.811692e+01	-6.656872e+01
1.500000e-07	-5.499619e-06	-9.995335e-10	-3.807873e+01	-6.650255e+01
1.600000e-07	-5.493748e-06	-1.027810e-09	-3.803808e+01	-6.643362e+01
1.700000e-07	-5.487505e-06	-1.003425e-09	-3.799486e+01	-6.636187e+01
1.800000e-07	-5.480819e-06	-9.767681e-10	-3.794856e+01	-6.628728e+01
1.900000e-07	-5.473674e-06	-9.751794e-10	-3.789909e+01	-6.620984e+01
2.000000e-07	-5.466208e-06	-1.018943e-09	-3.784740e+01	-6.612953e+01
2.100000e-07	-5.458450e-06	-1.011287e-09	-3.779368e+01	-6.604637e+01
2.200000e-07	-5.450444e-06	-1.003971e-09	-3.773825e+01	-6.596036e+01
2.300000e-07	-5.442115e-06	-9.871685e-10	-3.768058e+01	-6.587156e+01
2.400000e-07	-5.433308e-06	-9.952285e-10	-3.761960e+01	-6.578000e+01
2.500000e-07	-5.423819e-06	-9.788591e-10	-3.755390e+01	-6.568573e+01
2.600000e-07	-5.413613e-06	-9.671576e-10	-3.748324e+01	-6.558884e+01
2.700000e-07	-5.402897e-06	-9.608784e-10	-3.740904e+01	-6.548940e+01
2.800000e-07	-5.391768e-06	-9.722963e-10	-3.733198e+01	-6.538750e+01
2.900000e-07	-5.380194e-06	-9.687225e-10	-3.725184e+01	-6.528325e+01
3.000000e-07	-5.368225e-06	-9.527734e-10	-3.716897e+01	-6.517676e+01
3.100000e-07	-5.355927e-06	-9.517659e-10	-3.708383e+01	-6.506815e+01
3.200000e-07	-5.343253e-06	-9.543935e-10	-3.699607e+01	-6.495756e+01
3.300000e-07	-5.330174e-06	-9.587148e-10	-3.690551e+01	-6.484511e+01
3.400000e-07	-5.316680e-06	-9.386250e-10	-3.681208e+01	-6.473096e+01
3.500000e-07	-5.302708e-06	-9.411429e-10	-3.671534e+01	-6.461524e+01
3.600000e-07	-5.288195e-06	-9.527514e-10	-3.661485e+01	-6.449810e+01
3.700000e-07	-5.273168e-06	-9.579188e-10	-3.651081e+01	-6.437969e+01
3.800000e-07	-5.257687e-06	-9.365636e-10	-3.640362e+01	-6.426016e+01
3.900000e-07	-5.241799e-06	-9.449162e-10	-3.629361e+01	-6.413965e+01
4.000000e-07	-5.225471e-06	-9.466631e-10	-3.618056e+01	-6.401831e+01
4.100000e-07	-5.208730e-06	-9.365860e-10	-3.606465e+01	-6.389626e+01
4.200000e-07	-5.191651e-06	-9.347937e-10	-3.594640e+01	-6.377364e+01
4.300000e-07	-5.174284e-06	-9.586649e-10	-3.582615e+01	-6.365058e+01
4.400000e-07	-5.156590e-06	-9.427302e-10	-3.570364e+01	-6.352717e+01
4.500000e-07	-5.138500e-06	-9.301560e-10	-3.557838e+01	-6.340353e+01
4.600000e-07	-5.119946e-06	-9.456065e-10	-3.544992e+01	-6.327975e+01
4.700000e-07	-5.100982e-06	-9.543687e-10	-3.531861e+01	-6.315589e+01
4.800000e-07	-5.081709e-06	-9.288113e-10	-3.518517e+01	-6.303202e+01
4.900000e-07	-5.062198e-06	-9.404590e-10	-3.505008e+01	-6.290818e+01
5.000000e-07	-5.042488e-06	-9.516597e-10	-3.491361e+01	-6.278442e+01
5.100000e-07	-5.022568e-06	-9.298549e-10	-3.477569e+01	-6.266073e+01
5.200000e-07	-5.002375e-06	-9.249262e-10	-3.463587e+01	-6.253713e+01
5.300000e-07	-4.981838e-06	-9.501754e-10	-3.449367e+01	-6.241358e+01
5.400000e-07	-4.960883e-06	-9.301715e-10	-3.434858e+01	-6.229006e+01
5.500000e-07	-4.939541e-06	-9.097633e-10	-3.420081e+01	-6.216652e+01
5.600000e-07	-4.917869e-06	-9.341602e-10	-3.405076e+01	-6.204287e+01
5.700000e-07	-4.895806e-06	-9.389444e-10	-3.389800e+01	-6.191903e+01
5.800000e-07	-4.873453e-06	-9.139333e-10	-3.374323e+01	-6.179491e+01
5.900000e-07	-4.850792e-06	-9.228879e-10	-3.358633e+01	-6.167038e+01
6.000000e-07	-4.827689e-06	-9.349902e-10	-3.342637e+01	-6.154531e+01
6.100000e-07	-4.804334e-06	-9.154068e-10	-3.326466e+01	-6.141955e+01
6.200000e-07	-4.780796e-06	-9.147518e-10	-3.310168e+01	-6.129295e+01
6.300000e-07	-4.757030e-06	-9.261818e-10	-3.293713e+01	-6.116534e+01
6.400000e-07	-4.733047e-06	-9.163422e-10	-3.277107e+01	-6.103653e+01
6.500000e-07	-4.708731e-06	-9.068824e-10	-3.260271e+01	-6.090633e+01
6.600000e-07	-4.683916e-06	-9.162272e-10	-3.243089e+01	-6.077456e+01
6.700000e-07	-4.658481e-06	-9.072091e-10	-3.225479e+01	-6.064101e+01
6.800000e-07	-4.632458e-06	-8.986354e-10	-3.207461e+01	-6.050548e+01
6.900000e-07	-4.605901e-06	-9.003047e-10	-3.189073e+01	-6.036776e+01
7.000000e-07	-4.578894e-06	-8.984322e-10	-3.170373e+01	-6.022764e+01
7.100000e-07	-4.551547e-06	-8.872447e-10	-3.151439e+01	-6.008492e+01
7.200000e-07	-4.523986e-06	-8.933724e-10	-3.132356e+01	-5.993939e+01
7.300000e-07	-4.496294e-06	-8.964265e-10	-3.113182e+01	-5.979086e+01
7.400000e-07	-4.468369e-06	-8.920523e-10	-3.093847e+01	-5.963913e+01
7.500000e-07	-4.440210e-06	-8.868560e-10	-3.074350e+01	-5.948401e+01
7.600000e-07	-4.411844e-06	-8.883225e-10	-3.054710e+01	-5.932532e+01
7.700000e-07	-4.383150e-06	-8.829795e-10	-3.034843e+01	-5.916291e+01
7.800000e-07	-4.354029e-06	-8.802674e-10	-3.014680e+01	-5.899661e+01
7.900000e-07	-4.324533e-06	-8.761090e-10	-2.994257e+01	-5.882627e+01
8.000000e-07	-4.294853e-06	-8.708495e-10	-2.973707e+01	-5.865177e+01
8.100000e-07	-4.264961e-06	-8.632270e-10	-2.953010e+01	-5.847299e+01
8.200000e-07	-4.234719e-06	-8.604188e-10	-2.932071e+01	-5.828982e+01
8.300000e-07	-4.204203e-06	-8.556851e-10	-2.910942e+01	-5.810218e+01
8.400000e-07	-4.173432e-06	-8.508037e-10	-2.889636e+01	-5.791000e+01
8.500000e-07	-4.142252e-06	-8.502503e-10	-2.868047e+01	-5.771321e+01
8.600000e-07	-4.110836e-06	-8.511798e-10	-2.846295e+01	-5.751178e+01
8.700000e-07	-4.079293e-06	-8.477343e-10	-2.824456e+01	-5.730568e+01
8.800000e-07	-4.047548e-06	-8.433180e-10	-2.802476e+01	-5.709489e+01
8.900000e-07	-4.015632e-06	-8.402159e-10	-2.780378e+01	-5.687943e+01
9.000000e-07	-3.983540e-06	-8.293349e-10	-2.758157e+01	-5.665930e+01
9.100000e-07	-3.951190e-06	-8.179715e-10	-2.735759e+01	-5.643455e+01
9.200000e-07	-3.918405e-06	-8.137410e-10	-2.713058e+01	-5.620521e+01
9.300000e-07	-3.885093e-06	-8.102719e-10	-2.689994e+01	-5.597135e+01
9.400000e-07	-3.851293e-06	-8.050901e-10	-2.666591e+01	-5.573302e+01
9.500000e-07	-3.817053e-06	-8.056163e-10	-2.642884e+01	-5.549030e+01
9.600000e-07	-3.782385e-06	-8.033671e-10	-2.618880e+01	-5.524328e+01
9.700000e-07	-3.747385e-06	-7.979791e-10	-2.594646e+01	-5.499204e+01
9.800000e-07	-3.712101e-06	-7.939400e-10	-2.570216e+01	-5.473669e+01
9.900000e-07	-3.676583e-06	-7.931104e-10	-2.545624e+01	-5.447731e+01
1.000000e-06	-3.640947e-06	-7.870524e-10	-2.520950e+01	-5.421402e+01
1.010000e-06	-3.605202e-06	-7.833030e-10	-2.496201e+01	-5.394692e+01
1.020000e-06	-3.569346e-06	-7.817007e-10	-2.471374e+01	-5.367611e+01
1.030000e-06	-3.533282e-06	-7.792057e-10	-2.446404e+01	-5.340169e+01
1.040000e-06	-3.496995e-06	-7.729203e-10	-2.421279e+01	-5.312376e+01
1.050000e-06	-3.460489e-06	-7.709355e-10	-2.396003e+01	-5.284241e+01
1.060000e-06	-3.423613e-06	-7.671948e-10	-2.370470e+01	-5.255772e+01
1.070000e-06	-3.386502e-06	-7.615101e-10	-2.344775e+01	-5.226979e+01
1.080000e-06	-3.349238e-06	-7.568780e-10	-2.318974e+01	-5.197868e+01
1.090000e-06	-3.311707e-06	-7.531750e-10	-2.292988e+01	-5.168444e+01
1.100000e-06	-3.273857e-06	-7.454630e-10	-2.266781e+01	-5.138714e+01
1.110000e-06	-3.235680e-06	-7.380973e-10	-2.240347e+01	-5.108681e+01
1.120000e-06	-3.197311e-06	-7.330186e-10	-2.213781e+01	-5.078348e+01
1.130000e-06	-3.158876e-06	-7.280259e-10	-2.187169e+01	-5.047716e+01
1.140000e-06	-3.120193e-06	-7.238951e-10	-2.160386e+01	-5.016785e+01
1.150000e-06	-3.081205e-06	-7.226253e-10	-2.133391e+01	-4.985553e+01
1.160000e-06	-3.041975e-06	-7.208393e-10	-2.106228e+01	-4.954018e+01
1.170000e-06	-3.002556e-06	-7.169115e-10	-2.078935e+01	-4.922175e+01
1.180000e-06	-2.963013e-06	-7.110000e-10	-2.051556e+01	-4.890019e+01
1.190000e-06	-2.923332e-06	-7.048990e-10	-2.024081e+01	-4.857541e+01
1.200000e-06	-2.883566e-06	-6.973816e-10	-1.996548e+01	-4.824733e+01
1.210000e-06	-2.843721e-06	-6.896097e-10	-1.968960e+01	-4.791585e+01
1.220000e-06	-2.803734e-06	-6.843359e-10	-1.941273e+01	-4.758084e+01
1.230000e-06	-2.763583e-06	-6.803832e-10	-1.913473e+01	-4.724217e+01
1.240000e-06	-2.723254e-06	-6.780733e-10	-1.885550e+01	-4.689970e+01
1.250000e-06	-2.682608e-06	-6.743079e-10	-1.857407e+01	-4.655326e+01
1.260000e-06	-2.641674e-06	-6.692567e-10	-1.829065e+01	-4.620268e+01
1.270000e-06	-2.600431e-06	-6.598898e-10	-1.800508e+01	-4.584777e+01
1.280000e-06	-2.558858e-06	-6.528311e-10	-1.771724e+01	-4.548834e+01
1.290000e-06	-2.517064e-06	-6.485034e-10	-1.742786e+01	-4.512418e+01
1.300000e-06	-2.474987e-06	-6.437359e-10	-1.713652e+01	-4.475507e+01
1.310000e-06	-2.432513e-06	-6.357731e-10	-1.684244e+01	-4.438078e+01
1.320000e-06	-2.389783e-06	-6.290606e-10	-1.654659e+01	-4.400108e+01
1.330000e-06	-2.346872e-06	-6.216691e-10	-1.624947e+01	-4.361571e+01
1.340000e-06	-2.303708e-06	-6.127433e-10	-1.595061e+01	-4.322444e+01
1.350000e-06	-2.260333e-06	-6.047431e-10	-1.565029e+01	-4.282700e+01
1.360000e-06	-2.216776e-06	-5.994902e-10	-1.534870e+01	-4.242313e+01
1.370000e-06	-2.173144e-06	-5.955151e-10	-1.504660e+01	-4.201255e+01
1.380000e-06	-2.129458e-06	-5.912109e-10	-1.474412e+01	-4.159501e+01
1.390000e-06	-2.085686e-06	-5.844466e-10	-1.444105e+01	-4.117021e+01
1.400000e-06	-2.041849e-06	-5.737232e-10	-1.413753e+01	-4.073789e+01
1.410000e-06	-1.997923e-06	-5.605466e-10	-1.383339e+01	-4.029777e+01
1.420000e-06	-1.953926e-06	-5.495688e-10	-1.352876e+01	-3.984955e+01
1.430000e-06	-1.909862e-06	-5.409777e-10	-1.322366e+01	-3.939295e+01
1.440000e-06	-1.865718e-06	-5.345368e-10	-1.291802e+01	-3.892770e+01
1.450000e-06	-1.821456e-06	-5.303241e-10	-1.261155e+01	-3.845350e+01
1.460000e-06	-1.777033e-06	-5.247733e-10	-1.230397e+01	-3.797008e+01
1.470000e-06	-1.732514e-06	-5.160877e-10	-1.199573e+01	-3.747714e+01
1.480000e-06	-1.687845e-06	-5.048099e-10	-1.168645e+01	-3.697441e+01
1.490000e-06	-1.642965e-06	-4.943301e-10	-1.137570e+01	-3.646161e+01
1.500000e-06	-1.597967e-06	-4.847477e-10	-1.106414e+01	-3.593846e+01
1.510000e-06	-1.552792e-06	-4.769534e-10	-1.075135e+01	-3.540468e+01
1.520000e-06	-1.507443e-06	-4.694340e-10	-1.043736e+01	-3.486001e+01
1.530000e-06	-1.461942e-06	-4.615094e-10	-1.012232e+01	-3.430417e+01
1.540000e-06	-1.416337e-06	-4.532237e-10	-9.806553e+00	-3.373690e+01
1.550000e-06	-1.370720e-06	-4.432789e-10	-9.490707e+00	-3.315795e+01
1.560000e-06	-1.325030e-06	-4.332214e-10	-9.174356e+00	-3.256706e+01
1.570000e-06	-1.279207e-06	-4.256555e-10	-8.857084e+00	-3.196399e+01
1.580000e-06	-1.233283e-06	-4.167859e-10	-8.539108e+00	-3.134848e+01
1.590000e-06	-1.187404e-06	-4.043067e-10	-8.221449e+00	-3.072033e+01
1.600000e-06	-1.141541e-06	-3.917326e-10	-7.903902e+00	-3.007929e+01
1.610000e-06	-1.095548e-06	-3.802459e-10	-7.585445e+00	-2.942516e+01
1.620000e-06	-1.049446e-06	-3.710562e-10	-7.266243e+00	-2.875773e+01
1.630000e-06	-1.003275e-06	-3.640318e-10	-6.946558e+00	-2.807681e+01
1.640000e-06	-9.569939e-07	-3.563419e-10	-6.626116e+00	-2.738222e+01
1.650000e-06	-9.106006e-07	-3.469423e-10	-6.304894e+00	-2.667380e+01
1.660000e-06	-8.640870e-07	-3.357735e-10	-5.982839e+00	-2.595139e+01
1.670000e-06	-8.175315e-07	-3.232432e-10	-5.660494e+00	-2.521487e+01
1.680000e-06	-7.709767e-07	-3.088892e-10	-5.338154e+00	-2.446411e+01
1.690000e-06	-7.243851e-07	-2.967827e-10	-5.015559e+00	-2.369901e+01
1.700000e-06	-6.776967e-07	-2.858778e-10	-4.692294e+00	-2.291950e+01
1.710000e-06	-6.309710e-07	-2.743677e-10	-4.368771e+00	-2.212553e+01
1.720000e-06	-5.842571e-07	-2.621456e-10	-4.045329e+00	-2.131705e+01
1.730000e-06	-5.374892e-07	-2.515473e-10	-3.721514e+00	-2.049406e+01
1.740000e-06	-4.906817e-07	-2.406046e-10	-3.397424e+00	-1.965657e+01
1.750000e-06	-4.437586e-07	-2.273551e-10	-3.072533e+00	-1.880464e+01
1.760000e-06	-3.967881e-07	-2.152552e-10	-2.747315e+00	-1.793834e+01
1.770000e-06	-3.497956e-07	-2.043762e-10	-2.421944e+00	-1.705776e+01
1.780000e-06	-3.027535e-07	-1.923305e-10	-2.096230e+00	-1.616305e+01
1.790000e-06	-2.557381e-07	-1.801302e-10	-1.770701e+00	-1.525436e+01
1.800000e-06	-2.086391e-07	-1.682032e-10	-1.444593e+00	-1.433191e+01
1.810000e-06	-1.615692e-07	-1.547897e-10	-1.118687e+00	-1.339592e+01
1.820000e-06	-1.146265e-07	-1.404309e-10	-7.936608e-01	-1.244666e+01
1.830000e-06	-6.761920e-08	-1.264839e-10	-4.681876e-01	-1.148445e+01
1.840000e-06	-2.059899e-08	-1.121029e-10	-1.426250e-01	-1.050962e+01
1.850000e-06	2.634656e-08	-9.624348e-11	1.824205e-01	-9.522547e+00
1.860000e-06	7.333255e-08	-8.374282e-11	5.077462e-01	-8.523655e+00
1.870000e-06	1.203741e-07	-6.798831e-11	8.334564e-01	-7.513393e+00
1.880000e-06	1.674270e-07	-5.155120e-11	1.159245e+00	-6.492251e+00
1.890000e-06	2.144402e-07	-4.010568e-11	1.484759e+00	-5.460754e+00
1.900000e-06	2.614001e-07	-2.963548e-11	1.809904e+00	-4.419463e+00
1.910000e-06	3.083999e-07	-1.654191e-11	2.135326e+00	-3.368976e+00
1.920000e-06	3.553338e-07	1.292842e-12	2.460290e+00	-2.309921e+00
1.930000e-06	4.021792e-07	2.158568e-11	2.784643e+00	-1.242962e+00
1.940000e-06	4.490229e-07	4.081193e-11	3.108983e+00	-1.687907e-01
1.950000e-06	4.958311e-07	5.587922e-11	3.433078e+00	9.118694e-01
1.960000e-06	5.426258e-07	6.905538e-11	3.757079e+00	1.998269e+00
1.970000e-06	5.893082e-07	8.119871e-11	4.080303e+00	3.089632e+00
1.980000e-06	6.359338e-07	9.364014e-11	4.403132e+00	4.185161e+00
1.990000e-06	6.825663e-07	1.049284e-10	4.726011e+00	5.284038e+00
2.000000e-06	7.291377e-07	1.174523e-10	5.048466e+00	6.385427e+00
2.010000e-06	7.757070e-07	1.351059e-10	5.370906e+00	7.488476e+00
2.020000e-06	8.222037e-07	1.536018e-10	5.692844e+00	8.592323e+00
2.030000e-06	8.685667e-07	1.740497e-10	6.013856e+00	9.696095e+00
2.040000e-06	9.148072e-07	1.939306e-10	6.334020e+00	1.079892e+01
2.050000e-06	9.609788e-07	2.062607e-10	6.653707e+00	1.189991e+01
2.060000e-06	1.007196e-06	2.151025e-10	6.973707e+00	1.299818e+01
2.070000e-06	1.053401e-06	2.244712e-10	7.293626e+00	1.409288e+01
2.080000e-06	1.099477e-06	2.374711e-10	7.612650e+00	1.518312e+01
2.090000e-06	1.145384e-06	2.536832e-10	7.930505e+00	1.626805e+01
2.100000e-06	1.191163e-06	2.740828e-10	8.247475e+00	1.734683e+01
2.110000e-06	1.236911e-06	2.938739e-10	8.564228e+00	1.841863e+01
2.120000e-06	1.282571e-06	3.079914e-10	8.880376e+00	1.948265e+01
2.130000e-06	1.328178e-06	3.203361e-10	9.196149e+00	2.053812e+01
2.140000e-06	1.373803e-06	3.321035e-10	9.512051e+00	2.158427e+01
2.150000e-06	1.419267e-06	3.439715e-10	9.826841e+00	2.262038e+01
2.160000e-06	1.464575e-06	3.560400e-10	1.014055e+01	2.364576e+01
2.170000e-06	1.509824e-06	3.702885e-10	1.045385e+01	2.465975e+01
2.180000e-06	1.554917e-06	3.856353e-10	1.076607e+01	2.566173e+01
2.190000e-06	1.599923e-06	4.008029e-10	1.107768e+01	2.665112e+01
2.200000e-06	1.644923e-06	4.165995e-10	1.138925e+01	2.762738e+01
2.210000e-06	1.689767e-06	4.293250e-10	1.169975e+01	2.859000e+01
2.220000e-06	1.734427e-06	4.390590e-10	1.200897e+01	2.953853e+01
2.230000e-06	1.779014e-06	4.486377e-10	1.231769e+01	3.047256e+01
2.240000e-06	1.823478e-06	4.599756e-10	1.262555e+01	3.139172e+01
2.250000e-06	1.867694e-06	4.736940e-10	1.293170e+01	3.229568e+01
2.260000e-06	1.911699e-06	4.891328e-10	1.323638e+01	3.318418e+01
2.270000e-06	1.955627e-06	5.040791e-10	1.354053e+01	3.405697e+01
2.280000e-06	1.999539e-06	5.149624e-10	1.384458e+01	3.491387e+01
2.290000e-06	2.043397e-06	5.245836e-10	1.414825e+01	3.575474e+01
2.300000e-06	2.087173e-06	5.337939e-10	1.445134e+01	3.657948e+01
2.310000e-06	2.130864e-06	5.418258e-10	1.475386e+01	3.738803e+01
2.320000e-06	2.174471e-06	5.516597e-10	1.505578e+01	3.818038e+01
2.330000e-06	2.218054e-06	5.637100e-10	1.535755e+01	3.895655e+01
2.340000e-06	2.261570e-06	5.759441e-10	1.565885e+01	3.971660e+01
2.350000e-06	2.304889e-06	5.882344e-10	1.595879e+01	4.046062e+01
2.360000e-06	2.348037e-06	5.998518e-10	1.625754e+01	4.118874e+01
2.370000e-06	2.391014e-06	6.095782e-10	1.655511e+01	4.190113e+01
2.380000e-06	2.433816e-06	6.158786e-10	1.685146e+01	4.259797e+01
2.390000e-06	2.476418e-06	6.224591e-10	1.714643e+01	4.327948e+01
2.400000e-06	2.518658e-06	6.306166e-10	1.743890e+01	4.394589e+01
2.410000e-06	2.560355e-06	6.403397e-10	1.772761e+01	4.459746e+01
2.420000e-06	2.601658e-06	6.518004e-10	1.801358e+01	4.523446e+01
2.430000e-06	2.642782e-06	6.641118e-10	1.829832e+01	4.585719e+01
2.440000e-06	2.683641e-06	6.745280e-10	1.858122e+01	4.646595e+01
2.450000e-06	2.724212e-06	6.816990e-10	1.886213e+01	4.706105e+01
2.460000e-06	2.764508e-06	6.879403e-10	1.914114e+01	4.764281e+01
2.470000e-06	2.804544e-06	6.943263e-10	1.941834e+01	4.821156e+01
2.480000e-06	2.844428e-06	7.000822e-10	1.969450e+01	4.876761e+01
2.490000e-06	2.884236e-06	7.044486e-10	1.997012e+01	4.931130e+01
2.500000e-06	2.923942e-06	7.097735e-10	2.024504e+01	4.984295e+01
2.510000e-06	2.963537e-06	7.194713e-10	2.051919e+01	5.036288e+01
2.520000e-06	3.002991e-06	7.309097e-10	2.079237e+01	5.087140e+01
2.530000e-06	3.042314e-06	7.393976e-10	2.106463e+01	5.136881e+01
2.540000e-06	3.081435e-06	7.456791e-10	2.133551e+01	5.185541e+01
2.550000e-06	3.120335e-06	7.516270e-10	2.160484e+01	5.233148e+01
2.560000e-06	3.158961e-06	7.560533e-10	2.187229e+01	5.279729e+01
2.570000e-06	3.197232e-06	7.600166e-10	2.213727e+01	5.325310e+01
2.580000e-06	3.235344e-06	7.667774e-10	2.240115e+01	5.369916e+01
2.590000e-06	3.273290e-06	7.765800e-10	2.266389e+01	5.413569e+01
2.600000e-06	3.311012e-06	7.862953e-10	2.292506e+01	5.456291e+01
2.610000e-06	3.348589e-06	7.930382e-10	2.318525e+01	5.498102e+01
2.620000e-06	3.385901e-06	7.991242e-10	2.344359e+01	5.539021e+01
2.630000e-06	3.422927e-06	8.064073e-10	2.369995e+01	5.579063e+01
2.640000e-06	3.459729e-06	8.132526e-10	2.395477e+01	5.618246e+01
2.650000e-06	3.496259e-06	8.194977e-10	2.420769e+01	5.656584e+01
2.660000e-06	3.532541e-06	8.275584e-10	2.445891e+01	5.694088e+01
2.670000e-06	3.568608e-06	8.336549e-10	2.470863e+01	5.730771e+01
2.680000e-06	3.604461e-06	8.377018e-10	2.495687e+01	5.766644e+01
2.690000e-06	3.640186e-06	8.396747e-10	2.520423e+01	5.801716e+01
2.700000e-06	3.675844e-06	8.398908e-10	2.545112e+01	5.835995e+01
2.710000e-06	3.711359e-06	8.434198e-10	2.569702e+01	5.869489e+01
2.720000e-06	3.746641e-06	8.505527e-10	2.594131e+01	5.902205e+01
2.730000e-06	3.781634e-06	8.580917e-10	2.618360e+01	5.934149e+01
2.740000e-06	3.816405e-06	8.641218e-10	2.642435e+01	5.965329e+01
2.750000e-06	3.850816e-06	8.666523e-10	2.666261e+01	5.995748e+01
2.760000e-06	3.884633e-06	8.678876e-10	2.689675e+01	6.025412e+01
2.770000e-06	3.917799e-06	8.699396e-10	2.712639e+01	6.054328e+01
2.780000e-06	3.950427e-06	8.714203e-10	2.735230e+01	6.082499e+01
2.790000e-06	3.982787e-06	8.740072e-10	2.757636e+01	6.109932e+01
2.800000e-06	4.014911e-06	8.776339e-10	2.779878e+01	6.136631e+01
2.810000e-06	4.046784e-06	8.808725e-10	2.801947e+01	6.162604e+01
2.820000e-06	4.078504e-06	8.828486e-10	2.823909e+01	6.187856e+01
2.830000e-06	4.110089e-06	8.851014e-10	2.845778e+01	6.212394e+01
2.840000e-06	4.141495e-06	8.893570e-10	2.867524e+01	6.236225e+01
2.850000e-06	4.172665e-06	8.938742e-10	2.889105e+01	6.259356e+01
2.860000e-06	4.203536e-06	8.976168e-10	2.910480e+01	6.281798e+01
2.870000e-06	4.234049e-06	9.017066e-10	2.931607e+01	6.303557e+01
2.880000e-06	4.264219e-06	9.046632e-10	2.952496e+01	6.324645e+01
2.890000e-06	4.294113e-06	9.052879e-10	2.973195e+01	6.345071e+01
2.900000e-06	4.323734e-06	9.050983e-10	2.993704e+01	6.364846e+01
