# Temperatura_=_-0.31
# Concentracion g/m^3_=_1620.0
# C_Vs_to_Am_M_A/Vsm_=_65563218390.804596
# pendiente_HvsI_1/m_=_3716.3
# ordenada_HvsI_A/m_=_1297.0
# frecuencia_Hz_=_135089.29292148584

Tiempo_(s)	Campo_(V.s)	Magnetizacion_(V.s)	Campo_(kA/m)	Magnetizacion_(A/m)
0.000000e+00	-5.511998e-06	-1.733512e-09	-3.837392e+01	-1.114241e+02
1.000000e-08	-5.512180e-06	-1.732212e-09	-3.837519e+01	-1.113835e+02
2.000000e-08	-5.512096e-06	-1.728047e-09	-3.837460e+01	-1.113388e+02
3.000000e-08	-5.511572e-06	-1.725166e-09	-3.837096e+01	-1.112900e+02
4.000000e-08	-5.510619e-06	-1.724375e-09	-3.836432e+01	-1.112372e+02
5.000000e-08	-5.509196e-06	-1.726354e-09	-3.835441e+01	-1.111804e+02
6.000000e-08	-5.507196e-06	-1.742261e-09	-3.834049e+01	-1.111197e+02
7.000000e-08	-5.504672e-06	-1.796016e-09	-3.832292e+01	-1.110552e+02
8.000000e-08	-5.501594e-06	-1.795988e-09	-3.830149e+01	-1.109869e+02
9.000000e-08	-5.498023e-06	-1.643087e-09	-3.827663e+01	-1.109150e+02
1.000000e-07	-5.494068e-06	-1.545514e-09	-3.824910e+01	-1.108395e+02
1.100000e-07	-5.489778e-06	-1.740147e-09	-3.821923e+01	-1.107605e+02
1.200000e-07	-5.485155e-06	-1.887721e-09	-3.818705e+01	-1.106781e+02
1.300000e-07	-5.480187e-06	-1.760847e-09	-3.815246e+01	-1.105924e+02
1.400000e-07	-5.474917e-06	-1.582136e-09	-3.811577e+01	-1.105035e+02
1.500000e-07	-5.469405e-06	-1.725533e-09	-3.807739e+01	-1.104114e+02
1.600000e-07	-5.463419e-06	-1.886387e-09	-3.803572e+01	-1.103162e+02
1.700000e-07	-5.456996e-06	-1.741970e-09	-3.799101e+01	-1.102181e+02
1.800000e-07	-5.450266e-06	-1.546974e-09	-3.794415e+01	-1.101170e+02
1.900000e-07	-5.443157e-06	-1.620473e-09	-3.789466e+01	-1.100131e+02
2.000000e-07	-5.435694e-06	-1.777396e-09	-3.784270e+01	-1.099064e+02
2.100000e-07	-5.427942e-06	-1.753649e-09	-3.778873e+01	-1.097969e+02
2.200000e-07	-5.419964e-06	-1.650726e-09	-3.773319e+01	-1.096846e+02
2.300000e-07	-5.411664e-06	-1.630718e-09	-3.767541e+01	-1.095696e+02
2.400000e-07	-5.402801e-06	-1.683086e-09	-3.761370e+01	-1.094519e+02
2.500000e-07	-5.393463e-06	-1.646686e-09	-3.754870e+01	-1.093314e+02
2.600000e-07	-5.383633e-06	-1.606880e-09	-3.748026e+01	-1.092081e+02
2.700000e-07	-5.373051e-06	-1.610777e-09	-3.740659e+01	-1.090821e+02
2.800000e-07	-5.361927e-06	-1.657039e-09	-3.732914e+01	-1.089531e+02
2.900000e-07	-5.350496e-06	-1.645501e-09	-3.724956e+01	-1.088212e+02
3.000000e-07	-5.338642e-06	-1.610558e-09	-3.716704e+01	-1.086863e+02
3.100000e-07	-5.326313e-06	-1.583026e-09	-3.708120e+01	-1.085483e+02
3.200000e-07	-5.313602e-06	-1.631231e-09	-3.699271e+01	-1.084071e+02
3.300000e-07	-5.300540e-06	-1.631716e-09	-3.690177e+01	-1.082625e+02
3.400000e-07	-5.286985e-06	-1.573594e-09	-3.680741e+01	-1.081144e+02
3.500000e-07	-5.273012e-06	-1.571129e-09	-3.671013e+01	-1.079626e+02
3.600000e-07	-5.258724e-06	-1.640105e-09	-3.661066e+01	-1.078071e+02
3.700000e-07	-5.243865e-06	-1.607316e-09	-3.650721e+01	-1.076476e+02
3.800000e-07	-5.228506e-06	-1.564592e-09	-3.640028e+01	-1.074840e+02
3.900000e-07	-5.212727e-06	-1.635191e-09	-3.629043e+01	-1.073161e+02
4.000000e-07	-5.196607e-06	-1.618843e-09	-3.617820e+01	-1.071438e+02
4.100000e-07	-5.180056e-06	-1.514919e-09	-3.606298e+01	-1.069668e+02
4.200000e-07	-5.163083e-06	-1.587158e-09	-3.594481e+01	-1.067850e+02
4.300000e-07	-5.145976e-06	-1.682947e-09	-3.582572e+01	-1.065982e+02
4.400000e-07	-5.128409e-06	-1.544663e-09	-3.570342e+01	-1.064062e+02
4.500000e-07	-5.110357e-06	-1.487220e-09	-3.557774e+01	-1.062089e+02
4.600000e-07	-5.091977e-06	-1.630928e-09	-3.544978e+01	-1.060062e+02
4.700000e-07	-5.073156e-06	-1.605152e-09	-3.531875e+01	-1.057978e+02
4.800000e-07	-5.053914e-06	-1.481836e-09	-3.518479e+01	-1.055837e+02
4.900000e-07	-5.034381e-06	-1.582537e-09	-3.504881e+01	-1.053637e+02
5.000000e-07	-5.014679e-06	-1.629798e-09	-3.491164e+01	-1.051377e+02
5.100000e-07	-4.994705e-06	-1.498303e-09	-3.477258e+01	-1.049056e+02
5.200000e-07	-4.974522e-06	-1.532388e-09	-3.463207e+01	-1.046674e+02
5.300000e-07	-4.954076e-06	-1.632053e-09	-3.448973e+01	-1.044230e+02
5.400000e-07	-4.933235e-06	-1.499969e-09	-3.434464e+01	-1.041723e+02
5.500000e-07	-4.912008e-06	-1.453175e-09	-3.419686e+01	-1.039153e+02
5.600000e-07	-4.890442e-06	-1.592264e-09	-3.404671e+01	-1.036520e+02
5.700000e-07	-4.868486e-06	-1.567831e-09	-3.389386e+01	-1.033824e+02
5.800000e-07	-4.846149e-06	-1.464409e-09	-3.373836e+01	-1.031066e+02
5.900000e-07	-4.823583e-06	-1.547483e-09	-3.358125e+01	-1.028245e+02
6.000000e-07	-4.800637e-06	-1.567022e-09	-3.342150e+01	-1.025363e+02
6.100000e-07	-4.777326e-06	-1.464239e-09	-3.325922e+01	-1.022420e+02
6.200000e-07	-4.753826e-06	-1.488174e-09	-3.309561e+01	-1.019417e+02
6.300000e-07	-4.730093e-06	-1.548680e-09	-3.293038e+01	-1.016355e+02
6.400000e-07	-4.706068e-06	-1.483622e-09	-3.276312e+01	-1.013236e+02
6.500000e-07	-4.681755e-06	-1.473524e-09	-3.259386e+01	-1.010060e+02
6.600000e-07	-4.657016e-06	-1.527024e-09	-3.242163e+01	-1.006830e+02
6.700000e-07	-4.631785e-06	-1.490043e-09	-3.224598e+01	-1.003545e+02
6.800000e-07	-4.606037e-06	-1.453491e-09	-3.206672e+01	-1.000209e+02
6.900000e-07	-4.579792e-06	-1.495827e-09	-3.188401e+01	-9.968219e+01
7.000000e-07	-4.553072e-06	-1.488521e-09	-3.169798e+01	-9.933857e+01
7.100000e-07	-4.525918e-06	-1.445770e-09	-3.150894e+01	-9.899020e+01
7.200000e-07	-4.498451e-06	-1.463273e-09	-3.131772e+01	-9.863722e+01
7.300000e-07	-4.470789e-06	-1.473633e-09	-3.112514e+01	-9.827977e+01
7.400000e-07	-4.442978e-06	-1.436931e-09	-3.093152e+01	-9.791800e+01
7.500000e-07	-4.414941e-06	-1.426659e-09	-3.073633e+01	-9.755202e+01
7.600000e-07	-4.386534e-06	-1.440737e-09	-3.053857e+01	-9.718195e+01
7.700000e-07	-4.357821e-06	-1.425319e-09	-3.033867e+01	-9.680789e+01
7.800000e-07	-4.328895e-06	-1.419436e-09	-3.013729e+01	-9.642994e+01
7.900000e-07	-4.299673e-06	-1.428170e-09	-2.993385e+01	-9.604816e+01
8.000000e-07	-4.270148e-06	-1.410262e-09	-2.972830e+01	-9.566261e+01
8.100000e-07	-4.240348e-06	-1.385492e-09	-2.952083e+01	-9.527333e+01
8.200000e-07	-4.210280e-06	-1.390669e-09	-2.931150e+01	-9.488033e+01
8.300000e-07	-4.179899e-06	-1.380962e-09	-2.909999e+01	-9.448362e+01
8.400000e-07	-4.149221e-06	-1.359113e-09	-2.888642e+01	-9.408318e+01
8.500000e-07	-4.118211e-06	-1.364841e-09	-2.867053e+01	-9.367896e+01
8.600000e-07	-4.086921e-06	-1.373618e-09	-2.845269e+01	-9.327090e+01
8.700000e-07	-4.055471e-06	-1.351862e-09	-2.823374e+01	-9.285894e+01
8.800000e-07	-4.023837e-06	-1.343807e-09	-2.801351e+01	-9.244296e+01
8.900000e-07	-3.992041e-06	-1.343605e-09	-2.779215e+01	-9.202285e+01
9.000000e-07	-3.960041e-06	-1.322486e-09	-2.756937e+01	-9.159849e+01
9.100000e-07	-3.927726e-06	-1.306891e-09	-2.734439e+01	-9.116972e+01
9.200000e-07	-3.895058e-06	-1.315985e-09	-2.711697e+01	-9.073639e+01
9.300000e-07	-3.862006e-06	-1.304715e-09	-2.688686e+01	-9.029832e+01
9.400000e-07	-3.828500e-06	-1.285302e-09	-2.665360e+01	-8.985533e+01
9.500000e-07	-3.794557e-06	-1.288446e-09	-2.641729e+01	-8.940724e+01
9.600000e-07	-3.760170e-06	-1.287062e-09	-2.617789e+01	-8.895385e+01
9.700000e-07	-3.725389e-06	-1.266707e-09	-2.593574e+01	-8.849496e+01
9.800000e-07	-3.690374e-06	-1.263563e-09	-2.569198e+01	-8.803038e+01
9.900000e-07	-3.655076e-06	-1.269878e-09	-2.544624e+01	-8.755991e+01
1.000000e-06	-3.619461e-06	-1.255128e-09	-2.519829e+01	-8.708336e+01
1.010000e-06	-3.583685e-06	-1.242132e-09	-2.494922e+01	-8.660054e+01
1.020000e-06	-3.547805e-06	-1.243826e-09	-2.469943e+01	-8.611127e+01
1.030000e-06	-3.511749e-06	-1.232449e-09	-2.444841e+01	-8.561541e+01
1.040000e-06	-3.475488e-06	-1.213145e-09	-2.419597e+01	-8.511279e+01
1.050000e-06	-3.439032e-06	-1.211995e-09	-2.394216e+01	-8.460327e+01
1.060000e-06	-3.402355e-06	-1.207880e-09	-2.368682e+01	-8.408676e+01
1.070000e-06	-3.365391e-06	-1.192083e-09	-2.342948e+01	-8.356313e+01
1.080000e-06	-3.328163e-06	-1.184717e-09	-2.317030e+01	-8.303232e+01
1.090000e-06	-3.290762e-06	-1.184366e-09	-2.290992e+01	-8.249428e+01
1.100000e-06	-3.253147e-06	-1.169190e-09	-2.264805e+01	-8.194896e+01
1.110000e-06	-3.215187e-06	-1.155603e-09	-2.238377e+01	-8.139636e+01
1.120000e-06	-3.176966e-06	-1.152648e-09	-2.211769e+01	-8.083649e+01
1.130000e-06	-3.138653e-06	-1.142432e-09	-2.185095e+01	-8.026939e+01
1.140000e-06	-3.100082e-06	-1.126812e-09	-2.158243e+01	-7.969511e+01
1.150000e-06	-3.061257e-06	-1.123198e-09	-2.131213e+01	-7.911374e+01
1.160000e-06	-3.022316e-06	-1.119666e-09	-2.104103e+01	-7.852539e+01
1.170000e-06	-2.983175e-06	-1.108586e-09	-2.076853e+01	-7.793016e+01
1.180000e-06	-2.943788e-06	-1.099210e-09	-2.049433e+01	-7.732821e+01
1.190000e-06	-2.904233e-06	-1.093702e-09	-2.021895e+01	-7.671969e+01
1.200000e-06	-2.864574e-06	-1.078731e-09	-1.994285e+01	-7.610477e+01
1.210000e-06	-2.824740e-06	-1.064891e-09	-1.966553e+01	-7.548362e+01
1.220000e-06	-2.784808e-06	-1.056748e-09	-1.938753e+01	-7.485644e+01
1.230000e-06	-2.744792e-06	-1.044914e-09	-1.910894e+01	-7.422341e+01
1.240000e-06	-2.704563e-06	-1.031127e-09	-1.882887e+01	-7.358474e+01
1.250000e-06	-2.664086e-06	-1.023972e-09	-1.854707e+01	-7.294061e+01
1.260000e-06	-2.623429e-06	-1.021360e-09	-1.826403e+01	-7.229120e+01
1.270000e-06	-2.582532e-06	-1.015719e-09	-1.797931e+01	-7.163670e+01
1.280000e-06	-2.541336e-06	-1.008863e-09	-1.769250e+01	-7.097727e+01
1.290000e-06	-2.500000e-06	-1.003538e-09	-1.740472e+01	-7.031304e+01
1.300000e-06	-2.458370e-06	-9.925616e-10	-1.711490e+01	-6.964414e+01
1.310000e-06	-2.416260e-06	-9.767830e-10	-1.682174e+01	-6.897067e+01
1.320000e-06	-2.373886e-06	-9.641060e-10	-1.652673e+01	-6.829270e+01
1.330000e-06	-2.331279e-06	-9.547154e-10	-1.623011e+01	-6.761026e+01
1.340000e-06	-2.288344e-06	-9.456357e-10	-1.593120e+01	-6.692336e+01
1.350000e-06	-2.245237e-06	-9.357259e-10	-1.563109e+01	-6.623195e+01
1.360000e-06	-2.202016e-06	-9.247004e-10	-1.533019e+01	-6.553595e+01
1.370000e-06	-2.158603e-06	-9.121680e-10	-1.502796e+01	-6.483523e+01
1.380000e-06	-2.115026e-06	-9.007094e-10	-1.472458e+01	-6.412963e+01
1.390000e-06	-2.071358e-06	-8.879704e-10	-1.442056e+01	-6.341892e+01
1.400000e-06	-2.027636e-06	-8.748310e-10	-1.411618e+01	-6.270283e+01
1.410000e-06	-1.983851e-06	-8.626229e-10	-1.381135e+01	-6.198103e+01
1.420000e-06	-1.939974e-06	-8.500462e-10	-1.350589e+01	-6.125315e+01
1.430000e-06	-1.896025e-06	-8.361187e-10	-1.319992e+01	-6.051877e+01
1.440000e-06	-1.852005e-06	-8.228339e-10	-1.289345e+01	-5.977740e+01
1.450000e-06	-1.807894e-06	-8.123500e-10	-1.258636e+01	-5.902851e+01
1.460000e-06	-1.763626e-06	-8.020337e-10	-1.227817e+01	-5.827153e+01
1.470000e-06	-1.719239e-06	-7.911263e-10	-1.196915e+01	-5.750582e+01
1.480000e-06	-1.674734e-06	-7.794121e-10	-1.165931e+01	-5.673071e+01
1.490000e-06	-1.630099e-06	-7.673000e-10	-1.134857e+01	-5.594550e+01
1.500000e-06	-1.585490e-06	-7.538812e-10	-1.103801e+01	-5.514942e+01
1.510000e-06	-1.540699e-06	-7.370005e-10	-1.072618e+01	-5.434168e+01
1.520000e-06	-1.495720e-06	-7.193891e-10	-1.041304e+01	-5.352147e+01
1.530000e-06	-1.450703e-06	-7.037812e-10	-1.009963e+01	-5.268793e+01
1.540000e-06	-1.405520e-06	-6.930055e-10	-9.785074e+00	-5.184020e+01
1.550000e-06	-1.360144e-06	-6.794824e-10	-9.469172e+00	-5.097739e+01
1.560000e-06	-1.314651e-06	-6.662806e-10	-9.152456e+00	-5.009861e+01
1.570000e-06	-1.269121e-06	-6.520408e-10	-8.835483e+00	-4.920296e+01
1.580000e-06	-1.223533e-06	-6.366859e-10	-8.518103e+00	-4.828952e+01
1.590000e-06	-1.177850e-06	-6.197134e-10	-8.200062e+00	-4.735743e+01
1.600000e-06	-1.132104e-06	-6.057859e-10	-7.881584e+00	-4.640579e+01
1.610000e-06	-1.086300e-06	-5.916513e-10	-7.562700e+00	-4.543374e+01
1.620000e-06	-1.040409e-06	-5.738319e-10	-7.243213e+00	-4.444047e+01
1.630000e-06	-9.944280e-07	-5.584619e-10	-6.923098e+00	-4.342516e+01
1.640000e-06	-9.483722e-07	-5.449689e-10	-6.602463e+00	-4.238707e+01
1.650000e-06	-9.022953e-07	-5.317963e-10	-6.281680e+00	-4.132547e+01
1.660000e-06	-8.560924e-07	-5.155054e-10	-5.960020e+00	-4.023972e+01
1.670000e-06	-8.097395e-07	-4.977427e-10	-5.637317e+00	-3.912921e+01
1.680000e-06	-7.633718e-07	-4.783456e-10	-5.314510e+00	-3.799340e+01
1.690000e-06	-7.169869e-07	-4.604812e-10	-4.991584e+00	-3.683181e+01
1.700000e-06	-6.706290e-07	-4.451974e-10	-4.668845e+00	-3.564406e+01
1.710000e-06	-6.242242e-07	-4.310415e-10	-4.345780e+00	-3.442982e+01
1.720000e-06	-5.776965e-07	-4.153402e-10	-4.021859e+00	-3.318885e+01
1.730000e-06	-5.311361e-07	-3.943197e-10	-3.697711e+00	-3.192100e+01
1.740000e-06	-4.845479e-07	-3.702203e-10	-3.373369e+00	-3.062620e+01
1.750000e-06	-4.379211e-07	-3.479794e-10	-3.048759e+00	-2.930448e+01
1.760000e-06	-3.913691e-07	-3.279630e-10	-2.724668e+00	-2.795594e+01
1.770000e-06	-3.447718e-07	-3.127961e-10	-2.400263e+00	-2.658081e+01
1.780000e-06	-2.981463e-07	-2.982572e-10	-2.075662e+00	-2.517938e+01
1.790000e-06	-2.515534e-07	-2.829667e-10	-1.751287e+00	-2.375205e+01
1.800000e-06	-2.047561e-07	-2.664047e-10	-1.425489e+00	-2.229931e+01
1.810000e-06	-1.579161e-07	-2.449352e-10	-1.099394e+00	-2.082174e+01
1.820000e-06	-1.112084e-07	-2.197057e-10	-7.742204e-01	-1.932000e+01
1.830000e-06	-6.451624e-08	-1.960155e-10	-4.491549e-01	-1.779488e+01
1.840000e-06	-1.771105e-08	-1.735841e-10	-1.233023e-01	-1.624720e+01
1.850000e-06	2.915008e-08	-1.503801e-10	2.029397e-01	-1.467789e+01
1.860000e-06	7.594300e-08	-1.282040e-10	5.287068e-01	-1.308798e+01
1.870000e-06	1.227011e-07	-1.061467e-10	8.542316e-01	-1.147852e+01
1.880000e-06	1.695415e-07	-8.408291e-11	1.180329e+00	-9.850684e+00
1.890000e-06	2.163030e-07	-6.334418e-11	1.505878e+00	-8.205676e+00
1.900000e-06	2.629276e-07	-4.307056e-11	1.830473e+00	-6.544773e+00
1.910000e-06	3.095182e-07	-2.255941e-11	2.154832e+00	-4.869302e+00
1.920000e-06	3.561429e-07	1.396015e-12	2.479428e+00	-3.180637e+00
1.930000e-06	4.027826e-07	2.870152e-11	2.804128e+00	-1.480195e+00
1.940000e-06	4.493382e-07	5.578887e-11	3.128243e+00	2.305742e-01
1.950000e-06	4.958220e-07	8.072961e-11	3.451858e+00	1.950190e+00
1.960000e-06	5.423080e-07	1.042582e-10	3.775488e+00	3.677152e+00
1.970000e-06	5.887663e-07	1.273333e-10	4.098926e+00	5.409944e+00
1.980000e-06	6.351059e-07	1.491492e-10	4.421537e+00	7.147040e+00
1.990000e-06	6.814265e-07	1.710231e-10	4.744016e+00	8.886914e+00
2.000000e-06	7.277815e-07	1.941780e-10	5.066734e+00	1.062804e+01
2.010000e-06	7.740750e-07	2.192490e-10	5.389025e+00	1.236891e+01
2.020000e-06	8.202725e-07	2.428328e-10	5.710647e+00	1.410802e+01
2.030000e-06	8.664505e-07	2.695335e-10	6.032133e+00	1.584390e+01
2.040000e-06	9.125887e-07	2.997008e-10	6.353341e+00	1.757510e+01
2.050000e-06	9.585924e-07	3.250244e-10	6.673615e+00	1.930021e+01
2.060000e-06	1.004485e-06	3.472338e-10	6.993117e+00	2.101785e+01
2.070000e-06	1.050312e-06	3.690105e-10	7.312153e+00	2.272668e+01
2.080000e-06	1.096067e-06	3.888220e-10	7.630695e+00	2.442542e+01
2.090000e-06	1.141838e-06	4.107157e-10	7.949348e+00	2.611282e+01
2.100000e-06	1.187596e-06	4.338784e-10	8.267911e+00	2.778771e+01
2.110000e-06	1.233183e-06	4.588106e-10	8.585281e+00	2.944894e+01
2.120000e-06	1.278623e-06	4.836147e-10	8.901630e+00	3.109546e+01
2.130000e-06	1.324061e-06	5.077813e-10	9.217969e+00	3.272625e+01
2.140000e-06	1.369453e-06	5.309867e-10	9.533979e+00	3.434037e+01
2.150000e-06	1.414661e-06	5.515991e-10	9.848715e+00	3.593692e+01
2.160000e-06	1.459781e-06	5.717012e-10	1.016284e+01	3.751509e+01
2.170000e-06	1.504867e-06	5.923265e-10	1.047672e+01	3.907413e+01
2.180000e-06	1.549815e-06	6.114876e-10	1.078964e+01	4.061334e+01
2.190000e-06	1.594609e-06	6.311338e-10	1.110149e+01	4.213211e+01
2.200000e-06	1.639281e-06	6.542500e-10	1.141249e+01	4.362986e+01
2.210000e-06	1.683782e-06	6.765820e-10	1.172230e+01	4.510610e+01
2.220000e-06	1.728120e-06	6.957473e-10	1.203098e+01	4.656039e+01
2.230000e-06	1.772371e-06	7.147933e-10	1.233905e+01	4.799236e+01
2.240000e-06	1.816592e-06	7.352571e-10	1.264692e+01	4.940168e+01
2.250000e-06	1.860729e-06	7.556437e-10	1.295419e+01	5.078810e+01
2.260000e-06	1.904699e-06	7.750013e-10	1.326031e+01	5.215140e+01
2.270000e-06	1.948595e-06	7.917061e-10	1.356590e+01	5.349143e+01
2.280000e-06	1.992417e-06	8.086580e-10	1.387099e+01	5.480808e+01
2.290000e-06	2.036121e-06	8.256868e-10	1.417525e+01	5.610129e+01
2.300000e-06	2.079755e-06	8.431977e-10	1.447903e+01	5.737103e+01
2.310000e-06	2.123352e-06	8.582829e-10	1.478254e+01	5.861734e+01
2.320000e-06	2.166796e-06	8.745038e-10	1.508499e+01	5.984028e+01
2.330000e-06	2.210100e-06	8.917167e-10	1.538647e+01	6.103994e+01
2.340000e-06	2.253267e-06	9.093489e-10	1.568699e+01	6.221644e+01
2.350000e-06	2.296253e-06	9.264700e-10	1.598626e+01	6.336996e+01
2.360000e-06	2.339173e-06	9.413164e-10	1.628506e+01	6.450068e+01
2.370000e-06	2.381877e-06	9.530478e-10	1.658237e+01	6.560881e+01
2.380000e-06	2.424214e-06	9.636235e-10	1.687711e+01	6.669459e+01
2.390000e-06	2.466336e-06	9.771428e-10	1.717036e+01	6.775827e+01
2.400000e-06	2.508141e-06	9.906086e-10	1.746140e+01	6.880013e+01
2.410000e-06	2.549487e-06	1.004883e-09	1.774925e+01	6.982045e+01
2.420000e-06	2.590469e-06	1.021132e-09	1.803456e+01	7.081954e+01
2.430000e-06	2.631181e-06	1.036728e-09	1.831799e+01	7.179772e+01
2.440000e-06	2.671720e-06	1.049650e-09	1.860022e+01	7.275532e+01
2.450000e-06	2.711988e-06	1.060497e-09	1.888056e+01	7.369266e+01
2.460000e-06	2.752034e-06	1.070253e-09	1.915936e+01	7.461010e+01
2.470000e-06	2.791994e-06	1.079529e-09	1.943755e+01	7.550798e+01
2.480000e-06	2.831920e-06	1.088168e-09	1.971551e+01	7.638666e+01
2.490000e-06	2.871746e-06	1.099456e-09	1.999278e+01	7.724650e+01
2.500000e-06	2.911341e-06	1.111751e-09	2.026844e+01	7.808787e+01
2.510000e-06	2.950772e-06	1.125693e-09	2.054295e+01	7.891112e+01
2.520000e-06	2.989989e-06	1.139680e-09	2.081597e+01	7.971664e+01
2.530000e-06	3.029004e-06	1.149031e-09	2.108759e+01	8.050478e+01
2.540000e-06	3.067823e-06	1.161091e-09	2.135785e+01	8.127592e+01
2.550000e-06	3.106389e-06	1.172392e-09	2.162634e+01	8.203044e+01
2.560000e-06	3.144795e-06	1.179346e-09	2.189372e+01	8.276869e+01
2.570000e-06	3.182977e-06	1.187943e-09	2.215954e+01	8.349106e+01
2.580000e-06	3.220899e-06	1.200633e-09	2.242355e+01	8.419791e+01
2.590000e-06	3.258577e-06	1.214777e-09	2.268585e+01	8.488962e+01
2.600000e-06	3.296044e-06	1.223034e-09	2.294669e+01	8.556654e+01
2.610000e-06	3.333371e-06	1.231142e-09	2.320656e+01	8.622904e+01
2.620000e-06	3.370445e-06	1.239150e-09	2.346466e+01	8.687748e+01
2.630000e-06	3.407229e-06	1.246589e-09	2.372075e+01	8.751223e+01
2.640000e-06	3.443841e-06	1.253283e-09	2.397564e+01	8.813364e+01
2.650000e-06	3.480252e-06	1.263233e-09	2.422913e+01	8.874206e+01
2.660000e-06	3.516443e-06	1.276448e-09	2.448109e+01	8.933784e+01
2.670000e-06	3.552420e-06	1.285576e-09	2.473155e+01	8.992132e+01
2.680000e-06	3.588210e-06	1.290854e-09	2.498072e+01	9.049285e+01
2.690000e-06	3.623839e-06	1.293192e-09	2.522877e+01	9.105275e+01
2.700000e-06	3.659244e-06	1.295991e-09	2.547525e+01	9.160134e+01
2.710000e-06	3.694507e-06	1.302415e-09	2.572075e+01	9.213895e+01
2.720000e-06	3.729522e-06	1.313322e-09	2.596452e+01	9.266589e+01
2.730000e-06	3.764224e-06	1.325759e-09	2.620611e+01	9.318246e+01
2.740000e-06	3.798633e-06	1.333707e-09	2.644567e+01	9.368894e+01
2.750000e-06	3.832632e-06	1.339436e-09	2.668236e+01	9.418564e+01
2.760000e-06	3.866141e-06	1.344498e-09	2.691564e+01	9.467280e+01
2.770000e-06	3.899102e-06	1.348706e-09	2.714511e+01	9.515071e+01
2.780000e-06	3.931670e-06	1.353929e-09	2.737185e+01	9.561961e+01
2.790000e-06	3.963997e-06	1.364111e-09	2.759691e+01	9.607973e+01
2.800000e-06	3.996105e-06	1.375027e-09	2.782044e+01	9.653130e+01
2.810000e-06	4.028017e-06	1.380878e-09	2.804261e+01	9.697453e+01
2.820000e-06	4.059715e-06	1.386388e-09	2.826329e+01	9.740962e+01
2.830000e-06	4.091210e-06	1.390675e-09	2.848256e+01	9.783676e+01
2.840000e-06	4.122485e-06	1.396763e-09	2.870029e+01	9.825611e+01
2.850000e-06	4.153408e-06	1.403535e-09	2.891557e+01	9.866784e+01
2.860000e-06	4.183969e-06	1.411584e-09	2.912833e+01	9.907207e+01
2.870000e-06	4.214287e-06	1.420264e-09	2.933940e+01	9.946895e+01
2.880000e-06	4.244281e-06	1.426614e-09	2.954821e+01	9.985858e+01
2.890000e-06	4.273921e-06	1.428705e-09	2.975456e+01	1.002411e+02
2.900000e-06	4.303318e-06	1.428918e-09	2.995923e+01	1.006165e+02
