# Temperatura_=_-0.3
# Concentracion g/m^3_=_1620.0
# C_Vs_to_Am_M_A/Vsm_=_65563218390.804596
# pendiente_HvsI_1/m_=_3716.3
# ordenada_HvsI_A/m_=_1297.0
# frecuencia_Hz_=_135103.74745009033

Tiempo_(s)	Campo_(V.s)	Magnetizacion_(V.s)	Campo_(kA/m)	Magnetizacion_(A/m)
0.000000e+00	-5.502713e-06	-1.536773e-09	-3.837195e+01	-9.919164e+01
1.000000e-08	-5.502872e-06	-1.534210e-09	-3.837306e+01	-9.915366e+01
2.000000e-08	-5.502736e-06	-1.534632e-09	-3.837212e+01	-9.911396e+01
3.000000e-08	-5.502169e-06	-1.535437e-09	-3.836817e+01	-9.907261e+01
4.000000e-08	-5.501151e-06	-1.535827e-09	-3.836106e+01	-9.902971e+01
5.000000e-08	-5.499557e-06	-1.536049e-09	-3.834995e+01	-9.898534e+01
6.000000e-08	-5.497261e-06	-1.535048e-09	-3.833394e+01	-9.893956e+01
7.000000e-08	-5.494388e-06	-1.554681e-09	-3.831390e+01	-9.889242e+01
8.000000e-08	-5.491099e-06	-1.555171e-09	-3.829097e+01	-9.884395e+01
9.000000e-08	-5.487328e-06	-1.514843e-09	-3.826467e+01	-9.879419e+01
1.000000e-07	-5.483109e-06	-1.527184e-09	-3.823525e+01	-9.874315e+01
1.100000e-07	-5.478711e-06	-1.569122e-09	-3.820458e+01	-9.869081e+01
1.200000e-07	-5.474172e-06	-1.549559e-09	-3.817293e+01	-9.863717e+01
1.300000e-07	-5.469278e-06	-1.501990e-09	-3.813881e+01	-9.858220e+01
1.400000e-07	-5.463953e-06	-1.493969e-09	-3.810167e+01	-9.852585e+01
1.500000e-07	-5.458230e-06	-1.580089e-09	-3.806177e+01	-9.846806e+01
1.600000e-07	-5.452091e-06	-1.567157e-09	-3.801896e+01	-9.840877e+01
1.700000e-07	-5.445553e-06	-1.529981e-09	-3.797337e+01	-9.834789e+01
1.800000e-07	-5.438642e-06	-1.512335e-09	-3.792517e+01	-9.828532e+01
1.900000e-07	-5.431354e-06	-1.553733e-09	-3.787435e+01	-9.822096e+01
2.000000e-07	-5.423747e-06	-1.527974e-09	-3.782131e+01	-9.815467e+01
2.100000e-07	-5.415911e-06	-1.487661e-09	-3.776666e+01	-9.808634e+01
2.200000e-07	-5.407815e-06	-1.481073e-09	-3.771021e+01	-9.801580e+01
2.300000e-07	-5.399379e-06	-1.509134e-09	-3.765138e+01	-9.794292e+01
2.400000e-07	-5.390380e-06	-1.513503e-09	-3.758863e+01	-9.786751e+01
2.500000e-07	-5.380748e-06	-1.491829e-09	-3.752146e+01	-9.778941e+01
2.600000e-07	-5.370484e-06	-1.493492e-09	-3.744989e+01	-9.770843e+01
2.700000e-07	-5.359615e-06	-1.488580e-09	-3.737409e+01	-9.762438e+01
2.800000e-07	-5.348357e-06	-1.485175e-09	-3.729559e+01	-9.753706e+01
2.900000e-07	-5.336711e-06	-1.461908e-09	-3.721438e+01	-9.744627e+01
3.000000e-07	-5.324602e-06	-1.478283e-09	-3.712994e+01	-9.735179e+01
3.100000e-07	-5.312102e-06	-1.480738e-09	-3.704277e+01	-9.725342e+01
3.200000e-07	-5.299227e-06	-1.502631e-09	-3.695299e+01	-9.715093e+01
3.300000e-07	-5.285955e-06	-1.479294e-09	-3.686044e+01	-9.704410e+01
3.400000e-07	-5.272267e-06	-1.471897e-09	-3.676499e+01	-9.693272e+01
3.500000e-07	-5.258157e-06	-1.475731e-09	-3.666660e+01	-9.681656e+01
3.600000e-07	-5.243553e-06	-1.481560e-09	-3.656476e+01	-9.669541e+01
3.700000e-07	-5.228461e-06	-1.438161e-09	-3.645952e+01	-9.656904e+01
3.800000e-07	-5.212927e-06	-1.451814e-09	-3.635120e+01	-9.643726e+01
3.900000e-07	-5.196924e-06	-1.480459e-09	-3.623961e+01	-9.629984e+01
4.000000e-07	-5.180591e-06	-1.453475e-09	-3.612571e+01	-9.615659e+01
4.100000e-07	-5.163870e-06	-1.427330e-09	-3.600911e+01	-9.600732e+01
4.200000e-07	-5.146729e-06	-1.482704e-09	-3.588958e+01	-9.585183e+01
4.300000e-07	-5.129281e-06	-1.470568e-09	-3.576791e+01	-9.568996e+01
4.400000e-07	-5.111472e-06	-1.404107e-09	-3.564372e+01	-9.552154e+01
4.500000e-07	-5.093244e-06	-1.428063e-09	-3.551661e+01	-9.534642e+01
4.600000e-07	-5.074562e-06	-1.470145e-09	-3.538634e+01	-9.516445e+01
4.700000e-07	-5.055469e-06	-1.403154e-09	-3.525320e+01	-9.497552e+01
4.800000e-07	-5.036111e-06	-1.390362e-09	-3.511821e+01	-9.477951e+01
4.900000e-07	-5.016587e-06	-1.454859e-09	-3.498206e+01	-9.457632e+01
5.000000e-07	-4.996885e-06	-1.421617e-09	-3.484468e+01	-9.436589e+01
5.100000e-07	-4.976922e-06	-1.372387e-09	-3.470547e+01	-9.414814e+01
5.200000e-07	-4.956589e-06	-1.425982e-09	-3.456368e+01	-9.392304e+01
5.300000e-07	-4.935877e-06	-1.422830e-09	-3.441925e+01	-9.369055e+01
5.400000e-07	-4.914801e-06	-1.348833e-09	-3.427228e+01	-9.345068e+01
5.500000e-07	-4.893380e-06	-1.381655e-09	-3.412291e+01	-9.320343e+01
5.600000e-07	-4.871592e-06	-1.414892e-09	-3.397097e+01	-9.294883e+01
5.700000e-07	-4.849427e-06	-1.355492e-09	-3.381641e+01	-9.268692e+01
5.800000e-07	-4.827014e-06	-1.350035e-09	-3.366012e+01	-9.241779e+01
5.900000e-07	-4.804348e-06	-1.400523e-09	-3.350206e+01	-9.214150e+01
6.000000e-07	-4.781291e-06	-1.363754e-09	-3.334128e+01	-9.185815e+01
6.100000e-07	-4.757912e-06	-1.342186e-09	-3.317825e+01	-9.156787e+01
6.200000e-07	-4.734330e-06	-1.378426e-09	-3.301381e+01	-9.127079e+01
6.300000e-07	-4.710492e-06	-1.365404e-09	-3.284758e+01	-9.096705e+01
6.400000e-07	-4.686375e-06	-1.324477e-09	-3.267940e+01	-9.065681e+01
6.500000e-07	-4.661891e-06	-1.348940e-09	-3.250867e+01	-9.034024e+01
6.600000e-07	-4.636949e-06	-1.346079e-09	-3.233474e+01	-9.001753e+01
6.700000e-07	-4.611541e-06	-1.318619e-09	-3.215757e+01	-8.968888e+01
6.800000e-07	-4.585532e-06	-1.328259e-09	-3.197620e+01	-8.935447e+01
6.900000e-07	-4.558853e-06	-1.338523e-09	-3.179016e+01	-8.901451e+01
7.000000e-07	-4.531750e-06	-1.306443e-09	-3.160116e+01	-8.866922e+01
7.100000e-07	-4.504435e-06	-1.302719e-09	-3.141069e+01	-8.831881e+01
7.200000e-07	-4.476940e-06	-1.309972e-09	-3.121895e+01	-8.796349e+01
7.300000e-07	-4.449221e-06	-1.292710e-09	-3.102566e+01	-8.760347e+01
7.400000e-07	-4.421259e-06	-1.283336e-09	-3.083067e+01	-8.723896e+01
7.500000e-07	-4.393130e-06	-1.295302e-09	-3.063452e+01	-8.687017e+01
7.600000e-07	-4.364760e-06	-1.286419e-09	-3.043669e+01	-8.649730e+01
7.700000e-07	-4.335994e-06	-1.276058e-09	-3.023610e+01	-8.612053e+01
7.800000e-07	-4.306857e-06	-1.278490e-09	-3.003292e+01	-8.574004e+01
7.900000e-07	-4.277425e-06	-1.266737e-09	-2.982768e+01	-8.535600e+01
8.000000e-07	-4.247770e-06	-1.245330e-09	-2.962089e+01	-8.496856e+01
8.100000e-07	-4.217870e-06	-1.240368e-09	-2.941239e+01	-8.457786e+01
8.200000e-07	-4.187588e-06	-1.235759e-09	-2.920122e+01	-8.418402e+01
8.300000e-07	-4.156950e-06	-1.218404e-09	-2.898758e+01	-8.378715e+01
8.400000e-07	-4.126054e-06	-1.215232e-09	-2.877213e+01	-8.338732e+01
8.500000e-07	-4.094921e-06	-1.217723e-09	-2.855503e+01	-8.298462e+01
8.600000e-07	-4.063575e-06	-1.209268e-09	-2.833644e+01	-8.257907e+01
8.700000e-07	-4.032026e-06	-1.198090e-09	-2.811644e+01	-8.217071e+01
8.800000e-07	-4.000294e-06	-1.198687e-09	-2.789517e+01	-8.175954e+01
8.900000e-07	-3.968409e-06	-1.185413e-09	-2.767283e+01	-8.134555e+01
9.000000e-07	-3.936324e-06	-1.168008e-09	-2.744909e+01	-8.092869e+01
9.100000e-07	-3.903966e-06	-1.163480e-09	-2.722345e+01	-8.050892e+01
9.200000e-07	-3.871157e-06	-1.161523e-09	-2.699466e+01	-8.008614e+01
9.300000e-07	-3.837901e-06	-1.149538e-09	-2.676276e+01	-7.966026e+01
9.400000e-07	-3.804247e-06	-1.147317e-09	-2.652808e+01	-7.923118e+01
9.500000e-07	-3.770086e-06	-1.146595e-09	-2.628987e+01	-7.879874e+01
9.600000e-07	-3.735539e-06	-1.136241e-09	-2.604896e+01	-7.836281e+01
9.700000e-07	-3.700564e-06	-1.122628e-09	-2.580507e+01	-7.792323e+01
9.800000e-07	-3.665271e-06	-1.118377e-09	-2.555896e+01	-7.747981e+01
9.900000e-07	-3.629878e-06	-1.107309e-09	-2.531215e+01	-7.703237e+01
1.000000e-06	-3.594351e-06	-1.097313e-09	-2.506441e+01	-7.658071e+01
1.010000e-06	-3.558679e-06	-1.096361e-09	-2.481567e+01	-7.612464e+01
1.020000e-06	-3.522872e-06	-1.093982e-09	-2.456598e+01	-7.566394e+01
1.030000e-06	-3.486905e-06	-1.081343e-09	-2.431516e+01	-7.519841e+01
1.040000e-06	-3.450720e-06	-1.073492e-09	-2.406284e+01	-7.472783e+01
1.050000e-06	-3.414236e-06	-1.069120e-09	-2.380842e+01	-7.425200e+01
1.060000e-06	-3.377416e-06	-1.058958e-09	-2.355167e+01	-7.377071e+01
1.070000e-06	-3.340330e-06	-1.048200e-09	-2.329306e+01	-7.328376e+01
1.080000e-06	-3.303046e-06	-1.042281e-09	-2.303307e+01	-7.279097e+01
1.090000e-06	-3.265548e-06	-1.032624e-09	-2.277158e+01	-7.229215e+01
1.100000e-06	-3.227802e-06	-1.020380e-09	-2.250836e+01	-7.178713e+01
1.110000e-06	-3.189855e-06	-1.012771e-09	-2.224375e+01	-7.127577e+01
1.120000e-06	-3.151753e-06	-1.004381e-09	-2.197806e+01	-7.075791e+01
1.130000e-06	-3.113436e-06	-9.941205e-10	-2.171086e+01	-7.023345e+01
1.140000e-06	-3.074833e-06	-9.862492e-10	-2.144167e+01	-6.970226e+01
1.150000e-06	-3.035958e-06	-9.812085e-10	-2.117058e+01	-6.916428e+01
1.160000e-06	-2.996866e-06	-9.713824e-10	-2.089798e+01	-6.861942e+01
1.170000e-06	-2.957551e-06	-9.610120e-10	-2.062383e+01	-6.806765e+01
1.180000e-06	-2.918121e-06	-9.518799e-10	-2.034887e+01	-6.750894e+01
1.190000e-06	-2.878661e-06	-9.419381e-10	-2.007371e+01	-6.694327e+01
1.200000e-06	-2.839053e-06	-9.297910e-10	-1.979751e+01	-6.637067e+01
1.210000e-06	-2.799274e-06	-9.211043e-10	-1.952012e+01	-6.579116e+01
1.220000e-06	-2.759345e-06	-9.129828e-10	-1.924168e+01	-6.520479e+01
1.230000e-06	-2.719295e-06	-9.035855e-10	-1.896240e+01	-6.461162e+01
1.240000e-06	-2.679007e-06	-8.940125e-10	-1.868147e+01	-6.401174e+01
1.250000e-06	-2.638465e-06	-8.865898e-10	-1.839875e+01	-6.340524e+01
1.260000e-06	-2.597723e-06	-8.765737e-10	-1.811465e+01	-6.279222e+01
1.270000e-06	-2.556769e-06	-8.670797e-10	-1.782906e+01	-6.217280e+01
1.280000e-06	-2.515516e-06	-8.572330e-10	-1.754140e+01	-6.154708e+01
1.290000e-06	-2.473881e-06	-8.466540e-10	-1.725107e+01	-6.091520e+01
1.300000e-06	-2.432039e-06	-8.335512e-10	-1.695929e+01	-6.027728e+01
1.310000e-06	-2.389958e-06	-8.201543e-10	-1.666584e+01	-5.963343e+01
1.320000e-06	-2.347596e-06	-8.079567e-10	-1.637044e+01	-5.898377e+01
1.330000e-06	-2.304954e-06	-7.964973e-10	-1.607309e+01	-5.832841e+01
1.340000e-06	-2.262053e-06	-7.871694e-10	-1.577393e+01	-5.766743e+01
1.350000e-06	-2.218975e-06	-7.798721e-10	-1.547353e+01	-5.700093e+01
1.360000e-06	-2.175694e-06	-7.715147e-10	-1.517172e+01	-5.632895e+01
1.370000e-06	-2.132264e-06	-7.621242e-10	-1.486887e+01	-5.565154e+01
1.380000e-06	-2.088679e-06	-7.502397e-10	-1.456495e+01	-5.496870e+01
1.390000e-06	-2.044996e-06	-7.366704e-10	-1.426033e+01	-5.428043e+01
1.400000e-06	-2.001298e-06	-7.256471e-10	-1.395561e+01	-5.358668e+01
1.410000e-06	-1.957527e-06	-7.158273e-10	-1.365038e+01	-5.288738e+01
1.420000e-06	-1.913638e-06	-7.059545e-10	-1.334433e+01	-5.218240e+01
1.430000e-06	-1.869637e-06	-6.962064e-10	-1.303750e+01	-5.147161e+01
1.440000e-06	-1.825564e-06	-6.860659e-10	-1.273017e+01	-5.075481e+01
1.450000e-06	-1.781414e-06	-6.744393e-10	-1.242230e+01	-5.003177e+01
1.460000e-06	-1.737124e-06	-6.632626e-10	-1.211345e+01	-4.930223e+01
1.470000e-06	-1.692729e-06	-6.519677e-10	-1.180387e+01	-4.856588e+01
1.480000e-06	-1.648296e-06	-6.401775e-10	-1.149403e+01	-4.782236e+01
1.490000e-06	-1.603722e-06	-6.297941e-10	-1.118320e+01	-4.707128e+01
1.500000e-06	-1.558970e-06	-6.204709e-10	-1.087113e+01	-4.631220e+01
1.510000e-06	-1.514132e-06	-6.091419e-10	-1.055846e+01	-4.554465e+01
1.520000e-06	-1.469240e-06	-5.987232e-10	-1.024542e+01	-4.476812e+01
1.530000e-06	-1.424206e-06	-5.892981e-10	-9.931388e+00	-4.398206e+01
1.540000e-06	-1.378992e-06	-5.799084e-10	-9.616097e+00	-4.318589e+01
1.550000e-06	-1.333719e-06	-5.682705e-10	-9.300398e+00	-4.237899e+01
1.560000e-06	-1.288366e-06	-5.560018e-10	-8.984134e+00	-4.156073e+01
1.570000e-06	-1.242881e-06	-5.442464e-10	-8.666959e+00	-4.073043e+01
1.580000e-06	-1.197286e-06	-5.298878e-10	-8.349009e+00	-3.988743e+01
1.590000e-06	-1.151644e-06	-5.131598e-10	-8.030738e+00	-3.903102e+01
1.600000e-06	-1.105937e-06	-4.971767e-10	-7.712008e+00	-3.816050e+01
1.610000e-06	-1.060055e-06	-4.824529e-10	-7.392063e+00	-3.727514e+01
1.620000e-06	-1.014092e-06	-4.682135e-10	-7.071547e+00	-3.637424e+01
1.630000e-06	-9.681135e-07	-4.548219e-10	-6.750926e+00	-3.545710e+01
1.640000e-06	-9.220272e-07	-4.418821e-10	-6.429554e+00	-3.452302e+01
1.650000e-06	-8.758123e-07	-4.277439e-10	-6.107284e+00	-3.357131e+01
1.660000e-06	-8.295401e-07	-4.117918e-10	-5.784615e+00	-3.260134e+01
1.670000e-06	-7.832820e-07	-3.952715e-10	-5.462044e+00	-3.161246e+01
1.680000e-06	-7.370514e-07	-3.794742e-10	-5.139666e+00	-3.060410e+01
1.690000e-06	-6.907448e-07	-3.634636e-10	-4.816757e+00	-2.957570e+01
1.700000e-06	-6.443614e-07	-3.461719e-10	-4.493312e+00	-2.852677e+01
1.710000e-06	-5.979463e-07	-3.282627e-10	-4.169647e+00	-2.745685e+01
1.720000e-06	-5.515067e-07	-3.110483e-10	-3.845810e+00	-2.636556e+01
1.730000e-06	-5.050106e-07	-2.918853e-10	-3.521580e+00	-2.525256e+01
1.740000e-06	-4.584232e-07	-2.714785e-10	-3.196713e+00	-2.411759e+01
1.750000e-06	-4.118757e-07	-2.543442e-10	-2.872125e+00	-2.296048e+01
1.760000e-06	-3.653484e-07	-2.401224e-10	-2.547677e+00	-2.178109e+01
1.770000e-06	-3.187698e-07	-2.251336e-10	-2.222871e+00	-2.057941e+01
1.780000e-06	-2.721428e-07	-2.081439e-10	-1.897728e+00	-1.935548e+01
1.790000e-06	-2.254890e-07	-1.908777e-10	-1.572398e+00	-1.810943e+01
1.800000e-06	-1.788344e-07	-1.719594e-10	-1.247063e+00	-1.684149e+01
1.810000e-06	-1.320404e-07	-1.510134e-10	-9.207546e-01	-1.555196e+01
1.820000e-06	-8.521182e-08	-1.306335e-10	-5.942059e-01	-1.424125e+01
1.830000e-06	-3.844605e-08	-1.117009e-10	-2.680951e-01	-1.290984e+01
1.840000e-06	8.304265e-09	-9.357268e-11	5.790796e-02	-1.155832e+01
1.850000e-06	5.496492e-08	-7.752392e-11	3.832858e-01	-1.018734e+01
1.860000e-06	1.015687e-07	-5.900175e-11	7.082667e-01	-8.797665e+00
1.870000e-06	1.481756e-07	-3.731001e-11	1.033270e+00	-7.390126e+00
1.880000e-06	1.947866e-07	-1.631561e-11	1.358302e+00	-5.965643e+00
1.890000e-06	2.414009e-07	3.201479e-12	1.683356e+00	-4.525213e+00
1.900000e-06	2.880298e-07	2.219224e-11	2.008512e+00	-3.069909e+00
1.910000e-06	3.346175e-07	4.156194e-11	2.333382e+00	-1.600871e+00
1.920000e-06	3.810947e-07	6.246479e-11	2.657480e+00	-1.193056e-01
1.930000e-06	4.275616e-07	8.471157e-11	2.981507e+00	1.373521e+00
1.940000e-06	4.740339e-07	1.067425e-10	3.305571e+00	2.876288e+00
1.950000e-06	5.204408e-07	1.270353e-10	3.629179e+00	4.387629e+00
1.960000e-06	5.667777e-07	1.455129e-10	3.952300e+00	5.906135e+00
1.970000e-06	6.131534e-07	1.639691e-10	4.275690e+00	7.430362e+00
1.980000e-06	6.594646e-07	1.817854e-10	4.598631e+00	8.958841e+00
1.990000e-06	7.056907e-07	1.992570e-10	4.920979e+00	1.049008e+01
2.000000e-06	7.519739e-07	2.203031e-10	5.243724e+00	1.202258e+01
2.010000e-06	7.981689e-07	2.412893e-10	5.565855e+00	1.355482e+01
2.020000e-06	8.442281e-07	2.627689e-10	5.887039e+00	1.508531e+01
2.030000e-06	8.902595e-07	2.884293e-10	6.208028e+00	1.661254e+01
2.040000e-06	9.362515e-07	3.122596e-10	6.528744e+00	1.813503e+01
2.050000e-06	9.821774e-07	3.327732e-10	6.848998e+00	1.965134e+01
2.060000e-06	1.028067e-06	3.520584e-10	7.169002e+00	2.116002e+01
2.070000e-06	1.073880e-06	3.714004e-10	7.488469e+00	2.265969e+01
2.080000e-06	1.119620e-06	3.901893e-10	7.807421e+00	2.414900e+01
2.090000e-06	1.165258e-06	4.104515e-10	8.125671e+00	2.562666e+01
2.100000e-06	1.210791e-06	4.322030e-10	8.443181e+00	2.709143e+01
2.110000e-06	1.256216e-06	4.531606e-10	8.759947e+00	2.854213e+01
2.120000e-06	1.301530e-06	4.722678e-10	9.075932e+00	2.997763e+01
2.130000e-06	1.346837e-06	4.902087e-10	9.391870e+00	3.139690e+01
2.140000e-06	1.392079e-06	5.073088e-10	9.707355e+00	3.279896e+01
2.150000e-06	1.437118e-06	5.233282e-10	1.002143e+01	3.418290e+01
2.160000e-06	1.482027e-06	5.407099e-10	1.033459e+01	3.554791e+01
2.170000e-06	1.526856e-06	5.595099e-10	1.064720e+01	3.689325e+01
2.180000e-06	1.571557e-06	5.775879e-10	1.095891e+01	3.821826e+01
2.190000e-06	1.616131e-06	5.967022e-10	1.126974e+01	3.952236e+01
2.200000e-06	1.660567e-06	6.161191e-10	1.157960e+01	4.080507e+01
2.210000e-06	1.704851e-06	6.329524e-10	1.188840e+01	4.206596e+01
2.220000e-06	1.749046e-06	6.463036e-10	1.219659e+01	4.330472e+01
2.230000e-06	1.793145e-06	6.608660e-10	1.250410e+01	4.452108e+01
2.240000e-06	1.837099e-06	6.784462e-10	1.281061e+01	4.571489e+01
2.250000e-06	1.880972e-06	6.966357e-10	1.311654e+01	4.688604e+01
2.260000e-06	1.924820e-06	7.143629e-10	1.342231e+01	4.803451e+01
2.270000e-06	1.968613e-06	7.307554e-10	1.372769e+01	4.916034e+01
2.280000e-06	2.012314e-06	7.455805e-10	1.403243e+01	5.026366e+01
2.290000e-06	2.055939e-06	7.591610e-10	1.433664e+01	5.134464e+01
2.300000e-06	2.099521e-06	7.707406e-10	1.464055e+01	5.240350e+01
2.310000e-06	2.142989e-06	7.817807e-10	1.494366e+01	5.344053e+01
2.320000e-06	2.186323e-06	7.965940e-10	1.524584e+01	5.445607e+01
2.330000e-06	2.229597e-06	8.137198e-10	1.554760e+01	5.545049e+01
2.340000e-06	2.272689e-06	8.288181e-10	1.584810e+01	5.642420e+01
2.350000e-06	2.315531e-06	8.412851e-10	1.614685e+01	5.737765e+01
2.360000e-06	2.358117e-06	8.535307e-10	1.644381e+01	5.831132e+01
2.370000e-06	2.400388e-06	8.647018e-10	1.673858e+01	5.922570e+01
2.380000e-06	2.442382e-06	8.760074e-10	1.703141e+01	6.012130e+01
2.390000e-06	2.484179e-06	8.877589e-10	1.732288e+01	6.099865e+01
2.400000e-06	2.525622e-06	9.001078e-10	1.761187e+01	6.185829e+01
2.410000e-06	2.566643e-06	9.135222e-10	1.789792e+01	6.270075e+01
2.420000e-06	2.607412e-06	9.271229e-10	1.818221e+01	6.352657e+01
2.430000e-06	2.647942e-06	9.390217e-10	1.846484e+01	6.433627e+01
2.440000e-06	2.688309e-06	9.486365e-10	1.874633e+01	6.513038e+01
2.450000e-06	2.728531e-06	9.579175e-10	1.902681e+01	6.590940e+01
2.460000e-06	2.768528e-06	9.682237e-10	1.930572e+01	6.667382e+01
2.470000e-06	2.808337e-06	9.779542e-10	1.958332e+01	6.742411e+01
2.480000e-06	2.848045e-06	9.870835e-10	1.986021e+01	6.816072e+01
2.490000e-06	2.887665e-06	9.983473e-10	2.013650e+01	6.888408e+01
2.500000e-06	2.927138e-06	1.012514e-09	2.041175e+01	6.959457e+01
2.510000e-06	2.966449e-06	1.026461e-09	2.068588e+01	7.029258e+01
2.520000e-06	3.005563e-06	1.039440e-09	2.095863e+01	7.097845e+01
2.530000e-06	3.044386e-06	1.052541e-09	2.122936e+01	7.165249e+01
2.540000e-06	3.082982e-06	1.062390e-09	2.149850e+01	7.231498e+01
2.550000e-06	3.121412e-06	1.068090e-09	2.176648e+01	7.296618e+01
2.560000e-06	3.159625e-06	1.073249e-09	2.203295e+01	7.360632e+01
2.570000e-06	3.197583e-06	1.081387e-09	2.229764e+01	7.423559e+01
2.580000e-06	3.235313e-06	1.092591e-09	2.256074e+01	7.485418e+01
2.590000e-06	3.272860e-06	1.105046e-09	2.282257e+01	7.546222e+01
2.600000e-06	3.310229e-06	1.115271e-09	2.308315e+01	7.605985e+01
2.610000e-06	3.347389e-06	1.124171e-09	2.334228e+01	7.664716e+01
2.620000e-06	3.384294e-06	1.132058e-09	2.359963e+01	7.722424e+01
2.630000e-06	3.420894e-06	1.137651e-09	2.385485e+01	7.779115e+01
2.640000e-06	3.457196e-06	1.143366e-09	2.410799e+01	7.834794e+01
2.650000e-06	3.493264e-06	1.150825e-09	2.435951e+01	7.889465e+01
2.660000e-06	3.529149e-06	1.159848e-09	2.460974e+01	7.943130e+01
2.670000e-06	3.564924e-06	1.166682e-09	2.485921e+01	7.995792e+01
2.680000e-06	3.600585e-06	1.172949e-09	2.510789e+01	8.047451e+01
2.690000e-06	3.636150e-06	1.177148e-09	2.535589e+01	8.098109e+01
2.700000e-06	3.671634e-06	1.181473e-09	2.560333e+01	8.147767e+01
2.710000e-06	3.706842e-06	1.188237e-09	2.584885e+01	8.196426e+01
2.720000e-06	3.741708e-06	1.194882e-09	2.609198e+01	8.244087e+01
2.730000e-06	3.776252e-06	1.201496e-09	2.633286e+01	8.290753e+01
2.740000e-06	3.810340e-06	1.208092e-09	2.657057e+01	8.336427e+01
2.750000e-06	3.843831e-06	1.213900e-09	2.680411e+01	8.381112e+01
2.760000e-06	3.876876e-06	1.218732e-09	2.703454e+01	8.424815e+01
2.770000e-06	3.909623e-06	1.221823e-09	2.726289e+01	8.467542e+01
2.780000e-06	3.941920e-06	1.225418e-09	2.748811e+01	8.509300e+01
2.790000e-06	3.973876e-06	1.229815e-09	2.771095e+01	8.550098e+01
2.800000e-06	4.005700e-06	1.235457e-09	2.793287e+01	8.589949e+01
2.810000e-06	4.037435e-06	1.243344e-09	2.815416e+01	8.628864e+01
2.820000e-06	4.068994e-06	1.250977e-09	2.837423e+01	8.666857e+01
2.830000e-06	4.100295e-06	1.258386e-09	2.859250e+01	8.703944e+01
2.840000e-06	4.131376e-06	1.263427e-09	2.880924e+01	8.740143e+01
2.850000e-06	4.162182e-06	1.266903e-09	2.902406e+01	8.775471e+01
2.860000e-06	4.192653e-06	1.268796e-09	2.923654e+01	8.809950e+01
2.870000e-06	4.222767e-06	1.270776e-09	2.944654e+01	8.843600e+01
2.880000e-06	4.252517e-06	1.272023e-09	2.965399e+01	8.876445e+01
2.890000e-06	4.281971e-06	1.273926e-09	2.985938e+01	8.908508e+01
2.900000e-06	4.311155e-06	1.279816e-09	3.006289e+01	8.939814e+01
2.910000e-06	4.340087e-06	1.286873e-09	3.026464e+01	8.970388e+01
