# Temperatura_=_10.1
# Concentracion g/m^3_=_1620.0
# C_Vs_to_Am_M_A/Vsm_=_65563218390.804596
# pendiente_HvsI_1/m_=_3716.3
# ordenada_HvsI_A/m_=_1297.0
# frecuencia_Hz_=_135109.06068802092

Tiempo_(s)	Campo_(V.s)	Magnetizacion_(V.s)	Campo_(kA/m)	Magnetizacion_(A/m)
0.000000e+00	-5.520879e-06	-1.186423e-09	-3.837282e+01	-7.778329e+01
1.000000e-08	-5.521049e-06	-1.179843e-09	-3.837400e+01	-7.776408e+01
2.000000e-08	-5.520947e-06	-1.175654e-09	-3.837329e+01	-7.774561e+01
3.000000e-08	-5.520323e-06	-1.175991e-09	-3.836895e+01	-7.772793e+01
4.000000e-08	-5.519137e-06	-1.176857e-09	-3.836071e+01	-7.771110e+01
5.000000e-08	-5.517361e-06	-1.176178e-09	-3.834836e+01	-7.769511e+01
6.000000e-08	-5.514959e-06	-1.167197e-09	-3.833167e+01	-7.767996e+01
7.000000e-08	-5.512074e-06	-1.156530e-09	-3.831162e+01	-7.766561e+01
8.000000e-08	-5.508764e-06	-1.171264e-09	-3.828861e+01	-7.765198e+01
9.000000e-08	-5.504980e-06	-1.222980e-09	-3.826231e+01	-7.763898e+01
1.000000e-07	-5.500765e-06	-1.245449e-09	-3.823302e+01	-7.762649e+01
1.100000e-07	-5.496293e-06	-1.184002e-09	-3.820193e+01	-7.761437e+01
1.200000e-07	-5.491646e-06	-1.104649e-09	-3.816963e+01	-7.760243e+01
1.300000e-07	-5.486745e-06	-1.156641e-09	-3.813557e+01	-7.759051e+01
1.400000e-07	-5.481359e-06	-1.206701e-09	-3.809813e+01	-7.757838e+01
1.500000e-07	-5.475537e-06	-1.191943e-09	-3.805767e+01	-7.756582e+01
1.600000e-07	-5.469465e-06	-1.116723e-09	-3.801547e+01	-7.755258e+01
1.700000e-07	-5.463023e-06	-1.157127e-09	-3.797069e+01	-7.753841e+01
1.800000e-07	-5.456109e-06	-1.221732e-09	-3.792264e+01	-7.752303e+01
1.900000e-07	-5.448805e-06	-1.201490e-09	-3.787187e+01	-7.750617e+01
2.000000e-07	-5.441238e-06	-1.147090e-09	-3.781927e+01	-7.748752e+01
2.100000e-07	-5.433438e-06	-1.161775e-09	-3.776506e+01	-7.746680e+01
2.200000e-07	-5.425323e-06	-1.225517e-09	-3.770866e+01	-7.744372e+01
2.300000e-07	-5.416934e-06	-1.210135e-09	-3.765035e+01	-7.741796e+01
2.400000e-07	-5.408088e-06	-1.170917e-09	-3.758887e+01	-7.738923e+01
2.500000e-07	-5.398403e-06	-1.164079e-09	-3.752155e+01	-7.735724e+01
2.600000e-07	-5.387895e-06	-1.205629e-09	-3.744851e+01	-7.732170e+01
2.700000e-07	-5.376849e-06	-1.183265e-09	-3.737174e+01	-7.728233e+01
2.800000e-07	-5.365476e-06	-1.166646e-09	-3.729269e+01	-7.723885e+01
2.900000e-07	-5.353804e-06	-1.167171e-09	-3.721156e+01	-7.719101e+01
3.000000e-07	-5.341836e-06	-1.199220e-09	-3.712838e+01	-7.713856e+01
3.100000e-07	-5.329493e-06	-1.173532e-09	-3.704259e+01	-7.708127e+01
3.200000e-07	-5.316597e-06	-1.156573e-09	-3.695296e+01	-7.701892e+01
3.300000e-07	-5.303236e-06	-1.159390e-09	-3.686009e+01	-7.695132e+01
3.400000e-07	-5.289495e-06	-1.180956e-09	-3.676458e+01	-7.687828e+01
3.500000e-07	-5.275321e-06	-1.163366e-09	-3.666607e+01	-7.679965e+01
3.600000e-07	-5.260611e-06	-1.160088e-09	-3.656383e+01	-7.671528e+01
3.700000e-07	-5.245438e-06	-1.176131e-09	-3.645837e+01	-7.662505e+01
3.800000e-07	-5.229771e-06	-1.182227e-09	-3.634948e+01	-7.652888e+01
3.900000e-07	-5.213530e-06	-1.150482e-09	-3.623659e+01	-7.642667e+01
4.000000e-07	-5.196883e-06	-1.150897e-09	-3.612089e+01	-7.631838e+01
4.100000e-07	-5.179958e-06	-1.178179e-09	-3.600325e+01	-7.620397e+01
4.200000e-07	-5.162759e-06	-1.157953e-09	-3.588370e+01	-7.608342e+01
4.300000e-07	-5.145234e-06	-1.129294e-09	-3.576190e+01	-7.595674e+01
4.400000e-07	-5.127462e-06	-1.156880e-09	-3.563838e+01	-7.582396e+01
4.500000e-07	-5.109363e-06	-1.178395e-09	-3.551258e+01	-7.568510e+01
4.600000e-07	-5.090728e-06	-1.128413e-09	-3.538305e+01	-7.554024e+01
4.700000e-07	-5.071659e-06	-1.121086e-09	-3.525052e+01	-7.538944e+01
4.800000e-07	-5.052325e-06	-1.157965e-09	-3.511614e+01	-7.523280e+01
4.900000e-07	-5.032775e-06	-1.149066e-09	-3.498025e+01	-7.507042e+01
5.000000e-07	-5.013053e-06	-1.111193e-09	-3.484318e+01	-7.490242e+01
5.100000e-07	-4.993134e-06	-1.135149e-09	-3.470473e+01	-7.472891e+01
5.200000e-07	-4.972922e-06	-1.133907e-09	-3.456425e+01	-7.455004e+01
5.300000e-07	-4.952264e-06	-1.104272e-09	-3.442067e+01	-7.436595e+01
5.400000e-07	-4.931147e-06	-1.115501e-09	-3.427389e+01	-7.417677e+01
5.500000e-07	-4.909732e-06	-1.142317e-09	-3.412505e+01	-7.398268e+01
5.600000e-07	-4.888029e-06	-1.101159e-09	-3.397420e+01	-7.378381e+01
5.700000e-07	-4.865952e-06	-1.091192e-09	-3.382075e+01	-7.358033e+01
5.800000e-07	-4.843544e-06	-1.120699e-09	-3.366500e+01	-7.337239e+01
5.900000e-07	-4.820773e-06	-1.110343e-09	-3.350674e+01	-7.316014e+01
6.000000e-07	-4.797601e-06	-1.079957e-09	-3.334568e+01	-7.294374e+01
6.100000e-07	-4.774149e-06	-1.103655e-09	-3.318268e+01	-7.272333e+01
6.200000e-07	-4.750482e-06	-1.105791e-09	-3.301818e+01	-7.249906e+01
6.300000e-07	-4.726578e-06	-1.080145e-09	-3.285203e+01	-7.227105e+01
6.400000e-07	-4.702371e-06	-1.084306e-09	-3.268379e+01	-7.203944e+01
6.500000e-07	-4.677763e-06	-1.094880e-09	-3.251275e+01	-7.180434e+01
6.600000e-07	-4.652676e-06	-1.071054e-09	-3.233838e+01	-7.156587e+01
6.700000e-07	-4.627116e-06	-1.067109e-09	-3.216073e+01	-7.132411e+01
6.800000e-07	-4.601037e-06	-1.078617e-09	-3.197946e+01	-7.107916e+01
6.900000e-07	-4.574386e-06	-1.066223e-09	-3.179423e+01	-7.083111e+01
7.000000e-07	-4.547309e-06	-1.054786e-09	-3.160603e+01	-7.058001e+01
7.100000e-07	-4.519939e-06	-1.058602e-09	-3.141579e+01	-7.032592e+01
7.200000e-07	-4.492358e-06	-1.051123e-09	-3.122409e+01	-7.006889e+01
7.300000e-07	-4.464646e-06	-1.038958e-09	-3.103148e+01	-6.980894e+01
7.400000e-07	-4.436785e-06	-1.039876e-09	-3.083783e+01	-6.954611e+01
7.500000e-07	-4.408670e-06	-1.033192e-09	-3.064242e+01	-6.928041e+01
7.600000e-07	-4.380254e-06	-1.027800e-09	-3.044492e+01	-6.901183e+01
7.700000e-07	-4.351527e-06	-1.028355e-09	-3.024525e+01	-6.874037e+01
7.800000e-07	-4.322438e-06	-1.027887e-09	-3.004306e+01	-6.846601e+01
7.900000e-07	-4.293020e-06	-1.021475e-09	-2.983860e+01	-6.818873e+01
8.000000e-07	-4.263338e-06	-1.021879e-09	-2.963229e+01	-6.790849e+01
8.100000e-07	-4.233344e-06	-1.010353e-09	-2.942382e+01	-6.762525e+01
8.200000e-07	-4.203000e-06	-9.945699e-10	-2.921291e+01	-6.733897e+01
8.300000e-07	-4.172346e-06	-9.864387e-10	-2.899985e+01	-6.704959e+01
8.400000e-07	-4.141417e-06	-9.866031e-10	-2.878488e+01	-6.675706e+01
8.500000e-07	-4.110187e-06	-9.797628e-10	-2.856781e+01	-6.646131e+01
8.600000e-07	-4.078758e-06	-9.818402e-10	-2.834937e+01	-6.616228e+01
8.700000e-07	-4.047246e-06	-9.850231e-10	-2.813035e+01	-6.585992e+01
8.800000e-07	-4.015575e-06	-9.803140e-10	-2.791021e+01	-6.555414e+01
8.900000e-07	-3.983649e-06	-9.668833e-10	-2.768832e+01	-6.524489e+01
9.000000e-07	-3.951440e-06	-9.573938e-10	-2.746445e+01	-6.493210e+01
9.100000e-07	-3.919014e-06	-9.431944e-10	-2.723907e+01	-6.461571e+01
9.200000e-07	-3.886160e-06	-9.361442e-10	-2.701072e+01	-6.429566e+01
9.300000e-07	-3.852753e-06	-9.395124e-10	-2.677852e+01	-6.397188e+01
9.400000e-07	-3.818910e-06	-9.426299e-10	-2.654330e+01	-6.364433e+01
9.500000e-07	-3.784570e-06	-9.361688e-10	-2.630462e+01	-6.331295e+01
9.600000e-07	-3.749774e-06	-9.285062e-10	-2.606277e+01	-6.297770e+01
9.700000e-07	-3.714704e-06	-9.223660e-10	-2.581901e+01	-6.263854e+01
9.800000e-07	-3.679439e-06	-9.101826e-10	-2.557390e+01	-6.229544e+01
9.900000e-07	-3.644000e-06	-9.008733e-10	-2.532759e+01	-6.194836e+01
1.000000e-06	-3.608446e-06	-9.002055e-10	-2.508047e+01	-6.159729e+01
1.010000e-06	-3.572748e-06	-9.001193e-10	-2.483235e+01	-6.124220e+01
1.020000e-06	-3.536791e-06	-8.950363e-10	-2.458243e+01	-6.088310e+01
1.030000e-06	-3.500586e-06	-8.889966e-10	-2.433079e+01	-6.051997e+01
1.040000e-06	-3.464263e-06	-8.803299e-10	-2.407833e+01	-6.015282e+01
1.050000e-06	-3.427707e-06	-8.715164e-10	-2.382424e+01	-5.978166e+01
1.060000e-06	-3.390808e-06	-8.638732e-10	-2.356778e+01	-5.940651e+01
1.070000e-06	-3.353669e-06	-8.610312e-10	-2.330965e+01	-5.902738e+01
1.080000e-06	-3.316365e-06	-8.559662e-10	-2.305036e+01	-5.864430e+01
1.090000e-06	-3.278853e-06	-8.520533e-10	-2.278964e+01	-5.825730e+01
1.100000e-06	-3.241105e-06	-8.476295e-10	-2.252727e+01	-5.786642e+01
1.110000e-06	-3.203131e-06	-8.404154e-10	-2.226333e+01	-5.747168e+01
1.120000e-06	-3.164891e-06	-8.297133e-10	-2.199754e+01	-5.707314e+01
1.130000e-06	-3.126388e-06	-8.233280e-10	-2.172993e+01	-5.667082e+01
1.140000e-06	-3.087643e-06	-8.185987e-10	-2.146064e+01	-5.626478e+01
1.150000e-06	-3.048650e-06	-8.132382e-10	-2.118961e+01	-5.585504e+01
1.160000e-06	-3.009470e-06	-8.037738e-10	-2.091729e+01	-5.544165e+01
1.170000e-06	-2.970196e-06	-7.959014e-10	-2.064432e+01	-5.502466e+01
1.180000e-06	-2.930794e-06	-7.905343e-10	-2.037045e+01	-5.460408e+01
1.190000e-06	-2.891231e-06	-7.862522e-10	-2.009548e+01	-5.417995e+01
1.200000e-06	-2.851487e-06	-7.805275e-10	-1.981924e+01	-5.375230e+01
1.210000e-06	-2.811590e-06	-7.734308e-10	-1.954193e+01	-5.332114e+01
1.220000e-06	-2.771532e-06	-7.654027e-10	-1.926351e+01	-5.288648e+01
1.230000e-06	-2.731251e-06	-7.556673e-10	-1.898354e+01	-5.244833e+01
1.240000e-06	-2.690824e-06	-7.460171e-10	-1.870255e+01	-5.200666e+01
1.250000e-06	-2.650243e-06	-7.400618e-10	-1.842049e+01	-5.156147e+01
1.260000e-06	-2.609373e-06	-7.356301e-10	-1.813642e+01	-5.111271e+01
1.270000e-06	-2.568122e-06	-7.307776e-10	-1.784971e+01	-5.066034e+01
1.280000e-06	-2.526455e-06	-7.253511e-10	-1.756010e+01	-5.020431e+01
1.290000e-06	-2.484538e-06	-7.177579e-10	-1.726876e+01	-4.974452e+01
1.300000e-06	-2.442457e-06	-7.066200e-10	-1.697628e+01	-4.928089e+01
1.310000e-06	-2.400143e-06	-6.929968e-10	-1.668217e+01	-4.881331e+01
1.320000e-06	-2.357494e-06	-6.820787e-10	-1.638574e+01	-4.834165e+01
1.330000e-06	-2.314519e-06	-6.736614e-10	-1.608705e+01	-4.786576e+01
1.340000e-06	-2.271374e-06	-6.702173e-10	-1.578717e+01	-4.738546e+01
1.350000e-06	-2.228101e-06	-6.682528e-10	-1.548640e+01	-4.690058e+01
1.360000e-06	-2.184723e-06	-6.636779e-10	-1.518490e+01	-4.641090e+01
1.370000e-06	-2.141208e-06	-6.545220e-10	-1.488245e+01	-4.591620e+01
1.380000e-06	-2.097533e-06	-6.446410e-10	-1.457888e+01	-4.541621e+01
1.390000e-06	-2.053804e-06	-6.341924e-10	-1.427494e+01	-4.491067e+01
1.400000e-06	-2.010097e-06	-6.251293e-10	-1.397116e+01	-4.439928e+01
1.410000e-06	-1.966301e-06	-6.165527e-10	-1.366676e+01	-4.388173e+01
1.420000e-06	-1.922377e-06	-6.085939e-10	-1.336146e+01	-4.335766e+01
1.430000e-06	-1.878395e-06	-6.014638e-10	-1.305576e+01	-4.282673e+01
1.440000e-06	-1.834339e-06	-5.936024e-10	-1.274955e+01	-4.228856e+01
1.450000e-06	-1.790109e-06	-5.828556e-10	-1.244214e+01	-4.174274e+01
1.460000e-06	-1.745693e-06	-5.713101e-10	-1.213342e+01	-4.118887e+01
1.470000e-06	-1.701106e-06	-5.620259e-10	-1.182352e+01	-4.062649e+01
1.480000e-06	-1.656339e-06	-5.545941e-10	-1.151237e+01	-4.005517e+01
1.490000e-06	-1.611510e-06	-5.472708e-10	-1.120079e+01	-3.947443e+01
1.500000e-06	-1.566619e-06	-5.407194e-10	-1.088877e+01	-3.888380e+01
1.510000e-06	-1.521607e-06	-5.329507e-10	-1.057591e+01	-3.828279e+01
1.520000e-06	-1.476477e-06	-5.217217e-10	-1.026224e+01	-3.767089e+01
1.530000e-06	-1.431190e-06	-5.095757e-10	-9.947471e+00	-3.704760e+01
1.540000e-06	-1.385824e-06	-4.999446e-10	-9.632157e+00	-3.641241e+01
1.550000e-06	-1.340438e-06	-4.910062e-10	-9.316700e+00	-3.576479e+01
1.560000e-06	-1.294967e-06	-4.816922e-10	-9.000657e+00	-3.510424e+01
1.570000e-06	-1.249371e-06	-4.714554e-10	-8.683744e+00	-3.443024e+01
1.580000e-06	-1.203658e-06	-4.584660e-10	-8.366011e+00	-3.374228e+01
1.590000e-06	-1.157873e-06	-4.465028e-10	-8.047784e+00	-3.303987e+01
1.600000e-06	-1.112030e-06	-4.358538e-10	-7.729153e+00	-3.232252e+01
1.610000e-06	-1.066086e-06	-4.232103e-10	-7.409821e+00	-3.158975e+01
1.620000e-06	-1.020097e-06	-4.076622e-10	-7.090175e+00	-3.084110e+01
1.630000e-06	-9.740915e-07	-3.934660e-10	-6.770414e+00	-3.007615e+01
1.640000e-06	-9.279221e-07	-3.820368e-10	-6.449514e+00	-2.929448e+01
1.650000e-06	-8.816686e-07	-3.710675e-10	-6.128029e+00	-2.849570e+01
1.660000e-06	-8.353259e-07	-3.593017e-10	-5.805925e+00	-2.767947e+01
1.670000e-06	-7.888770e-07	-3.491486e-10	-5.483082e+00	-2.684547e+01
1.680000e-06	-7.424678e-07	-3.385905e-10	-5.160516e+00	-2.599340e+01
1.690000e-06	-6.960830e-07	-3.257858e-10	-4.838118e+00	-2.512304e+01
1.700000e-06	-6.496235e-07	-3.115751e-10	-4.515202e+00	-2.423417e+01
1.710000e-06	-6.029933e-07	-2.971778e-10	-4.191099e+00	-2.332665e+01
1.720000e-06	-5.563546e-07	-2.825984e-10	-3.866937e+00	-2.240036e+01
1.730000e-06	-5.097658e-07	-2.671746e-10	-3.543123e+00	-2.145526e+01
1.740000e-06	-4.631242e-07	-2.512103e-10	-3.218941e+00	-2.049135e+01
1.750000e-06	-4.164196e-07	-2.358337e-10	-2.894320e+00	-1.950867e+01
1.760000e-06	-3.696932e-07	-2.213403e-10	-2.569549e+00	-1.850733e+01
1.770000e-06	-3.229890e-07	-2.078620e-10	-2.244932e+00	-1.748752e+01
1.780000e-06	-2.762827e-07	-1.932901e-10	-1.920301e+00	-1.644945e+01
1.790000e-06	-2.294743e-07	-1.781061e-10	-1.594959e+00	-1.539341e+01
1.800000e-06	-1.826040e-07	-1.623968e-10	-1.269187e+00	-1.431977e+01
1.810000e-06	-1.358016e-07	-1.459428e-10	-9.438877e-01	-1.322893e+01
1.820000e-06	-8.902105e-08	-1.289802e-10	-6.187400e-01	-1.212137e+01
1.830000e-06	-4.221898e-08	-1.110164e-10	-2.934426e-01	-1.099763e+01
1.840000e-06	4.632039e-09	-9.359595e-11	3.219495e-02	-9.858315e+00
1.850000e-06	5.144372e-08	-7.740305e-11	3.575591e-01	-8.704081e+00
1.860000e-06	9.816771e-08	-5.945449e-11	6.823138e-01	-7.535650e+00
1.870000e-06	1.449501e-07	-4.091267e-11	1.007475e+00	-6.353798e+00
1.880000e-06	1.918135e-07	-2.467561e-11	1.333198e+00	-5.159359e+00
1.890000e-06	2.386715e-07	-9.941487e-12	1.658884e+00	-3.953217e+00
1.900000e-06	2.854972e-07	4.552587e-12	1.984345e+00	-2.736310e+00
1.910000e-06	3.322694e-07	2.131499e-11	2.309436e+00	-1.509619e+00
1.920000e-06	3.790064e-07	4.022861e-11	2.634281e+00	-2.741706e-01
1.930000e-06	4.257349e-07	5.967498e-11	2.959066e+00	9.689686e-01
1.940000e-06	4.724463e-07	7.879334e-11	3.283734e+00	2.218697e+00
1.950000e-06	5.191455e-07	9.716502e-11	3.608316e+00	3.473880e+00
1.960000e-06	5.657708e-07	1.132803e-10	3.932385e+00	4.733357e+00
1.970000e-06	6.122649e-07	1.283114e-10	4.255542e+00	5.995944e+00
1.980000e-06	6.586643e-07	1.433159e-10	4.578040e+00	7.260441e+00
1.990000e-06	7.049966e-07	1.582821e-10	4.900072e+00	8.525632e+00
2.000000e-06	7.512772e-07	1.749722e-10	5.221745e+00	9.790298e+00
2.010000e-06	7.975372e-07	1.934029e-10	5.543275e+00	1.105321e+01
2.020000e-06	8.438112e-07	2.155003e-10	5.864902e+00	1.231316e+01
2.030000e-06	8.900730e-07	2.403148e-10	6.186444e+00	1.356892e+01
2.040000e-06	9.361766e-07	2.619599e-10	6.506887e+00	1.481930e+01
2.050000e-06	9.821712e-07	2.789838e-10	6.826572e+00	1.606312e+01
2.060000e-06	1.028161e-06	2.914515e-10	7.146227e+00	1.729922e+01
2.070000e-06	1.074100e-06	3.028668e-10	7.465523e+00	1.852648e+01
2.080000e-06	1.119946e-06	3.160520e-10	7.784173e+00	1.974380e+01
2.090000e-06	1.165669e-06	3.339641e-10	8.101972e+00	2.095012e+01
2.100000e-06	1.211278e-06	3.543264e-10	8.418976e+00	2.214444e+01
2.110000e-06	1.256817e-06	3.749532e-10	8.735494e+00	2.332579e+01
2.120000e-06	1.302261e-06	3.937701e-10	9.051353e+00	2.449326e+01
2.130000e-06	1.347619e-06	4.096475e-10	9.366610e+00	2.564598e+01
2.140000e-06	1.392945e-06	4.234957e-10	9.681651e+00	2.678315e+01
2.150000e-06	1.438203e-06	4.352439e-10	9.996217e+00	2.790403e+01
2.160000e-06	1.483356e-06	4.459504e-10	1.031005e+01	2.900794e+01
2.170000e-06	1.528373e-06	4.572063e-10	1.062294e+01	3.009427e+01
2.180000e-06	1.573281e-06	4.701373e-10	1.093507e+01	3.116246e+01
2.190000e-06	1.618070e-06	4.880543e-10	1.124638e+01	3.221205e+01
2.200000e-06	1.662689e-06	5.060663e-10	1.155650e+01	3.324261e+01
2.210000e-06	1.707185e-06	5.193202e-10	1.186577e+01	3.425380e+01
2.220000e-06	1.751558e-06	5.305795e-10	1.217419e+01	3.524536e+01
2.230000e-06	1.795786e-06	5.415612e-10	1.248160e+01	3.621707e+01
2.240000e-06	1.839909e-06	5.519913e-10	1.278827e+01	3.716879e+01
2.250000e-06	1.883936e-06	5.639738e-10	1.309428e+01	3.810046e+01
2.260000e-06	1.927892e-06	5.795346e-10	1.339979e+01	3.901206e+01
2.270000e-06	1.971769e-06	5.939890e-10	1.370476e+01	3.990365e+01
2.280000e-06	2.015556e-06	6.072071e-10	1.400910e+01	4.077534e+01
2.290000e-06	2.059268e-06	6.205383e-10	1.431292e+01	4.162730e+01
2.300000e-06	2.102933e-06	6.320958e-10	1.461641e+01	4.245976e+01
2.310000e-06	2.146561e-06	6.410623e-10	1.491965e+01	4.327298e+01
2.320000e-06	2.190083e-06	6.502003e-10	1.522215e+01	4.406729e+01
2.330000e-06	2.233459e-06	6.603801e-10	1.552364e+01	4.484305e+01
2.340000e-06	2.276674e-06	6.714122e-10	1.582400e+01	4.560066e+01
2.350000e-06	2.319706e-06	6.822712e-10	1.612309e+01	4.634054e+01
2.360000e-06	2.362564e-06	6.935390e-10	1.642098e+01	4.706317e+01
2.370000e-06	2.405163e-06	7.047349e-10	1.671707e+01	4.776903e+01
2.380000e-06	2.447436e-06	7.155276e-10	1.701088e+01	4.845864e+01
2.390000e-06	2.489460e-06	7.246113e-10	1.730297e+01	4.913250e+01
2.400000e-06	2.531195e-06	7.317479e-10	1.759305e+01	4.979117e+01
2.410000e-06	2.572565e-06	7.388991e-10	1.788059e+01	5.043518e+01
2.420000e-06	2.613626e-06	7.475731e-10	1.816598e+01	5.106508e+01
2.430000e-06	2.654346e-06	7.566176e-10	1.844901e+01	5.168141e+01
2.440000e-06	2.694805e-06	7.657590e-10	1.873022e+01	5.228471e+01
2.450000e-06	2.735101e-06	7.755698e-10	1.901029e+01	5.287551e+01
2.460000e-06	2.775195e-06	7.854156e-10	1.928896e+01	5.345432e+01
2.470000e-06	2.815126e-06	7.930206e-10	1.956651e+01	5.402165e+01
2.480000e-06	2.854932e-06	7.975530e-10	1.984318e+01	5.457797e+01
2.490000e-06	2.894616e-06	8.023090e-10	2.011900e+01	5.512374e+01
2.500000e-06	2.934175e-06	8.089814e-10	2.039396e+01	5.565940e+01
2.510000e-06	2.973569e-06	8.175290e-10	2.066777e+01	5.618536e+01
2.520000e-06	3.012801e-06	8.284285e-10	2.094044e+01	5.670199e+01
2.530000e-06	3.051932e-06	8.397543e-10	2.121243e+01	5.720964e+01
2.540000e-06	3.090858e-06	8.508722e-10	2.148298e+01	5.770863e+01
2.550000e-06	3.129432e-06	8.593036e-10	2.175109e+01	5.819926e+01
2.560000e-06	3.167675e-06	8.626478e-10	2.201689e+01	5.868176e+01
2.570000e-06	3.205771e-06	8.656033e-10	2.228168e+01	5.915639e+01
2.580000e-06	3.243726e-06	8.710140e-10	2.254549e+01	5.962331e+01
2.590000e-06	3.281479e-06	8.774690e-10	2.280789e+01	6.008270e+01
2.600000e-06	3.318981e-06	8.826841e-10	2.306855e+01	6.053470e+01
2.610000e-06	3.356245e-06	8.888158e-10	2.332755e+01	6.097940e+01
2.620000e-06	3.393448e-06	8.971256e-10	2.358613e+01	6.141689e+01
2.630000e-06	3.430412e-06	9.055534e-10	2.384304e+01	6.184723e+01
2.640000e-06	3.466973e-06	9.114669e-10	2.409716e+01	6.227044e+01
2.650000e-06	3.503277e-06	9.171986e-10	2.434950e+01	6.268653e+01
2.660000e-06	3.539378e-06	9.221245e-10	2.460041e+01	6.309551e+01
2.670000e-06	3.575243e-06	9.237157e-10	2.484969e+01	6.349735e+01
2.680000e-06	3.610936e-06	9.253576e-10	2.509778e+01	6.389202e+01
2.690000e-06	3.646564e-06	9.284009e-10	2.534541e+01	6.427947e+01
2.700000e-06	3.682087e-06	9.335014e-10	2.559231e+01	6.465965e+01
2.710000e-06	3.717363e-06	9.414789e-10	2.583750e+01	6.503251e+01
2.720000e-06	3.752427e-06	9.510523e-10	2.608121e+01	6.539800e+01
2.730000e-06	3.787219e-06	9.603648e-10	2.632303e+01	6.575604e+01
2.740000e-06	3.821492e-06	9.667102e-10	2.656125e+01	6.610660e+01
2.750000e-06	3.855236e-06	9.701220e-10	2.679578e+01	6.644963e+01
2.760000e-06	3.888586e-06	9.713829e-10	2.702758e+01	6.678508e+01
2.770000e-06	3.921461e-06	9.716501e-10	2.725608e+01	6.711294e+01
2.780000e-06	3.953858e-06	9.742304e-10	2.748125e+01	6.743318e+01
2.790000e-06	3.985930e-06	9.788079e-10	2.770417e+01	6.774580e+01
2.800000e-06	4.017771e-06	9.851679e-10	2.792548e+01	6.805083e+01
2.810000e-06	4.049478e-06	9.907409e-10	2.814586e+01	6.834829e+01
2.820000e-06	4.081062e-06	9.940999e-10	2.836538e+01	6.863823e+01
2.830000e-06	4.112459e-06	9.982397e-10	2.858361e+01	6.892072e+01
2.840000e-06	4.143640e-06	1.001900e-09	2.880033e+01	6.919586e+01
2.850000e-06	4.174547e-06	1.003818e-09	2.901515e+01	6.946373e+01
2.860000e-06	4.205089e-06	1.005313e-09	2.922743e+01	6.972449e+01
2.870000e-06	4.235253e-06	1.007417e-09	2.943708e+01	6.997826e+01
2.880000e-06	4.265086e-06	1.009155e-09	2.964444e+01	7.022522e+01
2.890000e-06	4.294715e-06	1.009794e-09	2.985037e+01	7.046555e+01
2.900000e-06	4.324155e-06	1.013540e-09	3.005500e+01	7.069944e+01
2.910000e-06	4.353331e-06	1.018291e-09	3.025778e+01	7.092712e+01
