# Temperatura_=_-5.97
# Concentracion g/m^3_=_1620.0
# C_Vs_to_Am_M_A/Vsm_=_65563218390.804596
# pendiente_HvsI_1/m_=_3716.3
# ordenada_HvsI_A/m_=_1297.0
# frecuencia_Hz_=_135100.76800029507

Tiempo_(s)	Campo_(V.s)	Magnetizacion_(V.s)	Campo_(kA/m)	Magnetizacion_(A/m)
0.000000e+00	-5.517220e-06	-9.203562e-10	-3.835999e+01	-6.063650e+01
1.000000e-08	-5.517577e-06	-9.170083e-10	-3.836247e+01	-6.061088e+01
2.000000e-08	-5.517700e-06	-9.146509e-10	-3.836333e+01	-6.058271e+01
3.000000e-08	-5.517391e-06	-9.141874e-10	-3.836118e+01	-6.055195e+01
4.000000e-08	-5.516514e-06	-9.150329e-10	-3.835509e+01	-6.051852e+01
5.000000e-08	-5.515119e-06	-9.160545e-10	-3.834539e+01	-6.048239e+01
6.000000e-08	-5.513187e-06	-9.156347e-10	-3.833195e+01	-6.044351e+01
7.000000e-08	-5.510660e-06	-9.165862e-10	-3.831439e+01	-6.040185e+01
8.000000e-08	-5.507622e-06	-9.288721e-10	-3.829326e+01	-6.035736e+01
9.000000e-08	-5.504064e-06	-9.243521e-10	-3.826852e+01	-6.031004e+01
1.000000e-07	-5.500075e-06	-8.796298e-10	-3.824079e+01	-6.025987e+01
1.100000e-07	-5.495686e-06	-8.873893e-10	-3.821027e+01	-6.020684e+01
1.200000e-07	-5.491119e-06	-9.277833e-10	-3.817852e+01	-6.015097e+01
1.300000e-07	-5.486432e-06	-9.419636e-10	-3.814594e+01	-6.009226e+01
1.400000e-07	-5.481388e-06	-8.990039e-10	-3.811086e+01	-6.003074e+01
1.500000e-07	-5.475963e-06	-8.793621e-10	-3.807314e+01	-5.996643e+01
1.600000e-07	-5.470127e-06	-9.316207e-10	-3.803257e+01	-5.989937e+01
1.700000e-07	-5.463875e-06	-9.526243e-10	-3.798910e+01	-5.982962e+01
1.800000e-07	-5.457192e-06	-9.181813e-10	-3.794264e+01	-5.975722e+01
1.900000e-07	-5.450143e-06	-8.828089e-10	-3.789362e+01	-5.968224e+01
2.000000e-07	-5.442802e-06	-8.948716e-10	-3.784258e+01	-5.960475e+01
2.100000e-07	-5.435148e-06	-9.148386e-10	-3.778937e+01	-5.952483e+01
2.200000e-07	-5.427199e-06	-9.153644e-10	-3.773410e+01	-5.944255e+01
2.300000e-07	-5.418995e-06	-8.956064e-10	-3.767706e+01	-5.935801e+01
2.400000e-07	-5.410503e-06	-8.943898e-10	-3.761802e+01	-5.927131e+01
2.500000e-07	-5.401444e-06	-8.962245e-10	-3.755503e+01	-5.918253e+01
2.600000e-07	-5.391465e-06	-8.887042e-10	-3.748565e+01	-5.909179e+01
2.700000e-07	-5.380814e-06	-8.645703e-10	-3.741159e+01	-5.899920e+01
2.800000e-07	-5.369756e-06	-8.537049e-10	-3.733471e+01	-5.890485e+01
2.900000e-07	-5.358276e-06	-8.604899e-10	-3.725489e+01	-5.880886e+01
3.000000e-07	-5.346498e-06	-8.624235e-10	-3.717300e+01	-5.871135e+01
3.100000e-07	-5.334359e-06	-8.476310e-10	-3.708860e+01	-5.861241e+01
3.200000e-07	-5.321740e-06	-8.501184e-10	-3.700087e+01	-5.851217e+01
3.300000e-07	-5.308700e-06	-8.718419e-10	-3.691020e+01	-5.841074e+01
3.400000e-07	-5.295325e-06	-8.674705e-10	-3.681721e+01	-5.830822e+01
3.500000e-07	-5.281552e-06	-8.383544e-10	-3.672145e+01	-5.820471e+01
3.600000e-07	-5.267318e-06	-8.452176e-10	-3.662248e+01	-5.810033e+01
3.700000e-07	-5.252592e-06	-8.586116e-10	-3.652010e+01	-5.799515e+01
3.800000e-07	-5.237412e-06	-8.435099e-10	-3.641455e+01	-5.788929e+01
3.900000e-07	-5.221651e-06	-8.481589e-10	-3.630497e+01	-5.778281e+01
4.000000e-07	-5.205308e-06	-8.665464e-10	-3.619134e+01	-5.767581e+01
4.100000e-07	-5.188715e-06	-8.425295e-10	-3.607597e+01	-5.756836e+01
4.200000e-07	-5.171742e-06	-8.241827e-10	-3.595796e+01	-5.746053e+01
4.300000e-07	-5.154375e-06	-8.652136e-10	-3.583721e+01	-5.735236e+01
4.400000e-07	-5.136798e-06	-8.636661e-10	-3.571500e+01	-5.724393e+01
4.500000e-07	-5.118867e-06	-8.185792e-10	-3.559034e+01	-5.713526e+01
4.600000e-07	-5.100447e-06	-8.352873e-10	-3.546226e+01	-5.702640e+01
4.700000e-07	-5.081615e-06	-8.697135e-10	-3.533133e+01	-5.691737e+01
4.800000e-07	-5.062531e-06	-8.267363e-10	-3.519864e+01	-5.680819e+01
4.900000e-07	-5.043154e-06	-8.193454e-10	-3.506392e+01	-5.669888e+01
5.000000e-07	-5.023537e-06	-8.652661e-10	-3.492753e+01	-5.658943e+01
5.100000e-07	-5.003702e-06	-8.431524e-10	-3.478962e+01	-5.647984e+01
5.200000e-07	-4.983563e-06	-8.031851e-10	-3.464960e+01	-5.637009e+01
5.300000e-07	-4.963110e-06	-8.466997e-10	-3.450739e+01	-5.626017e+01
5.400000e-07	-4.942298e-06	-8.522156e-10	-3.436269e+01	-5.615004e+01
5.500000e-07	-4.921116e-06	-8.003951e-10	-3.421542e+01	-5.603967e+01
5.600000e-07	-4.899645e-06	-8.131950e-10	-3.406614e+01	-5.592900e+01
5.700000e-07	-4.877857e-06	-8.458767e-10	-3.391465e+01	-5.581801e+01
5.800000e-07	-4.855647e-06	-8.095453e-10	-3.376022e+01	-5.570661e+01
5.900000e-07	-4.833069e-06	-8.051158e-10	-3.360325e+01	-5.559477e+01
6.000000e-07	-4.810191e-06	-8.441730e-10	-3.344418e+01	-5.548240e+01
6.100000e-07	-4.786952e-06	-8.262410e-10	-3.328260e+01	-5.536943e+01
6.200000e-07	-4.763404e-06	-8.001188e-10	-3.311888e+01	-5.525580e+01
6.300000e-07	-4.739719e-06	-8.225731e-10	-3.295420e+01	-5.514143e+01
6.400000e-07	-4.715858e-06	-8.185885e-10	-3.278831e+01	-5.502622e+01
6.500000e-07	-4.691656e-06	-7.901247e-10	-3.262003e+01	-5.491010e+01
6.600000e-07	-4.666942e-06	-8.061342e-10	-3.244820e+01	-5.479297e+01
6.700000e-07	-4.641643e-06	-8.163530e-10	-3.227230e+01	-5.467477e+01
6.800000e-07	-4.615685e-06	-7.957172e-10	-3.209183e+01	-5.455538e+01
6.900000e-07	-4.589100e-06	-8.013967e-10	-3.190698e+01	-5.443473e+01
7.000000e-07	-4.562191e-06	-8.189264e-10	-3.171990e+01	-5.431272e+01
7.100000e-07	-4.535048e-06	-8.007647e-10	-3.153117e+01	-5.418927e+01
7.200000e-07	-4.507641e-06	-7.880236e-10	-3.134062e+01	-5.406428e+01
7.300000e-07	-4.480086e-06	-7.962745e-10	-3.114904e+01	-5.393767e+01
7.400000e-07	-4.452387e-06	-7.902044e-10	-3.095645e+01	-5.380936e+01
7.500000e-07	-4.424441e-06	-7.795341e-10	-3.076215e+01	-5.367925e+01
7.600000e-07	-4.396158e-06	-7.933470e-10	-3.056550e+01	-5.354726e+01
7.700000e-07	-4.367580e-06	-7.979351e-10	-3.036680e+01	-5.341332e+01
7.800000e-07	-4.338706e-06	-7.871649e-10	-3.016605e+01	-5.327734e+01
7.900000e-07	-4.309510e-06	-7.858305e-10	-2.996306e+01	-5.313924e+01
8.000000e-07	-4.280049e-06	-7.839808e-10	-2.975822e+01	-5.299896e+01
8.100000e-07	-4.250309e-06	-7.634223e-10	-2.955145e+01	-5.285641e+01
8.200000e-07	-4.220265e-06	-7.532139e-10	-2.934256e+01	-5.271152e+01
8.300000e-07	-4.189835e-06	-7.580669e-10	-2.913099e+01	-5.256424e+01
8.400000e-07	-4.159055e-06	-7.555427e-10	-2.891698e+01	-5.241448e+01
8.500000e-07	-4.127985e-06	-7.548480e-10	-2.870095e+01	-5.226219e+01
8.600000e-07	-4.096704e-06	-7.655614e-10	-2.848346e+01	-5.210730e+01
8.700000e-07	-4.065311e-06	-7.640713e-10	-2.826519e+01	-5.194976e+01
8.800000e-07	-4.033763e-06	-7.527171e-10	-2.804585e+01	-5.178949e+01
8.900000e-07	-4.002052e-06	-7.514008e-10	-2.782537e+01	-5.162646e+01
9.000000e-07	-3.970176e-06	-7.457944e-10	-2.760375e+01	-5.146059e+01
9.100000e-07	-3.938064e-06	-7.310686e-10	-2.738048e+01	-5.129184e+01
9.200000e-07	-3.905599e-06	-7.309052e-10	-2.715476e+01	-5.112015e+01
9.300000e-07	-3.872584e-06	-7.371068e-10	-2.692521e+01	-5.094546e+01
9.400000e-07	-3.839004e-06	-7.343445e-10	-2.669173e+01	-5.076774e+01
9.500000e-07	-3.805024e-06	-7.344033e-10	-2.645548e+01	-5.058692e+01
9.600000e-07	-3.770663e-06	-7.390036e-10	-2.621658e+01	-5.040295e+01
9.700000e-07	-3.735879e-06	-7.309267e-10	-2.597473e+01	-5.021579e+01
9.800000e-07	-3.700742e-06	-7.176831e-10	-2.573043e+01	-5.002538e+01
9.900000e-07	-3.665340e-06	-7.180952e-10	-2.548429e+01	-4.983169e+01
1.000000e-06	-3.629817e-06	-7.180153e-10	-2.523731e+01	-4.963465e+01
1.010000e-06	-3.594257e-06	-7.124158e-10	-2.499006e+01	-4.943422e+01
1.020000e-06	-3.558533e-06	-7.158268e-10	-2.474168e+01	-4.923035e+01
1.030000e-06	-3.522597e-06	-7.202828e-10	-2.449183e+01	-4.902299e+01
1.040000e-06	-3.486426e-06	-7.149425e-10	-2.424034e+01	-4.881211e+01
1.050000e-06	-3.449980e-06	-7.136668e-10	-2.398694e+01	-4.859764e+01
1.060000e-06	-3.413298e-06	-7.139383e-10	-2.373190e+01	-4.837954e+01
1.070000e-06	-3.376330e-06	-7.056515e-10	-2.347487e+01	-4.815777e+01
1.080000e-06	-3.339125e-06	-6.957687e-10	-2.321619e+01	-4.793229e+01
1.090000e-06	-3.301702e-06	-6.955787e-10	-2.295600e+01	-4.770303e+01
1.100000e-06	-3.263997e-06	-6.928912e-10	-2.269384e+01	-4.746996e+01
1.110000e-06	-3.226134e-06	-6.876857e-10	-2.243059e+01	-4.723303e+01
1.120000e-06	-3.188000e-06	-6.870472e-10	-2.216545e+01	-4.699220e+01
1.130000e-06	-3.149533e-06	-6.856323e-10	-2.189800e+01	-4.674742e+01
1.140000e-06	-3.110896e-06	-6.765616e-10	-2.162936e+01	-4.649865e+01
1.150000e-06	-3.072080e-06	-6.687934e-10	-2.135949e+01	-4.624584e+01
1.160000e-06	-3.033066e-06	-6.666694e-10	-2.108823e+01	-4.598894e+01
1.170000e-06	-2.993815e-06	-6.621471e-10	-2.081533e+01	-4.572791e+01
1.180000e-06	-2.954378e-06	-6.561837e-10	-2.054113e+01	-4.546271e+01
1.190000e-06	-2.914894e-06	-6.546987e-10	-2.026660e+01	-4.519328e+01
1.200000e-06	-2.875354e-06	-6.499000e-10	-1.999169e+01	-4.491959e+01
1.210000e-06	-2.835717e-06	-6.398098e-10	-1.971610e+01	-4.464157e+01
1.220000e-06	-2.795926e-06	-6.306124e-10	-1.943945e+01	-4.435918e+01
1.230000e-06	-2.755919e-06	-6.237581e-10	-1.916128e+01	-4.407237e+01
1.240000e-06	-2.715695e-06	-6.164961e-10	-1.888162e+01	-4.378108e+01
1.250000e-06	-2.675218e-06	-6.131505e-10	-1.860019e+01	-4.348526e+01
1.260000e-06	-2.634499e-06	-6.135933e-10	-1.831708e+01	-4.318483e+01
1.270000e-06	-2.593573e-06	-6.099248e-10	-1.803253e+01	-4.287973e+01
1.280000e-06	-2.552327e-06	-6.035651e-10	-1.774576e+01	-4.256990e+01
1.290000e-06	-2.510738e-06	-5.972137e-10	-1.745660e+01	-4.225526e+01
1.300000e-06	-2.468900e-06	-5.897606e-10	-1.716571e+01	-4.193571e+01
1.310000e-06	-2.426701e-06	-5.797844e-10	-1.687231e+01	-4.161118e+01
1.320000e-06	-2.384150e-06	-5.723592e-10	-1.657646e+01	-4.128157e+01
1.330000e-06	-2.341377e-06	-5.689568e-10	-1.627907e+01	-4.094677e+01
1.340000e-06	-2.298372e-06	-5.667068e-10	-1.598007e+01	-4.060667e+01
1.350000e-06	-2.255199e-06	-5.650563e-10	-1.567989e+01	-4.026115e+01
1.360000e-06	-2.211870e-06	-5.633753e-10	-1.537864e+01	-3.991007e+01
1.370000e-06	-2.168390e-06	-5.582735e-10	-1.507633e+01	-3.955329e+01
1.380000e-06	-2.124870e-06	-5.504937e-10	-1.477374e+01	-3.919066e+01
1.390000e-06	-2.081320e-06	-5.411936e-10	-1.447095e+01	-3.882200e+01
1.400000e-06	-2.037674e-06	-5.320255e-10	-1.416749e+01	-3.844715e+01
1.410000e-06	-1.993884e-06	-5.249927e-10	-1.386303e+01	-3.806591e+01
1.420000e-06	-1.950023e-06	-5.213304e-10	-1.355807e+01	-3.767808e+01
1.430000e-06	-1.906172e-06	-5.178012e-10	-1.325318e+01	-3.728345e+01
1.440000e-06	-1.862293e-06	-5.135906e-10	-1.294811e+01	-3.688177e+01
1.450000e-06	-1.818232e-06	-5.084145e-10	-1.264176e+01	-3.647282e+01
1.460000e-06	-1.773906e-06	-5.013300e-10	-1.233357e+01	-3.605633e+01
1.470000e-06	-1.729405e-06	-4.918793e-10	-1.202417e+01	-3.563204e+01
1.480000e-06	-1.684800e-06	-4.812526e-10	-1.171403e+01	-3.519966e+01
1.490000e-06	-1.640044e-06	-4.732037e-10	-1.140286e+01	-3.475892e+01
1.500000e-06	-1.595220e-06	-4.678174e-10	-1.109120e+01	-3.430949e+01
1.510000e-06	-1.550340e-06	-4.626574e-10	-1.077917e+01	-3.385107e+01
1.520000e-06	-1.505264e-06	-4.550422e-10	-1.046577e+01	-3.338334e+01
1.530000e-06	-1.460038e-06	-4.454731e-10	-1.015132e+01	-3.290597e+01
1.540000e-06	-1.414755e-06	-4.378041e-10	-9.836478e+00	-3.241861e+01
1.550000e-06	-1.369383e-06	-4.310495e-10	-9.521010e+00	-3.192092e+01
1.560000e-06	-1.323908e-06	-4.235415e-10	-9.204834e+00	-3.141256e+01
1.570000e-06	-1.278386e-06	-4.167910e-10	-8.888335e+00	-3.089317e+01
1.580000e-06	-1.232808e-06	-4.103430e-10	-8.571436e+00	-3.036240e+01
1.590000e-06	-1.187123e-06	-4.013609e-10	-8.253799e+00	-2.981990e+01
1.600000e-06	-1.141353e-06	-3.920997e-10	-7.935569e+00	-2.926533e+01
1.610000e-06	-1.095503e-06	-3.847272e-10	-7.616785e+00	-2.869833e+01
1.620000e-06	-1.049545e-06	-3.753490e-10	-7.297249e+00	-2.811857e+01
1.630000e-06	-1.003532e-06	-3.638592e-10	-6.977333e+00	-2.752573e+01
1.640000e-06	-9.574719e-07	-3.533204e-10	-6.657087e+00	-2.691949e+01
1.650000e-06	-9.112908e-07	-3.446050e-10	-6.336001e+00	-2.629956e+01
1.660000e-06	-8.650061e-07	-3.359574e-10	-6.014194e+00	-2.566564e+01
1.670000e-06	-8.187730e-07	-3.279999e-10	-5.692745e+00	-2.501748e+01
1.680000e-06	-7.724764e-07	-3.194738e-10	-5.370855e+00	-2.435482e+01
1.690000e-06	-7.260364e-07	-3.086738e-10	-5.047968e+00	-2.367745e+01
1.700000e-06	-6.795159e-07	-2.970436e-10	-4.724522e+00	-2.298518e+01
1.710000e-06	-6.329343e-07	-2.852191e-10	-4.400651e+00	-2.227784e+01
1.720000e-06	-5.863366e-07	-2.721327e-10	-4.076667e+00	-2.155529e+01
1.730000e-06	-5.397370e-07	-2.581939e-10	-3.752670e+00	-2.081744e+01
1.740000e-06	-4.931620e-07	-2.457649e-10	-3.428845e+00	-2.006422e+01
1.750000e-06	-4.465057e-07	-2.350634e-10	-3.104454e+00	-1.929558e+01
1.760000e-06	-3.997286e-07	-2.257419e-10	-2.779223e+00	-1.851156e+01
1.770000e-06	-3.528344e-07	-2.164639e-10	-2.453179e+00	-1.771218e+01
1.780000e-06	-3.059137e-07	-2.053615e-10	-2.126950e+00	-1.689755e+01
1.790000e-06	-2.590985e-07	-1.936430e-10	-1.801454e+00	-1.606778e+01
1.800000e-06	-2.123092e-07	-1.819576e-10	-1.476138e+00	-1.522306e+01
1.810000e-06	-1.654525e-07	-1.685511e-10	-1.150354e+00	-1.436361e+01
1.820000e-06	-1.185868e-07	-1.537767e-10	-8.245075e-01	-1.348969e+01
1.830000e-06	-7.175681e-08	-1.400431e-10	-4.989091e-01	-1.260161e+01
1.840000e-06	-2.496712e-08	-1.277244e-10	-1.735908e-01	-1.169973e+01
1.850000e-06	2.182660e-08	-1.142858e-10	1.517554e-01	-1.078444e+01
1.860000e-06	6.862047e-08	-1.017605e-10	4.771028e-01	-9.856184e+00
1.870000e-06	1.153868e-07	-8.860283e-11	8.022588e-01	-8.915460e+00
1.880000e-06	1.621367e-07	-7.381125e-11	1.127300e+00	-7.962796e+00
1.890000e-06	2.089195e-07	-5.971154e-11	1.452571e+00	-6.998765e+00
1.900000e-06	2.557206e-07	-4.569778e-11	1.777968e+00	-6.023981e+00
1.910000e-06	3.024721e-07	-3.146070e-11	2.103020e+00	-5.039096e+00
1.920000e-06	3.492598e-07	-1.578243e-11	2.428325e+00	-4.044800e+00
1.930000e-06	3.960915e-07	1.352891e-12	2.753936e+00	-3.041817e+00
1.940000e-06	4.428269e-07	1.742696e-11	3.078876e+00	-2.030903e+00
1.950000e-06	4.894583e-07	3.206935e-11	3.403094e+00	-1.012845e+00
1.960000e-06	5.361196e-07	4.573844e-11	3.727519e+00	1.154465e-02
1.970000e-06	5.826905e-07	5.820986e-11	4.051317e+00	1.041428e+00
1.980000e-06	6.291220e-07	7.118135e-11	4.374144e+00	2.075946e+00
1.990000e-06	6.755505e-07	8.309281e-11	4.696951e+00	3.114222e+00
2.000000e-06	7.220039e-07	9.365553e-11	5.019931e+00	4.155367e+00
2.010000e-06	7.683878e-07	1.076067e-10	5.342428e+00	5.198477e+00
2.020000e-06	8.146669e-07	1.224543e-10	5.664196e+00	6.242642e+00
2.030000e-06	8.608783e-07	1.401729e-10	5.985494e+00	7.286949e+00
2.040000e-06	9.071268e-07	1.605009e-10	6.307049e+00	8.330481e+00
2.050000e-06	9.533534e-07	1.765652e-10	6.628452e+00	9.372327e+00
2.060000e-06	9.994172e-07	1.892785e-10	6.948724e+00	1.041158e+01
2.070000e-06	1.045356e-06	1.993459e-10	7.268125e+00	1.144735e+01
2.080000e-06	1.091184e-06	2.096136e-10	7.586756e+00	1.247874e+01
2.090000e-06	1.136962e-06	2.213253e-10	7.905045e+00	1.350489e+01
2.100000e-06	1.182649e-06	2.370100e-10	8.222690e+00	1.452496e+01
2.110000e-06	1.228237e-06	2.540834e-10	8.539660e+00	1.553812e+01
2.120000e-06	1.273725e-06	2.700632e-10	8.855926e+00	1.654357e+01
2.130000e-06	1.319121e-06	2.848224e-10	9.171556e+00	1.754054e+01
2.140000e-06	1.364515e-06	2.980261e-10	9.487165e+00	1.852829e+01
2.150000e-06	1.409812e-06	3.086055e-10	9.802107e+00	1.950612e+01
2.160000e-06	1.455008e-06	3.179568e-10	1.011635e+01	2.047335e+01
2.170000e-06	1.500084e-06	3.293095e-10	1.042975e+01	2.142936e+01
2.180000e-06	1.544972e-06	3.412411e-10	1.074185e+01	2.237353e+01
2.190000e-06	1.589790e-06	3.541660e-10	1.105345e+01	2.330534e+01
2.200000e-06	1.634516e-06	3.688661e-10	1.136443e+01	2.422425e+01
2.210000e-06	1.679076e-06	3.830846e-10	1.167424e+01	2.512980e+01
2.220000e-06	1.723460e-06	3.928371e-10	1.198283e+01	2.602157e+01
2.230000e-06	1.767702e-06	4.008691e-10	1.229044e+01	2.689918e+01
2.240000e-06	1.811876e-06	4.097182e-10	1.259757e+01	2.776228e+01
2.250000e-06	1.855977e-06	4.202091e-10	1.290419e+01	2.861058e+01
2.260000e-06	1.899946e-06	4.337928e-10	1.320990e+01	2.944384e+01
2.270000e-06	1.943799e-06	4.478678e-10	1.351480e+01	3.026184e+01
2.280000e-06	1.987597e-06	4.585025e-10	1.381932e+01	3.106443e+01
2.290000e-06	2.031341e-06	4.675558e-10	1.412346e+01	3.185147e+01
2.300000e-06	2.075021e-06	4.768237e-10	1.442715e+01	3.262289e+01
2.310000e-06	2.118622e-06	4.850187e-10	1.473031e+01	3.337864e+01
2.320000e-06	2.162164e-06	4.948832e-10	1.503304e+01	3.411873e+01
2.330000e-06	2.205614e-06	5.088356e-10	1.533514e+01	3.484317e+01
2.340000e-06	2.248933e-06	5.236376e-10	1.563633e+01	3.555203e+01
2.350000e-06	2.292101e-06	5.350933e-10	1.593646e+01	3.624541e+01
2.360000e-06	2.335130e-06	5.435557e-10	1.623564e+01	3.692343e+01
2.370000e-06	2.377923e-06	5.498903e-10	1.653316e+01	3.758625e+01
2.380000e-06	2.420381e-06	5.556476e-10	1.682836e+01	3.823404e+01
2.390000e-06	2.462554e-06	5.637005e-10	1.712159e+01	3.886702e+01
2.400000e-06	2.504370e-06	5.737896e-10	1.741233e+01	3.948539e+01
2.410000e-06	2.545947e-06	5.851042e-10	1.770140e+01	4.008940e+01
2.420000e-06	2.587290e-06	5.963029e-10	1.798885e+01	4.067931e+01
2.430000e-06	2.628251e-06	6.065160e-10	1.827364e+01	4.125539e+01
2.440000e-06	2.668893e-06	6.142706e-10	1.855621e+01	4.181792e+01
2.450000e-06	2.709274e-06	6.179552e-10	1.883698e+01	4.236719e+01
2.460000e-06	2.749423e-06	6.223513e-10	1.911613e+01	4.290350e+01
2.470000e-06	2.789384e-06	6.292729e-10	1.939396e+01	4.342715e+01
2.480000e-06	2.829215e-06	6.367198e-10	1.967090e+01	4.393845e+01
2.490000e-06	2.868946e-06	6.432339e-10	1.994714e+01	4.443770e+01
2.500000e-06	2.908533e-06	6.503060e-10	2.022238e+01	4.492521e+01
2.510000e-06	2.948011e-06	6.583665e-10	2.049686e+01	4.540128e+01
2.520000e-06	2.987325e-06	6.659720e-10	2.077020e+01	4.586621e+01
2.530000e-06	3.026393e-06	6.740136e-10	2.104183e+01	4.632029e+01
2.540000e-06	3.065320e-06	6.832874e-10	2.131248e+01	4.676381e+01
2.550000e-06	3.104084e-06	6.906833e-10	2.158200e+01	4.719704e+01
2.560000e-06	3.142557e-06	6.944427e-10	2.184949e+01	4.762025e+01
2.570000e-06	3.180764e-06	6.982648e-10	2.211514e+01	4.803370e+01
2.580000e-06	3.218824e-06	7.058691e-10	2.237976e+01	4.843764e+01
2.590000e-06	3.256669e-06	7.157241e-10	2.264289e+01	4.883229e+01
2.600000e-06	3.294271e-06	7.235391e-10	2.290433e+01	4.921790e+01
2.610000e-06	3.331655e-06	7.288488e-10	2.316425e+01	4.959466e+01
2.620000e-06	3.368805e-06	7.333395e-10	2.342255e+01	4.996278e+01
2.630000e-06	3.405697e-06	7.374590e-10	2.367905e+01	5.032245e+01
2.640000e-06	3.442307e-06	7.402649e-10	2.393359e+01	5.067384e+01
2.650000e-06	3.478636e-06	7.448182e-10	2.418618e+01	5.101712e+01
2.660000e-06	3.514731e-06	7.527180e-10	2.443714e+01	5.135244e+01
2.670000e-06	3.550679e-06	7.595612e-10	2.468707e+01	5.167994e+01
2.680000e-06	3.586458e-06	7.631037e-10	2.493584e+01	5.199976e+01
2.690000e-06	3.622029e-06	7.642004e-10	2.518316e+01	5.231202e+01
2.700000e-06	3.657441e-06	7.624450e-10	2.542937e+01	5.261682e+01
2.710000e-06	3.692710e-06	7.619257e-10	2.567458e+01	5.291428e+01
2.720000e-06	3.727895e-06	7.666967e-10	2.591922e+01	5.320449e+01
2.730000e-06	3.762811e-06	7.742399e-10	2.616198e+01	5.348753e+01
2.740000e-06	3.797244e-06	7.822132e-10	2.640138e+01	5.376350e+01
2.750000e-06	3.831218e-06	7.880763e-10	2.663760e+01	5.403247e+01
2.760000e-06	3.864734e-06	7.903848e-10	2.687063e+01	5.429451e+01
2.770000e-06	3.897824e-06	7.896731e-10	2.710070e+01	5.454969e+01
2.780000e-06	3.930522e-06	7.873378e-10	2.732804e+01	5.479807e+01
2.790000e-06	3.962838e-06	7.871901e-10	2.755272e+01	5.503973e+01
2.800000e-06	3.994834e-06	7.898055e-10	2.777519e+01	5.527473e+01
2.810000e-06	4.026656e-06	7.946634e-10	2.799644e+01	5.550312e+01
2.820000e-06	4.058327e-06	8.007504e-10	2.821664e+01	5.572497e+01
2.830000e-06	4.089836e-06	8.063771e-10	2.843571e+01	5.594034e+01
2.840000e-06	4.121099e-06	8.097888e-10	2.865308e+01	5.614930e+01
2.850000e-06	4.152026e-06	8.104861e-10	2.886811e+01	5.635191e+01
2.860000e-06	4.182664e-06	8.103010e-10	2.908112e+01	5.654823e+01
2.870000e-06	4.213057e-06	8.098938e-10	2.929244e+01	5.673835e+01
2.880000e-06	4.243196e-06	8.099272e-10	2.950199e+01	5.692233e+01
2.890000e-06	4.273036e-06	8.114422e-10	2.970947e+01	5.710024e+01
2.900000e-06	4.302564e-06	8.135888e-10	2.991476e+01	5.727218e+01
