# Temperatura_=_-0.3
# Concentracion g/m^3_=_1620.0
# C_Vs_to_Am_M_A/Vsm_=_65563218390.804596
# pendiente_HvsI_1/m_=_3716.3
# ordenada_HvsI_A/m_=_1297.0
# frecuencia_Hz_=_135095.14765347066

Tiempo_(s)	Campo_(V.s)	Magnetizacion_(V.s)	Campo_(kA/m)	Magnetizacion_(A/m)
0.000000e+00	-5.507431e-06	-1.718806e-09	-3.838192e+01	-1.097266e+02
1.000000e-08	-5.507538e-06	-1.716668e-09	-3.838267e+01	-1.096865e+02
2.000000e-08	-5.507392e-06	-1.716094e-09	-3.838164e+01	-1.096433e+02
3.000000e-08	-5.506893e-06	-1.717031e-09	-3.837817e+01	-1.095971e+02
4.000000e-08	-5.505829e-06	-1.717852e-09	-3.837076e+01	-1.095478e+02
5.000000e-08	-5.504087e-06	-1.717339e-09	-3.835861e+01	-1.094956e+02
6.000000e-08	-5.501759e-06	-1.714211e-09	-3.834239e+01	-1.094404e+02
7.000000e-08	-5.498878e-06	-1.711760e-09	-3.832231e+01	-1.093822e+02
8.000000e-08	-5.495528e-06	-1.716649e-09	-3.829896e+01	-1.093209e+02
9.000000e-08	-5.491790e-06	-1.734310e-09	-3.827291e+01	-1.092567e+02
1.000000e-07	-5.487599e-06	-1.751148e-09	-3.824370e+01	-1.091893e+02
1.100000e-07	-5.483113e-06	-1.727964e-09	-3.821244e+01	-1.091188e+02
1.200000e-07	-5.478499e-06	-1.683577e-09	-3.818028e+01	-1.090451e+02
1.300000e-07	-5.473620e-06	-1.689296e-09	-3.814629e+01	-1.089682e+02
1.400000e-07	-5.468261e-06	-1.714591e-09	-3.810894e+01	-1.088880e+02
1.500000e-07	-5.462483e-06	-1.716851e-09	-3.806867e+01	-1.088043e+02
1.600000e-07	-5.456423e-06	-1.688492e-09	-3.802644e+01	-1.087172e+02
1.700000e-07	-5.449965e-06	-1.703578e-09	-3.798143e+01	-1.086264e+02
1.800000e-07	-5.443012e-06	-1.723623e-09	-3.793297e+01	-1.085320e+02
1.900000e-07	-5.435769e-06	-1.694023e-09	-3.788249e+01	-1.084338e+02
2.000000e-07	-5.428308e-06	-1.643733e-09	-3.783050e+01	-1.083317e+02
2.100000e-07	-5.420584e-06	-1.634413e-09	-3.777667e+01	-1.082256e+02
2.200000e-07	-5.412548e-06	-1.653759e-09	-3.772067e+01	-1.081154e+02
2.300000e-07	-5.404081e-06	-1.653200e-09	-3.766166e+01	-1.080010e+02
2.400000e-07	-5.395092e-06	-1.634620e-09	-3.759901e+01	-1.078823e+02
2.500000e-07	-5.385341e-06	-1.621528e-09	-3.753106e+01	-1.077592e+02
2.600000e-07	-5.374873e-06	-1.629594e-09	-3.745811e+01	-1.076315e+02
2.700000e-07	-5.363863e-06	-1.622564e-09	-3.738137e+01	-1.074992e+02
2.800000e-07	-5.352435e-06	-1.603883e-09	-3.730173e+01	-1.073622e+02
2.900000e-07	-5.340639e-06	-1.586979e-09	-3.721952e+01	-1.072204e+02
3.000000e-07	-5.328574e-06	-1.601491e-09	-3.713544e+01	-1.070736e+02
3.100000e-07	-5.316167e-06	-1.609474e-09	-3.704898e+01	-1.069219e+02
3.200000e-07	-5.303171e-06	-1.599109e-09	-3.695841e+01	-1.067651e+02
3.300000e-07	-5.289768e-06	-1.579871e-09	-3.686499e+01	-1.066033e+02
3.400000e-07	-5.276117e-06	-1.584068e-09	-3.676986e+01	-1.064362e+02
3.500000e-07	-5.262096e-06	-1.586601e-09	-3.667215e+01	-1.062639e+02
3.600000e-07	-5.247503e-06	-1.573664e-09	-3.657045e+01	-1.060863e+02
3.700000e-07	-5.232421e-06	-1.560336e-09	-3.646534e+01	-1.059034e+02
3.800000e-07	-5.216951e-06	-1.573356e-09	-3.635753e+01	-1.057152e+02
3.900000e-07	-5.201013e-06	-1.574321e-09	-3.624646e+01	-1.055216e+02
4.000000e-07	-5.184592e-06	-1.559668e-09	-3.613201e+01	-1.053227e+02
4.100000e-07	-5.167760e-06	-1.561557e-09	-3.601471e+01	-1.051184e+02
4.200000e-07	-5.150628e-06	-1.564520e-09	-3.589532e+01	-1.049087e+02
4.300000e-07	-5.133217e-06	-1.540727e-09	-3.577398e+01	-1.046936e+02
4.400000e-07	-5.115372e-06	-1.532397e-09	-3.564961e+01	-1.044732e+02
4.500000e-07	-5.097131e-06	-1.552421e-09	-3.552249e+01	-1.042475e+02
4.600000e-07	-5.078513e-06	-1.544469e-09	-3.539274e+01	-1.040164e+02
4.700000e-07	-5.059487e-06	-1.522860e-09	-3.526014e+01	-1.037801e+02
4.800000e-07	-5.040181e-06	-1.532551e-09	-3.512560e+01	-1.035386e+02
4.900000e-07	-5.020595e-06	-1.541150e-09	-3.498910e+01	-1.032918e+02
5.000000e-07	-5.000829e-06	-1.515248e-09	-3.485135e+01	-1.030399e+02
5.100000e-07	-4.980911e-06	-1.510462e-09	-3.471254e+01	-1.027829e+02
5.200000e-07	-4.960719e-06	-1.519673e-09	-3.457182e+01	-1.025209e+02
5.300000e-07	-4.940058e-06	-1.502258e-09	-3.442783e+01	-1.022538e+02
5.400000e-07	-4.918939e-06	-1.490690e-09	-3.428065e+01	-1.019817e+02
5.500000e-07	-4.897496e-06	-1.510614e-09	-3.413121e+01	-1.017047e+02
5.600000e-07	-4.875733e-06	-1.502118e-09	-3.397954e+01	-1.014228e+02
5.700000e-07	-4.853709e-06	-1.479884e-09	-3.382606e+01	-1.011361e+02
5.800000e-07	-4.831295e-06	-1.487055e-09	-3.366985e+01	-1.008445e+02
5.900000e-07	-4.808470e-06	-1.489453e-09	-3.351078e+01	-1.005482e+02
6.000000e-07	-4.785353e-06	-1.467519e-09	-3.334968e+01	-1.002471e+02
6.100000e-07	-4.761927e-06	-1.471449e-09	-3.318641e+01	-9.994129e+01
6.200000e-07	-4.738289e-06	-1.479861e-09	-3.302168e+01	-9.963075e+01
6.300000e-07	-4.714516e-06	-1.462179e-09	-3.285600e+01	-9.931552e+01
6.400000e-07	-4.690456e-06	-1.449394e-09	-3.268833e+01	-9.899559e+01
6.500000e-07	-4.665987e-06	-1.453198e-09	-3.251780e+01	-9.867097e+01
6.600000e-07	-4.641059e-06	-1.441610e-09	-3.234407e+01	-9.834166e+01
6.700000e-07	-4.615585e-06	-1.432119e-09	-3.216654e+01	-9.800765e+01
6.800000e-07	-4.589547e-06	-1.438395e-09	-3.198507e+01	-9.766891e+01
6.900000e-07	-4.562996e-06	-1.435206e-09	-3.180004e+01	-9.732544e+01
7.000000e-07	-4.536019e-06	-1.419018e-09	-3.161203e+01	-9.697719e+01
7.100000e-07	-4.508734e-06	-1.412972e-09	-3.142188e+01	-9.662413e+01
7.200000e-07	-4.481250e-06	-1.408129e-09	-3.123034e+01	-9.626624e+01
7.300000e-07	-4.453601e-06	-1.395424e-09	-3.103766e+01	-9.590345e+01
7.400000e-07	-4.425779e-06	-1.391654e-09	-3.084376e+01	-9.553573e+01
7.500000e-07	-4.397727e-06	-1.394616e-09	-3.064826e+01	-9.516302e+01
7.600000e-07	-4.369451e-06	-1.389505e-09	-3.045120e+01	-9.478526e+01
7.700000e-07	-4.340815e-06	-1.378457e-09	-3.025164e+01	-9.440240e+01
7.800000e-07	-4.311758e-06	-1.371466e-09	-3.004913e+01	-9.401438e+01
7.900000e-07	-4.282414e-06	-1.360232e-09	-2.984463e+01	-9.362114e+01
8.000000e-07	-4.252777e-06	-1.347265e-09	-2.963809e+01	-9.322261e+01
8.100000e-07	-4.222861e-06	-1.338774e-09	-2.942960e+01	-9.281873e+01
8.200000e-07	-4.192720e-06	-1.332212e-09	-2.921954e+01	-9.240944e+01
8.300000e-07	-4.162251e-06	-1.323075e-09	-2.900721e+01	-9.199468e+01
8.400000e-07	-4.131479e-06	-1.320195e-09	-2.879275e+01	-9.157439e+01
8.500000e-07	-4.100467e-06	-1.317161e-09	-2.857662e+01	-9.114853e+01
8.600000e-07	-4.069141e-06	-1.307604e-09	-2.835831e+01	-9.071703e+01
8.700000e-07	-4.037568e-06	-1.298148e-09	-2.813827e+01	-9.027986e+01
8.800000e-07	-4.005845e-06	-1.293817e-09	-2.791719e+01	-8.983698e+01
8.900000e-07	-3.974002e-06	-1.283518e-09	-2.769527e+01	-8.938834e+01
9.000000e-07	-3.941965e-06	-1.271483e-09	-2.747201e+01	-8.893393e+01
9.100000e-07	-3.909563e-06	-1.262781e-09	-2.724619e+01	-8.847373e+01
9.200000e-07	-3.876697e-06	-1.253756e-09	-2.701715e+01	-8.800772e+01
9.300000e-07	-3.843502e-06	-1.244465e-09	-2.678580e+01	-8.753590e+01
9.400000e-07	-3.809832e-06	-1.239273e-09	-2.655115e+01	-8.705827e+01
9.500000e-07	-3.775616e-06	-1.231444e-09	-2.631270e+01	-8.657485e+01
9.600000e-07	-3.740943e-06	-1.218130e-09	-2.607106e+01	-8.608566e+01
9.700000e-07	-3.705814e-06	-1.208659e-09	-2.582624e+01	-8.559073e+01
9.800000e-07	-3.670414e-06	-1.200739e-09	-2.557954e+01	-8.509011e+01
9.900000e-07	-3.634879e-06	-1.194920e-09	-2.533189e+01	-8.458383e+01
1.000000e-06	-3.599252e-06	-1.192330e-09	-2.508360e+01	-8.407197e+01
1.010000e-06	-3.563544e-06	-1.191661e-09	-2.483475e+01	-8.355459e+01
1.020000e-06	-3.527732e-06	-1.183973e-09	-2.458517e+01	-8.303175e+01
1.030000e-06	-3.491741e-06	-1.170069e-09	-2.433435e+01	-8.250356e+01
1.040000e-06	-3.455566e-06	-1.159851e-09	-2.408223e+01	-8.197009e+01
1.050000e-06	-3.419144e-06	-1.151166e-09	-2.382841e+01	-8.143144e+01
1.060000e-06	-3.382405e-06	-1.144647e-09	-2.357237e+01	-8.088771e+01
1.070000e-06	-3.345351e-06	-1.139985e-09	-2.331413e+01	-8.033902e+01
1.080000e-06	-3.308027e-06	-1.133390e-09	-2.305402e+01	-7.978546e+01
1.090000e-06	-3.270478e-06	-1.122419e-09	-2.279233e+01	-7.922716e+01
1.100000e-06	-3.232669e-06	-1.110201e-09	-2.252884e+01	-7.866423e+01
1.110000e-06	-3.194592e-06	-1.102660e-09	-2.226348e+01	-7.809678e+01
1.120000e-06	-3.156391e-06	-1.093698e-09	-2.199725e+01	-7.752493e+01
1.130000e-06	-3.117977e-06	-1.085646e-09	-2.172954e+01	-7.694879e+01
1.140000e-06	-3.079370e-06	-1.077371e-09	-2.146048e+01	-7.636846e+01
1.150000e-06	-3.040631e-06	-1.067581e-09	-2.119051e+01	-7.578406e+01
1.160000e-06	-3.001630e-06	-1.056656e-09	-2.091870e+01	-7.519567e+01
1.170000e-06	-2.962474e-06	-1.045957e-09	-2.064582e+01	-7.460339e+01
1.180000e-06	-2.923167e-06	-1.040152e-09	-2.037188e+01	-7.400729e+01
1.190000e-06	-2.883670e-06	-1.034413e-09	-2.009662e+01	-7.340744e+01
1.200000e-06	-2.844011e-06	-1.028463e-09	-1.982024e+01	-7.280389e+01
1.210000e-06	-2.804232e-06	-1.018954e-09	-1.954301e+01	-7.219669e+01
1.220000e-06	-2.764354e-06	-1.003944e-09	-1.926510e+01	-7.158585e+01
1.230000e-06	-2.724315e-06	-9.876673e-10	-1.898606e+01	-7.097139e+01
1.240000e-06	-2.684128e-06	-9.730571e-10	-1.870599e+01	-7.035329e+01
1.250000e-06	-2.643697e-06	-9.610375e-10	-1.842423e+01	-6.973152e+01
1.260000e-06	-2.602942e-06	-9.557475e-10	-1.814020e+01	-6.910602e+01
1.270000e-06	-2.562011e-06	-9.536347e-10	-1.785495e+01	-6.847671e+01
1.280000e-06	-2.520715e-06	-9.503480e-10	-1.756715e+01	-6.784350e+01
1.290000e-06	-2.478937e-06	-9.403403e-10	-1.727599e+01	-6.720625e+01
1.300000e-06	-2.436925e-06	-9.239506e-10	-1.698321e+01	-6.656482e+01
1.310000e-06	-2.394728e-06	-9.064331e-10	-1.668913e+01	-6.591901e+01
1.320000e-06	-2.352252e-06	-8.894631e-10	-1.639311e+01	-6.526862e+01
1.330000e-06	-2.309475e-06	-8.761979e-10	-1.609500e+01	-6.461342e+01
1.340000e-06	-2.266392e-06	-8.696173e-10	-1.579475e+01	-6.395314e+01
1.350000e-06	-2.223114e-06	-8.677822e-10	-1.549314e+01	-6.328747e+01
1.360000e-06	-2.179755e-06	-8.639977e-10	-1.519096e+01	-6.261611e+01
1.370000e-06	-2.136258e-06	-8.566700e-10	-1.488783e+01	-6.193868e+01
1.380000e-06	-2.092628e-06	-8.431096e-10	-1.458376e+01	-6.125481e+01
1.390000e-06	-2.048977e-06	-8.241669e-10	-1.427956e+01	-6.056409e+01
1.400000e-06	-2.005325e-06	-8.054519e-10	-1.397534e+01	-5.986607e+01
1.410000e-06	-1.961603e-06	-7.906887e-10	-1.367063e+01	-5.916028e+01
1.420000e-06	-1.917789e-06	-7.815832e-10	-1.336529e+01	-5.844624e+01
1.430000e-06	-1.873854e-06	-7.758297e-10	-1.305910e+01	-5.772341e+01
1.440000e-06	-1.829795e-06	-7.725670e-10	-1.275205e+01	-5.699127e+01
1.450000e-06	-1.785632e-06	-7.662785e-10	-1.244427e+01	-5.624924e+01
1.460000e-06	-1.741380e-06	-7.529123e-10	-1.213588e+01	-5.549673e+01
1.470000e-06	-1.697101e-06	-7.371280e-10	-1.182729e+01	-5.473314e+01
1.480000e-06	-1.652644e-06	-7.202476e-10	-1.151746e+01	-5.395784e+01
1.490000e-06	-1.608007e-06	-7.049231e-10	-1.120639e+01	-5.317021e+01
1.500000e-06	-1.563301e-06	-6.939600e-10	-1.089483e+01	-5.236960e+01
1.510000e-06	-1.518428e-06	-6.849273e-10	-1.058210e+01	-5.155534e+01
1.520000e-06	-1.473386e-06	-6.756663e-10	-1.026820e+01	-5.072677e+01
1.530000e-06	-1.428211e-06	-6.658880e-10	-9.953363e+00	-4.988324e+01
1.540000e-06	-1.382948e-06	-6.551369e-10	-9.637924e+00	-4.902407e+01
1.550000e-06	-1.337561e-06	-6.407801e-10	-9.321618e+00	-4.814861e+01
1.560000e-06	-1.292061e-06	-6.251633e-10	-9.004519e+00	-4.725619e+01
1.570000e-06	-1.246558e-06	-6.098880e-10	-8.687403e+00	-4.634617e+01
1.580000e-06	-1.200999e-06	-5.923761e-10	-8.369899e+00	-4.541792e+01
1.590000e-06	-1.155358e-06	-5.746374e-10	-8.051820e+00	-4.447082e+01
1.600000e-06	-1.109655e-06	-5.607471e-10	-7.733314e+00	-4.350428e+01
1.610000e-06	-1.063880e-06	-5.492403e-10	-7.414304e+00	-4.251773e+01
1.620000e-06	-1.018014e-06	-5.339566e-10	-7.094653e+00	-4.151063e+01
1.630000e-06	-9.720409e-07	-5.177328e-10	-6.774264e+00	-4.048246e+01
1.640000e-06	-9.259846e-07	-5.019419e-10	-6.453293e+00	-3.943275e+01
1.650000e-06	-8.798284e-07	-4.824457e-10	-6.131625e+00	-3.836107e+01
1.660000e-06	-8.336211e-07	-4.624528e-10	-5.809601e+00	-3.726702e+01
1.670000e-06	-7.873951e-07	-4.465869e-10	-5.487446e+00	-3.615025e+01
1.680000e-06	-7.411144e-07	-4.337238e-10	-5.164911e+00	-3.501045e+01
1.690000e-06	-6.947826e-07	-4.203286e-10	-4.842019e+00	-3.384739e+01
1.700000e-06	-6.483140e-07	-4.043902e-10	-4.518174e+00	-3.266085e+01
1.710000e-06	-6.018305e-07	-3.858524e-10	-4.194225e+00	-3.145072e+01
1.720000e-06	-5.553862e-07	-3.653997e-10	-3.870550e+00	-3.021690e+01
1.730000e-06	-5.087486e-07	-3.439975e-10	-3.545527e+00	-2.895938e+01
1.740000e-06	-4.620492e-07	-3.228060e-10	-3.220074e+00	-2.767822e+01
1.750000e-06	-4.153632e-07	-3.026795e-10	-2.894714e+00	-2.637351e+01
1.760000e-06	-3.686992e-07	-2.865508e-10	-2.569507e+00	-2.504544e+01
1.770000e-06	-3.221020e-07	-2.721979e-10	-2.244766e+00	-2.369426e+01
1.780000e-06	-2.753682e-07	-2.553264e-10	-1.919072e+00	-2.232029e+01
1.790000e-06	-2.285217e-07	-2.387217e-10	-1.592594e+00	-2.092390e+01
1.800000e-06	-1.817724e-07	-2.220267e-10	-1.266792e+00	-1.950556e+01
1.810000e-06	-1.351174e-07	-2.011946e-10	-9.416485e-01	-1.806579e+01
1.820000e-06	-8.847792e-08	-1.769819e-10	-6.166128e-01	-1.660517e+01
1.830000e-06	-4.184470e-08	-1.530126e-10	-2.916205e-01	-1.512439e+01
1.840000e-06	4.799213e-09	-1.320151e-10	3.344626e-02	-1.362415e+01
1.850000e-06	5.152263e-08	-1.136701e-10	3.590671e-01	-1.210525e+01
1.860000e-06	9.831190e-08	-9.401963e-11	6.851469e-01	-1.056856e+01
1.870000e-06	1.450395e-07	-7.471857e-11	1.010797e+00	-9.014990e+00
1.880000e-06	1.917103e-07	-5.513589e-11	1.336051e+00	-7.445513e+00
1.890000e-06	2.383847e-07	-3.518836e-11	1.661330e+00	-5.861165e+00
1.900000e-06	2.850921e-07	-1.365767e-11	1.986840e+00	-4.263031e+00
1.910000e-06	3.317507e-07	1.143278e-11	2.312009e+00	-2.652245e+00
1.920000e-06	3.783309e-07	3.967835e-11	2.636631e+00	-1.029987e+00
1.930000e-06	4.249003e-07	6.568592e-11	2.961179e+00	6.025205e-01
1.940000e-06	4.714871e-07	8.919652e-11	3.285847e+00	2.244019e+00
1.950000e-06	5.180380e-07	1.125427e-10	3.610266e+00	3.893217e+00
1.960000e-06	5.644527e-07	1.321049e-10	3.933735e+00	5.548793e+00
1.970000e-06	6.108075e-07	1.505521e-10	4.256787e+00	7.209404e+00
1.980000e-06	6.571011e-07	1.714069e-10	4.579413e+00	8.873688e+00
1.990000e-06	7.033849e-07	1.950869e-10	4.901970e+00	1.054027e+01
2.000000e-06	7.495868e-07	2.226553e-10	5.223956e+00	1.220776e+01
2.010000e-06	7.956368e-07	2.497500e-10	5.544884e+00	1.387477e+01
2.020000e-06	8.417092e-07	2.753174e-10	5.865968e+00	1.553993e+01
2.030000e-06	8.877579e-07	3.021882e-10	6.186886e+00	1.720184e+01
2.040000e-06	9.337423e-07	3.257190e-10	6.507357e+00	1.885914e+01
2.050000e-06	9.796760e-07	3.465834e-10	6.827474e+00	2.051048e+01
2.060000e-06	1.025493e-06	3.650980e-10	7.146779e+00	2.215454e+01
2.070000e-06	1.071224e-06	3.851061e-10	7.465483e+00	2.379001e+01
2.080000e-06	1.116926e-06	4.078918e-10	7.783983e+00	2.541562e+01
2.090000e-06	1.162638e-06	4.338859e-10	8.102558e+00	2.703014e+01
2.100000e-06	1.208284e-06	4.596455e-10	8.420669e+00	2.863239e+01
2.110000e-06	1.253797e-06	4.831520e-10	8.737854e+00	3.022120e+01
2.120000e-06	1.299269e-06	5.036725e-10	9.054754e+00	3.179548e+01
2.130000e-06	1.344616e-06	5.220233e-10	9.370782e+00	3.335419e+01
2.140000e-06	1.389876e-06	5.398025e-10	9.686206e+00	3.489632e+01
2.150000e-06	1.435034e-06	5.589785e-10	1.000091e+01	3.642095e+01
2.160000e-06	1.480037e-06	5.804293e-10	1.031455e+01	3.792720e+01
2.170000e-06	1.524943e-06	6.011841e-10	1.062750e+01	3.941426e+01
2.180000e-06	1.569703e-06	6.241177e-10	1.093944e+01	4.088138e+01
2.190000e-06	1.614369e-06	6.471864e-10	1.125072e+01	4.232789e+01
2.200000e-06	1.658907e-06	6.704350e-10	1.156111e+01	4.375316e+01
2.210000e-06	1.703251e-06	6.879164e-10	1.187015e+01	4.515665e+01
2.220000e-06	1.747456e-06	6.993090e-10	1.217822e+01	4.653789e+01
2.230000e-06	1.791566e-06	7.134885e-10	1.248563e+01	4.789646e+01
2.240000e-06	1.835545e-06	7.311295e-10	1.279212e+01	4.923202e+01
2.250000e-06	1.879440e-06	7.531034e-10	1.309803e+01	5.054431e+01
2.260000e-06	1.923281e-06	7.756160e-10	1.340356e+01	5.183311e+01
2.270000e-06	1.967018e-06	7.958011e-10	1.370838e+01	5.309827e+01
2.280000e-06	2.010664e-06	8.117818e-10	1.401255e+01	5.433973e+01
2.290000e-06	2.054288e-06	8.241757e-10	1.431656e+01	5.555745e+01
2.300000e-06	2.097878e-06	8.333831e-10	1.462035e+01	5.675148e+01
2.310000e-06	2.141409e-06	8.447980e-10	1.492372e+01	5.792192e+01
2.320000e-06	2.184892e-06	8.636245e-10	1.522676e+01	5.906891e+01
2.330000e-06	2.228300e-06	8.861213e-10	1.552928e+01	6.019265e+01
2.340000e-06	2.271538e-06	9.069687e-10	1.583061e+01	6.129339e+01
2.350000e-06	2.314574e-06	9.227092e-10	1.613053e+01	6.237141e+01
2.360000e-06	2.357483e-06	9.346217e-10	1.642957e+01	6.342705e+01
2.370000e-06	2.400043e-06	9.439677e-10	1.672617e+01	6.446067e+01
2.380000e-06	2.442123e-06	9.540522e-10	1.701943e+01	6.547267e+01
2.390000e-06	2.483933e-06	9.676662e-10	1.731081e+01	6.646347e+01
2.400000e-06	2.525389e-06	9.822963e-10	1.759973e+01	6.743353e+01
2.410000e-06	2.566456e-06	9.974119e-10	1.788593e+01	6.838332e+01
2.420000e-06	2.607328e-06	1.012935e-09	1.817076e+01	6.931332e+01
2.430000e-06	2.647894e-06	1.026679e-09	1.845348e+01	7.022404e+01
2.440000e-06	2.688182e-06	1.036246e-09	1.873425e+01	7.111599e+01
2.450000e-06	2.728408e-06	1.044070e-09	1.901459e+01	7.198970e+01
2.460000e-06	2.768472e-06	1.051494e-09	1.929380e+01	7.284567e+01
2.470000e-06	2.808317e-06	1.059142e-09	1.957148e+01	7.368443e+01
2.480000e-06	2.848030e-06	1.070634e-09	1.984825e+01	7.450650e+01
2.490000e-06	2.887613e-06	1.081684e-09	2.012411e+01	7.531238e+01
2.500000e-06	2.927071e-06	1.092567e-09	2.039910e+01	7.610259e+01
2.510000e-06	2.966435e-06	1.105722e-09	2.067342e+01	7.687760e+01
2.520000e-06	3.005658e-06	1.119219e-09	2.094677e+01	7.763789e+01
2.530000e-06	3.044647e-06	1.130933e-09	2.121849e+01	7.838391e+01
2.540000e-06	3.083360e-06	1.142196e-09	2.148829e+01	7.911612e+01
2.550000e-06	3.121804e-06	1.152393e-09	2.175621e+01	7.983493e+01
2.560000e-06	3.160015e-06	1.159503e-09	2.202250e+01	8.054074e+01
2.570000e-06	3.198055e-06	1.166552e-09	2.228761e+01	8.123393e+01
2.580000e-06	3.235881e-06	1.177613e-09	2.255122e+01	8.191486e+01
2.590000e-06	3.273511e-06	1.189793e-09	2.281347e+01	8.258385e+01
2.600000e-06	3.310944e-06	1.199235e-09	2.307435e+01	8.324122e+01
2.610000e-06	3.348177e-06	1.207086e-09	2.333383e+01	8.388726e+01
2.620000e-06	3.385151e-06	1.215869e-09	2.359150e+01	8.452223e+01
2.630000e-06	3.421810e-06	1.223607e-09	2.384698e+01	8.514636e+01
2.640000e-06	3.458210e-06	1.230962e-09	2.410066e+01	8.575989e+01
2.650000e-06	3.494335e-06	1.240269e-09	2.435242e+01	8.636300e+01
2.660000e-06	3.530269e-06	1.250473e-09	2.460285e+01	8.695588e+01
2.670000e-06	3.565995e-06	1.260892e-09	2.485183e+01	8.753869e+01
2.680000e-06	3.601578e-06	1.269947e-09	2.509981e+01	8.811156e+01
2.690000e-06	3.637125e-06	1.276022e-09	2.534754e+01	8.867462e+01
2.700000e-06	3.672566e-06	1.281690e-09	2.559453e+01	8.922799e+01
2.710000e-06	3.707815e-06	1.289607e-09	2.584019e+01	8.977175e+01
2.720000e-06	3.742787e-06	1.297144e-09	2.608391e+01	9.030601e+01
2.730000e-06	3.777317e-06	1.305593e-09	2.632455e+01	9.083082e+01
2.740000e-06	3.811305e-06	1.314824e-09	2.656142e+01	9.134626e+01
2.750000e-06	3.844900e-06	1.322596e-09	2.679555e+01	9.185240e+01
2.760000e-06	3.878122e-06	1.329005e-09	2.702707e+01	9.234928e+01
2.770000e-06	3.910848e-06	1.334360e-09	2.725515e+01	9.283697e+01
2.780000e-06	3.943165e-06	1.340112e-09	2.748037e+01	9.331551e+01
2.790000e-06	3.975190e-06	1.345267e-09	2.770356e+01	9.378496e+01
2.800000e-06	4.007026e-06	1.349862e-09	2.792542e+01	9.424536e+01
2.810000e-06	4.038747e-06	1.354905e-09	2.814649e+01	9.469678e+01
2.820000e-06	4.070291e-06	1.361040e-09	2.836633e+01	9.513927e+01
2.830000e-06	4.101651e-06	1.369197e-09	2.858487e+01	9.557289e+01
2.840000e-06	4.132760e-06	1.376785e-09	2.880168e+01	9.599772e+01
2.850000e-06	4.163546e-06	1.382729e-09	2.901623e+01	9.641384e+01
2.860000e-06	4.193977e-06	1.387324e-09	2.922831e+01	9.682131e+01
2.870000e-06	4.224065e-06	1.391260e-09	2.943799e+01	9.722024e+01
2.880000e-06	4.253927e-06	1.394234e-09	2.964610e+01	9.761072e+01
2.890000e-06	4.283535e-06	1.396282e-09	2.985244e+01	9.799286e+01
2.900000e-06	4.312857e-06	1.401493e-09	3.005679e+01	9.836677e+01
2.910000e-06	4.341877e-06	1.409034e-09	3.025904e+01	9.873257e+01
