# Temperatura_=_-0.5
# Concentracion g/m^3_=_1620.0
# C_Vs_to_Am_M_A/Vsm_=_65563218390.804596
# pendiente_HvsI_1/m_=_3716.3
# ordenada_HvsI_A/m_=_1297.0
# frecuencia_Hz_=_135095.91972648437

Tiempo_(s)	Campo_(V.s)	Magnetizacion_(V.s)	Campo_(kA/m)	Magnetizacion_(A/m)
0.000000e+00	-5.521661e-06	-1.382056e-09	-3.838086e+01	-9.028159e+01
1.000000e-08	-5.521723e-06	-1.380460e-09	-3.838129e+01	-9.027843e+01
2.000000e-08	-5.521417e-06	-1.381005e-09	-3.837916e+01	-9.027328e+01
3.000000e-08	-5.520747e-06	-1.382655e-09	-3.837450e+01	-9.026590e+01
4.000000e-08	-5.519568e-06	-1.381319e-09	-3.836631e+01	-9.025603e+01
5.000000e-08	-5.517865e-06	-1.380256e-09	-3.835447e+01	-9.024341e+01
6.000000e-08	-5.515548e-06	-1.388819e-09	-3.833837e+01	-9.022779e+01
7.000000e-08	-5.512670e-06	-1.422298e-09	-3.831836e+01	-9.020891e+01
8.000000e-08	-5.509290e-06	-1.418724e-09	-3.829487e+01	-9.018651e+01
9.000000e-08	-5.505360e-06	-1.322780e-09	-3.826755e+01	-9.016036e+01
1.000000e-07	-5.501153e-06	-1.296012e-09	-3.823831e+01	-9.013020e+01
1.100000e-07	-5.496796e-06	-1.409044e-09	-3.820802e+01	-9.009582e+01
1.200000e-07	-5.492231e-06	-1.483478e-09	-3.817629e+01	-9.005700e+01
1.300000e-07	-5.487313e-06	-1.372929e-09	-3.814211e+01	-9.001353e+01
1.400000e-07	-5.481975e-06	-1.291205e-09	-3.810500e+01	-8.996523e+01
1.500000e-07	-5.476263e-06	-1.395267e-09	-3.806530e+01	-8.991194e+01
1.600000e-07	-5.470169e-06	-1.473530e-09	-3.802294e+01	-8.985351e+01
1.700000e-07	-5.463632e-06	-1.373057e-09	-3.797751e+01	-8.978980e+01
1.800000e-07	-5.456728e-06	-1.292830e-09	-3.792951e+01	-8.972073e+01
1.900000e-07	-5.449486e-06	-1.381748e-09	-3.787918e+01	-8.964620e+01
2.000000e-07	-5.441907e-06	-1.454737e-09	-3.782649e+01	-8.956616e+01
2.100000e-07	-5.434021e-06	-1.396562e-09	-3.777168e+01	-8.948057e+01
2.200000e-07	-5.425864e-06	-1.322559e-09	-3.771498e+01	-8.938943e+01
2.300000e-07	-5.417424e-06	-1.367499e-09	-3.765631e+01	-8.929274e+01
2.400000e-07	-5.408454e-06	-1.417898e-09	-3.759396e+01	-8.919054e+01
2.500000e-07	-5.398718e-06	-1.390646e-09	-3.752629e+01	-8.908288e+01
2.600000e-07	-5.388305e-06	-1.335522e-09	-3.745391e+01	-8.896986e+01
2.700000e-07	-5.377387e-06	-1.348190e-09	-3.737801e+01	-8.885157e+01
2.800000e-07	-5.366060e-06	-1.360206e-09	-3.729929e+01	-8.872812e+01
2.900000e-07	-5.354475e-06	-1.328563e-09	-3.721875e+01	-8.859967e+01
3.000000e-07	-5.342510e-06	-1.302326e-09	-3.713559e+01	-8.846635e+01
3.100000e-07	-5.329985e-06	-1.327198e-09	-3.704852e+01	-8.832834e+01
3.200000e-07	-5.316979e-06	-1.358417e-09	-3.695813e+01	-8.818583e+01
3.300000e-07	-5.303675e-06	-1.339937e-09	-3.686565e+01	-8.803899e+01
3.400000e-07	-5.289909e-06	-1.298523e-09	-3.676996e+01	-8.788804e+01
3.500000e-07	-5.275688e-06	-1.315089e-09	-3.667111e+01	-8.773318e+01
3.600000e-07	-5.260981e-06	-1.331851e-09	-3.656888e+01	-8.757462e+01
3.700000e-07	-5.245760e-06	-1.286093e-09	-3.646308e+01	-8.741257e+01
3.800000e-07	-5.230074e-06	-1.280834e-09	-3.635405e+01	-8.724724e+01
3.900000e-07	-5.213925e-06	-1.348685e-09	-3.624180e+01	-8.707886e+01
4.000000e-07	-5.197380e-06	-1.321559e-09	-3.612679e+01	-8.690761e+01
4.100000e-07	-5.180351e-06	-1.243757e-09	-3.600842e+01	-8.673371e+01
4.200000e-07	-5.162933e-06	-1.311969e-09	-3.588736e+01	-8.655733e+01
4.300000e-07	-5.145327e-06	-1.357337e-09	-3.576497e+01	-8.637867e+01
4.400000e-07	-5.127425e-06	-1.251571e-09	-3.564054e+01	-8.619788e+01
4.500000e-07	-5.109028e-06	-1.232682e-09	-3.551267e+01	-8.601513e+01
4.600000e-07	-5.090254e-06	-1.349566e-09	-3.538216e+01	-8.583056e+01
4.700000e-07	-5.071213e-06	-1.305158e-09	-3.524981e+01	-8.564427e+01
4.800000e-07	-5.051865e-06	-1.225656e-09	-3.511533e+01	-8.545640e+01
4.900000e-07	-5.032223e-06	-1.314438e-09	-3.497880e+01	-8.526701e+01
5.000000e-07	-5.012412e-06	-1.333886e-09	-3.484109e+01	-8.507618e+01
5.100000e-07	-4.992430e-06	-1.219726e-09	-3.470220e+01	-8.488396e+01
5.200000e-07	-4.972067e-06	-1.266708e-09	-3.456065e+01	-8.469039e+01
5.300000e-07	-4.951244e-06	-1.338096e-09	-3.441591e+01	-8.449547e+01
5.400000e-07	-4.930076e-06	-1.239936e-09	-3.426878e+01	-8.429920e+01
5.500000e-07	-4.908587e-06	-1.226580e-09	-3.411941e+01	-8.410155e+01
5.600000e-07	-4.886860e-06	-1.337970e-09	-3.396838e+01	-8.390249e+01
5.700000e-07	-4.864762e-06	-1.283097e-09	-3.381478e+01	-8.370194e+01
5.800000e-07	-4.842163e-06	-1.210163e-09	-3.365770e+01	-8.349983e+01
5.900000e-07	-4.819265e-06	-1.292430e-09	-3.349853e+01	-8.329607e+01
6.000000e-07	-4.796100e-06	-1.297103e-09	-3.333751e+01	-8.309056e+01
6.100000e-07	-4.772631e-06	-1.209094e-09	-3.317438e+01	-8.288317e+01
6.200000e-07	-4.748967e-06	-1.250221e-09	-3.300989e+01	-8.267378e+01
6.300000e-07	-4.725093e-06	-1.291304e-09	-3.284394e+01	-8.246223e+01
6.400000e-07	-4.700916e-06	-1.224477e-09	-3.267589e+01	-8.224840e+01
6.500000e-07	-4.676294e-06	-1.231131e-09	-3.250475e+01	-8.203211e+01
6.600000e-07	-4.651227e-06	-1.275610e-09	-3.233050e+01	-8.181322e+01
6.700000e-07	-4.625735e-06	-1.228045e-09	-3.215331e+01	-8.159155e+01
6.800000e-07	-4.599641e-06	-1.205562e-09	-3.197193e+01	-8.136694e+01
6.900000e-07	-4.573005e-06	-1.246413e-09	-3.178679e+01	-8.113923e+01
7.000000e-07	-4.545980e-06	-1.223587e-09	-3.159894e+01	-8.090825e+01
7.100000e-07	-4.518622e-06	-1.194965e-09	-3.140877e+01	-8.067384e+01
7.200000e-07	-4.491006e-06	-1.225883e-09	-3.121682e+01	-8.043584e+01
7.300000e-07	-4.463188e-06	-1.226292e-09	-3.102345e+01	-8.019410e+01
7.400000e-07	-4.435102e-06	-1.194345e-09	-3.082823e+01	-7.994847e+01
7.500000e-07	-4.406785e-06	-1.208814e-09	-3.063140e+01	-7.969883e+01
7.600000e-07	-4.378306e-06	-1.212128e-09	-3.043344e+01	-7.944503e+01
7.700000e-07	-4.349483e-06	-1.182945e-09	-3.023310e+01	-7.918697e+01
7.800000e-07	-4.320333e-06	-1.182767e-09	-3.003047e+01	-7.892452e+01
7.900000e-07	-4.290939e-06	-1.193333e-09	-2.982615e+01	-7.865760e+01
8.000000e-07	-4.261199e-06	-1.167088e-09	-2.961944e+01	-7.838611e+01
8.100000e-07	-4.231162e-06	-1.158790e-09	-2.941065e+01	-7.810998e+01
8.200000e-07	-4.200854e-06	-1.171064e-09	-2.919998e+01	-7.782914e+01
8.300000e-07	-4.170245e-06	-1.154487e-09	-2.898722e+01	-7.754354e+01
8.400000e-07	-4.139371e-06	-1.136766e-09	-2.877262e+01	-7.725314e+01
8.500000e-07	-4.108234e-06	-1.151250e-09	-2.855618e+01	-7.695790e+01
8.600000e-07	-4.076913e-06	-1.147590e-09	-2.833847e+01	-7.665780e+01
8.700000e-07	-4.045369e-06	-1.127299e-09	-2.811921e+01	-7.635282e+01
8.800000e-07	-4.013594e-06	-1.130477e-09	-2.789834e+01	-7.604298e+01
8.900000e-07	-3.981674e-06	-1.130718e-09	-2.767647e+01	-7.572826e+01
9.000000e-07	-3.949500e-06	-1.105475e-09	-2.745283e+01	-7.540868e+01
9.100000e-07	-3.916931e-06	-1.097684e-09	-2.722644e+01	-7.508426e+01
9.200000e-07	-3.883934e-06	-1.104360e-09	-2.699708e+01	-7.475503e+01
9.300000e-07	-3.850467e-06	-1.090029e-09	-2.676445e+01	-7.442100e+01
9.400000e-07	-3.816484e-06	-1.083407e-09	-2.652824e+01	-7.408222e+01
9.500000e-07	-3.782155e-06	-1.095773e-09	-2.628962e+01	-7.373872e+01
9.600000e-07	-3.747537e-06	-1.089058e-09	-2.604899e+01	-7.339053e+01
9.700000e-07	-3.712540e-06	-1.067944e-09	-2.580573e+01	-7.303769e+01
9.800000e-07	-3.677301e-06	-1.067207e-09	-2.556079e+01	-7.268024e+01
9.900000e-07	-3.641882e-06	-1.064984e-09	-2.531458e+01	-7.231822e+01
1.000000e-06	-3.606235e-06	-1.050463e-09	-2.506681e+01	-7.195164e+01
1.010000e-06	-3.570379e-06	-1.051577e-09	-2.481757e+01	-7.158056e+01
1.020000e-06	-3.534385e-06	-1.057795e-09	-2.456738e+01	-7.120499e+01
1.030000e-06	-3.498278e-06	-1.044922e-09	-2.431640e+01	-7.082495e+01
1.040000e-06	-3.461862e-06	-1.036606e-09	-2.406327e+01	-7.044047e+01
1.050000e-06	-3.425205e-06	-1.037114e-09	-2.380847e+01	-7.005155e+01
1.060000e-06	-3.388333e-06	-1.028154e-09	-2.355218e+01	-6.965821e+01
1.070000e-06	-3.351192e-06	-1.013292e-09	-2.329401e+01	-6.926045e+01
1.080000e-06	-3.313824e-06	-1.008584e-09	-2.303427e+01	-6.885826e+01
1.090000e-06	-3.276185e-06	-1.000764e-09	-2.277264e+01	-6.845162e+01
1.100000e-06	-3.238287e-06	-9.883785e-10	-2.250921e+01	-6.804052e+01
1.110000e-06	-3.200113e-06	-9.874120e-10	-2.224387e+01	-6.762495e+01
1.120000e-06	-3.161772e-06	-9.869090e-10	-2.197736e+01	-6.720485e+01
1.130000e-06	-3.123293e-06	-9.753461e-10	-2.170990e+01	-6.678021e+01
1.140000e-06	-3.084639e-06	-9.648903e-10	-2.144121e+01	-6.635096e+01
1.150000e-06	-3.045739e-06	-9.579806e-10	-2.117082e+01	-6.591707e+01
1.160000e-06	-3.006530e-06	-9.475858e-10	-2.089828e+01	-6.547848e+01
1.170000e-06	-2.967146e-06	-9.363810e-10	-2.062452e+01	-6.503513e+01
1.180000e-06	-2.927641e-06	-9.320636e-10	-2.034992e+01	-6.458694e+01
1.190000e-06	-2.887974e-06	-9.265461e-10	-2.007420e+01	-6.413384e+01
1.200000e-06	-2.848177e-06	-9.190734e-10	-1.979757e+01	-6.367576e+01
1.210000e-06	-2.808305e-06	-9.141720e-10	-1.952042e+01	-6.321261e+01
1.220000e-06	-2.768302e-06	-9.062258e-10	-1.924237e+01	-6.274429e+01
1.230000e-06	-2.728103e-06	-8.928165e-10	-1.896294e+01	-6.227072e+01
1.240000e-06	-2.687688e-06	-8.805994e-10	-1.868202e+01	-6.179180e+01
1.250000e-06	-2.647092e-06	-8.742556e-10	-1.839984e+01	-6.130741e+01
1.260000e-06	-2.606219e-06	-8.678630e-10	-1.811573e+01	-6.081744e+01
1.270000e-06	-2.564964e-06	-8.635308e-10	-1.782897e+01	-6.032178e+01
1.280000e-06	-2.523444e-06	-8.611043e-10	-1.754036e+01	-5.982031e+01
1.290000e-06	-2.481680e-06	-8.547795e-10	-1.725006e+01	-5.931288e+01
1.300000e-06	-2.439590e-06	-8.416727e-10	-1.695750e+01	-5.879936e+01
1.310000e-06	-2.397175e-06	-8.272391e-10	-1.666268e+01	-5.827960e+01
1.320000e-06	-2.354457e-06	-8.162226e-10	-1.636575e+01	-5.775346e+01
1.330000e-06	-2.311464e-06	-8.070909e-10	-1.606690e+01	-5.722075e+01
1.340000e-06	-2.268337e-06	-8.003899e-10	-1.576713e+01	-5.668132e+01
1.350000e-06	-2.225131e-06	-7.973993e-10	-1.546680e+01	-5.613496e+01
1.360000e-06	-2.181760e-06	-7.928138e-10	-1.516533e+01	-5.558150e+01
1.370000e-06	-2.138281e-06	-7.853430e-10	-1.486311e+01	-5.502071e+01
1.380000e-06	-2.094708e-06	-7.741184e-10	-1.456024e+01	-5.445237e+01
1.390000e-06	-2.050967e-06	-7.591559e-10	-1.425619e+01	-5.387625e+01
1.400000e-06	-2.007157e-06	-7.428819e-10	-1.395167e+01	-5.329210e+01
1.410000e-06	-1.963309e-06	-7.293770e-10	-1.364689e+01	-5.269964e+01
1.420000e-06	-1.919342e-06	-7.207177e-10	-1.334128e+01	-5.209861e+01
1.430000e-06	-1.875252e-06	-7.144325e-10	-1.303481e+01	-5.148869e+01
1.440000e-06	-1.831077e-06	-7.077374e-10	-1.272775e+01	-5.086956e+01
1.450000e-06	-1.786820e-06	-7.005056e-10	-1.242012e+01	-5.024091e+01
1.460000e-06	-1.742474e-06	-6.919994e-10	-1.211187e+01	-4.960237e+01
1.470000e-06	-1.698015e-06	-6.796054e-10	-1.180284e+01	-4.895358e+01
1.480000e-06	-1.653411e-06	-6.652483e-10	-1.149279e+01	-4.829414e+01
1.490000e-06	-1.608626e-06	-6.537082e-10	-1.118150e+01	-4.762366e+01
1.500000e-06	-1.563732e-06	-6.440212e-10	-1.086944e+01	-4.694171e+01
1.510000e-06	-1.518780e-06	-6.334297e-10	-1.055698e+01	-4.624786e+01
1.520000e-06	-1.473620e-06	-6.221920e-10	-1.024308e+01	-4.554166e+01
1.530000e-06	-1.428266e-06	-6.122321e-10	-9.927821e+00	-4.482264e+01
1.540000e-06	-1.382894e-06	-6.038337e-10	-9.612446e+00	-4.409032e+01
1.550000e-06	-1.337451e-06	-5.931699e-10	-9.296572e+00	-4.334422e+01
1.560000e-06	-1.291940e-06	-5.796779e-10	-8.980225e+00	-4.258384e+01
1.570000e-06	-1.246376e-06	-5.670090e-10	-8.663517e+00	-4.180868e+01
1.580000e-06	-1.200628e-06	-5.532224e-10	-8.345518e+00	-4.101824e+01
1.590000e-06	-1.154750e-06	-5.398445e-10	-8.026627e+00	-4.021201e+01
1.600000e-06	-1.108797e-06	-5.289075e-10	-7.707208e+00	-3.938947e+01
1.610000e-06	-1.062697e-06	-5.169999e-10	-7.386766e+00	-3.855014e+01
1.620000e-06	-1.016564e-06	-5.036882e-10	-7.066099e+00	-3.769352e+01
1.630000e-06	-9.703495e-07	-4.903928e-10	-6.744864e+00	-3.681912e+01
1.640000e-06	-9.240295e-07	-4.775416e-10	-6.422894e+00	-3.592649e+01
1.650000e-06	-8.777435e-07	-4.633885e-10	-6.101163e+00	-3.501517e+01
1.660000e-06	-8.314112e-07	-4.476837e-10	-5.779108e+00	-3.408474e+01
1.670000e-06	-7.850077e-07	-4.329774e-10	-5.456560e+00	-3.313481e+01
1.680000e-06	-7.385211e-07	-4.189241e-10	-5.133433e+00	-3.216499e+01
1.690000e-06	-6.920186e-07	-4.033806e-10	-4.810195e+00	-3.117497e+01
1.700000e-06	-6.455766e-07	-3.878488e-10	-4.487379e+00	-3.016444e+01
1.710000e-06	-5.990464e-07	-3.712099e-10	-4.163949e+00	-2.913315e+01
1.720000e-06	-5.524630e-07	-3.549240e-10	-3.840150e+00	-2.808088e+01
1.730000e-06	-5.058107e-07	-3.389837e-10	-3.515872e+00	-2.700749e+01
1.740000e-06	-4.590667e-07	-3.219704e-10	-3.190956e+00	-2.591286e+01
1.750000e-06	-4.124313e-07	-3.045662e-10	-2.866794e+00	-2.479695e+01
1.760000e-06	-3.656868e-07	-2.876735e-10	-2.541875e+00	-2.365975e+01
1.770000e-06	-3.188464e-07	-2.712406e-10	-2.216289e+00	-2.250134e+01
1.780000e-06	-2.720123e-07	-2.546650e-10	-1.890748e+00	-2.132184e+01
1.790000e-06	-2.252341e-07	-2.383434e-10	-1.565594e+00	-2.012147e+01
1.800000e-06	-1.785700e-07	-2.219844e-10	-1.241233e+00	-1.890048e+01
1.810000e-06	-1.317617e-07	-2.038722e-10	-9.158710e-01	-1.765920e+01
1.820000e-06	-8.485846e-08	-1.833972e-10	-5.898480e-01	-1.639805e+01
1.830000e-06	-3.803051e-08	-1.637711e-10	-2.643487e-01	-1.511749e+01
1.840000e-06	8.752795e-09	-1.468078e-10	6.084035e-02	-1.381807e+01
1.850000e-06	5.549853e-08	-1.304253e-10	3.857682e-01	-1.250042e+01
1.860000e-06	1.023355e-07	-1.108449e-10	7.113306e-01	-1.116520e+01
1.870000e-06	1.492138e-07	-9.044356e-11	1.037180e+00	-9.813177e+00
1.880000e-06	1.960032e-07	-7.181225e-11	1.362411e+00	-8.445171e+00
1.890000e-06	2.427682e-07	-5.397554e-11	1.687472e+00	-7.062064e+00
1.900000e-06	2.895452e-07	-3.669889e-11	2.012618e+00	-5.664803e+00
1.910000e-06	3.363257e-07	-1.832047e-11	2.337788e+00	-4.254392e+00
1.920000e-06	3.830789e-07	2.707438e-12	2.662767e+00	-2.831893e+00
1.930000e-06	4.297779e-07	2.492970e-11	2.987370e+00	-1.398418e+00
1.940000e-06	4.763315e-07	4.579874e-11	3.310963e+00	4.487483e-02
1.950000e-06	5.228586e-07	6.509955e-11	3.634371e+00	1.496781e+00
1.960000e-06	5.693623e-07	8.435381e-11	3.957616e+00	2.956060e+00
1.970000e-06	6.158701e-07	1.052616e-10	4.280890e+00	4.421438e+00
1.980000e-06	6.623794e-07	1.267820e-10	4.604174e+00	5.891612e+00
1.990000e-06	7.087582e-07	1.462943e-10	4.926552e+00	7.365259e+00
2.000000e-06	7.550661e-07	1.679150e-10	5.248436e+00	8.841037e+00
2.010000e-06	8.013626e-07	1.885361e-10	5.570242e+00	1.031760e+01
2.020000e-06	8.476406e-07	2.084756e-10	5.891918e+00	1.179358e+01
2.030000e-06	8.938339e-07	2.308670e-10	6.213006e+00	1.326763e+01
2.040000e-06	9.399261e-07	2.514833e-10	6.533391e+00	1.473840e+01
2.050000e-06	9.859846e-07	2.709078e-10	6.853542e+00	1.620456e+01
2.060000e-06	1.031961e-06	2.896135e-10	7.173124e+00	1.766479e+01
2.070000e-06	1.077799e-06	3.093405e-10	7.491743e+00	1.911780e+01
2.080000e-06	1.123571e-06	3.293349e-10	7.809901e+00	2.056232e+01
2.090000e-06	1.169307e-06	3.502634e-10	8.127812e+00	2.199713e+01
2.100000e-06	1.214937e-06	3.717637e-10	8.444985e+00	2.342105e+01
2.110000e-06	1.260556e-06	3.915278e-10	8.762080e+00	2.483294e+01
2.120000e-06	1.306181e-06	4.098542e-10	9.079215e+00	2.623170e+01
2.130000e-06	1.351640e-06	4.292628e-10	9.395200e+00	2.761629e+01
2.140000e-06	1.397006e-06	4.485745e-10	9.710534e+00	2.898573e+01
2.150000e-06	1.442285e-06	4.656848e-10	1.002527e+01	3.033911e+01
2.160000e-06	1.487397e-06	4.827752e-10	1.033884e+01	3.167557e+01
2.170000e-06	1.532407e-06	5.006337e-10	1.065170e+01	3.299431e+01
2.180000e-06	1.577274e-06	5.190534e-10	1.096357e+01	3.429460e+01
2.190000e-06	1.622033e-06	5.401191e-10	1.127469e+01	3.557581e+01
2.200000e-06	1.666770e-06	5.600041e-10	1.158565e+01	3.683733e+01
2.210000e-06	1.711389e-06	5.748090e-10	1.189580e+01	3.807865e+01
2.220000e-06	1.755792e-06	5.864516e-10	1.220445e+01	3.929933e+01
2.230000e-06	1.799981e-06	6.003686e-10	1.251160e+01	4.049899e+01
2.240000e-06	1.844032e-06	6.170141e-10	1.281780e+01	4.167732e+01
2.250000e-06	1.888035e-06	6.357574e-10	1.312366e+01	4.283410e+01
2.260000e-06	1.931911e-06	6.558585e-10	1.342864e+01	4.396914e+01
2.270000e-06	1.975651e-06	6.744508e-10	1.373268e+01	4.508233e+01
2.280000e-06	2.019383e-06	6.898473e-10	1.403666e+01	4.617364e+01
2.290000e-06	2.063061e-06	7.022252e-10	1.434026e+01	4.724306e+01
2.300000e-06	2.106692e-06	7.122691e-10	1.464354e+01	4.829068e+01
2.310000e-06	2.150265e-06	7.207497e-10	1.494641e+01	4.931660e+01
2.320000e-06	2.193703e-06	7.332497e-10	1.524835e+01	5.032100e+01
2.330000e-06	2.237064e-06	7.492921e-10	1.554975e+01	5.130409e+01
2.340000e-06	2.280364e-06	7.650651e-10	1.585072e+01	5.226612e+01
2.350000e-06	2.323548e-06	7.793957e-10	1.615089e+01	5.320739e+01
2.360000e-06	2.366446e-06	7.928032e-10	1.644907e+01	5.412822e+01
2.370000e-06	2.408947e-06	8.037047e-10	1.674450e+01	5.502897e+01
2.380000e-06	2.451092e-06	8.120336e-10	1.703745e+01	5.591000e+01
2.390000e-06	2.492956e-06	8.214518e-10	1.732844e+01	5.677172e+01
2.400000e-06	2.534615e-06	8.340059e-10	1.761802e+01	5.761454e+01
2.410000e-06	2.575976e-06	8.489188e-10	1.790552e+01	5.843890e+01
2.420000e-06	2.617026e-06	8.643528e-10	1.819085e+01	5.924521e+01
2.430000e-06	2.657730e-06	8.771282e-10	1.847378e+01	6.003394e+01
2.440000e-06	2.698140e-06	8.858527e-10	1.875467e+01	6.080551e+01
2.450000e-06	2.738427e-06	8.934099e-10	1.903470e+01	6.156037e+01
2.460000e-06	2.778498e-06	9.017157e-10	1.931324e+01	6.229895e+01
2.470000e-06	2.818376e-06	9.099058e-10	1.959043e+01	6.302169e+01
2.480000e-06	2.858155e-06	9.191408e-10	1.986693e+01	6.372900e+01
2.490000e-06	2.897803e-06	9.294844e-10	2.014252e+01	6.442128e+01
2.500000e-06	2.937307e-06	9.404568e-10	2.041711e+01	6.509894e+01
2.510000e-06	2.976727e-06	9.507019e-10	2.069112e+01	6.576235e+01
2.520000e-06	3.016001e-06	9.587556e-10	2.096411e+01	6.641188e+01
2.530000e-06	3.055033e-06	9.658256e-10	2.123542e+01	6.704786e+01
2.540000e-06	3.093877e-06	9.725450e-10	2.150542e+01	6.767063e+01
2.550000e-06	3.132475e-06	9.794812e-10	2.177372e+01	6.828048e+01
2.560000e-06	3.170818e-06	9.875517e-10	2.204024e+01	6.887772e+01
2.570000e-06	3.208894e-06	9.972236e-10	2.230490e+01	6.946261e+01
2.580000e-06	3.246743e-06	1.008326e-09	2.256799e+01	7.003541e+01
2.590000e-06	3.284442e-06	1.019074e-09	2.283003e+01	7.059636e+01
2.600000e-06	3.321983e-06	1.027052e-09	2.309098e+01	7.114566e+01
2.610000e-06	3.359232e-06	1.032477e-09	2.334989e+01	7.168354e+01
2.620000e-06	3.396167e-06	1.037799e-09	2.360663e+01	7.221017e+01
2.630000e-06	3.432868e-06	1.043186e-09	2.386174e+01	7.272574e+01
2.640000e-06	3.469306e-06	1.049328e-09	2.411502e+01	7.323042e+01
2.650000e-06	3.505503e-06	1.057689e-09	2.436662e+01	7.372435e+01
2.660000e-06	3.541538e-06	1.066089e-09	2.461710e+01	7.420769e+01
2.670000e-06	3.577419e-06	1.073135e-09	2.486651e+01	7.468059e+01
2.680000e-06	3.613096e-06	1.079102e-09	2.511450e+01	7.514317e+01
2.690000e-06	3.648658e-06	1.082714e-09	2.536169e+01	7.559556e+01
2.700000e-06	3.684110e-06	1.086248e-09	2.560811e+01	7.603792e+01
2.710000e-06	3.719346e-06	1.092537e-09	2.585304e+01	7.647035e+01
2.720000e-06	3.754315e-06	1.099910e-09	2.609610e+01	7.689299e+01
2.730000e-06	3.788962e-06	1.107389e-09	2.633693e+01	7.730598e+01
2.740000e-06	3.823169e-06	1.114685e-09	2.657470e+01	7.770944e+01
2.750000e-06	3.856922e-06	1.119744e-09	2.680932e+01	7.810353e+01
2.760000e-06	3.890188e-06	1.122034e-09	2.704055e+01	7.848838e+01
2.770000e-06	3.922977e-06	1.124163e-09	2.726847e+01	7.886415e+01
2.780000e-06	3.955397e-06	1.129706e-09	2.749382e+01	7.923098e+01
2.790000e-06	3.987476e-06	1.136939e-09	2.771679e+01	7.958905e+01
2.800000e-06	4.019356e-06	1.142446e-09	2.793839e+01	7.993851e+01
2.810000e-06	4.051054e-06	1.147763e-09	2.815872e+01	8.027954e+01
2.820000e-06	4.082487e-06	1.153484e-09	2.837721e+01	8.061232e+01
2.830000e-06	4.113780e-06	1.157678e-09	2.859473e+01	8.093704e+01
2.840000e-06	4.144993e-06	1.159597e-09	2.881169e+01	8.125388e+01
2.850000e-06	4.175941e-06	1.161594e-09	2.902681e+01	8.156305e+01
2.860000e-06	4.206477e-06	1.165262e-09	2.923906e+01	8.186472e+01
2.870000e-06	4.236672e-06	1.170276e-09	2.944895e+01	8.215911e+01
2.880000e-06	4.266561e-06	1.174450e-09	2.965671e+01	8.244641e+01
2.890000e-06	4.296191e-06	1.176982e-09	2.986266e+01	8.272682e+01
2.900000e-06	4.325540e-06	1.180489e-09	3.006666e+01	8.300055e+01
