# Temperatura_=_-0.8
# Concentracion g/m^3_=_1620.0
# C_Vs_to_Am_M_A/Vsm_=_65563218390.804596
# pendiente_HvsI_1/m_=_3716.3
# ordenada_HvsI_A/m_=_1297.0
# frecuencia_Hz_=_135096.31379739908

Tiempo_(s)	Campo_(V.s)	Magnetizacion_(V.s)	Campo_(kA/m)	Magnetizacion_(A/m)
0.000000e+00	-5.521719e-06	-1.211107e-09	-3.837978e+01	-8.080755e+01
1.000000e-08	-5.521830e-06	-1.205977e-09	-3.838055e+01	-8.078407e+01
2.000000e-08	-5.521747e-06	-1.203184e-09	-3.837998e+01	-8.076081e+01
3.000000e-08	-5.521356e-06	-1.203980e-09	-3.837726e+01	-8.073765e+01
4.000000e-08	-5.520401e-06	-1.205734e-09	-3.837062e+01	-8.071449e+01
5.000000e-08	-5.518858e-06	-1.205836e-09	-3.835990e+01	-8.069119e+01
6.000000e-08	-5.516770e-06	-1.199037e-09	-3.834538e+01	-8.066757e+01
7.000000e-08	-5.514091e-06	-1.198756e-09	-3.832676e+01	-8.064345e+01
8.000000e-08	-5.510892e-06	-1.207517e-09	-3.830453e+01	-8.061863e+01
9.000000e-08	-5.507113e-06	-1.224123e-09	-3.827826e+01	-8.059289e+01
1.000000e-07	-5.502900e-06	-1.239831e-09	-3.824898e+01	-8.056600e+01
1.100000e-07	-5.498527e-06	-1.231550e-09	-3.821858e+01	-8.053770e+01
1.200000e-07	-5.493998e-06	-1.159680e-09	-3.818710e+01	-8.050775e+01
1.300000e-07	-5.489223e-06	-1.182505e-09	-3.815391e+01	-8.047589e+01
1.400000e-07	-5.484017e-06	-1.205942e-09	-3.811773e+01	-8.044186e+01
1.500000e-07	-5.478298e-06	-1.228488e-09	-3.807797e+01	-8.040541e+01
1.600000e-07	-5.472139e-06	-1.163410e-09	-3.803517e+01	-8.036627e+01
1.700000e-07	-5.465693e-06	-1.184293e-09	-3.799036e+01	-8.032420e+01
1.800000e-07	-5.458859e-06	-1.252805e-09	-3.794286e+01	-8.027895e+01
1.900000e-07	-5.451578e-06	-1.249920e-09	-3.789225e+01	-8.023030e+01
2.000000e-07	-5.443978e-06	-1.189551e-09	-3.783943e+01	-8.017803e+01
2.100000e-07	-5.436135e-06	-1.181732e-09	-3.778492e+01	-8.012194e+01
2.200000e-07	-5.428104e-06	-1.253181e-09	-3.772909e+01	-8.006185e+01
2.300000e-07	-5.419856e-06	-1.254066e-09	-3.767176e+01	-7.999760e+01
2.400000e-07	-5.411097e-06	-1.229727e-09	-3.761088e+01	-7.992904e+01
2.500000e-07	-5.401611e-06	-1.205044e-09	-3.754495e+01	-7.985605e+01
2.600000e-07	-5.391326e-06	-1.240960e-09	-3.747346e+01	-7.977855e+01
2.700000e-07	-5.380452e-06	-1.213800e-09	-3.739788e+01	-7.969646e+01
2.800000e-07	-5.369218e-06	-1.195245e-09	-3.731979e+01	-7.960973e+01
2.900000e-07	-5.357563e-06	-1.184087e-09	-3.723878e+01	-7.951835e+01
3.000000e-07	-5.345472e-06	-1.219044e-09	-3.715474e+01	-7.942232e+01
3.100000e-07	-5.333061e-06	-1.187993e-09	-3.706848e+01	-7.932166e+01
3.200000e-07	-5.320312e-06	-1.173895e-09	-3.697987e+01	-7.921643e+01
3.300000e-07	-5.307033e-06	-1.172062e-09	-3.688757e+01	-7.910670e+01
3.400000e-07	-5.293341e-06	-1.197884e-09	-3.679240e+01	-7.899256e+01
3.500000e-07	-5.279291e-06	-1.176261e-09	-3.669474e+01	-7.887414e+01
3.600000e-07	-5.264852e-06	-1.163782e-09	-3.659438e+01	-7.875155e+01
3.700000e-07	-5.249909e-06	-1.171875e-09	-3.649051e+01	-7.862497e+01
3.800000e-07	-5.234425e-06	-1.197677e-09	-3.638289e+01	-7.849453e+01
3.900000e-07	-5.218416e-06	-1.176345e-09	-3.627161e+01	-7.836043e+01
4.000000e-07	-5.201816e-06	-1.149749e-09	-3.615623e+01	-7.822284e+01
4.100000e-07	-5.184887e-06	-1.171501e-09	-3.603857e+01	-7.808195e+01
4.200000e-07	-5.167722e-06	-1.187129e-09	-3.591926e+01	-7.793797e+01
4.300000e-07	-5.150251e-06	-1.156495e-09	-3.579782e+01	-7.779109e+01
4.400000e-07	-5.132512e-06	-1.153361e-09	-3.567452e+01	-7.764150e+01
4.500000e-07	-5.114381e-06	-1.197683e-09	-3.554850e+01	-7.748940e+01
4.600000e-07	-5.095812e-06	-1.167223e-09	-3.541943e+01	-7.733499e+01
4.700000e-07	-5.076800e-06	-1.123045e-09	-3.528729e+01	-7.717843e+01
4.800000e-07	-5.057384e-06	-1.147276e-09	-3.515233e+01	-7.701991e+01
4.900000e-07	-5.037733e-06	-1.178149e-09	-3.501575e+01	-7.685957e+01
5.000000e-07	-5.017882e-06	-1.133710e-09	-3.487777e+01	-7.669757e+01
5.100000e-07	-4.997834e-06	-1.142358e-09	-3.473842e+01	-7.653404e+01
5.200000e-07	-4.977534e-06	-1.168890e-09	-3.459732e+01	-7.636909e+01
5.300000e-07	-4.956845e-06	-1.144735e-09	-3.445352e+01	-7.620281e+01
5.400000e-07	-4.935765e-06	-1.116392e-09	-3.430699e+01	-7.603528e+01
5.500000e-07	-4.914391e-06	-1.152687e-09	-3.415843e+01	-7.586655e+01
5.600000e-07	-4.892715e-06	-1.133110e-09	-3.400777e+01	-7.569665e+01
5.700000e-07	-4.870738e-06	-1.104508e-09	-3.385501e+01	-7.552560e+01
5.800000e-07	-4.848356e-06	-1.130062e-09	-3.369944e+01	-7.535339e+01
5.900000e-07	-4.825492e-06	-1.152222e-09	-3.354052e+01	-7.517999e+01
6.000000e-07	-4.802375e-06	-1.116916e-09	-3.337984e+01	-7.500534e+01
6.100000e-07	-4.778972e-06	-1.122312e-09	-3.321717e+01	-7.482939e+01
6.200000e-07	-4.755244e-06	-1.133758e-09	-3.305225e+01	-7.465203e+01
6.300000e-07	-4.731357e-06	-1.110549e-09	-3.288622e+01	-7.447316e+01
6.400000e-07	-4.707255e-06	-1.095939e-09	-3.271869e+01	-7.429267e+01
6.500000e-07	-4.682819e-06	-1.112913e-09	-3.254884e+01	-7.411041e+01
6.600000e-07	-4.657990e-06	-1.103459e-09	-3.237626e+01	-7.392622e+01
6.700000e-07	-4.632670e-06	-1.095477e-09	-3.220028e+01	-7.373996e+01
6.800000e-07	-4.606785e-06	-1.105674e-09	-3.202036e+01	-7.355144e+01
6.900000e-07	-4.580257e-06	-1.104335e-09	-3.183597e+01	-7.336049e+01
7.000000e-07	-4.553214e-06	-1.093267e-09	-3.164800e+01	-7.316692e+01
7.100000e-07	-4.525812e-06	-1.093450e-09	-3.145754e+01	-7.297054e+01
7.200000e-07	-4.498118e-06	-1.089211e-09	-3.126504e+01	-7.277117e+01
7.300000e-07	-4.470289e-06	-1.075222e-09	-3.107162e+01	-7.256862e+01
7.400000e-07	-4.442332e-06	-1.074698e-09	-3.087729e+01	-7.236270e+01
7.500000e-07	-4.414201e-06	-1.073716e-09	-3.068176e+01	-7.215324e+01
7.600000e-07	-4.385808e-06	-1.073779e-09	-3.048441e+01	-7.194005e+01
7.700000e-07	-4.357098e-06	-1.073482e-09	-3.028486e+01	-7.172297e+01
7.800000e-07	-4.328100e-06	-1.073181e-09	-3.008330e+01	-7.150185e+01
7.900000e-07	-4.298783e-06	-1.062546e-09	-2.987952e+01	-7.127655e+01
8.000000e-07	-4.269162e-06	-1.058002e-09	-2.967364e+01	-7.104694e+01
8.100000e-07	-4.239250e-06	-1.045757e-09	-2.946573e+01	-7.081289e+01
8.200000e-07	-4.209058e-06	-1.034236e-09	-2.925587e+01	-7.057431e+01
8.300000e-07	-4.178482e-06	-1.027121e-09	-2.904335e+01	-7.033110e+01
8.400000e-07	-4.147575e-06	-1.033239e-09	-2.882853e+01	-7.008321e+01
8.500000e-07	-4.116397e-06	-1.029521e-09	-2.861182e+01	-6.983057e+01
8.600000e-07	-4.084898e-06	-1.027259e-09	-2.839288e+01	-6.957315e+01
8.700000e-07	-4.053224e-06	-1.024527e-09	-2.817272e+01	-6.931092e+01
8.800000e-07	-4.021424e-06	-1.021980e-09	-2.795169e+01	-6.904387e+01
8.900000e-07	-3.989481e-06	-1.009844e-09	-2.772966e+01	-6.877202e+01
9.000000e-07	-3.957370e-06	-1.003159e-09	-2.750647e+01	-6.849539e+01
9.100000e-07	-3.924955e-06	-9.953240e-10	-2.728116e+01	-6.821400e+01
9.200000e-07	-3.892144e-06	-9.880106e-10	-2.705310e+01	-6.792792e+01
9.300000e-07	-3.858952e-06	-9.830371e-10	-2.682240e+01	-6.763719e+01
9.400000e-07	-3.825309e-06	-9.821537e-10	-2.658856e+01	-6.734188e+01
9.500000e-07	-3.791173e-06	-9.747960e-10	-2.635128e+01	-6.704206e+01
9.600000e-07	-3.756616e-06	-9.684865e-10	-2.611109e+01	-6.673782e+01
9.700000e-07	-3.721623e-06	-9.643338e-10	-2.586787e+01	-6.642924e+01
9.800000e-07	-3.686250e-06	-9.592628e-10	-2.562200e+01	-6.611640e+01
9.900000e-07	-3.650695e-06	-9.553231e-10	-2.537487e+01	-6.579940e+01
1.000000e-06	-3.615054e-06	-9.527007e-10	-2.512714e+01	-6.547831e+01
1.010000e-06	-3.579298e-06	-9.520670e-10	-2.487861e+01	-6.515323e+01
1.020000e-06	-3.543377e-06	-9.452683e-10	-2.462893e+01	-6.482423e+01
1.030000e-06	-3.507316e-06	-9.385151e-10	-2.437828e+01	-6.449138e+01
1.040000e-06	-3.470993e-06	-9.319677e-10	-2.412581e+01	-6.415475e+01
1.050000e-06	-3.434467e-06	-9.257743e-10	-2.387193e+01	-6.381439e+01
1.060000e-06	-3.397714e-06	-9.177713e-10	-2.361648e+01	-6.347035e+01
1.070000e-06	-3.360606e-06	-9.123086e-10	-2.335855e+01	-6.312267e+01
1.080000e-06	-3.323216e-06	-9.079050e-10	-2.309866e+01	-6.277135e+01
1.090000e-06	-3.285584e-06	-9.075941e-10	-2.283709e+01	-6.241642e+01
1.100000e-06	-3.247797e-06	-9.042878e-10	-2.257445e+01	-6.205786e+01
1.110000e-06	-3.209826e-06	-8.999460e-10	-2.231052e+01	-6.169566e+01
1.120000e-06	-3.171641e-06	-8.909304e-10	-2.204511e+01	-6.132976e+01
1.130000e-06	-3.133153e-06	-8.841717e-10	-2.177759e+01	-6.096013e+01
1.140000e-06	-3.094356e-06	-8.777690e-10	-2.150792e+01	-6.058669e+01
1.150000e-06	-3.055395e-06	-8.722152e-10	-2.123712e+01	-6.020937e+01
1.160000e-06	-3.016341e-06	-8.671299e-10	-2.096567e+01	-5.982805e+01
1.170000e-06	-2.977092e-06	-8.627552e-10	-2.069286e+01	-5.944263e+01
1.180000e-06	-2.937587e-06	-8.563675e-10	-2.041827e+01	-5.905298e+01
1.190000e-06	-2.897850e-06	-8.529070e-10	-2.014207e+01	-5.865896e+01
1.200000e-06	-2.858015e-06	-8.454824e-10	-1.986519e+01	-5.826042e+01
1.210000e-06	-2.818158e-06	-8.370072e-10	-1.958816e+01	-5.785720e+01
1.220000e-06	-2.778188e-06	-8.280953e-10	-1.931034e+01	-5.744911e+01
1.230000e-06	-2.738034e-06	-8.189497e-10	-1.903124e+01	-5.703598e+01
1.240000e-06	-2.697696e-06	-8.091762e-10	-1.875086e+01	-5.661762e+01
1.250000e-06	-2.657237e-06	-8.015617e-10	-1.846964e+01	-5.619382e+01
1.260000e-06	-2.616479e-06	-7.966871e-10	-1.818635e+01	-5.576438e+01
1.270000e-06	-2.575492e-06	-7.907663e-10	-1.790146e+01	-5.532908e+01
1.280000e-06	-2.534328e-06	-7.865508e-10	-1.761534e+01	-5.488773e+01
1.290000e-06	-2.492792e-06	-7.821095e-10	-1.732664e+01	-5.444009e+01
1.300000e-06	-2.450910e-06	-7.747593e-10	-1.703553e+01	-5.398595e+01
1.310000e-06	-2.408693e-06	-7.639634e-10	-1.674209e+01	-5.352509e+01
1.320000e-06	-2.366139e-06	-7.548563e-10	-1.644631e+01	-5.305730e+01
1.330000e-06	-2.323304e-06	-7.472093e-10	-1.614857e+01	-5.258234e+01
1.340000e-06	-2.280251e-06	-7.405777e-10	-1.584933e+01	-5.210001e+01
1.350000e-06	-2.237046e-06	-7.337180e-10	-1.554902e+01	-5.161009e+01
1.360000e-06	-2.193632e-06	-7.263169e-10	-1.524727e+01	-5.111236e+01
1.370000e-06	-2.150025e-06	-7.172335e-10	-1.494417e+01	-5.060660e+01
1.380000e-06	-2.106363e-06	-7.089430e-10	-1.464069e+01	-5.009261e+01
1.390000e-06	-2.062647e-06	-6.996434e-10	-1.433683e+01	-4.957018e+01
1.400000e-06	-2.018836e-06	-6.897639e-10	-1.403232e+01	-4.903910e+01
1.410000e-06	-1.974930e-06	-6.796499e-10	-1.372713e+01	-4.849915e+01
1.420000e-06	-1.930957e-06	-6.714224e-10	-1.342149e+01	-4.795014e+01
1.430000e-06	-1.886918e-06	-6.624627e-10	-1.311539e+01	-4.739185e+01
1.440000e-06	-1.842784e-06	-6.537370e-10	-1.280863e+01	-4.682408e+01
1.450000e-06	-1.798529e-06	-6.444286e-10	-1.250102e+01	-4.624661e+01
1.460000e-06	-1.754112e-06	-6.345477e-10	-1.219230e+01	-4.565923e+01
1.470000e-06	-1.709619e-06	-6.247333e-10	-1.188304e+01	-4.506173e+01
1.480000e-06	-1.665034e-06	-6.152151e-10	-1.157315e+01	-4.445388e+01
1.490000e-06	-1.620273e-06	-6.064303e-10	-1.126202e+01	-4.383546e+01
1.500000e-06	-1.575365e-06	-5.985036e-10	-1.094988e+01	-4.320624e+01
1.510000e-06	-1.530298e-06	-5.887904e-10	-1.063663e+01	-4.256598e+01
1.520000e-06	-1.485136e-06	-5.784473e-10	-1.032273e+01	-4.191443e+01
1.530000e-06	-1.439923e-06	-5.673457e-10	-1.000847e+01	-4.125134e+01
1.540000e-06	-1.394603e-06	-5.575616e-10	-9.693460e+00	-4.057644e+01
1.550000e-06	-1.349180e-06	-5.473904e-10	-9.377738e+00	-3.988948e+01
1.560000e-06	-1.303695e-06	-5.349579e-10	-9.061589e+00	-3.919016e+01
1.570000e-06	-1.258139e-06	-5.244024e-10	-8.744942e+00	-3.847820e+01
1.580000e-06	-1.212399e-06	-5.151625e-10	-8.427015e+00	-3.775331e+01
1.590000e-06	-1.166535e-06	-5.044659e-10	-8.108230e+00	-3.701517e+01
1.600000e-06	-1.120615e-06	-4.934221e-10	-7.789053e+00	-3.626349e+01
1.610000e-06	-1.074647e-06	-4.824634e-10	-7.469545e+00	-3.549794e+01
1.620000e-06	-1.028584e-06	-4.689035e-10	-7.149373e+00	-3.471820e+01
1.630000e-06	-9.823780e-07	-4.549413e-10	-6.828209e+00	-3.392394e+01
1.640000e-06	-9.361116e-07	-4.420271e-10	-6.506626e+00	-3.311485e+01
1.650000e-06	-8.897928e-07	-4.291790e-10	-6.184678e+00	-3.229060e+01
1.660000e-06	-8.434910e-07	-4.166722e-10	-5.862849e+00	-3.145086e+01
1.670000e-06	-7.972180e-07	-4.056212e-10	-5.541219e+00	-3.059531e+01
1.680000e-06	-7.508834e-07	-3.948027e-10	-5.219161e+00	-2.972366e+01
1.690000e-06	-7.044555e-07	-3.827164e-10	-4.896455e+00	-2.883560e+01
1.700000e-06	-6.579258e-07	-3.683763e-10	-4.573041e+00	-2.793085e+01
1.710000e-06	-6.113646e-07	-3.541380e-10	-4.249408e+00	-2.700915e+01
1.720000e-06	-5.647789e-07	-3.391143e-10	-3.925606e+00	-2.607024e+01
1.730000e-06	-5.181180e-07	-3.237526e-10	-3.601280e+00	-2.511392e+01
1.740000e-06	-4.714586e-07	-3.083557e-10	-3.276965e+00	-2.413998e+01
1.750000e-06	-4.248713e-07	-2.930199e-10	-2.953151e+00	-2.314828e+01
1.760000e-06	-3.781094e-07	-2.785252e-10	-2.628123e+00	-2.213868e+01
1.770000e-06	-3.311763e-07	-2.653889e-10	-2.301905e+00	-2.111110e+01
1.780000e-06	-2.842914e-07	-2.502125e-10	-1.976023e+00	-2.006549e+01
1.790000e-06	-2.373169e-07	-2.349514e-10	-1.649517e+00	-1.900187e+01
1.800000e-06	-1.903514e-07	-2.209077e-10	-1.323074e+00	-1.792028e+01
1.810000e-06	-1.435032e-07	-2.051800e-10	-9.974467e-01	-1.682082e+01
1.820000e-06	-9.667438e-08	-1.873942e-10	-6.719541e-01	-1.570365e+01
1.830000e-06	-4.988991e-08	-1.693104e-10	-3.467695e-01	-1.456899e+01
1.840000e-06	-3.184990e-09	-1.512946e-10	-2.213790e-02	-1.341712e+01
1.850000e-06	4.353269e-08	-1.345024e-10	3.025824e-01	-1.224836e+01
1.860000e-06	9.031491e-08	-1.178924e-10	6.277514e-01	-1.106313e+01
1.870000e-06	1.371282e-07	-9.900132e-11	9.531365e-01	-9.861881e+00
1.880000e-06	1.838864e-07	-8.020402e-11	1.278138e+00	-8.645145e+00
1.890000e-06	2.305884e-07	-6.386479e-11	1.602749e+00	-7.413516e+00
1.900000e-06	2.772775e-07	-4.782902e-11	1.927271e+00	-6.167652e+00
1.910000e-06	3.238947e-07	-3.070779e-11	2.251293e+00	-4.908275e+00
1.920000e-06	3.705322e-07	-1.283961e-11	2.575456e+00	-3.636171e+00
1.930000e-06	4.171301e-07	6.597682e-12	2.899344e+00	-2.352187e+00
1.940000e-06	4.636848e-07	2.600965e-11	3.222932e+00	-1.057228e+00
1.950000e-06	5.101778e-07	4.491816e-11	3.546090e+00	2.477431e-01
1.960000e-06	5.566140e-07	6.431190e-11	3.868854e+00	1.561710e+00
1.970000e-06	6.030503e-07	8.510839e-11	4.191619e+00	2.883608e+00
1.980000e-06	6.494328e-07	1.029443e-10	4.514009e+00	4.212324e+00
1.990000e-06	6.957525e-07	1.175135e-10	4.835963e+00	5.546706e+00
2.000000e-06	7.420325e-07	1.330531e-10	5.157641e+00	6.885564e+00
2.010000e-06	7.883795e-07	1.511168e-10	5.479785e+00	8.227675e+00
2.020000e-06	8.346823e-07	1.725490e-10	5.801622e+00	9.571792e+00
2.030000e-06	8.808848e-07	1.964405e-10	6.122761e+00	1.091665e+01
2.040000e-06	9.269996e-07	2.188995e-10	6.443291e+00	1.226095e+01
2.050000e-06	9.730936e-07	2.384405e-10	6.763677e+00	1.360343e+01
2.060000e-06	1.019220e-06	2.549148e-10	7.084289e+00	1.494277e+01
2.070000e-06	1.065207e-06	2.686574e-10	7.403931e+00	1.627769e+01
2.080000e-06	1.111092e-06	2.836795e-10	7.722861e+00	1.760690e+01
2.090000e-06	1.156832e-06	3.033001e-10	8.040787e+00	1.892916e+01
2.100000e-06	1.202443e-06	3.241293e-10	8.357812e+00	2.024321e+01
2.110000e-06	1.248118e-06	3.442964e-10	8.675286e+00	2.154785e+01
2.120000e-06	1.293728e-06	3.627877e-10	8.992307e+00	2.284190e+01
2.130000e-06	1.339152e-06	3.799055e-10	9.308040e+00	2.412423e+01
2.140000e-06	1.384467e-06	3.963632e-10	9.623008e+00	2.539375e+01
2.150000e-06	1.429755e-06	4.111613e-10	9.937789e+00	2.664942e+01
2.160000e-06	1.474932e-06	4.266413e-10	1.025180e+01	2.789026e+01
2.170000e-06	1.519998e-06	4.433422e-10	1.056504e+01	2.911535e+01
2.180000e-06	1.564968e-06	4.605946e-10	1.087761e+01	3.032383e+01
2.190000e-06	1.609748e-06	4.783340e-10	1.118887e+01	3.151493e+01
2.200000e-06	1.654330e-06	4.951082e-10	1.149874e+01	3.268791e+01
2.210000e-06	1.698880e-06	5.081628e-10	1.180840e+01	3.384214e+01
2.220000e-06	1.743374e-06	5.189493e-10	1.211766e+01	3.497705e+01
2.230000e-06	1.787676e-06	5.324852e-10	1.242559e+01	3.609215e+01
2.240000e-06	1.831891e-06	5.490459e-10	1.273292e+01	3.718701e+01
2.250000e-06	1.876051e-06	5.673446e-10	1.303986e+01	3.826131e+01
2.260000e-06	1.920145e-06	5.863547e-10	1.334634e+01	3.931478e+01
2.270000e-06	1.964126e-06	6.028422e-10	1.365204e+01	4.034723e+01
2.280000e-06	2.007987e-06	6.147929e-10	1.395690e+01	4.135855e+01
2.290000e-06	2.051786e-06	6.244135e-10	1.426133e+01	4.234871e+01
2.300000e-06	2.095510e-06	6.346160e-10	1.456525e+01	4.331773e+01
2.310000e-06	2.139158e-06	6.453812e-10	1.486864e+01	4.426570e+01
2.320000e-06	2.182690e-06	6.586122e-10	1.517121e+01	4.519280e+01
2.330000e-06	2.226011e-06	6.740211e-10	1.547232e+01	4.609924e+01
2.340000e-06	2.269178e-06	6.889577e-10	1.577236e+01	4.698529e+01
2.350000e-06	2.312190e-06	7.028071e-10	1.607133e+01	4.785127e+01
2.360000e-06	2.354982e-06	7.152277e-10	1.636876e+01	4.869756e+01
2.370000e-06	2.397472e-06	7.250950e-10	1.666410e+01	4.952456e+01
2.380000e-06	2.439657e-06	7.349421e-10	1.695731e+01	5.033272e+01
2.390000e-06	2.481529e-06	7.448320e-10	1.724835e+01	5.112251e+01
2.400000e-06	2.523068e-06	7.541714e-10	1.753707e+01	5.189444e+01
2.410000e-06	2.564357e-06	7.657116e-10	1.782406e+01	5.264901e+01
2.420000e-06	2.605345e-06	7.778441e-10	1.810896e+01	5.338676e+01
2.430000e-06	2.646034e-06	7.878774e-10	1.839178e+01	5.410824e+01
2.440000e-06	2.686568e-06	7.967653e-10	1.867351e+01	5.481397e+01
2.450000e-06	2.726881e-06	8.047207e-10	1.895371e+01	5.550450e+01
2.460000e-06	2.766961e-06	8.138623e-10	1.923230e+01	5.618036e+01
2.470000e-06	2.806908e-06	8.243499e-10	1.950996e+01	5.684207e+01
2.480000e-06	2.846760e-06	8.340527e-10	1.978696e+01	5.749014e+01
2.490000e-06	2.886541e-06	8.423450e-10	2.006347e+01	5.812505e+01
2.500000e-06	2.926198e-06	8.491531e-10	2.033911e+01	5.874726e+01
2.510000e-06	2.965696e-06	8.573077e-10	2.061365e+01	5.935722e+01
2.520000e-06	3.005037e-06	8.666831e-10	2.088709e+01	5.995531e+01
2.530000e-06	3.044123e-06	8.760409e-10	2.115877e+01	6.054193e+01
2.540000e-06	3.082953e-06	8.861205e-10	2.142867e+01	6.111742e+01
2.550000e-06	3.121622e-06	8.964023e-10	2.169744e+01	6.168208e+01
2.560000e-06	3.160055e-06	9.036877e-10	2.196458e+01	6.223620e+01
2.570000e-06	3.198211e-06	9.119793e-10	2.222979e+01	6.278000e+01
2.580000e-06	3.236085e-06	9.222460e-10	2.249304e+01	6.331370e+01
2.590000e-06	3.273817e-06	9.305070e-10	2.275530e+01	6.383747e+01
2.600000e-06	3.311360e-06	9.367331e-10	2.301625e+01	6.435144e+01
2.610000e-06	3.348674e-06	9.421958e-10	2.327561e+01	6.485572e+01
2.620000e-06	3.385771e-06	9.477350e-10	2.353346e+01	6.535039e+01
2.630000e-06	3.422534e-06	9.540785e-10	2.378899e+01	6.583549e+01
2.640000e-06	3.459102e-06	9.614911e-10	2.404316e+01	6.631104e+01
2.650000e-06	3.495472e-06	9.703529e-10	2.429596e+01	6.677706e+01
2.660000e-06	3.531608e-06	9.804420e-10	2.454713e+01	6.723351e+01
2.670000e-06	3.567616e-06	9.894195e-10	2.479741e+01	6.768036e+01
2.680000e-06	3.603478e-06	9.938115e-10	2.504668e+01	6.811755e+01
2.690000e-06	3.639178e-06	9.950963e-10	2.529482e+01	6.854504e+01
2.700000e-06	3.674691e-06	9.985682e-10	2.554165e+01	6.896276e+01
2.710000e-06	3.710011e-06	1.005090e-09	2.578716e+01	6.937063e+01
2.720000e-06	3.745075e-06	1.012015e-09	2.603087e+01	6.976859e+01
2.730000e-06	3.779648e-06	1.018097e-09	2.627118e+01	7.015657e+01
2.740000e-06	3.813704e-06	1.026041e-09	2.650789e+01	7.053452e+01
2.750000e-06	3.847344e-06	1.034167e-09	2.674171e+01	7.090239e+01
2.760000e-06	3.880502e-06	1.038809e-09	2.697219e+01	7.126015e+01
2.770000e-06	3.913234e-06	1.041502e-09	2.719969e+01	7.160778e+01
2.780000e-06	3.945742e-06	1.044462e-09	2.742565e+01	7.194528e+01
2.790000e-06	3.978008e-06	1.048217e-09	2.764992e+01	7.227268e+01
2.800000e-06	4.010052e-06	1.053223e-09	2.787265e+01	7.259002e+01
2.810000e-06	4.041970e-06	1.058710e-09	2.809450e+01	7.289736e+01
2.820000e-06	4.073705e-06	1.064747e-09	2.831508e+01	7.319481e+01
2.830000e-06	4.105264e-06	1.070445e-09	2.853443e+01	7.348248e+01
2.840000e-06	4.136624e-06	1.074758e-09	2.875241e+01	7.376052e+01
2.850000e-06	4.167650e-06	1.078460e-09	2.896806e+01	7.402910e+01
2.860000e-06	4.198348e-06	1.081963e-09	2.918143e+01	7.428842e+01
2.870000e-06	4.228690e-06	1.084864e-09	2.939233e+01	7.453871e+01
2.880000e-06	4.258673e-06	1.085818e-09	2.960074e+01	7.478020e+01
2.890000e-06	4.288391e-06	1.085540e-09	2.980729e+01	7.501318e+01
2.900000e-06	4.317822e-06	1.086269e-09	3.001186e+01	7.523794e+01
