# Temperatura_=_-0.32
# Concentracion g/m^3_=_1620.0
# C_Vs_to_Am_M_A/Vsm_=_65563218390.804596
# pendiente_HvsI_1/m_=_3716.3
# ordenada_HvsI_A/m_=_1297.0
# frecuencia_Hz_=_135092.0631339772

Tiempo_(s)	Campo_(V.s)	Magnetizacion_(V.s)	Campo_(kA/m)	Magnetizacion_(A/m)
0.000000e+00	-5.515769e-06	-1.712424e-09	-3.837418e+01	-1.092351e+02
1.000000e-08	-5.515906e-06	-1.707981e-09	-3.837514e+01	-1.091769e+02
2.000000e-08	-5.515780e-06	-1.704844e-09	-3.837426e+01	-1.091145e+02
3.000000e-08	-5.515303e-06	-1.700960e-09	-3.837094e+01	-1.090481e+02
4.000000e-08	-5.514296e-06	-1.696049e-09	-3.836393e+01	-1.089777e+02
5.000000e-08	-5.512684e-06	-1.694230e-09	-3.835272e+01	-1.089037e+02
6.000000e-08	-5.510492e-06	-1.694439e-09	-3.833747e+01	-1.088261e+02
7.000000e-08	-5.507752e-06	-1.707442e-09	-3.831841e+01	-1.087452e+02
8.000000e-08	-5.504466e-06	-1.718199e-09	-3.829555e+01	-1.086613e+02
9.000000e-08	-5.500699e-06	-1.703460e-09	-3.826934e+01	-1.085744e+02
1.000000e-07	-5.496501e-06	-1.697709e-09	-3.824013e+01	-1.084849e+02
1.100000e-07	-5.492075e-06	-1.715391e-09	-3.820934e+01	-1.083930e+02
1.200000e-07	-5.487578e-06	-1.677332e-09	-3.817805e+01	-1.082988e+02
1.300000e-07	-5.482740e-06	-1.674066e-09	-3.814439e+01	-1.082026e+02
1.400000e-07	-5.477424e-06	-1.655760e-09	-3.810741e+01	-1.081046e+02
1.500000e-07	-5.471701e-06	-1.713623e-09	-3.806759e+01	-1.080050e+02
1.600000e-07	-5.465653e-06	-1.709183e-09	-3.802552e+01	-1.079039e+02
1.700000e-07	-5.459304e-06	-1.682751e-09	-3.798135e+01	-1.078016e+02
1.800000e-07	-5.452415e-06	-1.660830e-09	-3.793341e+01	-1.076982e+02
1.900000e-07	-5.445054e-06	-1.673345e-09	-3.788221e+01	-1.075938e+02
2.000000e-07	-5.437512e-06	-1.678844e-09	-3.782974e+01	-1.074885e+02
2.100000e-07	-5.429743e-06	-1.646996e-09	-3.777569e+01	-1.073825e+02
2.200000e-07	-5.421752e-06	-1.637690e-09	-3.772009e+01	-1.072758e+02
2.300000e-07	-5.413469e-06	-1.615756e-09	-3.766246e+01	-1.071686e+02
2.400000e-07	-5.404671e-06	-1.621909e-09	-3.760125e+01	-1.070607e+02
2.500000e-07	-5.395119e-06	-1.584830e-09	-3.753480e+01	-1.069523e+02
2.600000e-07	-5.384768e-06	-1.591241e-09	-3.746279e+01	-1.068432e+02
2.700000e-07	-5.373885e-06	-1.586863e-09	-3.738707e+01	-1.067335e+02
2.800000e-07	-5.362670e-06	-1.606575e-09	-3.730905e+01	-1.066231e+02
2.900000e-07	-5.351077e-06	-1.577693e-09	-3.722839e+01	-1.065119e+02
3.000000e-07	-5.339047e-06	-1.576573e-09	-3.714470e+01	-1.063997e+02
3.100000e-07	-5.326665e-06	-1.575834e-09	-3.705855e+01	-1.062865e+02
3.200000e-07	-5.313895e-06	-1.588452e-09	-3.696971e+01	-1.061720e+02
3.300000e-07	-5.300678e-06	-1.554853e-09	-3.687775e+01	-1.060560e+02
3.400000e-07	-5.287121e-06	-1.546941e-09	-3.678344e+01	-1.059383e+02
3.500000e-07	-5.273194e-06	-1.562402e-09	-3.668655e+01	-1.058186e+02
3.600000e-07	-5.258687e-06	-1.577769e-09	-3.658562e+01	-1.056968e+02
3.700000e-07	-5.243637e-06	-1.549735e-09	-3.648091e+01	-1.055725e+02
3.800000e-07	-5.228217e-06	-1.556982e-09	-3.637363e+01	-1.054455e+02
3.900000e-07	-5.212305e-06	-1.565795e-09	-3.626293e+01	-1.053154e+02
4.000000e-07	-5.195881e-06	-1.541467e-09	-3.614866e+01	-1.051819e+02
4.100000e-07	-5.179082e-06	-1.537858e-09	-3.603179e+01	-1.050448e+02
4.200000e-07	-5.162001e-06	-1.572728e-09	-3.591296e+01	-1.049036e+02
4.300000e-07	-5.144630e-06	-1.560665e-09	-3.579210e+01	-1.047581e+02
4.400000e-07	-5.126917e-06	-1.515912e-09	-3.566887e+01	-1.046080e+02
4.500000e-07	-5.108835e-06	-1.543451e-09	-3.554307e+01	-1.044529e+02
4.600000e-07	-5.090328e-06	-1.550594e-09	-3.541431e+01	-1.042926e+02
4.700000e-07	-5.071502e-06	-1.514639e-09	-3.528334e+01	-1.041267e+02
4.800000e-07	-5.052328e-06	-1.517688e-09	-3.514994e+01	-1.039549e+02
4.900000e-07	-5.032826e-06	-1.560549e-09	-3.501427e+01	-1.037771e+02
5.000000e-07	-5.013095e-06	-1.519617e-09	-3.487699e+01	-1.035929e+02
5.100000e-07	-4.993140e-06	-1.501392e-09	-3.473816e+01	-1.034021e+02
5.200000e-07	-4.972873e-06	-1.530068e-09	-3.459716e+01	-1.032046e+02
5.300000e-07	-4.952224e-06	-1.517293e-09	-3.445350e+01	-1.030001e+02
5.400000e-07	-4.931242e-06	-1.466088e-09	-3.430753e+01	-1.027884e+02
5.500000e-07	-4.909924e-06	-1.497094e-09	-3.415921e+01	-1.025695e+02
5.600000e-07	-4.888188e-06	-1.507726e-09	-3.400799e+01	-1.023432e+02
5.700000e-07	-4.866095e-06	-1.480306e-09	-3.385428e+01	-1.021095e+02
5.800000e-07	-4.843786e-06	-1.484813e-09	-3.369908e+01	-1.018683e+02
5.900000e-07	-4.821133e-06	-1.510133e-09	-3.354148e+01	-1.016196e+02
6.000000e-07	-4.798073e-06	-1.474308e-09	-3.338104e+01	-1.013634e+02
6.100000e-07	-4.774771e-06	-1.466545e-09	-3.321893e+01	-1.010997e+02
6.200000e-07	-4.751265e-06	-1.484692e-09	-3.305540e+01	-1.008287e+02
6.300000e-07	-4.727534e-06	-1.472612e-09	-3.289029e+01	-1.005503e+02
6.400000e-07	-4.703429e-06	-1.456142e-09	-3.272259e+01	-1.002647e+02
6.500000e-07	-4.678946e-06	-1.473719e-09	-3.255226e+01	-9.997205e+01
6.600000e-07	-4.654003e-06	-1.463056e-09	-3.237873e+01	-9.967249e+01
6.700000e-07	-4.628615e-06	-1.439669e-09	-3.220209e+01	-9.936618e+01
6.800000e-07	-4.602843e-06	-1.446349e-09	-3.202280e+01	-9.905332e+01
6.900000e-07	-4.576453e-06	-1.447086e-09	-3.183920e+01	-9.873411e+01
7.000000e-07	-4.549543e-06	-1.427967e-09	-3.165198e+01	-9.840876e+01
7.100000e-07	-4.522287e-06	-1.427706e-09	-3.146235e+01	-9.807749e+01
7.200000e-07	-4.494746e-06	-1.432729e-09	-3.127074e+01	-9.774053e+01
7.300000e-07	-4.467046e-06	-1.416413e-09	-3.107803e+01	-9.739810e+01
7.400000e-07	-4.439183e-06	-1.411931e-09	-3.088418e+01	-9.705042e+01
7.500000e-07	-4.411031e-06	-1.410562e-09	-3.068833e+01	-9.669773e+01
7.600000e-07	-4.382607e-06	-1.398689e-09	-3.049057e+01	-9.634025e+01
7.700000e-07	-4.353857e-06	-1.387664e-09	-3.029056e+01	-9.597817e+01
7.800000e-07	-4.324806e-06	-1.393446e-09	-3.008844e+01	-9.561170e+01
7.900000e-07	-4.295473e-06	-1.383391e-09	-2.988437e+01	-9.524102e+01
8.000000e-07	-4.265833e-06	-1.371558e-09	-2.967816e+01	-9.486630e+01
8.100000e-07	-4.235942e-06	-1.363806e-09	-2.947020e+01	-9.448769e+01
8.200000e-07	-4.205753e-06	-1.354167e-09	-2.926017e+01	-9.410532e+01
8.300000e-07	-4.175290e-06	-1.332689e-09	-2.904823e+01	-9.371931e+01
8.400000e-07	-4.144533e-06	-1.330117e-09	-2.883425e+01	-9.332973e+01
8.500000e-07	-4.113528e-06	-1.329752e-09	-2.861854e+01	-9.293665e+01
8.600000e-07	-4.082330e-06	-1.324353e-09	-2.840149e+01	-9.254011e+01
8.700000e-07	-4.050921e-06	-1.315825e-09	-2.818298e+01	-9.214012e+01
8.800000e-07	-4.019395e-06	-1.316058e-09	-2.796364e+01	-9.173668e+01
8.900000e-07	-3.987680e-06	-1.304606e-09	-2.774300e+01	-9.132975e+01
9.000000e-07	-3.955673e-06	-1.292273e-09	-2.752032e+01	-9.091928e+01
9.100000e-07	-3.923304e-06	-1.285570e-09	-2.729512e+01	-9.050519e+01
9.200000e-07	-3.890462e-06	-1.279887e-09	-2.706664e+01	-9.008737e+01
9.300000e-07	-3.857180e-06	-1.267333e-09	-2.683508e+01	-8.966570e+01
9.400000e-07	-3.823462e-06	-1.264398e-09	-2.660050e+01	-8.924004e+01
9.500000e-07	-3.789297e-06	-1.262743e-09	-2.636281e+01	-8.881024e+01
9.600000e-07	-3.754683e-06	-1.251405e-09	-2.612200e+01	-8.837613e+01
9.700000e-07	-3.719695e-06	-1.241289e-09	-2.587858e+01	-8.793753e+01
9.800000e-07	-3.684502e-06	-1.238613e-09	-2.563373e+01	-8.749423e+01
9.900000e-07	-3.649114e-06	-1.232439e-09	-2.538754e+01	-8.704606e+01
1.000000e-06	-3.613511e-06	-1.222346e-09	-2.513984e+01	-8.659279e+01
1.010000e-06	-3.577725e-06	-1.220235e-09	-2.489087e+01	-8.613423e+01
1.020000e-06	-3.541840e-06	-1.215991e-09	-2.464121e+01	-8.567017e+01
1.030000e-06	-3.505849e-06	-1.204595e-09	-2.439081e+01	-8.520042e+01
1.040000e-06	-3.469605e-06	-1.195566e-09	-2.413865e+01	-8.472478e+01
1.050000e-06	-3.433029e-06	-1.191819e-09	-2.388419e+01	-8.424307e+01
1.060000e-06	-3.396158e-06	-1.180711e-09	-2.362767e+01	-8.375512e+01
1.070000e-06	-3.359106e-06	-1.171471e-09	-2.336989e+01	-8.326078e+01
1.080000e-06	-3.321844e-06	-1.165136e-09	-2.311066e+01	-8.275990e+01
1.090000e-06	-3.284262e-06	-1.157081e-09	-2.284919e+01	-8.225235e+01
1.100000e-06	-3.246447e-06	-1.144797e-09	-2.258611e+01	-8.173804e+01
1.110000e-06	-3.208425e-06	-1.139207e-09	-2.232158e+01	-8.121689e+01
1.120000e-06	-3.170210e-06	-1.132346e-09	-2.205571e+01	-8.068883e+01
1.130000e-06	-3.131881e-06	-1.122782e-09	-2.178905e+01	-8.015383e+01
1.140000e-06	-3.093341e-06	-1.111999e-09	-2.152092e+01	-7.961186e+01
1.150000e-06	-3.054585e-06	-1.104417e-09	-2.125129e+01	-7.906295e+01
1.160000e-06	-3.015521e-06	-1.092936e-09	-2.097951e+01	-7.850712e+01
1.170000e-06	-2.976214e-06	-1.085198e-09	-2.070605e+01	-7.794442e+01
1.180000e-06	-2.936808e-06	-1.079599e-09	-2.043189e+01	-7.737493e+01
1.190000e-06	-2.897268e-06	-1.072870e-09	-2.015681e+01	-7.679873e+01
1.200000e-06	-2.857622e-06	-1.062917e-09	-1.988098e+01	-7.621594e+01
1.210000e-06	-2.817846e-06	-1.054914e-09	-1.960425e+01	-7.562667e+01
1.220000e-06	-2.777952e-06	-1.044364e-09	-1.932670e+01	-7.503108e+01
1.230000e-06	-2.737857e-06	-1.032399e-09	-1.904775e+01	-7.442929e+01
1.240000e-06	-2.697529e-06	-1.023633e-09	-1.876719e+01	-7.382147e+01
1.250000e-06	-2.657055e-06	-1.016950e-09	-1.848560e+01	-7.320777e+01
1.260000e-06	-2.616310e-06	-1.009067e-09	-1.820213e+01	-7.258834e+01
1.270000e-06	-2.575264e-06	-1.000336e-09	-1.791657e+01	-7.196334e+01
1.280000e-06	-2.533997e-06	-9.929307e-10	-1.762946e+01	-7.133291e+01
1.290000e-06	-2.492364e-06	-9.832151e-10	-1.733982e+01	-7.069718e+01
1.300000e-06	-2.450347e-06	-9.698765e-10	-1.704750e+01	-7.005626e+01
1.310000e-06	-2.408137e-06	-9.573494e-10	-1.675383e+01	-6.941025e+01
1.320000e-06	-2.365703e-06	-9.466196e-10	-1.645862e+01	-6.875923e+01
1.330000e-06	-2.322920e-06	-9.352547e-10	-1.616097e+01	-6.810323e+01
1.340000e-06	-2.279908e-06	-9.252751e-10	-1.586172e+01	-6.744227e+01
1.350000e-06	-2.236703e-06	-9.155272e-10	-1.556114e+01	-6.677632e+01
1.360000e-06	-2.193313e-06	-9.067074e-10	-1.525927e+01	-6.610533e+01
1.370000e-06	-2.149851e-06	-8.973979e-10	-1.495690e+01	-6.542919e+01
1.380000e-06	-2.106337e-06	-8.860449e-10	-1.465416e+01	-6.474776e+01
1.390000e-06	-2.062691e-06	-8.714746e-10	-1.435051e+01	-6.406084e+01
1.400000e-06	-2.018934e-06	-8.572588e-10	-1.404608e+01	-6.336819e+01
1.410000e-06	-1.975089e-06	-8.434327e-10	-1.374104e+01	-6.266952e+01
1.420000e-06	-1.931158e-06	-8.332815e-10	-1.343541e+01	-6.196449e+01
1.430000e-06	-1.887189e-06	-8.221708e-10	-1.312951e+01	-6.125269e+01
1.440000e-06	-1.843113e-06	-8.107702e-10	-1.282286e+01	-6.053370e+01
1.450000e-06	-1.798941e-06	-7.986957e-10	-1.251555e+01	-5.980700e+01
1.460000e-06	-1.754667e-06	-7.854358e-10	-1.220753e+01	-5.907204e+01
1.470000e-06	-1.710222e-06	-7.711205e-10	-1.189832e+01	-5.832824e+01
1.480000e-06	-1.665621e-06	-7.587304e-10	-1.158802e+01	-5.757493e+01
1.490000e-06	-1.620867e-06	-7.481770e-10	-1.127666e+01	-5.681144e+01
1.500000e-06	-1.575959e-06	-7.366326e-10	-1.096423e+01	-5.603702e+01
1.510000e-06	-1.530946e-06	-7.257164e-10	-1.065106e+01	-5.525090e+01
1.520000e-06	-1.485933e-06	-7.161586e-10	-1.033790e+01	-5.445228e+01
1.530000e-06	-1.440839e-06	-7.028655e-10	-1.002417e+01	-5.364031e+01
1.540000e-06	-1.395506e-06	-6.879118e-10	-9.708783e+00	-5.281414e+01
1.550000e-06	-1.350094e-06	-6.722969e-10	-9.392840e+00	-5.197288e+01
1.560000e-06	-1.304646e-06	-6.574973e-10	-9.076656e+00	-5.111563e+01
1.570000e-06	-1.259119e-06	-6.449404e-10	-8.759911e+00	-5.024148e+01
1.580000e-06	-1.213480e-06	-6.334069e-10	-8.442394e+00	-4.934952e+01
1.590000e-06	-1.167738e-06	-6.195697e-10	-8.124161e+00	-4.843884e+01
1.600000e-06	-1.121984e-06	-6.055160e-10	-7.805844e+00	-4.750856e+01
1.610000e-06	-1.076088e-06	-5.926844e-10	-7.486535e+00	-4.655777e+01
1.620000e-06	-1.030106e-06	-5.771580e-10	-7.166631e+00	-4.558564e+01
1.630000e-06	-9.841495e-07	-5.610375e-10	-6.846903e+00	-4.459132e+01
1.640000e-06	-9.381195e-07	-5.483072e-10	-6.526664e+00	-4.357404e+01
1.650000e-06	-8.919280e-07	-5.355546e-10	-6.205301e+00	-4.253303e+01
1.660000e-06	-8.457240e-07	-5.190288e-10	-5.883852e+00	-4.146762e+01
1.670000e-06	-7.995529e-07	-5.039300e-10	-5.562631e+00	-4.037714e+01
1.680000e-06	-7.532596e-07	-4.893744e-10	-5.240561e+00	-3.926103e+01
1.690000e-06	-7.068499e-07	-4.747891e-10	-4.917680e+00	-3.811876e+01
1.700000e-06	-6.603459e-07	-4.588215e-10	-4.594143e+00	-3.694990e+01
1.710000e-06	-6.138264e-07	-4.409514e-10	-4.270499e+00	-3.575410e+01
1.720000e-06	-5.673053e-07	-4.219647e-10	-3.946844e+00	-3.453105e+01
1.730000e-06	-5.207712e-07	-4.018496e-10	-3.623097e+00	-3.328058e+01
1.740000e-06	-4.742222e-07	-3.805247e-10	-3.299248e+00	-3.200257e+01
1.750000e-06	-4.276279e-07	-3.590002e-10	-2.975083e+00	-3.069701e+01
1.760000e-06	-3.809069e-07	-3.394745e-10	-2.650037e+00	-2.936398e+01
1.770000e-06	-3.341179e-07	-3.216839e-10	-2.324518e+00	-2.800366e+01
1.780000e-06	-2.872688e-07	-3.029777e-10	-1.998580e+00	-2.661631e+01
1.790000e-06	-2.403479e-07	-2.848271e-10	-1.672143e+00	-2.520231e+01
1.800000e-06	-1.934818e-07	-2.658987e-10	-1.346087e+00	-2.376213e+01
1.810000e-06	-1.466687e-07	-2.434432e-10	-1.020400e+00	-2.229632e+01
1.820000e-06	-9.985414e-08	-2.182677e-10	-6.947029e-01	-2.080555e+01
1.830000e-06	-5.302289e-08	-1.938906e-10	-3.688897e-01	-1.929056e+01
1.840000e-06	-6.193601e-09	-1.696376e-10	-4.308998e-02	-1.775220e+01
1.850000e-06	4.064716e-08	-1.473377e-10	2.827895e-01	-1.619139e+01
1.860000e-06	8.748541e-08	-1.278606e-10	6.086515e-01	-1.460914e+01
1.870000e-06	1.343216e-07	-1.083826e-10	9.344989e-01	-1.300655e+01
1.880000e-06	1.811627e-07	-8.706965e-11	1.260381e+00	-1.138477e+01
1.890000e-06	2.278931e-07	-6.483632e-11	1.585493e+00	-9.745033e+00
1.900000e-06	2.745648e-07	-4.243921e-11	1.910196e+00	-8.088644e+00
1.910000e-06	3.212265e-07	-1.979098e-11	2.234830e+00	-6.416953e+00
1.920000e-06	3.678792e-07	4.345448e-12	2.559401e+00	-4.731364e+00
1.930000e-06	4.145714e-07	3.029927e-11	2.884247e+00	-3.033327e+00
1.940000e-06	4.611440e-07	5.424231e-11	3.208260e+00	-1.324333e+00
1.950000e-06	5.077210e-07	7.605218e-11	3.532305e+00	3.940996e-01
1.960000e-06	5.543715e-07	9.705854e-11	3.856861e+00	2.120425e+00
1.970000e-06	6.008775e-07	1.178443e-10	4.180412e+00	3.853080e+00
1.980000e-06	6.472519e-07	1.393661e-10	4.503046e+00	5.590490e+00
1.990000e-06	6.936540e-07	1.606015e-10	4.825874e+00	7.331078e+00
2.000000e-06	7.401050e-07	1.819211e-10	5.149041e+00	9.073267e+00
2.010000e-06	7.864377e-07	2.053993e-10	5.471387e+00	1.081549e+01
2.020000e-06	8.326170e-07	2.318057e-10	5.792664e+00	1.255620e+01
2.030000e-06	8.787428e-07	2.601120e-10	6.113570e+00	1.429386e+01
2.040000e-06	9.248694e-07	2.857677e-10	6.434480e+00	1.602698e+01
2.050000e-06	9.708732e-07	3.085969e-10	6.754537e+00	1.775408e+01
2.060000e-06	1.016824e-06	3.305731e-10	7.074225e+00	1.947374e+01
2.070000e-06	1.062793e-06	3.535811e-10	7.394042e+00	2.118457e+01
2.080000e-06	1.108608e-06	3.779481e-10	7.712781e+00	2.288523e+01
2.090000e-06	1.154250e-06	4.033168e-10	8.030320e+00	2.457444e+01
2.100000e-06	1.199806e-06	4.260373e-10	8.347263e+00	2.625096e+01
2.110000e-06	1.245336e-06	4.467064e-10	8.664026e+00	2.791362e+01
2.120000e-06	1.290839e-06	4.684825e-10	8.980595e+00	2.956132e+01
2.130000e-06	1.336254e-06	4.906944e-10	9.296558e+00	3.119300e+01
2.140000e-06	1.381576e-06	5.118581e-10	9.611869e+00	3.280768e+01
2.150000e-06	1.426886e-06	5.331198e-10	9.927098e+00	3.440445e+01
2.160000e-06	1.472081e-06	5.556808e-10	1.024153e+01	3.598246e+01
2.170000e-06	1.517108e-06	5.779364e-10	1.055479e+01	3.754093e+01
2.180000e-06	1.562076e-06	5.986437e-10	1.086764e+01	3.907915e+01
2.190000e-06	1.606838e-06	6.190149e-10	1.117906e+01	4.059649e+01
2.200000e-06	1.651360e-06	6.388513e-10	1.148880e+01	4.209236e+01
2.210000e-06	1.695830e-06	6.566671e-10	1.179819e+01	4.356626e+01
2.220000e-06	1.740194e-06	6.730560e-10	1.210684e+01	4.501773e+01
2.230000e-06	1.784349e-06	6.905172e-10	1.241403e+01	4.644641e+01
2.240000e-06	1.828363e-06	7.099139e-10	1.272024e+01	4.785198e+01
2.250000e-06	1.872315e-06	7.312190e-10	1.302602e+01	4.923416e+01
2.260000e-06	1.916212e-06	7.527523e-10	1.333143e+01	5.059277e+01
2.270000e-06	1.960026e-06	7.709069e-10	1.363625e+01	5.192764e+01
2.280000e-06	2.003750e-06	7.867114e-10	1.394044e+01	5.323868e+01
2.290000e-06	2.047471e-06	8.012442e-10	1.424462e+01	5.452584e+01
2.300000e-06	2.091122e-06	8.156545e-10	1.454830e+01	5.578912e+01
2.310000e-06	2.134670e-06	8.299554e-10	1.485128e+01	5.702855e+01
2.320000e-06	2.178153e-06	8.468495e-10	1.515380e+01	5.824421e+01
2.330000e-06	2.221509e-06	8.662056e-10	1.545543e+01	5.943622e+01
2.340000e-06	2.264734e-06	8.845014e-10	1.575616e+01	6.060472e+01
2.350000e-06	2.307839e-06	9.004844e-10	1.605605e+01	6.174990e+01
2.360000e-06	2.350684e-06	9.148669e-10	1.635413e+01	6.287195e+01
2.370000e-06	2.393257e-06	9.275656e-10	1.665031e+01	6.397112e+01
2.380000e-06	2.435642e-06	9.404838e-10	1.694519e+01	6.504765e+01
2.390000e-06	2.477711e-06	9.541370e-10	1.723787e+01	6.610182e+01
2.400000e-06	2.519514e-06	9.678588e-10	1.752871e+01	6.713392e+01
2.410000e-06	2.561019e-06	9.811875e-10	1.781746e+01	6.814426e+01
2.420000e-06	2.602123e-06	9.958045e-10	1.810343e+01	6.913316e+01
2.430000e-06	2.642872e-06	1.008650e-09	1.838693e+01	7.010095e+01
2.440000e-06	2.683282e-06	1.018460e-09	1.866807e+01	7.104797e+01
2.450000e-06	2.723466e-06	1.028758e-09	1.894764e+01	7.197457e+01
2.460000e-06	2.763492e-06	1.040042e-09	1.922610e+01	7.288112e+01
2.470000e-06	2.803396e-06	1.053227e-09	1.950372e+01	7.376796e+01
2.480000e-06	2.843194e-06	1.065699e-09	1.978061e+01	7.463547e+01
2.490000e-06	2.882855e-06	1.077099e-09	2.005653e+01	7.548402e+01
2.500000e-06	2.922389e-06	1.087111e-09	2.033158e+01	7.631397e+01
2.510000e-06	2.961766e-06	1.097826e-09	2.060553e+01	7.712570e+01
2.520000e-06	3.001034e-06	1.107689e-09	2.087872e+01	7.791959e+01
2.530000e-06	3.040152e-06	1.117769e-09	2.115088e+01	7.869601e+01
2.540000e-06	3.079011e-06	1.129459e-09	2.142122e+01	7.945533e+01
2.550000e-06	3.117694e-06	1.141805e-09	2.169035e+01	8.019793e+01
2.560000e-06	3.156121e-06	1.152878e-09	2.195769e+01	8.092418e+01
2.570000e-06	3.194225e-06	1.162268e-09	2.222279e+01	8.163445e+01
2.580000e-06	3.232048e-06	1.170784e-09	2.248593e+01	8.232912e+01
2.590000e-06	3.269749e-06	1.178566e-09	2.274822e+01	8.300856e+01
2.600000e-06	3.307311e-06	1.185075e-09	2.300955e+01	8.367313e+01
2.610000e-06	3.344613e-06	1.192874e-09	2.326906e+01	8.432320e+01
2.620000e-06	3.381735e-06	1.203023e-09	2.352733e+01	8.495913e+01
2.630000e-06	3.418544e-06	1.215656e-09	2.378341e+01	8.558129e+01
2.640000e-06	3.455060e-06	1.226333e-09	2.403746e+01	8.619003e+01
2.650000e-06	3.491361e-06	1.235106e-09	2.429002e+01	8.678571e+01
2.660000e-06	3.527395e-06	1.245428e-09	2.454071e+01	8.736868e+01
2.670000e-06	3.563239e-06	1.252741e-09	2.479008e+01	8.793929e+01
2.680000e-06	3.598899e-06	1.258591e-09	2.503818e+01	8.849788e+01
2.690000e-06	3.634458e-06	1.261444e-09	2.528557e+01	8.904479e+01
2.700000e-06	3.669994e-06	1.266250e-09	2.553280e+01	8.958036e+01
2.710000e-06	3.705344e-06	1.274334e-09	2.577874e+01	9.010491e+01
2.720000e-06	3.740397e-06	1.283496e-09	2.602261e+01	9.061876e+01
2.730000e-06	3.775094e-06	1.292346e-09	2.626400e+01	9.112223e+01
2.740000e-06	3.809465e-06	1.299948e-09	2.650313e+01	9.161563e+01
2.750000e-06	3.843396e-06	1.306237e-09	2.673919e+01	9.209924e+01
2.760000e-06	3.876764e-06	1.311132e-09	2.697134e+01	9.257337e+01
2.770000e-06	3.909662e-06	1.314763e-09	2.720021e+01	9.303829e+01
2.780000e-06	3.942061e-06	1.320869e-09	2.742562e+01	9.349426e+01
2.790000e-06	3.974114e-06	1.327487e-09	2.764861e+01	9.394155e+01
2.800000e-06	4.006003e-06	1.333108e-09	2.787047e+01	9.438040e+01
2.810000e-06	4.037694e-06	1.339006e-09	2.809095e+01	9.481105e+01
2.820000e-06	4.069221e-06	1.344680e-09	2.831029e+01	9.523372e+01
2.830000e-06	4.100662e-06	1.351538e-09	2.852904e+01	9.564861e+01
2.840000e-06	4.131918e-06	1.357112e-09	2.874648e+01	9.605593e+01
2.850000e-06	4.162844e-06	1.359747e-09	2.896164e+01	9.645586e+01
2.860000e-06	4.193497e-06	1.362374e-09	2.917490e+01	9.684856e+01
2.870000e-06	4.223821e-06	1.366485e-09	2.938587e+01	9.723420e+01
2.880000e-06	4.253759e-06	1.370748e-09	2.959416e+01	9.761291e+01
2.890000e-06	4.283440e-06	1.374115e-09	2.980065e+01	9.798482e+01
2.900000e-06	4.312912e-06	1.377772e-09	3.000569e+01	9.835004e+01
