# Temperatura_=_-0.34
# Concentracion g/m^3_=_1620.0
# C_Vs_to_Am_M_A/Vsm_=_65563218390.804596
# pendiente_HvsI_1/m_=_3716.3
# ordenada_HvsI_A/m_=_1297.0
# frecuencia_Hz_=_135088.73086803517

Tiempo_(s)	Campo_(V.s)	Magnetizacion_(V.s)	Campo_(kA/m)	Magnetizacion_(A/m)
0.000000e+00	-5.522668e-06	-1.754340e-09	-3.838464e+01	-1.128745e+02
1.000000e-08	-5.522669e-06	-1.748702e-09	-3.838465e+01	-1.128564e+02
2.000000e-08	-5.522369e-06	-1.744193e-09	-3.838256e+01	-1.128340e+02
3.000000e-08	-5.521670e-06	-1.742491e-09	-3.837771e+01	-1.128074e+02
4.000000e-08	-5.520457e-06	-1.740745e-09	-3.836928e+01	-1.127765e+02
5.000000e-08	-5.518623e-06	-1.741538e-09	-3.835652e+01	-1.127414e+02
6.000000e-08	-5.516176e-06	-1.751183e-09	-3.833952e+01	-1.127021e+02
7.000000e-08	-5.513208e-06	-1.782505e-09	-3.831889e+01	-1.126586e+02
8.000000e-08	-5.509814e-06	-1.780783e-09	-3.829530e+01	-1.126110e+02
9.000000e-08	-5.505965e-06	-1.697556e-09	-3.826855e+01	-1.125592e+02
1.000000e-07	-5.501833e-06	-1.637718e-09	-3.823983e+01	-1.125034e+02
1.100000e-07	-5.497524e-06	-1.726263e-09	-3.820988e+01	-1.124434e+02
1.200000e-07	-5.492847e-06	-1.847901e-09	-3.817737e+01	-1.123794e+02
1.300000e-07	-5.487695e-06	-1.766436e-09	-3.814156e+01	-1.123114e+02
1.400000e-07	-5.482249e-06	-1.656788e-09	-3.810371e+01	-1.122394e+02
1.500000e-07	-5.476517e-06	-1.734667e-09	-3.806387e+01	-1.121633e+02
1.600000e-07	-5.470323e-06	-1.840122e-09	-3.802082e+01	-1.120833e+02
1.700000e-07	-5.463694e-06	-1.763580e-09	-3.797475e+01	-1.119993e+02
1.800000e-07	-5.456655e-06	-1.601180e-09	-3.792582e+01	-1.119113e+02
1.900000e-07	-5.449325e-06	-1.655463e-09	-3.787488e+01	-1.118194e+02
2.000000e-07	-5.441690e-06	-1.746085e-09	-3.782181e+01	-1.117234e+02
2.100000e-07	-5.433757e-06	-1.750646e-09	-3.776667e+01	-1.116235e+02
2.200000e-07	-5.425651e-06	-1.660331e-09	-3.771034e+01	-1.115196e+02
2.300000e-07	-5.417151e-06	-1.664822e-09	-3.765126e+01	-1.114117e+02
2.400000e-07	-5.408021e-06	-1.680243e-09	-3.758780e+01	-1.112998e+02
2.500000e-07	-5.398200e-06	-1.673338e-09	-3.751954e+01	-1.111838e+02
2.600000e-07	-5.387720e-06	-1.638635e-09	-3.744670e+01	-1.110638e+02
2.700000e-07	-5.376809e-06	-1.655859e-09	-3.737087e+01	-1.109397e+02
2.800000e-07	-5.365442e-06	-1.670025e-09	-3.729186e+01	-1.108114e+02
2.900000e-07	-5.353623e-06	-1.660492e-09	-3.720971e+01	-1.106791e+02
3.000000e-07	-5.341435e-06	-1.653599e-09	-3.712500e+01	-1.105425e+02
3.100000e-07	-5.328811e-06	-1.644350e-09	-3.703726e+01	-1.104017e+02
3.200000e-07	-5.315810e-06	-1.658243e-09	-3.694690e+01	-1.102567e+02
3.300000e-07	-5.302482e-06	-1.651302e-09	-3.685426e+01	-1.101074e+02
3.400000e-07	-5.288743e-06	-1.637449e-09	-3.675877e+01	-1.099537e+02
3.500000e-07	-5.274615e-06	-1.613570e-09	-3.666058e+01	-1.097957e+02
3.600000e-07	-5.260073e-06	-1.653158e-09	-3.655951e+01	-1.096333e+02
3.700000e-07	-5.244999e-06	-1.645315e-09	-3.645474e+01	-1.094664e+02
3.800000e-07	-5.229236e-06	-1.626394e-09	-3.634518e+01	-1.092951e+02
3.900000e-07	-5.212933e-06	-1.636425e-09	-3.623186e+01	-1.091192e+02
4.000000e-07	-5.196465e-06	-1.655635e-09	-3.611740e+01	-1.089387e+02
4.100000e-07	-5.179633e-06	-1.595240e-09	-3.600042e+01	-1.087536e+02
4.200000e-07	-5.162336e-06	-1.613947e-09	-3.588020e+01	-1.085638e+02
4.300000e-07	-5.144683e-06	-1.667804e-09	-3.575750e+01	-1.083694e+02
4.400000e-07	-5.126715e-06	-1.626858e-09	-3.563262e+01	-1.081702e+02
4.500000e-07	-5.108445e-06	-1.560140e-09	-3.550563e+01	-1.079663e+02
4.600000e-07	-5.089800e-06	-1.636929e-09	-3.537604e+01	-1.077575e+02
4.700000e-07	-5.070760e-06	-1.647102e-09	-3.524370e+01	-1.075439e+02
4.800000e-07	-5.051390e-06	-1.569106e-09	-3.510908e+01	-1.073254e+02
4.900000e-07	-5.031765e-06	-1.588751e-09	-3.497268e+01	-1.071020e+02
5.000000e-07	-5.011912e-06	-1.647084e-09	-3.483469e+01	-1.068737e+02
5.100000e-07	-4.991765e-06	-1.571359e-09	-3.469466e+01	-1.066403e+02
5.200000e-07	-4.971267e-06	-1.559694e-09	-3.455220e+01	-1.064020e+02
5.300000e-07	-4.950431e-06	-1.627352e-09	-3.440738e+01	-1.061586e+02
5.400000e-07	-4.929302e-06	-1.573820e-09	-3.426052e+01	-1.059101e+02
5.500000e-07	-4.907768e-06	-1.512236e-09	-3.411085e+01	-1.056564e+02
5.600000e-07	-4.885884e-06	-1.591643e-09	-3.395875e+01	-1.053976e+02
5.700000e-07	-4.863764e-06	-1.600986e-09	-3.380501e+01	-1.051336e+02
5.800000e-07	-4.841263e-06	-1.518126e-09	-3.364861e+01	-1.048644e+02
5.900000e-07	-4.818454e-06	-1.550328e-09	-3.349008e+01	-1.045899e+02
6.000000e-07	-4.795467e-06	-1.591706e-09	-3.333031e+01	-1.043100e+02
6.100000e-07	-4.772219e-06	-1.528064e-09	-3.316874e+01	-1.040248e+02
6.200000e-07	-4.748675e-06	-1.513513e-09	-3.300509e+01	-1.037342e+02
6.300000e-07	-4.724803e-06	-1.566375e-09	-3.283918e+01	-1.034382e+02
6.400000e-07	-4.700538e-06	-1.530968e-09	-3.267052e+01	-1.031366e+02
6.500000e-07	-4.675916e-06	-1.501070e-09	-3.249939e+01	-1.028296e+02
6.600000e-07	-4.650835e-06	-1.530823e-09	-3.232507e+01	-1.025169e+02
6.700000e-07	-4.625293e-06	-1.519106e-09	-3.214754e+01	-1.021986e+02
6.800000e-07	-4.599231e-06	-1.470228e-09	-3.196640e+01	-1.018746e+02
6.900000e-07	-4.572567e-06	-1.491287e-09	-3.178108e+01	-1.015449e+02
7.000000e-07	-4.545528e-06	-1.498171e-09	-3.159315e+01	-1.012095e+02
7.100000e-07	-4.518255e-06	-1.469973e-09	-3.140359e+01	-1.008681e+02
7.200000e-07	-4.490728e-06	-1.468024e-09	-3.121227e+01	-1.005209e+02
7.300000e-07	-4.462986e-06	-1.488062e-09	-3.101945e+01	-1.001678e+02
7.400000e-07	-4.435036e-06	-1.462524e-09	-3.082518e+01	-9.980870e+01
7.500000e-07	-4.406807e-06	-1.446723e-09	-3.062898e+01	-9.944356e+01
7.600000e-07	-4.378267e-06	-1.450690e-09	-3.043062e+01	-9.907234e+01
7.700000e-07	-4.349497e-06	-1.442431e-09	-3.023066e+01	-9.869500e+01
7.800000e-07	-4.320476e-06	-1.425149e-09	-3.002895e+01	-9.831150e+01
7.900000e-07	-4.291131e-06	-1.429516e-09	-2.982499e+01	-9.792179e+01
8.000000e-07	-4.261460e-06	-1.419345e-09	-2.961876e+01	-9.752585e+01
8.100000e-07	-4.231507e-06	-1.399897e-09	-2.941058e+01	-9.712363e+01
8.200000e-07	-4.201219e-06	-1.392332e-09	-2.920007e+01	-9.671511e+01
8.300000e-07	-4.170653e-06	-1.388052e-09	-2.898762e+01	-9.630027e+01
8.400000e-07	-4.139866e-06	-1.372189e-09	-2.877364e+01	-9.587907e+01
8.500000e-07	-4.108847e-06	-1.369965e-09	-2.855804e+01	-9.545152e+01
8.600000e-07	-4.077547e-06	-1.376500e-09	-2.834050e+01	-9.501760e+01
8.700000e-07	-4.045927e-06	-1.365807e-09	-2.812073e+01	-9.457731e+01
8.800000e-07	-4.014194e-06	-1.354860e-09	-2.790017e+01	-9.413065e+01
8.900000e-07	-3.982323e-06	-1.349493e-09	-2.767865e+01	-9.367762e+01
9.000000e-07	-3.950137e-06	-1.336070e-09	-2.745495e+01	-9.321825e+01
9.100000e-07	-3.917420e-06	-1.320964e-09	-2.722755e+01	-9.275256e+01
9.200000e-07	-3.884420e-06	-1.323553e-09	-2.699819e+01	-9.228057e+01
9.300000e-07	-3.851253e-06	-1.318036e-09	-2.676767e+01	-9.180233e+01
9.400000e-07	-3.817589e-06	-1.305122e-09	-2.653369e+01	-9.131786e+01
9.500000e-07	-3.783397e-06	-1.301843e-09	-2.629605e+01	-9.082722e+01
9.600000e-07	-3.748842e-06	-1.301366e-09	-2.605588e+01	-9.033047e+01
9.700000e-07	-3.713945e-06	-1.283402e-09	-2.581333e+01	-8.982765e+01
9.800000e-07	-3.678659e-06	-1.274421e-09	-2.556807e+01	-8.931885e+01
9.900000e-07	-3.643165e-06	-1.272621e-09	-2.532138e+01	-8.880411e+01
1.000000e-06	-3.607540e-06	-1.265934e-09	-2.507378e+01	-8.828353e+01
1.010000e-06	-3.571726e-06	-1.255056e-09	-2.482485e+01	-8.775718e+01
1.020000e-06	-3.535761e-06	-1.259155e-09	-2.457488e+01	-8.722513e+01
1.030000e-06	-3.499597e-06	-1.253576e-09	-2.432353e+01	-8.668747e+01
1.040000e-06	-3.463240e-06	-1.239930e-09	-2.407084e+01	-8.614430e+01
1.050000e-06	-3.426669e-06	-1.231783e-09	-2.381665e+01	-8.559568e+01
1.060000e-06	-3.389752e-06	-1.226866e-09	-2.356006e+01	-8.504172e+01
1.070000e-06	-3.352504e-06	-1.211341e-09	-2.330118e+01	-8.448249e+01
1.080000e-06	-3.315063e-06	-1.203973e-09	-2.304095e+01	-8.391808e+01
1.090000e-06	-3.277404e-06	-1.203817e-09	-2.277921e+01	-8.334858e+01
1.100000e-06	-3.239533e-06	-1.193632e-09	-2.251598e+01	-8.277405e+01
1.110000e-06	-3.201419e-06	-1.178010e-09	-2.225108e+01	-8.219457e+01
1.120000e-06	-3.163055e-06	-1.170589e-09	-2.198443e+01	-8.161022e+01
1.130000e-06	-3.124503e-06	-1.162186e-09	-2.171648e+01	-8.102105e+01
1.140000e-06	-3.085665e-06	-1.148284e-09	-2.144654e+01	-8.042710e+01
1.150000e-06	-3.046707e-06	-1.141383e-09	-2.117577e+01	-7.982844e+01
1.160000e-06	-3.007612e-06	-1.137804e-09	-2.090405e+01	-7.922509e+01
1.170000e-06	-2.968261e-06	-1.126597e-09	-2.063054e+01	-7.861707e+01
1.180000e-06	-2.928795e-06	-1.114769e-09	-2.035624e+01	-7.800440e+01
1.190000e-06	-2.889253e-06	-1.108032e-09	-2.008141e+01	-7.738708e+01
1.200000e-06	-2.849563e-06	-1.096981e-09	-1.980555e+01	-7.676508e+01
1.210000e-06	-2.809691e-06	-1.083846e-09	-1.952842e+01	-7.613839e+01
1.220000e-06	-2.769604e-06	-1.072559e-09	-1.924980e+01	-7.550694e+01
1.230000e-06	-2.729379e-06	-1.062175e-09	-1.897022e+01	-7.487070e+01
1.240000e-06	-2.688999e-06	-1.048588e-09	-1.868957e+01	-7.422956e+01
1.250000e-06	-2.648403e-06	-1.041601e-09	-1.840741e+01	-7.358345e+01
1.260000e-06	-2.607561e-06	-1.034753e-09	-1.812354e+01	-7.293223e+01
1.270000e-06	-2.566461e-06	-1.023552e-09	-1.783788e+01	-7.227579e+01
1.280000e-06	-2.524973e-06	-1.011757e-09	-1.754952e+01	-7.161396e+01
1.290000e-06	-2.483092e-06	-1.001649e-09	-1.725844e+01	-7.094658e+01
1.300000e-06	-2.441011e-06	-9.863462e-10	-1.696596e+01	-7.027345e+01
1.310000e-06	-2.398745e-06	-9.695818e-10	-1.667219e+01	-6.959436e+01
1.320000e-06	-2.356189e-06	-9.546522e-10	-1.637641e+01	-6.890908e+01
1.330000e-06	-2.313373e-06	-9.415039e-10	-1.607882e+01	-6.821735e+01
1.340000e-06	-2.270326e-06	-9.296387e-10	-1.577962e+01	-6.751890e+01
1.350000e-06	-2.227075e-06	-9.222663e-10	-1.547902e+01	-6.681344e+01
1.360000e-06	-2.183726e-06	-9.128417e-10	-1.517772e+01	-6.610065e+01
1.370000e-06	-2.140251e-06	-9.008779e-10	-1.487555e+01	-6.538020e+01
1.380000e-06	-2.096653e-06	-8.868342e-10	-1.457253e+01	-6.465175e+01
1.390000e-06	-2.052951e-06	-8.719197e-10	-1.426879e+01	-6.391491e+01
1.400000e-06	-2.009167e-06	-8.554180e-10	-1.396448e+01	-6.316930e+01
1.410000e-06	-1.965260e-06	-8.409358e-10	-1.365930e+01	-6.241452e+01
1.420000e-06	-1.921264e-06	-8.297204e-10	-1.335352e+01	-6.165014e+01
1.430000e-06	-1.877222e-06	-8.182364e-10	-1.304740e+01	-6.087572e+01
1.440000e-06	-1.833063e-06	-8.039381e-10	-1.274048e+01	-6.009082e+01
1.450000e-06	-1.788724e-06	-7.904480e-10	-1.243231e+01	-5.929497e+01
1.460000e-06	-1.744220e-06	-7.792718e-10	-1.212299e+01	-5.848770e+01
1.470000e-06	-1.699625e-06	-7.672040e-10	-1.181304e+01	-5.766850e+01
1.480000e-06	-1.654970e-06	-7.534279e-10	-1.150267e+01	-5.683690e+01
1.490000e-06	-1.610168e-06	-7.420771e-10	-1.119128e+01	-5.599238e+01
1.500000e-06	-1.565233e-06	-7.325770e-10	-1.087896e+01	-5.513443e+01
1.510000e-06	-1.520184e-06	-7.189270e-10	-1.056586e+01	-5.426254e+01
1.520000e-06	-1.475047e-06	-7.044329e-10	-1.025214e+01	-5.337619e+01
1.530000e-06	-1.429765e-06	-6.937309e-10	-9.937413e+00	-5.247486e+01
1.540000e-06	-1.384354e-06	-6.846460e-10	-9.621786e+00	-5.155803e+01
1.550000e-06	-1.338845e-06	-6.724385e-10	-9.305482e+00	-5.062519e+01
1.560000e-06	-1.293250e-06	-6.591727e-10	-8.988582e+00	-4.967582e+01
1.570000e-06	-1.247679e-06	-6.436968e-10	-8.671842e+00	-4.870942e+01
1.580000e-06	-1.202091e-06	-6.253094e-10	-8.354992e+00	-4.772551e+01
1.590000e-06	-1.156370e-06	-6.057787e-10	-8.037211e+00	-4.672359e+01
1.600000e-06	-1.110540e-06	-5.909549e-10	-7.718678e+00	-4.570319e+01
1.610000e-06	-1.064557e-06	-5.731844e-10	-7.399075e+00	-4.466388e+01
1.620000e-06	-1.018433e-06	-5.525440e-10	-7.078494e+00	-4.360521e+01
1.630000e-06	-9.723948e-07	-5.345861e-10	-6.758513e+00	-4.252677e+01
1.640000e-06	-9.262281e-07	-5.204973e-10	-6.437637e+00	-4.142817e+01
1.650000e-06	-8.799424e-07	-5.096730e-10	-6.115934e+00	-4.030906e+01
1.660000e-06	-8.336870e-07	-4.981463e-10	-5.794441e+00	-3.916909e+01
1.670000e-06	-7.873171e-07	-4.855930e-10	-5.472153e+00	-3.800796e+01
1.680000e-06	-7.408413e-07	-4.662783e-10	-5.149128e+00	-3.682541e+01
1.690000e-06	-6.943821e-07	-4.456311e-10	-4.826219e+00	-3.562120e+01
1.700000e-06	-6.478570e-07	-4.241123e-10	-4.502852e+00	-3.439514e+01
1.710000e-06	-6.012619e-07	-4.031745e-10	-4.178999e+00	-3.314706e+01
1.720000e-06	-5.547017e-07	-3.857487e-10	-3.855387e+00	-3.187685e+01
1.730000e-06	-5.080221e-07	-3.688369e-10	-3.530947e+00	-3.058446e+01
1.740000e-06	-4.612490e-07	-3.536514e-10	-3.205856e+00	-2.926985e+01
1.750000e-06	-4.145436e-07	-3.377018e-10	-2.881236e+00	-2.793306e+01
1.760000e-06	-3.678533e-07	-3.186951e-10	-2.556720e+00	-2.657415e+01
1.770000e-06	-3.210416e-07	-2.970238e-10	-2.231361e+00	-2.519328e+01
1.780000e-06	-2.742407e-07	-2.732946e-10	-1.906077e+00	-2.379061e+01
1.790000e-06	-2.274978e-07	-2.513956e-10	-1.581196e+00	-2.236638e+01
1.800000e-06	-1.806318e-07	-2.318348e-10	-1.255460e+00	-2.092091e+01
1.810000e-06	-1.337680e-07	-2.126320e-10	-9.297386e-01	-1.945453e+01
1.820000e-06	-8.694919e-08	-1.951346e-10	-6.043299e-01	-1.796766e+01
1.830000e-06	-4.015666e-08	-1.751964e-10	-2.791041e-01	-1.646077e+01
1.840000e-06	6.626156e-09	-1.533306e-10	4.605430e-02	-1.493440e+01
1.850000e-06	5.342569e-08	-1.314042e-10	3.713288e-01	-1.338913e+01
1.860000e-06	1.002433e-07	-1.068524e-10	6.967291e-01	-1.182561e+01
1.870000e-06	1.471767e-07	-8.042370e-11	1.022934e+00	-1.024454e+01
1.880000e-06	1.941317e-07	-5.678333e-11	1.349289e+00	-8.646705e+00
1.890000e-06	2.408976e-07	-3.649387e-11	1.674330e+00	-7.032917e+00
1.900000e-06	2.875888e-07	-1.875642e-11	1.998852e+00	-5.404056e+00
1.910000e-06	3.343619e-07	-1.007888e-12	2.323942e+00	-3.761057e+00
1.920000e-06	3.811362e-07	2.062820e-11	2.649041e+00	-2.104908e+00
1.930000e-06	4.279476e-07	4.800541e-11	2.974399e+00	-4.366449e-01
1.940000e-06	4.746394e-07	7.682940e-11	3.298924e+00	1.242645e+00
1.950000e-06	5.212464e-07	1.034344e-10	3.622860e+00	2.931830e+00
1.960000e-06	5.678975e-07	1.278434e-10	3.947103e+00	4.629734e+00
1.970000e-06	6.145261e-07	1.514640e-10	4.271190e+00	6.335144e+00
1.980000e-06	6.609937e-07	1.751045e-10	4.594157e+00	8.046808e+00
1.990000e-06	7.073733e-07	1.966524e-10	4.916513e+00	9.763442e+00
2.000000e-06	7.537596e-07	2.179621e-10	5.238916e+00	1.148373e+01
2.010000e-06	8.000767e-07	2.405511e-10	5.560837e+00	1.320634e+01
2.020000e-06	8.463107e-07	2.654287e-10	5.882181e+00	1.492991e+01
2.030000e-06	8.925091e-07	2.952759e-10	6.203277e+00	1.665306e+01
2.040000e-06	9.386675e-07	3.243636e-10	6.524096e+00	1.837442e+01
2.050000e-06	9.847522e-07	3.501570e-10	6.844402e+00	2.009258e+01
2.060000e-06	1.030758e-06	3.723522e-10	7.164158e+00	2.180615e+01
2.070000e-06	1.076620e-06	3.913898e-10	7.482916e+00	2.351374e+01
2.080000e-06	1.122417e-06	4.104992e-10	7.801222e+00	2.521397e+01
2.090000e-06	1.168152e-06	4.357695e-10	8.119098e+00	2.690546e+01
2.100000e-06	1.213832e-06	4.630522e-10	8.436596e+00	2.858686e+01
2.110000e-06	1.259432e-06	4.897191e-10	8.753529e+00	3.025684e+01
2.120000e-06	1.304906e-06	5.151436e-10	9.069591e+00	3.191410e+01
2.130000e-06	1.350372e-06	5.395247e-10	9.385598e+00	3.355737e+01
2.140000e-06	1.395738e-06	5.596250e-10	9.700912e+00	3.518541e+01
2.150000e-06	1.440881e-06	5.767345e-10	1.001467e+01	3.679705e+01
2.160000e-06	1.485933e-06	5.965357e-10	1.032780e+01	3.839113e+01
2.170000e-06	1.530913e-06	6.182447e-10	1.064043e+01	3.996656e+01
2.180000e-06	1.575807e-06	6.412265e-10	1.095246e+01	4.152230e+01
2.190000e-06	1.620596e-06	6.648869e-10	1.126376e+01	4.305738e+01
2.200000e-06	1.665244e-06	6.871673e-10	1.157408e+01	4.457088e+01
2.210000e-06	1.709738e-06	7.054856e-10	1.188333e+01	4.606194e+01
2.220000e-06	1.754095e-06	7.205679e-10	1.219162e+01	4.752979e+01
2.230000e-06	1.798298e-06	7.372750e-10	1.249886e+01	4.897370e+01
2.240000e-06	1.842359e-06	7.571885e-10	1.280510e+01	5.039305e+01
2.250000e-06	1.886324e-06	7.778941e-10	1.311067e+01	5.178725e+01
2.260000e-06	1.930258e-06	7.984096e-10	1.341602e+01	5.315582e+01
2.270000e-06	1.974134e-06	8.164107e-10	1.372098e+01	5.449834e+01
2.280000e-06	2.017927e-06	8.335085e-10	1.402536e+01	5.581449e+01
2.290000e-06	2.061695e-06	8.482983e-10	1.432956e+01	5.710399e+01
2.300000e-06	2.105424e-06	8.623479e-10	1.463350e+01	5.836666e+01
2.310000e-06	2.149077e-06	8.758782e-10	1.493690e+01	5.960241e+01
2.320000e-06	2.192629e-06	8.925555e-10	1.523961e+01	6.081119e+01
2.330000e-06	2.236070e-06	9.100232e-10	1.554154e+01	6.199304e+01
2.340000e-06	2.279346e-06	9.260386e-10	1.584232e+01	6.314810e+01
2.350000e-06	2.322440e-06	9.400195e-10	1.614184e+01	6.427653e+01
2.360000e-06	2.365273e-06	9.526707e-10	1.643954e+01	6.537859e+01
2.370000e-06	2.407745e-06	9.646717e-10	1.673474e+01	6.645459e+01
2.380000e-06	2.449863e-06	9.763749e-10	1.702748e+01	6.750492e+01
2.390000e-06	2.491706e-06	9.880785e-10	1.731831e+01	6.852999e+01
2.400000e-06	2.533280e-06	1.000801e-09	1.760725e+01	6.953031e+01
2.410000e-06	2.574456e-06	1.015025e-09	1.789345e+01	7.050640e+01
2.420000e-06	2.615377e-06	1.030076e-09	1.817786e+01	7.145885e+01
2.430000e-06	2.656094e-06	1.044024e-09	1.846086e+01	7.238827e+01
2.440000e-06	2.696563e-06	1.054610e-09	1.874213e+01	7.329533e+01
2.450000e-06	2.736864e-06	1.064920e-09	1.902225e+01	7.418071e+01
2.460000e-06	2.776992e-06	1.076773e-09	1.930115e+01	7.504512e+01
2.470000e-06	2.816950e-06	1.086640e-09	1.957887e+01	7.588930e+01
2.480000e-06	2.856744e-06	1.095571e-09	1.985546e+01	7.671400e+01
2.490000e-06	2.896443e-06	1.107169e-09	2.013138e+01	7.751998e+01
2.500000e-06	2.936036e-06	1.119418e-09	2.040656e+01	7.830801e+01
2.510000e-06	2.975470e-06	1.131594e-09	2.068064e+01	7.907886e+01
2.520000e-06	3.014766e-06	1.144384e-09	2.095377e+01	7.983329e+01
2.530000e-06	3.053823e-06	1.158403e-09	2.122523e+01	8.057206e+01
2.540000e-06	3.092545e-06	1.171555e-09	2.149437e+01	8.129592e+01
2.550000e-06	3.131021e-06	1.180949e-09	2.176179e+01	8.200559e+01
2.560000e-06	3.169282e-06	1.187840e-09	2.202771e+01	8.270179e+01
2.570000e-06	3.207367e-06	1.196106e-09	2.229242e+01	8.338520e+01
2.580000e-06	3.245254e-06	1.206229e-09	2.255575e+01	8.405648e+01
2.590000e-06	3.282910e-06	1.218198e-09	2.281747e+01	8.471626e+01
2.600000e-06	3.320415e-06	1.229004e-09	2.307814e+01	8.536512e+01
2.610000e-06	3.357734e-06	1.238886e-09	2.333752e+01	8.600363e+01
2.620000e-06	3.394717e-06	1.249249e-09	2.359457e+01	8.663230e+01
2.630000e-06	3.431437e-06	1.259520e-09	2.384979e+01	8.725163e+01
2.640000e-06	3.467948e-06	1.269425e-09	2.410356e+01	8.786204e+01
2.650000e-06	3.504234e-06	1.279929e-09	2.435575e+01	8.846393e+01
2.660000e-06	3.540267e-06	1.290124e-09	2.460620e+01	8.905766e+01
2.670000e-06	3.576080e-06	1.299313e-09	2.485511e+01	8.964354e+01
2.680000e-06	3.611805e-06	1.307995e-09	2.510341e+01	9.022184e+01
2.690000e-06	3.647447e-06	1.314088e-09	2.535114e+01	9.079279e+01
2.700000e-06	3.682986e-06	1.318972e-09	2.559815e+01	9.135657e+01
2.710000e-06	3.718402e-06	1.328649e-09	2.584430e+01	9.191332e+01
2.720000e-06	3.753536e-06	1.340319e-09	2.608850e+01	9.246315e+01
2.730000e-06	3.788234e-06	1.351599e-09	2.632966e+01	9.300613e+01
2.740000e-06	3.822561e-06	1.357864e-09	2.656825e+01	9.354229e+01
2.750000e-06	3.856306e-06	1.362038e-09	2.680279e+01	9.407162e+01
2.760000e-06	3.889404e-06	1.364840e-09	2.703283e+01	9.459410e+01
2.770000e-06	3.922161e-06	1.372743e-09	2.726051e+01	9.510966e+01
2.780000e-06	3.954635e-06	1.384389e-09	2.748621e+01	9.561821e+01
2.790000e-06	3.986782e-06	1.394417e-09	2.770965e+01	9.611965e+01
2.800000e-06	4.018725e-06	1.402372e-09	2.793166e+01	9.661385e+01
2.810000e-06	4.050551e-06	1.405187e-09	2.815287e+01	9.710066e+01
2.820000e-06	4.082242e-06	1.408787e-09	2.837313e+01	9.757991e+01
2.830000e-06	4.113731e-06	1.414027e-09	2.859199e+01	9.805145e+01
2.840000e-06	4.144920e-06	1.421649e-09	2.880877e+01	9.851509e+01
2.850000e-06	4.175824e-06	1.428981e-09	2.902356e+01	9.897064e+01
2.860000e-06	4.206390e-06	1.433289e-09	2.923601e+01	9.941794e+01
2.870000e-06	4.236557e-06	1.437155e-09	2.944568e+01	9.985678e+01
2.880000e-06	4.266440e-06	1.439494e-09	2.965338e+01	1.002870e+02
2.890000e-06	4.296112e-06	1.440152e-09	2.985961e+01	1.007085e+02
2.900000e-06	4.325480e-06	1.442779e-09	3.006373e+01	1.011209e+02
