# Temperatura_=_-0.3
# Concentracion g/m^3_=_1620.0
# C_Vs_to_Am_M_A/Vsm_=_65563218390.804596
# pendiente_HvsI_1/m_=_3716.3
# ordenada_HvsI_A/m_=_1297.0
# frecuencia_Hz_=_135090.98942063033

Tiempo_(s)	Campo_(V.s)	Magnetizacion_(V.s)	Campo_(kA/m)	Magnetizacion_(A/m)
0.000000e+00	-5.524601e-06	-1.711816e-09	-3.838321e+01	-1.104686e+02
1.000000e-08	-5.524745e-06	-1.709819e-09	-3.838421e+01	-1.104044e+02
2.000000e-08	-5.524607e-06	-1.709154e-09	-3.838325e+01	-1.103368e+02
3.000000e-08	-5.523951e-06	-1.710155e-09	-3.837870e+01	-1.102659e+02
4.000000e-08	-5.522739e-06	-1.709325e-09	-3.837028e+01	-1.101920e+02
5.000000e-08	-5.521057e-06	-1.706986e-09	-3.835859e+01	-1.101153e+02
6.000000e-08	-5.518792e-06	-1.705887e-09	-3.834285e+01	-1.100358e+02
7.000000e-08	-5.515900e-06	-1.722397e-09	-3.832276e+01	-1.099538e+02
8.000000e-08	-5.512486e-06	-1.744330e-09	-3.829904e+01	-1.098695e+02
9.000000e-08	-5.508641e-06	-1.710052e-09	-3.827232e+01	-1.097829e+02
1.000000e-07	-5.504373e-06	-1.659577e-09	-3.824267e+01	-1.096943e+02
1.100000e-07	-5.499954e-06	-1.697866e-09	-3.821197e+01	-1.096037e+02
1.200000e-07	-5.495421e-06	-1.737308e-09	-3.818048e+01	-1.095114e+02
1.300000e-07	-5.490512e-06	-1.735440e-09	-3.814638e+01	-1.094174e+02
1.400000e-07	-5.485216e-06	-1.667299e-09	-3.810958e+01	-1.093218e+02
1.500000e-07	-5.479597e-06	-1.717172e-09	-3.807054e+01	-1.092247e+02
1.600000e-07	-5.473587e-06	-1.777717e-09	-3.802878e+01	-1.091262e+02
1.700000e-07	-5.467029e-06	-1.712041e-09	-3.798322e+01	-1.090263e+02
1.800000e-07	-5.459960e-06	-1.631941e-09	-3.793411e+01	-1.089250e+02
1.900000e-07	-5.452670e-06	-1.644043e-09	-3.788346e+01	-1.088224e+02
2.000000e-07	-5.445185e-06	-1.703723e-09	-3.783145e+01	-1.087183e+02
2.100000e-07	-5.437360e-06	-1.670471e-09	-3.777709e+01	-1.086129e+02
2.200000e-07	-5.429263e-06	-1.627920e-09	-3.772084e+01	-1.085059e+02
2.300000e-07	-5.420889e-06	-1.627657e-09	-3.766265e+01	-1.083974e+02
2.400000e-07	-5.411837e-06	-1.652525e-09	-3.759976e+01	-1.082872e+02
2.500000e-07	-5.402034e-06	-1.621151e-09	-3.753166e+01	-1.081751e+02
2.600000e-07	-5.391614e-06	-1.617415e-09	-3.745926e+01	-1.080610e+02
2.700000e-07	-5.380611e-06	-1.624752e-09	-3.738282e+01	-1.079448e+02
2.800000e-07	-5.369153e-06	-1.635352e-09	-3.730321e+01	-1.078262e+02
2.900000e-07	-5.357389e-06	-1.612611e-09	-3.722147e+01	-1.077051e+02
3.000000e-07	-5.345422e-06	-1.615528e-09	-3.713833e+01	-1.075811e+02
3.100000e-07	-5.332986e-06	-1.613650e-09	-3.705193e+01	-1.074541e+02
3.200000e-07	-5.320063e-06	-1.610512e-09	-3.696215e+01	-1.073238e+02
3.300000e-07	-5.306726e-06	-1.607040e-09	-3.686948e+01	-1.071899e+02
3.400000e-07	-5.292967e-06	-1.599871e-09	-3.677389e+01	-1.070522e+02
3.500000e-07	-5.278831e-06	-1.594013e-09	-3.667568e+01	-1.069103e+02
3.600000e-07	-5.264195e-06	-1.611467e-09	-3.657399e+01	-1.067640e+02
3.700000e-07	-5.249013e-06	-1.602418e-09	-3.646852e+01	-1.066130e+02
3.800000e-07	-5.233310e-06	-1.579671e-09	-3.635941e+01	-1.064570e+02
3.900000e-07	-5.217175e-06	-1.590406e-09	-3.624731e+01	-1.062958e+02
4.000000e-07	-5.200734e-06	-1.598113e-09	-3.613309e+01	-1.061290e+02
4.100000e-07	-5.183972e-06	-1.563051e-09	-3.601663e+01	-1.059564e+02
4.200000e-07	-5.166872e-06	-1.563192e-09	-3.589782e+01	-1.057777e+02
4.300000e-07	-5.149488e-06	-1.604379e-09	-3.577705e+01	-1.055928e+02
4.400000e-07	-5.131774e-06	-1.564816e-09	-3.565397e+01	-1.054013e+02
4.500000e-07	-5.113596e-06	-1.529260e-09	-3.552768e+01	-1.052031e+02
4.600000e-07	-5.094901e-06	-1.566403e-09	-3.539779e+01	-1.049980e+02
4.700000e-07	-5.075769e-06	-1.577073e-09	-3.526487e+01	-1.047858e+02
4.800000e-07	-5.056450e-06	-1.520098e-09	-3.513064e+01	-1.045664e+02
4.900000e-07	-5.037014e-06	-1.546006e-09	-3.499561e+01	-1.043397e+02
5.000000e-07	-5.017333e-06	-1.573997e-09	-3.485887e+01	-1.041056e+02
5.100000e-07	-4.997360e-06	-1.530046e-09	-3.472011e+01	-1.038641e+02
5.200000e-07	-4.977068e-06	-1.518125e-09	-3.457913e+01	-1.036151e+02
5.300000e-07	-4.956409e-06	-1.563206e-09	-3.443559e+01	-1.033586e+02
5.400000e-07	-4.935329e-06	-1.523305e-09	-3.428914e+01	-1.030947e+02
5.500000e-07	-4.913908e-06	-1.494585e-09	-3.414031e+01	-1.028234e+02
5.600000e-07	-4.892219e-06	-1.543120e-09	-3.398962e+01	-1.025447e+02
5.700000e-07	-4.870218e-06	-1.546065e-09	-3.383676e+01	-1.022588e+02
5.800000e-07	-4.847795e-06	-1.489557e-09	-3.368097e+01	-1.019659e+02
5.900000e-07	-4.824967e-06	-1.510671e-09	-3.352237e+01	-1.016660e+02
6.000000e-07	-4.801893e-06	-1.528642e-09	-3.336206e+01	-1.013594e+02
6.100000e-07	-4.778522e-06	-1.485738e-09	-3.319969e+01	-1.010463e+02
6.200000e-07	-4.754924e-06	-1.480904e-09	-3.303574e+01	-1.007268e+02
6.300000e-07	-4.731155e-06	-1.510028e-09	-3.287060e+01	-1.004011e+02
6.400000e-07	-4.706986e-06	-1.485539e-09	-3.270268e+01	-1.000696e+02
6.500000e-07	-4.682302e-06	-1.467705e-09	-3.253118e+01	-9.973244e+01
6.600000e-07	-4.657179e-06	-1.488191e-09	-3.235664e+01	-9.938989e+01
6.700000e-07	-4.631533e-06	-1.475261e-09	-3.217845e+01	-9.904220e+01
6.800000e-07	-4.605319e-06	-1.450223e-09	-3.199633e+01	-9.868964e+01
6.900000e-07	-4.578650e-06	-1.458413e-09	-3.181104e+01	-9.833244e+01
7.000000e-07	-4.551576e-06	-1.460301e-09	-3.162294e+01	-9.797087e+01
7.100000e-07	-4.524211e-06	-1.439359e-09	-3.143281e+01	-9.760514e+01
7.200000e-07	-4.496672e-06	-1.440755e-09	-3.124148e+01	-9.723549e+01
7.300000e-07	-4.468998e-06	-1.442487e-09	-3.104921e+01	-9.686213e+01
7.400000e-07	-4.441060e-06	-1.426012e-09	-3.085511e+01	-9.648524e+01
7.500000e-07	-4.412804e-06	-1.414253e-09	-3.065879e+01	-9.610501e+01
7.600000e-07	-4.384351e-06	-1.419410e-09	-3.046111e+01	-9.572158e+01
7.700000e-07	-4.355587e-06	-1.408743e-09	-3.026127e+01	-9.533508e+01
7.800000e-07	-4.326473e-06	-1.399355e-09	-3.005899e+01	-9.494562e+01
7.900000e-07	-4.297096e-06	-1.396783e-09	-2.985489e+01	-9.455326e+01
8.000000e-07	-4.267376e-06	-1.388471e-09	-2.964841e+01	-9.415806e+01
8.100000e-07	-4.237369e-06	-1.370618e-09	-2.943993e+01	-9.376004e+01
8.200000e-07	-4.207008e-06	-1.366795e-09	-2.922898e+01	-9.335918e+01
8.300000e-07	-4.176354e-06	-1.358971e-09	-2.901601e+01	-9.295545e+01
8.400000e-07	-4.145505e-06	-1.347177e-09	-2.880168e+01	-9.254878e+01
8.500000e-07	-4.114473e-06	-1.341997e-09	-2.858608e+01	-9.213908e+01
8.600000e-07	-4.083261e-06	-1.343571e-09	-2.836923e+01	-9.172621e+01
8.700000e-07	-4.051734e-06	-1.335170e-09	-2.815019e+01	-9.131004e+01
8.800000e-07	-4.020036e-06	-1.329585e-09	-2.792996e+01	-9.089038e+01
8.900000e-07	-3.988211e-06	-1.324111e-09	-2.770885e+01	-9.046704e+01
9.000000e-07	-3.956016e-06	-1.309971e-09	-2.748517e+01	-9.003980e+01
9.100000e-07	-3.923387e-06	-1.295277e-09	-2.725847e+01	-8.960843e+01
9.200000e-07	-3.890417e-06	-1.290448e-09	-2.702941e+01	-8.917268e+01
9.300000e-07	-3.857032e-06	-1.283494e-09	-2.679746e+01	-8.873227e+01
9.400000e-07	-3.823172e-06	-1.274297e-09	-2.656221e+01	-8.828694e+01
9.500000e-07	-3.788861e-06	-1.271790e-09	-2.632383e+01	-8.783641e+01
9.600000e-07	-3.754083e-06	-1.267924e-09	-2.608220e+01	-8.738039e+01
9.700000e-07	-3.719029e-06	-1.255542e-09	-2.583866e+01	-8.691860e+01
9.800000e-07	-3.683821e-06	-1.246170e-09	-2.559404e+01	-8.645076e+01
9.900000e-07	-3.648372e-06	-1.241789e-09	-2.534776e+01	-8.597659e+01
1.000000e-06	-3.612735e-06	-1.229639e-09	-2.510016e+01	-8.549584e+01
1.010000e-06	-3.576996e-06	-1.223045e-09	-2.485186e+01	-8.500824e+01
1.020000e-06	-3.541154e-06	-1.222241e-09	-2.460284e+01	-8.451358e+01
1.030000e-06	-3.505090e-06	-1.216846e-09	-2.435227e+01	-8.401162e+01
1.040000e-06	-3.468675e-06	-1.204551e-09	-2.409928e+01	-8.350218e+01
1.050000e-06	-3.432058e-06	-1.198155e-09	-2.384487e+01	-8.298509e+01
1.060000e-06	-3.395216e-06	-1.190558e-09	-2.358891e+01	-8.246021e+01
1.070000e-06	-3.358087e-06	-1.180016e-09	-2.333095e+01	-8.192741e+01
1.080000e-06	-3.320745e-06	-1.170030e-09	-2.307151e+01	-8.138661e+01
1.090000e-06	-3.283097e-06	-1.163227e-09	-2.280994e+01	-8.083776e+01
1.100000e-06	-3.245249e-06	-1.151781e-09	-2.254698e+01	-8.028083e+01
1.110000e-06	-3.207148e-06	-1.139333e-09	-2.228227e+01	-7.971583e+01
1.120000e-06	-3.168768e-06	-1.130335e-09	-2.201562e+01	-7.914280e+01
1.130000e-06	-3.130146e-06	-1.121784e-09	-2.174729e+01	-7.856180e+01
1.140000e-06	-3.091280e-06	-1.108885e-09	-2.147726e+01	-7.797294e+01
1.150000e-06	-3.052216e-06	-1.102199e-09	-2.120585e+01	-7.737634e+01
1.160000e-06	-3.013038e-06	-1.096384e-09	-2.093365e+01	-7.677216e+01
1.170000e-06	-2.973814e-06	-1.087683e-09	-2.066113e+01	-7.616058e+01
1.180000e-06	-2.934428e-06	-1.076780e-09	-2.038749e+01	-7.554181e+01
1.190000e-06	-2.894866e-06	-1.065636e-09	-2.011263e+01	-7.491606e+01
1.200000e-06	-2.855222e-06	-1.051497e-09	-1.983720e+01	-7.428358e+01
1.210000e-06	-2.815414e-06	-1.036251e-09	-1.956062e+01	-7.364462e+01
1.220000e-06	-2.775366e-06	-1.025489e-09	-1.928238e+01	-7.299943e+01
1.230000e-06	-2.735115e-06	-1.018498e-09	-1.900273e+01	-7.234829e+01
1.240000e-06	-2.694552e-06	-1.011813e-09	-1.872091e+01	-7.169147e+01
1.250000e-06	-2.653686e-06	-1.003994e-09	-1.843698e+01	-7.102921e+01
1.260000e-06	-2.612601e-06	-9.941736e-10	-1.815154e+01	-7.036179e+01
1.270000e-06	-2.571288e-06	-9.806578e-10	-1.786451e+01	-6.968945e+01
1.280000e-06	-2.529788e-06	-9.694555e-10	-1.757618e+01	-6.901240e+01
1.290000e-06	-2.487974e-06	-9.604809e-10	-1.728567e+01	-6.833086e+01
1.300000e-06	-2.445694e-06	-9.512038e-10	-1.699192e+01	-6.764500e+01
1.310000e-06	-2.403259e-06	-9.394669e-10	-1.669710e+01	-6.695497e+01
1.320000e-06	-2.360662e-06	-9.277500e-10	-1.640115e+01	-6.626088e+01
1.330000e-06	-2.317798e-06	-9.145022e-10	-1.610334e+01	-6.556281e+01
1.340000e-06	-2.274838e-06	-9.019193e-10	-1.580487e+01	-6.486079e+01
1.350000e-06	-2.231672e-06	-8.919712e-10	-1.550496e+01	-6.415481e+01
1.360000e-06	-2.188277e-06	-8.843253e-10	-1.520347e+01	-6.344480e+01
1.370000e-06	-2.144722e-06	-8.752984e-10	-1.490086e+01	-6.273065e+01
1.380000e-06	-2.101048e-06	-8.656494e-10	-1.459743e+01	-6.201219e+01
1.390000e-06	-2.057335e-06	-8.532341e-10	-1.429373e+01	-6.128921e+01
1.400000e-06	-2.013545e-06	-8.396281e-10	-1.398949e+01	-6.056142e+01
1.410000e-06	-1.969653e-06	-8.248247e-10	-1.368454e+01	-5.982849e+01
1.420000e-06	-1.925694e-06	-8.113152e-10	-1.337913e+01	-5.909002e+01
1.430000e-06	-1.881697e-06	-7.978109e-10	-1.307345e+01	-5.834558e+01
1.440000e-06	-1.837567e-06	-7.846776e-10	-1.276685e+01	-5.759464e+01
1.450000e-06	-1.793281e-06	-7.722644e-10	-1.245916e+01	-5.683666e+01
1.460000e-06	-1.748823e-06	-7.620798e-10	-1.215028e+01	-5.607102e+01
1.470000e-06	-1.704113e-06	-7.517261e-10	-1.183965e+01	-5.529705e+01
1.480000e-06	-1.659288e-06	-7.403133e-10	-1.152821e+01	-5.451406e+01
1.490000e-06	-1.614369e-06	-7.292893e-10	-1.121614e+01	-5.372128e+01
1.500000e-06	-1.569373e-06	-7.169031e-10	-1.090352e+01	-5.291794e+01
1.510000e-06	-1.524320e-06	-7.028849e-10	-1.059050e+01	-5.210319e+01
1.520000e-06	-1.479181e-06	-6.877939e-10	-1.027689e+01	-5.127620e+01
1.530000e-06	-1.433918e-06	-6.736313e-10	-9.962418e+00	-5.043607e+01
1.540000e-06	-1.388544e-06	-6.624796e-10	-9.647173e+00	-4.958191e+01
1.550000e-06	-1.343082e-06	-6.499546e-10	-9.331318e+00	-4.871281e+01
1.560000e-06	-1.297540e-06	-6.372190e-10	-9.014902e+00	-4.782787e+01
1.570000e-06	-1.251947e-06	-6.266263e-10	-8.698136e+00	-4.692615e+01
1.580000e-06	-1.206259e-06	-6.116564e-10	-8.380716e+00	-4.600675e+01
1.590000e-06	-1.160513e-06	-5.943876e-10	-8.062882e+00	-4.506878e+01
1.600000e-06	-1.114638e-06	-5.749725e-10	-7.744156e+00	-4.411137e+01
1.610000e-06	-1.068666e-06	-5.556206e-10	-7.424761e+00	-4.313366e+01
1.620000e-06	-1.022679e-06	-5.346645e-10	-7.105254e+00	-4.213485e+01
1.630000e-06	-9.765460e-07	-5.160277e-10	-6.784738e+00	-4.111417e+01
1.640000e-06	-9.303244e-07	-5.017215e-10	-6.463605e+00	-4.007089e+01
1.650000e-06	-8.841112e-07	-4.896021e-10	-6.142530e+00	-3.900435e+01
1.660000e-06	-8.378897e-07	-4.747674e-10	-5.821398e+00	-3.791392e+01
1.670000e-06	-7.915689e-07	-4.578276e-10	-5.499575e+00	-3.679907e+01
1.680000e-06	-7.450844e-07	-4.402025e-10	-5.176615e+00	-3.565932e+01
1.690000e-06	-6.985290e-07	-4.221866e-10	-4.853163e+00	-3.449428e+01
1.700000e-06	-6.519837e-07	-4.034012e-10	-4.529781e+00	-3.330361e+01
1.710000e-06	-6.055069e-07	-3.843712e-10	-4.206874e+00	-3.208709e+01
1.720000e-06	-5.590009e-07	-3.649719e-10	-3.883765e+00	-3.084456e+01
1.730000e-06	-5.123255e-07	-3.457689e-10	-3.559478e+00	-2.957596e+01
1.740000e-06	-4.655141e-07	-3.281335e-10	-3.234248e+00	-2.828133e+01
1.750000e-06	-4.186785e-07	-3.116186e-10	-2.908848e+00	-2.696078e+01
1.760000e-06	-3.718353e-07	-2.943620e-10	-2.583396e+00	-2.561454e+01
1.770000e-06	-3.249542e-07	-2.748493e-10	-2.257681e+00	-2.424291e+01
1.780000e-06	-2.781541e-07	-2.537183e-10	-1.932528e+00	-2.284630e+01
1.790000e-06	-2.314119e-07	-2.325446e-10	-1.607778e+00	-2.142522e+01
1.800000e-06	-1.845512e-07	-2.127238e-10	-1.282205e+00	-1.998025e+01
1.810000e-06	-1.376580e-07	-1.927111e-10	-9.564052e-01	-1.851208e+01
1.820000e-06	-9.078679e-08	-1.730179e-10	-6.307584e-01	-1.702148e+01
1.830000e-06	-4.390081e-08	-1.525166e-10	-3.050092e-01	-1.550930e+01
1.840000e-06	2.903138e-09	-1.328285e-10	2.017010e-02	-1.397648e+01
1.850000e-06	4.969475e-08	-1.127152e-10	3.452637e-01	-1.242402e+01
1.860000e-06	9.656729e-08	-9.047363e-11	6.709195e-01	-1.085302e+01
1.870000e-06	1.433877e-07	-6.717712e-11	9.962133e-01	-9.264617e+00
1.880000e-06	1.901793e-07	-4.600365e-11	1.321307e+00	-7.660027e+00
1.890000e-06	2.369860e-07	-2.526294e-11	1.646505e+00	-6.040519e+00
1.900000e-06	2.837733e-07	-5.374985e-12	1.971569e+00	-4.407410e+00
1.910000e-06	3.305148e-07	1.485291e-11	2.296314e+00	-2.762061e+00
1.920000e-06	3.772574e-07	3.902726e-11	2.621067e+00	-1.105872e+00
1.930000e-06	4.240718e-07	6.603134e-11	2.946319e+00	5.597284e-01
1.940000e-06	4.708455e-07	9.187125e-11	3.271288e+00	2.233285e+00
1.950000e-06	5.175000e-07	1.158727e-10	3.595429e+00	3.913326e+00
1.960000e-06	5.642566e-07	1.375682e-10	3.920280e+00	5.598370e+00
1.970000e-06	6.109909e-07	1.566018e-10	4.244975e+00	7.286927e+00
1.980000e-06	6.575037e-07	1.755614e-10	4.568131e+00	8.977514e+00
1.990000e-06	7.039447e-07	1.961338e-10	4.890789e+00	1.066865e+01
2.000000e-06	7.504008e-07	2.202012e-10	5.213552e+00	1.235888e+01
2.010000e-06	7.967853e-07	2.452031e-10	5.535817e+00	1.404675e+01
2.020000e-06	8.430578e-07	2.709331e-10	5.857304e+00	1.573085e+01
2.030000e-06	8.893215e-07	2.998470e-10	6.178730e+00	1.740978e+01
2.040000e-06	9.354718e-07	3.270207e-10	6.499368e+00	1.908221e+01
2.050000e-06	9.815182e-07	3.508752e-10	6.819284e+00	2.074682e+01
2.060000e-06	1.027576e-06	3.719064e-10	7.139283e+00	2.240235e+01
2.070000e-06	1.073629e-06	3.904891e-10	7.459241e+00	2.404757e+01
2.080000e-06	1.119585e-06	4.100185e-10	7.778529e+00	2.568132e+01
2.090000e-06	1.165425e-06	4.321801e-10	8.097008e+00	2.730249e+01
2.100000e-06	1.211097e-06	4.561952e-10	8.414323e+00	2.891003e+01
2.110000e-06	1.256692e-06	4.813313e-10	8.731103e+00	3.050294e+01
2.120000e-06	1.302283e-06	5.059658e-10	9.047861e+00	3.208029e+01
2.130000e-06	1.347722e-06	5.292638e-10	9.363553e+00	3.364121e+01
2.140000e-06	1.393101e-06	5.506252e-10	9.678834e+00	3.518490e+01
2.150000e-06	1.438405e-06	5.698086e-10	9.993594e+00	3.671060e+01
2.160000e-06	1.483497e-06	5.873120e-10	1.030688e+01	3.821764e+01
2.170000e-06	1.528454e-06	6.050280e-10	1.061923e+01	3.970540e+01
2.180000e-06	1.573391e-06	6.253396e-10	1.093143e+01	4.117333e+01
2.190000e-06	1.618178e-06	6.488579e-10	1.124260e+01	4.262093e+01
2.200000e-06	1.662749e-06	6.713862e-10	1.155227e+01	4.404777e+01
2.210000e-06	1.707267e-06	6.900192e-10	1.186156e+01	4.545348e+01
2.220000e-06	1.751698e-06	7.066378e-10	1.217026e+01	4.683774e+01
2.230000e-06	1.795937e-06	7.231937e-10	1.247761e+01	4.820030e+01
2.240000e-06	1.840095e-06	7.419823e-10	1.278441e+01	4.954093e+01
2.250000e-06	1.884135e-06	7.617595e-10	1.309039e+01	5.085948e+01
2.260000e-06	1.927995e-06	7.805808e-10	1.339511e+01	5.215585e+01
2.270000e-06	1.971866e-06	7.988267e-10	1.369992e+01	5.342996e+01
2.280000e-06	2.015686e-06	8.163956e-10	1.400436e+01	5.468180e+01
2.290000e-06	2.059346e-06	8.315122e-10	1.430770e+01	5.591138e+01
2.300000e-06	2.102994e-06	8.435112e-10	1.461095e+01	5.711875e+01
2.310000e-06	2.146663e-06	8.560924e-10	1.491435e+01	5.830400e+01
2.320000e-06	2.190173e-06	8.740194e-10	1.521664e+01	5.946726e+01
2.330000e-06	2.233539e-06	8.929875e-10	1.551793e+01	6.060867e+01
2.340000e-06	2.276774e-06	9.104857e-10	1.581832e+01	6.172841e+01
2.350000e-06	2.319778e-06	9.259572e-10	1.611709e+01	6.282667e+01
2.360000e-06	2.362619e-06	9.403391e-10	1.641474e+01	6.390368e+01
2.370000e-06	2.405319e-06	9.529334e-10	1.671141e+01	6.495969e+01
2.380000e-06	2.447740e-06	9.658541e-10	1.700614e+01	6.599494e+01
2.390000e-06	2.489707e-06	9.808419e-10	1.729771e+01	6.700970e+01
2.400000e-06	2.531299e-06	9.952694e-10	1.758668e+01	6.800428e+01
2.410000e-06	2.572663e-06	1.010463e-09	1.787407e+01	6.897896e+01
2.420000e-06	2.613782e-06	1.026953e-09	1.815975e+01	6.993405e+01
2.430000e-06	2.654554e-06	1.042610e-09	1.844302e+01	7.086986e+01
2.440000e-06	2.695040e-06	1.055043e-09	1.872430e+01	7.178673e+01
2.450000e-06	2.735309e-06	1.065400e-09	1.900408e+01	7.268497e+01
2.460000e-06	2.775337e-06	1.075173e-09	1.928218e+01	7.356493e+01
2.470000e-06	2.815303e-06	1.085762e-09	1.955985e+01	7.442694e+01
2.480000e-06	2.855129e-06	1.096666e-09	1.983655e+01	7.527134e+01
2.490000e-06	2.894731e-06	1.107743e-09	2.011169e+01	7.609847e+01
2.500000e-06	2.934240e-06	1.121562e-09	2.038619e+01	7.690869e+01
2.510000e-06	2.973615e-06	1.135830e-09	2.065976e+01	7.770233e+01
2.520000e-06	3.012868e-06	1.147739e-09	2.093247e+01	7.847975e+01
2.530000e-06	3.051958e-06	1.158911e-09	2.120406e+01	7.924129e+01
2.540000e-06	3.090740e-06	1.170791e-09	2.147351e+01	7.998730e+01
2.550000e-06	3.129403e-06	1.180316e-09	2.174212e+01	8.071813e+01
2.560000e-06	3.168017e-06	1.186493e-09	2.201040e+01	8.143413e+01
2.570000e-06	3.206265e-06	1.195338e-09	2.227613e+01	8.213563e+01
2.580000e-06	3.244133e-06	1.206784e-09	2.253923e+01	8.282299e+01
2.590000e-06	3.281817e-06	1.216475e-09	2.280104e+01	8.349655e+01
2.600000e-06	3.319369e-06	1.224009e-09	2.306195e+01	8.415664e+01
2.610000e-06	3.356714e-06	1.231902e-09	2.332141e+01	8.480361e+01
2.620000e-06	3.393810e-06	1.240528e-09	2.357914e+01	8.543780e+01
2.630000e-06	3.430659e-06	1.249148e-09	2.383515e+01	8.605953e+01
2.640000e-06	3.467178e-06	1.259020e-09	2.408887e+01	8.666913e+01
2.650000e-06	3.503417e-06	1.270213e-09	2.434065e+01	8.726694e+01
2.660000e-06	3.539434e-06	1.279705e-09	2.459089e+01	8.785326e+01
2.670000e-06	3.575274e-06	1.283993e-09	2.483990e+01	8.842842e+01
2.680000e-06	3.611017e-06	1.286937e-09	2.508822e+01	8.899274e+01
2.690000e-06	3.646644e-06	1.290048e-09	2.533575e+01	8.954650e+01
2.700000e-06	3.682112e-06	1.295763e-09	2.558217e+01	9.009001e+01
2.710000e-06	3.717371e-06	1.306348e-09	2.582714e+01	9.062357e+01
2.720000e-06	3.752432e-06	1.317562e-09	2.607073e+01	9.114745e+01
2.730000e-06	3.787291e-06	1.326314e-09	2.631293e+01	9.166192e+01
2.740000e-06	3.821686e-06	1.331803e-09	2.655189e+01	9.216726e+01
2.750000e-06	3.855595e-06	1.336426e-09	2.678748e+01	9.266371e+01
2.760000e-06	3.889100e-06	1.339890e-09	2.702026e+01	9.315153e+01
2.770000e-06	3.922149e-06	1.342825e-09	2.724987e+01	9.363094e+01
2.780000e-06	3.954699e-06	1.348137e-09	2.747602e+01	9.410217e+01
2.790000e-06	3.986831e-06	1.355217e-09	2.769926e+01	9.456543e+01
2.800000e-06	4.018770e-06	1.361204e-09	2.792117e+01	9.502091e+01
2.810000e-06	4.050530e-06	1.365857e-09	2.814183e+01	9.546881e+01
2.820000e-06	4.082131e-06	1.371686e-09	2.836138e+01	9.590929e+01
2.830000e-06	4.113562e-06	1.379209e-09	2.857975e+01	9.634252e+01
2.840000e-06	4.144710e-06	1.385988e-09	2.879616e+01	9.676864e+01
2.850000e-06	4.175570e-06	1.392085e-09	2.901057e+01	9.718779e+01
2.860000e-06	4.206178e-06	1.396572e-09	2.922322e+01	9.760008e+01
2.870000e-06	4.236539e-06	1.399605e-09	2.943416e+01	9.800562e+01
2.880000e-06	4.266613e-06	1.401730e-09	2.964311e+01	9.840451e+01
2.890000e-06	4.296310e-06	1.405106e-09	2.984943e+01	9.879682e+01
2.900000e-06	4.325730e-06	1.412259e-09	3.005383e+01	9.918264e+01
2.910000e-06	4.354855e-06	1.421401e-09	3.025618e+01	9.956202e+01
