# Temperatura_=_-1.03
# Concentracion g/m^3_=_1620.0
# C_Vs_to_Am_M_A/Vsm_=_65563218390.804596
# pendiente_HvsI_1/m_=_3716.3
# ordenada_HvsI_A/m_=_1297.0
# frecuencia_Hz_=_135096.47960519194

Tiempo_(s)	Campo_(V.s)	Magnetizacion_(V.s)	Campo_(kA/m)	Magnetizacion_(A/m)
0.000000e+00	-5.520540e-06	-1.244977e-09	-3.836660e+01	-8.064780e+01
1.000000e-08	-5.520503e-06	-1.241431e-09	-3.836634e+01	-8.063557e+01
2.000000e-08	-5.520238e-06	-1.240210e-09	-3.836450e+01	-8.062216e+01
3.000000e-08	-5.519673e-06	-1.241521e-09	-3.836057e+01	-8.060729e+01
4.000000e-08	-5.518611e-06	-1.243189e-09	-3.835319e+01	-8.059069e+01
5.000000e-08	-5.516965e-06	-1.242551e-09	-3.834175e+01	-8.057207e+01
6.000000e-08	-5.514703e-06	-1.238810e-09	-3.832603e+01	-8.055112e+01
7.000000e-08	-5.511900e-06	-1.251492e-09	-3.830655e+01	-8.052757e+01
8.000000e-08	-5.508578e-06	-1.261934e-09	-3.828346e+01	-8.050111e+01
9.000000e-08	-5.504722e-06	-1.251914e-09	-3.825666e+01	-8.047145e+01
1.000000e-07	-5.500487e-06	-1.247096e-09	-3.822724e+01	-8.043832e+01
1.100000e-07	-5.496011e-06	-1.249415e-09	-3.819612e+01	-8.040143e+01
1.200000e-07	-5.491431e-06	-1.239893e-09	-3.816430e+01	-8.036054e+01
1.300000e-07	-5.486603e-06	-1.233465e-09	-3.813074e+01	-8.031540e+01
1.400000e-07	-5.481247e-06	-1.226774e-09	-3.809352e+01	-8.026578e+01
1.500000e-07	-5.475434e-06	-1.257307e-09	-3.805312e+01	-8.021148e+01
1.600000e-07	-5.469252e-06	-1.241128e-09	-3.801015e+01	-8.015232e+01
1.700000e-07	-5.462660e-06	-1.247708e-09	-3.796434e+01	-8.008814e+01
1.800000e-07	-5.455579e-06	-1.243991e-09	-3.791513e+01	-8.001880e+01
1.900000e-07	-5.448036e-06	-1.247927e-09	-3.786271e+01	-7.994421e+01
2.000000e-07	-5.440244e-06	-1.225756e-09	-3.780856e+01	-7.986428e+01
2.100000e-07	-5.432348e-06	-1.231518e-09	-3.775368e+01	-7.977897e+01
2.200000e-07	-5.424295e-06	-1.246401e-09	-3.769771e+01	-7.968827e+01
2.300000e-07	-5.415945e-06	-1.248555e-09	-3.763968e+01	-7.959217e+01
2.400000e-07	-5.407059e-06	-1.236900e-09	-3.757793e+01	-7.949073e+01
2.500000e-07	-5.397436e-06	-1.225179e-09	-3.751105e+01	-7.938401e+01
2.600000e-07	-5.387134e-06	-1.217429e-09	-3.743945e+01	-7.927210e+01
2.700000e-07	-5.376243e-06	-1.198258e-09	-3.736376e+01	-7.915513e+01
2.800000e-07	-5.364884e-06	-1.200838e-09	-3.728482e+01	-7.903325e+01
2.900000e-07	-5.353143e-06	-1.191666e-09	-3.720323e+01	-7.890663e+01
3.000000e-07	-5.341019e-06	-1.186745e-09	-3.711896e+01	-7.877546e+01
3.100000e-07	-5.328452e-06	-1.161340e-09	-3.703163e+01	-7.863994e+01
3.200000e-07	-5.315455e-06	-1.177967e-09	-3.694130e+01	-7.850032e+01
3.300000e-07	-5.302082e-06	-1.174180e-09	-3.684836e+01	-7.835683e+01
3.400000e-07	-5.288344e-06	-1.166776e-09	-3.675288e+01	-7.820972e+01
3.500000e-07	-5.274192e-06	-1.155179e-09	-3.665453e+01	-7.805927e+01
3.600000e-07	-5.259613e-06	-1.175714e-09	-3.655321e+01	-7.790572e+01
3.700000e-07	-5.244664e-06	-1.166949e-09	-3.644932e+01	-7.774937e+01
3.800000e-07	-5.229226e-06	-1.166400e-09	-3.634203e+01	-7.759048e+01
3.900000e-07	-5.213000e-06	-1.168484e-09	-3.622926e+01	-7.742932e+01
4.000000e-07	-5.196258e-06	-1.164420e-09	-3.611291e+01	-7.726615e+01
4.100000e-07	-5.179360e-06	-1.146357e-09	-3.599547e+01	-7.710122e+01
4.200000e-07	-5.162175e-06	-1.161093e-09	-3.587603e+01	-7.693479e+01
4.300000e-07	-5.144652e-06	-1.161260e-09	-3.575425e+01	-7.676709e+01
4.400000e-07	-5.126860e-06	-1.143324e-09	-3.563061e+01	-7.659831e+01
4.500000e-07	-5.108697e-06	-1.147656e-09	-3.550437e+01	-7.642867e+01
4.600000e-07	-5.090035e-06	-1.164560e-09	-3.537468e+01	-7.625834e+01
4.700000e-07	-5.070929e-06	-1.142848e-09	-3.524189e+01	-7.608748e+01
4.800000e-07	-5.051461e-06	-1.139145e-09	-3.510659e+01	-7.591621e+01
4.900000e-07	-5.031720e-06	-1.163192e-09	-3.496940e+01	-7.574464e+01
5.000000e-07	-5.011740e-06	-1.143693e-09	-3.483054e+01	-7.557285e+01
5.100000e-07	-4.991525e-06	-1.114274e-09	-3.469005e+01	-7.540090e+01
5.200000e-07	-4.971019e-06	-1.136265e-09	-3.454754e+01	-7.522882e+01
5.300000e-07	-4.950223e-06	-1.146258e-09	-3.440302e+01	-7.505660e+01
5.400000e-07	-4.929105e-06	-1.114170e-09	-3.425625e+01	-7.488424e+01
5.500000e-07	-4.907578e-06	-1.122974e-09	-3.410664e+01	-7.471166e+01
5.600000e-07	-4.885758e-06	-1.140062e-09	-3.395500e+01	-7.453881e+01
5.700000e-07	-4.863666e-06	-1.118671e-09	-3.380146e+01	-7.436558e+01
5.800000e-07	-4.841196e-06	-1.113310e-09	-3.364530e+01	-7.419185e+01
5.900000e-07	-4.818373e-06	-1.140135e-09	-3.348669e+01	-7.401747e+01
6.000000e-07	-4.795215e-06	-1.121361e-09	-3.332574e+01	-7.384228e+01
6.100000e-07	-4.771719e-06	-1.104829e-09	-3.316245e+01	-7.366611e+01
6.200000e-07	-4.747942e-06	-1.121401e-09	-3.299720e+01	-7.348874e+01
6.300000e-07	-4.723965e-06	-1.120159e-09	-3.283057e+01	-7.330998e+01
6.400000e-07	-4.699804e-06	-1.093231e-09	-3.266265e+01	-7.312960e+01
6.500000e-07	-4.675303e-06	-1.106094e-09	-3.249238e+01	-7.294737e+01
6.600000e-07	-4.650327e-06	-1.108875e-09	-3.231880e+01	-7.276304e+01
6.700000e-07	-4.624874e-06	-1.091214e-09	-3.214191e+01	-7.257639e+01
6.800000e-07	-4.598835e-06	-1.095158e-09	-3.196094e+01	-7.238715e+01
6.900000e-07	-4.572236e-06	-1.111262e-09	-3.177609e+01	-7.219510e+01
7.000000e-07	-4.545200e-06	-1.090692e-09	-3.158819e+01	-7.199998e+01
7.100000e-07	-4.517789e-06	-1.080145e-09	-3.139769e+01	-7.180156e+01
7.200000e-07	-4.490075e-06	-1.087499e-09	-3.120508e+01	-7.159961e+01
7.300000e-07	-4.462147e-06	-1.076628e-09	-3.101099e+01	-7.139391e+01
7.400000e-07	-4.434086e-06	-1.058451e-09	-3.081597e+01	-7.118426e+01
7.500000e-07	-4.405824e-06	-1.065420e-09	-3.061955e+01	-7.097046e+01
7.600000e-07	-4.377328e-06	-1.068106e-09	-3.042151e+01	-7.075232e+01
7.700000e-07	-4.348590e-06	-1.058548e-09	-3.022179e+01	-7.052969e+01
7.800000e-07	-4.319518e-06	-1.062547e-09	-3.001974e+01	-7.030241e+01
7.900000e-07	-4.290099e-06	-1.064014e-09	-2.981529e+01	-7.007036e+01
8.000000e-07	-4.260329e-06	-1.045706e-09	-2.960839e+01	-6.983342e+01
8.100000e-07	-4.230187e-06	-1.032539e-09	-2.939892e+01	-6.959149e+01
8.200000e-07	-4.199784e-06	-1.031576e-09	-2.918762e+01	-6.934452e+01
8.300000e-07	-4.169123e-06	-1.021418e-09	-2.897454e+01	-6.909243e+01
8.400000e-07	-4.138178e-06	-1.015363e-09	-2.875947e+01	-6.883520e+01
8.500000e-07	-4.106973e-06	-1.020856e-09	-2.854260e+01	-6.857281e+01
8.600000e-07	-4.075478e-06	-1.021396e-09	-2.832372e+01	-6.830525e+01
8.700000e-07	-4.043778e-06	-1.012821e-09	-2.810341e+01	-6.803255e+01
8.800000e-07	-4.011967e-06	-1.014265e-09	-2.788233e+01	-6.775475e+01
8.900000e-07	-3.979988e-06	-1.006860e-09	-2.766008e+01	-6.747188e+01
9.000000e-07	-3.947832e-06	-9.896678e-10	-2.743660e+01	-6.718401e+01
9.100000e-07	-3.915412e-06	-9.784180e-10	-2.721129e+01	-6.689121e+01
9.200000e-07	-3.882607e-06	-9.758022e-10	-2.698330e+01	-6.659357e+01
9.300000e-07	-3.849372e-06	-9.684121e-10	-2.675233e+01	-6.629118e+01
9.400000e-07	-3.815724e-06	-9.665251e-10	-2.651849e+01	-6.598414e+01
9.500000e-07	-3.781691e-06	-9.696310e-10	-2.628196e+01	-6.567255e+01
9.600000e-07	-3.747282e-06	-9.643957e-10	-2.604282e+01	-6.535653e+01
9.700000e-07	-3.712389e-06	-9.534131e-10	-2.580032e+01	-6.503617e+01
9.800000e-07	-3.677001e-06	-9.526478e-10	-2.555439e+01	-6.471160e+01
9.900000e-07	-3.641324e-06	-9.469235e-10	-2.530644e+01	-6.438291e+01
1.000000e-06	-3.605489e-06	-9.371546e-10	-2.505740e+01	-6.405022e+01
1.010000e-06	-3.569580e-06	-9.342991e-10	-2.480784e+01	-6.371362e+01
1.020000e-06	-3.533554e-06	-9.347269e-10	-2.455746e+01	-6.337319e+01
1.030000e-06	-3.497331e-06	-9.274474e-10	-2.430572e+01	-6.302904e+01
1.040000e-06	-3.460942e-06	-9.220892e-10	-2.405282e+01	-6.268122e+01
1.050000e-06	-3.424329e-06	-9.202933e-10	-2.379837e+01	-6.232981e+01
1.060000e-06	-3.387423e-06	-9.132071e-10	-2.354188e+01	-6.197486e+01
1.070000e-06	-3.350227e-06	-9.054069e-10	-2.328337e+01	-6.161641e+01
1.080000e-06	-3.312783e-06	-9.043579e-10	-2.302315e+01	-6.125448e+01
1.090000e-06	-3.275120e-06	-8.998267e-10	-2.276140e+01	-6.088909e+01
1.100000e-06	-3.237192e-06	-8.904906e-10	-2.249781e+01	-6.052023e+01
1.110000e-06	-3.199035e-06	-8.845543e-10	-2.223262e+01	-6.014791e+01
1.120000e-06	-3.160663e-06	-8.792873e-10	-2.196595e+01	-5.977208e+01
1.130000e-06	-3.122098e-06	-8.716124e-10	-2.169793e+01	-5.939270e+01
1.140000e-06	-3.083323e-06	-8.655128e-10	-2.142845e+01	-5.900972e+01
1.150000e-06	-3.044367e-06	-8.623782e-10	-2.115772e+01	-5.862307e+01
1.160000e-06	-3.005287e-06	-8.549385e-10	-2.088612e+01	-5.823266e+01
1.170000e-06	-2.965992e-06	-8.485715e-10	-2.061302e+01	-5.783840e+01
1.180000e-06	-2.926382e-06	-8.446667e-10	-2.033774e+01	-5.744018e+01
1.190000e-06	-2.886593e-06	-8.394031e-10	-2.006122e+01	-5.703788e+01
1.200000e-06	-2.846742e-06	-8.309563e-10	-1.978426e+01	-5.663138e+01
1.210000e-06	-2.806797e-06	-8.242651e-10	-1.950665e+01	-5.622052e+01
1.220000e-06	-2.766795e-06	-8.147898e-10	-1.922865e+01	-5.580516e+01
1.230000e-06	-2.726676e-06	-8.015259e-10	-1.894983e+01	-5.538515e+01
1.240000e-06	-2.686320e-06	-7.911059e-10	-1.866936e+01	-5.496031e+01
1.250000e-06	-2.645735e-06	-7.874537e-10	-1.838730e+01	-5.453048e+01
1.260000e-06	-2.604935e-06	-7.819017e-10	-1.810375e+01	-5.409547e+01
1.270000e-06	-2.563857e-06	-7.752272e-10	-1.781827e+01	-5.365511e+01
1.280000e-06	-2.522579e-06	-7.693506e-10	-1.753140e+01	-5.320920e+01
1.290000e-06	-2.481153e-06	-7.635938e-10	-1.724349e+01	-5.275754e+01
1.300000e-06	-2.439373e-06	-7.517767e-10	-1.695313e+01	-5.229995e+01
1.310000e-06	-2.397183e-06	-7.408149e-10	-1.665992e+01	-5.183622e+01
1.320000e-06	-2.354639e-06	-7.313995e-10	-1.636425e+01	-5.136613e+01
1.330000e-06	-2.311790e-06	-7.233467e-10	-1.606645e+01	-5.088950e+01
1.340000e-06	-2.268766e-06	-7.196813e-10	-1.576745e+01	-5.040609e+01
1.350000e-06	-2.225541e-06	-7.154821e-10	-1.546704e+01	-4.991570e+01
1.360000e-06	-2.182140e-06	-7.082690e-10	-1.516542e+01	-4.941811e+01
1.370000e-06	-2.138583e-06	-6.983102e-10	-1.486270e+01	-4.891309e+01
1.380000e-06	-2.094792e-06	-6.889938e-10	-1.455837e+01	-4.840041e+01
1.390000e-06	-2.050911e-06	-6.766013e-10	-1.425340e+01	-4.787985e+01
1.400000e-06	-2.007008e-06	-6.645204e-10	-1.394828e+01	-4.735116e+01
1.410000e-06	-1.963048e-06	-6.567448e-10	-1.364277e+01	-4.681410e+01
1.420000e-06	-1.918982e-06	-6.510702e-10	-1.333652e+01	-4.626843e+01
1.430000e-06	-1.874838e-06	-6.416454e-10	-1.302973e+01	-4.571389e+01
1.440000e-06	-1.830686e-06	-6.318625e-10	-1.272288e+01	-4.515022e+01
1.450000e-06	-1.786353e-06	-6.217267e-10	-1.241478e+01	-4.457715e+01
1.460000e-06	-1.741906e-06	-6.116284e-10	-1.210588e+01	-4.399440e+01
1.470000e-06	-1.697416e-06	-6.028247e-10	-1.179668e+01	-4.340168e+01
1.480000e-06	-1.652776e-06	-5.956544e-10	-1.148645e+01	-4.279871e+01
1.490000e-06	-1.608034e-06	-5.892776e-10	-1.117550e+01	-4.218518e+01
1.500000e-06	-1.563082e-06	-5.811636e-10	-1.086310e+01	-4.156078e+01
1.510000e-06	-1.518016e-06	-5.705837e-10	-1.054989e+01	-4.092520e+01
1.520000e-06	-1.472934e-06	-5.583222e-10	-1.023658e+01	-4.027810e+01
1.530000e-06	-1.427640e-06	-5.461788e-10	-9.921802e+00	-3.961915e+01
1.540000e-06	-1.382238e-06	-5.347655e-10	-9.606265e+00	-3.894801e+01
1.550000e-06	-1.336741e-06	-5.203651e-10	-9.290073e+00	-3.826433e+01
1.560000e-06	-1.291153e-06	-5.059141e-10	-8.973241e+00	-3.756776e+01
1.570000e-06	-1.245531e-06	-4.941689e-10	-8.656178e+00	-3.685794e+01
1.580000e-06	-1.199832e-06	-4.825428e-10	-8.338579e+00	-3.613452e+01
1.590000e-06	-1.153943e-06	-4.720234e-10	-8.019663e+00	-3.539712e+01
1.600000e-06	-1.107920e-06	-4.636387e-10	-7.699813e+00	-3.464539e+01
1.610000e-06	-1.061988e-06	-4.563476e-10	-7.380592e+00	-3.387898e+01
1.620000e-06	-1.016038e-06	-4.440044e-10	-7.061254e+00	-3.309752e+01
1.630000e-06	-9.699414e-07	-4.265216e-10	-6.740889e+00	-3.230068e+01
1.640000e-06	-9.236990e-07	-4.087702e-10	-6.419515e+00	-3.148813e+01
1.650000e-06	-8.773730e-07	-3.929235e-10	-6.097559e+00	-3.065953e+01
1.660000e-06	-8.309839e-07	-3.791289e-10	-5.775164e+00	-2.981459e+01
1.670000e-06	-7.845321e-07	-3.695414e-10	-5.452334e+00	-2.895302e+01
1.680000e-06	-7.381086e-07	-3.629907e-10	-5.129700e+00	-2.807454e+01
1.690000e-06	-6.917072e-07	-3.547965e-10	-4.807220e+00	-2.717893e+01
1.700000e-06	-6.452068e-07	-3.413684e-10	-4.484052e+00	-2.626597e+01
1.710000e-06	-5.986870e-07	-3.220540e-10	-4.160749e+00	-2.533548e+01
1.720000e-06	-5.521840e-07	-3.006368e-10	-3.837563e+00	-2.438731e+01
1.730000e-06	-5.056328e-07	-2.799574e-10	-3.514042e+00	-2.342135e+01
1.740000e-06	-4.590358e-07	-2.622721e-10	-3.190203e+00	-2.243753e+01
1.750000e-06	-4.123396e-07	-2.502825e-10	-2.865674e+00	-2.143583e+01
1.760000e-06	-3.655781e-07	-2.423712e-10	-2.540691e+00	-2.041627e+01
1.770000e-06	-3.188310e-07	-2.332907e-10	-2.215809e+00	-1.937892e+01
1.780000e-06	-2.720703e-07	-2.200534e-10	-1.890831e+00	-1.832389e+01
1.790000e-06	-2.252569e-07	-2.045926e-10	-1.565488e+00	-1.725137e+01
1.800000e-06	-1.784811e-07	-1.857118e-10	-1.240406e+00	-1.616158e+01
1.810000e-06	-1.317524e-07	-1.646520e-10	-9.156518e-01	-1.505480e+01
1.820000e-06	-8.498058e-08	-1.445464e-10	-5.905973e-01	-1.393138e+01
1.830000e-06	-3.811591e-08	-1.271581e-10	-2.648976e-01	-1.279171e+01
1.840000e-06	8.748218e-09	-1.134346e-10	6.079828e-02	-1.163625e+01
1.850000e-06	5.559720e-08	-1.029693e-10	3.863889e-01	-1.046553e+01
1.860000e-06	1.024346e-07	-8.857306e-11	7.118993e-01	-9.280108e+00
1.870000e-06	1.491706e-07	-6.954805e-11	1.036704e+00	-8.080628e+00
1.880000e-06	1.958412e-07	-5.050293e-11	1.361055e+00	-6.867777e+00
1.890000e-06	2.425410e-07	-3.344588e-11	1.685609e+00	-5.642298e+00
1.900000e-06	2.892865e-07	-1.727694e-11	2.010481e+00	-4.404990e+00
1.910000e-06	3.361995e-07	3.499054e-13	2.336516e+00	-3.156700e+00
1.920000e-06	3.831458e-07	1.813856e-11	2.662783e+00	-1.898324e+00
1.930000e-06	4.298420e-07	3.564747e-11	2.987312e+00	-6.308013e-01
1.940000e-06	4.764257e-07	5.358618e-11	3.311059e+00	6.448854e-01
1.950000e-06	5.230437e-07	7.143195e-11	3.635044e+00	1.927718e+00
1.960000e-06	5.695983e-07	8.830300e-11	3.958589e+00	3.216643e+00
1.970000e-06	6.160956e-07	1.078836e-10	4.281735e+00	4.510581e+00
1.980000e-06	6.625868e-07	1.279685e-10	4.604840e+00	5.808426e+00
1.990000e-06	7.090174e-07	1.436194e-10	4.927523e+00	7.109054e+00
2.000000e-06	7.554135e-07	1.622078e-10	5.249966e+00	8.411326e+00
2.010000e-06	8.017591e-07	1.789568e-10	5.572058e+00	9.714094e+00
2.020000e-06	8.480660e-07	1.954856e-10	5.893881e+00	1.101621e+01
2.030000e-06	8.943180e-07	2.166761e-10	6.215323e+00	1.231651e+01
2.040000e-06	9.404779e-07	2.381204e-10	6.536124e+00	1.361387e+01
2.050000e-06	9.865766e-07	2.585362e-10	6.856501e+00	1.490714e+01
2.060000e-06	1.032643e-06	2.772712e-10	7.176653e+00	1.619522e+01
2.070000e-06	1.078613e-06	2.962217e-10	7.496132e+00	1.747701e+01
2.080000e-06	1.124486e-06	3.123730e-10	7.814944e+00	1.875145e+01
2.090000e-06	1.170276e-06	3.281738e-10	8.133175e+00	2.001750e+01
2.100000e-06	1.215921e-06	3.444114e-10	8.450396e+00	2.127417e+01
2.110000e-06	1.261458e-06	3.617800e-10	8.766869e+00	2.252051e+01
2.120000e-06	1.306902e-06	3.782647e-10	9.082695e+00	2.375560e+01
2.130000e-06	1.352239e-06	3.948510e-10	9.397776e+00	2.497858e+01
2.140000e-06	1.397576e-06	4.119640e-10	9.712859e+00	2.618864e+01
2.150000e-06	1.442842e-06	4.273621e-10	1.002745e+01	2.738502e+01
2.160000e-06	1.487983e-06	4.430382e-10	1.034117e+01	2.856703e+01
2.170000e-06	1.533027e-06	4.599378e-10	1.065421e+01	2.973402e+01
2.180000e-06	1.577952e-06	4.757188e-10	1.096644e+01	3.088541e+01
2.190000e-06	1.622757e-06	4.916209e-10	1.127782e+01	3.202068e+01
2.200000e-06	1.667356e-06	5.047581e-10	1.158777e+01	3.313937e+01
2.210000e-06	1.711833e-06	5.170226e-10	1.189688e+01	3.424108e+01
2.220000e-06	1.756222e-06	5.292760e-10	1.220537e+01	3.532549e+01
2.230000e-06	1.800538e-06	5.447480e-10	1.251336e+01	3.639232e+01
2.240000e-06	1.844785e-06	5.639107e-10	1.282087e+01	3.744134e+01
2.250000e-06	1.888914e-06	5.837816e-10	1.312755e+01	3.847241e+01
2.260000e-06	1.932977e-06	6.021138e-10	1.343379e+01	3.948542e+01
2.270000e-06	1.976974e-06	6.145883e-10	1.373956e+01	4.048034e+01
2.280000e-06	2.020850e-06	6.237497e-10	1.404448e+01	4.145715e+01
2.290000e-06	2.064661e-06	6.330331e-10	1.434896e+01	4.241592e+01
2.300000e-06	2.108479e-06	6.435478e-10	1.465349e+01	4.335675e+01
2.310000e-06	2.152294e-06	6.558589e-10	1.495799e+01	4.427976e+01
2.320000e-06	2.195973e-06	6.715171e-10	1.526155e+01	4.518514e+01
2.330000e-06	2.239422e-06	6.895450e-10	1.556351e+01	4.607310e+01
2.340000e-06	2.282630e-06	7.068529e-10	1.586380e+01	4.694388e+01
2.350000e-06	2.325609e-06	7.194123e-10	1.616249e+01	4.779774e+01
2.360000e-06	2.368333e-06	7.295729e-10	1.645942e+01	4.863497e+01
2.370000e-06	2.410684e-06	7.379888e-10	1.675375e+01	4.945588e+01
2.380000e-06	2.452669e-06	7.460274e-10	1.704553e+01	5.026077e+01
2.390000e-06	2.494331e-06	7.540411e-10	1.733508e+01	5.105000e+01
2.400000e-06	2.535649e-06	7.652627e-10	1.762223e+01	5.182387e+01
2.410000e-06	2.576694e-06	7.790696e-10	1.790748e+01	5.258274e+01
2.420000e-06	2.617517e-06	7.936598e-10	1.819120e+01	5.332693e+01
2.430000e-06	2.658139e-06	8.076759e-10	1.847351e+01	5.405678e+01
2.440000e-06	2.698587e-06	8.192933e-10	1.875461e+01	5.477260e+01
2.450000e-06	2.738833e-06	8.283115e-10	1.903432e+01	5.547471e+01
2.460000e-06	2.778941e-06	8.351595e-10	1.931306e+01	5.616341e+01
2.470000e-06	2.818941e-06	8.399449e-10	1.959105e+01	5.683899e+01
2.480000e-06	2.858808e-06	8.471613e-10	1.986812e+01	5.750170e+01
2.490000e-06	2.898565e-06	8.576365e-10	2.014442e+01	5.815181e+01
2.500000e-06	2.938182e-06	8.696378e-10	2.041975e+01	5.878953e+01
2.510000e-06	2.977603e-06	8.820523e-10	2.069372e+01	5.941508e+01
2.520000e-06	3.016822e-06	8.946823e-10	2.096628e+01	6.002866e+01
2.530000e-06	3.055839e-06	9.065157e-10	2.123744e+01	6.063042e+01
2.540000e-06	3.094707e-06	9.161108e-10	2.150756e+01	6.122052e+01
2.550000e-06	3.133278e-06	9.226368e-10	2.177562e+01	6.179910e+01
2.560000e-06	3.171531e-06	9.278478e-10	2.204148e+01	6.236625e+01
2.570000e-06	3.209611e-06	9.352739e-10	2.230613e+01	6.292208e+01
2.580000e-06	3.247535e-06	9.451262e-10	2.256969e+01	6.346666e+01
2.590000e-06	3.285298e-06	9.558380e-10	2.283214e+01	6.400005e+01
2.600000e-06	3.322859e-06	9.639925e-10	2.309317e+01	6.452231e+01
2.610000e-06	3.360202e-06	9.708640e-10	2.335270e+01	6.503348e+01
2.620000e-06	3.397225e-06	9.779242e-10	2.361000e+01	6.553358e+01
2.630000e-06	3.433891e-06	9.847965e-10	2.386483e+01	6.602264e+01
2.640000e-06	3.470320e-06	9.917539e-10	2.411800e+01	6.650068e+01
2.650000e-06	3.506604e-06	1.001559e-09	2.437016e+01	6.696772e+01
2.660000e-06	3.542752e-06	1.010949e-09	2.462139e+01	6.742378e+01
2.670000e-06	3.578769e-06	1.018166e-09	2.487170e+01	6.786888e+01
2.680000e-06	3.614656e-06	1.021791e-09	2.512110e+01	6.830305e+01
2.690000e-06	3.650384e-06	1.021366e-09	2.536940e+01	6.872632e+01
2.700000e-06	3.685927e-06	1.020575e-09	2.561642e+01	6.913874e+01
2.710000e-06	3.721210e-06	1.024570e-09	2.586163e+01	6.954036e+01
2.720000e-06	3.756154e-06	1.031468e-09	2.610448e+01	6.993124e+01
2.730000e-06	3.790646e-06	1.038584e-09	2.634420e+01	7.031148e+01
2.740000e-06	3.824625e-06	1.046997e-09	2.658034e+01	7.068116e+01
2.750000e-06	3.858075e-06	1.053455e-09	2.681281e+01	7.104040e+01
2.760000e-06	3.891025e-06	1.055393e-09	2.704181e+01	7.138933e+01
2.770000e-06	3.923618e-06	1.056459e-09	2.726833e+01	7.172810e+01
2.780000e-06	3.955969e-06	1.058496e-09	2.749316e+01	7.205687e+01
2.790000e-06	3.988121e-06	1.060882e-09	2.771660e+01	7.237584e+01
2.800000e-06	4.020141e-06	1.065288e-09	2.793914e+01	7.268519e+01
2.810000e-06	4.052017e-06	1.070464e-09	2.816067e+01	7.298515e+01
2.820000e-06	4.083715e-06	1.074037e-09	2.838097e+01	7.327596e+01
2.830000e-06	4.115233e-06	1.078931e-09	2.860001e+01	7.355786e+01
2.840000e-06	4.146497e-06	1.084828e-09	2.881729e+01	7.383112e+01
2.850000e-06	4.177361e-06	1.089127e-09	2.903178e+01	7.409601e+01
2.860000e-06	4.207849e-06	1.092598e-09	2.924367e+01	7.435283e+01
2.870000e-06	4.238065e-06	1.095291e-09	2.945366e+01	7.460185e+01
2.880000e-06	4.267970e-06	1.096310e-09	2.966150e+01	7.484340e+01
2.890000e-06	4.297610e-06	1.096727e-09	2.986749e+01	7.507776e+01
2.900000e-06	4.327031e-06	1.097885e-09	3.007196e+01	7.530526e+01
