# Temperatura_=_11.77
# Concentracion g/m^3_=_1620.0
# C_Vs_to_Am_M_A/Vsm_=_65563218390.804596
# pendiente_HvsI_1/m_=_3716.3
# ordenada_HvsI_A/m_=_1297.0
# frecuencia_Hz_=_135109.10827675834

Tiempo_(s)	Campo_(V.s)	Magnetizacion_(V.s)	Campo_(kA/m)	Magnetizacion_(A/m)
0.000000e+00	-5.504067e-06	-1.184569e-09	-3.836865e+01	-7.702611e+01
1.000000e-08	-5.504186e-06	-1.182352e-09	-3.836948e+01	-7.699406e+01
2.000000e-08	-5.504014e-06	-1.181257e-09	-3.836827e+01	-7.696052e+01
3.000000e-08	-5.503400e-06	-1.180769e-09	-3.836400e+01	-7.692536e+01
4.000000e-08	-5.502152e-06	-1.178628e-09	-3.835529e+01	-7.688842e+01
5.000000e-08	-5.500235e-06	-1.175006e-09	-3.834193e+01	-7.684955e+01
6.000000e-08	-5.497810e-06	-1.170137e-09	-3.832503e+01	-7.680858e+01
7.000000e-08	-5.494959e-06	-1.183001e-09	-3.830515e+01	-7.676532e+01
8.000000e-08	-5.491688e-06	-1.185614e-09	-3.828235e+01	-7.671961e+01
9.000000e-08	-5.487903e-06	-1.160475e-09	-3.825597e+01	-7.667127e+01
1.000000e-07	-5.483670e-06	-1.156974e-09	-3.822646e+01	-7.662011e+01
1.100000e-07	-5.479158e-06	-1.206457e-09	-3.819501e+01	-7.656595e+01
1.200000e-07	-5.474456e-06	-1.160794e-09	-3.816223e+01	-7.650863e+01
1.300000e-07	-5.469530e-06	-1.152362e-09	-3.812789e+01	-7.644799e+01
1.400000e-07	-5.464221e-06	-1.116391e-09	-3.809088e+01	-7.638385e+01
1.500000e-07	-5.458491e-06	-1.211501e-09	-3.805094e+01	-7.631609e+01
1.600000e-07	-5.452280e-06	-1.183274e-09	-3.800764e+01	-7.624455e+01
1.700000e-07	-5.445660e-06	-1.145364e-09	-3.796149e+01	-7.616912e+01
1.800000e-07	-5.438640e-06	-1.125764e-09	-3.791256e+01	-7.608968e+01
1.900000e-07	-5.431283e-06	-1.184671e-09	-3.786127e+01	-7.600615e+01
2.000000e-07	-5.423659e-06	-1.202317e-09	-3.780812e+01	-7.591845e+01
2.100000e-07	-5.415768e-06	-1.163451e-09	-3.775312e+01	-7.582652e+01
2.200000e-07	-5.407678e-06	-1.150979e-09	-3.769672e+01	-7.573030e+01
2.300000e-07	-5.399347e-06	-1.152602e-09	-3.763865e+01	-7.562979e+01
2.400000e-07	-5.390506e-06	-1.177388e-09	-3.757702e+01	-7.552496e+01
2.500000e-07	-5.380889e-06	-1.131320e-09	-3.750998e+01	-7.541583e+01
2.600000e-07	-5.370563e-06	-1.148452e-09	-3.743799e+01	-7.530242e+01
2.700000e-07	-5.359672e-06	-1.140692e-09	-3.736208e+01	-7.518478e+01
2.800000e-07	-5.348370e-06	-1.167355e-09	-3.728329e+01	-7.506296e+01
2.900000e-07	-5.336695e-06	-1.121966e-09	-3.720190e+01	-7.493704e+01
3.000000e-07	-5.324659e-06	-1.142323e-09	-3.711800e+01	-7.480710e+01
3.100000e-07	-5.312187e-06	-1.127951e-09	-3.703106e+01	-7.467325e+01
3.200000e-07	-5.299307e-06	-1.158774e-09	-3.694127e+01	-7.453558e+01
3.300000e-07	-5.286072e-06	-1.108596e-09	-3.684901e+01	-7.439423e+01
3.400000e-07	-5.272397e-06	-1.114689e-09	-3.675369e+01	-7.424932e+01
3.500000e-07	-5.258296e-06	-1.117301e-09	-3.665539e+01	-7.410097e+01
3.600000e-07	-5.243650e-06	-1.145882e-09	-3.655329e+01	-7.394934e+01
3.700000e-07	-5.228437e-06	-1.102228e-09	-3.644724e+01	-7.379455e+01
3.800000e-07	-5.212766e-06	-1.125492e-09	-3.633800e+01	-7.363676e+01
3.900000e-07	-5.196556e-06	-1.138785e-09	-3.622499e+01	-7.347610e+01
4.000000e-07	-5.179886e-06	-1.111150e-09	-3.610879e+01	-7.331271e+01
4.100000e-07	-5.162886e-06	-1.089078e-09	-3.599029e+01	-7.314672e+01
4.200000e-07	-5.145708e-06	-1.133413e-09	-3.587054e+01	-7.297826e+01
4.300000e-07	-5.128348e-06	-1.124699e-09	-3.574952e+01	-7.280746e+01
4.400000e-07	-5.110612e-06	-1.072566e-09	-3.562588e+01	-7.263442e+01
4.500000e-07	-5.092436e-06	-1.110280e-09	-3.549918e+01	-7.245925e+01
4.600000e-07	-5.073806e-06	-1.127595e-09	-3.536931e+01	-7.228204e+01
4.700000e-07	-5.054782e-06	-1.078933e-09	-3.523669e+01	-7.210287e+01
4.800000e-07	-5.035467e-06	-1.073246e-09	-3.510206e+01	-7.192181e+01
4.900000e-07	-5.015902e-06	-1.131038e-09	-3.496566e+01	-7.173890e+01
5.000000e-07	-4.996119e-06	-1.081107e-09	-3.482776e+01	-7.155419e+01
5.100000e-07	-4.976139e-06	-1.063977e-09	-3.468848e+01	-7.136771e+01
5.200000e-07	-4.955862e-06	-1.108175e-09	-3.454713e+01	-7.117946e+01
5.300000e-07	-4.935186e-06	-1.101084e-09	-3.440300e+01	-7.098945e+01
5.400000e-07	-4.914142e-06	-1.029215e-09	-3.425630e+01	-7.079766e+01
5.500000e-07	-4.892783e-06	-1.078662e-09	-3.410741e+01	-7.060406e+01
5.600000e-07	-4.871048e-06	-1.094284e-09	-3.395590e+01	-7.040861e+01
5.700000e-07	-4.848951e-06	-1.049035e-09	-3.380186e+01	-7.021125e+01
5.800000e-07	-4.826509e-06	-1.048415e-09	-3.364541e+01	-7.001192e+01
5.900000e-07	-4.803738e-06	-1.096707e-09	-3.348668e+01	-6.981055e+01
6.000000e-07	-4.780567e-06	-1.048868e-09	-3.332516e+01	-6.960706e+01
6.100000e-07	-4.757080e-06	-1.038061e-09	-3.316142e+01	-6.940135e+01
6.200000e-07	-4.733435e-06	-1.066283e-09	-3.299660e+01	-6.919332e+01
6.300000e-07	-4.709627e-06	-1.056906e-09	-3.283063e+01	-6.898289e+01
6.400000e-07	-4.685653e-06	-1.025238e-09	-3.266351e+01	-6.876993e+01
6.500000e-07	-4.661340e-06	-1.053635e-09	-3.249403e+01	-6.855435e+01
6.600000e-07	-4.636443e-06	-1.045287e-09	-3.232047e+01	-6.833604e+01
6.700000e-07	-4.610894e-06	-1.020766e-09	-3.214237e+01	-6.811490e+01
6.800000e-07	-4.584801e-06	-1.030949e-09	-3.196047e+01	-6.789081e+01
6.900000e-07	-4.558149e-06	-1.040318e-09	-3.177469e+01	-6.766367e+01
7.000000e-07	-4.531060e-06	-1.016460e-09	-3.158585e+01	-6.743340e+01
7.100000e-07	-4.503711e-06	-1.018345e-09	-3.139520e+01	-6.719990e+01
7.200000e-07	-4.476153e-06	-1.027726e-09	-3.120310e+01	-6.696309e+01
7.300000e-07	-4.448441e-06	-1.009385e-09	-3.100992e+01	-6.672288e+01
7.400000e-07	-4.420556e-06	-1.000748e-09	-3.081553e+01	-6.647922e+01
7.500000e-07	-4.392459e-06	-1.004374e-09	-3.061967e+01	-6.623205e+01
7.600000e-07	-4.364027e-06	-1.000101e-09	-3.042147e+01	-6.598131e+01
7.700000e-07	-4.335206e-06	-9.886594e-10	-3.022056e+01	-6.572697e+01
7.800000e-07	-4.306081e-06	-9.963049e-10	-3.001753e+01	-6.546900e+01
7.900000e-07	-4.276724e-06	-9.893526e-10	-2.981289e+01	-6.520737e+01
8.000000e-07	-4.247120e-06	-9.807970e-10	-2.960652e+01	-6.494209e+01
8.100000e-07	-4.217238e-06	-9.722633e-10	-2.939821e+01	-6.467315e+01
8.200000e-07	-4.187068e-06	-9.702122e-10	-2.918789e+01	-6.440056e+01
8.300000e-07	-4.156537e-06	-9.512544e-10	-2.897506e+01	-6.412434e+01
8.400000e-07	-4.125673e-06	-9.510327e-10	-2.875991e+01	-6.384452e+01
8.500000e-07	-4.094545e-06	-9.495817e-10	-2.854292e+01	-6.356113e+01
8.600000e-07	-4.063238e-06	-9.479978e-10	-2.832468e+01	-6.327420e+01
8.700000e-07	-4.031779e-06	-9.417866e-10	-2.810538e+01	-6.298380e+01
8.800000e-07	-4.000134e-06	-9.507345e-10	-2.788479e+01	-6.268996e+01
8.900000e-07	-3.968318e-06	-9.409411e-10	-2.766300e+01	-6.239274e+01
9.000000e-07	-3.936257e-06	-9.307018e-10	-2.743950e+01	-6.209220e+01
9.100000e-07	-3.903837e-06	-9.224425e-10	-2.721350e+01	-6.178838e+01
9.200000e-07	-3.870994e-06	-9.158215e-10	-2.698456e+01	-6.148135e+01
9.300000e-07	-3.837693e-06	-9.015966e-10	-2.675241e+01	-6.117115e+01
9.400000e-07	-3.804010e-06	-9.042003e-10	-2.651761e+01	-6.085784e+01
9.500000e-07	-3.769974e-06	-9.066339e-10	-2.628035e+01	-6.054147e+01
9.600000e-07	-3.735472e-06	-9.013384e-10	-2.603983e+01	-6.022208e+01
9.700000e-07	-3.700556e-06	-8.939663e-10	-2.579644e+01	-5.989970e+01
9.800000e-07	-3.665361e-06	-8.910566e-10	-2.555110e+01	-5.957436e+01
9.900000e-07	-3.629972e-06	-8.805966e-10	-2.530440e+01	-5.924609e+01
1.000000e-06	-3.594414e-06	-8.706445e-10	-2.505652e+01	-5.891489e+01
1.010000e-06	-3.558667e-06	-8.737440e-10	-2.480733e+01	-5.858078e+01
1.020000e-06	-3.522787e-06	-8.748817e-10	-2.455722e+01	-5.824374e+01
1.030000e-06	-3.486799e-06	-8.689228e-10	-2.430635e+01	-5.790378e+01
1.040000e-06	-3.450601e-06	-8.669607e-10	-2.405401e+01	-5.756085e+01
1.050000e-06	-3.414107e-06	-8.662172e-10	-2.379961e+01	-5.721493e+01
1.060000e-06	-3.377295e-06	-8.541449e-10	-2.354300e+01	-5.686598e+01
1.070000e-06	-3.340241e-06	-8.467588e-10	-2.328470e+01	-5.651394e+01
1.080000e-06	-3.302958e-06	-8.427740e-10	-2.302479e+01	-5.615875e+01
1.090000e-06	-3.265494e-06	-8.369470e-10	-2.276364e+01	-5.580034e+01
1.100000e-06	-3.227884e-06	-8.266322e-10	-2.250146e+01	-5.543864e+01
1.110000e-06	-3.190016e-06	-8.244709e-10	-2.223749e+01	-5.507357e+01
1.120000e-06	-3.151908e-06	-8.167305e-10	-2.197183e+01	-5.470502e+01
1.130000e-06	-3.113578e-06	-8.109858e-10	-2.170464e+01	-5.433290e+01
1.140000e-06	-3.075025e-06	-8.042699e-10	-2.143588e+01	-5.395711e+01
1.150000e-06	-3.036185e-06	-8.022007e-10	-2.116513e+01	-5.357754e+01
1.160000e-06	-2.997073e-06	-7.937504e-10	-2.089248e+01	-5.319408e+01
1.170000e-06	-2.957816e-06	-7.893151e-10	-2.061882e+01	-5.280663e+01
1.180000e-06	-2.918417e-06	-7.824906e-10	-2.034418e+01	-5.241506e+01
1.190000e-06	-2.878845e-06	-7.748134e-10	-2.006832e+01	-5.201926e+01
1.200000e-06	-2.839129e-06	-7.654391e-10	-1.979146e+01	-5.161912e+01
1.210000e-06	-2.799281e-06	-7.598973e-10	-1.951369e+01	-5.121453e+01
1.220000e-06	-2.759330e-06	-7.509345e-10	-1.923519e+01	-5.080536e+01
1.230000e-06	-2.719298e-06	-7.424779e-10	-1.895613e+01	-5.039151e+01
1.240000e-06	-2.679075e-06	-7.327000e-10	-1.867573e+01	-4.997286e+01
1.250000e-06	-2.638600e-06	-7.263878e-10	-1.839358e+01	-4.954932e+01
1.260000e-06	-2.597942e-06	-7.196657e-10	-1.811016e+01	-4.912078e+01
1.270000e-06	-2.557093e-06	-7.123000e-10	-1.782540e+01	-4.868713e+01
1.280000e-06	-2.515927e-06	-7.056539e-10	-1.753843e+01	-4.824827e+01
1.290000e-06	-2.474408e-06	-6.972333e-10	-1.724901e+01	-4.780410e+01
1.300000e-06	-2.432624e-06	-6.885853e-10	-1.695773e+01	-4.735452e+01
1.310000e-06	-2.390538e-06	-6.782943e-10	-1.666435e+01	-4.689944e+01
1.320000e-06	-2.348092e-06	-6.684543e-10	-1.636846e+01	-4.643875e+01
1.330000e-06	-2.305427e-06	-6.578521e-10	-1.607105e+01	-4.597235e+01
1.340000e-06	-2.262554e-06	-6.501246e-10	-1.577218e+01	-4.550014e+01
1.350000e-06	-2.219381e-06	-6.427544e-10	-1.547122e+01	-4.502202e+01
1.360000e-06	-2.176009e-06	-6.372802e-10	-1.516888e+01	-4.453786e+01
1.370000e-06	-2.132524e-06	-6.293650e-10	-1.486575e+01	-4.404754e+01
1.380000e-06	-2.088926e-06	-6.189772e-10	-1.456183e+01	-4.355094e+01
1.390000e-06	-2.045251e-06	-6.062111e-10	-1.425737e+01	-4.304792e+01
1.400000e-06	-2.001497e-06	-5.969009e-10	-1.395236e+01	-4.253832e+01
1.410000e-06	-1.957721e-06	-5.871608e-10	-1.364720e+01	-4.202198e+01
1.420000e-06	-1.913907e-06	-5.800044e-10	-1.334177e+01	-4.149873e+01
1.430000e-06	-1.870004e-06	-5.709770e-10	-1.303573e+01	-4.096836e+01
1.440000e-06	-1.825984e-06	-5.636019e-10	-1.272887e+01	-4.043067e+01
1.450000e-06	-1.781803e-06	-5.542517e-10	-1.242088e+01	-3.988543e+01
1.460000e-06	-1.737434e-06	-5.457648e-10	-1.211159e+01	-3.933237e+01
1.470000e-06	-1.692900e-06	-5.355022e-10	-1.180114e+01	-3.877124e+01
1.480000e-06	-1.648320e-06	-5.266519e-10	-1.149037e+01	-3.820173e+01
1.490000e-06	-1.603618e-06	-5.200177e-10	-1.117876e+01	-3.762353e+01
1.500000e-06	-1.558736e-06	-5.145123e-10	-1.086589e+01	-3.703631e+01
1.510000e-06	-1.513748e-06	-5.063174e-10	-1.055228e+01	-3.643970e+01
1.520000e-06	-1.468724e-06	-4.958169e-10	-1.023842e+01	-3.583331e+01
1.530000e-06	-1.423613e-06	-4.845646e-10	-9.923956e+00	-3.521675e+01
1.540000e-06	-1.378325e-06	-4.737481e-10	-9.608251e+00	-3.458958e+01
1.550000e-06	-1.332957e-06	-4.623796e-10	-9.291994e+00	-3.395136e+01
1.560000e-06	-1.287519e-06	-4.518987e-10	-8.975247e+00	-3.330164e+01
1.570000e-06	-1.241983e-06	-4.424112e-10	-8.657815e+00	-3.263992e+01
1.580000e-06	-1.196410e-06	-4.303654e-10	-8.340132e+00	-3.196571e+01
1.590000e-06	-1.150726e-06	-4.184934e-10	-8.021668e+00	-3.127852e+01
1.600000e-06	-1.104927e-06	-4.069094e-10	-7.702407e+00	-3.057783e+01
1.610000e-06	-1.059081e-06	-3.941864e-10	-7.382814e+00	-2.986311e+01
1.620000e-06	-1.013176e-06	-3.794367e-10	-7.062813e+00	-2.913385e+01
1.630000e-06	-9.671597e-07	-3.654487e-10	-6.742034e+00	-2.838953e+01
1.640000e-06	-9.210128e-07	-3.522699e-10	-6.420346e+00	-2.762963e+01
1.650000e-06	-8.747908e-07	-3.402603e-10	-6.098134e+00	-2.685366e+01
1.660000e-06	-8.285786e-07	-3.276027e-10	-5.775991e+00	-2.606111e+01
1.670000e-06	-7.823877e-07	-3.156357e-10	-5.453996e+00	-2.525154e+01
1.680000e-06	-7.360906e-07	-3.040754e-10	-5.131260e+00	-2.442448e+01
1.690000e-06	-6.896898e-07	-2.932625e-10	-4.807802e+00	-2.357952e+01
1.700000e-06	-6.433392e-07	-2.816089e-10	-4.484693e+00	-2.271627e+01
1.710000e-06	-5.970284e-07	-2.693791e-10	-4.161863e+00	-2.183439e+01
1.720000e-06	-5.506180e-07	-2.544959e-10	-3.838338e+00	-2.093358e+01
1.730000e-06	-5.041179e-07	-2.385542e-10	-3.514187e+00	-2.001358e+01
1.740000e-06	-4.576153e-07	-2.218746e-10	-3.190019e+00	-1.907417e+01
1.750000e-06	-4.111331e-07	-2.061375e-10	-2.865994e+00	-1.811523e+01
1.760000e-06	-3.646440e-07	-1.918635e-10	-2.541920e+00	-1.713664e+01
1.770000e-06	-3.180632e-07	-1.788702e-10	-2.217207e+00	-1.613840e+01
1.780000e-06	-2.714077e-07	-1.658823e-10	-1.891973e+00	-1.512055e+01
1.790000e-06	-2.247526e-07	-1.546804e-10	-1.566742e+00	-1.408319e+01
1.800000e-06	-1.780871e-07	-1.418876e-10	-1.241439e+00	-1.302651e+01
1.810000e-06	-1.313806e-07	-1.262334e-10	-9.158496e-01	-1.195079e+01
1.820000e-06	-8.465640e-08	-1.090375e-10	-5.901366e-01	-1.085635e+01
1.830000e-06	-3.798532e-08	-9.122984e-11	-2.647943e-01	-9.743627e+00
1.840000e-06	8.618115e-09	-7.300966e-11	6.007656e-02	-8.613107e+00
1.850000e-06	5.520817e-08	-5.598319e-11	3.848541e-01	-7.465371e+00
1.860000e-06	1.019032e-07	-3.904506e-11	7.103631e-01	-6.301079e+00
1.870000e-06	1.486706e-07	-2.099626e-11	1.036377e+00	-5.120968e+00
1.880000e-06	1.954322e-07	-4.225745e-12	1.362351e+00	-3.925851e+00
1.890000e-06	2.421938e-07	1.103298e-11	1.688324e+00	-2.716619e+00
1.900000e-06	2.888841e-07	2.556539e-11	2.013800e+00	-1.494233e+00
1.910000e-06	3.355040e-07	4.191872e-11	2.338786e+00	-2.597250e-01
1.920000e-06	3.821130e-07	6.144203e-11	2.663696e+00	9.858074e-01
1.930000e-06	4.286807e-07	8.342656e-11	2.988317e+00	2.241205e+00
1.940000e-06	4.752411e-07	1.041735e-10	3.312888e+00	3.505253e+00
1.950000e-06	5.216982e-07	1.226037e-10	3.636739e+00	4.776682e+00
1.960000e-06	5.680171e-07	1.388316e-10	3.959626e+00	6.054180e+00
1.970000e-06	6.143584e-07	1.551875e-10	4.282669e+00	7.336392e+00
1.980000e-06	6.606606e-07	1.705476e-10	4.605441e+00	8.621932e+00
1.990000e-06	7.068163e-07	1.847678e-10	4.927190e+00	9.909385e+00
2.000000e-06	7.529316e-07	2.031008e-10	5.248658e+00	1.119732e+01
2.010000e-06	7.990963e-07	2.231854e-10	5.570471e+00	1.248428e+01
2.020000e-06	8.452005e-07	2.439507e-10	5.891861e+00	1.376883e+01
2.030000e-06	8.912470e-07	2.682763e-10	6.212849e+00	1.504950e+01
2.040000e-06	9.372683e-07	2.901365e-10	6.533662e+00	1.632486e+01
2.050000e-06	9.832386e-07	3.089562e-10	6.854119e+00	1.759349e+01
2.060000e-06	1.029115e-06	3.253453e-10	7.173920e+00	1.885398e+01
2.070000e-06	1.074858e-06	3.399965e-10	7.492797e+00	2.010496e+01
2.080000e-06	1.120509e-06	3.532985e-10	7.811024e+00	2.134510e+01
2.090000e-06	1.166149e-06	3.686877e-10	8.129183e+00	2.257312e+01
2.100000e-06	1.211760e-06	3.851306e-10	8.447133e+00	2.378778e+01
2.110000e-06	1.257256e-06	4.024985e-10	8.764288e+00	2.498790e+01
2.120000e-06	1.302644e-06	4.208731e-10	9.080680e+00	2.617237e+01
2.130000e-06	1.347878e-06	4.395825e-10	9.396005e+00	2.734014e+01
2.140000e-06	1.393045e-06	4.569965e-10	9.710867e+00	2.849024e+01
2.150000e-06	1.438237e-06	4.716654e-10	1.002590e+01	2.962177e+01
2.160000e-06	1.483334e-06	4.859695e-10	1.034027e+01	3.073391e+01
2.170000e-06	1.528326e-06	4.994181e-10	1.065391e+01	3.182594e+01
2.180000e-06	1.573164e-06	5.146280e-10	1.096647e+01	3.289720e+01
2.190000e-06	1.617744e-06	5.323472e-10	1.127723e+01	3.394714e+01
2.200000e-06	1.662163e-06	5.475776e-10	1.158687e+01	3.497529e+01
2.210000e-06	1.706548e-06	5.585076e-10	1.189628e+01	3.598126e+01
2.220000e-06	1.750870e-06	5.670673e-10	1.220525e+01	3.696478e+01
2.230000e-06	1.795016e-06	5.768745e-10	1.251299e+01	3.792563e+01
2.240000e-06	1.838988e-06	5.892769e-10	1.281952e+01	3.886370e+01
2.250000e-06	1.882851e-06	6.036418e-10	1.312528e+01	3.977896e+01
2.260000e-06	1.926626e-06	6.182434e-10	1.343044e+01	4.067146e+01
2.270000e-06	1.970366e-06	6.297367e-10	1.373535e+01	4.154134e+01
2.280000e-06	2.014102e-06	6.388907e-10	1.404023e+01	4.238881e+01
2.290000e-06	2.057810e-06	6.461686e-10	1.434491e+01	4.321415e+01
2.300000e-06	2.101445e-06	6.526030e-10	1.464909e+01	4.401770e+01
2.310000e-06	2.144938e-06	6.600326e-10	1.495228e+01	4.479988e+01
2.320000e-06	2.188271e-06	6.719244e-10	1.525436e+01	4.556116e+01
2.330000e-06	2.231509e-06	6.877757e-10	1.555577e+01	4.630206e+01
2.340000e-06	2.274655e-06	7.034174e-10	1.585654e+01	4.702314e+01
2.350000e-06	2.317558e-06	7.146974e-10	1.615561e+01	4.772501e+01
2.360000e-06	2.360219e-06	7.213950e-10	1.645300e+01	4.840832e+01
2.370000e-06	2.402609e-06	7.253096e-10	1.674850e+01	4.907373e+01
2.380000e-06	2.444649e-06	7.308281e-10	1.704156e+01	4.972194e+01
2.390000e-06	2.486319e-06	7.387817e-10	1.733204e+01	5.035365e+01
2.400000e-06	2.527535e-06	7.472550e-10	1.761935e+01	5.096958e+01
2.410000e-06	2.568517e-06	7.557617e-10	1.790503e+01	5.157046e+01
2.420000e-06	2.609356e-06	7.647478e-10	1.818972e+01	5.215699e+01
2.430000e-06	2.649936e-06	7.729933e-10	1.847260e+01	5.272991e+01
2.440000e-06	2.690303e-06	7.791431e-10	1.875400e+01	5.328990e+01
2.450000e-06	2.730478e-06	7.860499e-10	1.903406e+01	5.383765e+01
2.460000e-06	2.770464e-06	7.948836e-10	1.931280e+01	5.437383e+01
2.470000e-06	2.810283e-06	8.035927e-10	1.959038e+01	5.489907e+01
2.480000e-06	2.849959e-06	8.117326e-10	1.986696e+01	5.541397e+01
2.490000e-06	2.889560e-06	8.193635e-10	2.014302e+01	5.591913e+01
2.500000e-06	2.929096e-06	8.259931e-10	2.041862e+01	5.641506e+01
2.510000e-06	2.968457e-06	8.317492e-10	2.069300e+01	5.690229e+01
2.520000e-06	3.007596e-06	8.380911e-10	2.096584e+01	5.738127e+01
2.530000e-06	3.046518e-06	8.470905e-10	2.123716e+01	5.785243e+01
2.540000e-06	3.085158e-06	8.564111e-10	2.150652e+01	5.831615e+01
2.550000e-06	3.123546e-06	8.633595e-10	2.177412e+01	5.877277e+01
2.560000e-06	3.161724e-06	8.681781e-10	2.204026e+01	5.922259e+01
2.570000e-06	3.199681e-06	8.723032e-10	2.230486e+01	5.966588e+01
2.580000e-06	3.237489e-06	8.778496e-10	2.256841e+01	6.010284e+01
2.590000e-06	3.275123e-06	8.858843e-10	2.283076e+01	6.053366e+01
2.600000e-06	3.312558e-06	8.929580e-10	2.309172e+01	6.095847e+01
2.610000e-06	3.349742e-06	8.985491e-10	2.335093e+01	6.137740e+01
2.620000e-06	3.386712e-06	9.054717e-10	2.360864e+01	6.179051e+01
2.630000e-06	3.423405e-06	9.133609e-10	2.386443e+01	6.219785e+01
2.640000e-06	3.459764e-06	9.205231e-10	2.411788e+01	6.259943e+01
2.650000e-06	3.495938e-06	9.270728e-10	2.437006e+01	6.299525e+01
2.660000e-06	3.531943e-06	9.339157e-10	2.462104e+01	6.338529e+01
2.670000e-06	3.567776e-06	9.390208e-10	2.487084e+01	6.376948e+01
2.680000e-06	3.603473e-06	9.408697e-10	2.511968e+01	6.414778e+01
2.690000e-06	3.639058e-06	9.396979e-10	2.536774e+01	6.452011e+01
2.700000e-06	3.674503e-06	9.414568e-10	2.561483e+01	6.488640e+01
2.710000e-06	3.709722e-06	9.481327e-10	2.586033e+01	6.524655e+01
2.720000e-06	3.744608e-06	9.544312e-10	2.610352e+01	6.560048e+01
2.730000e-06	3.779066e-06	9.603221e-10	2.634373e+01	6.594811e+01
2.740000e-06	3.813057e-06	9.667690e-10	2.658068e+01	6.628935e+01
2.750000e-06	3.846570e-06	9.724529e-10	2.681430e+01	6.662413e+01
2.760000e-06	3.879543e-06	9.767625e-10	2.704415e+01	6.695238e+01
2.770000e-06	3.912096e-06	9.792586e-10	2.727108e+01	6.727405e+01
2.780000e-06	3.944404e-06	9.819529e-10	2.749629e+01	6.758910e+01
2.790000e-06	3.976512e-06	9.847351e-10	2.772012e+01	6.789749e+01
2.800000e-06	4.008420e-06	9.883161e-10	2.794254e+01	6.819923e+01
2.810000e-06	4.040081e-06	9.931759e-10	2.816325e+01	6.849430e+01
2.820000e-06	4.071604e-06	9.991009e-10	2.838300e+01	6.878275e+01
2.830000e-06	4.103026e-06	1.005382e-09	2.860204e+01	6.906460e+01
2.840000e-06	4.134162e-06	1.007278e-09	2.881909e+01	6.933991e+01
2.850000e-06	4.164975e-06	1.008185e-09	2.903389e+01	6.960877e+01
2.860000e-06	4.195453e-06	1.011342e-09	2.924635e+01	6.987126e+01
2.870000e-06	4.225545e-06	1.013971e-09	2.945612e+01	7.012750e+01
2.880000e-06	4.255350e-06	1.015717e-09	2.966388e+01	7.037760e+01
2.890000e-06	4.284915e-06	1.018242e-09	2.986998e+01	7.062171e+01
2.900000e-06	4.314181e-06	1.021901e-09	3.007399e+01	7.085998e+01
2.910000e-06	4.343125e-06	1.025272e-09	3.027576e+01	7.109256e+01
