# Temperatura_=_-4.9
# Concentracion g/m^3_=_1620.0
# C_Vs_to_Am_M_A/Vsm_=_65563218390.804596
# pendiente_HvsI_1/m_=_3716.3
# ordenada_HvsI_A/m_=_1297.0
# frecuencia_Hz_=_135101.59044850493

Tiempo_(s)	Campo_(V.s)	Magnetizacion_(V.s)	Campo_(kA/m)	Magnetizacion_(A/m)
0.000000e+00	-5.536305e-06	-9.556083e-10	-3.837133e+01	-6.366952e+01
1.000000e-08	-5.536440e-06	-9.516291e-10	-3.837227e+01	-6.365212e+01
2.000000e-08	-5.536273e-06	-9.491760e-10	-3.837111e+01	-6.363462e+01
3.000000e-08	-5.535634e-06	-9.490722e-10	-3.836668e+01	-6.361690e+01
4.000000e-08	-5.534401e-06	-9.493847e-10	-3.835813e+01	-6.359883e+01
5.000000e-08	-5.532551e-06	-9.499960e-10	-3.834531e+01	-6.358030e+01
6.000000e-08	-5.530162e-06	-9.444493e-10	-3.832876e+01	-6.356114e+01
7.000000e-08	-5.527293e-06	-9.579289e-10	-3.830887e+01	-6.354122e+01
8.000000e-08	-5.523910e-06	-9.855529e-10	-3.828543e+01	-6.352039e+01
9.000000e-08	-5.520028e-06	-9.814368e-10	-3.825852e+01	-6.349847e+01
1.000000e-07	-5.515721e-06	-9.286412e-10	-3.822866e+01	-6.347531e+01
1.100000e-07	-5.511189e-06	-9.218135e-10	-3.819726e+01	-6.345074e+01
1.200000e-07	-5.506587e-06	-9.741595e-10	-3.816536e+01	-6.342459e+01
1.300000e-07	-5.501652e-06	-9.892732e-10	-3.813116e+01	-6.339671e+01
1.400000e-07	-5.496222e-06	-9.276153e-10	-3.809353e+01	-6.336692e+01
1.500000e-07	-5.490409e-06	-9.192276e-10	-3.805323e+01	-6.333507e+01
1.600000e-07	-5.484256e-06	-9.750362e-10	-3.801059e+01	-6.330100e+01
1.700000e-07	-5.477677e-06	-1.016022e-09	-3.796499e+01	-6.326457e+01
1.800000e-07	-5.470675e-06	-9.430024e-10	-3.791646e+01	-6.322563e+01
1.900000e-07	-5.463417e-06	-9.214535e-10	-3.786616e+01	-6.318406e+01
2.000000e-07	-5.455934e-06	-9.480042e-10	-3.781429e+01	-6.313974e+01
2.100000e-07	-5.448124e-06	-9.980178e-10	-3.776017e+01	-6.309255e+01
2.200000e-07	-5.440062e-06	-9.662014e-10	-3.770429e+01	-6.304241e+01
2.300000e-07	-5.431647e-06	-9.402034e-10	-3.764596e+01	-6.298922e+01
2.400000e-07	-5.422539e-06	-9.491614e-10	-3.758284e+01	-6.293291e+01
2.500000e-07	-5.412732e-06	-9.732988e-10	-3.751487e+01	-6.287343e+01
2.600000e-07	-5.402299e-06	-9.460803e-10	-3.744255e+01	-6.281074e+01
2.700000e-07	-5.391324e-06	-9.146909e-10	-3.736649e+01	-6.274480e+01
2.800000e-07	-5.379920e-06	-9.372250e-10	-3.728745e+01	-6.267561e+01
2.900000e-07	-5.368170e-06	-9.485552e-10	-3.720601e+01	-6.260316e+01
3.000000e-07	-5.356118e-06	-9.285824e-10	-3.712248e+01	-6.252748e+01
3.100000e-07	-5.343605e-06	-8.960964e-10	-3.703575e+01	-6.244858e+01
3.200000e-07	-5.330628e-06	-9.400822e-10	-3.694582e+01	-6.236652e+01
3.300000e-07	-5.317292e-06	-9.445668e-10	-3.685339e+01	-6.228136e+01
3.400000e-07	-5.303556e-06	-9.131779e-10	-3.675818e+01	-6.219316e+01
3.500000e-07	-5.289242e-06	-8.849824e-10	-3.665898e+01	-6.210201e+01
3.600000e-07	-5.274439e-06	-9.366162e-10	-3.655638e+01	-6.200800e+01
3.700000e-07	-5.259277e-06	-9.236855e-10	-3.645129e+01	-6.191123e+01
3.800000e-07	-5.243530e-06	-8.949087e-10	-3.634215e+01	-6.181182e+01
3.900000e-07	-5.227220e-06	-9.108941e-10	-3.622911e+01	-6.170989e+01
4.000000e-07	-5.210589e-06	-9.442632e-10	-3.611384e+01	-6.160556e+01
4.100000e-07	-5.193695e-06	-8.950097e-10	-3.599675e+01	-6.149896e+01
4.200000e-07	-5.176510e-06	-8.958201e-10	-3.587764e+01	-6.139024e+01
4.300000e-07	-5.159003e-06	-9.435881e-10	-3.575631e+01	-6.127953e+01
4.400000e-07	-5.141134e-06	-9.272145e-10	-3.563246e+01	-6.116697e+01
4.500000e-07	-5.122750e-06	-8.723478e-10	-3.550504e+01	-6.105271e+01
4.600000e-07	-5.103895e-06	-9.155353e-10	-3.537436e+01	-6.093688e+01
4.700000e-07	-5.084791e-06	-9.324659e-10	-3.524196e+01	-6.081961e+01
4.800000e-07	-5.065448e-06	-8.888744e-10	-3.510789e+01	-6.070105e+01
4.900000e-07	-5.045886e-06	-9.009807e-10	-3.497231e+01	-6.058133e+01
5.000000e-07	-5.026135e-06	-9.369634e-10	-3.483542e+01	-6.046055e+01
5.100000e-07	-5.006041e-06	-8.873482e-10	-3.469615e+01	-6.033883e+01
5.200000e-07	-4.985530e-06	-8.763210e-10	-3.455399e+01	-6.021629e+01
5.300000e-07	-4.964694e-06	-9.322826e-10	-3.440958e+01	-6.009301e+01
5.400000e-07	-4.943538e-06	-9.105265e-10	-3.426295e+01	-5.996908e+01
5.500000e-07	-4.921960e-06	-8.624016e-10	-3.411340e+01	-5.984457e+01
5.600000e-07	-4.900048e-06	-9.034995e-10	-3.396152e+01	-5.971955e+01
5.700000e-07	-4.877926e-06	-9.236903e-10	-3.380820e+01	-5.959406e+01
5.800000e-07	-4.855399e-06	-8.788266e-10	-3.365207e+01	-5.946813e+01
5.900000e-07	-4.832433e-06	-8.963266e-10	-3.349289e+01	-5.934179e+01
6.000000e-07	-4.809227e-06	-9.255836e-10	-3.333206e+01	-5.921505e+01
6.100000e-07	-4.785762e-06	-8.973157e-10	-3.316943e+01	-5.908790e+01
6.200000e-07	-4.762113e-06	-8.842674e-10	-3.300552e+01	-5.896031e+01
6.300000e-07	-4.738273e-06	-9.123143e-10	-3.284029e+01	-5.883226e+01
6.400000e-07	-4.714104e-06	-8.904415e-10	-3.267277e+01	-5.870369e+01
6.500000e-07	-4.689539e-06	-8.744164e-10	-3.250252e+01	-5.857455e+01
6.600000e-07	-4.664483e-06	-8.885274e-10	-3.232886e+01	-5.844475e+01
6.700000e-07	-4.638783e-06	-8.880202e-10	-3.215073e+01	-5.831421e+01
6.800000e-07	-4.612375e-06	-8.669487e-10	-3.196770e+01	-5.818282e+01
6.900000e-07	-4.585440e-06	-8.825144e-10	-3.178102e+01	-5.805049e+01
7.000000e-07	-4.558172e-06	-8.817581e-10	-3.159203e+01	-5.791707e+01
7.100000e-07	-4.530729e-06	-8.650937e-10	-3.140183e+01	-5.778245e+01
7.200000e-07	-4.503178e-06	-8.645726e-10	-3.121088e+01	-5.764648e+01
7.300000e-07	-4.475423e-06	-8.768636e-10	-3.101851e+01	-5.750901e+01
7.400000e-07	-4.447456e-06	-8.619195e-10	-3.082468e+01	-5.736988e+01
7.500000e-07	-4.419284e-06	-8.574851e-10	-3.062942e+01	-5.722894e+01
7.600000e-07	-4.390756e-06	-8.622121e-10	-3.043170e+01	-5.708602e+01
7.700000e-07	-4.361827e-06	-8.567817e-10	-3.023119e+01	-5.694094e+01
7.800000e-07	-4.332514e-06	-8.504744e-10	-3.002803e+01	-5.679354e+01
7.900000e-07	-4.302971e-06	-8.598258e-10	-2.982327e+01	-5.664364e+01
8.000000e-07	-4.273260e-06	-8.526534e-10	-2.961735e+01	-5.649107e+01
8.100000e-07	-4.243189e-06	-8.352361e-10	-2.940893e+01	-5.633565e+01
8.200000e-07	-4.212782e-06	-8.331244e-10	-2.919819e+01	-5.617721e+01
8.300000e-07	-4.182109e-06	-8.310015e-10	-2.898559e+01	-5.601559e+01
8.400000e-07	-4.151125e-06	-8.197430e-10	-2.877085e+01	-5.585063e+01
8.500000e-07	-4.119895e-06	-8.217164e-10	-2.855440e+01	-5.568216e+01
8.600000e-07	-4.088445e-06	-8.295629e-10	-2.833642e+01	-5.551003e+01
8.700000e-07	-4.056812e-06	-8.210789e-10	-2.811718e+01	-5.533409e+01
8.800000e-07	-4.025079e-06	-8.186246e-10	-2.789724e+01	-5.515421e+01
8.900000e-07	-3.993108e-06	-8.193128e-10	-2.767566e+01	-5.497027e+01
9.000000e-07	-3.960763e-06	-8.084471e-10	-2.745148e+01	-5.478213e+01
9.100000e-07	-3.928075e-06	-7.949528e-10	-2.722492e+01	-5.458969e+01
9.200000e-07	-3.895044e-06	-7.983206e-10	-2.699599e+01	-5.439284e+01
9.300000e-07	-3.861621e-06	-7.941075e-10	-2.676434e+01	-5.419151e+01
9.400000e-07	-3.827695e-06	-7.858137e-10	-2.652920e+01	-5.398561e+01
9.500000e-07	-3.793283e-06	-7.858288e-10	-2.629070e+01	-5.377507e+01
9.600000e-07	-3.758455e-06	-7.871549e-10	-2.604931e+01	-5.355984e+01
9.700000e-07	-3.723290e-06	-7.745639e-10	-2.580559e+01	-5.333987e+01
9.800000e-07	-3.687910e-06	-7.716447e-10	-2.556037e+01	-5.311512e+01
9.900000e-07	-3.652400e-06	-7.720902e-10	-2.531426e+01	-5.288559e+01
1.000000e-06	-3.616703e-06	-7.671514e-10	-2.506684e+01	-5.265125e+01
1.010000e-06	-3.580800e-06	-7.627302e-10	-2.481801e+01	-5.241211e+01
1.020000e-06	-3.544810e-06	-7.683034e-10	-2.456857e+01	-5.216818e+01
1.030000e-06	-3.508615e-06	-7.638415e-10	-2.431771e+01	-5.191946e+01
1.040000e-06	-3.472092e-06	-7.560104e-10	-2.406457e+01	-5.166601e+01
1.050000e-06	-3.435312e-06	-7.532139e-10	-2.380965e+01	-5.140784e+01
1.060000e-06	-3.398241e-06	-7.493644e-10	-2.355272e+01	-5.114501e+01
1.070000e-06	-3.360860e-06	-7.378027e-10	-2.329364e+01	-5.087757e+01
1.080000e-06	-3.323322e-06	-7.348006e-10	-2.303347e+01	-5.060557e+01
1.090000e-06	-3.285647e-06	-7.350674e-10	-2.277235e+01	-5.032909e+01
1.100000e-06	-3.247733e-06	-7.286990e-10	-2.250957e+01	-5.004818e+01
1.110000e-06	-3.209509e-06	-7.244426e-10	-2.224465e+01	-4.976293e+01
1.120000e-06	-3.171020e-06	-7.242944e-10	-2.197788e+01	-4.947339e+01
1.130000e-06	-3.132366e-06	-7.173392e-10	-2.170998e+01	-4.917966e+01
1.140000e-06	-3.093547e-06	-7.051371e-10	-2.144093e+01	-4.888180e+01
1.150000e-06	-3.054526e-06	-6.986131e-10	-2.117048e+01	-4.857988e+01
1.160000e-06	-3.015305e-06	-6.934898e-10	-2.089864e+01	-4.827399e+01
1.170000e-06	-2.975885e-06	-6.885589e-10	-2.062543e+01	-4.796418e+01
1.180000e-06	-2.936358e-06	-6.882615e-10	-2.035147e+01	-4.765052e+01
1.190000e-06	-2.896713e-06	-6.887174e-10	-2.007670e+01	-4.733307e+01
1.200000e-06	-2.856918e-06	-6.809343e-10	-1.980089e+01	-4.701187e+01
1.210000e-06	-2.816994e-06	-6.728015e-10	-1.952418e+01	-4.668698e+01
1.220000e-06	-2.776871e-06	-6.658119e-10	-1.924609e+01	-4.635843e+01
1.230000e-06	-2.736537e-06	-6.583758e-10	-1.896654e+01	-4.602623e+01
1.240000e-06	-2.695913e-06	-6.499162e-10	-1.868498e+01	-4.569040e+01
1.250000e-06	-2.655076e-06	-6.464310e-10	-1.840195e+01	-4.535094e+01
1.260000e-06	-2.614026e-06	-6.421207e-10	-1.811744e+01	-4.500783e+01
1.270000e-06	-2.572712e-06	-6.377660e-10	-1.783109e+01	-4.466106e+01
1.280000e-06	-2.531085e-06	-6.336844e-10	-1.754259e+01	-4.431057e+01
1.290000e-06	-2.489035e-06	-6.314189e-10	-1.725114e+01	-4.395630e+01
1.300000e-06	-2.446685e-06	-6.253955e-10	-1.695762e+01	-4.359818e+01
1.310000e-06	-2.404081e-06	-6.186295e-10	-1.666234e+01	-4.323612e+01
1.320000e-06	-2.361244e-06	-6.132944e-10	-1.636544e+01	-4.287001e+01
1.330000e-06	-2.318218e-06	-6.084475e-10	-1.606723e+01	-4.249972e+01
1.340000e-06	-2.275009e-06	-6.015207e-10	-1.576776e+01	-4.212510e+01
1.350000e-06	-2.231674e-06	-5.954694e-10	-1.546741e+01	-4.174598e+01
1.360000e-06	-2.188154e-06	-5.890913e-10	-1.516578e+01	-4.136218e+01
1.370000e-06	-2.144446e-06	-5.833344e-10	-1.486285e+01	-4.097351e+01
1.380000e-06	-2.100684e-06	-5.774057e-10	-1.455954e+01	-4.057972e+01
1.390000e-06	-2.056871e-06	-5.703750e-10	-1.425587e+01	-4.018060e+01
1.400000e-06	-2.012961e-06	-5.616948e-10	-1.395155e+01	-3.977587e+01
1.410000e-06	-1.969008e-06	-5.524273e-10	-1.364691e+01	-3.936526e+01
1.420000e-06	-1.925016e-06	-5.443732e-10	-1.334201e+01	-3.894848e+01
1.430000e-06	-1.880943e-06	-5.380089e-10	-1.303654e+01	-3.852521e+01
1.440000e-06	-1.836743e-06	-5.335567e-10	-1.273020e+01	-3.809513e+01
1.450000e-06	-1.792388e-06	-5.281232e-10	-1.242278e+01	-3.765791e+01
1.460000e-06	-1.747900e-06	-5.222837e-10	-1.211444e+01	-3.721318e+01
1.470000e-06	-1.703238e-06	-5.155415e-10	-1.180489e+01	-3.676058e+01
1.480000e-06	-1.658413e-06	-5.084376e-10	-1.149422e+01	-3.629974e+01
1.490000e-06	-1.613475e-06	-5.019974e-10	-1.118276e+01	-3.583027e+01
1.500000e-06	-1.568396e-06	-4.981765e-10	-1.087033e+01	-3.535177e+01
1.510000e-06	-1.523131e-06	-4.941193e-10	-1.055660e+01	-3.486384e+01
1.520000e-06	-1.477770e-06	-4.859607e-10	-1.024221e+01	-3.436609e+01
1.530000e-06	-1.432357e-06	-4.750234e-10	-9.927463e+00	-3.385809e+01
1.540000e-06	-1.386859e-06	-4.646841e-10	-9.612120e+00	-3.333944e+01
1.550000e-06	-1.341325e-06	-4.529671e-10	-9.296528e+00	-3.280975e+01
1.560000e-06	-1.295705e-06	-4.405148e-10	-8.980341e+00	-3.226859e+01
1.570000e-06	-1.249984e-06	-4.291675e-10	-8.663456e+00	-3.171558e+01
1.580000e-06	-1.204163e-06	-4.196264e-10	-8.345880e+00	-3.115032e+01
1.590000e-06	-1.158254e-06	-4.128282e-10	-8.027692e+00	-3.057243e+01
1.600000e-06	-1.112328e-06	-4.081173e-10	-7.709385e+00	-2.998155e+01
1.610000e-06	-1.066271e-06	-3.997712e-10	-7.390171e+00	-2.937732e+01
1.620000e-06	-1.020085e-06	-3.877709e-10	-7.070062e+00	-2.875941e+01
1.630000e-06	-9.738354e-07	-3.753363e-10	-6.749513e+00	-2.812750e+01
1.640000e-06	-9.274070e-07	-3.634235e-10	-6.427724e+00	-2.748128e+01
1.650000e-06	-8.808512e-07	-3.512053e-10	-6.105052e+00	-2.682049e+01
1.660000e-06	-8.343824e-07	-3.414370e-10	-5.782984e+00	-2.614489e+01
1.670000e-06	-7.879583e-07	-3.330332e-10	-5.461226e+00	-2.545424e+01
1.680000e-06	-7.414304e-07	-3.223951e-10	-5.138747e+00	-2.474837e+01
1.690000e-06	-6.947805e-07	-3.080481e-10	-4.815424e+00	-2.402711e+01
1.700000e-06	-6.480800e-07	-2.951263e-10	-4.491749e+00	-2.329033e+01
1.710000e-06	-6.013515e-07	-2.830066e-10	-4.167880e+00	-2.253795e+01
1.720000e-06	-5.546323e-07	-2.709561e-10	-3.844076e+00	-2.176991e+01
1.730000e-06	-5.078546e-07	-2.570702e-10	-3.519867e+00	-2.098620e+01
1.740000e-06	-4.609655e-07	-2.416994e-10	-3.194886e+00	-2.018683e+01
1.750000e-06	-4.140647e-07	-2.295189e-10	-2.869823e+00	-1.937187e+01
1.760000e-06	-3.671586e-07	-2.196797e-10	-2.544724e+00	-1.854143e+01
1.770000e-06	-3.203011e-07	-2.088559e-10	-2.219961e+00	-1.769564e+01
1.780000e-06	-2.733882e-07	-1.961222e-10	-1.894814e+00	-1.683470e+01
1.790000e-06	-2.264379e-07	-1.849006e-10	-1.569408e+00	-1.595884e+01
1.800000e-06	-1.794081e-07	-1.736935e-10	-1.243452e+00	-1.506831e+01
1.810000e-06	-1.322939e-07	-1.604232e-10	-9.169098e-01	-1.416345e+01
1.820000e-06	-8.526258e-08	-1.465715e-10	-5.909426e-01	-1.324460e+01
1.830000e-06	-3.831948e-08	-1.311049e-10	-2.655868e-01	-1.231217e+01
1.840000e-06	8.609910e-09	-1.125128e-10	5.967404e-02	-1.136658e+01
1.850000e-06	5.559651e-08	-9.718960e-11	3.853314e-01	-1.040832e+01
1.860000e-06	1.025779e-07	-8.184731e-11	7.109523e-01	-9.437897e+00
1.870000e-06	1.494808e-07	-6.929452e-11	1.036030e+00	-8.455873e+00
1.880000e-06	1.963686e-07	-5.882150e-11	1.361002e+00	-7.462832e+00
1.890000e-06	2.432491e-07	-4.695200e-11	1.685924e+00	-6.459396e+00
1.900000e-06	2.901189e-07	-3.296956e-11	2.010772e+00	-5.446220e+00
1.910000e-06	3.370410e-07	-1.905976e-11	2.335983e+00	-4.423987e+00
1.920000e-06	3.839686e-07	-4.635190e-12	2.661231e+00	-3.393409e+00
1.930000e-06	4.308927e-07	1.157510e-11	2.986455e+00	-2.355222e+00
1.940000e-06	4.777557e-07	2.763594e-11	3.311256e+00	-1.310185e+00
1.950000e-06	5.244713e-07	4.348101e-11	3.635035e+00	-2.590778e-01
1.960000e-06	5.711044e-07	5.780627e-11	3.958243e+00	7.973030e-01
1.970000e-06	6.177582e-07	7.284860e-11	4.281593e+00	1.858146e+00
1.980000e-06	6.644365e-07	8.709667e-11	4.605114e+00	2.922629e+00
1.990000e-06	7.111431e-07	9.743901e-11	4.928830e+00	3.989920e+00
2.000000e-06	7.577824e-07	1.096580e-10	5.252081e+00	5.059181e+00
2.010000e-06	8.043323e-07	1.227699e-10	5.574711e+00	6.129572e+00
2.020000e-06	8.508448e-07	1.362533e-10	5.897082e+00	7.200252e+00
2.030000e-06	8.972741e-07	1.546678e-10	6.218878e+00	8.270384e+00
2.040000e-06	9.435598e-07	1.740135e-10	6.539677e+00	9.339137e+00
2.050000e-06	9.897055e-07	1.933323e-10	6.859506e+00	1.040569e+01
2.060000e-06	1.035763e-06	2.084538e-10	7.178725e+00	1.146922e+01
2.070000e-06	1.081735e-06	2.202286e-10	7.497349e+00	1.252894e+01
2.080000e-06	1.127622e-06	2.301723e-10	7.815387e+00	1.358407e+01
2.090000e-06	1.173453e-06	2.439606e-10	8.133033e+00	1.463384e+01
2.100000e-06	1.219258e-06	2.610122e-10	8.450499e+00	1.567751e+01
2.110000e-06	1.264980e-06	2.784349e-10	8.767391e+00	1.671436e+01
2.120000e-06	1.310594e-06	2.949113e-10	9.083536e+00	1.774371e+01
2.130000e-06	1.356115e-06	3.093979e-10	9.399039e+00	1.876488e+01
2.140000e-06	1.401523e-06	3.206351e-10	9.713752e+00	1.977723e+01
2.150000e-06	1.446822e-06	3.305515e-10	1.002772e+01	2.078016e+01
2.160000e-06	1.492061e-06	3.425833e-10	1.034126e+01	2.177309e+01
2.170000e-06	1.537272e-06	3.556883e-10	1.065461e+01	2.275548e+01
2.180000e-06	1.582300e-06	3.696847e-10	1.096669e+01	2.372681e+01
2.190000e-06	1.627160e-06	3.861203e-10	1.127761e+01	2.468662e+01
2.200000e-06	1.671982e-06	4.008984e-10	1.158827e+01	2.563444e+01
2.210000e-06	1.716719e-06	4.114997e-10	1.189833e+01	2.656988e+01
2.220000e-06	1.761266e-06	4.192562e-10	1.220708e+01	2.749256e+01
2.230000e-06	1.805588e-06	4.275832e-10	1.251427e+01	2.840214e+01
2.240000e-06	1.849714e-06	4.393537e-10	1.282010e+01	2.929832e+01
2.250000e-06	1.893734e-06	4.533171e-10	1.312520e+01	3.018081e+01
2.260000e-06	1.937727e-06	4.688488e-10	1.343011e+01	3.104938e+01
2.270000e-06	1.981661e-06	4.833050e-10	1.373461e+01	3.190383e+01
2.280000e-06	2.025506e-06	4.944964e-10	1.403849e+01	3.274396e+01
2.290000e-06	2.069249e-06	5.016497e-10	1.434166e+01	3.356965e+01
2.300000e-06	2.112930e-06	5.068506e-10	1.464442e+01	3.438077e+01
2.310000e-06	2.156512e-06	5.143690e-10	1.494648e+01	3.517722e+01
2.320000e-06	2.200017e-06	5.275421e-10	1.524800e+01	3.595896e+01
2.330000e-06	2.243472e-06	5.434459e-10	1.554918e+01	3.672593e+01
2.340000e-06	2.286822e-06	5.589034e-10	1.584963e+01	3.747812e+01
2.350000e-06	2.330027e-06	5.705289e-10	1.614908e+01	3.821555e+01
2.360000e-06	2.373088e-06	5.793834e-10	1.644753e+01	3.893823e+01
2.370000e-06	2.415890e-06	5.847352e-10	1.674418e+01	3.964621e+01
2.380000e-06	2.458359e-06	5.889845e-10	1.703853e+01	4.033956e+01
2.390000e-06	2.500517e-06	5.966712e-10	1.733073e+01	4.101836e+01
2.400000e-06	2.542333e-06	6.069672e-10	1.762054e+01	4.168271e+01
2.410000e-06	2.583894e-06	6.188715e-10	1.790860e+01	4.233269e+01
2.420000e-06	2.625117e-06	6.319882e-10	1.819431e+01	4.296845e+01
2.430000e-06	2.665896e-06	6.425936e-10	1.847694e+01	4.359010e+01
2.440000e-06	2.706472e-06	6.501397e-10	1.875817e+01	4.419779e+01
2.450000e-06	2.746945e-06	6.576897e-10	1.903868e+01	4.479166e+01
2.460000e-06	2.787207e-06	6.652064e-10	1.931773e+01	4.537186e+01
2.470000e-06	2.827208e-06	6.727539e-10	1.959497e+01	4.593855e+01
2.480000e-06	2.866980e-06	6.805227e-10	1.987063e+01	4.649189e+01
2.490000e-06	2.906641e-06	6.877425e-10	2.014551e+01	4.703205e+01
2.500000e-06	2.946186e-06	6.961319e-10	2.041959e+01	4.755920e+01
2.510000e-06	2.985557e-06	7.055030e-10	2.069247e+01	4.807352e+01
2.520000e-06	3.024799e-06	7.127210e-10	2.096444e+01	4.857517e+01
2.530000e-06	3.063864e-06	7.170984e-10	2.123520e+01	4.906434e+01
2.540000e-06	3.102751e-06	7.209180e-10	2.150472e+01	4.954119e+01
2.550000e-06	3.141403e-06	7.236091e-10	2.177261e+01	5.000592e+01
2.560000e-06	3.179782e-06	7.268720e-10	2.203861e+01	5.045870e+01
2.570000e-06	3.217961e-06	7.346302e-10	2.230322e+01	5.089971e+01
2.580000e-06	3.255888e-06	7.444899e-10	2.256609e+01	5.132913e+01
2.590000e-06	3.293593e-06	7.539302e-10	2.282742e+01	5.174715e+01
2.600000e-06	3.331083e-06	7.598050e-10	2.308725e+01	5.215396e+01
2.610000e-06	3.368373e-06	7.644420e-10	2.334570e+01	5.254972e+01
2.620000e-06	3.405480e-06	7.668178e-10	2.360289e+01	5.293464e+01
2.630000e-06	3.442343e-06	7.661065e-10	2.385839e+01	5.330891e+01
2.640000e-06	3.478898e-06	7.671845e-10	2.411174e+01	5.367270e+01
2.650000e-06	3.515210e-06	7.765288e-10	2.436341e+01	5.402622e+01
2.660000e-06	3.551274e-06	7.895574e-10	2.461337e+01	5.436967e+01
2.670000e-06	3.587123e-06	7.992055e-10	2.486183e+01	5.470323e+01
2.680000e-06	3.622870e-06	8.043203e-10	2.510959e+01	5.502711e+01
2.690000e-06	3.658512e-06	8.028361e-10	2.535662e+01	5.534152e+01
2.700000e-06	3.694055e-06	7.996918e-10	2.560296e+01	5.564665e+01
2.710000e-06	3.729499e-06	7.996406e-10	2.584862e+01	5.594274e+01
2.720000e-06	3.764769e-06	8.019209e-10	2.609307e+01	5.622998e+01
2.730000e-06	3.799705e-06	8.067359e-10	2.633521e+01	5.650859e+01
2.740000e-06	3.834243e-06	8.134524e-10	2.657459e+01	5.677880e+01
2.750000e-06	3.868327e-06	8.211705e-10	2.681082e+01	5.704083e+01
2.760000e-06	3.901810e-06	8.271852e-10	2.704288e+01	5.729491e+01
2.770000e-06	3.934716e-06	8.292834e-10	2.727095e+01	5.754126e+01
2.780000e-06	3.967197e-06	8.299286e-10	2.749607e+01	5.778013e+01
2.790000e-06	3.999366e-06	8.281370e-10	2.771903e+01	5.801173e+01
2.800000e-06	4.031271e-06	8.286432e-10	2.794016e+01	5.823632e+01
2.810000e-06	4.062969e-06	8.312852e-10	2.815985e+01	5.845411e+01
2.820000e-06	4.094563e-06	8.364304e-10	2.837882e+01	5.866536e+01
2.830000e-06	4.126027e-06	8.436793e-10	2.859690e+01	5.887030e+01
2.840000e-06	4.157266e-06	8.490347e-10	2.881341e+01	5.906915e+01
2.850000e-06	4.188272e-06	8.530828e-10	2.902831e+01	5.926216e+01
2.860000e-06	4.218923e-06	8.514793e-10	2.924075e+01	5.944955e+01
2.870000e-06	4.249107e-06	8.470726e-10	2.944995e+01	5.963155e+01
2.880000e-06	4.278982e-06	8.435181e-10	2.965701e+01	5.980839e+01
2.890000e-06	4.308678e-06	8.413168e-10	2.986283e+01	5.998026e+01
2.900000e-06	4.338120e-06	8.432911e-10	3.006688e+01	6.014740e+01
