# Temperatura_=_-0.4
# Concentracion g/m^3_=_1620.0
# C_Vs_to_Am_M_A/Vsm_=_65563218390.804596
# pendiente_HvsI_1/m_=_3716.3
# ordenada_HvsI_A/m_=_1297.0
# frecuencia_Hz_=_135091.7057707902

Tiempo_(s)	Campo_(V.s)	Magnetizacion_(V.s)	Campo_(kA/m)	Magnetizacion_(A/m)
0.000000e+00	-5.521720e-06	-1.510540e-09	-3.837989e+01	-9.656019e+01
1.000000e-08	-5.521941e-06	-1.509547e-09	-3.838143e+01	-9.651830e+01
2.000000e-08	-5.521814e-06	-1.510629e-09	-3.838054e+01	-9.647566e+01
3.000000e-08	-5.521364e-06	-1.508145e-09	-3.837742e+01	-9.643249e+01
4.000000e-08	-5.520520e-06	-1.507430e-09	-3.837155e+01	-9.638899e+01
5.000000e-08	-5.519207e-06	-1.505925e-09	-3.836242e+01	-9.634538e+01
6.000000e-08	-5.517387e-06	-1.521095e-09	-3.834977e+01	-9.630183e+01
7.000000e-08	-5.514924e-06	-1.534548e-09	-3.833265e+01	-9.625851e+01
8.000000e-08	-5.511850e-06	-1.521844e-09	-3.831129e+01	-9.621558e+01
9.000000e-08	-5.508302e-06	-1.478878e-09	-3.828662e+01	-9.617316e+01
1.000000e-07	-5.504359e-06	-1.409178e-09	-3.825922e+01	-9.613136e+01
1.100000e-07	-5.500077e-06	-1.437054e-09	-3.822946e+01	-9.609026e+01
1.200000e-07	-5.495626e-06	-1.571472e-09	-3.819852e+01	-9.604993e+01
1.300000e-07	-5.490976e-06	-1.580702e-09	-3.816620e+01	-9.601041e+01
1.400000e-07	-5.485919e-06	-1.470510e-09	-3.813105e+01	-9.597169e+01
1.500000e-07	-5.480398e-06	-1.428136e-09	-3.809267e+01	-9.593377e+01
1.600000e-07	-5.474442e-06	-1.553177e-09	-3.805128e+01	-9.589661e+01
1.700000e-07	-5.468061e-06	-1.575273e-09	-3.800692e+01	-9.586012e+01
1.800000e-07	-5.461240e-06	-1.448853e-09	-3.795951e+01	-9.582422e+01
1.900000e-07	-5.454123e-06	-1.383437e-09	-3.791004e+01	-9.578878e+01
2.000000e-07	-5.446789e-06	-1.484100e-09	-3.785907e+01	-9.575364e+01
2.100000e-07	-5.439114e-06	-1.526235e-09	-3.780572e+01	-9.571863e+01
2.200000e-07	-5.431109e-06	-1.457439e-09	-3.775008e+01	-9.568355e+01
2.300000e-07	-5.422798e-06	-1.392486e-09	-3.769231e+01	-9.564817e+01
2.400000e-07	-5.414175e-06	-1.433312e-09	-3.763237e+01	-9.561224e+01
2.500000e-07	-5.404986e-06	-1.467489e-09	-3.756851e+01	-9.557551e+01
2.600000e-07	-5.395038e-06	-1.435877e-09	-3.749936e+01	-9.553767e+01
2.700000e-07	-5.384519e-06	-1.412835e-09	-3.742624e+01	-9.549843e+01
2.800000e-07	-5.373527e-06	-1.426571e-09	-3.734984e+01	-9.545747e+01
2.900000e-07	-5.362072e-06	-1.439566e-09	-3.727022e+01	-9.541447e+01
3.000000e-07	-5.350245e-06	-1.418009e-09	-3.718802e+01	-9.536907e+01
3.100000e-07	-5.338024e-06	-1.423410e-09	-3.710307e+01	-9.532094e+01
3.200000e-07	-5.325274e-06	-1.424900e-09	-3.701445e+01	-9.526973e+01
3.300000e-07	-5.312154e-06	-1.443709e-09	-3.692326e+01	-9.521508e+01
3.400000e-07	-5.298792e-06	-1.427983e-09	-3.683038e+01	-9.515664e+01
3.500000e-07	-5.284998e-06	-1.403538e-09	-3.673450e+01	-9.509407e+01
3.600000e-07	-5.270598e-06	-1.390351e-09	-3.663441e+01	-9.502702e+01
3.700000e-07	-5.255791e-06	-1.422953e-09	-3.653149e+01	-9.495517e+01
3.800000e-07	-5.240576e-06	-1.397976e-09	-3.642574e+01	-9.487820e+01
3.900000e-07	-5.224639e-06	-1.384933e-09	-3.631496e+01	-9.479580e+01
4.000000e-07	-5.208207e-06	-1.411454e-09	-3.620075e+01	-9.470768e+01
4.100000e-07	-5.191584e-06	-1.414902e-09	-3.608521e+01	-9.461359e+01
4.200000e-07	-5.174676e-06	-1.372662e-09	-3.596769e+01	-9.451327e+01
4.300000e-07	-5.157400e-06	-1.413671e-09	-3.584760e+01	-9.440651e+01
4.400000e-07	-5.139739e-06	-1.436114e-09	-3.572485e+01	-9.429310e+01
4.500000e-07	-5.121732e-06	-1.354488e-09	-3.559969e+01	-9.417289e+01
4.600000e-07	-5.103337e-06	-1.338192e-09	-3.547183e+01	-9.404573e+01
4.700000e-07	-5.084581e-06	-1.425665e-09	-3.534146e+01	-9.391151e+01
4.800000e-07	-5.065536e-06	-1.394079e-09	-3.520908e+01	-9.377015e+01
4.900000e-07	-5.046108e-06	-1.332846e-09	-3.507405e+01	-9.362160e+01
5.000000e-07	-5.026401e-06	-1.400685e-09	-3.493707e+01	-9.346586e+01
5.100000e-07	-5.006500e-06	-1.417271e-09	-3.479874e+01	-9.330292e+01
5.200000e-07	-4.986302e-06	-1.333232e-09	-3.465835e+01	-9.313283e+01
5.300000e-07	-4.965766e-06	-1.360469e-09	-3.451561e+01	-9.295568e+01
5.400000e-07	-4.944963e-06	-1.406224e-09	-3.437102e+01	-9.277155e+01
5.500000e-07	-4.923782e-06	-1.323818e-09	-3.422379e+01	-9.258059e+01
5.600000e-07	-4.902138e-06	-1.319403e-09	-3.407335e+01	-9.238296e+01
5.700000e-07	-4.880194e-06	-1.404158e-09	-3.392082e+01	-9.217883e+01
5.800000e-07	-4.858005e-06	-1.362448e-09	-3.376660e+01	-9.196841e+01
5.900000e-07	-4.835395e-06	-1.303745e-09	-3.360944e+01	-9.175193e+01
6.000000e-07	-4.812396e-06	-1.372207e-09	-3.344958e+01	-9.152963e+01
6.100000e-07	-4.789140e-06	-1.373508e-09	-3.328794e+01	-9.130177e+01
6.200000e-07	-4.765514e-06	-1.311537e-09	-3.312372e+01	-9.106862e+01
6.300000e-07	-4.741639e-06	-1.342447e-09	-3.295777e+01	-9.083048e+01
6.400000e-07	-4.717676e-06	-1.373390e-09	-3.279121e+01	-9.058761e+01
6.500000e-07	-4.693407e-06	-1.316264e-09	-3.262253e+01	-9.034032e+01
6.600000e-07	-4.668741e-06	-1.319079e-09	-3.245108e+01	-9.008890e+01
6.700000e-07	-4.643617e-06	-1.347321e-09	-3.227645e+01	-8.983364e+01
6.800000e-07	-4.617899e-06	-1.313978e-09	-3.209769e+01	-8.957481e+01
6.900000e-07	-4.591612e-06	-1.303163e-09	-3.191497e+01	-8.931271e+01
7.000000e-07	-4.564871e-06	-1.334883e-09	-3.172911e+01	-8.904758e+01
7.100000e-07	-4.537813e-06	-1.315167e-09	-3.154104e+01	-8.877967e+01
7.200000e-07	-4.510422e-06	-1.294053e-09	-3.135065e+01	-8.850921e+01
7.300000e-07	-4.482748e-06	-1.310965e-09	-3.115829e+01	-8.823642e+01
7.400000e-07	-4.454903e-06	-1.310183e-09	-3.096475e+01	-8.796147e+01
7.500000e-07	-4.426859e-06	-1.285852e-09	-3.076983e+01	-8.768453e+01
7.600000e-07	-4.398610e-06	-1.291795e-09	-3.057347e+01	-8.740573e+01
7.700000e-07	-4.370086e-06	-1.292018e-09	-3.037521e+01	-8.712516e+01
7.800000e-07	-4.341159e-06	-1.274407e-09	-3.017415e+01	-8.684291e+01
7.900000e-07	-4.311853e-06	-1.273021e-09	-2.997045e+01	-8.655902e+01
8.000000e-07	-4.282264e-06	-1.277263e-09	-2.976478e+01	-8.627349e+01
8.100000e-07	-4.252427e-06	-1.261617e-09	-2.955740e+01	-8.598631e+01
8.200000e-07	-4.222301e-06	-1.255206e-09	-2.934800e+01	-8.569741e+01
8.300000e-07	-4.191913e-06	-1.261191e-09	-2.913678e+01	-8.540670e+01
8.400000e-07	-4.161295e-06	-1.247392e-09	-2.892396e+01	-8.511407e+01
8.500000e-07	-4.130342e-06	-1.232341e-09	-2.870882e+01	-8.481936e+01
8.600000e-07	-4.099092e-06	-1.236409e-09	-2.849161e+01	-8.452239e+01
8.700000e-07	-4.067583e-06	-1.234967e-09	-2.827260e+01	-8.422294e+01
8.800000e-07	-4.035907e-06	-1.220365e-09	-2.805243e+01	-8.392078e+01
8.900000e-07	-4.004137e-06	-1.222007e-09	-2.783161e+01	-8.361565e+01
9.000000e-07	-3.972134e-06	-1.220298e-09	-2.760916e+01	-8.330725e+01
9.100000e-07	-3.939867e-06	-1.203626e-09	-2.738489e+01	-8.299529e+01
9.200000e-07	-3.907282e-06	-1.196960e-09	-2.715839e+01	-8.267944e+01
9.300000e-07	-3.874330e-06	-1.198232e-09	-2.692936e+01	-8.235937e+01
9.400000e-07	-3.840918e-06	-1.183446e-09	-2.669712e+01	-8.203472e+01
9.500000e-07	-3.807052e-06	-1.172908e-09	-2.646172e+01	-8.170515e+01
9.600000e-07	-3.772723e-06	-1.176555e-09	-2.622311e+01	-8.137030e+01
9.700000e-07	-3.737912e-06	-1.171228e-09	-2.598115e+01	-8.102980e+01
9.800000e-07	-3.702820e-06	-1.155632e-09	-2.573724e+01	-8.068330e+01
9.900000e-07	-3.667524e-06	-1.157332e-09	-2.549191e+01	-8.033046e+01
1.000000e-06	-3.632035e-06	-1.157195e-09	-2.524523e+01	-7.997093e+01
1.010000e-06	-3.596307e-06	-1.147337e-09	-2.499689e+01	-7.960439e+01
1.020000e-06	-3.560396e-06	-1.143002e-09	-2.474729e+01	-7.923052e+01
1.030000e-06	-3.524383e-06	-1.143359e-09	-2.449697e+01	-7.884905e+01
1.040000e-06	-3.488161e-06	-1.131700e-09	-2.424521e+01	-7.845969e+01
1.050000e-06	-3.451763e-06	-1.123085e-09	-2.399221e+01	-7.806220e+01
1.060000e-06	-3.415185e-06	-1.122907e-09	-2.373797e+01	-7.765638e+01
1.070000e-06	-3.378213e-06	-1.115500e-09	-2.348099e+01	-7.724203e+01
1.080000e-06	-3.340898e-06	-1.101528e-09	-2.322162e+01	-7.681900e+01
1.090000e-06	-3.303359e-06	-1.096422e-09	-2.296070e+01	-7.638717e+01
1.100000e-06	-3.265632e-06	-1.091520e-09	-2.269847e+01	-7.594644e+01
1.110000e-06	-3.227757e-06	-1.080748e-09	-2.243521e+01	-7.549676e+01
1.120000e-06	-3.189606e-06	-1.074987e-09	-2.217003e+01	-7.503811e+01
1.130000e-06	-3.151234e-06	-1.072061e-09	-2.190333e+01	-7.457050e+01
1.140000e-06	-3.112711e-06	-1.062234e-09	-2.163556e+01	-7.409398e+01
1.150000e-06	-3.073970e-06	-1.050947e-09	-2.136628e+01	-7.360863e+01
1.160000e-06	-3.035008e-06	-1.045707e-09	-2.109547e+01	-7.311456e+01
1.170000e-06	-2.995862e-06	-1.038425e-09	-2.082338e+01	-7.261191e+01
1.180000e-06	-2.956484e-06	-1.026937e-09	-2.054967e+01	-7.210086e+01
1.190000e-06	-2.916932e-06	-1.018505e-09	-2.027475e+01	-7.158159e+01
1.200000e-06	-2.877264e-06	-1.011626e-09	-1.999904e+01	-7.105432e+01
1.210000e-06	-2.837382e-06	-1.001887e-09	-1.972183e+01	-7.051930e+01
1.220000e-06	-2.797362e-06	-9.948157e-10	-1.944366e+01	-6.997677e+01
1.230000e-06	-2.757276e-06	-9.873758e-10	-1.916503e+01	-6.942699e+01
1.240000e-06	-2.717056e-06	-9.774010e-10	-1.888547e+01	-6.887024e+01
1.250000e-06	-2.676597e-06	-9.676487e-10	-1.860426e+01	-6.830681e+01
1.260000e-06	-2.635882e-06	-9.615687e-10	-1.832126e+01	-6.773696e+01
1.270000e-06	-2.594990e-06	-9.520066e-10	-1.803703e+01	-6.716097e+01
1.280000e-06	-2.553807e-06	-9.423600e-10	-1.775078e+01	-6.657910e+01
1.290000e-06	-2.512293e-06	-9.365482e-10	-1.746223e+01	-6.599161e+01
1.300000e-06	-2.470475e-06	-9.303037e-10	-1.717156e+01	-6.539872e+01
1.310000e-06	-2.428358e-06	-9.188378e-10	-1.687882e+01	-6.480066e+01
1.320000e-06	-2.386101e-06	-9.091869e-10	-1.658510e+01	-6.419760e+01
1.330000e-06	-2.343540e-06	-9.005615e-10	-1.628927e+01	-6.358969e+01
1.340000e-06	-2.300697e-06	-8.911055e-10	-1.599148e+01	-6.297707e+01
1.350000e-06	-2.257660e-06	-8.810645e-10	-1.569234e+01	-6.235980e+01
1.360000e-06	-2.214347e-06	-8.719621e-10	-1.539129e+01	-6.173793e+01
1.370000e-06	-2.170850e-06	-8.623839e-10	-1.508895e+01	-6.111144e+01
1.380000e-06	-2.127260e-06	-8.523833e-10	-1.478597e+01	-6.048029e+01
1.390000e-06	-2.083609e-06	-8.421515e-10	-1.448257e+01	-5.984437e+01
1.400000e-06	-2.039832e-06	-8.306889e-10	-1.417829e+01	-5.920352e+01
1.410000e-06	-1.995941e-06	-8.192346e-10	-1.387321e+01	-5.855753e+01
1.420000e-06	-1.952020e-06	-8.083441e-10	-1.356793e+01	-5.790614e+01
1.430000e-06	-1.908047e-06	-7.974521e-10	-1.326229e+01	-5.724901e+01
1.440000e-06	-1.863947e-06	-7.865061e-10	-1.295576e+01	-5.658578e+01
1.450000e-06	-1.819776e-06	-7.758077e-10	-1.264874e+01	-5.591601e+01
1.460000e-06	-1.775510e-06	-7.637895e-10	-1.234106e+01	-5.523921e+01
1.470000e-06	-1.731080e-06	-7.532729e-10	-1.203224e+01	-5.455483e+01
1.480000e-06	-1.686538e-06	-7.416266e-10	-1.172264e+01	-5.386229e+01
1.490000e-06	-1.641842e-06	-7.282903e-10	-1.141197e+01	-5.316094e+01
1.500000e-06	-1.597007e-06	-7.164900e-10	-1.110034e+01	-5.245010e+01
1.510000e-06	-1.552069e-06	-7.077528e-10	-1.078799e+01	-5.172904e+01
1.520000e-06	-1.507013e-06	-6.970472e-10	-1.047481e+01	-5.099698e+01
1.530000e-06	-1.461857e-06	-6.850085e-10	-1.016095e+01	-5.025312e+01
1.540000e-06	-1.416596e-06	-6.738700e-10	-9.846353e+00	-4.949664e+01
1.550000e-06	-1.371193e-06	-6.632079e-10	-9.530770e+00	-4.872667e+01
1.560000e-06	-1.325669e-06	-6.510646e-10	-9.214347e+00	-4.794234e+01
1.570000e-06	-1.280098e-06	-6.396423e-10	-8.897591e+00	-4.714277e+01
1.580000e-06	-1.234420e-06	-6.299811e-10	-8.580099e+00	-4.632705e+01
1.590000e-06	-1.188539e-06	-6.169449e-10	-8.261196e+00	-4.549429e+01
1.600000e-06	-1.142653e-06	-6.022474e-10	-7.942252e+00	-4.464361e+01
1.610000e-06	-1.096764e-06	-5.885989e-10	-7.623293e+00	-4.377412e+01
1.620000e-06	-1.050739e-06	-5.732636e-10	-7.303384e+00	-4.288497e+01
1.630000e-06	-1.004631e-06	-5.565912e-10	-6.982904e+00	-4.197531e+01
1.640000e-06	-9.584027e-07	-5.414315e-10	-6.661582e+00	-4.104436e+01
1.650000e-06	-9.121631e-07	-5.286916e-10	-6.340184e+00	-4.009135e+01
1.660000e-06	-8.658872e-07	-5.132293e-10	-6.018533e+00	-3.911555e+01
1.670000e-06	-8.195516e-07	-4.967650e-10	-5.696468e+00	-3.811631e+01
1.680000e-06	-7.732174e-07	-4.823512e-10	-5.374412e+00	-3.709302e+01
1.690000e-06	-7.268338e-07	-4.667797e-10	-5.052013e+00	-3.604512e+01
1.700000e-06	-6.803904e-07	-4.500481e-10	-4.729198e+00	-3.497214e+01
1.710000e-06	-6.338794e-07	-4.327003e-10	-4.405913e+00	-3.387368e+01
1.720000e-06	-5.872649e-07	-4.161301e-10	-4.081909e+00	-3.274940e+01
1.730000e-06	-5.405792e-07	-3.995054e-10	-3.757410e+00	-3.159906e+01
1.740000e-06	-4.938809e-07	-3.815856e-10	-3.432824e+00	-3.042250e+01
1.750000e-06	-4.472632e-07	-3.620814e-10	-3.108798e+00	-2.921964e+01
1.760000e-06	-4.006747e-07	-3.430152e-10	-2.784975e+00	-2.799051e+01
1.770000e-06	-3.539308e-07	-3.245410e-10	-2.460071e+00	-2.673522e+01
1.780000e-06	-3.070431e-07	-3.063965e-10	-2.134168e+00	-2.545397e+01
1.790000e-06	-2.600244e-07	-2.894734e-10	-1.807355e+00	-2.414706e+01
1.800000e-06	-2.130158e-07	-2.738114e-10	-1.480612e+00	-2.281489e+01
1.810000e-06	-1.661640e-07	-2.561435e-10	-1.154958e+00	-2.145796e+01
1.820000e-06	-1.193341e-07	-2.352872e-10	-8.294568e-01	-2.007685e+01
1.830000e-06	-7.243749e-08	-2.136317e-10	-5.034922e-01	-1.867224e+01
1.840000e-06	-2.560873e-08	-1.932482e-10	-1.779989e-01	-1.724490e+01
1.850000e-06	2.118760e-08	-1.733159e-10	1.472689e-01	-1.579569e+01
1.860000e-06	6.802947e-08	-1.547476e-10	4.728533e-01	-1.432556e+01
1.870000e-06	1.148960e-07	-1.338880e-10	7.986093e-01	-1.283553e+01
1.880000e-06	1.618238e-07	-1.110939e-10	1.124791e+00	-1.132670e+01
1.890000e-06	2.087519e-07	-9.133426e-11	1.450975e+00	-9.800256e+00
1.900000e-06	2.555766e-07	-7.279167e-11	1.776440e+00	-8.257438e+00
1.910000e-06	3.023873e-07	-5.551276e-11	2.101807e+00	-6.699551e+00
1.920000e-06	3.491813e-07	-3.783971e-11	2.427059e+00	-5.127959e+00
1.930000e-06	3.958283e-07	-1.665785e-11	2.751289e+00	-3.544075e+00
1.940000e-06	4.424426e-07	7.938641e-12	3.075291e+00	-1.949357e+00
1.950000e-06	4.890989e-07	3.369279e-11	3.399586e+00	-3.452990e-01
1.960000e-06	5.356973e-07	5.754227e-11	3.723478e+00	1.266572e+00
1.970000e-06	5.822164e-07	7.869623e-11	4.046819e+00	2.884707e+00
1.980000e-06	6.286925e-07	9.963414e-11	4.369861e+00	4.507537e+00
1.990000e-06	6.751533e-07	1.185219e-10	4.692796e+00	6.133486e+00
2.000000e-06	7.215264e-07	1.359931e-10	5.015123e+00	7.760972e+00
2.010000e-06	7.678302e-07	1.581664e-10	5.336967e+00	9.388418e+00
2.020000e-06	8.141309e-07	1.822504e-10	5.658790e+00	1.101426e+01
2.030000e-06	8.603908e-07	2.071538e-10	5.980329e+00	1.263694e+01
2.040000e-06	9.066362e-07	2.344305e-10	6.301768e+00	1.425493e+01
2.050000e-06	9.527510e-07	2.588969e-10	6.622299e+00	1.586674e+01
2.060000e-06	9.987407e-07	2.808193e-10	6.941960e+00	1.747091e+01
2.070000e-06	1.044679e-06	3.009244e-10	7.261261e+00	1.906600e+01
2.080000e-06	1.090616e-06	3.212715e-10	7.580556e+00	2.065065e+01
2.090000e-06	1.136513e-06	3.418807e-10	7.899575e+00	2.222353e+01
2.100000e-06	1.182292e-06	3.640717e-10	8.217775e+00	2.378337e+01
2.110000e-06	1.227949e-06	3.866210e-10	8.535120e+00	2.532896e+01
2.120000e-06	1.273512e-06	4.089015e-10	8.851813e+00	2.685915e+01
2.130000e-06	1.319013e-06	4.302596e-10	9.168082e+00	2.837286e+01
2.140000e-06	1.364411e-06	4.505579e-10	9.483628e+00	2.986907e+01
2.150000e-06	1.409730e-06	4.702192e-10	9.798629e+00	3.134684e+01
2.160000e-06	1.454934e-06	4.883118e-10	1.011283e+01	3.280531e+01
2.170000e-06	1.499949e-06	5.065289e-10	1.042572e+01	3.424368e+01
2.180000e-06	1.544836e-06	5.257849e-10	1.073771e+01	3.566122e+01
2.190000e-06	1.589573e-06	5.469115e-10	1.104866e+01	3.705730e+01
2.200000e-06	1.634269e-06	5.692983e-10	1.135934e+01	3.843134e+01
2.210000e-06	1.678876e-06	5.890602e-10	1.166938e+01	3.978286e+01
2.220000e-06	1.723309e-06	6.047304e-10	1.197823e+01	4.111142e+01
2.230000e-06	1.767577e-06	6.190433e-10	1.228592e+01	4.241669e+01
2.240000e-06	1.811704e-06	6.354297e-10	1.259263e+01	4.369838e+01
2.250000e-06	1.855791e-06	6.552904e-10	1.289907e+01	4.495629e+01
2.260000e-06	1.899803e-06	6.772722e-10	1.320498e+01	4.619028e+01
2.270000e-06	1.943768e-06	6.977329e-10	1.351057e+01	4.740028e+01
2.280000e-06	1.987664e-06	7.160466e-10	1.381568e+01	4.858626e+01
2.290000e-06	2.031525e-06	7.321069e-10	1.412055e+01	4.974828e+01
2.300000e-06	2.075313e-06	7.453507e-10	1.442491e+01	5.088643e+01
2.310000e-06	2.119046e-06	7.573745e-10	1.472888e+01	5.200085e+01
2.320000e-06	2.162724e-06	7.699444e-10	1.503247e+01	5.309176e+01
2.330000e-06	2.206228e-06	7.856907e-10	1.533486e+01	5.415938e+01
2.340000e-06	2.249573e-06	8.028608e-10	1.563614e+01	5.520401e+01
2.350000e-06	2.292689e-06	8.194887e-10	1.593582e+01	5.622595e+01
2.360000e-06	2.335532e-06	8.346021e-10	1.623361e+01	5.722556e+01
2.370000e-06	2.378204e-06	8.482699e-10	1.653022e+01	5.820322e+01
2.380000e-06	2.420597e-06	8.610991e-10	1.682487e+01	5.915933e+01
2.390000e-06	2.462618e-06	8.737823e-10	1.711695e+01	6.009430e+01
2.400000e-06	2.504428e-06	8.842359e-10	1.740756e+01	6.100860e+01
2.410000e-06	2.545980e-06	8.955532e-10	1.769638e+01	6.190265e+01
2.420000e-06	2.587129e-06	9.081320e-10	1.798239e+01	6.277694e+01
2.430000e-06	2.627993e-06	9.206240e-10	1.826642e+01	6.363193e+01
2.440000e-06	2.668614e-06	9.316420e-10	1.854877e+01	6.446809e+01
2.450000e-06	2.709034e-06	9.400801e-10	1.882972e+01	6.528589e+01
2.460000e-06	2.749354e-06	9.475162e-10	1.910997e+01	6.608582e+01
2.470000e-06	2.789477e-06	9.565487e-10	1.938885e+01	6.686832e+01
2.480000e-06	2.829459e-06	9.677844e-10	1.966676e+01	6.763387e+01
2.490000e-06	2.869339e-06	9.777454e-10	1.994395e+01	6.838291e+01
2.500000e-06	2.909055e-06	9.874557e-10	2.022000e+01	6.911588e+01
2.510000e-06	2.948582e-06	9.982757e-10	2.049474e+01	6.983320e+01
2.520000e-06	2.987878e-06	1.007423e-09	2.076788e+01	7.053529e+01
2.530000e-06	3.027054e-06	1.016111e-09	2.104018e+01	7.122254e+01
2.540000e-06	3.066040e-06	1.026942e-09	2.131116e+01	7.189532e+01
2.550000e-06	3.104828e-06	1.038424e-09	2.158077e+01	7.255401e+01
2.560000e-06	3.143409e-06	1.047895e-09	2.184893e+01	7.319894e+01
2.570000e-06	3.181609e-06	1.055811e-09	2.211445e+01	7.383044e+01
2.580000e-06	3.219656e-06	1.065418e-09	2.237890e+01	7.444881e+01
2.590000e-06	3.257598e-06	1.076352e-09	2.264263e+01	7.505435e+01
2.600000e-06	3.295270e-06	1.083989e-09	2.290447e+01	7.564732e+01
2.610000e-06	3.332670e-06	1.088019e-09	2.316443e+01	7.622799e+01
2.620000e-06	3.369780e-06	1.092784e-09	2.342238e+01	7.679658e+01
2.630000e-06	3.406703e-06	1.101001e-09	2.367901e+01	7.735332e+01
2.640000e-06	3.443425e-06	1.110759e-09	2.393426e+01	7.789841e+01
2.650000e-06	3.479831e-06	1.121161e-09	2.418730e+01	7.843206e+01
2.660000e-06	3.516040e-06	1.132147e-09	2.443898e+01	7.895443e+01
2.670000e-06	3.552133e-06	1.140014e-09	2.468986e+01	7.946569e+01
2.680000e-06	3.588007e-06	1.144466e-09	2.493920e+01	7.996600e+01
2.690000e-06	3.623717e-06	1.146485e-09	2.518742e+01	8.045550e+01
2.700000e-06	3.659326e-06	1.149119e-09	2.543493e+01	8.093434e+01
2.710000e-06	3.694731e-06	1.154048e-09	2.568101e+01	8.140264e+01
2.720000e-06	3.729829e-06	1.164329e-09	2.592497e+01	8.186053e+01
2.730000e-06	3.764641e-06	1.174067e-09	2.616694e+01	8.230812e+01
2.740000e-06	3.799060e-06	1.180101e-09	2.640617e+01	8.274555e+01
2.750000e-06	3.832999e-06	1.185384e-09	2.664208e+01	8.317292e+01
2.760000e-06	3.866460e-06	1.188286e-09	2.687465e+01	8.359034e+01
2.770000e-06	3.899485e-06	1.192435e-09	2.710420e+01	8.399794e+01
2.780000e-06	3.932281e-06	1.196782e-09	2.733216e+01	8.439582e+01
2.790000e-06	3.964761e-06	1.204902e-09	2.755792e+01	8.478410e+01
2.800000e-06	3.996856e-06	1.213847e-09	2.778100e+01	8.516292e+01
2.810000e-06	4.028739e-06	1.220676e-09	2.800261e+01	8.553238e+01
2.820000e-06	4.060472e-06	1.225280e-09	2.822318e+01	8.589263e+01
2.830000e-06	4.092019e-06	1.229086e-09	2.844245e+01	8.624379e+01
2.840000e-06	4.123361e-06	1.234371e-09	2.866029e+01	8.658600e+01
2.850000e-06	4.154389e-06	1.237968e-09	2.887596e+01	8.691942e+01
2.860000e-06	4.185108e-06	1.242386e-09	2.908948e+01	8.724419e+01
2.870000e-06	4.215626e-06	1.248984e-09	2.930161e+01	8.756048e+01
2.880000e-06	4.245804e-06	1.256285e-09	2.951136e+01	8.786844e+01
2.890000e-06	4.275560e-06	1.260401e-09	2.971819e+01	8.816825e+01
2.900000e-06	4.305033e-06	1.262148e-09	2.992305e+01	8.846010e+01
