# Temperatura_=_-0.3
# Concentracion g/m^3_=_1620.0
# C_Vs_to_Am_M_A/Vsm_=_65563218390.804596
# pendiente_HvsI_1/m_=_3716.3
# ordenada_HvsI_A/m_=_1297.0
# frecuencia_Hz_=_135105.98312192358

Tiempo_(s)	Campo_(V.s)	Magnetizacion_(V.s)	Campo_(kA/m)	Magnetizacion_(A/m)
0.000000e+00	-5.520744e-06	-1.432144e-09	-3.836844e+01	-9.370647e+01
1.000000e-08	-5.521011e-06	-1.425754e-09	-3.837030e+01	-9.369313e+01
2.000000e-08	-5.520984e-06	-1.420791e-09	-3.837011e+01	-9.367752e+01
3.000000e-08	-5.520545e-06	-1.419943e-09	-3.836707e+01	-9.365955e+01
4.000000e-08	-5.519615e-06	-1.420983e-09	-3.836060e+01	-9.363910e+01
5.000000e-08	-5.518186e-06	-1.422548e-09	-3.835067e+01	-9.361605e+01
6.000000e-08	-5.516129e-06	-1.419789e-09	-3.833637e+01	-9.359029e+01
7.000000e-08	-5.513439e-06	-1.414889e-09	-3.831768e+01	-9.356167e+01
8.000000e-08	-5.510237e-06	-1.445617e-09	-3.829542e+01	-9.353006e+01
9.000000e-08	-5.506612e-06	-1.482965e-09	-3.827023e+01	-9.349533e+01
1.000000e-07	-5.502494e-06	-1.426127e-09	-3.824161e+01	-9.345732e+01
1.100000e-07	-5.497977e-06	-1.348489e-09	-3.821022e+01	-9.341589e+01
1.200000e-07	-5.493378e-06	-1.395475e-09	-3.817825e+01	-9.337090e+01
1.300000e-07	-5.488684e-06	-1.475289e-09	-3.814563e+01	-9.332222e+01
1.400000e-07	-5.483553e-06	-1.458541e-09	-3.810997e+01	-9.326969e+01
1.500000e-07	-5.477967e-06	-1.382976e-09	-3.807115e+01	-9.321319e+01
1.600000e-07	-5.472062e-06	-1.428606e-09	-3.803011e+01	-9.315258e+01
1.700000e-07	-5.465729e-06	-1.496870e-09	-3.798610e+01	-9.308774e+01
1.800000e-07	-5.458850e-06	-1.442820e-09	-3.793829e+01	-9.301855e+01
1.900000e-07	-5.451650e-06	-1.344820e-09	-3.788825e+01	-9.294491e+01
2.000000e-07	-5.444295e-06	-1.374330e-09	-3.783714e+01	-9.286671e+01
2.100000e-07	-5.436588e-06	-1.465426e-09	-3.778357e+01	-9.278386e+01
2.200000e-07	-5.428535e-06	-1.471495e-09	-3.772760e+01	-9.269629e+01
2.300000e-07	-5.420277e-06	-1.421366e-09	-3.767021e+01	-9.260391e+01
2.400000e-07	-5.411649e-06	-1.418531e-09	-3.761025e+01	-9.250667e+01
2.500000e-07	-5.402224e-06	-1.448174e-09	-3.754474e+01	-9.240451e+01
2.600000e-07	-5.392066e-06	-1.429820e-09	-3.747415e+01	-9.229740e+01
2.700000e-07	-5.381476e-06	-1.398672e-09	-3.740055e+01	-9.218531e+01
2.800000e-07	-5.370343e-06	-1.404596e-09	-3.732318e+01	-9.206820e+01
2.900000e-07	-5.358761e-06	-1.433244e-09	-3.724268e+01	-9.194608e+01
3.000000e-07	-5.346888e-06	-1.417349e-09	-3.716017e+01	-9.181895e+01
3.100000e-07	-5.334597e-06	-1.390133e-09	-3.707475e+01	-9.168680e+01
3.200000e-07	-5.321852e-06	-1.388099e-09	-3.698617e+01	-9.154967e+01
3.300000e-07	-5.308793e-06	-1.418896e-09	-3.689542e+01	-9.140756e+01
3.400000e-07	-5.295456e-06	-1.404405e-09	-3.680273e+01	-9.126052e+01
3.500000e-07	-5.281676e-06	-1.368228e-09	-3.670696e+01	-9.110858e+01
3.600000e-07	-5.267363e-06	-1.386939e-09	-3.660748e+01	-9.095179e+01
3.700000e-07	-5.252603e-06	-1.424928e-09	-3.650490e+01	-9.079019e+01
3.800000e-07	-5.237312e-06	-1.373942e-09	-3.639863e+01	-9.062383e+01
3.900000e-07	-5.221345e-06	-1.336728e-09	-3.628766e+01	-9.045278e+01
4.000000e-07	-5.204926e-06	-1.390621e-09	-3.617355e+01	-9.027709e+01
4.100000e-07	-5.188210e-06	-1.392237e-09	-3.605738e+01	-9.009682e+01
4.200000e-07	-5.171168e-06	-1.319566e-09	-3.593893e+01	-8.991204e+01
4.300000e-07	-5.153835e-06	-1.355402e-09	-3.581847e+01	-8.972279e+01
4.400000e-07	-5.136269e-06	-1.417262e-09	-3.569640e+01	-8.952915e+01
4.500000e-07	-5.118303e-06	-1.342186e-09	-3.557153e+01	-8.933117e+01
4.600000e-07	-5.099763e-06	-1.304801e-09	-3.544268e+01	-8.912891e+01
4.700000e-07	-5.080872e-06	-1.389184e-09	-3.531140e+01	-8.892242e+01
4.800000e-07	-5.061733e-06	-1.373202e-09	-3.517838e+01	-8.871175e+01
4.900000e-07	-5.042266e-06	-1.297399e-09	-3.504309e+01	-8.849696e+01
5.000000e-07	-5.022601e-06	-1.349708e-09	-3.490642e+01	-8.827808e+01
5.100000e-07	-5.002816e-06	-1.371386e-09	-3.476891e+01	-8.805516e+01
5.200000e-07	-4.982711e-06	-1.288256e-09	-3.462919e+01	-8.782822e+01
5.300000e-07	-4.962146e-06	-1.309039e-09	-3.448626e+01	-8.759732e+01
5.400000e-07	-4.941183e-06	-1.366739e-09	-3.434057e+01	-8.736246e+01
5.500000e-07	-4.919885e-06	-1.291933e-09	-3.419255e+01	-8.712368e+01
5.600000e-07	-4.898265e-06	-1.268876e-09	-3.404230e+01	-8.688099e+01
5.700000e-07	-4.876385e-06	-1.349827e-09	-3.389024e+01	-8.663440e+01
5.800000e-07	-4.854197e-06	-1.325584e-09	-3.373603e+01	-8.638393e+01
5.900000e-07	-4.831605e-06	-1.263813e-09	-3.357902e+01	-8.612958e+01
6.000000e-07	-4.808602e-06	-1.312671e-09	-3.341915e+01	-8.587136e+01
6.100000e-07	-4.785282e-06	-1.317728e-09	-3.325708e+01	-8.560926e+01
6.200000e-07	-4.761730e-06	-1.255822e-09	-3.309340e+01	-8.534328e+01
6.300000e-07	-4.738003e-06	-1.276320e-09	-3.292850e+01	-8.507342e+01
6.400000e-07	-4.714061e-06	-1.308571e-09	-3.276210e+01	-8.479966e+01
6.500000e-07	-4.689728e-06	-1.266374e-09	-3.259299e+01	-8.452200e+01
6.600000e-07	-4.664932e-06	-1.264451e-09	-3.242066e+01	-8.424043e+01
6.700000e-07	-4.639526e-06	-1.290251e-09	-3.224410e+01	-8.395493e+01
6.800000e-07	-4.613463e-06	-1.262274e-09	-3.206296e+01	-8.366550e+01
6.900000e-07	-4.586870e-06	-1.243131e-09	-3.187815e+01	-8.337211e+01
7.000000e-07	-4.559843e-06	-1.258901e-09	-3.169031e+01	-8.307475e+01
7.100000e-07	-4.532508e-06	-1.240854e-09	-3.150033e+01	-8.277342e+01
7.200000e-07	-4.504975e-06	-1.223144e-09	-3.130899e+01	-8.246811e+01
7.300000e-07	-4.477291e-06	-1.239537e-09	-3.111658e+01	-8.215879e+01
7.400000e-07	-4.449477e-06	-1.235689e-09	-3.092328e+01	-8.184547e+01
7.500000e-07	-4.421494e-06	-1.214812e-09	-3.072880e+01	-8.152814e+01
7.600000e-07	-4.393257e-06	-1.220364e-09	-3.053256e+01	-8.120678e+01
7.700000e-07	-4.364678e-06	-1.219458e-09	-3.033394e+01	-8.088139e+01
7.800000e-07	-4.335706e-06	-1.198747e-09	-3.013258e+01	-8.055197e+01
7.900000e-07	-4.306418e-06	-1.193937e-09	-2.992904e+01	-8.021852e+01
8.000000e-07	-4.276877e-06	-1.189310e-09	-2.972373e+01	-7.988103e+01
8.100000e-07	-4.247047e-06	-1.165350e-09	-2.951642e+01	-7.953951e+01
8.200000e-07	-4.216901e-06	-1.156470e-09	-2.930691e+01	-7.919395e+01
8.300000e-07	-4.186410e-06	-1.165469e-09	-2.909500e+01	-7.884437e+01
8.400000e-07	-4.155524e-06	-1.156058e-09	-2.888035e+01	-7.849076e+01
8.500000e-07	-4.124332e-06	-1.148018e-09	-2.866357e+01	-7.813312e+01
8.600000e-07	-4.092907e-06	-1.155348e-09	-2.844517e+01	-7.777146e+01
8.700000e-07	-4.061372e-06	-1.148218e-09	-2.822600e+01	-7.740579e+01
8.800000e-07	-4.029787e-06	-1.128112e-09	-2.800649e+01	-7.703611e+01
8.900000e-07	-3.997979e-06	-1.123767e-09	-2.778543e+01	-7.666242e+01
9.000000e-07	-3.965913e-06	-1.114730e-09	-2.756257e+01	-7.628472e+01
9.100000e-07	-3.933620e-06	-1.093710e-09	-2.733814e+01	-7.590301e+01
9.200000e-07	-3.900951e-06	-1.089551e-09	-2.711110e+01	-7.551731e+01
9.300000e-07	-3.867823e-06	-1.095812e-09	-2.688086e+01	-7.512760e+01
9.400000e-07	-3.834278e-06	-1.085671e-09	-2.664773e+01	-7.473388e+01
9.500000e-07	-3.800263e-06	-1.077752e-09	-2.641133e+01	-7.433614e+01
9.600000e-07	-3.765708e-06	-1.081400e-09	-2.617118e+01	-7.393439e+01
9.700000e-07	-3.730706e-06	-1.073561e-09	-2.592792e+01	-7.352862e+01
9.800000e-07	-3.695460e-06	-1.058958e-09	-2.568296e+01	-7.311880e+01
9.900000e-07	-3.660063e-06	-1.056937e-09	-2.543696e+01	-7.270494e+01
1.000000e-06	-3.624521e-06	-1.052720e-09	-2.518994e+01	-7.228701e+01
1.010000e-06	-3.588857e-06	-1.041053e-09	-2.494208e+01	-7.186501e+01
1.020000e-06	-3.553079e-06	-1.037607e-09	-2.469343e+01	-7.143890e+01
1.030000e-06	-3.517137e-06	-1.035327e-09	-2.444364e+01	-7.100867e+01
1.040000e-06	-3.480934e-06	-1.022898e-09	-2.419203e+01	-7.057430e+01
1.050000e-06	-3.444407e-06	-1.016131e-09	-2.393818e+01	-7.013576e+01
1.060000e-06	-3.407595e-06	-1.016289e-09	-2.368234e+01	-6.969303e+01
1.070000e-06	-3.370541e-06	-1.007816e-09	-2.342481e+01	-6.924608e+01
1.080000e-06	-3.333238e-06	-9.980491e-10	-2.316556e+01	-6.879488e+01
1.090000e-06	-3.295721e-06	-9.946713e-10	-2.290483e+01	-6.833940e+01
1.100000e-06	-3.257997e-06	-9.866324e-10	-2.264265e+01	-6.787962e+01
1.110000e-06	-3.220047e-06	-9.730043e-10	-2.237890e+01	-6.741549e+01
1.120000e-06	-3.181888e-06	-9.643906e-10	-2.211370e+01	-6.694700e+01
1.130000e-06	-3.143468e-06	-9.569003e-10	-2.184669e+01	-6.647411e+01
1.140000e-06	-3.104817e-06	-9.467279e-10	-2.157807e+01	-6.599678e+01
1.150000e-06	-3.066008e-06	-9.406182e-10	-2.130836e+01	-6.551498e+01
1.160000e-06	-3.026970e-06	-9.381873e-10	-2.103704e+01	-6.502868e+01
1.170000e-06	-2.987691e-06	-9.309212e-10	-2.076406e+01	-6.453784e+01
1.180000e-06	-2.948334e-06	-9.206717e-10	-2.049053e+01	-6.404244e+01
1.190000e-06	-2.908872e-06	-9.112710e-10	-2.021628e+01	-6.354242e+01
1.200000e-06	-2.869210e-06	-9.002103e-10	-1.994063e+01	-6.303776e+01
1.210000e-06	-2.829355e-06	-8.872849e-10	-1.966364e+01	-6.252841e+01
1.220000e-06	-2.789366e-06	-8.782266e-10	-1.938573e+01	-6.201434e+01
1.230000e-06	-2.749277e-06	-8.698300e-10	-1.910711e+01	-6.149548e+01
1.240000e-06	-2.708992e-06	-8.585360e-10	-1.882714e+01	-6.097181e+01
1.250000e-06	-2.668381e-06	-8.513785e-10	-1.854490e+01	-6.044326e+01
1.260000e-06	-2.627489e-06	-8.483236e-10	-1.826070e+01	-5.990977e+01
1.270000e-06	-2.586522e-06	-8.421309e-10	-1.797599e+01	-5.937129e+01
1.280000e-06	-2.545392e-06	-8.343995e-10	-1.769014e+01	-5.882773e+01
1.290000e-06	-2.503913e-06	-8.248964e-10	-1.740187e+01	-5.827901e+01
1.300000e-06	-2.462076e-06	-8.125849e-10	-1.711111e+01	-5.772506e+01
1.310000e-06	-2.419864e-06	-7.991547e-10	-1.681774e+01	-5.716577e+01
1.320000e-06	-2.377313e-06	-7.859024e-10	-1.652201e+01	-5.660103e+01
1.330000e-06	-2.334532e-06	-7.739377e-10	-1.622469e+01	-5.603071e+01
1.340000e-06	-2.291544e-06	-7.653938e-10	-1.592593e+01	-5.545468e+01
1.350000e-06	-2.248321e-06	-7.605775e-10	-1.562554e+01	-5.487280e+01
1.360000e-06	-2.204923e-06	-7.557142e-10	-1.532392e+01	-5.428489e+01
1.370000e-06	-2.161398e-06	-7.489083e-10	-1.502143e+01	-5.369077e+01
1.380000e-06	-2.117807e-06	-7.387046e-10	-1.471848e+01	-5.309024e+01
1.390000e-06	-2.074178e-06	-7.231931e-10	-1.441526e+01	-5.248308e+01
1.400000e-06	-2.030414e-06	-7.061318e-10	-1.411111e+01	-5.186905e+01
1.410000e-06	-1.986559e-06	-6.922847e-10	-1.380632e+01	-5.124789e+01
1.420000e-06	-1.942697e-06	-6.821730e-10	-1.350149e+01	-5.061933e+01
1.430000e-06	-1.898732e-06	-6.758918e-10	-1.319594e+01	-4.998307e+01
1.440000e-06	-1.854573e-06	-6.713403e-10	-1.288904e+01	-4.933878e+01
1.450000e-06	-1.810333e-06	-6.653249e-10	-1.258158e+01	-4.868613e+01
1.460000e-06	-1.766072e-06	-6.563315e-10	-1.227397e+01	-4.802475e+01
1.470000e-06	-1.721683e-06	-6.448647e-10	-1.196547e+01	-4.735426e+01
1.480000e-06	-1.677074e-06	-6.315421e-10	-1.165544e+01	-4.667425e+01
1.490000e-06	-1.632298e-06	-6.181196e-10	-1.134425e+01	-4.598431e+01
1.500000e-06	-1.587458e-06	-6.062890e-10	-1.103263e+01	-4.528399e+01
1.510000e-06	-1.542467e-06	-5.970900e-10	-1.071994e+01	-4.457284e+01
1.520000e-06	-1.497268e-06	-5.876918e-10	-1.040582e+01	-4.385038e+01
1.530000e-06	-1.451951e-06	-5.772443e-10	-1.009087e+01	-4.311614e+01
1.540000e-06	-1.406605e-06	-5.666585e-10	-9.775717e+00	-4.236961e+01
1.550000e-06	-1.361219e-06	-5.547362e-10	-9.460291e+00	-4.161029e+01
1.560000e-06	-1.315741e-06	-5.406654e-10	-9.144225e+00	-4.083766e+01
1.570000e-06	-1.270180e-06	-5.279832e-10	-8.827587e+00	-4.005121e+01
1.580000e-06	-1.224559e-06	-5.187585e-10	-8.510526e+00	-3.925043e+01
1.590000e-06	-1.178861e-06	-5.085770e-10	-8.192926e+00	-3.843478e+01
1.600000e-06	-1.133059e-06	-4.968535e-10	-7.874611e+00	-3.760377e+01
1.610000e-06	-1.087136e-06	-4.837907e-10	-7.555453e+00	-3.675689e+01
1.620000e-06	-1.041124e-06	-4.679115e-10	-7.235675e+00	-3.589365e+01
1.630000e-06	-9.950270e-07	-4.504279e-10	-6.915307e+00	-3.501358e+01
1.640000e-06	-9.488340e-07	-4.338454e-10	-6.594272e+00	-3.411621e+01
1.650000e-06	-9.025951e-07	-4.188059e-10	-6.272917e+00	-3.320112e+01
1.660000e-06	-8.562907e-07	-4.046272e-10	-5.951108e+00	-3.226789e+01
1.670000e-06	-8.099666e-07	-3.924131e-10	-5.629161e+00	-3.131617e+01
1.680000e-06	-7.636316e-07	-3.816641e-10	-5.307139e+00	-3.034559e+01
1.690000e-06	-7.171697e-07	-3.691029e-10	-4.984235e+00	-2.935587e+01
1.700000e-06	-6.705973e-07	-3.523996e-10	-4.660563e+00	-2.834673e+01
1.710000e-06	-6.240333e-07	-3.318836e-10	-4.336949e+00	-2.731797e+01
1.720000e-06	-5.773942e-07	-3.103731e-10	-4.012813e+00	-2.626941e+01
1.730000e-06	-5.307055e-07	-2.903366e-10	-3.688334e+00	-2.520095e+01
1.740000e-06	-4.840742e-07	-2.722074e-10	-3.364252e+00	-2.411252e+01
1.750000e-06	-4.374054e-07	-2.562818e-10	-3.039910e+00	-2.300412e+01
1.760000e-06	-3.906647e-07	-2.437136e-10	-2.715068e+00	-2.187580e+01
1.770000e-06	-3.439244e-07	-2.320035e-10	-2.390229e+00	-2.072768e+01
1.780000e-06	-2.972247e-07	-2.183768e-10	-2.065673e+00	-1.955995e+01
1.790000e-06	-2.504571e-07	-2.028591e-10	-1.740644e+00	-1.837285e+01
1.800000e-06	-2.035682e-07	-1.839054e-10	-1.414772e+00	-1.716669e+01
1.810000e-06	-1.567098e-07	-1.609166e-10	-1.089113e+00	-1.594186e+01
1.820000e-06	-1.098224e-07	-1.366587e-10	-7.632516e-01	-1.469880e+01
1.830000e-06	-6.290835e-08	-1.122884e-10	-4.372048e-01	-1.343802e+01
1.840000e-06	-1.602996e-08	-9.180218e-11	-1.114061e-01	-1.216012e+01
1.850000e-06	3.084436e-08	-7.596271e-11	2.143643e-01	-1.086572e+01
1.860000e-06	7.765629e-08	-6.353422e-11	5.397010e-01	-9.555555e+00
1.870000e-06	1.245198e-07	-5.173420e-11	8.653963e-01	-8.230383e+00
1.880000e-06	1.714377e-07	-3.708196e-11	1.191469e+00	-6.891043e+00
1.890000e-06	2.183234e-07	-1.793289e-11	1.517319e+00	-5.538425e+00
1.900000e-06	2.651314e-07	5.788619e-12	1.842628e+00	-4.173476e+00
1.910000e-06	3.119064e-07	3.200876e-11	2.167709e+00	-2.797192e+00
1.920000e-06	3.587694e-07	5.981010e-11	2.493400e+00	-1.410619e+00
1.930000e-06	4.056504e-07	8.207313e-11	2.819217e+00	-1.484570e-02
1.940000e-06	4.524593e-07	9.634931e-11	3.144532e+00	1.388999e+00
1.950000e-06	4.991539e-07	1.082197e-10	3.469054e+00	2.799751e+00
1.960000e-06	5.456745e-07	1.228014e-10	3.792366e+00	4.216218e+00
1.970000e-06	5.921353e-07	1.414006e-10	4.115262e+00	5.637180e+00
1.980000e-06	6.386205e-07	1.634370e-10	4.438329e+00	7.061400e+00
1.990000e-06	6.850196e-07	1.865912e-10	4.760796e+00	8.487625e+00
2.000000e-06	7.313190e-07	2.096160e-10	5.082571e+00	9.914591e+00
2.010000e-06	7.776577e-07	2.322485e-10	5.404619e+00	1.134103e+01
2.020000e-06	8.240194e-07	2.505298e-10	5.726826e+00	1.276569e+01
2.030000e-06	8.703014e-07	2.662376e-10	6.048481e+00	1.418730e+01
2.040000e-06	9.164880e-07	2.854769e-10	6.369471e+00	1.560463e+01
2.050000e-06	9.626646e-07	3.069431e-10	6.690393e+00	1.701644e+01
2.060000e-06	1.008860e-06	3.278493e-10	7.011445e+00	1.842154e+01
2.070000e-06	1.054939e-06	3.461551e-10	7.331685e+00	1.981875e+01
2.080000e-06	1.100847e-06	3.647634e-10	7.650741e+00	2.120694e+01
2.090000e-06	1.146644e-06	3.843255e-10	7.969027e+00	2.258499e+01
2.100000e-06	1.192341e-06	4.039542e-10	8.286613e+00	2.395185e+01
2.110000e-06	1.237944e-06	4.245100e-10	8.603549e+00	2.530651e+01
2.120000e-06	1.283451e-06	4.451025e-10	8.919816e+00	2.664800e+01
2.130000e-06	1.328855e-06	4.635434e-10	9.235369e+00	2.797541e+01
2.140000e-06	1.374176e-06	4.807404e-10	9.550346e+00	2.928788e+01
2.150000e-06	1.419391e-06	4.982897e-10	9.864584e+00	3.058463e+01
2.160000e-06	1.464577e-06	5.148716e-10	1.017862e+01	3.186490e+01
2.170000e-06	1.509686e-06	5.301782e-10	1.049212e+01	3.312804e+01
2.180000e-06	1.554646e-06	5.446897e-10	1.080458e+01	3.437344e+01
2.190000e-06	1.599489e-06	5.604545e-10	1.111624e+01	3.560054e+01
2.200000e-06	1.644199e-06	5.785612e-10	1.142696e+01	3.680887e+01
2.210000e-06	1.688758e-06	5.967381e-10	1.173665e+01	3.799802e+01
2.220000e-06	1.733205e-06	6.131407e-10	1.204554e+01	3.916763e+01
2.230000e-06	1.777615e-06	6.278158e-10	1.235419e+01	4.031744e+01
2.240000e-06	1.821910e-06	6.421429e-10	1.266203e+01	4.144720e+01
2.250000e-06	1.866016e-06	6.583778e-10	1.296857e+01	4.255677e+01
2.260000e-06	1.910039e-06	6.743106e-10	1.327452e+01	4.364605e+01
2.270000e-06	1.953995e-06	6.888436e-10	1.358001e+01	4.471499e+01
2.280000e-06	1.997862e-06	7.030108e-10	1.388488e+01	4.576360e+01
2.290000e-06	2.041653e-06	7.159447e-10	1.418922e+01	4.679196e+01
2.300000e-06	2.085401e-06	7.285745e-10	1.449327e+01	4.780017e+01
2.310000e-06	2.129105e-06	7.422642e-10	1.479700e+01	4.878839e+01
2.320000e-06	2.172630e-06	7.558909e-10	1.509949e+01	4.975684e+01
2.330000e-06	2.216011e-06	7.710473e-10	1.540099e+01	5.070574e+01
2.340000e-06	2.259293e-06	7.871799e-10	1.570179e+01	5.163538e+01
2.350000e-06	2.302396e-06	8.008402e-10	1.600135e+01	5.254607e+01
2.360000e-06	2.345320e-06	8.109084e-10	1.629967e+01	5.343814e+01
2.370000e-06	2.388024e-06	8.197007e-10	1.659645e+01	5.431195e+01
2.380000e-06	2.430452e-06	8.267409e-10	1.689132e+01	5.516788e+01
2.390000e-06	2.472607e-06	8.365095e-10	1.718429e+01	5.600634e+01
2.400000e-06	2.514528e-06	8.479866e-10	1.747564e+01	5.682772e+01
2.410000e-06	2.556121e-06	8.598834e-10	1.776470e+01	5.763245e+01
2.420000e-06	2.597275e-06	8.733874e-10	1.805072e+01	5.842096e+01
2.430000e-06	2.638164e-06	8.873630e-10	1.833489e+01	5.919367e+01
2.440000e-06	2.678905e-06	9.008023e-10	1.861804e+01	5.995101e+01
2.450000e-06	2.719371e-06	9.098678e-10	1.889927e+01	6.069340e+01
2.460000e-06	2.759572e-06	9.163906e-10	1.917866e+01	6.142125e+01
2.470000e-06	2.799592e-06	9.233988e-10	1.945680e+01	6.213499e+01
2.480000e-06	2.839503e-06	9.308284e-10	1.973417e+01	6.283501e+01
2.490000e-06	2.879281e-06	9.385146e-10	2.001062e+01	6.352170e+01
2.500000e-06	2.918883e-06	9.502272e-10	2.028585e+01	6.419542e+01
2.510000e-06	2.958376e-06	9.650751e-10	2.056032e+01	6.485654e+01
2.520000e-06	2.997770e-06	9.793166e-10	2.083411e+01	6.550541e+01
2.530000e-06	3.036967e-06	9.913010e-10	2.110652e+01	6.614234e+01
2.540000e-06	3.075871e-06	1.000699e-09	2.137690e+01	6.676764e+01
2.550000e-06	3.114495e-06	1.007330e-09	2.164533e+01	6.738161e+01
2.560000e-06	3.152834e-06	1.011273e-09	2.191178e+01	6.798451e+01
2.570000e-06	3.190988e-06	1.014327e-09	2.217694e+01	6.857661e+01
2.580000e-06	3.229039e-06	1.022733e-09	2.244140e+01	6.915814e+01
2.590000e-06	3.266877e-06	1.035857e-09	2.270436e+01	6.972932e+01
2.600000e-06	3.304435e-06	1.048329e-09	2.296539e+01	7.029036e+01
2.610000e-06	3.341824e-06	1.057483e-09	2.322524e+01	7.084145e+01
2.620000e-06	3.379037e-06	1.065601e-09	2.348387e+01	7.138277e+01
2.630000e-06	3.415917e-06	1.072782e-09	2.374017e+01	7.191447e+01
2.640000e-06	3.452538e-06	1.078922e-09	2.399469e+01	7.243673e+01
2.650000e-06	3.488934e-06	1.086517e-09	2.424763e+01	7.294968e+01
2.660000e-06	3.525121e-06	1.096009e-09	2.449913e+01	7.345346e+01
2.670000e-06	3.561142e-06	1.104246e-09	2.474947e+01	7.394820e+01
2.680000e-06	3.596960e-06	1.109326e-09	2.499840e+01	7.443402e+01
2.690000e-06	3.632615e-06	1.113207e-09	2.524620e+01	7.491104e+01
2.700000e-06	3.668136e-06	1.115437e-09	2.549307e+01	7.537939e+01
2.710000e-06	3.703498e-06	1.121356e-09	2.573882e+01	7.583917e+01
2.720000e-06	3.738635e-06	1.131281e-09	2.598302e+01	7.629050e+01
2.730000e-06	3.773501e-06	1.141497e-09	2.622533e+01	7.673350e+01
2.740000e-06	3.807947e-06	1.149259e-09	2.646473e+01	7.716829e+01
2.750000e-06	3.841850e-06	1.153791e-09	2.670035e+01	7.759499e+01
2.760000e-06	3.875243e-06	1.155050e-09	2.693243e+01	7.801372e+01
2.770000e-06	3.908199e-06	1.153974e-09	2.716147e+01	7.842462e+01
2.780000e-06	3.940812e-06	1.156688e-09	2.738812e+01	7.882781e+01
2.790000e-06	3.973075e-06	1.162707e-09	2.761235e+01	7.922344e+01
2.800000e-06	4.005026e-06	1.169059e-09	2.783440e+01	7.961165e+01
2.810000e-06	4.036837e-06	1.177308e-09	2.805548e+01	7.999258e+01
2.820000e-06	4.068552e-06	1.185835e-09	2.827590e+01	8.036640e+01
2.830000e-06	4.100057e-06	1.192295e-09	2.849486e+01	8.073326e+01
2.840000e-06	4.131259e-06	1.197466e-09	2.871171e+01	8.109332e+01
2.850000e-06	4.162250e-06	1.201902e-09	2.892709e+01	8.144674e+01
2.860000e-06	4.192939e-06	1.206873e-09	2.914037e+01	8.179370e+01
2.870000e-06	4.223283e-06	1.210292e-09	2.935126e+01	8.213435e+01
2.880000e-06	4.253398e-06	1.211359e-09	2.956056e+01	8.246889e+01
2.890000e-06	4.283236e-06	1.211879e-09	2.976793e+01	8.279746e+01
2.900000e-06	4.312750e-06	1.213010e-09	2.997305e+01	8.312025e+01
