# Temperatura_=_-0.8
# Concentracion g/m^3_=_1620.0
# C_Vs_to_Am_M_A/Vsm_=_65563218390.804596
# pendiente_HvsI_1/m_=_3716.3
# ordenada_HvsI_A/m_=_1297.0
# frecuencia_Hz_=_135094.74562515153

Tiempo_(s)	Campo_(V.s)	Magnetizacion_(V.s)	Campo_(kA/m)	Magnetizacion_(A/m)
0.000000e+00	-5.531388e-06	-1.287128e-09	-3.837074e+01	-8.531365e+01
1.000000e-08	-5.531549e-06	-1.283743e-09	-3.837186e+01	-8.530477e+01
2.000000e-08	-5.531518e-06	-1.283569e-09	-3.837165e+01	-8.529338e+01
3.000000e-08	-5.531142e-06	-1.285769e-09	-3.836904e+01	-8.527911e+01
4.000000e-08	-5.530291e-06	-1.287245e-09	-3.836314e+01	-8.526158e+01
5.000000e-08	-5.529018e-06	-1.286959e-09	-3.835430e+01	-8.524040e+01
6.000000e-08	-5.527141e-06	-1.282311e-09	-3.834128e+01	-8.521518e+01
7.000000e-08	-5.524564e-06	-1.276508e-09	-3.832341e+01	-8.518555e+01
8.000000e-08	-5.521493e-06	-1.288770e-09	-3.830210e+01	-8.515115e+01
9.000000e-08	-5.517930e-06	-1.295321e-09	-3.827738e+01	-8.511162e+01
1.000000e-07	-5.513969e-06	-1.289734e-09	-3.824991e+01	-8.506661e+01
1.100000e-07	-5.509696e-06	-1.299967e-09	-3.822026e+01	-8.501582e+01
1.200000e-07	-5.505188e-06	-1.273284e-09	-3.818900e+01	-8.495894e+01
1.300000e-07	-5.500478e-06	-1.287417e-09	-3.815632e+01	-8.489570e+01
1.400000e-07	-5.495353e-06	-1.270611e-09	-3.812077e+01	-8.482587e+01
1.500000e-07	-5.489736e-06	-1.280080e-09	-3.808180e+01	-8.474923e+01
1.600000e-07	-5.483690e-06	-1.290367e-09	-3.803986e+01	-8.466563e+01
1.700000e-07	-5.477333e-06	-1.270128e-09	-3.799577e+01	-8.457491e+01
1.800000e-07	-5.470652e-06	-1.291159e-09	-3.794942e+01	-8.447699e+01
1.900000e-07	-5.463504e-06	-1.262924e-09	-3.789984e+01	-8.437181e+01
2.000000e-07	-5.455979e-06	-1.278480e-09	-3.784763e+01	-8.425936e+01
2.100000e-07	-5.448217e-06	-1.257711e-09	-3.779379e+01	-8.413965e+01
2.200000e-07	-5.440224e-06	-1.309682e-09	-3.773835e+01	-8.401278e+01
2.300000e-07	-5.432020e-06	-1.289904e-09	-3.768143e+01	-8.387883e+01
2.400000e-07	-5.423415e-06	-1.285001e-09	-3.762174e+01	-8.373798e+01
2.500000e-07	-5.414132e-06	-1.254524e-09	-3.755735e+01	-8.359041e+01
2.600000e-07	-5.404128e-06	-1.271519e-09	-3.748795e+01	-8.343636e+01
2.700000e-07	-5.393503e-06	-1.252437e-09	-3.741425e+01	-8.327610e+01
2.800000e-07	-5.382466e-06	-1.242806e-09	-3.733769e+01	-8.310993e+01
2.900000e-07	-5.371003e-06	-1.237923e-09	-3.725816e+01	-8.293821e+01
3.000000e-07	-5.359036e-06	-1.236902e-09	-3.717515e+01	-8.276129e+01
3.100000e-07	-5.346706e-06	-1.223186e-09	-3.708962e+01	-8.257958e+01
3.200000e-07	-5.333972e-06	-1.207044e-09	-3.700128e+01	-8.239350e+01
3.300000e-07	-5.320815e-06	-1.224926e-09	-3.691002e+01	-8.220349e+01
3.400000e-07	-5.307298e-06	-1.209664e-09	-3.681625e+01	-8.201001e+01
3.500000e-07	-5.293380e-06	-1.212575e-09	-3.671970e+01	-8.181352e+01
3.600000e-07	-5.279116e-06	-1.210324e-09	-3.662076e+01	-8.161450e+01
3.700000e-07	-5.264354e-06	-1.225801e-09	-3.651835e+01	-8.141343e+01
3.800000e-07	-5.248987e-06	-1.205571e-09	-3.641175e+01	-8.121080e+01
3.900000e-07	-5.233127e-06	-1.211754e-09	-3.630173e+01	-8.100707e+01
4.000000e-07	-5.216683e-06	-1.196433e-09	-3.618766e+01	-8.080271e+01
4.100000e-07	-5.199794e-06	-1.202000e-09	-3.607050e+01	-8.059817e+01
4.200000e-07	-5.182668e-06	-1.205530e-09	-3.595170e+01	-8.039388e+01
4.300000e-07	-5.165231e-06	-1.223535e-09	-3.583074e+01	-8.019026e+01
4.400000e-07	-5.147541e-06	-1.195534e-09	-3.570803e+01	-7.998767e+01
4.500000e-07	-5.129593e-06	-1.207170e-09	-3.558352e+01	-7.978649e+01
4.600000e-07	-5.111085e-06	-1.202862e-09	-3.545514e+01	-7.958703e+01
4.700000e-07	-5.092019e-06	-1.191896e-09	-3.532288e+01	-7.938957e+01
4.800000e-07	-5.072675e-06	-1.178308e-09	-3.518869e+01	-7.919436e+01
4.900000e-07	-5.053156e-06	-1.215147e-09	-3.505329e+01	-7.900161e+01
5.000000e-07	-5.033466e-06	-1.200484e-09	-3.491670e+01	-7.881148e+01
5.100000e-07	-5.013556e-06	-1.182407e-09	-3.477859e+01	-7.862409e+01
5.200000e-07	-4.993381e-06	-1.189831e-09	-3.463864e+01	-7.843950e+01
5.300000e-07	-4.972869e-06	-1.202079e-09	-3.449635e+01	-7.825775e+01
5.400000e-07	-4.951892e-06	-1.170861e-09	-3.435083e+01	-7.807881e+01
5.500000e-07	-4.930535e-06	-1.176504e-09	-3.420268e+01	-7.790261e+01
5.600000e-07	-4.908897e-06	-1.190477e-09	-3.405258e+01	-7.772904e+01
5.700000e-07	-4.886882e-06	-1.179245e-09	-3.389986e+01	-7.755795e+01
5.800000e-07	-4.864564e-06	-1.175489e-09	-3.374504e+01	-7.738912e+01
5.900000e-07	-4.841953e-06	-1.190734e-09	-3.358820e+01	-7.722231e+01
6.000000e-07	-4.818931e-06	-1.178332e-09	-3.342849e+01	-7.705725e+01
6.100000e-07	-4.795604e-06	-1.161769e-09	-3.326667e+01	-7.689360e+01
6.200000e-07	-4.772021e-06	-1.168917e-09	-3.310308e+01	-7.673101e+01
6.300000e-07	-4.748200e-06	-1.162337e-09	-3.293784e+01	-7.656909e+01
6.400000e-07	-4.724153e-06	-1.155963e-09	-3.277102e+01	-7.640743e+01
6.500000e-07	-4.699796e-06	-1.155248e-09	-3.260206e+01	-7.624558e+01
6.600000e-07	-4.675003e-06	-1.156967e-09	-3.243008e+01	-7.608309e+01
6.700000e-07	-4.649659e-06	-1.143917e-09	-3.225427e+01	-7.591948e+01
6.800000e-07	-4.623776e-06	-1.146611e-09	-3.207472e+01	-7.575427e+01
6.900000e-07	-4.597315e-06	-1.138435e-09	-3.189116e+01	-7.558694e+01
7.000000e-07	-4.570309e-06	-1.140144e-09	-3.170383e+01	-7.541702e+01
7.100000e-07	-4.542983e-06	-1.132747e-09	-3.151427e+01	-7.524398e+01
7.200000e-07	-4.515424e-06	-1.128970e-09	-3.132309e+01	-7.506734e+01
7.300000e-07	-4.487684e-06	-1.122349e-09	-3.113066e+01	-7.488661e+01
7.400000e-07	-4.459820e-06	-1.128534e-09	-3.093737e+01	-7.470132e+01
7.500000e-07	-4.431753e-06	-1.113162e-09	-3.074267e+01	-7.451100e+01
7.600000e-07	-4.403396e-06	-1.110864e-09	-3.054596e+01	-7.431522e+01
7.700000e-07	-4.374687e-06	-1.111779e-09	-3.034681e+01	-7.411357e+01
7.800000e-07	-4.345626e-06	-1.110017e-09	-3.014522e+01	-7.390565e+01
7.900000e-07	-4.316244e-06	-1.097101e-09	-2.994139e+01	-7.369111e+01
8.000000e-07	-4.286537e-06	-1.100516e-09	-2.973532e+01	-7.346961e+01
8.100000e-07	-4.256540e-06	-1.089768e-09	-2.952724e+01	-7.324087e+01
8.200000e-07	-4.226313e-06	-1.074268e-09	-2.931755e+01	-7.300463e+01
8.300000e-07	-4.195852e-06	-1.068213e-09	-2.910625e+01	-7.276067e+01
8.400000e-07	-4.165121e-06	-1.070176e-09	-2.889307e+01	-7.250880e+01
8.500000e-07	-4.134021e-06	-1.061961e-09	-2.867733e+01	-7.224888e+01
8.600000e-07	-4.102610e-06	-1.058859e-09	-2.845943e+01	-7.198082e+01
8.700000e-07	-4.071018e-06	-1.058481e-09	-2.824028e+01	-7.170454e+01
8.800000e-07	-4.039239e-06	-1.051578e-09	-2.801984e+01	-7.142003e+01
8.900000e-07	-4.007348e-06	-1.045056e-09	-2.779861e+01	-7.112729e+01
9.000000e-07	-3.975272e-06	-1.039930e-09	-2.757610e+01	-7.082638e+01
9.100000e-07	-3.942900e-06	-1.031527e-09	-2.735154e+01	-7.051738e+01
9.200000e-07	-3.910201e-06	-1.020431e-09	-2.712472e+01	-7.020041e+01
9.300000e-07	-3.877113e-06	-1.016381e-09	-2.689519e+01	-6.987563e+01
9.400000e-07	-3.843440e-06	-1.011396e-09	-2.666160e+01	-6.954321e+01
9.500000e-07	-3.809273e-06	-1.008041e-09	-2.642458e+01	-6.920338e+01
9.600000e-07	-3.774752e-06	-1.003391e-09	-2.618511e+01	-6.885635e+01
9.700000e-07	-3.739782e-06	-1.000959e-09	-2.594253e+01	-6.850238e+01
9.800000e-07	-3.704479e-06	-9.886883e-10	-2.569764e+01	-6.814175e+01
9.900000e-07	-3.668958e-06	-9.834579e-10	-2.545123e+01	-6.777474e+01
1.000000e-06	-3.633252e-06	-9.757545e-10	-2.520354e+01	-6.740165e+01
1.010000e-06	-3.597404e-06	-9.718621e-10	-2.495487e+01	-6.702279e+01
1.020000e-06	-3.561438e-06	-9.677550e-10	-2.470538e+01	-6.663846e+01
1.030000e-06	-3.525317e-06	-9.689523e-10	-2.445481e+01	-6.624899e+01
1.040000e-06	-3.488989e-06	-9.634830e-10	-2.420281e+01	-6.585469e+01
1.050000e-06	-3.452423e-06	-9.601932e-10	-2.394915e+01	-6.545585e+01
1.060000e-06	-3.415573e-06	-9.527834e-10	-2.369352e+01	-6.505278e+01
1.070000e-06	-3.378395e-06	-9.423254e-10	-2.343563e+01	-6.464576e+01
1.080000e-06	-3.340997e-06	-9.299282e-10	-2.317620e+01	-6.423507e+01
1.090000e-06	-3.303435e-06	-9.264130e-10	-2.291564e+01	-6.382095e+01
1.100000e-06	-3.265689e-06	-9.213973e-10	-2.265379e+01	-6.340366e+01
1.110000e-06	-3.227685e-06	-9.147561e-10	-2.239016e+01	-6.298340e+01
1.120000e-06	-3.189398e-06	-9.079695e-10	-2.212457e+01	-6.256036e+01
1.130000e-06	-3.150819e-06	-9.025973e-10	-2.185695e+01	-6.213471e+01
1.140000e-06	-3.112023e-06	-8.940594e-10	-2.158783e+01	-6.170659e+01
1.150000e-06	-3.073168e-06	-8.872666e-10	-2.131829e+01	-6.127611e+01
1.160000e-06	-3.034188e-06	-8.827509e-10	-2.104789e+01	-6.084335e+01
1.170000e-06	-2.994907e-06	-8.758596e-10	-2.077540e+01	-6.040836e+01
1.180000e-06	-2.955347e-06	-8.690224e-10	-2.050098e+01	-5.997116e+01
1.190000e-06	-2.915757e-06	-8.638889e-10	-2.022634e+01	-5.953174e+01
1.200000e-06	-2.876095e-06	-8.578104e-10	-1.995121e+01	-5.909007e+01
1.210000e-06	-2.836178e-06	-8.507497e-10	-1.967431e+01	-5.864607e+01
1.220000e-06	-2.796087e-06	-8.454213e-10	-1.939620e+01	-5.819963e+01
1.230000e-06	-2.755865e-06	-8.371986e-10	-1.911719e+01	-5.775064e+01
1.240000e-06	-2.715391e-06	-8.245152e-10	-1.883642e+01	-5.729892e+01
1.250000e-06	-2.674774e-06	-8.126585e-10	-1.855467e+01	-5.684429e+01
1.260000e-06	-2.634007e-06	-8.074470e-10	-1.827187e+01	-5.638654e+01
1.270000e-06	-2.592915e-06	-7.998205e-10	-1.798682e+01	-5.592543e+01
1.280000e-06	-2.551545e-06	-7.975401e-10	-1.769984e+01	-5.546069e+01
1.290000e-06	-2.509930e-06	-7.951897e-10	-1.741116e+01	-5.499205e+01
1.300000e-06	-2.467952e-06	-7.863288e-10	-1.711996e+01	-5.451918e+01
1.310000e-06	-2.425666e-06	-7.708286e-10	-1.682663e+01	-5.404178e+01
1.320000e-06	-2.383155e-06	-7.576589e-10	-1.653173e+01	-5.355949e+01
1.330000e-06	-2.340414e-06	-7.457062e-10	-1.623524e+01	-5.307196e+01
1.340000e-06	-2.297448e-06	-7.347938e-10	-1.593719e+01	-5.257882e+01
1.350000e-06	-2.254225e-06	-7.278673e-10	-1.563735e+01	-5.207967e+01
1.360000e-06	-2.210813e-06	-7.269844e-10	-1.533621e+01	-5.157413e+01
1.370000e-06	-2.167269e-06	-7.214239e-10	-1.503415e+01	-5.106179e+01
1.380000e-06	-2.123593e-06	-7.131624e-10	-1.473118e+01	-5.054223e+01
1.390000e-06	-2.079817e-06	-7.002282e-10	-1.442750e+01	-5.001505e+01
1.400000e-06	-2.035975e-06	-6.838849e-10	-1.412338e+01	-4.947981e+01
1.410000e-06	-1.992102e-06	-6.705827e-10	-1.381903e+01	-4.893609e+01
1.420000e-06	-1.948134e-06	-6.616775e-10	-1.351403e+01	-4.838346e+01
1.430000e-06	-1.904022e-06	-6.547915e-10	-1.320803e+01	-4.782149e+01
1.440000e-06	-1.859845e-06	-6.496873e-10	-1.290158e+01	-4.724975e+01
1.450000e-06	-1.815581e-06	-6.427017e-10	-1.259452e+01	-4.666782e+01
1.460000e-06	-1.771166e-06	-6.317761e-10	-1.228642e+01	-4.607526e+01
1.470000e-06	-1.726620e-06	-6.188614e-10	-1.197741e+01	-4.547166e+01
1.480000e-06	-1.681869e-06	-6.057781e-10	-1.166698e+01	-4.485660e+01
1.490000e-06	-1.636912e-06	-5.935930e-10	-1.135512e+01	-4.422965e+01
1.500000e-06	-1.591880e-06	-5.818706e-10	-1.104273e+01	-4.359042e+01
1.510000e-06	-1.546773e-06	-5.733945e-10	-1.072983e+01	-4.293850e+01
1.520000e-06	-1.501489e-06	-5.665849e-10	-1.041570e+01	-4.227349e+01
1.530000e-06	-1.456084e-06	-5.574146e-10	-1.010072e+01	-4.159501e+01
1.540000e-06	-1.410663e-06	-5.460073e-10	-9.785641e+00	-4.090266e+01
1.550000e-06	-1.365129e-06	-5.330209e-10	-9.469778e+00	-4.019610e+01
1.560000e-06	-1.319453e-06	-5.186852e-10	-9.152925e+00	-3.947493e+01
1.570000e-06	-1.273698e-06	-5.069619e-10	-8.835526e+00	-3.873883e+01
1.580000e-06	-1.227938e-06	-4.970799e-10	-8.518093e+00	-3.798744e+01
1.590000e-06	-1.182172e-06	-4.874718e-10	-8.200619e+00	-3.722043e+01
1.600000e-06	-1.136323e-06	-4.781003e-10	-7.882570e+00	-3.643750e+01
1.610000e-06	-1.090361e-06	-4.682920e-10	-7.563735e+00	-3.563833e+01
1.620000e-06	-1.044238e-06	-4.531478e-10	-7.243788e+00	-3.482263e+01
1.630000e-06	-9.979986e-07	-4.335909e-10	-6.923027e+00	-3.399014e+01
1.640000e-06	-9.517595e-07	-4.168244e-10	-6.602270e+00	-3.314059e+01
1.650000e-06	-9.054421e-07	-4.065601e-10	-6.280971e+00	-3.227376e+01
1.660000e-06	-8.590074e-07	-3.973018e-10	-5.958858e+00	-3.138943e+01
1.670000e-06	-8.125859e-07	-3.873197e-10	-5.636835e+00	-3.048740e+01
1.680000e-06	-7.661489e-07	-3.732296e-10	-5.314706e+00	-2.956749e+01
1.690000e-06	-7.196909e-07	-3.579506e-10	-4.992431e+00	-2.862957e+01
1.700000e-06	-6.732521e-07	-3.430579e-10	-4.670289e+00	-2.767351e+01
1.710000e-06	-6.267911e-07	-3.284944e-10	-4.347993e+00	-2.669922e+01
1.720000e-06	-5.802808e-07	-3.135715e-10	-4.025356e+00	-2.570663e+01
1.730000e-06	-5.336857e-07	-2.976694e-10	-3.702130e+00	-2.469573e+01
1.740000e-06	-4.869888e-07	-2.827412e-10	-3.378198e+00	-2.366650e+01
1.750000e-06	-4.402787e-07	-2.638675e-10	-3.054174e+00	-2.261899e+01
1.760000e-06	-3.935173e-07	-2.476695e-10	-2.729794e+00	-2.155328e+01
1.770000e-06	-3.465962e-07	-2.365990e-10	-2.404307e+00	-2.046948e+01
1.780000e-06	-2.996338e-07	-2.244959e-10	-2.078533e+00	-1.936774e+01
1.790000e-06	-2.526860e-07	-2.093847e-10	-1.752860e+00	-1.824827e+01
1.800000e-06	-2.057703e-07	-1.917428e-10	-1.427410e+00	-1.711131e+01
1.810000e-06	-1.589092e-07	-1.735042e-10	-1.102339e+00	-1.595713e+01
1.820000e-06	-1.119820e-07	-1.549436e-10	-7.768094e-01	-1.478608e+01
1.830000e-06	-6.503659e-08	-1.367269e-10	-4.511530e-01	-1.359854e+01
1.840000e-06	-1.824150e-08	-1.206284e-10	-1.265397e-01	-1.239493e+01
1.850000e-06	2.857171e-08	-1.062952e-10	1.981994e-01	-1.117572e+01
1.860000e-06	7.558133e-08	-9.349177e-11	5.243009e-01	-9.941437e+00
1.870000e-06	1.225776e-07	-7.572177e-11	8.503100e-01	-8.692659e+00
1.880000e-06	1.694621e-07	-5.557926e-11	1.175543e+00	-7.430002e+00
1.890000e-06	2.163627e-07	-3.811737e-11	1.500889e+00	-6.154133e+00
1.900000e-06	2.632544e-07	-2.186213e-11	1.826172e+00	-4.865766e+00
1.910000e-06	3.100171e-07	-5.546337e-12	2.150561e+00	-3.565662e+00
1.920000e-06	3.567400e-07	1.279625e-11	2.474673e+00	-2.254625e+00
1.930000e-06	4.035491e-07	3.350841e-11	2.799384e+00	-9.335013e-01
1.940000e-06	4.504062e-07	5.586881e-11	3.124427e+00	3.968221e-01
1.950000e-06	4.971866e-07	7.655723e-11	3.448939e+00	1.735420e+00
1.960000e-06	5.439113e-07	9.458340e-11	3.773064e+00	3.081331e+00
1.970000e-06	5.906278e-07	1.113547e-10	4.097132e+00	4.433562e+00
1.980000e-06	6.372400e-07	1.272202e-10	4.420477e+00	5.791089e+00
1.990000e-06	6.837167e-07	1.431437e-10	4.742882e+00	7.152863e+00
2.000000e-06	7.301656e-07	1.611456e-10	5.065093e+00	8.517813e+00
2.010000e-06	7.766520e-07	1.825263e-10	5.387565e+00	9.884846e+00
2.020000e-06	8.230454e-07	2.031953e-10	5.709392e+00	1.125286e+01
2.030000e-06	8.693137e-07	2.246894e-10	6.030351e+00	1.262073e+01
2.040000e-06	9.156107e-07	2.465548e-10	6.351509e+00	1.398734e+01
2.050000e-06	9.619180e-07	2.639236e-10	6.672739e+00	1.535157e+01
2.060000e-06	1.008088e-06	2.805680e-10	6.993013e+00	1.671229e+01
2.070000e-06	1.054164e-06	2.981652e-10	7.312639e+00	1.806838e+01
2.080000e-06	1.100195e-06	3.165695e-10	7.631954e+00	1.941874e+01
2.090000e-06	1.146159e-06	3.348058e-10	7.950802e+00	2.076227e+01
2.100000e-06	1.192028e-06	3.562979e-10	8.268990e+00	2.209792e+01
2.110000e-06	1.237770e-06	3.779581e-10	8.586299e+00	2.342463e+01
2.120000e-06	1.283476e-06	3.967533e-10	8.903356e+00	2.474139e+01
2.130000e-06	1.329129e-06	4.141161e-10	9.220048e+00	2.604721e+01
2.140000e-06	1.374702e-06	4.309086e-10	9.536185e+00	2.734115e+01
2.150000e-06	1.420153e-06	4.475816e-10	9.851472e+00	2.862228e+01
2.160000e-06	1.465464e-06	4.641263e-10	1.016579e+01	2.988976e+01
2.170000e-06	1.510632e-06	4.821427e-10	1.047912e+01	3.114274e+01
2.180000e-06	1.555688e-06	5.003838e-10	1.079167e+01	3.238047e+01
2.190000e-06	1.600702e-06	5.182024e-10	1.110393e+01	3.360222e+01
2.200000e-06	1.645611e-06	5.362381e-10	1.141546e+01	3.480731e+01
2.210000e-06	1.690341e-06	5.524680e-10	1.172574e+01	3.599515e+01
2.220000e-06	1.734843e-06	5.670767e-10	1.203445e+01	3.716516e+01
2.230000e-06	1.779174e-06	5.805496e-10	1.234197e+01	3.831685e+01
2.240000e-06	1.823439e-06	5.959404e-10	1.264903e+01	3.944978e+01
2.250000e-06	1.867628e-06	6.142944e-10	1.295557e+01	4.056356e+01
2.260000e-06	1.911734e-06	6.326950e-10	1.326152e+01	4.165786e+01
2.270000e-06	1.955761e-06	6.488141e-10	1.356694e+01	4.273241e+01
2.280000e-06	1.999673e-06	6.617831e-10	1.387155e+01	4.378700e+01
2.290000e-06	2.043562e-06	6.727736e-10	1.417600e+01	4.482148e+01
2.300000e-06	2.087418e-06	6.835636e-10	1.448023e+01	4.583573e+01
2.310000e-06	2.131154e-06	6.943956e-10	1.478363e+01	4.682972e+01
2.320000e-06	2.174781e-06	7.083245e-10	1.508626e+01	4.780343e+01
2.330000e-06	2.218318e-06	7.251745e-10	1.538828e+01	4.875692e+01
2.340000e-06	2.261719e-06	7.404054e-10	1.568934e+01	4.969029e+01
2.350000e-06	2.304842e-06	7.527577e-10	1.598848e+01	5.060366e+01
2.360000e-06	2.347749e-06	7.642284e-10	1.628613e+01	5.149721e+01
2.370000e-06	2.390515e-06	7.749960e-10	1.658279e+01	5.237116e+01
2.380000e-06	2.432993e-06	7.834486e-10	1.687746e+01	5.322576e+01
2.390000e-06	2.475143e-06	7.930158e-10	1.716985e+01	5.406128e+01
2.400000e-06	2.517041e-06	8.042231e-10	1.746049e+01	5.487803e+01
2.410000e-06	2.558577e-06	8.157189e-10	1.774862e+01	5.567633e+01
2.420000e-06	2.599756e-06	8.280357e-10	1.803427e+01	5.645653e+01
2.430000e-06	2.640707e-06	8.424588e-10	1.831835e+01	5.721901e+01
2.440000e-06	2.681406e-06	8.550138e-10	1.860067e+01	5.796413e+01
2.450000e-06	2.721885e-06	8.637753e-10	1.888147e+01	5.869229e+01
2.460000e-06	2.762162e-06	8.689786e-10	1.916087e+01	5.940390e+01
2.470000e-06	2.802255e-06	8.746054e-10	1.943899e+01	6.009934e+01
2.480000e-06	2.842152e-06	8.804632e-10	1.971575e+01	6.077902e+01
2.490000e-06	2.881934e-06	8.892167e-10	1.999172e+01	6.144336e+01
2.500000e-06	2.921599e-06	9.013003e-10	2.026687e+01	6.209274e+01
2.510000e-06	2.961091e-06	9.160246e-10	2.054082e+01	6.272757e+01
2.520000e-06	3.000485e-06	9.286430e-10	2.081409e+01	6.334823e+01
2.530000e-06	3.039721e-06	9.356229e-10	2.108627e+01	6.395510e+01
2.540000e-06	3.078699e-06	9.411593e-10	2.135666e+01	6.454856e+01
2.550000e-06	3.117457e-06	9.462688e-10	2.162552e+01	6.512895e+01
2.560000e-06	3.155956e-06	9.509276e-10	2.189258e+01	6.569662e+01
2.570000e-06	3.194220e-06	9.577939e-10	2.215802e+01	6.625191e+01
2.580000e-06	3.232252e-06	9.693011e-10	2.242184e+01	6.679514e+01
2.590000e-06	3.270080e-06	9.835052e-10	2.268425e+01	6.732659e+01
2.600000e-06	3.307770e-06	9.955248e-10	2.294570e+01	6.784657e+01
2.610000e-06	3.345290e-06	1.000853e-09	2.320598e+01	6.835535e+01
2.620000e-06	3.382560e-06	1.002970e-09	2.346452e+01	6.885319e+01
2.630000e-06	3.419557e-06	1.005839e-09	2.372116e+01	6.934033e+01
2.640000e-06	3.456334e-06	1.010770e-09	2.397628e+01	6.981700e+01
2.650000e-06	3.492769e-06	1.018173e-09	2.422903e+01	7.028344e+01
2.660000e-06	3.528949e-06	1.029766e-09	2.448001e+01	7.073984e+01
2.670000e-06	3.565002e-06	1.040199e-09	2.473010e+01	7.118642e+01
2.680000e-06	3.600906e-06	1.049035e-09	2.497916e+01	7.162335e+01
2.690000e-06	3.636691e-06	1.056070e-09	2.522740e+01	7.205081e+01
2.700000e-06	3.672360e-06	1.057652e-09	2.547483e+01	7.246899e+01
2.710000e-06	3.707847e-06	1.057907e-09	2.572100e+01	7.287805e+01
2.720000e-06	3.743067e-06	1.063351e-09	2.596532e+01	7.327815e+01
2.730000e-06	3.777997e-06	1.069287e-09	2.620763e+01	7.366945e+01
2.740000e-06	3.812513e-06	1.075295e-09	2.644706e+01	7.405210e+01
2.750000e-06	3.846582e-06	1.083396e-09	2.668339e+01	7.442625e+01
2.760000e-06	3.880178e-06	1.092687e-09	2.691645e+01	7.479206e+01
2.770000e-06	3.913269e-06	1.098231e-09	2.714600e+01	7.514966e+01
2.780000e-06	3.945985e-06	1.100025e-09	2.737294e+01	7.549921e+01
2.790000e-06	3.978312e-06	1.103512e-09	2.759719e+01	7.584086e+01
2.800000e-06	4.010317e-06	1.105829e-09	2.781921e+01	7.617475e+01
2.810000e-06	4.042130e-06	1.106916e-09	2.803989e+01	7.650103e+01
2.820000e-06	4.073866e-06	1.110912e-09	2.826004e+01	7.681986e+01
2.830000e-06	4.105485e-06	1.119297e-09	2.847938e+01	7.713137e+01
2.840000e-06	4.136836e-06	1.128719e-09	2.869686e+01	7.743573e+01
2.850000e-06	4.167827e-06	1.134710e-09	2.891184e+01	7.773307e+01
2.860000e-06	4.198468e-06	1.136568e-09	2.912440e+01	7.802356e+01
2.870000e-06	4.228865e-06	1.136504e-09	2.933526e+01	7.830733e+01
2.880000e-06	4.259002e-06	1.136460e-09	2.954431e+01	7.858454e+01
2.890000e-06	4.288799e-06	1.137202e-09	2.975101e+01	7.885534e+01
2.900000e-06	4.318283e-06	1.139516e-09	2.995554e+01	7.911986e+01
