# Temperatura_=_-0.3
# Concentracion g/m^3_=_1620.0
# C_Vs_to_Am_M_A/Vsm_=_65563218390.804596
# pendiente_HvsI_1/m_=_3716.3
# ordenada_HvsI_A/m_=_1297.0
# frecuencia_Hz_=_135099.5917922539

Tiempo_(s)	Campo_(V.s)	Magnetizacion_(V.s)	Campo_(kA/m)	Magnetizacion_(A/m)
0.000000e+00	-5.512215e-06	-1.636272e-09	-3.838210e+01	-1.062301e+02
1.000000e-08	-5.512323e-06	-1.635343e-09	-3.838285e+01	-1.061954e+02
2.000000e-08	-5.512144e-06	-1.638307e-09	-3.838160e+01	-1.061588e+02
3.000000e-08	-5.511594e-06	-1.641276e-09	-3.837778e+01	-1.061203e+02
4.000000e-08	-5.510548e-06	-1.642443e-09	-3.837049e+01	-1.060801e+02
5.000000e-08	-5.508833e-06	-1.644900e-09	-3.835855e+01	-1.060381e+02
6.000000e-08	-5.506515e-06	-1.651615e-09	-3.834241e+01	-1.059943e+02
7.000000e-08	-5.503687e-06	-1.645442e-09	-3.832272e+01	-1.059488e+02
8.000000e-08	-5.500337e-06	-1.612166e-09	-3.829939e+01	-1.059015e+02
9.000000e-08	-5.496522e-06	-1.619644e-09	-3.827283e+01	-1.058524e+02
1.000000e-07	-5.492361e-06	-1.685092e-09	-3.824386e+01	-1.058015e+02
1.100000e-07	-5.487868e-06	-1.671859e-09	-3.821257e+01	-1.057487e+02
1.200000e-07	-5.483154e-06	-1.598878e-09	-3.817975e+01	-1.056939e+02
1.300000e-07	-5.478271e-06	-1.576339e-09	-3.814574e+01	-1.056370e+02
1.400000e-07	-5.472926e-06	-1.657385e-09	-3.810853e+01	-1.055780e+02
1.500000e-07	-5.467094e-06	-1.688216e-09	-3.806792e+01	-1.055167e+02
1.600000e-07	-5.461011e-06	-1.616182e-09	-3.802556e+01	-1.054531e+02
1.700000e-07	-5.454636e-06	-1.599550e-09	-3.798117e+01	-1.053869e+02
1.800000e-07	-5.447746e-06	-1.633562e-09	-3.793320e+01	-1.053180e+02
1.900000e-07	-5.440347e-06	-1.642951e-09	-3.788168e+01	-1.052463e+02
2.000000e-07	-5.432684e-06	-1.572445e-09	-3.782832e+01	-1.051716e+02
2.100000e-07	-5.424836e-06	-1.562733e-09	-3.777368e+01	-1.050937e+02
2.200000e-07	-5.416668e-06	-1.592583e-09	-3.771680e+01	-1.050124e+02
2.300000e-07	-5.408226e-06	-1.621139e-09	-3.765802e+01	-1.049276e+02
2.400000e-07	-5.399296e-06	-1.589624e-09	-3.759583e+01	-1.048391e+02
2.500000e-07	-5.389582e-06	-1.570729e-09	-3.752819e+01	-1.047466e+02
2.600000e-07	-5.379150e-06	-1.573848e-09	-3.745556e+01	-1.046500e+02
2.700000e-07	-5.368179e-06	-1.583183e-09	-3.737916e+01	-1.045491e+02
2.800000e-07	-5.356851e-06	-1.560622e-09	-3.730029e+01	-1.044436e+02
2.900000e-07	-5.345197e-06	-1.544304e-09	-3.721914e+01	-1.043333e+02
3.000000e-07	-5.333226e-06	-1.563325e-09	-3.713578e+01	-1.042182e+02
3.100000e-07	-5.320862e-06	-1.580874e-09	-3.704969e+01	-1.040979e+02
3.200000e-07	-5.308021e-06	-1.567180e-09	-3.696028e+01	-1.039722e+02
3.300000e-07	-5.294771e-06	-1.539128e-09	-3.686802e+01	-1.038411e+02
3.400000e-07	-5.281200e-06	-1.559925e-09	-3.677352e+01	-1.037043e+02
3.500000e-07	-5.267201e-06	-1.564517e-09	-3.667605e+01	-1.035616e+02
3.600000e-07	-5.252651e-06	-1.537884e-09	-3.657473e+01	-1.034129e+02
3.700000e-07	-5.237704e-06	-1.529091e-09	-3.647065e+01	-1.032580e+02
3.800000e-07	-5.222268e-06	-1.563830e-09	-3.636317e+01	-1.030969e+02
3.900000e-07	-5.206189e-06	-1.536290e-09	-3.625121e+01	-1.029293e+02
4.000000e-07	-5.189660e-06	-1.506198e-09	-3.613612e+01	-1.027553e+02
4.100000e-07	-5.172826e-06	-1.542810e-09	-3.601890e+01	-1.025746e+02
4.200000e-07	-5.155721e-06	-1.559332e-09	-3.589980e+01	-1.023871e+02
4.300000e-07	-5.138321e-06	-1.491967e-09	-3.577864e+01	-1.021930e+02
4.400000e-07	-5.120571e-06	-1.503747e-09	-3.565505e+01	-1.019920e+02
4.500000e-07	-5.102490e-06	-1.556369e-09	-3.552915e+01	-1.017842e+02
4.600000e-07	-5.084008e-06	-1.515604e-09	-3.540045e+01	-1.015695e+02
4.700000e-07	-5.065030e-06	-1.467329e-09	-3.526831e+01	-1.013479e+02
4.800000e-07	-5.045668e-06	-1.522029e-09	-3.513349e+01	-1.011196e+02
4.900000e-07	-5.026103e-06	-1.517684e-09	-3.499725e+01	-1.008844e+02
5.000000e-07	-5.006350e-06	-1.463314e-09	-3.485971e+01	-1.006425e+02
5.100000e-07	-4.986363e-06	-1.490262e-09	-3.472054e+01	-1.003939e+02
5.200000e-07	-4.966123e-06	-1.514082e-09	-3.457961e+01	-1.001387e+02
5.300000e-07	-4.945478e-06	-1.450252e-09	-3.443585e+01	-9.987696e+01
5.400000e-07	-4.924476e-06	-1.454668e-09	-3.428962e+01	-9.960888e+01
5.500000e-07	-4.903171e-06	-1.503919e-09	-3.414127e+01	-9.933455e+01
5.600000e-07	-4.881439e-06	-1.462500e-09	-3.398994e+01	-9.905411e+01
5.700000e-07	-4.859332e-06	-1.429226e-09	-3.383601e+01	-9.876770e+01
5.800000e-07	-4.836901e-06	-1.474227e-09	-3.367982e+01	-9.847548e+01
5.900000e-07	-4.814150e-06	-1.464726e-09	-3.352140e+01	-9.817764e+01
6.000000e-07	-4.791030e-06	-1.421812e-09	-3.336042e+01	-9.787433e+01
6.100000e-07	-4.767649e-06	-1.450967e-09	-3.319761e+01	-9.756574e+01
6.200000e-07	-4.744070e-06	-1.460879e-09	-3.303343e+01	-9.725206e+01
6.300000e-07	-4.720229e-06	-1.421330e-09	-3.286742e+01	-9.693348e+01
6.400000e-07	-4.696142e-06	-1.427394e-09	-3.269970e+01	-9.661019e+01
6.500000e-07	-4.671698e-06	-1.448633e-09	-3.252950e+01	-9.628236e+01
6.600000e-07	-4.646736e-06	-1.416168e-09	-3.235568e+01	-9.595019e+01
6.700000e-07	-4.621251e-06	-1.410926e-09	-3.217823e+01	-9.561386e+01
6.800000e-07	-4.595277e-06	-1.429090e-09	-3.199737e+01	-9.527355e+01
6.900000e-07	-4.568749e-06	-1.408706e-09	-3.181266e+01	-9.492941e+01
7.000000e-07	-4.541746e-06	-1.385924e-09	-3.162463e+01	-9.458161e+01
7.100000e-07	-4.514430e-06	-1.401341e-09	-3.143442e+01	-9.423029e+01
7.200000e-07	-4.486868e-06	-1.390810e-09	-3.124251e+01	-9.387559e+01
7.300000e-07	-4.459125e-06	-1.373875e-09	-3.104933e+01	-9.351763e+01
7.400000e-07	-4.431218e-06	-1.383349e-09	-3.085501e+01	-9.315651e+01
7.500000e-07	-4.403071e-06	-1.386757e-09	-3.065902e+01	-9.279232e+01
7.600000e-07	-4.374660e-06	-1.367165e-09	-3.046119e+01	-9.242513e+01
7.700000e-07	-4.345968e-06	-1.365160e-09	-3.026141e+01	-9.205499e+01
7.800000e-07	-4.316966e-06	-1.357665e-09	-3.005946e+01	-9.168195e+01
7.900000e-07	-4.287664e-06	-1.335173e-09	-2.985543e+01	-9.130600e+01
8.000000e-07	-4.257986e-06	-1.327234e-09	-2.964878e+01	-9.092716e+01
8.100000e-07	-4.227934e-06	-1.331177e-09	-2.943952e+01	-9.054538e+01
8.200000e-07	-4.197652e-06	-1.316058e-09	-2.922867e+01	-9.016063e+01
8.300000e-07	-4.167115e-06	-1.307682e-09	-2.901604e+01	-8.977284e+01
8.400000e-07	-4.136246e-06	-1.314209e-09	-2.880110e+01	-8.938193e+01
8.500000e-07	-4.105126e-06	-1.308113e-09	-2.858440e+01	-8.898778e+01
8.600000e-07	-4.073787e-06	-1.294868e-09	-2.836618e+01	-8.859027e+01
8.700000e-07	-4.042215e-06	-1.293997e-09	-2.814635e+01	-8.818927e+01
8.800000e-07	-4.010464e-06	-1.288394e-09	-2.792526e+01	-8.778461e+01
8.900000e-07	-3.978546e-06	-1.271103e-09	-2.770301e+01	-8.737612e+01
9.000000e-07	-3.946400e-06	-1.263614e-09	-2.747918e+01	-8.696361e+01
9.100000e-07	-3.913911e-06	-1.257309e-09	-2.725295e+01	-8.654689e+01
9.200000e-07	-3.881010e-06	-1.242347e-09	-2.702386e+01	-8.612574e+01
9.300000e-07	-3.847647e-06	-1.235904e-09	-2.679155e+01	-8.569994e+01
9.400000e-07	-3.813875e-06	-1.240581e-09	-2.655639e+01	-8.526927e+01
9.500000e-07	-3.779753e-06	-1.234175e-09	-2.631879e+01	-8.483349e+01
9.600000e-07	-3.745220e-06	-1.223770e-09	-2.607834e+01	-8.439238e+01
9.700000e-07	-3.710292e-06	-1.218614e-09	-2.583513e+01	-8.394569e+01
9.800000e-07	-3.675057e-06	-1.210785e-09	-2.558979e+01	-8.349319e+01
9.900000e-07	-3.639582e-06	-1.194773e-09	-2.534277e+01	-8.303465e+01
1.000000e-06	-3.603957e-06	-1.190323e-09	-2.509471e+01	-8.256985e+01
1.010000e-06	-3.568269e-06	-1.189673e-09	-2.484621e+01	-8.209857e+01
1.020000e-06	-3.532454e-06	-1.183530e-09	-2.459683e+01	-8.162061e+01
1.030000e-06	-3.496395e-06	-1.176280e-09	-2.434575e+01	-8.113576e+01
1.040000e-06	-3.460069e-06	-1.174793e-09	-2.409280e+01	-8.064385e+01
1.050000e-06	-3.423479e-06	-1.165776e-09	-2.383803e+01	-8.014471e+01
1.060000e-06	-3.386589e-06	-1.153864e-09	-2.358116e+01	-7.963820e+01
1.070000e-06	-3.349452e-06	-1.145704e-09	-2.332257e+01	-7.912418e+01
1.080000e-06	-3.312110e-06	-1.136271e-09	-2.306255e+01	-7.860254e+01
1.090000e-06	-3.274558e-06	-1.121749e-09	-2.280107e+01	-7.807319e+01
1.100000e-06	-3.236790e-06	-1.111790e-09	-2.253809e+01	-7.753607e+01
1.110000e-06	-3.198755e-06	-1.103594e-09	-2.227325e+01	-7.699113e+01
1.120000e-06	-3.160476e-06	-1.092317e-09	-2.200671e+01	-7.643834e+01
1.130000e-06	-3.122010e-06	-1.082966e-09	-2.173886e+01	-7.587770e+01
1.140000e-06	-3.083357e-06	-1.077877e-09	-2.146972e+01	-7.530924e+01
1.150000e-06	-3.044517e-06	-1.069697e-09	-2.119928e+01	-7.473300e+01
1.160000e-06	-3.005462e-06	-1.059190e-09	-2.092733e+01	-7.414904e+01
1.170000e-06	-2.966208e-06	-1.049333e-09	-2.065400e+01	-7.355745e+01
1.180000e-06	-2.926804e-06	-1.038988e-09	-2.037963e+01	-7.295834e+01
1.190000e-06	-2.887253e-06	-1.028090e-09	-2.010423e+01	-7.235181e+01
1.200000e-06	-2.847585e-06	-1.017841e-09	-1.982802e+01	-7.173801e+01
1.210000e-06	-2.807763e-06	-1.008123e-09	-1.955074e+01	-7.111710e+01
1.220000e-06	-2.767716e-06	-9.981929e-10	-1.927188e+01	-7.048923e+01
1.230000e-06	-2.727572e-06	-9.916570e-10	-1.899236e+01	-6.985457e+01
1.240000e-06	-2.687333e-06	-9.851427e-10	-1.871217e+01	-6.921330e+01
1.250000e-06	-2.646957e-06	-9.778680e-10	-1.843102e+01	-6.856560e+01
1.260000e-06	-2.606318e-06	-9.686914e-10	-1.814805e+01	-6.791166e+01
1.270000e-06	-2.565293e-06	-9.597197e-10	-1.786239e+01	-6.725165e+01
1.280000e-06	-2.524044e-06	-9.499909e-10	-1.757517e+01	-6.658575e+01
1.290000e-06	-2.482526e-06	-9.392883e-10	-1.728608e+01	-6.591413e+01
1.300000e-06	-2.440619e-06	-9.264647e-10	-1.699427e+01	-6.523692e+01
1.310000e-06	-2.398424e-06	-9.144760e-10	-1.670047e+01	-6.455429e+01
1.320000e-06	-2.355930e-06	-9.037121e-10	-1.640457e+01	-6.386633e+01
1.330000e-06	-2.313086e-06	-8.934812e-10	-1.610624e+01	-6.317316e+01
1.340000e-06	-2.270034e-06	-8.845643e-10	-1.580647e+01	-6.247484e+01
1.350000e-06	-2.226850e-06	-8.772414e-10	-1.550578e+01	-6.177143e+01
1.360000e-06	-2.183523e-06	-8.680169e-10	-1.520409e+01	-6.106293e+01
1.370000e-06	-2.140053e-06	-8.570733e-10	-1.490140e+01	-6.034932e+01
1.380000e-06	-2.096486e-06	-8.422594e-10	-1.459804e+01	-5.963057e+01
1.390000e-06	-2.052839e-06	-8.243336e-10	-1.429412e+01	-5.890657e+01
1.400000e-06	-2.009087e-06	-8.069738e-10	-1.398947e+01	-5.817719e+01
1.410000e-06	-1.965226e-06	-7.939405e-10	-1.368406e+01	-5.744228e+01
1.420000e-06	-1.921279e-06	-7.854519e-10	-1.337806e+01	-5.670161e+01
1.430000e-06	-1.877277e-06	-7.784713e-10	-1.307167e+01	-5.595493e+01
1.440000e-06	-1.833222e-06	-7.712663e-10	-1.276491e+01	-5.520195e+01
1.450000e-06	-1.789045e-06	-7.626950e-10	-1.245730e+01	-5.444232e+01
1.460000e-06	-1.744716e-06	-7.483142e-10	-1.214863e+01	-5.367566e+01
1.470000e-06	-1.700203e-06	-7.293177e-10	-1.183868e+01	-5.290155e+01
1.480000e-06	-1.655497e-06	-7.121565e-10	-1.152739e+01	-5.211953e+01
1.490000e-06	-1.610717e-06	-6.990290e-10	-1.121559e+01	-5.132907e+01
1.500000e-06	-1.565884e-06	-6.877195e-10	-1.090341e+01	-5.052965e+01
1.510000e-06	-1.520907e-06	-6.779021e-10	-1.059023e+01	-4.972069e+01
1.520000e-06	-1.475797e-06	-6.669093e-10	-1.027612e+01	-4.890157e+01
1.530000e-06	-1.430580e-06	-6.536472e-10	-9.961272e+00	-4.807165e+01
1.540000e-06	-1.385318e-06	-6.422453e-10	-9.646107e+00	-4.723028e+01
1.550000e-06	-1.340017e-06	-6.317512e-10	-9.330673e+00	-4.637677e+01
1.560000e-06	-1.294604e-06	-6.198099e-10	-9.014453e+00	-4.551040e+01
1.570000e-06	-1.249067e-06	-6.070954e-10	-8.697376e+00	-4.463047e+01
1.580000e-06	-1.203448e-06	-5.916652e-10	-8.379725e+00	-4.373625e+01
1.590000e-06	-1.157723e-06	-5.730592e-10	-8.061338e+00	-4.282700e+01
1.600000e-06	-1.111866e-06	-5.568679e-10	-7.742032e+00	-4.190201e+01
1.610000e-06	-1.065996e-06	-5.422300e-10	-7.422638e+00	-4.096055e+01
1.620000e-06	-1.020100e-06	-5.280109e-10	-7.103055e+00	-4.000192e+01
1.630000e-06	-9.740774e-07	-5.151492e-10	-6.782597e+00	-3.902542e+01
1.640000e-06	-9.278592e-07	-5.032921e-10	-6.460776e+00	-3.803038e+01
1.650000e-06	-8.816108e-07	-4.898915e-10	-6.138744e+00	-3.701618e+01
1.660000e-06	-8.353695e-07	-4.754910e-10	-5.816761e+00	-3.598220e+01
1.670000e-06	-7.890396e-07	-4.594962e-10	-5.494161e+00	-3.492789e+01
1.680000e-06	-7.427107e-07	-4.428085e-10	-5.171568e+00	-3.385272e+01
1.690000e-06	-6.963194e-07	-4.255850e-10	-4.848541e+00	-3.275623e+01
1.700000e-06	-6.498790e-07	-4.065392e-10	-4.525172e+00	-3.163801e+01
1.710000e-06	-6.034494e-07	-3.873243e-10	-4.201878e+00	-3.049770e+01
1.720000e-06	-5.570092e-07	-3.684778e-10	-3.878510e+00	-2.933501e+01
1.730000e-06	-5.104861e-07	-3.505084e-10	-3.554565e+00	-2.814973e+01
1.740000e-06	-4.639060e-07	-3.345598e-10	-3.230223e+00	-2.694171e+01
1.750000e-06	-4.173313e-07	-3.194955e-10	-2.905919e+00	-2.571086e+01
1.760000e-06	-3.706728e-07	-3.034887e-10	-2.581031e+00	-2.445720e+01
1.770000e-06	-3.239489e-07	-2.839095e-10	-2.255689e+00	-2.318080e+01
1.780000e-06	-2.772946e-07	-2.622579e-10	-1.930830e+00	-2.188183e+01
1.790000e-06	-2.306067e-07	-2.413569e-10	-1.605737e+00	-2.056055e+01
1.800000e-06	-1.839123e-07	-2.221685e-10	-1.280600e+00	-1.921727e+01
1.810000e-06	-1.371929e-07	-2.038164e-10	-9.552881e-01	-1.785242e+01
1.820000e-06	-9.036522e-08	-1.856756e-10	-6.292220e-01	-1.646650e+01
1.830000e-06	-4.357240e-08	-1.662484e-10	-3.033990e-01	-1.506009e+01
1.840000e-06	3.126836e-09	-1.476759e-10	2.177247e-02	-1.363385e+01
1.850000e-06	4.984053e-08	-1.301732e-10	3.470446e-01	-1.218853e+01
1.860000e-06	9.656032e-08	-1.095822e-10	6.723591e-01	-1.072494e+01
1.870000e-06	1.433078e-07	-8.752976e-11	9.978667e-01	-9.244000e+00
1.880000e-06	1.900514e-07	-6.615086e-11	1.323347e+00	-7.746662e+00
1.890000e-06	2.367277e-07	-4.573605e-11	1.648358e+00	-6.233966e+00
1.900000e-06	2.833897e-07	-2.566756e-11	1.973271e+00	-4.707014e+00
1.910000e-06	3.300046e-07	-4.685905e-12	2.297855e+00	-3.166963e+00
1.920000e-06	3.766462e-07	1.816972e-11	2.622625e+00	-1.615028e+00
1.930000e-06	4.232747e-07	4.098694e-11	2.947304e+00	-5.247042e-02
1.940000e-06	4.698316e-07	6.165744e-11	3.271484e+00	1.519405e+00
1.950000e-06	5.163903e-07	8.232728e-11	3.595677e+00	3.099254e+00
1.960000e-06	5.629519e-07	1.033467e-10	3.919890e+00	4.685705e+00
1.970000e-06	6.094763e-07	1.247538e-10	4.243844e+00	6.277357e+00
1.980000e-06	6.558919e-07	1.463700e-10	4.567041e+00	7.872794e+00
1.990000e-06	7.021600e-07	1.677902e-10	4.889210e+00	9.470584e+00
2.000000e-06	7.483918e-07	1.917235e-10	5.211127e+00	1.106929e+01
2.010000e-06	7.945778e-07	2.145936e-10	5.532724e+00	1.266749e+01
2.020000e-06	8.407012e-07	2.378984e-10	5.853886e+00	1.426373e+01
2.030000e-06	8.867570e-07	2.623390e-10	6.174577e+00	1.585662e+01
2.040000e-06	9.327747e-07	2.850145e-10	6.495003e+00	1.744475e+01
2.050000e-06	9.788024e-07	3.057236e-10	6.815499e+00	1.902676e+01
2.060000e-06	1.024715e-06	3.260721e-10	7.135195e+00	2.060131e+01
2.070000e-06	1.070608e-06	3.455009e-10	7.454748e+00	2.216709e+01
2.080000e-06	1.116514e-06	3.664154e-10	7.774395e+00	2.372284e+01
2.090000e-06	1.162278e-06	3.887718e-10	8.093055e+00	2.526736e+01
2.100000e-06	1.207911e-06	4.120688e-10	8.410805e+00	2.679948e+01
2.110000e-06	1.253440e-06	4.353494e-10	8.727831e+00	2.831810e+01
2.120000e-06	1.298914e-06	4.562996e-10	9.044469e+00	2.982216e+01
2.130000e-06	1.344354e-06	4.764016e-10	9.360874e+00	3.131068e+01
2.140000e-06	1.389650e-06	4.959126e-10	9.676269e+00	3.278275e+01
2.150000e-06	1.434787e-06	5.133970e-10	9.990568e+00	3.423751e+01
2.160000e-06	1.479838e-06	5.308312e-10	1.030426e+01	3.567418e+01
2.170000e-06	1.524829e-06	5.492763e-10	1.061753e+01	3.709204e+01
2.180000e-06	1.569718e-06	5.679379e-10	1.093010e+01	3.849047e+01
2.190000e-06	1.614431e-06	5.891971e-10	1.124145e+01	3.986888e+01
2.200000e-06	1.658994e-06	6.111824e-10	1.155174e+01	4.122678e+01
2.210000e-06	1.703404e-06	6.323467e-10	1.186097e+01	4.256376e+01
2.220000e-06	1.747660e-06	6.499922e-10	1.216913e+01	4.387946e+01
2.230000e-06	1.791839e-06	6.660123e-10	1.247675e+01	4.517359e+01
2.240000e-06	1.835980e-06	6.817871e-10	1.278411e+01	4.644595e+01
2.250000e-06	1.880018e-06	6.980146e-10	1.309075e+01	4.769639e+01
2.260000e-06	1.923899e-06	7.151304e-10	1.339630e+01	4.892482e+01
2.270000e-06	1.967724e-06	7.316875e-10	1.370146e+01	5.013122e+01
2.280000e-06	2.011528e-06	7.492660e-10	1.400647e+01	5.131563e+01
2.290000e-06	2.055266e-06	7.675148e-10	1.431102e+01	5.247813e+01
2.300000e-06	2.098922e-06	7.828391e-10	1.461500e+01	5.361887e+01
2.310000e-06	2.142482e-06	7.978832e-10	1.491831e+01	5.473804e+01
2.320000e-06	2.185958e-06	8.144119e-10	1.522104e+01	5.583588e+01
2.330000e-06	2.229284e-06	8.309487e-10	1.552272e+01	5.691264e+01
2.340000e-06	2.272425e-06	8.464468e-10	1.582312e+01	5.796866e+01
2.350000e-06	2.315354e-06	8.608784e-10	1.612204e+01	5.900426e+01
2.360000e-06	2.358088e-06	8.745994e-10	1.641960e+01	6.001982e+01
2.370000e-06	2.400610e-06	8.864121e-10	1.671568e+01	6.101572e+01
2.380000e-06	2.442733e-06	8.973596e-10	1.700899e+01	6.199239e+01
2.390000e-06	2.484428e-06	9.099312e-10	1.729932e+01	6.295024e+01
2.400000e-06	2.525866e-06	9.252202e-10	1.758785e+01	6.388973e+01
2.410000e-06	2.567019e-06	9.409425e-10	1.787441e+01	6.481129e+01
2.420000e-06	2.607869e-06	9.555819e-10	1.815885e+01	6.571539e+01
2.430000e-06	2.648503e-06	9.689642e-10	1.844179e+01	6.660247e+01
2.440000e-06	2.688905e-06	9.789521e-10	1.872311e+01	6.747298e+01
2.450000e-06	2.729072e-06	9.865549e-10	1.900280e+01	6.832738e+01
2.460000e-06	2.769064e-06	9.952983e-10	1.928127e+01	6.916611e+01
2.470000e-06	2.808949e-06	1.006947e-09	1.955899e+01	6.998959e+01
2.480000e-06	2.848733e-06	1.019598e-09	1.983601e+01	7.079824e+01
2.490000e-06	2.888466e-06	1.031447e-09	2.011267e+01	7.159247e+01
2.500000e-06	2.928116e-06	1.044619e-09	2.038876e+01	7.237267e+01
2.510000e-06	2.967570e-06	1.057982e-09	2.066349e+01	7.313920e+01
2.520000e-06	3.006771e-06	1.069947e-09	2.093644e+01	7.389242e+01
2.530000e-06	3.045818e-06	1.081813e-09	2.120833e+01	7.463267e+01
2.540000e-06	3.084703e-06	1.093967e-09	2.147909e+01	7.536025e+01
2.550000e-06	3.123254e-06	1.102069e-09	2.174753e+01	7.607548e+01
2.560000e-06	3.161512e-06	1.107204e-09	2.201392e+01	7.677861e+01
2.570000e-06	3.199562e-06	1.113901e-09	2.227887e+01	7.746991e+01
2.580000e-06	3.237434e-06	1.123423e-09	2.254258e+01	7.814962e+01
2.590000e-06	3.275107e-06	1.135685e-09	2.280490e+01	7.881795e+01
2.600000e-06	3.312526e-06	1.147721e-09	2.306545e+01	7.947510e+01
2.610000e-06	3.349708e-06	1.157680e-09	2.332435e+01	8.012127e+01
2.620000e-06	3.386776e-06	1.166959e-09	2.358246e+01	8.075661e+01
2.630000e-06	3.423592e-06	1.175297e-09	2.383881e+01	8.138128e+01
2.640000e-06	3.460052e-06	1.183305e-09	2.409268e+01	8.199542e+01
2.650000e-06	3.496283e-06	1.193063e-09	2.434497e+01	8.259916e+01
2.660000e-06	3.532291e-06	1.203085e-09	2.459569e+01	8.319262e+01
2.670000e-06	3.568102e-06	1.212044e-09	2.484505e+01	8.377591e+01
2.680000e-06	3.603799e-06	1.219533e-09	2.509361e+01	8.434913e+01
2.690000e-06	3.639438e-06	1.225407e-09	2.534177e+01	8.491237e+01
2.700000e-06	3.674909e-06	1.233028e-09	2.558876e+01	8.546574e+01
2.710000e-06	3.710153e-06	1.243279e-09	2.583417e+01	8.600930e+01
2.720000e-06	3.745147e-06	1.253767e-09	2.607783e+01	8.654317e+01
2.730000e-06	3.779760e-06	1.264554e-09	2.631885e+01	8.706741e+01
2.740000e-06	3.813849e-06	1.272980e-09	2.655621e+01	8.758211e+01
2.750000e-06	3.847438e-06	1.278025e-09	2.679010e+01	8.808738e+01
2.760000e-06	3.880606e-06	1.282903e-09	2.702105e+01	8.858329e+01
2.770000e-06	3.913338e-06	1.286026e-09	2.724896e+01	8.906994e+01
2.780000e-06	3.945646e-06	1.292546e-09	2.747392e+01	8.954744e+01
2.790000e-06	3.977661e-06	1.299323e-09	2.769685e+01	9.001588e+01
2.800000e-06	4.009541e-06	1.304409e-09	2.791883e+01	9.047538e+01
2.810000e-06	4.041287e-06	1.310362e-09	2.813988e+01	9.092606e+01
2.820000e-06	4.072890e-06	1.316768e-09	2.835993e+01	9.136804e+01
2.830000e-06	4.104247e-06	1.324789e-09	2.857828e+01	9.180144e+01
2.840000e-06	4.135389e-06	1.332023e-09	2.879513e+01	9.222640e+01
2.850000e-06	4.166341e-06	1.338406e-09	2.901065e+01	9.264306e+01
2.860000e-06	4.196883e-06	1.341986e-09	2.922331e+01	9.305157e+01
2.870000e-06	4.226945e-06	1.344401e-09	2.943264e+01	9.345207e+01
2.880000e-06	4.256703e-06	1.346337e-09	2.963984e+01	9.384472e+01
2.890000e-06	4.286307e-06	1.348334e-09	2.984598e+01	9.422968e+01
2.900000e-06	4.315659e-06	1.354050e-09	3.005036e+01	9.460710e+01
2.910000e-06	4.344734e-06	1.364334e-09	3.025281e+01	9.497716e+01
