# Temperatura_=_-0.39
# Concentracion g/m^3_=_1620.0
# C_Vs_to_Am_M_A/Vsm_=_65563218390.804596
# pendiente_HvsI_1/m_=_3716.3
# ordenada_HvsI_A/m_=_1297.0
# frecuencia_Hz_=_135090.62104301096

Tiempo_(s)	Campo_(V.s)	Magnetizacion_(V.s)	Campo_(kA/m)	Magnetizacion_(A/m)
0.000000e+00	-5.522000e-06	-1.738649e-09	-3.838157e+01	-1.123512e+02
1.000000e-08	-5.522199e-06	-1.734160e-09	-3.838295e+01	-1.122975e+02
2.000000e-08	-5.522159e-06	-1.729411e-09	-3.838267e+01	-1.122396e+02
3.000000e-08	-5.521807e-06	-1.728439e-09	-3.838023e+01	-1.121777e+02
4.000000e-08	-5.520965e-06	-1.726292e-09	-3.837438e+01	-1.121119e+02
5.000000e-08	-5.519428e-06	-1.723391e-09	-3.836369e+01	-1.120422e+02
6.000000e-08	-5.517307e-06	-1.725241e-09	-3.834895e+01	-1.119690e+02
7.000000e-08	-5.514764e-06	-1.736217e-09	-3.833127e+01	-1.118923e+02
8.000000e-08	-5.511601e-06	-1.754537e-09	-3.830929e+01	-1.118123e+02
9.000000e-08	-5.507926e-06	-1.714558e-09	-3.828375e+01	-1.117292e+02
1.000000e-07	-5.503899e-06	-1.654767e-09	-3.825576e+01	-1.116430e+02
1.100000e-07	-5.499600e-06	-1.702833e-09	-3.822587e+01	-1.115540e+02
1.200000e-07	-5.495119e-06	-1.805484e-09	-3.819473e+01	-1.114622e+02
1.300000e-07	-5.490297e-06	-1.776372e-09	-3.816121e+01	-1.113678e+02
1.400000e-07	-5.485011e-06	-1.671723e-09	-3.812447e+01	-1.112709e+02
1.500000e-07	-5.479361e-06	-1.674959e-09	-3.808520e+01	-1.111716e+02
1.600000e-07	-5.473443e-06	-1.792720e-09	-3.804407e+01	-1.110699e+02
1.700000e-07	-5.467090e-06	-1.754309e-09	-3.799991e+01	-1.109661e+02
1.800000e-07	-5.460206e-06	-1.648358e-09	-3.795206e+01	-1.108600e+02
1.900000e-07	-5.452969e-06	-1.650901e-09	-3.790176e+01	-1.107518e+02
2.000000e-07	-5.445487e-06	-1.734817e-09	-3.784975e+01	-1.106414e+02
2.100000e-07	-5.437779e-06	-1.729834e-09	-3.779617e+01	-1.105290e+02
2.200000e-07	-5.429816e-06	-1.658178e-09	-3.774083e+01	-1.104145e+02
2.300000e-07	-5.421491e-06	-1.650410e-09	-3.768296e+01	-1.102978e+02
2.400000e-07	-5.412736e-06	-1.678223e-09	-3.762211e+01	-1.101789e+02
2.500000e-07	-5.403371e-06	-1.676795e-09	-3.755702e+01	-1.100579e+02
2.600000e-07	-5.393350e-06	-1.651448e-09	-3.748737e+01	-1.099345e+02
2.700000e-07	-5.382730e-06	-1.655738e-09	-3.741355e+01	-1.098087e+02
2.800000e-07	-5.371607e-06	-1.652618e-09	-3.733623e+01	-1.096805e+02
2.900000e-07	-5.360062e-06	-1.652615e-09	-3.725599e+01	-1.095496e+02
3.000000e-07	-5.348159e-06	-1.641933e-09	-3.717326e+01	-1.094160e+02
3.100000e-07	-5.335868e-06	-1.652015e-09	-3.708783e+01	-1.092795e+02
3.200000e-07	-5.323084e-06	-1.643642e-09	-3.699897e+01	-1.091400e+02
3.300000e-07	-5.309884e-06	-1.663174e-09	-3.690722e+01	-1.089972e+02
3.400000e-07	-5.296274e-06	-1.644172e-09	-3.681263e+01	-1.088511e+02
3.500000e-07	-5.282307e-06	-1.621019e-09	-3.671554e+01	-1.087014e+02
3.600000e-07	-5.267885e-06	-1.633285e-09	-3.661530e+01	-1.085480e+02
3.700000e-07	-5.253066e-06	-1.643283e-09	-3.651230e+01	-1.083906e+02
3.800000e-07	-5.237791e-06	-1.604791e-09	-3.640613e+01	-1.082291e+02
3.900000e-07	-5.221878e-06	-1.619101e-09	-3.629552e+01	-1.080633e+02
4.000000e-07	-5.205609e-06	-1.652688e-09	-3.618244e+01	-1.078929e+02
4.100000e-07	-5.189029e-06	-1.597900e-09	-3.606720e+01	-1.077179e+02
4.200000e-07	-5.172014e-06	-1.573790e-09	-3.594893e+01	-1.075380e+02
4.300000e-07	-5.154673e-06	-1.646709e-09	-3.582840e+01	-1.073530e+02
4.400000e-07	-5.137036e-06	-1.624481e-09	-3.570581e+01	-1.071628e+02
4.500000e-07	-5.118998e-06	-1.540418e-09	-3.558044e+01	-1.069672e+02
4.600000e-07	-5.100480e-06	-1.604878e-09	-3.545172e+01	-1.067660e+02
4.700000e-07	-5.081562e-06	-1.659922e-09	-3.532023e+01	-1.065592e+02
4.800000e-07	-5.062294e-06	-1.561976e-09	-3.518631e+01	-1.063466e+02
4.900000e-07	-5.042735e-06	-1.549341e-09	-3.505036e+01	-1.061280e+02
5.000000e-07	-5.023014e-06	-1.640394e-09	-3.491329e+01	-1.059035e+02
5.100000e-07	-5.003119e-06	-1.581910e-09	-3.477500e+01	-1.056729e+02
5.200000e-07	-4.982961e-06	-1.523649e-09	-3.463489e+01	-1.054361e+02
5.300000e-07	-4.962426e-06	-1.609314e-09	-3.449216e+01	-1.051931e+02
5.400000e-07	-4.941522e-06	-1.603511e-09	-3.434686e+01	-1.049438e+02
5.500000e-07	-4.920228e-06	-1.506526e-09	-3.419885e+01	-1.046883e+02
5.600000e-07	-4.898579e-06	-1.564821e-09	-3.404838e+01	-1.044266e+02
5.700000e-07	-4.876639e-06	-1.612186e-09	-3.389588e+01	-1.041586e+02
5.800000e-07	-4.854381e-06	-1.518818e-09	-3.374117e+01	-1.038844e+02
5.900000e-07	-4.831684e-06	-1.515837e-09	-3.358342e+01	-1.036040e+02
6.000000e-07	-4.808636e-06	-1.593115e-09	-3.342321e+01	-1.033175e+02
6.100000e-07	-4.785331e-06	-1.544635e-09	-3.326123e+01	-1.030250e+02
6.200000e-07	-4.761713e-06	-1.512323e-09	-3.309707e+01	-1.027266e+02
6.300000e-07	-4.737905e-06	-1.570730e-09	-3.293158e+01	-1.024223e+02
6.400000e-07	-4.713877e-06	-1.552733e-09	-3.276457e+01	-1.021122e+02
6.500000e-07	-4.689451e-06	-1.492701e-09	-3.259480e+01	-1.017965e+02
6.600000e-07	-4.664637e-06	-1.525513e-09	-3.242233e+01	-1.014753e+02
6.700000e-07	-4.639427e-06	-1.533628e-09	-3.224710e+01	-1.011488e+02
6.800000e-07	-4.613670e-06	-1.485064e-09	-3.206807e+01	-1.008169e+02
6.900000e-07	-4.587289e-06	-1.495156e-09	-3.188471e+01	-1.004799e+02
7.000000e-07	-4.560304e-06	-1.525064e-09	-3.169714e+01	-1.001379e+02
7.100000e-07	-4.532949e-06	-1.496166e-09	-3.150701e+01	-9.979102e+01
7.200000e-07	-4.505422e-06	-1.480523e-09	-3.131568e+01	-9.943938e+01
7.300000e-07	-4.477703e-06	-1.494292e-09	-3.112301e+01	-9.908310e+01
7.400000e-07	-4.449816e-06	-1.474496e-09	-3.092918e+01	-9.872229e+01
7.500000e-07	-4.421740e-06	-1.450190e-09	-3.073403e+01	-9.835706e+01
7.600000e-07	-4.393442e-06	-1.460678e-09	-3.053734e+01	-9.798750e+01
7.700000e-07	-4.364864e-06	-1.460183e-09	-3.033870e+01	-9.761370e+01
7.800000e-07	-4.335959e-06	-1.439222e-09	-3.013780e+01	-9.723573e+01
7.900000e-07	-4.306709e-06	-1.439168e-09	-2.993449e+01	-9.685365e+01
8.000000e-07	-4.277099e-06	-1.436811e-09	-2.972868e+01	-9.646752e+01
8.100000e-07	-4.247219e-06	-1.416493e-09	-2.952099e+01	-9.607736e+01
8.200000e-07	-4.217066e-06	-1.407466e-09	-2.931141e+01	-9.568320e+01
8.300000e-07	-4.186700e-06	-1.409611e-09	-2.910034e+01	-9.528505e+01
8.400000e-07	-4.155981e-06	-1.392051e-09	-2.888683e+01	-9.488288e+01
8.500000e-07	-4.124829e-06	-1.380385e-09	-2.867030e+01	-9.447668e+01
8.600000e-07	-4.093410e-06	-1.384985e-09	-2.845192e+01	-9.406640e+01
8.700000e-07	-4.061844e-06	-1.377978e-09	-2.823251e+01	-9.365200e+01
8.800000e-07	-4.030242e-06	-1.361350e-09	-2.801286e+01	-9.323340e+01
8.900000e-07	-3.998427e-06	-1.363499e-09	-2.779173e+01	-9.281053e+01
9.000000e-07	-3.966339e-06	-1.355971e-09	-2.756869e+01	-9.238328e+01
9.100000e-07	-3.934031e-06	-1.338062e-09	-2.734413e+01	-9.195155e+01
9.200000e-07	-3.901418e-06	-1.333972e-09	-2.711744e+01	-9.151522e+01
9.300000e-07	-3.868457e-06	-1.331530e-09	-2.688835e+01	-9.107418e+01
9.400000e-07	-3.835071e-06	-1.314965e-09	-2.665629e+01	-9.062827e+01
9.500000e-07	-3.801054e-06	-1.308375e-09	-2.641985e+01	-9.017737e+01
9.600000e-07	-3.766443e-06	-1.311184e-09	-2.617928e+01	-8.972132e+01
9.700000e-07	-3.731505e-06	-1.297931e-09	-2.593644e+01	-8.925997e+01
9.800000e-07	-3.696310e-06	-1.282514e-09	-2.569181e+01	-8.879317e+01
9.900000e-07	-3.660872e-06	-1.283644e-09	-2.544549e+01	-8.832076e+01
1.000000e-06	-3.625271e-06	-1.278654e-09	-2.519804e+01	-8.784260e+01
1.010000e-06	-3.589483e-06	-1.264751e-09	-2.494929e+01	-8.735852e+01
1.020000e-06	-3.553544e-06	-1.263223e-09	-2.469949e+01	-8.686837e+01
1.030000e-06	-3.517517e-06	-1.262750e-09	-2.444908e+01	-8.637203e+01
1.040000e-06	-3.481247e-06	-1.248147e-09	-2.419698e+01	-8.586934e+01
1.050000e-06	-3.444680e-06	-1.237408e-09	-2.394282e+01	-8.536019e+01
1.060000e-06	-3.407896e-06	-1.234127e-09	-2.368714e+01	-8.484444e+01
1.070000e-06	-3.370827e-06	-1.220440e-09	-2.342949e+01	-8.432199e+01
1.080000e-06	-3.333475e-06	-1.206293e-09	-2.316987e+01	-8.379273e+01
1.090000e-06	-3.295890e-06	-1.203963e-09	-2.290863e+01	-8.325658e+01
1.100000e-06	-3.258114e-06	-1.198836e-09	-2.264605e+01	-8.271347e+01
1.110000e-06	-3.220134e-06	-1.186251e-09	-2.238207e+01	-8.216331e+01
1.120000e-06	-3.181931e-06	-1.181462e-09	-2.211653e+01	-8.160607e+01
1.130000e-06	-3.143592e-06	-1.173078e-09	-2.185005e+01	-8.104171e+01
1.140000e-06	-3.105018e-06	-1.158908e-09	-2.158194e+01	-8.047018e+01
1.150000e-06	-3.066091e-06	-1.145955e-09	-2.131137e+01	-7.989149e+01
1.160000e-06	-3.026970e-06	-1.141831e-09	-2.103945e+01	-7.930561e+01
1.170000e-06	-2.987728e-06	-1.135403e-09	-2.076670e+01	-7.871257e+01
1.180000e-06	-2.948318e-06	-1.123753e-09	-2.049277e+01	-7.811236e+01
1.190000e-06	-2.908788e-06	-1.115799e-09	-2.021801e+01	-7.750502e+01
1.200000e-06	-2.869086e-06	-1.104660e-09	-1.994205e+01	-7.689058e+01
1.210000e-06	-2.829261e-06	-1.088944e-09	-1.966524e+01	-7.626907e+01
1.220000e-06	-2.789364e-06	-1.076494e-09	-1.938793e+01	-7.564052e+01
1.230000e-06	-2.749315e-06	-1.066029e-09	-1.910957e+01	-7.500499e+01
1.240000e-06	-2.709083e-06	-1.055278e-09	-1.882993e+01	-7.436251e+01
1.250000e-06	-2.668580e-06	-1.047259e-09	-1.854841e+01	-7.371312e+01
1.260000e-06	-2.627876e-06	-1.038492e-09	-1.826548e+01	-7.305686e+01
1.270000e-06	-2.586893e-06	-1.025662e-09	-1.798063e+01	-7.239376e+01
1.280000e-06	-2.545548e-06	-1.013197e-09	-1.769325e+01	-7.172384e+01
1.290000e-06	-2.503985e-06	-1.003278e-09	-1.740436e+01	-7.104711e+01
1.300000e-06	-2.462120e-06	-9.926481e-10	-1.711337e+01	-7.036357e+01
1.310000e-06	-2.419943e-06	-9.774789e-10	-1.682021e+01	-6.967320e+01
1.320000e-06	-2.377552e-06	-9.650565e-10	-1.652557e+01	-6.897597e+01
1.330000e-06	-2.334899e-06	-9.573741e-10	-1.622910e+01	-6.827183e+01
1.340000e-06	-2.291942e-06	-9.460561e-10	-1.593052e+01	-6.756070e+01
1.350000e-06	-2.248761e-06	-9.344717e-10	-1.563038e+01	-6.684249e+01
1.360000e-06	-2.205392e-06	-9.225069e-10	-1.532894e+01	-6.611708e+01
1.370000e-06	-2.161869e-06	-9.093755e-10	-1.502642e+01	-6.538433e+01
1.380000e-06	-2.118260e-06	-8.924683e-10	-1.472331e+01	-6.464405e+01
1.390000e-06	-2.074566e-06	-8.774786e-10	-1.441962e+01	-6.389605e+01
1.400000e-06	-2.030741e-06	-8.656017e-10	-1.411500e+01	-6.314011e+01
1.410000e-06	-1.986781e-06	-8.539903e-10	-1.380945e+01	-6.237595e+01
1.420000e-06	-1.942788e-06	-8.440001e-10	-1.350367e+01	-6.160329e+01
1.430000e-06	-1.898805e-06	-8.344400e-10	-1.319796e+01	-6.082180e+01
1.440000e-06	-1.854735e-06	-8.222627e-10	-1.289164e+01	-6.003115e+01
1.450000e-06	-1.810561e-06	-8.058147e-10	-1.258460e+01	-5.923093e+01
1.460000e-06	-1.766262e-06	-7.891068e-10	-1.227669e+01	-5.842076e+01
1.470000e-06	-1.721751e-06	-7.747773e-10	-1.196731e+01	-5.760018e+01
1.480000e-06	-1.677129e-06	-7.625537e-10	-1.165716e+01	-5.676874e+01
1.490000e-06	-1.632419e-06	-7.535743e-10	-1.134640e+01	-5.592594e+01
1.500000e-06	-1.587547e-06	-7.462777e-10	-1.103451e+01	-5.507127e+01
1.510000e-06	-1.542535e-06	-7.351896e-10	-1.072164e+01	-5.420420e+01
1.520000e-06	-1.497443e-06	-7.183521e-10	-1.040822e+01	-5.332417e+01
1.530000e-06	-1.452284e-06	-7.008820e-10	-1.009434e+01	-5.243062e+01
1.540000e-06	-1.407002e-06	-6.885033e-10	-9.779595e+00	-5.152296e+01
1.550000e-06	-1.361627e-06	-6.803808e-10	-9.464209e+00	-5.060059e+01
1.560000e-06	-1.316232e-06	-6.696609e-10	-9.148689e+00	-4.966293e+01
1.570000e-06	-1.270665e-06	-6.561918e-10	-8.831968e+00	-4.870936e+01
1.580000e-06	-1.224969e-06	-6.409650e-10	-8.514351e+00	-4.773928e+01
1.590000e-06	-1.179226e-06	-6.196146e-10	-8.196406e+00	-4.675210e+01
1.600000e-06	-1.133332e-06	-6.000101e-10	-7.877408e+00	-4.574723e+01
1.610000e-06	-1.087375e-06	-5.858870e-10	-7.557978e+00	-4.472408e+01
1.620000e-06	-1.041306e-06	-5.705349e-10	-7.237772e+00	-4.368211e+01
1.630000e-06	-9.952080e-07	-5.552197e-10	-6.917357e+00	-4.262075e+01
1.640000e-06	-9.490344e-07	-5.422304e-10	-6.596420e+00	-4.153951e+01
1.650000e-06	-9.027635e-07	-5.270956e-10	-6.274806e+00	-4.043788e+01
1.660000e-06	-8.565079e-07	-5.064425e-10	-5.953299e+00	-3.931542e+01
1.670000e-06	-8.101559e-07	-4.833944e-10	-5.631122e+00	-3.817171e+01
1.680000e-06	-7.636626e-07	-4.648318e-10	-5.307962e+00	-3.700637e+01
1.690000e-06	-7.170365e-07	-4.489854e-10	-4.983880e+00	-3.581907e+01
1.700000e-06	-6.704353e-07	-4.338575e-10	-4.659971e+00	-3.460952e+01
1.710000e-06	-6.238915e-07	-4.195030e-10	-4.336460e+00	-3.337749e+01
1.720000e-06	-5.772234e-07	-4.028906e-10	-4.012086e+00	-3.212279e+01
1.730000e-06	-5.305369e-07	-3.840998e-10	-3.687584e+00	-3.084531e+01
1.740000e-06	-4.838663e-07	-3.625632e-10	-3.363192e+00	-2.954499e+01
1.750000e-06	-4.371478e-07	-3.398584e-10	-3.038467e+00	-2.822182e+01
1.760000e-06	-3.904202e-07	-3.188623e-10	-2.713680e+00	-2.687587e+01
1.770000e-06	-3.436659e-07	-2.996101e-10	-2.388706e+00	-2.550727e+01
1.780000e-06	-2.968492e-07	-2.827622e-10	-2.063299e+00	-2.411623e+01
1.790000e-06	-2.499700e-07	-2.665412e-10	-1.737458e+00	-2.270300e+01
1.800000e-06	-2.030294e-07	-2.493290e-10	-1.411189e+00	-2.126794e+01
1.810000e-06	-1.560663e-07	-2.296125e-10	-1.084764e+00	-1.981144e+01
1.820000e-06	-1.091327e-07	-2.072911e-10	-7.585444e-01	-1.833399e+01
1.830000e-06	-6.226685e-08	-1.838339e-10	-4.327960e-01	-1.683614e+01
1.840000e-06	-1.543967e-08	-1.603472e-10	-1.073159e-01	-1.531850e+01
1.850000e-06	3.136166e-08	-1.386555e-10	2.179843e-01	-1.378177e+01
1.860000e-06	7.815887e-08	-1.194436e-10	5.432560e-01	-1.222668e+01
1.870000e-06	1.250401e-07	-9.839391e-11	8.691118e-01	-1.065407e+01
1.880000e-06	1.718502e-07	-7.515083e-11	1.194473e+00	-9.064803e+00
1.890000e-06	2.185541e-07	-5.361086e-11	1.519096e+00	-7.459831e+00
1.900000e-06	2.652723e-07	-3.207864e-11	1.843819e+00	-5.840149e+00
1.910000e-06	3.120258e-07	-1.056341e-11	2.168786e+00	-4.206810e+00
1.920000e-06	3.587411e-07	1.227295e-11	2.493489e+00	-2.560917e+00
1.930000e-06	4.053619e-07	3.647922e-11	2.817534e+00	-9.036208e-01
1.940000e-06	4.518732e-07	5.930499e-11	3.140819e+00	7.638836e-01
1.950000e-06	4.984532e-07	8.122868e-11	3.464581e+00	2.440362e+00
1.960000e-06	5.450489e-07	1.020013e-10	3.788452e+00	4.124547e+00
1.970000e-06	5.915635e-07	1.232466e-10	4.111759e+00	5.815138e+00
1.980000e-06	6.379946e-07	1.466896e-10	4.434487e+00	7.510810e+00
1.990000e-06	6.843661e-07	1.698605e-10	4.756799e+00	9.210217e+00
2.000000e-06	7.307802e-07	1.933476e-10	5.079408e+00	1.091200e+01
2.010000e-06	7.770928e-07	2.196314e-10	5.401311e+00	1.261477e+01
2.020000e-06	8.233664e-07	2.438097e-10	5.722943e+00	1.431717e+01
2.030000e-06	8.696127e-07	2.674143e-10	6.044386e+00	1.601781e+01
2.040000e-06	9.157422e-07	2.929774e-10	6.365017e+00	1.771530e+01
2.050000e-06	9.617799e-07	3.169036e-10	6.685009e+00	1.940829e+01
2.060000e-06	1.007765e-06	3.418296e-10	7.004637e+00	2.109542e+01
2.070000e-06	1.053736e-06	3.653955e-10	7.324169e+00	2.277535e+01
2.080000e-06	1.099647e-06	3.876699e-10	7.643280e+00	2.444677e+01
2.090000e-06	1.145443e-06	4.117417e-10	7.961590e+00	2.610839e+01
2.100000e-06	1.191107e-06	4.365313e-10	8.278982e+00	2.775897e+01
2.110000e-06	1.236742e-06	4.596958e-10	8.596180e+00	2.939728e+01
2.120000e-06	1.282329e-06	4.797344e-10	8.913040e+00	3.102214e+01
2.130000e-06	1.327747e-06	4.984616e-10	9.228723e+00	3.263244e+01
2.140000e-06	1.373121e-06	5.173738e-10	9.544101e+00	3.422708e+01
2.150000e-06	1.418450e-06	5.370711e-10	9.859172e+00	3.580502e+01
2.160000e-06	1.463576e-06	5.595994e-10	1.017282e+01	3.736530e+01
2.170000e-06	1.508642e-06	5.831744e-10	1.048606e+01	3.890699e+01
2.180000e-06	1.553674e-06	6.041787e-10	1.079907e+01	4.042923e+01
2.190000e-06	1.598499e-06	6.247222e-10	1.111063e+01	4.193120e+01
2.200000e-06	1.643248e-06	6.457518e-10	1.142167e+01	4.341219e+01
2.210000e-06	1.687903e-06	6.637717e-10	1.173205e+01	4.487150e+01
2.220000e-06	1.732381e-06	6.782619e-10	1.204120e+01	4.630854e+01
2.230000e-06	1.776855e-06	6.934591e-10	1.235032e+01	4.772276e+01
2.240000e-06	1.821249e-06	7.129361e-10	1.265889e+01	4.911369e+01
2.250000e-06	1.865384e-06	7.359360e-10	1.296566e+01	5.048092e+01
2.260000e-06	1.909371e-06	7.588984e-10	1.327139e+01	5.182410e+01
2.270000e-06	1.953277e-06	7.791686e-10	1.357657e+01	5.314298e+01
2.280000e-06	1.997074e-06	7.963973e-10	1.388099e+01	5.443733e+01
2.290000e-06	2.040820e-06	8.102842e-10	1.418505e+01	5.570702e+01
2.300000e-06	2.084548e-06	8.238862e-10	1.448899e+01	5.695196e+01
2.310000e-06	2.128258e-06	8.380345e-10	1.479281e+01	5.817215e+01
2.320000e-06	2.171793e-06	8.549138e-10	1.509540e+01	5.936762e+01
2.330000e-06	2.215120e-06	8.731083e-10	1.539655e+01	6.053848e+01
2.340000e-06	2.258306e-06	8.909921e-10	1.569673e+01	6.168488e+01
2.350000e-06	2.301341e-06	9.086312e-10	1.599585e+01	6.280703e+01
2.360000e-06	2.344202e-06	9.230980e-10	1.629376e+01	6.390520e+01
2.370000e-06	2.386866e-06	9.358283e-10	1.659030e+01	6.497969e+01
2.380000e-06	2.429304e-06	9.479037e-10	1.688528e+01	6.603085e+01
2.390000e-06	2.471430e-06	9.627832e-10	1.717808e+01	6.705908e+01
2.400000e-06	2.513261e-06	9.785709e-10	1.746883e+01	6.806481e+01
2.410000e-06	2.554774e-06	9.945247e-10	1.775737e+01	6.904851e+01
2.420000e-06	2.595953e-06	1.011078e-09	1.804360e+01	7.001067e+01
2.430000e-06	2.636915e-06	1.025909e-09	1.832831e+01	7.095182e+01
2.440000e-06	2.677589e-06	1.037416e-09	1.861102e+01	7.187250e+01
2.450000e-06	2.717954e-06	1.046932e-09	1.889158e+01	7.277329e+01
2.460000e-06	2.758261e-06	1.056731e-09	1.917175e+01	7.365476e+01
2.470000e-06	2.798417e-06	1.068376e-09	1.945086e+01	7.451751e+01
2.480000e-06	2.838305e-06	1.081776e-09	1.972811e+01	7.536215e+01
2.490000e-06	2.878104e-06	1.094254e-09	2.000473e+01	7.618929e+01
2.500000e-06	2.917717e-06	1.106667e-09	2.028007e+01	7.699954e+01
2.510000e-06	2.957141e-06	1.119443e-09	2.055410e+01	7.779352e+01
2.520000e-06	2.996401e-06	1.129683e-09	2.082698e+01	7.857183e+01
2.530000e-06	3.035442e-06	1.138910e-09	2.109834e+01	7.933508e+01
2.540000e-06	3.074351e-06	1.149537e-09	2.136878e+01	8.008385e+01
2.550000e-06	3.113063e-06	1.160430e-09	2.163786e+01	8.081873e+01
2.560000e-06	3.151457e-06	1.168846e-09	2.190472e+01	8.154027e+01
2.570000e-06	3.189589e-06	1.176576e-09	2.216976e+01	8.224902e+01
2.580000e-06	3.227651e-06	1.188139e-09	2.243432e+01	8.294550e+01
2.590000e-06	3.265656e-06	1.201725e-09	2.269848e+01	8.363021e+01
2.600000e-06	3.303411e-06	1.212950e-09	2.296090e+01	8.430363e+01
2.610000e-06	3.340816e-06	1.220862e-09	2.322089e+01	8.496621e+01
2.620000e-06	3.377923e-06	1.228518e-09	2.347881e+01	8.561838e+01
2.630000e-06	3.414789e-06	1.234862e-09	2.373505e+01	8.626052e+01
2.640000e-06	3.451427e-06	1.240272e-09	2.398971e+01	8.689302e+01
2.650000e-06	3.487835e-06	1.250022e-09	2.424277e+01	8.751620e+01
2.660000e-06	3.524023e-06	1.264757e-09	2.449430e+01	8.813037e+01
2.670000e-06	3.559984e-06	1.278168e-09	2.474425e+01	8.873581e+01
2.680000e-06	3.595801e-06	1.288335e-09	2.499321e+01	8.933277e+01
2.690000e-06	3.631526e-06	1.294836e-09	2.524152e+01	8.992146e+01
2.700000e-06	3.667029e-06	1.298164e-09	2.548829e+01	9.050207e+01
2.710000e-06	3.702285e-06	1.302579e-09	2.573334e+01	9.107477e+01
2.720000e-06	3.737251e-06	1.310853e-09	2.597638e+01	9.163966e+01
2.730000e-06	3.771945e-06	1.320987e-09	2.621753e+01	9.219687e+01
2.740000e-06	3.806457e-06	1.330507e-09	2.645740e+01	9.274647e+01
2.750000e-06	3.840509e-06	1.338694e-09	2.669409e+01	9.328851e+01
2.760000e-06	3.874034e-06	1.345202e-09	2.692711e+01	9.382302e+01
2.770000e-06	3.906998e-06	1.349948e-09	2.715623e+01	9.435000e+01
2.780000e-06	3.939478e-06	1.354544e-09	2.738199e+01	9.486945e+01
2.790000e-06	3.971840e-06	1.362076e-09	2.760693e+01	9.538134e+01
2.800000e-06	4.004033e-06	1.371955e-09	2.783069e+01	9.588561e+01
2.810000e-06	4.035926e-06	1.380469e-09	2.805237e+01	9.638222e+01
2.820000e-06	4.067602e-06	1.385387e-09	2.827253e+01	9.687109e+01
2.830000e-06	4.099119e-06	1.390796e-09	2.849160e+01	9.735213e+01
2.840000e-06	4.130303e-06	1.398149e-09	2.870835e+01	9.782527e+01
2.850000e-06	4.161243e-06	1.404426e-09	2.892341e+01	9.829039e+01
2.860000e-06	4.192028e-06	1.410137e-09	2.913738e+01	9.874742e+01
2.870000e-06	4.222399e-06	1.418132e-09	2.934848e+01	9.919624e+01
2.880000e-06	4.252416e-06	1.424936e-09	2.955712e+01	9.963676e+01
2.890000e-06	4.282239e-06	1.427756e-09	2.976441e+01	1.000689e+02
2.900000e-06	4.311810e-06	1.431651e-09	2.996994e+01	1.004925e+02
