# Temperatura_=_-0.3
# Concentracion g/m^3_=_1620.0
# C_Vs_to_Am_M_A/Vsm_=_65563218390.804596
# pendiente_HvsI_1/m_=_3716.3
# ordenada_HvsI_A/m_=_1297.0
# frecuencia_Hz_=_135091.08502389726

Tiempo_(s)	Campo_(V.s)	Magnetizacion_(V.s)	Campo_(kA/m)	Magnetizacion_(A/m)
0.000000e+00	-5.507478e-06	-1.722933e-09	-3.837269e+01	-1.110818e+02
1.000000e-08	-5.507636e-06	-1.721890e-09	-3.837380e+01	-1.110374e+02
2.000000e-08	-5.507558e-06	-1.720783e-09	-3.837325e+01	-1.109896e+02
3.000000e-08	-5.506967e-06	-1.719374e-09	-3.836913e+01	-1.109387e+02
4.000000e-08	-5.505727e-06	-1.716771e-09	-3.836049e+01	-1.108848e+02
5.000000e-08	-5.504041e-06	-1.714507e-09	-3.834874e+01	-1.108281e+02
6.000000e-08	-5.501843e-06	-1.713422e-09	-3.833343e+01	-1.107687e+02
7.000000e-08	-5.498970e-06	-1.718769e-09	-3.831342e+01	-1.107069e+02
8.000000e-08	-5.495540e-06	-1.731132e-09	-3.828951e+01	-1.106429e+02
9.000000e-08	-5.491690e-06	-1.739212e-09	-3.826269e+01	-1.105766e+02
1.000000e-07	-5.487527e-06	-1.742146e-09	-3.823369e+01	-1.105084e+02
1.100000e-07	-5.483070e-06	-1.718324e-09	-3.820263e+01	-1.104383e+02
1.200000e-07	-5.478343e-06	-1.701749e-09	-3.816970e+01	-1.103665e+02
1.300000e-07	-5.473339e-06	-1.704464e-09	-3.813483e+01	-1.102929e+02
1.400000e-07	-5.467937e-06	-1.717852e-09	-3.809720e+01	-1.102178e+02
1.500000e-07	-5.462237e-06	-1.731734e-09	-3.805748e+01	-1.101412e+02
1.600000e-07	-5.456213e-06	-1.735417e-09	-3.801551e+01	-1.100630e+02
1.700000e-07	-5.449761e-06	-1.715843e-09	-3.797056e+01	-1.099834e+02
1.800000e-07	-5.442854e-06	-1.691705e-09	-3.792244e+01	-1.099023e+02
1.900000e-07	-5.435605e-06	-1.675131e-09	-3.787193e+01	-1.098197e+02
2.000000e-07	-5.428110e-06	-1.673145e-09	-3.781971e+01	-1.097356e+02
2.100000e-07	-5.420349e-06	-1.670029e-09	-3.776564e+01	-1.096498e+02
2.200000e-07	-5.412311e-06	-1.663175e-09	-3.770963e+01	-1.095623e+02
2.300000e-07	-5.403967e-06	-1.657311e-09	-3.765149e+01	-1.094730e+02
2.400000e-07	-5.395168e-06	-1.637216e-09	-3.759019e+01	-1.093817e+02
2.500000e-07	-5.385597e-06	-1.616861e-09	-3.752350e+01	-1.092883e+02
2.600000e-07	-5.375276e-06	-1.618709e-09	-3.745159e+01	-1.091926e+02
2.700000e-07	-5.364381e-06	-1.636324e-09	-3.737568e+01	-1.090944e+02
2.800000e-07	-5.352972e-06	-1.635975e-09	-3.729619e+01	-1.089934e+02
2.900000e-07	-5.341191e-06	-1.619163e-09	-3.721411e+01	-1.088896e+02
3.000000e-07	-5.329141e-06	-1.613238e-09	-3.713015e+01	-1.087825e+02
3.100000e-07	-5.316740e-06	-1.623378e-09	-3.704375e+01	-1.086720e+02
3.200000e-07	-5.303845e-06	-1.606255e-09	-3.695390e+01	-1.085578e+02
3.300000e-07	-5.290542e-06	-1.590154e-09	-3.686122e+01	-1.084396e+02
3.400000e-07	-5.276867e-06	-1.590407e-09	-3.676594e+01	-1.083171e+02
3.500000e-07	-5.262804e-06	-1.603046e-09	-3.666796e+01	-1.081901e+02
3.600000e-07	-5.248348e-06	-1.600571e-09	-3.656723e+01	-1.080583e+02
3.700000e-07	-5.233397e-06	-1.597912e-09	-3.646307e+01	-1.079213e+02
3.800000e-07	-5.217931e-06	-1.591737e-09	-3.635531e+01	-1.077790e+02
3.900000e-07	-5.201902e-06	-1.579061e-09	-3.624363e+01	-1.076311e+02
4.000000e-07	-5.185386e-06	-1.571416e-09	-3.612855e+01	-1.074772e+02
4.100000e-07	-5.168530e-06	-1.575103e-09	-3.601112e+01	-1.073172e+02
4.200000e-07	-5.151372e-06	-1.574566e-09	-3.589157e+01	-1.071508e+02
4.300000e-07	-5.133993e-06	-1.565919e-09	-3.577049e+01	-1.069778e+02
4.400000e-07	-5.116294e-06	-1.559938e-09	-3.564717e+01	-1.067980e+02
4.500000e-07	-5.098143e-06	-1.561638e-09	-3.552070e+01	-1.066113e+02
4.600000e-07	-5.079501e-06	-1.557690e-09	-3.539081e+01	-1.064174e+02
4.700000e-07	-5.060496e-06	-1.545510e-09	-3.525840e+01	-1.062163e+02
4.800000e-07	-5.041212e-06	-1.542906e-09	-3.512404e+01	-1.060078e+02
4.900000e-07	-5.021641e-06	-1.547354e-09	-3.498769e+01	-1.057918e+02
5.000000e-07	-5.001883e-06	-1.539654e-09	-3.485002e+01	-1.055684e+02
5.100000e-07	-4.981918e-06	-1.530032e-09	-3.471092e+01	-1.053374e+02
5.200000e-07	-4.961602e-06	-1.535354e-09	-3.456937e+01	-1.050988e+02
5.300000e-07	-4.940873e-06	-1.529130e-09	-3.442494e+01	-1.048528e+02
5.400000e-07	-4.919787e-06	-1.510139e-09	-3.427803e+01	-1.045993e+02
5.500000e-07	-4.898339e-06	-1.508576e-09	-3.412859e+01	-1.043385e+02
5.600000e-07	-4.876597e-06	-1.516694e-09	-3.397711e+01	-1.040703e+02
5.700000e-07	-4.854661e-06	-1.506063e-09	-3.382427e+01	-1.037951e+02
5.800000e-07	-4.832328e-06	-1.501369e-09	-3.366866e+01	-1.035128e+02
5.900000e-07	-4.809505e-06	-1.508223e-09	-3.350965e+01	-1.032237e+02
6.000000e-07	-4.786374e-06	-1.500505e-09	-3.334848e+01	-1.029279e+02
6.100000e-07	-4.762966e-06	-1.489702e-09	-3.318539e+01	-1.026257e+02
6.200000e-07	-4.739382e-06	-1.498213e-09	-3.302108e+01	-1.023173e+02
6.300000e-07	-4.715610e-06	-1.494137e-09	-3.285545e+01	-1.020029e+02
6.400000e-07	-4.691569e-06	-1.478661e-09	-3.268795e+01	-1.016828e+02
6.500000e-07	-4.667096e-06	-1.477677e-09	-3.251743e+01	-1.013572e+02
6.600000e-07	-4.642156e-06	-1.475112e-09	-3.234367e+01	-1.010263e+02
6.700000e-07	-4.616723e-06	-1.459601e-09	-3.216646e+01	-1.006904e+02
6.800000e-07	-4.590600e-06	-1.458723e-09	-3.198446e+01	-1.003498e+02
6.900000e-07	-4.563942e-06	-1.461320e-09	-3.179872e+01	-1.000047e+02
7.000000e-07	-4.536905e-06	-1.449479e-09	-3.161034e+01	-9.965530e+01
7.100000e-07	-4.509526e-06	-1.442254e-09	-3.141958e+01	-9.930189e+01
7.200000e-07	-4.481961e-06	-1.443406e-09	-3.122753e+01	-9.894465e+01
7.300000e-07	-4.454280e-06	-1.432015e-09	-3.103466e+01	-9.858379e+01
7.400000e-07	-4.426441e-06	-1.419154e-09	-3.084070e+01	-9.821949e+01
7.500000e-07	-4.398397e-06	-1.418040e-09	-3.064531e+01	-9.785190e+01
7.600000e-07	-4.370060e-06	-1.415025e-09	-3.044787e+01	-9.748116e+01
7.700000e-07	-4.341319e-06	-1.407000e-09	-3.024762e+01	-9.710740e+01
7.800000e-07	-4.312205e-06	-1.404715e-09	-3.004477e+01	-9.673069e+01
7.900000e-07	-4.282830e-06	-1.400836e-09	-2.984011e+01	-9.635110e+01
8.000000e-07	-4.253173e-06	-1.388728e-09	-2.963347e+01	-9.596867e+01
8.100000e-07	-4.223241e-06	-1.379887e-09	-2.942493e+01	-9.558339e+01
8.200000e-07	-4.193046e-06	-1.373000e-09	-2.921454e+01	-9.519526e+01
8.300000e-07	-4.162463e-06	-1.361816e-09	-2.900146e+01	-9.480422e+01
8.400000e-07	-4.131557e-06	-1.352925e-09	-2.878613e+01	-9.441020e+01
8.500000e-07	-4.100464e-06	-1.349642e-09	-2.856949e+01	-9.401308e+01
8.600000e-07	-4.069163e-06	-1.343263e-09	-2.835141e+01	-9.361275e+01
8.700000e-07	-4.037678e-06	-1.337940e-09	-2.813204e+01	-9.320905e+01
8.800000e-07	-4.006037e-06	-1.333884e-09	-2.791159e+01	-9.280180e+01
8.900000e-07	-3.974201e-06	-1.324417e-09	-2.768977e+01	-9.239079e+01
9.000000e-07	-3.942116e-06	-1.309436e-09	-2.746622e+01	-9.197582e+01
9.100000e-07	-3.909727e-06	-1.297753e-09	-2.724055e+01	-9.155665e+01
9.200000e-07	-3.876922e-06	-1.287960e-09	-2.701199e+01	-9.113303e+01
9.300000e-07	-3.843756e-06	-1.280482e-09	-2.678091e+01	-9.070469e+01
9.400000e-07	-3.810302e-06	-1.275925e-09	-2.654783e+01	-9.027137e+01
9.500000e-07	-3.776329e-06	-1.273076e-09	-2.631112e+01	-8.983280e+01
9.600000e-07	-3.741682e-06	-1.265186e-09	-2.606972e+01	-8.938869e+01
9.700000e-07	-3.706577e-06	-1.254971e-09	-2.582513e+01	-8.893877e+01
9.800000e-07	-3.671232e-06	-1.248330e-09	-2.557887e+01	-8.848277e+01
9.900000e-07	-3.635703e-06	-1.239407e-09	-2.533132e+01	-8.802041e+01
1.000000e-06	-3.600062e-06	-1.230096e-09	-2.508300e+01	-8.755146e+01
1.010000e-06	-3.564336e-06	-1.225970e-09	-2.483409e+01	-8.707565e+01
1.020000e-06	-3.528526e-06	-1.219949e-09	-2.458459e+01	-8.659277e+01
1.030000e-06	-3.492549e-06	-1.212936e-09	-2.433392e+01	-8.610261e+01
1.040000e-06	-3.456349e-06	-1.206319e-09	-2.408170e+01	-8.560498e+01
1.050000e-06	-3.419823e-06	-1.200434e-09	-2.382721e+01	-8.509971e+01
1.060000e-06	-3.382891e-06	-1.191686e-09	-2.356989e+01	-8.458666e+01
1.070000e-06	-3.345728e-06	-1.181764e-09	-2.331096e+01	-8.406573e+01
1.080000e-06	-3.308398e-06	-1.173965e-09	-2.305087e+01	-8.353684e+01
1.090000e-06	-3.270863e-06	-1.165234e-09	-2.278934e+01	-8.299991e+01
1.100000e-06	-3.233050e-06	-1.156579e-09	-2.252589e+01	-8.245494e+01
1.110000e-06	-3.194959e-06	-1.148970e-09	-2.226049e+01	-8.190192e+01
1.120000e-06	-3.156645e-06	-1.140994e-09	-2.199355e+01	-8.134089e+01
1.130000e-06	-3.118103e-06	-1.131540e-09	-2.172501e+01	-8.077193e+01
1.140000e-06	-3.079413e-06	-1.124430e-09	-2.145544e+01	-8.019511e+01
1.150000e-06	-3.040470e-06	-1.117236e-09	-2.118411e+01	-7.961056e+01
1.160000e-06	-3.001274e-06	-1.107945e-09	-2.091102e+01	-7.901844e+01
1.170000e-06	-2.961968e-06	-1.097871e-09	-2.063716e+01	-7.841890e+01
1.180000e-06	-2.922546e-06	-1.088822e-09	-2.036249e+01	-7.781215e+01
1.190000e-06	-2.883038e-06	-1.079132e-09	-2.008722e+01	-7.719840e+01
1.200000e-06	-2.843400e-06	-1.070555e-09	-1.981105e+01	-7.657787e+01
1.210000e-06	-2.803621e-06	-1.063230e-09	-1.953389e+01	-7.595080e+01
1.220000e-06	-2.763759e-06	-1.056280e-09	-1.925616e+01	-7.531744e+01
1.230000e-06	-2.723766e-06	-1.045770e-09	-1.897752e+01	-7.467805e+01
1.240000e-06	-2.683521e-06	-1.035527e-09	-1.869711e+01	-7.403288e+01
1.250000e-06	-2.643070e-06	-1.026039e-09	-1.841527e+01	-7.338218e+01
1.260000e-06	-2.602307e-06	-1.015916e-09	-1.813126e+01	-7.272620e+01
1.270000e-06	-2.561247e-06	-1.005850e-09	-1.784518e+01	-7.206518e+01
1.280000e-06	-2.520065e-06	-9.965152e-10	-1.755825e+01	-7.139931e+01
1.290000e-06	-2.478625e-06	-9.864635e-10	-1.726953e+01	-7.072882e+01
1.300000e-06	-2.436827e-06	-9.751703e-10	-1.697830e+01	-7.005386e+01
1.310000e-06	-2.394596e-06	-9.649637e-10	-1.668406e+01	-6.937458e+01
1.320000e-06	-2.352043e-06	-9.558259e-10	-1.638758e+01	-6.869109e+01
1.330000e-06	-2.309273e-06	-9.449001e-10	-1.608959e+01	-6.800347e+01
1.340000e-06	-2.266254e-06	-9.338584e-10	-1.578985e+01	-6.731175e+01
1.350000e-06	-2.223103e-06	-9.232073e-10	-1.548920e+01	-6.661591e+01
1.360000e-06	-2.179888e-06	-9.128980e-10	-1.518811e+01	-6.591592e+01
1.370000e-06	-2.136554e-06	-9.027128e-10	-1.488618e+01	-6.521165e+01
1.380000e-06	-2.093070e-06	-8.917315e-10	-1.458321e+01	-6.450296e+01
1.390000e-06	-2.049458e-06	-8.798213e-10	-1.427935e+01	-6.378964e+01
1.400000e-06	-2.005728e-06	-8.686963e-10	-1.397467e+01	-6.307141e+01
1.410000e-06	-1.961956e-06	-8.578219e-10	-1.366969e+01	-6.234798e+01
1.420000e-06	-1.918071e-06	-8.458009e-10	-1.336393e+01	-6.161896e+01
1.430000e-06	-1.874093e-06	-8.350721e-10	-1.305752e+01	-6.088393e+01
1.440000e-06	-1.830128e-06	-8.240221e-10	-1.275120e+01	-6.014239e+01
1.450000e-06	-1.786024e-06	-8.096184e-10	-1.244391e+01	-5.939383e+01
1.460000e-06	-1.741728e-06	-7.946754e-10	-1.213528e+01	-5.863764e+01
1.470000e-06	-1.697317e-06	-7.829047e-10	-1.182585e+01	-5.787319e+01
1.480000e-06	-1.652831e-06	-7.726882e-10	-1.151590e+01	-5.709979e+01
1.490000e-06	-1.608205e-06	-7.649050e-10	-1.120498e+01	-5.631673e+01
1.500000e-06	-1.563369e-06	-7.555551e-10	-1.089259e+01	-5.552322e+01
1.510000e-06	-1.518369e-06	-7.437621e-10	-1.057906e+01	-5.471847e+01
1.520000e-06	-1.473263e-06	-7.293729e-10	-1.026478e+01	-5.390163e+01
1.530000e-06	-1.428047e-06	-7.161038e-10	-9.949746e+00	-5.307186e+01
1.540000e-06	-1.382761e-06	-7.038008e-10	-9.634225e+00	-5.222827e+01
1.550000e-06	-1.337384e-06	-6.909797e-10	-9.318060e+00	-5.136995e+01
1.560000e-06	-1.291865e-06	-6.777187e-10	-9.000917e+00	-5.049601e+01
1.570000e-06	-1.246320e-06	-6.639780e-10	-8.683583e+00	-4.960553e+01
1.580000e-06	-1.200718e-06	-6.478915e-10	-8.365859e+00	-4.869761e+01
1.590000e-06	-1.155022e-06	-6.324597e-10	-8.047476e+00	-4.777134e+01
1.600000e-06	-1.109252e-06	-6.177763e-10	-7.728580e+00	-4.682585e+01
1.610000e-06	-1.063377e-06	-6.022190e-10	-7.408950e+00	-4.586028e+01
1.620000e-06	-1.017428e-06	-5.877255e-10	-7.088807e+00	-4.487379e+01
1.630000e-06	-9.713659e-07	-5.735505e-10	-6.767876e+00	-4.386559e+01
1.640000e-06	-9.252377e-07	-5.585308e-10	-6.446483e+00	-4.283494e+01
1.650000e-06	-8.790975e-07	-5.408890e-10	-6.125007e+00	-4.178111e+01
1.660000e-06	-8.329273e-07	-5.209827e-10	-5.803321e+00	-4.070347e+01
1.670000e-06	-7.866959e-07	-5.007995e-10	-5.481210e+00	-3.960143e+01
1.680000e-06	-7.404260e-07	-4.839671e-10	-5.158829e+00	-3.847444e+01
1.690000e-06	-6.941419e-07	-4.678556e-10	-4.836351e+00	-3.732207e+01
1.700000e-06	-6.477539e-07	-4.515322e-10	-4.513148e+00	-3.614392e+01
1.710000e-06	-6.012915e-07	-4.342732e-10	-4.189426e+00	-3.493970e+01
1.720000e-06	-5.548666e-07	-4.147981e-10	-3.865966e+00	-3.370918e+01
1.730000e-06	-5.084084e-07	-3.939643e-10	-3.542274e+00	-3.245223e+01
1.740000e-06	-4.618111e-07	-3.734512e-10	-3.217614e+00	-3.116880e+01
1.750000e-06	-4.151529e-07	-3.533997e-10	-2.892528e+00	-2.985893e+01
1.760000e-06	-3.684436e-07	-3.341568e-10	-2.567087e+00	-2.852276e+01
1.770000e-06	-3.217176e-07	-3.163166e-10	-2.241529e+00	-2.716051e+01
1.780000e-06	-2.750420e-07	-2.988437e-10	-1.916322e+00	-2.577251e+01
1.790000e-06	-2.283994e-07	-2.810131e-10	-1.591345e+00	-2.435918e+01
1.800000e-06	-1.817930e-07	-2.615227e-10	-1.266621e+00	-2.292101e+01
1.810000e-06	-1.351823e-07	-2.386918e-10	-9.418663e-01	-2.145860e+01
1.820000e-06	-8.852361e-08	-2.159011e-10	-6.167776e-01	-1.997264e+01
1.830000e-06	-4.183101e-08	-1.953437e-10	-2.914525e-01	-1.846391e+01
1.840000e-06	4.860136e-09	-1.754125e-10	3.386241e-02	-1.693326e+01
1.850000e-06	5.152625e-08	-1.562259e-10	3.590030e-01	-1.538162e+01
1.860000e-06	9.821080e-08	-1.366946e-10	6.842720e-01	-1.381002e+01
1.870000e-06	1.449406e-07	-1.149947e-10	1.009856e+00	-1.221953e+01
1.880000e-06	1.916807e-07	-9.384166e-11	1.335513e+00	-1.061130e+01
1.890000e-06	2.384647e-07	-7.523066e-11	1.661475e+00	-8.986560e+00
1.900000e-06	2.852096e-07	-5.758350e-11	1.987164e+00	-7.346571e+00
1.910000e-06	3.318672e-07	-3.809595e-11	2.312245e+00	-5.692656e+00
1.920000e-06	3.784960e-07	-1.443384e-11	2.637126e+00	-4.026185e+00
1.930000e-06	4.251277e-07	1.031620e-11	2.962026e+00	-2.348561e+00
1.940000e-06	4.716513e-07	3.465435e-11	3.286174e+00	-6.612247e-01
1.950000e-06	5.181113e-07	5.835294e-11	3.609879e+00	1.034360e+00
1.960000e-06	5.645622e-07	7.932715e-11	3.933519e+00	2.736710e+00
1.970000e-06	6.109250e-07	9.954552e-11	4.256547e+00	4.444325e+00
1.980000e-06	6.572138e-07	1.220426e-10	4.579059e+00	6.155703e+00
1.990000e-06	7.034242e-07	1.435449e-10	4.901024e+00	7.869339e+00
2.000000e-06	7.496410e-07	1.667227e-10	5.223034e+00	9.583733e+00
2.010000e-06	7.958308e-07	1.917611e-10	5.544856e+00	1.129740e+01
2.020000e-06	8.419619e-07	2.176916e-10	5.866268e+00	1.300887e+01
2.030000e-06	8.880242e-07	2.457345e-10	6.187202e+00	1.471670e+01
2.040000e-06	9.340174e-07	2.729888e-10	6.507655e+00	1.641946e+01
2.050000e-06	9.800098e-07	2.973368e-10	6.828101e+00	1.811579e+01
2.060000e-06	1.025907e-06	3.178615e-10	7.147884e+00	1.980433e+01
2.070000e-06	1.071730e-06	3.378090e-10	7.467149e+00	2.148378e+01
2.080000e-06	1.117563e-06	3.587416e-10	7.786488e+00	2.315290e+01
2.090000e-06	1.163260e-06	3.836657e-10	8.104874e+00	2.481047e+01
2.100000e-06	1.208777e-06	4.108812e-10	8.422009e+00	2.645536e+01
2.110000e-06	1.254179e-06	4.362143e-10	8.738341e+00	2.808646e+01
2.120000e-06	1.299600e-06	4.586078e-10	9.054806e+00	2.970275e+01
2.130000e-06	1.345007e-06	4.782425e-10	9.371174e+00	3.130326e+01
2.140000e-06	1.390304e-06	4.977381e-10	9.686776e+00	3.288708e+01
2.150000e-06	1.435515e-06	5.177169e-10	1.000178e+01	3.445337e+01
2.160000e-06	1.480588e-06	5.377699e-10	1.031582e+01	3.600136e+01
2.170000e-06	1.525470e-06	5.591594e-10	1.062853e+01	3.753033e+01
2.180000e-06	1.570171e-06	5.820747e-10	1.093998e+01	3.903964e+01
2.190000e-06	1.614833e-06	6.039394e-10	1.125116e+01	4.052870e+01
2.200000e-06	1.659448e-06	6.239878e-10	1.156200e+01	4.199702e+01
2.210000e-06	1.703849e-06	6.434772e-10	1.187137e+01	4.344412e+01
2.220000e-06	1.748100e-06	6.599377e-10	1.217968e+01	4.486964e+01
2.230000e-06	1.792280e-06	6.761248e-10	1.248750e+01	4.627323e+01
2.240000e-06	1.836389e-06	6.954469e-10	1.279482e+01	4.765464e+01
2.250000e-06	1.880402e-06	7.165455e-10	1.310147e+01	4.901364e+01
2.260000e-06	1.924234e-06	7.367809e-10	1.340687e+01	5.035010e+01
2.270000e-06	1.967974e-06	7.572959e-10	1.371163e+01	5.166390e+01
2.280000e-06	2.011686e-06	7.783928e-10	1.401618e+01	5.295499e+01
2.290000e-06	2.055293e-06	7.973342e-10	1.432001e+01	5.422336e+01
2.300000e-06	2.098819e-06	8.113920e-10	1.462327e+01	5.546906e+01
2.310000e-06	2.142303e-06	8.237070e-10	1.492624e+01	5.669216e+01
2.320000e-06	2.185715e-06	8.363431e-10	1.522871e+01	5.789278e+01
2.330000e-06	2.229015e-06	8.514464e-10	1.553039e+01	5.907107e+01
2.340000e-06	2.272179e-06	8.684491e-10	1.583114e+01	6.022723e+01
2.350000e-06	2.315150e-06	8.871636e-10	1.613053e+01	6.136146e+01
2.360000e-06	2.357953e-06	9.057820e-10	1.642876e+01	6.247400e+01
2.370000e-06	2.400412e-06	9.220277e-10	1.672458e+01	6.356514e+01
2.380000e-06	2.442434e-06	9.370550e-10	1.701737e+01	6.463514e+01
2.390000e-06	2.484168e-06	9.493939e-10	1.730814e+01	6.568432e+01
2.400000e-06	2.525623e-06	9.589286e-10	1.759698e+01	6.671299e+01
2.410000e-06	2.566756e-06	9.677252e-10	1.788357e+01	6.772150e+01
2.420000e-06	2.607620e-06	9.820694e-10	1.816828e+01	6.871018e+01
2.430000e-06	2.648214e-06	9.982416e-10	1.845112e+01	6.967940e+01
2.440000e-06	2.688505e-06	1.011899e-09	1.873184e+01	7.062950e+01
2.450000e-06	2.728622e-06	1.024848e-09	1.901134e+01	7.156086e+01
2.460000e-06	2.768550e-06	1.038199e-09	1.928954e+01	7.247384e+01
2.470000e-06	2.808364e-06	1.050312e-09	1.956694e+01	7.336882e+01
2.480000e-06	2.848117e-06	1.058994e-09	1.984391e+01	7.424615e+01
2.490000e-06	2.887713e-06	1.065434e-09	2.011979e+01	7.510622e+01
2.500000e-06	2.927136e-06	1.075006e-09	2.039447e+01	7.594937e+01
2.510000e-06	2.966458e-06	1.085776e-09	2.066844e+01	7.677598e+01
2.520000e-06	3.005646e-06	1.098600e-09	2.094148e+01	7.758640e+01
2.530000e-06	3.044652e-06	1.112896e-09	2.121325e+01	7.838098e+01
2.540000e-06	3.083393e-06	1.126624e-09	2.148317e+01	7.916006e+01
2.550000e-06	3.121829e-06	1.137519e-09	2.175097e+01	7.992398e+01
2.560000e-06	3.159971e-06	1.145364e-09	2.201672e+01	8.067306e+01
2.570000e-06	3.197907e-06	1.153072e-09	2.228104e+01	8.140764e+01
2.580000e-06	3.235730e-06	1.162343e-09	2.254456e+01	8.212802e+01
2.590000e-06	3.273372e-06	1.172639e-09	2.280682e+01	8.283450e+01
2.600000e-06	3.310841e-06	1.182719e-09	2.306789e+01	8.352740e+01
2.610000e-06	3.348064e-06	1.191949e-09	2.332723e+01	8.420698e+01
2.620000e-06	3.384978e-06	1.202068e-09	2.358443e+01	8.487354e+01
2.630000e-06	3.421744e-06	1.212627e-09	2.384059e+01	8.552734e+01
2.640000e-06	3.458239e-06	1.221262e-09	2.409487e+01	8.616865e+01
2.650000e-06	3.494325e-06	1.229525e-09	2.434629e+01	8.679772e+01
2.660000e-06	3.530298e-06	1.238656e-09	2.459693e+01	8.741479e+01
2.670000e-06	3.566164e-06	1.246365e-09	2.484682e+01	8.802011e+01
2.680000e-06	3.601862e-06	1.251998e-09	2.509554e+01	8.861391e+01
2.690000e-06	3.637430e-06	1.257674e-09	2.534336e+01	8.919640e+01
2.700000e-06	3.672831e-06	1.263166e-09	2.559001e+01	8.976780e+01
2.710000e-06	3.708076e-06	1.271062e-09	2.583557e+01	9.032833e+01
2.720000e-06	3.742948e-06	1.280886e-09	2.607854e+01	9.087817e+01
2.730000e-06	3.777378e-06	1.291273e-09	2.631843e+01	9.141754e+01
2.740000e-06	3.811515e-06	1.299931e-09	2.655627e+01	9.194660e+01
2.750000e-06	3.845207e-06	1.305647e-09	2.679102e+01	9.246555e+01
2.760000e-06	3.878260e-06	1.309922e-09	2.702132e+01	9.297455e+01
2.770000e-06	3.910933e-06	1.314057e-09	2.724895e+01	9.347378e+01
2.780000e-06	3.943294e-06	1.319874e-09	2.747443e+01	9.396341e+01
2.790000e-06	3.975357e-06	1.328632e-09	2.769783e+01	9.444358e+01
2.800000e-06	4.007233e-06	1.337466e-09	2.791992e+01	9.491446e+01
2.810000e-06	4.038924e-06	1.344517e-09	2.814072e+01	9.537619e+01
2.820000e-06	4.070466e-06	1.349993e-09	2.836048e+01	9.582892e+01
2.830000e-06	4.101842e-06	1.356715e-09	2.857909e+01	9.627278e+01
2.840000e-06	4.133000e-06	1.362611e-09	2.879619e+01	9.670792e+01
2.850000e-06	4.163816e-06	1.367338e-09	2.901089e+01	9.713446e+01
2.860000e-06	4.194285e-06	1.372727e-09	2.922318e+01	9.755253e+01
2.870000e-06	4.224450e-06	1.378175e-09	2.943335e+01	9.796226e+01
2.880000e-06	4.254336e-06	1.383272e-09	2.964158e+01	9.836377e+01
2.890000e-06	4.283927e-06	1.388089e-09	2.984775e+01	9.875718e+01
2.900000e-06	4.313278e-06	1.392940e-09	3.005225e+01	9.914261e+01
