# Temperatura_=_-0.3
# Concentracion g/m^3_=_1620.0
# C_Vs_to_Am_M_A/Vsm_=_65563218390.804596
# pendiente_HvsI_1/m_=_3716.3
# ordenada_HvsI_A/m_=_1297.0
# frecuencia_Hz_=_135104.3761178732

Tiempo_(s)	Campo_(V.s)	Magnetizacion_(V.s)	Campo_(kA/m)	Magnetizacion_(A/m)
0.000000e+00	-5.530492e-06	-1.479135e-09	-3.837224e+01	-9.493323e+01
1.000000e-08	-5.530644e-06	-1.473652e-09	-3.837330e+01	-9.487201e+01
2.000000e-08	-5.530487e-06	-1.469777e-09	-3.837221e+01	-9.480982e+01
3.000000e-08	-5.529849e-06	-1.469408e-09	-3.836778e+01	-9.474682e+01
4.000000e-08	-5.528747e-06	-1.469550e-09	-3.836014e+01	-9.468312e+01
5.000000e-08	-5.527057e-06	-1.472168e-09	-3.834841e+01	-9.461882e+01
6.000000e-08	-5.524708e-06	-1.482022e-09	-3.833211e+01	-9.455399e+01
7.000000e-08	-5.521846e-06	-1.491816e-09	-3.831225e+01	-9.448870e+01
8.000000e-08	-5.518576e-06	-1.493145e-09	-3.828957e+01	-9.442296e+01
9.000000e-08	-5.514884e-06	-1.458642e-09	-3.826395e+01	-9.435679e+01
1.000000e-07	-5.510801e-06	-1.411472e-09	-3.823562e+01	-9.429017e+01
1.100000e-07	-5.506451e-06	-1.434862e-09	-3.820544e+01	-9.422306e+01
1.200000e-07	-5.501889e-06	-1.554255e-09	-3.817379e+01	-9.415542e+01
1.300000e-07	-5.496957e-06	-1.535039e-09	-3.813956e+01	-9.408716e+01
1.400000e-07	-5.491620e-06	-1.449261e-09	-3.810254e+01	-9.401818e+01
1.500000e-07	-5.485949e-06	-1.414012e-09	-3.806319e+01	-9.394838e+01
1.600000e-07	-5.479884e-06	-1.522081e-09	-3.802111e+01	-9.387763e+01
1.700000e-07	-5.473283e-06	-1.528954e-09	-3.797531e+01	-9.380576e+01
1.800000e-07	-5.466252e-06	-1.412262e-09	-3.792653e+01	-9.373263e+01
1.900000e-07	-5.458976e-06	-1.384929e-09	-3.787604e+01	-9.365805e+01
2.000000e-07	-5.451472e-06	-1.480493e-09	-3.782398e+01	-9.358183e+01
2.100000e-07	-5.443650e-06	-1.547116e-09	-3.776971e+01	-9.350378e+01
2.200000e-07	-5.435513e-06	-1.480377e-09	-3.771325e+01	-9.342368e+01
2.300000e-07	-5.427123e-06	-1.435485e-09	-3.765504e+01	-9.334131e+01
2.400000e-07	-5.418251e-06	-1.444928e-09	-3.759348e+01	-9.325645e+01
2.500000e-07	-5.408642e-06	-1.469943e-09	-3.752681e+01	-9.316887e+01
2.600000e-07	-5.398469e-06	-1.420102e-09	-3.745623e+01	-9.307832e+01
2.700000e-07	-5.387887e-06	-1.402654e-09	-3.738280e+01	-9.298459e+01
2.800000e-07	-5.376756e-06	-1.415662e-09	-3.730557e+01	-9.288742e+01
2.900000e-07	-5.365155e-06	-1.448354e-09	-3.722509e+01	-9.278659e+01
3.000000e-07	-5.353178e-06	-1.410558e-09	-3.714198e+01	-9.268186e+01
3.100000e-07	-5.340696e-06	-1.394261e-09	-3.705538e+01	-9.257299e+01
3.200000e-07	-5.327709e-06	-1.404695e-09	-3.696527e+01	-9.245977e+01
3.300000e-07	-5.314411e-06	-1.426527e-09	-3.687301e+01	-9.234198e+01
3.400000e-07	-5.300828e-06	-1.374176e-09	-3.677876e+01	-9.221940e+01
3.500000e-07	-5.286770e-06	-1.345871e-09	-3.668123e+01	-9.209184e+01
3.600000e-07	-5.272123e-06	-1.382187e-09	-3.657960e+01	-9.195912e+01
3.700000e-07	-5.257163e-06	-1.410027e-09	-3.647580e+01	-9.182105e+01
3.800000e-07	-5.241762e-06	-1.360207e-09	-3.636895e+01	-9.167747e+01
3.900000e-07	-5.225691e-06	-1.363957e-09	-3.625744e+01	-9.152823e+01
4.000000e-07	-5.209258e-06	-1.406877e-09	-3.614342e+01	-9.137320e+01
4.100000e-07	-5.192569e-06	-1.361985e-09	-3.602763e+01	-9.121226e+01
4.200000e-07	-5.175464e-06	-1.325158e-09	-3.590895e+01	-9.104531e+01
4.300000e-07	-5.157984e-06	-1.390753e-09	-3.578767e+01	-9.087227e+01
4.400000e-07	-5.140099e-06	-1.392152e-09	-3.566358e+01	-9.069307e+01
4.500000e-07	-5.121775e-06	-1.296049e-09	-3.553644e+01	-9.050766e+01
4.600000e-07	-5.103152e-06	-1.338639e-09	-3.540723e+01	-9.031602e+01
4.700000e-07	-5.084230e-06	-1.409824e-09	-3.527594e+01	-9.011813e+01
4.800000e-07	-5.064997e-06	-1.342275e-09	-3.514250e+01	-8.991401e+01
4.900000e-07	-5.045500e-06	-1.307198e-09	-3.500722e+01	-8.970368e+01
5.000000e-07	-5.025812e-06	-1.393851e-09	-3.487062e+01	-8.948719e+01
5.100000e-07	-5.005845e-06	-1.355701e-09	-3.473208e+01	-8.926460e+01
5.200000e-07	-4.985484e-06	-1.292667e-09	-3.459081e+01	-8.903599e+01
5.300000e-07	-4.964761e-06	-1.356452e-09	-3.444703e+01	-8.880145e+01
5.400000e-07	-4.943762e-06	-1.368967e-09	-3.430133e+01	-8.856111e+01
5.500000e-07	-4.922425e-06	-1.267834e-09	-3.415329e+01	-8.831509e+01
5.600000e-07	-4.900717e-06	-1.308732e-09	-3.400267e+01	-8.806354e+01
5.700000e-07	-4.878679e-06	-1.373658e-09	-3.384977e+01	-8.780660e+01
5.800000e-07	-4.856239e-06	-1.305625e-09	-3.369407e+01	-8.754444e+01
5.900000e-07	-4.833435e-06	-1.280462e-09	-3.353585e+01	-8.727724e+01
6.000000e-07	-4.810348e-06	-1.354559e-09	-3.337566e+01	-8.700519e+01
6.100000e-07	-4.786959e-06	-1.319321e-09	-3.321338e+01	-8.672846e+01
6.200000e-07	-4.763304e-06	-1.270727e-09	-3.304926e+01	-8.644727e+01
6.300000e-07	-4.739389e-06	-1.316179e-09	-3.288333e+01	-8.616180e+01
6.400000e-07	-4.715223e-06	-1.319089e-09	-3.271566e+01	-8.587225e+01
6.500000e-07	-4.690648e-06	-1.266945e-09	-3.254515e+01	-8.557884e+01
6.600000e-07	-4.665613e-06	-1.288051e-09	-3.237144e+01	-8.528174e+01
6.700000e-07	-4.640098e-06	-1.303572e-09	-3.219442e+01	-8.498117e+01
6.800000e-07	-4.613968e-06	-1.263421e-09	-3.201312e+01	-8.467729e+01
6.900000e-07	-4.587367e-06	-1.268429e-09	-3.182856e+01	-8.437030e+01
7.000000e-07	-4.560432e-06	-1.294331e-09	-3.164167e+01	-8.406036e+01
7.100000e-07	-4.533131e-06	-1.270236e-09	-3.145225e+01	-8.374762e+01
7.200000e-07	-4.505568e-06	-1.257494e-09	-3.126101e+01	-8.343224e+01
7.300000e-07	-4.477853e-06	-1.276701e-09	-3.106871e+01	-8.311434e+01
7.400000e-07	-4.449923e-06	-1.258537e-09	-3.087493e+01	-8.279403e+01
7.500000e-07	-4.421752e-06	-1.236648e-09	-3.067946e+01	-8.247140e+01
7.600000e-07	-4.393285e-06	-1.245102e-09	-3.048195e+01	-8.214654e+01
7.700000e-07	-4.364496e-06	-1.244932e-09	-3.028220e+01	-8.181950e+01
7.800000e-07	-4.335414e-06	-1.228488e-09	-3.008042e+01	-8.149032e+01
7.900000e-07	-4.306053e-06	-1.236443e-09	-2.987671e+01	-8.115900e+01
8.000000e-07	-4.276407e-06	-1.230875e-09	-2.967102e+01	-8.082554e+01
8.100000e-07	-4.246433e-06	-1.209679e-09	-2.946305e+01	-8.048990e+01
8.200000e-07	-4.216154e-06	-1.202060e-09	-2.925296e+01	-8.015204e+01
8.300000e-07	-4.185578e-06	-1.203995e-09	-2.904082e+01	-7.981187e+01
8.400000e-07	-4.154650e-06	-1.183208e-09	-2.882623e+01	-7.946930e+01
8.500000e-07	-4.123452e-06	-1.177452e-09	-2.860977e+01	-7.912421e+01
8.600000e-07	-4.092022e-06	-1.184337e-09	-2.839170e+01	-7.877644e+01
8.700000e-07	-4.060446e-06	-1.174089e-09	-2.817262e+01	-7.842585e+01
8.800000e-07	-4.028785e-06	-1.157314e-09	-2.795294e+01	-7.807225e+01
8.900000e-07	-3.996912e-06	-1.160912e-09	-2.773180e+01	-7.771545e+01
9.000000e-07	-3.964728e-06	-1.151130e-09	-2.750849e+01	-7.735522e+01
9.100000e-07	-3.932173e-06	-1.133821e-09	-2.728261e+01	-7.699135e+01
9.200000e-07	-3.899208e-06	-1.132197e-09	-2.705390e+01	-7.662359e+01
9.300000e-07	-3.865844e-06	-1.130820e-09	-2.682241e+01	-7.625169e+01
9.400000e-07	-3.832038e-06	-1.111353e-09	-2.658785e+01	-7.587540e+01
9.500000e-07	-3.797696e-06	-1.104539e-09	-2.634957e+01	-7.549446e+01
9.600000e-07	-3.762917e-06	-1.106034e-09	-2.610827e+01	-7.510860e+01
9.700000e-07	-3.727786e-06	-1.091798e-09	-2.586452e+01	-7.471755e+01
9.800000e-07	-3.692391e-06	-1.080816e-09	-2.561894e+01	-7.432105e+01
9.900000e-07	-3.656883e-06	-1.085374e-09	-2.537257e+01	-7.391885e+01
1.000000e-06	-3.621244e-06	-1.081284e-09	-2.512530e+01	-7.351070e+01
1.010000e-06	-3.585440e-06	-1.068319e-09	-2.487688e+01	-7.309634e+01
1.020000e-06	-3.549471e-06	-1.066792e-09	-2.462731e+01	-7.267557e+01
1.030000e-06	-3.513289e-06	-1.059606e-09	-2.437627e+01	-7.224816e+01
1.040000e-06	-3.476936e-06	-1.041984e-09	-2.412405e+01	-7.181392e+01
1.050000e-06	-3.440394e-06	-1.032241e-09	-2.387051e+01	-7.137268e+01
1.060000e-06	-3.403576e-06	-1.030187e-09	-2.361505e+01	-7.092428e+01
1.070000e-06	-3.366462e-06	-1.016902e-09	-2.335754e+01	-7.046859e+01
1.080000e-06	-3.329041e-06	-1.008541e-09	-2.309790e+01	-7.000551e+01
1.090000e-06	-3.291419e-06	-1.007762e-09	-2.283687e+01	-6.953495e+01
1.100000e-06	-3.253595e-06	-1.001214e-09	-2.257444e+01	-6.905688e+01
1.110000e-06	-3.215484e-06	-9.894615e-10	-2.231001e+01	-6.857125e+01
1.120000e-06	-3.177158e-06	-9.862543e-10	-2.204409e+01	-6.807808e+01
1.130000e-06	-3.138572e-06	-9.768297e-10	-2.177637e+01	-6.757740e+01
1.140000e-06	-3.099733e-06	-9.620284e-10	-2.150689e+01	-6.706927e+01
1.150000e-06	-3.060742e-06	-9.526994e-10	-2.123636e+01	-6.655379e+01
1.160000e-06	-3.021601e-06	-9.485479e-10	-2.096479e+01	-6.603106e+01
1.170000e-06	-2.982320e-06	-9.386234e-10	-2.069225e+01	-6.550124e+01
1.180000e-06	-2.942915e-06	-9.323790e-10	-2.041884e+01	-6.496449e+01
1.190000e-06	-2.903363e-06	-9.291122e-10	-2.014442e+01	-6.442099e+01
1.200000e-06	-2.863624e-06	-9.215921e-10	-1.986870e+01	-6.387096e+01
1.210000e-06	-2.823691e-06	-9.114373e-10	-1.959163e+01	-6.331462e+01
1.220000e-06	-2.783537e-06	-9.048114e-10	-1.931303e+01	-6.275223e+01
1.230000e-06	-2.743244e-06	-8.944526e-10	-1.903346e+01	-6.218402e+01
1.240000e-06	-2.702769e-06	-8.806170e-10	-1.875264e+01	-6.161027e+01
1.250000e-06	-2.662054e-06	-8.717039e-10	-1.847014e+01	-6.103123e+01
1.260000e-06	-2.621127e-06	-8.644072e-10	-1.818618e+01	-6.044719e+01
1.270000e-06	-2.579949e-06	-8.561991e-10	-1.790047e+01	-5.985840e+01
1.280000e-06	-2.538432e-06	-8.497723e-10	-1.761242e+01	-5.926513e+01
1.290000e-06	-2.496517e-06	-8.437042e-10	-1.732160e+01	-5.866762e+01
1.300000e-06	-2.454385e-06	-8.344157e-10	-1.702927e+01	-5.806611e+01
1.310000e-06	-2.412043e-06	-8.237591e-10	-1.673549e+01	-5.746081e+01
1.320000e-06	-2.369390e-06	-8.135528e-10	-1.643955e+01	-5.685191e+01
1.330000e-06	-2.326494e-06	-8.010692e-10	-1.614192e+01	-5.623957e+01
1.340000e-06	-2.283440e-06	-7.870912e-10	-1.584320e+01	-5.562394e+01
1.350000e-06	-2.240195e-06	-7.777367e-10	-1.554316e+01	-5.500510e+01
1.360000e-06	-2.196718e-06	-7.706608e-10	-1.524150e+01	-5.438312e+01
1.370000e-06	-2.153202e-06	-7.630364e-10	-1.493957e+01	-5.375800e+01
1.380000e-06	-2.109649e-06	-7.521683e-10	-1.463739e+01	-5.312974e+01
1.390000e-06	-2.065928e-06	-7.407552e-10	-1.433404e+01	-5.249824e+01
1.400000e-06	-2.022088e-06	-7.301240e-10	-1.402987e+01	-5.186340e+01
1.410000e-06	-1.978210e-06	-7.206526e-10	-1.372543e+01	-5.122502e+01
1.420000e-06	-1.934274e-06	-7.105780e-10	-1.342058e+01	-5.058288e+01
1.430000e-06	-1.890219e-06	-7.009816e-10	-1.311492e+01	-4.993670e+01
1.440000e-06	-1.846017e-06	-6.898269e-10	-1.280823e+01	-4.928614e+01
1.450000e-06	-1.801722e-06	-6.781700e-10	-1.250090e+01	-4.863080e+01
1.460000e-06	-1.757337e-06	-6.663075e-10	-1.219294e+01	-4.797025e+01
1.470000e-06	-1.712779e-06	-6.553058e-10	-1.188379e+01	-4.730397e+01
1.480000e-06	-1.668042e-06	-6.449525e-10	-1.157338e+01	-4.663142e+01
1.490000e-06	-1.623206e-06	-6.357729e-10	-1.126230e+01	-4.595199e+01
1.500000e-06	-1.578241e-06	-6.269582e-10	-1.095032e+01	-4.526504e+01
1.510000e-06	-1.533105e-06	-6.180285e-10	-1.063715e+01	-4.456988e+01
1.520000e-06	-1.487922e-06	-6.074400e-10	-1.032366e+01	-4.386576e+01
1.530000e-06	-1.442588e-06	-5.966748e-10	-1.000912e+01	-4.315192e+01
1.540000e-06	-1.397086e-06	-5.831693e-10	-9.693407e+00	-4.242757e+01
1.550000e-06	-1.351525e-06	-5.675426e-10	-9.377295e+00	-4.169187e+01
1.560000e-06	-1.305878e-06	-5.518662e-10	-9.060583e+00	-4.094397e+01
1.570000e-06	-1.260143e-06	-5.387928e-10	-8.743255e+00	-4.018301e+01
1.580000e-06	-1.214329e-06	-5.261935e-10	-8.425385e+00	-3.940811e+01
1.590000e-06	-1.168415e-06	-5.135073e-10	-8.106818e+00	-3.861841e+01
1.600000e-06	-1.122367e-06	-5.024114e-10	-7.787324e+00	-3.781301e+01
1.610000e-06	-1.076293e-06	-4.883322e-10	-7.467652e+00	-3.699108e+01
1.620000e-06	-1.030216e-06	-4.708472e-10	-7.147953e+00	-3.615174e+01
1.630000e-06	-9.840169e-07	-4.517991e-10	-6.827410e+00	-3.529419e+01
1.640000e-06	-9.377060e-07	-4.340072e-10	-6.506091e+00	-3.441764e+01
1.650000e-06	-8.913773e-07	-4.178827e-10	-6.184648e+00	-3.352133e+01
1.660000e-06	-8.449891e-07	-4.017790e-10	-5.862792e+00	-3.260456e+01
1.670000e-06	-7.984998e-07	-3.850819e-10	-5.540236e+00	-3.166666e+01
1.680000e-06	-7.519857e-07	-3.713604e-10	-5.217506e+00	-3.070704e+01
1.690000e-06	-7.054337e-07	-3.582350e-10	-4.894514e+00	-2.972517e+01
1.700000e-06	-6.588307e-07	-3.442819e-10	-4.571168e+00	-2.872059e+01
1.710000e-06	-6.122091e-07	-3.293375e-10	-4.247694e+00	-2.769290e+01
1.720000e-06	-5.655704e-07	-3.130739e-10	-3.924100e+00	-2.664180e+01
1.730000e-06	-5.189089e-07	-2.952055e-10	-3.600348e+00	-2.556706e+01
1.740000e-06	-4.722227e-07	-2.763420e-10	-3.276425e+00	-2.446856e+01
1.750000e-06	-4.253904e-07	-2.560843e-10	-2.951489e+00	-2.334624e+01
1.760000e-06	-3.784083e-07	-2.384389e-10	-2.625512e+00	-2.220016e+01
1.770000e-06	-3.314454e-07	-2.227924e-10	-2.299670e+00	-2.103048e+01
1.780000e-06	-2.844711e-07	-2.095856e-10	-1.973747e+00	-1.983743e+01
1.790000e-06	-2.374571e-07	-1.969764e-10	-1.647550e+00	-1.862138e+01
1.800000e-06	-1.904171e-07	-1.816981e-10	-1.321172e+00	-1.738277e+01
1.810000e-06	-1.433825e-07	-1.638158e-10	-9.948313e-01	-1.612214e+01
1.820000e-06	-9.636110e-08	-1.437672e-10	-6.685827e-01	-1.484014e+01
1.830000e-06	-4.934092e-08	-1.230209e-10	-3.423424e-01	-1.353751e+01
1.840000e-06	-2.331842e-09	-1.027748e-10	-1.617903e-02	-1.221510e+01
1.850000e-06	4.465264e-08	-8.526440e-11	3.098137e-01	-1.087382e+01
1.860000e-06	9.159663e-08	-6.810581e-11	6.355254e-01	-9.514683e+00
1.870000e-06	1.385507e-07	-5.042475e-11	9.613070e-01	-8.138789e+00
1.880000e-06	1.854630e-07	-3.265706e-11	1.286799e+00	-6.747305e+00
1.890000e-06	2.324125e-07	-1.470134e-11	1.612549e+00	-5.341471e+00
1.900000e-06	2.793442e-07	2.060088e-12	1.938175e+00	-3.922595e+00
1.910000e-06	3.261777e-07	1.879581e-11	2.263121e+00	-2.492040e+00
1.920000e-06	3.729108e-07	3.881606e-11	2.587369e+00	-1.051222e+00
1.930000e-06	4.196194e-07	6.030518e-11	2.911447e+00	3.984019e-01
1.940000e-06	4.664332e-07	8.163890e-11	3.236256e+00	1.855335e+00
1.950000e-06	5.132262e-07	1.029029e-10	3.560920e+00	3.318055e+00
1.960000e-06	5.599552e-07	1.238434e-10	3.885140e+00	4.785018e+00
1.970000e-06	6.066746e-07	1.437543e-10	4.209294e+00	6.254669e+00
1.980000e-06	6.532775e-07	1.604422e-10	4.532639e+00	7.725448e+00
1.990000e-06	6.997460e-07	1.750918e-10	4.855052e+00	9.195802e+00
2.000000e-06	7.461689e-07	1.925344e-10	5.177148e+00	1.066419e+01
2.010000e-06	7.925750e-07	2.130996e-10	5.499128e+00	1.212908e+01
2.020000e-06	8.389319e-07	2.353652e-10	5.820766e+00	1.358900e+01
2.030000e-06	8.851629e-07	2.605719e-10	6.141530e+00	1.504247e+01
2.040000e-06	9.313490e-07	2.845230e-10	6.461984e+00	1.648808e+01
2.050000e-06	9.774915e-07	3.043192e-10	6.782134e+00	1.792448e+01
2.060000e-06	1.023544e-06	3.229070e-10	7.101664e+00	1.935034e+01
2.070000e-06	1.069524e-06	3.411686e-10	7.420686e+00	2.076442e+01
2.080000e-06	1.115433e-06	3.595182e-10	7.739213e+00	2.216555e+01
2.090000e-06	1.161310e-06	3.796609e-10	8.057520e+00	2.355260e+01
2.100000e-06	1.207108e-06	4.002448e-10	8.375285e+00	2.492455e+01
2.110000e-06	1.252726e-06	4.203915e-10	8.691799e+00	2.628045e+01
2.120000e-06	1.298221e-06	4.397676e-10	9.007451e+00	2.761942e+01
2.130000e-06	1.343699e-06	4.573776e-10	9.322992e+00	2.894068e+01
2.140000e-06	1.389121e-06	4.757967e-10	9.638145e+00	3.024353e+01
2.150000e-06	1.434439e-06	4.963746e-10	9.952573e+00	3.152735e+01
2.160000e-06	1.479709e-06	5.173793e-10	1.026667e+01	3.279162e+01
2.170000e-06	1.524911e-06	5.358072e-10	1.058030e+01	3.403590e+01
2.180000e-06	1.569945e-06	5.532122e-10	1.089276e+01	3.525984e+01
2.190000e-06	1.614894e-06	5.696887e-10	1.120463e+01	3.646318e+01
2.200000e-06	1.659711e-06	5.853468e-10	1.151558e+01	3.764572e+01
2.210000e-06	1.704410e-06	6.001579e-10	1.182572e+01	3.880737e+01
2.220000e-06	1.749014e-06	6.139628e-10	1.213520e+01	3.994810e+01
2.230000e-06	1.793426e-06	6.296502e-10	1.244334e+01	4.106795e+01
2.240000e-06	1.837721e-06	6.473143e-10	1.275067e+01	4.216703e+01
2.250000e-06	1.881915e-06	6.658112e-10	1.305730e+01	4.324552e+01
2.260000e-06	1.925930e-06	6.838601e-10	1.336269e+01	4.430366e+01
2.270000e-06	1.969755e-06	7.001113e-10	1.366677e+01	4.534174e+01
2.280000e-06	2.013490e-06	7.145292e-10	1.397021e+01	4.636009e+01
2.290000e-06	2.057206e-06	7.241246e-10	1.427352e+01	4.735910e+01
2.300000e-06	2.100918e-06	7.315073e-10	1.457681e+01	4.833919e+01
2.310000e-06	2.144538e-06	7.417893e-10	1.487946e+01	4.930080e+01
2.320000e-06	2.188017e-06	7.565093e-10	1.518113e+01	5.024440e+01
2.330000e-06	2.231393e-06	7.728177e-10	1.548209e+01	5.117050e+01
2.340000e-06	2.274647e-06	7.890279e-10	1.578220e+01	5.207959e+01
2.350000e-06	2.317751e-06	8.045098e-10	1.608126e+01	5.297220e+01
2.360000e-06	2.360691e-06	8.160702e-10	1.637920e+01	5.384883e+01
2.370000e-06	2.403408e-06	8.256524e-10	1.667558e+01	5.471001e+01
2.380000e-06	2.445833e-06	8.354401e-10	1.696994e+01	5.555625e+01
2.390000e-06	2.487924e-06	8.464416e-10	1.726197e+01	5.638802e+01
2.400000e-06	2.529728e-06	8.583682e-10	1.755203e+01	5.720583e+01
2.410000e-06	2.571275e-06	8.710481e-10	1.784029e+01	5.801012e+01
2.420000e-06	2.612508e-06	8.846172e-10	1.812638e+01	5.880133e+01
2.430000e-06	2.653522e-06	8.977803e-10	1.841095e+01	5.957987e+01
2.440000e-06	2.694290e-06	9.092220e-10	1.869381e+01	6.034613e+01
2.450000e-06	2.734686e-06	9.185301e-10	1.897409e+01	6.110043e+01
2.460000e-06	2.774862e-06	9.274544e-10	1.925284e+01	6.184312e+01
2.470000e-06	2.814864e-06	9.373240e-10	1.953039e+01	6.257446e+01
2.480000e-06	2.854662e-06	9.458360e-10	1.980652e+01	6.329470e+01
2.490000e-06	2.894342e-06	9.540948e-10	2.008183e+01	6.400407e+01
2.500000e-06	2.933885e-06	9.630069e-10	2.035619e+01	6.470273e+01
2.510000e-06	2.973295e-06	9.734873e-10	2.062963e+01	6.539084e+01
2.520000e-06	3.012553e-06	9.838378e-10	2.090201e+01	6.606851e+01
2.530000e-06	3.051650e-06	9.931486e-10	2.117328e+01	6.673581e+01
2.540000e-06	3.090631e-06	1.002598e-09	2.144374e+01	6.739282e+01
2.550000e-06	3.129361e-06	1.010915e-09	2.171246e+01	6.803954e+01
2.560000e-06	3.167764e-06	1.019097e-09	2.197891e+01	6.867599e+01
2.570000e-06	3.205950e-06	1.029682e-09	2.224386e+01	6.930215e+01
2.580000e-06	3.243945e-06	1.040609e-09	2.250748e+01	6.991798e+01
2.590000e-06	3.281694e-06	1.048178e-09	2.276939e+01	7.052343e+01
2.600000e-06	3.319238e-06	1.052952e-09	2.302989e+01	7.111844e+01
2.610000e-06	3.356622e-06	1.056873e-09	2.328927e+01	7.170293e+01
2.620000e-06	3.393770e-06	1.060589e-09	2.354701e+01	7.227684e+01
2.630000e-06	3.430618e-06	1.066349e-09	2.380267e+01	7.284007e+01
2.640000e-06	3.467191e-06	1.074229e-09	2.405643e+01	7.339256e+01
2.650000e-06	3.503530e-06	1.083274e-09	2.430856e+01	7.393423e+01
2.660000e-06	3.539667e-06	1.093186e-09	2.455929e+01	7.446502e+01
2.670000e-06	3.575602e-06	1.101809e-09	2.480862e+01	7.498489e+01
2.680000e-06	3.611389e-06	1.107822e-09	2.505692e+01	7.549379e+01
2.690000e-06	3.647051e-06	1.110734e-09	2.530435e+01	7.599171e+01
2.700000e-06	3.682556e-06	1.112406e-09	2.555070e+01	7.647865e+01
2.710000e-06	3.717873e-06	1.115454e-09	2.579574e+01	7.695464e+01
2.720000e-06	3.752950e-06	1.121462e-09	2.603911e+01	7.741971e+01
2.730000e-06	3.787704e-06	1.129275e-09	2.628025e+01	7.787395e+01
2.740000e-06	3.822131e-06	1.136784e-09	2.651912e+01	7.831744e+01
2.750000e-06	3.856122e-06	1.143232e-09	2.675495e+01	7.875033e+01
2.760000e-06	3.889580e-06	1.150682e-09	2.698710e+01	7.917275e+01
2.770000e-06	3.922627e-06	1.158456e-09	2.721639e+01	7.958490e+01
2.780000e-06	3.955299e-06	1.165062e-09	2.744307e+01	7.998698e+01
2.790000e-06	3.987584e-06	1.170605e-09	2.766707e+01	8.037923e+01
2.800000e-06	4.019544e-06	1.174667e-09	2.788882e+01	8.076191e+01
2.810000e-06	4.051334e-06	1.176874e-09	2.810940e+01	8.113532e+01
2.820000e-06	4.082970e-06	1.180250e-09	2.832889e+01	8.149976e+01
2.830000e-06	4.114394e-06	1.186018e-09	2.854692e+01	8.185556e+01
2.840000e-06	4.145591e-06	1.190893e-09	2.876338e+01	8.220308e+01
2.850000e-06	4.176505e-06	1.195632e-09	2.897787e+01	8.254270e+01
2.860000e-06	4.207098e-06	1.201815e-09	2.919013e+01	8.287478e+01
2.870000e-06	4.237385e-06	1.209018e-09	2.940027e+01	8.319974e+01
2.880000e-06	4.267388e-06	1.215312e-09	2.960844e+01	8.351797e+01
2.890000e-06	4.297108e-06	1.220736e-09	2.981465e+01	8.382989e+01
2.900000e-06	4.326548e-06	1.224202e-09	3.001891e+01	8.413591e+01
2.910000e-06	4.355733e-06	1.226198e-09	3.022141e+01	8.443645e+01
