# Temperatura_=_-0.4
# Concentracion g/m^3_=_1620.0
# C_Vs_to_Am_M_A/Vsm_=_65563218390.804596
# pendiente_HvsI_1/m_=_3716.3
# ordenada_HvsI_A/m_=_1297.0
# frecuencia_Hz_=_135093.6734212076

Tiempo_(s)	Campo_(V.s)	Magnetizacion_(V.s)	Campo_(kA/m)	Magnetizacion_(A/m)
0.000000e+00	-5.535564e-06	-1.549562e-09	-3.836924e+01	-9.922461e+01
1.000000e-08	-5.535630e-06	-1.544106e-09	-3.836970e+01	-9.918497e+01
2.000000e-08	-5.535431e-06	-1.539231e-09	-3.836832e+01	-9.914244e+01
3.000000e-08	-5.534756e-06	-1.538992e-09	-3.836364e+01	-9.909720e+01
4.000000e-08	-5.533506e-06	-1.540427e-09	-3.835497e+01	-9.904940e+01
5.000000e-08	-5.531719e-06	-1.539119e-09	-3.834259e+01	-9.899922e+01
6.000000e-08	-5.529342e-06	-1.539333e-09	-3.832611e+01	-9.894682e+01
7.000000e-08	-5.526452e-06	-1.565880e-09	-3.830608e+01	-9.889239e+01
8.000000e-08	-5.523039e-06	-1.588012e-09	-3.828243e+01	-9.883610e+01
9.000000e-08	-5.519122e-06	-1.552951e-09	-3.825528e+01	-9.877813e+01
1.000000e-07	-5.514906e-06	-1.501699e-09	-3.822605e+01	-9.871863e+01
1.100000e-07	-5.510507e-06	-1.505881e-09	-3.819556e+01	-9.865779e+01
1.200000e-07	-5.505863e-06	-1.559538e-09	-3.816337e+01	-9.859575e+01
1.300000e-07	-5.500764e-06	-1.572010e-09	-3.812803e+01	-9.853267e+01
1.400000e-07	-5.495145e-06	-1.498219e-09	-3.808908e+01	-9.846868e+01
1.500000e-07	-5.489239e-06	-1.534615e-09	-3.804815e+01	-9.840390e+01
1.600000e-07	-5.483061e-06	-1.570347e-09	-3.800532e+01	-9.833846e+01
1.700000e-07	-5.476402e-06	-1.582612e-09	-3.795917e+01	-9.827244e+01
1.800000e-07	-5.469361e-06	-1.488665e-09	-3.791036e+01	-9.820592e+01
1.900000e-07	-5.462100e-06	-1.482309e-09	-3.786004e+01	-9.813897e+01
2.000000e-07	-5.454572e-06	-1.521841e-09	-3.780785e+01	-9.807163e+01
2.100000e-07	-5.446674e-06	-1.536566e-09	-3.775311e+01	-9.800392e+01
2.200000e-07	-5.438522e-06	-1.493760e-09	-3.769661e+01	-9.793586e+01
2.300000e-07	-5.429957e-06	-1.463654e-09	-3.763724e+01	-9.786740e+01
2.400000e-07	-5.420721e-06	-1.476451e-09	-3.757322e+01	-9.779853e+01
2.500000e-07	-5.410849e-06	-1.477596e-09	-3.750479e+01	-9.772918e+01
2.600000e-07	-5.400349e-06	-1.475956e-09	-3.743201e+01	-9.765927e+01
2.700000e-07	-5.389395e-06	-1.462371e-09	-3.735609e+01	-9.758870e+01
2.800000e-07	-5.377996e-06	-1.480102e-09	-3.727707e+01	-9.751734e+01
2.900000e-07	-5.366149e-06	-1.469763e-09	-3.719496e+01	-9.744506e+01
3.000000e-07	-5.354002e-06	-1.488594e-09	-3.711076e+01	-9.737168e+01
3.100000e-07	-5.341468e-06	-1.469432e-09	-3.702388e+01	-9.729704e+01
3.200000e-07	-5.328549e-06	-1.485198e-09	-3.693434e+01	-9.722093e+01
3.300000e-07	-5.315347e-06	-1.465274e-09	-3.684283e+01	-9.714315e+01
3.400000e-07	-5.301729e-06	-1.465430e-09	-3.674843e+01	-9.706347e+01
3.500000e-07	-5.287476e-06	-1.452257e-09	-3.664964e+01	-9.698164e+01
3.600000e-07	-5.272645e-06	-1.474419e-09	-3.654685e+01	-9.689743e+01
3.700000e-07	-5.257425e-06	-1.459838e-09	-3.644135e+01	-9.681058e+01
3.800000e-07	-5.241734e-06	-1.462379e-09	-3.633259e+01	-9.672081e+01
3.900000e-07	-5.225513e-06	-1.467373e-09	-3.622015e+01	-9.662786e+01
4.000000e-07	-5.208886e-06	-1.466919e-09	-3.610491e+01	-9.653146e+01
4.100000e-07	-5.191916e-06	-1.439493e-09	-3.598728e+01	-9.643134e+01
4.200000e-07	-5.174696e-06	-1.454167e-09	-3.586792e+01	-9.632722e+01
4.300000e-07	-5.157191e-06	-1.466036e-09	-3.574659e+01	-9.621883e+01
4.400000e-07	-5.139252e-06	-1.444083e-09	-3.562224e+01	-9.610591e+01
4.500000e-07	-5.120843e-06	-1.430944e-09	-3.549464e+01	-9.598820e+01
4.600000e-07	-5.102058e-06	-1.449355e-09	-3.536443e+01	-9.586546e+01
4.700000e-07	-5.083035e-06	-1.437881e-09	-3.523258e+01	-9.573744e+01
4.800000e-07	-5.063724e-06	-1.418068e-09	-3.509873e+01	-9.560394e+01
4.900000e-07	-5.044163e-06	-1.434660e-09	-3.496314e+01	-9.546472e+01
5.000000e-07	-5.024394e-06	-1.428126e-09	-3.482612e+01	-9.531961e+01
5.100000e-07	-5.004345e-06	-1.407254e-09	-3.468715e+01	-9.516843e+01
5.200000e-07	-4.983949e-06	-1.417861e-09	-3.454577e+01	-9.501101e+01
5.300000e-07	-4.963109e-06	-1.430867e-09	-3.440133e+01	-9.484722e+01
5.400000e-07	-4.941933e-06	-1.397051e-09	-3.425454e+01	-9.467694e+01
5.500000e-07	-4.920446e-06	-1.393620e-09	-3.410561e+01	-9.450008e+01
5.600000e-07	-4.898558e-06	-1.409555e-09	-3.395390e+01	-9.431654e+01
5.700000e-07	-4.876291e-06	-1.405375e-09	-3.379955e+01	-9.412629e+01
5.800000e-07	-4.853648e-06	-1.390153e-09	-3.364261e+01	-9.392928e+01
5.900000e-07	-4.830611e-06	-1.406495e-09	-3.348293e+01	-9.372549e+01
6.000000e-07	-4.807331e-06	-1.400302e-09	-3.332157e+01	-9.351495e+01
6.100000e-07	-4.783909e-06	-1.389684e-09	-3.315922e+01	-9.329768e+01
6.200000e-07	-4.760311e-06	-1.384565e-09	-3.299565e+01	-9.307371e+01
6.300000e-07	-4.736538e-06	-1.385388e-09	-3.283087e+01	-9.284313e+01
6.400000e-07	-4.712386e-06	-1.368967e-09	-3.266346e+01	-9.260601e+01
6.500000e-07	-4.687756e-06	-1.372845e-09	-3.249274e+01	-9.236245e+01
6.600000e-07	-4.662529e-06	-1.370925e-09	-3.231788e+01	-9.211258e+01
6.700000e-07	-4.636742e-06	-1.364656e-09	-3.213914e+01	-9.185651e+01
6.800000e-07	-4.610520e-06	-1.356189e-09	-3.195739e+01	-9.159439e+01
6.900000e-07	-4.583698e-06	-1.357030e-09	-3.177147e+01	-9.132637e+01
7.000000e-07	-4.556442e-06	-1.346291e-09	-3.158255e+01	-9.105260e+01
7.100000e-07	-4.529011e-06	-1.339273e-09	-3.139241e+01	-9.077326e+01
7.200000e-07	-4.501454e-06	-1.335046e-09	-3.120141e+01	-9.048852e+01
7.300000e-07	-4.473722e-06	-1.332149e-09	-3.100919e+01	-9.019854e+01
7.400000e-07	-4.445742e-06	-1.323979e-09	-3.081525e+01	-8.990351e+01
7.500000e-07	-4.417514e-06	-1.319355e-09	-3.061958e+01	-8.960358e+01
7.600000e-07	-4.389005e-06	-1.313388e-09	-3.042198e+01	-8.929895e+01
7.700000e-07	-4.360093e-06	-1.304006e-09	-3.022158e+01	-8.898976e+01
7.800000e-07	-4.330819e-06	-1.299811e-09	-3.001866e+01	-8.867619e+01
7.900000e-07	-4.301370e-06	-1.296053e-09	-2.981454e+01	-8.835837e+01
8.000000e-07	-4.271671e-06	-1.288240e-09	-2.960869e+01	-8.803646e+01
8.100000e-07	-4.241523e-06	-1.276591e-09	-2.939972e+01	-8.771058e+01
8.200000e-07	-4.211007e-06	-1.271770e-09	-2.918820e+01	-8.738086e+01
8.300000e-07	-4.180236e-06	-1.262516e-09	-2.897492e+01	-8.704739e+01
8.400000e-07	-4.149214e-06	-1.255211e-09	-2.875989e+01	-8.671027e+01
8.500000e-07	-4.117973e-06	-1.252223e-09	-2.854334e+01	-8.636958e+01
8.600000e-07	-4.086532e-06	-1.254327e-09	-2.832541e+01	-8.602537e+01
8.700000e-07	-4.054931e-06	-1.246282e-09	-2.810637e+01	-8.567769e+01
8.800000e-07	-4.023206e-06	-1.245595e-09	-2.788648e+01	-8.532657e+01
8.900000e-07	-3.991279e-06	-1.240374e-09	-2.766518e+01	-8.497201e+01
9.000000e-07	-3.959045e-06	-1.229777e-09	-2.744175e+01	-8.461402e+01
9.100000e-07	-3.926459e-06	-1.217611e-09	-2.721588e+01	-8.425256e+01
9.200000e-07	-3.893364e-06	-1.214973e-09	-2.698649e+01	-8.388761e+01
9.300000e-07	-3.859727e-06	-1.208549e-09	-2.675334e+01	-8.351910e+01
9.400000e-07	-3.825724e-06	-1.204347e-09	-2.651765e+01	-8.314697e+01
9.500000e-07	-3.791332e-06	-1.203472e-09	-2.627926e+01	-8.277114e+01
9.600000e-07	-3.756510e-06	-1.200739e-09	-2.603790e+01	-8.239150e+01
9.700000e-07	-3.721388e-06	-1.187689e-09	-2.579445e+01	-8.200796e+01
9.800000e-07	-3.686092e-06	-1.180691e-09	-2.554980e+01	-8.162039e+01
9.900000e-07	-3.650655e-06	-1.174822e-09	-2.530417e+01	-8.122867e+01
1.000000e-06	-3.615056e-06	-1.169079e-09	-2.505742e+01	-8.083266e+01
1.010000e-06	-3.579275e-06	-1.165819e-09	-2.480941e+01	-8.043223e+01
1.020000e-06	-3.543316e-06	-1.166050e-09	-2.456016e+01	-8.002721e+01
1.030000e-06	-3.507165e-06	-1.159021e-09	-2.430958e+01	-7.961746e+01
1.040000e-06	-3.470756e-06	-1.150493e-09	-2.405722e+01	-7.920283e+01
1.050000e-06	-3.434076e-06	-1.145484e-09	-2.380297e+01	-7.878316e+01
1.060000e-06	-3.397124e-06	-1.136516e-09	-2.354684e+01	-7.835830e+01
1.070000e-06	-3.359791e-06	-1.126238e-09	-2.328808e+01	-7.792810e+01
1.080000e-06	-3.322181e-06	-1.119050e-09	-2.302738e+01	-7.749239e+01
1.090000e-06	-3.284466e-06	-1.114448e-09	-2.276597e+01	-7.705105e+01
1.100000e-06	-3.246517e-06	-1.106367e-09	-2.250293e+01	-7.660392e+01
1.110000e-06	-3.208319e-06	-1.100639e-09	-2.223816e+01	-7.615087e+01
1.120000e-06	-3.169929e-06	-1.093048e-09	-2.197206e+01	-7.569177e+01
1.130000e-06	-3.131134e-06	-1.083722e-09	-2.170316e+01	-7.522650e+01
1.140000e-06	-3.092086e-06	-1.073957e-09	-2.143250e+01	-7.475494e+01
1.150000e-06	-3.053008e-06	-1.066836e-09	-2.116164e+01	-7.427700e+01
1.160000e-06	-3.013778e-06	-1.059178e-09	-2.088972e+01	-7.379257e+01
1.170000e-06	-2.974387e-06	-1.052948e-09	-2.061668e+01	-7.330156e+01
1.180000e-06	-2.934889e-06	-1.045017e-09	-2.034291e+01	-7.280389e+01
1.190000e-06	-2.895293e-06	-1.037652e-09	-2.006845e+01	-7.229948e+01
1.200000e-06	-2.855610e-06	-1.028032e-09	-1.979339e+01	-7.178828e+01
1.210000e-06	-2.815753e-06	-1.021666e-09	-1.951713e+01	-7.127021e+01
1.220000e-06	-2.775676e-06	-1.015252e-09	-1.923934e+01	-7.074521e+01
1.230000e-06	-2.735393e-06	-1.005984e-09	-1.896012e+01	-7.021325e+01
1.240000e-06	-2.694860e-06	-9.956357e-10	-1.867917e+01	-6.967426e+01
1.250000e-06	-2.654082e-06	-9.887426e-10	-1.839652e+01	-6.912821e+01
1.260000e-06	-2.612980e-06	-9.797602e-10	-1.811163e+01	-6.857503e+01
1.270000e-06	-2.571574e-06	-9.699434e-10	-1.782462e+01	-6.801469e+01
1.280000e-06	-2.529872e-06	-9.620999e-10	-1.753557e+01	-6.744714e+01
1.290000e-06	-2.487792e-06	-9.550403e-10	-1.724390e+01	-6.687231e+01
1.300000e-06	-2.445499e-06	-9.442156e-10	-1.695075e+01	-6.629014e+01
1.310000e-06	-2.402960e-06	-9.327619e-10	-1.665589e+01	-6.570056e+01
1.320000e-06	-2.360052e-06	-9.221460e-10	-1.635848e+01	-6.510350e+01
1.330000e-06	-2.316935e-06	-9.097237e-10	-1.605962e+01	-6.449885e+01
1.340000e-06	-2.273694e-06	-8.959510e-10	-1.575989e+01	-6.388652e+01
1.350000e-06	-2.230306e-06	-8.852905e-10	-1.545915e+01	-6.326638e+01
1.360000e-06	-2.186781e-06	-8.765691e-10	-1.515746e+01	-6.263828e+01
1.370000e-06	-2.143146e-06	-8.673862e-10	-1.485502e+01	-6.200209e+01
1.380000e-06	-2.099408e-06	-8.582826e-10	-1.455185e+01	-6.135761e+01
1.390000e-06	-2.055626e-06	-8.468922e-10	-1.424838e+01	-6.070466e+01
1.400000e-06	-2.011782e-06	-8.337315e-10	-1.394448e+01	-6.004301e+01
1.410000e-06	-1.967886e-06	-8.203751e-10	-1.364022e+01	-5.937242e+01
1.420000e-06	-1.923888e-06	-8.091857e-10	-1.333525e+01	-5.869263e+01
1.430000e-06	-1.879750e-06	-7.970181e-10	-1.302931e+01	-5.800335e+01
1.440000e-06	-1.835533e-06	-7.847540e-10	-1.272282e+01	-5.730426e+01
1.450000e-06	-1.791206e-06	-7.724304e-10	-1.241558e+01	-5.659503e+01
1.460000e-06	-1.746795e-06	-7.610455e-10	-1.210774e+01	-5.587530e+01
1.470000e-06	-1.702141e-06	-7.502141e-10	-1.179823e+01	-5.514468e+01
1.480000e-06	-1.657333e-06	-7.417991e-10	-1.148765e+01	-5.440276e+01
1.490000e-06	-1.612491e-06	-7.328089e-10	-1.117683e+01	-5.364912e+01
1.500000e-06	-1.567439e-06	-7.214292e-10	-1.086456e+01	-5.288330e+01
1.510000e-06	-1.522259e-06	-7.070849e-10	-1.055140e+01	-5.210484e+01
1.520000e-06	-1.476973e-06	-6.938201e-10	-1.023750e+01	-5.131324e+01
1.530000e-06	-1.431581e-06	-6.823837e-10	-9.922870e+00	-5.050802e+01
1.540000e-06	-1.386143e-06	-6.734188e-10	-9.607923e+00	-4.968864e+01
1.550000e-06	-1.340607e-06	-6.645944e-10	-9.292295e+00	-4.885460e+01
1.560000e-06	-1.294959e-06	-6.534363e-10	-8.975885e+00	-4.800535e+01
1.570000e-06	-1.249204e-06	-6.396151e-10	-8.658742e+00	-4.714036e+01
1.580000e-06	-1.203390e-06	-6.254086e-10	-8.341182e+00	-4.625910e+01
1.590000e-06	-1.157456e-06	-6.102448e-10	-8.022800e+00	-4.536101e+01
1.600000e-06	-1.111393e-06	-5.950608e-10	-7.703517e+00	-4.444558e+01
1.610000e-06	-1.065332e-06	-5.797391e-10	-7.384246e+00	-4.351228e+01
1.620000e-06	-1.019088e-06	-5.648874e-10	-7.063710e+00	-4.256059e+01
1.630000e-06	-9.727401e-07	-5.519008e-10	-6.742457e+00	-4.159003e+01
1.640000e-06	-9.264701e-07	-5.395335e-10	-6.421741e+00	-4.060011e+01
1.650000e-06	-8.801078e-07	-5.268691e-10	-6.100384e+00	-3.959038e+01
1.660000e-06	-8.336309e-07	-5.120396e-10	-5.778234e+00	-3.856042e+01
1.670000e-06	-7.870714e-07	-4.968892e-10	-5.455512e+00	-3.750984e+01
1.680000e-06	-7.404068e-07	-4.816819e-10	-5.132060e+00	-3.643827e+01
1.690000e-06	-6.937545e-07	-4.651768e-10	-4.808694e+00	-3.534540e+01
1.700000e-06	-6.471604e-07	-4.474266e-10	-4.485731e+00	-3.423094e+01
1.710000e-06	-6.004917e-07	-4.294067e-10	-4.162252e+00	-3.309467e+01
1.720000e-06	-5.537175e-07	-4.125487e-10	-3.838041e+00	-3.193639e+01
1.730000e-06	-5.069233e-07	-3.969429e-10	-3.513691e+00	-3.075597e+01
1.740000e-06	-4.601250e-07	-3.801795e-10	-3.189313e+00	-2.955333e+01
1.750000e-06	-4.131993e-07	-3.609233e-10	-2.864052e+00	-2.832846e+01
1.760000e-06	-3.662497e-07	-3.416472e-10	-2.538625e+00	-2.708137e+01
1.770000e-06	-3.193888e-07	-3.236534e-10	-2.213813e+00	-2.581218e+01
1.780000e-06	-2.724230e-07	-3.047789e-10	-1.888274e+00	-2.452104e+01
1.790000e-06	-2.253452e-07	-2.882220e-10	-1.561959e+00	-2.320818e+01
1.800000e-06	-1.782486e-07	-2.700409e-10	-1.235514e+00	-2.187388e+01
1.810000e-06	-1.312090e-07	-2.482026e-10	-9.094627e-01	-2.051850e+01
1.820000e-06	-8.429593e-08	-2.266383e-10	-5.842893e-01	-1.914246e+01
1.830000e-06	-3.732243e-08	-2.073555e-10	-2.586969e-01	-1.774624e+01
1.840000e-06	9.765468e-09	-1.887547e-10	6.768842e-02	-1.633042e+01
1.850000e-06	5.680775e-08	-1.708260e-10	3.937576e-01	-1.489559e+01
1.860000e-06	1.037853e-07	-1.501263e-10	7.193784e-01	-1.344246e+01
1.870000e-06	1.508180e-07	-1.270119e-10	1.045381e+00	-1.197176e+01
1.880000e-06	1.978010e-07	-1.054684e-10	1.371039e+00	-1.048430e+01
1.890000e-06	2.447304e-07	-8.512637e-11	1.696326e+00	-8.980966e+00
1.900000e-06	2.916317e-07	-6.541929e-11	2.021418e+00	-7.462673e+00
1.910000e-06	3.385174e-07	-4.603437e-11	2.346402e+00	-5.930404e+00
1.920000e-06	3.854558e-07	-2.514900e-11	2.671751e+00	-4.385193e+00
1.930000e-06	4.322953e-07	-1.817346e-12	2.996414e+00	-2.828123e+00
1.940000e-06	4.790348e-07	2.360256e-11	3.320385e+00	-1.260320e+00
1.950000e-06	5.257135e-07	4.942116e-11	3.643934e+00	3.170465e-01
1.960000e-06	5.724144e-07	7.362617e-11	3.967637e+00	1.902772e+00
1.970000e-06	6.191213e-07	9.795739e-11	4.291381e+00	3.495617e+00
1.980000e-06	6.657229e-07	1.207591e-10	4.614396e+00	5.094313e+00
1.990000e-06	7.122796e-07	1.392038e-10	4.937099e+00	6.697568e+00
2.000000e-06	7.587666e-07	1.585140e-10	5.259320e+00	8.304070e+00
2.010000e-06	8.050857e-07	1.793798e-10	5.580376e+00	9.912492e+00
2.020000e-06	8.513661e-07	2.028801e-10	5.901165e+00	1.152150e+01
2.030000e-06	8.976473e-07	2.314390e-10	6.221958e+00	1.312974e+01
2.040000e-06	9.439142e-07	2.594878e-10	6.542653e+00	1.473588e+01
2.050000e-06	9.901677e-07	2.846918e-10	6.863254e+00	1.633858e+01
2.060000e-06	1.036371e-06	3.049243e-10	7.183509e+00	1.793650e+01
2.070000e-06	1.082468e-06	3.218437e-10	7.503025e+00	1.952834e+01
2.080000e-06	1.128414e-06	3.397927e-10	7.821495e+00	2.111278e+01
2.090000e-06	1.174256e-06	3.609025e-10	8.139246e+00	2.268857e+01
2.100000e-06	1.219917e-06	3.832089e-10	8.455742e+00	2.425445e+01
2.110000e-06	1.265486e-06	4.080263e-10	8.771596e+00	2.580920e+01
2.120000e-06	1.311089e-06	4.320710e-10	9.087692e+00	2.735165e+01
2.130000e-06	1.356671e-06	4.528178e-10	9.403635e+00	2.888065e+01
2.140000e-06	1.402128e-06	4.731054e-10	9.718722e+00	3.039511e+01
2.150000e-06	1.447435e-06	4.930259e-10	1.003276e+01	3.189398e+01
2.160000e-06	1.492621e-06	5.113401e-10	1.034596e+01	3.337626e+01
2.170000e-06	1.537741e-06	5.303283e-10	1.065871e+01	3.484100e+01
2.180000e-06	1.582759e-06	5.522052e-10	1.097075e+01	3.628731e+01
2.190000e-06	1.627689e-06	5.752371e-10	1.128217e+01	3.771435e+01
2.200000e-06	1.672462e-06	5.964341e-10	1.159252e+01	3.912136e+01
2.210000e-06	1.717026e-06	6.139255e-10	1.190141e+01	4.050761e+01
2.220000e-06	1.761475e-06	6.285628e-10	1.220950e+01	4.187245e+01
2.230000e-06	1.805699e-06	6.438874e-10	1.251603e+01	4.321531e+01
2.240000e-06	1.849790e-06	6.613650e-10	1.282164e+01	4.453566e+01
2.250000e-06	1.893852e-06	6.810898e-10	1.312705e+01	4.583303e+01
2.260000e-06	1.937802e-06	7.011714e-10	1.343169e+01	4.710705e+01
2.270000e-06	1.981624e-06	7.190660e-10	1.373544e+01	4.835737e+01
2.280000e-06	2.025389e-06	7.357966e-10	1.403879e+01	4.958375e+01
2.290000e-06	2.069135e-06	7.492551e-10	1.434201e+01	5.078598e+01
2.300000e-06	2.112755e-06	7.605207e-10	1.464436e+01	5.196392e+01
2.310000e-06	2.156297e-06	7.715717e-10	1.494617e+01	5.311750e+01
2.320000e-06	2.199795e-06	7.839786e-10	1.524767e+01	5.424670e+01
2.330000e-06	2.243218e-06	8.004217e-10	1.554865e+01	5.535158e+01
2.340000e-06	2.286584e-06	8.183094e-10	1.584924e+01	5.643221e+01
2.350000e-06	2.329718e-06	8.351064e-10	1.614822e+01	5.748877e+01
2.360000e-06	2.372659e-06	8.505740e-10	1.644586e+01	5.852144e+01
2.370000e-06	2.415326e-06	8.633101e-10	1.674160e+01	5.953048e+01
2.380000e-06	2.457694e-06	8.739745e-10	1.703528e+01	6.051618e+01
2.390000e-06	2.499916e-06	8.842684e-10	1.732793e+01	6.147888e+01
2.400000e-06	2.541822e-06	8.955495e-10	1.761840e+01	6.241897e+01
2.410000e-06	2.583282e-06	9.086357e-10	1.790578e+01	6.333684e+01
2.420000e-06	2.624393e-06	9.231716e-10	1.819073e+01	6.423294e+01
2.430000e-06	2.665270e-06	9.395138e-10	1.847407e+01	6.510775e+01
2.440000e-06	2.705841e-06	9.542406e-10	1.875528e+01	6.596176e+01
2.450000e-06	2.746114e-06	9.653714e-10	1.903443e+01	6.679550e+01
2.460000e-06	2.786164e-06	9.752405e-10	1.931204e+01	6.760951e+01
2.470000e-06	2.826116e-06	9.850492e-10	1.958896e+01	6.840433e+01
2.480000e-06	2.866008e-06	9.928123e-10	1.986546e+01	6.918054e+01
2.490000e-06	2.905784e-06	9.994321e-10	2.014117e+01	6.993870e+01
2.500000e-06	2.945404e-06	1.009976e-09	2.041579e+01	7.067940e+01
2.510000e-06	2.984844e-06	1.023129e-09	2.068917e+01	7.140321e+01
2.520000e-06	3.024158e-06	1.035799e-09	2.096167e+01	7.211072e+01
2.530000e-06	3.063366e-06	1.048828e-09	2.123344e+01	7.280249e+01
2.540000e-06	3.102294e-06	1.062575e-09	2.150326e+01	7.347910e+01
2.550000e-06	3.140958e-06	1.073990e-09	2.177125e+01	7.414109e+01
2.560000e-06	3.179528e-06	1.082335e-09	2.203860e+01	7.478902e+01
2.570000e-06	3.217851e-06	1.089728e-09	2.230423e+01	7.542341e+01
2.580000e-06	3.255869e-06	1.098657e-09	2.256775e+01	7.604476e+01
2.590000e-06	3.293656e-06	1.108032e-09	2.282967e+01	7.665358e+01
2.600000e-06	3.331256e-06	1.116461e-09	2.309029e+01	7.725034e+01
2.610000e-06	3.368664e-06	1.124380e-09	2.334958e+01	7.783547e+01
2.620000e-06	3.405838e-06	1.133795e-09	2.360725e+01	7.840941e+01
2.630000e-06	3.442776e-06	1.143445e-09	2.386328e+01	7.897255e+01
2.640000e-06	3.479409e-06	1.152395e-09	2.411720e+01	7.952527e+01
2.650000e-06	3.515758e-06	1.162794e-09	2.436914e+01	8.006791e+01
2.660000e-06	3.551895e-06	1.170908e-09	2.461963e+01	8.060079e+01
2.670000e-06	3.587823e-06	1.175789e-09	2.486866e+01	8.112421e+01
2.680000e-06	3.623616e-06	1.181430e-09	2.511675e+01	8.163842e+01
2.690000e-06	3.659327e-06	1.188121e-09	2.536428e+01	8.214366e+01
2.700000e-06	3.694906e-06	1.195167e-09	2.561090e+01	8.264015e+01
2.710000e-06	3.730300e-06	1.204433e-09	2.585622e+01	8.312806e+01
2.720000e-06	3.765491e-06	1.213395e-09	2.610015e+01	8.360755e+01
2.730000e-06	3.800372e-06	1.219555e-09	2.634192e+01	8.407876e+01
2.740000e-06	3.834849e-06	1.224086e-09	2.658089e+01	8.454179e+01
2.750000e-06	3.868776e-06	1.228094e-09	2.681605e+01	8.499674e+01
2.760000e-06	3.902120e-06	1.232146e-09	2.704718e+01	8.544366e+01
2.770000e-06	3.935042e-06	1.236885e-09	2.727537e+01	8.588260e+01
2.780000e-06	3.967562e-06	1.242238e-09	2.750078e+01	8.631359e+01
2.790000e-06	3.999741e-06	1.248790e-09	2.772383e+01	8.673665e+01
2.800000e-06	4.031685e-06	1.253762e-09	2.794525e+01	8.715176e+01
2.810000e-06	4.063440e-06	1.256796e-09	2.816535e+01	8.755891e+01
2.820000e-06	4.095009e-06	1.259404e-09	2.838417e+01	8.795809e+01
2.830000e-06	4.126415e-06	1.263922e-09	2.860186e+01	8.834925e+01
2.840000e-06	4.157587e-06	1.269149e-09	2.881792e+01	8.873234e+01
2.850000e-06	4.188516e-06	1.274543e-09	2.903230e+01	8.910734e+01
2.860000e-06	4.219202e-06	1.281127e-09	2.924500e+01	8.947418e+01
2.870000e-06	4.249503e-06	1.287757e-09	2.945503e+01	8.983282e+01
2.880000e-06	4.279499e-06	1.292340e-09	2.966294e+01	9.018321e+01
2.890000e-06	4.309239e-06	1.293480e-09	2.986908e+01	9.052530e+01
2.900000e-06	4.338715e-06	1.298077e-09	3.007340e+01	9.085905e+01
