# Temperatura_=_6.29
# Concentracion g/m^3_=_1620.0
# C_Vs_to_Am_M_A/Vsm_=_65563218390.804596
# pendiente_HvsI_1/m_=_3716.3
# ordenada_HvsI_A/m_=_1297.0
# frecuencia_Hz_=_135108.22820392592

Tiempo_(s)	Campo_(V.s)	Magnetizacion_(V.s)	Campo_(kA/m)	Magnetizacion_(A/m)
0.000000e+00	-5.507488e-06	-1.366203e-09	-3.837639e+01	-8.519792e+01
1.000000e-08	-5.507768e-06	-1.365978e-09	-3.837834e+01	-8.517983e+01
2.000000e-08	-5.507846e-06	-1.363866e-09	-3.837888e+01	-8.515894e+01
3.000000e-08	-5.507518e-06	-1.362644e-09	-3.837660e+01	-8.513512e+01
4.000000e-08	-5.506723e-06	-1.362730e-09	-3.837106e+01	-8.510825e+01
5.000000e-08	-5.505511e-06	-1.364515e-09	-3.836262e+01	-8.507819e+01
6.000000e-08	-5.503774e-06	-1.372672e-09	-3.835051e+01	-8.504483e+01
7.000000e-08	-5.501371e-06	-1.397141e-09	-3.833377e+01	-8.500806e+01
8.000000e-08	-5.498405e-06	-1.425830e-09	-3.831310e+01	-8.496777e+01
9.000000e-08	-5.494959e-06	-1.366352e-09	-3.828909e+01	-8.492386e+01
1.000000e-07	-5.491061e-06	-1.236826e-09	-3.826193e+01	-8.487624e+01
1.100000e-07	-5.486775e-06	-1.240220e-09	-3.823206e+01	-8.482485e+01
1.200000e-07	-5.482281e-06	-1.408664e-09	-3.820075e+01	-8.476962e+01
1.300000e-07	-5.477585e-06	-1.478271e-09	-3.816803e+01	-8.471050e+01
1.400000e-07	-5.472467e-06	-1.346013e-09	-3.813236e+01	-8.464744e+01
1.500000e-07	-5.467035e-06	-1.248851e-09	-3.809452e+01	-8.458042e+01
1.600000e-07	-5.461307e-06	-1.380526e-09	-3.805460e+01	-8.450943e+01
1.700000e-07	-5.455155e-06	-1.424506e-09	-3.801173e+01	-8.443448e+01
1.800000e-07	-5.448548e-06	-1.307546e-09	-3.796569e+01	-8.435556e+01
1.900000e-07	-5.441472e-06	-1.186850e-09	-3.791639e+01	-8.427271e+01
2.000000e-07	-5.434051e-06	-1.311277e-09	-3.786468e+01	-8.418596e+01
2.100000e-07	-5.426385e-06	-1.397471e-09	-3.781127e+01	-8.409536e+01
2.200000e-07	-5.418505e-06	-1.339864e-09	-3.775636e+01	-8.400097e+01
2.300000e-07	-5.410412e-06	-1.216499e-09	-3.769996e+01	-8.390286e+01
2.400000e-07	-5.401975e-06	-1.227542e-09	-3.764118e+01	-8.380111e+01
2.500000e-07	-5.392865e-06	-1.265072e-09	-3.757770e+01	-8.369580e+01
2.600000e-07	-5.383083e-06	-1.246322e-09	-3.750953e+01	-8.358701e+01
2.700000e-07	-5.372776e-06	-1.223742e-09	-3.743771e+01	-8.347485e+01
2.800000e-07	-5.361876e-06	-1.234856e-09	-3.736176e+01	-8.335942e+01
2.900000e-07	-5.350456e-06	-1.253104e-09	-3.728219e+01	-8.324080e+01
3.000000e-07	-5.338664e-06	-1.218412e-09	-3.720002e+01	-8.311912e+01
3.100000e-07	-5.326489e-06	-1.211991e-09	-3.711518e+01	-8.299446e+01
3.200000e-07	-5.313860e-06	-1.209346e-09	-3.702719e+01	-8.286693e+01
3.300000e-07	-5.300816e-06	-1.249784e-09	-3.693629e+01	-8.273662e+01
3.400000e-07	-5.287478e-06	-1.218665e-09	-3.684336e+01	-8.260363e+01
3.500000e-07	-5.273821e-06	-1.208986e-09	-3.674819e+01	-8.246804e+01
3.600000e-07	-5.259671e-06	-1.207741e-09	-3.664959e+01	-8.232993e+01
3.700000e-07	-5.244995e-06	-1.239554e-09	-3.654733e+01	-8.218937e+01
3.800000e-07	-5.229726e-06	-1.192076e-09	-3.644093e+01	-8.204642e+01
3.900000e-07	-5.213837e-06	-1.208053e-09	-3.633022e+01	-8.190114e+01
4.000000e-07	-5.197519e-06	-1.235003e-09	-3.621651e+01	-8.175357e+01
4.100000e-07	-5.180986e-06	-1.208503e-09	-3.610131e+01	-8.160374e+01
4.200000e-07	-5.164070e-06	-1.157043e-09	-3.598344e+01	-8.145167e+01
4.300000e-07	-5.146740e-06	-1.227159e-09	-3.586268e+01	-8.129737e+01
4.400000e-07	-5.129149e-06	-1.236441e-09	-3.574011e+01	-8.114083e+01
4.500000e-07	-5.111258e-06	-1.149969e-09	-3.561544e+01	-8.098205e+01
4.600000e-07	-5.092967e-06	-1.154478e-09	-3.548799e+01	-8.082098e+01
4.700000e-07	-5.074190e-06	-1.244458e-09	-3.535715e+01	-8.065760e+01
4.800000e-07	-5.055116e-06	-1.196967e-09	-3.522425e+01	-8.049186e+01
4.900000e-07	-5.035803e-06	-1.142796e-09	-3.508967e+01	-8.032369e+01
5.000000e-07	-5.016193e-06	-1.202444e-09	-3.495303e+01	-8.015302e+01
5.100000e-07	-4.996315e-06	-1.201614e-09	-3.481452e+01	-7.997977e+01
5.200000e-07	-4.976157e-06	-1.134899e-09	-3.467406e+01	-7.980385e+01
5.300000e-07	-4.955705e-06	-1.176752e-09	-3.453154e+01	-7.962517e+01
5.400000e-07	-4.934929e-06	-1.208606e-09	-3.438678e+01	-7.944363e+01
5.500000e-07	-4.913764e-06	-1.124835e-09	-3.423930e+01	-7.925911e+01
5.600000e-07	-4.892191e-06	-1.132954e-09	-3.408898e+01	-7.907150e+01
5.700000e-07	-4.870330e-06	-1.207586e-09	-3.393665e+01	-7.888068e+01
5.800000e-07	-4.848215e-06	-1.171203e-09	-3.378255e+01	-7.868653e+01
5.900000e-07	-4.825785e-06	-1.121985e-09	-3.362626e+01	-7.848893e+01
6.000000e-07	-4.802959e-06	-1.179616e-09	-3.346721e+01	-7.828776e+01
6.100000e-07	-4.779766e-06	-1.173326e-09	-3.330560e+01	-7.808289e+01
6.200000e-07	-4.756264e-06	-1.123496e-09	-3.314183e+01	-7.787420e+01
6.300000e-07	-4.732495e-06	-1.143077e-09	-3.297621e+01	-7.766158e+01
6.400000e-07	-4.708504e-06	-1.171692e-09	-3.280904e+01	-7.744491e+01
6.500000e-07	-4.684231e-06	-1.129139e-09	-3.263990e+01	-7.722408e+01
6.600000e-07	-4.659623e-06	-1.135670e-09	-3.246844e+01	-7.699897e+01
6.700000e-07	-4.634578e-06	-1.153663e-09	-3.229392e+01	-7.676950e+01
6.800000e-07	-4.609033e-06	-1.131443e-09	-3.211592e+01	-7.653557e+01
6.900000e-07	-4.583035e-06	-1.113438e-09	-3.193476e+01	-7.629707e+01
7.000000e-07	-4.556557e-06	-1.137219e-09	-3.175027e+01	-7.605394e+01
7.100000e-07	-4.529571e-06	-1.123485e-09	-3.156223e+01	-7.580610e+01
7.200000e-07	-4.502193e-06	-1.109094e-09	-3.137146e+01	-7.555348e+01
7.300000e-07	-4.474552e-06	-1.115844e-09	-3.117885e+01	-7.529601e+01
7.400000e-07	-4.446715e-06	-1.118174e-09	-3.098488e+01	-7.503364e+01
7.500000e-07	-4.418667e-06	-1.100258e-09	-3.078945e+01	-7.476632e+01
7.600000e-07	-4.390419e-06	-1.102370e-09	-3.059261e+01	-7.449401e+01
7.700000e-07	-4.361940e-06	-1.102315e-09	-3.039417e+01	-7.421667e+01
7.800000e-07	-4.333130e-06	-1.091271e-09	-3.019342e+01	-7.393428e+01
7.900000e-07	-4.303964e-06	-1.084493e-09	-2.999019e+01	-7.364680e+01
8.000000e-07	-4.274445e-06	-1.081052e-09	-2.978450e+01	-7.335421e+01
8.100000e-07	-4.244682e-06	-1.065654e-09	-2.957711e+01	-7.305650e+01
8.200000e-07	-4.214664e-06	-1.057220e-09	-2.936794e+01	-7.275366e+01
8.300000e-07	-4.184313e-06	-1.059477e-09	-2.915646e+01	-7.244567e+01
8.400000e-07	-4.153666e-06	-1.047858e-09	-2.894291e+01	-7.213253e+01
8.500000e-07	-4.122698e-06	-1.038817e-09	-2.872712e+01	-7.181423e+01
8.600000e-07	-4.091530e-06	-1.040500e-09	-2.850994e+01	-7.149077e+01
8.700000e-07	-4.060186e-06	-1.039240e-09	-2.829153e+01	-7.116214e+01
8.800000e-07	-4.028636e-06	-1.025551e-09	-2.807169e+01	-7.082834e+01
8.900000e-07	-3.996930e-06	-1.024130e-09	-2.785076e+01	-7.048937e+01
9.000000e-07	-3.965068e-06	-1.017277e-09	-2.762875e+01	-7.014522e+01
9.100000e-07	-3.932963e-06	-1.004627e-09	-2.740504e+01	-6.979588e+01
9.200000e-07	-3.900524e-06	-9.971170e-10	-2.717901e+01	-6.944137e+01
9.300000e-07	-3.867709e-06	-9.994235e-10	-2.695035e+01	-6.908166e+01
9.400000e-07	-3.834468e-06	-9.870682e-10	-2.671872e+01	-6.871675e+01
9.500000e-07	-3.800796e-06	-9.800557e-10	-2.648409e+01	-6.834663e+01
9.600000e-07	-3.766698e-06	-9.814250e-10	-2.624650e+01	-6.797131e+01
9.700000e-07	-3.732122e-06	-9.784692e-10	-2.600557e+01	-6.759076e+01
9.800000e-07	-3.697102e-06	-9.643973e-10	-2.576155e+01	-6.720498e+01
9.900000e-07	-3.661801e-06	-9.639323e-10	-2.551557e+01	-6.681397e+01
1.000000e-06	-3.626286e-06	-9.606689e-10	-2.526810e+01	-6.641771e+01
1.010000e-06	-3.590617e-06	-9.489099e-10	-2.501956e+01	-6.601620e+01
1.020000e-06	-3.554857e-06	-9.405039e-10	-2.477038e+01	-6.560944e+01
1.030000e-06	-3.518968e-06	-9.420198e-10	-2.452031e+01	-6.519742e+01
1.040000e-06	-3.482883e-06	-9.338716e-10	-2.426887e+01	-6.478015e+01
1.050000e-06	-3.446597e-06	-9.270117e-10	-2.401602e+01	-6.435764e+01
1.060000e-06	-3.410123e-06	-9.253939e-10	-2.376187e+01	-6.392988e+01
1.070000e-06	-3.373409e-06	-9.189600e-10	-2.350604e+01	-6.349691e+01
1.080000e-06	-3.336407e-06	-9.065141e-10	-2.324821e+01	-6.305874e+01
1.090000e-06	-3.299112e-06	-9.024934e-10	-2.298834e+01	-6.261539e+01
1.100000e-06	-3.261545e-06	-8.994526e-10	-2.272657e+01	-6.216691e+01
1.110000e-06	-3.223751e-06	-8.891701e-10	-2.246322e+01	-6.171333e+01
1.120000e-06	-3.185710e-06	-8.823032e-10	-2.219815e+01	-6.125470e+01
1.130000e-06	-3.147421e-06	-8.779032e-10	-2.193135e+01	-6.079107e+01
1.140000e-06	-3.108786e-06	-8.689353e-10	-2.166214e+01	-6.032251e+01
1.150000e-06	-3.069926e-06	-8.572988e-10	-2.139136e+01	-5.984910e+01
1.160000e-06	-3.031030e-06	-8.551878e-10	-2.112034e+01	-5.937090e+01
1.170000e-06	-2.991970e-06	-8.532162e-10	-2.084816e+01	-5.888801e+01
1.180000e-06	-2.952691e-06	-8.469561e-10	-2.057446e+01	-5.840050e+01
1.190000e-06	-2.913245e-06	-8.395415e-10	-2.029961e+01	-5.790849e+01
1.200000e-06	-2.873690e-06	-8.329613e-10	-2.002399e+01	-5.741207e+01
1.210000e-06	-2.833986e-06	-8.208228e-10	-1.974732e+01	-5.691135e+01
1.220000e-06	-2.794136e-06	-8.107771e-10	-1.946965e+01	-5.640642e+01
1.230000e-06	-2.754183e-06	-8.019607e-10	-1.919126e+01	-5.589741e+01
1.240000e-06	-2.714083e-06	-7.940563e-10	-1.891183e+01	-5.538441e+01
1.250000e-06	-2.673849e-06	-7.864188e-10	-1.863149e+01	-5.486753e+01
1.260000e-06	-2.633465e-06	-7.841098e-10	-1.835009e+01	-5.434688e+01
1.270000e-06	-2.592761e-06	-7.788955e-10	-1.806646e+01	-5.382254e+01
1.280000e-06	-2.551711e-06	-7.720755e-10	-1.778042e+01	-5.329460e+01
1.290000e-06	-2.510401e-06	-7.649845e-10	-1.749257e+01	-5.276314e+01
1.300000e-06	-2.468844e-06	-7.563654e-10	-1.720300e+01	-5.222821e+01
1.310000e-06	-2.427023e-06	-7.427295e-10	-1.691159e+01	-5.168988e+01
1.320000e-06	-2.384877e-06	-7.293116e-10	-1.661791e+01	-5.114816e+01
1.330000e-06	-2.342433e-06	-7.193022e-10	-1.632217e+01	-5.060306e+01
1.340000e-06	-2.299714e-06	-7.121820e-10	-1.602450e+01	-5.005459e+01
1.350000e-06	-2.256669e-06	-7.050980e-10	-1.572456e+01	-4.950270e+01
1.360000e-06	-2.213376e-06	-6.987969e-10	-1.542289e+01	-4.894732e+01
1.370000e-06	-2.169968e-06	-6.925279e-10	-1.512042e+01	-4.838838e+01
1.380000e-06	-2.126461e-06	-6.848482e-10	-1.481726e+01	-4.782574e+01
1.390000e-06	-2.082848e-06	-6.740979e-10	-1.451336e+01	-4.725927e+01
1.400000e-06	-2.039156e-06	-6.609744e-10	-1.420892e+01	-4.668877e+01
1.410000e-06	-1.995396e-06	-6.485809e-10	-1.390400e+01	-4.611403e+01
1.420000e-06	-1.951561e-06	-6.380652e-10	-1.359855e+01	-4.553480e+01
1.430000e-06	-1.907676e-06	-6.313525e-10	-1.329276e+01	-4.495077e+01
1.440000e-06	-1.863653e-06	-6.254572e-10	-1.298601e+01	-4.436163e+01
1.450000e-06	-1.819484e-06	-6.168888e-10	-1.267824e+01	-4.376702e+01
1.460000e-06	-1.775262e-06	-6.051667e-10	-1.237009e+01	-4.316652e+01
1.470000e-06	-1.730931e-06	-5.938771e-10	-1.206120e+01	-4.255972e+01
1.480000e-06	-1.686489e-06	-5.833739e-10	-1.175152e+01	-4.194613e+01
1.490000e-06	-1.641912e-06	-5.743691e-10	-1.144091e+01	-4.132526e+01
1.500000e-06	-1.597141e-06	-5.666644e-10	-1.112894e+01	-4.069656e+01
1.510000e-06	-1.552199e-06	-5.595726e-10	-1.081579e+01	-4.005948e+01
1.520000e-06	-1.507164e-06	-5.474494e-10	-1.050198e+01	-3.941342e+01
1.530000e-06	-1.462061e-06	-5.322164e-10	-1.018770e+01	-3.875776e+01
1.540000e-06	-1.416831e-06	-5.187015e-10	-9.872537e+00	-3.809187e+01
1.550000e-06	-1.371475e-06	-5.075512e-10	-9.556494e+00	-3.741509e+01
1.560000e-06	-1.326068e-06	-4.972823e-10	-9.240097e+00	-3.672675e+01
1.570000e-06	-1.280582e-06	-4.899660e-10	-8.923142e+00	-3.602616e+01
1.580000e-06	-1.234998e-06	-4.812026e-10	-8.605511e+00	-3.531264e+01
1.590000e-06	-1.189360e-06	-4.673295e-10	-8.287505e+00	-3.458551e+01
1.600000e-06	-1.143667e-06	-4.524861e-10	-7.969116e+00	-3.384407e+01
1.610000e-06	-1.097906e-06	-4.382478e-10	-7.650254e+00	-3.308766e+01
1.620000e-06	-1.052067e-06	-4.218802e-10	-7.330845e+00	-3.231561e+01
1.630000e-06	-1.006097e-06	-4.064433e-10	-7.010523e+00	-3.152727e+01
1.640000e-06	-9.600659e-07	-3.951810e-10	-6.689777e+00	-3.072203e+01
1.650000e-06	-9.139968e-07	-3.852403e-10	-6.368766e+00	-2.989929e+01
1.660000e-06	-8.678188e-07	-3.718737e-10	-6.046995e+00	-2.905851e+01
1.670000e-06	-8.216169e-07	-3.569021e-10	-5.725059e+00	-2.819916e+01
1.680000e-06	-7.754155e-07	-3.425710e-10	-5.403126e+00	-2.732077e+01
1.690000e-06	-7.291454e-07	-3.284374e-10	-5.080714e+00	-2.642292e+01
1.700000e-06	-6.827748e-07	-3.151195e-10	-4.757602e+00	-2.550525e+01
1.710000e-06	-6.363407e-07	-3.017852e-10	-4.434047e+00	-2.456743e+01
1.720000e-06	-5.898589e-07	-2.860937e-10	-4.110160e+00	-2.360923e+01
1.730000e-06	-5.433665e-07	-2.695874e-10	-3.786199e+00	-2.263046e+01
1.740000e-06	-4.968944e-07	-2.531849e-10	-3.462379e+00	-2.163102e+01
1.750000e-06	-4.503613e-07	-2.378931e-10	-3.138135e+00	-2.061086e+01
1.760000e-06	-4.037827e-07	-2.234661e-10	-2.813573e+00	-1.957002e+01
1.770000e-06	-3.571649e-07	-2.089045e-10	-2.488739e+00	-1.850862e+01
1.780000e-06	-3.104834e-07	-1.934404e-10	-2.163461e+00	-1.742684e+01
1.790000e-06	-2.638036e-07	-1.765126e-10	-1.838194e+00	-1.632497e+01
1.800000e-06	-2.171608e-07	-1.617241e-10	-1.513185e+00	-1.520335e+01
1.810000e-06	-1.705187e-07	-1.471179e-10	-1.188181e+00	-1.406242e+01
1.820000e-06	-1.238032e-07	-1.302251e-10	-8.626658e-01	-1.290269e+01
1.830000e-06	-7.706444e-08	-1.109663e-10	-5.369880e-01	-1.172477e+01
1.840000e-06	-3.035697e-08	-9.179850e-11	-2.115285e-01	-1.052932e+01
1.850000e-06	1.632285e-08	-7.450276e-11	1.137383e-01	-9.317078e+00
1.860000e-06	6.298099e-08	-5.979066e-11	4.388540e-01	-8.088877e+00
1.870000e-06	1.096156e-07	-4.369298e-11	7.638055e-01	-6.845603e+00
1.880000e-06	1.562193e-07	-2.647103e-11	1.088542e+00	-5.588210e+00
1.890000e-06	2.028514e-07	-9.953634e-12	1.413476e+00	-4.317715e+00
1.900000e-06	2.495467e-07	5.307234e-12	1.738851e+00	-3.035194e+00
1.910000e-06	2.962176e-07	2.076826e-11	2.064056e+00	-1.741773e+00
1.920000e-06	3.428700e-07	3.869926e-11	2.389131e+00	-4.386269e-01
1.930000e-06	3.895567e-07	5.894170e-11	2.714446e+00	8.730294e-01
1.940000e-06	4.361908e-07	7.962293e-11	3.039395e+00	2.191944e+00
1.950000e-06	4.827973e-07	9.992651e-11	3.364150e+00	3.516837e+00
1.960000e-06	5.293178e-07	1.184693e-10	3.688307e+00	4.846403e+00
1.970000e-06	5.757562e-07	1.350743e-10	4.011892e+00	6.179321e+00
1.980000e-06	6.222227e-07	1.517444e-10	4.335672e+00	7.514261e+00
1.990000e-06	6.685962e-07	1.671663e-10	4.658804e+00	8.849888e+00
2.000000e-06	7.148788e-07	1.810957e-10	4.981303e+00	1.018487e+01
2.010000e-06	7.611394e-07	1.999300e-10	5.303649e+00	1.151788e+01
2.020000e-06	8.073373e-07	2.205340e-10	5.625558e+00	1.284762e+01
2.030000e-06	8.534631e-07	2.420490e-10	5.946964e+00	1.417280e+01
2.040000e-06	8.995607e-07	2.661815e-10	6.268174e+00	1.549217e+01
2.050000e-06	9.456280e-07	2.877448e-10	6.589173e+00	1.680450e+01
2.060000e-06	9.916621e-07	3.054525e-10	6.909940e+00	1.810860e+01
2.070000e-06	1.037623e-06	3.200965e-10	7.230194e+00	1.940334e+01
2.080000e-06	1.083482e-06	3.353096e-10	7.549741e+00	2.068763e+01
2.090000e-06	1.129253e-06	3.513022e-10	7.868677e+00	2.196043e+01
2.100000e-06	1.174938e-06	3.702477e-10	8.187016e+00	2.322077e+01
2.110000e-06	1.220519e-06	3.900698e-10	8.504625e+00	2.446771e+01
2.120000e-06	1.265985e-06	4.097952e-10	8.821430e+00	2.570041e+01
2.130000e-06	1.311340e-06	4.282282e-10	9.137468e+00	2.691808e+01
2.140000e-06	1.356588e-06	4.458105e-10	9.452758e+00	2.812000e+01
2.150000e-06	1.401787e-06	4.609343e-10	9.767708e+00	2.930552e+01
2.160000e-06	1.446968e-06	4.732122e-10	1.008253e+01	3.047406e+01
2.170000e-06	1.492005e-06	4.859910e-10	1.039635e+01	3.162510e+01
2.180000e-06	1.536866e-06	5.010645e-10	1.070894e+01	3.275821e+01
2.190000e-06	1.581627e-06	5.183530e-10	1.102084e+01	3.387303e+01
2.200000e-06	1.626248e-06	5.366265e-10	1.133176e+01	3.496925e+01
2.210000e-06	1.670715e-06	5.521271e-10	1.164161e+01	3.604665e+01
2.220000e-06	1.715104e-06	5.645718e-10	1.195091e+01	3.710505e+01
2.230000e-06	1.759390e-06	5.757966e-10	1.225950e+01	3.814437e+01
2.240000e-06	1.803556e-06	5.891930e-10	1.256725e+01	3.916456e+01
2.250000e-06	1.847641e-06	6.043356e-10	1.287444e+01	4.016563e+01
2.260000e-06	1.891598e-06	6.206516e-10	1.318073e+01	4.114767e+01
2.270000e-06	1.935487e-06	6.368027e-10	1.348655e+01	4.211079e+01
2.280000e-06	1.979353e-06	6.501836e-10	1.379221e+01	4.305517e+01
2.290000e-06	2.023155e-06	6.619404e-10	1.409742e+01	4.398101e+01
2.300000e-06	2.066838e-06	6.721489e-10	1.440180e+01	4.488859e+01
2.310000e-06	2.110402e-06	6.809382e-10	1.470536e+01	4.577817e+01
2.320000e-06	2.153875e-06	6.916638e-10	1.500829e+01	4.665008e+01
2.330000e-06	2.197246e-06	7.070094e-10	1.531050e+01	4.750467e+01
2.340000e-06	2.240442e-06	7.234186e-10	1.561149e+01	4.834229e+01
2.350000e-06	2.283392e-06	7.390300e-10	1.591076e+01	4.916333e+01
2.360000e-06	2.326142e-06	7.509753e-10	1.620865e+01	4.996819e+01
2.370000e-06	2.368747e-06	7.594757e-10	1.650552e+01	5.075728e+01
2.380000e-06	2.411088e-06	7.655973e-10	1.680055e+01	5.153099e+01
2.390000e-06	2.453071e-06	7.733649e-10	1.709309e+01	5.228974e+01
2.400000e-06	2.494717e-06	7.820969e-10	1.738328e+01	5.303395e+01
2.410000e-06	2.536031e-06	7.922862e-10	1.767117e+01	5.376402e+01
2.420000e-06	2.577064e-06	8.049873e-10	1.795708e+01	5.448034e+01
2.430000e-06	2.617942e-06	8.174466e-10	1.824192e+01	5.518329e+01
2.440000e-06	2.658609e-06	8.279204e-10	1.852529e+01	5.587326e+01
2.450000e-06	2.698961e-06	8.362285e-10	1.880647e+01	5.655060e+01
2.460000e-06	2.739153e-06	8.428996e-10	1.908652e+01	5.721564e+01
2.470000e-06	2.779239e-06	8.493160e-10	1.936585e+01	5.786872e+01
2.480000e-06	2.819236e-06	8.556428e-10	1.964454e+01	5.851013e+01
2.490000e-06	2.859099e-06	8.628737e-10	1.992231e+01	5.914017e+01
2.500000e-06	2.898728e-06	8.706438e-10	2.019845e+01	5.975908e+01
2.510000e-06	2.938097e-06	8.787055e-10	2.047278e+01	6.036712e+01
2.520000e-06	2.977332e-06	8.881051e-10	2.074617e+01	6.096451e+01
2.530000e-06	3.016435e-06	8.966460e-10	2.101863e+01	6.155145e+01
2.540000e-06	3.055294e-06	9.046267e-10	2.128941e+01	6.212813e+01
2.550000e-06	3.093916e-06	9.145466e-10	2.155853e+01	6.269471e+01
2.560000e-06	3.132303e-06	9.227495e-10	2.182601e+01	6.325134e+01
2.570000e-06	3.170483e-06	9.279793e-10	2.209205e+01	6.379815e+01
2.580000e-06	3.208480e-06	9.331392e-10	2.235681e+01	6.433526e+01
2.590000e-06	3.246243e-06	9.391286e-10	2.261995e+01	6.486278e+01
2.600000e-06	3.283796e-06	9.460909e-10	2.288162e+01	6.538081e+01
2.610000e-06	3.321148e-06	9.526888e-10	2.314189e+01	6.588943e+01
2.620000e-06	3.358281e-06	9.598605e-10	2.340063e+01	6.638872e+01
2.630000e-06	3.395161e-06	9.681664e-10	2.365762e+01	6.687876e+01
2.640000e-06	3.431738e-06	9.755905e-10	2.391248e+01	6.735961e+01
2.650000e-06	3.468076e-06	9.811570e-10	2.416569e+01	6.783134e+01
2.660000e-06	3.504280e-06	9.888142e-10	2.441796e+01	6.829403e+01
2.670000e-06	3.540295e-06	9.967892e-10	2.466891e+01	6.874774e+01
2.680000e-06	3.576103e-06	1.001748e-09	2.491843e+01	6.919254e+01
2.690000e-06	3.611772e-06	1.004184e-09	2.516697e+01	6.962851e+01
2.700000e-06	3.647253e-06	1.005983e-09	2.541420e+01	7.005573e+01
2.710000e-06	3.682562e-06	1.011024e-09	2.566024e+01	7.047429e+01
2.720000e-06	3.717729e-06	1.018279e-09	2.590528e+01	7.088429e+01
2.730000e-06	3.752543e-06	1.024890e-09	2.614786e+01	7.128583e+01
2.740000e-06	3.786818e-06	1.031994e-09	2.638670e+01	7.167902e+01
2.750000e-06	3.820653e-06	1.039600e-09	2.662246e+01	7.206399e+01
2.760000e-06	3.854109e-06	1.045195e-09	2.685558e+01	7.244086e+01
2.770000e-06	3.887204e-06	1.048386e-09	2.708619e+01	7.280977e+01
2.780000e-06	3.919909e-06	1.050388e-09	2.731408e+01	7.317088e+01
2.790000e-06	3.952289e-06	1.053163e-09	2.753971e+01	7.352433e+01
2.800000e-06	3.984450e-06	1.056979e-09	2.776380e+01	7.387030e+01
2.810000e-06	4.016359e-06	1.061875e-09	2.798615e+01	7.420895e+01
2.820000e-06	4.047987e-06	1.067240e-09	2.820653e+01	7.454045e+01
2.830000e-06	4.079417e-06	1.072798e-09	2.842554e+01	7.486499e+01
2.840000e-06	4.110665e-06	1.079220e-09	2.864327e+01	7.518276e+01
2.850000e-06	4.141616e-06	1.083821e-09	2.885894e+01	7.549393e+01
2.860000e-06	4.172237e-06	1.086487e-09	2.907231e+01	7.579870e+01
2.870000e-06	4.202593e-06	1.088017e-09	2.928383e+01	7.609725e+01
2.880000e-06	4.232749e-06	1.088910e-09	2.949396e+01	7.638978e+01
2.890000e-06	4.262624e-06	1.090228e-09	2.970213e+01	7.667645e+01
2.900000e-06	4.292177e-06	1.091767e-09	2.990806e+01	7.695746e+01
2.910000e-06	4.321435e-06	1.095271e-09	3.011192e+01	7.723296e+01
