# Temperatura_=_-0.4
# Concentracion g/m^3_=_1620.0
# C_Vs_to_Am_M_A/Vsm_=_65563218390.804596
# pendiente_HvsI_1/m_=_3716.3
# ordenada_HvsI_A/m_=_1297.0
# frecuencia_Hz_=_135094.64201791634

Tiempo_(s)	Campo_(V.s)	Magnetizacion_(V.s)	Campo_(kA/m)	Magnetizacion_(A/m)
0.000000e+00	-5.520844e-06	-1.517172e-09	-3.837394e+01	-9.805250e+01
1.000000e-08	-5.521007e-06	-1.513231e-09	-3.837507e+01	-9.803891e+01
2.000000e-08	-5.520968e-06	-1.509174e-09	-3.837480e+01	-9.802428e+01
3.000000e-08	-5.520651e-06	-1.510509e-09	-3.837259e+01	-9.800856e+01
4.000000e-08	-5.519954e-06	-1.513656e-09	-3.836775e+01	-9.799174e+01
5.000000e-08	-5.518819e-06	-1.514508e-09	-3.835986e+01	-9.797375e+01
6.000000e-08	-5.517162e-06	-1.518025e-09	-3.834834e+01	-9.795456e+01
7.000000e-08	-5.514848e-06	-1.528262e-09	-3.833226e+01	-9.793410e+01
8.000000e-08	-5.511836e-06	-1.539008e-09	-3.831132e+01	-9.791230e+01
9.000000e-08	-5.508239e-06	-1.519012e-09	-3.828632e+01	-9.788907e+01
1.000000e-07	-5.504236e-06	-1.484727e-09	-3.825850e+01	-9.786433e+01
1.100000e-07	-5.499968e-06	-1.500312e-09	-3.822883e+01	-9.783799e+01
1.200000e-07	-5.495494e-06	-1.540691e-09	-3.819774e+01	-9.780993e+01
1.300000e-07	-5.490804e-06	-1.525936e-09	-3.816514e+01	-9.778004e+01
1.400000e-07	-5.485772e-06	-1.481121e-09	-3.813016e+01	-9.774820e+01
1.500000e-07	-5.480296e-06	-1.482990e-09	-3.809210e+01	-9.771428e+01
1.600000e-07	-5.474382e-06	-1.548090e-09	-3.805099e+01	-9.767814e+01
1.700000e-07	-5.468072e-06	-1.546340e-09	-3.800713e+01	-9.763965e+01
1.800000e-07	-5.461360e-06	-1.491438e-09	-3.796048e+01	-9.759864e+01
1.900000e-07	-5.454260e-06	-1.483813e-09	-3.791113e+01	-9.755498e+01
2.000000e-07	-5.446765e-06	-1.503683e-09	-3.785903e+01	-9.750849e+01
2.100000e-07	-5.439060e-06	-1.501093e-09	-3.780547e+01	-9.745903e+01
2.200000e-07	-5.431132e-06	-1.469872e-09	-3.775037e+01	-9.740642e+01
2.300000e-07	-5.422919e-06	-1.469901e-09	-3.769329e+01	-9.735050e+01
2.400000e-07	-5.414383e-06	-1.474169e-09	-3.763395e+01	-9.729112e+01
2.500000e-07	-5.405297e-06	-1.473145e-09	-3.757080e+01	-9.722809e+01
2.600000e-07	-5.395469e-06	-1.451418e-09	-3.750248e+01	-9.716127e+01
2.700000e-07	-5.385090e-06	-1.443428e-09	-3.743035e+01	-9.709048e+01
2.800000e-07	-5.374213e-06	-1.443064e-09	-3.735474e+01	-9.701558e+01
2.900000e-07	-5.362755e-06	-1.452879e-09	-3.727510e+01	-9.693640e+01
3.000000e-07	-5.350971e-06	-1.446115e-09	-3.719319e+01	-9.685281e+01
3.100000e-07	-5.338843e-06	-1.438971e-09	-3.710889e+01	-9.676466e+01
3.200000e-07	-5.326207e-06	-1.441519e-09	-3.702106e+01	-9.667182e+01
3.300000e-07	-5.313099e-06	-1.451806e-09	-3.692996e+01	-9.657417e+01
3.400000e-07	-5.299614e-06	-1.437216e-09	-3.683622e+01	-9.647158e+01
3.500000e-07	-5.285771e-06	-1.414789e-09	-3.674000e+01	-9.636397e+01
3.600000e-07	-5.271610e-06	-1.429114e-09	-3.664158e+01	-9.625122e+01
3.700000e-07	-5.257078e-06	-1.432114e-09	-3.654057e+01	-9.613327e+01
3.800000e-07	-5.242098e-06	-1.418082e-09	-3.643644e+01	-9.601004e+01
3.900000e-07	-5.226447e-06	-1.428617e-09	-3.632766e+01	-9.588149e+01
4.000000e-07	-5.210246e-06	-1.442470e-09	-3.621505e+01	-9.574755e+01
4.100000e-07	-5.193523e-06	-1.406221e-09	-3.609881e+01	-9.560821e+01
4.200000e-07	-5.176411e-06	-1.401402e-09	-3.597987e+01	-9.546345e+01
4.300000e-07	-5.159090e-06	-1.436009e-09	-3.585948e+01	-9.531327e+01
4.400000e-07	-5.141470e-06	-1.415548e-09	-3.573701e+01	-9.515769e+01
4.500000e-07	-5.123536e-06	-1.370797e-09	-3.561235e+01	-9.499672e+01
4.600000e-07	-5.105235e-06	-1.410167e-09	-3.548515e+01	-9.483040e+01
4.700000e-07	-5.086521e-06	-1.428230e-09	-3.535507e+01	-9.465880e+01
4.800000e-07	-5.067359e-06	-1.377736e-09	-3.522188e+01	-9.448197e+01
4.900000e-07	-5.047818e-06	-1.383979e-09	-3.508605e+01	-9.430000e+01
5.000000e-07	-5.028024e-06	-1.430354e-09	-3.494847e+01	-9.411296e+01
5.100000e-07	-5.008076e-06	-1.385056e-09	-3.480982e+01	-9.392096e+01
5.200000e-07	-4.987912e-06	-1.356009e-09	-3.466966e+01	-9.372411e+01
5.300000e-07	-4.967365e-06	-1.403445e-09	-3.452685e+01	-9.352252e+01
5.400000e-07	-4.946532e-06	-1.392551e-09	-3.438204e+01	-9.331632e+01
5.500000e-07	-4.925376e-06	-1.341507e-09	-3.423500e+01	-9.310563e+01
5.600000e-07	-4.903809e-06	-1.375670e-09	-3.408509e+01	-9.289058e+01
5.700000e-07	-4.881901e-06	-1.396180e-09	-3.393281e+01	-9.267132e+01
5.800000e-07	-4.859647e-06	-1.347806e-09	-3.377813e+01	-9.244799e+01
5.900000e-07	-4.837034e-06	-1.353612e-09	-3.362096e+01	-9.222071e+01
6.000000e-07	-4.814026e-06	-1.386755e-09	-3.346103e+01	-9.198964e+01
6.100000e-07	-4.790623e-06	-1.353125e-09	-3.329836e+01	-9.175490e+01
6.200000e-07	-4.766997e-06	-1.334607e-09	-3.313414e+01	-9.151663e+01
6.300000e-07	-4.743248e-06	-1.363390e-09	-3.296907e+01	-9.127495e+01
6.400000e-07	-4.719278e-06	-1.349511e-09	-3.280246e+01	-9.102999e+01
6.500000e-07	-4.695099e-06	-1.327533e-09	-3.263440e+01	-9.078185e+01
6.600000e-07	-4.670568e-06	-1.348112e-09	-3.246389e+01	-9.053064e+01
6.700000e-07	-4.645553e-06	-1.345110e-09	-3.229002e+01	-9.027646e+01
6.800000e-07	-4.619866e-06	-1.316695e-09	-3.211147e+01	-9.001937e+01
6.900000e-07	-4.593528e-06	-1.325235e-09	-3.192840e+01	-8.975945e+01
7.000000e-07	-4.566743e-06	-1.330840e-09	-3.174223e+01	-8.949676e+01
7.100000e-07	-4.539494e-06	-1.308537e-09	-3.155283e+01	-8.923133e+01
7.200000e-07	-4.511920e-06	-1.303362e-09	-3.136117e+01	-8.896319e+01
7.300000e-07	-4.484172e-06	-1.313028e-09	-3.116830e+01	-8.869235e+01
7.400000e-07	-4.456263e-06	-1.299305e-09	-3.097431e+01	-8.841880e+01
7.500000e-07	-4.428262e-06	-1.290079e-09	-3.077969e+01	-8.814252e+01
7.600000e-07	-4.400037e-06	-1.295338e-09	-3.058350e+01	-8.786348e+01
7.700000e-07	-4.371552e-06	-1.289341e-09	-3.038551e+01	-8.758161e+01
7.800000e-07	-4.342760e-06	-1.276758e-09	-3.018539e+01	-8.729686e+01
7.900000e-07	-4.313495e-06	-1.278849e-09	-2.998197e+01	-8.700912e+01
8.000000e-07	-4.283868e-06	-1.274182e-09	-2.977604e+01	-8.671831e+01
8.100000e-07	-4.254036e-06	-1.259352e-09	-2.956868e+01	-8.642431e+01
8.200000e-07	-4.224037e-06	-1.252829e-09	-2.936017e+01	-8.612699e+01
8.300000e-07	-4.193709e-06	-1.249380e-09	-2.914937e+01	-8.582621e+01
8.400000e-07	-4.162964e-06	-1.235106e-09	-2.893567e+01	-8.552182e+01
8.500000e-07	-4.131890e-06	-1.228726e-09	-2.871968e+01	-8.521366e+01
8.600000e-07	-4.100574e-06	-1.232108e-09	-2.850201e+01	-8.490156e+01
8.700000e-07	-4.069027e-06	-1.225483e-09	-2.828274e+01	-8.458535e+01
8.800000e-07	-4.037291e-06	-1.215949e-09	-2.806215e+01	-8.426483e+01
8.900000e-07	-4.005451e-06	-1.214339e-09	-2.784084e+01	-8.393983e+01
9.000000e-07	-3.973444e-06	-1.204075e-09	-2.761837e+01	-8.361015e+01
9.100000e-07	-3.941214e-06	-1.187490e-09	-2.739434e+01	-8.327560e+01
9.200000e-07	-3.908687e-06	-1.182467e-09	-2.716825e+01	-8.293600e+01
9.300000e-07	-3.875737e-06	-1.178367e-09	-2.693923e+01	-8.259116e+01
9.400000e-07	-3.842235e-06	-1.169564e-09	-2.670637e+01	-8.224090e+01
9.500000e-07	-3.808189e-06	-1.166949e-09	-2.646972e+01	-8.188503e+01
9.600000e-07	-3.773800e-06	-1.170019e-09	-2.623070e+01	-8.152340e+01
9.700000e-07	-3.738996e-06	-1.159967e-09	-2.598878e+01	-8.115584e+01
9.800000e-07	-3.703821e-06	-1.149613e-09	-2.574429e+01	-8.078220e+01
9.900000e-07	-3.668403e-06	-1.148521e-09	-2.549810e+01	-8.040234e+01
1.000000e-06	-3.632787e-06	-1.140848e-09	-2.525055e+01	-8.001614e+01
1.010000e-06	-3.597031e-06	-1.128636e-09	-2.500202e+01	-7.962350e+01
1.020000e-06	-3.561130e-06	-1.128800e-09	-2.475248e+01	-7.922430e+01
1.030000e-06	-3.525113e-06	-1.128496e-09	-2.450213e+01	-7.881848e+01
1.040000e-06	-3.488927e-06	-1.119084e-09	-2.425061e+01	-7.840598e+01
1.050000e-06	-3.452506e-06	-1.114572e-09	-2.399746e+01	-7.798674e+01
1.060000e-06	-3.415870e-06	-1.110958e-09	-2.374281e+01	-7.756073e+01
1.070000e-06	-3.378982e-06	-1.097492e-09	-2.348642e+01	-7.712795e+01
1.080000e-06	-3.341768e-06	-1.086714e-09	-2.322775e+01	-7.668840e+01
1.090000e-06	-3.304334e-06	-1.084552e-09	-2.296756e+01	-7.624211e+01
1.100000e-06	-3.266627e-06	-1.079909e-09	-2.270547e+01	-7.578910e+01
1.110000e-06	-3.228601e-06	-1.070615e-09	-2.244116e+01	-7.532944e+01
1.120000e-06	-3.190426e-06	-1.066285e-09	-2.217581e+01	-7.486320e+01
1.130000e-06	-3.152147e-06	-1.061254e-09	-2.190974e+01	-7.439046e+01
1.140000e-06	-3.113621e-06	-1.050226e-09	-2.164196e+01	-7.391130e+01
1.150000e-06	-3.074783e-06	-1.042666e-09	-2.137201e+01	-7.342584e+01
1.160000e-06	-3.035737e-06	-1.038809e-09	-2.110061e+01	-7.293420e+01
1.170000e-06	-2.996480e-06	-1.031681e-09	-2.082774e+01	-7.243648e+01
1.180000e-06	-2.957030e-06	-1.022877e-09	-2.055354e+01	-7.193282e+01
1.190000e-06	-2.917413e-06	-1.017851e-09	-2.027817e+01	-7.142335e+01
1.200000e-06	-2.877651e-06	-1.009618e-09	-2.000180e+01	-7.090820e+01
1.210000e-06	-2.837800e-06	-9.984287e-10	-1.972480e+01	-7.038749e+01
1.220000e-06	-2.797818e-06	-9.900115e-10	-1.944689e+01	-6.986135e+01
1.230000e-06	-2.757714e-06	-9.824703e-10	-1.916815e+01	-6.932990e+01
1.240000e-06	-2.717519e-06	-9.730166e-10	-1.888876e+01	-6.879325e+01
1.250000e-06	-2.677198e-06	-9.663848e-10	-1.860850e+01	-6.825150e+01
1.260000e-06	-2.636692e-06	-9.625272e-10	-1.832695e+01	-6.770474e+01
1.270000e-06	-2.595885e-06	-9.540532e-10	-1.804332e+01	-6.715302e+01
1.280000e-06	-2.554742e-06	-9.439327e-10	-1.775734e+01	-6.659640e+01
1.290000e-06	-2.513422e-06	-9.371190e-10	-1.747014e+01	-6.603492e+01
1.300000e-06	-2.471830e-06	-9.286235e-10	-1.718104e+01	-6.546857e+01
1.310000e-06	-2.429843e-06	-9.143569e-10	-1.688920e+01	-6.489734e+01
1.320000e-06	-2.387528e-06	-9.006433e-10	-1.659508e+01	-6.432118e+01
1.330000e-06	-2.344916e-06	-8.903672e-10	-1.629890e+01	-6.374002e+01
1.340000e-06	-2.302002e-06	-8.786954e-10	-1.600061e+01	-6.315375e+01
1.350000e-06	-2.258831e-06	-8.698801e-10	-1.570054e+01	-6.256224e+01
1.360000e-06	-2.215399e-06	-8.647426e-10	-1.539866e+01	-6.196531e+01
1.370000e-06	-2.171757e-06	-8.565666e-10	-1.509531e+01	-6.136275e+01
1.380000e-06	-2.128054e-06	-8.453917e-10	-1.479155e+01	-6.075434e+01
1.390000e-06	-2.084276e-06	-8.337571e-10	-1.448726e+01	-6.013979e+01
1.400000e-06	-2.040518e-06	-8.211482e-10	-1.418311e+01	-5.951879e+01
1.410000e-06	-1.996688e-06	-8.076531e-10	-1.387845e+01	-5.889100e+01
1.420000e-06	-1.952722e-06	-7.962032e-10	-1.357286e+01	-5.825604e+01
1.430000e-06	-1.908668e-06	-7.883914e-10	-1.326665e+01	-5.761349e+01
1.440000e-06	-1.864542e-06	-7.792998e-10	-1.295994e+01	-5.696291e+01
1.450000e-06	-1.820385e-06	-7.698986e-10	-1.265302e+01	-5.630380e+01
1.460000e-06	-1.776102e-06	-7.600004e-10	-1.234522e+01	-5.563567e+01
1.470000e-06	-1.731707e-06	-7.472249e-10	-1.203664e+01	-5.495797e+01
1.480000e-06	-1.687186e-06	-7.333849e-10	-1.172719e+01	-5.427013e+01
1.490000e-06	-1.642532e-06	-7.209627e-10	-1.141681e+01	-5.357157e+01
1.500000e-06	-1.597777e-06	-7.091981e-10	-1.110573e+01	-5.286166e+01
1.510000e-06	-1.552857e-06	-6.981350e-10	-1.079350e+01	-5.213977e+01
1.520000e-06	-1.507704e-06	-6.875853e-10	-1.047965e+01	-5.140525e+01
1.530000e-06	-1.462320e-06	-6.749034e-10	-1.016420e+01	-5.065745e+01
1.540000e-06	-1.416893e-06	-6.631838e-10	-9.848452e+00	-4.989568e+01
1.550000e-06	-1.371496e-06	-6.535430e-10	-9.532909e+00	-4.911926e+01
1.560000e-06	-1.326074e-06	-6.429260e-10	-9.217190e+00	-4.832752e+01
1.570000e-06	-1.280560e-06	-6.300006e-10	-8.900835e+00	-4.751978e+01
1.580000e-06	-1.234937e-06	-6.187513e-10	-8.583720e+00	-4.669535e+01
1.590000e-06	-1.189249e-06	-6.062779e-10	-8.266159e+00	-4.585358e+01
1.600000e-06	-1.143399e-06	-5.914618e-10	-7.947463e+00	-4.499381e+01
1.610000e-06	-1.097450e-06	-5.796346e-10	-7.628090e+00	-4.411540e+01
1.620000e-06	-1.051429e-06	-5.673838e-10	-7.308210e+00	-4.321774e+01
1.630000e-06	-1.005337e-06	-5.512865e-10	-6.987835e+00	-4.230025e+01
1.640000e-06	-9.592762e-07	-5.362015e-10	-6.667677e+00	-4.136236e+01
1.650000e-06	-9.132300e-07	-5.226739e-10	-6.347621e+00	-4.040354e+01
1.660000e-06	-8.670501e-07	-5.106923e-10	-6.026637e+00	-3.942332e+01
1.670000e-06	-8.207088e-07	-4.986976e-10	-5.704531e+00	-3.842123e+01
1.680000e-06	-7.742867e-07	-4.868110e-10	-5.381864e+00	-3.739688e+01
1.690000e-06	-7.278496e-07	-4.716184e-10	-5.059091e+00	-3.634991e+01
1.700000e-06	-6.814542e-07	-4.540530e-10	-4.736609e+00	-3.528001e+01
1.710000e-06	-6.349776e-07	-4.345154e-10	-4.413562e+00	-3.418693e+01
1.720000e-06	-5.884110e-07	-4.149612e-10	-4.089890e+00	-3.307048e+01
1.730000e-06	-5.418123e-07	-3.977650e-10	-3.765995e+00	-3.193052e+01
1.740000e-06	-4.952120e-07	-3.840304e-10	-3.442088e+00	-3.076697e+01
1.750000e-06	-4.486507e-07	-3.709660e-10	-3.118453e+00	-2.957982e+01
1.760000e-06	-4.020704e-07	-3.557445e-10	-2.794686e+00	-2.836912e+01
1.770000e-06	-3.554138e-07	-3.387221e-10	-2.470388e+00	-2.713498e+01
1.780000e-06	-3.086147e-07	-3.187998e-10	-2.145100e+00	-2.587760e+01
1.790000e-06	-2.617625e-07	-2.984741e-10	-1.819442e+00	-2.459722e+01
1.800000e-06	-2.149190e-07	-2.797288e-10	-1.493846e+00	-2.329416e+01
1.810000e-06	-1.680856e-07	-2.631049e-10	-1.168319e+00	-2.196880e+01
1.820000e-06	-1.212864e-07	-2.466832e-10	-8.430296e-01	-2.062161e+01
1.830000e-06	-7.452292e-08	-2.320688e-10	-5.179892e-01	-1.925309e+01
1.840000e-06	-2.776782e-08	-2.136141e-10	-1.930068e-01	-1.786384e+01
1.850000e-06	1.905994e-08	-1.934974e-10	1.324806e-01	-1.645450e+01
1.860000e-06	6.593758e-08	-1.743693e-10	4.583148e-01	-1.502579e+01
1.870000e-06	1.128479e-07	-1.524999e-10	7.843761e-01	-1.357848e+01
1.880000e-06	1.597296e-07	-1.309634e-10	1.110238e+00	-1.211341e+01
1.890000e-06	2.065709e-07	-1.122851e-10	1.435820e+00	-1.063146e+01
1.900000e-06	2.533057e-07	-9.470293e-11	1.760661e+00	-9.133575e+00
1.910000e-06	2.999611e-07	-7.743999e-11	2.084951e+00	-7.620755e+00
1.920000e-06	3.466566e-07	-5.676170e-11	2.409519e+00	-6.094037e+00
1.930000e-06	3.933891e-07	-3.356960e-11	2.734344e+00	-4.554507e+00
1.940000e-06	4.400573e-07	-8.767267e-12	3.058723e+00	-3.003292e+00
1.950000e-06	4.866768e-07	1.562461e-11	3.382763e+00	-1.441556e+00
1.960000e-06	5.333511e-07	3.981074e-11	3.707183e+00	1.295066e-01
1.970000e-06	5.799250e-07	6.324208e-11	4.030906e+00	1.708669e+00
1.980000e-06	6.263679e-07	8.479464e-11	4.353719e+00	3.294681e+00
1.990000e-06	6.727423e-07	1.023460e-10	4.676055e+00	4.886271e+00
2.000000e-06	7.190734e-07	1.188075e-10	4.998090e+00	6.482153e+00
2.010000e-06	7.653489e-07	1.408932e-10	5.319739e+00	8.081025e+00
2.020000e-06	8.116022e-07	1.631042e-10	5.641234e+00	9.681581e+00
2.030000e-06	8.578544e-07	1.872435e-10	5.962721e+00	1.128251e+01
2.040000e-06	9.040366e-07	2.146941e-10	6.283721e+00	1.288250e+01
2.050000e-06	9.501506e-07	2.405322e-10	6.604247e+00	1.448025e+01
2.060000e-06	9.961591e-07	2.636879e-10	6.924040e+00	1.607446e+01
2.070000e-06	1.042089e-06	2.830341e-10	7.243285e+00	1.766385e+01
2.080000e-06	1.087952e-06	3.004605e-10	7.562065e+00	1.924715e+01
2.090000e-06	1.133711e-06	3.180281e-10	7.880129e+00	2.082313e+01
2.100000e-06	1.179415e-06	3.394907e-10	8.197804e+00	2.239056e+01
2.110000e-06	1.225062e-06	3.635939e-10	8.515084e+00	2.394825e+01
2.120000e-06	1.270654e-06	3.892160e-10	8.831981e+00	2.549505e+01
2.130000e-06	1.316200e-06	4.129684e-10	9.148558e+00	2.702983e+01
2.140000e-06	1.361595e-06	4.340595e-10	9.464087e+00	2.855151e+01
2.150000e-06	1.406857e-06	4.555267e-10	9.778695e+00	3.005905e+01
2.160000e-06	1.452078e-06	4.745965e-10	1.009301e+01	3.155146e+01
2.170000e-06	1.497179e-06	4.923552e-10	1.040650e+01	3.302777e+01
2.180000e-06	1.542074e-06	5.091075e-10	1.071855e+01	3.448709e+01
2.190000e-06	1.586919e-06	5.277267e-10	1.103025e+01	3.592857e+01
2.200000e-06	1.631693e-06	5.488421e-10	1.134147e+01	3.735141e+01
2.210000e-06	1.676267e-06	5.707507e-10	1.165129e+01	3.875485e+01
2.220000e-06	1.720684e-06	5.916407e-10	1.196002e+01	4.013822e+01
2.230000e-06	1.765009e-06	6.089902e-10	1.226812e+01	4.150087e+01
2.240000e-06	1.809275e-06	6.257366e-10	1.257579e+01	4.284224e+01
2.250000e-06	1.853479e-06	6.423040e-10	1.288304e+01	4.416180e+01
2.260000e-06	1.897632e-06	6.594776e-10	1.318994e+01	4.545908e+01
2.270000e-06	1.941672e-06	6.771104e-10	1.349605e+01	4.673369e+01
2.280000e-06	1.985591e-06	6.935924e-10	1.380132e+01	4.798528e+01
2.290000e-06	2.029412e-06	7.104435e-10	1.410591e+01	4.921355e+01
2.300000e-06	2.073188e-06	7.273988e-10	1.441018e+01	5.041828e+01
2.310000e-06	2.116886e-06	7.426339e-10	1.471392e+01	5.159929e+01
2.320000e-06	2.160490e-06	7.567648e-10	1.501700e+01	5.275645e+01
2.330000e-06	2.204004e-06	7.734940e-10	1.531945e+01	5.388969e+01
2.340000e-06	2.247391e-06	7.889018e-10	1.562102e+01	5.499899e+01
2.350000e-06	2.290514e-06	8.026924e-10	1.592076e+01	5.608439e+01
2.360000e-06	2.333347e-06	8.166416e-10	1.621848e+01	5.714596e+01
2.370000e-06	2.376058e-06	8.318632e-10	1.651535e+01	5.818384e+01
2.380000e-06	2.418605e-06	8.466915e-10	1.681109e+01	5.919818e+01
2.390000e-06	2.460758e-06	8.615957e-10	1.710408e+01	6.018921e+01
2.400000e-06	2.502521e-06	8.751265e-10	1.739437e+01	6.115717e+01
2.410000e-06	2.543976e-06	8.865906e-10	1.768251e+01	6.210236e+01
2.420000e-06	2.585038e-06	8.990087e-10	1.796792e+01	6.302509e+01
2.430000e-06	2.625847e-06	9.124211e-10	1.825157e+01	6.392572e+01
2.440000e-06	2.666463e-06	9.267645e-10	1.853389e+01	6.480465e+01
2.450000e-06	2.706843e-06	9.384329e-10	1.881455e+01	6.566227e+01
2.460000e-06	2.747079e-06	9.478698e-10	1.909423e+01	6.649903e+01
2.470000e-06	2.787238e-06	9.576633e-10	1.937336e+01	6.731538e+01
2.480000e-06	2.827265e-06	9.670126e-10	1.965158e+01	6.811180e+01
2.490000e-06	2.867170e-06	9.754152e-10	1.992894e+01	6.888879e+01
2.500000e-06	2.907007e-06	9.855537e-10	2.020584e+01	6.964684e+01
2.510000e-06	2.946665e-06	9.990664e-10	2.048149e+01	7.038648e+01
2.520000e-06	2.986092e-06	1.012067e-09	2.075554e+01	7.110823e+01
2.530000e-06	3.025331e-06	1.021796e-09	2.102828e+01	7.181261e+01
2.540000e-06	3.064323e-06	1.032006e-09	2.129930e+01	7.250017e+01
2.550000e-06	3.103011e-06	1.043640e-09	2.156822e+01	7.317143e+01
2.560000e-06	3.141462e-06	1.054384e-09	2.183548e+01	7.382693e+01
2.570000e-06	3.179660e-06	1.063721e-09	2.210098e+01	7.446719e+01
2.580000e-06	3.217645e-06	1.074619e-09	2.236501e+01	7.509274e+01
2.590000e-06	3.255490e-06	1.086164e-09	2.262806e+01	7.570409e+01
2.600000e-06	3.293132e-06	1.095385e-09	2.288969e+01	7.630173e+01
2.610000e-06	3.330529e-06	1.102742e-09	2.314963e+01	7.688617e+01
2.620000e-06	3.367683e-06	1.108616e-09	2.340788e+01	7.745789e+01
2.630000e-06	3.404673e-06	1.116058e-09	2.366499e+01	7.801733e+01
2.640000e-06	3.441469e-06	1.125188e-09	2.392075e+01	7.856496e+01
2.650000e-06	3.477966e-06	1.134132e-09	2.417443e+01	7.910121e+01
2.660000e-06	3.514195e-06	1.143566e-09	2.442625e+01	7.962647e+01
2.670000e-06	3.550241e-06	1.151037e-09	2.467679e+01	8.014116e+01
2.680000e-06	3.586133e-06	1.157704e-09	2.492627e+01	8.064564e+01
2.690000e-06	3.621920e-06	1.162196e-09	2.517502e+01	8.114026e+01
2.700000e-06	3.657539e-06	1.165129e-09	2.542259e+01	8.162536e+01
2.710000e-06	3.692988e-06	1.171867e-09	2.566899e+01	8.210124e+01
2.720000e-06	3.728178e-06	1.182553e-09	2.591358e+01	8.256819e+01
2.730000e-06	3.762966e-06	1.193578e-09	2.615539e+01	8.302649e+01
2.740000e-06	3.797383e-06	1.203655e-09	2.639461e+01	8.347637e+01
2.750000e-06	3.831373e-06	1.210408e-09	2.663087e+01	8.391807e+01
2.760000e-06	3.864941e-06	1.213888e-09	2.686419e+01	8.435178e+01
2.770000e-06	3.898083e-06	1.216214e-09	2.709455e+01	8.477769e+01
2.780000e-06	3.930729e-06	1.219450e-09	2.732147e+01	8.519597e+01
2.790000e-06	3.963005e-06	1.226666e-09	2.754581e+01	8.560675e+01
2.800000e-06	3.995083e-06	1.234398e-09	2.776877e+01	8.601017e+01
2.810000e-06	4.027011e-06	1.240998e-09	2.799070e+01	8.640634e+01
2.820000e-06	4.058816e-06	1.246531e-09	2.821177e+01	8.679535e+01
2.830000e-06	4.090434e-06	1.252277e-09	2.843153e+01	8.717727e+01
2.840000e-06	4.121758e-06	1.258439e-09	2.864925e+01	8.755218e+01
2.850000e-06	4.152800e-06	1.262206e-09	2.886502e+01	8.792011e+01
2.860000e-06	4.183555e-06	1.267288e-09	2.907879e+01	8.828112e+01
2.870000e-06	4.213920e-06	1.275054e-09	2.928985e+01	8.863522e+01
2.880000e-06	4.243990e-06	1.281262e-09	2.949886e+01	8.898244e+01
2.890000e-06	4.273827e-06	1.284128e-09	2.970625e+01	8.932278e+01
2.900000e-06	4.303404e-06	1.285869e-09	2.991183e+01	8.965625e+01
