# Temperatura_=_-0.35
# Concentracion g/m^3_=_1620.0
# C_Vs_to_Am_M_A/Vsm_=_65563218390.804596
# pendiente_HvsI_1/m_=_3716.3
# ordenada_HvsI_A/m_=_1297.0
# frecuencia_Hz_=_135086.0727733012

Tiempo_(s)	Campo_(V.s)	Magnetizacion_(V.s)	Campo_(kA/m)	Magnetizacion_(A/m)
0.000000e+00	-5.521234e-06	-1.685429e-09	-3.837089e+01	-1.100261e+02
1.000000e-08	-5.521558e-06	-1.684118e-09	-3.837314e+01	-1.099605e+02
2.000000e-08	-5.521615e-06	-1.680076e-09	-3.837354e+01	-1.098927e+02
3.000000e-08	-5.521301e-06	-1.676842e-09	-3.837136e+01	-1.098226e+02
4.000000e-08	-5.520521e-06	-1.673916e-09	-3.836594e+01	-1.097505e+02
5.000000e-08	-5.519264e-06	-1.669398e-09	-3.835720e+01	-1.096765e+02
6.000000e-08	-5.517373e-06	-1.663858e-09	-3.834406e+01	-1.096008e+02
7.000000e-08	-5.514717e-06	-1.658904e-09	-3.832560e+01	-1.095235e+02
8.000000e-08	-5.511499e-06	-1.688768e-09	-3.830324e+01	-1.094447e+02
9.000000e-08	-5.507861e-06	-1.711804e-09	-3.827796e+01	-1.093646e+02
1.000000e-07	-5.503806e-06	-1.672064e-09	-3.824977e+01	-1.092831e+02
1.100000e-07	-5.499460e-06	-1.632776e-09	-3.821957e+01	-1.092005e+02
1.200000e-07	-5.494998e-06	-1.655744e-09	-3.818856e+01	-1.091168e+02
1.300000e-07	-5.490369e-06	-1.710369e-09	-3.815639e+01	-1.090321e+02
1.400000e-07	-5.485268e-06	-1.660431e-09	-3.812094e+01	-1.089464e+02
1.500000e-07	-5.479693e-06	-1.610469e-09	-3.808219e+01	-1.088597e+02
1.600000e-07	-5.473812e-06	-1.668770e-09	-3.804133e+01	-1.087720e+02
1.700000e-07	-5.467413e-06	-1.713087e-09	-3.799686e+01	-1.086834e+02
1.800000e-07	-5.460537e-06	-1.696898e-09	-3.794907e+01	-1.085939e+02
1.900000e-07	-5.453417e-06	-1.609563e-09	-3.789959e+01	-1.085032e+02
2.000000e-07	-5.446099e-06	-1.635691e-09	-3.784872e+01	-1.084116e+02
2.100000e-07	-5.438536e-06	-1.644081e-09	-3.779616e+01	-1.083187e+02
2.200000e-07	-5.430623e-06	-1.647458e-09	-3.774117e+01	-1.082246e+02
2.300000e-07	-5.422458e-06	-1.596700e-09	-3.768443e+01	-1.081291e+02
2.400000e-07	-5.413914e-06	-1.618713e-09	-3.762506e+01	-1.080321e+02
2.500000e-07	-5.404587e-06	-1.627425e-09	-3.756023e+01	-1.079334e+02
2.600000e-07	-5.394555e-06	-1.631284e-09	-3.749052e+01	-1.078329e+02
2.700000e-07	-5.384033e-06	-1.601308e-09	-3.741739e+01	-1.077305e+02
2.800000e-07	-5.372965e-06	-1.598437e-09	-3.734047e+01	-1.076258e+02
2.900000e-07	-5.361492e-06	-1.594480e-09	-3.726074e+01	-1.075188e+02
3.000000e-07	-5.349723e-06	-1.589677e-09	-3.717894e+01	-1.074091e+02
3.100000e-07	-5.337574e-06	-1.602873e-09	-3.709451e+01	-1.072967e+02
3.200000e-07	-5.324893e-06	-1.597566e-09	-3.700638e+01	-1.071811e+02
3.300000e-07	-5.311711e-06	-1.618160e-09	-3.691477e+01	-1.070623e+02
3.400000e-07	-5.298240e-06	-1.602490e-09	-3.682115e+01	-1.069400e+02
3.500000e-07	-5.284389e-06	-1.600142e-09	-3.672489e+01	-1.068139e+02
3.600000e-07	-5.270150e-06	-1.585178e-09	-3.662594e+01	-1.066838e+02
3.700000e-07	-5.255537e-06	-1.599928e-09	-3.652438e+01	-1.065494e+02
3.800000e-07	-5.240338e-06	-1.570818e-09	-3.641875e+01	-1.064106e+02
3.900000e-07	-5.224461e-06	-1.580689e-09	-3.630841e+01	-1.062671e+02
4.000000e-07	-5.208159e-06	-1.599789e-09	-3.619512e+01	-1.061186e+02
4.100000e-07	-5.191602e-06	-1.594171e-09	-3.608005e+01	-1.059650e+02
4.200000e-07	-5.174678e-06	-1.550186e-09	-3.596244e+01	-1.058060e+02
4.300000e-07	-5.157454e-06	-1.587036e-09	-3.584273e+01	-1.056415e+02
4.400000e-07	-5.139989e-06	-1.592933e-09	-3.572136e+01	-1.054713e+02
4.500000e-07	-5.122174e-06	-1.553323e-09	-3.559755e+01	-1.052952e+02
4.600000e-07	-5.103815e-06	-1.540507e-09	-3.546996e+01	-1.051131e+02
4.700000e-07	-5.084977e-06	-1.594055e-09	-3.533904e+01	-1.049248e+02
4.800000e-07	-5.065829e-06	-1.553513e-09	-3.520597e+01	-1.047303e+02
4.900000e-07	-5.046429e-06	-1.526018e-09	-3.507114e+01	-1.045294e+02
5.000000e-07	-5.026869e-06	-1.558397e-09	-3.493521e+01	-1.043221e+02
5.100000e-07	-5.007111e-06	-1.559017e-09	-3.479790e+01	-1.041083e+02
5.200000e-07	-4.987028e-06	-1.505395e-09	-3.465832e+01	-1.038880e+02
5.300000e-07	-4.966551e-06	-1.541737e-09	-3.451602e+01	-1.036612e+02
5.400000e-07	-4.945716e-06	-1.563103e-09	-3.437122e+01	-1.034278e+02
5.500000e-07	-4.924510e-06	-1.512597e-09	-3.422384e+01	-1.031880e+02
5.600000e-07	-4.902963e-06	-1.505435e-09	-3.407410e+01	-1.029418e+02
5.700000e-07	-4.881077e-06	-1.544072e-09	-3.392200e+01	-1.026891e+02
5.800000e-07	-4.858788e-06	-1.509478e-09	-3.376710e+01	-1.024302e+02
5.900000e-07	-4.836101e-06	-1.482768e-09	-3.360943e+01	-1.021650e+02
6.000000e-07	-4.813060e-06	-1.520491e-09	-3.344930e+01	-1.018938e+02
6.100000e-07	-4.789836e-06	-1.515933e-09	-3.328790e+01	-1.016165e+02
6.200000e-07	-4.766430e-06	-1.488425e-09	-3.312524e+01	-1.013334e+02
6.300000e-07	-4.742770e-06	-1.504378e-09	-3.296081e+01	-1.010446e+02
6.400000e-07	-4.718887e-06	-1.510662e-09	-3.279482e+01	-1.007502e+02
6.500000e-07	-4.694619e-06	-1.473769e-09	-3.262617e+01	-1.004505e+02
6.600000e-07	-4.669830e-06	-1.485046e-09	-3.245390e+01	-1.001454e+02
6.700000e-07	-4.644527e-06	-1.492013e-09	-3.227805e+01	-9.983531e+01
6.800000e-07	-4.618693e-06	-1.471722e-09	-3.209851e+01	-9.952025e+01
6.900000e-07	-4.592265e-06	-1.460009e-09	-3.191484e+01	-9.920042e+01
7.000000e-07	-4.565347e-06	-1.476850e-09	-3.172777e+01	-9.887597e+01
7.100000e-07	-4.538200e-06	-1.456532e-09	-3.153910e+01	-9.854703e+01
7.200000e-07	-4.510848e-06	-1.449196e-09	-3.134902e+01	-9.821376e+01
7.300000e-07	-4.483251e-06	-1.452133e-09	-3.115723e+01	-9.787627e+01
7.400000e-07	-4.455436e-06	-1.447554e-09	-3.096392e+01	-9.753469e+01
7.500000e-07	-4.427369e-06	-1.429820e-09	-3.076887e+01	-9.718912e+01
7.600000e-07	-4.399022e-06	-1.435447e-09	-3.057186e+01	-9.683964e+01
7.700000e-07	-4.370401e-06	-1.423939e-09	-3.037295e+01	-9.648634e+01
7.800000e-07	-4.341479e-06	-1.410574e-09	-3.017195e+01	-9.612927e+01
7.900000e-07	-4.312234e-06	-1.404167e-09	-2.996871e+01	-9.576846e+01
8.000000e-07	-4.282691e-06	-1.401890e-09	-2.976339e+01	-9.540395e+01
8.100000e-07	-4.252818e-06	-1.382462e-09	-2.955579e+01	-9.503574e+01
8.200000e-07	-4.222648e-06	-1.376985e-09	-2.934612e+01	-9.466381e+01
8.300000e-07	-4.192205e-06	-1.377279e-09	-2.913455e+01	-9.428813e+01
8.400000e-07	-4.161448e-06	-1.368378e-09	-2.892080e+01	-9.390864e+01
8.500000e-07	-4.130446e-06	-1.359140e-09	-2.870534e+01	-9.352528e+01
8.600000e-07	-4.099211e-06	-1.359151e-09	-2.848827e+01	-9.313796e+01
8.700000e-07	-4.067721e-06	-1.351905e-09	-2.826942e+01	-9.274657e+01
8.800000e-07	-4.036135e-06	-1.338532e-09	-2.804991e+01	-9.235099e+01
8.900000e-07	-4.004477e-06	-1.336198e-09	-2.782989e+01	-9.195108e+01
9.000000e-07	-3.972649e-06	-1.330596e-09	-2.760870e+01	-9.154671e+01
9.100000e-07	-3.940408e-06	-1.317478e-09	-2.738463e+01	-9.113770e+01
9.200000e-07	-3.907735e-06	-1.309120e-09	-2.715756e+01	-9.072389e+01
9.300000e-07	-3.874729e-06	-1.308497e-09	-2.692818e+01	-9.030510e+01
9.400000e-07	-3.841138e-06	-1.297997e-09	-2.669474e+01	-8.988115e+01
9.500000e-07	-3.806970e-06	-1.291315e-09	-2.645728e+01	-8.945183e+01
9.600000e-07	-3.772345e-06	-1.288154e-09	-2.621665e+01	-8.901697e+01
9.700000e-07	-3.737437e-06	-1.281705e-09	-2.597405e+01	-8.857636e+01
9.800000e-07	-3.702300e-06	-1.266339e-09	-2.572986e+01	-8.812983e+01
9.900000e-07	-3.666941e-06	-1.264082e-09	-2.548412e+01	-8.767717e+01
1.000000e-06	-3.631456e-06	-1.258429e-09	-2.523751e+01	-8.721820e+01
1.010000e-06	-3.595834e-06	-1.249660e-09	-2.498995e+01	-8.675276e+01
1.020000e-06	-3.560050e-06	-1.241978e-09	-2.474126e+01	-8.628068e+01
1.030000e-06	-3.524097e-06	-1.241483e-09	-2.449140e+01	-8.580179e+01
1.040000e-06	-3.487931e-06	-1.230390e-09	-2.424006e+01	-8.531597e+01
1.050000e-06	-3.451467e-06	-1.222904e-09	-2.398664e+01	-8.482308e+01
1.060000e-06	-3.414735e-06	-1.215768e-09	-2.373137e+01	-8.432300e+01
1.070000e-06	-3.377853e-06	-1.205061e-09	-2.347505e+01	-8.381565e+01
1.080000e-06	-3.340727e-06	-1.189497e-09	-2.321704e+01	-8.330094e+01
1.090000e-06	-3.303271e-06	-1.184298e-09	-2.295672e+01	-8.277882e+01
1.100000e-06	-3.265558e-06	-1.179191e-09	-2.269463e+01	-8.224923e+01
1.110000e-06	-3.227527e-06	-1.170573e-09	-2.243033e+01	-8.171217e+01
1.120000e-06	-3.189300e-06	-1.163073e-09	-2.216467e+01	-8.116761e+01
1.130000e-06	-3.150958e-06	-1.157841e-09	-2.189820e+01	-8.061557e+01
1.140000e-06	-3.112406e-06	-1.148034e-09	-2.163027e+01	-8.005609e+01
1.150000e-06	-3.073612e-06	-1.136343e-09	-2.136067e+01	-7.948920e+01
1.160000e-06	-3.034591e-06	-1.126480e-09	-2.108948e+01	-7.891497e+01
1.170000e-06	-2.995428e-06	-1.116894e-09	-2.081731e+01	-7.833348e+01
1.180000e-06	-2.956132e-06	-1.105700e-09	-2.054421e+01	-7.774481e+01
1.190000e-06	-2.916621e-06	-1.099241e-09	-2.026962e+01	-7.714907e+01
1.200000e-06	-2.876945e-06	-1.096320e-09	-1.999389e+01	-7.654635e+01
1.210000e-06	-2.837231e-06	-1.089310e-09	-1.971789e+01	-7.593677e+01
1.220000e-06	-2.797386e-06	-1.082715e-09	-1.944098e+01	-7.532046e+01
1.230000e-06	-2.757402e-06	-1.071374e-09	-1.916311e+01	-7.469752e+01
1.240000e-06	-2.717259e-06	-1.056816e-09	-1.888412e+01	-7.406808e+01
1.250000e-06	-2.676749e-06	-1.043209e-09	-1.860259e+01	-7.343225e+01
1.260000e-06	-2.635975e-06	-1.034408e-09	-1.831922e+01	-7.279013e+01
1.270000e-06	-2.595003e-06	-1.023231e-09	-1.803448e+01	-7.214183e+01
1.280000e-06	-2.553639e-06	-1.014342e-09	-1.774701e+01	-7.148743e+01
1.290000e-06	-2.511981e-06	-1.005166e-09	-1.745750e+01	-7.082699e+01
1.300000e-06	-2.470119e-06	-9.962133e-10	-1.716657e+01	-7.016056e+01
1.310000e-06	-2.427946e-06	-9.816287e-10	-1.687348e+01	-6.948817e+01
1.320000e-06	-2.385483e-06	-9.676360e-10	-1.657838e+01	-6.880983e+01
1.330000e-06	-2.342800e-06	-9.556229e-10	-1.628174e+01	-6.812551e+01
1.340000e-06	-2.299887e-06	-9.474499e-10	-1.598352e+01	-6.743516e+01
1.350000e-06	-2.256785e-06	-9.403448e-10	-1.568397e+01	-6.673869e+01
1.360000e-06	-2.213530e-06	-9.331009e-10	-1.538336e+01	-6.603599e+01
1.370000e-06	-2.170121e-06	-9.225157e-10	-1.508168e+01	-6.532691e+01
1.380000e-06	-2.126616e-06	-9.115211e-10	-1.477933e+01	-6.461125e+01
1.390000e-06	-2.083031e-06	-8.952898e-10	-1.447643e+01	-6.388880e+01
1.400000e-06	-2.039356e-06	-8.784365e-10	-1.417290e+01	-6.315927e+01
1.410000e-06	-1.995644e-06	-8.644929e-10	-1.386911e+01	-6.242238e+01
1.420000e-06	-1.951879e-06	-8.560522e-10	-1.356497e+01	-6.167777e+01
1.430000e-06	-1.907952e-06	-8.482575e-10	-1.325969e+01	-6.092507e+01
1.440000e-06	-1.863883e-06	-8.374155e-10	-1.295342e+01	-6.016384e+01
1.450000e-06	-1.819683e-06	-8.239657e-10	-1.264624e+01	-5.939363e+01
1.460000e-06	-1.775278e-06	-8.079521e-10	-1.233764e+01	-5.861394e+01
1.470000e-06	-1.730756e-06	-7.920981e-10	-1.202823e+01	-5.782424e+01
1.480000e-06	-1.686190e-06	-7.787520e-10	-1.171850e+01	-5.702396e+01
1.490000e-06	-1.641457e-06	-7.682483e-10	-1.140762e+01	-5.621251e+01
1.500000e-06	-1.596598e-06	-7.571812e-10	-1.109587e+01	-5.538926e+01
1.510000e-06	-1.551737e-06	-7.467862e-10	-1.078410e+01	-5.455356e+01
1.520000e-06	-1.506710e-06	-7.350668e-10	-1.047117e+01	-5.370474e+01
1.530000e-06	-1.461458e-06	-7.222861e-10	-1.015669e+01	-5.284211e+01
1.540000e-06	-1.416144e-06	-7.092843e-10	-9.841770e+00	-5.196496e+01
1.550000e-06	-1.370790e-06	-6.963663e-10	-9.526576e+00	-5.107257e+01
1.560000e-06	-1.325375e-06	-6.791452e-10	-9.210954e+00	-5.016423e+01
1.570000e-06	-1.279869e-06	-6.627269e-10	-8.894698e+00	-4.923922e+01
1.580000e-06	-1.234241e-06	-6.471818e-10	-8.577598e+00	-4.829680e+01
1.590000e-06	-1.188476e-06	-6.303851e-10	-8.259546e+00	-4.733627e+01
1.600000e-06	-1.142548e-06	-6.148769e-10	-7.940360e+00	-4.635694e+01
1.610000e-06	-1.096592e-06	-6.030272e-10	-7.620979e+00	-4.535811e+01
1.620000e-06	-1.050667e-06	-5.887928e-10	-7.301817e+00	-4.433912e+01
1.630000e-06	-1.004655e-06	-5.729209e-10	-6.982044e+00	-4.329936e+01
1.640000e-06	-9.585109e-07	-5.571181e-10	-6.661359e+00	-4.223821e+01
1.650000e-06	-9.122882e-07	-5.394970e-10	-6.340125e+00	-4.115511e+01
1.660000e-06	-8.659684e-07	-5.197282e-10	-6.018216e+00	-4.004955e+01
1.670000e-06	-8.196043e-07	-5.033257e-10	-5.696000e+00	-3.892104e+01
1.680000e-06	-7.732874e-07	-4.910803e-10	-5.374112e+00	-3.776918e+01
1.690000e-06	-7.269130e-07	-4.785278e-10	-5.051824e+00	-3.659358e+01
1.700000e-06	-6.804518e-07	-4.628431e-10	-4.728932e+00	-3.539394e+01
1.710000e-06	-6.339673e-07	-4.434291e-10	-4.405879e+00	-3.417002e+01
1.720000e-06	-5.873735e-07	-4.201095e-10	-4.082067e+00	-3.292162e+01
1.730000e-06	-5.406525e-07	-3.968319e-10	-3.757370e+00	-3.164863e+01
1.740000e-06	-4.938877e-07	-3.760503e-10	-3.432369e+00	-3.035102e+01
1.750000e-06	-4.471013e-07	-3.583396e-10	-3.107218e+00	-2.902881e+01
1.760000e-06	-4.003667e-07	-3.423081e-10	-2.782426e+00	-2.768211e+01
1.770000e-06	-3.535880e-07	-3.260741e-10	-2.457329e+00	-2.631109e+01
1.780000e-06	-3.067365e-07	-3.073846e-10	-2.131725e+00	-2.491602e+01
1.790000e-06	-2.599409e-07	-2.859285e-10	-1.806510e+00	-2.349723e+01
1.800000e-06	-2.131602e-07	-2.651768e-10	-1.481399e+00	-2.205513e+01
1.810000e-06	-1.663206e-07	-2.445160e-10	-1.155877e+00	-2.059022e+01
1.820000e-06	-1.194574e-07	-2.232563e-10	-8.301927e-01	-1.910305e+01
1.830000e-06	-7.258915e-08	-2.024258e-10	-5.044725e-01	-1.759427e+01
1.840000e-06	-2.575964e-08	-1.830392e-10	-1.790216e-01	-1.606459e+01
1.850000e-06	2.104822e-08	-1.639172e-10	1.462787e-01	-1.451481e+01
1.860000e-06	6.788827e-08	-1.451061e-10	4.718028e-01	-1.294577e+01
1.870000e-06	1.147895e-07	-1.214820e-10	7.977519e-01	-1.135840e+01
1.880000e-06	1.617417e-07	-9.503671e-11	1.124055e+00	-9.753686e+00
1.890000e-06	2.086769e-07	-7.124594e-11	1.450241e+00	-8.132665e+00
1.900000e-06	2.555415e-07	-5.077795e-11	1.775936e+00	-6.496441e+00
1.910000e-06	3.023411e-07	-3.161329e-11	2.101179e+00	-4.846167e+00
1.920000e-06	3.491190e-07	-1.080671e-11	2.426271e+00	-3.183041e+00
1.930000e-06	3.958293e-07	1.150210e-11	2.750893e+00	-1.508306e+00
1.940000e-06	4.424478e-07	3.368059e-11	3.074878e+00	1.767575e-01
1.950000e-06	4.890364e-07	5.722946e-11	3.398654e+00	1.870836e+00
1.960000e-06	5.356279e-07	8.067645e-11	3.722450e+00	3.572587e+00
1.970000e-06	5.821362e-07	1.036696e-10	4.045669e+00	5.280645e+00
1.980000e-06	6.286450e-07	1.279221e-10	4.368891e+00	6.993628e+00
1.990000e-06	6.750440e-07	1.511612e-10	4.691350e+00	8.710141e+00
2.000000e-06	7.213314e-07	1.711438e-10	5.013034e+00	1.042878e+01
2.010000e-06	7.676031e-07	1.932891e-10	5.334608e+00	1.214814e+01
2.020000e-06	8.137957e-07	2.171134e-10	5.655632e+00	1.386682e+01
2.030000e-06	8.599076e-07	2.435160e-10	5.976095e+00	1.558342e+01
2.040000e-06	9.060566e-07	2.727580e-10	6.296817e+00	1.729657e+01
2.050000e-06	9.521771e-07	3.005999e-10	6.617340e+00	1.900490e+01
2.060000e-06	9.981435e-07	3.265909e-10	6.936793e+00	2.070707e+01
2.070000e-06	1.044064e-06	3.486583e-10	7.255930e+00	2.240177e+01
2.080000e-06	1.089901e-06	3.698305e-10	7.574478e+00	2.408772e+01
2.090000e-06	1.135664e-06	3.911345e-10	7.892515e+00	2.576366e+01
2.100000e-06	1.181358e-06	4.153278e-10	8.210080e+00	2.742840e+01
2.110000e-06	1.227002e-06	4.392390e-10	8.527292e+00	2.908076e+01
2.120000e-06	1.272584e-06	4.618587e-10	8.844070e+00	3.071962e+01
2.130000e-06	1.318126e-06	4.854888e-10	9.160573e+00	3.234392e+01
2.140000e-06	1.363614e-06	5.082593e-10	9.476699e+00	3.395264e+01
2.150000e-06	1.408959e-06	5.280151e-10	9.791834e+00	3.554480e+01
2.160000e-06	1.454212e-06	5.467833e-10	1.010633e+01	3.711951e+01
2.170000e-06	1.499329e-06	5.664810e-10	1.041988e+01	3.867589e+01
2.180000e-06	1.544329e-06	5.880310e-10	1.073262e+01	4.021317e+01
2.190000e-06	1.589221e-06	6.104515e-10	1.104460e+01	4.173061e+01
2.200000e-06	1.633866e-06	6.331320e-10	1.135487e+01	4.322753e+01
2.210000e-06	1.678388e-06	6.547854e-10	1.166429e+01	4.470331e+01
2.220000e-06	1.722852e-06	6.740836e-10	1.197329e+01	4.615741e+01
2.230000e-06	1.767178e-06	6.907793e-10	1.228135e+01	4.758934e+01
2.240000e-06	1.811342e-06	7.063938e-10	1.258828e+01	4.899866e+01
2.250000e-06	1.855420e-06	7.241326e-10	1.289460e+01	5.038501e+01
2.260000e-06	1.899463e-06	7.433750e-10	1.320069e+01	5.174806e+01
2.270000e-06	1.943365e-06	7.613131e-10	1.350579e+01	5.308758e+01
2.280000e-06	1.987142e-06	7.798814e-10	1.381003e+01	5.440336e+01
2.290000e-06	2.030885e-06	7.982178e-10	1.411403e+01	5.569525e+01
2.300000e-06	2.074556e-06	8.130538e-10	1.441753e+01	5.696318e+01
2.310000e-06	2.118158e-06	8.254765e-10	1.472055e+01	5.820710e+01
2.320000e-06	2.161712e-06	8.412913e-10	1.502324e+01	5.942702e+01
2.330000e-06	2.205205e-06	8.605724e-10	1.532550e+01	6.062300e+01
2.340000e-06	2.248597e-06	8.773039e-10	1.562706e+01	6.179515e+01
2.350000e-06	2.291803e-06	8.920253e-10	1.592733e+01	6.294360e+01
2.360000e-06	2.334801e-06	9.061496e-10	1.622615e+01	6.406855e+01
2.370000e-06	2.377593e-06	9.210095e-10	1.652354e+01	6.517022e+01
2.380000e-06	2.420181e-06	9.358459e-10	1.681952e+01	6.624885e+01
2.390000e-06	2.462466e-06	9.529481e-10	1.711339e+01	6.730475e+01
2.400000e-06	2.504400e-06	9.681581e-10	1.740482e+01	6.833822e+01
2.410000e-06	2.546005e-06	9.818742e-10	1.769396e+01	6.934961e+01
2.420000e-06	2.587300e-06	9.966287e-10	1.798095e+01	7.033928e+01
2.430000e-06	2.628256e-06	1.010840e-09	1.826557e+01	7.130763e+01
2.440000e-06	2.668947e-06	1.023281e-09	1.854837e+01	7.225505e+01
2.450000e-06	2.709392e-06	1.033283e-09	1.882945e+01	7.318198e+01
2.460000e-06	2.749598e-06	1.044133e-09	1.910887e+01	7.408884e+01
2.470000e-06	2.789634e-06	1.056840e-09	1.938710e+01	7.497608e+01
2.480000e-06	2.829454e-06	1.070039e-09	1.966384e+01	7.584416e+01
2.490000e-06	2.869139e-06	1.083439e-09	1.993964e+01	7.669354e+01
2.500000e-06	2.908728e-06	1.097147e-09	2.021477e+01	7.752468e+01
2.510000e-06	2.948204e-06	1.109634e-09	2.048912e+01	7.833804e+01
2.520000e-06	2.987569e-06	1.119957e-09	2.076269e+01	7.913410e+01
2.530000e-06	3.026758e-06	1.127774e-09	2.103504e+01	7.991332e+01
2.540000e-06	3.065688e-06	1.137409e-09	2.130559e+01	8.067616e+01
2.550000e-06	3.104420e-06	1.149841e-09	2.157477e+01	8.142307e+01
2.560000e-06	3.142952e-06	1.159702e-09	2.184256e+01	8.215451e+01
2.570000e-06	3.181227e-06	1.168825e-09	2.210856e+01	8.287092e+01
2.580000e-06	3.219298e-06	1.182174e-09	2.237314e+01	8.357272e+01
2.590000e-06	3.257191e-06	1.196012e-09	2.263649e+01	8.426033e+01
2.600000e-06	3.294868e-06	1.205304e-09	2.289833e+01	8.493417e+01
2.610000e-06	3.332322e-06	1.212095e-09	2.315862e+01	8.559463e+01
2.620000e-06	3.369552e-06	1.219804e-09	2.341736e+01	8.624210e+01
2.630000e-06	3.406543e-06	1.229484e-09	2.367444e+01	8.687693e+01
2.640000e-06	3.443309e-06	1.239111e-09	2.392995e+01	8.749950e+01
2.650000e-06	3.479772e-06	1.249526e-09	2.418335e+01	8.811013e+01
2.660000e-06	3.515988e-06	1.260136e-09	2.443505e+01	8.870914e+01
2.670000e-06	3.551962e-06	1.268884e-09	2.468506e+01	8.929685e+01
2.680000e-06	3.587723e-06	1.278693e-09	2.493358e+01	8.987355e+01
2.690000e-06	3.623406e-06	1.287097e-09	2.518156e+01	9.043952e+01
2.700000e-06	3.658961e-06	1.293964e-09	2.542866e+01	9.099501e+01
2.710000e-06	3.694364e-06	1.300883e-09	2.567470e+01	9.154026e+01
2.720000e-06	3.729551e-06	1.309397e-09	2.591924e+01	9.207552e+01
2.730000e-06	3.764464e-06	1.317800e-09	2.616188e+01	9.260098e+01
2.740000e-06	3.799002e-06	1.325532e-09	2.640191e+01	9.311686e+01
2.750000e-06	3.832996e-06	1.333051e-09	2.663816e+01	9.362334e+01
2.760000e-06	3.866629e-06	1.340748e-09	2.687189e+01	9.412058e+01
2.770000e-06	3.899848e-06	1.348304e-09	2.710276e+01	9.460875e+01
2.780000e-06	3.932625e-06	1.352832e-09	2.733055e+01	9.508799e+01
2.790000e-06	3.964983e-06	1.358852e-09	2.755542e+01	9.555843e+01
2.800000e-06	3.996885e-06	1.367407e-09	2.777713e+01	9.602020e+01
2.810000e-06	4.028598e-06	1.376707e-09	2.799753e+01	9.647341e+01
2.820000e-06	4.060218e-06	1.384842e-09	2.821728e+01	9.691815e+01
2.830000e-06	4.091711e-06	1.390739e-09	2.843614e+01	9.735453e+01
2.840000e-06	4.123104e-06	1.396127e-09	2.865432e+01	9.778263e+01
2.850000e-06	4.154292e-06	1.398534e-09	2.887106e+01	9.820253e+01
2.860000e-06	4.185056e-06	1.400093e-09	2.908486e+01	9.861428e+01
2.870000e-06	4.215519e-06	1.406676e-09	2.929657e+01	9.901797e+01
2.880000e-06	4.245706e-06	1.415773e-09	2.950636e+01	9.941366e+01
2.890000e-06	4.275489e-06	1.422973e-09	2.971334e+01	9.980139e+01
2.900000e-06	4.304982e-06	1.428132e-09	2.991831e+01	1.001812e+02
