# Temperatura_=_-0.34
# Concentracion g/m^3_=_1620.0
# C_Vs_to_Am_M_A/Vsm_=_65563218390.804596
# pendiente_HvsI_1/m_=_3716.3
# ordenada_HvsI_A/m_=_1297.0
# frecuencia_Hz_=_135093.6851525896

Tiempo_(s)	Campo_(V.s)	Magnetizacion_(V.s)	Campo_(kA/m)	Magnetizacion_(A/m)
0.000000e+00	-5.502617e-06	-1.736173e-09	-3.838153e+01	-1.112835e+02
1.000000e-08	-5.502795e-06	-1.732232e-09	-3.838277e+01	-1.112533e+02
2.000000e-08	-5.502604e-06	-1.730068e-09	-3.838144e+01	-1.112192e+02
3.000000e-08	-5.501948e-06	-1.729397e-09	-3.837687e+01	-1.111812e+02
4.000000e-08	-5.500794e-06	-1.730060e-09	-3.836882e+01	-1.111393e+02
5.000000e-08	-5.499078e-06	-1.734601e-09	-3.835685e+01	-1.110938e+02
6.000000e-08	-5.496852e-06	-1.742352e-09	-3.834132e+01	-1.110445e+02
7.000000e-08	-5.494065e-06	-1.745643e-09	-3.832188e+01	-1.109915e+02
8.000000e-08	-5.490790e-06	-1.738202e-09	-3.829904e+01	-1.109349e+02
9.000000e-08	-5.487138e-06	-1.697712e-09	-3.827357e+01	-1.108747e+02
1.000000e-07	-5.483050e-06	-1.665494e-09	-3.824505e+01	-1.108109e+02
1.100000e-07	-5.478708e-06	-1.783497e-09	-3.821476e+01	-1.107436e+02
1.200000e-07	-5.474077e-06	-1.812169e-09	-3.818246e+01	-1.106727e+02
1.300000e-07	-5.469148e-06	-1.703259e-09	-3.814808e+01	-1.105982e+02
1.400000e-07	-5.463929e-06	-1.652168e-09	-3.811168e+01	-1.105202e+02
1.500000e-07	-5.458321e-06	-1.720274e-09	-3.807256e+01	-1.104387e+02
1.600000e-07	-5.452274e-06	-1.820855e-09	-3.803038e+01	-1.103535e+02
1.700000e-07	-5.445680e-06	-1.689141e-09	-3.798439e+01	-1.102647e+02
1.800000e-07	-5.438785e-06	-1.676299e-09	-3.793629e+01	-1.101723e+02
1.900000e-07	-5.431627e-06	-1.702153e-09	-3.788637e+01	-1.100761e+02
2.000000e-07	-5.424127e-06	-1.768843e-09	-3.783405e+01	-1.099763e+02
2.100000e-07	-5.416313e-06	-1.672466e-09	-3.777955e+01	-1.098726e+02
2.200000e-07	-5.408253e-06	-1.648030e-09	-3.772333e+01	-1.097651e+02
2.300000e-07	-5.399958e-06	-1.649443e-09	-3.766547e+01	-1.096537e+02
2.400000e-07	-5.391109e-06	-1.689683e-09	-3.760375e+01	-1.095382e+02
2.500000e-07	-5.381521e-06	-1.655374e-09	-3.753687e+01	-1.094188e+02
2.600000e-07	-5.371421e-06	-1.630668e-09	-3.746642e+01	-1.092952e+02
2.700000e-07	-5.360720e-06	-1.635257e-09	-3.739178e+01	-1.091674e+02
2.800000e-07	-5.349454e-06	-1.624432e-09	-3.731320e+01	-1.090354e+02
2.900000e-07	-5.337939e-06	-1.622899e-09	-3.723288e+01	-1.088990e+02
3.000000e-07	-5.326029e-06	-1.607876e-09	-3.714980e+01	-1.087582e+02
3.100000e-07	-5.313625e-06	-1.636766e-09	-3.706329e+01	-1.086129e+02
3.200000e-07	-5.300864e-06	-1.626950e-09	-3.697427e+01	-1.084630e+02
3.300000e-07	-5.287713e-06	-1.651053e-09	-3.688254e+01	-1.083085e+02
3.400000e-07	-5.274077e-06	-1.587475e-09	-3.678744e+01	-1.081493e+02
3.500000e-07	-5.260049e-06	-1.598655e-09	-3.668959e+01	-1.079854e+02
3.600000e-07	-5.245721e-06	-1.599965e-09	-3.658965e+01	-1.078166e+02
3.700000e-07	-5.230971e-06	-1.606659e-09	-3.648676e+01	-1.076429e+02
3.800000e-07	-5.215566e-06	-1.563148e-09	-3.637931e+01	-1.074644e+02
3.900000e-07	-5.199635e-06	-1.634456e-09	-3.626819e+01	-1.072808e+02
4.000000e-07	-5.183350e-06	-1.616134e-09	-3.615460e+01	-1.070923e+02
4.100000e-07	-5.166682e-06	-1.564563e-09	-3.603834e+01	-1.068988e+02
4.200000e-07	-5.149667e-06	-1.576656e-09	-3.591965e+01	-1.067002e+02
4.300000e-07	-5.132434e-06	-1.641519e-09	-3.579945e+01	-1.064965e+02
4.400000e-07	-5.114776e-06	-1.544963e-09	-3.567628e+01	-1.062877e+02
4.500000e-07	-5.096594e-06	-1.527606e-09	-3.554946e+01	-1.060739e+02
4.600000e-07	-5.078014e-06	-1.616752e-09	-3.541987e+01	-1.058550e+02
4.700000e-07	-5.059081e-06	-1.600053e-09	-3.528781e+01	-1.056310e+02
4.800000e-07	-5.039836e-06	-1.498374e-09	-3.515357e+01	-1.054020e+02
4.900000e-07	-5.020345e-06	-1.568190e-09	-3.501762e+01	-1.051679e+02
5.000000e-07	-5.000686e-06	-1.601379e-09	-3.488049e+01	-1.049288e+02
5.100000e-07	-4.980800e-06	-1.505143e-09	-3.474178e+01	-1.046847e+02
5.200000e-07	-4.960593e-06	-1.522780e-09	-3.460083e+01	-1.044356e+02
5.300000e-07	-4.940086e-06	-1.602018e-09	-3.445780e+01	-1.041816e+02
5.400000e-07	-4.919185e-06	-1.518630e-09	-3.431201e+01	-1.039228e+02
5.500000e-07	-4.897924e-06	-1.476449e-09	-3.416371e+01	-1.036590e+02
5.600000e-07	-4.876351e-06	-1.569678e-09	-3.401324e+01	-1.033904e+02
5.700000e-07	-4.854404e-06	-1.533434e-09	-3.386016e+01	-1.031171e+02
5.800000e-07	-4.832149e-06	-1.459782e-09	-3.370492e+01	-1.028390e+02
5.900000e-07	-4.809647e-06	-1.523532e-09	-3.354797e+01	-1.025562e+02
6.000000e-07	-4.786719e-06	-1.555233e-09	-3.338804e+01	-1.022687e+02
6.100000e-07	-4.763302e-06	-1.471774e-09	-3.322471e+01	-1.019766e+02
6.200000e-07	-4.739693e-06	-1.497985e-09	-3.306003e+01	-1.016799e+02
6.300000e-07	-4.715935e-06	-1.531827e-09	-3.289432e+01	-1.013785e+02
6.400000e-07	-4.691908e-06	-1.477543e-09	-3.272672e+01	-1.010726e+02
6.500000e-07	-4.667494e-06	-1.451083e-09	-3.255643e+01	-1.007621e+02
6.600000e-07	-4.642605e-06	-1.500714e-09	-3.238282e+01	-1.004471e+02
6.700000e-07	-4.617166e-06	-1.464217e-09	-3.220538e+01	-1.001276e+02
6.800000e-07	-4.591219e-06	-1.439150e-09	-3.202440e+01	-9.980343e+01
6.900000e-07	-4.564730e-06	-1.462484e-09	-3.183964e+01	-9.947474e+01
7.000000e-07	-4.537758e-06	-1.466429e-09	-3.165150e+01	-9.914147e+01
7.100000e-07	-4.510524e-06	-1.423798e-09	-3.146154e+01	-9.880359e+01
7.200000e-07	-4.483088e-06	-1.439545e-09	-3.127017e+01	-9.846108e+01
7.300000e-07	-4.455497e-06	-1.443252e-09	-3.107772e+01	-9.811388e+01
7.400000e-07	-4.427731e-06	-1.420478e-09	-3.088405e+01	-9.776197e+01
7.500000e-07	-4.399693e-06	-1.408489e-09	-3.068848e+01	-9.740528e+01
7.600000e-07	-4.371345e-06	-1.421699e-09	-3.049075e+01	-9.704376e+01
7.700000e-07	-4.342665e-06	-1.399274e-09	-3.029070e+01	-9.667734e+01
7.800000e-07	-4.313680e-06	-1.386953e-09	-3.008853e+01	-9.630596e+01
7.900000e-07	-4.284383e-06	-1.394025e-09	-2.988418e+01	-9.592954e+01
8.000000e-07	-4.254841e-06	-1.387424e-09	-2.967812e+01	-9.554800e+01
8.100000e-07	-4.225094e-06	-1.367530e-09	-2.947063e+01	-9.516126e+01
8.200000e-07	-4.195004e-06	-1.368814e-09	-2.926075e+01	-9.476923e+01
8.300000e-07	-4.164483e-06	-1.365681e-09	-2.904786e+01	-9.437182e+01
8.400000e-07	-4.133615e-06	-1.346820e-09	-2.883255e+01	-9.396895e+01
8.500000e-07	-4.102570e-06	-1.347344e-09	-2.861601e+01	-9.356052e+01
8.600000e-07	-4.071295e-06	-1.349619e-09	-2.839786e+01	-9.314645e+01
8.700000e-07	-4.039816e-06	-1.336106e-09	-2.817829e+01	-9.272664e+01
8.800000e-07	-4.008256e-06	-1.325176e-09	-2.795815e+01	-9.230101e+01
8.900000e-07	-3.976544e-06	-1.326176e-09	-2.773696e+01	-9.186948e+01
9.000000e-07	-3.944623e-06	-1.305016e-09	-2.751430e+01	-9.143196e+01
9.100000e-07	-3.912374e-06	-1.295094e-09	-2.728936e+01	-9.098837e+01
9.200000e-07	-3.879723e-06	-1.293522e-09	-2.706161e+01	-9.053865e+01
9.300000e-07	-3.846707e-06	-1.293093e-09	-2.683133e+01	-9.008272e+01
9.400000e-07	-3.813204e-06	-1.279857e-09	-2.659764e+01	-8.962054e+01
9.500000e-07	-3.779164e-06	-1.283991e-09	-2.636020e+01	-8.915204e+01
9.600000e-07	-3.744742e-06	-1.273699e-09	-2.612010e+01	-8.867719e+01
9.700000e-07	-3.709942e-06	-1.254057e-09	-2.587737e+01	-8.819594e+01
9.800000e-07	-3.674752e-06	-1.238753e-09	-2.563191e+01	-8.770827e+01
9.900000e-07	-3.639333e-06	-1.239267e-09	-2.538486e+01	-8.721416e+01
1.000000e-06	-3.603805e-06	-1.227974e-09	-2.513705e+01	-8.671361e+01
1.010000e-06	-3.568179e-06	-1.226027e-09	-2.488855e+01	-8.620660e+01
1.020000e-06	-3.532455e-06	-1.231129e-09	-2.463937e+01	-8.569316e+01
1.030000e-06	-3.496559e-06	-1.227191e-09	-2.438900e+01	-8.517330e+01
1.040000e-06	-3.460375e-06	-1.208187e-09	-2.413660e+01	-8.464704e+01
1.050000e-06	-3.423929e-06	-1.199525e-09	-2.388239e+01	-8.411442e+01
1.060000e-06	-3.387249e-06	-1.184172e-09	-2.362654e+01	-8.357549e+01
1.070000e-06	-3.350334e-06	-1.167115e-09	-2.336905e+01	-8.303029e+01
1.080000e-06	-3.313170e-06	-1.165343e-09	-2.310983e+01	-8.247889e+01
1.090000e-06	-3.275721e-06	-1.169828e-09	-2.284862e+01	-8.192136e+01
1.100000e-06	-3.238060e-06	-1.160988e-09	-2.258593e+01	-8.135775e+01
1.110000e-06	-3.200217e-06	-1.146299e-09	-2.232196e+01	-8.078816e+01
1.120000e-06	-3.162135e-06	-1.141760e-09	-2.205634e+01	-8.021265e+01
1.130000e-06	-3.123784e-06	-1.128589e-09	-2.178884e+01	-7.963131e+01
1.140000e-06	-3.085209e-06	-1.112066e-09	-2.151977e+01	-7.904422e+01
1.150000e-06	-3.046403e-06	-1.104066e-09	-2.124909e+01	-7.845146e+01
1.160000e-06	-3.007335e-06	-1.102305e-09	-2.097659e+01	-7.785312e+01
1.170000e-06	-2.968065e-06	-1.092579e-09	-2.070267e+01	-7.724927e+01
1.180000e-06	-2.928697e-06	-1.083930e-09	-2.042808e+01	-7.663999e+01
1.190000e-06	-2.889285e-06	-1.075466e-09	-2.015317e+01	-7.602534e+01
1.200000e-06	-2.849707e-06	-1.066447e-09	-1.987711e+01	-7.540539e+01
1.210000e-06	-2.810010e-06	-1.054557e-09	-1.960021e+01	-7.478018e+01
1.220000e-06	-2.770164e-06	-1.049467e-09	-1.932228e+01	-7.414977e+01
1.230000e-06	-2.730172e-06	-1.040306e-09	-1.904334e+01	-7.351418e+01
1.240000e-06	-2.690003e-06	-1.028273e-09	-1.876315e+01	-7.287343e+01
1.250000e-06	-2.649549e-06	-1.015004e-09	-1.848098e+01	-7.222751e+01
1.260000e-06	-2.608971e-06	-1.003737e-09	-1.819794e+01	-7.157643e+01
1.270000e-06	-2.568034e-06	-9.917068e-10	-1.791240e+01	-7.092015e+01
1.280000e-06	-2.526709e-06	-9.847962e-10	-1.762415e+01	-7.025861e+01
1.290000e-06	-2.485086e-06	-9.775210e-10	-1.733382e+01	-6.959175e+01
1.300000e-06	-2.443176e-06	-9.668128e-10	-1.704150e+01	-6.891948e+01
1.310000e-06	-2.401099e-06	-9.490311e-10	-1.674801e+01	-6.824168e+01
1.320000e-06	-2.358752e-06	-9.334649e-10	-1.645263e+01	-6.755823e+01
1.330000e-06	-2.316018e-06	-9.190061e-10	-1.615455e+01	-6.686895e+01
1.340000e-06	-2.272971e-06	-9.068009e-10	-1.585430e+01	-6.617367e+01
1.350000e-06	-2.229845e-06	-8.988896e-10	-1.555348e+01	-6.547218e+01
1.360000e-06	-2.186648e-06	-8.921539e-10	-1.525218e+01	-6.476425e+01
1.370000e-06	-2.143287e-06	-8.813068e-10	-1.494973e+01	-6.404960e+01
1.380000e-06	-2.099773e-06	-8.675467e-10	-1.464621e+01	-6.332797e+01
1.390000e-06	-2.056188e-06	-8.524972e-10	-1.434220e+01	-6.259903e+01
1.400000e-06	-2.012551e-06	-8.375082e-10	-1.403782e+01	-6.186246e+01
1.410000e-06	-1.968818e-06	-8.239238e-10	-1.373278e+01	-6.111789e+01
1.420000e-06	-1.924970e-06	-8.139887e-10	-1.342694e+01	-6.036493e+01
1.430000e-06	-1.881070e-06	-8.054733e-10	-1.312073e+01	-5.960318e+01
1.440000e-06	-1.837084e-06	-7.949084e-10	-1.281392e+01	-5.883220e+01
1.450000e-06	-1.792973e-06	-7.840302e-10	-1.250624e+01	-5.805154e+01
1.460000e-06	-1.748826e-06	-7.697833e-10	-1.219831e+01	-5.726073e+01
1.470000e-06	-1.704506e-06	-7.528004e-10	-1.188917e+01	-5.645927e+01
1.480000e-06	-1.660006e-06	-7.354230e-10	-1.157878e+01	-5.564666e+01
1.490000e-06	-1.615443e-06	-7.235607e-10	-1.126794e+01	-5.482237e+01
1.500000e-06	-1.570722e-06	-7.143828e-10	-1.095601e+01	-5.398587e+01
1.510000e-06	-1.525861e-06	-7.053185e-10	-1.064310e+01	-5.313660e+01
1.520000e-06	-1.480900e-06	-6.926785e-10	-1.032949e+01	-5.227401e+01
1.530000e-06	-1.435784e-06	-6.799688e-10	-1.001480e+01	-5.139753e+01
1.540000e-06	-1.390502e-06	-6.643018e-10	-9.698945e+00	-5.050660e+01
1.550000e-06	-1.345105e-06	-6.470771e-10	-9.382295e+00	-4.960065e+01
1.560000e-06	-1.299630e-06	-6.280669e-10	-9.065103e+00	-4.867910e+01
1.570000e-06	-1.254077e-06	-6.124407e-10	-8.747361e+00	-4.774140e+01
1.580000e-06	-1.208469e-06	-5.979980e-10	-8.429244e+00	-4.678699e+01
1.590000e-06	-1.162789e-06	-5.850680e-10	-8.110615e+00	-4.581532e+01
1.600000e-06	-1.117064e-06	-5.728703e-10	-7.791679e+00	-4.482586e+01
1.610000e-06	-1.071242e-06	-5.601860e-10	-7.472063e+00	-4.381810e+01
1.620000e-06	-1.025325e-06	-5.427068e-10	-7.151786e+00	-4.279153e+01
1.630000e-06	-9.793746e-07	-5.259192e-10	-6.831276e+00	-4.174569e+01
1.640000e-06	-9.333304e-07	-5.119685e-10	-6.510111e+00	-4.068012e+01
1.650000e-06	-8.872580e-07	-4.974465e-10	-6.188750e+00	-3.959441e+01
1.660000e-06	-8.411375e-07	-4.828308e-10	-5.867053e+00	-3.848817e+01
1.670000e-06	-7.950192e-07	-4.677984e-10	-5.545372e+00	-3.736104e+01
1.680000e-06	-7.489100e-07	-4.516539e-10	-5.223753e+00	-3.621272e+01
1.690000e-06	-7.026870e-07	-4.348516e-10	-4.901341e+00	-3.504292e+01
1.700000e-06	-6.564051e-07	-4.176230e-10	-4.578518e+00	-3.385143e+01
1.710000e-06	-6.100598e-07	-3.978312e-10	-4.255253e+00	-3.263805e+01
1.720000e-06	-5.636790e-07	-3.787690e-10	-3.931741e+00	-3.140264e+01
1.730000e-06	-5.172474e-07	-3.606007e-10	-3.607874e+00	-3.014514e+01
1.740000e-06	-4.707834e-07	-3.417194e-10	-3.283781e+00	-2.886549e+01
1.750000e-06	-4.242862e-07	-3.228630e-10	-2.959456e+00	-2.756373e+01
1.760000e-06	-3.777719e-07	-3.052038e-10	-2.635012e+00	-2.623994e+01
1.770000e-06	-3.311308e-07	-2.860205e-10	-2.309684e+00	-2.489425e+01
1.780000e-06	-2.843301e-07	-2.665312e-10	-1.983243e+00	-2.352686e+01
1.790000e-06	-2.375811e-07	-2.491625e-10	-1.657162e+00	-2.213804e+01
1.800000e-06	-1.908918e-07	-2.323908e-10	-1.331497e+00	-2.072809e+01
1.810000e-06	-1.441980e-07	-2.124968e-10	-1.005801e+00	-1.929740e+01
1.820000e-06	-9.748308e-08	-1.914630e-10	-6.799582e-01	-1.784642e+01
1.830000e-06	-5.077112e-08	-1.704201e-10	-3.541357e-01	-1.637565e+01
1.840000e-06	-3.962224e-09	-1.500049e-10	-2.763707e-02	-1.488566e+01
1.850000e-06	4.291800e-08	-1.307568e-10	2.993591e-01	-1.337708e+01
1.860000e-06	8.970027e-08	-1.107097e-10	6.256721e-01	-1.185059e+01
1.870000e-06	1.363233e-07	-8.667475e-11	9.508743e-01	-1.030695e+01
1.880000e-06	1.828592e-07	-6.345184e-11	1.275469e+00	-8.746960e+00
1.890000e-06	2.294555e-07	-4.183478e-11	1.600484e+00	-7.171489e+00
1.900000e-06	2.760597e-07	-2.095127e-11	1.925555e+00	-5.581454e+00
1.910000e-06	3.226198e-07	-9.283667e-14	2.250319e+00	-3.977822e+00
1.920000e-06	3.691746e-07	2.222119e-11	2.575045e+00	-2.361614e+00
1.930000e-06	4.157180e-07	4.579976e-11	2.899692e+00	-7.338949e-01
1.940000e-06	4.623253e-07	6.834825e-11	3.224785e+00	9.042251e-01
1.950000e-06	5.089125e-07	9.035757e-11	3.549737e+00	2.551596e+00
1.960000e-06	5.553688e-07	1.124104e-10	3.873776e+00	4.207032e+00
1.970000e-06	6.017150e-07	1.328152e-10	4.197047e+00	5.869311e+00
1.980000e-06	6.479273e-07	1.531416e-10	4.519385e+00	7.537185e+00
1.990000e-06	6.941128e-07	1.736839e-10	4.841535e+00	9.209379e+00
2.000000e-06	7.404139e-07	1.949662e-10	5.164492e+00	1.088460e+01
2.010000e-06	7.866440e-07	2.183808e-10	5.486953e+00	1.256153e+01
2.020000e-06	8.326828e-07	2.433295e-10	5.808080e+00	1.423884e+01
2.030000e-06	8.786827e-07	2.706398e-10	6.128936e+00	1.591522e+01
2.040000e-06	9.246945e-07	2.980161e-10	6.449875e+00	1.758931e+01
2.050000e-06	9.706191e-07	3.210610e-10	6.770206e+00	1.925978e+01
2.060000e-06	1.016491e-06	3.434906e-10	7.090171e+00	2.092531e+01
2.070000e-06	1.062328e-06	3.657683e-10	7.409889e+00	2.258459e+01
2.080000e-06	1.108075e-06	3.870527e-10	7.728977e+00	2.423630e+01
2.090000e-06	1.153749e-06	4.094456e-10	8.047564e+00	2.587917e+01
2.100000e-06	1.199320e-06	4.341461e-10	8.365427e+00	2.751195e+01
2.110000e-06	1.244775e-06	4.585889e-10	8.682478e+00	2.913340e+01
2.120000e-06	1.290183e-06	4.816053e-10	8.999210e+00	3.074233e+01
2.130000e-06	1.335503e-06	5.036183e-10	9.315321e+00	3.233759e+01
2.140000e-06	1.380734e-06	5.217515e-10	9.630814e+00	3.391806e+01
2.150000e-06	1.425896e-06	5.367816e-10	9.945826e+00	3.548266e+01
2.160000e-06	1.470871e-06	5.556453e-10	1.025954e+01	3.703039e+01
2.170000e-06	1.515743e-06	5.772674e-10	1.057252e+01	3.856026e+01
2.180000e-06	1.560506e-06	5.995855e-10	1.088475e+01	4.007136e+01
2.190000e-06	1.605051e-06	6.232662e-10	1.119546e+01	4.156284e+01
2.200000e-06	1.649435e-06	6.459645e-10	1.150504e+01	4.303390e+01
2.210000e-06	1.693721e-06	6.646353e-10	1.181395e+01	4.448379e+01
2.220000e-06	1.737895e-06	6.790772e-10	1.212207e+01	4.591186e+01
2.230000e-06	1.781928e-06	6.930456e-10	1.242920e+01	4.731749e+01
2.240000e-06	1.825897e-06	7.092032e-10	1.273589e+01	4.870014e+01
2.250000e-06	1.869795e-06	7.282784e-10	1.304209e+01	5.005934e+01
2.260000e-06	1.913644e-06	7.499641e-10	1.334794e+01	5.139469e+01
2.270000e-06	1.957422e-06	7.708318e-10	1.365329e+01	5.270585e+01
2.280000e-06	2.001093e-06	7.876026e-10	1.395791e+01	5.399254e+01
2.290000e-06	2.044709e-06	8.023902e-10	1.426214e+01	5.525457e+01
2.300000e-06	2.088256e-06	8.155222e-10	1.456588e+01	5.649180e+01
2.310000e-06	2.131747e-06	8.273868e-10	1.486924e+01	5.770415e+01
2.320000e-06	2.175173e-06	8.427295e-10	1.517214e+01	5.889163e+01
2.330000e-06	2.218462e-06	8.612359e-10	1.547409e+01	6.005428e+01
2.340000e-06	2.261578e-06	8.791008e-10	1.577483e+01	6.119221e+01
2.350000e-06	2.304470e-06	8.942524e-10	1.607400e+01	6.230561e+01
2.360000e-06	2.347101e-06	9.081610e-10	1.637136e+01	6.339468e+01
2.370000e-06	2.389512e-06	9.215077e-10	1.666718e+01	6.445971e+01
2.380000e-06	2.431687e-06	9.337180e-10	1.696136e+01	6.550102e+01
2.390000e-06	2.473550e-06	9.472668e-10	1.725336e+01	6.651898e+01
2.400000e-06	2.515044e-06	9.603657e-10	1.754279e+01	6.751401e+01
2.410000e-06	2.556203e-06	9.732183e-10	1.782988e+01	6.848655e+01
2.420000e-06	2.597075e-06	9.868869e-10	1.811496e+01	6.943708e+01
2.430000e-06	2.637694e-06	9.994349e-10	1.839829e+01	7.036612e+01
2.440000e-06	2.678112e-06	1.010313e-09	1.868021e+01	7.127421e+01
2.450000e-06	2.718284e-06	1.020669e-09	1.896042e+01	7.216192e+01
2.460000e-06	2.758283e-06	1.032848e-09	1.923941e+01	7.302982e+01
2.470000e-06	2.798205e-06	1.044535e-09	1.951788e+01	7.387852e+01
2.480000e-06	2.837934e-06	1.054457e-09	1.979499e+01	7.470861e+01
2.490000e-06	2.877508e-06	1.064690e-09	2.007102e+01	7.552072e+01
2.500000e-06	2.917024e-06	1.075327e-09	2.034665e+01	7.631547e+01
2.510000e-06	2.956401e-06	1.086405e-09	2.062131e+01	7.709347e+01
2.520000e-06	2.995668e-06	1.096963e-09	2.089521e+01	7.785534e+01
2.530000e-06	3.034701e-06	1.107133e-09	2.116747e+01	7.860168e+01
2.540000e-06	3.073404e-06	1.117465e-09	2.143743e+01	7.933309e+01
2.550000e-06	3.111888e-06	1.126993e-09	2.170586e+01	8.005016e+01
2.560000e-06	3.150090e-06	1.135881e-09	2.197232e+01	8.075346e+01
2.570000e-06	3.188048e-06	1.145638e-09	2.223709e+01	8.144353e+01
2.580000e-06	3.225807e-06	1.158076e-09	2.250046e+01	8.212091e+01
2.590000e-06	3.263384e-06	1.171077e-09	2.276256e+01	8.278609e+01
2.600000e-06	3.300829e-06	1.181546e-09	2.302375e+01	8.343957e+01
2.610000e-06	3.338083e-06	1.188418e-09	2.328360e+01	8.408179e+01
2.620000e-06	3.375046e-06	1.195242e-09	2.354142e+01	8.471319e+01
2.630000e-06	3.411653e-06	1.203385e-09	2.379676e+01	8.533416e+01
2.640000e-06	3.448021e-06	1.212111e-09	2.405043e+01	8.594508e+01
2.650000e-06	3.484142e-06	1.223420e-09	2.430238e+01	8.654628e+01
2.660000e-06	3.520049e-06	1.235731e-09	2.455284e+01	8.713808e+01
2.670000e-06	3.555831e-06	1.247100e-09	2.480243e+01	8.772077e+01
2.680000e-06	3.591452e-06	1.256784e-09	2.505088e+01	8.829458e+01
2.690000e-06	3.627014e-06	1.264569e-09	2.529894e+01	8.885975e+01
2.700000e-06	3.662463e-06	1.271332e-09	2.554619e+01	8.941646e+01
2.710000e-06	3.697654e-06	1.278812e-09	2.579166e+01	8.996490e+01
2.720000e-06	3.732547e-06	1.286285e-09	2.603504e+01	9.050519e+01
2.730000e-06	3.767155e-06	1.293171e-09	2.627644e+01	9.103747e+01
2.740000e-06	3.801366e-06	1.300345e-09	2.651507e+01	9.156181e+01
2.750000e-06	3.835029e-06	1.307280e-09	2.674987e+01	9.207829e+01
2.760000e-06	3.868274e-06	1.314929e-09	2.698176e+01	9.258698e+01
2.770000e-06	3.901201e-06	1.322495e-09	2.721143e+01	9.308789e+01
2.780000e-06	3.933622e-06	1.330087e-09	2.743757e+01	9.358105e+01
2.790000e-06	3.965567e-06	1.338439e-09	2.766039e+01	9.406647e+01
2.800000e-06	3.997322e-06	1.346472e-09	2.788189e+01	9.454413e+01
2.810000e-06	4.029012e-06	1.352632e-09	2.810293e+01	9.501402e+01
2.820000e-06	4.060509e-06	1.357379e-09	2.832263e+01	9.547612e+01
2.830000e-06	4.091791e-06	1.362686e-09	2.854082e+01	9.593039e+01
2.840000e-06	4.122814e-06	1.366977e-09	2.875721e+01	9.637680e+01
2.850000e-06	4.153502e-06	1.371033e-09	2.897127e+01	9.681532e+01
2.860000e-06	4.183962e-06	1.376889e-09	2.918373e+01	9.724589e+01
2.870000e-06	4.214181e-06	1.383163e-09	2.939451e+01	9.766850e+01
2.880000e-06	4.244103e-06	1.389246e-09	2.960322e+01	9.808311e+01
2.890000e-06	4.273718e-06	1.394974e-09	2.980979e+01	9.848969e+01
2.900000e-06	4.303029e-06	1.399495e-09	3.001424e+01	9.888822e+01
