# Temperatura_=_-0.6
# Concentracion g/m^3_=_1620.0
# C_Vs_to_Am_M_A/Vsm_=_65563218390.804596
# pendiente_HvsI_1/m_=_3716.3
# ordenada_HvsI_A/m_=_1297.0
# frecuencia_Hz_=_135096.04482001124

Tiempo_(s)	Campo_(V.s)	Magnetizacion_(V.s)	Campo_(kA/m)	Magnetizacion_(A/m)
0.000000e+00	-5.529039e-06	-1.332414e-09	-3.837715e+01	-8.711199e+01
1.000000e-08	-5.529378e-06	-1.329888e-09	-3.837950e+01	-8.708965e+01
2.000000e-08	-5.529496e-06	-1.329963e-09	-3.838032e+01	-8.706474e+01
3.000000e-08	-5.529291e-06	-1.332538e-09	-3.837890e+01	-8.703713e+01
4.000000e-08	-5.528462e-06	-1.335476e-09	-3.837314e+01	-8.700670e+01
5.000000e-08	-5.527021e-06	-1.335569e-09	-3.836315e+01	-8.697334e+01
6.000000e-08	-5.525105e-06	-1.332479e-09	-3.834984e+01	-8.693691e+01
7.000000e-08	-5.522632e-06	-1.327560e-09	-3.833268e+01	-8.689730e+01
8.000000e-08	-5.519680e-06	-1.346407e-09	-3.831219e+01	-8.685438e+01
9.000000e-08	-5.516314e-06	-1.359607e-09	-3.828883e+01	-8.680805e+01
1.000000e-07	-5.512504e-06	-1.315591e-09	-3.826238e+01	-8.675820e+01
1.100000e-07	-5.508230e-06	-1.280114e-09	-3.823271e+01	-8.670472e+01
1.200000e-07	-5.503764e-06	-1.326786e-09	-3.820172e+01	-8.664752e+01
1.300000e-07	-5.499188e-06	-1.380218e-09	-3.816996e+01	-8.658652e+01
1.400000e-07	-5.494192e-06	-1.354669e-09	-3.813527e+01	-8.652165e+01
1.500000e-07	-5.488756e-06	-1.273751e-09	-3.809754e+01	-8.645283e+01
1.600000e-07	-5.482961e-06	-1.325126e-09	-3.805733e+01	-8.638002e+01
1.700000e-07	-5.476735e-06	-1.373802e-09	-3.801411e+01	-8.630319e+01
1.800000e-07	-5.470047e-06	-1.350737e-09	-3.796769e+01	-8.622229e+01
1.900000e-07	-5.462987e-06	-1.266124e-09	-3.791868e+01	-8.613733e+01
2.000000e-07	-5.455643e-06	-1.292267e-09	-3.786771e+01	-8.604829e+01
2.100000e-07	-5.447961e-06	-1.350304e-09	-3.781439e+01	-8.595519e+01
2.200000e-07	-5.439991e-06	-1.363656e-09	-3.775907e+01	-8.585807e+01
2.300000e-07	-5.431865e-06	-1.320941e-09	-3.770266e+01	-8.575695e+01
2.400000e-07	-5.423376e-06	-1.310791e-09	-3.764374e+01	-8.565189e+01
2.500000e-07	-5.414205e-06	-1.332744e-09	-3.758009e+01	-8.554295e+01
2.600000e-07	-5.404341e-06	-1.325606e-09	-3.751162e+01	-8.543022e+01
2.700000e-07	-5.393905e-06	-1.304842e-09	-3.743918e+01	-8.531378e+01
2.800000e-07	-5.382943e-06	-1.288479e-09	-3.736309e+01	-8.519373e+01
2.900000e-07	-5.371571e-06	-1.311878e-09	-3.728416e+01	-8.507018e+01
3.000000e-07	-5.359800e-06	-1.297500e-09	-3.720246e+01	-8.494324e+01
3.100000e-07	-5.347568e-06	-1.282746e-09	-3.711756e+01	-8.481304e+01
3.200000e-07	-5.334911e-06	-1.266104e-09	-3.702971e+01	-8.467971e+01
3.300000e-07	-5.321856e-06	-1.306254e-09	-3.693909e+01	-8.454338e+01
3.400000e-07	-5.308459e-06	-1.291064e-09	-3.684610e+01	-8.440419e+01
3.500000e-07	-5.294690e-06	-1.260140e-09	-3.675053e+01	-8.426228e+01
3.600000e-07	-5.280531e-06	-1.252642e-09	-3.665225e+01	-8.411780e+01
3.700000e-07	-5.265911e-06	-1.299480e-09	-3.655078e+01	-8.397087e+01
3.800000e-07	-5.250690e-06	-1.269707e-09	-3.644513e+01	-8.382165e+01
3.900000e-07	-5.234917e-06	-1.249878e-09	-3.633565e+01	-8.367027e+01
4.000000e-07	-5.218664e-06	-1.276260e-09	-3.622283e+01	-8.351685e+01
4.100000e-07	-5.202039e-06	-1.281046e-09	-3.610744e+01	-8.336152e+01
4.200000e-07	-5.185075e-06	-1.226577e-09	-3.598969e+01	-8.320440e+01
4.300000e-07	-5.167823e-06	-1.257713e-09	-3.586994e+01	-8.304560e+01
4.400000e-07	-5.150314e-06	-1.299296e-09	-3.574841e+01	-8.288521e+01
4.500000e-07	-5.132406e-06	-1.245464e-09	-3.562411e+01	-8.272333e+01
4.600000e-07	-5.113961e-06	-1.219331e-09	-3.549609e+01	-8.256004e+01
4.700000e-07	-5.095103e-06	-1.280410e-09	-3.536520e+01	-8.239539e+01
4.800000e-07	-5.076005e-06	-1.267696e-09	-3.523264e+01	-8.222945e+01
4.900000e-07	-5.056615e-06	-1.212854e-09	-3.509805e+01	-8.206225e+01
5.000000e-07	-5.036994e-06	-1.251723e-09	-3.496186e+01	-8.189381e+01
5.100000e-07	-5.017190e-06	-1.262636e-09	-3.482440e+01	-8.172415e+01
5.200000e-07	-4.997062e-06	-1.204636e-09	-3.468469e+01	-8.155327e+01
5.300000e-07	-4.976570e-06	-1.221921e-09	-3.454245e+01	-8.138114e+01
5.400000e-07	-4.955747e-06	-1.269047e-09	-3.439792e+01	-8.120774e+01
5.500000e-07	-4.934534e-06	-1.209059e-09	-3.425068e+01	-8.103302e+01
5.600000e-07	-4.913016e-06	-1.188671e-09	-3.410133e+01	-8.085693e+01
5.700000e-07	-4.891126e-06	-1.242064e-09	-3.394939e+01	-8.067938e+01
5.800000e-07	-4.868829e-06	-1.228416e-09	-3.379462e+01	-8.050030e+01
5.900000e-07	-4.846237e-06	-1.182247e-09	-3.363781e+01	-8.031959e+01
6.000000e-07	-4.823311e-06	-1.222162e-09	-3.347868e+01	-8.013714e+01
6.100000e-07	-4.800113e-06	-1.226129e-09	-3.331766e+01	-7.995284e+01
6.200000e-07	-4.776680e-06	-1.185352e-09	-3.315501e+01	-7.976654e+01
6.300000e-07	-4.753039e-06	-1.195775e-09	-3.299092e+01	-7.957813e+01
6.400000e-07	-4.729146e-06	-1.221522e-09	-3.282508e+01	-7.938745e+01
6.500000e-07	-4.704868e-06	-1.187676e-09	-3.265657e+01	-7.919436e+01
6.600000e-07	-4.680206e-06	-1.186180e-09	-3.248538e+01	-7.899870e+01
6.700000e-07	-4.655050e-06	-1.203231e-09	-3.231078e+01	-7.880030e+01
6.800000e-07	-4.629296e-06	-1.185912e-09	-3.213202e+01	-7.859902e+01
6.900000e-07	-4.602988e-06	-1.170688e-09	-3.194942e+01	-7.839469e+01
7.000000e-07	-4.576154e-06	-1.189875e-09	-3.176316e+01	-7.818713e+01
7.100000e-07	-4.548938e-06	-1.179771e-09	-3.157425e+01	-7.797620e+01
7.200000e-07	-4.521523e-06	-1.163234e-09	-3.138397e+01	-7.776172e+01
7.300000e-07	-4.493978e-06	-1.173066e-09	-3.119278e+01	-7.754354e+01
7.400000e-07	-4.466292e-06	-1.174560e-09	-3.100061e+01	-7.732150e+01
7.500000e-07	-4.438418e-06	-1.155604e-09	-3.080713e+01	-7.709544e+01
7.600000e-07	-4.410236e-06	-1.158302e-09	-3.061152e+01	-7.686524e+01
7.700000e-07	-4.381661e-06	-1.164956e-09	-3.041318e+01	-7.663074e+01
7.800000e-07	-4.352725e-06	-1.151466e-09	-3.021234e+01	-7.639181e+01
7.900000e-07	-4.323469e-06	-1.148505e-09	-3.000927e+01	-7.614833e+01
8.000000e-07	-4.293928e-06	-1.153612e-09	-2.980423e+01	-7.590018e+01
8.100000e-07	-4.264075e-06	-1.138813e-09	-2.959701e+01	-7.564725e+01
8.200000e-07	-4.233938e-06	-1.123189e-09	-2.938783e+01	-7.538945e+01
8.300000e-07	-4.203490e-06	-1.127436e-09	-2.917649e+01	-7.512668e+01
8.400000e-07	-4.172716e-06	-1.117671e-09	-2.896289e+01	-7.485886e+01
8.500000e-07	-4.141689e-06	-1.106646e-09	-2.874754e+01	-7.458593e+01
8.600000e-07	-4.110391e-06	-1.112007e-09	-2.853029e+01	-7.430782e+01
8.700000e-07	-4.078908e-06	-1.114693e-09	-2.831177e+01	-7.402449e+01
8.800000e-07	-4.047325e-06	-1.097980e-09	-2.809255e+01	-7.373588e+01
8.900000e-07	-4.015588e-06	-1.096293e-09	-2.787226e+01	-7.344197e+01
9.000000e-07	-3.983586e-06	-1.092641e-09	-2.765013e+01	-7.314274e+01
9.100000e-07	-3.951330e-06	-1.073490e-09	-2.742625e+01	-7.283817e+01
9.200000e-07	-3.918736e-06	-1.062107e-09	-2.720001e+01	-7.252825e+01
9.300000e-07	-3.885685e-06	-1.066934e-09	-2.697060e+01	-7.221299e+01
9.400000e-07	-3.852083e-06	-1.060800e-09	-2.673737e+01	-7.189240e+01
9.500000e-07	-3.817951e-06	-1.052846e-09	-2.650046e+01	-7.156650e+01
9.600000e-07	-3.783414e-06	-1.056048e-09	-2.626074e+01	-7.123530e+01
9.700000e-07	-3.748466e-06	-1.052989e-09	-2.601816e+01	-7.089885e+01
9.800000e-07	-3.713231e-06	-1.035258e-09	-2.577360e+01	-7.055717e+01
9.900000e-07	-3.677825e-06	-1.030275e-09	-2.552785e+01	-7.021031e+01
1.000000e-06	-3.642281e-06	-1.024911e-09	-2.528113e+01	-6.985832e+01
1.010000e-06	-3.606613e-06	-1.012708e-09	-2.503356e+01	-6.950123e+01
1.020000e-06	-3.570843e-06	-1.008589e-09	-2.478528e+01	-6.913911e+01
1.030000e-06	-3.534905e-06	-1.012210e-09	-2.453583e+01	-6.877201e+01
1.040000e-06	-3.498675e-06	-1.005749e-09	-2.428436e+01	-6.840000e+01
1.050000e-06	-3.462125e-06	-1.001279e-09	-2.403067e+01	-6.802312e+01
1.060000e-06	-3.425285e-06	-1.001357e-09	-2.377496e+01	-6.764143e+01
1.070000e-06	-3.388246e-06	-9.909370e-10	-2.351787e+01	-6.725501e+01
1.080000e-06	-3.350983e-06	-9.751325e-10	-2.325923e+01	-6.686391e+01
1.090000e-06	-3.313476e-06	-9.672911e-10	-2.299889e+01	-6.646820e+01
1.100000e-06	-3.275750e-06	-9.615419e-10	-2.273703e+01	-6.606792e+01
1.110000e-06	-3.237733e-06	-9.520635e-10	-2.247316e+01	-6.566314e+01
1.120000e-06	-3.199481e-06	-9.510470e-10	-2.220765e+01	-6.525392e+01
1.130000e-06	-3.161046e-06	-9.508221e-10	-2.194087e+01	-6.484030e+01
1.140000e-06	-3.122453e-06	-9.417637e-10	-2.167300e+01	-6.442234e+01
1.150000e-06	-3.083680e-06	-9.290149e-10	-2.140387e+01	-6.400007e+01
1.160000e-06	-3.044667e-06	-9.214480e-10	-2.113309e+01	-6.357355e+01
1.170000e-06	-3.005430e-06	-9.113448e-10	-2.086074e+01	-6.314280e+01
1.180000e-06	-2.966021e-06	-9.010437e-10	-2.058720e+01	-6.270786e+01
1.190000e-06	-2.926502e-06	-8.949502e-10	-2.031290e+01	-6.226874e+01
1.200000e-06	-2.886872e-06	-8.894256e-10	-2.003783e+01	-6.182547e+01
1.210000e-06	-2.847178e-06	-8.795689e-10	-1.976231e+01	-6.137805e+01
1.220000e-06	-2.807321e-06	-8.751147e-10	-1.948566e+01	-6.092648e+01
1.230000e-06	-2.767267e-06	-8.722372e-10	-1.920765e+01	-6.047075e+01
1.240000e-06	-2.726993e-06	-8.643878e-10	-1.892810e+01	-6.001085e+01
1.250000e-06	-2.686504e-06	-8.551038e-10	-1.864707e+01	-5.954673e+01
1.260000e-06	-2.645792e-06	-8.485219e-10	-1.836448e+01	-5.907835e+01
1.270000e-06	-2.604841e-06	-8.375122e-10	-1.808024e+01	-5.860567e+01
1.280000e-06	-2.563713e-06	-8.271113e-10	-1.779478e+01	-5.812861e+01
1.290000e-06	-2.522214e-06	-8.219170e-10	-1.750673e+01	-5.764709e+01
1.300000e-06	-2.480236e-06	-8.170176e-10	-1.721536e+01	-5.716101e+01
1.310000e-06	-2.437988e-06	-8.074123e-10	-1.692211e+01	-5.667026e+01
1.320000e-06	-2.395469e-06	-7.963330e-10	-1.662699e+01	-5.617470e+01
1.330000e-06	-2.352651e-06	-7.838956e-10	-1.632979e+01	-5.567419e+01
1.340000e-06	-2.309651e-06	-7.706145e-10	-1.603133e+01	-5.516855e+01
1.350000e-06	-2.266439e-06	-7.608313e-10	-1.573139e+01	-5.465761e+01
1.360000e-06	-2.223063e-06	-7.552666e-10	-1.543032e+01	-5.414115e+01
1.370000e-06	-2.179597e-06	-7.499399e-10	-1.512862e+01	-5.361894e+01
1.380000e-06	-2.136024e-06	-7.441755e-10	-1.482618e+01	-5.309075e+01
1.390000e-06	-2.092350e-06	-7.359050e-10	-1.452304e+01	-5.255629e+01
1.400000e-06	-2.048615e-06	-7.212474e-10	-1.421947e+01	-5.201528e+01
1.410000e-06	-2.004774e-06	-7.045552e-10	-1.391517e+01	-5.146739e+01
1.420000e-06	-1.960852e-06	-6.900685e-10	-1.361031e+01	-5.091229e+01
1.430000e-06	-1.916855e-06	-6.805481e-10	-1.330492e+01	-5.034962e+01
1.440000e-06	-1.872729e-06	-6.748855e-10	-1.299864e+01	-4.977900e+01
1.450000e-06	-1.828468e-06	-6.698555e-10	-1.269142e+01	-4.920002e+01
1.460000e-06	-1.784046e-06	-6.630713e-10	-1.238309e+01	-4.861226e+01
1.470000e-06	-1.739453e-06	-6.519936e-10	-1.207357e+01	-4.801526e+01
1.480000e-06	-1.694751e-06	-6.361792e-10	-1.176330e+01	-4.740855e+01
1.490000e-06	-1.649962e-06	-6.200344e-10	-1.145241e+01	-4.679166e+01
1.500000e-06	-1.605064e-06	-6.085542e-10	-1.114078e+01	-4.616407e+01
1.510000e-06	-1.559947e-06	-6.027105e-10	-1.082762e+01	-4.552526e+01
1.520000e-06	-1.514747e-06	-5.975432e-10	-1.051388e+01	-4.487470e+01
1.530000e-06	-1.469532e-06	-5.899969e-10	-1.020005e+01	-4.421184e+01
1.540000e-06	-1.424134e-06	-5.821601e-10	-9.884940e+00	-4.353610e+01
1.550000e-06	-1.378677e-06	-5.758758e-10	-9.569417e+00	-4.284694e+01
1.560000e-06	-1.333174e-06	-5.650335e-10	-9.253585e+00	-4.214376e+01
1.570000e-06	-1.287600e-06	-5.510170e-10	-8.937250e+00	-4.142600e+01
1.580000e-06	-1.241931e-06	-5.357309e-10	-8.620261e+00	-4.069307e+01
1.590000e-06	-1.196135e-06	-5.207975e-10	-8.302394e+00	-3.994439e+01
1.600000e-06	-1.150215e-06	-5.088124e-10	-7.983663e+00	-3.917940e+01
1.610000e-06	-1.104174e-06	-4.964276e-10	-7.664088e+00	-3.839752e+01
1.620000e-06	-1.058122e-06	-4.831275e-10	-7.344441e+00	-3.759822e+01
1.630000e-06	-1.012081e-06	-4.678465e-10	-7.024869e+00	-3.678096e+01
1.640000e-06	-9.659568e-07	-4.545892e-10	-6.704722e+00	-3.594521e+01
1.650000e-06	-9.196811e-07	-4.426697e-10	-6.383521e+00	-3.509050e+01
1.660000e-06	-8.732967e-07	-4.302873e-10	-6.061567e+00	-3.421636e+01
1.670000e-06	-8.269276e-07	-4.157842e-10	-5.739718e+00	-3.332235e+01
1.680000e-06	-7.805644e-07	-4.005401e-10	-5.417911e+00	-3.240807e+01
1.690000e-06	-7.341483e-07	-3.888581e-10	-5.095735e+00	-3.147317e+01
1.700000e-06	-6.876957e-07	-3.755748e-10	-4.773307e+00	-3.051732e+01
1.710000e-06	-6.412110e-07	-3.611278e-10	-4.450656e+00	-2.954026e+01
1.720000e-06	-5.946075e-07	-3.445497e-10	-4.127181e+00	-2.854175e+01
1.730000e-06	-5.479245e-07	-3.273217e-10	-3.803153e+00	-2.752162e+01
1.740000e-06	-5.011908e-07	-3.064580e-10	-3.478774e+00	-2.647976e+01
1.750000e-06	-4.543428e-07	-2.875172e-10	-3.153601e+00	-2.541611e+01
1.760000e-06	-4.075297e-07	-2.728110e-10	-2.828670e+00	-2.433066e+01
1.770000e-06	-3.606453e-07	-2.594840e-10	-2.503245e+00	-2.322347e+01
1.780000e-06	-3.136962e-07	-2.446324e-10	-2.177370e+00	-2.209468e+01
1.790000e-06	-2.667398e-07	-2.294573e-10	-1.851445e+00	-2.094447e+01
1.800000e-06	-2.198244e-07	-2.145669e-10	-1.525805e+00	-1.977310e+01
1.810000e-06	-1.730045e-07	-1.950008e-10	-1.200827e+00	-1.858091e+01
1.820000e-06	-1.261163e-07	-1.726180e-10	-8.753752e-01	-1.736830e+01
1.830000e-06	-7.929181e-08	-1.521170e-10	-5.503658e-01	-1.613572e+01
1.840000e-06	-3.238588e-08	-1.353652e-10	-2.247909e-01	-1.488372e+01
1.850000e-06	1.470305e-08	-1.225677e-10	1.020541e-01	-1.361290e+01
1.860000e-06	6.175061e-08	-1.106910e-10	4.286120e-01	-1.232393e+01
1.870000e-06	1.087108e-07	-9.611077e-11	7.545631e-01	-1.101757e+01
1.880000e-06	1.556296e-07	-7.720420e-11	1.080228e+00	-9.694596e+00
1.890000e-06	2.025018e-07	-5.605536e-11	1.405568e+00	-8.355894e+00
1.900000e-06	2.493381e-07	-3.491830e-11	1.730660e+00	-7.002386e+00
1.910000e-06	2.962484e-07	-1.541913e-11	2.056265e+00	-5.635057e+00
1.920000e-06	3.431444e-07	2.750967e-12	2.381771e+00	-4.254944e+00
1.930000e-06	3.899896e-07	2.170637e-11	2.706924e+00	-2.863137e+00
1.940000e-06	4.368698e-07	4.014407e-11	3.032320e+00	-1.460772e+00
1.950000e-06	4.836660e-07	5.977363e-11	3.357134e+00	-4.902366e-02
1.960000e-06	5.303023e-07	7.800644e-11	3.680837e+00	1.370891e+00
1.970000e-06	5.768980e-07	9.719320e-11	4.004259e+00	2.797725e+00
1.980000e-06	6.235251e-07	1.188783e-10	4.327898e+00	4.230203e+00
1.990000e-06	6.700585e-07	1.394804e-10	4.650887e+00	5.667026e+00
2.000000e-06	7.164768e-07	1.565741e-10	4.973077e+00	7.106877e+00
2.010000e-06	7.628577e-07	1.769240e-10	5.295008e+00	8.548430e+00
2.020000e-06	8.091995e-07	1.972749e-10	5.616667e+00	9.990349e+00
2.030000e-06	8.554861e-07	2.180754e-10	5.937943e+00	1.143130e+01
2.040000e-06	9.016939e-07	2.415163e-10	6.258672e+00	1.286995e+01
2.050000e-06	9.478849e-07	2.635270e-10	6.579284e+00	1.430497e+01
2.060000e-06	9.940328e-07	2.836054e-10	6.899598e+00	1.573507e+01
2.070000e-06	1.040033e-06	3.011597e-10	7.218884e+00	1.715896e+01
2.080000e-06	1.086037e-06	3.182110e-10	7.538204e+00	1.857538e+01
2.090000e-06	1.132026e-06	3.356444e-10	7.857410e+00	1.998309e+01
2.100000e-06	1.177852e-06	3.544815e-10	8.175493e+00	2.138091e+01
2.110000e-06	1.223515e-06	3.740374e-10	8.492440e+00	2.276769e+01
2.120000e-06	1.269130e-06	3.933504e-10	8.809056e+00	2.414232e+01
2.130000e-06	1.314746e-06	4.125422e-10	9.125676e+00	2.550373e+01
2.140000e-06	1.360216e-06	4.321115e-10	9.441284e+00	2.685093e+01
2.150000e-06	1.405563e-06	4.489808e-10	9.756039e+00	2.818295e+01
2.160000e-06	1.450807e-06	4.625075e-10	1.007007e+01	2.949892e+01
2.170000e-06	1.496038e-06	4.772333e-10	1.038403e+01	3.079798e+01
2.180000e-06	1.541142e-06	4.937508e-10	1.069709e+01	3.207938e+01
2.190000e-06	1.586053e-06	5.113115e-10	1.100882e+01	3.334241e+01
2.200000e-06	1.630953e-06	5.317393e-10	1.132047e+01	3.458643e+01
2.210000e-06	1.675666e-06	5.521701e-10	1.163082e+01	3.581087e+01
2.220000e-06	1.720160e-06	5.703142e-10	1.193966e+01	3.701522e+01
2.230000e-06	1.764552e-06	5.862447e-10	1.224778e+01	3.819905e+01
2.240000e-06	1.808837e-06	6.018768e-10	1.255516e+01	3.936199e+01
2.250000e-06	1.853025e-06	6.161612e-10	1.286188e+01	4.050374e+01
2.260000e-06	1.897122e-06	6.307721e-10	1.316796e+01	4.162405e+01
2.270000e-06	1.941072e-06	6.462036e-10	1.347301e+01	4.272276e+01
2.280000e-06	1.984871e-06	6.600171e-10	1.377702e+01	4.379975e+01
2.290000e-06	2.028666e-06	6.743256e-10	1.408101e+01	4.485497e+01
2.300000e-06	2.072423e-06	6.888646e-10	1.438473e+01	4.588843e+01
2.310000e-06	2.116103e-06	7.010871e-10	1.468791e+01	4.690018e+01
2.320000e-06	2.159702e-06	7.139785e-10	1.499053e+01	4.789035e+01
2.330000e-06	2.203212e-06	7.289381e-10	1.529253e+01	4.885909e+01
2.340000e-06	2.246668e-06	7.438565e-10	1.559416e+01	4.980660e+01
2.350000e-06	2.289990e-06	7.575337e-10	1.589486e+01	5.073315e+01
2.360000e-06	2.333091e-06	7.692920e-10	1.619402e+01	5.163901e+01
2.370000e-06	2.375996e-06	7.804162e-10	1.649183e+01	5.252450e+01
2.380000e-06	2.418693e-06	7.909267e-10	1.678819e+01	5.338999e+01
2.390000e-06	2.460961e-06	8.035077e-10	1.708157e+01	5.423584e+01
2.400000e-06	2.502910e-06	8.160074e-10	1.737274e+01	5.506246e+01
2.410000e-06	2.544615e-06	8.269716e-10	1.766222e+01	5.587027e+01
2.420000e-06	2.585984e-06	8.381619e-10	1.794936e+01	5.665971e+01
2.430000e-06	2.627074e-06	8.498612e-10	1.823457e+01	5.743123e+01
2.440000e-06	2.667921e-06	8.607876e-10	1.851808e+01	5.818528e+01
2.450000e-06	2.708531e-06	8.697414e-10	1.879996e+01	5.892232e+01
2.460000e-06	2.748888e-06	8.777234e-10	1.908008e+01	5.964283e+01
2.470000e-06	2.789009e-06	8.873291e-10	1.935856e+01	6.034726e+01
2.480000e-06	2.828932e-06	8.977129e-10	1.963566e+01	6.103608e+01
2.490000e-06	2.868736e-06	9.065500e-10	1.991194e+01	6.170973e+01
2.500000e-06	2.908412e-06	9.137407e-10	2.018733e+01	6.236866e+01
2.510000e-06	2.947910e-06	9.227509e-10	2.046149e+01	6.301331e+01
2.520000e-06	2.987277e-06	9.331562e-10	2.073474e+01	6.364409e+01
2.530000e-06	3.026533e-06	9.429122e-10	2.100721e+01	6.426141e+01
2.540000e-06	3.065602e-06	9.537020e-10	2.127839e+01	6.486566e+01
2.550000e-06	3.104468e-06	9.645802e-10	2.154817e+01	6.545721e+01
2.560000e-06	3.143101e-06	9.707492e-10	2.181632e+01	6.603642e+01
2.570000e-06	3.181452e-06	9.737821e-10	2.208251e+01	6.660363e+01
2.580000e-06	3.219626e-06	9.810965e-10	2.234747e+01	6.715915e+01
2.590000e-06	3.257580e-06	9.904182e-10	2.261092e+01	6.770328e+01
2.600000e-06	3.295286e-06	9.988416e-10	2.287263e+01	6.823631e+01
2.610000e-06	3.332791e-06	1.005810e-09	2.313296e+01	6.875850e+01
2.620000e-06	3.370081e-06	1.012550e-09	2.339178e+01	6.927008e+01
2.630000e-06	3.407174e-06	1.020711e-09	2.364925e+01	6.977130e+01
2.640000e-06	3.443944e-06	1.026506e-09	2.390447e+01	7.026235e+01
2.650000e-06	3.480379e-06	1.031394e-09	2.415737e+01	7.074344e+01
2.660000e-06	3.516606e-06	1.038943e-09	2.440882e+01	7.121474e+01
2.670000e-06	3.552597e-06	1.048907e-09	2.465864e+01	7.167642e+01
2.680000e-06	3.588407e-06	1.056165e-09	2.490719e+01	7.212863e+01
2.690000e-06	3.624095e-06	1.060333e-09	2.515490e+01	7.257153e+01
2.700000e-06	3.659722e-06	1.063315e-09	2.540219e+01	7.300523e+01
2.710000e-06	3.695244e-06	1.065872e-09	2.564875e+01	7.342988e+01
2.720000e-06	3.730506e-06	1.070738e-09	2.589351e+01	7.384558e+01
2.730000e-06	3.765534e-06	1.078229e-09	2.613663e+01	7.425245e+01
2.740000e-06	3.800298e-06	1.087110e-09	2.637793e+01	7.465060e+01
2.750000e-06	3.834637e-06	1.094655e-09	2.661628e+01	7.504014e+01
2.760000e-06	3.868369e-06	1.099012e-09	2.685042e+01	7.542116e+01
2.770000e-06	3.901562e-06	1.100186e-09	2.708081e+01	7.579377e+01
2.780000e-06	3.934360e-06	1.101649e-09	2.730846e+01	7.615807e+01
2.790000e-06	3.966710e-06	1.106424e-09	2.753300e+01	7.651416e+01
2.800000e-06	3.998762e-06	1.110871e-09	2.775547e+01	7.686214e+01
2.810000e-06	4.030697e-06	1.116054e-09	2.797713e+01	7.720213e+01
2.820000e-06	4.062482e-06	1.124595e-09	2.819776e+01	7.753423e+01
2.830000e-06	4.094059e-06	1.132720e-09	2.841693e+01	7.785855e+01
2.840000e-06	4.125376e-06	1.139381e-09	2.863430e+01	7.817520e+01
2.850000e-06	4.156384e-06	1.142903e-09	2.884953e+01	7.848430e+01
2.860000e-06	4.187106e-06	1.144630e-09	2.906277e+01	7.878598e+01
2.870000e-06	4.217562e-06	1.145671e-09	2.927417e+01	7.908035e+01
2.880000e-06	4.247728e-06	1.147641e-09	2.948355e+01	7.936755e+01
2.890000e-06	4.277604e-06	1.150865e-09	2.969092e+01	7.964771e+01
2.900000e-06	4.307212e-06	1.153157e-09	2.989643e+01	7.992095e+01
