# Temperatura_=_-0.3
# Concentracion g/m^3_=_1620.0
# C_Vs_to_Am_M_A/Vsm_=_65563218390.804596
# pendiente_HvsI_1/m_=_3716.3
# ordenada_HvsI_A/m_=_1297.0
# frecuencia_Hz_=_135098.63828416273

Tiempo_(s)	Campo_(V.s)	Magnetizacion_(V.s)	Campo_(kA/m)	Magnetizacion_(A/m)
0.000000e+00	-5.510338e-06	-1.680558e-09	-3.837277e+01	-1.081345e+02
1.000000e-08	-5.510445e-06	-1.676041e-09	-3.837352e+01	-1.081070e+02
2.000000e-08	-5.510204e-06	-1.670061e-09	-3.837184e+01	-1.080780e+02
3.000000e-08	-5.509614e-06	-1.666763e-09	-3.836774e+01	-1.080479e+02
4.000000e-08	-5.508634e-06	-1.667636e-09	-3.836091e+01	-1.080166e+02
5.000000e-08	-5.507162e-06	-1.668454e-09	-3.835066e+01	-1.079843e+02
6.000000e-08	-5.505019e-06	-1.670938e-09	-3.833574e+01	-1.079509e+02
7.000000e-08	-5.502207e-06	-1.693195e-09	-3.831615e+01	-1.079166e+02
8.000000e-08	-5.498911e-06	-1.718867e-09	-3.829320e+01	-1.078813e+02
9.000000e-08	-5.495190e-06	-1.662009e-09	-3.826729e+01	-1.078451e+02
1.000000e-07	-5.491064e-06	-1.589674e-09	-3.823855e+01	-1.078079e+02
1.100000e-07	-5.486799e-06	-1.631679e-09	-3.820886e+01	-1.077697e+02
1.200000e-07	-5.482325e-06	-1.729371e-09	-3.817770e+01	-1.077304e+02
1.300000e-07	-5.477406e-06	-1.708561e-09	-3.814344e+01	-1.076898e+02
1.400000e-07	-5.472102e-06	-1.596717e-09	-3.810651e+01	-1.076479e+02
1.500000e-07	-5.466482e-06	-1.620983e-09	-3.806737e+01	-1.076045e+02
1.600000e-07	-5.460515e-06	-1.740032e-09	-3.802582e+01	-1.075595e+02
1.700000e-07	-5.454091e-06	-1.701438e-09	-3.798109e+01	-1.075127e+02
1.800000e-07	-5.447210e-06	-1.591666e-09	-3.793317e+01	-1.074639e+02
1.900000e-07	-5.440027e-06	-1.566950e-09	-3.788315e+01	-1.074129e+02
2.000000e-07	-5.432587e-06	-1.682433e-09	-3.783134e+01	-1.073593e+02
2.100000e-07	-5.424809e-06	-1.690140e-09	-3.777717e+01	-1.073031e+02
2.200000e-07	-5.416787e-06	-1.640279e-09	-3.772131e+01	-1.072439e+02
2.300000e-07	-5.408533e-06	-1.597352e-09	-3.766383e+01	-1.071815e+02
2.400000e-07	-5.399788e-06	-1.630919e-09	-3.760293e+01	-1.071155e+02
2.500000e-07	-5.390340e-06	-1.631640e-09	-3.753714e+01	-1.070458e+02
2.600000e-07	-5.380245e-06	-1.611960e-09	-3.746683e+01	-1.069719e+02
2.700000e-07	-5.369548e-06	-1.598748e-09	-3.739234e+01	-1.068937e+02
2.800000e-07	-5.358346e-06	-1.615301e-09	-3.731434e+01	-1.068108e+02
2.900000e-07	-5.346780e-06	-1.619935e-09	-3.723380e+01	-1.067230e+02
3.000000e-07	-5.334869e-06	-1.591486e-09	-3.715085e+01	-1.066299e+02
3.100000e-07	-5.322516e-06	-1.585975e-09	-3.706483e+01	-1.065312e+02
3.200000e-07	-5.309692e-06	-1.596502e-09	-3.697553e+01	-1.064268e+02
3.300000e-07	-5.296493e-06	-1.623304e-09	-3.688361e+01	-1.063163e+02
3.400000e-07	-5.282917e-06	-1.578588e-09	-3.678907e+01	-1.061995e+02
3.500000e-07	-5.268918e-06	-1.575451e-09	-3.669158e+01	-1.060762e+02
3.600000e-07	-5.254461e-06	-1.590518e-09	-3.659090e+01	-1.059461e+02
3.700000e-07	-5.239470e-06	-1.592190e-09	-3.648651e+01	-1.058090e+02
3.800000e-07	-5.223840e-06	-1.544308e-09	-3.637767e+01	-1.056648e+02
3.900000e-07	-5.207865e-06	-1.582410e-09	-3.626642e+01	-1.055132e+02
4.000000e-07	-5.191651e-06	-1.597035e-09	-3.615351e+01	-1.053542e+02
4.100000e-07	-5.175070e-06	-1.549282e-09	-3.603805e+01	-1.051876e+02
4.200000e-07	-5.158058e-06	-1.542543e-09	-3.591957e+01	-1.050133e+02
4.300000e-07	-5.140710e-06	-1.611454e-09	-3.579877e+01	-1.048312e+02
4.400000e-07	-5.123131e-06	-1.559758e-09	-3.567635e+01	-1.046413e+02
4.500000e-07	-5.105093e-06	-1.495169e-09	-3.555074e+01	-1.044434e+02
4.600000e-07	-5.086566e-06	-1.550897e-09	-3.542172e+01	-1.042377e+02
4.700000e-07	-5.067677e-06	-1.589795e-09	-3.529019e+01	-1.040242e+02
4.800000e-07	-5.048553e-06	-1.509528e-09	-3.515701e+01	-1.038027e+02
4.900000e-07	-5.029133e-06	-1.519615e-09	-3.502177e+01	-1.035735e+02
5.000000e-07	-5.009444e-06	-1.568889e-09	-3.488466e+01	-1.033365e+02
5.100000e-07	-4.989589e-06	-1.511589e-09	-3.474639e+01	-1.030918e+02
5.200000e-07	-4.969441e-06	-1.480248e-09	-3.460609e+01	-1.028396e+02
5.300000e-07	-4.948880e-06	-1.544590e-09	-3.446291e+01	-1.025800e+02
5.400000e-07	-4.927927e-06	-1.513236e-09	-3.431700e+01	-1.023131e+02
5.500000e-07	-4.906620e-06	-1.452768e-09	-3.416862e+01	-1.020391e+02
5.600000e-07	-4.884963e-06	-1.512178e-09	-3.401781e+01	-1.017580e+02
5.700000e-07	-4.862990e-06	-1.537187e-09	-3.386479e+01	-1.014702e+02
5.800000e-07	-4.840682e-06	-1.470999e-09	-3.370944e+01	-1.011757e+02
5.900000e-07	-4.818051e-06	-1.478549e-09	-3.355184e+01	-1.008748e+02
6.000000e-07	-4.795128e-06	-1.520417e-09	-3.339221e+01	-1.005676e+02
6.100000e-07	-4.771883e-06	-1.471544e-09	-3.323034e+01	-1.002543e+02
6.200000e-07	-4.748376e-06	-1.454214e-09	-3.306664e+01	-9.993512e+01
6.300000e-07	-4.724667e-06	-1.490230e-09	-3.290154e+01	-9.961027e+01
6.400000e-07	-4.700664e-06	-1.475138e-09	-3.273439e+01	-9.927991e+01
6.500000e-07	-4.676243e-06	-1.440083e-09	-3.256432e+01	-9.894421e+01
6.600000e-07	-4.651417e-06	-1.463216e-09	-3.239144e+01	-9.860337e+01
6.700000e-07	-4.626123e-06	-1.455055e-09	-3.221530e+01	-9.825754e+01
6.800000e-07	-4.600264e-06	-1.426571e-09	-3.203523e+01	-9.790687e+01
6.900000e-07	-4.573915e-06	-1.432498e-09	-3.185173e+01	-9.755152e+01
7.000000e-07	-4.547105e-06	-1.444351e-09	-3.166503e+01	-9.719161e+01
7.100000e-07	-4.519900e-06	-1.415194e-09	-3.147559e+01	-9.682727e+01
7.200000e-07	-4.492422e-06	-1.411701e-09	-3.128423e+01	-9.645860e+01
7.300000e-07	-4.464761e-06	-1.414947e-09	-3.109161e+01	-9.608570e+01
7.400000e-07	-4.436937e-06	-1.398835e-09	-3.089785e+01	-9.570864e+01
7.500000e-07	-4.408841e-06	-1.381928e-09	-3.070220e+01	-9.532749e+01
7.600000e-07	-4.380453e-06	-1.392063e-09	-3.050451e+01	-9.494228e+01
7.700000e-07	-4.351788e-06	-1.384131e-09	-3.030489e+01	-9.455304e+01
7.800000e-07	-4.322807e-06	-1.372155e-09	-3.010307e+01	-9.415980e+01
7.900000e-07	-4.293483e-06	-1.370421e-09	-2.989887e+01	-9.376255e+01
8.000000e-07	-4.263839e-06	-1.361743e-09	-2.969243e+01	-9.336128e+01
8.100000e-07	-4.233925e-06	-1.343063e-09	-2.948412e+01	-9.295594e+01
8.200000e-07	-4.203803e-06	-1.341304e-09	-2.927435e+01	-9.254651e+01
8.300000e-07	-4.173382e-06	-1.339267e-09	-2.906251e+01	-9.213292e+01
8.400000e-07	-4.142624e-06	-1.325454e-09	-2.884832e+01	-9.171510e+01
8.500000e-07	-4.111578e-06	-1.319849e-09	-2.863212e+01	-9.129299e+01
8.600000e-07	-4.080265e-06	-1.322843e-09	-2.841406e+01	-9.086648e+01
8.700000e-07	-4.048794e-06	-1.313949e-09	-2.819491e+01	-9.043549e+01
8.800000e-07	-4.017173e-06	-1.304745e-09	-2.797470e+01	-8.999992e+01
8.900000e-07	-3.985403e-06	-1.306904e-09	-2.775346e+01	-8.955966e+01
9.000000e-07	-3.953405e-06	-1.294128e-09	-2.753064e+01	-8.911460e+01
9.100000e-07	-3.920904e-06	-1.278214e-09	-2.730431e+01	-8.866463e+01
9.200000e-07	-3.888002e-06	-1.272833e-09	-2.707519e+01	-8.820965e+01
9.300000e-07	-3.854803e-06	-1.268233e-09	-2.684400e+01	-8.774953e+01
9.400000e-07	-3.821181e-06	-1.252525e-09	-2.660986e+01	-8.728419e+01
9.500000e-07	-3.787222e-06	-1.250292e-09	-2.637337e+01	-8.681351e+01
9.600000e-07	-3.752871e-06	-1.247155e-09	-2.613416e+01	-8.633740e+01
9.700000e-07	-3.718114e-06	-1.232126e-09	-2.589213e+01	-8.585578e+01
9.800000e-07	-3.683046e-06	-1.220261e-09	-2.564792e+01	-8.536855e+01
9.900000e-07	-3.647758e-06	-1.222856e-09	-2.540218e+01	-8.487566e+01
1.000000e-06	-3.612343e-06	-1.214492e-09	-2.515556e+01	-8.437703e+01
1.010000e-06	-3.576794e-06	-1.205110e-09	-2.490801e+01	-8.387262e+01
1.020000e-06	-3.541072e-06	-1.202719e-09	-2.465924e+01	-8.336239e+01
1.030000e-06	-3.505125e-06	-1.197910e-09	-2.440892e+01	-8.284631e+01
1.040000e-06	-3.468907e-06	-1.180833e-09	-2.415670e+01	-8.232437e+01
1.050000e-06	-3.432432e-06	-1.175766e-09	-2.390270e+01	-8.179658e+01
1.060000e-06	-3.395740e-06	-1.170775e-09	-2.364718e+01	-8.126293e+01
1.070000e-06	-3.358735e-06	-1.156943e-09	-2.338949e+01	-8.072346e+01
1.080000e-06	-3.321441e-06	-1.145880e-09	-2.312978e+01	-8.017820e+01
1.090000e-06	-3.283925e-06	-1.143928e-09	-2.286853e+01	-7.962721e+01
1.100000e-06	-3.246164e-06	-1.134741e-09	-2.260557e+01	-7.907053e+01
1.110000e-06	-3.208176e-06	-1.120937e-09	-2.234103e+01	-7.850825e+01
1.120000e-06	-3.169996e-06	-1.113896e-09	-2.207515e+01	-7.794043e+01
1.130000e-06	-3.131596e-06	-1.105043e-09	-2.180775e+01	-7.736717e+01
1.140000e-06	-3.092963e-06	-1.092335e-09	-2.153871e+01	-7.678856e+01
1.150000e-06	-3.054208e-06	-1.084532e-09	-2.126883e+01	-7.620469e+01
1.160000e-06	-3.015277e-06	-1.078181e-09	-2.099773e+01	-7.561567e+01
1.170000e-06	-2.976114e-06	-1.065892e-09	-2.072500e+01	-7.502160e+01
1.180000e-06	-2.936840e-06	-1.053426e-09	-2.045151e+01	-7.442259e+01
1.190000e-06	-2.897394e-06	-1.046857e-09	-2.017681e+01	-7.381872e+01
1.200000e-06	-2.857729e-06	-1.040071e-09	-1.990060e+01	-7.321010e+01
1.210000e-06	-2.817970e-06	-1.031363e-09	-1.962372e+01	-7.259682e+01
1.220000e-06	-2.778107e-06	-1.023640e-09	-1.934612e+01	-7.197896e+01
1.230000e-06	-2.738117e-06	-1.009988e-09	-1.906764e+01	-7.135659e+01
1.240000e-06	-2.697899e-06	-9.934989e-10	-1.878757e+01	-7.072976e+01
1.250000e-06	-2.657327e-06	-9.797382e-10	-1.850504e+01	-7.009853e+01
1.260000e-06	-2.616545e-06	-9.754042e-10	-1.822104e+01	-6.946291e+01
1.270000e-06	-2.575546e-06	-9.727095e-10	-1.793553e+01	-6.882292e+01
1.280000e-06	-2.534223e-06	-9.700974e-10	-1.764777e+01	-6.817853e+01
1.290000e-06	-2.492558e-06	-9.624585e-10	-1.735762e+01	-6.752973e+01
1.300000e-06	-2.450531e-06	-9.489878e-10	-1.706495e+01	-6.687644e+01
1.310000e-06	-2.408258e-06	-9.307240e-10	-1.677057e+01	-6.621858e+01
1.320000e-06	-2.365826e-06	-9.152963e-10	-1.647509e+01	-6.555604e+01
1.330000e-06	-2.323215e-06	-9.013811e-10	-1.617836e+01	-6.488868e+01
1.340000e-06	-2.280431e-06	-8.898813e-10	-1.588042e+01	-6.421632e+01
1.350000e-06	-2.237423e-06	-8.822851e-10	-1.558092e+01	-6.353878e+01
1.360000e-06	-2.194117e-06	-8.784934e-10	-1.527935e+01	-6.285581e+01
1.370000e-06	-2.150635e-06	-8.701264e-10	-1.497655e+01	-6.216715e+01
1.380000e-06	-2.107053e-06	-8.577693e-10	-1.467305e+01	-6.147252e+01
1.390000e-06	-2.063434e-06	-8.406385e-10	-1.436930e+01	-6.077157e+01
1.400000e-06	-2.019775e-06	-8.237139e-10	-1.406527e+01	-6.006397e+01
1.410000e-06	-1.975981e-06	-8.090265e-10	-1.376029e+01	-5.934931e+01
1.420000e-06	-1.932127e-06	-7.994710e-10	-1.345490e+01	-5.862719e+01
1.430000e-06	-1.888204e-06	-7.927158e-10	-1.314903e+01	-5.789714e+01
1.440000e-06	-1.844135e-06	-7.837895e-10	-1.284215e+01	-5.715871e+01
1.450000e-06	-1.799978e-06	-7.711486e-10	-1.253465e+01	-5.641138e+01
1.460000e-06	-1.755716e-06	-7.592679e-10	-1.222642e+01	-5.565463e+01
1.470000e-06	-1.711307e-06	-7.485696e-10	-1.191716e+01	-5.488792e+01
1.480000e-06	-1.666755e-06	-7.367782e-10	-1.160692e+01	-5.411066e+01
1.490000e-06	-1.622031e-06	-7.244142e-10	-1.129547e+01	-5.332228e+01
1.500000e-06	-1.577176e-06	-7.122664e-10	-1.098310e+01	-5.252217e+01
1.510000e-06	-1.532194e-06	-7.014015e-10	-1.066986e+01	-5.170972e+01
1.520000e-06	-1.487051e-06	-6.879164e-10	-1.035550e+01	-5.088429e+01
1.530000e-06	-1.441907e-06	-6.734078e-10	-1.004112e+01	-5.004525e+01
1.540000e-06	-1.396763e-06	-6.595931e-10	-9.726747e+00	-4.919197e+01
1.550000e-06	-1.351432e-06	-6.470012e-10	-9.411073e+00	-4.832381e+01
1.560000e-06	-1.305963e-06	-6.312721e-10	-9.094436e+00	-4.744013e+01
1.570000e-06	-1.260434e-06	-6.166286e-10	-8.777382e+00	-4.654031e+01
1.580000e-06	-1.214851e-06	-6.009954e-10	-8.459953e+00	-4.562373e+01
1.590000e-06	-1.169202e-06	-5.835236e-10	-8.142063e+00	-4.468979e+01
1.600000e-06	-1.123423e-06	-5.680675e-10	-7.823270e+00	-4.373789e+01
1.610000e-06	-1.077626e-06	-5.550924e-10	-7.504349e+00	-4.276749e+01
1.620000e-06	-1.031789e-06	-5.407553e-10	-7.185149e+00	-4.177803e+01
1.630000e-06	-9.858171e-07	-5.256263e-10	-6.865013e+00	-4.076901e+01
1.640000e-06	-9.397370e-07	-5.105480e-10	-6.544121e+00	-3.973995e+01
1.650000e-06	-8.935476e-07	-4.946292e-10	-6.222468e+00	-3.869042e+01
1.660000e-06	-8.473309e-07	-4.776600e-10	-5.900625e+00	-3.762000e+01
1.670000e-06	-8.011490e-07	-4.628666e-10	-5.579025e+00	-3.652833e+01
1.680000e-06	-7.548742e-07	-4.500595e-10	-5.256777e+00	-3.541512e+01
1.690000e-06	-7.085477e-07	-4.358321e-10	-4.934170e+00	-3.428007e+01
1.700000e-06	-6.621858e-07	-4.187038e-10	-4.611315e+00	-3.312300e+01
1.710000e-06	-6.156942e-07	-4.006559e-10	-4.287558e+00	-3.194373e+01
1.720000e-06	-5.691995e-07	-3.812731e-10	-3.963779e+00	-3.074216e+01
1.730000e-06	-5.226853e-07	-3.607523e-10	-3.639865e+00	-2.951824e+01
1.740000e-06	-4.761351e-07	-3.393714e-10	-3.315700e+00	-2.827200e+01
1.750000e-06	-4.295991e-07	-3.200131e-10	-2.991633e+00	-2.700351e+01
1.760000e-06	-3.829805e-07	-3.029315e-10	-2.666991e+00	-2.571290e+01
1.770000e-06	-3.362727e-07	-2.861429e-10	-2.341729e+00	-2.440039e+01
1.780000e-06	-2.895337e-07	-2.676421e-10	-2.016249e+00	-2.306624e+01
1.790000e-06	-2.426850e-07	-2.489398e-10	-1.690005e+00	-2.171080e+01
1.800000e-06	-1.958356e-07	-2.314005e-10	-1.363756e+00	-2.033445e+01
1.810000e-06	-1.490689e-07	-2.124157e-10	-1.038083e+00	-1.893767e+01
1.820000e-06	-1.023127e-07	-1.903756e-10	-7.124832e-01	-1.752099e+01
1.830000e-06	-5.552150e-08	-1.659877e-10	-3.866394e-01	-1.608500e+01
1.840000e-06	-8.715838e-09	-1.436449e-10	-6.069517e-02	-1.463037e+01
1.850000e-06	3.809976e-08	-1.245848e-10	2.653183e-01	-1.315780e+01
1.860000e-06	8.488256e-08	-1.063732e-10	5.911034e-01	-1.166809e+01
1.870000e-06	1.315687e-07	-8.617459e-11	9.162153e-01	-1.016207e+01
1.880000e-06	1.782578e-07	-6.522427e-11	1.241348e+00	-8.640631e+00
1.890000e-06	2.249617e-07	-4.425606e-11	1.566584e+00	-7.104722e+00
1.900000e-06	2.716494e-07	-2.321908e-11	1.891706e+00	-5.555338e+00
1.910000e-06	3.183392e-07	-1.253684e-12	2.216844e+00	-3.993522e+00
1.920000e-06	3.649987e-07	2.180967e-11	2.541770e+00	-2.420361e+00
1.930000e-06	4.116157e-07	4.616061e-11	2.866401e+00	-8.369825e-01
1.940000e-06	4.581552e-07	7.013490e-11	3.190491e+00	7.554516e-01
1.950000e-06	5.046561e-07	9.297245e-11	3.514314e+00	2.355746e+00
1.960000e-06	5.512761e-07	1.147869e-10	3.838965e+00	3.962676e+00
1.970000e-06	5.978493e-07	1.360658e-10	4.163291e+00	5.574996e+00
1.980000e-06	6.442365e-07	1.568815e-10	4.486320e+00	7.191439e+00
1.990000e-06	6.905507e-07	1.776836e-10	4.808843e+00	8.810722e+00
2.000000e-06	7.368485e-07	2.002269e-10	5.131250e+00	1.043155e+01
2.010000e-06	7.831719e-07	2.244284e-10	5.453836e+00	1.205263e+01
2.020000e-06	8.294196e-07	2.484325e-10	5.775895e+00	1.367267e+01
2.030000e-06	8.755570e-07	2.744936e-10	6.097186e+00	1.529035e+01
2.040000e-06	9.216209e-07	2.993960e-10	6.417965e+00	1.690440e+01
2.050000e-06	9.676158e-07	3.209904e-10	6.738262e+00	1.851355e+01
2.060000e-06	1.013558e-06	3.424566e-10	7.058195e+00	2.011653e+01
2.070000e-06	1.059434e-06	3.639344e-10	7.377666e+00	2.171210e+01
2.080000e-06	1.105292e-06	3.844804e-10	7.697008e+00	2.329906e+01
2.090000e-06	1.151074e-06	4.049838e-10	8.015827e+00	2.487622e+01
2.100000e-06	1.196714e-06	4.271600e-10	8.333655e+00	2.644244e+01
2.110000e-06	1.242221e-06	4.500859e-10	8.650554e+00	2.799661e+01
2.120000e-06	1.287676e-06	4.731883e-10	8.967090e+00	2.953766e+01
2.130000e-06	1.333072e-06	4.960169e-10	9.283217e+00	3.106456e+01
2.140000e-06	1.378334e-06	5.173664e-10	9.598417e+00	3.257635e+01
2.150000e-06	1.423479e-06	5.367313e-10	9.912795e+00	3.407210e+01
2.160000e-06	1.468578e-06	5.558884e-10	1.022685e+01	3.555093e+01
2.170000e-06	1.513566e-06	5.748195e-10	1.054014e+01	3.701203e+01
2.180000e-06	1.558385e-06	5.929260e-10	1.085225e+01	3.845464e+01
2.190000e-06	1.603098e-06	6.123872e-10	1.116362e+01	3.987807e+01
2.200000e-06	1.647696e-06	6.341628e-10	1.147419e+01	4.128168e+01
2.210000e-06	1.692174e-06	6.535191e-10	1.178392e+01	4.266488e+01
2.220000e-06	1.736490e-06	6.704410e-10	1.209253e+01	4.402718e+01
2.230000e-06	1.780692e-06	6.867475e-10	1.240034e+01	4.536812e+01
2.240000e-06	1.824795e-06	7.033767e-10	1.270747e+01	4.668731e+01
2.250000e-06	1.868770e-06	7.220823e-10	1.301370e+01	4.798443e+01
2.260000e-06	1.912650e-06	7.420427e-10	1.331927e+01	4.925922e+01
2.270000e-06	1.956483e-06	7.600185e-10	1.362452e+01	5.051148e+01
2.280000e-06	2.000272e-06	7.754817e-10	1.392945e+01	5.174108e+01
2.290000e-06	2.043964e-06	7.902207e-10	1.423371e+01	5.294794e+01
2.300000e-06	2.087580e-06	8.035440e-10	1.453745e+01	5.413203e+01
2.310000e-06	2.131161e-06	8.156202e-10	1.484093e+01	5.529340e+01
2.320000e-06	2.174659e-06	8.310505e-10	1.514384e+01	5.643213e+01
2.330000e-06	2.218066e-06	8.494790e-10	1.544612e+01	5.754836e+01
2.340000e-06	2.261335e-06	8.668157e-10	1.574744e+01	5.864228e+01
2.350000e-06	2.304312e-06	8.816056e-10	1.604672e+01	5.971413e+01
2.360000e-06	2.347063e-06	8.953102e-10	1.634443e+01	6.076418e+01
2.370000e-06	2.389548e-06	9.070334e-10	1.664029e+01	6.179275e+01
2.380000e-06	2.431641e-06	9.167259e-10	1.693341e+01	6.280020e+01
2.390000e-06	2.473539e-06	9.281449e-10	1.722518e+01	6.378690e+01
2.400000e-06	2.515126e-06	9.408109e-10	1.751478e+01	6.475329e+01
2.410000e-06	2.556296e-06	9.543982e-10	1.780148e+01	6.569979e+01
2.420000e-06	2.597219e-06	9.687944e-10	1.808646e+01	6.662688e+01
2.430000e-06	2.637927e-06	9.825657e-10	1.836994e+01	6.753503e+01
2.440000e-06	2.678414e-06	9.929926e-10	1.865188e+01	6.842475e+01
2.450000e-06	2.718661e-06	1.002459e-09	1.893216e+01	6.929654e+01
2.460000e-06	2.758724e-06	1.013076e-09	1.921114e+01	7.015093e+01
2.470000e-06	2.798707e-06	1.023015e-09	1.948957e+01	7.098844e+01
2.480000e-06	2.838568e-06	1.032669e-09	1.976716e+01	7.180959e+01
2.490000e-06	2.878214e-06	1.043713e-09	2.004324e+01	7.261490e+01
2.500000e-06	2.917713e-06	1.056238e-09	2.031831e+01	7.340490e+01
2.510000e-06	2.957103e-06	1.068886e-09	2.059261e+01	7.418010e+01
2.520000e-06	2.996340e-06	1.080565e-09	2.086585e+01	7.494099e+01
2.530000e-06	3.035397e-06	1.092551e-09	2.113783e+01	7.568808e+01
2.540000e-06	3.074226e-06	1.105114e-09	2.140823e+01	7.642182e+01
2.550000e-06	3.112782e-06	1.115568e-09	2.167672e+01	7.714269e+01
2.560000e-06	3.151140e-06	1.124035e-09	2.194384e+01	7.785111e+01
2.570000e-06	3.189304e-06	1.133683e-09	2.220961e+01	7.854750e+01
2.580000e-06	3.227230e-06	1.144723e-09	2.247372e+01	7.923227e+01
2.590000e-06	3.265004e-06	1.154903e-09	2.273676e+01	7.990578e+01
2.600000e-06	3.302606e-06	1.163935e-09	2.299862e+01	8.056839e+01
2.610000e-06	3.340010e-06	1.172894e-09	2.325909e+01	8.122041e+01
2.620000e-06	3.377191e-06	1.181585e-09	2.351801e+01	8.186216e+01
2.630000e-06	3.414036e-06	1.189323e-09	2.377459e+01	8.249390e+01
2.640000e-06	3.450601e-06	1.197345e-09	2.402923e+01	8.311588e+01
2.650000e-06	3.486917e-06	1.207925e-09	2.428212e+01	8.372833e+01
2.660000e-06	3.523009e-06	1.220531e-09	2.453346e+01	8.433146e+01
2.670000e-06	3.558895e-06	1.231067e-09	2.478336e+01	8.492543e+01
2.680000e-06	3.594614e-06	1.239230e-09	2.503210e+01	8.551041e+01
2.690000e-06	3.630223e-06	1.243956e-09	2.528007e+01	8.608652e+01
2.700000e-06	3.665676e-06	1.246612e-09	2.552696e+01	8.665388e+01
2.710000e-06	3.700916e-06	1.252504e-09	2.577236e+01	8.721258e+01
2.720000e-06	3.735933e-06	1.261435e-09	2.601621e+01	8.776271e+01
2.730000e-06	3.770722e-06	1.270385e-09	2.625847e+01	8.830431e+01
2.740000e-06	3.805077e-06	1.278810e-09	2.649771e+01	8.883743e+01
2.750000e-06	3.838840e-06	1.286702e-09	2.673283e+01	8.936212e+01
2.760000e-06	3.872105e-06	1.291446e-09	2.696448e+01	8.987838e+01
2.770000e-06	3.904967e-06	1.294130e-09	2.719333e+01	9.038623e+01
2.780000e-06	3.937382e-06	1.300010e-09	2.741906e+01	9.088567e+01
2.790000e-06	3.969517e-06	1.309198e-09	2.764284e+01	9.137671e+01
2.800000e-06	4.001513e-06	1.317486e-09	2.786566e+01	9.185934e+01
2.810000e-06	4.033378e-06	1.325375e-09	2.808755e+01	9.233356e+01
2.820000e-06	4.065048e-06	1.332391e-09	2.830810e+01	9.279935e+01
2.830000e-06	4.096426e-06	1.337022e-09	2.852661e+01	9.325671e+01
2.840000e-06	4.127577e-06	1.341476e-09	2.874353e+01	9.370564e+01
2.850000e-06	4.158466e-06	1.346538e-09	2.895864e+01	9.414614e+01
2.860000e-06	4.188966e-06	1.352297e-09	2.917103e+01	9.457821e+01
2.870000e-06	4.219081e-06	1.359253e-09	2.938075e+01	9.500187e+01
2.880000e-06	4.248936e-06	1.366988e-09	2.958865e+01	9.541714e+01
2.890000e-06	4.278577e-06	1.372517e-09	2.979507e+01	9.582404e+01
2.900000e-06	4.307971e-06	1.375359e-09	2.999976e+01	9.622261e+01
