# Temperatura_=_0.18
# Concentracion g/m^3_=_1620.0
# C_Vs_to_Am_M_A/Vsm_=_65563218390.804596
# pendiente_HvsI_1/m_=_3716.3
# ordenada_HvsI_A/m_=_1297.0
# frecuencia_Hz_=_135106.3069096839

Tiempo_(s)	Campo_(V.s)	Magnetizacion_(V.s)	Campo_(kA/m)	Magnetizacion_(A/m)
0.000000e+00	-5.511879e-06	-1.391314e-09	-3.836578e+01	-9.067976e+01
1.000000e-08	-5.512025e-06	-1.383722e-09	-3.836680e+01	-9.063753e+01
2.000000e-08	-5.511908e-06	-1.377371e-09	-3.836598e+01	-9.059458e+01
3.000000e-08	-5.511357e-06	-1.377282e-09	-3.836215e+01	-9.055098e+01
4.000000e-08	-5.510289e-06	-1.382462e-09	-3.835471e+01	-9.050680e+01
5.000000e-08	-5.508650e-06	-1.388373e-09	-3.834330e+01	-9.046207e+01
6.000000e-08	-5.506420e-06	-1.388735e-09	-3.832778e+01	-9.041681e+01
7.000000e-08	-5.503612e-06	-1.392877e-09	-3.830824e+01	-9.037101e+01
8.000000e-08	-5.500300e-06	-1.410047e-09	-3.828518e+01	-9.032463e+01
9.000000e-08	-5.496596e-06	-1.427586e-09	-3.825940e+01	-9.027761e+01
1.000000e-07	-5.492447e-06	-1.401395e-09	-3.823052e+01	-9.022986e+01
1.100000e-07	-5.487933e-06	-1.354356e-09	-3.819910e+01	-9.018128e+01
1.200000e-07	-5.483319e-06	-1.361223e-09	-3.816699e+01	-9.013175e+01
1.300000e-07	-5.478504e-06	-1.405528e-09	-3.813347e+01	-9.008111e+01
1.400000e-07	-5.473212e-06	-1.404287e-09	-3.809663e+01	-9.002919e+01
1.500000e-07	-5.467474e-06	-1.375372e-09	-3.805670e+01	-8.997581e+01
1.600000e-07	-5.461373e-06	-1.371030e-09	-3.801423e+01	-8.992078e+01
1.700000e-07	-5.454866e-06	-1.423239e-09	-3.796894e+01	-8.986387e+01
1.800000e-07	-5.447934e-06	-1.406217e-09	-3.792068e+01	-8.980485e+01
1.900000e-07	-5.440636e-06	-1.362048e-09	-3.786989e+01	-8.974350e+01
2.000000e-07	-5.433081e-06	-1.343278e-09	-3.781730e+01	-8.967956e+01
2.100000e-07	-5.425311e-06	-1.388509e-09	-3.776322e+01	-8.961280e+01
2.200000e-07	-5.417280e-06	-1.397644e-09	-3.770731e+01	-8.954294e+01
2.300000e-07	-5.408947e-06	-1.371979e-09	-3.764931e+01	-8.946974e+01
2.400000e-07	-5.400168e-06	-1.357110e-09	-3.758821e+01	-8.939294e+01
2.500000e-07	-5.390652e-06	-1.365213e-09	-3.752197e+01	-8.931229e+01
2.600000e-07	-5.380329e-06	-1.362948e-09	-3.745012e+01	-8.922754e+01
2.700000e-07	-5.369479e-06	-1.340679e-09	-3.737459e+01	-8.913845e+01
2.800000e-07	-5.358163e-06	-1.333995e-09	-3.729583e+01	-8.904479e+01
2.900000e-07	-5.346411e-06	-1.341709e-09	-3.721403e+01	-8.894634e+01
3.000000e-07	-5.334366e-06	-1.353606e-09	-3.713019e+01	-8.884290e+01
3.100000e-07	-5.321940e-06	-1.325663e-09	-3.704370e+01	-8.873425e+01
3.200000e-07	-5.309109e-06	-1.317425e-09	-3.695439e+01	-8.862024e+01
3.300000e-07	-5.295921e-06	-1.320719e-09	-3.686259e+01	-8.850069e+01
3.400000e-07	-5.282378e-06	-1.329698e-09	-3.676832e+01	-8.837547e+01
3.500000e-07	-5.268386e-06	-1.299928e-09	-3.667093e+01	-8.824444e+01
3.600000e-07	-5.253849e-06	-1.305944e-09	-3.656975e+01	-8.810750e+01
3.700000e-07	-5.238807e-06	-1.320939e-09	-3.646505e+01	-8.796457e+01
3.800000e-07	-5.223232e-06	-1.313718e-09	-3.635663e+01	-8.781559e+01
3.900000e-07	-5.207089e-06	-1.289703e-09	-3.624427e+01	-8.766050e+01
4.000000e-07	-5.190574e-06	-1.310860e-09	-3.612932e+01	-8.749930e+01
4.100000e-07	-5.173772e-06	-1.309230e-09	-3.601236e+01	-8.733198e+01
4.200000e-07	-5.156632e-06	-1.278685e-09	-3.589306e+01	-8.715855e+01
4.300000e-07	-5.139174e-06	-1.284993e-09	-3.577154e+01	-8.697907e+01
4.400000e-07	-5.121392e-06	-1.319022e-09	-3.564777e+01	-8.679359e+01
4.500000e-07	-5.103223e-06	-1.289780e-09	-3.552131e+01	-8.660219e+01
4.600000e-07	-5.084650e-06	-1.267780e-09	-3.539202e+01	-8.640497e+01
4.700000e-07	-5.065736e-06	-1.300623e-09	-3.526037e+01	-8.620204e+01
4.800000e-07	-5.046609e-06	-1.301698e-09	-3.512724e+01	-8.599354e+01
4.900000e-07	-5.027251e-06	-1.261715e-09	-3.499249e+01	-8.577960e+01
5.000000e-07	-5.007627e-06	-1.273635e-09	-3.485590e+01	-8.556038e+01
5.100000e-07	-4.987770e-06	-1.287473e-09	-3.471769e+01	-8.533606e+01
5.200000e-07	-4.967585e-06	-1.249211e-09	-3.457718e+01	-8.510681e+01
5.300000e-07	-4.947026e-06	-1.247799e-09	-3.443408e+01	-8.487281e+01
5.400000e-07	-4.926122e-06	-1.278264e-09	-3.428858e+01	-8.463425e+01
5.500000e-07	-4.904813e-06	-1.254733e-09	-3.414026e+01	-8.439133e+01
5.600000e-07	-4.883101e-06	-1.230420e-09	-3.398913e+01	-8.414426e+01
5.700000e-07	-4.861070e-06	-1.263606e-09	-3.383578e+01	-8.389322e+01
5.800000e-07	-4.838730e-06	-1.262971e-09	-3.368028e+01	-8.363841e+01
5.900000e-07	-4.815981e-06	-1.234281e-09	-3.352194e+01	-8.338003e+01
6.000000e-07	-4.792883e-06	-1.246353e-09	-3.336116e+01	-8.311826e+01
6.100000e-07	-4.769544e-06	-1.258578e-09	-3.319871e+01	-8.285330e+01
6.200000e-07	-4.745959e-06	-1.228286e-09	-3.303455e+01	-8.258531e+01
6.300000e-07	-4.722192e-06	-1.229131e-09	-3.286911e+01	-8.231445e+01
6.400000e-07	-4.698191e-06	-1.240722e-09	-3.270205e+01	-8.204089e+01
6.500000e-07	-4.673817e-06	-1.223531e-09	-3.253240e+01	-8.176475e+01
6.600000e-07	-4.648862e-06	-1.210248e-09	-3.235870e+01	-8.148618e+01
6.700000e-07	-4.623282e-06	-1.224295e-09	-3.218064e+01	-8.120527e+01
6.800000e-07	-4.597221e-06	-1.214408e-09	-3.199925e+01	-8.092214e+01
6.900000e-07	-4.570724e-06	-1.203735e-09	-3.181481e+01	-8.063684e+01
7.000000e-07	-4.543815e-06	-1.209724e-09	-3.162751e+01	-8.034945e+01
7.100000e-07	-4.516595e-06	-1.203947e-09	-3.143804e+01	-8.006001e+01
7.200000e-07	-4.489118e-06	-1.184036e-09	-3.124679e+01	-7.976855e+01
7.300000e-07	-4.461466e-06	-1.184481e-09	-3.105432e+01	-7.947506e+01
7.400000e-07	-4.433657e-06	-1.181878e-09	-3.086075e+01	-7.917953e+01
7.500000e-07	-4.405611e-06	-1.170966e-09	-3.066553e+01	-7.888194e+01
7.600000e-07	-4.377288e-06	-1.172396e-09	-3.046839e+01	-7.858223e+01
7.700000e-07	-4.348576e-06	-1.176020e-09	-3.026853e+01	-7.828033e+01
7.800000e-07	-4.319448e-06	-1.166085e-09	-3.006579e+01	-7.797616e+01
7.900000e-07	-4.290005e-06	-1.164141e-09	-2.986085e+01	-7.766960e+01
8.000000e-07	-4.260361e-06	-1.162860e-09	-2.965451e+01	-7.736054e+01
8.100000e-07	-4.230429e-06	-1.143815e-09	-2.944617e+01	-7.704885e+01
8.200000e-07	-4.200164e-06	-1.129366e-09	-2.923550e+01	-7.673436e+01
8.300000e-07	-4.169661e-06	-1.129486e-09	-2.902319e+01	-7.641691e+01
8.400000e-07	-4.138880e-06	-1.126294e-09	-2.880894e+01	-7.609633e+01
8.500000e-07	-4.107848e-06	-1.119848e-09	-2.859293e+01	-7.577242e+01
8.600000e-07	-4.076610e-06	-1.126074e-09	-2.837550e+01	-7.544500e+01
8.700000e-07	-4.045180e-06	-1.125935e-09	-2.815673e+01	-7.511385e+01
8.800000e-07	-4.013601e-06	-1.116404e-09	-2.793692e+01	-7.477876e+01
8.900000e-07	-3.981827e-06	-1.109589e-09	-2.771576e+01	-7.443953e+01
9.000000e-07	-3.949771e-06	-1.103059e-09	-2.749263e+01	-7.409591e+01
9.100000e-07	-3.917453e-06	-1.085831e-09	-2.726768e+01	-7.374771e+01
9.200000e-07	-3.884809e-06	-1.077432e-09	-2.704046e+01	-7.339469e+01
9.300000e-07	-3.851703e-06	-1.077870e-09	-2.681002e+01	-7.303665e+01
9.400000e-07	-3.818018e-06	-1.072158e-09	-2.657555e+01	-7.267335e+01
9.500000e-07	-3.783850e-06	-1.063640e-09	-2.633773e+01	-7.230461e+01
9.600000e-07	-3.749305e-06	-1.063666e-09	-2.609727e+01	-7.193021e+01
9.700000e-07	-3.714386e-06	-1.054895e-09	-2.585422e+01	-7.154996e+01
9.800000e-07	-3.679170e-06	-1.041142e-09	-2.560910e+01	-7.116369e+01
9.900000e-07	-3.643736e-06	-1.034079e-09	-2.536245e+01	-7.077122e+01
1.000000e-06	-3.608162e-06	-1.030128e-09	-2.511484e+01	-7.037239e+01
1.010000e-06	-3.572484e-06	-1.021160e-09	-2.486650e+01	-6.996705e+01
1.020000e-06	-3.536719e-06	-1.015458e-09	-2.461756e+01	-6.955510e+01
1.030000e-06	-3.500727e-06	-1.010446e-09	-2.436703e+01	-6.913640e+01
1.040000e-06	-3.464460e-06	-1.002920e-09	-2.411459e+01	-6.871086e+01
1.050000e-06	-3.428000e-06	-9.947138e-10	-2.386081e+01	-6.827842e+01
1.060000e-06	-3.391247e-06	-9.896507e-10	-2.360499e+01	-6.783900e+01
1.070000e-06	-3.354235e-06	-9.818648e-10	-2.334736e+01	-6.739257e+01
1.080000e-06	-3.317009e-06	-9.735222e-10	-2.308825e+01	-6.693911e+01
1.090000e-06	-3.279501e-06	-9.687728e-10	-2.282717e+01	-6.647862e+01
1.100000e-06	-3.241763e-06	-9.616897e-10	-2.256449e+01	-6.601111e+01
1.110000e-06	-3.203826e-06	-9.510250e-10	-2.230043e+01	-6.553662e+01
1.120000e-06	-3.165712e-06	-9.425037e-10	-2.203514e+01	-6.505521e+01
1.130000e-06	-3.127413e-06	-9.349336e-10	-2.176855e+01	-6.456693e+01
1.140000e-06	-3.088788e-06	-9.229019e-10	-2.149971e+01	-6.407188e+01
1.150000e-06	-3.049881e-06	-9.139211e-10	-2.122889e+01	-6.357016e+01
1.160000e-06	-3.010767e-06	-9.088448e-10	-2.095663e+01	-6.306189e+01
1.170000e-06	-2.971483e-06	-9.045972e-10	-2.068319e+01	-6.254719e+01
1.180000e-06	-2.932101e-06	-8.995481e-10	-2.040907e+01	-6.202621e+01
1.190000e-06	-2.892613e-06	-8.956436e-10	-2.013421e+01	-6.149910e+01
1.200000e-06	-2.853017e-06	-8.881005e-10	-1.985861e+01	-6.096600e+01
1.210000e-06	-2.813233e-06	-8.768904e-10	-1.958169e+01	-6.042709e+01
1.220000e-06	-2.773283e-06	-8.654455e-10	-1.930361e+01	-5.988253e+01
1.230000e-06	-2.733161e-06	-8.548982e-10	-1.902434e+01	-5.933249e+01
1.240000e-06	-2.692790e-06	-8.424176e-10	-1.874334e+01	-5.877713e+01
1.250000e-06	-2.652239e-06	-8.350175e-10	-1.846108e+01	-5.821663e+01
1.260000e-06	-2.611508e-06	-8.297230e-10	-1.817757e+01	-5.765113e+01
1.270000e-06	-2.570482e-06	-8.236871e-10	-1.789200e+01	-5.708078e+01
1.280000e-06	-2.529183e-06	-8.155303e-10	-1.760453e+01	-5.650573e+01
1.290000e-06	-2.487542e-06	-8.078243e-10	-1.731469e+01	-5.592611e+01
1.300000e-06	-2.445523e-06	-7.966874e-10	-1.702222e+01	-5.534201e+01
1.310000e-06	-2.403222e-06	-7.832625e-10	-1.672778e+01	-5.475354e+01
1.320000e-06	-2.360691e-06	-7.705760e-10	-1.643174e+01	-5.416077e+01
1.330000e-06	-2.317969e-06	-7.598973e-10	-1.613437e+01	-5.356375e+01
1.340000e-06	-2.275038e-06	-7.516023e-10	-1.583555e+01	-5.296251e+01
1.350000e-06	-2.231852e-06	-7.460121e-10	-1.553494e+01	-5.235703e+01
1.360000e-06	-2.188453e-06	-7.415098e-10	-1.523286e+01	-5.174730e+01
1.370000e-06	-2.144946e-06	-7.350978e-10	-1.493003e+01	-5.113326e+01
1.380000e-06	-2.101354e-06	-7.256422e-10	-1.462661e+01	-5.051481e+01
1.390000e-06	-2.057695e-06	-7.133079e-10	-1.432272e+01	-4.989183e+01
1.400000e-06	-2.014008e-06	-7.010517e-10	-1.401863e+01	-4.926415e+01
1.410000e-06	-1.970269e-06	-6.895363e-10	-1.371418e+01	-4.863160e+01
1.420000e-06	-1.926422e-06	-6.778909e-10	-1.340898e+01	-4.799394e+01
1.430000e-06	-1.882458e-06	-6.672755e-10	-1.310297e+01	-4.735090e+01
1.440000e-06	-1.838459e-06	-6.586121e-10	-1.279671e+01	-4.670218e+01
1.450000e-06	-1.794411e-06	-6.494094e-10	-1.249011e+01	-4.604745e+01
1.460000e-06	-1.750217e-06	-6.409464e-10	-1.218249e+01	-4.538634e+01
1.470000e-06	-1.705864e-06	-6.299257e-10	-1.187377e+01	-4.471844e+01
1.480000e-06	-1.661397e-06	-6.182337e-10	-1.156426e+01	-4.404331e+01
1.490000e-06	-1.616794e-06	-6.059130e-10	-1.125380e+01	-4.336049e+01
1.500000e-06	-1.572049e-06	-5.945646e-10	-1.094234e+01	-4.266947e+01
1.510000e-06	-1.527199e-06	-5.832619e-10	-1.063016e+01	-4.196972e+01
1.520000e-06	-1.482199e-06	-5.715245e-10	-1.031694e+01	-4.126070e+01
1.530000e-06	-1.437008e-06	-5.608269e-10	-1.000238e+01	-4.054183e+01
1.540000e-06	-1.391717e-06	-5.503134e-10	-9.687133e+00	-3.981251e+01
1.550000e-06	-1.346348e-06	-5.372330e-10	-9.371336e+00	-3.907213e+01
1.560000e-06	-1.300860e-06	-5.244049e-10	-9.054714e+00	-3.832008e+01
1.570000e-06	-1.255267e-06	-5.129424e-10	-8.737368e+00	-3.755570e+01
1.580000e-06	-1.209589e-06	-4.994117e-10	-8.419419e+00	-3.677838e+01
1.590000e-06	-1.163867e-06	-4.852206e-10	-8.101168e+00	-3.598746e+01
1.600000e-06	-1.118065e-06	-4.714954e-10	-7.782360e+00	-3.518232e+01
1.610000e-06	-1.072210e-06	-4.561247e-10	-7.463187e+00	-3.436232e+01
1.620000e-06	-1.026301e-06	-4.421270e-10	-7.143632e+00	-3.352685e+01
1.630000e-06	-9.803108e-07	-4.285727e-10	-6.823515e+00	-3.267530e+01
1.640000e-06	-9.342191e-07	-4.139136e-10	-6.502691e+00	-3.180711e+01
1.650000e-06	-8.880181e-07	-3.992979e-10	-6.181106e+00	-3.092172e+01
1.660000e-06	-8.417358e-07	-3.855119e-10	-5.858955e+00	-3.001861e+01
1.670000e-06	-7.954267e-07	-3.733600e-10	-5.536617e+00	-2.909729e+01
1.680000e-06	-7.490513e-07	-3.615815e-10	-5.213818e+00	-2.815732e+01
1.690000e-06	-7.026163e-07	-3.486605e-10	-4.890605e+00	-2.719831e+01
1.700000e-06	-6.561870e-07	-3.328137e-10	-4.567431e+00	-2.621989e+01
1.710000e-06	-6.096793e-07	-3.146913e-10	-4.243711e+00	-2.522177e+01
1.720000e-06	-5.630307e-07	-2.955373e-10	-3.919011e+00	-2.420372e+01
1.730000e-06	-5.163084e-07	-2.762689e-10	-3.593797e+00	-2.316554e+01
1.740000e-06	-4.696243e-07	-2.577685e-10	-3.268849e+00	-2.210713e+01
1.750000e-06	-4.229612e-07	-2.418423e-10	-2.944048e+00	-2.102843e+01
1.760000e-06	-3.763323e-07	-2.289730e-10	-2.619484e+00	-1.992946e+01
1.770000e-06	-3.297051e-07	-2.168928e-10	-2.294933e+00	-1.881031e+01
1.780000e-06	-2.829109e-07	-2.028062e-10	-1.969219e+00	-1.767115e+01
1.790000e-06	-2.360321e-07	-1.871656e-10	-1.642916e+00	-1.651221e+01
1.800000e-06	-1.892526e-07	-1.681898e-10	-1.317305e+00	-1.533381e+01
1.810000e-06	-1.424482e-07	-1.469825e-10	-9.915194e-01	-1.413635e+01
1.820000e-06	-9.557509e-08	-1.255485e-10	-6.652564e-01	-1.292029e+01
1.830000e-06	-4.880684e-08	-1.045564e-10	-3.397231e-01	-1.168617e+01
1.840000e-06	-2.142400e-09	-8.770580e-11	-1.491231e-02	-1.043462e+01
1.850000e-06	4.458450e-08	-7.135566e-11	3.103332e-01	-9.166332e+00
1.860000e-06	9.141710e-08	-5.408015e-11	6.363145e-01	-7.882074e+00
1.870000e-06	1.382031e-07	-3.759336e-11	9.619711e-01	-6.582684e+00
1.880000e-06	1.849401e-07	-2.176348e-11	1.287287e+00	-5.269068e+00
1.890000e-06	2.316886e-07	-5.571798e-12	1.612683e+00	-3.942195e+00
1.900000e-06	2.783598e-07	1.328831e-11	1.937541e+00	-2.603097e+00
1.910000e-06	3.249569e-07	3.412753e-11	2.261883e+00	-1.252861e+00
1.920000e-06	3.715677e-07	5.817057e-11	2.586320e+00	1.073715e-01
1.930000e-06	4.182352e-07	8.116729e-11	2.911153e+00	1.476413e+00
1.940000e-06	4.648350e-07	1.013380e-10	3.235513e+00	2.853032e+00
1.950000e-06	5.112945e-07	1.178380e-10	3.558897e+00	4.235960e+00
1.960000e-06	5.577164e-07	1.325706e-10	3.882020e+00	5.623897e+00
1.970000e-06	6.041069e-07	1.476364e-10	4.204924e+00	7.015518e+00
1.980000e-06	6.504988e-07	1.652962e-10	4.527838e+00	8.409475e+00
1.990000e-06	6.969408e-07	1.846202e-10	4.851100e+00	9.804411e+00
2.000000e-06	7.432842e-07	2.047990e-10	5.173677e+00	1.119896e+01
2.010000e-06	7.894646e-07	2.255781e-10	5.495118e+00	1.259175e+01
2.020000e-06	8.356808e-07	2.456371e-10	5.816808e+00	1.398142e+01
2.030000e-06	8.818834e-07	2.668162e-10	6.138405e+00	1.536661e+01
2.040000e-06	9.279399e-07	2.889730e-10	6.458984e+00	1.674601e+01
2.050000e-06	9.739361e-07	3.097487e-10	6.779144e+00	1.811830e+01
2.060000e-06	1.019837e-06	3.289521e-10	7.098636e+00	1.948219e+01
2.070000e-06	1.065660e-06	3.452454e-10	7.417594e+00	2.083645e+01
2.080000e-06	1.111442e-06	3.601847e-10	7.736260e+00	2.217989e+01
2.090000e-06	1.157157e-06	3.777356e-10	8.054467e+00	2.351133e+01
2.100000e-06	1.202847e-06	3.969996e-10	8.372495e+00	2.482969e+01
2.110000e-06	1.248456e-06	4.163035e-10	8.689953e+00	2.613391e+01
2.120000e-06	1.293898e-06	4.348817e-10	9.006261e+00	2.742301e+01
2.130000e-06	1.339244e-06	4.547815e-10	9.321894e+00	2.869607e+01
2.140000e-06	1.384526e-06	4.729919e-10	9.637082e+00	2.995225e+01
2.150000e-06	1.429719e-06	4.887116e-10	9.951650e+00	3.119074e+01
2.160000e-06	1.474823e-06	5.033609e-10	1.026560e+01	3.241086e+01
2.170000e-06	1.519857e-06	5.186524e-10	1.057906e+01	3.361196e+01
2.180000e-06	1.564820e-06	5.351668e-10	1.089203e+01	3.479349e+01
2.190000e-06	1.609626e-06	5.533414e-10	1.120390e+01	3.595497e+01
2.200000e-06	1.654209e-06	5.714796e-10	1.151423e+01	3.709600e+01
2.210000e-06	1.698576e-06	5.866148e-10	1.182305e+01	3.821625e+01
2.220000e-06	1.742881e-06	5.986892e-10	1.213144e+01	3.931548e+01
2.230000e-06	1.787186e-06	6.119349e-10	1.243982e+01	4.039352e+01
2.240000e-06	1.831337e-06	6.282432e-10	1.274713e+01	4.145027e+01
2.250000e-06	1.875276e-06	6.459297e-10	1.305297e+01	4.248571e+01
2.260000e-06	1.919130e-06	6.619135e-10	1.335823e+01	4.349990e+01
2.270000e-06	1.962945e-06	6.753487e-10	1.366320e+01	4.449294e+01
2.280000e-06	2.006653e-06	6.868937e-10	1.396743e+01	4.546502e+01
2.290000e-06	2.050297e-06	6.961654e-10	1.427122e+01	4.641637e+01
2.300000e-06	2.093926e-06	7.036159e-10	1.457490e+01	4.734729e+01
2.310000e-06	2.137480e-06	7.130648e-10	1.487806e+01	4.825814e+01
2.320000e-06	2.180920e-06	7.280236e-10	1.518043e+01	4.914929e+01
2.330000e-06	2.224208e-06	7.457039e-10	1.548174e+01	5.002120e+01
2.340000e-06	2.267416e-06	7.622072e-10	1.578249e+01	5.087435e+01
2.350000e-06	2.310522e-06	7.744933e-10	1.608253e+01	5.170923e+01
2.360000e-06	2.353403e-06	7.818114e-10	1.638101e+01	5.252640e+01
2.370000e-06	2.396013e-06	7.870857e-10	1.667760e+01	5.332641e+01
2.380000e-06	2.438275e-06	7.935544e-10	1.697177e+01	5.410984e+01
2.390000e-06	2.480140e-06	8.028912e-10	1.726317e+01	5.487729e+01
2.400000e-06	2.521649e-06	8.150664e-10	1.755210e+01	5.562934e+01
2.410000e-06	2.562834e-06	8.288318e-10	1.783877e+01	5.636661e+01
2.420000e-06	2.603720e-06	8.419013e-10	1.812336e+01	5.708970e+01
2.430000e-06	2.644401e-06	8.527668e-10	1.840652e+01	5.779920e+01
2.440000e-06	2.684896e-06	8.613119e-10	1.868839e+01	5.849569e+01
2.450000e-06	2.725151e-06	8.671724e-10	1.896859e+01	5.917974e+01
2.460000e-06	2.765225e-06	8.723194e-10	1.924753e+01	5.985191e+01
2.470000e-06	2.805141e-06	8.794246e-10	1.952536e+01	6.051271e+01
2.480000e-06	2.844879e-06	8.888899e-10	1.980196e+01	6.116266e+01
2.490000e-06	2.884528e-06	8.989713e-10	2.007794e+01	6.180223e+01
2.500000e-06	2.924055e-06	9.098030e-10	2.035307e+01	6.243186e+01
2.510000e-06	2.963479e-06	9.203576e-10	2.062748e+01	6.305197e+01
2.520000e-06	3.002761e-06	9.298631e-10	2.090091e+01	6.366294e+01
2.530000e-06	3.041760e-06	9.398256e-10	2.117236e+01	6.426510e+01
2.540000e-06	3.080460e-06	9.501648e-10	2.144174e+01	6.485879e+01
2.550000e-06	3.118989e-06	9.580424e-10	2.170992e+01	6.544425e+01
2.560000e-06	3.157314e-06	9.635746e-10	2.197668e+01	6.602174e+01
2.570000e-06	3.195350e-06	9.695170e-10	2.224143e+01	6.659146e+01
2.580000e-06	3.233202e-06	9.775978e-10	2.250490e+01	6.715356e+01
2.590000e-06	3.270937e-06	9.861336e-10	2.276756e+01	6.770820e+01
2.600000e-06	3.308470e-06	9.926546e-10	2.302881e+01	6.825546e+01
2.610000e-06	3.345731e-06	9.969026e-10	2.328817e+01	6.879541e+01
2.620000e-06	3.382759e-06	1.000829e-09	2.354590e+01	6.932811e+01
2.630000e-06	3.419497e-06	1.006656e-09	2.380162e+01	6.985356e+01
2.640000e-06	3.455930e-06	1.015183e-09	2.405522e+01	7.037175e+01
2.650000e-06	3.492099e-06	1.025852e-09	2.430697e+01	7.088266e+01
2.660000e-06	3.528027e-06	1.039200e-09	2.455705e+01	7.138624e+01
2.670000e-06	3.563814e-06	1.049785e-09	2.480615e+01	7.188241e+01
2.680000e-06	3.599530e-06	1.052909e-09	2.505475e+01	7.237111e+01
2.690000e-06	3.635143e-06	1.051676e-09	2.530264e+01	7.285224e+01
2.700000e-06	3.670637e-06	1.049314e-09	2.554970e+01	7.332571e+01
2.710000e-06	3.705897e-06	1.052129e-09	2.579513e+01	7.379142e+01
2.720000e-06	3.740869e-06	1.061426e-09	2.603855e+01	7.424927e+01
2.730000e-06	3.775545e-06	1.075013e-09	2.627992e+01	7.469917e+01
2.740000e-06	3.809704e-06	1.086838e-09	2.651768e+01	7.514103e+01
2.750000e-06	3.843354e-06	1.092388e-09	2.675191e+01	7.557475e+01
2.760000e-06	3.876503e-06	1.092399e-09	2.698264e+01	7.600026e+01
2.770000e-06	3.909230e-06	1.091928e-09	2.721044e+01	7.641750e+01
2.780000e-06	3.941661e-06	1.095405e-09	2.743618e+01	7.682643e+01
2.790000e-06	3.973764e-06	1.101278e-09	2.765963e+01	7.722700e+01
2.800000e-06	4.005617e-06	1.109743e-09	2.788134e+01	7.761920e+01
2.810000e-06	4.037308e-06	1.119590e-09	2.810194e+01	7.800304e+01
2.820000e-06	4.068892e-06	1.128548e-09	2.832177e+01	7.837854e+01
2.830000e-06	4.100317e-06	1.135068e-09	2.854051e+01	7.874573e+01
2.840000e-06	4.131466e-06	1.137465e-09	2.875733e+01	7.910470e+01
2.850000e-06	4.162309e-06	1.139466e-09	2.897201e+01	7.945552e+01
2.860000e-06	4.192848e-06	1.142691e-09	2.918458e+01	7.979829e+01
2.870000e-06	4.223055e-06	1.145652e-09	2.939484e+01	8.013315e+01
2.880000e-06	4.252913e-06	1.147945e-09	2.960267e+01	8.046024e+01
2.890000e-06	4.282470e-06	1.150106e-09	2.980840e+01	8.077973e+01
2.900000e-06	4.311847e-06	1.153611e-09	3.001288e+01	8.109180e+01
2.910000e-06	4.341009e-06	1.158604e-09	3.021587e+01	8.139665e+01
