# Temperatura_=_14.2
# Concentracion g/m^3_=_1620.0
# C_Vs_to_Am_M_A/Vsm_=_65563218390.804596
# pendiente_HvsI_1/m_=_3716.3
# ordenada_HvsI_A/m_=_1297.0
# frecuencia_Hz_=_135104.96157323942

Tiempo_(s)	Campo_(V.s)	Magnetizacion_(V.s)	Campo_(kA/m)	Magnetizacion_(A/m)
0.000000e+00	-5.519915e-06	-1.143042e-09	-3.837603e+01	-7.357769e+01
1.000000e-08	-5.520082e-06	-1.140524e-09	-3.837719e+01	-7.354056e+01
2.000000e-08	-5.519940e-06	-1.138316e-09	-3.837620e+01	-7.350183e+01
3.000000e-08	-5.519343e-06	-1.136802e-09	-3.837205e+01	-7.346151e+01
4.000000e-08	-5.518185e-06	-1.133037e-09	-3.836400e+01	-7.341958e+01
5.000000e-08	-5.516506e-06	-1.125837e-09	-3.835232e+01	-7.337606e+01
6.000000e-08	-5.514282e-06	-1.120435e-09	-3.833686e+01	-7.333094e+01
7.000000e-08	-5.511503e-06	-1.130798e-09	-3.831754e+01	-7.328421e+01
8.000000e-08	-5.508255e-06	-1.148676e-09	-3.829497e+01	-7.323586e+01
9.000000e-08	-5.504559e-06	-1.132398e-09	-3.826926e+01	-7.318587e+01
1.000000e-07	-5.500455e-06	-1.107315e-09	-3.824074e+01	-7.313423e+01
1.100000e-07	-5.496060e-06	-1.128927e-09	-3.821018e+01	-7.308091e+01
1.200000e-07	-5.491411e-06	-1.164099e-09	-3.817785e+01	-7.302588e+01
1.300000e-07	-5.486361e-06	-1.133376e-09	-3.814275e+01	-7.296913e+01
1.400000e-07	-5.480953e-06	-1.085568e-09	-3.810515e+01	-7.291061e+01
1.500000e-07	-5.475284e-06	-1.106086e-09	-3.806574e+01	-7.285029e+01
1.600000e-07	-5.469320e-06	-1.157259e-09	-3.802427e+01	-7.278814e+01
1.700000e-07	-5.462876e-06	-1.137430e-09	-3.797948e+01	-7.272411e+01
1.800000e-07	-5.455943e-06	-1.090585e-09	-3.793128e+01	-7.265815e+01
1.900000e-07	-5.448707e-06	-1.105380e-09	-3.788097e+01	-7.259023e+01
2.000000e-07	-5.441144e-06	-1.145147e-09	-3.782839e+01	-7.252030e+01
2.100000e-07	-5.433299e-06	-1.131093e-09	-3.777385e+01	-7.244829e+01
2.200000e-07	-5.425241e-06	-1.081293e-09	-3.771783e+01	-7.237415e+01
2.300000e-07	-5.416835e-06	-1.072171e-09	-3.765938e+01	-7.229783e+01
2.400000e-07	-5.407945e-06	-1.085869e-09	-3.759758e+01	-7.221926e+01
2.500000e-07	-5.398416e-06	-1.077871e-09	-3.753133e+01	-7.213838e+01
2.600000e-07	-5.388217e-06	-1.062055e-09	-3.746042e+01	-7.205513e+01
2.700000e-07	-5.377511e-06	-1.073425e-09	-3.738599e+01	-7.196944e+01
2.800000e-07	-5.366307e-06	-1.085798e-09	-3.730810e+01	-7.188123e+01
2.900000e-07	-5.354708e-06	-1.072973e-09	-3.722746e+01	-7.179044e+01
3.000000e-07	-5.342789e-06	-1.057655e-09	-3.714459e+01	-7.169698e+01
3.100000e-07	-5.330337e-06	-1.059022e-09	-3.705803e+01	-7.160080e+01
3.200000e-07	-5.317353e-06	-1.059540e-09	-3.696776e+01	-7.150181e+01
3.300000e-07	-5.304046e-06	-1.057816e-09	-3.687524e+01	-7.139993e+01
3.400000e-07	-5.290368e-06	-1.049305e-09	-3.678015e+01	-7.129510e+01
3.500000e-07	-5.276286e-06	-1.055757e-09	-3.668224e+01	-7.118723e+01
3.600000e-07	-5.261743e-06	-1.066551e-09	-3.658114e+01	-7.107625e+01
3.700000e-07	-5.246628e-06	-1.058869e-09	-3.647605e+01	-7.096209e+01
3.800000e-07	-5.230913e-06	-1.038753e-09	-3.636680e+01	-7.084467e+01
3.900000e-07	-5.214751e-06	-1.053218e-09	-3.625444e+01	-7.072393e+01
4.000000e-07	-5.198305e-06	-1.063327e-09	-3.614010e+01	-7.059980e+01
4.100000e-07	-5.181521e-06	-1.037397e-09	-3.602341e+01	-7.047221e+01
4.200000e-07	-5.164435e-06	-1.038287e-09	-3.590463e+01	-7.034112e+01
4.300000e-07	-5.147063e-06	-1.064426e-09	-3.578386e+01	-7.020646e+01
4.400000e-07	-5.129311e-06	-1.038908e-09	-3.566044e+01	-7.006818e+01
4.500000e-07	-5.111107e-06	-1.005188e-09	-3.553388e+01	-6.992625e+01
4.600000e-07	-5.092486e-06	-1.039027e-09	-3.540442e+01	-6.978063e+01
4.700000e-07	-5.073492e-06	-1.050939e-09	-3.527236e+01	-6.963129e+01
4.800000e-07	-5.054215e-06	-1.012192e-09	-3.513835e+01	-6.947821e+01
4.900000e-07	-5.034699e-06	-1.020962e-09	-3.500267e+01	-6.932137e+01
5.000000e-07	-5.014940e-06	-1.049310e-09	-3.486530e+01	-6.916077e+01
5.100000e-07	-4.994965e-06	-1.013890e-09	-3.472643e+01	-6.899642e+01
5.200000e-07	-4.974678e-06	-1.002254e-09	-3.458538e+01	-6.882832e+01
5.300000e-07	-4.954047e-06	-1.032692e-09	-3.444195e+01	-6.865650e+01
5.400000e-07	-4.933045e-06	-1.009125e-09	-3.429594e+01	-6.848099e+01
5.500000e-07	-4.911706e-06	-9.767915e-10	-3.414758e+01	-6.830183e+01
5.600000e-07	-4.890063e-06	-1.013671e-09	-3.399712e+01	-6.811906e+01
5.700000e-07	-4.867988e-06	-1.020582e-09	-3.384364e+01	-6.793275e+01
5.800000e-07	-4.845500e-06	-9.820780e-10	-3.368730e+01	-6.774296e+01
5.900000e-07	-4.822662e-06	-9.929238e-10	-3.352852e+01	-6.754977e+01
6.000000e-07	-4.799504e-06	-1.015170e-09	-3.336753e+01	-6.735326e+01
6.100000e-07	-4.776139e-06	-9.873965e-10	-3.320509e+01	-6.715352e+01
6.200000e-07	-4.752575e-06	-9.818832e-10	-3.304126e+01	-6.695065e+01
6.300000e-07	-4.728802e-06	-1.001782e-09	-3.287598e+01	-6.674474e+01
6.400000e-07	-4.704738e-06	-9.851518e-10	-3.270868e+01	-6.653591e+01
6.500000e-07	-4.680236e-06	-9.680338e-10	-3.253834e+01	-6.632426e+01
6.600000e-07	-4.655327e-06	-9.815417e-10	-3.236516e+01	-6.610990e+01
6.700000e-07	-4.629989e-06	-9.782552e-10	-3.218900e+01	-6.589295e+01
6.800000e-07	-4.604080e-06	-9.639427e-10	-3.200888e+01	-6.567353e+01
6.900000e-07	-4.577600e-06	-9.717607e-10	-3.182478e+01	-6.545175e+01
7.000000e-07	-4.550657e-06	-9.733579e-10	-3.163747e+01	-6.522771e+01
7.100000e-07	-4.523330e-06	-9.594202e-10	-3.144749e+01	-6.500153e+01
7.200000e-07	-4.495775e-06	-9.583235e-10	-3.125591e+01	-6.477331e+01
7.300000e-07	-4.468096e-06	-9.594638e-10	-3.106348e+01	-6.454313e+01
7.400000e-07	-4.440276e-06	-9.458222e-10	-3.087007e+01	-6.431110e+01
7.500000e-07	-4.412208e-06	-9.381487e-10	-3.067493e+01	-6.407729e+01
7.600000e-07	-4.383845e-06	-9.398362e-10	-3.047774e+01	-6.384177e+01
7.700000e-07	-4.355125e-06	-9.379636e-10	-3.027807e+01	-6.360459e+01
7.800000e-07	-4.326025e-06	-9.353579e-10	-3.007576e+01	-6.336580e+01
7.900000e-07	-4.296654e-06	-9.370682e-10	-2.987156e+01	-6.312544e+01
8.000000e-07	-4.267003e-06	-9.294706e-10	-2.966542e+01	-6.288351e+01
8.100000e-07	-4.237056e-06	-9.194096e-10	-2.945722e+01	-6.264002e+01
8.200000e-07	-4.206862e-06	-9.137776e-10	-2.924731e+01	-6.239497e+01
8.300000e-07	-4.176367e-06	-9.069970e-10	-2.903529e+01	-6.214830e+01
8.400000e-07	-4.145547e-06	-8.979459e-10	-2.882102e+01	-6.189999e+01
8.500000e-07	-4.114473e-06	-8.974360e-10	-2.860499e+01	-6.164996e+01
8.600000e-07	-4.083198e-06	-8.978354e-10	-2.838756e+01	-6.139814e+01
8.700000e-07	-4.051730e-06	-8.919199e-10	-2.816878e+01	-6.114443e+01
8.800000e-07	-4.020073e-06	-8.883907e-10	-2.794870e+01	-6.088872e+01
8.900000e-07	-3.988239e-06	-8.898174e-10	-2.772738e+01	-6.063087e+01
9.000000e-07	-3.956160e-06	-8.837984e-10	-2.750436e+01	-6.037075e+01
9.100000e-07	-3.923678e-06	-8.746036e-10	-2.727853e+01	-6.010820e+01
9.200000e-07	-3.890770e-06	-8.698338e-10	-2.704975e+01	-5.984305e+01
9.300000e-07	-3.857487e-06	-8.628809e-10	-2.681835e+01	-5.957511e+01
9.400000e-07	-3.823799e-06	-8.535658e-10	-2.658414e+01	-5.930420e+01
9.500000e-07	-3.789645e-06	-8.529058e-10	-2.634669e+01	-5.903012e+01
9.600000e-07	-3.754963e-06	-8.550520e-10	-2.610558e+01	-5.875265e+01
9.700000e-07	-3.719943e-06	-8.501177e-10	-2.586211e+01	-5.847160e+01
9.800000e-07	-3.684652e-06	-8.477467e-10	-2.561675e+01	-5.818674e+01
9.900000e-07	-3.649133e-06	-8.463741e-10	-2.536982e+01	-5.789787e+01
1.000000e-06	-3.613530e-06	-8.388704e-10	-2.512229e+01	-5.760475e+01
1.010000e-06	-3.577808e-06	-8.321930e-10	-2.487394e+01	-5.730720e+01
1.020000e-06	-3.541949e-06	-8.313504e-10	-2.462464e+01	-5.700499e+01
1.030000e-06	-3.505938e-06	-8.274337e-10	-2.437428e+01	-5.669794e+01
1.040000e-06	-3.469672e-06	-8.194021e-10	-2.412215e+01	-5.638585e+01
1.050000e-06	-3.433032e-06	-8.143953e-10	-2.386742e+01	-5.606854e+01
1.060000e-06	-3.396086e-06	-8.100513e-10	-2.361056e+01	-5.574586e+01
1.070000e-06	-3.359028e-06	-8.008479e-10	-2.335292e+01	-5.541765e+01
1.080000e-06	-3.321770e-06	-7.953773e-10	-2.309390e+01	-5.508377e+01
1.090000e-06	-3.284195e-06	-7.941415e-10	-2.283266e+01	-5.474413e+01
1.100000e-06	-3.246348e-06	-7.897028e-10	-2.256954e+01	-5.439861e+01
1.110000e-06	-3.208289e-06	-7.828004e-10	-2.230494e+01	-5.404715e+01
1.120000e-06	-3.170051e-06	-7.788213e-10	-2.203910e+01	-5.368969e+01
1.130000e-06	-3.131624e-06	-7.721247e-10	-2.177195e+01	-5.332620e+01
1.140000e-06	-3.093008e-06	-7.620905e-10	-2.150348e+01	-5.295668e+01
1.150000e-06	-3.054119e-06	-7.543735e-10	-2.123310e+01	-5.258113e+01
1.160000e-06	-3.014958e-06	-7.488156e-10	-2.096085e+01	-5.219959e+01
1.170000e-06	-2.975664e-06	-7.414764e-10	-2.068767e+01	-5.181212e+01
1.180000e-06	-2.936293e-06	-7.355688e-10	-2.041394e+01	-5.141879e+01
1.190000e-06	-2.896780e-06	-7.323713e-10	-2.013924e+01	-5.101970e+01
1.200000e-06	-2.857092e-06	-7.278578e-10	-1.986332e+01	-5.061497e+01
1.210000e-06	-2.817287e-06	-7.209508e-10	-1.958658e+01	-5.020472e+01
1.220000e-06	-2.777328e-06	-7.139114e-10	-1.930878e+01	-4.978911e+01
1.230000e-06	-2.737148e-06	-7.070485e-10	-1.902944e+01	-4.936829e+01
1.240000e-06	-2.696794e-06	-6.982544e-10	-1.874888e+01	-4.894242e+01
1.250000e-06	-2.656193e-06	-6.893807e-10	-1.846661e+01	-4.851169e+01
1.260000e-06	-2.615367e-06	-6.829462e-10	-1.818278e+01	-4.807627e+01
1.270000e-06	-2.574338e-06	-6.775264e-10	-1.789753e+01	-4.763634e+01
1.280000e-06	-2.533022e-06	-6.740090e-10	-1.761029e+01	-4.719208e+01
1.290000e-06	-2.491424e-06	-6.712074e-10	-1.732109e+01	-4.674365e+01
1.300000e-06	-2.449565e-06	-6.641282e-10	-1.703008e+01	-4.629123e+01
1.310000e-06	-2.407339e-06	-6.545559e-10	-1.673651e+01	-4.583495e+01
1.320000e-06	-2.364755e-06	-6.443909e-10	-1.644045e+01	-4.537495e+01
1.330000e-06	-2.321966e-06	-6.328719e-10	-1.614297e+01	-4.491134e+01
1.340000e-06	-2.279012e-06	-6.212583e-10	-1.584434e+01	-4.444421e+01
1.350000e-06	-2.235880e-06	-6.139996e-10	-1.554448e+01	-4.397363e+01
1.360000e-06	-2.192546e-06	-6.095397e-10	-1.524320e+01	-4.349961e+01
1.370000e-06	-2.149025e-06	-6.045241e-10	-1.494064e+01	-4.302216e+01
1.380000e-06	-2.105373e-06	-5.970361e-10	-1.463715e+01	-4.254124e+01
1.390000e-06	-2.061689e-06	-5.880436e-10	-1.433345e+01	-4.205677e+01
1.400000e-06	-2.017963e-06	-5.799576e-10	-1.402946e+01	-4.156864e+01
1.410000e-06	-1.974158e-06	-5.718415e-10	-1.372491e+01	-4.107666e+01
1.420000e-06	-1.930242e-06	-5.628674e-10	-1.341959e+01	-4.058065e+01
1.430000e-06	-1.886207e-06	-5.549431e-10	-1.311345e+01	-4.008033e+01
1.440000e-06	-1.842022e-06	-5.477980e-10	-1.280626e+01	-3.957542e+01
1.450000e-06	-1.797695e-06	-5.423466e-10	-1.249809e+01	-3.906555e+01
1.460000e-06	-1.753261e-06	-5.357208e-10	-1.218917e+01	-3.855033e+01
1.470000e-06	-1.708715e-06	-5.266271e-10	-1.187947e+01	-3.802932e+01
1.480000e-06	-1.664027e-06	-5.179897e-10	-1.156879e+01	-3.750201e+01
1.490000e-06	-1.619187e-06	-5.117350e-10	-1.125705e+01	-3.696787e+01
1.500000e-06	-1.574265e-06	-5.065550e-10	-1.094474e+01	-3.642631e+01
1.510000e-06	-1.529283e-06	-4.993160e-10	-1.063201e+01	-3.587673e+01
1.520000e-06	-1.484136e-06	-4.889301e-10	-1.031814e+01	-3.531844e+01
1.530000e-06	-1.438785e-06	-4.782205e-10	-1.000285e+01	-3.475077e+01
1.540000e-06	-1.393373e-06	-4.681156e-10	-9.687128e+00	-3.417297e+01
1.550000e-06	-1.347925e-06	-4.581372e-10	-9.371161e+00	-3.358431e+01
1.560000e-06	-1.302416e-06	-4.498921e-10	-9.054771e+00	-3.298399e+01
1.570000e-06	-1.256792e-06	-4.418403e-10	-8.737576e+00	-3.237124e+01
1.580000e-06	-1.211000e-06	-4.308453e-10	-8.419221e+00	-3.174524e+01
1.590000e-06	-1.165139e-06	-4.182682e-10	-8.100379e+00	-3.110519e+01
1.600000e-06	-1.119320e-06	-4.079440e-10	-7.781835e+00	-3.045028e+01
1.610000e-06	-1.073398e-06	-3.970906e-10	-7.462566e+00	-2.977970e+01
1.620000e-06	-1.027317e-06	-3.840312e-10	-7.142203e+00	-2.909266e+01
1.630000e-06	-9.812401e-07	-3.710317e-10	-6.821862e+00	-2.838839e+01
1.640000e-06	-9.351167e-07	-3.599635e-10	-6.501199e+00	-2.766615e+01
1.650000e-06	-8.889183e-07	-3.505857e-10	-6.180014e+00	-2.692521e+01
1.660000e-06	-8.426403e-07	-3.417018e-10	-5.858276e+00	-2.616491e+01
1.670000e-06	-7.963106e-07	-3.318381e-10	-5.536178e+00	-2.538461e+01
1.680000e-06	-7.500216e-07	-3.205773e-10	-5.214364e+00	-2.458374e+01
1.690000e-06	-7.036418e-07	-3.083122e-10	-4.891919e+00	-2.376176e+01
1.700000e-06	-6.570705e-07	-2.962211e-10	-4.568142e+00	-2.291824e+01
1.710000e-06	-6.104837e-07	-2.837243e-10	-4.244257e+00	-2.205276e+01
1.720000e-06	-5.639774e-07	-2.694736e-10	-3.920932e+00	-2.116503e+01
1.730000e-06	-5.174676e-07	-2.545585e-10	-3.597582e+00	-2.025480e+01
1.740000e-06	-4.708201e-07	-2.400477e-10	-3.273276e+00	-1.932192e+01
1.750000e-06	-4.240133e-07	-2.246739e-10	-2.947861e+00	-1.836633e+01
1.760000e-06	-3.772249e-07	-2.092407e-10	-2.622575e+00	-1.738804e+01
1.770000e-06	-3.304106e-07	-1.952732e-10	-2.297109e+00	-1.638718e+01
1.780000e-06	-2.834990e-07	-1.812564e-10	-1.970966e+00	-1.536395e+01
1.790000e-06	-2.365556e-07	-1.661400e-10	-1.644602e+00	-1.431867e+01
1.800000e-06	-1.896257e-07	-1.516072e-10	-1.318332e+00	-1.325173e+01
1.810000e-06	-1.427823e-07	-1.369215e-10	-9.926634e-01	-1.216365e+01
1.820000e-06	-9.597935e-08	-1.204102e-10	-6.672759e-01	-1.105503e+01
1.830000e-06	-4.921136e-08	-1.029358e-10	-3.421314e-01	-9.926547e+00
1.840000e-06	-2.411070e-09	-8.557094e-11	-1.676245e-02	-8.779005e+00
1.850000e-06	4.443452e-08	-6.799465e-11	3.089214e-01	-7.613279e+00
1.860000e-06	9.123353e-08	-4.887826e-11	6.342816e-01	-6.430340e+00
1.870000e-06	1.380027e-07	-2.984297e-11	9.594344e-01	-5.231240e+00
1.880000e-06	1.847334e-07	-1.314025e-11	1.284319e+00	-4.017113e+00
1.890000e-06	2.314644e-07	1.959385e-12	1.609206e+00	-2.789165e+00
1.900000e-06	2.782460e-07	1.652487e-11	1.934446e+00	-1.548674e+00
1.910000e-06	3.250663e-07	3.236329e-11	2.259954e+00	-2.969808e-01
1.920000e-06	3.718783e-07	5.182315e-11	2.585404e+00	9.645177e-01
1.930000e-06	4.185714e-07	7.432015e-11	2.910028e+00	2.234374e+00
1.940000e-06	4.653061e-07	9.617132e-11	3.234941e+00	3.511099e+00
1.950000e-06	5.120421e-07	1.145639e-10	3.559863e+00	4.793167e+00
1.960000e-06	5.585533e-07	1.316515e-10	3.883222e+00	6.079027e+00
1.970000e-06	6.050323e-07	1.486956e-10	4.206357e+00	7.367106e+00
1.980000e-06	6.514986e-07	1.637571e-10	4.529405e+00	8.655824e+00
1.990000e-06	6.978078e-07	1.774743e-10	4.851359e+00	9.943595e+00
2.000000e-06	7.440467e-07	1.933523e-10	5.172825e+00	1.122884e+01
2.010000e-06	7.903176e-07	2.109407e-10	5.494514e+00	1.250999e+01
2.020000e-06	8.365662e-07	2.306874e-10	5.816047e+00	1.378551e+01
2.030000e-06	8.827703e-07	2.543514e-10	6.137271e+00	1.505387e+01
2.040000e-06	9.289240e-07	2.772217e-10	6.458145e+00	1.631360e+01
2.050000e-06	9.749972e-07	2.946719e-10	6.778459e+00	1.756327e+01
2.060000e-06	1.020952e-06	3.081575e-10	7.097950e+00	1.880150e+01
2.070000e-06	1.066818e-06	3.211008e-10	7.416824e+00	2.002696e+01
2.080000e-06	1.112607e-06	3.343962e-10	7.735162e+00	2.123839e+01
2.090000e-06	1.158290e-06	3.501376e-10	8.052760e+00	2.243460e+01
2.100000e-06	1.203934e-06	3.688901e-10	8.370090e+00	2.361448e+01
2.110000e-06	1.249520e-06	3.873851e-10	8.687021e+00	2.477699e+01
2.120000e-06	1.295003e-06	4.046029e-10	9.003232e+00	2.592118e+01
2.130000e-06	1.340413e-06	4.216412e-10	9.318931e+00	2.704619e+01
2.140000e-06	1.385744e-06	4.370288e-10	9.634086e+00	2.815123e+01
2.150000e-06	1.431072e-06	4.501020e-10	9.949224e+00	2.923563e+01
2.160000e-06	1.476311e-06	4.641005e-10	1.026374e+01	3.029879e+01
2.170000e-06	1.521337e-06	4.777892e-10	1.057677e+01	3.134022e+01
2.180000e-06	1.566301e-06	4.901168e-10	1.088937e+01	3.235952e+01
2.190000e-06	1.611179e-06	5.040142e-10	1.120138e+01	3.335636e+01
2.200000e-06	1.655872e-06	5.184699e-10	1.151210e+01	3.433054e+01
2.210000e-06	1.700446e-06	5.300904e-10	1.182199e+01	3.528192e+01
2.220000e-06	1.744847e-06	5.387573e-10	1.213068e+01	3.621046e+01
2.230000e-06	1.789048e-06	5.476923e-10	1.243797e+01	3.711622e+01
2.240000e-06	1.833153e-06	5.581311e-10	1.274460e+01	3.799931e+01
2.250000e-06	1.877154e-06	5.706601e-10	1.305051e+01	3.885995e+01
2.260000e-06	1.921078e-06	5.847610e-10	1.335588e+01	3.969840e+01
2.270000e-06	1.964923e-06	5.990330e-10	1.366070e+01	4.051501e+01
2.280000e-06	2.008701e-06	6.118477e-10	1.396506e+01	4.131019e+01
2.290000e-06	2.052446e-06	6.219348e-10	1.426919e+01	4.208442e+01
2.300000e-06	2.096110e-06	6.296408e-10	1.457275e+01	4.283820e+01
2.310000e-06	2.139717e-06	6.362694e-10	1.487593e+01	4.357211e+01
2.320000e-06	2.183293e-06	6.448156e-10	1.517888e+01	4.428674e+01
2.330000e-06	2.226824e-06	6.566325e-10	1.548152e+01	4.498275e+01
2.340000e-06	2.270235e-06	6.698718e-10	1.578332e+01	4.566080e+01
2.350000e-06	2.313441e-06	6.825393e-10	1.608370e+01	4.632157e+01
2.360000e-06	2.356298e-06	6.937719e-10	1.638165e+01	4.696579e+01
2.370000e-06	2.398925e-06	7.018197e-10	1.667801e+01	4.759415e+01
2.380000e-06	2.441413e-06	7.081180e-10	1.697340e+01	4.820739e+01
2.390000e-06	2.483466e-06	7.148685e-10	1.726576e+01	4.880622e+01
2.400000e-06	2.524961e-06	7.222417e-10	1.755425e+01	4.939136e+01
2.410000e-06	2.566079e-06	7.311445e-10	1.784011e+01	4.996350e+01
2.420000e-06	2.607035e-06	7.402139e-10	1.812485e+01	5.052333e+01
2.430000e-06	2.647731e-06	7.492224e-10	1.840778e+01	5.107152e+01
2.440000e-06	2.688194e-06	7.585128e-10	1.868909e+01	5.160869e+01
2.450000e-06	2.728518e-06	7.676128e-10	1.896944e+01	5.213547e+01
2.460000e-06	2.768614e-06	7.757112e-10	1.924820e+01	5.265242e+01
2.470000e-06	2.808553e-06	7.818565e-10	1.952586e+01	5.316009e+01
2.480000e-06	2.848395e-06	7.881105e-10	1.980285e+01	5.365899e+01
2.490000e-06	2.888124e-06	7.946044e-10	2.007906e+01	5.414959e+01
2.500000e-06	2.927733e-06	8.014270e-10	2.035444e+01	5.463230e+01
2.510000e-06	2.967226e-06	8.093960e-10	2.062901e+01	5.510753e+01
2.520000e-06	3.006565e-06	8.170730e-10	2.090250e+01	5.557560e+01
2.530000e-06	3.045672e-06	8.239164e-10	2.117438e+01	5.603683e+01
2.540000e-06	3.084489e-06	8.309266e-10	2.144425e+01	5.649147e+01
2.550000e-06	3.123000e-06	8.372012e-10	2.171199e+01	5.693975e+01
2.560000e-06	3.161326e-06	8.415931e-10	2.197844e+01	5.738185e+01
2.570000e-06	3.199453e-06	8.456960e-10	2.224351e+01	5.781791e+01
2.580000e-06	3.237317e-06	8.526626e-10	2.250675e+01	5.824803e+01
2.590000e-06	3.274986e-06	8.620172e-10	2.276864e+01	5.867229e+01
2.600000e-06	3.312489e-06	8.696801e-10	2.302937e+01	5.909073e+01
2.610000e-06	3.349785e-06	8.750110e-10	2.328866e+01	5.950335e+01
2.620000e-06	3.386863e-06	8.789059e-10	2.354644e+01	5.991014e+01
2.630000e-06	3.423665e-06	8.823667e-10	2.380230e+01	6.031105e+01
2.640000e-06	3.460144e-06	8.865139e-10	2.405591e+01	6.070603e+01
2.650000e-06	3.496408e-06	8.929185e-10	2.430802e+01	6.109500e+01
2.660000e-06	3.532464e-06	9.004275e-10	2.455870e+01	6.147785e+01
2.670000e-06	3.568300e-06	9.064163e-10	2.480784e+01	6.185448e+01
2.680000e-06	3.604029e-06	9.110982e-10	2.505624e+01	6.222478e+01
2.690000e-06	3.639694e-06	9.135202e-10	2.530419e+01	6.258862e+01
2.700000e-06	3.675254e-06	9.160467e-10	2.555142e+01	6.294587e+01
2.710000e-06	3.710601e-06	9.197771e-10	2.579716e+01	6.329642e+01
2.720000e-06	3.745708e-06	9.238333e-10	2.604123e+01	6.364015e+01
2.730000e-06	3.780536e-06	9.279376e-10	2.628336e+01	6.397692e+01
2.740000e-06	3.814844e-06	9.324570e-10	2.652189e+01	6.430665e+01
2.750000e-06	3.848568e-06	9.376615e-10	2.675634e+01	6.462922e+01
2.760000e-06	3.881843e-06	9.430791e-10	2.698768e+01	6.494455e+01
2.770000e-06	3.914697e-06	9.478418e-10	2.721609e+01	6.525257e+01
2.780000e-06	3.947110e-06	9.526837e-10	2.744144e+01	6.555322e+01
2.790000e-06	3.979195e-06	9.569017e-10	2.766450e+01	6.584645e+01
2.800000e-06	4.011107e-06	9.585342e-10	2.788636e+01	6.613224e+01
2.810000e-06	4.042892e-06	9.594475e-10	2.810734e+01	6.641059e+01
2.820000e-06	4.074512e-06	9.610914e-10	2.832717e+01	6.668150e+01
2.830000e-06	4.105945e-06	9.642606e-10	2.854570e+01	6.694501e+01
2.840000e-06	4.137184e-06	9.681090e-10	2.876288e+01	6.720115e+01
2.850000e-06	4.168206e-06	9.731972e-10	2.897856e+01	6.745000e+01
2.860000e-06	4.198830e-06	9.804755e-10	2.919146e+01	6.769164e+01
2.870000e-06	4.229049e-06	9.849960e-10	2.940156e+01	6.792617e+01
2.880000e-06	4.259034e-06	9.868333e-10	2.961002e+01	6.815371e+01
2.890000e-06	4.288768e-06	9.837114e-10	2.981674e+01	6.837438e+01
2.900000e-06	4.318181e-06	9.776751e-10	3.002123e+01	6.858834e+01
2.910000e-06	4.347289e-06	9.752460e-10	3.022359e+01	6.879574e+01
