# Temperatura_=_-0.4
# Concentracion g/m^3_=_1620.0
# C_Vs_to_Am_M_A/Vsm_=_65563218390.804596
# pendiente_HvsI_1/m_=_3716.3
# ordenada_HvsI_A/m_=_1297.0
# frecuencia_Hz_=_135096.9791557841

Tiempo_(s)	Campo_(V.s)	Magnetizacion_(V.s)	Campo_(kA/m)	Magnetizacion_(A/m)
0.000000e+00	-5.518373e-06	-1.535327e-09	-3.838046e+01	-9.737143e+01
1.000000e-08	-5.518517e-06	-1.538628e-09	-3.838147e+01	-9.733067e+01
2.000000e-08	-5.518406e-06	-1.540719e-09	-3.838069e+01	-9.728687e+01
3.000000e-08	-5.517975e-06	-1.539402e-09	-3.837769e+01	-9.724005e+01
4.000000e-08	-5.517088e-06	-1.535840e-09	-3.837153e+01	-9.719025e+01
5.000000e-08	-5.515636e-06	-1.527742e-09	-3.836143e+01	-9.713751e+01
6.000000e-08	-5.513524e-06	-1.513274e-09	-3.834674e+01	-9.708187e+01
7.000000e-08	-5.510854e-06	-1.502497e-09	-3.832817e+01	-9.702337e+01
8.000000e-08	-5.507705e-06	-1.565865e-09	-3.830627e+01	-9.696207e+01
9.000000e-08	-5.504008e-06	-1.630252e-09	-3.828056e+01	-9.689800e+01
1.000000e-07	-5.499766e-06	-1.543784e-09	-3.825105e+01	-9.683123e+01
1.100000e-07	-5.495277e-06	-1.444863e-09	-3.821983e+01	-9.676181e+01
1.200000e-07	-5.490746e-06	-1.505672e-09	-3.818832e+01	-9.668980e+01
1.300000e-07	-5.485845e-06	-1.593486e-09	-3.815423e+01	-9.661525e+01
1.400000e-07	-5.480424e-06	-1.540852e-09	-3.811653e+01	-9.653822e+01
1.500000e-07	-5.474756e-06	-1.422289e-09	-3.807710e+01	-9.645876e+01
1.600000e-07	-5.468830e-06	-1.535805e-09	-3.803589e+01	-9.637695e+01
1.700000e-07	-5.462313e-06	-1.615091e-09	-3.799056e+01	-9.629283e+01
1.800000e-07	-5.455332e-06	-1.547357e-09	-3.794201e+01	-9.620646e+01
1.900000e-07	-5.448079e-06	-1.406046e-09	-3.789156e+01	-9.611790e+01
2.000000e-07	-5.440570e-06	-1.451761e-09	-3.783934e+01	-9.602718e+01
2.100000e-07	-5.432783e-06	-1.529080e-09	-3.778518e+01	-9.593437e+01
2.200000e-07	-5.424731e-06	-1.516894e-09	-3.772918e+01	-9.583950e+01
2.300000e-07	-5.416459e-06	-1.451486e-09	-3.767165e+01	-9.574260e+01
2.400000e-07	-5.407813e-06	-1.451478e-09	-3.761152e+01	-9.564371e+01
2.500000e-07	-5.398390e-06	-1.465369e-09	-3.754598e+01	-9.554286e+01
2.600000e-07	-5.388098e-06	-1.437855e-09	-3.747440e+01	-9.544005e+01
2.700000e-07	-5.377251e-06	-1.422740e-09	-3.739896e+01	-9.533531e+01
2.800000e-07	-5.366004e-06	-1.424573e-09	-3.732073e+01	-9.522862e+01
2.900000e-07	-5.354367e-06	-1.454207e-09	-3.723980e+01	-9.512000e+01
3.000000e-07	-5.342369e-06	-1.427735e-09	-3.715635e+01	-9.500941e+01
3.100000e-07	-5.329953e-06	-1.424049e-09	-3.707000e+01	-9.489685e+01
3.200000e-07	-5.317012e-06	-1.401137e-09	-3.698000e+01	-9.478227e+01
3.300000e-07	-5.303753e-06	-1.439015e-09	-3.688778e+01	-9.466563e+01
3.400000e-07	-5.290219e-06	-1.417473e-09	-3.679365e+01	-9.454688e+01
3.500000e-07	-5.276208e-06	-1.394107e-09	-3.669620e+01	-9.442596e+01
3.600000e-07	-5.261760e-06	-1.395622e-09	-3.659571e+01	-9.430280e+01
3.700000e-07	-5.246934e-06	-1.440555e-09	-3.649260e+01	-9.417732e+01
3.800000e-07	-5.231549e-06	-1.384745e-09	-3.638559e+01	-9.404943e+01
3.900000e-07	-5.215526e-06	-1.372889e-09	-3.627415e+01	-9.391904e+01
4.000000e-07	-5.199061e-06	-1.429329e-09	-3.615964e+01	-9.378605e+01
4.100000e-07	-5.182233e-06	-1.418211e-09	-3.604260e+01	-9.365035e+01
4.200000e-07	-5.165015e-06	-1.341028e-09	-3.592285e+01	-9.351182e+01
4.300000e-07	-5.147573e-06	-1.407504e-09	-3.580154e+01	-9.337033e+01
4.400000e-07	-5.129871e-06	-1.449507e-09	-3.567842e+01	-9.322578e+01
4.500000e-07	-5.111764e-06	-1.348905e-09	-3.555249e+01	-9.307802e+01
4.600000e-07	-5.093214e-06	-1.334431e-09	-3.542347e+01	-9.292692e+01
4.700000e-07	-5.074229e-06	-1.432432e-09	-3.529143e+01	-9.277235e+01
4.800000e-07	-5.054973e-06	-1.382911e-09	-3.515750e+01	-9.261418e+01
4.900000e-07	-5.035463e-06	-1.322376e-09	-3.502181e+01	-9.245228e+01
5.000000e-07	-5.015650e-06	-1.403804e-09	-3.488401e+01	-9.228651e+01
5.100000e-07	-4.995618e-06	-1.392478e-09	-3.474469e+01	-9.211673e+01
5.200000e-07	-4.975302e-06	-1.303942e-09	-3.460339e+01	-9.194284e+01
5.300000e-07	-4.954651e-06	-1.369953e-09	-3.445976e+01	-9.176470e+01
5.400000e-07	-4.933676e-06	-1.418085e-09	-3.431388e+01	-9.158219e+01
5.500000e-07	-4.912272e-06	-1.309898e-09	-3.416501e+01	-9.139522e+01
5.600000e-07	-4.890529e-06	-1.319468e-09	-3.401379e+01	-9.120366e+01
5.700000e-07	-4.868542e-06	-1.401428e-09	-3.386087e+01	-9.100744e+01
5.800000e-07	-4.846177e-06	-1.342526e-09	-3.370532e+01	-9.080645e+01
5.900000e-07	-4.823414e-06	-1.298032e-09	-3.354700e+01	-9.060063e+01
6.000000e-07	-4.800334e-06	-1.376991e-09	-3.338648e+01	-9.038991e+01
6.100000e-07	-4.776892e-06	-1.355088e-09	-3.322344e+01	-9.017422e+01
6.200000e-07	-4.753212e-06	-1.300233e-09	-3.305875e+01	-8.995352e+01
6.300000e-07	-4.729385e-06	-1.338973e-09	-3.289303e+01	-8.972777e+01
6.400000e-07	-4.705282e-06	-1.351412e-09	-3.272539e+01	-8.949695e+01
6.500000e-07	-4.680824e-06	-1.292807e-09	-3.255528e+01	-8.926102e+01
6.600000e-07	-4.656036e-06	-1.314285e-09	-3.238288e+01	-8.901999e+01
6.700000e-07	-4.630786e-06	-1.330789e-09	-3.220727e+01	-8.877386e+01
6.800000e-07	-4.604892e-06	-1.294227e-09	-3.202718e+01	-8.852264e+01
6.900000e-07	-4.578525e-06	-1.289481e-09	-3.184379e+01	-8.826634e+01
7.000000e-07	-4.551705e-06	-1.315981e-09	-3.165726e+01	-8.800499e+01
7.100000e-07	-4.524378e-06	-1.286890e-09	-3.146719e+01	-8.773863e+01
7.200000e-07	-4.496671e-06	-1.276723e-09	-3.127450e+01	-8.746730e+01
7.300000e-07	-4.468795e-06	-1.296075e-09	-3.108061e+01	-8.719104e+01
7.400000e-07	-4.440812e-06	-1.286051e-09	-3.088599e+01	-8.690990e+01
7.500000e-07	-4.412636e-06	-1.264718e-09	-3.069003e+01	-8.662393e+01
7.600000e-07	-4.384293e-06	-1.273334e-09	-3.049290e+01	-8.633320e+01
7.700000e-07	-4.355623e-06	-1.264224e-09	-3.029350e+01	-8.603775e+01
7.800000e-07	-4.326541e-06	-1.244108e-09	-3.009123e+01	-8.573764e+01
7.900000e-07	-4.297178e-06	-1.249786e-09	-2.988701e+01	-8.543293e+01
8.000000e-07	-4.267537e-06	-1.249310e-09	-2.968086e+01	-8.512367e+01
8.100000e-07	-4.237654e-06	-1.228303e-09	-2.947302e+01	-8.480991e+01
8.200000e-07	-4.207481e-06	-1.224216e-09	-2.926316e+01	-8.449169e+01
8.300000e-07	-4.176992e-06	-1.229884e-09	-2.905112e+01	-8.416906e+01
8.400000e-07	-4.146180e-06	-1.211812e-09	-2.883682e+01	-8.384204e+01
8.500000e-07	-4.115005e-06	-1.201845e-09	-2.861999e+01	-8.351067e+01
8.600000e-07	-4.083603e-06	-1.207463e-09	-2.840159e+01	-8.317497e+01
8.700000e-07	-4.052012e-06	-1.201207e-09	-2.818188e+01	-8.283493e+01
8.800000e-07	-4.020231e-06	-1.185536e-09	-2.796084e+01	-8.249058e+01
8.900000e-07	-3.988330e-06	-1.191626e-09	-2.773896e+01	-8.214189e+01
9.000000e-07	-3.956322e-06	-1.186055e-09	-2.751635e+01	-8.178886e+01
9.100000e-07	-3.923988e-06	-1.169867e-09	-2.729146e+01	-8.143145e+01
9.200000e-07	-3.891221e-06	-1.165372e-09	-2.706357e+01	-8.106964e+01
9.300000e-07	-3.858134e-06	-1.169066e-09	-2.683345e+01	-8.070338e+01
9.400000e-07	-3.824546e-06	-1.151082e-09	-2.659984e+01	-8.033262e+01
9.500000e-07	-3.790371e-06	-1.142772e-09	-2.636215e+01	-7.995729e+01
9.600000e-07	-3.755819e-06	-1.143949e-09	-2.612184e+01	-7.957733e+01
9.700000e-07	-3.720999e-06	-1.134338e-09	-2.587967e+01	-7.919265e+01
9.800000e-07	-3.685814e-06	-1.119045e-09	-2.563495e+01	-7.880319e+01
9.900000e-07	-3.650292e-06	-1.120431e-09	-2.538790e+01	-7.840885e+01
1.000000e-06	-3.614560e-06	-1.115337e-09	-2.513938e+01	-7.800953e+01
1.010000e-06	-3.578726e-06	-1.104053e-09	-2.489016e+01	-7.760515e+01
1.020000e-06	-3.542779e-06	-1.101120e-09	-2.464015e+01	-7.719561e+01
1.030000e-06	-3.506618e-06	-1.100318e-09	-2.438864e+01	-7.678080e+01
1.040000e-06	-3.470297e-06	-1.087499e-09	-2.413603e+01	-7.636063e+01
1.050000e-06	-3.433741e-06	-1.079462e-09	-2.388178e+01	-7.593501e+01
1.060000e-06	-3.396977e-06	-1.077340e-09	-2.362609e+01	-7.550383e+01
1.070000e-06	-3.359962e-06	-1.067776e-09	-2.336864e+01	-7.506701e+01
1.080000e-06	-3.322590e-06	-1.057207e-09	-2.310872e+01	-7.462446e+01
1.090000e-06	-3.284994e-06	-1.055820e-09	-2.284724e+01	-7.417611e+01
1.100000e-06	-3.247180e-06	-1.051770e-09	-2.258425e+01	-7.372187e+01
1.110000e-06	-3.209172e-06	-1.040060e-09	-2.231989e+01	-7.326169e+01
1.120000e-06	-3.171033e-06	-1.035393e-09	-2.205464e+01	-7.279551e+01
1.130000e-06	-3.132657e-06	-1.031057e-09	-2.178773e+01	-7.232328e+01
1.140000e-06	-3.094032e-06	-1.019495e-09	-2.151910e+01	-7.184497e+01
1.150000e-06	-3.055275e-06	-1.007637e-09	-2.124954e+01	-7.136054e+01
1.160000e-06	-3.016353e-06	-1.001847e-09	-2.097884e+01	-7.086998e+01
1.170000e-06	-2.977080e-06	-9.939238e-10	-2.070569e+01	-7.037327e+01
1.180000e-06	-2.937489e-06	-9.879532e-10	-2.043033e+01	-6.987043e+01
1.190000e-06	-2.897819e-06	-9.815445e-10	-2.015442e+01	-6.936147e+01
1.200000e-06	-2.858085e-06	-9.729004e-10	-1.987807e+01	-6.884639e+01
1.210000e-06	-2.818192e-06	-9.611471e-10	-1.960062e+01	-6.832522e+01
1.220000e-06	-2.778151e-06	-9.533277e-10	-1.932213e+01	-6.779801e+01
1.230000e-06	-2.737998e-06	-9.433085e-10	-1.904287e+01	-6.726478e+01
1.240000e-06	-2.697693e-06	-9.332637e-10	-1.876254e+01	-6.672558e+01
1.250000e-06	-2.657134e-06	-9.251047e-10	-1.848046e+01	-6.618045e+01
1.260000e-06	-2.616323e-06	-9.187619e-10	-1.819661e+01	-6.562944e+01
1.270000e-06	-2.575313e-06	-9.098830e-10	-1.791138e+01	-6.507257e+01
1.280000e-06	-2.534156e-06	-9.013098e-10	-1.762514e+01	-6.450990e+01
1.290000e-06	-2.492730e-06	-8.918860e-10	-1.733702e+01	-6.394145e+01
1.300000e-06	-2.450806e-06	-8.811009e-10	-1.704544e+01	-6.336723e+01
1.310000e-06	-2.408557e-06	-8.677922e-10	-1.675159e+01	-6.278727e+01
1.320000e-06	-2.366142e-06	-8.586953e-10	-1.645660e+01	-6.220156e+01
1.330000e-06	-2.323491e-06	-8.526429e-10	-1.615995e+01	-6.161007e+01
1.340000e-06	-2.280558e-06	-8.459447e-10	-1.586135e+01	-6.101277e+01
1.350000e-06	-2.237290e-06	-8.367487e-10	-1.556043e+01	-6.040960e+01
1.360000e-06	-2.193770e-06	-8.264567e-10	-1.525774e+01	-5.980047e+01
1.370000e-06	-2.150153e-06	-8.131561e-10	-1.495439e+01	-5.918528e+01
1.380000e-06	-2.106469e-06	-7.982742e-10	-1.465056e+01	-5.856388e+01
1.390000e-06	-2.062717e-06	-7.850138e-10	-1.434627e+01	-5.793612e+01
1.400000e-06	-2.018901e-06	-7.736817e-10	-1.404152e+01	-5.730180e+01
1.410000e-06	-1.974969e-06	-7.651111e-10	-1.373597e+01	-5.666067e+01
1.420000e-06	-1.930973e-06	-7.585342e-10	-1.342998e+01	-5.601248e+01
1.430000e-06	-1.886947e-06	-7.523965e-10	-1.312378e+01	-5.535692e+01
1.440000e-06	-1.842831e-06	-7.428698e-10	-1.281695e+01	-5.469365e+01
1.450000e-06	-1.798541e-06	-7.295102e-10	-1.250891e+01	-5.402230e+01
1.460000e-06	-1.754023e-06	-7.129307e-10	-1.219929e+01	-5.334246e+01
1.470000e-06	-1.709420e-06	-6.982742e-10	-1.188907e+01	-5.265368e+01
1.480000e-06	-1.664773e-06	-6.866190e-10	-1.157855e+01	-5.195547e+01
1.490000e-06	-1.620021e-06	-6.780211e-10	-1.126730e+01	-5.124731e+01
1.500000e-06	-1.575232e-06	-6.705068e-10	-1.095579e+01	-5.052866e+01
1.510000e-06	-1.530340e-06	-6.644996e-10	-1.064357e+01	-4.979892e+01
1.520000e-06	-1.485247e-06	-6.546333e-10	-1.032994e+01	-4.905748e+01
1.530000e-06	-1.440067e-06	-6.430126e-10	-1.001572e+01	-4.830370e+01
1.540000e-06	-1.394803e-06	-6.303237e-10	-9.700902e+00	-4.753691e+01
1.550000e-06	-1.349440e-06	-6.171793e-10	-9.385397e+00	-4.675643e+01
1.560000e-06	-1.303986e-06	-6.036600e-10	-9.069265e+00	-4.596155e+01
1.570000e-06	-1.258346e-06	-5.919981e-10	-8.751839e+00	-4.515155e+01
1.580000e-06	-1.212592e-06	-5.790875e-10	-8.433614e+00	-4.432571e+01
1.590000e-06	-1.166816e-06	-5.659054e-10	-8.115243e+00	-4.348330e+01
1.600000e-06	-1.120960e-06	-5.540997e-10	-7.796312e+00	-4.262358e+01
1.610000e-06	-1.075063e-06	-5.426319e-10	-7.477101e+00	-4.174584e+01
1.620000e-06	-1.029067e-06	-5.296589e-10	-7.157194e+00	-4.084934e+01
1.630000e-06	-9.828659e-07	-5.159075e-10	-6.835865e+00	-3.993341e+01
1.640000e-06	-9.365801e-07	-5.015587e-10	-6.513945e+00	-3.899735e+01
1.650000e-06	-8.902433e-07	-4.867519e-10	-6.191671e+00	-3.804051e+01
1.660000e-06	-8.438657e-07	-4.721577e-10	-5.869113e+00	-3.706228e+01
1.670000e-06	-7.975030e-07	-4.568495e-10	-5.546659e+00	-3.606207e+01
1.680000e-06	-7.510908e-07	-4.426559e-10	-5.223861e+00	-3.503935e+01
1.690000e-06	-7.046105e-07	-4.265909e-10	-4.900589e+00	-3.399362e+01
1.700000e-06	-6.581640e-07	-4.089501e-10	-4.577552e+00	-3.292444e+01
1.710000e-06	-6.117367e-07	-3.918154e-10	-4.254648e+00	-3.183145e+01
1.720000e-06	-5.652286e-07	-3.736604e-10	-3.931183e+00	-3.071431e+01
1.730000e-06	-5.186414e-07	-3.549038e-10	-3.607168e+00	-2.957279e+01
1.740000e-06	-4.720659e-07	-3.366146e-10	-3.283234e+00	-2.840671e+01
1.750000e-06	-4.254150e-07	-3.180405e-10	-2.958775e+00	-2.721596e+01
1.760000e-06	-3.786362e-07	-3.002514e-10	-2.633427e+00	-2.600052e+01
1.770000e-06	-3.318507e-07	-2.821248e-10	-2.308032e+00	-2.476045e+01
1.780000e-06	-2.850603e-07	-2.644753e-10	-1.982603e+00	-2.349590e+01
1.790000e-06	-2.382310e-07	-2.477286e-10	-1.656905e+00	-2.220709e+01
1.800000e-06	-1.913734e-07	-2.311208e-10	-1.331008e+00	-2.089433e+01
1.810000e-06	-1.445212e-07	-2.132872e-10	-1.005150e+00	-1.955803e+01
1.820000e-06	-9.763989e-08	-1.955123e-10	-6.790886e-01	-1.819868e+01
1.830000e-06	-5.064909e-08	-1.765132e-10	-3.522661e-01	-1.681686e+01
1.840000e-06	-3.717506e-09	-1.557206e-10	-2.585537e-02	-1.541323e+01
1.850000e-06	4.311325e-08	-1.358776e-10	2.998541e-01	-1.398855e+01
1.860000e-06	8.994412e-08	-1.161212e-10	6.255643e-01	-1.254364e+01
1.870000e-06	1.367886e-07	-9.472269e-11	9.513691e-01	-1.107944e+01
1.880000e-06	1.836648e-07	-7.354673e-11	1.277395e+00	-9.596927e+00
1.890000e-06	2.305068e-07	-5.363040e-11	1.603182e+00	-8.097181e+00
1.900000e-06	2.772663e-07	-3.490548e-11	1.928396e+00	-6.581340e+00
1.910000e-06	3.240153e-07	-1.601478e-11	2.253537e+00	-5.050613e+00
1.920000e-06	3.707831e-07	3.914339e-12	2.578809e+00	-3.506270e+00
1.930000e-06	4.175315e-07	2.552371e-11	2.903945e+00	-1.949636e+00
1.940000e-06	4.641918e-07	4.841069e-11	3.228469e+00	-3.820868e-01
1.950000e-06	5.108259e-07	7.125175e-11	3.552811e+00	1.194955e+00
1.960000e-06	5.574832e-07	9.243239e-11	3.877314e+00	2.780031e+00
1.970000e-06	6.040913e-07	1.123461e-10	4.201475e+00	4.371650e+00
1.980000e-06	6.506246e-07	1.321054e-10	4.525115e+00	5.968295e+00
1.990000e-06	6.970466e-07	1.508170e-10	4.847982e+00	7.568431e+00
2.000000e-06	7.433811e-07	1.709944e-10	5.170240e+00	9.170513e+00
2.010000e-06	7.896155e-07	1.925941e-10	5.491801e+00	1.077299e+01
2.020000e-06	8.358570e-07	2.140306e-10	5.813412e+00	1.237431e+01
2.030000e-06	8.821307e-07	2.372974e-10	6.135248e+00	1.397295e+01
2.040000e-06	9.283233e-07	2.615485e-10	6.456519e+00	1.556736e+01
2.050000e-06	9.743957e-07	2.834486e-10	6.776954e+00	1.715607e+01
2.060000e-06	1.020398e-06	3.036049e-10	7.096902e+00	1.873760e+01
2.070000e-06	1.066378e-06	3.237782e-10	7.416693e+00	2.031051e+01
2.080000e-06	1.112247e-06	3.430678e-10	7.735713e+00	2.187341e+01
2.090000e-06	1.158014e-06	3.641641e-10	8.054025e+00	2.342495e+01
2.100000e-06	1.203672e-06	3.876727e-10	8.371580e+00	2.496386e+01
2.110000e-06	1.249204e-06	4.094303e-10	8.688252e+00	2.648888e+01
2.120000e-06	1.294653e-06	4.294307e-10	9.004356e+00	2.799884e+01
2.130000e-06	1.340005e-06	4.486891e-10	9.319776e+00	2.949264e+01
2.140000e-06	1.385275e-06	4.678972e-10	9.634633e+00	3.096924e+01
2.150000e-06	1.430467e-06	4.860954e-10	9.948944e+00	3.242768e+01
2.160000e-06	1.475602e-06	5.053915e-10	1.026286e+01	3.386705e+01
2.170000e-06	1.520708e-06	5.258083e-10	1.057657e+01	3.528654e+01
2.180000e-06	1.565706e-06	5.456953e-10	1.088953e+01	3.668543e+01
2.190000e-06	1.610528e-06	5.662017e-10	1.120127e+01	3.806304e+01
2.200000e-06	1.655209e-06	5.857263e-10	1.151203e+01	3.941880e+01
2.210000e-06	1.699820e-06	6.018771e-10	1.182231e+01	4.075221e+01
2.220000e-06	1.744289e-06	6.152106e-10	1.213158e+01	4.206286e+01
2.230000e-06	1.788523e-06	6.290651e-10	1.243924e+01	4.335039e+01
2.240000e-06	1.832647e-06	6.439702e-10	1.274612e+01	4.461454e+01
2.250000e-06	1.876751e-06	6.609892e-10	1.305286e+01	4.585512e+01
2.260000e-06	1.920774e-06	6.803661e-10	1.335904e+01	4.707200e+01
2.270000e-06	1.964711e-06	6.982364e-10	1.366463e+01	4.826515e+01
2.280000e-06	2.008592e-06	7.140880e-10	1.396982e+01	4.943456e+01
2.290000e-06	2.052426e-06	7.291507e-10	1.427469e+01	5.058033e+01
2.300000e-06	2.096178e-06	7.432776e-10	1.457898e+01	5.170258e+01
2.310000e-06	2.139859e-06	7.562654e-10	1.488279e+01	5.280151e+01
2.320000e-06	2.183455e-06	7.701430e-10	1.518600e+01	5.387735e+01
2.330000e-06	2.226889e-06	7.853650e-10	1.548809e+01	5.493041e+01
2.340000e-06	2.270162e-06	8.014554e-10	1.578905e+01	5.596100e+01
2.350000e-06	2.313163e-06	8.170673e-10	1.608812e+01	5.696950e+01
2.360000e-06	2.355802e-06	8.296618e-10	1.638468e+01	5.795631e+01
2.370000e-06	2.398206e-06	8.404894e-10	1.667960e+01	5.892185e+01
2.380000e-06	2.440426e-06	8.516663e-10	1.697324e+01	5.986659e+01
2.390000e-06	2.482309e-06	8.635554e-10	1.726454e+01	6.079099e+01
2.400000e-06	2.523800e-06	8.765030e-10	1.755311e+01	6.169554e+01
2.410000e-06	2.564928e-06	8.916088e-10	1.783916e+01	6.258074e+01
2.420000e-06	2.605719e-06	9.073328e-10	1.812286e+01	6.344709e+01
2.430000e-06	2.646276e-06	9.199426e-10	1.840494e+01	6.429510e+01
2.440000e-06	2.686706e-06	9.302097e-10	1.868612e+01	6.512528e+01
2.450000e-06	2.727010e-06	9.399872e-10	1.896644e+01	6.593814e+01
2.460000e-06	2.767168e-06	9.498190e-10	1.924575e+01	6.673415e+01
2.470000e-06	2.807174e-06	9.604848e-10	1.952398e+01	6.751381e+01
2.480000e-06	2.847057e-06	9.714996e-10	1.980137e+01	6.827759e+01
2.490000e-06	2.886826e-06	9.827770e-10	2.007797e+01	6.902595e+01
2.500000e-06	2.926430e-06	9.947704e-10	2.035342e+01	6.975931e+01
2.510000e-06	2.965884e-06	1.008038e-09	2.062782e+01	7.047810e+01
2.520000e-06	3.005189e-06	1.019744e-09	2.090119e+01	7.118272e+01
2.530000e-06	3.044250e-06	1.029920e-09	2.117286e+01	7.187354e+01
2.540000e-06	3.083018e-06	1.039906e-09	2.144249e+01	7.255091e+01
2.550000e-06	3.121568e-06	1.047230e-09	2.171061e+01	7.321517e+01
2.560000e-06	3.159922e-06	1.053806e-09	2.197736e+01	7.386662e+01
2.570000e-06	3.198072e-06	1.063187e-09	2.224269e+01	7.450554e+01
2.580000e-06	3.236020e-06	1.074832e-09	2.250663e+01	7.513221e+01
2.590000e-06	3.273785e-06	1.086762e-09	2.276928e+01	7.574684e+01
2.600000e-06	3.311304e-06	1.096179e-09	2.303023e+01	7.634967e+01
2.610000e-06	3.348511e-06	1.101706e-09	2.328900e+01	7.694089e+01
2.620000e-06	3.385548e-06	1.107567e-09	2.354659e+01	7.752068e+01
2.630000e-06	3.422340e-06	1.115367e-09	2.380249e+01	7.808919e+01
2.640000e-06	3.458804e-06	1.122717e-09	2.405610e+01	7.864657e+01
2.650000e-06	3.495093e-06	1.132567e-09	2.430849e+01	7.919295e+01
2.660000e-06	3.531214e-06	1.144669e-09	2.455971e+01	7.972844e+01
2.670000e-06	3.567161e-06	1.155678e-09	2.480972e+01	8.025314e+01
2.680000e-06	3.603007e-06	1.162182e-09	2.505903e+01	8.076714e+01
2.690000e-06	3.638764e-06	1.163594e-09	2.530772e+01	8.127054e+01
2.700000e-06	3.674355e-06	1.166739e-09	2.555526e+01	8.176340e+01
2.710000e-06	3.709625e-06	1.172720e-09	2.580056e+01	8.224581e+01
2.720000e-06	3.744503e-06	1.179675e-09	2.604314e+01	8.271782e+01
2.730000e-06	3.779110e-06	1.187328e-09	2.628383e+01	8.317952e+01
2.740000e-06	3.813308e-06	1.194667e-09	2.652168e+01	8.363095e+01
2.750000e-06	3.846847e-06	1.201568e-09	2.675494e+01	8.407221e+01
2.760000e-06	3.879854e-06	1.209027e-09	2.698451e+01	8.450335e+01
2.770000e-06	3.912680e-06	1.214039e-09	2.721282e+01	8.492446e+01
2.780000e-06	3.945352e-06	1.216621e-09	2.744005e+01	8.533561e+01
2.790000e-06	3.977688e-06	1.221745e-09	2.766495e+01	8.573689e+01
2.800000e-06	4.009768e-06	1.228688e-09	2.788807e+01	8.612839e+01
2.810000e-06	4.041658e-06	1.234454e-09	2.810986e+01	8.651022e+01
2.820000e-06	4.073321e-06	1.238932e-09	2.833008e+01	8.688248e+01
2.830000e-06	4.104839e-06	1.243591e-09	2.854929e+01	8.724529e+01
2.840000e-06	4.136156e-06	1.249633e-09	2.876710e+01	8.759877e+01
2.850000e-06	4.167120e-06	1.254117e-09	2.898246e+01	8.794306e+01
2.860000e-06	4.197713e-06	1.257126e-09	2.919523e+01	8.827829e+01
2.870000e-06	4.227933e-06	1.261245e-09	2.940541e+01	8.860461e+01
2.880000e-06	4.257862e-06	1.264884e-09	2.961357e+01	8.892218e+01
2.890000e-06	4.287524e-06	1.267300e-09	2.981987e+01	8.923116e+01
2.900000e-06	4.316854e-06	1.269332e-09	3.002386e+01	8.953173e+01
