# Temperatura_=_-0.4
# Concentracion g/m^3_=_1620.0
# C_Vs_to_Am_M_A/Vsm_=_65563218390.804596
# pendiente_HvsI_1/m_=_3716.3
# ordenada_HvsI_A/m_=_1297.0
# frecuencia_Hz_=_135091.2978497124

Tiempo_(s)	Campo_(V.s)	Magnetizacion_(V.s)	Campo_(kA/m)	Magnetizacion_(A/m)
0.000000e+00	-5.529040e-06	-1.719939e-09	-3.838492e+01	-1.096644e+02
1.000000e-08	-5.529293e-06	-1.714074e-09	-3.838668e+01	-1.095810e+02
2.000000e-08	-5.529338e-06	-1.707747e-09	-3.838699e+01	-1.094956e+02
3.000000e-08	-5.529030e-06	-1.704684e-09	-3.838485e+01	-1.094085e+02
4.000000e-08	-5.528239e-06	-1.702147e-09	-3.837936e+01	-1.093198e+02
5.000000e-08	-5.526926e-06	-1.701269e-09	-3.837024e+01	-1.092299e+02
6.000000e-08	-5.524976e-06	-1.701986e-09	-3.835671e+01	-1.091389e+02
7.000000e-08	-5.522394e-06	-1.701094e-09	-3.833878e+01	-1.090472e+02
8.000000e-08	-5.519277e-06	-1.737893e-09	-3.831714e+01	-1.089549e+02
9.000000e-08	-5.515747e-06	-1.743058e-09	-3.829263e+01	-1.088622e+02
1.000000e-07	-5.511767e-06	-1.689789e-09	-3.826500e+01	-1.087692e+02
1.100000e-07	-5.507511e-06	-1.680976e-09	-3.823546e+01	-1.086761e+02
1.200000e-07	-5.503075e-06	-1.738173e-09	-3.820466e+01	-1.085829e+02
1.300000e-07	-5.498315e-06	-1.713195e-09	-3.817162e+01	-1.084898e+02
1.400000e-07	-5.493164e-06	-1.676955e-09	-3.813585e+01	-1.083967e+02
1.500000e-07	-5.487513e-06	-1.650869e-09	-3.809663e+01	-1.083038e+02
1.600000e-07	-5.481561e-06	-1.788520e-09	-3.805530e+01	-1.082110e+02
1.700000e-07	-5.475292e-06	-1.725267e-09	-3.801178e+01	-1.081183e+02
1.800000e-07	-5.468671e-06	-1.673698e-09	-3.796581e+01	-1.080255e+02
1.900000e-07	-5.461646e-06	-1.595062e-09	-3.791705e+01	-1.079327e+02
2.000000e-07	-5.454272e-06	-1.700243e-09	-3.786585e+01	-1.078397e+02
2.100000e-07	-5.446668e-06	-1.705243e-09	-3.781306e+01	-1.077464e+02
2.200000e-07	-5.438808e-06	-1.693748e-09	-3.775849e+01	-1.076526e+02
2.300000e-07	-5.430684e-06	-1.643212e-09	-3.770209e+01	-1.075581e+02
2.400000e-07	-5.422171e-06	-1.649321e-09	-3.764299e+01	-1.074627e+02
2.500000e-07	-5.412985e-06	-1.647132e-09	-3.757922e+01	-1.073662e+02
2.600000e-07	-5.402982e-06	-1.609289e-09	-3.750977e+01	-1.072684e+02
2.700000e-07	-5.392321e-06	-1.636124e-09	-3.743576e+01	-1.071690e+02
2.800000e-07	-5.381120e-06	-1.651427e-09	-3.735800e+01	-1.070677e+02
2.900000e-07	-5.369502e-06	-1.669422e-09	-3.727734e+01	-1.069642e+02
3.000000e-07	-5.357599e-06	-1.609373e-09	-3.719471e+01	-1.068584e+02
3.100000e-07	-5.345359e-06	-1.646130e-09	-3.710973e+01	-1.067498e+02
3.200000e-07	-5.332679e-06	-1.611061e-09	-3.702170e+01	-1.066383e+02
3.300000e-07	-5.319624e-06	-1.648491e-09	-3.693107e+01	-1.065234e+02
3.400000e-07	-5.306226e-06	-1.578143e-09	-3.683805e+01	-1.064049e+02
3.500000e-07	-5.292429e-06	-1.616761e-09	-3.674227e+01	-1.062826e+02
3.600000e-07	-5.278123e-06	-1.606613e-09	-3.664295e+01	-1.061561e+02
3.700000e-07	-5.263414e-06	-1.645071e-09	-3.654084e+01	-1.060252e+02
3.800000e-07	-5.248104e-06	-1.573681e-09	-3.643455e+01	-1.058895e+02
3.900000e-07	-5.232232e-06	-1.608491e-09	-3.632435e+01	-1.057489e+02
4.000000e-07	-5.216034e-06	-1.606112e-09	-3.621191e+01	-1.056031e+02
4.100000e-07	-5.199474e-06	-1.589735e-09	-3.609694e+01	-1.054519e+02
4.200000e-07	-5.182512e-06	-1.566797e-09	-3.597918e+01	-1.052950e+02
4.300000e-07	-5.165190e-06	-1.631781e-09	-3.585892e+01	-1.051324e+02
4.400000e-07	-5.147601e-06	-1.594168e-09	-3.573681e+01	-1.049638e+02
4.500000e-07	-5.129685e-06	-1.544908e-09	-3.561243e+01	-1.047890e+02
4.600000e-07	-5.111289e-06	-1.579929e-09	-3.548472e+01	-1.046080e+02
4.700000e-07	-5.092365e-06	-1.611864e-09	-3.535334e+01	-1.044206e+02
4.800000e-07	-5.073145e-06	-1.546992e-09	-3.521991e+01	-1.042267e+02
4.900000e-07	-5.053777e-06	-1.563600e-09	-3.508544e+01	-1.040263e+02
5.000000e-07	-5.034236e-06	-1.613931e-09	-3.494978e+01	-1.038194e+02
5.100000e-07	-5.014474e-06	-1.553515e-09	-3.481259e+01	-1.036059e+02
5.200000e-07	-4.994408e-06	-1.534073e-09	-3.467328e+01	-1.033857e+02
5.300000e-07	-4.973962e-06	-1.591435e-09	-3.453134e+01	-1.031590e+02
5.400000e-07	-4.953072e-06	-1.559860e-09	-3.438631e+01	-1.029257e+02
5.500000e-07	-4.931757e-06	-1.487559e-09	-3.423833e+01	-1.026860e+02
5.600000e-07	-4.910165e-06	-1.554039e-09	-3.408843e+01	-1.024397e+02
5.700000e-07	-4.888333e-06	-1.567705e-09	-3.393687e+01	-1.021872e+02
5.800000e-07	-4.866183e-06	-1.514531e-09	-3.378309e+01	-1.019284e+02
5.900000e-07	-4.843633e-06	-1.523661e-09	-3.362654e+01	-1.016634e+02
6.000000e-07	-4.820632e-06	-1.571675e-09	-3.346685e+01	-1.013923e+02
6.100000e-07	-4.797299e-06	-1.508086e-09	-3.330487e+01	-1.011154e+02
6.200000e-07	-4.773803e-06	-1.505912e-09	-3.314175e+01	-1.008327e+02
6.300000e-07	-4.750099e-06	-1.529951e-09	-3.297718e+01	-1.005443e+02
6.400000e-07	-4.726105e-06	-1.515009e-09	-3.281061e+01	-1.002504e+02
6.500000e-07	-4.701771e-06	-1.480934e-09	-3.264167e+01	-9.995116e+01
6.600000e-07	-4.677038e-06	-1.519995e-09	-3.246997e+01	-9.964667e+01
6.700000e-07	-4.651836e-06	-1.500773e-09	-3.229500e+01	-9.933709e+01
6.800000e-07	-4.626052e-06	-1.484738e-09	-3.211600e+01	-9.902255e+01
6.900000e-07	-4.599629e-06	-1.490901e-09	-3.193256e+01	-9.870318e+01
7.000000e-07	-4.572656e-06	-1.500686e-09	-3.174530e+01	-9.837910e+01
7.100000e-07	-4.545346e-06	-1.465676e-09	-3.155570e+01	-9.805044e+01
7.200000e-07	-4.517860e-06	-1.473224e-09	-3.136489e+01	-9.771730e+01
7.300000e-07	-4.490224e-06	-1.473812e-09	-3.117302e+01	-9.737976e+01
7.400000e-07	-4.462406e-06	-1.461275e-09	-3.097990e+01	-9.703793e+01
7.500000e-07	-4.434303e-06	-1.447124e-09	-3.078479e+01	-9.669187e+01
7.600000e-07	-4.405950e-06	-1.451184e-09	-3.058796e+01	-9.634164e+01
7.700000e-07	-4.377311e-06	-1.439914e-09	-3.038914e+01	-9.598730e+01
7.800000e-07	-4.348329e-06	-1.430278e-09	-3.018793e+01	-9.562888e+01
7.900000e-07	-4.319067e-06	-1.426099e-09	-2.998478e+01	-9.526639e+01
8.000000e-07	-4.289519e-06	-1.415156e-09	-2.977965e+01	-9.489986e+01
8.100000e-07	-4.259712e-06	-1.402224e-09	-2.957271e+01	-9.452927e+01
8.200000e-07	-4.229598e-06	-1.394285e-09	-2.936365e+01	-9.415460e+01
8.300000e-07	-4.199156e-06	-1.391532e-09	-2.915231e+01	-9.377583e+01
8.400000e-07	-4.168433e-06	-1.376155e-09	-2.893901e+01	-9.339291e+01
8.500000e-07	-4.137494e-06	-1.377529e-09	-2.872422e+01	-9.300580e+01
8.600000e-07	-4.106202e-06	-1.376319e-09	-2.850698e+01	-9.261441e+01
8.700000e-07	-4.074621e-06	-1.371043e-09	-2.828773e+01	-9.221869e+01
8.800000e-07	-4.042932e-06	-1.358093e-09	-2.806774e+01	-9.181854e+01
8.900000e-07	-4.011124e-06	-1.362701e-09	-2.784691e+01	-9.141387e+01
9.000000e-07	-3.979093e-06	-1.347265e-09	-2.762454e+01	-9.100460e+01
9.100000e-07	-3.946671e-06	-1.339336e-09	-2.739945e+01	-9.059061e+01
9.200000e-07	-3.913926e-06	-1.333631e-09	-2.717212e+01	-9.017179e+01
9.300000e-07	-3.880768e-06	-1.331344e-09	-2.694192e+01	-8.974804e+01
9.400000e-07	-3.847208e-06	-1.312487e-09	-2.670893e+01	-8.931924e+01
9.500000e-07	-3.813261e-06	-1.312795e-09	-2.647327e+01	-8.888529e+01
9.600000e-07	-3.778856e-06	-1.304905e-09	-2.623441e+01	-8.844606e+01
9.700000e-07	-3.744059e-06	-1.294593e-09	-2.599283e+01	-8.800145e+01
9.800000e-07	-3.708880e-06	-1.284510e-09	-2.574860e+01	-8.755134e+01
9.900000e-07	-3.673425e-06	-1.288928e-09	-2.550246e+01	-8.709565e+01
1.000000e-06	-3.637819e-06	-1.275086e-09	-2.525527e+01	-8.663426e+01
1.010000e-06	-3.602086e-06	-1.265086e-09	-2.500720e+01	-8.616709e+01
1.020000e-06	-3.566258e-06	-1.260977e-09	-2.475846e+01	-8.569404e+01
1.030000e-06	-3.530281e-06	-1.255606e-09	-2.450870e+01	-8.521504e+01
1.040000e-06	-3.494105e-06	-1.239101e-09	-2.425755e+01	-8.473002e+01
1.050000e-06	-3.457672e-06	-1.234669e-09	-2.400462e+01	-8.423892e+01
1.060000e-06	-3.420935e-06	-1.231625e-09	-2.374957e+01	-8.374167e+01
1.070000e-06	-3.383924e-06	-1.218622e-09	-2.349263e+01	-8.323824e+01
1.080000e-06	-3.346624e-06	-1.205215e-09	-2.323367e+01	-8.272859e+01
1.090000e-06	-3.309147e-06	-1.197554e-09	-2.297349e+01	-8.221269e+01
1.100000e-06	-3.271391e-06	-1.186594e-09	-2.271138e+01	-8.169052e+01
1.110000e-06	-3.233363e-06	-1.172512e-09	-2.244737e+01	-8.116208e+01
1.120000e-06	-3.195200e-06	-1.167190e-09	-2.218243e+01	-8.062735e+01
1.130000e-06	-3.156773e-06	-1.158006e-09	-2.191565e+01	-8.008634e+01
1.140000e-06	-3.118085e-06	-1.146189e-09	-2.164706e+01	-7.953906e+01
1.150000e-06	-3.079243e-06	-1.135033e-09	-2.137740e+01	-7.898553e+01
1.160000e-06	-3.040210e-06	-1.133179e-09	-2.110642e+01	-7.842576e+01
1.170000e-06	-3.000924e-06	-1.124432e-09	-2.083368e+01	-7.785978e+01
1.180000e-06	-2.961498e-06	-1.118204e-09	-2.055997e+01	-7.728761e+01
1.190000e-06	-2.922025e-06	-1.108554e-09	-2.028593e+01	-7.670928e+01
1.200000e-06	-2.882456e-06	-1.098125e-09	-2.001122e+01	-7.612481e+01
1.210000e-06	-2.842681e-06	-1.083735e-09	-1.973508e+01	-7.553422e+01
1.220000e-06	-2.802695e-06	-1.077183e-09	-1.945749e+01	-7.493752e+01
1.230000e-06	-2.762535e-06	-1.066375e-09	-1.917868e+01	-7.433474e+01
1.240000e-06	-2.722105e-06	-1.058186e-09	-1.889800e+01	-7.372588e+01
1.250000e-06	-2.681514e-06	-1.049634e-09	-1.861620e+01	-7.311092e+01
1.260000e-06	-2.640790e-06	-1.041720e-09	-1.833348e+01	-7.248986e+01
1.270000e-06	-2.599686e-06	-1.028035e-09	-1.804811e+01	-7.186268e+01
1.280000e-06	-2.558264e-06	-1.017360e-09	-1.776055e+01	-7.122932e+01
1.290000e-06	-2.516507e-06	-1.006623e-09	-1.747065e+01	-7.058974e+01
1.300000e-06	-2.474360e-06	-9.974731e-10	-1.717805e+01	-6.994386e+01
1.310000e-06	-2.432059e-06	-9.834238e-10	-1.688438e+01	-6.929159e+01
1.320000e-06	-2.389570e-06	-9.721903e-10	-1.658940e+01	-6.863283e+01
1.330000e-06	-2.346744e-06	-9.588034e-10	-1.629208e+01	-6.796744e+01
1.340000e-06	-2.303703e-06	-9.457606e-10	-1.599328e+01	-6.729527e+01
1.350000e-06	-2.260479e-06	-9.344511e-10	-1.569319e+01	-6.661615e+01
1.360000e-06	-2.217073e-06	-9.249858e-10	-1.539185e+01	-6.592988e+01
1.370000e-06	-2.173575e-06	-9.146636e-10	-1.508987e+01	-6.523623e+01
1.380000e-06	-2.129981e-06	-9.035590e-10	-1.478722e+01	-6.453496e+01
1.390000e-06	-2.086284e-06	-8.919849e-10	-1.448386e+01	-6.382579e+01
1.400000e-06	-2.042512e-06	-8.799231e-10	-1.417997e+01	-6.310842e+01
1.410000e-06	-1.998652e-06	-8.679322e-10	-1.387548e+01	-6.238254e+01
1.420000e-06	-1.954732e-06	-8.547965e-10	-1.357057e+01	-6.164778e+01
1.430000e-06	-1.910801e-06	-8.429939e-10	-1.326559e+01	-6.090378e+01
1.440000e-06	-1.866792e-06	-8.292341e-10	-1.296006e+01	-6.015013e+01
1.450000e-06	-1.822609e-06	-8.176833e-10	-1.265332e+01	-5.938641e+01
1.460000e-06	-1.778178e-06	-8.063584e-10	-1.234486e+01	-5.861217e+01
1.470000e-06	-1.733668e-06	-7.963255e-10	-1.203586e+01	-5.782695e+01
1.480000e-06	-1.689091e-06	-7.844515e-10	-1.172638e+01	-5.703025e+01
1.490000e-06	-1.644321e-06	-7.734825e-10	-1.141557e+01	-5.622155e+01
1.500000e-06	-1.599419e-06	-7.596892e-10	-1.110384e+01	-5.540035e+01
1.510000e-06	-1.554384e-06	-7.470472e-10	-1.079118e+01	-5.456609e+01
1.520000e-06	-1.509149e-06	-7.311718e-10	-1.047715e+01	-5.371822e+01
1.530000e-06	-1.463765e-06	-7.172201e-10	-1.016207e+01	-5.285617e+01
1.540000e-06	-1.418309e-06	-7.047321e-10	-9.846498e+00	-5.197937e+01
1.550000e-06	-1.372808e-06	-6.941998e-10	-9.530613e+00	-5.108723e+01
1.560000e-06	-1.327260e-06	-6.779548e-10	-9.214398e+00	-5.017918e+01
1.570000e-06	-1.281586e-06	-6.620545e-10	-8.897311e+00	-4.925462e+01
1.580000e-06	-1.235813e-06	-6.441632e-10	-8.579537e+00	-4.831297e+01
1.590000e-06	-1.190020e-06	-6.250596e-10	-8.261618e+00	-4.735366e+01
1.600000e-06	-1.144146e-06	-6.068888e-10	-7.943142e+00	-4.637611e+01
1.610000e-06	-1.098178e-06	-5.919126e-10	-7.624014e+00	-4.537977e+01
1.620000e-06	-1.052151e-06	-5.773228e-10	-7.304475e+00	-4.436411e+01
1.630000e-06	-1.005984e-06	-5.621523e-10	-6.983962e+00	-4.332859e+01
1.640000e-06	-9.596985e-07	-5.463322e-10	-6.662631e+00	-4.227272e+01
1.650000e-06	-9.133733e-07	-5.286556e-10	-6.341022e+00	-4.119603e+01
1.660000e-06	-8.669455e-07	-5.109169e-10	-6.018700e+00	-4.009806e+01
1.670000e-06	-8.204713e-07	-4.919466e-10	-5.696057e+00	-3.897841e+01
1.680000e-06	-7.739934e-07	-4.743428e-10	-5.373388e+00	-3.783671e+01
1.690000e-06	-7.275136e-07	-4.595890e-10	-5.050706e+00	-3.667262e+01
1.700000e-06	-6.810260e-07	-4.444017e-10	-4.727969e+00	-3.548583e+01
1.710000e-06	-6.344611e-07	-4.278035e-10	-4.404696e+00	-3.427612e+01
1.720000e-06	-5.878555e-07	-4.098271e-10	-4.081141e+00	-3.304327e+01
1.730000e-06	-5.412321e-07	-3.902401e-10	-3.757461e+00	-3.178713e+01
1.740000e-06	-4.945151e-07	-3.675024e-10	-3.433132e+00	-3.050763e+01
1.750000e-06	-4.476667e-07	-3.444802e-10	-3.107891e+00	-2.920471e+01
1.760000e-06	-4.007663e-07	-3.265513e-10	-2.782288e+00	-2.787840e+01
1.770000e-06	-3.538599e-07	-3.082638e-10	-2.456645e+00	-2.652879e+01
1.780000e-06	-3.069892e-07	-2.887939e-10	-2.131248e+00	-2.515602e+01
1.790000e-06	-2.601054e-07	-2.703269e-10	-1.805761e+00	-2.376030e+01
1.800000e-06	-2.131186e-07	-2.536192e-10	-1.479559e+00	-2.234191e+01
1.810000e-06	-1.661856e-07	-2.328092e-10	-1.153730e+00	-2.090120e+01
1.820000e-06	-1.192882e-07	-2.096398e-10	-8.281492e-01	-1.943858e+01
1.830000e-06	-7.240540e-08	-1.871524e-10	-5.026688e-01	-1.795451e+01
1.840000e-06	-2.560790e-08	-1.656233e-10	-1.777808e-01	-1.644957e+01
1.850000e-06	2.124652e-08	-1.436599e-10	1.475023e-01	-1.492435e+01
1.860000e-06	6.810127e-08	-1.240276e-10	4.727877e-01	-1.337955e+01
1.870000e-06	1.149175e-07	-1.004719e-10	7.978054e-01	-1.181592e+01
1.880000e-06	1.617335e-07	-7.656517e-11	1.122822e+00	-1.023426e+01
1.890000e-06	2.085582e-07	-5.700387e-11	1.447899e+00	-8.635466e+00
1.900000e-06	2.553318e-07	-3.912863e-11	1.772621e+00	-7.020474e+00
1.910000e-06	3.021312e-07	-1.995118e-11	2.097522e+00	-5.390286e+00
1.920000e-06	3.490625e-07	1.841009e-12	2.423338e+00	-3.745963e+00
1.930000e-06	3.959588e-07	2.808900e-11	2.748912e+00	-2.088616e+00
1.940000e-06	4.428129e-07	5.639679e-11	3.074193e+00	-4.194121e-01
1.950000e-06	4.896387e-07	8.451735e-11	3.399278e+00	1.260437e+00
1.960000e-06	5.364424e-07	1.085810e-10	3.724209e+00	2.949674e+00
1.970000e-06	5.831525e-07	1.288662e-10	4.048490e+00	4.647002e+00
1.980000e-06	6.296769e-07	1.484706e-10	4.371482e+00	6.351089e+00
1.990000e-06	6.761760e-07	1.675825e-10	4.694298e+00	8.060570e+00
2.000000e-06	7.226636e-07	1.882660e-10	5.017034e+00	9.774055e+00
2.010000e-06	7.690502e-07	2.136438e-10	5.339070e+00	1.149013e+01
2.020000e-06	8.153790e-07	2.390991e-10	5.660704e+00	1.320737e+01
2.030000e-06	8.616582e-07	2.651611e-10	5.981994e+00	1.492433e+01
2.040000e-06	9.080126e-07	2.922661e-10	6.303806e+00	1.663956e+01
2.050000e-06	9.543948e-07	3.158057e-10	6.625810e+00	1.835162e+01
2.060000e-06	1.000582e-06	3.397820e-10	6.946459e+00	2.005906e+01
2.070000e-06	1.046639e-06	3.623253e-10	7.266211e+00	2.176046e+01
2.080000e-06	1.092570e-06	3.850369e-10	7.585080e+00	2.345439e+01
2.090000e-06	1.138466e-06	4.079973e-10	7.903713e+00	2.513946e+01
2.100000e-06	1.184342e-06	4.321936e-10	8.222198e+00	2.681429e+01
2.110000e-06	1.230110e-06	4.547667e-10	8.539940e+00	2.847755e+01
2.120000e-06	1.275815e-06	4.763613e-10	8.857246e+00	3.012794e+01
2.130000e-06	1.321367e-06	4.976888e-10	9.173489e+00	3.176418e+01
2.140000e-06	1.366761e-06	5.188100e-10	9.488629e+00	3.338508e+01
2.150000e-06	1.412052e-06	5.392564e-10	9.803057e+00	3.498946e+01
2.160000e-06	1.457252e-06	5.592915e-10	1.011685e+01	3.657622e+01
2.170000e-06	1.502379e-06	5.808760e-10	1.043015e+01	3.814429e+01
2.180000e-06	1.547414e-06	6.024718e-10	1.074280e+01	3.969270e+01
2.190000e-06	1.592380e-06	6.229954e-10	1.105497e+01	4.122051e+01
2.200000e-06	1.637272e-06	6.427171e-10	1.136663e+01	4.272688e+01
2.210000e-06	1.681930e-06	6.594819e-10	1.167666e+01	4.421101e+01
2.220000e-06	1.726433e-06	6.754432e-10	1.198562e+01	4.567220e+01
2.230000e-06	1.770835e-06	6.926254e-10	1.229388e+01	4.710981e+01
2.240000e-06	1.815105e-06	7.125557e-10	1.260122e+01	4.852328e+01
2.250000e-06	1.859241e-06	7.345525e-10	1.290763e+01	4.991211e+01
2.260000e-06	1.903242e-06	7.564532e-10	1.321311e+01	5.127592e+01
2.270000e-06	1.947205e-06	7.734945e-10	1.351832e+01	5.261436e+01
2.280000e-06	1.991090e-06	7.865545e-10	1.382298e+01	5.392719e+01
2.290000e-06	2.034905e-06	8.006830e-10	1.412716e+01	5.521423e+01
2.300000e-06	2.078688e-06	8.166293e-10	1.443113e+01	5.647539e+01
2.310000e-06	2.122355e-06	8.317160e-10	1.473428e+01	5.771063e+01
2.320000e-06	2.165967e-06	8.490739e-10	1.503706e+01	5.892000e+01
2.330000e-06	2.209524e-06	8.700205e-10	1.533944e+01	6.010362e+01
2.340000e-06	2.252934e-06	8.875179e-10	1.564082e+01	6.126166e+01
2.350000e-06	2.296207e-06	9.011585e-10	1.594124e+01	6.239438e+01
2.360000e-06	2.339235e-06	9.143696e-10	1.623995e+01	6.350207e+01
2.370000e-06	2.381890e-06	9.297684e-10	1.653608e+01	6.458509e+01
2.380000e-06	2.424339e-06	9.436748e-10	1.683078e+01	6.564386e+01
2.390000e-06	2.466571e-06	9.589627e-10	1.712397e+01	6.667885e+01
2.400000e-06	2.508511e-06	9.757727e-10	1.741514e+01	6.769054e+01
2.410000e-06	2.550175e-06	9.924779e-10	1.770439e+01	6.867949e+01
2.420000e-06	2.591455e-06	1.007818e-09	1.799097e+01	6.964627e+01
2.430000e-06	2.632458e-06	1.020503e-09	1.827563e+01	7.059150e+01
2.440000e-06	2.673277e-06	1.030187e-09	1.855901e+01	7.151579e+01
2.450000e-06	2.713812e-06	1.039544e-09	1.884043e+01	7.241981e+01
2.460000e-06	2.754060e-06	1.052105e-09	1.911985e+01	7.330421e+01
2.470000e-06	2.794057e-06	1.066176e-09	1.939752e+01	7.416967e+01
2.480000e-06	2.833888e-06	1.078091e-09	1.967404e+01	7.501688e+01
2.490000e-06	2.873676e-06	1.088647e-09	1.995026e+01	7.584651e+01
2.500000e-06	2.913342e-06	1.099446e-09	2.022564e+01	7.665924e+01
2.510000e-06	2.952843e-06	1.111185e-09	2.049988e+01	7.745574e+01
2.520000e-06	2.992176e-06	1.121047e-09	2.077295e+01	7.823666e+01
2.530000e-06	3.031349e-06	1.129248e-09	2.104490e+01	7.900264e+01
2.540000e-06	3.070355e-06	1.140258e-09	2.131570e+01	7.975430e+01
2.550000e-06	3.109168e-06	1.155004e-09	2.158515e+01	8.049223e+01
2.560000e-06	3.147696e-06	1.168456e-09	2.185263e+01	8.121701e+01
2.570000e-06	3.185869e-06	1.179316e-09	2.211764e+01	8.192917e+01
2.580000e-06	3.223837e-06	1.191407e-09	2.238123e+01	8.262922e+01
2.590000e-06	3.261687e-06	1.202668e-09	2.264400e+01	8.331763e+01
2.600000e-06	3.299367e-06	1.209971e-09	2.290559e+01	8.399484e+01
2.610000e-06	3.336856e-06	1.215978e-09	2.316586e+01	8.466125e+01
2.620000e-06	3.374083e-06	1.224706e-09	2.342430e+01	8.531722e+01
2.630000e-06	3.411005e-06	1.236077e-09	2.368063e+01	8.596308e+01
2.640000e-06	3.447706e-06	1.247438e-09	2.393542e+01	8.659912e+01
2.650000e-06	3.484228e-06	1.259751e-09	2.418897e+01	8.722558e+01
2.660000e-06	3.520550e-06	1.272311e-09	2.444114e+01	8.784268e+01
2.670000e-06	3.556627e-06	1.280606e-09	2.469160e+01	8.845059e+01
2.680000e-06	3.592459e-06	1.286527e-09	2.494036e+01	8.904945e+01
2.690000e-06	3.628119e-06	1.290573e-09	2.518793e+01	8.963936e+01
2.700000e-06	3.663611e-06	1.294038e-09	2.543433e+01	9.022039e+01
2.710000e-06	3.698988e-06	1.300941e-09	2.567993e+01	9.079259e+01
2.720000e-06	3.734214e-06	1.313224e-09	2.592449e+01	9.135598e+01
2.730000e-06	3.769154e-06	1.324539e-09	2.616705e+01	9.191053e+01
2.740000e-06	3.803763e-06	1.333392e-09	2.640732e+01	9.245622e+01
2.750000e-06	3.837962e-06	1.340663e-09	2.664475e+01	9.299299e+01
2.760000e-06	3.871685e-06	1.346965e-09	2.687887e+01	9.352078e+01
2.770000e-06	3.904928e-06	1.350218e-09	2.710966e+01	9.403948e+01
2.780000e-06	3.937636e-06	1.351430e-09	2.733673e+01	9.454902e+01
2.790000e-06	3.970012e-06	1.357626e-09	2.756149e+01	9.504929e+01
2.800000e-06	4.002135e-06	1.367131e-09	2.778450e+01	9.554017e+01
2.810000e-06	4.033895e-06	1.376681e-09	2.800499e+01	9.602156e+01
2.820000e-06	4.065462e-06	1.384976e-09	2.822415e+01	9.649335e+01
2.830000e-06	4.096961e-06	1.392570e-09	2.844283e+01	9.695543e+01
2.840000e-06	4.128300e-06	1.399409e-09	2.866040e+01	9.740771e+01
2.850000e-06	4.159361e-06	1.404163e-09	2.887603e+01	9.785009e+01
2.860000e-06	4.190119e-06	1.407660e-09	2.908957e+01	9.828251e+01
2.870000e-06	4.220524e-06	1.412223e-09	2.930065e+01	9.870489e+01
2.880000e-06	4.250639e-06	1.419494e-09	2.950973e+01	9.911719e+01
2.890000e-06	4.280483e-06	1.426177e-09	2.971692e+01	9.951939e+01
2.900000e-06	4.310056e-06	1.430327e-09	2.992222e+01	9.991147e+01
