# Temperatura_=_-25.36
# Concentracion g/m^3_=_1620.0
# C_Vs_to_Am_M_A/Vsm_=_65563218390.804596
# pendiente_HvsI_1/m_=_3716.3
# ordenada_HvsI_A/m_=_1297.0
# frecuencia_Hz_=_135101.18350342807

Tiempo_(s)	Campo_(V.s)	Magnetizacion_(V.s)	Campo_(kA/m)	Magnetizacion_(A/m)
0.000000e+00	-5.515565e-06	-7.177665e-10	-3.835920e+01	-4.698513e+01
1.000000e-08	-5.515821e-06	-7.157424e-10	-3.836098e+01	-4.697943e+01
2.000000e-08	-5.515893e-06	-7.174227e-10	-3.836149e+01	-4.697112e+01
3.000000e-08	-5.515666e-06	-7.213914e-10	-3.835990e+01	-4.696016e+01
4.000000e-08	-5.515022e-06	-7.258517e-10	-3.835543e+01	-4.694652e+01
5.000000e-08	-5.513875e-06	-7.273286e-10	-3.834745e+01	-4.693021e+01
6.000000e-08	-5.512088e-06	-7.263089e-10	-3.833502e+01	-4.691123e+01
7.000000e-08	-5.509568e-06	-7.195959e-10	-3.831750e+01	-4.688963e+01
8.000000e-08	-5.506454e-06	-7.178546e-10	-3.829584e+01	-4.686545e+01
9.000000e-08	-5.502888e-06	-7.207682e-10	-3.827104e+01	-4.683877e+01
1.000000e-07	-5.498948e-06	-7.298625e-10	-3.824364e+01	-4.680967e+01
1.100000e-07	-5.494663e-06	-7.377947e-10	-3.821383e+01	-4.677827e+01
1.200000e-07	-5.490144e-06	-7.341738e-10	-3.818241e+01	-4.674468e+01
1.300000e-07	-5.485499e-06	-7.161907e-10	-3.815010e+01	-4.670905e+01
1.400000e-07	-5.480539e-06	-7.293878e-10	-3.811561e+01	-4.667154e+01
1.500000e-07	-5.475103e-06	-7.227703e-10	-3.807780e+01	-4.663231e+01
1.600000e-07	-5.469258e-06	-7.323994e-10	-3.803716e+01	-4.659155e+01
1.700000e-07	-5.463092e-06	-7.170093e-10	-3.799427e+01	-4.654946e+01
1.800000e-07	-5.456490e-06	-7.289715e-10	-3.794836e+01	-4.650623e+01
1.900000e-07	-5.449413e-06	-7.140742e-10	-3.789914e+01	-4.646208e+01
2.000000e-07	-5.442013e-06	-7.005287e-10	-3.784767e+01	-4.641723e+01
2.100000e-07	-5.434329e-06	-6.909744e-10	-3.779423e+01	-4.637190e+01
2.200000e-07	-5.426403e-06	-7.073015e-10	-3.773911e+01	-4.632632e+01
2.300000e-07	-5.418270e-06	-7.039203e-10	-3.768254e+01	-4.628071e+01
2.400000e-07	-5.409809e-06	-6.867813e-10	-3.762370e+01	-4.623531e+01
2.500000e-07	-5.400676e-06	-6.712302e-10	-3.756018e+01	-4.619033e+01
2.600000e-07	-5.390770e-06	-6.522287e-10	-3.749129e+01	-4.614598e+01
2.700000e-07	-5.380206e-06	-6.536544e-10	-3.741782e+01	-4.610248e+01
2.800000e-07	-5.369099e-06	-6.504240e-10	-3.734057e+01	-4.606003e+01
2.900000e-07	-5.357628e-06	-6.585878e-10	-3.726080e+01	-4.601882e+01
3.000000e-07	-5.345837e-06	-6.420832e-10	-3.717880e+01	-4.597902e+01
3.100000e-07	-5.333698e-06	-6.516705e-10	-3.709437e+01	-4.594079e+01
3.200000e-07	-5.321145e-06	-6.517493e-10	-3.700707e+01	-4.590429e+01
3.300000e-07	-5.308171e-06	-6.581683e-10	-3.691684e+01	-4.586964e+01
3.400000e-07	-5.294829e-06	-6.357189e-10	-3.682405e+01	-4.583696e+01
3.500000e-07	-5.281151e-06	-6.431058e-10	-3.672892e+01	-4.580634e+01
3.600000e-07	-5.267008e-06	-6.404510e-10	-3.663056e+01	-4.577785e+01
3.700000e-07	-5.252483e-06	-6.490914e-10	-3.652954e+01	-4.575155e+01
3.800000e-07	-5.237619e-06	-6.392213e-10	-3.642617e+01	-4.572747e+01
3.900000e-07	-5.222105e-06	-6.514711e-10	-3.631827e+01	-4.570562e+01
4.000000e-07	-5.205857e-06	-6.419648e-10	-3.620527e+01	-4.568600e+01
4.100000e-07	-5.189261e-06	-6.417021e-10	-3.608985e+01	-4.566858e+01
4.200000e-07	-5.172484e-06	-6.479646e-10	-3.597318e+01	-4.565330e+01
4.300000e-07	-5.155315e-06	-6.541651e-10	-3.585377e+01	-4.564009e+01
4.400000e-07	-5.137804e-06	-6.412141e-10	-3.573198e+01	-4.562888e+01
4.500000e-07	-5.119990e-06	-6.447902e-10	-3.560809e+01	-4.561954e+01
4.600000e-07	-5.101710e-06	-6.570317e-10	-3.548096e+01	-4.561196e+01
4.700000e-07	-5.082947e-06	-6.483747e-10	-3.535047e+01	-4.560599e+01
4.800000e-07	-5.063898e-06	-6.407741e-10	-3.521798e+01	-4.560149e+01
4.900000e-07	-5.044590e-06	-6.564568e-10	-3.508370e+01	-4.559827e+01
5.000000e-07	-5.024998e-06	-6.635907e-10	-3.494745e+01	-4.559617e+01
5.100000e-07	-5.005174e-06	-6.457058e-10	-3.480958e+01	-4.559499e+01
5.200000e-07	-4.985099e-06	-6.504921e-10	-3.466996e+01	-4.559453e+01
5.300000e-07	-4.964709e-06	-6.604606e-10	-3.452816e+01	-4.559459e+01
5.400000e-07	-4.943941e-06	-6.534374e-10	-3.438372e+01	-4.559495e+01
5.500000e-07	-4.922758e-06	-6.451179e-10	-3.423640e+01	-4.559539e+01
5.600000e-07	-4.901217e-06	-6.626288e-10	-3.408659e+01	-4.559571e+01
5.700000e-07	-4.879435e-06	-6.618699e-10	-3.393510e+01	-4.559569e+01
5.800000e-07	-4.857346e-06	-6.561122e-10	-3.378148e+01	-4.559511e+01
5.900000e-07	-4.834801e-06	-6.627926e-10	-3.362468e+01	-4.559376e+01
6.000000e-07	-4.811863e-06	-6.720258e-10	-3.346516e+01	-4.559143e+01
6.100000e-07	-4.788622e-06	-6.587211e-10	-3.330352e+01	-4.558793e+01
6.200000e-07	-4.765116e-06	-6.638758e-10	-3.314004e+01	-4.558306e+01
6.300000e-07	-4.741406e-06	-6.697869e-10	-3.297515e+01	-4.557664e+01
6.400000e-07	-4.717492e-06	-6.667206e-10	-3.280883e+01	-4.556849e+01
6.500000e-07	-4.693335e-06	-6.620718e-10	-3.264083e+01	-4.555846e+01
6.600000e-07	-4.668724e-06	-6.720968e-10	-3.246966e+01	-4.554639e+01
6.700000e-07	-4.643531e-06	-6.647787e-10	-3.229445e+01	-4.553214e+01
6.800000e-07	-4.617825e-06	-6.592629e-10	-3.211567e+01	-4.551560e+01
6.900000e-07	-4.591566e-06	-6.614829e-10	-3.193305e+01	-4.549664e+01
7.000000e-07	-4.564847e-06	-6.637215e-10	-3.174723e+01	-4.547517e+01
7.100000e-07	-4.537784e-06	-6.555773e-10	-3.155901e+01	-4.545111e+01
7.200000e-07	-4.510420e-06	-6.564862e-10	-3.136870e+01	-4.542438e+01
7.300000e-07	-4.482873e-06	-6.597761e-10	-3.117712e+01	-4.539492e+01
7.400000e-07	-4.455124e-06	-6.572187e-10	-3.098413e+01	-4.536269e+01
7.500000e-07	-4.427169e-06	-6.521184e-10	-3.078972e+01	-4.532765e+01
7.600000e-07	-4.398952e-06	-6.536799e-10	-3.059348e+01	-4.528979e+01
7.700000e-07	-4.370360e-06	-6.547555e-10	-3.039462e+01	-4.524909e+01
7.800000e-07	-4.341405e-06	-6.514147e-10	-3.019325e+01	-4.520556e+01
7.900000e-07	-4.312197e-06	-6.511524e-10	-2.999012e+01	-4.515918e+01
8.000000e-07	-4.282708e-06	-6.498968e-10	-2.978503e+01	-4.511000e+01
8.100000e-07	-4.252846e-06	-6.431741e-10	-2.957735e+01	-4.505801e+01
8.200000e-07	-4.222757e-06	-6.356195e-10	-2.936809e+01	-4.500327e+01
8.300000e-07	-4.192506e-06	-6.344154e-10	-2.915770e+01	-4.494578e+01
8.400000e-07	-4.161932e-06	-6.316422e-10	-2.894507e+01	-4.488560e+01
8.500000e-07	-4.130938e-06	-6.344463e-10	-2.872951e+01	-4.482276e+01
8.600000e-07	-4.099617e-06	-6.369135e-10	-2.851169e+01	-4.475729e+01
8.700000e-07	-4.068114e-06	-6.385836e-10	-2.829259e+01	-4.468925e+01
8.800000e-07	-4.036523e-06	-6.352562e-10	-2.807288e+01	-4.461865e+01
8.900000e-07	-4.004794e-06	-6.364920e-10	-2.785221e+01	-4.454555e+01
9.000000e-07	-3.972843e-06	-6.302007e-10	-2.763000e+01	-4.446997e+01
9.100000e-07	-3.940641e-06	-6.234194e-10	-2.740605e+01	-4.439194e+01
9.200000e-07	-3.908111e-06	-6.205443e-10	-2.717981e+01	-4.431148e+01
9.300000e-07	-3.875294e-06	-6.202839e-10	-2.695158e+01	-4.422862e+01
9.400000e-07	-3.842123e-06	-6.197513e-10	-2.672088e+01	-4.414336e+01
9.500000e-07	-3.808355e-06	-6.235250e-10	-2.648604e+01	-4.405571e+01
9.600000e-07	-3.773995e-06	-6.255115e-10	-2.624708e+01	-4.396566e+01
9.700000e-07	-3.739184e-06	-6.218265e-10	-2.600498e+01	-4.387322e+01
9.800000e-07	-3.704067e-06	-6.173605e-10	-2.576074e+01	-4.377837e+01
9.900000e-07	-3.668736e-06	-6.177048e-10	-2.551503e+01	-4.368108e+01
1.000000e-06	-3.633234e-06	-6.127026e-10	-2.526812e+01	-4.358133e+01
1.010000e-06	-3.597578e-06	-6.105792e-10	-2.502014e+01	-4.347907e+01
1.020000e-06	-3.561749e-06	-6.143964e-10	-2.477096e+01	-4.337428e+01
1.030000e-06	-3.525759e-06	-6.183988e-10	-2.452067e+01	-4.326689e+01
1.040000e-06	-3.489632e-06	-6.180960e-10	-2.426941e+01	-4.315685e+01
1.050000e-06	-3.453345e-06	-6.211711e-10	-2.401705e+01	-4.304412e+01
1.060000e-06	-3.416806e-06	-6.234180e-10	-2.376293e+01	-4.292862e+01
1.070000e-06	-3.379953e-06	-6.180190e-10	-2.350663e+01	-4.281028e+01
1.080000e-06	-3.342787e-06	-6.133285e-10	-2.324814e+01	-4.268904e+01
1.090000e-06	-3.305385e-06	-6.127602e-10	-2.298802e+01	-4.256483e+01
1.100000e-06	-3.267780e-06	-6.110427e-10	-2.272650e+01	-4.243757e+01
1.110000e-06	-3.229971e-06	-6.090338e-10	-2.246354e+01	-4.230718e+01
1.120000e-06	-3.191972e-06	-6.107208e-10	-2.219927e+01	-4.217360e+01
1.130000e-06	-3.153668e-06	-6.097010e-10	-2.193288e+01	-4.203675e+01
1.140000e-06	-3.115063e-06	-6.065372e-10	-2.166439e+01	-4.189656e+01
1.150000e-06	-3.076273e-06	-6.032327e-10	-2.139461e+01	-4.175295e+01
1.160000e-06	-3.037273e-06	-6.014185e-10	-2.112338e+01	-4.160586e+01
1.170000e-06	-2.998122e-06	-5.965359e-10	-2.085109e+01	-4.145523e+01
1.180000e-06	-2.958791e-06	-5.933286e-10	-2.057756e+01	-4.130098e+01
1.190000e-06	-2.919324e-06	-5.954642e-10	-2.030308e+01	-4.114307e+01
1.200000e-06	-2.879787e-06	-5.981887e-10	-2.002811e+01	-4.098142e+01
1.210000e-06	-2.840051e-06	-5.970047e-10	-1.975175e+01	-4.081601e+01
1.220000e-06	-2.800164e-06	-5.938399e-10	-1.947436e+01	-4.064676e+01
1.230000e-06	-2.760162e-06	-5.868200e-10	-1.919615e+01	-4.047364e+01
1.240000e-06	-2.719999e-06	-5.776733e-10	-1.891683e+01	-4.029661e+01
1.250000e-06	-2.679680e-06	-5.721758e-10	-1.863642e+01	-4.011562e+01
1.260000e-06	-2.639174e-06	-5.724818e-10	-1.835472e+01	-3.993063e+01
1.270000e-06	-2.598371e-06	-5.719829e-10	-1.807094e+01	-3.974160e+01
1.280000e-06	-2.557301e-06	-5.713856e-10	-1.778531e+01	-3.954851e+01
1.290000e-06	-2.515997e-06	-5.700952e-10	-1.749805e+01	-3.935129e+01
1.300000e-06	-2.474288e-06	-5.652160e-10	-1.720798e+01	-3.914993e+01
1.310000e-06	-2.432133e-06	-5.572513e-10	-1.691480e+01	-3.894437e+01
1.320000e-06	-2.389745e-06	-5.526716e-10	-1.662001e+01	-3.873457e+01
1.330000e-06	-2.347106e-06	-5.507885e-10	-1.632346e+01	-3.852048e+01
1.340000e-06	-2.304120e-06	-5.487315e-10	-1.602450e+01	-3.830203e+01
1.350000e-06	-2.260907e-06	-5.467056e-10	-1.572397e+01	-3.807917e+01
1.360000e-06	-2.217505e-06	-5.452073e-10	-1.542212e+01	-3.785182e+01
1.370000e-06	-2.174029e-06	-5.424455e-10	-1.511976e+01	-3.761990e+01
1.380000e-06	-2.130538e-06	-5.376224e-10	-1.481729e+01	-3.738331e+01
1.390000e-06	-2.086919e-06	-5.321082e-10	-1.451394e+01	-3.714195e+01
1.400000e-06	-2.043189e-06	-5.249347e-10	-1.420980e+01	-3.689570e+01
1.410000e-06	-1.999422e-06	-5.179082e-10	-1.390542e+01	-3.664443e+01
1.420000e-06	-1.955570e-06	-5.132137e-10	-1.360044e+01	-3.638800e+01
1.430000e-06	-1.911623e-06	-5.096559e-10	-1.329480e+01	-3.612623e+01
1.440000e-06	-1.867614e-06	-5.052582e-10	-1.298873e+01	-3.585895e+01
1.450000e-06	-1.823497e-06	-5.008183e-10	-1.268191e+01	-3.558597e+01
1.460000e-06	-1.779193e-06	-4.952355e-10	-1.237379e+01	-3.530708e+01
1.470000e-06	-1.734780e-06	-4.895567e-10	-1.206491e+01	-3.502205e+01
1.480000e-06	-1.690309e-06	-4.840261e-10	-1.175563e+01	-3.473062e+01
1.490000e-06	-1.645690e-06	-4.802390e-10	-1.144531e+01	-3.443255e+01
1.500000e-06	-1.600869e-06	-4.775943e-10	-1.113359e+01	-3.412755e+01
1.510000e-06	-1.555889e-06	-4.740943e-10	-1.082077e+01	-3.381534e+01
1.520000e-06	-1.510801e-06	-4.687575e-10	-1.050720e+01	-3.349559e+01
1.530000e-06	-1.465609e-06	-4.625029e-10	-1.019290e+01	-3.316799e+01
1.540000e-06	-1.420342e-06	-4.565335e-10	-9.878077e+00	-3.283221e+01
1.550000e-06	-1.374989e-06	-4.519229e-10	-9.562662e+00	-3.248789e+01
1.560000e-06	-1.329569e-06	-4.474427e-10	-9.246781e+00	-3.213470e+01
1.570000e-06	-1.284033e-06	-4.441743e-10	-8.930087e+00	-3.177225e+01
1.580000e-06	-1.238302e-06	-4.408243e-10	-8.612042e+00	-3.140018e+01
1.590000e-06	-1.192485e-06	-4.341911e-10	-8.293401e+00	-3.101812e+01
1.600000e-06	-1.146674e-06	-4.267607e-10	-7.974792e+00	-3.062570e+01
1.610000e-06	-1.100782e-06	-4.207047e-10	-7.655626e+00	-3.022254e+01
1.620000e-06	-1.054819e-06	-4.132231e-10	-7.335967e+00	-2.980827e+01
1.630000e-06	-1.008766e-06	-4.039937e-10	-7.015681e+00	-2.938252e+01
1.640000e-06	-9.626604e-07	-3.960000e-10	-6.695033e+00	-2.894494e+01
1.650000e-06	-9.165474e-07	-3.905747e-10	-6.374330e+00	-2.849518e+01
1.660000e-06	-8.703390e-07	-3.852714e-10	-6.052963e+00	-2.803291e+01
1.670000e-06	-8.240674e-07	-3.787186e-10	-5.731157e+00	-2.755782e+01
1.680000e-06	-7.777509e-07	-3.734684e-10	-5.409039e+00	-2.706959e+01
1.690000e-06	-7.313467e-07	-3.680987e-10	-5.086311e+00	-2.656797e+01
1.700000e-06	-6.848702e-07	-3.591631e-10	-4.763079e+00	-2.605269e+01
1.710000e-06	-6.383717e-07	-3.496823e-10	-4.439696e+00	-2.552352e+01
1.720000e-06	-5.918103e-07	-3.412146e-10	-4.115874e+00	-2.498028e+01
1.730000e-06	-5.452215e-07	-3.325737e-10	-3.791863e+00	-2.442279e+01
1.740000e-06	-4.986109e-07	-3.251318e-10	-3.467699e+00	-2.385092e+01
1.750000e-06	-4.519787e-07	-3.175510e-10	-3.143385e+00	-2.326457e+01
1.760000e-06	-4.053174e-07	-3.101860e-10	-2.818869e+00	-2.266368e+01
1.770000e-06	-3.586013e-07	-3.036633e-10	-2.493971e+00	-2.204821e+01
1.780000e-06	-3.117935e-07	-2.961336e-10	-2.168436e+00	-2.141820e+01
1.790000e-06	-2.649261e-07	-2.870765e-10	-1.842487e+00	-2.077368e+01
1.800000e-06	-2.181400e-07	-2.782479e-10	-1.517102e+00	-2.011476e+01
1.810000e-06	-1.714361e-07	-2.690220e-10	-1.192290e+00	-1.944157e+01
1.820000e-06	-1.246823e-07	-2.593670e-10	-8.671302e-01	-1.875429e+01
1.830000e-06	-7.785020e-08	-2.486453e-10	-5.414262e-01	-1.805315e+01
1.840000e-06	-3.106409e-08	-2.369226e-10	-2.160420e-01	-1.733840e+01
1.850000e-06	1.563172e-08	-2.260658e-10	1.087142e-01	-1.661035e+01
1.860000e-06	6.232597e-08	-2.170757e-10	4.334596e-01	-1.586935e+01
1.870000e-06	1.090245e-07	-2.065037e-10	7.582347e-01	-1.511579e+01
1.880000e-06	1.557548e-07	-1.944773e-10	1.083231e+00	-1.435008e+01
1.890000e-06	2.025447e-07	-1.836816e-10	1.408642e+00	-1.357269e+01
1.900000e-06	2.493263e-07	-1.743411e-10	1.733994e+00	-1.278412e+01
1.910000e-06	2.960831e-07	-1.654533e-10	2.059175e+00	-1.198489e+01
1.920000e-06	3.427973e-07	-1.553645e-10	2.384059e+00	-1.117558e+01
1.930000e-06	3.895495e-07	-1.414319e-10	2.709207e+00	-1.035677e+01
1.940000e-06	4.362919e-07	-1.257082e-10	3.034287e+00	-9.529091e+00
1.950000e-06	4.829188e-07	-1.118146e-10	3.358564e+00	-8.693181e+00
1.960000e-06	5.294218e-07	-9.962200e-11	3.681980e+00	-7.849711e+00
1.970000e-06	5.759187e-07	-9.073303e-11	4.005353e+00	-6.999369e+00
1.980000e-06	6.223700e-07	-8.200488e-11	4.328408e+00	-6.142861e+00
1.990000e-06	6.686884e-07	-7.295394e-11	4.650540e+00	-5.280904e+00
2.000000e-06	7.149604e-07	-6.512092e-11	4.972349e+00	-4.414230e+00
2.010000e-06	7.612002e-07	-5.221017e-11	5.293933e+00	-3.543578e+00
2.020000e-06	8.073762e-07	-3.761639e-11	5.615075e+00	-2.669691e+00
2.030000e-06	8.535194e-07	-2.173677e-11	5.935987e+00	-1.793318e+00
2.040000e-06	8.996646e-07	-4.092173e-12	6.256915e+00	-9.152065e-01
2.050000e-06	9.457283e-07	1.022709e-11	6.577275e+00	-3.610004e-02
2.060000e-06	9.917540e-07	2.230080e-11	6.897370e+00	8.432616e-01
2.070000e-06	1.037766e-06	3.120803e-11	7.217371e+00	1.722147e+00
2.080000e-06	1.083607e-06	3.990323e-11	7.536179e+00	2.599835e+00
2.090000e-06	1.129325e-06	4.953903e-11	7.854138e+00	3.475616e+00
2.100000e-06	1.175020e-06	6.267432e-11	8.171932e+00	4.348798e+00
2.110000e-06	1.220647e-06	7.753161e-11	8.489260e+00	5.218702e+00
2.120000e-06	1.266169e-06	9.242236e-11	8.805848e+00	6.084671e+00
2.130000e-06	1.311529e-06	1.059404e-10	9.121312e+00	6.946064e+00
2.140000e-06	1.356795e-06	1.176388e-10	9.436130e+00	7.802267e+00
2.150000e-06	1.402068e-06	1.266576e-10	9.750988e+00	8.652684e+00
2.160000e-06	1.447256e-06	1.344149e-10	1.006526e+01	9.496746e+00
2.170000e-06	1.492270e-06	1.443787e-10	1.037832e+01	1.033391e+01
2.180000e-06	1.537175e-06	1.548356e-10	1.069062e+01	1.116365e+01
2.190000e-06	1.581978e-06	1.672219e-10	1.100221e+01	1.198548e+01
2.200000e-06	1.626644e-06	1.821362e-10	1.131285e+01	1.279894e+01
2.210000e-06	1.671167e-06	1.960459e-10	1.162250e+01	1.360358e+01
2.220000e-06	1.715648e-06	2.073071e-10	1.193185e+01	1.439900e+01
2.230000e-06	1.760101e-06	2.154548e-10	1.224101e+01	1.518480e+01
2.240000e-06	1.804385e-06	2.236727e-10	1.254899e+01	1.596064e+01
2.250000e-06	1.848512e-06	2.325272e-10	1.285588e+01	1.672618e+01
2.260000e-06	1.892501e-06	2.430345e-10	1.316181e+01	1.748113e+01
2.270000e-06	1.936399e-06	2.554249e-10	1.346711e+01	1.822519e+01
2.280000e-06	1.980233e-06	2.663733e-10	1.377197e+01	1.895813e+01
2.290000e-06	2.023950e-06	2.757276e-10	1.407601e+01	1.967971e+01
2.300000e-06	2.067625e-06	2.843641e-10	1.437975e+01	2.038973e+01
2.310000e-06	2.111290e-06	2.926130e-10	1.468343e+01	2.108801e+01
2.320000e-06	2.154856e-06	3.012522e-10	1.498642e+01	2.177438e+01
2.330000e-06	2.198339e-06	3.131680e-10	1.528883e+01	2.244872e+01
2.340000e-06	2.241708e-06	3.258722e-10	1.559045e+01	2.311091e+01
2.350000e-06	2.284829e-06	3.359494e-10	1.589034e+01	2.376085e+01
2.360000e-06	2.327713e-06	3.437982e-10	1.618859e+01	2.439846e+01
2.370000e-06	2.370468e-06	3.509619e-10	1.648594e+01	2.502368e+01
2.380000e-06	2.413009e-06	3.564051e-10	1.678180e+01	2.563648e+01
2.390000e-06	2.455173e-06	3.630252e-10	1.707504e+01	2.623682e+01
2.400000e-06	2.496986e-06	3.715842e-10	1.736584e+01	2.682469e+01
2.410000e-06	2.538528e-06	3.820452e-10	1.765475e+01	2.740009e+01
2.420000e-06	2.579734e-06	3.927025e-10	1.794132e+01	2.796305e+01
2.430000e-06	2.620628e-06	4.020182e-10	1.822573e+01	2.851360e+01
2.440000e-06	2.661267e-06	4.099951e-10	1.850837e+01	2.905177e+01
2.450000e-06	2.701614e-06	4.155438e-10	1.878896e+01	2.957764e+01
2.460000e-06	2.741778e-06	4.196122e-10	1.906829e+01	3.009125e+01
2.470000e-06	2.781844e-06	4.247573e-10	1.934694e+01	3.059270e+01
2.480000e-06	2.821737e-06	4.315105e-10	1.962439e+01	3.108208e+01
2.490000e-06	2.861526e-06	4.375091e-10	1.990111e+01	3.155947e+01
2.500000e-06	2.901241e-06	4.432564e-10	2.017731e+01	3.202501e+01
2.510000e-06	2.940774e-06	4.507269e-10	2.045226e+01	3.247880e+01
2.520000e-06	2.980188e-06	4.579897e-10	2.072637e+01	3.292097e+01
2.530000e-06	3.019434e-06	4.661904e-10	2.099932e+01	3.335167e+01
2.540000e-06	3.058393e-06	4.731366e-10	2.127026e+01	3.377105e+01
2.550000e-06	3.097136e-06	4.786853e-10	2.153971e+01	3.417926e+01
2.560000e-06	3.135710e-06	4.822162e-10	2.180798e+01	3.457646e+01
2.570000e-06	3.174033e-06	4.860186e-10	2.207451e+01	3.496283e+01
2.580000e-06	3.212100e-06	4.925596e-10	2.233926e+01	3.533855e+01
2.590000e-06	3.249999e-06	4.998762e-10	2.260283e+01	3.570381e+01
2.600000e-06	3.287723e-06	5.062191e-10	2.286519e+01	3.605881e+01
2.610000e-06	3.325190e-06	5.084602e-10	2.312576e+01	3.640375e+01
2.620000e-06	3.362343e-06	5.113968e-10	2.338415e+01	3.673883e+01
2.630000e-06	3.399265e-06	5.172863e-10	2.364093e+01	3.706428e+01
2.640000e-06	3.435956e-06	5.249026e-10	2.389611e+01	3.738030e+01
2.650000e-06	3.472385e-06	5.309514e-10	2.414946e+01	3.768714e+01
2.660000e-06	3.508641e-06	5.364415e-10	2.440162e+01	3.798502e+01
2.670000e-06	3.544700e-06	5.401370e-10	2.465239e+01	3.827417e+01
2.680000e-06	3.580554e-06	5.405567e-10	2.490175e+01	3.855483e+01
2.690000e-06	3.616296e-06	5.403376e-10	2.515032e+01	3.882724e+01
2.700000e-06	3.651919e-06	5.397726e-10	2.539807e+01	3.909163e+01
2.710000e-06	3.687355e-06	5.429057e-10	2.564452e+01	3.934826e+01
2.720000e-06	3.722596e-06	5.511729e-10	2.588961e+01	3.959737e+01
2.730000e-06	3.757629e-06	5.582630e-10	2.613325e+01	3.983918e+01
2.740000e-06	3.792226e-06	5.640045e-10	2.637386e+01	4.007396e+01
2.750000e-06	3.826284e-06	5.671244e-10	2.661073e+01	4.030193e+01
2.760000e-06	3.859851e-06	5.683557e-10	2.684418e+01	4.052332e+01
2.770000e-06	3.892872e-06	5.698789e-10	2.707383e+01	4.073837e+01
2.780000e-06	3.925472e-06	5.711735e-10	2.730055e+01	4.094730e+01
2.790000e-06	3.957727e-06	5.760434e-10	2.752488e+01	4.115034e+01
2.800000e-06	3.989715e-06	5.819756e-10	2.774735e+01	4.134769e+01
2.810000e-06	4.021583e-06	5.861698e-10	2.796898e+01	4.153956e+01
2.820000e-06	4.053325e-06	5.888094e-10	2.818973e+01	4.172615e+01
2.830000e-06	4.084888e-06	5.894097e-10	2.840925e+01	4.190764e+01
2.840000e-06	4.116196e-06	5.902992e-10	2.862699e+01	4.208423e+01
2.850000e-06	4.147226e-06	5.902033e-10	2.884279e+01	4.225607e+01
2.860000e-06	4.177964e-06	5.931843e-10	2.905657e+01	4.242333e+01
2.870000e-06	4.208408e-06	5.963588e-10	2.926829e+01	4.258615e+01
2.880000e-06	4.238524e-06	5.985725e-10	2.947774e+01	4.274469e+01
2.890000e-06	4.268299e-06	6.000770e-10	2.968482e+01	4.289906e+01
2.900000e-06	4.297793e-06	5.994298e-10	2.988994e+01	4.304938e+01
