# Temperatura_=_14.3
# Concentracion g/m^3_=_1620.0
# C_Vs_to_Am_M_A/Vsm_=_65563218390.804596
# pendiente_HvsI_1/m_=_3716.3
# ordenada_HvsI_A/m_=_1297.0
# frecuencia_Hz_=_135106.35891417394

Tiempo_(s)	Campo_(V.s)	Magnetizacion_(V.s)	Campo_(kA/m)	Magnetizacion_(A/m)
0.000000e+00	-5.511178e-06	-1.117517e-09	-3.836080e+01	-7.236476e+01
1.000000e-08	-5.511316e-06	-1.115139e-09	-3.836176e+01	-7.232124e+01
2.000000e-08	-5.511085e-06	-1.111594e-09	-3.836015e+01	-7.227523e+01
3.000000e-08	-5.510355e-06	-1.107258e-09	-3.835507e+01	-7.222671e+01
4.000000e-08	-5.509041e-06	-1.103862e-09	-3.834592e+01	-7.217561e+01
5.000000e-08	-5.507262e-06	-1.105070e-09	-3.833354e+01	-7.212190e+01
6.000000e-08	-5.505013e-06	-1.116583e-09	-3.831789e+01	-7.206555e+01
7.000000e-08	-5.502210e-06	-1.154063e-09	-3.829838e+01	-7.200654e+01
8.000000e-08	-5.498925e-06	-1.149878e-09	-3.827551e+01	-7.194485e+01
9.000000e-08	-5.495146e-06	-1.048528e-09	-3.824921e+01	-7.188047e+01
1.000000e-07	-5.490961e-06	-9.947017e-10	-3.822008e+01	-7.181342e+01
1.100000e-07	-5.486556e-06	-1.097820e-09	-3.818942e+01	-7.174371e+01
1.200000e-07	-5.481902e-06	-1.194234e-09	-3.815703e+01	-7.167135e+01
1.300000e-07	-5.476829e-06	-1.143772e-09	-3.812172e+01	-7.159639e+01
1.400000e-07	-5.471355e-06	-1.030815e-09	-3.808361e+01	-7.151886e+01
1.500000e-07	-5.465630e-06	-1.103045e-09	-3.804376e+01	-7.143882e+01
1.600000e-07	-5.459597e-06	-1.168540e-09	-3.800177e+01	-7.135631e+01
1.700000e-07	-5.453073e-06	-1.120290e-09	-3.795636e+01	-7.127141e+01
1.800000e-07	-5.446143e-06	-9.961993e-10	-3.790812e+01	-7.118418e+01
1.900000e-07	-5.438962e-06	-1.042678e-09	-3.785814e+01	-7.109469e+01
2.000000e-07	-5.431487e-06	-1.124794e-09	-3.780611e+01	-7.100303e+01
2.100000e-07	-5.423716e-06	-1.130648e-09	-3.775202e+01	-7.090927e+01
2.200000e-07	-5.415602e-06	-1.043688e-09	-3.769554e+01	-7.081348e+01
2.300000e-07	-5.407088e-06	-1.025887e-09	-3.763628e+01	-7.071576e+01
2.400000e-07	-5.397952e-06	-1.051395e-09	-3.757269e+01	-7.061616e+01
2.500000e-07	-5.388109e-06	-1.054834e-09	-3.750417e+01	-7.051478e+01
2.600000e-07	-5.377780e-06	-1.044698e-09	-3.743228e+01	-7.041166e+01
2.700000e-07	-5.366957e-06	-1.046988e-09	-3.735694e+01	-7.030688e+01
2.800000e-07	-5.355645e-06	-1.062385e-09	-3.727821e+01	-7.020050e+01
2.900000e-07	-5.343999e-06	-1.043412e-09	-3.719714e+01	-7.009254e+01
3.000000e-07	-5.332018e-06	-1.040372e-09	-3.711375e+01	-6.998306e+01
3.100000e-07	-5.319598e-06	-1.023501e-09	-3.702730e+01	-6.987208e+01
3.200000e-07	-5.306755e-06	-1.055068e-09	-3.693790e+01	-6.975961e+01
3.300000e-07	-5.293569e-06	-1.036404e-09	-3.684612e+01	-6.964565e+01
3.400000e-07	-5.280022e-06	-1.028528e-09	-3.675183e+01	-6.953019e+01
3.500000e-07	-5.266024e-06	-1.014155e-09	-3.665439e+01	-6.941321e+01
3.600000e-07	-5.251539e-06	-1.047742e-09	-3.655357e+01	-6.929468e+01
3.700000e-07	-5.236437e-06	-1.012419e-09	-3.644846e+01	-6.917454e+01
3.800000e-07	-5.220820e-06	-1.016671e-09	-3.633975e+01	-6.905272e+01
3.900000e-07	-5.204818e-06	-1.042694e-09	-3.622837e+01	-6.892917e+01
4.000000e-07	-5.188336e-06	-1.040935e-09	-3.611364e+01	-6.880378e+01
4.100000e-07	-5.171463e-06	-9.849419e-10	-3.599620e+01	-6.867646e+01
4.200000e-07	-5.154352e-06	-1.025518e-09	-3.587710e+01	-6.854711e+01
4.300000e-07	-5.136956e-06	-1.053534e-09	-3.575601e+01	-6.841560e+01
4.400000e-07	-5.119184e-06	-9.950735e-10	-3.563231e+01	-6.828181e+01
4.500000e-07	-5.100948e-06	-9.698189e-10	-3.550538e+01	-6.814562e+01
4.600000e-07	-5.082340e-06	-1.039292e-09	-3.537585e+01	-6.800687e+01
4.700000e-07	-5.063468e-06	-1.028080e-09	-3.524449e+01	-6.786545e+01
4.800000e-07	-5.044299e-06	-9.804368e-10	-3.511107e+01	-6.772119e+01
4.900000e-07	-5.024918e-06	-1.011317e-09	-3.497617e+01	-6.757397e+01
5.000000e-07	-5.005302e-06	-1.021176e-09	-3.483963e+01	-6.742364e+01
5.100000e-07	-4.985343e-06	-9.696054e-10	-3.470070e+01	-6.727007e+01
5.200000e-07	-4.965030e-06	-9.886545e-10	-3.455931e+01	-6.711313e+01
5.300000e-07	-4.944382e-06	-1.022685e-09	-3.441559e+01	-6.695269e+01
5.400000e-07	-4.923397e-06	-9.636383e-10	-3.426953e+01	-6.678864e+01
5.500000e-07	-4.902044e-06	-9.509898e-10	-3.412089e+01	-6.662088e+01
5.600000e-07	-4.880304e-06	-1.002983e-09	-3.396957e+01	-6.644932e+01
5.700000e-07	-4.858241e-06	-9.884302e-10	-3.381600e+01	-6.627387e+01
5.800000e-07	-4.835896e-06	-9.442540e-10	-3.366047e+01	-6.609446e+01
5.900000e-07	-4.813166e-06	-9.815316e-10	-3.350226e+01	-6.591106e+01
6.000000e-07	-4.790023e-06	-9.866536e-10	-3.334117e+01	-6.572363e+01
6.100000e-07	-4.766608e-06	-9.502131e-10	-3.317819e+01	-6.553215e+01
6.200000e-07	-4.743053e-06	-9.540466e-10	-3.301423e+01	-6.533661e+01
6.300000e-07	-4.719351e-06	-9.765733e-10	-3.284926e+01	-6.513705e+01
6.400000e-07	-4.695256e-06	-9.438897e-10	-3.268154e+01	-6.493348e+01
6.500000e-07	-4.670707e-06	-9.451838e-10	-3.251066e+01	-6.472598e+01
6.600000e-07	-4.645814e-06	-9.630681e-10	-3.233740e+01	-6.451459e+01
6.700000e-07	-4.620387e-06	-9.529187e-10	-3.216041e+01	-6.429942e+01
6.800000e-07	-4.594331e-06	-9.345227e-10	-3.197904e+01	-6.408055e+01
6.900000e-07	-4.567847e-06	-9.548211e-10	-3.179470e+01	-6.385810e+01
7.000000e-07	-4.541033e-06	-9.443437e-10	-3.160806e+01	-6.363219e+01
7.100000e-07	-4.513888e-06	-9.264704e-10	-3.141912e+01	-6.340296e+01
7.200000e-07	-4.486504e-06	-9.290513e-10	-3.122851e+01	-6.317056e+01
7.300000e-07	-4.458920e-06	-9.341962e-10	-3.103651e+01	-6.293512e+01
7.400000e-07	-4.431073e-06	-9.147713e-10	-3.084268e+01	-6.269683e+01
7.500000e-07	-4.402917e-06	-9.149157e-10	-3.064670e+01	-6.245582e+01
7.600000e-07	-4.374406e-06	-9.211024e-10	-3.044825e+01	-6.221226e+01
7.700000e-07	-4.345570e-06	-9.122042e-10	-3.024753e+01	-6.196631e+01
7.800000e-07	-4.316437e-06	-9.062436e-10	-3.004476e+01	-6.171812e+01
7.900000e-07	-4.287062e-06	-9.107711e-10	-2.984029e+01	-6.146784e+01
8.000000e-07	-4.257472e-06	-8.994860e-10	-2.963433e+01	-6.121561e+01
8.100000e-07	-4.227550e-06	-8.852319e-10	-2.942605e+01	-6.096156e+01
8.200000e-07	-4.197227e-06	-8.866804e-10	-2.921499e+01	-6.070581e+01
8.300000e-07	-4.166577e-06	-8.802313e-10	-2.900164e+01	-6.044845e+01
8.400000e-07	-4.135656e-06	-8.683141e-10	-2.878642e+01	-6.018958e+01
8.500000e-07	-4.104489e-06	-8.680177e-10	-2.856948e+01	-5.992926e+01
8.600000e-07	-4.073131e-06	-8.711738e-10	-2.835121e+01	-5.966754e+01
8.700000e-07	-4.041579e-06	-8.602249e-10	-2.813159e+01	-5.940444e+01
8.800000e-07	-4.009874e-06	-8.592604e-10	-2.791091e+01	-5.913997e+01
8.900000e-07	-3.978012e-06	-8.574434e-10	-2.768913e+01	-5.887411e+01
9.000000e-07	-3.945893e-06	-8.485751e-10	-2.746556e+01	-5.860683e+01
9.100000e-07	-3.913518e-06	-8.389149e-10	-2.724022e+01	-5.833805e+01
9.200000e-07	-3.880850e-06	-8.416887e-10	-2.701283e+01	-5.806770e+01
9.300000e-07	-3.847696e-06	-8.317741e-10	-2.678206e+01	-5.779566e+01
9.400000e-07	-3.814068e-06	-8.221932e-10	-2.654799e+01	-5.752180e+01
9.500000e-07	-3.779970e-06	-8.199602e-10	-2.631065e+01	-5.724598e+01
9.600000e-07	-3.745385e-06	-8.218772e-10	-2.606992e+01	-5.696802e+01
9.700000e-07	-3.710496e-06	-8.148796e-10	-2.582707e+01	-5.668773e+01
9.800000e-07	-3.675364e-06	-8.173632e-10	-2.558253e+01	-5.640490e+01
9.900000e-07	-3.639999e-06	-8.170535e-10	-2.533638e+01	-5.611932e+01
1.000000e-06	-3.604496e-06	-8.090247e-10	-2.508926e+01	-5.583076e+01
1.010000e-06	-3.568879e-06	-8.014987e-10	-2.484134e+01	-5.553897e+01
1.020000e-06	-3.533042e-06	-8.007010e-10	-2.459190e+01	-5.524370e+01
1.030000e-06	-3.496920e-06	-7.911551e-10	-2.434047e+01	-5.494471e+01
1.040000e-06	-3.460629e-06	-7.843106e-10	-2.408786e+01	-5.464174e+01
1.050000e-06	-3.424156e-06	-7.859711e-10	-2.383399e+01	-5.433453e+01
1.060000e-06	-3.387315e-06	-7.851534e-10	-2.357756e+01	-5.402283e+01
1.070000e-06	-3.350177e-06	-7.758168e-10	-2.331905e+01	-5.370641e+01
1.080000e-06	-3.312876e-06	-7.708108e-10	-2.305942e+01	-5.338503e+01
1.090000e-06	-3.275380e-06	-7.663107e-10	-2.279843e+01	-5.305847e+01
1.100000e-06	-3.237632e-06	-7.559124e-10	-2.253568e+01	-5.272653e+01
1.110000e-06	-3.199666e-06	-7.519821e-10	-2.227142e+01	-5.238902e+01
1.120000e-06	-3.161486e-06	-7.518425e-10	-2.200567e+01	-5.204576e+01
1.130000e-06	-3.123070e-06	-7.451515e-10	-2.173827e+01	-5.169662e+01
1.140000e-06	-3.084421e-06	-7.345144e-10	-2.146925e+01	-5.134146e+01
1.150000e-06	-3.045581e-06	-7.296258e-10	-2.119891e+01	-5.098020e+01
1.160000e-06	-3.006540e-06	-7.241062e-10	-2.092716e+01	-5.061275e+01
1.170000e-06	-2.967263e-06	-7.185202e-10	-2.065377e+01	-5.023907e+01
1.180000e-06	-2.927843e-06	-7.159154e-10	-2.037938e+01	-4.985914e+01
1.190000e-06	-2.888328e-06	-7.151604e-10	-2.010434e+01	-4.947296e+01
1.200000e-06	-2.848695e-06	-7.080086e-10	-1.982847e+01	-4.908057e+01
1.210000e-06	-2.808905e-06	-7.016770e-10	-1.955151e+01	-4.868202e+01
1.220000e-06	-2.769025e-06	-6.947277e-10	-1.927392e+01	-4.827740e+01
1.230000e-06	-2.729020e-06	-6.868594e-10	-1.899547e+01	-4.786680e+01
1.240000e-06	-2.688766e-06	-6.766294e-10	-1.871527e+01	-4.745037e+01
1.250000e-06	-2.648219e-06	-6.731767e-10	-1.843305e+01	-4.702823e+01
1.260000e-06	-2.607372e-06	-6.691076e-10	-1.814873e+01	-4.660056e+01
1.270000e-06	-2.566317e-06	-6.643975e-10	-1.786296e+01	-4.616751e+01
1.280000e-06	-2.525037e-06	-6.600356e-10	-1.757563e+01	-4.572928e+01
1.290000e-06	-2.483450e-06	-6.558579e-10	-1.728617e+01	-4.528605e+01
1.300000e-06	-2.441591e-06	-6.452542e-10	-1.699481e+01	-4.483802e+01
1.310000e-06	-2.399371e-06	-6.339509e-10	-1.670093e+01	-4.438536e+01
1.320000e-06	-2.356799e-06	-6.242522e-10	-1.640460e+01	-4.392827e+01
1.330000e-06	-2.314020e-06	-6.164452e-10	-1.610684e+01	-4.346691e+01
1.340000e-06	-2.271099e-06	-6.104263e-10	-1.580809e+01	-4.300144e+01
1.350000e-06	-2.227961e-06	-6.069328e-10	-1.550782e+01	-4.253201e+01
1.360000e-06	-2.184587e-06	-6.031013e-10	-1.520591e+01	-4.205872e+01
1.370000e-06	-2.141140e-06	-5.975514e-10	-1.490350e+01	-4.158167e+01
1.380000e-06	-2.097668e-06	-5.895076e-10	-1.460091e+01	-4.110092e+01
1.390000e-06	-2.054097e-06	-5.792108e-10	-1.429764e+01	-4.061648e+01
1.400000e-06	-2.010451e-06	-5.682017e-10	-1.399383e+01	-4.012834e+01
1.410000e-06	-1.966733e-06	-5.580496e-10	-1.368953e+01	-3.963644e+01
1.420000e-06	-1.922854e-06	-5.527852e-10	-1.338411e+01	-3.914069e+01
1.430000e-06	-1.878838e-06	-5.474234e-10	-1.307774e+01	-3.864094e+01
1.440000e-06	-1.834747e-06	-5.403409e-10	-1.277084e+01	-3.813697e+01
1.450000e-06	-1.790519e-06	-5.325303e-10	-1.246299e+01	-3.762856e+01
1.460000e-06	-1.746163e-06	-5.257404e-10	-1.215425e+01	-3.711539e+01
1.470000e-06	-1.701740e-06	-5.182304e-10	-1.184504e+01	-3.659711e+01
1.480000e-06	-1.657217e-06	-5.114568e-10	-1.153514e+01	-3.607332e+01
1.490000e-06	-1.612535e-06	-5.039385e-10	-1.122412e+01	-3.554356e+01
1.500000e-06	-1.567624e-06	-4.970239e-10	-1.091151e+01	-3.500731e+01
1.510000e-06	-1.522550e-06	-4.883792e-10	-1.059777e+01	-3.446403e+01
1.520000e-06	-1.477362e-06	-4.803147e-10	-1.028324e+01	-3.391310e+01
1.530000e-06	-1.432078e-06	-4.715412e-10	-9.968046e+00	-3.335388e+01
1.540000e-06	-1.386730e-06	-4.624516e-10	-9.652394e+00	-3.278568e+01
1.550000e-06	-1.341249e-06	-4.526746e-10	-9.335823e+00	-3.220777e+01
1.560000e-06	-1.295701e-06	-4.431260e-10	-9.018784e+00	-3.161938e+01
1.570000e-06	-1.250190e-06	-4.335297e-10	-8.702000e+00	-3.101975e+01
1.580000e-06	-1.204626e-06	-4.247647e-10	-8.384850e+00	-3.040805e+01
1.590000e-06	-1.158922e-06	-4.162711e-10	-8.066727e+00	-2.978346e+01
1.600000e-06	-1.113156e-06	-4.077602e-10	-7.748174e+00	-2.914516e+01
1.610000e-06	-1.067364e-06	-3.956373e-10	-7.429434e+00	-2.849230e+01
1.620000e-06	-1.021459e-06	-3.816361e-10	-7.109910e+00	-2.782406e+01
1.630000e-06	-9.754476e-07	-3.673663e-10	-6.789647e+00	-2.713960e+01
1.640000e-06	-9.293736e-07	-3.533104e-10	-6.468946e+00	-2.643814e+01
1.650000e-06	-8.832350e-07	-3.413011e-10	-6.147797e+00	-2.571890e+01
1.660000e-06	-8.369477e-07	-3.322118e-10	-5.825612e+00	-2.498112e+01
1.670000e-06	-7.906019e-07	-3.253437e-10	-5.503019e+00	-2.422411e+01
1.680000e-06	-7.443600e-07	-3.171265e-10	-5.181151e+00	-2.344721e+01
1.690000e-06	-6.981071e-07	-3.071904e-10	-4.859206e+00	-2.264982e+01
1.700000e-06	-6.517371e-07	-2.959024e-10	-4.536445e+00	-2.183140e+01
1.710000e-06	-6.052681e-07	-2.818638e-10	-4.212996e+00	-2.099148e+01
1.720000e-06	-5.587468e-07	-2.662198e-10	-3.889182e+00	-2.012965e+01
1.730000e-06	-5.121480e-07	-2.508449e-10	-3.564829e+00	-1.924560e+01
1.740000e-06	-4.655207e-07	-2.351548e-10	-3.240278e+00	-1.833910e+01
1.750000e-06	-4.189019e-07	-2.207673e-10	-2.915786e+00	-1.740999e+01
1.760000e-06	-3.721920e-07	-2.069904e-10	-2.590659e+00	-1.645823e+01
1.770000e-06	-3.254637e-07	-1.936886e-10	-2.265405e+00	-1.548386e+01
1.780000e-06	-2.786849e-07	-1.799696e-10	-1.939799e+00	-1.448703e+01
1.790000e-06	-2.318960e-07	-1.678616e-10	-1.614123e+00	-1.346798e+01
1.800000e-06	-1.851570e-07	-1.551959e-10	-1.288793e+00	-1.242705e+01
1.810000e-06	-1.383737e-07	-1.401506e-10	-9.631561e-01	-1.136471e+01
1.820000e-06	-9.158406e-08	-1.214587e-10	-6.374749e-01	-1.028150e+01
1.830000e-06	-4.478466e-08	-1.017393e-10	-3.117256e-01	-9.178079e+00
1.840000e-06	2.012936e-09	-8.419745e-11	1.401113e-02	-8.055206e+00
1.850000e-06	4.881761e-08	-6.921030e-11	3.397971e-01	-6.913733e+00
1.860000e-06	9.563921e-08	-5.303123e-11	6.657010e-01	-5.754610e+00
1.870000e-06	1.424473e-07	-3.633981e-11	9.915105e-01	-4.578874e+00
1.880000e-06	1.893007e-07	-2.249036e-11	1.317636e+00	-3.387652e+00
1.890000e-06	2.361675e-07	-8.058128e-12	1.643854e+00	-2.182147e+00
1.900000e-06	2.829847e-07	9.540931e-12	1.969728e+00	-9.636404e-01
1.910000e-06	3.297099e-07	2.808105e-11	2.294960e+00	2.665213e-01
1.920000e-06	3.764326e-07	4.783255e-11	2.620176e+00	1.506929e+00
1.930000e-06	4.231837e-07	6.811092e-11	2.945589e+00	2.756122e+00
1.940000e-06	4.698275e-07	8.775642e-11	3.270255e+00	4.012590e+00
1.950000e-06	5.163615e-07	1.058975e-10	3.594157e+00	5.274791e+00
1.960000e-06	5.628612e-07	1.230043e-10	3.917820e+00	6.541149e+00
1.970000e-06	6.093589e-07	1.403732e-10	4.241470e+00	7.810070e+00
1.980000e-06	6.557758e-07	1.569678e-10	4.564557e+00	9.079949e+00
1.990000e-06	7.021403e-07	1.724425e-10	4.887279e+00	1.034918e+01
2.000000e-06	7.484403e-07	1.887131e-10	5.209552e+00	1.161615e+01
2.010000e-06	7.946036e-07	2.058924e-10	5.530874e+00	1.287929e+01
2.020000e-06	8.406926e-07	2.253057e-10	5.851678e+00	1.413702e+01
2.030000e-06	8.867984e-07	2.487398e-10	6.172600e+00	1.538782e+01
2.040000e-06	9.329320e-07	2.711173e-10	6.493715e+00	1.663019e+01
2.050000e-06	9.789601e-07	2.899955e-10	6.814096e+00	1.786269e+01
2.060000e-06	1.024843e-06	3.056163e-10	7.133465e+00	1.908393e+01
2.070000e-06	1.070659e-06	3.197843e-10	7.452370e+00	2.029258e+01
2.080000e-06	1.116474e-06	3.336036e-10	7.771269e+00	2.148738e+01
2.090000e-06	1.162223e-06	3.496897e-10	8.089706e+00	2.266714e+01
2.100000e-06	1.207823e-06	3.676323e-10	8.407105e+00	2.383075e+01
2.110000e-06	1.253390e-06	3.863780e-10	8.724280e+00	2.497720e+01
2.120000e-06	1.299007e-06	4.040773e-10	9.041798e+00	2.610554e+01
2.130000e-06	1.344517e-06	4.201348e-10	9.358570e+00	2.721492e+01
2.140000e-06	1.389866e-06	4.347726e-10	9.674222e+00	2.830458e+01
2.150000e-06	1.435118e-06	4.489305e-10	9.989204e+00	2.937386e+01
2.160000e-06	1.480193e-06	4.632788e-10	1.030295e+01	3.042219e+01
2.170000e-06	1.525106e-06	4.775661e-10	1.061557e+01	3.144910e+01
2.180000e-06	1.569938e-06	4.905572e-10	1.092762e+01	3.245421e+01
2.190000e-06	1.614651e-06	5.033824e-10	1.123885e+01	3.343723e+01
2.200000e-06	1.659227e-06	5.160338e-10	1.154912e+01	3.439796e+01
2.210000e-06	1.703748e-06	5.272475e-10	1.185901e+01	3.533631e+01
2.220000e-06	1.748130e-06	5.387008e-10	1.216794e+01	3.625223e+01
2.230000e-06	1.792365e-06	5.530699e-10	1.247584e+01	3.714581e+01
2.240000e-06	1.836495e-06	5.693311e-10	1.278300e+01	3.801717e+01
2.250000e-06	1.880461e-06	5.838446e-10	1.308903e+01	3.886652e+01
2.260000e-06	1.924326e-06	5.958011e-10	1.339436e+01	3.969416e+01
2.270000e-06	1.968116e-06	6.024788e-10	1.369916e+01	4.050042e+01
2.280000e-06	2.011836e-06	6.089479e-10	1.400347e+01	4.128570e+01
2.290000e-06	2.055498e-06	6.169711e-10	1.430739e+01	4.205046e+01
2.300000e-06	2.099093e-06	6.246485e-10	1.461083e+01	4.279519e+01
2.310000e-06	2.142595e-06	6.349126e-10	1.491363e+01	4.352043e+01
2.320000e-06	2.185973e-06	6.480890e-10	1.521556e+01	4.422676e+01
2.330000e-06	2.229306e-06	6.604105e-10	1.551719e+01	4.491477e+01
2.340000e-06	2.272588e-06	6.712972e-10	1.581845e+01	4.558508e+01
2.350000e-06	2.315663e-06	6.814585e-10	1.611828e+01	4.623833e+01
2.360000e-06	2.358432e-06	6.904707e-10	1.641597e+01	4.687516e+01
2.370000e-06	2.400926e-06	6.968570e-10	1.671176e+01	4.749621e+01
2.380000e-06	2.443096e-06	7.044557e-10	1.700528e+01	4.810214e+01
2.390000e-06	2.484873e-06	7.126874e-10	1.729607e+01	4.869358e+01
2.400000e-06	2.526291e-06	7.196173e-10	1.758436e+01	4.927115e+01
2.410000e-06	2.567430e-06	7.277239e-10	1.787071e+01	4.983547e+01
2.420000e-06	2.608263e-06	7.376276e-10	1.815493e+01	5.038714e+01
2.430000e-06	2.648801e-06	7.478890e-10	1.843710e+01	5.092671e+01
2.440000e-06	2.689264e-06	7.564548e-10	1.871875e+01	5.145473e+01
2.450000e-06	2.729583e-06	7.648144e-10	1.899938e+01	5.197171e+01
2.460000e-06	2.769619e-06	7.717125e-10	1.927806e+01	5.247813e+01
2.470000e-06	2.809478e-06	7.768378e-10	1.955550e+01	5.297445e+01
2.480000e-06	2.849203e-06	7.813663e-10	1.983201e+01	5.346108e+01
2.490000e-06	2.888804e-06	7.853118e-10	2.010765e+01	5.393839e+01
2.500000e-06	2.928303e-06	7.919048e-10	2.038259e+01	5.440674e+01
2.510000e-06	2.967631e-06	8.000993e-10	2.065633e+01	5.486643e+01
2.520000e-06	3.006729e-06	8.090538e-10	2.092847e+01	5.531774e+01
2.530000e-06	3.045642e-06	8.184518e-10	2.119933e+01	5.576092e+01
2.540000e-06	3.084407e-06	8.278609e-10	2.146915e+01	5.619618e+01
2.550000e-06	3.122981e-06	8.358056e-10	2.173765e+01	5.662369e+01
2.560000e-06	3.161302e-06	8.388589e-10	2.200439e+01	5.704362e+01
2.570000e-06	3.199291e-06	8.418516e-10	2.226881e+01	5.745608e+01
2.580000e-06	3.237083e-06	8.459609e-10	2.253186e+01	5.786118e+01
2.590000e-06	3.274719e-06	8.508777e-10	2.279383e+01	5.825901e+01
2.600000e-06	3.312157e-06	8.551240e-10	2.305442e+01	5.864962e+01
2.610000e-06	3.349396e-06	8.608942e-10	2.331362e+01	5.903306e+01
2.620000e-06	3.386391e-06	8.676975e-10	2.357113e+01	5.940936e+01
2.630000e-06	3.423073e-06	8.725364e-10	2.382645e+01	5.977856e+01
2.640000e-06	3.459430e-06	8.762134e-10	2.407951e+01	6.014066e+01
2.650000e-06	3.495608e-06	8.832909e-10	2.433134e+01	6.049568e+01
2.660000e-06	3.531587e-06	8.899135e-10	2.458177e+01	6.084362e+01
2.670000e-06	3.567397e-06	8.927740e-10	2.483103e+01	6.118449e+01
2.680000e-06	3.603128e-06	8.952164e-10	2.507974e+01	6.151831e+01
2.690000e-06	3.638744e-06	8.981901e-10	2.532764e+01	6.184510e+01
2.700000e-06	3.674215e-06	9.010472e-10	2.557454e+01	6.216487e+01
2.710000e-06	3.709490e-06	9.030493e-10	2.582007e+01	6.247767e+01
2.720000e-06	3.744528e-06	9.051913e-10	2.606395e+01	6.278352e+01
2.730000e-06	3.779204e-06	9.092253e-10	2.630532e+01	6.308249e+01
2.740000e-06	3.813417e-06	9.159556e-10	2.654346e+01	6.337464e+01
2.750000e-06	3.847202e-06	9.221532e-10	2.677862e+01	6.366004e+01
2.760000e-06	3.880507e-06	9.271355e-10	2.701044e+01	6.393880e+01
2.770000e-06	3.913329e-06	9.308814e-10	2.723890e+01	6.421101e+01
2.780000e-06	3.945764e-06	9.326441e-10	2.746467e+01	6.447679e+01
2.790000e-06	3.977884e-06	9.306369e-10	2.768824e+01	6.473627e+01
2.800000e-06	4.009774e-06	9.287215e-10	2.791021e+01	6.498960e+01
2.810000e-06	4.041482e-06	9.304572e-10	2.813091e+01	6.523692e+01
2.820000e-06	4.073043e-06	9.357424e-10	2.835060e+01	6.547841e+01
2.830000e-06	4.104416e-06	9.424766e-10	2.856897e+01	6.571423e+01
2.840000e-06	4.135467e-06	9.493327e-10	2.878511e+01	6.594456e+01
2.850000e-06	4.166174e-06	9.550952e-10	2.899884e+01	6.616959e+01
2.860000e-06	4.196649e-06	9.562689e-10	2.921096e+01	6.638951e+01
2.870000e-06	4.226914e-06	9.535031e-10	2.942162e+01	6.660451e+01
2.880000e-06	4.256843e-06	9.510322e-10	2.962995e+01	6.681479e+01
2.890000e-06	4.286431e-06	9.492350e-10	2.983589e+01	6.702054e+01
2.900000e-06	4.315721e-06	9.506680e-10	3.003977e+01	6.722194e+01
2.910000e-06	4.344712e-06	9.552994e-10	3.024156e+01	6.741918e+01
