# Temperatura_=_-0.34
# Concentracion g/m^3_=_1620.0
# C_Vs_to_Am_M_A/Vsm_=_65563218390.804596
# pendiente_HvsI_1/m_=_3716.3
# ordenada_HvsI_A/m_=_1297.0
# frecuencia_Hz_=_135090.0282098754

Tiempo_(s)	Campo_(V.s)	Magnetizacion_(V.s)	Campo_(kA/m)	Magnetizacion_(A/m)
0.000000e+00	-5.525887e-06	-1.736965e-09	-3.837132e+01	-1.116579e+02
1.000000e-08	-5.526123e-06	-1.736109e-09	-3.837296e+01	-1.116130e+02
2.000000e-08	-5.526135e-06	-1.735771e-09	-3.837305e+01	-1.115642e+02
3.000000e-08	-5.525861e-06	-1.732007e-09	-3.837114e+01	-1.115118e+02
4.000000e-08	-5.525156e-06	-1.725489e-09	-3.836625e+01	-1.114559e+02
5.000000e-08	-5.524004e-06	-1.721595e-09	-3.835825e+01	-1.113966e+02
6.000000e-08	-5.522406e-06	-1.724014e-09	-3.834715e+01	-1.113342e+02
7.000000e-08	-5.520112e-06	-1.747424e-09	-3.833123e+01	-1.112689e+02
8.000000e-08	-5.517127e-06	-1.766606e-09	-3.831049e+01	-1.112007e+02
9.000000e-08	-5.513651e-06	-1.681313e-09	-3.828636e+01	-1.111299e+02
1.000000e-07	-5.509785e-06	-1.583352e-09	-3.825951e+01	-1.110565e+02
1.100000e-07	-5.505633e-06	-1.746042e-09	-3.823069e+01	-1.109808e+02
1.200000e-07	-5.501107e-06	-1.861747e-09	-3.819925e+01	-1.109028e+02
1.300000e-07	-5.496275e-06	-1.758885e-09	-3.816570e+01	-1.108227e+02
1.400000e-07	-5.491245e-06	-1.584855e-09	-3.813077e+01	-1.107405e+02
1.500000e-07	-5.485907e-06	-1.678803e-09	-3.809370e+01	-1.106564e+02
1.600000e-07	-5.480087e-06	-1.851421e-09	-3.805329e+01	-1.105704e+02
1.700000e-07	-5.473765e-06	-1.728827e-09	-3.800939e+01	-1.104826e+02
1.800000e-07	-5.467140e-06	-1.585162e-09	-3.796339e+01	-1.103929e+02
1.900000e-07	-5.460224e-06	-1.633658e-09	-3.791537e+01	-1.103014e+02
2.000000e-07	-5.452876e-06	-1.783650e-09	-3.786434e+01	-1.102081e+02
2.100000e-07	-5.445209e-06	-1.735263e-09	-3.781110e+01	-1.101130e+02
2.200000e-07	-5.437320e-06	-1.642571e-09	-3.775632e+01	-1.100159e+02
2.300000e-07	-5.429210e-06	-1.617159e-09	-3.770001e+01	-1.099169e+02
2.400000e-07	-5.420711e-06	-1.683008e-09	-3.764099e+01	-1.098159e+02
2.500000e-07	-5.411614e-06	-1.655626e-09	-3.757782e+01	-1.097126e+02
2.600000e-07	-5.401899e-06	-1.625039e-09	-3.751036e+01	-1.096072e+02
2.700000e-07	-5.391557e-06	-1.618049e-09	-3.743855e+01	-1.094992e+02
2.800000e-07	-5.380622e-06	-1.651808e-09	-3.736262e+01	-1.093887e+02
2.900000e-07	-5.369166e-06	-1.644154e-09	-3.728307e+01	-1.092755e+02
3.000000e-07	-5.357339e-06	-1.611474e-09	-3.720094e+01	-1.091593e+02
3.100000e-07	-5.345182e-06	-1.603971e-09	-3.711652e+01	-1.090400e+02
3.200000e-07	-5.332690e-06	-1.638625e-09	-3.702978e+01	-1.089174e+02
3.300000e-07	-5.319732e-06	-1.657112e-09	-3.693980e+01	-1.087913e+02
3.400000e-07	-5.306251e-06	-1.593764e-09	-3.684619e+01	-1.086614e+02
3.500000e-07	-5.292414e-06	-1.578540e-09	-3.675011e+01	-1.085275e+02
3.600000e-07	-5.278317e-06	-1.636253e-09	-3.665221e+01	-1.083894e+02
3.700000e-07	-5.263784e-06	-1.618963e-09	-3.655130e+01	-1.082470e+02
3.800000e-07	-5.248599e-06	-1.551797e-09	-3.644586e+01	-1.080999e+02
3.900000e-07	-5.232876e-06	-1.619393e-09	-3.633668e+01	-1.079479e+02
4.000000e-07	-5.216827e-06	-1.639597e-09	-3.622523e+01	-1.077909e+02
4.100000e-07	-5.200214e-06	-1.541406e-09	-3.610988e+01	-1.076287e+02
4.200000e-07	-5.183295e-06	-1.563722e-09	-3.599239e+01	-1.074610e+02
4.300000e-07	-5.166299e-06	-1.682829e-09	-3.587437e+01	-1.072877e+02
4.400000e-07	-5.148804e-06	-1.569772e-09	-3.575289e+01	-1.071087e+02
4.500000e-07	-5.130786e-06	-1.489563e-09	-3.562778e+01	-1.069237e+02
4.600000e-07	-5.112438e-06	-1.625572e-09	-3.550037e+01	-1.067326e+02
4.700000e-07	-5.093766e-06	-1.643415e-09	-3.537071e+01	-1.065354e+02
4.800000e-07	-5.074660e-06	-1.487973e-09	-3.523804e+01	-1.063319e+02
4.900000e-07	-5.055235e-06	-1.562639e-09	-3.510316e+01	-1.061220e+02
5.000000e-07	-5.035606e-06	-1.643627e-09	-3.496685e+01	-1.059057e+02
5.100000e-07	-5.015728e-06	-1.517940e-09	-3.482882e+01	-1.056830e+02
5.200000e-07	-4.995560e-06	-1.509212e-09	-3.468878e+01	-1.054537e+02
5.300000e-07	-4.975164e-06	-1.637112e-09	-3.454715e+01	-1.052179e+02
5.400000e-07	-4.954350e-06	-1.535337e-09	-3.440262e+01	-1.049756e+02
5.500000e-07	-4.933116e-06	-1.455474e-09	-3.425517e+01	-1.047269e+02
5.600000e-07	-4.911583e-06	-1.584591e-09	-3.410565e+01	-1.044717e+02
5.700000e-07	-4.889678e-06	-1.581748e-09	-3.395354e+01	-1.042102e+02
5.800000e-07	-4.867471e-06	-1.454284e-09	-3.379934e+01	-1.039423e+02
5.900000e-07	-4.844909e-06	-1.519584e-09	-3.364267e+01	-1.036683e+02
6.000000e-07	-4.821961e-06	-1.573680e-09	-3.348331e+01	-1.033881e+02
6.100000e-07	-4.798746e-06	-1.473913e-09	-3.332212e+01	-1.031019e+02
6.200000e-07	-4.775357e-06	-1.484188e-09	-3.315970e+01	-1.028098e+02
6.300000e-07	-4.751762e-06	-1.556507e-09	-3.299586e+01	-1.025120e+02
6.400000e-07	-4.727816e-06	-1.497581e-09	-3.282958e+01	-1.022084e+02
6.500000e-07	-4.703597e-06	-1.463089e-09	-3.266141e+01	-1.018994e+02
6.600000e-07	-4.679045e-06	-1.519968e-09	-3.249092e+01	-1.015850e+02
6.700000e-07	-4.653911e-06	-1.488590e-09	-3.231639e+01	-1.012653e+02
6.800000e-07	-4.628165e-06	-1.443572e-09	-3.213761e+01	-1.009405e+02
6.900000e-07	-4.601873e-06	-1.480039e-09	-3.195504e+01	-1.006106e+02
7.000000e-07	-4.575122e-06	-1.493058e-09	-3.176928e+01	-1.002758e+02
7.100000e-07	-4.547959e-06	-1.452503e-09	-3.158067e+01	-9.993619e+01
7.200000e-07	-4.520483e-06	-1.464940e-09	-3.138988e+01	-9.959185e+01
7.300000e-07	-4.492831e-06	-1.472133e-09	-3.119787e+01	-9.924286e+01
7.400000e-07	-4.465017e-06	-1.440490e-09	-3.100473e+01	-9.888930e+01
7.500000e-07	-4.437004e-06	-1.422124e-09	-3.081021e+01	-9.853120e+01
7.600000e-07	-4.408794e-06	-1.433522e-09	-3.061432e+01	-9.816861e+01
7.700000e-07	-4.380299e-06	-1.417261e-09	-3.041645e+01	-9.780154e+01
7.800000e-07	-4.351477e-06	-1.408827e-09	-3.021631e+01	-9.743001e+01
7.900000e-07	-4.322314e-06	-1.414207e-09	-3.001380e+01	-9.705399e+01
8.000000e-07	-4.292849e-06	-1.407580e-09	-2.980921e+01	-9.667346e+01
8.100000e-07	-4.263057e-06	-1.387863e-09	-2.960234e+01	-9.628838e+01
8.200000e-07	-4.232913e-06	-1.390424e-09	-2.939302e+01	-9.589868e+01
8.300000e-07	-4.202513e-06	-1.380688e-09	-2.918192e+01	-9.550429e+01
8.400000e-07	-4.171784e-06	-1.358537e-09	-2.896854e+01	-9.510511e+01
8.500000e-07	-4.140789e-06	-1.354906e-09	-2.875331e+01	-9.470103e+01
8.600000e-07	-4.109629e-06	-1.359991e-09	-2.853694e+01	-9.429194e+01
8.700000e-07	-4.078296e-06	-1.343976e-09	-2.831937e+01	-9.387770e+01
8.800000e-07	-4.046745e-06	-1.337013e-09	-2.810028e+01	-9.345818e+01
8.900000e-07	-4.014984e-06	-1.342726e-09	-2.787973e+01	-9.303324e+01
9.000000e-07	-3.983035e-06	-1.327845e-09	-2.765788e+01	-9.260270e+01
9.100000e-07	-3.950816e-06	-1.310276e-09	-2.743416e+01	-9.216642e+01
9.200000e-07	-3.918274e-06	-1.311343e-09	-2.720818e+01	-9.172424e+01
9.300000e-07	-3.885394e-06	-1.302304e-09	-2.697987e+01	-9.127599e+01
9.400000e-07	-3.852024e-06	-1.282338e-09	-2.674815e+01	-9.082152e+01
9.500000e-07	-3.818192e-06	-1.284989e-09	-2.651323e+01	-9.036068e+01
9.600000e-07	-3.783868e-06	-1.286473e-09	-2.627488e+01	-8.989331e+01
9.700000e-07	-3.749029e-06	-1.267510e-09	-2.603296e+01	-8.941927e+01
9.800000e-07	-3.713888e-06	-1.255940e-09	-2.578894e+01	-8.893844e+01
9.900000e-07	-3.678498e-06	-1.261884e-09	-2.554320e+01	-8.845070e+01
1.000000e-06	-3.642950e-06	-1.248830e-09	-2.529636e+01	-8.795595e+01
1.010000e-06	-3.607288e-06	-1.237378e-09	-2.504873e+01	-8.745409e+01
1.020000e-06	-3.571473e-06	-1.243026e-09	-2.480002e+01	-8.694507e+01
1.030000e-06	-3.535501e-06	-1.242071e-09	-2.455024e+01	-8.642883e+01
1.040000e-06	-3.499384e-06	-1.221420e-09	-2.429945e+01	-8.590533e+01
1.050000e-06	-3.463008e-06	-1.213965e-09	-2.404685e+01	-8.537457e+01
1.060000e-06	-3.426346e-06	-1.207013e-09	-2.379228e+01	-8.483656e+01
1.070000e-06	-3.389389e-06	-1.189078e-09	-2.353565e+01	-8.429132e+01
1.080000e-06	-3.352155e-06	-1.177171e-09	-2.327710e+01	-8.373892e+01
1.090000e-06	-3.314702e-06	-1.180522e-09	-2.301703e+01	-8.317941e+01
1.100000e-06	-3.276924e-06	-1.172408e-09	-2.275470e+01	-8.261291e+01
1.110000e-06	-3.238922e-06	-1.161363e-09	-2.249082e+01	-8.203952e+01
1.120000e-06	-3.200703e-06	-1.158898e-09	-2.222543e+01	-8.145937e+01
1.130000e-06	-3.162296e-06	-1.150010e-09	-2.195873e+01	-8.087262e+01
1.140000e-06	-3.123853e-06	-1.129807e-09	-2.169179e+01	-8.027943e+01
1.150000e-06	-3.085108e-06	-1.119084e-09	-2.142274e+01	-7.967999e+01
1.160000e-06	-3.046059e-06	-1.114383e-09	-2.115159e+01	-7.907448e+01
1.170000e-06	-3.006883e-06	-1.105879e-09	-2.087956e+01	-7.846311e+01
1.180000e-06	-2.967538e-06	-1.099581e-09	-2.060635e+01	-7.784609e+01
1.190000e-06	-2.927994e-06	-1.098743e-09	-2.033176e+01	-7.722363e+01
1.200000e-06	-2.888315e-06	-1.090219e-09	-2.005623e+01	-7.659594e+01
1.210000e-06	-2.848593e-06	-1.077492e-09	-1.978041e+01	-7.596324e+01
1.220000e-06	-2.808733e-06	-1.070397e-09	-1.950362e+01	-7.532574e+01
1.230000e-06	-2.768737e-06	-1.059483e-09	-1.922589e+01	-7.468364e+01
1.240000e-06	-2.728548e-06	-1.046183e-09	-1.894682e+01	-7.403712e+01
1.250000e-06	-2.688118e-06	-1.038194e-09	-1.866608e+01	-7.338636e+01
1.260000e-06	-2.647448e-06	-1.033846e-09	-1.838367e+01	-7.273151e+01
1.270000e-06	-2.606424e-06	-1.022016e-09	-1.809880e+01	-7.207272e+01
1.280000e-06	-2.565296e-06	-1.008847e-09	-1.781321e+01	-7.141008e+01
1.290000e-06	-2.523992e-06	-9.983740e-10	-1.752640e+01	-7.074368e+01
1.300000e-06	-2.482159e-06	-9.860033e-10	-1.723592e+01	-7.007358e+01
1.310000e-06	-2.439870e-06	-9.706465e-10	-1.694227e+01	-6.939979e+01
1.320000e-06	-2.397282e-06	-9.605688e-10	-1.664653e+01	-6.872229e+01
1.330000e-06	-2.354556e-06	-9.510719e-10	-1.634985e+01	-6.804103e+01
1.340000e-06	-2.311614e-06	-9.387202e-10	-1.605167e+01	-6.735591e+01
1.350000e-06	-2.268335e-06	-9.252130e-10	-1.575114e+01	-6.666680e+01
1.360000e-06	-2.224873e-06	-9.146909e-10	-1.544934e+01	-6.597350e+01
1.370000e-06	-2.181382e-06	-9.008057e-10	-1.514734e+01	-6.527580e+01
1.380000e-06	-2.137816e-06	-8.861611e-10	-1.484482e+01	-6.457342e+01
1.390000e-06	-2.094113e-06	-8.734249e-10	-1.454135e+01	-6.386605e+01
1.400000e-06	-2.050326e-06	-8.613563e-10	-1.423730e+01	-6.315331e+01
1.410000e-06	-2.006497e-06	-8.483865e-10	-1.393296e+01	-6.243481e+01
1.420000e-06	-1.962606e-06	-8.389237e-10	-1.362818e+01	-6.171008e+01
1.430000e-06	-1.918630e-06	-8.306365e-10	-1.332282e+01	-6.097863e+01
1.440000e-06	-1.874607e-06	-8.181338e-10	-1.301712e+01	-6.023992e+01
1.450000e-06	-1.830521e-06	-8.029918e-10	-1.271100e+01	-5.949336e+01
1.460000e-06	-1.786283e-06	-7.875220e-10	-1.240381e+01	-5.873833e+01
1.470000e-06	-1.741784e-06	-7.713089e-10	-1.209481e+01	-5.797418e+01
1.480000e-06	-1.697103e-06	-7.563266e-10	-1.178455e+01	-5.720022e+01
1.490000e-06	-1.652323e-06	-7.430406e-10	-1.147360e+01	-5.641572e+01
1.500000e-06	-1.607429e-06	-7.325249e-10	-1.116186e+01	-5.561996e+01
1.510000e-06	-1.562376e-06	-7.232380e-10	-1.084901e+01	-5.481215e+01
1.520000e-06	-1.517211e-06	-7.131483e-10	-1.053539e+01	-5.399152e+01
1.530000e-06	-1.472019e-06	-7.018164e-10	-1.022158e+01	-5.315727e+01
1.540000e-06	-1.426720e-06	-6.898202e-10	-9.907034e+00	-5.230858e+01
1.550000e-06	-1.381352e-06	-6.762070e-10	-9.592000e+00	-5.144466e+01
1.560000e-06	-1.335928e-06	-6.600158e-10	-9.276576e+00	-5.056468e+01
1.570000e-06	-1.290399e-06	-6.430050e-10	-8.960429e+00	-4.966784e+01
1.580000e-06	-1.244772e-06	-6.288199e-10	-8.643600e+00	-4.875336e+01
1.590000e-06	-1.199044e-06	-6.171110e-10	-8.326065e+00	-4.782044e+01
1.600000e-06	-1.153200e-06	-6.061021e-10	-8.007727e+00	-4.686833e+01
1.610000e-06	-1.107242e-06	-5.967286e-10	-7.688604e+00	-4.589630e+01
1.620000e-06	-1.061241e-06	-5.816067e-10	-7.369172e+00	-4.490365e+01
1.630000e-06	-1.015169e-06	-5.630681e-10	-7.049253e+00	-4.388971e+01
1.640000e-06	-9.689740e-07	-5.476721e-10	-6.728479e+00	-4.285386e+01
1.650000e-06	-9.227560e-07	-5.330544e-10	-6.407545e+00	-4.179551e+01
1.660000e-06	-8.765611e-07	-5.187352e-10	-6.086771e+00	-4.071415e+01
1.670000e-06	-8.302280e-07	-5.037868e-10	-5.765038e+00	-3.960928e+01
1.680000e-06	-7.836699e-07	-4.904340e-10	-5.441742e+00	-3.848050e+01
1.690000e-06	-7.370563e-07	-4.777027e-10	-5.118061e+00	-3.732743e+01
1.700000e-06	-6.905154e-07	-4.626836e-10	-4.794884e+00	-3.614980e+01
1.710000e-06	-6.440125e-07	-4.497020e-10	-4.471972e+00	-3.494737e+01
1.720000e-06	-5.973996e-07	-4.299079e-10	-4.148296e+00	-3.371998e+01
1.730000e-06	-5.507209e-07	-4.088502e-10	-3.824163e+00	-3.246754e+01
1.740000e-06	-5.040480e-07	-3.844568e-10	-3.500070e+00	-3.119006e+01
1.750000e-06	-4.572788e-07	-3.649933e-10	-3.175308e+00	-2.988759e+01
1.760000e-06	-4.103389e-07	-3.482270e-10	-2.849361e+00	-2.856026e+01
1.770000e-06	-3.633859e-07	-3.320154e-10	-2.523323e+00	-2.720830e+01
1.780000e-06	-3.165498e-07	-3.156930e-10	-2.198097e+00	-2.583200e+01
1.790000e-06	-2.696598e-07	-2.981147e-10	-1.872497e+00	-2.443174e+01
1.800000e-06	-2.227268e-07	-2.803720e-10	-1.546597e+00	-2.300795e+01
1.810000e-06	-1.758317e-07	-2.591196e-10	-1.220962e+00	-2.156116e+01
1.820000e-06	-1.289380e-07	-2.356039e-10	-8.953355e-01	-2.009197e+01
1.830000e-06	-8.208127e-08	-2.134998e-10	-5.699659e-01	-1.860104e+01
1.840000e-06	-3.523772e-08	-1.935970e-10	-2.446879e-01	-1.708912e+01
1.850000e-06	1.164107e-08	-1.732694e-10	8.083465e-02	-1.555701e+01
1.860000e-06	5.854794e-08	-1.538420e-10	4.065523e-01	-1.400558e+01
1.870000e-06	1.054670e-07	-1.315151e-10	7.323545e-01	-1.243577e+01
1.880000e-06	1.524100e-07	-1.068867e-10	1.058323e+00	-1.084857e+01
1.890000e-06	1.993673e-07	-8.101114e-11	1.384391e+00	-9.245030e+00
1.900000e-06	2.462633e-07	-5.891364e-11	1.710033e+00	-7.626245e+00
1.910000e-06	2.931102e-07	-3.948273e-11	2.035334e+00	-5.993366e+00
1.920000e-06	3.398585e-07	-2.121974e-11	2.359951e+00	-4.347581e+00
1.930000e-06	3.865124e-07	1.478151e-12	2.683912e+00	-2.690120e+00
1.940000e-06	4.331963e-07	2.602418e-11	3.008081e+00	-1.022247e+00
1.950000e-06	4.799370e-07	5.325583e-11	3.332645e+00	6.547461e-01
1.960000e-06	5.266538e-07	7.868621e-11	3.657042e+00	2.339540e+00
1.970000e-06	5.732882e-07	1.033512e-10	3.980868e+00	4.030795e+00
1.980000e-06	6.198016e-07	1.256396e-10	4.303853e+00	5.727157e+00
1.990000e-06	6.662296e-07	1.471902e-10	4.626246e+00	7.427261e+00
2.000000e-06	7.126358e-07	1.670844e-10	4.948487e+00	9.129733e+00
2.010000e-06	7.589895e-07	1.900556e-10	5.270363e+00	1.083320e+01
2.020000e-06	8.053118e-07	2.145611e-10	5.592022e+00	1.253629e+01
2.030000e-06	8.515772e-07	2.398565e-10	5.913285e+00	1.423764e+01
2.040000e-06	8.978027e-07	2.665024e-10	6.234271e+00	1.593590e+01
2.050000e-06	9.439681e-07	2.922712e-10	6.554840e+00	1.762974e+01
2.060000e-06	9.900260e-07	3.171675e-10	6.874663e+00	1.931782e+01
2.070000e-06	1.036042e-06	3.410416e-10	7.194196e+00	2.099888e+01
2.080000e-06	1.081951e-06	3.656463e-10	7.512986e+00	2.267164e+01
2.090000e-06	1.127794e-06	3.886852e-10	7.831312e+00	2.433486e+01
2.100000e-06	1.173566e-06	4.132955e-10	8.149147e+00	2.598736e+01
2.110000e-06	1.219276e-06	4.358743e-10	8.466557e+00	2.762797e+01
2.120000e-06	1.264965e-06	4.576660e-10	8.783814e+00	2.925557e+01
2.130000e-06	1.310501e-06	4.786901e-10	9.100013e+00	3.086909e+01
2.140000e-06	1.355959e-06	4.993907e-10	9.415671e+00	3.246751e+01
2.150000e-06	1.401387e-06	5.211078e-10	9.731121e+00	3.404983e+01
2.160000e-06	1.446647e-06	5.441724e-10	1.004540e+01	3.561513e+01
2.170000e-06	1.491821e-06	5.656161e-10	1.035909e+01	3.716254e+01
2.180000e-06	1.536973e-06	5.853896e-10	1.067262e+01	3.869122e+01
2.190000e-06	1.581956e-06	6.050716e-10	1.098498e+01	4.020042e+01
2.200000e-06	1.626736e-06	6.267785e-10	1.129592e+01	4.168942e+01
2.210000e-06	1.671336e-06	6.475817e-10	1.160563e+01	4.315756e+01
2.220000e-06	1.715814e-06	6.671159e-10	1.191448e+01	4.460425e+01
2.230000e-06	1.760208e-06	6.835781e-10	1.222274e+01	4.602895e+01
2.240000e-06	1.804441e-06	7.009667e-10	1.252990e+01	4.743119e+01
2.250000e-06	1.848570e-06	7.194866e-10	1.283633e+01	4.881053e+01
2.260000e-06	1.892622e-06	7.399356e-10	1.314222e+01	5.016661e+01
2.270000e-06	1.936514e-06	7.614369e-10	1.344700e+01	5.149914e+01
2.280000e-06	1.980380e-06	7.813957e-10	1.375160e+01	5.280786e+01
2.290000e-06	2.024202e-06	7.989740e-10	1.405590e+01	5.409258e+01
2.300000e-06	2.067918e-06	8.131862e-10	1.435946e+01	5.535316e+01
2.310000e-06	2.111561e-06	8.249189e-10	1.466251e+01	5.658952e+01
2.320000e-06	2.155171e-06	8.363802e-10	1.496534e+01	5.780163e+01
2.330000e-06	2.198752e-06	8.511254e-10	1.526796e+01	5.898952e+01
2.340000e-06	2.242226e-06	8.690019e-10	1.556984e+01	6.015325e+01
2.350000e-06	2.285544e-06	8.866723e-10	1.587064e+01	6.129294e+01
2.360000e-06	2.328617e-06	9.027072e-10	1.616974e+01	6.240876e+01
2.370000e-06	2.371518e-06	9.177894e-10	1.646764e+01	6.350091e+01
2.380000e-06	2.414199e-06	9.303835e-10	1.676401e+01	6.456965e+01
2.390000e-06	2.456514e-06	9.434185e-10	1.705784e+01	6.561527e+01
2.400000e-06	2.498514e-06	9.569714e-10	1.734949e+01	6.663810e+01
2.410000e-06	2.540196e-06	9.697402e-10	1.763892e+01	6.763849e+01
2.420000e-06	2.581604e-06	9.824964e-10	1.792645e+01	6.861684e+01
2.430000e-06	2.622769e-06	9.952744e-10	1.821230e+01	6.957357e+01
2.440000e-06	2.663561e-06	1.006591e-09	1.849556e+01	7.050914e+01
2.450000e-06	2.704047e-06	1.017189e-09	1.877669e+01	7.142402e+01
2.460000e-06	2.744288e-06	1.027703e-09	1.905612e+01	7.231871e+01
2.470000e-06	2.784324e-06	1.040023e-09	1.933412e+01	7.319371e+01
2.480000e-06	2.824268e-06	1.051923e-09	1.961149e+01	7.404957e+01
2.490000e-06	2.864074e-06	1.062900e-09	1.988791e+01	7.488681e+01
2.500000e-06	2.903801e-06	1.072917e-09	2.016377e+01	7.570601e+01
2.510000e-06	2.943431e-06	1.085029e-09	2.043895e+01	7.650772e+01
2.520000e-06	2.982813e-06	1.097491e-09	2.071242e+01	7.729250e+01
2.530000e-06	3.021915e-06	1.108773e-09	2.098394e+01	7.806093e+01
2.540000e-06	3.060879e-06	1.119982e-09	2.125450e+01	7.881357e+01
2.550000e-06	3.099708e-06	1.131848e-09	2.152413e+01	7.955099e+01
2.560000e-06	3.138242e-06	1.141172e-09	2.179171e+01	8.027375e+01
2.570000e-06	3.176523e-06	1.148199e-09	2.205753e+01	8.098239e+01
2.580000e-06	3.214667e-06	1.159137e-09	2.232239e+01	8.167747e+01
2.590000e-06	3.252617e-06	1.172155e-09	2.258591e+01	8.235951e+01
2.600000e-06	3.290305e-06	1.183228e-09	2.284762e+01	8.302903e+01
2.610000e-06	3.327824e-06	1.191697e-09	2.310814e+01	8.368652e+01
2.620000e-06	3.365113e-06	1.198854e-09	2.336708e+01	8.433246e+01
2.630000e-06	3.402137e-06	1.207190e-09	2.362417e+01	8.496732e+01
2.640000e-06	3.438957e-06	1.215718e-09	2.387985e+01	8.559154e+01
2.650000e-06	3.475511e-06	1.224205e-09	2.413367e+01	8.620552e+01
2.660000e-06	3.511800e-06	1.235531e-09	2.438566e+01	8.680966e+01
2.670000e-06	3.547866e-06	1.246050e-09	2.463610e+01	8.740434e+01
2.680000e-06	3.583764e-06	1.256143e-09	2.488538e+01	8.798989e+01
2.690000e-06	3.619509e-06	1.264982e-09	2.513358e+01	8.856663e+01
2.700000e-06	3.655096e-06	1.271985e-09	2.538070e+01	8.913485e+01
2.710000e-06	3.690561e-06	1.279767e-09	2.562697e+01	8.969481e+01
2.720000e-06	3.725849e-06	1.288670e-09	2.587200e+01	9.024675e+01
2.730000e-06	3.760836e-06	1.297933e-09	2.611495e+01	9.079088e+01
2.740000e-06	3.795415e-06	1.305674e-09	2.635506e+01	9.132738e+01
2.750000e-06	3.829622e-06	1.310187e-09	2.659259e+01	9.185640e+01
2.760000e-06	3.863345e-06	1.315094e-09	2.682676e+01	9.237809e+01
2.770000e-06	3.896526e-06	1.321841e-09	2.705717e+01	9.289254e+01
2.780000e-06	3.929343e-06	1.329037e-09	2.728505e+01	9.339984e+01
2.790000e-06	3.961778e-06	1.337094e-09	2.751027e+01	9.390005e+01
2.800000e-06	3.993941e-06	1.345470e-09	2.773361e+01	9.439322e+01
2.810000e-06	4.025937e-06	1.352366e-09	2.795579e+01	9.487936e+01
2.820000e-06	4.057731e-06	1.357377e-09	2.817657e+01	9.535848e+01
2.830000e-06	4.089352e-06	1.362524e-09	2.839614e+01	9.583056e+01
2.840000e-06	4.120721e-06	1.369161e-09	2.861396e+01	9.629559e+01
2.850000e-06	4.151852e-06	1.375082e-09	2.883014e+01	9.675351e+01
2.860000e-06	4.182742e-06	1.380582e-09	2.904463e+01	9.720428e+01
2.870000e-06	4.213338e-06	1.388633e-09	2.925709e+01	9.764784e+01
2.880000e-06	4.243498e-06	1.396569e-09	2.946651e+01	9.808412e+01
2.890000e-06	4.273297e-06	1.400944e-09	2.967344e+01	9.851304e+01
2.900000e-06	4.302934e-06	1.403133e-09	2.987924e+01	9.893454e+01
