# Temperatura_=_-0.37
# Concentracion g/m^3_=_1620.0
# C_Vs_to_Am_M_A/Vsm_=_65563218390.804596
# pendiente_HvsI_1/m_=_3716.3
# ordenada_HvsI_A/m_=_1297.0
# frecuencia_Hz_=_135090.0896522167

Tiempo_(s)	Campo_(V.s)	Magnetizacion_(V.s)	Campo_(kA/m)	Magnetizacion_(A/m)
0.000000e+00	-5.528588e-06	-1.749165e-09	-3.837988e+01	-1.117805e+02
1.000000e-08	-5.528871e-06	-1.745499e-09	-3.838185e+01	-1.117205e+02
2.000000e-08	-5.528845e-06	-1.742523e-09	-3.838166e+01	-1.116572e+02
3.000000e-08	-5.528591e-06	-1.742000e-09	-3.837990e+01	-1.115908e+02
4.000000e-08	-5.527886e-06	-1.741917e-09	-3.837501e+01	-1.115215e+02
5.000000e-08	-5.526593e-06	-1.741988e-09	-3.836603e+01	-1.114494e+02
6.000000e-08	-5.524689e-06	-1.739816e-09	-3.835281e+01	-1.113746e+02
7.000000e-08	-5.522071e-06	-1.737348e-09	-3.833464e+01	-1.112974e+02
8.000000e-08	-5.518876e-06	-1.760970e-09	-3.831246e+01	-1.112178e+02
9.000000e-08	-5.515213e-06	-1.772993e-09	-3.828703e+01	-1.111359e+02
1.000000e-07	-5.511166e-06	-1.747045e-09	-3.825893e+01	-1.110520e+02
1.100000e-07	-5.506819e-06	-1.749166e-09	-3.822876e+01	-1.109660e+02
1.200000e-07	-5.502193e-06	-1.732592e-09	-3.819664e+01	-1.108780e+02
1.300000e-07	-5.497433e-06	-1.743703e-09	-3.816360e+01	-1.107882e+02
1.400000e-07	-5.492397e-06	-1.729952e-09	-3.812864e+01	-1.106967e+02
1.500000e-07	-5.486772e-06	-1.722233e-09	-3.808959e+01	-1.106034e+02
1.600000e-07	-5.480739e-06	-1.759183e-09	-3.804771e+01	-1.105084e+02
1.700000e-07	-5.474449e-06	-1.738677e-09	-3.800404e+01	-1.104118e+02
1.800000e-07	-5.467751e-06	-1.738585e-09	-3.795755e+01	-1.103134e+02
1.900000e-07	-5.460574e-06	-1.683150e-09	-3.790772e+01	-1.102135e+02
2.000000e-07	-5.453095e-06	-1.722094e-09	-3.785580e+01	-1.101118e+02
2.100000e-07	-5.445362e-06	-1.699292e-09	-3.780212e+01	-1.100084e+02
2.200000e-07	-5.437350e-06	-1.708884e-09	-3.774650e+01	-1.099032e+02
2.300000e-07	-5.429123e-06	-1.672565e-09	-3.768939e+01	-1.097962e+02
2.400000e-07	-5.420401e-06	-1.687644e-09	-3.762884e+01	-1.096872e+02
2.500000e-07	-5.410934e-06	-1.669265e-09	-3.756312e+01	-1.095761e+02
2.600000e-07	-5.400806e-06	-1.655730e-09	-3.749281e+01	-1.094629e+02
2.700000e-07	-5.390094e-06	-1.647262e-09	-3.741845e+01	-1.093473e+02
2.800000e-07	-5.378906e-06	-1.654485e-09	-3.734078e+01	-1.092293e+02
2.900000e-07	-5.367375e-06	-1.646334e-09	-3.726073e+01	-1.091086e+02
3.000000e-07	-5.355464e-06	-1.630187e-09	-3.717804e+01	-1.089852e+02
3.100000e-07	-5.343112e-06	-1.641060e-09	-3.709229e+01	-1.088588e+02
3.200000e-07	-5.330440e-06	-1.624268e-09	-3.700432e+01	-1.087291e+02
3.300000e-07	-5.317357e-06	-1.628353e-09	-3.691350e+01	-1.085961e+02
3.400000e-07	-5.303849e-06	-1.595973e-09	-3.681972e+01	-1.084595e+02
3.500000e-07	-5.289999e-06	-1.608354e-09	-3.672357e+01	-1.083191e+02
3.600000e-07	-5.275647e-06	-1.606272e-09	-3.662394e+01	-1.081747e+02
3.700000e-07	-5.260714e-06	-1.618261e-09	-3.652028e+01	-1.080261e+02
3.800000e-07	-5.245326e-06	-1.582831e-09	-3.641345e+01	-1.078730e+02
3.900000e-07	-5.229485e-06	-1.603359e-09	-3.630348e+01	-1.077152e+02
4.000000e-07	-5.213067e-06	-1.599861e-09	-3.618951e+01	-1.075525e+02
4.100000e-07	-5.196285e-06	-1.590866e-09	-3.607301e+01	-1.073848e+02
4.200000e-07	-5.179215e-06	-1.577720e-09	-3.595451e+01	-1.072117e+02
4.300000e-07	-5.161917e-06	-1.616646e-09	-3.583442e+01	-1.070332e+02
4.400000e-07	-5.144416e-06	-1.586881e-09	-3.571293e+01	-1.068490e+02
4.500000e-07	-5.126432e-06	-1.569679e-09	-3.558808e+01	-1.066590e+02
4.600000e-07	-5.107876e-06	-1.586690e-09	-3.545926e+01	-1.064629e+02
4.700000e-07	-5.088862e-06	-1.599905e-09	-3.532727e+01	-1.062608e+02
4.800000e-07	-5.069573e-06	-1.551173e-09	-3.519336e+01	-1.060524e+02
4.900000e-07	-5.050104e-06	-1.573429e-09	-3.505821e+01	-1.058376e+02
5.000000e-07	-5.030464e-06	-1.592841e-09	-3.492186e+01	-1.056164e+02
5.100000e-07	-5.010607e-06	-1.554588e-09	-3.478402e+01	-1.053886e+02
5.200000e-07	-4.990441e-06	-1.533819e-09	-3.464403e+01	-1.051542e+02
5.300000e-07	-4.969947e-06	-1.572414e-09	-3.450175e+01	-1.049132e+02
5.400000e-07	-4.949072e-06	-1.546807e-09	-3.435683e+01	-1.046656e+02
5.500000e-07	-4.927785e-06	-1.515938e-09	-3.420906e+01	-1.044113e+02
5.600000e-07	-4.906174e-06	-1.548001e-09	-3.405904e+01	-1.041504e+02
5.700000e-07	-4.884141e-06	-1.552169e-09	-3.390608e+01	-1.038830e+02
5.800000e-07	-4.861653e-06	-1.514964e-09	-3.374997e+01	-1.036090e+02
5.900000e-07	-4.838946e-06	-1.528232e-09	-3.359234e+01	-1.033286e+02
6.000000e-07	-4.815956e-06	-1.545421e-09	-3.343273e+01	-1.030418e+02
6.100000e-07	-4.792633e-06	-1.508348e-09	-3.327082e+01	-1.027488e+02
6.200000e-07	-4.769123e-06	-1.511168e-09	-3.310762e+01	-1.024497e+02
6.300000e-07	-4.745429e-06	-1.525736e-09	-3.294313e+01	-1.021446e+02
6.400000e-07	-4.721455e-06	-1.506793e-09	-3.277670e+01	-1.018337e+02
6.500000e-07	-4.697119e-06	-1.490067e-09	-3.260776e+01	-1.015172e+02
6.600000e-07	-4.672417e-06	-1.510030e-09	-3.243627e+01	-1.011952e+02
6.700000e-07	-4.647167e-06	-1.487749e-09	-3.226098e+01	-1.008678e+02
6.800000e-07	-4.621203e-06	-1.474225e-09	-3.208074e+01	-1.005354e+02
6.900000e-07	-4.594699e-06	-1.479099e-09	-3.189675e+01	-1.001980e+02
7.000000e-07	-4.567843e-06	-1.481577e-09	-3.171031e+01	-9.985586e+01
7.100000e-07	-4.540623e-06	-1.460579e-09	-3.152135e+01	-9.950915e+01
7.200000e-07	-4.513130e-06	-1.469285e-09	-3.133049e+01	-9.915805e+01
7.300000e-07	-4.485499e-06	-1.462379e-09	-3.113868e+01	-9.880274e+01
7.400000e-07	-4.457708e-06	-1.449753e-09	-3.094575e+01	-9.844338e+01
7.500000e-07	-4.429676e-06	-1.438588e-09	-3.075115e+01	-9.808014e+01
7.600000e-07	-4.401341e-06	-1.439200e-09	-3.055444e+01	-9.771317e+01
7.700000e-07	-4.372641e-06	-1.422767e-09	-3.035521e+01	-9.734260e+01
7.800000e-07	-4.343641e-06	-1.418537e-09	-3.015389e+01	-9.696855e+01
7.900000e-07	-4.314309e-06	-1.414015e-09	-2.995026e+01	-9.659113e+01
8.000000e-07	-4.284605e-06	-1.407993e-09	-2.974406e+01	-9.621043e+01
8.100000e-07	-4.254632e-06	-1.395720e-09	-2.953598e+01	-9.582652e+01
8.200000e-07	-4.224400e-06	-1.390099e-09	-2.932611e+01	-9.543945e+01
8.300000e-07	-4.193907e-06	-1.378114e-09	-2.911442e+01	-9.504926e+01
8.400000e-07	-4.163064e-06	-1.363593e-09	-2.890031e+01	-9.465596e+01
8.500000e-07	-4.131961e-06	-1.358852e-09	-2.868439e+01	-9.425954e+01
8.600000e-07	-4.100687e-06	-1.359326e-09	-2.846728e+01	-9.385996e+01
8.700000e-07	-4.069213e-06	-1.354655e-09	-2.824878e+01	-9.345718e+01
8.800000e-07	-4.037578e-06	-1.349736e-09	-2.802917e+01	-9.305114e+01
8.900000e-07	-4.005804e-06	-1.347774e-09	-2.780860e+01	-9.264172e+01
9.000000e-07	-3.973830e-06	-1.333278e-09	-2.758663e+01	-9.222884e+01
9.100000e-07	-3.941517e-06	-1.320001e-09	-2.736231e+01	-9.181236e+01
9.200000e-07	-3.908786e-06	-1.310449e-09	-2.713509e+01	-9.139213e+01
9.300000e-07	-3.875511e-06	-1.303221e-09	-2.690410e+01	-9.096800e+01
9.400000e-07	-3.841684e-06	-1.293367e-09	-2.666926e+01	-9.053978e+01
9.500000e-07	-3.807471e-06	-1.296459e-09	-2.643175e+01	-9.010730e+01
9.600000e-07	-3.772825e-06	-1.293424e-09	-2.619124e+01	-8.967035e+01
9.700000e-07	-3.737847e-06	-1.285165e-09	-2.594842e+01	-8.922872e+01
9.800000e-07	-3.702735e-06	-1.272420e-09	-2.570467e+01	-8.878221e+01
9.900000e-07	-3.667408e-06	-1.265379e-09	-2.545943e+01	-8.833059e+01
1.000000e-06	-3.631885e-06	-1.250036e-09	-2.521282e+01	-8.787364e+01
1.010000e-06	-3.596239e-06	-1.242570e-09	-2.496537e+01	-8.741115e+01
1.020000e-06	-3.560492e-06	-1.240266e-09	-2.471721e+01	-8.694288e+01
1.030000e-06	-3.524546e-06	-1.240114e-09	-2.446766e+01	-8.646863e+01
1.040000e-06	-3.488292e-06	-1.230144e-09	-2.421599e+01	-8.598818e+01
1.050000e-06	-3.451742e-06	-1.225566e-09	-2.396226e+01	-8.550133e+01
1.060000e-06	-3.414877e-06	-1.215976e-09	-2.370634e+01	-8.500789e+01
1.070000e-06	-3.377755e-06	-1.203631e-09	-2.344863e+01	-8.450768e+01
1.080000e-06	-3.340392e-06	-1.191255e-09	-2.318926e+01	-8.400054e+01
1.090000e-06	-3.302847e-06	-1.184155e-09	-2.292862e+01	-8.348630e+01
1.100000e-06	-3.265122e-06	-1.173604e-09	-2.266672e+01	-8.296483e+01
1.110000e-06	-3.227152e-06	-1.164245e-09	-2.240314e+01	-8.243601e+01
1.120000e-06	-3.188908e-06	-1.156930e-09	-2.213765e+01	-8.189975e+01
1.130000e-06	-3.150401e-06	-1.147997e-09	-2.187032e+01	-8.135596e+01
1.140000e-06	-3.111725e-06	-1.135935e-09	-2.160183e+01	-8.080457e+01
1.150000e-06	-3.072841e-06	-1.125752e-09	-2.133190e+01	-8.024554e+01
1.160000e-06	-3.033711e-06	-1.118019e-09	-2.106026e+01	-7.967885e+01
1.170000e-06	-2.994441e-06	-1.107572e-09	-2.078764e+01	-7.910448e+01
1.180000e-06	-2.955108e-06	-1.097525e-09	-2.051458e+01	-7.852246e+01
1.190000e-06	-2.915555e-06	-1.088982e-09	-2.024001e+01	-7.793280e+01
1.200000e-06	-2.875846e-06	-1.080708e-09	-1.996434e+01	-7.733554e+01
1.210000e-06	-2.836043e-06	-1.071891e-09	-1.968803e+01	-7.673075e+01
1.220000e-06	-2.796053e-06	-1.063845e-09	-1.941042e+01	-7.611850e+01
1.230000e-06	-2.755968e-06	-1.050114e-09	-1.913214e+01	-7.549885e+01
1.240000e-06	-2.715763e-06	-1.038474e-09	-1.885303e+01	-7.487190e+01
1.250000e-06	-2.675300e-06	-1.025159e-09	-1.857214e+01	-7.423773e+01
1.260000e-06	-2.634459e-06	-1.018251e-09	-1.828862e+01	-7.359645e+01
1.270000e-06	-2.593406e-06	-1.008373e-09	-1.800362e+01	-7.294814e+01
1.280000e-06	-2.552156e-06	-9.993979e-10	-1.771726e+01	-7.229290e+01
1.290000e-06	-2.510456e-06	-9.922483e-10	-1.742777e+01	-7.163081e+01
1.300000e-06	-2.468378e-06	-9.826096e-10	-1.713567e+01	-7.096194e+01
1.310000e-06	-2.426084e-06	-9.687222e-10	-1.684206e+01	-7.028636e+01
1.320000e-06	-2.383510e-06	-9.551897e-10	-1.654651e+01	-6.960412e+01
1.330000e-06	-2.340606e-06	-9.428276e-10	-1.624866e+01	-6.891525e+01
1.340000e-06	-2.297455e-06	-9.302299e-10	-1.594911e+01	-6.821976e+01
1.350000e-06	-2.254188e-06	-9.197463e-10	-1.564874e+01	-6.751762e+01
1.360000e-06	-2.210865e-06	-9.136950e-10	-1.534799e+01	-6.680880e+01
1.370000e-06	-2.167454e-06	-9.061500e-10	-1.504663e+01	-6.609322e+01
1.380000e-06	-2.123959e-06	-8.987532e-10	-1.474468e+01	-6.537078e+01
1.390000e-06	-2.080381e-06	-8.864042e-10	-1.444217e+01	-6.464134e+01
1.400000e-06	-2.036684e-06	-8.698692e-10	-1.413881e+01	-6.390472e+01
1.410000e-06	-1.992852e-06	-8.543605e-10	-1.383453e+01	-6.316071e+01
1.420000e-06	-1.948902e-06	-8.422599e-10	-1.352943e+01	-6.240906e+01
1.430000e-06	-1.904801e-06	-8.316324e-10	-1.322328e+01	-6.164948e+01
1.440000e-06	-1.860627e-06	-8.219692e-10	-1.291661e+01	-6.088162e+01
1.450000e-06	-1.816414e-06	-8.121901e-10	-1.260969e+01	-6.010513e+01
1.460000e-06	-1.772046e-06	-7.997356e-10	-1.230168e+01	-5.931957e+01
1.470000e-06	-1.727492e-06	-7.864861e-10	-1.199238e+01	-5.852450e+01
1.480000e-06	-1.682829e-06	-7.719049e-10	-1.168233e+01	-5.771942e+01
1.490000e-06	-1.638050e-06	-7.587047e-10	-1.137147e+01	-5.690381e+01
1.500000e-06	-1.593049e-06	-7.458769e-10	-1.105907e+01	-5.607708e+01
1.510000e-06	-1.547911e-06	-7.352960e-10	-1.074572e+01	-5.523864e+01
1.520000e-06	-1.502725e-06	-7.276062e-10	-1.043203e+01	-5.438786e+01
1.530000e-06	-1.457428e-06	-7.186120e-10	-1.011757e+01	-5.352407e+01
1.540000e-06	-1.412038e-06	-7.081657e-10	-9.802477e+00	-5.264658e+01
1.550000e-06	-1.366632e-06	-6.935403e-10	-9.487264e+00	-5.175470e+01
1.560000e-06	-1.321172e-06	-6.757716e-10	-9.171674e+00	-5.084769e+01
1.570000e-06	-1.275524e-06	-6.551204e-10	-8.854787e+00	-4.992481e+01
1.580000e-06	-1.229817e-06	-6.373185e-10	-8.537486e+00	-4.898533e+01
1.590000e-06	-1.184012e-06	-6.214496e-10	-8.219499e+00	-4.802848e+01
1.600000e-06	-1.138037e-06	-6.101221e-10	-7.900342e+00	-4.705354e+01
1.610000e-06	-1.092078e-06	-6.016183e-10	-7.581290e+00	-4.605975e+01
1.620000e-06	-1.046049e-06	-5.885243e-10	-7.261755e+00	-4.504639e+01
1.630000e-06	-9.998807e-07	-5.698846e-10	-6.941248e+00	-4.401275e+01
1.640000e-06	-9.536228e-07	-5.497798e-10	-6.620122e+00	-4.295815e+01
1.650000e-06	-9.073591e-07	-5.286309e-10	-6.298956e+00	-4.188194e+01
1.660000e-06	-8.611464e-07	-5.060578e-10	-5.978144e+00	-4.078349e+01
1.670000e-06	-8.148246e-07	-4.919485e-10	-5.656574e+00	-3.966222e+01
1.680000e-06	-7.683174e-07	-4.816411e-10	-5.333718e+00	-3.851761e+01
1.690000e-06	-7.218216e-07	-4.703153e-10	-5.010941e+00	-3.734917e+01
1.700000e-06	-6.754253e-07	-4.539064e-10	-4.688854e+00	-3.615648e+01
1.710000e-06	-6.289816e-07	-4.318066e-10	-4.366439e+00	-3.493917e+01
1.720000e-06	-5.823726e-07	-4.056307e-10	-4.042875e+00	-3.369694e+01
1.730000e-06	-5.357100e-07	-3.806784e-10	-3.718939e+00	-3.242956e+01
1.740000e-06	-4.889934e-07	-3.593510e-10	-3.394629e+00	-3.113687e+01
1.750000e-06	-4.421951e-07	-3.425362e-10	-3.069752e+00	-2.981880e+01
1.760000e-06	-3.953567e-07	-3.289128e-10	-2.744596e+00	-2.847534e+01
1.770000e-06	-3.484708e-07	-3.179092e-10	-2.419111e+00	-2.710657e+01
1.780000e-06	-3.016127e-07	-3.008546e-10	-2.093818e+00	-2.571266e+01
1.790000e-06	-2.547352e-07	-2.799371e-10	-1.768391e+00	-2.429386e+01
1.800000e-06	-2.079040e-07	-2.568393e-10	-1.443286e+00	-2.285051e+01
1.810000e-06	-1.611188e-07	-2.319383e-10	-1.118499e+00	-2.138302e+01
1.820000e-06	-1.142422e-07	-2.070185e-10	-7.930782e-01	-1.989192e+01
1.830000e-06	-6.730961e-08	-1.866165e-10	-4.672684e-01	-1.837779e+01
1.840000e-06	-2.041749e-08	-1.699286e-10	-1.417398e-01	-1.684132e+01
1.850000e-06	2.646889e-08	-1.544150e-10	1.837491e-01	-1.528327e+01
1.860000e-06	7.333815e-08	-1.396932e-10	5.091190e-01	-1.370450e+01
1.870000e-06	1.201441e-07	-1.181750e-10	8.340497e-01	-1.210592e+01
1.880000e-06	1.669859e-07	-8.998089e-11	1.159229e+00	-1.048853e+01
1.890000e-06	2.138868e-07	-6.219587e-11	1.484818e+00	-8.853422e+00
1.900000e-06	2.608114e-07	-3.751547e-11	1.810573e+00	-7.201719e+00
1.910000e-06	3.076926e-07	-1.692768e-11	2.136025e+00	-5.534631e+00
1.920000e-06	3.544497e-07	-4.749044e-13	2.460617e+00	-3.853420e+00
1.930000e-06	4.012472e-07	1.642119e-11	2.785489e+00	-2.159402e+00
1.940000e-06	4.480089e-07	3.703693e-11	3.110112e+00	-4.539405e-01
1.950000e-06	4.945920e-07	6.053160e-11	3.433495e+00	1.261559e+00
1.960000e-06	5.411990e-07	8.684269e-11	3.757045e+00	2.985655e+00
1.970000e-06	5.878634e-07	1.155537e-10	4.080993e+00	4.716876e+00
1.980000e-06	6.344155e-07	1.426340e-10	4.404161e+00	6.453727e+00
1.990000e-06	6.808451e-07	1.661527e-10	4.726479e+00	8.194696e+00
2.000000e-06	7.273599e-07	1.847447e-10	5.049388e+00	9.938261e+00
2.010000e-06	7.738304e-07	2.041201e-10	5.371990e+00	1.168290e+01
2.020000e-06	8.202251e-07	2.237732e-10	5.694065e+00	1.342708e+01
2.030000e-06	8.666475e-07	2.490674e-10	6.016333e+00	1.516929e+01
2.040000e-06	9.129350e-07	2.792886e-10	6.337665e+00	1.690803e+01
2.050000e-06	9.590746e-07	3.087375e-10	6.657969e+00	1.864183e+01
2.060000e-06	1.005196e-06	3.357825e-10	6.978145e+00	2.036922e+01
2.070000e-06	1.051199e-06	3.568858e-10	7.297506e+00	2.208880e+01
2.080000e-06	1.097039e-06	3.741910e-10	7.615728e+00	2.379918e+01
2.090000e-06	1.142848e-06	3.920532e-10	7.933735e+00	2.549903e+01
2.100000e-06	1.188605e-06	4.149752e-10	8.251386e+00	2.718706e+01
2.110000e-06	1.234206e-06	4.410285e-10	8.567953e+00	2.886202e+01
2.120000e-06	1.279722e-06	4.666299e-10	8.883930e+00	3.052274e+01
2.130000e-06	1.325228e-06	4.915127e-10	9.199833e+00	3.216811e+01
2.140000e-06	1.370589e-06	5.150441e-10	9.514731e+00	3.379705e+01
2.150000e-06	1.415807e-06	5.360630e-10	9.828637e+00	3.540859e+01
2.160000e-06	1.460988e-06	5.546346e-10	1.014229e+01	3.700180e+01
2.170000e-06	1.506092e-06	5.735289e-10	1.045540e+01	3.857583e+01
2.180000e-06	1.551019e-06	5.929222e-10	1.076729e+01	4.012989e+01
2.190000e-06	1.595837e-06	6.138286e-10	1.107842e+01	4.166328e+01
2.200000e-06	1.640544e-06	6.379477e-10	1.138878e+01	4.317535e+01
2.210000e-06	1.685130e-06	6.588351e-10	1.169830e+01	4.466555e+01
2.220000e-06	1.729601e-06	6.744427e-10	1.200702e+01	4.613339e+01
2.230000e-06	1.773958e-06	6.918042e-10	1.231495e+01	4.757844e+01
2.240000e-06	1.818235e-06	7.117070e-10	1.262232e+01	4.900036e+01
2.250000e-06	1.862400e-06	7.309375e-10	1.292892e+01	5.039886e+01
2.260000e-06	1.906470e-06	7.519510e-10	1.323486e+01	5.177372e+01
2.270000e-06	1.950397e-06	7.733554e-10	1.353981e+01	5.312481e+01
2.280000e-06	1.994201e-06	7.922910e-10	1.384390e+01	5.445203e+01
2.290000e-06	2.037930e-06	8.097592e-10	1.414747e+01	5.575535e+01
2.300000e-06	2.081565e-06	8.260201e-10	1.445038e+01	5.703481e+01
2.310000e-06	2.125174e-06	8.399191e-10	1.475312e+01	5.829047e+01
2.320000e-06	2.168758e-06	8.555058e-10	1.505568e+01	5.952247e+01
2.330000e-06	2.212233e-06	8.742576e-10	1.535749e+01	6.073099e+01
2.340000e-06	2.255629e-06	8.934107e-10	1.565875e+01	6.191623e+01
2.350000e-06	2.298968e-06	9.098192e-10	1.595961e+01	6.307846e+01
2.360000e-06	2.342202e-06	9.245234e-10	1.625974e+01	6.421796e+01
2.370000e-06	2.385175e-06	9.389394e-10	1.655807e+01	6.533505e+01
2.380000e-06	2.427757e-06	9.520075e-10	1.685367e+01	6.643009e+01
2.390000e-06	2.470058e-06	9.673251e-10	1.714733e+01	6.750342e+01
2.400000e-06	2.512124e-06	9.826233e-10	1.743936e+01	6.855545e+01
2.410000e-06	2.553852e-06	9.954469e-10	1.772903e+01	6.958657e+01
2.420000e-06	2.595178e-06	1.008067e-09	1.801593e+01	7.059719e+01
2.430000e-06	2.636142e-06	1.021970e-09	1.830030e+01	7.158775e+01
2.440000e-06	2.676767e-06	1.035996e-09	1.858232e+01	7.255866e+01
2.450000e-06	2.717097e-06	1.047834e-09	1.886230e+01	7.351036e+01
2.460000e-06	2.757292e-06	1.059427e-09	1.914133e+01	7.444327e+01
2.470000e-06	2.797315e-06	1.072088e-09	1.941918e+01	7.535781e+01
2.480000e-06	2.837117e-06	1.083482e-09	1.969549e+01	7.625441e+01
2.490000e-06	2.876806e-06	1.094143e-09	1.997100e+01	7.713348e+01
2.500000e-06	2.916443e-06	1.106001e-09	2.024617e+01	7.799542e+01
2.510000e-06	2.956005e-06	1.120549e-09	2.052082e+01	7.884061e+01
2.520000e-06	2.995370e-06	1.134980e-09	2.079409e+01	7.966944e+01
2.530000e-06	3.034518e-06	1.147205e-09	2.106585e+01	8.048227e+01
2.540000e-06	3.073452e-06	1.159850e-09	2.133614e+01	8.127943e+01
2.550000e-06	3.112141e-06	1.171932e-09	2.160472e+01	8.206127e+01
2.560000e-06	3.150655e-06	1.181199e-09	2.187209e+01	8.282810e+01
2.570000e-06	3.189010e-06	1.189867e-09	2.213835e+01	8.358022e+01
2.580000e-06	3.227091e-06	1.200103e-09	2.240271e+01	8.431790e+01
2.590000e-06	3.264881e-06	1.212023e-09	2.266506e+01	8.504142e+01
2.600000e-06	3.302576e-06	1.223083e-09	2.292674e+01	8.575102e+01
2.610000e-06	3.340057e-06	1.232108e-09	2.318693e+01	8.644694e+01
2.620000e-06	3.377218e-06	1.239995e-09	2.344490e+01	8.712939e+01
2.630000e-06	3.414136e-06	1.249017e-09	2.370119e+01	8.779858e+01
2.640000e-06	3.450746e-06	1.257801e-09	2.395534e+01	8.845470e+01
2.650000e-06	3.487168e-06	1.267276e-09	2.420819e+01	8.909792e+01
2.660000e-06	3.523349e-06	1.279316e-09	2.445935e+01	8.972842e+01
2.670000e-06	3.559259e-06	1.289378e-09	2.470865e+01	9.034635e+01
2.680000e-06	3.595050e-06	1.298630e-09	2.495711e+01	9.095186e+01
2.690000e-06	3.630718e-06	1.305103e-09	2.520472e+01	9.154509e+01
2.700000e-06	3.666267e-06	1.308066e-09	2.545150e+01	9.212618e+01
2.710000e-06	3.701716e-06	1.313035e-09	2.569759e+01	9.269525e+01
2.720000e-06	3.736980e-06	1.321335e-09	2.594240e+01	9.325243e+01
2.730000e-06	3.772017e-06	1.329438e-09	2.618563e+01	9.379785e+01
2.740000e-06	3.806724e-06	1.337940e-09	2.642657e+01	9.433163e+01
2.750000e-06	3.840931e-06	1.345459e-09	2.666404e+01	9.485388e+01
2.760000e-06	3.874658e-06	1.351268e-09	2.689817e+01	9.536474e+01
2.770000e-06	3.907946e-06	1.355791e-09	2.712926e+01	9.586432e+01
2.780000e-06	3.940742e-06	1.359845e-09	2.735693e+01	9.635276e+01
2.790000e-06	3.973057e-06	1.367372e-09	2.758126e+01	9.683018e+01
2.800000e-06	4.005098e-06	1.377255e-09	2.780369e+01	9.729672e+01
2.810000e-06	4.036912e-06	1.385010e-09	2.802455e+01	9.775252e+01
2.820000e-06	4.068508e-06	1.391523e-09	2.824389e+01	9.819772e+01
2.830000e-06	4.100004e-06	1.397379e-09	2.846254e+01	9.863248e+01
2.840000e-06	4.131288e-06	1.402022e-09	2.867972e+01	9.905695e+01
2.850000e-06	4.162385e-06	1.405756e-09	2.889559e+01	9.947130e+01
2.860000e-06	4.193282e-06	1.409977e-09	2.911009e+01	9.987569e+01
2.870000e-06	4.223788e-06	1.416043e-09	2.932186e+01	1.002703e+02
2.880000e-06	4.253894e-06	1.421465e-09	2.953085e+01	1.006553e+02
2.890000e-06	4.283660e-06	1.426591e-09	2.973750e+01	1.010309e+02
2.900000e-06	4.313213e-06	1.430536e-09	2.994265e+01	1.013973e+02
