# Temperatura_=_2.83
# Concentracion g/m^3_=_1620.0
# C_Vs_to_Am_M_A/Vsm_=_65563218390.804596
# pendiente_HvsI_1/m_=_3716.3
# ordenada_HvsI_A/m_=_1297.0
# frecuencia_Hz_=_135105.58414588383

Tiempo_(s)	Campo_(V.s)	Magnetizacion_(V.s)	Campo_(kA/m)	Magnetizacion_(A/m)
0.000000e+00	-5.522438e-06	-1.370975e-09	-3.836052e+01	-8.888710e+01
1.000000e-08	-5.522622e-06	-1.366684e-09	-3.836179e+01	-8.887832e+01
2.000000e-08	-5.522562e-06	-1.363927e-09	-3.836137e+01	-8.886806e+01
3.000000e-08	-5.522126e-06	-1.361821e-09	-3.835835e+01	-8.885611e+01
4.000000e-08	-5.521239e-06	-1.360212e-09	-3.835219e+01	-8.884224e+01
5.000000e-08	-5.519776e-06	-1.360236e-09	-3.834202e+01	-8.882621e+01
6.000000e-08	-5.517713e-06	-1.357878e-09	-3.832769e+01	-8.880776e+01
7.000000e-08	-5.515064e-06	-1.359958e-09	-3.830929e+01	-8.878663e+01
8.000000e-08	-5.511883e-06	-1.372235e-09	-3.828719e+01	-8.876256e+01
9.000000e-08	-5.508221e-06	-1.377762e-09	-3.826175e+01	-8.873526e+01
1.000000e-07	-5.504147e-06	-1.374917e-09	-3.823346e+01	-8.870446e+01
1.100000e-07	-5.499813e-06	-1.373232e-09	-3.820335e+01	-8.866990e+01
1.200000e-07	-5.495268e-06	-1.352667e-09	-3.817178e+01	-8.863130e+01
1.300000e-07	-5.490493e-06	-1.334819e-09	-3.813861e+01	-8.858839e+01
1.400000e-07	-5.485323e-06	-1.349189e-09	-3.810270e+01	-8.854092e+01
1.500000e-07	-5.479686e-06	-1.365457e-09	-3.806355e+01	-8.848864e+01
1.600000e-07	-5.473720e-06	-1.370801e-09	-3.802210e+01	-8.843132e+01
1.700000e-07	-5.467457e-06	-1.332813e-09	-3.797860e+01	-8.836874e+01
1.800000e-07	-5.460717e-06	-1.343784e-09	-3.793178e+01	-8.830069e+01
1.900000e-07	-5.453481e-06	-1.356807e-09	-3.788151e+01	-8.822699e+01
2.000000e-07	-5.445956e-06	-1.360862e-09	-3.782925e+01	-8.814747e+01
2.100000e-07	-5.438237e-06	-1.342372e-09	-3.777563e+01	-8.806199e+01
2.200000e-07	-5.430201e-06	-1.345283e-09	-3.771981e+01	-8.797042e+01
2.300000e-07	-5.421892e-06	-1.354178e-09	-3.766209e+01	-8.787265e+01
2.400000e-07	-5.413242e-06	-1.345998e-09	-3.760201e+01	-8.776862e+01
2.500000e-07	-5.403839e-06	-1.325395e-09	-3.753669e+01	-8.765826e+01
2.600000e-07	-5.393643e-06	-1.315015e-09	-3.746586e+01	-8.754154e+01
2.700000e-07	-5.382867e-06	-1.321906e-09	-3.739101e+01	-8.741846e+01
2.800000e-07	-5.371620e-06	-1.318501e-09	-3.731289e+01	-8.728904e+01
2.900000e-07	-5.360020e-06	-1.307291e-09	-3.723231e+01	-8.715332e+01
3.000000e-07	-5.348101e-06	-1.295829e-09	-3.714951e+01	-8.701135e+01
3.100000e-07	-5.335804e-06	-1.306697e-09	-3.706410e+01	-8.686324e+01
3.200000e-07	-5.323073e-06	-1.298309e-09	-3.697566e+01	-8.670908e+01
3.300000e-07	-5.309922e-06	-1.290216e-09	-3.688431e+01	-8.654901e+01
3.400000e-07	-5.296381e-06	-1.276462e-09	-3.679025e+01	-8.638316e+01
3.500000e-07	-5.282424e-06	-1.289840e-09	-3.669330e+01	-8.621172e+01
3.600000e-07	-5.268042e-06	-1.287248e-09	-3.659340e+01	-8.603485e+01
3.700000e-07	-5.253131e-06	-1.284387e-09	-3.648983e+01	-8.585275e+01
3.800000e-07	-5.237724e-06	-1.275083e-09	-3.638280e+01	-8.566563e+01
3.900000e-07	-5.221827e-06	-1.283273e-09	-3.627238e+01	-8.547371e+01
4.000000e-07	-5.205313e-06	-1.269549e-09	-3.615767e+01	-8.527720e+01
4.100000e-07	-5.188441e-06	-1.266232e-09	-3.604047e+01	-8.507635e+01
4.200000e-07	-5.171395e-06	-1.274172e-09	-3.592207e+01	-8.487138e+01
4.300000e-07	-5.154048e-06	-1.273495e-09	-3.580156e+01	-8.466253e+01
4.400000e-07	-5.136351e-06	-1.252364e-09	-3.567863e+01	-8.445005e+01
4.500000e-07	-5.118248e-06	-1.257807e-09	-3.555289e+01	-8.423416e+01
4.600000e-07	-5.099676e-06	-1.264771e-09	-3.542388e+01	-8.401510e+01
4.700000e-07	-5.080669e-06	-1.243790e-09	-3.529185e+01	-8.379309e+01
4.800000e-07	-5.061385e-06	-1.238520e-09	-3.515790e+01	-8.356835e+01
4.900000e-07	-5.041908e-06	-1.259554e-09	-3.502261e+01	-8.334109e+01
5.000000e-07	-5.022256e-06	-1.250265e-09	-3.488610e+01	-8.311150e+01
5.100000e-07	-5.002427e-06	-1.228535e-09	-3.474836e+01	-8.287976e+01
5.200000e-07	-4.982259e-06	-1.243627e-09	-3.460827e+01	-8.264605e+01
5.300000e-07	-4.961638e-06	-1.242794e-09	-3.446503e+01	-8.241052e+01
5.400000e-07	-4.940648e-06	-1.215512e-09	-3.431923e+01	-8.217329e+01
5.500000e-07	-4.919339e-06	-1.215077e-09	-3.417121e+01	-8.193450e+01
5.600000e-07	-4.897655e-06	-1.229202e-09	-3.402058e+01	-8.169424e+01
5.700000e-07	-4.875656e-06	-1.208066e-09	-3.386777e+01	-8.145258e+01
5.800000e-07	-4.853319e-06	-1.204216e-09	-3.371261e+01	-8.120959e+01
5.900000e-07	-4.830630e-06	-1.218800e-09	-3.355501e+01	-8.096531e+01
6.000000e-07	-4.807606e-06	-1.209890e-09	-3.339508e+01	-8.071975e+01
6.100000e-07	-4.784263e-06	-1.192457e-09	-3.323293e+01	-8.047292e+01
6.200000e-07	-4.760688e-06	-1.203707e-09	-3.306917e+01	-8.022479e+01
6.300000e-07	-4.736945e-06	-1.198239e-09	-3.290424e+01	-7.997533e+01
6.400000e-07	-4.713020e-06	-1.183288e-09	-3.273805e+01	-7.972447e+01
6.500000e-07	-4.688703e-06	-1.183543e-09	-3.256914e+01	-7.947213e+01
6.600000e-07	-4.663878e-06	-1.185207e-09	-3.239669e+01	-7.921822e+01
6.700000e-07	-4.638523e-06	-1.171197e-09	-3.222057e+01	-7.896262e+01
6.800000e-07	-4.612620e-06	-1.174946e-09	-3.204065e+01	-7.870520e+01
6.900000e-07	-4.586172e-06	-1.179799e-09	-3.185693e+01	-7.844582e+01
7.000000e-07	-4.559237e-06	-1.171982e-09	-3.166983e+01	-7.818431e+01
7.100000e-07	-4.531927e-06	-1.165091e-09	-3.148012e+01	-7.792052e+01
7.200000e-07	-4.504361e-06	-1.166345e-09	-3.128864e+01	-7.765425e+01
7.300000e-07	-4.476669e-06	-1.155851e-09	-3.109629e+01	-7.738532e+01
7.400000e-07	-4.448878e-06	-1.146006e-09	-3.090324e+01	-7.711353e+01
7.500000e-07	-4.420828e-06	-1.141913e-09	-3.070840e+01	-7.683867e+01
7.600000e-07	-4.392446e-06	-1.136285e-09	-3.051125e+01	-7.656054e+01
7.700000e-07	-4.363699e-06	-1.130701e-09	-3.031156e+01	-7.627891e+01
7.800000e-07	-4.334590e-06	-1.130133e-09	-3.010936e+01	-7.599359e+01
7.900000e-07	-4.305237e-06	-1.126886e-09	-2.990547e+01	-7.570434e+01
8.000000e-07	-4.275652e-06	-1.118531e-09	-2.969996e+01	-7.541097e+01
8.100000e-07	-4.245777e-06	-1.110222e-09	-2.949244e+01	-7.511326e+01
8.200000e-07	-4.215560e-06	-1.099107e-09	-2.928254e+01	-7.481101e+01
8.300000e-07	-4.185069e-06	-1.085955e-09	-2.907074e+01	-7.450401e+01
8.400000e-07	-4.154326e-06	-1.080509e-09	-2.885720e+01	-7.419208e+01
8.500000e-07	-4.123211e-06	-1.081926e-09	-2.864107e+01	-7.387503e+01
8.600000e-07	-4.091844e-06	-1.076823e-09	-2.842318e+01	-7.355269e+01
8.700000e-07	-4.060386e-06	-1.070830e-09	-2.820466e+01	-7.322490e+01
8.800000e-07	-4.028773e-06	-1.066033e-09	-2.798507e+01	-7.289151e+01
8.900000e-07	-3.996976e-06	-1.060094e-09	-2.776420e+01	-7.255237e+01
9.000000e-07	-3.965023e-06	-1.047052e-09	-2.754224e+01	-7.220737e+01
9.100000e-07	-3.932818e-06	-1.041047e-09	-2.731854e+01	-7.185640e+01
9.200000e-07	-3.900160e-06	-1.035722e-09	-2.709168e+01	-7.149935e+01
9.300000e-07	-3.867026e-06	-1.029517e-09	-2.686152e+01	-7.113616e+01
9.400000e-07	-3.833426e-06	-1.023802e-09	-2.662813e+01	-7.076676e+01
9.500000e-07	-3.799330e-06	-1.019966e-09	-2.639129e+01	-7.039109e+01
9.600000e-07	-3.764712e-06	-1.011552e-09	-2.615082e+01	-7.000913e+01
9.700000e-07	-3.729636e-06	-1.003216e-09	-2.590717e+01	-6.962087e+01
9.800000e-07	-3.694374e-06	-9.956373e-10	-2.566223e+01	-6.922630e+01
9.900000e-07	-3.658984e-06	-9.889088e-10	-2.541640e+01	-6.882544e+01
1.000000e-06	-3.623394e-06	-9.829618e-10	-2.516918e+01	-6.841832e+01
1.010000e-06	-3.587704e-06	-9.825859e-10	-2.492127e+01	-6.800499e+01
1.020000e-06	-3.551950e-06	-9.791769e-10	-2.467291e+01	-6.758551e+01
1.030000e-06	-3.515992e-06	-9.722574e-10	-2.442314e+01	-6.715996e+01
1.040000e-06	-3.479751e-06	-9.637616e-10	-2.417140e+01	-6.672843e+01
1.050000e-06	-3.443213e-06	-9.558141e-10	-2.391759e+01	-6.629101e+01
1.060000e-06	-3.406417e-06	-9.430550e-10	-2.366200e+01	-6.584782e+01
1.070000e-06	-3.369378e-06	-9.286193e-10	-2.340471e+01	-6.539898e+01
1.080000e-06	-3.332036e-06	-9.207623e-10	-2.314532e+01	-6.494463e+01
1.090000e-06	-3.294428e-06	-9.160206e-10	-2.288409e+01	-6.448490e+01
1.100000e-06	-3.256623e-06	-9.110109e-10	-2.262148e+01	-6.401994e+01
1.110000e-06	-3.218628e-06	-9.070517e-10	-2.235756e+01	-6.354990e+01
1.120000e-06	-3.180327e-06	-9.020658e-10	-2.209151e+01	-6.307494e+01
1.130000e-06	-3.141781e-06	-8.932361e-10	-2.182375e+01	-6.259522e+01
1.140000e-06	-3.103098e-06	-8.822938e-10	-2.155505e+01	-6.211089e+01
1.150000e-06	-3.064196e-06	-8.719047e-10	-2.128483e+01	-6.162211e+01
1.160000e-06	-3.025078e-06	-8.636937e-10	-2.101310e+01	-6.112905e+01
1.170000e-06	-2.985784e-06	-8.561213e-10	-2.074015e+01	-6.063184e+01
1.180000e-06	-2.946357e-06	-8.525411e-10	-2.046628e+01	-6.013065e+01
1.190000e-06	-2.906783e-06	-8.489244e-10	-2.019139e+01	-5.962561e+01
1.200000e-06	-2.867023e-06	-8.424835e-10	-1.991521e+01	-5.911684e+01
1.210000e-06	-2.827134e-06	-8.345185e-10	-1.963813e+01	-5.860448e+01
1.220000e-06	-2.787101e-06	-8.275401e-10	-1.936004e+01	-5.808862e+01
1.230000e-06	-2.746974e-06	-8.192935e-10	-1.908131e+01	-5.756936e+01
1.240000e-06	-2.706681e-06	-8.084096e-10	-1.880142e+01	-5.704679e+01
1.250000e-06	-2.666199e-06	-7.959361e-10	-1.852022e+01	-5.652095e+01
1.260000e-06	-2.625495e-06	-7.861043e-10	-1.823747e+01	-5.599189e+01
1.270000e-06	-2.584444e-06	-7.777740e-10	-1.795233e+01	-5.545964e+01
1.280000e-06	-2.543041e-06	-7.737354e-10	-1.766473e+01	-5.492418e+01
1.290000e-06	-2.501233e-06	-7.706668e-10	-1.737432e+01	-5.438551e+01
1.300000e-06	-2.459227e-06	-7.661368e-10	-1.708253e+01	-5.384357e+01
1.310000e-06	-2.417052e-06	-7.572134e-10	-1.678957e+01	-5.329829e+01
1.320000e-06	-2.374529e-06	-7.463790e-10	-1.649419e+01	-5.274957e+01
1.330000e-06	-2.331655e-06	-7.336581e-10	-1.619638e+01	-5.219729e+01
1.340000e-06	-2.288504e-06	-7.190013e-10	-1.589663e+01	-5.164128e+01
1.350000e-06	-2.245174e-06	-7.067661e-10	-1.559565e+01	-5.108137e+01
1.360000e-06	-2.201713e-06	-6.990496e-10	-1.529376e+01	-5.051734e+01
1.370000e-06	-2.158158e-06	-6.922423e-10	-1.499121e+01	-4.994895e+01
1.380000e-06	-2.114582e-06	-6.868653e-10	-1.468852e+01	-4.937593e+01
1.390000e-06	-2.070926e-06	-6.813855e-10	-1.438528e+01	-4.879797e+01
1.400000e-06	-2.027184e-06	-6.736641e-10	-1.408143e+01	-4.821476e+01
1.410000e-06	-1.983393e-06	-6.618533e-10	-1.377724e+01	-4.762592e+01
1.420000e-06	-1.939503e-06	-6.473504e-10	-1.347237e+01	-4.703108e+01
1.430000e-06	-1.895554e-06	-6.328818e-10	-1.316709e+01	-4.642981e+01
1.440000e-06	-1.851465e-06	-6.190487e-10	-1.286083e+01	-4.582167e+01
1.450000e-06	-1.807107e-06	-6.081460e-10	-1.255271e+01	-4.520621e+01
1.460000e-06	-1.762594e-06	-6.003144e-10	-1.224351e+01	-4.458293e+01
1.470000e-06	-1.718084e-06	-5.935905e-10	-1.193433e+01	-4.395132e+01
1.480000e-06	-1.673519e-06	-5.856562e-10	-1.162477e+01	-4.331085e+01
1.490000e-06	-1.628791e-06	-5.764862e-10	-1.131407e+01	-4.266098e+01
1.500000e-06	-1.583888e-06	-5.657049e-10	-1.100216e+01	-4.200114e+01
1.510000e-06	-1.538808e-06	-5.526029e-10	-1.068902e+01	-4.133075e+01
1.520000e-06	-1.493636e-06	-5.371768e-10	-1.037524e+01	-4.064924e+01
1.530000e-06	-1.448375e-06	-5.229828e-10	-1.006085e+01	-3.995600e+01
1.540000e-06	-1.403013e-06	-5.124342e-10	-9.745749e+00	-3.925045e+01
1.550000e-06	-1.357567e-06	-5.035179e-10	-9.430068e+00	-3.853199e+01
1.560000e-06	-1.312010e-06	-4.946087e-10	-9.113616e+00	-3.780001e+01
1.570000e-06	-1.266425e-06	-4.864701e-10	-8.796968e+00	-3.705395e+01
1.580000e-06	-1.220795e-06	-4.765298e-10	-8.480012e+00	-3.629321e+01
1.590000e-06	-1.175071e-06	-4.649202e-10	-8.162399e+00	-3.551723e+01
1.600000e-06	-1.129282e-06	-4.517942e-10	-7.844335e+00	-3.472546e+01
1.610000e-06	-1.083351e-06	-4.375802e-10	-7.525280e+00	-3.391739e+01
1.620000e-06	-1.037387e-06	-4.225416e-10	-7.205999e+00	-3.309250e+01
1.630000e-06	-9.914451e-07	-4.097069e-10	-6.886876e+00	-3.225032e+01
1.640000e-06	-9.453407e-07	-3.988618e-10	-6.566621e+00	-3.139041e+01
1.650000e-06	-8.990615e-07	-3.873992e-10	-6.245151e+00	-3.051236e+01
1.660000e-06	-8.526792e-07	-3.742248e-10	-5.922966e+00	-2.961580e+01
1.670000e-06	-8.062675e-07	-3.597858e-10	-5.600576e+00	-2.870041e+01
1.680000e-06	-7.598371e-07	-3.445447e-10	-5.278057e+00	-2.776591e+01
1.690000e-06	-7.134105e-07	-3.306557e-10	-4.955563e+00	-2.681206e+01
1.700000e-06	-6.669483e-07	-3.186402e-10	-4.632823e+00	-2.583869e+01
1.710000e-06	-6.203874e-07	-3.068649e-10	-4.309397e+00	-2.484567e+01
1.720000e-06	-5.737497e-07	-2.947787e-10	-3.985438e+00	-2.383294e+01
1.730000e-06	-5.270909e-07	-2.806797e-10	-3.661332e+00	-2.280047e+01
1.740000e-06	-4.804090e-07	-2.618091e-10	-3.337066e+00	-2.174833e+01
1.750000e-06	-4.337486e-07	-2.404066e-10	-3.012948e+00	-2.067662e+01
1.760000e-06	-3.870488e-07	-2.203552e-10	-2.688557e+00	-1.958553e+01
1.770000e-06	-3.402326e-07	-2.037183e-10	-2.363358e+00	-1.847529e+01
1.780000e-06	-2.933482e-07	-1.899278e-10	-2.037685e+00	-1.734620e+01
1.790000e-06	-2.463618e-07	-1.776024e-10	-1.711303e+00	-1.619865e+01
1.800000e-06	-1.994050e-07	-1.655402e-10	-1.385127e+00	-1.503306e+01
1.810000e-06	-1.524665e-07	-1.501731e-10	-1.059078e+00	-1.384994e+01
1.820000e-06	-1.055345e-07	-1.317995e-10	-7.330741e-01	-1.264986e+01
1.830000e-06	-5.870845e-08	-1.112397e-10	-4.078065e-01	-1.143343e+01
1.840000e-06	-1.189284e-08	-8.969329e-11	-8.261127e-02	-1.020135e+01
1.850000e-06	3.493782e-08	-7.078777e-11	2.426886e-01	-8.954367e+00
1.860000e-06	8.178046e-08	-5.580170e-11	5.680716e-01	-7.693280e+00
1.870000e-06	1.285554e-07	-4.083218e-11	8.929842e-01	-6.418948e+00
1.880000e-06	1.753210e-07	-2.434240e-11	1.217833e+00	-5.132280e+00
1.890000e-06	2.221629e-07	-7.360205e-12	1.543210e+00	-3.834231e+00
1.900000e-06	2.690091e-07	9.865720e-12	1.868618e+00	-2.525801e+00
1.910000e-06	3.157515e-07	2.649137e-11	2.193305e+00	-1.208028e+00
1.920000e-06	3.624882e-07	4.352895e-11	2.517952e+00	1.180118e-01
1.930000e-06	4.093431e-07	6.421247e-11	2.843420e+00	1.451211e+00
1.940000e-06	4.561683e-07	8.581364e-11	3.168682e+00	2.790437e+00
1.950000e-06	5.028766e-07	1.055487e-10	3.493132e+00	4.134533e+00
1.960000e-06	5.494590e-07	1.233601e-10	3.816707e+00	5.482327e+00
1.970000e-06	5.959463e-07	1.396411e-10	4.139622e+00	6.832631e+00
1.980000e-06	6.424197e-07	1.561005e-10	4.462440e+00	8.184253e+00
1.990000e-06	6.888879e-07	1.724895e-10	4.785222e+00	9.535998e+00
2.000000e-06	7.352847e-07	1.894425e-10	5.107508e+00	1.088667e+01
2.010000e-06	7.815887e-07	2.085105e-10	5.429150e+00	1.223509e+01
2.020000e-06	8.279097e-07	2.274144e-10	5.750909e+00	1.358008e+01
2.030000e-06	8.742412e-07	2.485005e-10	6.072742e+00	1.492048e+01
2.040000e-06	9.204564e-07	2.716080e-10	6.393767e+00	1.625517e+01
2.050000e-06	9.665506e-07	2.927363e-10	6.713951e+00	1.758304e+01
2.060000e-06	1.012560e-06	3.121526e-10	7.033545e+00	1.890300e+01
2.070000e-06	1.058570e-06	3.305747e-10	7.353148e+00	2.021403e+01
2.080000e-06	1.104525e-06	3.476513e-10	7.672366e+00	2.151512e+01
2.090000e-06	1.150336e-06	3.648648e-10	7.990581e+00	2.280531e+01
2.100000e-06	1.196114e-06	3.839560e-10	8.308568e+00	2.408368e+01
2.110000e-06	1.241861e-06	4.021408e-10	8.626338e+00	2.534938e+01
2.120000e-06	1.287456e-06	4.194696e-10	8.943055e+00	2.660160e+01
2.130000e-06	1.332963e-06	4.359052e-10	9.259161e+00	2.783956e+01
2.140000e-06	1.378436e-06	4.519933e-10	9.575031e+00	2.906258e+01
2.150000e-06	1.423759e-06	4.683185e-10	9.889861e+00	3.027000e+01
2.160000e-06	1.468929e-06	4.848312e-10	1.020363e+01	3.146123e+01
2.170000e-06	1.514048e-06	5.025103e-10	1.051704e+01	3.263575e+01
2.180000e-06	1.559052e-06	5.202615e-10	1.082965e+01	3.379310e+01
2.190000e-06	1.603944e-06	5.375597e-10	1.114148e+01	3.493285e+01
2.200000e-06	1.648720e-06	5.540927e-10	1.145250e+01	3.605466e+01
2.210000e-06	1.693303e-06	5.674161e-10	1.176219e+01	3.715825e+01
2.220000e-06	1.737698e-06	5.786179e-10	1.207057e+01	3.824336e+01
2.230000e-06	1.781993e-06	5.897027e-10	1.237826e+01	3.930984e+01
2.240000e-06	1.826180e-06	6.036113e-10	1.268520e+01	4.035756e+01
2.250000e-06	1.870218e-06	6.213355e-10	1.299109e+01	4.138644e+01
2.260000e-06	1.914183e-06	6.400217e-10	1.329649e+01	4.239647e+01
2.270000e-06	1.958061e-06	6.566879e-10	1.360128e+01	4.338767e+01
2.280000e-06	2.001855e-06	6.700787e-10	1.390549e+01	4.436013e+01
2.290000e-06	2.045618e-06	6.806418e-10	1.420948e+01	4.531396e+01
2.300000e-06	2.089313e-06	6.883843e-10	1.451300e+01	4.624930e+01
2.310000e-06	2.132934e-06	6.961502e-10	1.481600e+01	4.716637e+01
2.320000e-06	2.176492e-06	7.089055e-10	1.511856e+01	4.806538e+01
2.330000e-06	2.219912e-06	7.252828e-10	1.542017e+01	4.894658e+01
2.340000e-06	2.263219e-06	7.404987e-10	1.572100e+01	4.981027e+01
2.350000e-06	2.306450e-06	7.525553e-10	1.602130e+01	5.065674e+01
2.360000e-06	2.349467e-06	7.639529e-10	1.632010e+01	5.148632e+01
2.370000e-06	2.392109e-06	7.755888e-10	1.661631e+01	5.229936e+01
2.380000e-06	2.434376e-06	7.850641e-10	1.690991e+01	5.309620e+01
2.390000e-06	2.476327e-06	7.934816e-10	1.720131e+01	5.387721e+01
2.400000e-06	2.517938e-06	8.015110e-10	1.749035e+01	5.464277e+01
2.410000e-06	2.559277e-06	8.115023e-10	1.777751e+01	5.539325e+01
2.420000e-06	2.600386e-06	8.239566e-10	1.806306e+01	5.612902e+01
2.430000e-06	2.641230e-06	8.364671e-10	1.834677e+01	5.685046e+01
2.440000e-06	2.681844e-06	8.471542e-10	1.862889e+01	5.755796e+01
2.450000e-06	2.722277e-06	8.549857e-10	1.890975e+01	5.825186e+01
2.460000e-06	2.762502e-06	8.634913e-10	1.918917e+01	5.893254e+01
2.470000e-06	2.802500e-06	8.727025e-10	1.946701e+01	5.960035e+01
2.480000e-06	2.842360e-06	8.811438e-10	1.974388e+01	6.025562e+01
2.490000e-06	2.882128e-06	8.884498e-10	2.002013e+01	6.089869e+01
2.500000e-06	2.921743e-06	8.952231e-10	2.029530e+01	6.152986e+01
2.510000e-06	2.961212e-06	9.042106e-10	2.056947e+01	6.214946e+01
2.520000e-06	3.000577e-06	9.128677e-10	2.084291e+01	6.275775e+01
2.530000e-06	3.039738e-06	9.240360e-10	2.111494e+01	6.335503e+01
2.540000e-06	3.078720e-06	9.366736e-10	2.138572e+01	6.394155e+01
2.550000e-06	3.117459e-06	9.482730e-10	2.165481e+01	6.451755e+01
2.560000e-06	3.155894e-06	9.554049e-10	2.192179e+01	6.508328e+01
2.570000e-06	3.194072e-06	9.594017e-10	2.218698e+01	6.563895e+01
2.580000e-06	3.232067e-06	9.653099e-10	2.245091e+01	6.618476e+01
2.590000e-06	3.269905e-06	9.740865e-10	2.271374e+01	6.672092e+01
2.600000e-06	3.307501e-06	9.820400e-10	2.297490e+01	6.724762e+01
2.610000e-06	3.344872e-06	9.888927e-10	2.323449e+01	6.776501e+01
2.620000e-06	3.382032e-06	9.952175e-10	2.349261e+01	6.827328e+01
2.630000e-06	3.418970e-06	1.000520e-09	2.374919e+01	6.877258e+01
2.640000e-06	3.455604e-06	1.006307e-09	2.400367e+01	6.926307e+01
2.650000e-06	3.491896e-06	1.013039e-09	2.425576e+01	6.974488e+01
2.660000e-06	3.527981e-06	1.022410e-09	2.450641e+01	7.021817e+01
2.670000e-06	3.563957e-06	1.030233e-09	2.475631e+01	7.068307e+01
2.680000e-06	3.599789e-06	1.035029e-09	2.500522e+01	7.113972e+01
2.690000e-06	3.635493e-06	1.038187e-09	2.525323e+01	7.158826e+01
2.700000e-06	3.671087e-06	1.042040e-09	2.550047e+01	7.202883e+01
2.710000e-06	3.706563e-06	1.046759e-09	2.574690e+01	7.246155e+01
2.720000e-06	3.741769e-06	1.051633e-09	2.599145e+01	7.288658e+01
2.730000e-06	3.776581e-06	1.057865e-09	2.623327e+01	7.330405e+01
2.740000e-06	3.811019e-06	1.065379e-09	2.647248e+01	7.371410e+01
2.750000e-06	3.844959e-06	1.072766e-09	2.670824e+01	7.411689e+01
2.760000e-06	3.878423e-06	1.080404e-09	2.694069e+01	7.451256e+01
2.770000e-06	3.911416e-06	1.085862e-09	2.716987e+01	7.490127e+01
2.780000e-06	3.943884e-06	1.090803e-09	2.739540e+01	7.528317e+01
2.790000e-06	3.976057e-06	1.096442e-09	2.761889e+01	7.565842e+01
2.800000e-06	4.008051e-06	1.101925e-09	2.784112e+01	7.602719e+01
2.810000e-06	4.039853e-06	1.105939e-09	2.806203e+01	7.638964e+01
2.820000e-06	4.071522e-06	1.108730e-09	2.828201e+01	7.674593e+01
2.830000e-06	4.103022e-06	1.112195e-09	2.850083e+01	7.709623e+01
2.840000e-06	4.134271e-06	1.116911e-09	2.871789e+01	7.744070e+01
2.850000e-06	4.165296e-06	1.122653e-09	2.893340e+01	7.777951e+01
2.860000e-06	4.196013e-06	1.129219e-09	2.914677e+01	7.811283e+01
2.870000e-06	4.226325e-06	1.134972e-09	2.935732e+01	7.844081e+01
2.880000e-06	4.256357e-06	1.138679e-09	2.956594e+01	7.876360e+01
2.890000e-06	4.286110e-06	1.141128e-09	2.977261e+01	7.908136e+01
2.900000e-06	4.315565e-06	1.142624e-09	2.997721e+01	7.939422e+01
2.910000e-06	4.344858e-06	1.144669e-09	3.018069e+01	7.970233e+01
