# Temperatura_=_-0.4
# Concentracion g/m^3_=_1620.0
# C_Vs_to_Am_M_A/Vsm_=_65563218390.804596
# pendiente_HvsI_1/m_=_3716.3
# ordenada_HvsI_A/m_=_1297.0
# frecuencia_Hz_=_135088.0013929785

Tiempo_(s)	Campo_(V.s)	Magnetizacion_(V.s)	Campo_(kA/m)	Magnetizacion_(A/m)
0.000000e+00	-5.520227e-06	-1.749316e-09	-3.837575e+01	-1.132472e+02
1.000000e-08	-5.520510e-06	-1.745205e-09	-3.837772e+01	-1.131825e+02
2.000000e-08	-5.520535e-06	-1.741222e-09	-3.837789e+01	-1.131140e+02
3.000000e-08	-5.520176e-06	-1.738587e-09	-3.837540e+01	-1.130420e+02
4.000000e-08	-5.519239e-06	-1.737893e-09	-3.836888e+01	-1.129663e+02
5.000000e-08	-5.517687e-06	-1.737541e-09	-3.835809e+01	-1.128872e+02
6.000000e-08	-5.515625e-06	-1.739967e-09	-3.834376e+01	-1.128045e+02
7.000000e-08	-5.512985e-06	-1.757228e-09	-3.832541e+01	-1.127185e+02
8.000000e-08	-5.509797e-06	-1.770618e-09	-3.830324e+01	-1.126291e+02
9.000000e-08	-5.506184e-06	-1.727240e-09	-3.827812e+01	-1.125364e+02
1.000000e-07	-5.502195e-06	-1.658539e-09	-3.825040e+01	-1.124404e+02
1.100000e-07	-5.497921e-06	-1.726174e-09	-3.822068e+01	-1.123413e+02
1.200000e-07	-5.493435e-06	-1.777284e-09	-3.818950e+01	-1.122390e+02
1.300000e-07	-5.488655e-06	-1.755636e-09	-3.815627e+01	-1.121337e+02
1.400000e-07	-5.483489e-06	-1.664950e-09	-3.812035e+01	-1.120254e+02
1.500000e-07	-5.477922e-06	-1.707839e-09	-3.808165e+01	-1.119141e+02
1.600000e-07	-5.471919e-06	-1.779939e-09	-3.803992e+01	-1.117998e+02
1.700000e-07	-5.465569e-06	-1.751549e-09	-3.799578e+01	-1.116827e+02
1.800000e-07	-5.458849e-06	-1.670735e-09	-3.794906e+01	-1.115628e+02
1.900000e-07	-5.451762e-06	-1.668950e-09	-3.789979e+01	-1.114400e+02
2.000000e-07	-5.444351e-06	-1.722667e-09	-3.784827e+01	-1.113145e+02
2.100000e-07	-5.436607e-06	-1.716278e-09	-3.779444e+01	-1.111863e+02
2.200000e-07	-5.428652e-06	-1.680172e-09	-3.773913e+01	-1.110553e+02
2.300000e-07	-5.420457e-06	-1.645971e-09	-3.768216e+01	-1.109217e+02
2.400000e-07	-5.411820e-06	-1.670404e-09	-3.762212e+01	-1.107854e+02
2.500000e-07	-5.402527e-06	-1.650033e-09	-3.755752e+01	-1.106464e+02
2.600000e-07	-5.392397e-06	-1.641641e-09	-3.748710e+01	-1.105047e+02
2.700000e-07	-5.381656e-06	-1.622006e-09	-3.741242e+01	-1.103604e+02
2.800000e-07	-5.370526e-06	-1.643700e-09	-3.733505e+01	-1.102134e+02
2.900000e-07	-5.359005e-06	-1.628020e-09	-3.725496e+01	-1.100638e+02
3.000000e-07	-5.347119e-06	-1.625925e-09	-3.717233e+01	-1.099114e+02
3.100000e-07	-5.334833e-06	-1.615101e-09	-3.708692e+01	-1.097562e+02
3.200000e-07	-5.322089e-06	-1.639603e-09	-3.699833e+01	-1.095984e+02
3.300000e-07	-5.308979e-06	-1.635077e-09	-3.690719e+01	-1.094377e+02
3.400000e-07	-5.295534e-06	-1.622402e-09	-3.681372e+01	-1.092741e+02
3.500000e-07	-5.281577e-06	-1.609514e-09	-3.671669e+01	-1.091076e+02
3.600000e-07	-5.267110e-06	-1.636084e-09	-3.661612e+01	-1.089382e+02
3.700000e-07	-5.252219e-06	-1.618318e-09	-3.651260e+01	-1.087658e+02
3.800000e-07	-5.236867e-06	-1.592319e-09	-3.640588e+01	-1.085903e+02
3.900000e-07	-5.221034e-06	-1.618073e-09	-3.629581e+01	-1.084116e+02
4.000000e-07	-5.204750e-06	-1.626401e-09	-3.618261e+01	-1.082297e+02
4.100000e-07	-5.188082e-06	-1.581280e-09	-3.606673e+01	-1.080445e+02
4.200000e-07	-5.171177e-06	-1.590596e-09	-3.594921e+01	-1.078559e+02
4.300000e-07	-5.153939e-06	-1.642893e-09	-3.582938e+01	-1.076639e+02
4.400000e-07	-5.136248e-06	-1.591409e-09	-3.570639e+01	-1.074683e+02
4.500000e-07	-5.118124e-06	-1.551568e-09	-3.558039e+01	-1.072690e+02
4.600000e-07	-5.099603e-06	-1.603063e-09	-3.545164e+01	-1.070661e+02
4.700000e-07	-5.080741e-06	-1.615791e-09	-3.532051e+01	-1.068593e+02
4.800000e-07	-5.061615e-06	-1.542391e-09	-3.518755e+01	-1.066486e+02
4.900000e-07	-5.042233e-06	-1.570241e-09	-3.505281e+01	-1.064339e+02
5.000000e-07	-5.022605e-06	-1.608267e-09	-3.491636e+01	-1.062152e+02
5.100000e-07	-5.002743e-06	-1.557045e-09	-3.477829e+01	-1.059922e+02
5.200000e-07	-4.982584e-06	-1.535816e-09	-3.463814e+01	-1.057650e+02
5.300000e-07	-4.962101e-06	-1.597112e-09	-3.449574e+01	-1.055335e+02
5.400000e-07	-4.941260e-06	-1.554783e-09	-3.435086e+01	-1.052976e+02
5.500000e-07	-4.919991e-06	-1.509004e-09	-3.420300e+01	-1.050571e+02
5.600000e-07	-4.898370e-06	-1.556011e-09	-3.405270e+01	-1.048121e+02
5.700000e-07	-4.876522e-06	-1.572230e-09	-3.390081e+01	-1.045624e+02
5.800000e-07	-4.854298e-06	-1.512329e-09	-3.374631e+01	-1.043079e+02
5.900000e-07	-4.831606e-06	-1.532197e-09	-3.358856e+01	-1.040487e+02
6.000000e-07	-4.808538e-06	-1.558680e-09	-3.342820e+01	-1.037847e+02
6.100000e-07	-4.785248e-06	-1.516927e-09	-3.326629e+01	-1.035157e+02
6.200000e-07	-4.761756e-06	-1.503986e-09	-3.310298e+01	-1.032417e+02
6.300000e-07	-4.738021e-06	-1.541500e-09	-3.293798e+01	-1.029627e+02
6.400000e-07	-4.714008e-06	-1.518591e-09	-3.277104e+01	-1.026787e+02
6.500000e-07	-4.689637e-06	-1.497066e-09	-3.260162e+01	-1.023895e+02
6.600000e-07	-4.664812e-06	-1.522445e-09	-3.242904e+01	-1.020951e+02
6.700000e-07	-4.639487e-06	-1.515295e-09	-3.225299e+01	-1.017956e+02
6.800000e-07	-4.613698e-06	-1.484038e-09	-3.207370e+01	-1.014908e+02
6.900000e-07	-4.587345e-06	-1.490220e-09	-3.189050e+01	-1.011807e+02
7.000000e-07	-4.560465e-06	-1.494006e-09	-3.170364e+01	-1.008654e+02
7.100000e-07	-4.533246e-06	-1.468231e-09	-3.151441e+01	-1.005447e+02
7.200000e-07	-4.505755e-06	-1.467935e-09	-3.132330e+01	-1.002186e+02
7.300000e-07	-4.478104e-06	-1.479923e-09	-3.113107e+01	-9.988720e+01
7.400000e-07	-4.450301e-06	-1.470761e-09	-3.093779e+01	-9.955037e+01
7.500000e-07	-4.422221e-06	-1.456740e-09	-3.074258e+01	-9.920812e+01
7.600000e-07	-4.393869e-06	-1.461853e-09	-3.054548e+01	-9.886042e+01
7.700000e-07	-4.365238e-06	-1.449663e-09	-3.034645e+01	-9.850727e+01
7.800000e-07	-4.336267e-06	-1.435662e-09	-3.014505e+01	-9.814864e+01
7.900000e-07	-4.306987e-06	-1.429952e-09	-2.994150e+01	-9.778451e+01
8.000000e-07	-4.277462e-06	-1.423710e-09	-2.973625e+01	-9.741487e+01
8.100000e-07	-4.247644e-06	-1.405851e-09	-2.952895e+01	-9.703970e+01
8.200000e-07	-4.217521e-06	-1.404489e-09	-2.931954e+01	-9.665899e+01
8.300000e-07	-4.187120e-06	-1.399436e-09	-2.910820e+01	-9.627272e+01
8.400000e-07	-4.156386e-06	-1.386651e-09	-2.889455e+01	-9.588087e+01
8.500000e-07	-4.125325e-06	-1.376902e-09	-2.867861e+01	-9.548342e+01
8.600000e-07	-4.094066e-06	-1.377998e-09	-2.846130e+01	-9.508036e+01
8.700000e-07	-4.062635e-06	-1.364858e-09	-2.824280e+01	-9.467168e+01
8.800000e-07	-4.031027e-06	-1.356617e-09	-2.802307e+01	-9.425735e+01
8.900000e-07	-3.999292e-06	-1.352080e-09	-2.780245e+01	-9.383736e+01
9.000000e-07	-3.967297e-06	-1.339556e-09	-2.758003e+01	-9.341170e+01
9.100000e-07	-3.934896e-06	-1.325211e-09	-2.735478e+01	-9.298034e+01
9.200000e-07	-3.902189e-06	-1.325603e-09	-2.712741e+01	-9.254328e+01
9.300000e-07	-3.869171e-06	-1.319661e-09	-2.689787e+01	-9.210050e+01
9.400000e-07	-3.835725e-06	-1.307646e-09	-2.666536e+01	-9.165198e+01
9.500000e-07	-3.801713e-06	-1.302604e-09	-2.642891e+01	-9.119773e+01
9.600000e-07	-3.767088e-06	-1.300459e-09	-2.618821e+01	-9.073773e+01
9.700000e-07	-3.732053e-06	-1.287575e-09	-2.594465e+01	-9.027196e+01
9.800000e-07	-3.696790e-06	-1.276860e-09	-2.569950e+01	-8.980044e+01
9.900000e-07	-3.661396e-06	-1.275030e-09	-2.545345e+01	-8.932315e+01
1.000000e-06	-3.625870e-06	-1.264375e-09	-2.520648e+01	-8.884009e+01
1.010000e-06	-3.590225e-06	-1.254125e-09	-2.495868e+01	-8.835128e+01
1.020000e-06	-3.554470e-06	-1.253113e-09	-2.471012e+01	-8.785671e+01
1.030000e-06	-3.518586e-06	-1.251412e-09	-2.446065e+01	-8.735640e+01
1.040000e-06	-3.482423e-06	-1.240631e-09	-2.420926e+01	-8.685035e+01
1.050000e-06	-3.445945e-06	-1.236136e-09	-2.395567e+01	-8.633860e+01
1.060000e-06	-3.409204e-06	-1.228714e-09	-2.370025e+01	-8.582114e+01
1.070000e-06	-3.372190e-06	-1.215736e-09	-2.344293e+01	-8.529801e+01
1.080000e-06	-3.334876e-06	-1.204151e-09	-2.318353e+01	-8.476923e+01
1.090000e-06	-3.297295e-06	-1.199806e-09	-2.292228e+01	-8.423483e+01
1.100000e-06	-3.259538e-06	-1.189158e-09	-2.265979e+01	-8.369484e+01
1.110000e-06	-3.221594e-06	-1.182566e-09	-2.239602e+01	-8.314928e+01
1.120000e-06	-3.183401e-06	-1.177793e-09	-2.213050e+01	-8.259819e+01
1.130000e-06	-3.145034e-06	-1.171393e-09	-2.186378e+01	-8.204161e+01
1.140000e-06	-3.106376e-06	-1.158482e-09	-2.159504e+01	-8.147955e+01
1.150000e-06	-3.067387e-06	-1.149544e-09	-2.132399e+01	-8.091206e+01
1.160000e-06	-3.028289e-06	-1.142236e-09	-2.105219e+01	-8.033916e+01
1.170000e-06	-2.989122e-06	-1.131707e-09	-2.077991e+01	-7.976088e+01
1.180000e-06	-2.949852e-06	-1.123432e-09	-2.050691e+01	-7.917722e+01
1.190000e-06	-2.910367e-06	-1.120859e-09	-2.023241e+01	-7.858822e+01
1.200000e-06	-2.870710e-06	-1.112763e-09	-1.995672e+01	-7.799388e+01
1.210000e-06	-2.830999e-06	-1.103464e-09	-1.968066e+01	-7.739420e+01
1.220000e-06	-2.791174e-06	-1.094037e-09	-1.940380e+01	-7.678917e+01
1.230000e-06	-2.751138e-06	-1.081707e-09	-1.912548e+01	-7.617876e+01
1.240000e-06	-2.710869e-06	-1.069181e-09	-1.884554e+01	-7.556295e+01
1.250000e-06	-2.670454e-06	-1.061522e-09	-1.856458e+01	-7.494170e+01
1.260000e-06	-2.629867e-06	-1.057291e-09	-1.828242e+01	-7.431493e+01
1.270000e-06	-2.588905e-06	-1.048190e-09	-1.799766e+01	-7.368258e+01
1.280000e-06	-2.547572e-06	-1.038417e-09	-1.771032e+01	-7.304455e+01
1.290000e-06	-2.505954e-06	-1.028962e-09	-1.742100e+01	-7.240072e+01
1.300000e-06	-2.464112e-06	-1.014880e-09	-1.713012e+01	-7.175096e+01
1.310000e-06	-2.421981e-06	-9.981031e-10	-1.683723e+01	-7.109512e+01
1.320000e-06	-2.379469e-06	-9.853275e-10	-1.654169e+01	-7.043301e+01
1.330000e-06	-2.336673e-06	-9.741860e-10	-1.624419e+01	-6.976443e+01
1.340000e-06	-2.293653e-06	-9.639613e-10	-1.594511e+01	-6.908916e+01
1.350000e-06	-2.250496e-06	-9.552063e-10	-1.564510e+01	-6.840694e+01
1.360000e-06	-2.207220e-06	-9.489533e-10	-1.534424e+01	-6.771750e+01
1.370000e-06	-2.163767e-06	-9.381009e-10	-1.504217e+01	-6.702053e+01
1.380000e-06	-2.120200e-06	-9.238802e-10	-1.473930e+01	-6.631569e+01
1.390000e-06	-2.076552e-06	-9.067053e-10	-1.443587e+01	-6.560263e+01
1.400000e-06	-2.032835e-06	-8.884128e-10	-1.413195e+01	-6.488096e+01
1.410000e-06	-1.989051e-06	-8.718393e-10	-1.382757e+01	-6.415027e+01
1.420000e-06	-1.945183e-06	-8.606695e-10	-1.352261e+01	-6.341012e+01
1.430000e-06	-1.901258e-06	-8.526799e-10	-1.321724e+01	-6.266005e+01
1.440000e-06	-1.857218e-06	-8.448531e-10	-1.291109e+01	-6.189957e+01
1.450000e-06	-1.813006e-06	-8.337793e-10	-1.260373e+01	-6.112816e+01
1.460000e-06	-1.768712e-06	-8.207695e-10	-1.229581e+01	-6.034529e+01
1.470000e-06	-1.724350e-06	-8.027403e-10	-1.198741e+01	-5.955042e+01
1.480000e-06	-1.679755e-06	-7.826188e-10	-1.167739e+01	-5.874296e+01
1.490000e-06	-1.634916e-06	-7.660646e-10	-1.136568e+01	-5.792233e+01
1.500000e-06	-1.590041e-06	-7.541255e-10	-1.105371e+01	-5.708793e+01
1.510000e-06	-1.545114e-06	-7.438371e-10	-1.074139e+01	-5.623915e+01
1.520000e-06	-1.500071e-06	-7.334591e-10	-1.042826e+01	-5.537535e+01
1.530000e-06	-1.454894e-06	-7.243406e-10	-1.011420e+01	-5.449592e+01
1.540000e-06	-1.409640e-06	-7.146979e-10	-9.799598e+00	-5.360023e+01
1.550000e-06	-1.364222e-06	-6.999283e-10	-9.483860e+00	-5.268763e+01
1.560000e-06	-1.318664e-06	-6.838832e-10	-9.167146e+00	-5.175751e+01
1.570000e-06	-1.273095e-06	-6.684087e-10	-8.850357e+00	-5.080925e+01
1.580000e-06	-1.227483e-06	-6.516632e-10	-8.533268e+00	-4.984224e+01
1.590000e-06	-1.181855e-06	-6.328496e-10	-8.216070e+00	-4.885588e+01
1.600000e-06	-1.136069e-06	-6.174018e-10	-7.897772e+00	-4.784959e+01
1.610000e-06	-1.090117e-06	-6.058278e-10	-7.578325e+00	-4.682283e+01
1.620000e-06	-1.044115e-06	-5.920396e-10	-7.258520e+00	-4.577507e+01
1.630000e-06	-9.979483e-07	-5.764166e-10	-6.937580e+00	-4.470580e+01
1.640000e-06	-9.516982e-07	-5.607213e-10	-6.616056e+00	-4.361456e+01
1.650000e-06	-9.055388e-07	-5.454235e-10	-6.295164e+00	-4.250092e+01
1.660000e-06	-8.593652e-07	-5.289519e-10	-5.974172e+00	-4.136449e+01
1.670000e-06	-8.130690e-07	-5.142692e-10	-5.652328e+00	-4.020493e+01
1.680000e-06	-7.666856e-07	-4.995473e-10	-5.329877e+00	-3.902193e+01
1.690000e-06	-7.203140e-07	-4.852885e-10	-5.007510e+00	-3.781526e+01
1.700000e-06	-6.739420e-07	-4.693886e-10	-4.685139e+00	-3.658470e+01
1.710000e-06	-6.275158e-07	-4.497128e-10	-4.362391e+00	-3.533012e+01
1.720000e-06	-5.809943e-07	-4.297605e-10	-4.038981e+00	-3.405145e+01
1.730000e-06	-5.344429e-07	-4.103233e-10	-3.715363e+00	-3.274865e+01
1.740000e-06	-4.878328e-07	-3.909653e-10	-3.391337e+00	-3.142177e+01
1.750000e-06	-4.411203e-07	-3.737322e-10	-3.066599e+00	-3.007092e+01
1.760000e-06	-3.943892e-07	-3.557948e-10	-2.741732e+00	-2.869625e+01
1.770000e-06	-3.476813e-07	-3.375011e-10	-2.417026e+00	-2.729802e+01
1.780000e-06	-3.009627e-07	-3.167458e-10	-2.092245e+00	-2.587652e+01
1.790000e-06	-2.541779e-07	-2.966839e-10	-1.767005e+00	-2.443212e+01
1.800000e-06	-2.074142e-07	-2.770721e-10	-1.441911e+00	-2.296527e+01
1.810000e-06	-1.607077e-07	-2.557921e-10	-1.117215e+00	-2.147646e+01
1.820000e-06	-1.139273e-07	-2.345247e-10	-7.920047e-01	-1.996627e+01
1.830000e-06	-6.712891e-08	-2.131575e-10	-4.666696e-01	-1.843534e+01
1.840000e-06	-2.033447e-08	-1.915985e-10	-1.413620e-01	-1.688437e+01
1.850000e-06	2.643646e-08	-1.721957e-10	1.837821e-01	-1.531413e+01
1.860000e-06	7.309918e-08	-1.529947e-10	5.081740e-01	-1.372544e+01
1.870000e-06	1.197838e-07	-1.289289e-10	8.327184e-01	-1.211919e+01
1.880000e-06	1.665866e-07	-1.048082e-10	1.158084e+00	-1.049632e+01
1.890000e-06	2.134789e-07	-8.371813e-11	1.484072e+00	-8.857822e+00
1.900000e-06	2.603302e-07	-6.391601e-11	1.809775e+00	-7.204739e+00
1.910000e-06	3.070998e-07	-4.478575e-11	2.134910e+00	-5.538162e+00
1.920000e-06	3.538013e-07	-2.366222e-11	2.459571e+00	-3.859226e+00
1.930000e-06	4.005345e-07	1.903092e-12	2.784453e+00	-2.169102e+00
1.940000e-06	4.472433e-07	2.777744e-11	3.109165e+00	-4.689977e-01
1.950000e-06	4.939272e-07	5.258724e-11	3.433704e+00	1.239848e+00
1.960000e-06	5.405719e-07	7.829891e-11	3.757971e+00	2.956172e+00
1.970000e-06	5.871128e-07	1.035413e-10	4.081516e+00	4.678685e+00
1.980000e-06	6.336171e-07	1.272568e-10	4.404806e+00	6.406085e+00
1.990000e-06	6.800456e-07	1.489149e-10	4.727570e+00	8.137054e+00
2.000000e-06	7.263476e-07	1.676889e-10	5.049454e+00	9.870267e+00
2.010000e-06	7.725633e-07	1.901235e-10	5.370739e+00	1.160439e+01
2.020000e-06	8.187733e-07	2.147807e-10	5.691983e+00	1.333811e+01
2.030000e-06	8.650040e-07	2.428344e-10	6.013372e+00	1.507009e+01
2.040000e-06	9.112099e-07	2.721864e-10	6.334588e+00	1.679902e+01
2.050000e-06	9.573653e-07	2.985868e-10	6.655453e+00	1.852361e+01
2.060000e-06	1.003430e-06	3.223439e-10	6.975686e+00	2.024258e+01
2.070000e-06	1.049376e-06	3.453471e-10	7.295094e+00	2.195467e+01
2.080000e-06	1.095257e-06	3.682746e-10	7.614055e+00	2.365865e+01
2.090000e-06	1.141074e-06	3.893020e-10	7.932566e+00	2.535333e+01
2.100000e-06	1.186769e-06	4.116100e-10	8.250231e+00	2.703755e+01
2.110000e-06	1.232380e-06	4.359765e-10	8.567310e+00	2.871017e+01
2.120000e-06	1.277895e-06	4.601401e-10	8.883727e+00	3.037012e+01
2.130000e-06	1.323296e-06	4.831365e-10	9.199343e+00	3.201636e+01
2.140000e-06	1.368666e-06	5.062205e-10	9.514754e+00	3.364788e+01
2.150000e-06	1.414022e-06	5.277064e-10	9.830059e+00	3.526375e+01
2.160000e-06	1.459151e-06	5.476897e-10	1.014379e+01	3.686308e+01
2.170000e-06	1.504097e-06	5.697412e-10	1.045625e+01	3.844502e+01
2.180000e-06	1.549068e-06	5.910098e-10	1.076888e+01	4.000878e+01
2.190000e-06	1.593980e-06	6.116487e-10	1.108110e+01	4.155364e+01
2.200000e-06	1.638764e-06	6.348798e-10	1.139243e+01	4.307892e+01
2.210000e-06	1.683348e-06	6.562336e-10	1.170237e+01	4.458400e+01
2.220000e-06	1.727821e-06	6.755845e-10	1.201154e+01	4.606832e+01
2.230000e-06	1.772190e-06	6.945208e-10	1.231998e+01	4.753137e+01
2.240000e-06	1.816378e-06	7.135604e-10	1.262717e+01	4.897272e+01
2.250000e-06	1.860430e-06	7.328446e-10	1.293342e+01	5.039198e+01
2.260000e-06	1.904407e-06	7.526207e-10	1.323913e+01	5.178880e+01
2.270000e-06	1.948317e-06	7.719186e-10	1.354439e+01	5.316292e+01
2.280000e-06	1.992144e-06	7.902076e-10	1.384907e+01	5.451410e+01
2.290000e-06	2.035850e-06	8.079945e-10	1.415291e+01	5.584219e+01
2.300000e-06	2.079453e-06	8.254943e-10	1.445603e+01	5.714705e+01
2.310000e-06	2.123019e-06	8.406476e-10	1.475889e+01	5.842861e+01
2.320000e-06	2.166567e-06	8.562200e-10	1.506163e+01	5.968685e+01
2.330000e-06	2.210014e-06	8.753548e-10	1.536367e+01	6.092180e+01
2.340000e-06	2.253358e-06	8.936822e-10	1.566499e+01	6.213352e+01
2.350000e-06	2.296601e-06	9.078767e-10	1.596561e+01	6.332210e+01
2.360000e-06	2.339634e-06	9.207218e-10	1.626477e+01	6.448770e+01
2.370000e-06	2.382432e-06	9.341633e-10	1.656229e+01	6.563050e+01
2.380000e-06	2.424923e-06	9.483500e-10	1.685768e+01	6.675070e+01
2.390000e-06	2.467130e-06	9.646705e-10	1.715110e+01	6.784855e+01
2.400000e-06	2.509101e-06	9.816969e-10	1.744287e+01	6.892432e+01
2.410000e-06	2.550647e-06	9.972735e-10	1.773170e+01	6.997832e+01
2.420000e-06	2.591852e-06	1.010377e-09	1.801815e+01	7.101085e+01
2.430000e-06	2.632721e-06	1.022685e-09	1.830226e+01	7.202226e+01
2.440000e-06	2.673259e-06	1.033886e-09	1.858408e+01	7.301290e+01
2.450000e-06	2.713600e-06	1.042773e-09	1.886452e+01	7.398316e+01
2.460000e-06	2.753759e-06	1.053635e-09	1.914370e+01	7.493342e+01
2.470000e-06	2.793805e-06	1.067702e-09	1.942209e+01	7.586407e+01
2.480000e-06	2.833652e-06	1.081551e-09	1.969911e+01	7.677553e+01
2.490000e-06	2.873363e-06	1.094329e-09	1.997517e+01	7.766820e+01
2.500000e-06	2.912903e-06	1.105537e-09	2.025005e+01	7.854251e+01
2.510000e-06	2.952278e-06	1.117344e-09	2.052377e+01	7.939887e+01
2.520000e-06	2.991558e-06	1.127926e-09	2.079684e+01	8.023770e+01
2.530000e-06	3.030722e-06	1.137654e-09	2.106911e+01	8.105943e+01
2.540000e-06	3.069701e-06	1.149377e-09	2.134008e+01	8.186446e+01
2.550000e-06	3.108431e-06	1.163285e-09	2.160932e+01	8.265322e+01
2.560000e-06	3.146894e-06	1.176375e-09	2.187671e+01	8.342611e+01
2.570000e-06	3.185144e-06	1.187483e-09	2.214262e+01	8.418352e+01
2.580000e-06	3.223236e-06	1.199229e-09	2.240743e+01	8.492586e+01
2.590000e-06	3.261075e-06	1.212125e-09	2.267048e+01	8.565350e+01
2.600000e-06	3.298658e-06	1.223458e-09	2.293175e+01	8.636683e+01
2.610000e-06	3.335973e-06	1.232939e-09	2.319116e+01	8.706619e+01
2.620000e-06	3.373114e-06	1.242444e-09	2.344936e+01	8.775196e+01
2.630000e-06	3.410056e-06	1.253142e-09	2.370618e+01	8.842446e+01
2.640000e-06	3.446802e-06	1.263328e-09	2.396163e+01	8.908403e+01
2.650000e-06	3.483327e-06	1.274710e-09	2.421554e+01	8.973099e+01
2.660000e-06	3.519526e-06	1.287603e-09	2.446719e+01	9.036564e+01
2.670000e-06	3.555489e-06	1.297937e-09	2.471720e+01	9.098828e+01
2.680000e-06	3.591246e-06	1.306934e-09	2.496578e+01	9.159918e+01
2.690000e-06	3.626832e-06	1.313344e-09	2.521317e+01	9.219861e+01
2.700000e-06	3.662285e-06	1.318536e-09	2.545963e+01	9.278683e+01
2.710000e-06	3.697590e-06	1.326007e-09	2.570506e+01	9.336408e+01
2.720000e-06	3.732674e-06	1.336264e-09	2.594896e+01	9.393060e+01
2.730000e-06	3.767452e-06	1.346358e-09	2.619073e+01	9.448659e+01
2.740000e-06	3.801860e-06	1.356020e-09	2.642994e+01	9.503228e+01
2.750000e-06	3.835883e-06	1.363943e-09	2.666646e+01	9.556785e+01
2.760000e-06	3.869516e-06	1.371003e-09	2.690026e+01	9.609349e+01
2.770000e-06	3.902578e-06	1.376446e-09	2.713011e+01	9.660938e+01
2.780000e-06	3.935110e-06	1.381027e-09	2.735626e+01	9.711568e+01
2.790000e-06	3.967356e-06	1.388858e-09	2.758044e+01	9.761255e+01
2.800000e-06	3.999331e-06	1.397907e-09	2.780272e+01	9.810014e+01
2.810000e-06	4.031059e-06	1.405222e-09	2.802329e+01	9.857858e+01
2.820000e-06	4.062666e-06	1.412811e-09	2.824302e+01	9.904800e+01
2.830000e-06	4.094146e-06	1.419880e-09	2.846186e+01	9.950853e+01
2.840000e-06	4.125396e-06	1.425403e-09	2.867911e+01	9.996028e+01
2.850000e-06	4.156358e-06	1.430504e-09	2.889434e+01	1.004034e+02
2.860000e-06	4.187013e-06	1.436509e-09	2.910746e+01	1.008379e+02
2.870000e-06	4.217363e-06	1.442061e-09	2.931845e+01	1.012639e+02
2.880000e-06	4.247383e-06	1.446815e-09	2.952714e+01	1.016816e+02
2.890000e-06	4.277150e-06	1.451779e-09	2.973408e+01	1.020909e+02
2.900000e-06	4.306732e-06	1.455085e-09	2.993972e+01	1.024921e+02
