# Temperatura_=_-0.49
# Concentracion g/m^3_=_1620.0
# C_Vs_to_Am_M_A/Vsm_=_65563218390.804596
# pendiente_HvsI_1/m_=_3716.3
# ordenada_HvsI_A/m_=_1297.0
# frecuencia_Hz_=_135093.14024623574

Tiempo_(s)	Campo_(V.s)	Magnetizacion_(V.s)	Campo_(kA/m)	Magnetizacion_(A/m)
0.000000e+00	-5.516100e-06	-1.450034e-09	-3.837355e+01	-9.344982e+01
1.000000e-08	-5.516221e-06	-1.449089e-09	-3.837440e+01	-9.340413e+01
2.000000e-08	-5.515958e-06	-1.447479e-09	-3.837257e+01	-9.335620e+01
3.000000e-08	-5.515319e-06	-1.445668e-09	-3.836812e+01	-9.330609e+01
4.000000e-08	-5.514211e-06	-1.443144e-09	-3.836042e+01	-9.325385e+01
5.000000e-08	-5.512470e-06	-1.441403e-09	-3.834831e+01	-9.319956e+01
6.000000e-08	-5.510096e-06	-1.451002e-09	-3.833179e+01	-9.314327e+01
7.000000e-08	-5.507245e-06	-1.495284e-09	-3.831195e+01	-9.308503e+01
8.000000e-08	-5.503942e-06	-1.489217e-09	-3.828898e+01	-9.302490e+01
9.000000e-08	-5.500093e-06	-1.379669e-09	-3.826220e+01	-9.296294e+01
1.000000e-07	-5.495866e-06	-1.317464e-09	-3.823279e+01	-9.289919e+01
1.100000e-07	-5.491457e-06	-1.434373e-09	-3.820212e+01	-9.283370e+01
1.200000e-07	-5.486760e-06	-1.546046e-09	-3.816945e+01	-9.276651e+01
1.300000e-07	-5.481697e-06	-1.492368e-09	-3.813423e+01	-9.269768e+01
1.400000e-07	-5.476311e-06	-1.350620e-09	-3.809676e+01	-9.262723e+01
1.500000e-07	-5.470678e-06	-1.448110e-09	-3.805757e+01	-9.255521e+01
1.600000e-07	-5.464599e-06	-1.512304e-09	-3.801528e+01	-9.248164e+01
1.700000e-07	-5.458033e-06	-1.472767e-09	-3.796960e+01	-9.240656e+01
1.800000e-07	-5.451070e-06	-1.328043e-09	-3.792117e+01	-9.233000e+01
1.900000e-07	-5.443778e-06	-1.384029e-09	-3.787044e+01	-9.225196e+01
2.000000e-07	-5.436237e-06	-1.478685e-09	-3.781798e+01	-9.217248e+01
2.100000e-07	-5.428397e-06	-1.487928e-09	-3.776344e+01	-9.209155e+01
2.200000e-07	-5.420326e-06	-1.405774e-09	-3.770729e+01	-9.200917e+01
2.300000e-07	-5.411909e-06	-1.383202e-09	-3.764874e+01	-9.192536e+01
2.400000e-07	-5.402824e-06	-1.424455e-09	-3.758554e+01	-9.184010e+01
2.500000e-07	-5.392973e-06	-1.410854e-09	-3.751700e+01	-9.175337e+01
2.600000e-07	-5.382523e-06	-1.394948e-09	-3.744430e+01	-9.166515e+01
2.700000e-07	-5.371592e-06	-1.383279e-09	-3.736826e+01	-9.157542e+01
2.800000e-07	-5.360232e-06	-1.417158e-09	-3.728924e+01	-9.148413e+01
2.900000e-07	-5.348518e-06	-1.377740e-09	-3.720775e+01	-9.139124e+01
3.000000e-07	-5.336483e-06	-1.379881e-09	-3.712403e+01	-9.129670e+01
3.100000e-07	-5.323995e-06	-1.357199e-09	-3.703715e+01	-9.120045e+01
3.200000e-07	-5.311037e-06	-1.405330e-09	-3.694701e+01	-9.110241e+01
3.300000e-07	-5.297679e-06	-1.381669e-09	-3.685408e+01	-9.100252e+01
3.400000e-07	-5.283984e-06	-1.384158e-09	-3.675881e+01	-9.090069e+01
3.500000e-07	-5.269901e-06	-1.369544e-09	-3.666084e+01	-9.079683e+01
3.600000e-07	-5.255334e-06	-1.406800e-09	-3.655950e+01	-9.069084e+01
3.700000e-07	-5.240268e-06	-1.359433e-09	-3.645469e+01	-9.058261e+01
3.800000e-07	-5.224577e-06	-1.354525e-09	-3.634553e+01	-9.047204e+01
3.900000e-07	-5.208398e-06	-1.377276e-09	-3.623298e+01	-9.035900e+01
4.000000e-07	-5.191970e-06	-1.376838e-09	-3.611870e+01	-9.024338e+01
4.100000e-07	-5.175244e-06	-1.322523e-09	-3.600234e+01	-9.012505e+01
4.200000e-07	-5.158199e-06	-1.367169e-09	-3.588377e+01	-9.000388e+01
4.300000e-07	-5.140834e-06	-1.401944e-09	-3.576297e+01	-8.987973e+01
4.400000e-07	-5.123051e-06	-1.336450e-09	-3.563925e+01	-8.975248e+01
4.500000e-07	-5.104810e-06	-1.303670e-09	-3.551236e+01	-8.962197e+01
4.600000e-07	-5.086194e-06	-1.368766e-09	-3.538285e+01	-8.948808e+01
4.700000e-07	-5.067212e-06	-1.362432e-09	-3.525080e+01	-8.935067e+01
4.800000e-07	-5.047908e-06	-1.306014e-09	-3.511651e+01	-8.920960e+01
4.900000e-07	-5.028367e-06	-1.341488e-09	-3.498057e+01	-8.906473e+01
5.000000e-07	-5.008608e-06	-1.356176e-09	-3.484311e+01	-8.891595e+01
5.100000e-07	-4.988635e-06	-1.311006e-09	-3.470417e+01	-8.876312e+01
5.200000e-07	-4.968377e-06	-1.321642e-09	-3.456324e+01	-8.860612e+01
5.300000e-07	-4.947734e-06	-1.360551e-09	-3.441964e+01	-8.844483e+01
5.400000e-07	-4.926683e-06	-1.298068e-09	-3.427319e+01	-8.827916e+01
5.500000e-07	-4.905328e-06	-1.283334e-09	-3.412463e+01	-8.810899e+01
5.600000e-07	-4.883684e-06	-1.331845e-09	-3.397406e+01	-8.793424e+01
5.700000e-07	-4.861642e-06	-1.325343e-09	-3.382073e+01	-8.775482e+01
5.800000e-07	-4.839211e-06	-1.273148e-09	-3.366468e+01	-8.757067e+01
5.900000e-07	-4.816474e-06	-1.308911e-09	-3.350651e+01	-8.738170e+01
6.000000e-07	-4.793378e-06	-1.313715e-09	-3.334583e+01	-8.718788e+01
6.100000e-07	-4.770052e-06	-1.283669e-09	-3.318356e+01	-8.698916e+01
6.200000e-07	-4.746545e-06	-1.285002e-09	-3.302003e+01	-8.678551e+01
6.300000e-07	-4.722749e-06	-1.311234e-09	-3.285450e+01	-8.657690e+01
6.400000e-07	-4.698641e-06	-1.277495e-09	-3.268678e+01	-8.636332e+01
6.500000e-07	-4.674097e-06	-1.274013e-09	-3.251604e+01	-8.614478e+01
6.600000e-07	-4.649019e-06	-1.284686e-09	-3.234158e+01	-8.592128e+01
6.700000e-07	-4.623461e-06	-1.273522e-09	-3.216378e+01	-8.569284e+01
6.800000e-07	-4.597279e-06	-1.253202e-09	-3.198164e+01	-8.545949e+01
6.900000e-07	-4.570566e-06	-1.272851e-09	-3.179581e+01	-8.522127e+01
7.000000e-07	-4.543603e-06	-1.267383e-09	-3.160824e+01	-8.497822e+01
7.100000e-07	-4.516354e-06	-1.253284e-09	-3.141868e+01	-8.473039e+01
7.200000e-07	-4.488826e-06	-1.256387e-09	-3.122718e+01	-8.447785e+01
7.300000e-07	-4.461039e-06	-1.259059e-09	-3.103387e+01	-8.422065e+01
7.400000e-07	-4.433023e-06	-1.239668e-09	-3.083897e+01	-8.395886e+01
7.500000e-07	-4.404807e-06	-1.237648e-09	-3.064268e+01	-8.369256e+01
7.600000e-07	-4.376349e-06	-1.244292e-09	-3.044471e+01	-8.342181e+01
7.700000e-07	-4.347571e-06	-1.236217e-09	-3.024452e+01	-8.314669e+01
7.800000e-07	-4.318531e-06	-1.234089e-09	-3.004249e+01	-8.286727e+01
7.900000e-07	-4.289247e-06	-1.234126e-09	-2.983877e+01	-8.258362e+01
8.000000e-07	-4.259588e-06	-1.217690e-09	-2.963245e+01	-8.229582e+01
8.100000e-07	-4.229584e-06	-1.199002e-09	-2.942372e+01	-8.200392e+01
8.200000e-07	-4.199277e-06	-1.202813e-09	-2.921288e+01	-8.170799e+01
8.300000e-07	-4.168661e-06	-1.195856e-09	-2.899990e+01	-8.140808e+01
8.400000e-07	-4.137728e-06	-1.189483e-09	-2.878471e+01	-8.110423e+01
8.500000e-07	-4.106535e-06	-1.191730e-09	-2.856771e+01	-8.079650e+01
8.600000e-07	-4.075241e-06	-1.195625e-09	-2.835001e+01	-8.048491e+01
8.700000e-07	-4.043808e-06	-1.177800e-09	-2.813134e+01	-8.016948e+01
8.800000e-07	-4.012159e-06	-1.171733e-09	-2.791117e+01	-7.985023e+01
8.900000e-07	-3.980292e-06	-1.162667e-09	-2.768948e+01	-7.952716e+01
9.000000e-07	-3.948136e-06	-1.152213e-09	-2.746578e+01	-7.920026e+01
9.100000e-07	-3.915601e-06	-1.144752e-09	-2.723945e+01	-7.886953e+01
9.200000e-07	-3.882698e-06	-1.153118e-09	-2.701056e+01	-7.853492e+01
9.300000e-07	-3.849352e-06	-1.144511e-09	-2.677858e+01	-7.819641e+01
9.400000e-07	-3.815570e-06	-1.136048e-09	-2.654357e+01	-7.785395e+01
9.500000e-07	-3.781428e-06	-1.131781e-09	-2.630605e+01	-7.750747e+01
9.600000e-07	-3.746886e-06	-1.125787e-09	-2.606576e+01	-7.715692e+01
9.700000e-07	-3.711911e-06	-1.111549e-09	-2.582245e+01	-7.680221e+01
9.800000e-07	-3.676611e-06	-1.110899e-09	-2.557688e+01	-7.644326e+01
9.900000e-07	-3.641146e-06	-1.111443e-09	-2.533016e+01	-7.607999e+01
1.000000e-06	-3.605575e-06	-1.103260e-09	-2.508271e+01	-7.571230e+01
1.010000e-06	-3.569876e-06	-1.095909e-09	-2.483436e+01	-7.534008e+01
1.020000e-06	-3.533981e-06	-1.094977e-09	-2.458465e+01	-7.496323e+01
1.030000e-06	-3.497841e-06	-1.085245e-09	-2.433325e+01	-7.458164e+01
1.040000e-06	-3.461426e-06	-1.077170e-09	-2.407991e+01	-7.419519e+01
1.050000e-06	-3.424832e-06	-1.075433e-09	-2.382535e+01	-7.380379e+01
1.060000e-06	-3.388049e-06	-1.070726e-09	-2.356946e+01	-7.340731e+01
1.070000e-06	-3.350933e-06	-1.059621e-09	-2.331125e+01	-7.300565e+01
1.080000e-06	-3.313580e-06	-1.050743e-09	-2.305140e+01	-7.259869e+01
1.090000e-06	-3.275983e-06	-1.045417e-09	-2.278985e+01	-7.218634e+01
1.100000e-06	-3.238092e-06	-1.032983e-09	-2.252626e+01	-7.176849e+01
1.110000e-06	-3.200011e-06	-1.024610e-09	-2.226135e+01	-7.134505e+01
1.120000e-06	-3.161785e-06	-1.017513e-09	-2.199542e+01	-7.091593e+01
1.130000e-06	-3.123367e-06	-1.012294e-09	-2.172816e+01	-7.048105e+01
1.140000e-06	-3.084727e-06	-1.006118e-09	-2.145935e+01	-7.004034e+01
1.150000e-06	-3.045752e-06	-1.003887e-09	-2.118822e+01	-6.959373e+01
1.160000e-06	-3.006488e-06	-9.980346e-10	-2.091507e+01	-6.914115e+01
1.170000e-06	-2.967180e-06	-9.892847e-10	-2.064162e+01	-6.868257e+01
1.180000e-06	-2.927747e-06	-9.775030e-10	-2.036730e+01	-6.821793e+01
1.190000e-06	-2.888201e-06	-9.694346e-10	-2.009219e+01	-6.774720e+01
1.200000e-06	-2.848566e-06	-9.588917e-10	-1.981646e+01	-6.727036e+01
1.210000e-06	-2.808765e-06	-9.525522e-10	-1.953959e+01	-6.678737e+01
1.220000e-06	-2.768826e-06	-9.466604e-10	-1.926174e+01	-6.629823e+01
1.230000e-06	-2.728650e-06	-9.422360e-10	-1.898225e+01	-6.580291e+01
1.240000e-06	-2.688217e-06	-9.337888e-10	-1.870097e+01	-6.530142e+01
1.250000e-06	-2.647673e-06	-9.268114e-10	-1.841893e+01	-6.479374e+01
1.260000e-06	-2.606858e-06	-9.190432e-10	-1.813499e+01	-6.427986e+01
1.270000e-06	-2.565735e-06	-9.095843e-10	-1.784891e+01	-6.375977e+01
1.280000e-06	-2.524344e-06	-9.008567e-10	-1.756097e+01	-6.323347e+01
1.290000e-06	-2.482671e-06	-8.943799e-10	-1.727106e+01	-6.270093e+01
1.300000e-06	-2.440766e-06	-8.846646e-10	-1.697954e+01	-6.216214e+01
1.310000e-06	-2.398484e-06	-8.751893e-10	-1.668540e+01	-6.161704e+01
1.320000e-06	-2.355983e-06	-8.673173e-10	-1.638974e+01	-6.106561e+01
1.330000e-06	-2.313228e-06	-8.586914e-10	-1.609231e+01	-6.050777e+01
1.340000e-06	-2.270073e-06	-8.491470e-10	-1.579210e+01	-5.994346e+01
1.350000e-06	-2.226873e-06	-8.401713e-10	-1.549157e+01	-5.937257e+01
1.360000e-06	-2.183616e-06	-8.295673e-10	-1.519064e+01	-5.879501e+01
1.370000e-06	-2.140123e-06	-8.184828e-10	-1.488808e+01	-5.821063e+01
1.380000e-06	-2.096540e-06	-8.087034e-10	-1.458489e+01	-5.761928e+01
1.390000e-06	-2.052883e-06	-7.973963e-10	-1.428118e+01	-5.702077e+01
1.400000e-06	-2.009151e-06	-7.865695e-10	-1.397695e+01	-5.641489e+01
1.410000e-06	-1.965344e-06	-7.754856e-10	-1.367221e+01	-5.580141e+01
1.420000e-06	-1.921461e-06	-7.662733e-10	-1.336692e+01	-5.518006e+01
1.430000e-06	-1.877419e-06	-7.569181e-10	-1.306054e+01	-5.455054e+01
1.440000e-06	-1.833181e-06	-7.482003e-10	-1.275279e+01	-5.391253e+01
1.450000e-06	-1.788983e-06	-7.372910e-10	-1.244532e+01	-5.326566e+01
1.460000e-06	-1.744838e-06	-7.254090e-10	-1.213822e+01	-5.260956e+01
1.470000e-06	-1.700537e-06	-7.134913e-10	-1.183003e+01	-5.194379e+01
1.480000e-06	-1.655895e-06	-7.030370e-10	-1.151948e+01	-5.126791e+01
1.490000e-06	-1.610962e-06	-6.927154e-10	-1.120689e+01	-5.058144e+01
1.500000e-06	-1.565991e-06	-6.833376e-10	-1.089405e+01	-4.988388e+01
1.510000e-06	-1.520931e-06	-6.724244e-10	-1.058058e+01	-4.917470e+01
1.520000e-06	-1.475730e-06	-6.622276e-10	-1.026613e+01	-4.845333e+01
1.530000e-06	-1.430479e-06	-6.509420e-10	-9.951333e+00	-4.771921e+01
1.540000e-06	-1.385156e-06	-6.405314e-10	-9.636039e+00	-4.697174e+01
1.550000e-06	-1.339665e-06	-6.276647e-10	-9.319577e+00	-4.621030e+01
1.560000e-06	-1.294087e-06	-6.146491e-10	-9.002502e+00	-4.543427e+01
1.570000e-06	-1.248432e-06	-6.021490e-10	-8.684903e+00	-4.464302e+01
1.580000e-06	-1.202627e-06	-5.896082e-10	-8.366250e+00	-4.383591e+01
1.590000e-06	-1.156853e-06	-5.760794e-10	-8.047818e+00	-4.301230e+01
1.600000e-06	-1.111105e-06	-5.633179e-10	-7.729564e+00	-4.217155e+01
1.610000e-06	-1.065243e-06	-5.513290e-10	-7.410519e+00	-4.131304e+01
1.620000e-06	-1.019269e-06	-5.389657e-10	-7.090694e+00	-4.043614e+01
1.630000e-06	-9.731964e-07	-5.264373e-10	-6.770183e+00	-3.954027e+01
1.640000e-06	-9.270752e-07	-5.123086e-10	-6.449334e+00	-3.862483e+01
1.650000e-06	-8.808813e-07	-4.970766e-10	-6.127980e+00	-3.768928e+01
1.660000e-06	-8.345231e-07	-4.818002e-10	-5.805482e+00	-3.673309e+01
1.670000e-06	-7.881021e-07	-4.670983e-10	-5.482548e+00	-3.575580e+01
1.680000e-06	-7.417453e-07	-4.514307e-10	-5.160060e+00	-3.475694e+01
1.690000e-06	-6.953064e-07	-4.354657e-10	-4.837000e+00	-3.373612e+01
1.700000e-06	-6.487228e-07	-4.186156e-10	-4.512935e+00	-3.269300e+01
1.710000e-06	-6.022623e-07	-4.002916e-10	-4.189726e+00	-3.162729e+01
1.720000e-06	-5.558582e-07	-3.804574e-10	-3.866909e+00	-3.053874e+01
1.730000e-06	-5.092555e-07	-3.616942e-10	-3.542710e+00	-2.942719e+01
1.740000e-06	-4.626326e-07	-3.426689e-10	-3.218371e+00	-2.829253e+01
1.750000e-06	-4.160292e-07	-3.240791e-10	-2.894168e+00	-2.713471e+01
1.760000e-06	-3.694005e-07	-3.071492e-10	-2.569789e+00	-2.595378e+01
1.770000e-06	-3.226855e-07	-2.906939e-10	-2.244809e+00	-2.474984e+01
1.780000e-06	-2.758927e-07	-2.727002e-10	-1.919288e+00	-2.352307e+01
1.790000e-06	-2.290280e-07	-2.533612e-10	-1.593267e+00	-2.227373e+01
1.800000e-06	-1.821614e-07	-2.327775e-10	-1.267233e+00	-2.100216e+01
1.810000e-06	-1.353744e-07	-2.139965e-10	-9.417516e-01	-1.970877e+01
1.820000e-06	-8.856626e-08	-1.964683e-10	-6.161241e-01	-1.839406e+01
1.830000e-06	-4.175176e-08	-1.776839e-10	-2.904522e-01	-1.705860e+01
1.840000e-06	5.139012e-09	-1.583651e-10	3.575029e-02	-1.570303e+01
1.850000e-06	5.194723e-08	-1.411557e-10	3.613785e-01	-1.432810e+01
1.860000e-06	9.879987e-08	-1.217872e-10	6.873157e-01	-1.293459e+01
1.870000e-06	1.457309e-07	-1.015977e-10	1.013798e+00	-1.152337e+01
1.880000e-06	1.924991e-07	-8.314910e-11	1.339148e+00	-1.009539e+01
1.890000e-06	2.391768e-07	-6.529915e-11	1.663868e+00	-8.651653e+00
1.900000e-06	2.858972e-07	-4.687054e-11	1.988886e+00	-7.193219e+00
1.910000e-06	3.326701e-07	-2.705400e-11	2.314268e+00	-5.721215e+00
1.920000e-06	3.794198e-07	-5.611754e-12	2.639489e+00	-4.236816e+00
1.930000e-06	4.261101e-07	1.699546e-11	2.964297e+00	-2.741247e+00
1.940000e-06	4.727512e-07	3.834629e-11	3.288763e+00	-1.235775e+00
1.950000e-06	5.193185e-07	6.024187e-11	3.612715e+00	2.782952e-01
1.960000e-06	5.658138e-07	8.216259e-11	3.936166e+00	1.799628e+00
1.970000e-06	6.122685e-07	1.028826e-10	4.259335e+00	3.326860e+00
1.980000e-06	6.586164e-07	1.228669e-10	4.581761e+00	4.858611e+00
1.990000e-06	7.048586e-07	1.410541e-10	4.903452e+00	6.393483e+00
2.000000e-06	7.510489e-07	1.601638e-10	5.224781e+00	7.930074e+00
2.010000e-06	7.972964e-07	1.810769e-10	5.546509e+00	9.466978e+00
2.020000e-06	8.435455e-07	2.044869e-10	5.868248e+00	1.100279e+01
2.030000e-06	8.897335e-07	2.309840e-10	6.189561e+00	1.253613e+01
2.040000e-06	9.358587e-07	2.549624e-10	6.510438e+00	1.406562e+01
2.050000e-06	9.818757e-07	2.763920e-10	6.830562e+00	1.558990e+01
2.060000e-06	1.027820e-06	2.942910e-10	7.150181e+00	1.710766e+01
2.070000e-06	1.073696e-06	3.100776e-10	7.469325e+00	1.861760e+01
2.080000e-06	1.119481e-06	3.281235e-10	7.787831e+00	2.011846e+01
2.090000e-06	1.165143e-06	3.509725e-10	8.105489e+00	2.160905e+01
2.100000e-06	1.210716e-06	3.750012e-10	8.422525e+00	2.308819e+01
2.110000e-06	1.256236e-06	3.966171e-10	8.739193e+00	2.455478e+01
2.120000e-06	1.301693e-06	4.170416e-10	9.055419e+00	2.600776e+01
2.130000e-06	1.347066e-06	4.369227e-10	9.371064e+00	2.744613e+01
2.140000e-06	1.392348e-06	4.550495e-10	9.686072e+00	2.886894e+01
2.150000e-06	1.437563e-06	4.718133e-10	1.000062e+01	3.027534e+01
2.160000e-06	1.482654e-06	4.880947e-10	1.031430e+01	3.166450e+01
2.170000e-06	1.527589e-06	5.063610e-10	1.062690e+01	3.303568e+01
2.180000e-06	1.572386e-06	5.263280e-10	1.093853e+01	3.438821e+01
2.190000e-06	1.617076e-06	5.474204e-10	1.124943e+01	3.572148e+01
2.200000e-06	1.661683e-06	5.679534e-10	1.155974e+01	3.703495e+01
2.210000e-06	1.706233e-06	5.863360e-10	1.186966e+01	3.832814e+01
2.220000e-06	1.750616e-06	6.026721e-10	1.217842e+01	3.960066e+01
2.230000e-06	1.794726e-06	6.183472e-10	1.248527e+01	4.085216e+01
2.240000e-06	1.838721e-06	6.350268e-10	1.279133e+01	4.208236e+01
2.250000e-06	1.882657e-06	6.528848e-10	1.309698e+01	4.329106e+01
2.260000e-06	1.926491e-06	6.711589e-10	1.340192e+01	4.447809e+01
2.270000e-06	1.970222e-06	6.900083e-10	1.370614e+01	4.564338e+01
2.280000e-06	2.013890e-06	7.092235e-10	1.400992e+01	4.678687e+01
2.290000e-06	2.057555e-06	7.266591e-10	1.431368e+01	4.790858e+01
2.300000e-06	2.101186e-06	7.414357e-10	1.461721e+01	4.900857e+01
2.310000e-06	2.144701e-06	7.539154e-10	1.491993e+01	5.008694e+01
2.320000e-06	2.188102e-06	7.672944e-10	1.522185e+01	5.114384e+01
2.330000e-06	2.231457e-06	7.815225e-10	1.552346e+01	5.217947e+01
2.340000e-06	2.274713e-06	7.959377e-10	1.582437e+01	5.319402e+01
2.350000e-06	2.317790e-06	8.098775e-10	1.612405e+01	5.418777e+01
2.360000e-06	2.360634e-06	8.227604e-10	1.642209e+01	5.516097e+01
2.370000e-06	2.403104e-06	8.345408e-10	1.671755e+01	5.611394e+01
2.380000e-06	2.445292e-06	8.476983e-10	1.701103e+01	5.704700e+01
2.390000e-06	2.487165e-06	8.612317e-10	1.730232e+01	5.796047e+01
2.400000e-06	2.528528e-06	8.738860e-10	1.759007e+01	5.885471e+01
2.410000e-06	2.569593e-06	8.870801e-10	1.787575e+01	5.973006e+01
2.420000e-06	2.610529e-06	9.001988e-10	1.816053e+01	6.058691e+01
2.430000e-06	2.651242e-06	9.112285e-10	1.844375e+01	6.142560e+01
2.440000e-06	2.691622e-06	9.193488e-10	1.872466e+01	6.224652e+01
2.450000e-06	2.731750e-06	9.262068e-10	1.900382e+01	6.305001e+01
2.460000e-06	2.771766e-06	9.349715e-10	1.928220e+01	6.383645e+01
2.470000e-06	2.811622e-06	9.460704e-10	1.955946e+01	6.460618e+01
2.480000e-06	2.851292e-06	9.568977e-10	1.983543e+01	6.535956e+01
2.490000e-06	2.890877e-06	9.682803e-10	2.011081e+01	6.609692e+01
2.500000e-06	2.930414e-06	9.813782e-10	2.038585e+01	6.681858e+01
2.510000e-06	2.969791e-06	9.939174e-10	2.065979e+01	6.752486e+01
2.520000e-06	3.009025e-06	1.004484e-09	2.093272e+01	6.821606e+01
2.530000e-06	3.048093e-06	1.013335e-09	2.120450e+01	6.889248e+01
2.540000e-06	3.086898e-06	1.022112e-09	2.147446e+01	6.955439e+01
2.550000e-06	3.125475e-06	1.028921e-09	2.174283e+01	7.020204e+01
2.560000e-06	3.163775e-06	1.035273e-09	2.200927e+01	7.083571e+01
2.570000e-06	3.201808e-06	1.044921e-09	2.227384e+01	7.145562e+01
2.580000e-06	3.239650e-06	1.056629e-09	2.253710e+01	7.206200e+01
2.590000e-06	3.277276e-06	1.069618e-09	2.279885e+01	7.265507e+01
2.600000e-06	3.314622e-06	1.080044e-09	2.305866e+01	7.323504e+01
2.610000e-06	3.351849e-06	1.085157e-09	2.331763e+01	7.380211e+01
2.620000e-06	3.388983e-06	1.088027e-09	2.357596e+01	7.435646e+01
2.630000e-06	3.425767e-06	1.092192e-09	2.383185e+01	7.489828e+01
2.640000e-06	3.462171e-06	1.095845e-09	2.408510e+01	7.542776e+01
2.650000e-06	3.498296e-06	1.104289e-09	2.433640e+01	7.594505e+01
2.660000e-06	3.534245e-06	1.116134e-09	2.458649e+01	7.645035e+01
2.670000e-06	3.570036e-06	1.126122e-09	2.483548e+01	7.694381e+01
2.680000e-06	3.605694e-06	1.132586e-09	2.508354e+01	7.742562e+01
2.690000e-06	3.641213e-06	1.135157e-09	2.533063e+01	7.789593e+01
2.700000e-06	3.676607e-06	1.138103e-09	2.557685e+01	7.835493e+01
2.710000e-06	3.711869e-06	1.143096e-09	2.582216e+01	7.880279e+01
2.720000e-06	3.746802e-06	1.148789e-09	2.606518e+01	7.923968e+01
2.730000e-06	3.781409e-06	1.154232e-09	2.630593e+01	7.966581e+01
2.740000e-06	3.815691e-06	1.159859e-09	2.654441e+01	8.008135e+01
2.750000e-06	3.849462e-06	1.165639e-09	2.677935e+01	8.048650e+01
2.760000e-06	3.882694e-06	1.169452e-09	2.701053e+01	8.088147e+01
2.770000e-06	3.915460e-06	1.172612e-09	2.723847e+01	8.126646e+01
2.780000e-06	3.947840e-06	1.177096e-09	2.746373e+01	8.164170e+01
2.790000e-06	3.979963e-06	1.182954e-09	2.768720e+01	8.200739e+01
2.800000e-06	4.011860e-06	1.189758e-09	2.790909e+01	8.236379e+01
2.810000e-06	4.043595e-06	1.195588e-09	2.812986e+01	8.271111e+01
2.820000e-06	4.075236e-06	1.201375e-09	2.834997e+01	8.304960e+01
2.830000e-06	4.106651e-06	1.203502e-09	2.856852e+01	8.337950e+01
2.840000e-06	4.137752e-06	1.204885e-09	2.878488e+01	8.370108e+01
2.850000e-06	4.168640e-06	1.206989e-09	2.899975e+01	8.401458e+01
2.860000e-06	4.199247e-06	1.214047e-09	2.921268e+01	8.432025e+01
2.870000e-06	4.229490e-06	1.224462e-09	2.942306e+01	8.461837e+01
2.880000e-06	4.259461e-06	1.232751e-09	2.963156e+01	8.490918e+01
2.890000e-06	4.289108e-06	1.236377e-09	2.983781e+01	8.519296e+01
2.900000e-06	4.318434e-06	1.234803e-09	3.004182e+01	8.546994e+01
