# Temperatura_=_-0.61
# Concentracion g/m^3_=_1620.0
# C_Vs_to_Am_M_A/Vsm_=_65563218390.804596
# pendiente_HvsI_1/m_=_3716.3
# ordenada_HvsI_A/m_=_1297.0
# frecuencia_Hz_=_135096.21842296948

Tiempo_(s)	Campo_(V.s)	Magnetizacion_(V.s)	Campo_(kA/m)	Magnetizacion_(A/m)
0.000000e+00	-5.521850e-06	-1.321088e-09	-3.837428e+01	-8.513337e+01
1.000000e-08	-5.522005e-06	-1.316924e-09	-3.837535e+01	-8.511348e+01
2.000000e-08	-5.521948e-06	-1.311486e-09	-3.837495e+01	-8.509266e+01
3.000000e-08	-5.521530e-06	-1.307577e-09	-3.837205e+01	-8.507092e+01
4.000000e-08	-5.520578e-06	-1.304229e-09	-3.836543e+01	-8.504823e+01
5.000000e-08	-5.519030e-06	-1.308915e-09	-3.835467e+01	-8.502458e+01
6.000000e-08	-5.516962e-06	-1.325401e-09	-3.834031e+01	-8.499994e+01
7.000000e-08	-5.514372e-06	-1.330299e-09	-3.832230e+01	-8.497427e+01
8.000000e-08	-5.511208e-06	-1.308381e-09	-3.830032e+01	-8.494752e+01
9.000000e-08	-5.507536e-06	-1.268666e-09	-3.827480e+01	-8.491961e+01
1.000000e-07	-5.503513e-06	-1.244083e-09	-3.824684e+01	-8.489048e+01
1.100000e-07	-5.499238e-06	-1.294084e-09	-3.821713e+01	-8.486005e+01
1.200000e-07	-5.494701e-06	-1.369834e-09	-3.818560e+01	-8.482821e+01
1.300000e-07	-5.489884e-06	-1.329882e-09	-3.815212e+01	-8.479488e+01
1.400000e-07	-5.484731e-06	-1.271863e-09	-3.811631e+01	-8.475994e+01
1.500000e-07	-5.479217e-06	-1.269859e-09	-3.807799e+01	-8.472329e+01
1.600000e-07	-5.473293e-06	-1.368461e-09	-3.803683e+01	-8.468480e+01
1.700000e-07	-5.466964e-06	-1.328681e-09	-3.799284e+01	-8.464436e+01
1.800000e-07	-5.460239e-06	-1.254459e-09	-3.794610e+01	-8.460183e+01
1.900000e-07	-5.453111e-06	-1.245102e-09	-3.789657e+01	-8.455709e+01
2.000000e-07	-5.445524e-06	-1.340158e-09	-3.784384e+01	-8.451001e+01
2.100000e-07	-5.437674e-06	-1.350841e-09	-3.778929e+01	-8.446046e+01
2.200000e-07	-5.429638e-06	-1.310876e-09	-3.773344e+01	-8.440831e+01
2.300000e-07	-5.421229e-06	-1.289679e-09	-3.767501e+01	-8.435345e+01
2.400000e-07	-5.412450e-06	-1.318356e-09	-3.761399e+01	-8.429573e+01
2.500000e-07	-5.403100e-06	-1.327195e-09	-3.754902e+01	-8.423506e+01
2.600000e-07	-5.393123e-06	-1.296143e-09	-3.747968e+01	-8.417131e+01
2.700000e-07	-5.382542e-06	-1.293935e-09	-3.740615e+01	-8.410438e+01
2.800000e-07	-5.371344e-06	-1.293974e-09	-3.732832e+01	-8.403416e+01
2.900000e-07	-5.359759e-06	-1.300837e-09	-3.724781e+01	-8.396057e+01
3.000000e-07	-5.347868e-06	-1.271099e-09	-3.716518e+01	-8.388351e+01
3.100000e-07	-5.335572e-06	-1.282720e-09	-3.707972e+01	-8.380291e+01
3.200000e-07	-5.322772e-06	-1.278365e-09	-3.699077e+01	-8.371871e+01
3.300000e-07	-5.309583e-06	-1.304191e-09	-3.689911e+01	-8.363084e+01
3.400000e-07	-5.296147e-06	-1.264824e-09	-3.680574e+01	-8.353926e+01
3.500000e-07	-5.282331e-06	-1.258016e-09	-3.670973e+01	-8.344393e+01
3.600000e-07	-5.268030e-06	-1.263046e-09	-3.661034e+01	-8.334483e+01
3.700000e-07	-5.253266e-06	-1.291075e-09	-3.650774e+01	-8.324192e+01
3.800000e-07	-5.237995e-06	-1.249252e-09	-3.640161e+01	-8.313522e+01
3.900000e-07	-5.222157e-06	-1.263756e-09	-3.629155e+01	-8.302470e+01
4.000000e-07	-5.205826e-06	-1.282451e-09	-3.617805e+01	-8.291040e+01
4.100000e-07	-5.189128e-06	-1.260872e-09	-3.606201e+01	-8.279233e+01
4.200000e-07	-5.172059e-06	-1.235544e-09	-3.594339e+01	-8.267051e+01
4.300000e-07	-5.154634e-06	-1.285315e-09	-3.582229e+01	-8.254498e+01
4.400000e-07	-5.136899e-06	-1.269618e-09	-3.569904e+01	-8.241578e+01
4.500000e-07	-5.118802e-06	-1.206143e-09	-3.557328e+01	-8.228297e+01
4.600000e-07	-5.100290e-06	-1.238111e-09	-3.544463e+01	-8.214659e+01
4.700000e-07	-5.081424e-06	-1.288489e-09	-3.531351e+01	-8.200671e+01
4.800000e-07	-5.062185e-06	-1.233109e-09	-3.517981e+01	-8.186338e+01
4.900000e-07	-5.042648e-06	-1.218486e-09	-3.504404e+01	-8.171668e+01
5.000000e-07	-5.022866e-06	-1.281086e-09	-3.490656e+01	-8.156666e+01
5.100000e-07	-5.002823e-06	-1.250983e-09	-3.476727e+01	-8.141340e+01
5.200000e-07	-4.982515e-06	-1.206620e-09	-3.462615e+01	-8.125696e+01
5.300000e-07	-4.961938e-06	-1.252533e-09	-3.448314e+01	-8.109741e+01
5.400000e-07	-4.941079e-06	-1.254576e-09	-3.433819e+01	-8.093480e+01
5.500000e-07	-4.919767e-06	-1.184000e-09	-3.419008e+01	-8.076921e+01
5.600000e-07	-4.897998e-06	-1.222777e-09	-3.403879e+01	-8.060067e+01
5.700000e-07	-4.875948e-06	-1.267865e-09	-3.388556e+01	-8.042926e+01
5.800000e-07	-4.853638e-06	-1.219700e-09	-3.373051e+01	-8.025500e+01
5.900000e-07	-4.830998e-06	-1.203645e-09	-3.357318e+01	-8.007794e+01
6.000000e-07	-4.808012e-06	-1.256100e-09	-3.341343e+01	-7.989811e+01
6.100000e-07	-4.784691e-06	-1.224545e-09	-3.325136e+01	-7.971553e+01
6.200000e-07	-4.761095e-06	-1.194753e-09	-3.308738e+01	-7.953022e+01
6.300000e-07	-4.737261e-06	-1.225506e-09	-3.292174e+01	-7.934217e+01
6.400000e-07	-4.713136e-06	-1.231060e-09	-3.275409e+01	-7.915140e+01
6.500000e-07	-4.688631e-06	-1.190572e-09	-3.258379e+01	-7.895787e+01
6.600000e-07	-4.663874e-06	-1.206320e-09	-3.241174e+01	-7.876158e+01
6.700000e-07	-4.638713e-06	-1.213027e-09	-3.223688e+01	-7.856248e+01
6.800000e-07	-4.612958e-06	-1.188194e-09	-3.205790e+01	-7.836054e+01
6.900000e-07	-4.586741e-06	-1.182753e-09	-3.187570e+01	-7.815571e+01
7.000000e-07	-4.559994e-06	-1.201327e-09	-3.168982e+01	-7.794792e+01
7.100000e-07	-4.532783e-06	-1.181554e-09	-3.150072e+01	-7.773711e+01
7.200000e-07	-4.505275e-06	-1.169199e-09	-3.130955e+01	-7.752319e+01
7.300000e-07	-4.477531e-06	-1.178953e-09	-3.111675e+01	-7.730609e+01
7.400000e-07	-4.449605e-06	-1.175183e-09	-3.092267e+01	-7.708571e+01
7.500000e-07	-4.421531e-06	-1.153970e-09	-3.072757e+01	-7.686195e+01
7.600000e-07	-4.393256e-06	-1.154986e-09	-3.053107e+01	-7.663470e+01
7.700000e-07	-4.364635e-06	-1.158253e-09	-3.033217e+01	-7.640387e+01
7.800000e-07	-4.335668e-06	-1.148094e-09	-3.013086e+01	-7.616932e+01
7.900000e-07	-4.306407e-06	-1.146240e-09	-2.992751e+01	-7.593095e+01
8.000000e-07	-4.276816e-06	-1.146900e-09	-2.972187e+01	-7.568864e+01
8.100000e-07	-4.246923e-06	-1.135031e-09	-2.951412e+01	-7.544227e+01
8.200000e-07	-4.216705e-06	-1.122343e-09	-2.930412e+01	-7.519171e+01
8.300000e-07	-4.186178e-06	-1.123114e-09	-2.909198e+01	-7.493684e+01
8.400000e-07	-4.155410e-06	-1.114279e-09	-2.887816e+01	-7.467756e+01
8.500000e-07	-4.124409e-06	-1.108008e-09	-2.866271e+01	-7.441373e+01
8.600000e-07	-4.093144e-06	-1.110176e-09	-2.844544e+01	-7.414526e+01
8.700000e-07	-4.061602e-06	-1.110324e-09	-2.822624e+01	-7.387203e+01
8.800000e-07	-4.029887e-06	-1.098086e-09	-2.800583e+01	-7.359394e+01
8.900000e-07	-3.998029e-06	-1.096653e-09	-2.778443e+01	-7.331089e+01
9.000000e-07	-3.965929e-06	-1.088265e-09	-2.756135e+01	-7.302281e+01
9.100000e-07	-3.933610e-06	-1.075157e-09	-2.733675e+01	-7.272960e+01
9.200000e-07	-3.901025e-06	-1.066370e-09	-2.711029e+01	-7.243120e+01
9.300000e-07	-3.868065e-06	-1.066217e-09	-2.688124e+01	-7.212754e+01
9.400000e-07	-3.834618e-06	-1.055499e-09	-2.664880e+01	-7.181857e+01
9.500000e-07	-3.800617e-06	-1.052026e-09	-2.641251e+01	-7.150424e+01
9.600000e-07	-3.766142e-06	-1.051032e-09	-2.617293e+01	-7.118454e+01
9.700000e-07	-3.731334e-06	-1.042147e-09	-2.593103e+01	-7.085942e+01
9.800000e-07	-3.696188e-06	-1.030259e-09	-2.568678e+01	-7.052888e+01
9.900000e-07	-3.660772e-06	-1.031322e-09	-2.544065e+01	-7.019292e+01
1.000000e-06	-3.625202e-06	-1.027290e-09	-2.519346e+01	-6.985154e+01
1.010000e-06	-3.589428e-06	-1.019237e-09	-2.494485e+01	-6.950477e+01
1.020000e-06	-3.553540e-06	-1.017696e-09	-2.469544e+01	-6.915263e+01
1.030000e-06	-3.517535e-06	-1.017877e-09	-2.444522e+01	-6.879516e+01
1.040000e-06	-3.481282e-06	-1.007922e-09	-2.419328e+01	-6.843241e+01
1.050000e-06	-3.444789e-06	-1.002963e-09	-2.393967e+01	-6.806443e+01
1.060000e-06	-3.408105e-06	-1.000826e-09	-2.368473e+01	-6.769129e+01
1.070000e-06	-3.371134e-06	-9.897429e-10	-2.342780e+01	-6.731305e+01
1.080000e-06	-3.333802e-06	-9.781534e-10	-2.316837e+01	-6.692979e+01
1.090000e-06	-3.296187e-06	-9.749925e-10	-2.290696e+01	-6.654159e+01
1.100000e-06	-3.258403e-06	-9.715637e-10	-2.264437e+01	-6.614852e+01
1.110000e-06	-3.220467e-06	-9.616548e-10	-2.238074e+01	-6.575068e+01
1.120000e-06	-3.182328e-06	-9.574619e-10	-2.211569e+01	-6.534815e+01
1.130000e-06	-3.143883e-06	-9.524283e-10	-2.184852e+01	-6.494102e+01
1.140000e-06	-3.105192e-06	-9.415034e-10	-2.157963e+01	-6.452937e+01
1.150000e-06	-3.066381e-06	-9.307255e-10	-2.130991e+01	-6.411329e+01
1.160000e-06	-3.027375e-06	-9.282444e-10	-2.103884e+01	-6.369284e+01
1.170000e-06	-2.988143e-06	-9.202348e-10	-2.076619e+01	-6.326811e+01
1.180000e-06	-2.948662e-06	-9.112341e-10	-2.049182e+01	-6.283916e+01
1.190000e-06	-2.909027e-06	-9.069603e-10	-2.021638e+01	-6.240605e+01
1.200000e-06	-2.869327e-06	-9.027183e-10	-1.994048e+01	-6.196882e+01
1.210000e-06	-2.829467e-06	-8.930449e-10	-1.966347e+01	-6.152751e+01
1.220000e-06	-2.789488e-06	-8.864926e-10	-1.938563e+01	-6.108214e+01
1.230000e-06	-2.749439e-06	-8.780837e-10	-1.910731e+01	-6.063273e+01
1.240000e-06	-2.709263e-06	-8.672606e-10	-1.882811e+01	-6.017927e+01
1.250000e-06	-2.668896e-06	-8.570021e-10	-1.854758e+01	-5.972173e+01
1.260000e-06	-2.628312e-06	-8.509683e-10	-1.826554e+01	-5.926008e+01
1.270000e-06	-2.587426e-06	-8.419185e-10	-1.798140e+01	-5.879426e+01
1.280000e-06	-2.546198e-06	-8.334074e-10	-1.769488e+01	-5.832420e+01
1.290000e-06	-2.504695e-06	-8.286093e-10	-1.740646e+01	-5.784979e+01
1.300000e-06	-2.462876e-06	-8.226622e-10	-1.711584e+01	-5.737093e+01
1.310000e-06	-2.420657e-06	-8.114439e-10	-1.682243e+01	-5.688746e+01
1.320000e-06	-2.378070e-06	-8.001754e-10	-1.652648e+01	-5.639922e+01
1.330000e-06	-2.335338e-06	-7.891291e-10	-1.622951e+01	-5.590604e+01
1.340000e-06	-2.292376e-06	-7.788715e-10	-1.593094e+01	-5.540769e+01
1.350000e-06	-2.249109e-06	-7.702273e-10	-1.563025e+01	-5.490395e+01
1.360000e-06	-2.205665e-06	-7.641969e-10	-1.532834e+01	-5.439457e+01
1.370000e-06	-2.162064e-06	-7.581598e-10	-1.502533e+01	-5.387926e+01
1.380000e-06	-2.118401e-06	-7.512864e-10	-1.472190e+01	-5.335771e+01
1.390000e-06	-2.074687e-06	-7.439994e-10	-1.441810e+01	-5.282961e+01
1.400000e-06	-2.030898e-06	-7.342885e-10	-1.411379e+01	-5.229461e+01
1.410000e-06	-1.987055e-06	-7.217991e-10	-1.380910e+01	-5.175232e+01
1.420000e-06	-1.943101e-06	-7.111180e-10	-1.350364e+01	-5.120238e+01
1.430000e-06	-1.899054e-06	-7.054171e-10	-1.319753e+01	-5.064435e+01
1.440000e-06	-1.854996e-06	-6.970839e-10	-1.289136e+01	-5.007781e+01
1.450000e-06	-1.810854e-06	-6.867238e-10	-1.258459e+01	-4.950232e+01
1.460000e-06	-1.766533e-06	-6.755993e-10	-1.227658e+01	-4.891741e+01
1.470000e-06	-1.722061e-06	-6.641004e-10	-1.196752e+01	-4.832259e+01
1.480000e-06	-1.677550e-06	-6.507191e-10	-1.165819e+01	-4.771738e+01
1.490000e-06	-1.632873e-06	-6.391410e-10	-1.134770e+01	-4.710128e+01
1.500000e-06	-1.588079e-06	-6.308792e-10	-1.103640e+01	-4.647376e+01
1.510000e-06	-1.543201e-06	-6.249830e-10	-1.072453e+01	-4.583431e+01
1.520000e-06	-1.498009e-06	-6.162267e-10	-1.041046e+01	-4.518240e+01
1.530000e-06	-1.452692e-06	-6.060762e-10	-1.009553e+01	-4.451750e+01
1.540000e-06	-1.407341e-06	-5.950747e-10	-9.780358e+00	-4.383908e+01
1.550000e-06	-1.361811e-06	-5.843041e-10	-9.463948e+00	-4.314661e+01
1.560000e-06	-1.316223e-06	-5.727597e-10	-9.147134e+00	-4.243957e+01
1.570000e-06	-1.270635e-06	-5.616884e-10	-8.830318e+00	-4.171745e+01
1.580000e-06	-1.224925e-06	-5.498090e-10	-8.512653e+00	-4.097972e+01
1.590000e-06	-1.179061e-06	-5.375449e-10	-8.193919e+00	-4.022591e+01
1.600000e-06	-1.133176e-06	-5.271259e-10	-7.875041e+00	-3.945552e+01
1.610000e-06	-1.087254e-06	-5.173984e-10	-7.555903e+00	-3.866810e+01
1.620000e-06	-1.041207e-06	-5.037654e-10	-7.235900e+00	-3.786320e+01
1.630000e-06	-9.950710e-07	-4.895712e-10	-6.915278e+00	-3.704040e+01
1.640000e-06	-9.488615e-07	-4.780508e-10	-6.594143e+00	-3.619931e+01
1.650000e-06	-9.026190e-07	-4.657265e-10	-6.272779e+00	-3.533957e+01
1.660000e-06	-8.563062e-07	-4.517143e-10	-5.950927e+00	-3.446084e+01
1.670000e-06	-8.099430e-07	-4.389296e-10	-5.628725e+00	-3.356283e+01
1.680000e-06	-7.635903e-07	-4.272547e-10	-5.306595e+00	-3.264527e+01
1.690000e-06	-7.172800e-07	-4.151507e-10	-4.984760e+00	-3.170794e+01
1.700000e-06	-6.709224e-07	-4.029252e-10	-4.662597e+00	-3.075065e+01
1.710000e-06	-6.244364e-07	-3.881265e-10	-4.339540e+00	-2.977328e+01
1.720000e-06	-5.779393e-07	-3.724921e-10	-4.016408e+00	-2.877571e+01
1.730000e-06	-5.314567e-07	-3.558473e-10	-3.693375e+00	-2.775791e+01
1.740000e-06	-4.849398e-07	-3.380973e-10	-3.370105e+00	-2.671988e+01
1.750000e-06	-4.383007e-07	-3.207296e-10	-3.045985e+00	-2.566168e+01
1.760000e-06	-3.915631e-07	-3.060810e-10	-2.721180e+00	-2.458340e+01
1.770000e-06	-3.447839e-07	-2.923206e-10	-2.396087e+00	-2.348520e+01
1.780000e-06	-2.978764e-07	-2.773518e-10	-2.070102e+00	-2.236731e+01
1.790000e-06	-2.509802e-07	-2.623764e-10	-1.744195e+00	-2.122998e+01
1.800000e-06	-2.040950e-07	-2.477826e-10	-1.418364e+00	-2.007353e+01
1.810000e-06	-1.571203e-07	-2.327210e-10	-1.091913e+00	-1.889834e+01
1.820000e-06	-1.101769e-07	-2.165452e-10	-7.656779e-01	-1.770485e+01
1.830000e-06	-6.330933e-08	-1.981223e-10	-4.399702e-01	-1.649353e+01
1.840000e-06	-1.653258e-08	-1.794772e-10	-1.148937e-01	-1.526494e+01
1.850000e-06	3.032023e-08	-1.613429e-10	2.107114e-01	-1.401967e+01
1.860000e-06	7.728100e-08	-1.434996e-10	5.370668e-01	-1.275836e+01
1.870000e-06	1.241035e-07	-1.246389e-10	8.624610e-01	-1.148172e+01
1.880000e-06	1.708742e-07	-1.062776e-10	1.187496e+00	-1.019049e+01
1.890000e-06	2.176833e-07	-8.839023e-11	1.512797e+00	-8.885471e+00
1.900000e-06	2.645120e-07	-7.047519e-11	1.838234e+00	-7.567505e+00
1.910000e-06	3.114625e-07	-5.327458e-11	2.164518e+00	-6.237478e+00
1.920000e-06	3.582816e-07	-3.430065e-11	2.489890e+00	-4.896319e+00
1.930000e-06	4.048825e-07	-1.342749e-11	2.813744e+00	-3.544992e+00
1.940000e-06	4.514708e-07	7.371964e-12	3.137511e+00	-2.184501e+00
1.950000e-06	4.980348e-07	2.892968e-11	3.461109e+00	-8.158771e-01
1.960000e-06	5.446580e-07	5.013444e-11	3.785118e+00	5.598155e-01
1.970000e-06	5.912932e-07	6.968860e-11	4.109211e+00	1.941489e+00
1.980000e-06	6.377817e-07	8.809281e-11	4.432284e+00	3.328034e+00
1.990000e-06	6.841707e-07	1.046304e-10	4.754666e+00	4.718322e+00
2.000000e-06	7.304665e-07	1.212582e-10	5.076400e+00	6.111211e+00
2.010000e-06	7.767342e-07	1.411963e-10	5.397939e+00	7.505549e+00
2.020000e-06	8.229724e-07	1.617555e-10	5.719273e+00	8.900177e+00
2.030000e-06	8.691576e-07	1.832180e-10	6.040238e+00	1.029393e+01
2.040000e-06	9.152525e-07	2.065581e-10	6.360576e+00	1.168566e+01
2.050000e-06	9.612802e-07	2.282367e-10	6.680447e+00	1.307421e+01
2.060000e-06	1.007268e-06	2.482901e-10	7.000040e+00	1.445843e+01
2.070000e-06	1.053180e-06	2.658575e-10	7.319109e+00	1.583719e+01
2.080000e-06	1.099069e-06	2.820846e-10	7.638015e+00	1.720939e+01
2.090000e-06	1.144858e-06	2.989103e-10	7.956230e+00	1.857394e+01
2.100000e-06	1.190539e-06	3.177834e-10	8.273689e+00	1.992977e+01
2.110000e-06	1.236188e-06	3.361602e-10	8.590929e+00	2.127585e+01
2.120000e-06	1.281877e-06	3.545179e-10	8.908444e+00	2.261118e+01
2.130000e-06	1.327482e-06	3.729533e-10	9.225378e+00	2.393480e+01
2.140000e-06	1.372929e-06	3.904675e-10	9.541214e+00	2.524577e+01
2.150000e-06	1.418236e-06	4.068964e-10	9.856075e+00	2.654322e+01
2.160000e-06	1.463363e-06	4.235395e-10	1.016969e+01	2.782630e+01
2.170000e-06	1.508406e-06	4.403948e-10	1.048271e+01	2.909423e+01
2.180000e-06	1.553333e-06	4.561726e-10	1.079494e+01	3.034625e+01
2.190000e-06	1.598118e-06	4.727940e-10	1.110617e+01	3.158169e+01
2.200000e-06	1.642804e-06	4.909886e-10	1.141672e+01	3.279989e+01
2.210000e-06	1.687301e-06	5.083597e-10	1.172595e+01	3.400027e+01
2.220000e-06	1.731648e-06	5.237753e-10	1.203414e+01	3.518230e+01
2.230000e-06	1.775927e-06	5.384036e-10	1.234186e+01	3.634551e+01
2.240000e-06	1.820107e-06	5.530779e-10	1.264889e+01	3.748948e+01
2.250000e-06	1.864173e-06	5.689487e-10	1.295513e+01	3.861384e+01
2.260000e-06	1.908163e-06	5.872526e-10	1.326084e+01	3.971829e+01
2.270000e-06	1.952120e-06	6.055491e-10	1.356632e+01	4.080257e+01
2.280000e-06	1.996026e-06	6.215248e-10	1.387145e+01	4.186650e+01
2.290000e-06	2.039858e-06	6.339009e-10	1.417606e+01	4.290992e+01
2.300000e-06	2.083627e-06	6.444188e-10	1.448023e+01	4.393276e+01
2.310000e-06	2.127327e-06	6.545634e-10	1.478393e+01	4.493496e+01
2.320000e-06	2.170935e-06	6.663351e-10	1.508698e+01	4.591655e+01
2.330000e-06	2.214459e-06	6.808034e-10	1.538945e+01	4.687757e+01
2.340000e-06	2.257881e-06	6.958275e-10	1.569121e+01	4.781814e+01
2.350000e-06	2.301068e-06	7.103027e-10	1.599135e+01	4.873840e+01
2.360000e-06	2.343943e-06	7.226787e-10	1.628930e+01	4.963854e+01
2.370000e-06	2.386506e-06	7.327780e-10	1.658510e+01	5.051878e+01
2.380000e-06	2.428785e-06	7.423301e-10	1.687892e+01	5.137938e+01
2.390000e-06	2.470776e-06	7.551090e-10	1.717074e+01	5.222063e+01
2.400000e-06	2.512363e-06	7.679977e-10	1.745975e+01	5.304286e+01
2.410000e-06	2.553660e-06	7.794643e-10	1.774674e+01	5.384640e+01
2.420000e-06	2.594665e-06	7.901544e-10	1.803171e+01	5.463164e+01
2.430000e-06	2.635299e-06	8.008112e-10	1.831409e+01	5.539895e+01
2.440000e-06	2.675692e-06	8.111890e-10	1.859481e+01	5.614874e+01
2.450000e-06	2.715939e-06	8.203204e-10	1.887451e+01	5.688143e+01
2.460000e-06	2.756106e-06	8.292230e-10	1.915365e+01	5.759746e+01
2.470000e-06	2.796184e-06	8.394155e-10	1.943217e+01	5.829725e+01
2.480000e-06	2.836139e-06	8.494996e-10	1.970984e+01	5.898126e+01
2.490000e-06	2.875973e-06	8.583190e-10	1.998666e+01	5.964992e+01
2.500000e-06	2.915693e-06	8.674212e-10	2.026270e+01	6.030367e+01
2.510000e-06	2.955314e-06	8.771142e-10	2.053805e+01	6.094297e+01
2.520000e-06	2.994748e-06	8.847637e-10	2.081209e+01	6.156824e+01
2.530000e-06	3.033888e-06	8.915027e-10	2.108410e+01	6.217991e+01
2.540000e-06	3.072742e-06	9.012015e-10	2.135412e+01	6.277840e+01
2.550000e-06	3.111379e-06	9.119197e-10	2.162263e+01	6.336411e+01
2.560000e-06	3.149881e-06	9.202335e-10	2.189020e+01	6.393744e+01
2.570000e-06	3.188150e-06	9.291150e-10	2.215615e+01	6.449878e+01
2.580000e-06	3.226178e-06	9.406692e-10	2.242043e+01	6.504847e+01
2.590000e-06	3.264052e-06	9.522379e-10	2.268363e+01	6.558687e+01
2.600000e-06	3.301643e-06	9.610167e-10	2.294487e+01	6.611431e+01
2.610000e-06	3.339006e-06	9.654559e-10	2.320453e+01	6.663111e+01
2.620000e-06	3.376176e-06	9.681039e-10	2.346284e+01	6.713755e+01
2.630000e-06	3.413063e-06	9.710521e-10	2.371919e+01	6.763391e+01
2.640000e-06	3.449707e-06	9.754451e-10	2.397385e+01	6.812045e+01
2.650000e-06	3.486085e-06	9.849634e-10	2.422666e+01	6.859740e+01
2.660000e-06	3.522277e-06	9.989815e-10	2.447817e+01	6.906499e+01
2.670000e-06	3.558348e-06	1.011030e-09	2.472885e+01	6.952343e+01
2.680000e-06	3.594236e-06	1.018641e-09	2.497826e+01	6.997289e+01
2.690000e-06	3.629994e-06	1.020860e-09	2.522676e+01	7.041355e+01
2.700000e-06	3.665638e-06	1.020664e-09	2.547447e+01	7.084556e+01
2.710000e-06	3.701052e-06	1.024010e-09	2.572058e+01	7.126907e+01
2.720000e-06	3.736133e-06	1.030823e-09	2.596437e+01	7.168420e+01
2.730000e-06	3.770900e-06	1.038101e-09	2.620599e+01	7.209107e+01
2.740000e-06	3.805326e-06	1.046181e-09	2.644523e+01	7.248978e+01
2.750000e-06	3.839272e-06	1.054110e-09	2.668114e+01	7.288044e+01
2.760000e-06	3.872673e-06	1.060779e-09	2.691326e+01	7.326313e+01
2.770000e-06	3.905609e-06	1.063473e-09	2.714216e+01	7.363792e+01
2.780000e-06	3.938192e-06	1.063562e-09	2.736859e+01	7.400491e+01
2.790000e-06	3.970479e-06	1.066469e-09	2.759297e+01	7.436415e+01
2.800000e-06	4.002535e-06	1.070793e-09	2.781574e+01	7.471571e+01
2.810000e-06	4.034420e-06	1.076172e-09	2.803733e+01	7.505966e+01
2.820000e-06	4.066179e-06	1.082539e-09	2.825804e+01	7.539607e+01
2.830000e-06	4.097753e-06	1.089390e-09	2.847746e+01	7.572500e+01
2.840000e-06	4.128995e-06	1.096650e-09	2.869458e+01	7.604652e+01
2.850000e-06	4.159908e-06	1.101914e-09	2.890941e+01	7.636069e+01
2.860000e-06	4.190580e-06	1.106544e-09	2.912257e+01	7.666758e+01
2.870000e-06	4.220959e-06	1.111112e-09	2.933369e+01	7.696727e+01
2.880000e-06	4.251027e-06	1.115146e-09	2.954265e+01	7.725983e+01
2.890000e-06	4.280789e-06	1.117542e-09	2.974948e+01	7.754535e+01
2.900000e-06	4.310271e-06	1.119690e-09	2.995437e+01	7.782391e+01
