# Temperatura_=_-0.4
# Concentracion g/m^3_=_1620.0
# C_Vs_to_Am_M_A/Vsm_=_65563218390.804596
# pendiente_HvsI_1/m_=_3716.3
# ordenada_HvsI_A/m_=_1297.0
# frecuencia_Hz_=_135095.23781594916

Tiempo_(s)	Campo_(V.s)	Magnetizacion_(V.s)	Campo_(kA/m)	Magnetizacion_(A/m)
0.000000e+00	-5.519529e-06	-1.558814e-09	-3.837431e+01	-1.006785e+02
1.000000e-08	-5.519780e-06	-1.552803e-09	-3.837605e+01	-1.006518e+02
2.000000e-08	-5.519840e-06	-1.549624e-09	-3.837646e+01	-1.006241e+02
3.000000e-08	-5.519615e-06	-1.550427e-09	-3.837491e+01	-1.005957e+02
4.000000e-08	-5.518788e-06	-1.553803e-09	-3.836916e+01	-1.005665e+02
5.000000e-08	-5.517256e-06	-1.554957e-09	-3.835850e+01	-1.005366e+02
6.000000e-08	-5.515187e-06	-1.551968e-09	-3.834411e+01	-1.005061e+02
7.000000e-08	-5.512732e-06	-1.552704e-09	-3.832705e+01	-1.004750e+02
8.000000e-08	-5.509758e-06	-1.554984e-09	-3.830637e+01	-1.004433e+02
9.000000e-08	-5.506213e-06	-1.560824e-09	-3.828173e+01	-1.004110e+02
1.000000e-07	-5.502215e-06	-1.562217e-09	-3.825393e+01	-1.003781e+02
1.100000e-07	-5.497801e-06	-1.595556e-09	-3.822324e+01	-1.003445e+02
1.200000e-07	-5.493173e-06	-1.546260e-09	-3.819107e+01	-1.003102e+02
1.300000e-07	-5.488475e-06	-1.531072e-09	-3.815840e+01	-1.002751e+02
1.400000e-07	-5.483445e-06	-1.527648e-09	-3.812343e+01	-1.002392e+02
1.500000e-07	-5.477911e-06	-1.559896e-09	-3.808496e+01	-1.002023e+02
1.600000e-07	-5.471987e-06	-1.553423e-09	-3.804377e+01	-1.001643e+02
1.700000e-07	-5.465801e-06	-1.537050e-09	-3.800076e+01	-1.001250e+02
1.800000e-07	-5.459082e-06	-1.531425e-09	-3.795405e+01	-1.000845e+02
1.900000e-07	-5.451842e-06	-1.530374e-09	-3.790371e+01	-1.000424e+02
2.000000e-07	-5.444397e-06	-1.512312e-09	-3.785195e+01	-9.999864e+01
2.100000e-07	-5.436749e-06	-1.496318e-09	-3.779878e+01	-9.995303e+01
2.200000e-07	-5.428851e-06	-1.513573e-09	-3.774387e+01	-9.990538e+01
2.300000e-07	-5.420678e-06	-1.510737e-09	-3.768705e+01	-9.985551e+01
2.400000e-07	-5.412080e-06	-1.517135e-09	-3.762727e+01	-9.980322e+01
2.500000e-07	-5.402954e-06	-1.484042e-09	-3.756382e+01	-9.974831e+01
2.600000e-07	-5.393172e-06	-1.489896e-09	-3.749581e+01	-9.969056e+01
2.700000e-07	-5.382625e-06	-1.489276e-09	-3.742249e+01	-9.962979e+01
2.800000e-07	-5.371534e-06	-1.500886e-09	-3.734537e+01	-9.956577e+01
2.900000e-07	-5.360016e-06	-1.479388e-09	-3.726530e+01	-9.949831e+01
3.000000e-07	-5.348085e-06	-1.486743e-09	-3.718235e+01	-9.942721e+01
3.100000e-07	-5.335813e-06	-1.486079e-09	-3.709702e+01	-9.935225e+01
3.200000e-07	-5.323181e-06	-1.495388e-09	-3.700920e+01	-9.927327e+01
3.300000e-07	-5.310109e-06	-1.463765e-09	-3.691832e+01	-9.919005e+01
3.400000e-07	-5.296636e-06	-1.462640e-09	-3.682465e+01	-9.910244e+01
3.500000e-07	-5.282752e-06	-1.466900e-09	-3.672812e+01	-9.901025e+01
3.600000e-07	-5.268512e-06	-1.477681e-09	-3.662912e+01	-9.891333e+01
3.700000e-07	-5.253736e-06	-1.450620e-09	-3.652639e+01	-9.881154e+01
3.800000e-07	-5.238429e-06	-1.458257e-09	-3.641997e+01	-9.870473e+01
3.900000e-07	-5.222686e-06	-1.475683e-09	-3.631052e+01	-9.859278e+01
4.000000e-07	-5.206379e-06	-1.456018e-09	-3.619714e+01	-9.847559e+01
4.100000e-07	-5.189594e-06	-1.441424e-09	-3.608045e+01	-9.835306e+01
4.200000e-07	-5.172587e-06	-1.467411e-09	-3.596220e+01	-9.822510e+01
4.300000e-07	-5.155339e-06	-1.467560e-09	-3.584229e+01	-9.809165e+01
4.400000e-07	-5.137759e-06	-1.421927e-09	-3.572006e+01	-9.795267e+01
4.500000e-07	-5.119854e-06	-1.437248e-09	-3.559558e+01	-9.780810e+01
4.600000e-07	-5.101554e-06	-1.458354e-09	-3.546835e+01	-9.765794e+01
4.700000e-07	-5.082775e-06	-1.424773e-09	-3.533779e+01	-9.750217e+01
4.800000e-07	-5.063562e-06	-1.407761e-09	-3.520421e+01	-9.734081e+01
4.900000e-07	-5.044152e-06	-1.452876e-09	-3.506926e+01	-9.717387e+01
5.000000e-07	-5.024497e-06	-1.433119e-09	-3.493261e+01	-9.700139e+01
5.100000e-07	-5.004579e-06	-1.402128e-09	-3.479414e+01	-9.682341e+01
5.200000e-07	-4.984431e-06	-1.424423e-09	-3.465406e+01	-9.663999e+01
5.300000e-07	-4.963871e-06	-1.432182e-09	-3.451111e+01	-9.645120e+01
5.400000e-07	-4.942929e-06	-1.384258e-09	-3.436552e+01	-9.625713e+01
5.500000e-07	-4.921725e-06	-1.403398e-09	-3.421810e+01	-9.605785e+01
5.600000e-07	-4.900165e-06	-1.424063e-09	-3.406820e+01	-9.585346e+01
5.700000e-07	-4.878218e-06	-1.394413e-09	-3.391562e+01	-9.564406e+01
5.800000e-07	-4.855964e-06	-1.388356e-09	-3.376090e+01	-9.542976e+01
5.900000e-07	-4.833371e-06	-1.424548e-09	-3.360382e+01	-9.521066e+01
6.000000e-07	-4.810397e-06	-1.399747e-09	-3.344409e+01	-9.498688e+01
6.100000e-07	-4.787116e-06	-1.383694e-09	-3.328223e+01	-9.475853e+01
6.200000e-07	-4.763592e-06	-1.406279e-09	-3.311868e+01	-9.452571e+01
6.300000e-07	-4.739840e-06	-1.400937e-09	-3.295355e+01	-9.428854e+01
6.400000e-07	-4.715827e-06	-1.374834e-09	-3.278660e+01	-9.404712e+01
6.500000e-07	-4.691460e-06	-1.390655e-09	-3.261719e+01	-9.380156e+01
6.600000e-07	-4.666657e-06	-1.388705e-09	-3.244475e+01	-9.355194e+01
6.700000e-07	-4.641297e-06	-1.362213e-09	-3.226843e+01	-9.329836e+01
6.800000e-07	-4.615419e-06	-1.363655e-09	-3.208852e+01	-9.304090e+01
6.900000e-07	-4.589063e-06	-1.371593e-09	-3.190528e+01	-9.277963e+01
7.000000e-07	-4.562190e-06	-1.354244e-09	-3.171845e+01	-9.251460e+01
7.100000e-07	-4.535009e-06	-1.352884e-09	-3.152947e+01	-9.224588e+01
7.200000e-07	-4.507599e-06	-1.366042e-09	-3.133890e+01	-9.197350e+01
7.300000e-07	-4.479961e-06	-1.353404e-09	-3.114675e+01	-9.169749e+01
7.400000e-07	-4.452196e-06	-1.345383e-09	-3.095371e+01	-9.141786e+01
7.500000e-07	-4.424194e-06	-1.344415e-09	-3.075903e+01	-9.113461e+01
7.600000e-07	-4.395804e-06	-1.335479e-09	-3.056165e+01	-9.084774e+01
7.700000e-07	-4.367165e-06	-1.321333e-09	-3.036254e+01	-9.055722e+01
7.800000e-07	-4.338288e-06	-1.324288e-09	-3.016177e+01	-9.026301e+01
7.900000e-07	-4.309008e-06	-1.321427e-09	-2.995820e+01	-8.996507e+01
8.000000e-07	-4.279417e-06	-1.317602e-09	-2.975248e+01	-8.966333e+01
8.100000e-07	-4.249646e-06	-1.315599e-09	-2.954550e+01	-8.935773e+01
8.200000e-07	-4.219641e-06	-1.310223e-09	-2.933689e+01	-8.904816e+01
8.300000e-07	-4.189288e-06	-1.289465e-09	-2.912586e+01	-8.873455e+01
8.400000e-07	-4.158565e-06	-1.280834e-09	-2.891226e+01	-8.841678e+01
8.500000e-07	-4.127581e-06	-1.276788e-09	-2.869684e+01	-8.809474e+01
8.600000e-07	-4.096376e-06	-1.270649e-09	-2.847989e+01	-8.776832e+01
8.700000e-07	-4.065023e-06	-1.264397e-09	-2.826191e+01	-8.743737e+01
8.800000e-07	-4.033505e-06	-1.269103e-09	-2.804279e+01	-8.710178e+01
8.900000e-07	-4.001750e-06	-1.264840e-09	-2.782201e+01	-8.676140e+01
9.000000e-07	-3.969818e-06	-1.254476e-09	-2.760000e+01	-8.641609e+01
9.100000e-07	-3.937553e-06	-1.247414e-09	-2.737568e+01	-8.606571e+01
9.200000e-07	-3.904890e-06	-1.242161e-09	-2.714859e+01	-8.571012e+01
9.300000e-07	-3.871806e-06	-1.227755e-09	-2.691858e+01	-8.534918e+01
9.400000e-07	-3.838277e-06	-1.220428e-09	-2.668547e+01	-8.498276e+01
9.500000e-07	-3.804301e-06	-1.217707e-09	-2.644925e+01	-8.461071e+01
9.600000e-07	-3.769761e-06	-1.212527e-09	-2.620911e+01	-8.423291e+01
9.700000e-07	-3.734815e-06	-1.205983e-09	-2.596615e+01	-8.384924e+01
9.800000e-07	-3.699625e-06	-1.202496e-09	-2.572150e+01	-8.345959e+01
9.900000e-07	-3.664217e-06	-1.198315e-09	-2.547532e+01	-8.306384e+01
1.000000e-06	-3.628663e-06	-1.189671e-09	-2.522813e+01	-8.266192e+01
1.010000e-06	-3.592979e-06	-1.184679e-09	-2.498004e+01	-8.225372e+01
1.020000e-06	-3.557154e-06	-1.179134e-09	-2.473097e+01	-8.183918e+01
1.030000e-06	-3.521200e-06	-1.170175e-09	-2.448100e+01	-8.141824e+01
1.040000e-06	-3.485102e-06	-1.162517e-09	-2.423003e+01	-8.099085e+01
1.050000e-06	-3.448749e-06	-1.161045e-09	-2.397729e+01	-8.055698e+01
1.060000e-06	-3.412064e-06	-1.153819e-09	-2.372224e+01	-8.011661e+01
1.070000e-06	-3.375086e-06	-1.147707e-09	-2.346515e+01	-7.966972e+01
1.080000e-06	-3.337816e-06	-1.141681e-09	-2.320603e+01	-7.921632e+01
1.090000e-06	-3.300294e-06	-1.133784e-09	-2.294516e+01	-7.875644e+01
1.100000e-06	-3.262583e-06	-1.122440e-09	-2.268297e+01	-7.829010e+01
1.110000e-06	-3.224704e-06	-1.115969e-09	-2.241963e+01	-7.781734e+01
1.120000e-06	-3.186604e-06	-1.109363e-09	-2.215474e+01	-7.733823e+01
1.130000e-06	-3.148210e-06	-1.103543e-09	-2.188780e+01	-7.685282e+01
1.140000e-06	-3.109601e-06	-1.095880e-09	-2.161938e+01	-7.636119e+01
1.150000e-06	-3.070806e-06	-1.089773e-09	-2.134966e+01	-7.586342e+01
1.160000e-06	-3.031785e-06	-1.081510e-09	-2.107836e+01	-7.535959e+01
1.170000e-06	-2.992598e-06	-1.074124e-09	-2.080592e+01	-7.484980e+01
1.180000e-06	-2.953299e-06	-1.064846e-09	-2.053269e+01	-7.433415e+01
1.190000e-06	-2.913884e-06	-1.057065e-09	-2.025866e+01	-7.381272e+01
1.200000e-06	-2.874243e-06	-1.052780e-09	-1.998306e+01	-7.328562e+01
1.210000e-06	-2.834424e-06	-1.049985e-09	-1.970622e+01	-7.275294e+01
1.220000e-06	-2.794576e-06	-1.043850e-09	-1.942918e+01	-7.221476e+01
1.230000e-06	-2.754556e-06	-1.029907e-09	-1.915094e+01	-7.167116e+01
1.240000e-06	-2.714293e-06	-1.016642e-09	-1.887101e+01	-7.112222e+01
1.250000e-06	-2.673829e-06	-1.005852e-09	-1.858969e+01	-7.056799e+01
1.260000e-06	-2.633182e-06	-9.968609e-10	-1.830709e+01	-7.000853e+01
1.270000e-06	-2.592344e-06	-9.894725e-10	-1.802317e+01	-6.944385e+01
1.280000e-06	-2.551175e-06	-9.841320e-10	-1.773694e+01	-6.887397e+01
1.290000e-06	-2.509618e-06	-9.789012e-10	-1.744802e+01	-6.829889e+01
1.300000e-06	-2.467700e-06	-9.688280e-10	-1.715658e+01	-6.771857e+01
1.310000e-06	-2.425494e-06	-9.563547e-10	-1.686315e+01	-6.713295e+01
1.320000e-06	-2.383058e-06	-9.450595e-10	-1.656812e+01	-6.654197e+01
1.330000e-06	-2.340260e-06	-9.333165e-10	-1.627056e+01	-6.594550e+01
1.340000e-06	-2.297208e-06	-9.229830e-10	-1.597125e+01	-6.534341e+01
1.350000e-06	-2.254058e-06	-9.149359e-10	-1.567125e+01	-6.473553e+01
1.360000e-06	-2.210750e-06	-9.063081e-10	-1.537015e+01	-6.412167e+01
1.370000e-06	-2.167311e-06	-8.963067e-10	-1.506814e+01	-6.350160e+01
1.380000e-06	-2.123757e-06	-8.861975e-10	-1.476534e+01	-6.287504e+01
1.390000e-06	-2.080106e-06	-8.734436e-10	-1.446186e+01	-6.224170e+01
1.400000e-06	-2.036369e-06	-8.620144e-10	-1.415777e+01	-6.160125e+01
1.410000e-06	-1.992563e-06	-8.530192e-10	-1.385321e+01	-6.095333e+01
1.420000e-06	-1.948777e-06	-8.433245e-10	-1.354879e+01	-6.029753e+01
1.430000e-06	-1.904968e-06	-8.316408e-10	-1.324421e+01	-5.963343e+01
1.440000e-06	-1.860994e-06	-8.196225e-10	-1.293849e+01	-5.896056e+01
1.450000e-06	-1.816864e-06	-8.066942e-10	-1.263168e+01	-5.827843e+01
1.460000e-06	-1.772586e-06	-7.925067e-10	-1.232384e+01	-5.758651e+01
1.470000e-06	-1.728139e-06	-7.816884e-10	-1.201481e+01	-5.688425e+01
1.480000e-06	-1.683582e-06	-7.729448e-10	-1.170504e+01	-5.617108e+01
1.490000e-06	-1.638886e-06	-7.629407e-10	-1.139429e+01	-5.544640e+01
1.500000e-06	-1.594081e-06	-7.531489e-10	-1.108278e+01	-5.470959e+01
1.510000e-06	-1.549163e-06	-7.426388e-10	-1.077050e+01	-5.396000e+01
1.520000e-06	-1.504062e-06	-7.287987e-10	-1.045693e+01	-5.319698e+01
1.530000e-06	-1.458790e-06	-7.148858e-10	-1.014218e+01	-5.241988e+01
1.540000e-06	-1.413436e-06	-7.033865e-10	-9.826854e+00	-5.162800e+01
1.550000e-06	-1.368030e-06	-6.901913e-10	-9.511174e+00	-5.082067e+01
1.560000e-06	-1.322467e-06	-6.759192e-10	-9.194397e+00	-4.999722e+01
1.570000e-06	-1.276825e-06	-6.618782e-10	-8.877073e+00	-4.915695e+01
1.580000e-06	-1.231160e-06	-6.490360e-10	-8.559594e+00	-4.829919e+01
1.590000e-06	-1.185411e-06	-6.331106e-10	-8.241520e+00	-4.742329e+01
1.600000e-06	-1.139639e-06	-6.184707e-10	-7.923297e+00	-4.652859e+01
1.610000e-06	-1.093739e-06	-6.058834e-10	-7.604174e+00	-4.561447e+01
1.620000e-06	-1.047688e-06	-5.910321e-10	-7.284008e+00	-4.468032e+01
1.630000e-06	-1.001601e-06	-5.772569e-10	-6.963589e+00	-4.372555e+01
1.640000e-06	-9.554535e-07	-5.634376e-10	-6.642752e+00	-4.274962e+01
1.650000e-06	-9.092434e-07	-5.475995e-10	-6.321478e+00	-4.175201e+01
1.660000e-06	-8.629679e-07	-5.300955e-10	-5.999750e+00	-4.073225e+01
1.670000e-06	-8.166615e-07	-5.148971e-10	-5.677807e+00	-3.968991e+01
1.680000e-06	-7.703018e-07	-5.014125e-10	-5.355492e+00	-3.862461e+01
1.690000e-06	-7.239096e-07	-4.878245e-10	-5.032953e+00	-3.753601e+01
1.700000e-06	-6.774993e-07	-4.727296e-10	-4.710287e+00	-3.642383e+01
1.710000e-06	-6.309865e-07	-4.549688e-10	-4.386909e+00	-3.528784e+01
1.720000e-06	-5.844567e-07	-4.348763e-10	-4.063412e+00	-3.412788e+01
1.730000e-06	-5.378823e-07	-4.155701e-10	-3.739605e+00	-3.294386e+01
1.740000e-06	-4.911667e-07	-3.969821e-10	-3.414817e+00	-3.173573e+01
1.750000e-06	-4.444221e-07	-3.778646e-10	-3.089827e+00	-3.050353e+01
1.760000e-06	-3.976743e-07	-3.592877e-10	-2.764815e+00	-2.924735e+01
1.770000e-06	-3.508486e-07	-3.421220e-10	-2.439261e+00	-2.796735e+01
1.780000e-06	-3.040358e-07	-3.240847e-10	-2.113797e+00	-2.666379e+01
1.790000e-06	-2.572439e-07	-3.052100e-10	-1.788478e+00	-2.533697e+01
1.800000e-06	-2.104110e-07	-2.891411e-10	-1.462874e+00	-2.398727e+01
1.810000e-06	-1.635345e-07	-2.715601e-10	-1.136967e+00	-2.261514e+01
1.820000e-06	-1.166772e-07	-2.507166e-10	-8.111936e-01	-2.122112e+01
1.830000e-06	-6.985907e-08	-2.286563e-10	-4.856924e-01	-1.980579e+01
1.840000e-06	-2.301943e-08	-2.067824e-10	-1.600417e-01	-1.836983e+01
1.850000e-06	2.385955e-08	-1.868729e-10	1.658826e-01	-1.691396e+01
1.860000e-06	7.078761e-08	-1.675967e-10	4.921480e-01	-1.543899e+01
1.870000e-06	1.175802e-07	-1.445965e-10	8.174717e-01	-1.394578e+01
1.880000e-06	1.643019e-07	-1.204544e-10	1.142303e+00	-1.243525e+01
1.890000e-06	2.110489e-07	-9.885571e-11	1.467309e+00	-1.090838e+01
1.900000e-06	2.578197e-07	-7.925154e-11	1.792481e+00	-9.366221e+00
1.910000e-06	3.046741e-07	-6.116457e-11	2.118235e+00	-7.809853e+00
1.920000e-06	3.514712e-07	-4.060312e-11	2.443589e+00	-6.240416e+00
1.930000e-06	3.981928e-07	-1.670991e-11	2.768420e+00	-4.659091e+00
1.940000e-06	4.449351e-07	7.591817e-12	3.093393e+00	-3.067099e+00
1.950000e-06	4.916254e-07	3.069759e-11	3.418006e+00	-1.465699e+00
1.960000e-06	5.382689e-07	5.328736e-11	3.742293e+00	1.438241e-01
1.970000e-06	5.848385e-07	7.518740e-11	4.066066e+00	1.760155e+00
1.980000e-06	6.312982e-07	9.519123e-11	4.389075e+00	3.381960e+00
1.990000e-06	6.776745e-07	1.135544e-10	4.711505e+00	5.007888e+00
2.000000e-06	7.239591e-07	1.314303e-10	5.033297e+00	6.636576e+00
2.010000e-06	7.702462e-07	1.540828e-10	5.355106e+00	8.266656e+00
2.020000e-06	8.164920e-07	1.794941e-10	5.676628e+00	9.896758e+00
2.030000e-06	8.627109e-07	2.048710e-10	5.997963e+00	1.152552e+01
2.040000e-06	9.089198e-07	2.334244e-10	6.319228e+00	1.315157e+01
2.050000e-06	9.550303e-07	2.569996e-10	6.639810e+00	1.477359e+01
2.060000e-06	1.001004e-06	2.759887e-10	6.959444e+00	1.639023e+01
2.070000e-06	1.046947e-06	2.962763e-10	7.278859e+00	1.800020e+01
2.080000e-06	1.092865e-06	3.179400e-10	7.598102e+00	1.960222e+01
2.090000e-06	1.138705e-06	3.413983e-10	7.916799e+00	2.119506e+01
2.100000e-06	1.184473e-06	3.667425e-10	8.235001e+00	2.277750e+01
2.110000e-06	1.230078e-06	3.913718e-10	8.552067e+00	2.434837e+01
2.120000e-06	1.275570e-06	4.130109e-10	8.868350e+00	2.590655e+01
2.130000e-06	1.321017e-06	4.333642e-10	9.184315e+00	2.745097e+01
2.140000e-06	1.366413e-06	4.525137e-10	9.499932e+00	2.898059e+01
2.150000e-06	1.411741e-06	4.711365e-10	9.815071e+00	3.049444e+01
2.160000e-06	1.457015e-06	4.904439e-10	1.012984e+01	3.199160e+01
2.170000e-06	1.502175e-06	5.144857e-10	1.044381e+01	3.347120e+01
2.180000e-06	1.547080e-06	5.397049e-10	1.075601e+01	3.493243e+01
2.190000e-06	1.591850e-06	5.621615e-10	1.106727e+01	3.637456e+01
2.200000e-06	1.636608e-06	5.821621e-10	1.137845e+01	3.779689e+01
2.210000e-06	1.681230e-06	5.971982e-10	1.168869e+01	3.919880e+01
2.220000e-06	1.725621e-06	6.081664e-10	1.199731e+01	4.057974e+01
2.230000e-06	1.769796e-06	6.209073e-10	1.230443e+01	4.193920e+01
2.240000e-06	1.813858e-06	6.391851e-10	1.261078e+01	4.327676e+01
2.250000e-06	1.857889e-06	6.627677e-10	1.291690e+01	4.459203e+01
2.260000e-06	1.901855e-06	6.865823e-10	1.322257e+01	4.588470e+01
2.270000e-06	1.945714e-06	7.071047e-10	1.352750e+01	4.715452e+01
2.280000e-06	1.989484e-06	7.236510e-10	1.383181e+01	4.840131e+01
2.290000e-06	2.033230e-06	7.371035e-10	1.413595e+01	4.962492e+01
2.300000e-06	2.076959e-06	7.501507e-10	1.443997e+01	5.082526e+01
2.310000e-06	2.120647e-06	7.619414e-10	1.474372e+01	5.200233e+01
2.320000e-06	2.164223e-06	7.763494e-10	1.504667e+01	5.315613e+01
2.330000e-06	2.207683e-06	7.940437e-10	1.534883e+01	5.428673e+01
2.340000e-06	2.251057e-06	8.126375e-10	1.565039e+01	5.539427e+01
2.350000e-06	2.294253e-06	8.301084e-10	1.595070e+01	5.647889e+01
2.360000e-06	2.337237e-06	8.453698e-10	1.624955e+01	5.754080e+01
2.370000e-06	2.379998e-06	8.587795e-10	1.654684e+01	5.858023e+01
2.380000e-06	2.422473e-06	8.695550e-10	1.684215e+01	5.959746e+01
2.390000e-06	2.464485e-06	8.805965e-10	1.713424e+01	6.059280e+01
2.400000e-06	2.506166e-06	8.906356e-10	1.742402e+01	6.156656e+01
2.410000e-06	2.547509e-06	9.012728e-10	1.771146e+01	6.251912e+01
2.420000e-06	2.588646e-06	9.154830e-10	1.799746e+01	6.345084e+01
2.430000e-06	2.629599e-06	9.294413e-10	1.828218e+01	6.436212e+01
2.440000e-06	2.670222e-06	9.413318e-10	1.856461e+01	6.525338e+01
2.450000e-06	2.710604e-06	9.505016e-10	1.884537e+01	6.612503e+01
2.460000e-06	2.750741e-06	9.606274e-10	1.912442e+01	6.697752e+01
2.470000e-06	2.790756e-06	9.734431e-10	1.940262e+01	6.781129e+01
2.480000e-06	2.830590e-06	9.868105e-10	1.967956e+01	6.862677e+01
2.490000e-06	2.870295e-06	9.988670e-10	1.995561e+01	6.942443e+01
2.500000e-06	2.909940e-06	1.010066e-09	2.023124e+01	7.020469e+01
2.510000e-06	2.949462e-06	1.021553e-09	2.050602e+01	7.096802e+01
2.520000e-06	2.988789e-06	1.031436e-09	2.077944e+01	7.171484e+01
2.530000e-06	3.027911e-06	1.041253e-09	2.105143e+01	7.244560e+01
2.540000e-06	3.066858e-06	1.052820e-09	2.132221e+01	7.316071e+01
2.550000e-06	3.105498e-06	1.064821e-09	2.159085e+01	7.386059e+01
2.560000e-06	3.143867e-06	1.074255e-09	2.185761e+01	7.454565e+01
2.570000e-06	3.182119e-06	1.081743e-09	2.212356e+01	7.521628e+01
2.580000e-06	3.220191e-06	1.091053e-09	2.238825e+01	7.587285e+01
2.590000e-06	3.258025e-06	1.102239e-09	2.265129e+01	7.651573e+01
2.600000e-06	3.295628e-06	1.112342e-09	2.291272e+01	7.714527e+01
2.610000e-06	3.332961e-06	1.120120e-09	2.317228e+01	7.776181e+01
2.620000e-06	3.370079e-06	1.127271e-09	2.343034e+01	7.836566e+01
2.630000e-06	3.407017e-06	1.136024e-09	2.368715e+01	7.895715e+01
2.640000e-06	3.443681e-06	1.144140e-09	2.394205e+01	7.953654e+01
2.650000e-06	3.480026e-06	1.152093e-09	2.419474e+01	8.010413e+01
2.660000e-06	3.516115e-06	1.161854e-09	2.444565e+01	8.066017e+01
2.670000e-06	3.552053e-06	1.169986e-09	2.469551e+01	8.120492e+01
2.680000e-06	3.587885e-06	1.177083e-09	2.494463e+01	8.173860e+01
2.690000e-06	3.623563e-06	1.182321e-09	2.519267e+01	8.226144e+01
2.700000e-06	3.659061e-06	1.185654e-09	2.543947e+01	8.277365e+01
2.710000e-06	3.694416e-06	1.191386e-09	2.568528e+01	8.327543e+01
2.720000e-06	3.729557e-06	1.200225e-09	2.592959e+01	8.376697e+01
2.730000e-06	3.764442e-06	1.207562e-09	2.617213e+01	8.424845e+01
2.740000e-06	3.799047e-06	1.212712e-09	2.641273e+01	8.472005e+01
2.750000e-06	3.833231e-06	1.218491e-09	2.665038e+01	8.518192e+01
2.760000e-06	3.866817e-06	1.224862e-09	2.688389e+01	8.563423e+01
2.770000e-06	3.899783e-06	1.230553e-09	2.711309e+01	8.607712e+01
2.780000e-06	3.932337e-06	1.235968e-09	2.733941e+01	8.651076e+01
2.790000e-06	3.964611e-06	1.242557e-09	2.756380e+01	8.693528e+01
2.800000e-06	3.996632e-06	1.248459e-09	2.778642e+01	8.735082e+01
2.810000e-06	4.028459e-06	1.254315e-09	2.800770e+01	8.775753e+01
2.820000e-06	4.060119e-06	1.260174e-09	2.822782e+01	8.815554e+01
2.830000e-06	4.091615e-06	1.265149e-09	2.844679e+01	8.854500e+01
2.840000e-06	4.122949e-06	1.272412e-09	2.866464e+01	8.892604e+01
2.850000e-06	4.154004e-06	1.279537e-09	2.888054e+01	8.929881e+01
2.860000e-06	4.184744e-06	1.284845e-09	2.909427e+01	8.966343e+01
2.870000e-06	4.215140e-06	1.290016e-09	2.930559e+01	9.002005e+01
2.880000e-06	4.245158e-06	1.293333e-09	2.951429e+01	9.036882e+01
2.890000e-06	4.274891e-06	1.294970e-09	2.972101e+01	9.070988e+01
2.900000e-06	4.304412e-06	1.296515e-09	2.992626e+01	9.104336e+01
