# Temperatura_=_14.7
# Concentracion g/m^3_=_1620.0
# C_Vs_to_Am_M_A/Vsm_=_65563218390.804596
# pendiente_HvsI_1/m_=_3716.3
# ordenada_HvsI_A/m_=_1297.0
# frecuencia_Hz_=_135105.76154792463

Tiempo_(s)	Campo_(V.s)	Magnetizacion_(V.s)	Campo_(kA/m)	Magnetizacion_(A/m)
0.000000e+00	-5.519692e-06	-1.130368e-09	-3.836740e+01	-7.364599e+01
1.000000e-08	-5.519882e-06	-1.129206e-09	-3.836872e+01	-7.361212e+01
2.000000e-08	-5.519847e-06	-1.127176e-09	-3.836847e+01	-7.357690e+01
3.000000e-08	-5.519370e-06	-1.125025e-09	-3.836516e+01	-7.354026e+01
4.000000e-08	-5.518281e-06	-1.126486e-09	-3.835759e+01	-7.350215e+01
5.000000e-08	-5.516652e-06	-1.133421e-09	-3.834627e+01	-7.346248e+01
6.000000e-08	-5.514578e-06	-1.157680e-09	-3.833185e+01	-7.342118e+01
7.000000e-08	-5.511974e-06	-1.165827e-09	-3.831375e+01	-7.337817e+01
8.000000e-08	-5.508798e-06	-1.088915e-09	-3.829168e+01	-7.333337e+01
9.000000e-08	-5.505218e-06	-1.010279e-09	-3.826679e+01	-7.328671e+01
1.000000e-07	-5.501258e-06	-1.081097e-09	-3.823926e+01	-7.323811e+01
1.100000e-07	-5.496870e-06	-1.186229e-09	-3.820876e+01	-7.318749e+01
1.200000e-07	-5.492124e-06	-1.169108e-09	-3.817577e+01	-7.313476e+01
1.300000e-07	-5.487144e-06	-1.098130e-09	-3.814116e+01	-7.307987e+01
1.400000e-07	-5.481940e-06	-1.104308e-09	-3.810499e+01	-7.302274e+01
1.500000e-07	-5.476322e-06	-1.181082e-09	-3.806593e+01	-7.296329e+01
1.600000e-07	-5.470233e-06	-1.146885e-09	-3.802361e+01	-7.290148e+01
1.700000e-07	-5.463800e-06	-1.082906e-09	-3.797889e+01	-7.283724e+01
1.800000e-07	-5.457036e-06	-1.078010e-09	-3.793188e+01	-7.277052e+01
1.900000e-07	-5.449915e-06	-1.111221e-09	-3.788238e+01	-7.270126e+01
2.000000e-07	-5.442476e-06	-1.117901e-09	-3.783067e+01	-7.262942e+01
2.100000e-07	-5.434742e-06	-1.100752e-09	-3.777691e+01	-7.255496e+01
2.200000e-07	-5.426650e-06	-1.101627e-09	-3.772066e+01	-7.247784e+01
2.300000e-07	-5.418201e-06	-1.100689e-09	-3.766193e+01	-7.239803e+01
2.400000e-07	-5.409432e-06	-1.094360e-09	-3.760098e+01	-7.231549e+01
2.500000e-07	-5.400220e-06	-1.080133e-09	-3.753695e+01	-7.223022e+01
2.600000e-07	-5.390271e-06	-1.075417e-09	-3.746779e+01	-7.214217e+01
2.700000e-07	-5.379618e-06	-1.069863e-09	-3.739374e+01	-7.205134e+01
2.800000e-07	-5.368513e-06	-1.082095e-09	-3.731655e+01	-7.195770e+01
2.900000e-07	-5.356981e-06	-1.075250e-09	-3.723639e+01	-7.186124e+01
3.000000e-07	-5.344986e-06	-1.068896e-09	-3.715301e+01	-7.176195e+01
3.100000e-07	-5.332615e-06	-1.084799e-09	-3.706702e+01	-7.165982e+01
3.200000e-07	-5.319912e-06	-1.107491e-09	-3.697873e+01	-7.155484e+01
3.300000e-07	-5.306783e-06	-1.077679e-09	-3.688746e+01	-7.144699e+01
3.400000e-07	-5.293244e-06	-1.063203e-09	-3.679336e+01	-7.133628e+01
3.500000e-07	-5.279367e-06	-1.079120e-09	-3.669690e+01	-7.122268e+01
3.600000e-07	-5.264981e-06	-1.062943e-09	-3.659690e+01	-7.110619e+01
3.700000e-07	-5.249971e-06	-1.039898e-09	-3.649256e+01	-7.098680e+01
3.800000e-07	-5.234546e-06	-1.085080e-09	-3.638535e+01	-7.086451e+01
3.900000e-07	-5.218643e-06	-1.084280e-09	-3.627480e+01	-7.073929e+01
4.000000e-07	-5.202365e-06	-1.020608e-09	-3.616166e+01	-7.061114e+01
4.100000e-07	-5.185796e-06	-1.045928e-09	-3.604649e+01	-7.048004e+01
4.200000e-07	-5.168832e-06	-1.108720e-09	-3.592857e+01	-7.034599e+01
4.300000e-07	-5.151448e-06	-1.048741e-09	-3.580773e+01	-7.020896e+01
4.400000e-07	-5.133698e-06	-1.009996e-09	-3.568435e+01	-7.006894e+01
4.500000e-07	-5.115731e-06	-1.085641e-09	-3.555946e+01	-6.992591e+01
4.600000e-07	-5.097361e-06	-1.070845e-09	-3.543177e+01	-6.977987e+01
4.700000e-07	-5.078530e-06	-1.002277e-09	-3.530088e+01	-6.963079e+01
4.800000e-07	-5.059319e-06	-1.046968e-09	-3.516734e+01	-6.947865e+01
4.900000e-07	-5.039836e-06	-1.078600e-09	-3.503192e+01	-6.932345e+01
5.000000e-07	-5.020141e-06	-1.005407e-09	-3.489501e+01	-6.916516e+01
5.100000e-07	-5.000166e-06	-1.027001e-09	-3.475617e+01	-6.900378e+01
5.200000e-07	-4.979887e-06	-1.087363e-09	-3.461521e+01	-6.883928e+01
5.300000e-07	-4.959282e-06	-1.029794e-09	-3.447198e+01	-6.867166e+01
5.400000e-07	-4.938362e-06	-9.935099e-10	-3.432657e+01	-6.850090e+01
5.500000e-07	-4.917111e-06	-1.055867e-09	-3.417885e+01	-6.832700e+01
5.600000e-07	-4.895449e-06	-1.034579e-09	-3.402828e+01	-6.814995e+01
5.700000e-07	-4.873480e-06	-9.881603e-10	-3.387558e+01	-6.796975e+01
5.800000e-07	-4.851270e-06	-1.032645e-09	-3.372119e+01	-6.778639e+01
5.900000e-07	-4.828665e-06	-1.045380e-09	-3.356407e+01	-6.759987e+01
6.000000e-07	-4.805701e-06	-9.958820e-10	-3.340444e+01	-6.741020e+01
6.100000e-07	-4.782458e-06	-1.019810e-09	-3.324288e+01	-6.721738e+01
6.200000e-07	-4.758909e-06	-1.045699e-09	-3.307919e+01	-6.702141e+01
6.300000e-07	-4.735123e-06	-1.010319e-09	-3.291385e+01	-6.682231e+01
6.400000e-07	-4.711115e-06	-1.008371e-09	-3.274697e+01	-6.662007e+01
6.500000e-07	-4.686786e-06	-1.031559e-09	-3.257787e+01	-6.641471e+01
6.600000e-07	-4.661973e-06	-1.002136e-09	-3.240539e+01	-6.620625e+01
6.700000e-07	-4.636620e-06	-9.856691e-10	-3.222916e+01	-6.599468e+01
6.800000e-07	-4.610757e-06	-1.005166e-09	-3.204938e+01	-6.578003e+01
6.900000e-07	-4.584455e-06	-9.964474e-10	-3.186656e+01	-6.556229e+01
7.000000e-07	-4.557650e-06	-9.843815e-10	-3.168024e+01	-6.534148e+01
7.100000e-07	-4.530430e-06	-9.969050e-10	-3.149103e+01	-6.511761e+01
7.200000e-07	-4.503011e-06	-9.932450e-10	-3.130045e+01	-6.489066e+01
7.300000e-07	-4.475317e-06	-9.770584e-10	-3.110794e+01	-6.466065e+01
7.400000e-07	-4.447414e-06	-9.784528e-10	-3.091399e+01	-6.442758e+01
7.500000e-07	-4.419299e-06	-9.705895e-10	-3.071856e+01	-6.419142e+01
7.600000e-07	-4.390890e-06	-9.566108e-10	-3.052109e+01	-6.395216e+01
7.700000e-07	-4.362223e-06	-9.597606e-10	-3.032183e+01	-6.370979e+01
7.800000e-07	-4.333279e-06	-9.624591e-10	-3.012064e+01	-6.346428e+01
7.900000e-07	-4.304019e-06	-9.496419e-10	-2.991725e+01	-6.321559e+01
8.000000e-07	-4.274419e-06	-9.481681e-10	-2.971150e+01	-6.296368e+01
8.100000e-07	-4.244534e-06	-9.460488e-10	-2.950377e+01	-6.270850e+01
8.200000e-07	-4.214402e-06	-9.292214e-10	-2.929432e+01	-6.245000e+01
8.300000e-07	-4.183954e-06	-9.133635e-10	-2.908268e+01	-6.218811e+01
8.400000e-07	-4.153217e-06	-9.138780e-10	-2.886903e+01	-6.192277e+01
8.500000e-07	-4.122161e-06	-9.089044e-10	-2.865316e+01	-6.165388e+01
8.600000e-07	-4.090866e-06	-9.023171e-10	-2.843562e+01	-6.138136e+01
8.700000e-07	-4.059483e-06	-9.034291e-10	-2.821748e+01	-6.110513e+01
8.800000e-07	-4.027881e-06	-9.019258e-10	-2.799781e+01	-6.082506e+01
8.900000e-07	-3.995970e-06	-8.878726e-10	-2.777600e+01	-6.054107e+01
9.000000e-07	-3.963808e-06	-8.799439e-10	-2.755244e+01	-6.025304e+01
9.100000e-07	-3.931387e-06	-8.759088e-10	-2.732708e+01	-5.996084e+01
9.200000e-07	-3.898612e-06	-8.658505e-10	-2.709926e+01	-5.966436e+01
9.300000e-07	-3.865478e-06	-8.576762e-10	-2.686895e+01	-5.936347e+01
9.400000e-07	-3.831964e-06	-8.594251e-10	-2.663599e+01	-5.905806e+01
9.500000e-07	-3.797979e-06	-8.551132e-10	-2.639977e+01	-5.874799e+01
9.600000e-07	-3.763498e-06	-8.446896e-10	-2.616009e+01	-5.843315e+01
9.700000e-07	-3.728654e-06	-8.389355e-10	-2.591788e+01	-5.811340e+01
9.800000e-07	-3.693514e-06	-8.333574e-10	-2.567363e+01	-5.778865e+01
9.900000e-07	-3.658098e-06	-8.238433e-10	-2.542745e+01	-5.745876e+01
1.000000e-06	-3.622549e-06	-8.185226e-10	-2.518035e+01	-5.712365e+01
1.010000e-06	-3.586885e-06	-8.190901e-10	-2.493245e+01	-5.678322e+01
1.020000e-06	-3.551004e-06	-8.156862e-10	-2.468304e+01	-5.643738e+01
1.030000e-06	-3.514878e-06	-8.100304e-10	-2.443193e+01	-5.608606e+01
1.040000e-06	-3.478585e-06	-8.066802e-10	-2.417965e+01	-5.572920e+01
1.050000e-06	-3.442147e-06	-8.024423e-10	-2.392638e+01	-5.536675e+01
1.060000e-06	-3.405412e-06	-7.921055e-10	-2.367103e+01	-5.499869e+01
1.070000e-06	-3.368364e-06	-7.833792e-10	-2.341351e+01	-5.462498e+01
1.080000e-06	-3.331005e-06	-7.755190e-10	-2.315383e+01	-5.424565e+01
1.090000e-06	-3.293351e-06	-7.685843e-10	-2.289209e+01	-5.386071e+01
1.100000e-06	-3.255532e-06	-7.625322e-10	-2.262922e+01	-5.347018e+01
1.110000e-06	-3.217561e-06	-7.606176e-10	-2.236527e+01	-5.307414e+01
1.120000e-06	-3.179390e-06	-7.575408e-10	-2.209995e+01	-5.267266e+01
1.130000e-06	-3.141022e-06	-7.520817e-10	-2.183325e+01	-5.226582e+01
1.140000e-06	-3.102404e-06	-7.451607e-10	-2.156482e+01	-5.185374e+01
1.150000e-06	-3.063506e-06	-7.392930e-10	-2.129444e+01	-5.143654e+01
1.160000e-06	-3.024399e-06	-7.319515e-10	-2.102261e+01	-5.101437e+01
1.170000e-06	-2.985057e-06	-7.257745e-10	-2.074914e+01	-5.058738e+01
1.180000e-06	-2.945597e-06	-7.192090e-10	-2.047486e+01	-5.015574e+01
1.190000e-06	-2.906096e-06	-7.125156e-10	-2.020028e+01	-4.971965e+01
1.200000e-06	-2.866408e-06	-7.072250e-10	-1.992441e+01	-4.927928e+01
1.210000e-06	-2.826529e-06	-7.047241e-10	-1.964721e+01	-4.883485e+01
1.220000e-06	-2.786586e-06	-7.012193e-10	-1.936957e+01	-4.838655e+01
1.230000e-06	-2.746516e-06	-6.951193e-10	-1.909104e+01	-4.793459e+01
1.240000e-06	-2.706211e-06	-6.882014e-10	-1.881088e+01	-4.747918e+01
1.250000e-06	-2.665638e-06	-6.816349e-10	-1.852886e+01	-4.702053e+01
1.260000e-06	-2.624875e-06	-6.734649e-10	-1.824551e+01	-4.655884e+01
1.270000e-06	-2.583905e-06	-6.656174e-10	-1.796073e+01	-4.609428e+01
1.280000e-06	-2.542606e-06	-6.591579e-10	-1.767366e+01	-4.562704e+01
1.290000e-06	-2.500965e-06	-6.515861e-10	-1.738422e+01	-4.515729e+01
1.300000e-06	-2.459007e-06	-6.434149e-10	-1.709257e+01	-4.468515e+01
1.310000e-06	-2.416780e-06	-6.352831e-10	-1.679905e+01	-4.421075e+01
1.320000e-06	-2.374245e-06	-6.277902e-10	-1.650339e+01	-4.373418e+01
1.330000e-06	-2.331416e-06	-6.196548e-10	-1.620568e+01	-4.325550e+01
1.340000e-06	-2.288408e-06	-6.129830e-10	-1.590673e+01	-4.277476e+01
1.350000e-06	-2.245233e-06	-6.069502e-10	-1.560662e+01	-4.229193e+01
1.360000e-06	-2.201867e-06	-6.002027e-10	-1.530518e+01	-4.180699e+01
1.370000e-06	-2.158332e-06	-5.924148e-10	-1.500257e+01	-4.131986e+01
1.380000e-06	-2.114736e-06	-5.840524e-10	-1.469953e+01	-4.083041e+01
1.390000e-06	-2.071136e-06	-5.723789e-10	-1.439647e+01	-4.033847e+01
1.400000e-06	-2.027441e-06	-5.607996e-10	-1.409275e+01	-3.984385e+01
1.410000e-06	-1.983634e-06	-5.508854e-10	-1.378824e+01	-3.934627e+01
1.420000e-06	-1.939715e-06	-5.440630e-10	-1.348296e+01	-3.884544e+01
1.430000e-06	-1.895702e-06	-5.398309e-10	-1.317703e+01	-3.834101e+01
1.440000e-06	-1.851650e-06	-5.362075e-10	-1.287082e+01	-3.783257e+01
1.450000e-06	-1.807503e-06	-5.303651e-10	-1.256396e+01	-3.731969e+01
1.460000e-06	-1.763188e-06	-5.214728e-10	-1.225592e+01	-3.680188e+01
1.470000e-06	-1.718775e-06	-5.079221e-10	-1.194721e+01	-3.627859e+01
1.480000e-06	-1.674257e-06	-4.943499e-10	-1.163777e+01	-3.574925e+01
1.490000e-06	-1.629516e-06	-4.830791e-10	-1.132677e+01	-3.521325e+01
1.500000e-06	-1.584520e-06	-4.767334e-10	-1.101400e+01	-3.466993e+01
1.510000e-06	-1.539344e-06	-4.733843e-10	-1.069998e+01	-3.411861e+01
1.520000e-06	-1.494167e-06	-4.689177e-10	-1.038596e+01	-3.355856e+01
1.530000e-06	-1.449013e-06	-4.628284e-10	-1.007210e+01	-3.298905e+01
1.540000e-06	-1.403722e-06	-4.542057e-10	-9.757276e+00	-3.240931e+01
1.550000e-06	-1.358228e-06	-4.427043e-10	-9.441047e+00	-3.181856e+01
1.560000e-06	-1.312641e-06	-4.292096e-10	-9.124171e+00	-3.121600e+01
1.570000e-06	-1.267040e-06	-4.169638e-10	-8.807196e+00	-3.060084e+01
1.580000e-06	-1.221376e-06	-4.048667e-10	-8.489790e+00	-2.997227e+01
1.590000e-06	-1.175621e-06	-3.929306e-10	-8.171743e+00	-2.932951e+01
1.600000e-06	-1.129742e-06	-3.828826e-10	-7.852843e+00	-2.867177e+01
1.610000e-06	-1.083699e-06	-3.736733e-10	-7.532798e+00	-2.799829e+01
1.620000e-06	-1.037590e-06	-3.636806e-10	-7.212290e+00	-2.730833e+01
1.630000e-06	-9.915002e-07	-3.533242e-10	-6.891921e+00	-2.660117e+01
1.640000e-06	-9.454279e-07	-3.421750e-10	-6.571672e+00	-2.587614e+01
1.650000e-06	-8.993321e-07	-3.295512e-10	-6.251260e+00	-2.513261e+01
1.660000e-06	-8.530760e-07	-3.148125e-10	-5.929734e+00	-2.437000e+01
1.670000e-06	-8.067328e-07	-3.000162e-10	-5.607602e+00	-2.358778e+01
1.680000e-06	-7.604269e-07	-2.876224e-10	-5.285729e+00	-2.278547e+01
1.690000e-06	-7.141095e-07	-2.781901e-10	-4.963777e+00	-2.196268e+01
1.700000e-06	-6.677485e-07	-2.699858e-10	-4.641522e+00	-2.111906e+01
1.710000e-06	-6.213344e-07	-2.608473e-10	-4.318897e+00	-2.025435e+01
1.720000e-06	-5.747915e-07	-2.488238e-10	-3.995378e+00	-1.936838e+01
1.730000e-06	-5.281395e-07	-2.336076e-10	-3.671099e+00	-1.846103e+01
1.740000e-06	-4.814456e-07	-2.153617e-10	-3.346530e+00	-1.753228e+01
1.750000e-06	-4.347614e-07	-1.974184e-10	-3.022028e+00	-1.658221e+01
1.760000e-06	-3.880557e-07	-1.814466e-10	-2.697376e+00	-1.561097e+01
1.770000e-06	-3.412523e-07	-1.676675e-10	-2.372046e+00	-1.461880e+01
1.780000e-06	-2.944388e-07	-1.546825e-10	-2.046645e+00	-1.360604e+01
1.790000e-06	-2.476029e-07	-1.418540e-10	-1.721089e+00	-1.257312e+01
1.800000e-06	-2.006573e-07	-1.287477e-10	-1.394769e+00	-1.152056e+01
1.810000e-06	-1.537040e-07	-1.127991e-10	-1.068397e+00	-1.044894e+01
1.820000e-06	-1.067839e-07	-9.331465e-11	-7.422551e-01	-9.358981e+00
1.830000e-06	-5.987673e-08	-7.242307e-11	-4.162034e-01	-8.251440e+00
1.840000e-06	-1.300822e-08	-5.411563e-11	-9.042017e-02	-7.127178e+00
1.850000e-06	3.386972e-08	-4.137935e-11	2.354285e-01	-5.987129e+00
1.860000e-06	8.073343e-08	-2.965676e-11	5.611783e-01	-4.832298e+00
1.870000e-06	1.274819e-07	-1.478120e-11	8.861268e-01	-3.663763e+00
1.880000e-06	1.742198e-07	2.168787e-12	1.211003e+00	-2.482660e+00
1.890000e-06	2.210461e-07	1.895797e-11	1.536492e+00	-1.290187e+00
1.900000e-06	2.679463e-07	3.500233e-11	1.862495e+00	-8.759103e-02
1.910000e-06	3.148688e-07	5.042464e-11	2.188654e+00	1.123835e+00
1.920000e-06	3.617113e-07	6.597634e-11	2.514256e+00	2.342761e+00
1.930000e-06	4.084763e-07	8.182303e-11	2.839320e+00	3.567822e+00
1.940000e-06	4.551826e-07	9.802467e-11	3.163975e+00	4.797633e+00
1.950000e-06	5.018494e-07	1.149810e-10	3.488357e+00	6.030790e+00
1.960000e-06	5.484591e-07	1.320843e-10	3.812341e+00	7.265879e+00
1.970000e-06	5.950135e-07	1.508853e-10	4.135941e+00	8.501485e+00
1.980000e-06	6.414805e-07	1.700735e-10	4.458933e+00	9.736197e+00
1.990000e-06	6.878807e-07	1.883691e-10	4.781461e+00	1.096862e+01
2.000000e-06	7.342591e-07	2.060610e-10	5.103837e+00	1.219737e+01
2.010000e-06	7.804924e-07	2.234670e-10	5.425205e+00	1.342110e+01
2.020000e-06	8.266491e-07	2.404662e-10	5.746040e+00	1.463849e+01
2.030000e-06	8.728714e-07	2.591070e-10	6.067332e+00	1.584827e+01
2.040000e-06	9.191157e-07	2.781766e-10	6.388776e+00	1.704919e+01
2.050000e-06	9.653156e-07	2.951329e-10	6.709912e+00	1.824008e+01
2.060000e-06	1.011351e-06	3.108040e-10	7.029904e+00	1.941982e+01
2.070000e-06	1.057226e-06	3.265524e-10	7.348778e+00	2.058733e+01
2.080000e-06	1.103127e-06	3.425305e-10	7.667842e+00	2.174162e+01
2.090000e-06	1.148970e-06	3.610220e-10	7.986495e+00	2.288176e+01
2.100000e-06	1.194672e-06	3.814971e-10	8.304169e+00	2.400690e+01
2.110000e-06	1.240313e-06	3.986804e-10	8.621420e+00	2.511623e+01
2.120000e-06	1.285844e-06	4.127846e-10	8.937902e+00	2.620907e+01
2.130000e-06	1.331252e-06	4.251196e-10	9.253537e+00	2.728478e+01
2.140000e-06	1.376630e-06	4.363004e-10	9.568958e+00	2.834281e+01
2.150000e-06	1.422004e-06	4.479530e-10	9.884352e+00	2.938268e+01
2.160000e-06	1.467272e-06	4.622911e-10	1.019901e+01	3.040400e+01
2.170000e-06	1.512367e-06	4.791322e-10	1.051247e+01	3.140646e+01
2.180000e-06	1.557369e-06	4.962218e-10	1.082528e+01	3.238981e+01
2.190000e-06	1.602229e-06	5.127595e-10	1.113710e+01	3.335389e+01
2.200000e-06	1.646860e-06	5.275807e-10	1.144733e+01	3.429860e+01
2.210000e-06	1.691342e-06	5.385300e-10	1.175652e+01	3.522390e+01
2.220000e-06	1.735649e-06	5.469516e-10	1.206450e+01	3.612985e+01
2.230000e-06	1.779851e-06	5.566305e-10	1.237175e+01	3.701652e+01
2.240000e-06	1.824038e-06	5.679293e-10	1.267889e+01	3.788409e+01
2.250000e-06	1.868107e-06	5.804668e-10	1.298522e+01	3.873275e+01
2.260000e-06	1.912037e-06	5.957306e-10	1.329058e+01	3.956276e+01
2.270000e-06	1.955869e-06	6.115059e-10	1.359525e+01	4.037442e+01
2.280000e-06	1.999633e-06	6.248130e-10	1.389945e+01	4.116807e+01
2.290000e-06	2.043382e-06	6.366583e-10	1.420355e+01	4.194407e+01
2.300000e-06	2.087082e-06	6.468249e-10	1.450732e+01	4.270283e+01
2.310000e-06	2.130702e-06	6.550379e-10	1.481051e+01	4.344476e+01
2.320000e-06	2.174255e-06	6.632476e-10	1.511325e+01	4.417031e+01
2.330000e-06	2.217723e-06	6.705227e-10	1.541540e+01	4.487992e+01
2.340000e-06	2.261066e-06	6.781004e-10	1.571668e+01	4.557406e+01
2.350000e-06	2.304180e-06	6.877524e-10	1.601636e+01	4.625319e+01
2.360000e-06	2.347132e-06	7.001034e-10	1.631492e+01	4.691778e+01
2.370000e-06	2.389882e-06	7.125580e-10	1.661208e+01	4.756829e+01
2.380000e-06	2.432237e-06	7.234753e-10	1.690648e+01	4.820517e+01
2.390000e-06	2.474253e-06	7.320712e-10	1.719854e+01	4.882885e+01
2.400000e-06	2.516073e-06	7.378761e-10	1.748923e+01	4.943977e+01
2.410000e-06	2.557599e-06	7.433311e-10	1.777788e+01	5.003832e+01
2.420000e-06	2.598680e-06	7.510492e-10	1.806343e+01	5.062491e+01
2.430000e-06	2.639449e-06	7.605917e-10	1.834682e+01	5.119988e+01
2.440000e-06	2.679951e-06	7.679925e-10	1.862835e+01	5.176359e+01
2.450000e-06	2.720227e-06	7.718213e-10	1.890831e+01	5.231634e+01
2.460000e-06	2.760325e-06	7.755438e-10	1.918703e+01	5.285843e+01
2.470000e-06	2.800269e-06	7.801642e-10	1.946468e+01	5.339012e+01
2.480000e-06	2.840142e-06	7.855951e-10	1.974184e+01	5.391165e+01
2.490000e-06	2.879873e-06	7.927738e-10	2.001801e+01	5.442323e+01
2.500000e-06	2.919450e-06	8.009197e-10	2.029310e+01	5.492505e+01
2.510000e-06	2.958894e-06	8.111617e-10	2.056728e+01	5.541726e+01
2.520000e-06	2.998191e-06	8.208956e-10	2.084044e+01	5.590001e+01
2.530000e-06	3.037279e-06	8.278664e-10	2.111213e+01	5.637342e+01
2.540000e-06	3.076188e-06	8.320434e-10	2.138259e+01	5.683757e+01
2.550000e-06	3.114901e-06	8.351228e-10	2.165169e+01	5.729256e+01
2.560000e-06	3.153306e-06	8.376802e-10	2.191864e+01	5.773844e+01
2.570000e-06	3.191463e-06	8.436355e-10	2.218387e+01	5.817527e+01
2.580000e-06	3.229449e-06	8.555375e-10	2.244791e+01	5.860309e+01
2.590000e-06	3.267287e-06	8.688564e-10	2.271092e+01	5.902193e+01
2.600000e-06	3.304946e-06	8.781135e-10	2.297269e+01	5.943181e+01
2.610000e-06	3.342331e-06	8.815420e-10	2.323255e+01	5.983277e+01
2.620000e-06	3.379435e-06	8.814185e-10	2.349046e+01	6.022482e+01
2.630000e-06	3.416321e-06	8.838832e-10	2.374686e+01	6.060800e+01
2.640000e-06	3.452883e-06	8.896049e-10	2.400100e+01	6.098232e+01
2.650000e-06	3.489142e-06	8.975659e-10	2.425303e+01	6.134783e+01
2.660000e-06	3.525266e-06	9.073317e-10	2.450414e+01	6.170456e+01
2.670000e-06	3.561235e-06	9.148640e-10	2.475416e+01	6.205259e+01
2.680000e-06	3.597034e-06	9.189408e-10	2.500300e+01	6.239196e+01
2.690000e-06	3.632711e-06	9.215815e-10	2.525098e+01	6.272276e+01
2.700000e-06	3.668250e-06	9.249861e-10	2.549802e+01	6.304510e+01
2.710000e-06	3.703561e-06	9.296658e-10	2.574346e+01	6.335906e+01
2.720000e-06	3.738586e-06	9.354488e-10	2.598693e+01	6.366480e+01
2.730000e-06	3.773393e-06	9.408513e-10	2.622887e+01	6.396244e+01
2.740000e-06	3.807830e-06	9.449218e-10	2.646824e+01	6.425215e+01
2.750000e-06	3.841723e-06	9.464608e-10	2.670383e+01	6.453410e+01
2.760000e-06	3.875110e-06	9.469079e-10	2.693590e+01	6.480850e+01
2.770000e-06	3.908090e-06	9.487467e-10	2.716515e+01	6.507554e+01
2.780000e-06	3.940718e-06	9.534827e-10	2.739194e+01	6.533546e+01
2.790000e-06	3.973008e-06	9.603162e-10	2.761639e+01	6.558848e+01
2.800000e-06	4.004997e-06	9.664790e-10	2.783875e+01	6.583487e+01
2.810000e-06	4.036761e-06	9.711828e-10	2.805954e+01	6.607488e+01
2.820000e-06	4.068387e-06	9.741935e-10	2.827937e+01	6.630879e+01
2.830000e-06	4.099856e-06	9.771601e-10	2.849811e+01	6.653686e+01
2.840000e-06	4.131104e-06	9.806804e-10	2.871532e+01	6.675939e+01
2.850000e-06	4.162124e-06	9.830966e-10	2.893094e+01	6.697666e+01
2.860000e-06	4.192864e-06	9.855360e-10	2.914461e+01	6.718896e+01
2.870000e-06	4.223280e-06	9.881452e-10	2.935603e+01	6.739657e+01
2.880000e-06	4.253412e-06	9.907111e-10	2.956548e+01	6.759977e+01
2.890000e-06	4.283222e-06	9.934401e-10	2.977269e+01	6.779885e+01
2.900000e-06	4.312671e-06	9.961409e-10	2.997739e+01	6.799407e+01
2.910000e-06	4.341783e-06	1.000043e-09	3.017975e+01	6.818570e+01
