# Temperatura_=_13.0
# Concentracion g/m^3_=_1620.0
# C_Vs_to_Am_M_A/Vsm_=_65563218390.804596
# pendiente_HvsI_1/m_=_3716.3
# ordenada_HvsI_A/m_=_1297.0
# frecuencia_Hz_=_135105.8784177017

Tiempo_(s)	Campo_(V.s)	Magnetizacion_(V.s)	Campo_(kA/m)	Magnetizacion_(A/m)
0.000000e+00	-5.528736e-06	-1.168570e-09	-3.836693e+01	-7.565963e+01
1.000000e-08	-5.528953e-06	-1.168270e-09	-3.836843e+01	-7.560541e+01
2.000000e-08	-5.528843e-06	-1.168314e-09	-3.836767e+01	-7.554808e+01
3.000000e-08	-5.528262e-06	-1.166470e-09	-3.836364e+01	-7.548771e+01
4.000000e-08	-5.527234e-06	-1.164086e-09	-3.835650e+01	-7.542437e+01
5.000000e-08	-5.525698e-06	-1.162952e-09	-3.834584e+01	-7.535814e+01
6.000000e-08	-5.523497e-06	-1.162721e-09	-3.833057e+01	-7.528909e+01
7.000000e-08	-5.520741e-06	-1.168156e-09	-3.831145e+01	-7.521732e+01
8.000000e-08	-5.517573e-06	-1.165156e-09	-3.828946e+01	-7.514289e+01
9.000000e-08	-5.514010e-06	-1.142651e-09	-3.826474e+01	-7.506592e+01
1.000000e-07	-5.510050e-06	-1.158155e-09	-3.823725e+01	-7.498648e+01
1.100000e-07	-5.505695e-06	-1.202969e-09	-3.820703e+01	-7.490467e+01
1.200000e-07	-5.501048e-06	-1.195969e-09	-3.817479e+01	-7.482060e+01
1.300000e-07	-5.496130e-06	-1.161989e-09	-3.814066e+01	-7.473435e+01
1.400000e-07	-5.490893e-06	-1.138338e-09	-3.810431e+01	-7.464604e+01
1.500000e-07	-5.485312e-06	-1.177724e-09	-3.806558e+01	-7.455577e+01
1.600000e-07	-5.479265e-06	-1.167140e-09	-3.802362e+01	-7.446362e+01
1.700000e-07	-5.472809e-06	-1.124931e-09	-3.797882e+01	-7.436972e+01
1.800000e-07	-5.465988e-06	-1.126760e-09	-3.793148e+01	-7.427415e+01
1.900000e-07	-5.458798e-06	-1.146689e-09	-3.788159e+01	-7.417701e+01
2.000000e-07	-5.451369e-06	-1.157783e-09	-3.783003e+01	-7.407840e+01
2.100000e-07	-5.443677e-06	-1.130102e-09	-3.777666e+01	-7.397839e+01
2.200000e-07	-5.435623e-06	-1.143120e-09	-3.772077e+01	-7.387709e+01
2.300000e-07	-5.427193e-06	-1.138007e-09	-3.766226e+01	-7.377455e+01
2.400000e-07	-5.418323e-06	-1.133452e-09	-3.760071e+01	-7.367085e+01
2.500000e-07	-5.408845e-06	-1.106382e-09	-3.753494e+01	-7.356606e+01
2.600000e-07	-5.398658e-06	-1.115169e-09	-3.746425e+01	-7.346021e+01
2.700000e-07	-5.387837e-06	-1.122651e-09	-3.738915e+01	-7.335336e+01
2.800000e-07	-5.376613e-06	-1.129238e-09	-3.731126e+01	-7.324554e+01
2.900000e-07	-5.365113e-06	-1.114917e-09	-3.723146e+01	-7.313676e+01
3.000000e-07	-5.353236e-06	-1.115246e-09	-3.714904e+01	-7.302702e+01
3.100000e-07	-5.340863e-06	-1.119043e-09	-3.706317e+01	-7.291634e+01
3.200000e-07	-5.328015e-06	-1.118317e-09	-3.697401e+01	-7.280467e+01
3.300000e-07	-5.314799e-06	-1.108283e-09	-3.688230e+01	-7.269200e+01
3.400000e-07	-5.301170e-06	-1.098105e-09	-3.678772e+01	-7.257828e+01
3.500000e-07	-5.287040e-06	-1.113407e-09	-3.668966e+01	-7.246344e+01
3.600000e-07	-5.272481e-06	-1.111089e-09	-3.658863e+01	-7.234741e+01
3.700000e-07	-5.257438e-06	-1.095898e-09	-3.648424e+01	-7.223012e+01
3.800000e-07	-5.241964e-06	-1.091576e-09	-3.637686e+01	-7.211144e+01
3.900000e-07	-5.226063e-06	-1.111233e-09	-3.626651e+01	-7.199129e+01
4.000000e-07	-5.209636e-06	-1.091430e-09	-3.615252e+01	-7.186953e+01
4.100000e-07	-5.192810e-06	-1.080021e-09	-3.603576e+01	-7.174602e+01
4.200000e-07	-5.175776e-06	-1.099035e-09	-3.591754e+01	-7.162063e+01
4.300000e-07	-5.158507e-06	-1.100508e-09	-3.579771e+01	-7.149320e+01
4.400000e-07	-5.140870e-06	-1.059782e-09	-3.567531e+01	-7.136357e+01
4.500000e-07	-5.122856e-06	-1.073418e-09	-3.555030e+01	-7.123158e+01
4.600000e-07	-5.104361e-06	-1.096372e-09	-3.542196e+01	-7.109706e+01
4.700000e-07	-5.085384e-06	-1.075069e-09	-3.529027e+01	-7.095982e+01
4.800000e-07	-5.066083e-06	-1.058376e-09	-3.515632e+01	-7.081971e+01
4.900000e-07	-5.046568e-06	-1.087200e-09	-3.502090e+01	-7.067653e+01
5.000000e-07	-5.026887e-06	-1.068278e-09	-3.488432e+01	-7.053013e+01
5.100000e-07	-5.006978e-06	-1.043135e-09	-3.474616e+01	-7.038033e+01
5.200000e-07	-4.986714e-06	-1.061653e-09	-3.460554e+01	-7.022697e+01
5.300000e-07	-4.966092e-06	-1.065414e-09	-3.446243e+01	-7.006989e+01
5.400000e-07	-4.945118e-06	-1.031174e-09	-3.431688e+01	-6.990894e+01
5.500000e-07	-4.923799e-06	-1.048215e-09	-3.416893e+01	-6.974399e+01
5.600000e-07	-4.902120e-06	-1.067498e-09	-3.401849e+01	-6.957491e+01
5.700000e-07	-4.880122e-06	-1.038559e-09	-3.386584e+01	-6.940159e+01
5.800000e-07	-4.857848e-06	-1.029889e-09	-3.371127e+01	-6.922393e+01
5.900000e-07	-4.835169e-06	-1.050464e-09	-3.355388e+01	-6.904184e+01
6.000000e-07	-4.812076e-06	-1.033912e-09	-3.339363e+01	-6.885527e+01
6.100000e-07	-4.788796e-06	-1.022151e-09	-3.323208e+01	-6.866415e+01
6.200000e-07	-4.765321e-06	-1.042921e-09	-3.306917e+01	-6.846847e+01
6.300000e-07	-4.741537e-06	-1.038672e-09	-3.290412e+01	-6.826820e+01
6.400000e-07	-4.717519e-06	-1.021053e-09	-3.273745e+01	-6.806336e+01
6.500000e-07	-4.693154e-06	-1.029164e-09	-3.256837e+01	-6.785395e+01
6.600000e-07	-4.668279e-06	-1.030087e-09	-3.239574e+01	-6.764004e+01
6.700000e-07	-4.642883e-06	-1.011067e-09	-3.221951e+01	-6.742166e+01
6.800000e-07	-4.616915e-06	-1.014920e-09	-3.203930e+01	-6.719891e+01
6.900000e-07	-4.590358e-06	-1.018664e-09	-3.185501e+01	-6.697186e+01
7.000000e-07	-4.563378e-06	-1.009299e-09	-3.166778e+01	-6.674063e+01
7.100000e-07	-4.536113e-06	-1.004599e-09	-3.147857e+01	-6.650534e+01
7.200000e-07	-4.508619e-06	-1.007825e-09	-3.128778e+01	-6.626611e+01
7.300000e-07	-4.480951e-06	-9.932886e-10	-3.109577e+01	-6.602309e+01
7.400000e-07	-4.453111e-06	-9.834370e-10	-3.090258e+01	-6.577643e+01
7.500000e-07	-4.425038e-06	-9.815704e-10	-3.070776e+01	-6.552629e+01
7.600000e-07	-4.396680e-06	-9.793890e-10	-3.051097e+01	-6.527282e+01
7.700000e-07	-4.367997e-06	-9.725711e-10	-3.031192e+01	-6.501620e+01
7.800000e-07	-4.338942e-06	-9.731086e-10	-3.011030e+01	-6.475658e+01
7.900000e-07	-4.309583e-06	-9.663813e-10	-2.990656e+01	-6.449413e+01
8.000000e-07	-4.279991e-06	-9.577366e-10	-2.970120e+01	-6.422901e+01
8.100000e-07	-4.250132e-06	-9.509540e-10	-2.949399e+01	-6.396136e+01
8.200000e-07	-4.219915e-06	-9.457818e-10	-2.928430e+01	-6.369134e+01
8.300000e-07	-4.189356e-06	-9.336831e-10	-2.907223e+01	-6.341907e+01
8.400000e-07	-4.158497e-06	-9.292963e-10	-2.885809e+01	-6.314467e+01
8.500000e-07	-4.127353e-06	-9.294661e-10	-2.864196e+01	-6.286825e+01
8.600000e-07	-4.096051e-06	-9.253169e-10	-2.842474e+01	-6.258990e+01
8.700000e-07	-4.064613e-06	-9.205541e-10	-2.820658e+01	-6.230968e+01
8.800000e-07	-4.032958e-06	-9.193722e-10	-2.798690e+01	-6.202765e+01
8.900000e-07	-4.001061e-06	-9.118711e-10	-2.776555e+01	-6.174383e+01
9.000000e-07	-3.969012e-06	-9.009928e-10	-2.754315e+01	-6.145825e+01
9.100000e-07	-3.936667e-06	-8.945436e-10	-2.731869e+01	-6.117087e+01
9.200000e-07	-3.903826e-06	-8.885888e-10	-2.709079e+01	-6.088168e+01
9.300000e-07	-3.870484e-06	-8.812723e-10	-2.685941e+01	-6.059060e+01
9.400000e-07	-3.836625e-06	-8.783419e-10	-2.662444e+01	-6.029756e+01
9.500000e-07	-3.802373e-06	-8.763437e-10	-2.638675e+01	-6.000245e+01
9.600000e-07	-3.767733e-06	-8.685412e-10	-2.614636e+01	-5.970516e+01
9.700000e-07	-3.732656e-06	-8.604652e-10	-2.590294e+01	-5.940553e+01
9.800000e-07	-3.697302e-06	-8.546485e-10	-2.565760e+01	-5.910340e+01
9.900000e-07	-3.661766e-06	-8.516770e-10	-2.541100e+01	-5.879859e+01
1.000000e-06	-3.626116e-06	-8.477203e-10	-2.516361e+01	-5.849089e+01
1.010000e-06	-3.590409e-06	-8.482694e-10	-2.491582e+01	-5.818010e+01
1.020000e-06	-3.554582e-06	-8.444653e-10	-2.466719e+01	-5.786599e+01
1.030000e-06	-3.518605e-06	-8.349358e-10	-2.441753e+01	-5.754833e+01
1.040000e-06	-3.482484e-06	-8.238331e-10	-2.416686e+01	-5.722686e+01
1.050000e-06	-3.446056e-06	-8.198850e-10	-2.391407e+01	-5.690135e+01
1.060000e-06	-3.409253e-06	-8.146464e-10	-2.365867e+01	-5.657154e+01
1.070000e-06	-3.372121e-06	-8.102389e-10	-2.340100e+01	-5.623719e+01
1.080000e-06	-3.334753e-06	-8.062592e-10	-2.314168e+01	-5.589804e+01
1.090000e-06	-3.297156e-06	-8.007445e-10	-2.288077e+01	-5.555386e+01
1.100000e-06	-3.259289e-06	-7.917935e-10	-2.261799e+01	-5.520441e+01
1.110000e-06	-3.221215e-06	-7.849678e-10	-2.235378e+01	-5.484948e+01
1.120000e-06	-3.182907e-06	-7.779818e-10	-2.208794e+01	-5.448886e+01
1.130000e-06	-3.144378e-06	-7.733129e-10	-2.182056e+01	-5.412235e+01
1.140000e-06	-3.105632e-06	-7.711734e-10	-2.155168e+01	-5.374979e+01
1.150000e-06	-3.066637e-06	-7.681012e-10	-2.128107e+01	-5.337101e+01
1.160000e-06	-3.027464e-06	-7.600081e-10	-2.100923e+01	-5.298590e+01
1.170000e-06	-2.988175e-06	-7.513679e-10	-2.073658e+01	-5.259434e+01
1.180000e-06	-2.948759e-06	-7.440906e-10	-2.046305e+01	-5.219625e+01
1.190000e-06	-2.909215e-06	-7.371998e-10	-2.018864e+01	-5.179157e+01
1.200000e-06	-2.869565e-06	-7.301247e-10	-1.991348e+01	-5.138027e+01
1.210000e-06	-2.829808e-06	-7.227092e-10	-1.963759e+01	-5.096234e+01
1.220000e-06	-2.789853e-06	-7.154502e-10	-1.936031e+01	-5.053779e+01
1.230000e-06	-2.749701e-06	-7.068869e-10	-1.908168e+01	-5.010668e+01
1.240000e-06	-2.709408e-06	-6.986316e-10	-1.880206e+01	-4.966906e+01
1.250000e-06	-2.668880e-06	-6.914033e-10	-1.852082e+01	-4.922503e+01
1.260000e-06	-2.628094e-06	-6.845499e-10	-1.823779e+01	-4.877469e+01
1.270000e-06	-2.587095e-06	-6.777364e-10	-1.795327e+01	-4.831818e+01
1.280000e-06	-2.545810e-06	-6.722693e-10	-1.766677e+01	-4.785563e+01
1.290000e-06	-2.504122e-06	-6.664063e-10	-1.737747e+01	-4.738720e+01
1.300000e-06	-2.462025e-06	-6.603742e-10	-1.708534e+01	-4.691305e+01
1.310000e-06	-2.419650e-06	-6.510780e-10	-1.679128e+01	-4.643337e+01
1.320000e-06	-2.377049e-06	-6.409799e-10	-1.649564e+01	-4.594833e+01
1.330000e-06	-2.334151e-06	-6.310278e-10	-1.619795e+01	-4.545810e+01
1.340000e-06	-2.291091e-06	-6.235606e-10	-1.589913e+01	-4.496286e+01
1.350000e-06	-2.247911e-06	-6.175644e-10	-1.559949e+01	-4.446277e+01
1.360000e-06	-2.204505e-06	-6.142999e-10	-1.529827e+01	-4.395797e+01
1.370000e-06	-2.160962e-06	-6.094419e-10	-1.499610e+01	-4.344862e+01
1.380000e-06	-2.117368e-06	-6.011829e-10	-1.469358e+01	-4.293482e+01
1.390000e-06	-2.073716e-06	-5.897894e-10	-1.439065e+01	-4.241665e+01
1.400000e-06	-2.029970e-06	-5.787096e-10	-1.408708e+01	-4.189419e+01
1.410000e-06	-1.986129e-06	-5.678139e-10	-1.378284e+01	-4.136746e+01
1.420000e-06	-1.942225e-06	-5.586819e-10	-1.347816e+01	-4.083646e+01
1.430000e-06	-1.898280e-06	-5.515052e-10	-1.317320e+01	-4.030115e+01
1.440000e-06	-1.854255e-06	-5.463399e-10	-1.286769e+01	-3.976142e+01
1.450000e-06	-1.810055e-06	-5.403777e-10	-1.256096e+01	-3.921717e+01
1.460000e-06	-1.765704e-06	-5.322152e-10	-1.225319e+01	-3.866821e+01
1.470000e-06	-1.721279e-06	-5.224490e-10	-1.194489e+01	-3.811431e+01
1.480000e-06	-1.676695e-06	-5.121457e-10	-1.163550e+01	-3.755522e+01
1.490000e-06	-1.631917e-06	-5.025571e-10	-1.132477e+01	-3.699059e+01
1.500000e-06	-1.586987e-06	-4.949972e-10	-1.101297e+01	-3.642007e+01
1.510000e-06	-1.541974e-06	-4.900160e-10	-1.070060e+01	-3.584323e+01
1.520000e-06	-1.496843e-06	-4.838958e-10	-1.038741e+01	-3.525961e+01
1.530000e-06	-1.451490e-06	-4.757890e-10	-1.007269e+01	-3.466867e+01
1.540000e-06	-1.405969e-06	-4.666191e-10	-9.756790e+00	-3.406988e+01
1.550000e-06	-1.360442e-06	-4.567356e-10	-9.440854e+00	-3.346261e+01
1.560000e-06	-1.314977e-06	-4.459491e-10	-9.125343e+00	-3.284623e+01
1.570000e-06	-1.269477e-06	-4.351163e-10	-8.809596e+00	-3.222006e+01
1.580000e-06	-1.223780e-06	-4.236207e-10	-8.492483e+00	-3.158338e+01
1.590000e-06	-1.177948e-06	-4.127811e-10	-8.174426e+00	-3.093547e+01
1.600000e-06	-1.132077e-06	-4.025630e-10	-7.856101e+00	-3.027557e+01
1.610000e-06	-1.086068e-06	-3.920328e-10	-7.536819e+00	-2.960289e+01
1.620000e-06	-1.040028e-06	-3.776217e-10	-7.217326e+00	-2.891667e+01
1.630000e-06	-9.940131e-07	-3.619562e-10	-6.898001e+00	-2.821611e+01
1.640000e-06	-9.478910e-07	-3.483575e-10	-6.577935e+00	-2.750043e+01
1.650000e-06	-9.016019e-07	-3.385507e-10	-6.256709e+00	-2.676885e+01
1.660000e-06	-8.551889e-07	-3.304484e-10	-5.934624e+00	-2.602063e+01
1.670000e-06	-8.087495e-07	-3.206648e-10	-5.612356e+00	-2.525503e+01
1.680000e-06	-7.623036e-07	-3.082938e-10	-5.290042e+00	-2.447134e+01
1.690000e-06	-7.158365e-07	-2.952665e-10	-4.967581e+00	-2.366892e+01
1.700000e-06	-6.693613e-07	-2.812259e-10	-4.645065e+00	-2.284714e+01
1.710000e-06	-6.227798e-07	-2.664134e-10	-4.321810e+00	-2.200543e+01
1.720000e-06	-5.760118e-07	-2.526827e-10	-3.997262e+00	-2.114330e+01
1.730000e-06	-5.291973e-07	-2.398715e-10	-3.672390e+00	-2.026031e+01
1.740000e-06	-4.823728e-07	-2.264063e-10	-3.347449e+00	-1.935609e+01
1.750000e-06	-4.354715e-07	-2.127760e-10	-3.021975e+00	-1.843034e+01
1.760000e-06	-3.885349e-07	-1.998803e-10	-2.696257e+00	-1.748287e+01
1.770000e-06	-3.415379e-07	-1.857937e-10	-2.370119e+00	-1.651355e+01
1.780000e-06	-2.945150e-07	-1.697090e-10	-2.043801e+00	-1.552235e+01
1.790000e-06	-2.476038e-07	-1.546890e-10	-1.718258e+00	-1.450935e+01
1.800000e-06	-2.007111e-07	-1.404777e-10	-1.392844e+00	-1.347469e+01
1.810000e-06	-1.537678e-07	-1.242134e-10	-1.067079e+00	-1.241866e+01
1.820000e-06	-1.067708e-07	-1.089516e-10	-7.409411e-01	-1.134160e+01
1.830000e-06	-5.974786e-08	-9.477777e-11	-4.146231e-01	-1.024399e+01
1.840000e-06	-1.276861e-08	-8.041412e-11	-8.860836e-02	-9.126405e+00
1.850000e-06	3.414228e-08	-6.666644e-11	2.369320e-01	-7.989503e+00
1.860000e-06	8.098725e-08	-5.153405e-11	5.620149e-01	-6.834056e+00
1.870000e-06	1.278147e-07	-3.176580e-11	8.869763e-01	-5.660931e+00
1.880000e-06	1.746750e-07	-1.061769e-11	1.212166e+00	-4.471088e+00
1.890000e-06	2.215807e-07	7.641752e-12	1.537670e+00	-3.265577e+00
1.900000e-06	2.685218e-07	2.456064e-11	1.863420e+00	-2.045533e+00
1.910000e-06	3.154314e-07	4.072634e-11	2.188951e+00	-8.121728e-01
1.920000e-06	3.622751e-07	5.715821e-11	2.514025e+00	4.332137e-01
1.930000e-06	4.091336e-07	7.403172e-11	2.839202e+00	1.689268e+00
1.940000e-06	4.559697e-07	9.101922e-11	3.164223e+00	2.954571e+00
1.950000e-06	5.026736e-07	1.111555e-10	3.488327e+00	4.227649e+00
1.960000e-06	5.492401e-07	1.319716e-10	3.811478e+00	5.506985e+00
1.970000e-06	5.958412e-07	1.492894e-10	4.134868e+00	6.791022e+00
1.980000e-06	6.424555e-07	1.647362e-10	4.458350e+00	8.078177e+00
1.990000e-06	6.889912e-07	1.787548e-10	4.781287e+00	9.366845e+00
2.000000e-06	7.354572e-07	1.926333e-10	5.103740e+00	1.065541e+01
2.010000e-06	7.818551e-07	2.086305e-10	5.425721e+00	1.194226e+01
2.020000e-06	8.281884e-07	2.262636e-10	5.747253e+00	1.322578e+01
2.030000e-06	8.744518e-07	2.476653e-10	6.068300e+00	1.450437e+01
2.040000e-06	9.206499e-07	2.696136e-10	6.388894e+00	1.577648e+01
2.050000e-06	9.667583e-07	2.891382e-10	6.708865e+00	1.704056e+01
2.060000e-06	1.012807e-06	3.078374e-10	7.028425e+00	1.829513e+01
2.070000e-06	1.058795e-06	3.231374e-10	7.347560e+00	1.953874e+01
2.080000e-06	1.104684e-06	3.374141e-10	7.666011e+00	2.077000e+01
2.090000e-06	1.150494e-06	3.524717e-10	7.983904e+00	2.198761e+01
2.100000e-06	1.196228e-06	3.696693e-10	8.301279e+00	2.319030e+01
2.110000e-06	1.241884e-06	3.872792e-10	8.618114e+00	2.437692e+01
2.120000e-06	1.287468e-06	4.046472e-10	8.934444e+00	2.554637e+01
2.130000e-06	1.332996e-06	4.223631e-10	9.250387e+00	2.669766e+01
2.140000e-06	1.378442e-06	4.375940e-10	9.565762e+00	2.782988e+01
2.150000e-06	1.423761e-06	4.508245e-10	9.880261e+00	2.894222e+01
2.160000e-06	1.469010e-06	4.624670e-10	1.019427e+01	3.003396e+01
2.170000e-06	1.514177e-06	4.745260e-10	1.050770e+01	3.110449e+01
2.180000e-06	1.559162e-06	4.875223e-10	1.081988e+01	3.215330e+01
2.190000e-06	1.604035e-06	5.023744e-10	1.113128e+01	3.317998e+01
2.200000e-06	1.648816e-06	5.169956e-10	1.144204e+01	3.418421e+01
2.210000e-06	1.693435e-06	5.311176e-10	1.175167e+01	3.516578e+01
2.220000e-06	1.737973e-06	5.435580e-10	1.206074e+01	3.612459e+01
2.230000e-06	1.782434e-06	5.530207e-10	1.236929e+01	3.706061e+01
2.240000e-06	1.826728e-06	5.632729e-10	1.267667e+01	3.797391e+01
2.250000e-06	1.870844e-06	5.759426e-10	1.298281e+01	3.886465e+01
2.260000e-06	1.914856e-06	5.897315e-10	1.328823e+01	3.973309e+01
2.270000e-06	1.958771e-06	6.036115e-10	1.359299e+01	4.057953e+01
2.280000e-06	2.002556e-06	6.165696e-10	1.389683e+01	4.140438e+01
2.290000e-06	2.046236e-06	6.294131e-10	1.419995e+01	4.220810e+01
2.300000e-06	2.089827e-06	6.407046e-10	1.450246e+01	4.299120e+01
2.310000e-06	2.133376e-06	6.503904e-10	1.480466e+01	4.375428e+01
2.320000e-06	2.176912e-06	6.606448e-10	1.510679e+01	4.449795e+01
2.330000e-06	2.220400e-06	6.718841e-10	1.540857e+01	4.522288e+01
2.340000e-06	2.263742e-06	6.832721e-10	1.570934e+01	4.592976e+01
2.350000e-06	2.306871e-06	6.931037e-10	1.600864e+01	4.661932e+01
2.360000e-06	2.349809e-06	7.014567e-10	1.630661e+01	4.729230e+01
2.370000e-06	2.392580e-06	7.100734e-10	1.660342e+01	4.794946e+01
2.380000e-06	2.435037e-06	7.206406e-10	1.689806e+01	4.859156e+01
2.390000e-06	2.477196e-06	7.316133e-10	1.719062e+01	4.921935e+01
2.400000e-06	2.519147e-06	7.411389e-10	1.748174e+01	4.983359e+01
2.410000e-06	2.560793e-06	7.500970e-10	1.777075e+01	5.043502e+01
2.420000e-06	2.602139e-06	7.594640e-10	1.805767e+01	5.102434e+01
2.430000e-06	2.643206e-06	7.681204e-10	1.834266e+01	5.160226e+01
2.440000e-06	2.683941e-06	7.745412e-10	1.862533e+01	5.216944e+01
2.450000e-06	2.724414e-06	7.802813e-10	1.890620e+01	5.272650e+01
2.460000e-06	2.764657e-06	7.871440e-10	1.918547e+01	5.327403e+01
2.470000e-06	2.804599e-06	7.945839e-10	1.946265e+01	5.381258e+01
2.480000e-06	2.844384e-06	8.034096e-10	1.973874e+01	5.434265e+01
2.490000e-06	2.884121e-06	8.111791e-10	2.001450e+01	5.486471e+01
2.500000e-06	2.923722e-06	8.184841e-10	2.028931e+01	5.537915e+01
2.510000e-06	2.963157e-06	8.273638e-10	2.056297e+01	5.588635e+01
2.520000e-06	3.002496e-06	8.363088e-10	2.083597e+01	5.638660e+01
2.530000e-06	3.041654e-06	8.449173e-10	2.110770e+01	5.688017e+01
2.540000e-06	3.080605e-06	8.548002e-10	2.137801e+01	5.736726e+01
2.550000e-06	3.119366e-06	8.636837e-10	2.164699e+01	5.784804e+01
2.560000e-06	3.157809e-06	8.688138e-10	2.191376e+01	5.832262e+01
2.570000e-06	3.196008e-06	8.721465e-10	2.217885e+01	5.879107e+01
2.580000e-06	3.234023e-06	8.780936e-10	2.244266e+01	5.925342e+01
2.590000e-06	3.271823e-06	8.873196e-10	2.270497e+01	5.970965e+01
2.600000e-06	3.309489e-06	8.962712e-10	2.296636e+01	6.015971e+01
2.610000e-06	3.346907e-06	9.028444e-10	2.322602e+01	6.060351e+01
2.620000e-06	3.384015e-06	9.072883e-10	2.348354e+01	6.104095e+01
2.630000e-06	3.420990e-06	9.117154e-10	2.374013e+01	6.147189e+01
2.640000e-06	3.457743e-06	9.162115e-10	2.399517e+01	6.189615e+01
2.650000e-06	3.494156e-06	9.217019e-10	2.424786e+01	6.231357e+01
2.660000e-06	3.530331e-06	9.291882e-10	2.449890e+01	6.272394e+01
2.670000e-06	3.566311e-06	9.358151e-10	2.474858e+01	6.312707e+01
2.680000e-06	3.602112e-06	9.401795e-10	2.499703e+01	6.352274e+01
2.690000e-06	3.637766e-06	9.417450e-10	2.524445e+01	6.391075e+01
2.700000e-06	3.673296e-06	9.431566e-10	2.549101e+01	6.429089e+01
2.710000e-06	3.708681e-06	9.481044e-10	2.573657e+01	6.466295e+01
2.720000e-06	3.743871e-06	9.545488e-10	2.598077e+01	6.502675e+01
2.730000e-06	3.778784e-06	9.607125e-10	2.622305e+01	6.538212e+01
2.740000e-06	3.813268e-06	9.659319e-10	2.646235e+01	6.572887e+01
2.750000e-06	3.847362e-06	9.695632e-10	2.669895e+01	6.606689e+01
2.760000e-06	3.881071e-06	9.712760e-10	2.693287e+01	6.639604e+01
2.770000e-06	3.914190e-06	9.725793e-10	2.716271e+01	6.671624e+01
2.780000e-06	3.946836e-06	9.744973e-10	2.738926e+01	6.702740e+01
2.790000e-06	3.979189e-06	9.765630e-10	2.761377e+01	6.732950e+01
2.800000e-06	4.011201e-06	9.786994e-10	2.783592e+01	6.762250e+01
2.810000e-06	4.042930e-06	9.807553e-10	2.805611e+01	6.790644e+01
2.820000e-06	4.074512e-06	9.830000e-10	2.827527e+01	6.818135e+01
2.830000e-06	4.106000e-06	9.855963e-10	2.849378e+01	6.844731e+01
2.840000e-06	4.137340e-06	9.888780e-10	2.871127e+01	6.870442e+01
2.850000e-06	4.168402e-06	9.920026e-10	2.892683e+01	6.895281e+01
2.860000e-06	4.199087e-06	9.942471e-10	2.913976e+01	6.919265e+01
2.870000e-06	4.229417e-06	9.964844e-10	2.935024e+01	6.942411e+01
2.880000e-06	4.259486e-06	9.987671e-10	2.955890e+01	6.964742e+01
2.890000e-06	4.289273e-06	9.987653e-10	2.976562e+01	6.986279e+01
2.900000e-06	4.318746e-06	9.968620e-10	2.997015e+01	7.007050e+01
2.910000e-06	4.347995e-06	9.976260e-10	3.017312e+01	7.027080e+01
