# Temperatura_=_10.1
# Concentracion g/m^3_=_1620.0
# C_Vs_to_Am_M_A/Vsm_=_65563218390.804596
# pendiente_HvsI_1/m_=_3716.3
# ordenada_HvsI_A/m_=_1297.0
# frecuencia_Hz_=_135108.4138910992

Tiempo_(s)	Campo_(V.s)	Magnetizacion_(V.s)	Campo_(kA/m)	Magnetizacion_(A/m)
0.000000e+00	-5.523748e-06	-1.193618e-09	-3.836880e+01	-7.867917e+01
1.000000e-08	-5.523852e-06	-1.192231e-09	-3.836952e+01	-7.863915e+01
2.000000e-08	-5.523623e-06	-1.191671e-09	-3.836793e+01	-7.859807e+01
3.000000e-08	-5.522989e-06	-1.191683e-09	-3.836353e+01	-7.855593e+01
4.000000e-08	-5.521822e-06	-1.191791e-09	-3.835542e+01	-7.851270e+01
5.000000e-08	-5.519965e-06	-1.192699e-09	-3.834252e+01	-7.846837e+01
6.000000e-08	-5.517492e-06	-1.193052e-09	-3.832534e+01	-7.842288e+01
7.000000e-08	-5.514521e-06	-1.191576e-09	-3.830471e+01	-7.837616e+01
8.000000e-08	-5.511091e-06	-1.188117e-09	-3.828088e+01	-7.832814e+01
9.000000e-08	-5.507279e-06	-1.199234e-09	-3.825440e+01	-7.827874e+01
1.000000e-07	-5.503024e-06	-1.227872e-09	-3.822484e+01	-7.822784e+01
1.100000e-07	-5.498503e-06	-1.211046e-09	-3.819344e+01	-7.817534e+01
1.200000e-07	-5.493936e-06	-1.178440e-09	-3.816172e+01	-7.812113e+01
1.300000e-07	-5.489022e-06	-1.168288e-09	-3.812759e+01	-7.806507e+01
1.400000e-07	-5.483574e-06	-1.192338e-09	-3.808975e+01	-7.800703e+01
1.500000e-07	-5.477730e-06	-1.203528e-09	-3.804915e+01	-7.794689e+01
1.600000e-07	-5.471550e-06	-1.175620e-09	-3.800622e+01	-7.788451e+01
1.700000e-07	-5.464981e-06	-1.181682e-09	-3.796059e+01	-7.781974e+01
1.800000e-07	-5.458018e-06	-1.196430e-09	-3.791223e+01	-7.775246e+01
1.900000e-07	-5.450739e-06	-1.196951e-09	-3.786166e+01	-7.768253e+01
2.000000e-07	-5.443141e-06	-1.159882e-09	-3.780889e+01	-7.760982e+01
2.100000e-07	-5.435253e-06	-1.170690e-09	-3.775410e+01	-7.753422e+01
2.200000e-07	-5.427148e-06	-1.193640e-09	-3.769780e+01	-7.745559e+01
2.300000e-07	-5.418699e-06	-1.193392e-09	-3.763911e+01	-7.737383e+01
2.400000e-07	-5.409739e-06	-1.164084e-09	-3.757687e+01	-7.728883e+01
2.500000e-07	-5.400034e-06	-1.163022e-09	-3.750946e+01	-7.720051e+01
2.600000e-07	-5.389497e-06	-1.171507e-09	-3.743627e+01	-7.710877e+01
2.700000e-07	-5.378469e-06	-1.167419e-09	-3.735967e+01	-7.701353e+01
2.800000e-07	-5.367121e-06	-1.154987e-09	-3.728084e+01	-7.691474e+01
2.900000e-07	-5.355424e-06	-1.157666e-09	-3.719959e+01	-7.681233e+01
3.000000e-07	-5.343381e-06	-1.163317e-09	-3.711594e+01	-7.670626e+01
3.100000e-07	-5.330907e-06	-1.146090e-09	-3.702929e+01	-7.659650e+01
3.200000e-07	-5.317945e-06	-1.137629e-09	-3.693926e+01	-7.648300e+01
3.300000e-07	-5.304632e-06	-1.141173e-09	-3.684679e+01	-7.636577e+01
3.400000e-07	-5.291024e-06	-1.142653e-09	-3.675226e+01	-7.624479e+01
3.500000e-07	-5.276926e-06	-1.124638e-09	-3.665433e+01	-7.612006e+01
3.600000e-07	-5.262205e-06	-1.128080e-09	-3.655208e+01	-7.599160e+01
3.700000e-07	-5.246979e-06	-1.138630e-09	-3.644632e+01	-7.585941e+01
3.800000e-07	-5.231263e-06	-1.144366e-09	-3.633715e+01	-7.572352e+01
3.900000e-07	-5.215052e-06	-1.124511e-09	-3.622455e+01	-7.558395e+01
4.000000e-07	-5.198460e-06	-1.124260e-09	-3.610930e+01	-7.544075e+01
4.100000e-07	-5.181585e-06	-1.133028e-09	-3.599208e+01	-7.529394e+01
4.200000e-07	-5.164424e-06	-1.133190e-09	-3.587288e+01	-7.514357e+01
4.300000e-07	-5.146921e-06	-1.113441e-09	-3.575130e+01	-7.498968e+01
4.400000e-07	-5.129065e-06	-1.116220e-09	-3.562727e+01	-7.483231e+01
4.500000e-07	-5.110796e-06	-1.120059e-09	-3.550037e+01	-7.467150e+01
4.600000e-07	-5.092052e-06	-1.107335e-09	-3.537017e+01	-7.450730e+01
4.700000e-07	-5.072937e-06	-1.098489e-09	-3.523740e+01	-7.433975e+01
4.800000e-07	-5.053588e-06	-1.117794e-09	-3.510300e+01	-7.416890e+01
4.900000e-07	-5.034046e-06	-1.120670e-09	-3.496725e+01	-7.399477e+01
5.000000e-07	-5.014314e-06	-1.108442e-09	-3.483019e+01	-7.381741e+01
5.100000e-07	-4.994331e-06	-1.100119e-09	-3.469139e+01	-7.363684e+01
5.200000e-07	-4.973951e-06	-1.096168e-09	-3.454982e+01	-7.345310e+01
5.300000e-07	-4.953151e-06	-1.082732e-09	-3.440535e+01	-7.326620e+01
5.400000e-07	-4.932029e-06	-1.081605e-09	-3.425863e+01	-7.307618e+01
5.500000e-07	-4.910619e-06	-1.087304e-09	-3.410991e+01	-7.288304e+01
5.600000e-07	-4.888921e-06	-1.084185e-09	-3.395919e+01	-7.268679e+01
5.700000e-07	-4.866835e-06	-1.083430e-09	-3.380578e+01	-7.248744e+01
5.800000e-07	-4.844404e-06	-1.089212e-09	-3.364997e+01	-7.228500e+01
5.900000e-07	-4.821599e-06	-1.083593e-09	-3.349156e+01	-7.207945e+01
6.000000e-07	-4.798419e-06	-1.071140e-09	-3.333055e+01	-7.187080e+01
6.100000e-07	-4.775038e-06	-1.070428e-09	-3.316815e+01	-7.165904e+01
6.200000e-07	-4.751491e-06	-1.063829e-09	-3.300459e+01	-7.144414e+01
6.300000e-07	-4.727689e-06	-1.058952e-09	-3.283925e+01	-7.122610e+01
6.400000e-07	-4.703591e-06	-1.059301e-09	-3.267187e+01	-7.100489e+01
6.500000e-07	-4.679075e-06	-1.060666e-09	-3.250157e+01	-7.078050e+01
6.600000e-07	-4.653948e-06	-1.052221e-09	-3.232704e+01	-7.055290e+01
6.700000e-07	-4.628245e-06	-1.049318e-09	-3.214850e+01	-7.032207e+01
6.800000e-07	-4.601986e-06	-1.048190e-09	-3.196610e+01	-7.008799e+01
6.900000e-07	-4.575244e-06	-1.045374e-09	-3.178035e+01	-6.985062e+01
7.000000e-07	-4.548135e-06	-1.042891e-09	-3.159204e+01	-6.960995e+01
7.100000e-07	-4.520744e-06	-1.042603e-09	-3.140178e+01	-6.936595e+01
7.200000e-07	-4.493180e-06	-1.035491e-09	-3.121032e+01	-6.911859e+01
7.300000e-07	-4.465429e-06	-1.035908e-09	-3.101755e+01	-6.886786e+01
7.400000e-07	-4.437478e-06	-1.034957e-09	-3.082340e+01	-6.861372e+01
7.500000e-07	-4.409268e-06	-1.030392e-09	-3.062745e+01	-6.835618e+01
7.600000e-07	-4.380739e-06	-1.026723e-09	-3.042928e+01	-6.809519e+01
7.700000e-07	-4.351912e-06	-1.024688e-09	-3.022905e+01	-6.783076e+01
7.800000e-07	-4.322802e-06	-1.013657e-09	-3.002684e+01	-6.756285e+01
7.900000e-07	-4.293442e-06	-1.006997e-09	-2.982290e+01	-6.729147e+01
8.000000e-07	-4.263817e-06	-1.002105e-09	-2.961712e+01	-6.701660e+01
8.100000e-07	-4.233810e-06	-9.921741e-10	-2.940869e+01	-6.673823e+01
8.200000e-07	-4.203414e-06	-9.833888e-10	-2.919756e+01	-6.645634e+01
8.300000e-07	-4.172761e-06	-9.807175e-10	-2.898464e+01	-6.617094e+01
8.400000e-07	-4.141869e-06	-9.754402e-10	-2.877005e+01	-6.588202e+01
8.500000e-07	-4.110702e-06	-9.697723e-10	-2.855357e+01	-6.558957e+01
8.600000e-07	-4.079350e-06	-9.691854e-10	-2.833579e+01	-6.529359e+01
8.700000e-07	-4.047836e-06	-9.663828e-10	-2.811689e+01	-6.499406e+01
8.800000e-07	-4.016094e-06	-9.617911e-10	-2.789641e+01	-6.469098e+01
8.900000e-07	-3.984114e-06	-9.576515e-10	-2.767427e+01	-6.438435e+01
9.000000e-07	-3.951851e-06	-9.496181e-10	-2.745016e+01	-6.407415e+01
9.100000e-07	-3.919217e-06	-9.378857e-10	-2.722348e+01	-6.376037e+01
9.200000e-07	-3.886091e-06	-9.301163e-10	-2.699338e+01	-6.344301e+01
9.300000e-07	-3.852484e-06	-9.249298e-10	-2.675994e+01	-6.312203e+01
9.400000e-07	-3.818542e-06	-9.192299e-10	-2.652418e+01	-6.279744e+01
9.500000e-07	-3.784227e-06	-9.132192e-10	-2.628582e+01	-6.246919e+01
9.600000e-07	-3.749507e-06	-9.098578e-10	-2.604465e+01	-6.213728e+01
9.700000e-07	-3.714478e-06	-9.041595e-10	-2.580134e+01	-6.180167e+01
9.800000e-07	-3.679215e-06	-8.989274e-10	-2.555639e+01	-6.146233e+01
9.900000e-07	-3.643767e-06	-8.945247e-10	-2.531016e+01	-6.111923e+01
1.000000e-06	-3.608163e-06	-8.905295e-10	-2.506285e+01	-6.077234e+01
1.010000e-06	-3.572397e-06	-8.843471e-10	-2.481441e+01	-6.042160e+01
1.020000e-06	-3.536455e-06	-8.786396e-10	-2.456476e+01	-6.006698e+01
1.030000e-06	-3.500324e-06	-8.707047e-10	-2.431379e+01	-5.970844e+01
1.040000e-06	-3.463957e-06	-8.639859e-10	-2.406118e+01	-5.934592e+01
1.050000e-06	-3.427312e-06	-8.592132e-10	-2.380663e+01	-5.897937e+01
1.060000e-06	-3.390399e-06	-8.543995e-10	-2.355023e+01	-5.860875e+01
1.070000e-06	-3.353228e-06	-8.453073e-10	-2.329204e+01	-5.823400e+01
1.080000e-06	-3.315845e-06	-8.383127e-10	-2.303236e+01	-5.785506e+01
1.090000e-06	-3.278228e-06	-8.329208e-10	-2.277108e+01	-5.747189e+01
1.100000e-06	-3.240352e-06	-8.247202e-10	-2.250798e+01	-5.708443e+01
1.110000e-06	-3.202293e-06	-8.143545e-10	-2.224361e+01	-5.669264e+01
1.120000e-06	-3.163985e-06	-8.054548e-10	-2.197752e+01	-5.629644e+01
1.130000e-06	-3.125428e-06	-7.975380e-10	-2.170970e+01	-5.589581e+01
1.140000e-06	-3.086598e-06	-7.904455e-10	-2.143998e+01	-5.549069e+01
1.150000e-06	-3.047532e-06	-7.848496e-10	-2.116862e+01	-5.508104e+01
1.160000e-06	-3.008375e-06	-7.791270e-10	-2.089663e+01	-5.466681e+01
1.170000e-06	-2.969117e-06	-7.719686e-10	-2.062394e+01	-5.424797e+01
1.180000e-06	-2.929735e-06	-7.670816e-10	-2.035039e+01	-5.382448e+01
1.190000e-06	-2.890166e-06	-7.641435e-10	-2.007553e+01	-5.339631e+01
1.200000e-06	-2.850413e-06	-7.584507e-10	-1.979940e+01	-5.296343e+01
1.210000e-06	-2.810551e-06	-7.512645e-10	-1.952252e+01	-5.252582e+01
1.220000e-06	-2.770533e-06	-7.444384e-10	-1.924455e+01	-5.208345e+01
1.230000e-06	-2.730268e-06	-7.352755e-10	-1.896486e+01	-5.163630e+01
1.240000e-06	-2.689776e-06	-7.254696e-10	-1.868359e+01	-5.118436e+01
1.250000e-06	-2.649008e-06	-7.190992e-10	-1.840041e+01	-5.072761e+01
1.260000e-06	-2.607945e-06	-7.126619e-10	-1.811519e+01	-5.026602e+01
1.270000e-06	-2.566691e-06	-7.065544e-10	-1.782862e+01	-4.979958e+01
1.280000e-06	-2.525170e-06	-7.021594e-10	-1.754022e+01	-4.932827e+01
1.290000e-06	-2.483289e-06	-6.991468e-10	-1.724930e+01	-4.885208e+01
1.300000e-06	-2.441135e-06	-6.931001e-10	-1.695650e+01	-4.837096e+01
1.310000e-06	-2.398744e-06	-6.847681e-10	-1.666204e+01	-4.788489e+01
1.320000e-06	-2.356023e-06	-6.746333e-10	-1.636530e+01	-4.739384e+01
1.330000e-06	-2.312943e-06	-6.637158e-10	-1.606606e+01	-4.689774e+01
1.340000e-06	-2.269705e-06	-6.543228e-10	-1.576572e+01	-4.639655e+01
1.350000e-06	-2.226464e-06	-6.490027e-10	-1.546536e+01	-4.589019e+01
1.360000e-06	-2.183095e-06	-6.456076e-10	-1.516411e+01	-4.537857e+01
1.370000e-06	-2.139526e-06	-6.417619e-10	-1.486147e+01	-4.486161e+01
1.380000e-06	-2.095841e-06	-6.355203e-10	-1.455803e+01	-4.433917e+01
1.390000e-06	-2.052093e-06	-6.256651e-10	-1.425415e+01	-4.381114e+01
1.400000e-06	-2.008256e-06	-6.109449e-10	-1.394965e+01	-4.327734e+01
1.410000e-06	-1.964333e-06	-5.965221e-10	-1.364456e+01	-4.273761e+01
1.420000e-06	-1.920377e-06	-5.859839e-10	-1.333923e+01	-4.219175e+01
1.430000e-06	-1.876356e-06	-5.776301e-10	-1.303345e+01	-4.163953e+01
1.440000e-06	-1.832239e-06	-5.702889e-10	-1.272701e+01	-4.108070e+01
1.450000e-06	-1.788011e-06	-5.636776e-10	-1.241980e+01	-4.051499e+01
1.460000e-06	-1.743625e-06	-5.566599e-10	-1.211148e+01	-3.994209e+01
1.470000e-06	-1.699031e-06	-5.490229e-10	-1.180173e+01	-3.936170e+01
1.480000e-06	-1.654234e-06	-5.407292e-10	-1.149056e+01	-3.877343e+01
1.490000e-06	-1.609284e-06	-5.319708e-10	-1.117833e+01	-3.817693e+01
1.500000e-06	-1.564241e-06	-5.228764e-10	-1.086545e+01	-3.757178e+01
1.510000e-06	-1.519116e-06	-5.137993e-10	-1.055201e+01	-3.695755e+01
1.520000e-06	-1.473899e-06	-5.050570e-10	-1.023793e+01	-3.633379e+01
1.530000e-06	-1.428603e-06	-4.965327e-10	-9.923297e+00	-3.570002e+01
1.540000e-06	-1.383182e-06	-4.892696e-10	-9.607796e+00	-3.505574e+01
1.550000e-06	-1.337683e-06	-4.798591e-10	-9.291749e+00	-3.440044e+01
1.560000e-06	-1.292136e-06	-4.677123e-10	-8.975376e+00	-3.373358e+01
1.570000e-06	-1.246420e-06	-4.546453e-10	-8.657821e+00	-3.305462e+01
1.580000e-06	-1.200599e-06	-4.404300e-10	-8.339545e+00	-3.236300e+01
1.590000e-06	-1.154787e-06	-4.250637e-10	-8.021330e+00	-3.165817e+01
1.600000e-06	-1.108912e-06	-4.125721e-10	-7.702670e+00	-3.093955e+01
1.610000e-06	-1.062917e-06	-4.014607e-10	-7.383184e+00	-3.020658e+01
1.620000e-06	-1.016819e-06	-3.884897e-10	-7.062977e+00	-2.945871e+01
1.630000e-06	-9.706245e-07	-3.764736e-10	-6.742107e+00	-2.869538e+01
1.640000e-06	-9.243210e-07	-3.637246e-10	-6.420475e+00	-2.791606e+01
1.650000e-06	-8.779264e-07	-3.507969e-10	-6.098211e+00	-2.712022e+01
1.660000e-06	-8.315268e-07	-3.387893e-10	-5.775912e+00	-2.630739e+01
1.670000e-06	-7.850922e-07	-3.259819e-10	-5.453371e+00	-2.547708e+01
1.680000e-06	-7.385316e-07	-3.134710e-10	-5.129953e+00	-2.462887e+01
1.690000e-06	-6.919612e-07	-3.007627e-10	-4.806468e+00	-2.376237e+01
1.700000e-06	-6.452847e-07	-2.881748e-10	-4.482246e+00	-2.287721e+01
1.710000e-06	-5.985711e-07	-2.744618e-10	-4.157766e+00	-2.197310e+01
1.720000e-06	-5.520048e-07	-2.603477e-10	-3.834310e+00	-2.104979e+01
1.730000e-06	-5.053845e-07	-2.446359e-10	-3.510478e+00	-2.010707e+01
1.740000e-06	-4.587008e-07	-2.282777e-10	-3.186206e+00	-1.914481e+01
1.750000e-06	-4.120193e-07	-2.118582e-10	-2.861949e+00	-1.816294e+01
1.760000e-06	-3.652116e-07	-1.957046e-10	-2.536816e+00	-1.716145e+01
1.770000e-06	-3.182872e-07	-1.805312e-10	-2.210871e+00	-1.614042e+01
1.780000e-06	-2.713944e-07	-1.678901e-10	-1.885147e+00	-1.509997e+01
1.790000e-06	-2.245116e-07	-1.570394e-10	-1.559492e+00	-1.404032e+01
1.800000e-06	-1.775671e-07	-1.438607e-10	-1.233408e+00	-1.296177e+01
1.810000e-06	-1.306785e-07	-1.277515e-10	-9.077127e-01	-1.186469e+01
1.820000e-06	-8.387800e-08	-1.088037e-10	-5.826294e-01	-1.074953e+01
1.830000e-06	-3.702671e-08	-8.832649e-11	-2.571932e-01	-9.616818e+00
1.840000e-06	9.832030e-09	-7.061915e-11	6.829479e-02	-8.467166e+00
1.850000e-06	5.665658e-08	-5.688336e-11	3.935453e-01	-7.301263e+00
1.860000e-06	1.035367e-07	-4.169033e-11	7.191814e-01	-6.119876e+00
1.870000e-06	1.503851e-07	-2.367824e-11	1.044598e+00	-4.923848e+00
1.880000e-06	1.972066e-07	-7.749160e-12	1.369827e+00	-3.714092e+00
1.890000e-06	2.441258e-07	7.455180e-12	1.695735e+00	-2.491594e+00
1.900000e-06	2.910560e-07	2.453674e-11	2.021719e+00	-1.257404e+00
1.910000e-06	3.379549e-07	4.180965e-11	2.347486e+00	-1.263447e-02
1.920000e-06	3.848508e-07	6.195745e-11	2.673232e+00	1.241545e+00
1.930000e-06	4.316580e-07	8.368861e-11	2.998362e+00	2.503913e+00
1.940000e-06	4.783864e-07	1.034653e-10	3.322945e+00	3.773201e+00
1.950000e-06	5.251194e-07	1.208455e-10	3.647560e+00	5.048100e+00
1.960000e-06	5.717680e-07	1.368721e-10	3.971588e+00	6.327268e+00
1.970000e-06	6.182968e-07	1.517324e-10	4.294784e+00	7.609333e+00
1.980000e-06	6.648162e-07	1.665128e-10	4.617915e+00	8.892904e+00
1.990000e-06	7.113107e-07	1.807497e-10	4.940873e+00	1.017658e+01
2.000000e-06	7.577333e-07	1.972075e-10	5.263332e+00	1.145894e+01
2.010000e-06	8.040858e-07	2.158036e-10	5.585303e+00	1.273858e+01
2.020000e-06	8.503418e-07	2.372175e-10	5.906604e+00	1.401410e+01
2.030000e-06	8.965321e-07	2.608938e-10	6.227449e+00	1.528411e+01
2.040000e-06	9.426925e-07	2.806739e-10	6.548086e+00	1.654724e+01
2.050000e-06	9.887749e-07	2.967308e-10	6.868181e+00	1.780217e+01
2.060000e-06	1.034744e-06	3.105421e-10	7.187490e+00	1.904759e+01
2.070000e-06	1.080650e-06	3.235795e-10	7.506359e+00	2.028225e+01
2.080000e-06	1.126460e-06	3.381030e-10	7.824561e+00	2.150495e+01
2.090000e-06	1.172159e-06	3.557579e-10	8.141998e+00	2.271455e+01
2.100000e-06	1.217841e-06	3.741095e-10	8.459311e+00	2.390994e+01
2.110000e-06	1.263449e-06	3.913934e-10	8.776113e+00	2.509012e+01
2.120000e-06	1.308934e-06	4.077186e-10	9.092054e+00	2.625414e+01
2.130000e-06	1.354310e-06	4.230003e-10	9.407241e+00	2.740112e+01
2.140000e-06	1.399601e-06	4.367640e-10	9.721844e+00	2.853028e+01
2.150000e-06	1.444879e-06	4.497703e-10	1.003635e+01	2.964089e+01
2.160000e-06	1.490101e-06	4.639243e-10	1.035047e+01	3.073233e+01
2.170000e-06	1.535234e-06	4.788422e-10	1.066397e+01	3.180406e+01
2.180000e-06	1.580257e-06	4.937621e-10	1.097671e+01	3.285563e+01
2.190000e-06	1.625146e-06	5.094218e-10	1.128852e+01	3.388667e+01
2.200000e-06	1.669896e-06	5.230609e-10	1.159935e+01	3.489690e+01
2.210000e-06	1.714440e-06	5.337394e-10	1.190876e+01	3.588612e+01
2.220000e-06	1.758838e-06	5.430024e-10	1.221716e+01	3.685424e+01
2.230000e-06	1.803151e-06	5.550637e-10	1.252496e+01	3.780122e+01
2.240000e-06	1.847347e-06	5.703399e-10	1.283195e+01	3.872712e+01
2.250000e-06	1.891398e-06	5.865695e-10	1.313794e+01	3.963207e+01
2.260000e-06	1.935313e-06	6.024106e-10	1.344298e+01	4.051628e+01
2.270000e-06	1.979127e-06	6.150033e-10	1.374732e+01	4.138003e+01
2.280000e-06	2.022854e-06	6.245060e-10	1.405105e+01	4.222365e+01
2.290000e-06	2.066489e-06	6.328953e-10	1.435415e+01	4.304755e+01
2.300000e-06	2.110094e-06	6.417474e-10	1.465704e+01	4.385217e+01
2.310000e-06	2.153663e-06	6.526199e-10	1.495967e+01	4.463801e+01
2.320000e-06	2.197155e-06	6.670242e-10	1.526178e+01	4.540563e+01
2.330000e-06	2.240532e-06	6.820692e-10	1.556308e+01	4.615560e+01
2.340000e-06	2.283778e-06	6.949943e-10	1.586347e+01	4.688852e+01
2.350000e-06	2.326930e-06	7.058172e-10	1.616321e+01	4.760504e+01
2.360000e-06	2.369908e-06	7.147390e-10	1.646174e+01	4.830581e+01
2.370000e-06	2.412592e-06	7.211152e-10	1.675823e+01	4.899148e+01
2.380000e-06	2.454935e-06	7.276894e-10	1.705236e+01	4.966271e+01
2.390000e-06	2.496932e-06	7.350123e-10	1.734407e+01	5.032019e+01
2.400000e-06	2.538555e-06	7.437795e-10	1.763319e+01	5.096455e+01
2.410000e-06	2.579872e-06	7.545155e-10	1.792019e+01	5.159645e+01
2.420000e-06	2.620925e-06	7.657563e-10	1.820535e+01	5.221651e+01
2.430000e-06	2.661648e-06	7.761253e-10	1.848821e+01	5.282534e+01
2.440000e-06	2.702063e-06	7.825731e-10	1.876894e+01	5.342352e+01
2.450000e-06	2.742249e-06	7.868733e-10	1.904808e+01	5.401158e+01
2.460000e-06	2.782250e-06	7.937919e-10	1.932593e+01	5.459004e+01
2.470000e-06	2.822137e-06	8.024290e-10	1.960299e+01	5.515937e+01
2.480000e-06	2.861932e-06	8.105139e-10	1.987941e+01	5.571999e+01
2.490000e-06	2.901592e-06	8.185937e-10	2.015490e+01	5.627231e+01
2.500000e-06	2.941145e-06	8.271821e-10	2.042964e+01	5.681665e+01
2.510000e-06	2.980582e-06	8.356806e-10	2.070358e+01	5.735333e+01
2.520000e-06	3.019838e-06	8.447598e-10	2.097626e+01	5.788258e+01
2.530000e-06	3.058930e-06	8.545801e-10	2.124780e+01	5.840462e+01
2.540000e-06	3.097813e-06	8.650208e-10	2.151788e+01	5.891960e+01
2.550000e-06	3.136383e-06	8.728332e-10	2.178580e+01	5.942764e+01
2.560000e-06	3.174651e-06	8.775908e-10	2.205161e+01	5.992881e+01
2.570000e-06	3.212712e-06	8.837724e-10	2.231599e+01	6.042314e+01
2.580000e-06	3.250591e-06	8.905669e-10	2.257910e+01	6.091063e+01
2.590000e-06	3.288307e-06	8.975036e-10	2.284109e+01	6.139123e+01
2.600000e-06	3.325821e-06	9.028412e-10	2.310166e+01	6.186486e+01
2.610000e-06	3.363087e-06	9.085330e-10	2.336051e+01	6.233142e+01
2.620000e-06	3.400164e-06	9.144974e-10	2.361806e+01	6.279077e+01
2.630000e-06	3.436960e-06	9.216678e-10	2.387365e+01	6.324276e+01
2.640000e-06	3.473429e-06	9.299030e-10	2.412697e+01	6.368723e+01
2.650000e-06	3.509653e-06	9.391112e-10	2.437859e+01	6.412398e+01
2.660000e-06	3.545628e-06	9.460665e-10	2.462848e+01	6.455281e+01
2.670000e-06	3.581390e-06	9.489849e-10	2.487688e+01	6.497354e+01
2.680000e-06	3.617026e-06	9.498218e-10	2.512441e+01	6.538595e+01
2.690000e-06	3.652589e-06	9.487225e-10	2.537144e+01	6.578985e+01
2.700000e-06	3.688049e-06	9.509228e-10	2.561775e+01	6.618505e+01
2.710000e-06	3.723301e-06	9.586105e-10	2.586262e+01	6.657137e+01
2.720000e-06	3.758341e-06	9.677760e-10	2.610601e+01	6.694864e+01
2.730000e-06	3.793064e-06	9.765232e-10	2.634720e+01	6.731672e+01
2.740000e-06	3.827314e-06	9.829418e-10	2.658511e+01	6.767549e+01
2.750000e-06	3.861094e-06	9.844495e-10	2.681975e+01	6.802483e+01
2.760000e-06	3.894384e-06	9.848618e-10	2.705099e+01	6.836468e+01
2.770000e-06	3.927170e-06	9.856277e-10	2.727872e+01	6.869499e+01
2.780000e-06	3.959502e-06	9.898369e-10	2.750330e+01	6.901575e+01
2.790000e-06	3.991519e-06	9.964535e-10	2.772570e+01	6.932697e+01
2.800000e-06	4.023346e-06	1.003736e-09	2.794677e+01	6.962870e+01
2.810000e-06	4.055033e-06	1.010029e-09	2.816688e+01	6.992103e+01
2.820000e-06	4.086599e-06	1.013330e-09	2.838614e+01	7.020407e+01
2.830000e-06	4.117976e-06	1.015589e-09	2.860409e+01	7.047798e+01
2.840000e-06	4.149118e-06	1.017589e-09	2.882040e+01	7.074293e+01
2.850000e-06	4.180054e-06	1.018638e-09	2.903529e+01	7.099913e+01
2.860000e-06	4.210624e-06	1.020995e-09	2.924764e+01	7.124684e+01
2.870000e-06	4.240805e-06	1.024078e-09	2.945728e+01	7.148633e+01
2.880000e-06	4.270725e-06	1.025781e-09	2.966511e+01	7.171788e+01
2.890000e-06	4.300357e-06	1.025287e-09	2.987094e+01	7.194184e+01
2.900000e-06	4.329674e-06	1.025338e-09	3.007458e+01	7.215853e+01
2.910000e-06	4.358703e-06	1.026465e-09	3.027622e+01	7.236831e+01
