# Temperatura_=_-1.8
# Concentracion g/m^3_=_1620.0
# C_Vs_to_Am_M_A/Vsm_=_65563218390.804596
# pendiente_HvsI_1/m_=_3716.3
# ordenada_HvsI_A/m_=_1297.0
# frecuencia_Hz_=_135100.1868803019

Tiempo_(s)	Campo_(V.s)	Magnetizacion_(V.s)	Campo_(kA/m)	Magnetizacion_(A/m)
0.000000e+00	-5.530433e-06	-1.011121e-09	-3.837658e+01	-6.657809e+01
1.000000e-08	-5.530669e-06	-1.009044e-09	-3.837823e+01	-6.653871e+01
2.000000e-08	-5.530626e-06	-1.009231e-09	-3.837793e+01	-6.649976e+01
3.000000e-08	-5.530113e-06	-1.011008e-09	-3.837437e+01	-6.646118e+01
4.000000e-08	-5.529087e-06	-1.008884e-09	-3.836724e+01	-6.642290e+01
5.000000e-08	-5.527523e-06	-1.003173e-09	-3.835639e+01	-6.638479e+01
6.000000e-08	-5.525374e-06	-9.990899e-10	-3.834148e+01	-6.634676e+01
7.000000e-08	-5.522671e-06	-1.013229e-09	-3.832273e+01	-6.630866e+01
8.000000e-08	-5.519509e-06	-1.036208e-09	-3.830078e+01	-6.627033e+01
9.000000e-08	-5.515887e-06	-9.968401e-10	-3.827565e+01	-6.623160e+01
1.000000e-07	-5.511788e-06	-9.196800e-10	-3.824720e+01	-6.619230e+01
1.100000e-07	-5.507393e-06	-9.716967e-10	-3.821671e+01	-6.615223e+01
1.200000e-07	-5.502853e-06	-1.052214e-09	-3.818520e+01	-6.611119e+01
1.300000e-07	-5.498040e-06	-1.052301e-09	-3.815181e+01	-6.606896e+01
1.400000e-07	-5.492873e-06	-9.752221e-10	-3.811595e+01	-6.602532e+01
1.500000e-07	-5.487341e-06	-9.431089e-10	-3.807757e+01	-6.598007e+01
1.600000e-07	-5.481401e-06	-1.030845e-09	-3.803634e+01	-6.593297e+01
1.700000e-07	-5.475039e-06	-1.032353e-09	-3.799220e+01	-6.588381e+01
1.800000e-07	-5.468249e-06	-9.967716e-10	-3.794508e+01	-6.583237e+01
1.900000e-07	-5.461086e-06	-9.693774e-10	-3.789537e+01	-6.577844e+01
2.000000e-07	-5.453713e-06	-1.033758e-09	-3.784421e+01	-6.572181e+01
2.100000e-07	-5.446067e-06	-1.058224e-09	-3.779116e+01	-6.566229e+01
2.200000e-07	-5.438015e-06	-1.024044e-09	-3.773528e+01	-6.559971e+01
2.300000e-07	-5.429581e-06	-9.826922e-10	-3.767676e+01	-6.553388e+01
2.400000e-07	-5.420690e-06	-1.004335e-09	-3.761506e+01	-6.546465e+01
2.500000e-07	-5.411151e-06	-1.033050e-09	-3.754887e+01	-6.539189e+01
2.600000e-07	-5.400948e-06	-1.015149e-09	-3.747807e+01	-6.531547e+01
2.700000e-07	-5.390259e-06	-9.920641e-10	-3.740389e+01	-6.523529e+01
2.800000e-07	-5.379158e-06	-9.878894e-10	-3.732687e+01	-6.515127e+01
2.900000e-07	-5.367593e-06	-1.004028e-09	-3.724661e+01	-6.506335e+01
3.000000e-07	-5.355624e-06	-9.731098e-10	-3.716356e+01	-6.497148e+01
3.100000e-07	-5.343189e-06	-9.556522e-10	-3.707727e+01	-6.487564e+01
3.200000e-07	-5.330385e-06	-9.704918e-10	-3.698842e+01	-6.477584e+01
3.300000e-07	-5.317345e-06	-1.009309e-09	-3.689793e+01	-6.467209e+01
3.400000e-07	-5.303884e-06	-9.761767e-10	-3.680452e+01	-6.456444e+01
3.500000e-07	-5.289955e-06	-9.532052e-10	-3.670787e+01	-6.445295e+01
3.600000e-07	-5.275529e-06	-9.698633e-10	-3.660776e+01	-6.433769e+01
3.700000e-07	-5.260569e-06	-9.724779e-10	-3.650395e+01	-6.421877e+01
3.800000e-07	-5.245019e-06	-9.362881e-10	-3.639605e+01	-6.409630e+01
3.900000e-07	-5.228887e-06	-9.698398e-10	-3.628411e+01	-6.397041e+01
4.000000e-07	-5.212442e-06	-9.860870e-10	-3.616999e+01	-6.384124e+01
4.100000e-07	-5.195706e-06	-9.402036e-10	-3.605386e+01	-6.370895e+01
4.200000e-07	-5.178630e-06	-9.426292e-10	-3.593537e+01	-6.357370e+01
4.300000e-07	-5.161281e-06	-1.007866e-09	-3.581498e+01	-6.343568e+01
4.400000e-07	-5.143564e-06	-9.688537e-10	-3.569204e+01	-6.329505e+01
4.500000e-07	-5.125428e-06	-9.152282e-10	-3.556619e+01	-6.315200e+01
4.600000e-07	-5.106872e-06	-9.689645e-10	-3.543743e+01	-6.300672e+01
4.700000e-07	-5.087901e-06	-9.793005e-10	-3.530578e+01	-6.285941e+01
4.800000e-07	-5.068582e-06	-9.112718e-10	-3.517173e+01	-6.271023e+01
4.900000e-07	-5.049048e-06	-9.387868e-10	-3.503618e+01	-6.255938e+01
5.000000e-07	-5.029388e-06	-9.858271e-10	-3.489976e+01	-6.240703e+01
5.100000e-07	-5.009579e-06	-9.211411e-10	-3.476229e+01	-6.225335e+01
5.200000e-07	-4.989424e-06	-9.133717e-10	-3.462244e+01	-6.209849e+01
5.300000e-07	-4.968839e-06	-9.818099e-10	-3.447959e+01	-6.194262e+01
5.400000e-07	-4.947832e-06	-9.460572e-10	-3.433382e+01	-6.178585e+01
5.500000e-07	-4.926484e-06	-8.879114e-10	-3.418568e+01	-6.162832e+01
5.600000e-07	-4.904908e-06	-9.424488e-10	-3.403597e+01	-6.147014e+01
5.700000e-07	-4.882990e-06	-9.468743e-10	-3.388387e+01	-6.131138e+01
5.800000e-07	-4.860679e-06	-8.918018e-10	-3.372905e+01	-6.115214e+01
5.900000e-07	-4.838026e-06	-9.173872e-10	-3.357186e+01	-6.099246e+01
6.000000e-07	-4.814962e-06	-9.499584e-10	-3.341182e+01	-6.083239e+01
6.100000e-07	-4.791599e-06	-9.063572e-10	-3.324970e+01	-6.067194e+01
6.200000e-07	-4.768073e-06	-9.132931e-10	-3.308644e+01	-6.051113e+01
6.300000e-07	-4.744355e-06	-9.433069e-10	-3.292186e+01	-6.034994e+01
6.400000e-07	-4.720363e-06	-9.122457e-10	-3.275538e+01	-6.018833e+01
6.500000e-07	-4.695956e-06	-8.943211e-10	-3.258601e+01	-6.002626e+01
6.600000e-07	-4.671041e-06	-9.215105e-10	-3.241312e+01	-5.986367e+01
6.700000e-07	-4.645523e-06	-9.000781e-10	-3.223605e+01	-5.970048e+01
6.800000e-07	-4.619459e-06	-8.809815e-10	-3.205519e+01	-5.953659e+01
6.900000e-07	-4.592980e-06	-9.031068e-10	-3.187145e+01	-5.937190e+01
7.000000e-07	-4.566102e-06	-9.010175e-10	-3.168494e+01	-5.920629e+01
7.100000e-07	-4.538892e-06	-8.789817e-10	-3.149612e+01	-5.903963e+01
7.200000e-07	-4.511456e-06	-8.903783e-10	-3.130574e+01	-5.887179e+01
7.300000e-07	-4.483846e-06	-8.917884e-10	-3.111414e+01	-5.870262e+01
7.400000e-07	-4.456013e-06	-8.757245e-10	-3.092101e+01	-5.853197e+01
7.500000e-07	-4.427843e-06	-8.796919e-10	-3.072554e+01	-5.835969e+01
7.600000e-07	-4.399411e-06	-8.843260e-10	-3.052824e+01	-5.818562e+01
7.700000e-07	-4.370703e-06	-8.691800e-10	-3.032903e+01	-5.800961e+01
7.800000e-07	-4.341647e-06	-8.663876e-10	-3.012740e+01	-5.783150e+01
7.900000e-07	-4.312345e-06	-8.714096e-10	-2.992408e+01	-5.765114e+01
8.000000e-07	-4.282847e-06	-8.558939e-10	-2.971938e+01	-5.746838e+01
8.100000e-07	-4.253073e-06	-8.448946e-10	-2.951278e+01	-5.728307e+01
8.200000e-07	-4.222837e-06	-8.522729e-10	-2.930296e+01	-5.709509e+01
8.300000e-07	-4.192204e-06	-8.504531e-10	-2.909039e+01	-5.690429e+01
8.400000e-07	-4.161370e-06	-8.397483e-10	-2.887643e+01	-5.671057e+01
8.500000e-07	-4.130334e-06	-8.458339e-10	-2.866107e+01	-5.651380e+01
8.600000e-07	-4.099056e-06	-8.450319e-10	-2.844403e+01	-5.631390e+01
8.700000e-07	-4.067596e-06	-8.309464e-10	-2.822572e+01	-5.611077e+01
8.800000e-07	-4.036025e-06	-8.248949e-10	-2.800664e+01	-5.590434e+01
8.900000e-07	-4.004269e-06	-8.284722e-10	-2.778628e+01	-5.569453e+01
9.000000e-07	-3.972247e-06	-8.186414e-10	-2.756408e+01	-5.548131e+01
9.100000e-07	-3.939943e-06	-8.133532e-10	-2.733991e+01	-5.526462e+01
9.200000e-07	-3.907231e-06	-8.192998e-10	-2.711292e+01	-5.504444e+01
9.300000e-07	-3.873949e-06	-8.140094e-10	-2.688197e+01	-5.482076e+01
9.400000e-07	-3.840049e-06	-8.023611e-10	-2.664673e+01	-5.459356e+01
9.500000e-07	-3.805709e-06	-8.031788e-10	-2.640844e+01	-5.436285e+01
9.600000e-07	-3.771106e-06	-8.001436e-10	-2.616833e+01	-5.412865e+01
9.700000e-07	-3.736152e-06	-7.881413e-10	-2.592577e+01	-5.389097e+01
9.800000e-07	-3.700903e-06	-7.834401e-10	-2.568118e+01	-5.364985e+01
9.900000e-07	-3.665509e-06	-7.859066e-10	-2.543557e+01	-5.340532e+01
1.000000e-06	-3.629952e-06	-7.788720e-10	-2.518884e+01	-5.315743e+01
1.010000e-06	-3.594235e-06	-7.741961e-10	-2.494099e+01	-5.290621e+01
1.020000e-06	-3.558398e-06	-7.777591e-10	-2.469231e+01	-5.265173e+01
1.030000e-06	-3.522313e-06	-7.751791e-10	-2.444191e+01	-5.239402e+01
1.040000e-06	-3.485942e-06	-7.669431e-10	-2.418952e+01	-5.213314e+01
1.050000e-06	-3.449371e-06	-7.661645e-10	-2.393576e+01	-5.186913e+01
1.060000e-06	-3.412537e-06	-7.618319e-10	-2.368016e+01	-5.160205e+01
1.070000e-06	-3.375386e-06	-7.521039e-10	-2.342236e+01	-5.133192e+01
1.080000e-06	-3.337967e-06	-7.481453e-10	-2.316270e+01	-5.105880e+01
1.090000e-06	-3.300329e-06	-7.463178e-10	-2.290153e+01	-5.078271e+01
1.100000e-06	-3.262490e-06	-7.401462e-10	-2.263896e+01	-5.050366e+01
1.110000e-06	-3.224456e-06	-7.343226e-10	-2.237503e+01	-5.022167e+01
1.120000e-06	-3.186196e-06	-7.340312e-10	-2.210954e+01	-4.993675e+01
1.130000e-06	-3.147731e-06	-7.310717e-10	-2.184262e+01	-4.964889e+01
1.140000e-06	-3.109063e-06	-7.244100e-10	-2.157430e+01	-4.935806e+01
1.150000e-06	-3.070162e-06	-7.209329e-10	-2.130436e+01	-4.906424e+01
1.160000e-06	-3.031021e-06	-7.174739e-10	-2.103275e+01	-4.876737e+01
1.170000e-06	-2.991681e-06	-7.089871e-10	-2.075977e+01	-4.846741e+01
1.180000e-06	-2.952258e-06	-7.011879e-10	-2.048621e+01	-4.816427e+01
1.190000e-06	-2.912751e-06	-6.957845e-10	-2.021206e+01	-4.785788e+01
1.200000e-06	-2.873093e-06	-6.891383e-10	-1.993687e+01	-4.754814e+01
1.210000e-06	-2.833293e-06	-6.829727e-10	-1.966069e+01	-4.723492e+01
1.220000e-06	-2.793401e-06	-6.805596e-10	-1.938387e+01	-4.691811e+01
1.230000e-06	-2.753363e-06	-6.762691e-10	-1.910604e+01	-4.659757e+01
1.240000e-06	-2.713120e-06	-6.696153e-10	-1.882679e+01	-4.627314e+01
1.250000e-06	-2.672639e-06	-6.628509e-10	-1.854588e+01	-4.594465e+01
1.260000e-06	-2.631775e-06	-6.575662e-10	-1.826232e+01	-4.561194e+01
1.270000e-06	-2.590460e-06	-6.509500e-10	-1.797563e+01	-4.527481e+01
1.280000e-06	-2.548791e-06	-6.448356e-10	-1.768648e+01	-4.493306e+01
1.290000e-06	-2.506869e-06	-6.402550e-10	-1.739557e+01	-4.458648e+01
1.300000e-06	-2.464730e-06	-6.347010e-10	-1.710316e+01	-4.423485e+01
1.310000e-06	-2.422360e-06	-6.258944e-10	-1.680916e+01	-4.387795e+01
1.320000e-06	-2.379716e-06	-6.192916e-10	-1.651324e+01	-4.351555e+01
1.330000e-06	-2.336804e-06	-6.120956e-10	-1.621547e+01	-4.314740e+01
1.340000e-06	-2.293692e-06	-6.048372e-10	-1.591631e+01	-4.277325e+01
1.350000e-06	-2.250448e-06	-6.003218e-10	-1.561623e+01	-4.239285e+01
1.360000e-06	-2.207099e-06	-5.966522e-10	-1.531542e+01	-4.200595e+01
1.370000e-06	-2.163601e-06	-5.906624e-10	-1.501358e+01	-4.161228e+01
1.380000e-06	-2.119969e-06	-5.801539e-10	-1.471082e+01	-4.121159e+01
1.390000e-06	-2.076294e-06	-5.691056e-10	-1.440775e+01	-4.080360e+01
1.400000e-06	-2.032549e-06	-5.577315e-10	-1.410419e+01	-4.038805e+01
1.410000e-06	-1.988697e-06	-5.490925e-10	-1.379989e+01	-3.996467e+01
1.420000e-06	-1.944763e-06	-5.459258e-10	-1.349503e+01	-3.953320e+01
1.430000e-06	-1.900771e-06	-5.464861e-10	-1.318977e+01	-3.909335e+01
1.440000e-06	-1.856611e-06	-5.441685e-10	-1.288333e+01	-3.864487e+01
1.450000e-06	-1.812293e-06	-5.370030e-10	-1.257580e+01	-3.818749e+01
1.460000e-06	-1.767911e-06	-5.255842e-10	-1.226782e+01	-3.772093e+01
1.470000e-06	-1.723310e-06	-5.115614e-10	-1.195833e+01	-3.724493e+01
1.480000e-06	-1.678523e-06	-4.965765e-10	-1.164755e+01	-3.675923e+01
1.490000e-06	-1.633688e-06	-4.858331e-10	-1.133643e+01	-3.626356e+01
1.500000e-06	-1.588687e-06	-4.820561e-10	-1.102416e+01	-3.575766e+01
1.510000e-06	-1.543462e-06	-4.809832e-10	-1.071034e+01	-3.524127e+01
1.520000e-06	-1.498140e-06	-4.778261e-10	-1.039584e+01	-3.471414e+01
1.530000e-06	-1.452751e-06	-4.725760e-10	-1.008088e+01	-3.417600e+01
1.540000e-06	-1.407271e-06	-4.645302e-10	-9.765287e+00	-3.362661e+01
1.550000e-06	-1.361701e-06	-4.541804e-10	-9.449067e+00	-3.306571e+01
1.560000e-06	-1.316074e-06	-4.416465e-10	-9.132457e+00	-3.249307e+01
1.570000e-06	-1.270437e-06	-4.305277e-10	-8.815775e+00	-3.190842e+01
1.580000e-06	-1.224714e-06	-4.214237e-10	-8.498489e+00	-3.131155e+01
1.590000e-06	-1.178836e-06	-4.126917e-10	-8.180137e+00	-3.070219e+01
1.600000e-06	-1.132902e-06	-4.064953e-10	-7.861393e+00	-3.008014e+01
1.610000e-06	-1.086878e-06	-4.020905e-10	-7.542023e+00	-2.944516e+01
1.620000e-06	-1.040749e-06	-3.944531e-10	-7.221930e+00	-2.879703e+01
1.630000e-06	-9.946384e-07	-3.835090e-10	-6.901960e+00	-2.813554e+01
1.640000e-06	-9.484636e-07	-3.721612e-10	-6.581545e+00	-2.746048e+01
1.650000e-06	-9.021857e-07	-3.583346e-10	-6.260415e+00	-2.677166e+01
1.660000e-06	-8.558021e-07	-3.430516e-10	-5.938552e+00	-2.606890e+01
1.670000e-06	-8.093618e-07	-3.300901e-10	-5.616295e+00	-2.535201e+01
1.680000e-06	-7.628795e-07	-3.190547e-10	-5.293746e+00	-2.462085e+01
1.690000e-06	-7.163489e-07	-3.096511e-10	-4.970863e+00	-2.387525e+01
1.700000e-06	-6.698577e-07	-3.025096e-10	-4.648253e+00	-2.311509e+01
1.710000e-06	-6.233089e-07	-2.930579e-10	-4.325243e+00	-2.234025e+01
1.720000e-06	-5.766209e-07	-2.818710e-10	-4.001267e+00	-2.155065e+01
1.730000e-06	-5.299413e-07	-2.680453e-10	-3.677350e+00	-2.074620e+01
1.740000e-06	-4.832928e-07	-2.512447e-10	-3.353648e+00	-1.992685e+01
1.750000e-06	-4.366485e-07	-2.344684e-10	-3.029976e+00	-1.909258e+01
1.760000e-06	-3.899708e-07	-2.198931e-10	-2.706072e+00	-1.824339e+01
1.770000e-06	-3.431234e-07	-2.094604e-10	-2.380990e+00	-1.737931e+01
1.780000e-06	-2.962121e-07	-2.021728e-10	-2.055464e+00	-1.650038e+01
1.790000e-06	-2.493383e-07	-1.930471e-10	-1.730200e+00	-1.560672e+01
1.800000e-06	-2.024345e-07	-1.805034e-10	-1.404726e+00	-1.469843e+01
1.810000e-06	-1.554874e-07	-1.639894e-10	-1.078953e+00	-1.377568e+01
1.820000e-06	-1.085168e-07	-1.462081e-10	-7.530159e-01	-1.283867e+01
1.830000e-06	-6.165528e-08	-1.283364e-10	-4.278361e-01	-1.188763e+01
1.840000e-06	-1.485229e-08	-1.128022e-10	-1.030625e-01	-1.092283e+01
1.850000e-06	3.206770e-08	-1.009652e-10	2.225230e-01	-9.944591e+00
1.860000e-06	7.900920e-08	-9.155622e-11	5.482579e-01	-8.953271e+00
1.870000e-06	1.259652e-07	-7.896728e-11	8.740932e-01	-7.949268e+00
1.880000e-06	1.729294e-07	-6.234037e-11	1.199986e+00	-6.933024e+00
1.890000e-06	2.197985e-07	-4.544509e-11	1.525218e+00	-5.905024e+00
1.900000e-06	2.665569e-07	-2.899275e-11	1.849682e+00	-4.865797e+00
1.910000e-06	3.133725e-07	-1.454299e-11	2.174543e+00	-3.815914e+00
1.920000e-06	3.602178e-07	5.881813e-13	2.499610e+00	-2.755988e+00
1.930000e-06	4.070065e-07	1.673875e-11	2.824285e+00	-1.686673e+00
1.940000e-06	4.538461e-07	3.140176e-11	3.149313e+00	-6.086641e-01
1.950000e-06	5.006169e-07	4.467940e-11	3.473863e+00	4.773055e-01
1.960000e-06	5.472884e-07	5.878568e-11	3.797724e+00	1.570466e+00
1.970000e-06	5.939000e-07	7.320902e-11	4.121170e+00	2.670011e+00
1.980000e-06	6.404233e-07	8.820583e-11	4.444003e+00	3.775104e+00
1.990000e-06	6.868898e-07	1.043630e-10	4.766442e+00	4.884878e+00
2.000000e-06	7.333055e-07	1.202664e-10	5.088528e+00	5.998436e+00
2.010000e-06	7.797166e-07	1.358650e-10	5.410582e+00	7.114860e+00
2.020000e-06	8.260809e-07	1.503767e-10	5.732311e+00	8.233211e+00
2.030000e-06	8.724090e-07	1.653446e-10	6.053790e+00	9.352532e+00
2.040000e-06	9.186912e-07	1.826718e-10	6.374950e+00	1.047185e+01
2.050000e-06	9.648409e-07	1.993288e-10	6.695190e+00	1.159019e+01
2.060000e-06	1.010882e-06	2.153304e-10	7.014676e+00	1.270657e+01
2.070000e-06	1.056829e-06	2.308905e-10	7.333507e+00	1.381999e+01
2.080000e-06	1.102695e-06	2.472146e-10	7.651780e+00	1.492948e+01
2.090000e-06	1.148508e-06	2.645405e-10	7.969683e+00	1.603405e+01
2.100000e-06	1.194255e-06	2.831639e-10	8.287130e+00	1.713274e+01
2.110000e-06	1.239903e-06	2.990959e-10	8.603888e+00	1.822461e+01
2.120000e-06	1.285532e-06	3.109213e-10	8.920517e+00	1.930872e+01
2.130000e-06	1.331066e-06	3.214664e-10	9.236488e+00	2.038416e+01
2.140000e-06	1.376488e-06	3.337083e-10	9.551679e+00	2.145007e+01
2.150000e-06	1.421886e-06	3.484467e-10	9.866700e+00	2.250558e+01
2.160000e-06	1.467056e-06	3.632648e-10	1.018014e+01	2.354990e+01
2.170000e-06	1.512053e-06	3.785666e-10	1.049238e+01	2.458224e+01
2.180000e-06	1.557066e-06	3.945897e-10	1.080473e+01	2.560189e+01
2.190000e-06	1.602044e-06	4.099274e-10	1.111685e+01	2.660815e+01
2.200000e-06	1.646903e-06	4.234124e-10	1.142813e+01	2.760039e+01
2.210000e-06	1.691621e-06	4.332782e-10	1.173844e+01	2.857802e+01
2.220000e-06	1.736195e-06	4.409965e-10	1.204775e+01	2.954052e+01
2.230000e-06	1.780543e-06	4.495190e-10	1.235548e+01	3.048739e+01
2.240000e-06	1.824672e-06	4.608029e-10	1.266170e+01	3.141821e+01
2.250000e-06	1.868696e-06	4.755658e-10	1.296719e+01	3.233262e+01
2.260000e-06	1.912633e-06	4.924591e-10	1.327207e+01	3.323031e+01
2.270000e-06	1.956529e-06	5.077208e-10	1.357668e+01	3.411100e+01
2.280000e-06	2.000371e-06	5.177228e-10	1.388090e+01	3.497452e+01
2.290000e-06	2.044071e-06	5.258604e-10	1.418414e+01	3.582071e+01
2.300000e-06	2.087689e-06	5.345929e-10	1.448682e+01	3.664949e+01
2.310000e-06	2.131240e-06	5.439194e-10	1.478903e+01	3.746082e+01
2.320000e-06	2.174715e-06	5.552533e-10	1.509070e+01	3.825472e+01
2.330000e-06	2.218123e-06	5.689826e-10	1.539192e+01	3.903125e+01
2.340000e-06	2.261466e-06	5.830939e-10	1.569268e+01	3.979054e+01
2.350000e-06	2.304713e-06	5.948790e-10	1.599278e+01	4.053274e+01
2.360000e-06	2.347775e-06	6.031982e-10	1.629160e+01	4.125806e+01
2.370000e-06	2.390643e-06	6.105045e-10	1.658906e+01	4.196673e+01
2.380000e-06	2.433249e-06	6.177461e-10	1.688471e+01	4.265904e+01
2.390000e-06	2.475550e-06	6.266754e-10	1.717825e+01	4.333529e+01
2.400000e-06	2.517526e-06	6.378305e-10	1.746953e+01	4.399582e+01
2.410000e-06	2.559240e-06	6.506834e-10	1.775899e+01	4.464099e+01
2.420000e-06	2.600748e-06	6.634984e-10	1.804702e+01	4.527119e+01
2.430000e-06	2.641921e-06	6.734098e-10	1.833273e+01	4.588682e+01
2.440000e-06	2.682723e-06	6.788581e-10	1.861585e+01	4.648829e+01
2.450000e-06	2.723171e-06	6.819692e-10	1.889653e+01	4.707603e+01
2.460000e-06	2.763349e-06	6.863956e-10	1.917533e+01	4.765046e+01
2.470000e-06	2.803322e-06	6.922031e-10	1.945272e+01	4.821202e+01
2.480000e-06	2.843117e-06	6.993233e-10	1.972886e+01	4.876113e+01
2.490000e-06	2.882816e-06	7.081745e-10	2.000433e+01	4.929821e+01
2.500000e-06	2.922436e-06	7.197779e-10	2.027926e+01	4.982369e+01
2.510000e-06	2.961889e-06	7.330406e-10	2.055304e+01	5.033798e+01
2.520000e-06	3.001183e-06	7.439843e-10	2.082570e+01	5.084145e+01
2.530000e-06	3.040333e-06	7.511883e-10	2.109737e+01	5.133448e+01
2.540000e-06	3.079296e-06	7.565543e-10	2.136774e+01	5.181744e+01
2.550000e-06	3.118021e-06	7.623959e-10	2.163646e+01	5.229065e+01
2.560000e-06	3.156491e-06	7.676253e-10	2.190341e+01	5.275442e+01
2.570000e-06	3.194728e-06	7.723814e-10	2.216875e+01	5.320906e+01
2.580000e-06	3.232755e-06	7.802949e-10	2.243262e+01	5.365482e+01
2.590000e-06	3.270557e-06	7.918108e-10	2.269493e+01	5.409193e+01
2.600000e-06	3.308151e-06	8.031359e-10	2.295580e+01	5.452063e+01
2.610000e-06	3.345562e-06	8.107778e-10	2.321541e+01	5.494109e+01
2.620000e-06	3.382686e-06	8.151715e-10	2.347301e+01	5.535347e+01
2.630000e-06	3.419586e-06	8.178471e-10	2.372907e+01	5.575792e+01
2.640000e-06	3.456293e-06	8.198423e-10	2.398379e+01	5.615455e+01
2.650000e-06	3.492744e-06	8.245784e-10	2.423672e+01	5.654346e+01
2.660000e-06	3.528994e-06	8.338571e-10	2.448827e+01	5.692470e+01
2.670000e-06	3.565019e-06	8.432979e-10	2.473825e+01	5.729834e+01
2.680000e-06	3.600816e-06	8.501359e-10	2.498665e+01	5.766439e+01
2.690000e-06	3.636464e-06	8.540225e-10	2.523402e+01	5.802289e+01
2.700000e-06	3.671964e-06	8.562469e-10	2.548036e+01	5.837382e+01
2.710000e-06	3.707268e-06	8.594737e-10	2.572535e+01	5.871719e+01
2.720000e-06	3.742397e-06	8.630838e-10	2.596911e+01	5.905295e+01
2.730000e-06	3.777268e-06	8.660495e-10	2.621108e+01	5.938110e+01
2.740000e-06	3.811855e-06	8.700804e-10	2.645109e+01	5.970158e+01
2.750000e-06	3.845991e-06	8.752975e-10	2.668797e+01	6.001437e+01
2.760000e-06	3.879685e-06	8.806043e-10	2.692177e+01	6.031943e+01
2.770000e-06	3.913020e-06	8.843781e-10	2.715309e+01	6.061672e+01
2.780000e-06	3.945844e-06	8.873856e-10	2.738086e+01	6.090620e+01
2.790000e-06	3.978238e-06	8.918436e-10	2.760565e+01	6.118785e+01
2.800000e-06	4.010282e-06	8.949685e-10	2.782801e+01	6.146165e+01
2.810000e-06	4.042059e-06	8.974907e-10	2.804852e+01	6.172759e+01
2.820000e-06	4.073681e-06	9.011653e-10	2.826794e+01	6.198567e+01
2.830000e-06	4.105175e-06	9.032630e-10	2.848649e+01	6.223590e+01
2.840000e-06	4.136497e-06	9.054981e-10	2.870384e+01	6.247831e+01
2.850000e-06	4.167587e-06	9.092565e-10	2.891957e+01	6.271293e+01
2.860000e-06	4.198360e-06	9.118689e-10	2.913312e+01	6.293982e+01
2.870000e-06	4.228743e-06	9.125050e-10	2.934395e+01	6.315906e+01
2.880000e-06	4.258841e-06	9.141634e-10	2.955280e+01	6.337073e+01
2.890000e-06	4.288690e-06	9.169876e-10	2.975993e+01	6.357493e+01
2.900000e-06	4.318279e-06	9.191234e-10	2.996525e+01	6.377177e+01
