# Temperatura_=_-0.3
# Concentracion g/m^3_=_1620.0
# C_Vs_to_Am_M_A/Vsm_=_65563218390.804596
# pendiente_HvsI_1/m_=_3716.3
# ordenada_HvsI_A/m_=_1297.0
# frecuencia_Hz_=_135104.30835068363

Tiempo_(s)	Campo_(V.s)	Magnetizacion_(V.s)	Campo_(kA/m)	Magnetizacion_(A/m)
0.000000e+00	-5.505630e-06	-1.492317e-09	-3.836346e+01	-9.740272e+01
1.000000e-08	-5.505757e-06	-1.492101e-09	-3.836434e+01	-9.736134e+01
2.000000e-08	-5.505539e-06	-1.491862e-09	-3.836282e+01	-9.732066e+01
3.000000e-08	-5.504911e-06	-1.489906e-09	-3.835844e+01	-9.728070e+01
4.000000e-08	-5.503777e-06	-1.487886e-09	-3.835054e+01	-9.724143e+01
5.000000e-08	-5.502114e-06	-1.493091e-09	-3.833895e+01	-9.720278e+01
6.000000e-08	-5.499914e-06	-1.497532e-09	-3.832363e+01	-9.716466e+01
7.000000e-08	-5.497131e-06	-1.489065e-09	-3.830423e+01	-9.712694e+01
8.000000e-08	-5.493857e-06	-1.471297e-09	-3.828142e+01	-9.708945e+01
9.000000e-08	-5.490112e-06	-1.463334e-09	-3.825532e+01	-9.705201e+01
1.000000e-07	-5.485925e-06	-1.442676e-09	-3.822615e+01	-9.701438e+01
1.100000e-07	-5.481529e-06	-1.471021e-09	-3.819552e+01	-9.697632e+01
1.200000e-07	-5.476931e-06	-1.503701e-09	-3.816348e+01	-9.693754e+01
1.300000e-07	-5.471974e-06	-1.503806e-09	-3.812893e+01	-9.689776e+01
1.400000e-07	-5.466631e-06	-1.463697e-09	-3.809171e+01	-9.685664e+01
1.500000e-07	-5.460976e-06	-1.453035e-09	-3.805230e+01	-9.681386e+01
1.600000e-07	-5.455043e-06	-1.497313e-09	-3.801096e+01	-9.676906e+01
1.700000e-07	-5.448649e-06	-1.503592e-09	-3.796641e+01	-9.672189e+01
1.800000e-07	-5.441731e-06	-1.468217e-09	-3.791820e+01	-9.667196e+01
1.900000e-07	-5.434472e-06	-1.447812e-09	-3.786762e+01	-9.661892e+01
2.000000e-07	-5.426898e-06	-1.488595e-09	-3.781485e+01	-9.656239e+01
2.100000e-07	-5.419005e-06	-1.523644e-09	-3.775985e+01	-9.650200e+01
2.200000e-07	-5.410964e-06	-1.516960e-09	-3.770382e+01	-9.643738e+01
2.300000e-07	-5.402654e-06	-1.484674e-09	-3.764592e+01	-9.636818e+01
2.400000e-07	-5.393819e-06	-1.493311e-09	-3.758435e+01	-9.629405e+01
2.500000e-07	-5.384297e-06	-1.507580e-09	-3.751800e+01	-9.621467e+01
2.600000e-07	-5.374015e-06	-1.497944e-09	-3.744635e+01	-9.612972e+01
2.700000e-07	-5.363181e-06	-1.464534e-09	-3.737086e+01	-9.603890e+01
2.800000e-07	-5.351989e-06	-1.464489e-09	-3.729288e+01	-9.594196e+01
2.900000e-07	-5.340399e-06	-1.478036e-09	-3.721212e+01	-9.583864e+01
3.000000e-07	-5.328400e-06	-1.471084e-09	-3.712850e+01	-9.572873e+01
3.100000e-07	-5.315915e-06	-1.448350e-09	-3.704151e+01	-9.561203e+01
3.200000e-07	-5.302971e-06	-1.461704e-09	-3.695132e+01	-9.548838e+01
3.300000e-07	-5.289727e-06	-1.483409e-09	-3.685903e+01	-9.535765e+01
3.400000e-07	-5.276173e-06	-1.458350e-09	-3.676459e+01	-9.521974e+01
3.500000e-07	-5.262200e-06	-1.422687e-09	-3.666722e+01	-9.507457e+01
3.600000e-07	-5.247720e-06	-1.443997e-09	-3.656632e+01	-9.492210e+01
3.700000e-07	-5.232716e-06	-1.465560e-09	-3.646178e+01	-9.476232e+01
3.800000e-07	-5.217138e-06	-1.437988e-09	-3.635323e+01	-9.459525e+01
3.900000e-07	-5.201067e-06	-1.428664e-09	-3.624125e+01	-9.442094e+01
4.000000e-07	-5.184618e-06	-1.447588e-09	-3.612663e+01	-9.423946e+01
4.100000e-07	-5.167849e-06	-1.427920e-09	-3.600978e+01	-9.405090e+01
4.200000e-07	-5.150781e-06	-1.407691e-09	-3.589085e+01	-9.385541e+01
4.300000e-07	-5.133429e-06	-1.450726e-09	-3.576994e+01	-9.365311e+01
4.400000e-07	-5.115758e-06	-1.449772e-09	-3.564681e+01	-9.344419e+01
4.500000e-07	-5.097670e-06	-1.398600e-09	-3.552077e+01	-9.322882e+01
4.600000e-07	-5.079119e-06	-1.409152e-09	-3.539151e+01	-9.300722e+01
4.700000e-07	-5.060174e-06	-1.441298e-09	-3.525950e+01	-9.277958e+01
4.800000e-07	-5.040958e-06	-1.394263e-09	-3.512560e+01	-9.254615e+01
4.900000e-07	-5.021485e-06	-1.379289e-09	-3.498991e+01	-9.230715e+01
5.000000e-07	-5.001795e-06	-1.421227e-09	-3.485271e+01	-9.206282e+01
5.100000e-07	-4.981885e-06	-1.401116e-09	-3.471398e+01	-9.181340e+01
5.200000e-07	-4.961598e-06	-1.362862e-09	-3.457262e+01	-9.155914e+01
5.300000e-07	-4.940875e-06	-1.405763e-09	-3.442822e+01	-9.130027e+01
5.400000e-07	-4.919838e-06	-1.405317e-09	-3.428163e+01	-9.103702e+01
5.500000e-07	-4.898519e-06	-1.347962e-09	-3.413308e+01	-9.076961e+01
5.600000e-07	-4.876854e-06	-1.361673e-09	-3.398212e+01	-9.049828e+01
5.700000e-07	-4.854908e-06	-1.396509e-09	-3.382920e+01	-9.022320e+01
5.800000e-07	-4.832631e-06	-1.356857e-09	-3.367397e+01	-8.994458e+01
5.900000e-07	-4.809909e-06	-1.347778e-09	-3.351564e+01	-8.966257e+01
6.000000e-07	-4.786814e-06	-1.380709e-09	-3.335472e+01	-8.937735e+01
6.100000e-07	-4.763490e-06	-1.360034e-09	-3.319219e+01	-8.908903e+01
6.200000e-07	-4.739910e-06	-1.335255e-09	-3.302789e+01	-8.879774e+01
6.300000e-07	-4.716108e-06	-1.359509e-09	-3.286203e+01	-8.850356e+01
6.400000e-07	-4.692017e-06	-1.354668e-09	-3.269417e+01	-8.820657e+01
6.500000e-07	-4.667567e-06	-1.327364e-09	-3.252380e+01	-8.790682e+01
6.600000e-07	-4.642770e-06	-1.336082e-09	-3.235101e+01	-8.760432e+01
6.700000e-07	-4.617340e-06	-1.332349e-09	-3.217381e+01	-8.729908e+01
6.800000e-07	-4.591269e-06	-1.306932e-09	-3.199215e+01	-8.699109e+01
6.900000e-07	-4.564713e-06	-1.311907e-09	-3.180711e+01	-8.668030e+01
7.000000e-07	-4.537792e-06	-1.316979e-09	-3.161952e+01	-8.636664e+01
7.100000e-07	-4.510645e-06	-1.295175e-09	-3.143036e+01	-8.605004e+01
7.200000e-07	-4.483233e-06	-1.294788e-09	-3.123935e+01	-8.573040e+01
7.300000e-07	-4.455587e-06	-1.304594e-09	-3.104671e+01	-8.540760e+01
7.400000e-07	-4.427736e-06	-1.290967e-09	-3.085264e+01	-8.508151e+01
7.500000e-07	-4.399605e-06	-1.280084e-09	-3.065662e+01	-8.475197e+01
7.600000e-07	-4.371195e-06	-1.283770e-09	-3.045867e+01	-8.441882e+01
7.700000e-07	-4.342510e-06	-1.268869e-09	-3.025879e+01	-8.408191e+01
7.800000e-07	-4.313513e-06	-1.258154e-09	-3.005674e+01	-8.374104e+01
7.900000e-07	-4.284255e-06	-1.261946e-09	-2.985286e+01	-8.339603e+01
8.000000e-07	-4.254740e-06	-1.252261e-09	-2.964720e+01	-8.304669e+01
8.100000e-07	-4.224913e-06	-1.232881e-09	-2.943937e+01	-8.269283e+01
8.200000e-07	-4.194780e-06	-1.234006e-09	-2.922939e+01	-8.233426e+01
8.300000e-07	-4.164309e-06	-1.232551e-09	-2.901708e+01	-8.197079e+01
8.400000e-07	-4.133555e-06	-1.218545e-09	-2.880278e+01	-8.160223e+01
8.500000e-07	-4.102499e-06	-1.216772e-09	-2.858638e+01	-8.122841e+01
8.600000e-07	-4.071194e-06	-1.222609e-09	-2.836824e+01	-8.084914e+01
8.700000e-07	-4.039739e-06	-1.209001e-09	-2.814907e+01	-8.046427e+01
8.800000e-07	-4.008072e-06	-1.196476e-09	-2.792841e+01	-8.007364e+01
8.900000e-07	-3.976212e-06	-1.194161e-09	-2.770641e+01	-7.967712e+01
9.000000e-07	-3.944109e-06	-1.181155e-09	-2.748271e+01	-7.927459e+01
9.100000e-07	-3.911692e-06	-1.164799e-09	-2.725683e+01	-7.886592e+01
9.200000e-07	-3.878982e-06	-1.164462e-09	-2.702891e+01	-7.845103e+01
9.300000e-07	-3.845815e-06	-1.163981e-09	-2.679779e+01	-7.802985e+01
9.400000e-07	-3.812085e-06	-1.152923e-09	-2.656277e+01	-7.760230e+01
9.500000e-07	-3.777938e-06	-1.148838e-09	-2.632483e+01	-7.716836e+01
9.600000e-07	-3.743504e-06	-1.145505e-09	-2.608489e+01	-7.672800e+01
9.700000e-07	-3.708699e-06	-1.128166e-09	-2.584236e+01	-7.628121e+01
9.800000e-07	-3.673566e-06	-1.115372e-09	-2.559756e+01	-7.582800e+01
9.900000e-07	-3.638243e-06	-1.115123e-09	-2.535143e+01	-7.536842e+01
1.000000e-06	-3.602730e-06	-1.107820e-09	-2.510397e+01	-7.490250e+01
1.010000e-06	-3.567070e-06	-1.098493e-09	-2.485549e+01	-7.443031e+01
1.020000e-06	-3.531256e-06	-1.097683e-09	-2.460594e+01	-7.395193e+01
1.030000e-06	-3.495242e-06	-1.092846e-09	-2.435498e+01	-7.346745e+01
1.040000e-06	-3.459016e-06	-1.080343e-09	-2.410257e+01	-7.297700e+01
1.050000e-06	-3.422622e-06	-1.075120e-09	-2.384897e+01	-7.248067e+01
1.060000e-06	-3.386029e-06	-1.070546e-09	-2.359399e+01	-7.197862e+01
1.070000e-06	-3.349065e-06	-1.056509e-09	-2.333642e+01	-7.147097e+01
1.080000e-06	-3.311734e-06	-1.044590e-09	-2.307630e+01	-7.095788e+01
1.090000e-06	-3.274251e-06	-1.041695e-09	-2.281511e+01	-7.043950e+01
1.100000e-06	-3.236561e-06	-1.031896e-09	-2.255249e+01	-6.991599e+01
1.110000e-06	-3.198541e-06	-1.020220e-09	-2.228757e+01	-6.938751e+01
1.120000e-06	-3.160366e-06	-1.014670e-09	-2.202156e+01	-6.885422e+01
1.130000e-06	-3.121991e-06	-1.008318e-09	-2.175416e+01	-6.831628e+01
1.140000e-06	-3.083314e-06	-9.972663e-10	-2.148466e+01	-6.777386e+01
1.150000e-06	-3.044466e-06	-9.888739e-10	-2.121397e+01	-6.722709e+01
1.160000e-06	-3.005478e-06	-9.806565e-10	-2.094229e+01	-6.667613e+01
1.170000e-06	-2.966351e-06	-9.691972e-10	-2.066965e+01	-6.612112e+01
1.180000e-06	-2.927059e-06	-9.589585e-10	-2.039587e+01	-6.556217e+01
1.190000e-06	-2.887617e-06	-9.497422e-10	-2.012104e+01	-6.499941e+01
1.200000e-06	-2.848029e-06	-9.370578e-10	-1.984518e+01	-6.443293e+01
1.210000e-06	-2.808196e-06	-9.252126e-10	-1.956762e+01	-6.386282e+01
1.220000e-06	-2.768162e-06	-9.176662e-10	-1.928867e+01	-6.328915e+01
1.230000e-06	-2.728039e-06	-9.090067e-10	-1.900908e+01	-6.271197e+01
1.240000e-06	-2.687760e-06	-8.980343e-10	-1.872842e+01	-6.213131e+01
1.250000e-06	-2.647301e-06	-8.914127e-10	-1.844650e+01	-6.154717e+01
1.260000e-06	-2.606565e-06	-8.843778e-10	-1.816265e+01	-6.095956e+01
1.270000e-06	-2.565404e-06	-8.727301e-10	-1.787584e+01	-6.036843e+01
1.280000e-06	-2.523970e-06	-8.604007e-10	-1.758713e+01	-5.977373e+01
1.290000e-06	-2.482424e-06	-8.485615e-10	-1.729763e+01	-5.917538e+01
1.300000e-06	-2.440699e-06	-8.348838e-10	-1.700689e+01	-5.857328e+01
1.310000e-06	-2.398618e-06	-8.217325e-10	-1.671366e+01	-5.796728e+01
1.320000e-06	-2.356177e-06	-8.131428e-10	-1.641794e+01	-5.735724e+01
1.330000e-06	-2.313428e-06	-8.058369e-10	-1.612006e+01	-5.674298e+01
1.340000e-06	-2.270499e-06	-7.994984e-10	-1.582093e+01	-5.612429e+01
1.350000e-06	-2.227500e-06	-7.928746e-10	-1.552131e+01	-5.550093e+01
1.360000e-06	-2.184306e-06	-7.845007e-10	-1.522033e+01	-5.487265e+01
1.370000e-06	-2.140921e-06	-7.726372e-10	-1.491802e+01	-5.423916e+01
1.380000e-06	-2.097425e-06	-7.588077e-10	-1.461494e+01	-5.360016e+01
1.390000e-06	-2.053822e-06	-7.442668e-10	-1.431111e+01	-5.295531e+01
1.400000e-06	-2.010107e-06	-7.307948e-10	-1.400650e+01	-5.230426e+01
1.410000e-06	-1.966322e-06	-7.200802e-10	-1.370141e+01	-5.164663e+01
1.420000e-06	-1.922479e-06	-7.136935e-10	-1.339591e+01	-5.098202e+01
1.430000e-06	-1.878556e-06	-7.068754e-10	-1.308986e+01	-5.031000e+01
1.440000e-06	-1.834515e-06	-6.985377e-10	-1.278297e+01	-4.963013e+01
1.450000e-06	-1.790368e-06	-6.888849e-10	-1.247536e+01	-4.894196e+01
1.460000e-06	-1.746122e-06	-6.762961e-10	-1.216705e+01	-4.824500e+01
1.470000e-06	-1.701743e-06	-6.610853e-10	-1.185782e+01	-4.753876e+01
1.480000e-06	-1.657290e-06	-6.474230e-10	-1.154806e+01	-4.682274e+01
1.490000e-06	-1.612759e-06	-6.351529e-10	-1.123777e+01	-4.609642e+01
1.500000e-06	-1.568010e-06	-6.240884e-10	-1.092596e+01	-4.535926e+01
1.510000e-06	-1.523034e-06	-6.139070e-10	-1.061256e+01	-4.461072e+01
1.520000e-06	-1.478035e-06	-6.022850e-10	-1.029901e+01	-4.385026e+01
1.530000e-06	-1.432941e-06	-5.909243e-10	-9.984790e+00	-4.307733e+01
1.540000e-06	-1.387617e-06	-5.813046e-10	-9.668973e+00	-4.229137e+01
1.550000e-06	-1.342204e-06	-5.719627e-10	-9.352535e+00	-4.149183e+01
1.560000e-06	-1.296758e-06	-5.598850e-10	-9.035864e+00	-4.067816e+01
1.570000e-06	-1.251283e-06	-5.450140e-10	-8.718991e+00	-3.984981e+01
1.580000e-06	-1.205741e-06	-5.282216e-10	-8.401651e+00	-3.900625e+01
1.590000e-06	-1.160053e-06	-5.113532e-10	-8.083299e+00	-3.814694e+01
1.600000e-06	-1.114235e-06	-4.970690e-10	-7.764036e+00	-3.727137e+01
1.610000e-06	-1.068284e-06	-4.860683e-10	-7.443845e+00	-3.637904e+01
1.620000e-06	-1.022239e-06	-4.754830e-10	-7.123005e+00	-3.546948e+01
1.630000e-06	-9.761604e-07	-4.638298e-10	-6.801925e+00	-3.454220e+01
1.640000e-06	-9.301350e-07	-4.509192e-10	-6.481218e+00	-3.359680e+01
1.650000e-06	-8.841387e-07	-4.364544e-10	-6.160714e+00	-3.263285e+01
1.660000e-06	-8.379616e-07	-4.204516e-10	-5.838951e+00	-3.164997e+01
1.670000e-06	-7.915680e-07	-4.043458e-10	-5.515678e+00	-3.064783e+01
1.680000e-06	-7.451230e-07	-3.893997e-10	-5.192047e+00	-2.962612e+01
1.690000e-06	-6.988065e-07	-3.749050e-10	-4.869312e+00	-2.858457e+01
1.700000e-06	-6.525492e-07	-3.592597e-10	-4.546989e+00	-2.752294e+01
1.710000e-06	-6.061552e-07	-3.428441e-10	-4.223714e+00	-2.644107e+01
1.720000e-06	-5.596906e-07	-3.256913e-10	-3.899947e+00	-2.533880e+01
1.730000e-06	-5.132440e-07	-3.090150e-10	-3.576305e+00	-2.421607e+01
1.740000e-06	-4.667558e-07	-2.925882e-10	-3.252374e+00	-2.307283e+01
1.750000e-06	-4.202027e-07	-2.745911e-10	-2.927989e+00	-2.190911e+01
1.760000e-06	-3.736419e-07	-2.561151e-10	-2.603552e+00	-2.072499e+01
1.770000e-06	-3.271023e-07	-2.382849e-10	-2.279262e+00	-1.952060e+01
1.780000e-06	-2.805088e-07	-2.212300e-10	-1.954597e+00	-1.829613e+01
1.790000e-06	-2.338442e-07	-2.044507e-10	-1.629436e+00	-1.705186e+01
1.800000e-06	-1.871307e-07	-1.856271e-10	-1.303934e+00	-1.578809e+01
1.810000e-06	-1.404549e-07	-1.653616e-10	-9.786952e-01	-1.450521e+01
1.820000e-06	-9.378716e-08	-1.451360e-10	-6.535127e-01	-1.320366e+01
1.830000e-06	-4.712361e-08	-1.257787e-10	-3.283592e-01	-1.188396e+01
1.840000e-06	-5.375784e-10	-1.090684e-10	-3.745868e-03	-1.054669e+01
1.850000e-06	4.608502e-08	-9.406543e-11	3.211223e-01	-9.192474e+00
1.860000e-06	9.281452e-08	-7.619238e-11	6.467353e-01	-7.822021e+00
1.870000e-06	1.395818e-07	-5.498321e-11	9.726119e-01	-6.436091e+00
1.880000e-06	1.863171e-07	-3.409901e-11	1.298265e+00	-5.035507e+00
1.890000e-06	2.330185e-07	-1.545409e-11	1.623682e+00	-3.621150e+00
1.900000e-06	2.796535e-07	2.424707e-12	1.948637e+00	-2.193957e+00
1.910000e-06	3.262150e-07	2.161949e-11	2.273080e+00	-7.549192e-01
1.920000e-06	3.728414e-07	4.389325e-11	2.597974e+00	6.949232e-01
1.930000e-06	4.194497e-07	6.833068e-11	2.922742e+00	2.154481e+00
1.940000e-06	4.660087e-07	9.134790e-11	3.247168e+00	3.622622e+00
1.950000e-06	5.125495e-07	1.120732e-10	3.571466e+00	5.098174e+00
1.960000e-06	5.589370e-07	1.311275e-10	3.894696e+00	6.579927e+00
1.970000e-06	6.052515e-07	1.495923e-10	4.217417e+00	8.066642e+00
1.980000e-06	6.515914e-07	1.688918e-10	4.540315e+00	9.557051e+00
1.990000e-06	6.978916e-07	1.891221e-10	4.862937e+00	1.104987e+01
2.000000e-06	7.441020e-07	2.116444e-10	5.184933e+00	1.254378e+01
2.010000e-06	7.901670e-07	2.346101e-10	5.505916e+00	1.403748e+01
2.020000e-06	8.361822e-07	2.561297e-10	5.826552e+00	1.552964e+01
2.030000e-06	8.822103e-07	2.777669e-10	6.147277e+00	1.701893e+01
2.040000e-06	9.281743e-07	2.968273e-10	6.467557e+00	1.850405e+01
2.050000e-06	9.741444e-07	3.141071e-10	6.787878e+00	1.998366e+01
2.060000e-06	1.020029e-06	3.321228e-10	7.107605e+00	2.145650e+01
2.070000e-06	1.065754e-06	3.518690e-10	7.426218e+00	2.292128e+01
2.080000e-06	1.111441e-06	3.728007e-10	7.744568e+00	2.437676e+01
2.090000e-06	1.157055e-06	3.949111e-10	8.062407e+00	2.582173e+01
2.100000e-06	1.202570e-06	4.167895e-10	8.379554e+00	2.725501e+01
2.110000e-06	1.248070e-06	4.364425e-10	8.696599e+00	2.867548e+01
2.120000e-06	1.293544e-06	4.530233e-10	9.013469e+00	3.008205e+01
2.130000e-06	1.338941e-06	4.682331e-10	9.329793e+00	3.147369e+01
2.140000e-06	1.384233e-06	4.840900e-10	9.645393e+00	3.284942e+01
2.150000e-06	1.429375e-06	5.010470e-10	9.959943e+00	3.420833e+01
2.160000e-06	1.474359e-06	5.198486e-10	1.027340e+01	3.554956e+01
2.170000e-06	1.519269e-06	5.393217e-10	1.058633e+01	3.687232e+01
2.180000e-06	1.564111e-06	5.588212e-10	1.089879e+01	3.817590e+01
2.190000e-06	1.608767e-06	5.782596e-10	1.120996e+01	3.945964e+01
2.200000e-06	1.653198e-06	5.968144e-10	1.151955e+01	4.072298e+01
2.210000e-06	1.697562e-06	6.128450e-10	1.182868e+01	4.196542e+01
2.220000e-06	1.741830e-06	6.265988e-10	1.213714e+01	4.318652e+01
2.230000e-06	1.785886e-06	6.413880e-10	1.244413e+01	4.438593e+01
2.240000e-06	1.829747e-06	6.573618e-10	1.274975e+01	4.556339e+01
2.250000e-06	1.873513e-06	6.743435e-10	1.305472e+01	4.671869e+01
2.260000e-06	1.917274e-06	6.921986e-10	1.335964e+01	4.785169e+01
2.270000e-06	1.960993e-06	7.089506e-10	1.366428e+01	4.896236e+01
2.280000e-06	2.004651e-06	7.248989e-10	1.396849e+01	5.005069e+01
2.290000e-06	2.048288e-06	7.402763e-10	1.427255e+01	5.111676e+01
2.300000e-06	2.091909e-06	7.548722e-10	1.457651e+01	5.216074e+01
2.310000e-06	2.135449e-06	7.693096e-10	1.487990e+01	5.318281e+01
2.320000e-06	2.178884e-06	7.845312e-10	1.518255e+01	5.418324e+01
2.330000e-06	2.222242e-06	7.994562e-10	1.548467e+01	5.516235e+01
2.340000e-06	2.265479e-06	8.131277e-10	1.578595e+01	5.612051e+01
2.350000e-06	2.308542e-06	8.249369e-10	1.608602e+01	5.705812e+01
2.360000e-06	2.351328e-06	8.359875e-10	1.638415e+01	5.797564e+01
2.370000e-06	2.393821e-06	8.465928e-10	1.668024e+01	5.887356e+01
2.380000e-06	2.436039e-06	8.578195e-10	1.697442e+01	5.975239e+01
2.390000e-06	2.477985e-06	8.714634e-10	1.726670e+01	6.061267e+01
2.400000e-06	2.519592e-06	8.856933e-10	1.755662e+01	6.145496e+01
2.410000e-06	2.560699e-06	8.993293e-10	1.784306e+01	6.227986e+01
2.420000e-06	2.601413e-06	9.129301e-10	1.812675e+01	6.308793e+01
2.430000e-06	2.641873e-06	9.248814e-10	1.840868e+01	6.387978e+01
2.440000e-06	2.682132e-06	9.341449e-10	1.868920e+01	6.465600e+01
2.450000e-06	2.722257e-06	9.428281e-10	1.896880e+01	6.541718e+01
2.460000e-06	2.762229e-06	9.532527e-10	1.924733e+01	6.616389e+01
2.470000e-06	2.802066e-06	9.644816e-10	1.952491e+01	6.689671e+01
2.480000e-06	2.841787e-06	9.749336e-10	1.980169e+01	6.761619e+01
2.490000e-06	2.881374e-06	9.869060e-10	2.007753e+01	6.832285e+01
2.500000e-06	2.920859e-06	1.000864e-09	2.035266e+01	6.901721e+01
2.510000e-06	2.960242e-06	1.014826e-09	2.062709e+01	6.969974e+01
2.520000e-06	2.999486e-06	1.026494e-09	2.090054e+01	7.037089e+01
2.530000e-06	3.038581e-06	1.036171e-09	2.117295e+01	7.103108e+01
2.540000e-06	3.077462e-06	1.046492e-09	2.144388e+01	7.168069e+01
2.550000e-06	3.116050e-06	1.055192e-09	2.171277e+01	7.232009e+01
2.560000e-06	3.154349e-06	1.060665e-09	2.197963e+01	7.294957e+01
2.570000e-06	3.192410e-06	1.066522e-09	2.224484e+01	7.356943e+01
2.580000e-06	3.230259e-06	1.076199e-09	2.250857e+01	7.417990e+01
2.590000e-06	3.267867e-06	1.089163e-09	2.277063e+01	7.478119e+01
2.600000e-06	3.305314e-06	1.101065e-09	2.303156e+01	7.537348e+01
2.610000e-06	3.342599e-06	1.109500e-09	2.329136e+01	7.595690e+01
2.620000e-06	3.379596e-06	1.117777e-09	2.354916e+01	7.653156e+01
2.630000e-06	3.416315e-06	1.125930e-09	2.380502e+01	7.709753e+01
2.640000e-06	3.452706e-06	1.131423e-09	2.405860e+01	7.765486e+01
2.650000e-06	3.488778e-06	1.137944e-09	2.430995e+01	7.820357e+01
2.660000e-06	3.524701e-06	1.146003e-09	2.456026e+01	7.874366e+01
2.670000e-06	3.560470e-06	1.153238e-09	2.480950e+01	7.927510e+01
2.680000e-06	3.596088e-06	1.159324e-09	2.505769e+01	7.979784e+01
2.690000e-06	3.631630e-06	1.163954e-09	2.530534e+01	8.031184e+01
2.700000e-06	3.667025e-06	1.168931e-09	2.555198e+01	8.081701e+01
2.710000e-06	3.702217e-06	1.176563e-09	2.579720e+01	8.131328e+01
2.720000e-06	3.737202e-06	1.185845e-09	2.604098e+01	8.180056e+01
2.730000e-06	3.771814e-06	1.194625e-09	2.628215e+01	8.227876e+01
2.740000e-06	3.805962e-06	1.202444e-09	2.652010e+01	8.274781e+01
2.750000e-06	3.839649e-06	1.208252e-09	2.675483e+01	8.320761e+01
2.760000e-06	3.872803e-06	1.211689e-09	2.698585e+01	8.365810e+01
2.770000e-06	3.905557e-06	1.214602e-09	2.721408e+01	8.409920e+01
2.780000e-06	3.937983e-06	1.219949e-09	2.744002e+01	8.453086e+01
2.790000e-06	3.970045e-06	1.226643e-09	2.766344e+01	8.495304e+01
2.800000e-06	4.001838e-06	1.234247e-09	2.788497e+01	8.536573e+01
2.810000e-06	4.033446e-06	1.243088e-09	2.810521e+01	8.576890e+01
2.820000e-06	4.064912e-06	1.250505e-09	2.832447e+01	8.616259e+01
2.830000e-06	4.096188e-06	1.256723e-09	2.854240e+01	8.654682e+01
2.840000e-06	4.127289e-06	1.260485e-09	2.875912e+01	8.692166e+01
2.850000e-06	4.158194e-06	1.261843e-09	2.897447e+01	8.728719e+01
2.860000e-06	4.188735e-06	1.264007e-09	2.918728e+01	8.764350e+01
2.870000e-06	4.218860e-06	1.267554e-09	2.939719e+01	8.799073e+01
2.880000e-06	4.248659e-06	1.271779e-09	2.960483e+01	8.832903e+01
2.890000e-06	4.278268e-06	1.275921e-09	2.981115e+01	8.865857e+01
2.900000e-06	4.307668e-06	1.280837e-09	3.001600e+01	8.897953e+01
2.910000e-06	4.336734e-06	1.287590e-09	3.021854e+01	8.929213e+01
