# Temperatura_=_15.18
# Concentracion g/m^3_=_1620.0
# C_Vs_to_Am_M_A/Vsm_=_65563218390.804596
# pendiente_HvsI_1/m_=_3716.3
# ordenada_HvsI_A/m_=_1297.0
# frecuencia_Hz_=_135105.16866778542

Tiempo_(s)	Campo_(V.s)	Magnetizacion_(V.s)	Campo_(kA/m)	Magnetizacion_(A/m)
0.000000e+00	-5.534047e-06	-1.112432e-09	-3.837498e+01	-7.235804e+01
1.000000e-08	-5.534283e-06	-1.110566e-09	-3.837661e+01	-7.233919e+01
2.000000e-08	-5.534204e-06	-1.107025e-09	-3.837607e+01	-7.232183e+01
3.000000e-08	-5.533794e-06	-1.104542e-09	-3.837322e+01	-7.230585e+01
4.000000e-08	-5.532948e-06	-1.103796e-09	-3.836736e+01	-7.229109e+01
5.000000e-08	-5.531531e-06	-1.105129e-09	-3.835753e+01	-7.227740e+01
6.000000e-08	-5.529546e-06	-1.111803e-09	-3.834377e+01	-7.226458e+01
7.000000e-08	-5.526977e-06	-1.124327e-09	-3.832595e+01	-7.225241e+01
8.000000e-08	-5.523898e-06	-1.127006e-09	-3.830460e+01	-7.224066e+01
9.000000e-08	-5.520355e-06	-1.066474e-09	-3.828003e+01	-7.222908e+01
1.000000e-07	-5.516355e-06	-1.011345e-09	-3.825229e+01	-7.221738e+01
1.100000e-07	-5.512084e-06	-1.105112e-09	-3.822268e+01	-7.220528e+01
1.200000e-07	-5.507514e-06	-1.223444e-09	-3.819099e+01	-7.219248e+01
1.300000e-07	-5.502549e-06	-1.121391e-09	-3.815656e+01	-7.217868e+01
1.400000e-07	-5.497345e-06	-1.014369e-09	-3.812047e+01	-7.216355e+01
1.500000e-07	-5.491831e-06	-1.051092e-09	-3.808223e+01	-7.214677e+01
1.600000e-07	-5.485851e-06	-1.200055e-09	-3.804077e+01	-7.212802e+01
1.700000e-07	-5.479447e-06	-1.113455e-09	-3.799636e+01	-7.210696e+01
1.800000e-07	-5.472751e-06	-9.836750e-10	-3.794993e+01	-7.208329e+01
1.900000e-07	-5.465713e-06	-1.034421e-09	-3.790113e+01	-7.205668e+01
2.000000e-07	-5.458252e-06	-1.157489e-09	-3.784939e+01	-7.202681e+01
2.100000e-07	-5.450505e-06	-1.147118e-09	-3.779567e+01	-7.199339e+01
2.200000e-07	-5.442605e-06	-1.041345e-09	-3.774089e+01	-7.195613e+01
2.300000e-07	-5.434433e-06	-1.042191e-09	-3.768422e+01	-7.191474e+01
2.400000e-07	-5.425711e-06	-1.081167e-09	-3.762374e+01	-7.186898e+01
2.500000e-07	-5.416381e-06	-1.094201e-09	-3.755904e+01	-7.181859e+01
2.600000e-07	-5.406375e-06	-1.045390e-09	-3.748966e+01	-7.176334e+01
2.700000e-07	-5.395769e-06	-1.071067e-09	-3.741611e+01	-7.170303e+01
2.800000e-07	-5.384637e-06	-1.084908e-09	-3.733892e+01	-7.163747e+01
2.900000e-07	-5.373083e-06	-1.085780e-09	-3.725879e+01	-7.156651e+01
3.000000e-07	-5.361196e-06	-1.039614e-09	-3.717637e+01	-7.148999e+01
3.100000e-07	-5.348868e-06	-1.055063e-09	-3.709088e+01	-7.140780e+01
3.200000e-07	-5.336161e-06	-1.073178e-09	-3.700277e+01	-7.131984e+01
3.300000e-07	-5.323115e-06	-1.087773e-09	-3.691230e+01	-7.122604e+01
3.400000e-07	-5.309640e-06	-1.039808e-09	-3.681886e+01	-7.112636e+01
3.500000e-07	-5.295688e-06	-1.039276e-09	-3.672212e+01	-7.102077e+01
3.600000e-07	-5.281265e-06	-1.071202e-09	-3.662210e+01	-7.090927e+01
3.700000e-07	-5.266415e-06	-1.056493e-09	-3.651913e+01	-7.079187e+01
3.800000e-07	-5.250995e-06	-1.010907e-09	-3.641220e+01	-7.066863e+01
3.900000e-07	-5.235069e-06	-1.067885e-09	-3.630176e+01	-7.053960e+01
4.000000e-07	-5.218836e-06	-1.093310e-09	-3.618920e+01	-7.040486e+01
4.100000e-07	-5.202134e-06	-1.005827e-09	-3.607338e+01	-7.026453e+01
4.200000e-07	-5.185084e-06	-1.017785e-09	-3.595515e+01	-7.011871e+01
4.300000e-07	-5.167807e-06	-1.116452e-09	-3.583534e+01	-6.996755e+01
4.400000e-07	-5.150115e-06	-1.050106e-09	-3.571266e+01	-6.981119e+01
4.500000e-07	-5.131986e-06	-9.569351e-10	-3.558695e+01	-6.964978e+01
4.600000e-07	-5.113500e-06	-1.075022e-09	-3.545876e+01	-6.948352e+01
4.700000e-07	-5.094671e-06	-1.103229e-09	-3.532819e+01	-6.931256e+01
4.800000e-07	-5.075468e-06	-9.698987e-10	-3.519503e+01	-6.913712e+01
4.900000e-07	-5.055951e-06	-9.943657e-10	-3.505970e+01	-6.895738e+01
5.000000e-07	-5.036219e-06	-1.103226e-09	-3.492287e+01	-6.877354e+01
5.100000e-07	-5.016208e-06	-9.986526e-10	-3.478411e+01	-6.858581e+01
5.200000e-07	-4.995951e-06	-9.637693e-10	-3.464364e+01	-6.839440e+01
5.300000e-07	-4.975393e-06	-1.077971e-09	-3.450108e+01	-6.819950e+01
5.400000e-07	-4.954437e-06	-1.037106e-09	-3.435577e+01	-6.800131e+01
5.500000e-07	-4.933092e-06	-9.333389e-10	-3.420775e+01	-6.780005e+01
5.600000e-07	-4.911419e-06	-1.041884e-09	-3.405746e+01	-6.759589e+01
5.700000e-07	-4.889514e-06	-1.067258e-09	-3.390556e+01	-6.738904e+01
5.800000e-07	-4.867238e-06	-9.495700e-10	-3.375110e+01	-6.717965e+01
5.900000e-07	-4.844488e-06	-9.781333e-10	-3.359334e+01	-6.696792e+01
6.000000e-07	-4.821414e-06	-1.060312e-09	-3.343333e+01	-6.675399e+01
6.100000e-07	-4.798037e-06	-9.745797e-10	-3.327123e+01	-6.653802e+01
6.200000e-07	-4.774401e-06	-9.600661e-10	-3.310733e+01	-6.632014e+01
6.300000e-07	-4.750608e-06	-1.038159e-09	-3.294234e+01	-6.610049e+01
6.400000e-07	-4.726594e-06	-9.989985e-10	-3.277582e+01	-6.587916e+01
6.500000e-07	-4.702331e-06	-9.437540e-10	-3.260757e+01	-6.565627e+01
6.600000e-07	-4.677739e-06	-1.000645e-09	-3.243704e+01	-6.543189e+01
6.700000e-07	-4.652485e-06	-9.934111e-10	-3.226192e+01	-6.520609e+01
6.800000e-07	-4.626463e-06	-9.390226e-10	-3.208148e+01	-6.497893e+01
6.900000e-07	-4.599978e-06	-9.729265e-10	-3.189782e+01	-6.475044e+01
7.000000e-07	-4.573133e-06	-9.947593e-10	-3.171167e+01	-6.452066e+01
7.100000e-07	-4.545910e-06	-9.514443e-10	-3.152290e+01	-6.428959e+01
7.200000e-07	-4.518425e-06	-9.560843e-10	-3.133230e+01	-6.405722e+01
7.300000e-07	-4.490758e-06	-9.814115e-10	-3.114045e+01	-6.382354e+01
7.400000e-07	-4.462920e-06	-9.523920e-10	-3.094741e+01	-6.358851e+01
7.500000e-07	-4.434842e-06	-9.459279e-10	-3.075271e+01	-6.335209e+01
7.600000e-07	-4.406470e-06	-9.675618e-10	-3.055597e+01	-6.311422e+01
7.700000e-07	-4.377793e-06	-9.547482e-10	-3.035712e+01	-6.287482e+01
7.800000e-07	-4.348789e-06	-9.347580e-10	-3.015599e+01	-6.263380e+01
7.900000e-07	-4.319493e-06	-9.473627e-10	-2.995285e+01	-6.239109e+01
8.000000e-07	-4.289946e-06	-9.331343e-10	-2.974795e+01	-6.214656e+01
8.100000e-07	-4.260090e-06	-9.118217e-10	-2.954092e+01	-6.190010e+01
8.200000e-07	-4.229924e-06	-9.159076e-10	-2.933174e+01	-6.165159e+01
8.300000e-07	-4.199417e-06	-9.191422e-10	-2.912019e+01	-6.140090e+01
8.400000e-07	-4.168579e-06	-8.962567e-10	-2.890635e+01	-6.114789e+01
8.500000e-07	-4.137492e-06	-9.006570e-10	-2.869079e+01	-6.089242e+01
8.600000e-07	-4.106198e-06	-9.073353e-10	-2.847378e+01	-6.063434e+01
8.700000e-07	-4.074682e-06	-8.915671e-10	-2.825524e+01	-6.037349e+01
8.800000e-07	-4.042945e-06	-8.805176e-10	-2.803516e+01	-6.010973e+01
8.900000e-07	-4.011040e-06	-8.890133e-10	-2.781392e+01	-5.984289e+01
9.000000e-07	-3.978890e-06	-8.753837e-10	-2.759099e+01	-5.957282e+01
9.100000e-07	-3.946453e-06	-8.627958e-10	-2.736605e+01	-5.929937e+01
9.200000e-07	-3.913676e-06	-8.699264e-10	-2.713877e+01	-5.902238e+01
9.300000e-07	-3.880483e-06	-8.675195e-10	-2.690860e+01	-5.874169e+01
9.400000e-07	-3.846837e-06	-8.503267e-10	-2.667529e+01	-5.845717e+01
9.500000e-07	-3.812639e-06	-8.543335e-10	-2.643815e+01	-5.816867e+01
9.600000e-07	-3.777971e-06	-8.592152e-10	-2.619774e+01	-5.787605e+01
9.700000e-07	-3.743001e-06	-8.436760e-10	-2.595525e+01	-5.757918e+01
9.800000e-07	-3.707794e-06	-8.353991e-10	-2.571111e+01	-5.727795e+01
9.900000e-07	-3.672392e-06	-8.371731e-10	-2.546562e+01	-5.697222e+01
1.000000e-06	-3.636771e-06	-8.232365e-10	-2.521861e+01	-5.666191e+01
1.010000e-06	-3.601027e-06	-8.090940e-10	-2.497075e+01	-5.634692e+01
1.020000e-06	-3.565210e-06	-8.170860e-10	-2.472239e+01	-5.602715e+01
1.030000e-06	-3.529205e-06	-8.200221e-10	-2.447271e+01	-5.570254e+01
1.040000e-06	-3.492946e-06	-8.102633e-10	-2.422129e+01	-5.537303e+01
1.050000e-06	-3.456440e-06	-8.086234e-10	-2.396814e+01	-5.503856e+01
1.060000e-06	-3.419682e-06	-8.057459e-10	-2.371325e+01	-5.469910e+01
1.070000e-06	-3.382639e-06	-7.869626e-10	-2.345638e+01	-5.435462e+01
1.080000e-06	-3.345251e-06	-7.778373e-10	-2.319711e+01	-5.400511e+01
1.090000e-06	-3.307632e-06	-7.795067e-10	-2.293625e+01	-5.365058e+01
1.100000e-06	-3.269912e-06	-7.752695e-10	-2.267469e+01	-5.329103e+01
1.110000e-06	-3.231958e-06	-7.650074e-10	-2.241150e+01	-5.292648e+01
1.120000e-06	-3.193754e-06	-7.648010e-10	-2.214659e+01	-5.255699e+01
1.130000e-06	-3.155286e-06	-7.578202e-10	-2.187983e+01	-5.218259e+01
1.140000e-06	-3.116557e-06	-7.480124e-10	-2.161128e+01	-5.180334e+01
1.150000e-06	-3.077739e-06	-7.444135e-10	-2.134210e+01	-5.141931e+01
1.160000e-06	-3.038752e-06	-7.442375e-10	-2.107175e+01	-5.103059e+01
1.170000e-06	-2.999500e-06	-7.368456e-10	-2.079956e+01	-5.063725e+01
1.180000e-06	-2.960047e-06	-7.293867e-10	-2.052598e+01	-5.023939e+01
1.190000e-06	-2.920444e-06	-7.235418e-10	-2.025136e+01	-4.983711e+01
1.200000e-06	-2.880701e-06	-7.131457e-10	-1.997577e+01	-4.943052e+01
1.210000e-06	-2.840807e-06	-7.016861e-10	-1.969913e+01	-4.901970e+01
1.220000e-06	-2.800792e-06	-6.978693e-10	-1.942165e+01	-4.860478e+01
1.230000e-06	-2.760593e-06	-6.941903e-10	-1.914290e+01	-4.818585e+01
1.240000e-06	-2.720229e-06	-6.906041e-10	-1.886300e+01	-4.776303e+01
1.250000e-06	-2.679749e-06	-6.869088e-10	-1.858230e+01	-4.733639e+01
1.260000e-06	-2.638972e-06	-6.809086e-10	-1.829954e+01	-4.690605e+01
1.270000e-06	-2.597908e-06	-6.684096e-10	-1.801478e+01	-4.647207e+01
1.280000e-06	-2.556599e-06	-6.565888e-10	-1.772833e+01	-4.603454e+01
1.290000e-06	-2.514983e-06	-6.500113e-10	-1.743975e+01	-4.559350e+01
1.300000e-06	-2.473021e-06	-6.412878e-10	-1.714877e+01	-4.514901e+01
1.310000e-06	-2.430769e-06	-6.340438e-10	-1.685578e+01	-4.470108e+01
1.320000e-06	-2.388312e-06	-6.289786e-10	-1.656138e+01	-4.424973e+01
1.330000e-06	-2.345551e-06	-6.233661e-10	-1.626485e+01	-4.379494e+01
1.340000e-06	-2.302483e-06	-6.153956e-10	-1.596621e+01	-4.333667e+01
1.350000e-06	-2.259195e-06	-6.088519e-10	-1.566603e+01	-4.287486e+01
1.360000e-06	-2.215687e-06	-6.026930e-10	-1.536433e+01	-4.240942e+01
1.370000e-06	-2.172005e-06	-5.939031e-10	-1.506142e+01	-4.194023e+01
1.380000e-06	-2.128242e-06	-5.863917e-10	-1.475796e+01	-4.146713e+01
1.390000e-06	-2.084434e-06	-5.788256e-10	-1.445418e+01	-4.098996e+01
1.400000e-06	-2.040604e-06	-5.672834e-10	-1.415025e+01	-4.050850e+01
1.410000e-06	-1.996757e-06	-5.554638e-10	-1.384619e+01	-4.002250e+01
1.420000e-06	-1.952851e-06	-5.441306e-10	-1.354174e+01	-3.953169e+01
1.430000e-06	-1.908836e-06	-5.367590e-10	-1.323652e+01	-3.903574e+01
1.440000e-06	-1.864620e-06	-5.314916e-10	-1.292991e+01	-3.853431e+01
1.450000e-06	-1.820274e-06	-5.289379e-10	-1.262241e+01	-3.802702e+01
1.460000e-06	-1.775834e-06	-5.253751e-10	-1.231424e+01	-3.751345e+01
1.470000e-06	-1.731296e-06	-5.171489e-10	-1.200540e+01	-3.699315e+01
1.480000e-06	-1.686665e-06	-5.040352e-10	-1.169591e+01	-3.646564e+01
1.490000e-06	-1.641864e-06	-4.908044e-10	-1.138525e+01	-3.593040e+01
1.500000e-06	-1.596851e-06	-4.795162e-10	-1.107311e+01	-3.538691e+01
1.510000e-06	-1.551655e-06	-4.722320e-10	-1.075971e+01	-3.483458e+01
1.520000e-06	-1.506354e-06	-4.680612e-10	-1.044557e+01	-3.427283e+01
1.530000e-06	-1.461034e-06	-4.644167e-10	-1.013131e+01	-3.370104e+01
1.540000e-06	-1.415638e-06	-4.582162e-10	-9.816522e+00	-3.311858e+01
1.550000e-06	-1.370113e-06	-4.488407e-10	-9.500830e+00	-3.252481e+01
1.560000e-06	-1.324495e-06	-4.355743e-10	-9.184504e+00	-3.191906e+01
1.570000e-06	-1.278741e-06	-4.216942e-10	-8.867228e+00	-3.130066e+01
1.580000e-06	-1.232874e-06	-4.067680e-10	-8.549168e+00	-3.066895e+01
1.590000e-06	-1.186924e-06	-3.925507e-10	-8.230540e+00	-3.002325e+01
1.600000e-06	-1.140935e-06	-3.820700e-10	-7.911635e+00	-2.936290e+01
1.610000e-06	-1.094878e-06	-3.752690e-10	-7.592260e+00	-2.868723e+01
1.620000e-06	-1.048668e-06	-3.685939e-10	-7.271821e+00	-2.799560e+01
1.630000e-06	-1.002395e-06	-3.583176e-10	-6.950951e+00	-2.728740e+01
1.640000e-06	-9.561180e-07	-3.456732e-10	-6.630049e+00	-2.656202e+01
1.650000e-06	-9.097316e-07	-3.324742e-10	-6.308390e+00	-2.581888e+01
1.660000e-06	-8.632798e-07	-3.195554e-10	-5.986278e+00	-2.505746e+01
1.670000e-06	-8.168349e-07	-3.068706e-10	-5.664213e+00	-2.427725e+01
1.680000e-06	-7.703825e-07	-2.986209e-10	-5.342096e+00	-2.347779e+01
1.690000e-06	-7.238754e-07	-2.901443e-10	-5.019600e+00	-2.265868e+01
1.700000e-06	-6.773221e-07	-2.787751e-10	-4.696784e+00	-2.181956e+01
1.710000e-06	-6.307998e-07	-2.657037e-10	-4.374182e+00	-2.096015e+01
1.720000e-06	-5.842652e-07	-2.510012e-10	-4.051495e+00	-2.008019e+01
1.730000e-06	-5.375648e-07	-2.348667e-10	-3.727658e+00	-1.917952e+01
1.740000e-06	-4.907343e-07	-2.201531e-10	-3.402919e+00	-1.825804e+01
1.750000e-06	-4.438376e-07	-2.074882e-10	-3.077722e+00	-1.731571e+01
1.760000e-06	-3.969291e-07	-1.976476e-10	-2.752442e+00	-1.635258e+01
1.770000e-06	-3.499751e-07	-1.885097e-10	-2.426847e+00	-1.536876e+01
1.780000e-06	-3.029837e-07	-1.753614e-10	-2.100993e+00	-1.436447e+01
1.790000e-06	-2.560776e-07	-1.587109e-10	-1.775730e+00	-1.333996e+01
1.800000e-06	-2.091473e-07	-1.420990e-10	-1.450299e+00	-1.229561e+01
1.810000e-06	-1.621715e-07	-1.241230e-10	-1.124553e+00	-1.123185e+01
1.820000e-06	-1.152059e-07	-1.067597e-10	-7.988772e-01	-1.014921e+01
1.830000e-06	-6.823919e-08	-9.067554e-11	-4.731939e-01	-9.048288e+00
1.840000e-06	-2.125275e-08	-7.521246e-11	-1.473738e-01	-7.929765e+00
1.850000e-06	2.569153e-08	-6.191065e-11	1.781539e-01	-6.794404e+00
1.860000e-06	7.258479e-08	-4.860867e-11	5.033278e-01	-5.643041e+00
1.870000e-06	1.194898e-07	-3.282755e-11	8.285831e-01	-4.476585e+00
1.880000e-06	1.664250e-07	-1.586469e-11	1.154048e+00	-3.296017e+00
1.890000e-06	2.133852e-07	9.036772e-13	1.479686e+00	-2.102383e+00
1.900000e-06	2.603410e-07	1.906451e-11	1.805294e+00	-8.967913e-01
1.910000e-06	3.072474e-07	3.707699e-11	2.130558e+00	3.195917e-01
1.920000e-06	3.541354e-07	5.436037e-11	2.455696e+00	1.545547e+00
1.930000e-06	4.010147e-07	7.198607e-11	2.780773e+00	2.779808e+00
1.940000e-06	4.478313e-07	8.907765e-11	3.105416e+00	4.021066e+00
1.950000e-06	4.946160e-07	1.052386e-10	3.429837e+00	5.267978e+00
1.960000e-06	5.413900e-07	1.207988e-10	3.754184e+00	6.519170e+00
1.970000e-06	5.880982e-07	1.356738e-10	4.078074e+00	7.773246e+00
1.980000e-06	6.347888e-07	1.524533e-10	4.401843e+00	9.028795e+00
1.990000e-06	6.814275e-07	1.709101e-10	4.725251e+00	1.028439e+01
2.000000e-06	7.278990e-07	1.894181e-10	5.047501e+00	1.153862e+01
2.010000e-06	7.743149e-07	2.093185e-10	5.369364e+00	1.279005e+01
2.020000e-06	8.207563e-07	2.274111e-10	5.691405e+00	1.403727e+01
2.030000e-06	8.671467e-07	2.447790e-10	6.013092e+00	1.527890e+01
2.040000e-06	9.134691e-07	2.624637e-10	6.334307e+00	1.651357e+01
2.050000e-06	9.596558e-07	2.772656e-10	6.654582e+00	1.773995e+01
2.060000e-06	1.005791e-06	2.917795e-10	6.974497e+00	1.895674e+01
2.070000e-06	1.051904e-06	3.069028e-10	7.294262e+00	2.016268e+01
2.080000e-06	1.097863e-06	3.236577e-10	7.612957e+00	2.135657e+01
2.090000e-06	1.143755e-06	3.425728e-10	7.931190e+00	2.253726e+01
2.100000e-06	1.189618e-06	3.625803e-10	8.249216e+00	2.370366e+01
2.110000e-06	1.235457e-06	3.799022e-10	8.567085e+00	2.485475e+01
2.120000e-06	1.281215e-06	3.940413e-10	8.884383e+00	2.598957e+01
2.130000e-06	1.326792e-06	4.067629e-10	9.200429e+00	2.710722e+01
2.140000e-06	1.372246e-06	4.211212e-10	9.515627e+00	2.820691e+01
2.150000e-06	1.417627e-06	4.355430e-10	9.830309e+00	2.928790e+01
2.160000e-06	1.462902e-06	4.482936e-10	1.014426e+01	3.034953e+01
2.170000e-06	1.508101e-06	4.641518e-10	1.045769e+01	3.139123e+01
2.180000e-06	1.553252e-06	4.815753e-10	1.077078e+01	3.241251e+01
2.190000e-06	1.598302e-06	4.990939e-10	1.108318e+01	3.341297e+01
2.200000e-06	1.643233e-06	5.136293e-10	1.139474e+01	3.439227e+01
2.210000e-06	1.688051e-06	5.228069e-10	1.170552e+01	3.535016e+01
2.220000e-06	1.732691e-06	5.287606e-10	1.201507e+01	3.628650e+01
2.230000e-06	1.777139e-06	5.359261e-10	1.232329e+01	3.720118e+01
2.240000e-06	1.821452e-06	5.483948e-10	1.263057e+01	3.809419e+01
2.250000e-06	1.865628e-06	5.626804e-10	1.293690e+01	3.896560e+01
2.260000e-06	1.909653e-06	5.774510e-10	1.324219e+01	3.981554e+01
2.270000e-06	1.953594e-06	5.895672e-10	1.354689e+01	4.064420e+01
2.280000e-06	1.997482e-06	5.984683e-10	1.385122e+01	4.145185e+01
2.290000e-06	2.041247e-06	6.073417e-10	1.415471e+01	4.223879e+01
2.300000e-06	2.084945e-06	6.161709e-10	1.445772e+01	4.300541e+01
2.310000e-06	2.128641e-06	6.236307e-10	1.476072e+01	4.375212e+01
2.320000e-06	2.172256e-06	6.328733e-10	1.506317e+01	4.447939e+01
2.330000e-06	2.215762e-06	6.483172e-10	1.536485e+01	4.518770e+01
2.340000e-06	2.259191e-06	6.643631e-10	1.566601e+01	4.587760e+01
2.350000e-06	2.302536e-06	6.749526e-10	1.596657e+01	4.654965e+01
2.360000e-06	2.345729e-06	6.799498e-10	1.626609e+01	4.720443e+01
2.370000e-06	2.388676e-06	6.826365e-10	1.656390e+01	4.784254e+01
2.380000e-06	2.431321e-06	6.872353e-10	1.685961e+01	4.846459e+01
2.390000e-06	2.473710e-06	6.944960e-10	1.715355e+01	4.907119e+01
2.400000e-06	2.515820e-06	7.048356e-10	1.744556e+01	4.966298e+01
2.410000e-06	2.557553e-06	7.178489e-10	1.773495e+01	5.024055e+01
2.420000e-06	2.598957e-06	7.310852e-10	1.802206e+01	5.080453e+01
2.430000e-06	2.640168e-06	7.423917e-10	1.830783e+01	5.135550e+01
2.440000e-06	2.681117e-06	7.501444e-10	1.859178e+01	5.189404e+01
2.450000e-06	2.721666e-06	7.545169e-10	1.887296e+01	5.242072e+01
2.460000e-06	2.761878e-06	7.560169e-10	1.915181e+01	5.293607e+01
2.470000e-06	2.801881e-06	7.590190e-10	1.942920e+01	5.344060e+01
2.480000e-06	2.841735e-06	7.639295e-10	1.970556e+01	5.393480e+01
2.490000e-06	2.881503e-06	7.719036e-10	1.998133e+01	5.441912e+01
2.500000e-06	2.921195e-06	7.860482e-10	2.025657e+01	5.489399e+01
2.510000e-06	2.960756e-06	8.007856e-10	2.053090e+01	5.535978e+01
2.520000e-06	3.000203e-06	8.105309e-10	2.080444e+01	5.581686e+01
2.530000e-06	3.039525e-06	8.138267e-10	2.107711e+01	5.626554e+01
2.540000e-06	3.078654e-06	8.154362e-10	2.134844e+01	5.670612e+01
2.550000e-06	3.117564e-06	8.177796e-10	2.161825e+01	5.713884e+01
2.560000e-06	3.156258e-06	8.211303e-10	2.188657e+01	5.756393e+01
2.570000e-06	3.194654e-06	8.272571e-10	2.215283e+01	5.798157e+01
2.580000e-06	3.232774e-06	8.391842e-10	2.241716e+01	5.839191e+01
2.590000e-06	3.270752e-06	8.549401e-10	2.268051e+01	5.879510e+01
2.600000e-06	3.308501e-06	8.668901e-10	2.294228e+01	5.919122e+01
2.610000e-06	3.345944e-06	8.731430e-10	2.320192e+01	5.958036e+01
2.620000e-06	3.383147e-06	8.747860e-10	2.345990e+01	5.996256e+01
2.630000e-06	3.420139e-06	8.765202e-10	2.371642e+01	6.033787e+01
2.640000e-06	3.456883e-06	8.775801e-10	2.397121e+01	6.070629e+01
2.650000e-06	3.493353e-06	8.811505e-10	2.422411e+01	6.106784e+01
2.660000e-06	3.529578e-06	8.927443e-10	2.447530e+01	6.142250e+01
2.670000e-06	3.565586e-06	9.056082e-10	2.472499e+01	6.177026e+01
2.680000e-06	3.601404e-06	9.138479e-10	2.497337e+01	6.211110e+01
2.690000e-06	3.637103e-06	9.166830e-10	2.522091e+01	6.244498e+01
2.700000e-06	3.672678e-06	9.160309e-10	2.546761e+01	6.277188e+01
2.710000e-06	3.708081e-06	9.164321e-10	2.571310e+01	6.309177e+01
2.720000e-06	3.743286e-06	9.175624e-10	2.595723e+01	6.340465e+01
2.730000e-06	3.778184e-06	9.213199e-10	2.619922e+01	6.371049e+01
2.740000e-06	3.812721e-06	9.281048e-10	2.643871e+01	6.400929e+01
2.750000e-06	3.846815e-06	9.365166e-10	2.667513e+01	6.430105e+01
2.760000e-06	3.880410e-06	9.437227e-10	2.690809e+01	6.458581e+01
2.770000e-06	3.913593e-06	9.481709e-10	2.713819e+01	6.486359e+01
2.780000e-06	3.946394e-06	9.490935e-10	2.736565e+01	6.513444e+01
2.790000e-06	3.978824e-06	9.487738e-10	2.759053e+01	6.539843e+01
2.800000e-06	4.010947e-06	9.499837e-10	2.781328e+01	6.565563e+01
2.810000e-06	4.042827e-06	9.540007e-10	2.803435e+01	6.590615e+01
2.820000e-06	4.074488e-06	9.616288e-10	2.825390e+01	6.615009e+01
2.830000e-06	4.105936e-06	9.691852e-10	2.847196e+01	6.638759e+01
2.840000e-06	4.137205e-06	9.749756e-10	2.868880e+01	6.661880e+01
2.850000e-06	4.168264e-06	9.778754e-10	2.890417e+01	6.684386e+01
2.860000e-06	4.199073e-06	9.773615e-10	2.911781e+01	6.706297e+01
2.870000e-06	4.229593e-06	9.749041e-10	2.932945e+01	6.727629e+01
2.880000e-06	4.259740e-06	9.731592e-10	2.953850e+01	6.748404e+01
2.890000e-06	4.289564e-06	9.733152e-10	2.974531e+01	6.768641e+01
2.900000e-06	4.319129e-06	9.774882e-10	2.995032e+01	6.788362e+01
2.910000e-06	4.348424e-06	9.862660e-10	3.015346e+01	6.807589e+01
