# Temperatura_=_-0.4
# Concentracion g/m^3_=_1620.0
# C_Vs_to_Am_M_A/Vsm_=_65563218390.804596
# pendiente_HvsI_1/m_=_3716.3
# ordenada_HvsI_A/m_=_1297.0
# frecuencia_Hz_=_135089.48355576463

Tiempo_(s)	Campo_(V.s)	Magnetizacion_(V.s)	Campo_(kA/m)	Magnetizacion_(A/m)
0.000000e+00	-5.507556e-06	-1.737254e-09	-3.837623e+01	-1.116267e+02
1.000000e-08	-5.507733e-06	-1.736330e-09	-3.837747e+01	-1.115804e+02
2.000000e-08	-5.507709e-06	-1.738008e-09	-3.837730e+01	-1.115310e+02
3.000000e-08	-5.507235e-06	-1.738689e-09	-3.837399e+01	-1.114784e+02
4.000000e-08	-5.506156e-06	-1.737698e-09	-3.836648e+01	-1.114227e+02
5.000000e-08	-5.504584e-06	-1.733084e-09	-3.835552e+01	-1.113642e+02
6.000000e-08	-5.502470e-06	-1.724862e-09	-3.834079e+01	-1.113029e+02
7.000000e-08	-5.499747e-06	-1.724725e-09	-3.832182e+01	-1.112389e+02
8.000000e-08	-5.496610e-06	-1.740940e-09	-3.829996e+01	-1.111724e+02
9.000000e-08	-5.493071e-06	-1.752468e-09	-3.827530e+01	-1.111033e+02
1.000000e-07	-5.489051e-06	-1.737658e-09	-3.824729e+01	-1.110319e+02
1.100000e-07	-5.484661e-06	-1.752635e-09	-3.821670e+01	-1.109581e+02
1.200000e-07	-5.479994e-06	-1.719556e-09	-3.818418e+01	-1.108821e+02
1.300000e-07	-5.475144e-06	-1.729782e-09	-3.815039e+01	-1.108039e+02
1.400000e-07	-5.469964e-06	-1.714497e-09	-3.811429e+01	-1.107236e+02
1.500000e-07	-5.464337e-06	-1.728951e-09	-3.807509e+01	-1.106412e+02
1.600000e-07	-5.458382e-06	-1.733303e-09	-3.803359e+01	-1.105568e+02
1.700000e-07	-5.452056e-06	-1.727668e-09	-3.798951e+01	-1.104704e+02
1.800000e-07	-5.445278e-06	-1.748028e-09	-3.794229e+01	-1.103819e+02
1.900000e-07	-5.438135e-06	-1.712698e-09	-3.789251e+01	-1.102915e+02
2.000000e-07	-5.430706e-06	-1.686323e-09	-3.784075e+01	-1.101990e+02
2.100000e-07	-5.422985e-06	-1.657686e-09	-3.778695e+01	-1.101045e+02
2.200000e-07	-5.414951e-06	-1.700504e-09	-3.773097e+01	-1.100079e+02
2.300000e-07	-5.406663e-06	-1.691299e-09	-3.767321e+01	-1.099091e+02
2.400000e-07	-5.398013e-06	-1.707439e-09	-3.761294e+01	-1.098082e+02
2.500000e-07	-5.388600e-06	-1.678565e-09	-3.754735e+01	-1.097051e+02
2.600000e-07	-5.378302e-06	-1.687995e-09	-3.747560e+01	-1.095996e+02
2.700000e-07	-5.367418e-06	-1.673593e-09	-3.739976e+01	-1.094917e+02
2.800000e-07	-5.356181e-06	-1.674849e-09	-3.732146e+01	-1.093813e+02
2.900000e-07	-5.344636e-06	-1.658173e-09	-3.724102e+01	-1.092682e+02
3.000000e-07	-5.332672e-06	-1.663831e-09	-3.715765e+01	-1.091523e+02
3.100000e-07	-5.320247e-06	-1.667967e-09	-3.707108e+01	-1.090335e+02
3.200000e-07	-5.307469e-06	-1.670689e-09	-3.698204e+01	-1.089117e+02
3.300000e-07	-5.294302e-06	-1.659924e-09	-3.689029e+01	-1.087866e+02
3.400000e-07	-5.280753e-06	-1.647609e-09	-3.679588e+01	-1.086581e+02
3.500000e-07	-5.266855e-06	-1.655816e-09	-3.669904e+01	-1.085261e+02
3.600000e-07	-5.252520e-06	-1.652453e-09	-3.659916e+01	-1.083904e+02
3.700000e-07	-5.237720e-06	-1.634410e-09	-3.649603e+01	-1.082508e+02
3.800000e-07	-5.222340e-06	-1.627387e-09	-3.638887e+01	-1.081071e+02
3.900000e-07	-5.206342e-06	-1.654708e-09	-3.627739e+01	-1.079591e+02
4.000000e-07	-5.189957e-06	-1.635993e-09	-3.616323e+01	-1.078066e+02
4.100000e-07	-5.173283e-06	-1.618482e-09	-3.604704e+01	-1.076495e+02
4.200000e-07	-5.156275e-06	-1.626638e-09	-3.592853e+01	-1.074876e+02
4.300000e-07	-5.138971e-06	-1.638309e-09	-3.580796e+01	-1.073206e+02
4.400000e-07	-5.121369e-06	-1.594352e-09	-3.568531e+01	-1.071484e+02
4.500000e-07	-5.103467e-06	-1.608993e-09	-3.556057e+01	-1.069708e+02
4.600000e-07	-5.085113e-06	-1.627583e-09	-3.543268e+01	-1.067877e+02
4.700000e-07	-5.066275e-06	-1.605662e-09	-3.530142e+01	-1.065988e+02
4.800000e-07	-5.047101e-06	-1.575719e-09	-3.516782e+01	-1.064040e+02
4.900000e-07	-5.027658e-06	-1.619619e-09	-3.503234e+01	-1.062032e+02
5.000000e-07	-5.007986e-06	-1.607802e-09	-3.489526e+01	-1.059961e+02
5.100000e-07	-4.988089e-06	-1.572921e-09	-3.475662e+01	-1.057828e+02
5.200000e-07	-4.967925e-06	-1.579390e-09	-3.461612e+01	-1.055630e+02
5.300000e-07	-4.947353e-06	-1.598988e-09	-3.447278e+01	-1.053367e+02
5.400000e-07	-4.926423e-06	-1.559292e-09	-3.432694e+01	-1.051037e+02
5.500000e-07	-4.905165e-06	-1.563784e-09	-3.417881e+01	-1.048640e+02
5.600000e-07	-4.883577e-06	-1.580893e-09	-3.402839e+01	-1.046176e+02
5.700000e-07	-4.861656e-06	-1.558797e-09	-3.387565e+01	-1.043643e+02
5.800000e-07	-4.839389e-06	-1.540281e-09	-3.372050e+01	-1.041041e+02
5.900000e-07	-4.816839e-06	-1.564292e-09	-3.356337e+01	-1.038370e+02
6.000000e-07	-4.793904e-06	-1.553675e-09	-3.340356e+01	-1.035630e+02
6.100000e-07	-4.770597e-06	-1.533868e-09	-3.324116e+01	-1.032821e+02
6.200000e-07	-4.747058e-06	-1.545650e-09	-3.307714e+01	-1.029944e+02
6.300000e-07	-4.723321e-06	-1.542971e-09	-3.291174e+01	-1.026998e+02
6.400000e-07	-4.699315e-06	-1.519505e-09	-3.274447e+01	-1.023984e+02
6.500000e-07	-4.675010e-06	-1.518261e-09	-3.257512e+01	-1.020904e+02
6.600000e-07	-4.650259e-06	-1.523276e-09	-3.240265e+01	-1.017756e+02
6.700000e-07	-4.625015e-06	-1.504484e-09	-3.222675e+01	-1.014544e+02
6.800000e-07	-4.599280e-06	-1.504385e-09	-3.204743e+01	-1.011267e+02
6.900000e-07	-4.572962e-06	-1.505406e-09	-3.186405e+01	-1.007926e+02
7.000000e-07	-4.546101e-06	-1.495379e-09	-3.167689e+01	-1.004523e+02
7.100000e-07	-4.518818e-06	-1.480324e-09	-3.148678e+01	-1.001060e+02
7.200000e-07	-4.491308e-06	-1.480233e-09	-3.129509e+01	-9.975363e+01
7.300000e-07	-4.463649e-06	-1.465060e-09	-3.110237e+01	-9.939546e+01
7.400000e-07	-4.435793e-06	-1.458086e-09	-3.090827e+01	-9.903162e+01
7.500000e-07	-4.407726e-06	-1.455613e-09	-3.071270e+01	-9.866223e+01
7.600000e-07	-4.379449e-06	-1.456940e-09	-3.051567e+01	-9.828743e+01
7.700000e-07	-4.350908e-06	-1.445208e-09	-3.031680e+01	-9.790738e+01
7.800000e-07	-4.321942e-06	-1.442330e-09	-3.011496e+01	-9.752221e+01
7.900000e-07	-4.292623e-06	-1.430848e-09	-2.991067e+01	-9.713206e+01
8.000000e-07	-4.263124e-06	-1.419728e-09	-2.970512e+01	-9.673706e+01
8.100000e-07	-4.233322e-06	-1.407452e-09	-2.949747e+01	-9.633732e+01
8.200000e-07	-4.203159e-06	-1.403172e-09	-2.928729e+01	-9.593297e+01
8.300000e-07	-4.172786e-06	-1.390943e-09	-2.907566e+01	-9.552412e+01
8.400000e-07	-4.142234e-06	-1.385631e-09	-2.886277e+01	-9.511086e+01
8.500000e-07	-4.111304e-06	-1.381400e-09	-2.864726e+01	-9.469328e+01
8.600000e-07	-4.080081e-06	-1.377685e-09	-2.842969e+01	-9.427145e+01
8.700000e-07	-4.048680e-06	-1.370241e-09	-2.821089e+01	-9.384543e+01
8.800000e-07	-4.017092e-06	-1.367804e-09	-2.799079e+01	-9.341528e+01
8.900000e-07	-3.985313e-06	-1.361730e-09	-2.776935e+01	-9.298102e+01
9.000000e-07	-3.953298e-06	-1.349899e-09	-2.754628e+01	-9.254268e+01
9.100000e-07	-3.920946e-06	-1.339062e-09	-2.732085e+01	-9.210025e+01
9.200000e-07	-3.888256e-06	-1.329913e-09	-2.709307e+01	-9.165374e+01
9.300000e-07	-3.855261e-06	-1.318083e-09	-2.686317e+01	-9.120312e+01
9.400000e-07	-3.821844e-06	-1.309345e-09	-2.663032e+01	-9.074834e+01
9.500000e-07	-3.787889e-06	-1.308987e-09	-2.639372e+01	-9.028936e+01
9.600000e-07	-3.753474e-06	-1.305177e-09	-2.615392e+01	-8.982611e+01
9.700000e-07	-3.718697e-06	-1.298670e-09	-2.591160e+01	-8.935852e+01
9.800000e-07	-3.683551e-06	-1.288823e-09	-2.566671e+01	-8.888649e+01
9.900000e-07	-3.648152e-06	-1.280733e-09	-2.542004e+01	-8.840992e+01
1.000000e-06	-3.612594e-06	-1.267211e-09	-2.517228e+01	-8.792870e+01
1.010000e-06	-3.576957e-06	-1.260553e-09	-2.492396e+01	-8.744271e+01
1.020000e-06	-3.541196e-06	-1.256076e-09	-2.467478e+01	-8.695183e+01
1.030000e-06	-3.505265e-06	-1.251102e-09	-2.442442e+01	-8.645591e+01
1.040000e-06	-3.469155e-06	-1.242144e-09	-2.417281e+01	-8.595483e+01
1.050000e-06	-3.432716e-06	-1.237418e-09	-2.391890e+01	-8.544843e+01
1.060000e-06	-3.395926e-06	-1.226128e-09	-2.366256e+01	-8.493658e+01
1.070000e-06	-3.358943e-06	-1.216625e-09	-2.340486e+01	-8.441912e+01
1.080000e-06	-3.321738e-06	-1.208186e-09	-2.314562e+01	-8.389591e+01
1.090000e-06	-3.284260e-06	-1.202805e-09	-2.288447e+01	-8.336681e+01
1.100000e-06	-3.246572e-06	-1.191638e-09	-2.262187e+01	-8.283167e+01
1.110000e-06	-3.208688e-06	-1.183739e-09	-2.235789e+01	-8.229036e+01
1.120000e-06	-3.170508e-06	-1.174151e-09	-2.209186e+01	-8.174275e+01
1.130000e-06	-3.132121e-06	-1.160832e-09	-2.182438e+01	-8.118870e+01
1.140000e-06	-3.093630e-06	-1.148372e-09	-2.155618e+01	-8.062810e+01
1.150000e-06	-3.054918e-06	-1.139169e-09	-2.128643e+01	-8.006085e+01
1.160000e-06	-3.015946e-06	-1.129477e-09	-2.101488e+01	-7.948683e+01
1.170000e-06	-2.976790e-06	-1.121076e-09	-2.074205e+01	-7.890595e+01
1.180000e-06	-2.937405e-06	-1.110913e-09	-2.046761e+01	-7.831813e+01
1.190000e-06	-2.897774e-06	-1.104785e-09	-2.019147e+01	-7.772329e+01
1.200000e-06	-2.858114e-06	-1.096282e-09	-1.991512e+01	-7.712137e+01
1.210000e-06	-2.818413e-06	-1.086171e-09	-1.963848e+01	-7.651231e+01
1.220000e-06	-2.778631e-06	-1.073888e-09	-1.936129e+01	-7.589606e+01
1.230000e-06	-2.738618e-06	-1.060202e-09	-1.908248e+01	-7.527258e+01
1.240000e-06	-2.698323e-06	-1.047864e-09	-1.880171e+01	-7.464182e+01
1.250000e-06	-2.657892e-06	-1.037093e-09	-1.851999e+01	-7.400377e+01
1.260000e-06	-2.617316e-06	-1.032359e-09	-1.823726e+01	-7.335840e+01
1.270000e-06	-2.576509e-06	-1.024669e-09	-1.795292e+01	-7.270568e+01
1.280000e-06	-2.535503e-06	-1.019233e-09	-1.766719e+01	-7.204559e+01
1.290000e-06	-2.494160e-06	-1.012271e-09	-1.737912e+01	-7.137812e+01
1.300000e-06	-2.452372e-06	-9.994287e-10	-1.708794e+01	-7.070324e+01
1.310000e-06	-2.410250e-06	-9.814292e-10	-1.679444e+01	-7.002092e+01
1.320000e-06	-2.367804e-06	-9.641293e-10	-1.649868e+01	-6.933113e+01
1.330000e-06	-2.325090e-06	-9.487119e-10	-1.620105e+01	-6.863382e+01
1.340000e-06	-2.282198e-06	-9.391932e-10	-1.590218e+01	-6.792896e+01
1.350000e-06	-2.239166e-06	-9.305819e-10	-1.560234e+01	-6.721646e+01
1.360000e-06	-2.195899e-06	-9.233485e-10	-1.530085e+01	-6.649626e+01
1.370000e-06	-2.152486e-06	-9.131604e-10	-1.499836e+01	-6.576826e+01
1.380000e-06	-2.109005e-06	-9.044758e-10	-1.469538e+01	-6.503234e+01
1.390000e-06	-2.065384e-06	-8.901510e-10	-1.439144e+01	-6.428838e+01
1.400000e-06	-2.021646e-06	-8.725449e-10	-1.408668e+01	-6.353621e+01
1.410000e-06	-1.977843e-06	-8.533905e-10	-1.378146e+01	-6.277565e+01
1.420000e-06	-1.933960e-06	-8.385022e-10	-1.347569e+01	-6.200651e+01
1.430000e-06	-1.890042e-06	-8.261934e-10	-1.316967e+01	-6.122854e+01
1.440000e-06	-1.846069e-06	-8.165092e-10	-1.286327e+01	-6.044148e+01
1.450000e-06	-1.801988e-06	-8.111435e-10	-1.255612e+01	-5.964505e+01
1.460000e-06	-1.757769e-06	-8.038681e-10	-1.224800e+01	-5.883893e+01
1.470000e-06	-1.713369e-06	-7.909340e-10	-1.193863e+01	-5.802276e+01
1.480000e-06	-1.668882e-06	-7.756210e-10	-1.162864e+01	-5.719618e+01
1.490000e-06	-1.624277e-06	-7.599061e-10	-1.131784e+01	-5.635877e+01
1.500000e-06	-1.579540e-06	-7.450111e-10	-1.100611e+01	-5.551010e+01
1.510000e-06	-1.534645e-06	-7.327306e-10	-1.069329e+01	-5.464970e+01
1.520000e-06	-1.489557e-06	-7.206733e-10	-1.037912e+01	-5.377709e+01
1.530000e-06	-1.444337e-06	-7.095162e-10	-1.006403e+01	-5.289175e+01
1.540000e-06	-1.399049e-06	-7.010451e-10	-9.748465e+00	-5.199313e+01
1.550000e-06	-1.353691e-06	-6.911252e-10	-9.432418e+00	-5.108070e+01
1.560000e-06	-1.308239e-06	-6.785323e-10	-9.115710e+00	-5.015386e+01
1.570000e-06	-1.262768e-06	-6.638232e-10	-8.798871e+00	-4.921202e+01
1.580000e-06	-1.217256e-06	-6.461633e-10	-8.481745e+00	-4.825459e+01
1.590000e-06	-1.171608e-06	-6.269605e-10	-8.163673e+00	-4.728096e+01
1.600000e-06	-1.125831e-06	-6.103284e-10	-7.844707e+00	-4.629051e+01
1.610000e-06	-1.080068e-06	-5.971795e-10	-7.525834e+00	-4.528262e+01
1.620000e-06	-1.034297e-06	-5.806189e-10	-7.206902e+00	-4.425668e+01
1.630000e-06	-9.883720e-07	-5.645341e-10	-6.886901e+00	-4.321210e+01
1.640000e-06	-9.422935e-07	-5.486435e-10	-6.565829e+00	-4.214829e+01
1.650000e-06	-8.961891e-07	-5.321694e-10	-6.244577e+00	-4.106467e+01
1.660000e-06	-8.500039e-07	-5.148348e-10	-5.922762e+00	-3.996069e+01
1.670000e-06	-8.037857e-07	-4.996696e-10	-5.600717e+00	-3.883584e+01
1.680000e-06	-7.576358e-07	-4.848924e-10	-5.279149e+00	-3.768963e+01
1.690000e-06	-7.114438e-07	-4.689096e-10	-4.957286e+00	-3.652161e+01
1.700000e-06	-6.652178e-07	-4.500998e-10	-4.635187e+00	-3.533138e+01
1.710000e-06	-6.188338e-07	-4.308093e-10	-4.311987e+00	-3.411856e+01
1.720000e-06	-5.723869e-07	-4.102324e-10	-3.988348e+00	-3.288285e+01
1.730000e-06	-5.259484e-07	-3.884174e-10	-3.664768e+00	-3.162401e+01
1.740000e-06	-4.793634e-07	-3.666899e-10	-3.340167e+00	-3.034183e+01
1.750000e-06	-4.327073e-07	-3.467851e-10	-3.015071e+00	-2.903620e+01
1.760000e-06	-3.860266e-07	-3.281657e-10	-2.689804e+00	-2.770704e+01
1.770000e-06	-3.393551e-07	-3.114626e-10	-2.364601e+00	-2.635437e+01
1.780000e-06	-2.926486e-07	-2.950039e-10	-2.039153e+00	-2.497827e+01
1.790000e-06	-2.458819e-07	-2.772473e-10	-1.713287e+00	-2.357890e+01
1.800000e-06	-1.991548e-07	-2.575414e-10	-1.387695e+00	-2.215651e+01
1.810000e-06	-1.525337e-07	-2.352757e-10	-1.062843e+00	-2.071141e+01
1.820000e-06	-1.059211e-07	-2.108121e-10	-7.380498e-01	-1.924399e+01
1.830000e-06	-5.920089e-08	-1.870331e-10	-4.125073e-01	-1.775475e+01
1.840000e-06	-1.247442e-08	-1.656399e-10	-8.692084e-02	-1.624425e+01
1.850000e-06	3.421106e-08	-1.459683e-10	2.383800e-01	-1.471313e+01
1.860000e-06	8.095630e-08	-1.287709e-10	5.640973e-01	-1.316211e+01
1.870000e-06	1.276703e-07	-1.083290e-10	8.895972e-01	-1.159202e+01
1.880000e-06	1.743370e-07	-8.568261e-11	1.214767e+00	-1.000372e+01
1.890000e-06	2.209286e-07	-6.207035e-11	1.539414e+00	-8.398187e+00
1.900000e-06	2.674634e-07	-3.796884e-11	1.863665e+00	-6.776444e+00
1.910000e-06	3.140420e-07	-1.562147e-11	2.188221e+00	-5.139596e+00
1.920000e-06	3.606105e-07	7.666034e-12	2.512707e+00	-3.488810e+00
1.930000e-06	4.072129e-07	3.383657e-11	2.837429e+00	-1.825314e+00
1.940000e-06	4.538059e-07	5.829479e-11	3.162085e+00	-1.503949e-01
1.950000e-06	5.003023e-07	8.020972e-11	3.486068e+00	1.534612e+00
1.960000e-06	5.467574e-07	1.014142e-10	3.809764e+00	3.228322e+00
1.970000e-06	5.931248e-07	1.230504e-10	4.132849e+00	4.929312e+00
1.980000e-06	6.394206e-07	1.448579e-10	4.455434e+00	6.636123e+00
1.990000e-06	6.856567e-07	1.685623e-10	4.777604e+00	8.347267e+00
2.000000e-06	7.318970e-07	1.938324e-10	5.099802e+00	1.006124e+01
2.010000e-06	7.780970e-07	2.203394e-10	5.421720e+00	1.177650e+01
2.020000e-06	8.242485e-07	2.456179e-10	5.743300e+00	1.349154e+01
2.030000e-06	8.704028e-07	2.722877e-10	6.064900e+00	1.520480e+01
2.040000e-06	9.164319e-07	2.997934e-10	6.385627e+00	1.691476e+01
2.050000e-06	9.624107e-07	3.231340e-10	6.706004e+00	1.861989e+01
2.060000e-06	1.008322e-06	3.444463e-10	7.025911e+00	2.031870e+01
2.070000e-06	1.054161e-06	3.652381e-10	7.345314e+00	2.200970e+01
2.080000e-06	1.099942e-06	3.874100e-10	7.664311e+00	2.369145e+01
2.090000e-06	1.145627e-06	4.099414e-10	7.982643e+00	2.536253e+01
2.100000e-06	1.191233e-06	4.330218e-10	8.300418e+00	2.702158e+01
2.110000e-06	1.236746e-06	4.579956e-10	8.617550e+00	2.866727e+01
2.120000e-06	1.282196e-06	4.828713e-10	8.934247e+00	3.029833e+01
2.130000e-06	1.327514e-06	5.052926e-10	9.250016e+00	3.191355e+01
2.140000e-06	1.372671e-06	5.254123e-10	9.564667e+00	3.351179e+01
2.150000e-06	1.417852e-06	5.444140e-10	9.879484e+00	3.509196e+01
2.160000e-06	1.462978e-06	5.626691e-10	1.019392e+01	3.665305e+01
2.170000e-06	1.507918e-06	5.820135e-10	1.050706e+01	3.819412e+01
2.180000e-06	1.552756e-06	6.031613e-10	1.081949e+01	3.971431e+01
2.190000e-06	1.597433e-06	6.254745e-10	1.113079e+01	4.121283e+01
2.200000e-06	1.642003e-06	6.488471e-10	1.144135e+01	4.268898e+01
2.210000e-06	1.686464e-06	6.708087e-10	1.175115e+01	4.414213e+01
2.220000e-06	1.730796e-06	6.903500e-10	1.206006e+01	4.557174e+01
2.230000e-06	1.775011e-06	7.073086e-10	1.236814e+01	4.697736e+01
2.240000e-06	1.819074e-06	7.247038e-10	1.267517e+01	4.835859e+01
2.250000e-06	1.863007e-06	7.431653e-10	1.298129e+01	4.971513e+01
2.260000e-06	1.906822e-06	7.620020e-10	1.328659e+01	5.104678e+01
2.270000e-06	1.950585e-06	7.804590e-10	1.359153e+01	5.235338e+01
2.280000e-06	1.994293e-06	7.969845e-10	1.389608e+01	5.363486e+01
2.290000e-06	2.037954e-06	8.117546e-10	1.420031e+01	5.489123e+01
2.300000e-06	2.081584e-06	8.260555e-10	1.450432e+01	5.612257e+01
2.310000e-06	2.125169e-06	8.396517e-10	1.480801e+01	5.732901e+01
2.320000e-06	2.168658e-06	8.566220e-10	1.511104e+01	5.851076e+01
2.330000e-06	2.212109e-06	8.761101e-10	1.541381e+01	5.966807e+01
2.340000e-06	2.255419e-06	8.954984e-10	1.571559e+01	6.080127e+01
2.350000e-06	2.298542e-06	9.135810e-10	1.601607e+01	6.191072e+01
2.360000e-06	2.341397e-06	9.276197e-10	1.631468e+01	6.299683e+01
2.370000e-06	2.383993e-06	9.385831e-10	1.661148e+01	6.406005e+01
2.380000e-06	2.426253e-06	9.485647e-10	1.690594e+01	6.510088e+01
2.390000e-06	2.467970e-06	9.610638e-10	1.719663e+01	6.611984e+01
2.400000e-06	2.509468e-06	9.745850e-10	1.748578e+01	6.711747e+01
2.410000e-06	2.550758e-06	9.905452e-10	1.777349e+01	6.809434e+01
2.420000e-06	2.591791e-06	1.007677e-09	1.805940e+01	6.905105e+01
2.430000e-06	2.632572e-06	1.023062e-09	1.834356e+01	6.998818e+01
2.440000e-06	2.673028e-06	1.035545e-09	1.862546e+01	7.090635e+01
2.450000e-06	2.713221e-06	1.044976e-09	1.890552e+01	7.180617e+01
2.460000e-06	2.753252e-06	1.054475e-09	1.918445e+01	7.268825e+01
2.470000e-06	2.793211e-06	1.066609e-09	1.946288e+01	7.355318e+01
2.480000e-06	2.832984e-06	1.081402e-09	1.974001e+01	7.440158e+01
2.490000e-06	2.872660e-06	1.094685e-09	2.001648e+01	7.523403e+01
2.500000e-06	2.912289e-06	1.106457e-09	2.029261e+01	7.605108e+01
2.510000e-06	2.951721e-06	1.118701e-09	2.056737e+01	7.685331e+01
2.520000e-06	2.990976e-06	1.130681e-09	2.084089e+01	7.764123e+01
2.530000e-06	3.030000e-06	1.143093e-09	2.111281e+01	7.841537e+01
2.540000e-06	3.068696e-06	1.157028e-09	2.138244e+01	7.917619e+01
2.550000e-06	3.107141e-06	1.169502e-09	2.165032e+01	7.992416e+01
2.560000e-06	3.145402e-06	1.178022e-09	2.191692e+01	8.065971e+01
2.570000e-06	3.183472e-06	1.185390e-09	2.218219e+01	8.138324e+01
2.580000e-06	3.221382e-06	1.194809e-09	2.244634e+01	8.209511e+01
2.590000e-06	3.259142e-06	1.205936e-09	2.270945e+01	8.279568e+01
2.600000e-06	3.296754e-06	1.217936e-09	2.297153e+01	8.348525e+01
2.610000e-06	3.334173e-06	1.230631e-09	2.323226e+01	8.416410e+01
2.620000e-06	3.371255e-06	1.242714e-09	2.349065e+01	8.483249e+01
2.630000e-06	3.408004e-06	1.254803e-09	2.374671e+01	8.549063e+01
2.640000e-06	3.444475e-06	1.263740e-09	2.400084e+01	8.613873e+01
2.650000e-06	3.480632e-06	1.271399e-09	2.425278e+01	8.677695e+01
2.660000e-06	3.516600e-06	1.280105e-09	2.450340e+01	8.740544e+01
2.670000e-06	3.552465e-06	1.288565e-09	2.475331e+01	8.802431e+01
2.680000e-06	3.588218e-06	1.297320e-09	2.500243e+01	8.863367e+01
2.690000e-06	3.623868e-06	1.303736e-09	2.525083e+01	8.923359e+01
2.700000e-06	3.659354e-06	1.308235e-09	2.549810e+01	8.982415e+01
2.710000e-06	3.694665e-06	1.314938e-09	2.574414e+01	9.040537e+01
2.720000e-06	3.729836e-06	1.324715e-09	2.598921e+01	9.097729e+01
2.730000e-06	3.764687e-06	1.335302e-09	2.623205e+01	9.153994e+01
2.740000e-06	3.799014e-06	1.345070e-09	2.647124e+01	9.209332e+01
2.750000e-06	3.832782e-06	1.351934e-09	2.670653e+01	9.263742e+01
2.760000e-06	3.866106e-06	1.357428e-09	2.693873e+01	9.317226e+01
2.770000e-06	3.899038e-06	1.359815e-09	2.716820e+01	9.369782e+01
2.780000e-06	3.931490e-06	1.359846e-09	2.739432e+01	9.421408e+01
2.790000e-06	3.963607e-06	1.364131e-09	2.761811e+01	9.472105e+01
2.800000e-06	3.995529e-06	1.371102e-09	2.784054e+01	9.521872e+01
2.810000e-06	4.027266e-06	1.378012e-09	2.806168e+01	9.570707e+01
2.820000e-06	4.058830e-06	1.386244e-09	2.828162e+01	9.618611e+01
2.830000e-06	4.090226e-06	1.395261e-09	2.850039e+01	9.665585e+01
2.840000e-06	4.121384e-06	1.402974e-09	2.871749e+01	9.711630e+01
2.850000e-06	4.152258e-06	1.406681e-09	2.893262e+01	9.756748e+01
2.860000e-06	4.182862e-06	1.409258e-09	2.914586e+01	9.800942e+01
2.870000e-06	4.213128e-06	1.412684e-09	2.935676e+01	9.844217e+01
2.880000e-06	4.243092e-06	1.417159e-09	2.956554e+01	9.886578e+01
2.890000e-06	4.272795e-06	1.420807e-09	2.977251e+01	9.928030e+01
2.900000e-06	4.302208e-06	1.426464e-09	2.997746e+01	9.968581e+01
