# Temperatura_=_14.3
# Concentracion g/m^3_=_1620.0
# C_Vs_to_Am_M_A/Vsm_=_65563218390.804596
# pendiente_HvsI_1/m_=_3716.3
# ordenada_HvsI_A/m_=_1297.0
# frecuencia_Hz_=_135105.946537769

Tiempo_(s)	Campo_(V.s)	Magnetizacion_(V.s)	Campo_(kA/m)	Magnetizacion_(A/m)
0.000000e+00	-5.514600e-06	-1.176561e-09	-3.837264e+01	-7.506373e+01
1.000000e-08	-5.514683e-06	-1.176139e-09	-3.837322e+01	-7.500854e+01
2.000000e-08	-5.514545e-06	-1.176063e-09	-3.837227e+01	-7.495011e+01
3.000000e-08	-5.514014e-06	-1.175970e-09	-3.836857e+01	-7.488853e+01
4.000000e-08	-5.512887e-06	-1.174919e-09	-3.836073e+01	-7.482385e+01
5.000000e-08	-5.511189e-06	-1.173764e-09	-3.834891e+01	-7.475615e+01
6.000000e-08	-5.508976e-06	-1.176423e-09	-3.833351e+01	-7.468552e+01
7.000000e-08	-5.506186e-06	-1.184263e-09	-3.831410e+01	-7.461205e+01
8.000000e-08	-5.502818e-06	-1.174088e-09	-3.829066e+01	-7.453582e+01
9.000000e-08	-5.498988e-06	-1.157635e-09	-3.826401e+01	-7.445696e+01
1.000000e-07	-5.494798e-06	-1.177446e-09	-3.823486e+01	-7.437555e+01
1.100000e-07	-5.490314e-06	-1.185711e-09	-3.820366e+01	-7.429173e+01
1.200000e-07	-5.485637e-06	-1.176318e-09	-3.817111e+01	-7.420561e+01
1.300000e-07	-5.480723e-06	-1.134597e-09	-3.813692e+01	-7.411730e+01
1.400000e-07	-5.475481e-06	-1.137347e-09	-3.810044e+01	-7.402695e+01
1.500000e-07	-5.469858e-06	-1.187911e-09	-3.806131e+01	-7.393466e+01
1.600000e-07	-5.463777e-06	-1.186310e-09	-3.801900e+01	-7.384056e+01
1.700000e-07	-5.457322e-06	-1.166460e-09	-3.797409e+01	-7.374479e+01
1.800000e-07	-5.450445e-06	-1.104557e-09	-3.792623e+01	-7.364746e+01
1.900000e-07	-5.443146e-06	-1.121780e-09	-3.787544e+01	-7.354869e+01
2.000000e-07	-5.435552e-06	-1.109461e-09	-3.782260e+01	-7.344860e+01
2.100000e-07	-5.427719e-06	-1.124529e-09	-3.776810e+01	-7.334728e+01
2.200000e-07	-5.419552e-06	-1.096807e-09	-3.771127e+01	-7.324485e+01
2.300000e-07	-5.411001e-06	-1.106545e-09	-3.765177e+01	-7.314139e+01
2.400000e-07	-5.401997e-06	-1.090484e-09	-3.758911e+01	-7.303698e+01
2.500000e-07	-5.392383e-06	-1.080887e-09	-3.752222e+01	-7.293170e+01
2.600000e-07	-5.382104e-06	-1.062875e-09	-3.745069e+01	-7.282559e+01
2.700000e-07	-5.371273e-06	-1.073656e-09	-3.737532e+01	-7.271870e+01
2.800000e-07	-5.360010e-06	-1.086624e-09	-3.729695e+01	-7.261105e+01
2.900000e-07	-5.348349e-06	-1.085419e-09	-3.721581e+01	-7.250267e+01
3.000000e-07	-5.336266e-06	-1.087508e-09	-3.713173e+01	-7.239355e+01
3.100000e-07	-5.323790e-06	-1.083549e-09	-3.704492e+01	-7.228366e+01
3.200000e-07	-5.310961e-06	-1.100021e-09	-3.695565e+01	-7.217298e+01
3.300000e-07	-5.297714e-06	-1.069963e-09	-3.686347e+01	-7.206145e+01
3.400000e-07	-5.284094e-06	-1.064294e-09	-3.676870e+01	-7.194900e+01
3.500000e-07	-5.270057e-06	-1.058394e-09	-3.667103e+01	-7.183555e+01
3.600000e-07	-5.255599e-06	-1.083000e-09	-3.657042e+01	-7.172098e+01
3.700000e-07	-5.240672e-06	-1.069829e-09	-3.646655e+01	-7.160520e+01
3.800000e-07	-5.225198e-06	-1.090974e-09	-3.635888e+01	-7.148806e+01
3.900000e-07	-5.209242e-06	-1.080865e-09	-3.624785e+01	-7.136941e+01
4.000000e-07	-5.192811e-06	-1.066784e-09	-3.613352e+01	-7.124910e+01
4.100000e-07	-5.175970e-06	-1.055537e-09	-3.601633e+01	-7.112695e+01
4.200000e-07	-5.158774e-06	-1.088341e-09	-3.589668e+01	-7.100279e+01
4.300000e-07	-5.141267e-06	-1.066463e-09	-3.577485e+01	-7.087642e+01
4.400000e-07	-5.123504e-06	-1.050593e-09	-3.565126e+01	-7.074765e+01
4.500000e-07	-5.105386e-06	-1.061399e-09	-3.552519e+01	-7.061627e+01
4.600000e-07	-5.086787e-06	-1.072109e-09	-3.539576e+01	-7.048209e+01
4.700000e-07	-5.067792e-06	-1.035240e-09	-3.526359e+01	-7.034488e+01
4.800000e-07	-5.048548e-06	-1.044594e-09	-3.512968e+01	-7.020445e+01
4.900000e-07	-5.029045e-06	-1.060607e-09	-3.499397e+01	-7.006059e+01
5.000000e-07	-5.009266e-06	-1.040921e-09	-3.485634e+01	-6.991309e+01
5.100000e-07	-4.989220e-06	-1.024251e-09	-3.471685e+01	-6.976178e+01
5.200000e-07	-4.968874e-06	-1.051555e-09	-3.457528e+01	-6.960645e+01
5.300000e-07	-4.948183e-06	-1.041483e-09	-3.443130e+01	-6.944695e+01
5.400000e-07	-4.927137e-06	-1.012841e-09	-3.428486e+01	-6.928309e+01
5.500000e-07	-4.905750e-06	-1.023113e-09	-3.413604e+01	-6.911473e+01
5.600000e-07	-4.884084e-06	-1.034671e-09	-3.398528e+01	-6.894175e+01
5.700000e-07	-4.862069e-06	-1.020274e-09	-3.383209e+01	-6.876401e+01
5.800000e-07	-4.839676e-06	-1.021603e-09	-3.367627e+01	-6.858142e+01
5.900000e-07	-4.817028e-06	-1.035926e-09	-3.351868e+01	-6.839389e+01
6.000000e-07	-4.794068e-06	-1.019959e-09	-3.335892e+01	-6.820137e+01
6.100000e-07	-4.770778e-06	-1.010198e-09	-3.319686e+01	-6.800380e+01
6.200000e-07	-4.747198e-06	-1.010790e-09	-3.303278e+01	-6.780117e+01
6.300000e-07	-4.723304e-06	-1.009776e-09	-3.286651e+01	-6.759347e+01
6.400000e-07	-4.699120e-06	-9.987309e-10	-3.269823e+01	-6.738072e+01
6.500000e-07	-4.674515e-06	-1.006115e-09	-3.252702e+01	-6.716296e+01
6.600000e-07	-4.649454e-06	-1.001230e-09	-3.235263e+01	-6.694024e+01
6.700000e-07	-4.623982e-06	-9.966578e-10	-3.217539e+01	-6.671265e+01
6.800000e-07	-4.598037e-06	-9.892255e-10	-3.199486e+01	-6.648027e+01
6.900000e-07	-4.571564e-06	-9.938486e-10	-3.181065e+01	-6.624321e+01
7.000000e-07	-4.544546e-06	-9.861625e-10	-3.162265e+01	-6.600161e+01
7.100000e-07	-4.517158e-06	-9.869043e-10	-3.143207e+01	-6.575560e+01
7.200000e-07	-4.489563e-06	-9.855342e-10	-3.124005e+01	-6.550533e+01
7.300000e-07	-4.461785e-06	-9.877679e-10	-3.104677e+01	-6.525096e+01
7.400000e-07	-4.433844e-06	-9.735405e-10	-3.085234e+01	-6.499266e+01
7.500000e-07	-4.405719e-06	-9.663473e-10	-3.065664e+01	-6.473061e+01
7.600000e-07	-4.377291e-06	-9.613856e-10	-3.045883e+01	-6.446498e+01
7.700000e-07	-4.348574e-06	-9.612330e-10	-3.025901e+01	-6.419596e+01
7.800000e-07	-4.319617e-06	-9.553768e-10	-3.005751e+01	-6.392372e+01
7.900000e-07	-4.290326e-06	-9.566383e-10	-2.985369e+01	-6.364844e+01
8.000000e-07	-4.260628e-06	-9.509367e-10	-2.964704e+01	-6.337030e+01
8.100000e-07	-4.230574e-06	-9.413587e-10	-2.943791e+01	-6.308945e+01
8.200000e-07	-4.200192e-06	-9.308740e-10	-2.922651e+01	-6.280606e+01
8.300000e-07	-4.169539e-06	-9.223757e-10	-2.901321e+01	-6.252026e+01
8.400000e-07	-4.138675e-06	-9.159448e-10	-2.879845e+01	-6.223219e+01
8.500000e-07	-4.107567e-06	-9.144859e-10	-2.858198e+01	-6.194195e+01
8.600000e-07	-4.076276e-06	-9.162768e-10	-2.836425e+01	-6.164966e+01
8.700000e-07	-4.044781e-06	-9.139137e-10	-2.814510e+01	-6.135539e+01
8.800000e-07	-4.013033e-06	-9.137814e-10	-2.792419e+01	-6.105921e+01
8.900000e-07	-3.981110e-06	-9.070757e-10	-2.770205e+01	-6.076115e+01
9.000000e-07	-3.948975e-06	-8.953711e-10	-2.747844e+01	-6.046125e+01
9.100000e-07	-3.916475e-06	-8.831358e-10	-2.725230e+01	-6.015951e+01
9.200000e-07	-3.883530e-06	-8.778217e-10	-2.702305e+01	-5.985590e+01
9.300000e-07	-3.850269e-06	-8.712714e-10	-2.679161e+01	-5.955039e+01
9.400000e-07	-3.816714e-06	-8.704148e-10	-2.655812e+01	-5.924293e+01
9.500000e-07	-3.782613e-06	-8.671924e-10	-2.632083e+01	-5.893344e+01
9.600000e-07	-3.747978e-06	-8.614781e-10	-2.607983e+01	-5.862182e+01
9.700000e-07	-3.712976e-06	-8.469433e-10	-2.583628e+01	-5.830796e+01
9.800000e-07	-3.677688e-06	-8.416106e-10	-2.559073e+01	-5.799173e+01
9.900000e-07	-3.642232e-06	-8.375086e-10	-2.534401e+01	-5.767299e+01
1.000000e-06	-3.606669e-06	-8.357067e-10	-2.509655e+01	-5.735159e+01
1.010000e-06	-3.570970e-06	-8.333557e-10	-2.484814e+01	-5.702737e+01
1.020000e-06	-3.535052e-06	-8.330096e-10	-2.459821e+01	-5.670014e+01
1.030000e-06	-3.498969e-06	-8.239198e-10	-2.434714e+01	-5.636973e+01
1.040000e-06	-3.462709e-06	-8.154121e-10	-2.409483e+01	-5.603596e+01
1.050000e-06	-3.426188e-06	-8.083185e-10	-2.384070e+01	-5.569864e+01
1.060000e-06	-3.389439e-06	-8.017361e-10	-2.358498e+01	-5.535758e+01
1.070000e-06	-3.352434e-06	-7.939405e-10	-2.332749e+01	-5.501262e+01
1.080000e-06	-3.315134e-06	-7.922206e-10	-2.306794e+01	-5.466356e+01
1.090000e-06	-3.277574e-06	-7.889589e-10	-2.280658e+01	-5.431024e+01
1.100000e-06	-3.239784e-06	-7.833945e-10	-2.254363e+01	-5.395250e+01
1.110000e-06	-3.201790e-06	-7.753515e-10	-2.227925e+01	-5.359019e+01
1.120000e-06	-3.163614e-06	-7.666446e-10	-2.201361e+01	-5.322318e+01
1.130000e-06	-3.125177e-06	-7.566877e-10	-2.174615e+01	-5.285135e+01
1.140000e-06	-3.086515e-06	-7.507880e-10	-2.147712e+01	-5.247458e+01
1.150000e-06	-3.047718e-06	-7.484067e-10	-2.120716e+01	-5.209280e+01
1.160000e-06	-3.008673e-06	-7.428454e-10	-2.093547e+01	-5.170594e+01
1.170000e-06	-2.969396e-06	-7.375244e-10	-2.066216e+01	-5.131394e+01
1.180000e-06	-2.929969e-06	-7.339162e-10	-2.038782e+01	-5.091676e+01
1.190000e-06	-2.890355e-06	-7.299386e-10	-2.011217e+01	-5.051441e+01
1.200000e-06	-2.850589e-06	-7.214262e-10	-1.983546e+01	-5.010687e+01
1.210000e-06	-2.810716e-06	-7.143141e-10	-1.955801e+01	-4.969417e+01
1.220000e-06	-2.770691e-06	-7.067820e-10	-1.927950e+01	-4.927635e+01
1.230000e-06	-2.730552e-06	-6.986483e-10	-1.900020e+01	-4.885346e+01
1.240000e-06	-2.690270e-06	-6.886380e-10	-1.871990e+01	-4.842557e+01
1.250000e-06	-2.649746e-06	-6.819110e-10	-1.843792e+01	-4.799275e+01
1.260000e-06	-2.608923e-06	-6.748550e-10	-1.815386e+01	-4.755509e+01
1.270000e-06	-2.567856e-06	-6.708007e-10	-1.786810e+01	-4.711267e+01
1.280000e-06	-2.526565e-06	-6.641904e-10	-1.758078e+01	-4.666560e+01
1.290000e-06	-2.484968e-06	-6.596601e-10	-1.729134e+01	-4.621397e+01
1.300000e-06	-2.443112e-06	-6.528311e-10	-1.700008e+01	-4.575788e+01
1.310000e-06	-2.400955e-06	-6.444433e-10	-1.670674e+01	-4.529741e+01
1.320000e-06	-2.358528e-06	-6.330095e-10	-1.641152e+01	-4.483264e+01
1.330000e-06	-2.315845e-06	-6.220698e-10	-1.611451e+01	-4.436364e+01
1.340000e-06	-2.272946e-06	-6.123959e-10	-1.581601e+01	-4.389045e+01
1.350000e-06	-2.229894e-06	-6.056068e-10	-1.551644e+01	-4.341312e+01
1.360000e-06	-2.186606e-06	-6.004883e-10	-1.521522e+01	-4.293164e+01
1.370000e-06	-2.143115e-06	-5.963238e-10	-1.491260e+01	-4.244600e+01
1.380000e-06	-2.099514e-06	-5.881073e-10	-1.460920e+01	-4.195615e+01
1.390000e-06	-2.055889e-06	-5.757062e-10	-1.430564e+01	-4.146201e+01
1.400000e-06	-2.012175e-06	-5.627001e-10	-1.400146e+01	-4.096347e+01
1.410000e-06	-1.968297e-06	-5.522305e-10	-1.369615e+01	-4.046037e+01
1.420000e-06	-1.924353e-06	-5.439273e-10	-1.339037e+01	-3.995252e+01
1.430000e-06	-1.880375e-06	-5.364346e-10	-1.308435e+01	-3.943969e+01
1.440000e-06	-1.836311e-06	-5.297533e-10	-1.277774e+01	-3.892161e+01
1.450000e-06	-1.792124e-06	-5.230258e-10	-1.247027e+01	-3.839795e+01
1.460000e-06	-1.747783e-06	-5.146860e-10	-1.216173e+01	-3.786836e+01
1.470000e-06	-1.703224e-06	-5.043134e-10	-1.185167e+01	-3.733242e+01
1.480000e-06	-1.658514e-06	-4.965069e-10	-1.154056e+01	-3.678969e+01
1.490000e-06	-1.613723e-06	-4.886577e-10	-1.122889e+01	-3.623968e+01
1.500000e-06	-1.568841e-06	-4.830945e-10	-1.091658e+01	-3.568185e+01
1.510000e-06	-1.523851e-06	-4.778532e-10	-1.060352e+01	-3.511562e+01
1.520000e-06	-1.478699e-06	-4.701807e-10	-1.028934e+01	-3.454039e+01
1.530000e-06	-1.433439e-06	-4.580616e-10	-9.974404e+00	-3.395552e+01
1.540000e-06	-1.388149e-06	-4.438704e-10	-9.659262e+00	-3.336033e+01
1.550000e-06	-1.342812e-06	-4.303018e-10	-9.343787e+00	-3.275413e+01
1.560000e-06	-1.297353e-06	-4.195728e-10	-9.027466e+00	-3.213618e+01
1.570000e-06	-1.251731e-06	-4.113980e-10	-8.710011e+00	-3.150576e+01
1.580000e-06	-1.205986e-06	-4.042287e-10	-8.391704e+00	-3.086210e+01
1.590000e-06	-1.160186e-06	-3.949600e-10	-8.073004e+00	-3.020445e+01
1.600000e-06	-1.114353e-06	-3.851115e-10	-7.754086e+00	-2.953206e+01
1.610000e-06	-1.068497e-06	-3.716306e-10	-7.435000e+00	-2.884417e+01
1.620000e-06	-1.022510e-06	-3.558670e-10	-7.115009e+00	-2.814003e+01
1.630000e-06	-9.764038e-07	-3.402758e-10	-6.794183e+00	-2.741892e+01
1.640000e-06	-9.302648e-07	-3.263655e-10	-6.473130e+00	-2.668014e+01
1.650000e-06	-8.840353e-07	-3.132098e-10	-6.151448e+00	-2.592303e+01
1.660000e-06	-8.377818e-07	-3.012612e-10	-5.829599e+00	-2.514694e+01
1.670000e-06	-7.914911e-07	-2.918828e-10	-5.507490e+00	-2.435129e+01
1.680000e-06	-7.451529e-07	-2.829114e-10	-5.185053e+00	-2.353553e+01
1.690000e-06	-6.987462e-07	-2.702952e-10	-4.862137e+00	-2.269920e+01
1.700000e-06	-6.522943e-07	-2.559624e-10	-4.538907e+00	-2.184185e+01
1.710000e-06	-6.058876e-07	-2.424987e-10	-4.215992e+00	-2.096315e+01
1.720000e-06	-5.594281e-07	-2.282238e-10	-3.892710e+00	-2.006281e+01
1.730000e-06	-5.128831e-07	-2.117018e-10	-3.568832e+00	-1.914062e+01
1.740000e-06	-4.663231e-07	-1.951388e-10	-3.244850e+00	-1.819647e+01
1.750000e-06	-4.196808e-07	-1.806728e-10	-2.920296e+00	-1.723031e+01
1.760000e-06	-3.729252e-07	-1.667874e-10	-2.594953e+00	-1.624220e+01
1.770000e-06	-3.261755e-07	-1.539294e-10	-2.269651e+00	-1.523228e+01
1.780000e-06	-2.794812e-07	-1.406358e-10	-1.944734e+00	-1.420079e+01
1.790000e-06	-2.326936e-07	-1.274783e-10	-1.619169e+00	-1.314805e+01
1.800000e-06	-1.857820e-07	-1.132175e-10	-1.292740e+00	-1.207449e+01
1.810000e-06	-1.389799e-07	-9.729455e-11	-9.670740e-01	-1.098064e+01
1.820000e-06	-9.227240e-08	-8.056690e-11	-6.420658e-01	-9.867106e+00
1.830000e-06	-4.550054e-08	-6.309222e-11	-3.166098e-01	-8.734601e+00
1.840000e-06	1.339471e-09	-4.620104e-11	9.320541e-03	-7.583925e+00
1.850000e-06	4.812511e-08	-2.965614e-11	3.348725e-01	-6.415968e+00
1.860000e-06	9.492568e-08	-1.310330e-11	6.605283e-01	-5.231702e+00
1.870000e-06	1.417227e-07	4.607310e-12	9.861595e-01	-4.032185e+00
1.880000e-06	1.884558e-07	2.034677e-11	1.311346e+00	-2.818548e+00
1.890000e-06	2.352113e-07	3.488513e-11	1.636688e+00	-1.591994e+00
1.900000e-06	2.818934e-07	4.979626e-11	1.961519e+00	-3.537920e-01
1.910000e-06	3.285464e-07	6.479583e-11	2.286149e+00	8.947289e-01
1.920000e-06	3.752447e-07	8.294228e-11	2.611093e+00	2.152188e+00
1.930000e-06	4.219133e-07	1.039764e-10	2.935831e+00	3.417158e+00
1.940000e-06	4.684746e-07	1.233989e-10	3.259821e+00	4.688175e+00
1.950000e-06	5.149984e-07	1.404372e-10	3.583551e+00	5.963742e+00
1.960000e-06	5.615072e-07	1.568198e-10	3.907177e+00	7.242342e+00
1.970000e-06	6.079002e-07	1.723583e-10	4.229997e+00	8.522442e+00
1.980000e-06	6.543052e-07	1.889998e-10	4.552900e+00	9.802502e+00
1.990000e-06	7.006709e-07	2.049197e-10	4.875530e+00	1.108099e+01
2.000000e-06	7.469443e-07	2.227090e-10	5.197517e+00	1.235637e+01
2.010000e-06	7.932286e-07	2.393171e-10	5.519581e+00	1.362713e+01
2.020000e-06	8.394767e-07	2.560529e-10	5.841392e+00	1.489180e+01
2.030000e-06	8.857068e-07	2.765895e-10	6.163079e+00	1.614892e+01
2.040000e-06	9.319010e-07	2.969501e-10	6.484516e+00	1.739708e+01
2.050000e-06	9.779968e-07	3.154333e-10	6.805267e+00	1.863492e+01
2.060000e-06	1.023965e-06	3.332430e-10	7.125132e+00	1.986114e+01
2.070000e-06	1.069822e-06	3.507824e-10	7.444219e+00	2.107448e+01
2.080000e-06	1.115643e-06	3.680901e-10	7.763058e+00	2.227377e+01
2.090000e-06	1.161425e-06	3.878121e-10	8.081630e+00	2.345789e+01
2.100000e-06	1.207163e-06	4.056703e-10	8.399890e+00	2.462582e+01
2.110000e-06	1.252829e-06	4.198641e-10	8.717652e+00	2.577659e+01
2.120000e-06	1.298315e-06	4.318084e-10	9.034163e+00	2.690934e+01
2.130000e-06	1.343682e-06	4.464588e-10	9.349841e+00	2.802328e+01
2.140000e-06	1.389018e-06	4.633599e-10	9.665307e+00	2.911772e+01
2.150000e-06	1.434235e-06	4.780544e-10	9.979944e+00	3.019205e+01
2.160000e-06	1.479276e-06	4.934248e-10	1.029335e+01	3.124574e+01
2.170000e-06	1.524190e-06	5.075199e-10	1.060588e+01	3.227838e+01
2.180000e-06	1.569066e-06	5.207087e-10	1.091815e+01	3.328962e+01
2.190000e-06	1.613919e-06	5.331219e-10	1.123025e+01	3.427921e+01
2.200000e-06	1.658565e-06	5.455882e-10	1.154092e+01	3.524699e+01
2.210000e-06	1.702973e-06	5.566570e-10	1.184992e+01	3.619287e+01
2.220000e-06	1.747267e-06	5.657831e-10	1.215814e+01	3.711687e+01
2.230000e-06	1.791481e-06	5.765374e-10	1.246580e+01	3.801905e+01
2.240000e-06	1.835636e-06	5.903257e-10	1.277304e+01	3.889957e+01
2.250000e-06	1.879687e-06	6.058755e-10	1.307957e+01	3.975865e+01
2.260000e-06	1.923664e-06	6.211145e-10	1.338557e+01	4.059657e+01
2.270000e-06	1.967586e-06	6.326027e-10	1.369120e+01	4.141369e+01
2.280000e-06	2.011375e-06	6.413217e-10	1.399590e+01	4.221039e+01
2.290000e-06	2.055075e-06	6.476575e-10	1.429998e+01	4.298713e+01
2.300000e-06	2.098719e-06	6.520718e-10	1.460367e+01	4.374440e+01
2.310000e-06	2.142258e-06	6.603833e-10	1.490663e+01	4.448272e+01
2.320000e-06	2.185680e-06	6.757359e-10	1.520878e+01	4.520266e+01
2.330000e-06	2.229006e-06	6.937144e-10	1.551026e+01	4.590480e+01
2.340000e-06	2.272259e-06	7.077550e-10	1.581123e+01	4.658974e+01
2.350000e-06	2.315334e-06	7.161411e-10	1.611096e+01	4.725810e+01
2.360000e-06	2.358159e-06	7.210069e-10	1.640895e+01	4.791051e+01
2.370000e-06	2.400667e-06	7.244284e-10	1.670474e+01	4.854759e+01
2.380000e-06	2.442816e-06	7.296421e-10	1.699803e+01	4.916998e+01
2.390000e-06	2.484703e-06	7.372065e-10	1.728949e+01	4.977828e+01
2.400000e-06	2.526269e-06	7.470495e-10	1.757873e+01	5.037311e+01
2.410000e-06	2.567534e-06	7.595621e-10	1.786586e+01	5.095506e+01
2.420000e-06	2.608533e-06	7.708198e-10	1.815115e+01	5.152469e+01
2.430000e-06	2.649229e-06	7.805300e-10	1.843432e+01	5.208256e+01
2.440000e-06	2.689707e-06	7.879911e-10	1.871599e+01	5.262919e+01
2.450000e-06	2.729970e-06	7.926081e-10	1.899615e+01	5.316507e+01
2.460000e-06	2.770038e-06	7.968863e-10	1.927496e+01	5.369067e+01
2.470000e-06	2.809984e-06	8.038059e-10	1.955292e+01	5.420640e+01
2.480000e-06	2.849791e-06	8.124758e-10	1.982991e+01	5.471267e+01
2.490000e-06	2.889481e-06	8.213737e-10	2.010609e+01	5.520984e+01
2.500000e-06	2.929042e-06	8.302233e-10	2.038137e+01	5.569822e+01
2.510000e-06	2.968498e-06	8.407821e-10	2.065592e+01	5.617812e+01
2.520000e-06	3.007786e-06	8.508830e-10	2.092930e+01	5.664978e+01
2.530000e-06	3.046781e-06	8.595388e-10	2.120064e+01	5.711343e+01
2.540000e-06	3.085595e-06	8.669052e-10	2.147072e+01	5.756925e+01
2.550000e-06	3.124198e-06	8.707131e-10	2.173934e+01	5.801740e+01
2.560000e-06	3.162512e-06	8.729549e-10	2.200594e+01	5.845801e+01
2.570000e-06	3.200603e-06	8.781490e-10	2.227099e+01	5.889118e+01
2.580000e-06	3.238504e-06	8.851037e-10	2.253472e+01	5.931698e+01
2.590000e-06	3.276220e-06	8.909322e-10	2.279716e+01	5.973546e+01
2.600000e-06	3.313770e-06	8.947466e-10	2.305845e+01	6.014665e+01
2.610000e-06	3.351158e-06	8.984171e-10	2.331861e+01	6.055057e+01
2.620000e-06	3.388257e-06	9.029787e-10	2.357676e+01	6.094722e+01
2.630000e-06	3.424999e-06	9.081640e-10	2.383242e+01	6.133657e+01
2.640000e-06	3.461449e-06	9.138192e-10	2.408605e+01	6.171862e+01
2.650000e-06	3.497617e-06	9.203295e-10	2.433773e+01	6.209333e+01
2.660000e-06	3.533572e-06	9.284556e-10	2.458791e+01	6.246066e+01
2.670000e-06	3.569397e-06	9.364585e-10	2.483720e+01	6.282059e+01
2.680000e-06	3.605065e-06	9.415791e-10	2.508539e+01	6.317308e+01
2.690000e-06	3.640639e-06	9.415642e-10	2.533293e+01	6.351811e+01
2.700000e-06	3.676112e-06	9.408903e-10	2.557976e+01	6.385566e+01
2.710000e-06	3.711319e-06	9.436039e-10	2.582475e+01	6.418570e+01
2.720000e-06	3.746186e-06	9.488527e-10	2.606736e+01	6.450825e+01
2.730000e-06	3.780740e-06	9.550077e-10	2.630780e+01	6.482331e+01
2.740000e-06	3.814941e-06	9.615814e-10	2.654578e+01	6.513090e+01
2.750000e-06	3.848650e-06	9.663123e-10	2.678034e+01	6.543106e+01
2.760000e-06	3.881858e-06	9.680634e-10	2.701142e+01	6.572384e+01
2.770000e-06	3.914620e-06	9.689820e-10	2.723939e+01	6.600931e+01
2.780000e-06	3.946990e-06	9.712986e-10	2.746463e+01	6.628755e+01
2.790000e-06	3.979099e-06	9.731303e-10	2.768806e+01	6.655866e+01
2.800000e-06	4.011041e-06	9.753622e-10	2.791032e+01	6.682276e+01
2.810000e-06	4.042845e-06	9.793225e-10	2.813163e+01	6.707997e+01
2.820000e-06	4.074448e-06	9.820524e-10	2.835153e+01	6.733044e+01
2.830000e-06	4.105794e-06	9.843293e-10	2.856965e+01	6.757433e+01
2.840000e-06	4.136918e-06	9.878049e-10	2.878622e+01	6.781181e+01
2.850000e-06	4.167816e-06	9.906316e-10	2.900122e+01	6.804307e+01
2.860000e-06	4.198356e-06	9.935083e-10	2.921373e+01	6.826829e+01
2.870000e-06	4.228477e-06	9.964611e-10	2.942333e+01	6.848768e+01
2.880000e-06	4.258322e-06	9.984168e-10	2.963099e+01	6.870146e+01
2.890000e-06	4.287961e-06	9.984960e-10	2.983724e+01	6.890983e+01
2.900000e-06	4.317297e-06	9.964495e-10	3.004136e+01	6.911302e+01
2.910000e-06	4.346303e-06	9.954039e-10	3.024320e+01	6.931124e+01
