# Temperatura_=_0.39
# Concentracion g/m^3_=_1620.0
# C_Vs_to_Am_M_A/Vsm_=_65563218390.804596
# pendiente_HvsI_1/m_=_3716.3
# ordenada_HvsI_A/m_=_1297.0
# frecuencia_Hz_=_135107.63915430388

Tiempo_(s)	Campo_(V.s)	Magnetizacion_(V.s)	Campo_(kA/m)	Magnetizacion_(A/m)
0.000000e+00	-5.516287e-06	-1.336441e-09	-3.836285e+01	-8.703198e+01
1.000000e-08	-5.516537e-06	-1.334628e-09	-3.836458e+01	-8.701433e+01
2.000000e-08	-5.516533e-06	-1.334143e-09	-3.836456e+01	-8.699512e+01
3.000000e-08	-5.516127e-06	-1.334923e-09	-3.836174e+01	-8.697418e+01
4.000000e-08	-5.515216e-06	-1.335625e-09	-3.835540e+01	-8.695137e+01
5.000000e-08	-5.513749e-06	-1.336571e-09	-3.834520e+01	-8.692649e+01
6.000000e-08	-5.511737e-06	-1.340517e-09	-3.833120e+01	-8.689936e+01
7.000000e-08	-5.509123e-06	-1.350270e-09	-3.831303e+01	-8.686980e+01
8.000000e-08	-5.505940e-06	-1.347823e-09	-3.829089e+01	-8.683761e+01
9.000000e-08	-5.502271e-06	-1.324184e-09	-3.826538e+01	-8.680258e+01
1.000000e-07	-5.498190e-06	-1.305752e-09	-3.823699e+01	-8.676453e+01
1.100000e-07	-5.493820e-06	-1.313880e-09	-3.820660e+01	-8.672324e+01
1.200000e-07	-5.489251e-06	-1.350249e-09	-3.817483e+01	-8.667852e+01
1.300000e-07	-5.484427e-06	-1.354734e-09	-3.814128e+01	-8.663018e+01
1.400000e-07	-5.479194e-06	-1.320925e-09	-3.810489e+01	-8.657804e+01
1.500000e-07	-5.473566e-06	-1.312473e-09	-3.806575e+01	-8.652191e+01
1.600000e-07	-5.467618e-06	-1.344474e-09	-3.802438e+01	-8.646163e+01
1.700000e-07	-5.461210e-06	-1.366472e-09	-3.797982e+01	-8.639704e+01
1.800000e-07	-5.454292e-06	-1.320013e-09	-3.793171e+01	-8.632799e+01
1.900000e-07	-5.447103e-06	-1.286469e-09	-3.788171e+01	-8.625435e+01
2.000000e-07	-5.439699e-06	-1.302909e-09	-3.783022e+01	-8.617601e+01
2.100000e-07	-5.431979e-06	-1.348134e-09	-3.777653e+01	-8.609286e+01
2.200000e-07	-5.423976e-06	-1.355313e-09	-3.772087e+01	-8.600481e+01
2.300000e-07	-5.415622e-06	-1.342581e-09	-3.766278e+01	-8.591180e+01
2.400000e-07	-5.406806e-06	-1.332871e-09	-3.760147e+01	-8.581377e+01
2.500000e-07	-5.397420e-06	-1.333776e-09	-3.753619e+01	-8.571069e+01
2.600000e-07	-5.387310e-06	-1.322335e-09	-3.746588e+01	-8.560253e+01
2.700000e-07	-5.376637e-06	-1.295817e-09	-3.739166e+01	-8.548929e+01
2.800000e-07	-5.365509e-06	-1.284744e-09	-3.731427e+01	-8.537099e+01
2.900000e-07	-5.353883e-06	-1.294396e-09	-3.723341e+01	-8.524766e+01
3.000000e-07	-5.341901e-06	-1.294632e-09	-3.715008e+01	-8.511934e+01
3.100000e-07	-5.329651e-06	-1.276540e-09	-3.706489e+01	-8.498609e+01
3.200000e-07	-5.317003e-06	-1.283993e-09	-3.697694e+01	-8.484799e+01
3.300000e-07	-5.303869e-06	-1.296052e-09	-3.688559e+01	-8.470512e+01
3.400000e-07	-5.290372e-06	-1.283799e-09	-3.679173e+01	-8.455757e+01
3.500000e-07	-5.276504e-06	-1.254479e-09	-3.669529e+01	-8.440545e+01
3.600000e-07	-5.262148e-06	-1.262067e-09	-3.659544e+01	-8.424888e+01
3.700000e-07	-5.247301e-06	-1.279721e-09	-3.649219e+01	-8.408798e+01
3.800000e-07	-5.231949e-06	-1.275307e-09	-3.638543e+01	-8.392287e+01
3.900000e-07	-5.215983e-06	-1.260160e-09	-3.627439e+01	-8.375369e+01
4.000000e-07	-5.199606e-06	-1.259971e-09	-3.616050e+01	-8.358058e+01
4.100000e-07	-5.182992e-06	-1.254722e-09	-3.604496e+01	-8.340366e+01
4.200000e-07	-5.166013e-06	-1.250790e-09	-3.592688e+01	-8.322308e+01
4.300000e-07	-5.148639e-06	-1.258739e-09	-3.580605e+01	-8.303897e+01
4.400000e-07	-5.130936e-06	-1.264300e-09	-3.568294e+01	-8.285145e+01
4.500000e-07	-5.112831e-06	-1.247152e-09	-3.555703e+01	-8.266066e+01
4.600000e-07	-5.094293e-06	-1.242796e-09	-3.542810e+01	-8.246672e+01
4.700000e-07	-5.075386e-06	-1.251299e-09	-3.529662e+01	-8.226973e+01
4.800000e-07	-5.056164e-06	-1.243250e-09	-3.516294e+01	-8.206981e+01
4.900000e-07	-5.036698e-06	-1.225629e-09	-3.502756e+01	-8.186706e+01
5.000000e-07	-5.017001e-06	-1.228860e-09	-3.489058e+01	-8.166155e+01
5.100000e-07	-4.997086e-06	-1.227751e-09	-3.475208e+01	-8.145337e+01
5.200000e-07	-4.976880e-06	-1.215950e-09	-3.461156e+01	-8.124259e+01
5.300000e-07	-4.956352e-06	-1.225683e-09	-3.446880e+01	-8.102926e+01
5.400000e-07	-4.935459e-06	-1.234980e-09	-3.432350e+01	-8.081342e+01
5.500000e-07	-4.914154e-06	-1.211533e-09	-3.417533e+01	-8.059511e+01
5.600000e-07	-4.892502e-06	-1.201039e-09	-3.402475e+01	-8.037435e+01
5.700000e-07	-4.870513e-06	-1.216865e-09	-3.387184e+01	-8.015115e+01
5.800000e-07	-4.848172e-06	-1.207569e-09	-3.371647e+01	-7.992549e+01
5.900000e-07	-4.825466e-06	-1.188363e-09	-3.355856e+01	-7.969738e+01
6.000000e-07	-4.802463e-06	-1.197532e-09	-3.339858e+01	-7.946678e+01
6.100000e-07	-4.779227e-06	-1.202832e-09	-3.323699e+01	-7.923366e+01
6.200000e-07	-4.755713e-06	-1.184352e-09	-3.307346e+01	-7.899798e+01
6.300000e-07	-4.731949e-06	-1.186113e-09	-3.290820e+01	-7.875968e+01
6.400000e-07	-4.707965e-06	-1.194399e-09	-3.274140e+01	-7.851870e+01
6.500000e-07	-4.683596e-06	-1.178926e-09	-3.257192e+01	-7.827498e+01
6.600000e-07	-4.658648e-06	-1.165991e-09	-3.239842e+01	-7.802843e+01
6.700000e-07	-4.633196e-06	-1.167987e-09	-3.222142e+01	-7.777897e+01
6.800000e-07	-4.607355e-06	-1.156363e-09	-3.204171e+01	-7.752653e+01
6.900000e-07	-4.581025e-06	-1.148487e-09	-3.185860e+01	-7.727100e+01
7.000000e-07	-4.554171e-06	-1.154923e-09	-3.167184e+01	-7.701230e+01
7.100000e-07	-4.526973e-06	-1.152090e-09	-3.148269e+01	-7.675034e+01
7.200000e-07	-4.499553e-06	-1.141759e-09	-3.129200e+01	-7.648501e+01
7.300000e-07	-4.471898e-06	-1.144575e-09	-3.109967e+01	-7.621623e+01
7.400000e-07	-4.444023e-06	-1.139234e-09	-3.090582e+01	-7.594389e+01
7.500000e-07	-4.415947e-06	-1.122488e-09	-3.071056e+01	-7.566790e+01
7.600000e-07	-4.387610e-06	-1.115859e-09	-3.051350e+01	-7.538818e+01
7.700000e-07	-4.358971e-06	-1.116483e-09	-3.031433e+01	-7.510462e+01
7.800000e-07	-4.330042e-06	-1.109817e-09	-3.011315e+01	-7.481715e+01
7.900000e-07	-4.300821e-06	-1.107722e-09	-2.990993e+01	-7.452568e+01
8.000000e-07	-4.271273e-06	-1.106013e-09	-2.970443e+01	-7.423014e+01
8.100000e-07	-4.241403e-06	-1.090336e-09	-2.949671e+01	-7.393044e+01
8.200000e-07	-4.211234e-06	-1.074506e-09	-2.928690e+01	-7.362652e+01
8.300000e-07	-4.180778e-06	-1.070141e-09	-2.907509e+01	-7.331831e+01
8.400000e-07	-4.150030e-06	-1.065674e-09	-2.886125e+01	-7.300575e+01
8.500000e-07	-4.119030e-06	-1.062415e-09	-2.864567e+01	-7.268879e+01
8.600000e-07	-4.087847e-06	-1.068003e-09	-2.842881e+01	-7.236738e+01
8.700000e-07	-4.056431e-06	-1.067268e-09	-2.821032e+01	-7.204147e+01
8.800000e-07	-4.024753e-06	-1.055661e-09	-2.799002e+01	-7.171102e+01
8.900000e-07	-3.992864e-06	-1.046389e-09	-2.776825e+01	-7.137600e+01
9.000000e-07	-3.960741e-06	-1.037314e-09	-2.754485e+01	-7.103637e+01
9.100000e-07	-3.928266e-06	-1.023694e-09	-2.731901e+01	-7.069210e+01
9.200000e-07	-3.895441e-06	-1.019181e-09	-2.709072e+01	-7.034317e+01
9.300000e-07	-3.862203e-06	-1.021285e-09	-2.685957e+01	-6.998956e+01
9.400000e-07	-3.828507e-06	-1.016744e-09	-2.662523e+01	-6.963124e+01
9.500000e-07	-3.794434e-06	-1.008896e-09	-2.638828e+01	-6.926822e+01
9.600000e-07	-3.759961e-06	-1.005801e-09	-2.614853e+01	-6.890046e+01
9.700000e-07	-3.725092e-06	-9.958733e-10	-2.590604e+01	-6.852796e+01
9.800000e-07	-3.689899e-06	-9.826778e-10	-2.566129e+01	-6.815072e+01
9.900000e-07	-3.654482e-06	-9.754911e-10	-2.541499e+01	-6.776871e+01
1.000000e-06	-3.618914e-06	-9.704430e-10	-2.516763e+01	-6.738194e+01
1.010000e-06	-3.583229e-06	-9.641252e-10	-2.491946e+01	-6.699040e+01
1.020000e-06	-3.547421e-06	-9.626673e-10	-2.467043e+01	-6.659409e+01
1.030000e-06	-3.511398e-06	-9.624588e-10	-2.441991e+01	-6.619299e+01
1.040000e-06	-3.475103e-06	-9.570163e-10	-2.416750e+01	-6.578710e+01
1.050000e-06	-3.438576e-06	-9.503734e-10	-2.391347e+01	-6.537642e+01
1.060000e-06	-3.401844e-06	-9.444353e-10	-2.365802e+01	-6.496093e+01
1.070000e-06	-3.364876e-06	-9.328811e-10	-2.340093e+01	-6.454064e+01
1.080000e-06	-3.327616e-06	-9.214814e-10	-2.314180e+01	-6.411554e+01
1.090000e-06	-3.290023e-06	-9.136761e-10	-2.288036e+01	-6.368562e+01
1.100000e-06	-3.252136e-06	-9.054576e-10	-2.261688e+01	-6.325087e+01
1.110000e-06	-3.214069e-06	-8.989723e-10	-2.235214e+01	-6.281129e+01
1.120000e-06	-3.175902e-06	-8.981800e-10	-2.208671e+01	-6.236686e+01
1.130000e-06	-3.137538e-06	-8.983742e-10	-2.181991e+01	-6.191758e+01
1.140000e-06	-3.098937e-06	-8.907627e-10	-2.155146e+01	-6.146344e+01
1.150000e-06	-3.060190e-06	-8.810922e-10	-2.128200e+01	-6.100442e+01
1.160000e-06	-3.021251e-06	-8.724538e-10	-2.101120e+01	-6.054051e+01
1.170000e-06	-2.982108e-06	-8.624624e-10	-2.073898e+01	-6.007170e+01
1.180000e-06	-2.942754e-06	-8.547268e-10	-2.046529e+01	-5.959797e+01
1.190000e-06	-2.903211e-06	-8.532342e-10	-2.019029e+01	-5.911932e+01
1.200000e-06	-2.863536e-06	-8.507358e-10	-1.991437e+01	-5.863571e+01
1.210000e-06	-2.823655e-06	-8.428674e-10	-1.963702e+01	-5.814713e+01
1.220000e-06	-2.783634e-06	-8.333038e-10	-1.935870e+01	-5.765355e+01
1.230000e-06	-2.743491e-06	-8.235941e-10	-1.907952e+01	-5.715496e+01
1.240000e-06	-2.703164e-06	-8.116018e-10	-1.879907e+01	-5.665131e+01
1.250000e-06	-2.662622e-06	-8.029770e-10	-1.851713e+01	-5.614258e+01
1.260000e-06	-2.621777e-06	-7.972088e-10	-1.823307e+01	-5.562873e+01
1.270000e-06	-2.580624e-06	-7.911091e-10	-1.794687e+01	-5.510971e+01
1.280000e-06	-2.539182e-06	-7.856332e-10	-1.765867e+01	-5.458547e+01
1.290000e-06	-2.497468e-06	-7.799867e-10	-1.736856e+01	-5.405595e+01
1.300000e-06	-2.455498e-06	-7.695619e-10	-1.707669e+01	-5.352109e+01
1.310000e-06	-2.413231e-06	-7.547963e-10	-1.678274e+01	-5.298080e+01
1.320000e-06	-2.370673e-06	-7.420334e-10	-1.648678e+01	-5.243501e+01
1.330000e-06	-2.327903e-06	-7.311816e-10	-1.618933e+01	-5.188362e+01
1.340000e-06	-2.284907e-06	-7.232129e-10	-1.589032e+01	-5.132651e+01
1.350000e-06	-2.241663e-06	-7.172378e-10	-1.558957e+01	-5.076356e+01
1.360000e-06	-2.198266e-06	-7.112252e-10	-1.528777e+01	-5.019464e+01
1.370000e-06	-2.154814e-06	-7.032676e-10	-1.498558e+01	-4.961959e+01
1.380000e-06	-2.111275e-06	-6.940652e-10	-1.468280e+01	-4.903825e+01
1.390000e-06	-2.067657e-06	-6.806857e-10	-1.437945e+01	-4.845042e+01
1.400000e-06	-2.023936e-06	-6.655893e-10	-1.407540e+01	-4.785590e+01
1.410000e-06	-1.980072e-06	-6.521706e-10	-1.377035e+01	-4.725447e+01
1.420000e-06	-1.936188e-06	-6.402173e-10	-1.346516e+01	-4.664588e+01
1.430000e-06	-1.892251e-06	-6.320178e-10	-1.315960e+01	-4.602987e+01
1.440000e-06	-1.848150e-06	-6.250845e-10	-1.285290e+01	-4.540616e+01
1.450000e-06	-1.803959e-06	-6.180092e-10	-1.254558e+01	-4.477445e+01
1.460000e-06	-1.759666e-06	-6.106700e-10	-1.223755e+01	-4.413439e+01
1.470000e-06	-1.715226e-06	-5.998936e-10	-1.192849e+01	-4.348566e+01
1.480000e-06	-1.670710e-06	-5.867177e-10	-1.161890e+01	-4.282788e+01
1.490000e-06	-1.625993e-06	-5.722769e-10	-1.130792e+01	-4.216067e+01
1.500000e-06	-1.581081e-06	-5.587541e-10	-1.099558e+01	-4.148362e+01
1.510000e-06	-1.536084e-06	-5.488031e-10	-1.068265e+01	-4.079631e+01
1.520000e-06	-1.490978e-06	-5.400812e-10	-1.036896e+01	-4.009829e+01
1.530000e-06	-1.445837e-06	-5.319276e-10	-1.005503e+01	-3.938913e+01
1.540000e-06	-1.400591e-06	-5.246376e-10	-9.740364e+00	-3.866833e+01
1.550000e-06	-1.355248e-06	-5.153659e-10	-9.425031e+00	-3.793544e+01
1.560000e-06	-1.309822e-06	-5.002874e-10	-9.109115e+00	-3.718995e+01
1.570000e-06	-1.264224e-06	-4.828744e-10	-8.792005e+00	-3.643137e+01
1.580000e-06	-1.218506e-06	-4.672811e-10	-8.474060e+00	-3.565920e+01
1.590000e-06	-1.172711e-06	-4.529734e-10	-8.155586e+00	-3.487294e+01
1.600000e-06	-1.126864e-06	-4.397479e-10	-7.836740e+00	-3.407210e+01
1.610000e-06	-1.081009e-06	-4.268335e-10	-7.517843e+00	-3.325617e+01
1.620000e-06	-1.035110e-06	-4.157554e-10	-7.198643e+00	-3.242467e+01
1.630000e-06	-9.891487e-07	-4.055901e-10	-6.879004e+00	-3.157713e+01
1.640000e-06	-9.431081e-07	-3.933818e-10	-6.558816e+00	-3.071309e+01
1.650000e-06	-8.969815e-07	-3.791504e-10	-6.238031e+00	-2.983212e+01
1.660000e-06	-8.508139e-07	-3.632274e-10	-5.916959e+00	-2.893380e+01
1.670000e-06	-8.045178e-07	-3.478595e-10	-5.594994e+00	-2.801774e+01
1.680000e-06	-7.581408e-07	-3.333415e-10	-5.272467e+00	-2.708360e+01
1.690000e-06	-7.117713e-07	-3.197332e-10	-4.949991e+00	-2.613106e+01
1.700000e-06	-6.652968e-07	-3.059006e-10	-4.626786e+00	-2.515983e+01
1.710000e-06	-6.187492e-07	-2.913670e-10	-4.303072e+00	-2.416968e+01
1.720000e-06	-5.721888e-07	-2.750642e-10	-3.979269e+00	-2.316043e+01
1.730000e-06	-5.255505e-07	-2.573322e-10	-3.654925e+00	-2.213193e+01
1.740000e-06	-4.788768e-07	-2.407379e-10	-3.330334e+00	-2.108410e+01
1.750000e-06	-4.321670e-07	-2.252739e-10	-3.005492e+00	-2.001691e+01
1.760000e-06	-3.854171e-07	-2.106772e-10	-2.680372e+00	-1.893040e+01
1.770000e-06	-3.386782e-07	-1.955553e-10	-2.355327e+00	-1.782465e+01
1.780000e-06	-2.919627e-07	-1.787029e-10	-2.030446e+00	-1.669983e+01
1.790000e-06	-2.452170e-07	-1.631057e-10	-1.705354e+00	-1.555617e+01
1.800000e-06	-1.983894e-07	-1.490872e-10	-1.379693e+00	-1.439394e+01
1.810000e-06	-1.515680e-07	-1.341978e-10	-1.054075e+00	-1.321352e+01
1.820000e-06	-1.047574e-07	-1.173095e-10	-7.285322e-01	-1.201534e+01
1.830000e-06	-5.800289e-08	-9.903171e-11	-4.033793e-01	-1.079989e+01
1.840000e-06	-1.129076e-08	-8.186156e-11	-7.852127e-02	-9.567740e+00
1.850000e-06	3.551306e-08	-6.530676e-11	2.469745e-01	-8.319534e+00
1.860000e-06	8.231242e-08	-4.674968e-11	5.724392e-01	-7.055978e+00
1.870000e-06	1.291052e-07	-2.746183e-11	8.978580e-01	-5.777842e+00
1.880000e-06	1.758977e-07	-8.906512e-12	1.223275e+00	-4.485964e+00
1.890000e-06	2.226714e-07	9.913348e-12	1.548561e+00	-3.181244e+00
1.900000e-06	2.695114e-07	2.859934e-11	1.874308e+00	-1.864640e+00
1.910000e-06	3.163075e-07	4.659486e-11	2.199751e+00	-5.371648e-01
1.920000e-06	3.630622e-07	6.560140e-11	2.524905e+00	8.001142e-01
1.930000e-06	4.098302e-07	8.589898e-11	2.850151e+00	2.146083e+00
1.940000e-06	4.564968e-07	1.058123e-10	3.174693e+00	3.499583e+00
1.950000e-06	5.031289e-07	1.282057e-10	3.498995e+00	4.859418e+00
1.960000e-06	5.497653e-07	1.485131e-10	3.823326e+00	6.224356e+00
1.970000e-06	5.963507e-07	1.669283e-10	4.147303e+00	7.593138e+00
1.980000e-06	6.428543e-07	1.841716e-10	4.470711e+00	8.964482e+00
1.990000e-06	6.892423e-07	1.986274e-10	4.793315e+00	1.033709e+01
2.000000e-06	7.355733e-07	2.152591e-10	5.115522e+00	1.170964e+01
2.010000e-06	7.818781e-07	2.362786e-10	5.437547e+00	1.308083e+01
2.020000e-06	8.281557e-07	2.618957e-10	5.759384e+00	1.444933e+01
2.030000e-06	8.744384e-07	2.867415e-10	6.081255e+00	1.581384e+01
2.040000e-06	9.207078e-07	3.091539e-10	6.403034e+00	1.717306e+01
2.050000e-06	9.668768e-07	3.267797e-10	6.724115e+00	1.852570e+01
2.060000e-06	1.012917e-06	3.401046e-10	7.044303e+00	1.987053e+01
2.070000e-06	1.058817e-06	3.523105e-10	7.363509e+00	2.120630e+01
2.080000e-06	1.104616e-06	3.700017e-10	7.682015e+00	2.253184e+01
2.090000e-06	1.150353e-06	3.937410e-10	8.000095e+00	2.384600e+01
2.100000e-06	1.196021e-06	4.185235e-10	8.317691e+00	2.514767e+01
2.110000e-06	1.241575e-06	4.404355e-10	8.634496e+00	2.643580e+01
2.120000e-06	1.286996e-06	4.579556e-10	8.950378e+00	2.770941e+01
2.130000e-06	1.332328e-06	4.730443e-10	9.265633e+00	2.896753e+01
2.140000e-06	1.377604e-06	4.868450e-10	9.580506e+00	3.020932e+01
2.150000e-06	1.422808e-06	5.001710e-10	9.894875e+00	3.143395e+01
2.160000e-06	1.467932e-06	5.154130e-10	1.020869e+01	3.264067e+01
2.170000e-06	1.512941e-06	5.319650e-10	1.052170e+01	3.382883e+01
2.180000e-06	1.557786e-06	5.487009e-10	1.083358e+01	3.499782e+01
2.190000e-06	1.602567e-06	5.653109e-10	1.114500e+01	3.614710e+01
2.200000e-06	1.647265e-06	5.817155e-10	1.145586e+01	3.727624e+01
2.210000e-06	1.691777e-06	5.968609e-10	1.176541e+01	3.838484e+01
2.220000e-06	1.736156e-06	6.082637e-10	1.207404e+01	3.947261e+01
2.230000e-06	1.780428e-06	6.204064e-10	1.238193e+01	4.053930e+01
2.240000e-06	1.824576e-06	6.356663e-10	1.268896e+01	4.158476e+01
2.250000e-06	1.868580e-06	6.510944e-10	1.299498e+01	4.260889e+01
2.260000e-06	1.912458e-06	6.639849e-10	1.330013e+01	4.361168e+01
2.270000e-06	1.956272e-06	6.768545e-10	1.360483e+01	4.459316e+01
2.280000e-06	2.000012e-06	6.897044e-10	1.390902e+01	4.555343e+01
2.290000e-06	2.043677e-06	7.028275e-10	1.421269e+01	4.649266e+01
2.300000e-06	2.087298e-06	7.166939e-10	1.451605e+01	4.741107e+01
2.310000e-06	2.130853e-06	7.302250e-10	1.481895e+01	4.830893e+01
2.320000e-06	2.174314e-06	7.432052e-10	1.512120e+01	4.918656e+01
2.330000e-06	2.217684e-06	7.566065e-10	1.542282e+01	5.004431e+01
2.340000e-06	2.260992e-06	7.689270e-10	1.572400e+01	5.088260e+01
2.350000e-06	2.304199e-06	7.803385e-10	1.602448e+01	5.170185e+01
2.360000e-06	2.347125e-06	7.903289e-10	1.632301e+01	5.250254e+01
2.370000e-06	2.389734e-06	7.981848e-10	1.661933e+01	5.328516e+01
2.380000e-06	2.431993e-06	8.063600e-10	1.691322e+01	5.405021e+01
2.390000e-06	2.473822e-06	8.170965e-10	1.720412e+01	5.479823e+01
2.400000e-06	2.515415e-06	8.293249e-10	1.749337e+01	5.552976e+01
2.410000e-06	2.556845e-06	8.420307e-10	1.778150e+01	5.624535e+01
2.420000e-06	2.597969e-06	8.541397e-10	1.806750e+01	5.694554e+01
2.430000e-06	2.638788e-06	8.646728e-10	1.835137e+01	5.763088e+01
2.440000e-06	2.679335e-06	8.745643e-10	1.863335e+01	5.830193e+01
2.450000e-06	2.719662e-06	8.821103e-10	1.891381e+01	5.895921e+01
2.460000e-06	2.759842e-06	8.870640e-10	1.919323e+01	5.960325e+01
2.470000e-06	2.799899e-06	8.931391e-10	1.947181e+01	6.023456e+01
2.480000e-06	2.839811e-06	9.016077e-10	1.974938e+01	6.085363e+01
2.490000e-06	2.879537e-06	9.104597e-10	2.002565e+01	6.146093e+01
2.500000e-06	2.919119e-06	9.203277e-10	2.030092e+01	6.205691e+01
2.510000e-06	2.958583e-06	9.312435e-10	2.057537e+01	6.264200e+01
2.520000e-06	2.997866e-06	9.409458e-10	2.084857e+01	6.321658e+01
2.530000e-06	3.036944e-06	9.498897e-10	2.112033e+01	6.378105e+01
2.540000e-06	3.075836e-06	9.587297e-10	2.139081e+01	6.433574e+01
2.550000e-06	3.114555e-06	9.651937e-10	2.166008e+01	6.488096e+01
2.560000e-06	3.152986e-06	9.690713e-10	2.192734e+01	6.541702e+01
2.570000e-06	3.191095e-06	9.737845e-10	2.219237e+01	6.594417e+01
2.580000e-06	3.228996e-06	9.813662e-10	2.245595e+01	6.646265e+01
2.590000e-06	3.266720e-06	9.900464e-10	2.271830e+01	6.697266e+01
2.600000e-06	3.304335e-06	9.997995e-10	2.297990e+01	6.747440e+01
2.610000e-06	3.341765e-06	1.010085e-09	2.324020e+01	6.796802e+01
2.620000e-06	3.378904e-06	1.017300e-09	2.349849e+01	6.845366e+01
2.630000e-06	3.415734e-06	1.023212e-09	2.375462e+01	6.893144e+01
2.640000e-06	3.452203e-06	1.028710e-09	2.400824e+01	6.940145e+01
2.650000e-06	3.488406e-06	1.034965e-09	2.426001e+01	6.986378e+01
2.660000e-06	3.524472e-06	1.042001e-09	2.451083e+01	7.031850e+01
2.670000e-06	3.560407e-06	1.048925e-09	2.476074e+01	7.076566e+01
2.680000e-06	3.596211e-06	1.055830e-09	2.500974e+01	7.120529e+01
2.690000e-06	3.631860e-06	1.061156e-09	2.525766e+01	7.163745e+01
2.700000e-06	3.667329e-06	1.064539e-09	2.550432e+01	7.206215e+01
2.710000e-06	3.702584e-06	1.068629e-09	2.574951e+01	7.247942e+01
2.720000e-06	3.737630e-06	1.076228e-09	2.599324e+01	7.288927e+01
2.730000e-06	3.772400e-06	1.083420e-09	2.623504e+01	7.329174e+01
2.740000e-06	3.806700e-06	1.091618e-09	2.647358e+01	7.368684e+01
2.750000e-06	3.840505e-06	1.100860e-09	2.670867e+01	7.407460e+01
2.760000e-06	3.873854e-06	1.106546e-09	2.694060e+01	7.445504e+01
2.770000e-06	3.906807e-06	1.109005e-09	2.716977e+01	7.482821e+01
2.780000e-06	3.939371e-06	1.110890e-09	2.739623e+01	7.519413e+01
2.790000e-06	3.971552e-06	1.114229e-09	2.762004e+01	7.555287e+01
2.800000e-06	4.003521e-06	1.119098e-09	2.784236e+01	7.590447e+01
2.810000e-06	4.035303e-06	1.125182e-09	2.806339e+01	7.624901e+01
2.820000e-06	4.066888e-06	1.132687e-09	2.828304e+01	7.658656e+01
2.830000e-06	4.098355e-06	1.138082e-09	2.850189e+01	7.691720e+01
2.840000e-06	4.129681e-06	1.142278e-09	2.871974e+01	7.724102e+01
2.850000e-06	4.160680e-06	1.144610e-09	2.893532e+01	7.755813e+01
2.860000e-06	4.191352e-06	1.145804e-09	2.914863e+01	7.786863e+01
2.870000e-06	4.221717e-06	1.147946e-09	2.935980e+01	7.817265e+01
2.880000e-06	4.251708e-06	1.151208e-09	2.956837e+01	7.847031e+01
2.890000e-06	4.281407e-06	1.153527e-09	2.977492e+01	7.876173e+01
2.900000e-06	4.310821e-06	1.157276e-09	2.997947e+01	7.904706e+01
2.910000e-06	4.339976e-06	1.162887e-09	3.018223e+01	7.932643e+01
