# Temperatura_=_-6.15
# Concentracion g/m^3_=_1620.0
# C_Vs_to_Am_M_A/Vsm_=_65563218390.804596
# pendiente_HvsI_1/m_=_3716.3
# ordenada_HvsI_A/m_=_1297.0
# frecuencia_Hz_=_135101.6379476951

Tiempo_(s)	Campo_(V.s)	Magnetizacion_(V.s)	Campo_(kA/m)	Magnetizacion_(A/m)
0.000000e+00	-5.514621e-06	-9.003174e-10	-3.837266e+01	-5.880468e+01
1.000000e-08	-5.514915e-06	-8.974747e-10	-3.837470e+01	-5.879732e+01
2.000000e-08	-5.514948e-06	-8.941854e-10	-3.837494e+01	-5.878889e+01
3.000000e-08	-5.514698e-06	-8.938411e-10	-3.837319e+01	-5.877924e+01
4.000000e-08	-5.513974e-06	-8.965009e-10	-3.836816e+01	-5.876822e+01
5.000000e-08	-5.512524e-06	-8.953363e-10	-3.835807e+01	-5.875568e+01
6.000000e-08	-5.510398e-06	-8.900588e-10	-3.834327e+01	-5.874144e+01
7.000000e-08	-5.507808e-06	-8.773779e-10	-3.832525e+01	-5.872534e+01
8.000000e-08	-5.504699e-06	-8.740200e-10	-3.830362e+01	-5.870723e+01
9.000000e-08	-5.501095e-06	-9.171173e-10	-3.827854e+01	-5.868694e+01
1.000000e-07	-5.497089e-06	-9.537045e-10	-3.825067e+01	-5.866430e+01
1.100000e-07	-5.492589e-06	-8.659410e-10	-3.821935e+01	-5.863918e+01
1.200000e-07	-5.487859e-06	-8.321815e-10	-3.818644e+01	-5.861143e+01
1.300000e-07	-5.483069e-06	-8.658856e-10	-3.815311e+01	-5.858090e+01
1.400000e-07	-5.477955e-06	-9.364158e-10	-3.811753e+01	-5.854748e+01
1.500000e-07	-5.472367e-06	-8.761981e-10	-3.807864e+01	-5.851105e+01
1.600000e-07	-5.466444e-06	-8.217873e-10	-3.803743e+01	-5.847151e+01
1.700000e-07	-5.460252e-06	-8.966947e-10	-3.799435e+01	-5.842877e+01
1.800000e-07	-5.453541e-06	-9.429287e-10	-3.794764e+01	-5.838276e+01
1.900000e-07	-5.446328e-06	-8.966691e-10	-3.789745e+01	-5.833344e+01
2.000000e-07	-5.438852e-06	-8.096720e-10	-3.784544e+01	-5.828075e+01
2.100000e-07	-5.431171e-06	-8.689221e-10	-3.779198e+01	-5.822469e+01
2.200000e-07	-5.423259e-06	-9.283777e-10	-3.773693e+01	-5.816526e+01
2.300000e-07	-5.415155e-06	-9.304364e-10	-3.768054e+01	-5.810247e+01
2.400000e-07	-5.406733e-06	-8.619173e-10	-3.762194e+01	-5.803636e+01
2.500000e-07	-5.397603e-06	-8.816205e-10	-3.755841e+01	-5.796699e+01
2.600000e-07	-5.387536e-06	-8.908229e-10	-3.748836e+01	-5.789444e+01
2.700000e-07	-5.376848e-06	-8.745288e-10	-3.741399e+01	-5.781880e+01
2.800000e-07	-5.365740e-06	-8.320685e-10	-3.733669e+01	-5.774018e+01
2.900000e-07	-5.354234e-06	-8.585953e-10	-3.725663e+01	-5.765870e+01
3.000000e-07	-5.342373e-06	-8.745912e-10	-3.717410e+01	-5.757452e+01
3.100000e-07	-5.330184e-06	-8.515957e-10	-3.708928e+01	-5.748778e+01
3.200000e-07	-5.317581e-06	-8.236274e-10	-3.700159e+01	-5.739867e+01
3.300000e-07	-5.304521e-06	-8.506720e-10	-3.691071e+01	-5.730735e+01
3.400000e-07	-5.291137e-06	-8.730801e-10	-3.681758e+01	-5.721402e+01
3.500000e-07	-5.277352e-06	-8.314543e-10	-3.672166e+01	-5.711888e+01
3.600000e-07	-5.262984e-06	-8.073641e-10	-3.662168e+01	-5.702213e+01
3.700000e-07	-5.248187e-06	-8.510021e-10	-3.651872e+01	-5.692399e+01
3.800000e-07	-5.233016e-06	-8.598711e-10	-3.641315e+01	-5.682465e+01
3.900000e-07	-5.217098e-06	-7.983500e-10	-3.630239e+01	-5.672433e+01
4.000000e-07	-5.200659e-06	-8.176540e-10	-3.618800e+01	-5.662324e+01
4.100000e-07	-5.183981e-06	-8.670107e-10	-3.607195e+01	-5.652158e+01
4.200000e-07	-5.167027e-06	-8.303742e-10	-3.595398e+01	-5.641955e+01
4.300000e-07	-5.149733e-06	-7.834784e-10	-3.583364e+01	-5.631733e+01
4.400000e-07	-5.132141e-06	-8.577050e-10	-3.571123e+01	-5.621510e+01
4.500000e-07	-5.114185e-06	-8.537375e-10	-3.558629e+01	-5.611302e+01
4.600000e-07	-5.095652e-06	-7.821690e-10	-3.545732e+01	-5.601126e+01
4.700000e-07	-5.076684e-06	-7.987846e-10	-3.532534e+01	-5.590993e+01
4.800000e-07	-5.057446e-06	-8.657156e-10	-3.519148e+01	-5.580917e+01
4.900000e-07	-5.037943e-06	-8.106646e-10	-3.505577e+01	-5.570908e+01
5.000000e-07	-5.018245e-06	-8.057628e-10	-3.491870e+01	-5.560972e+01
5.100000e-07	-4.998381e-06	-8.540800e-10	-3.478048e+01	-5.551118e+01
5.200000e-07	-4.978240e-06	-8.222059e-10	-3.464033e+01	-5.541348e+01
5.300000e-07	-4.957686e-06	-7.723364e-10	-3.449731e+01	-5.531664e+01
5.400000e-07	-4.936792e-06	-8.373073e-10	-3.435193e+01	-5.522066e+01
5.500000e-07	-4.915522e-06	-8.323943e-10	-3.420392e+01	-5.512552e+01
5.600000e-07	-4.893799e-06	-7.705392e-10	-3.405276e+01	-5.503117e+01
5.700000e-07	-4.871857e-06	-8.038632e-10	-3.390008e+01	-5.493754e+01
5.800000e-07	-4.849707e-06	-8.516323e-10	-3.374596e+01	-5.484453e+01
5.900000e-07	-4.827131e-06	-8.008783e-10	-3.358886e+01	-5.475205e+01
6.000000e-07	-4.804207e-06	-7.985174e-10	-3.342935e+01	-5.465996e+01
6.100000e-07	-4.781058e-06	-8.384729e-10	-3.326827e+01	-5.456812e+01
6.200000e-07	-4.757628e-06	-8.082043e-10	-3.310524e+01	-5.447635e+01
6.300000e-07	-4.733944e-06	-7.859114e-10	-3.294044e+01	-5.438449e+01
6.400000e-07	-4.709965e-06	-8.219260e-10	-3.277358e+01	-5.429234e+01
6.500000e-07	-4.685620e-06	-8.175710e-10	-3.260418e+01	-5.419969e+01
6.600000e-07	-4.660824e-06	-7.910800e-10	-3.243164e+01	-5.410633e+01
6.700000e-07	-4.635561e-06	-8.153292e-10	-3.225585e+01	-5.401203e+01
6.800000e-07	-4.609803e-06	-8.178641e-10	-3.207662e+01	-5.391658e+01
6.900000e-07	-4.583490e-06	-7.962674e-10	-3.189353e+01	-5.381972e+01
7.000000e-07	-4.556650e-06	-8.030314e-10	-3.170677e+01	-5.372124e+01
7.100000e-07	-4.529387e-06	-8.144367e-10	-3.151706e+01	-5.362088e+01
7.200000e-07	-4.501882e-06	-7.905053e-10	-3.132567e+01	-5.351843e+01
7.300000e-07	-4.474231e-06	-7.952895e-10	-3.113327e+01	-5.341364e+01
7.400000e-07	-4.446435e-06	-8.053706e-10	-3.093985e+01	-5.330630e+01
7.500000e-07	-4.418450e-06	-7.919020e-10	-3.074512e+01	-5.319619e+01
7.600000e-07	-4.390210e-06	-7.809381e-10	-3.054861e+01	-5.308311e+01
7.700000e-07	-4.361666e-06	-7.955307e-10	-3.035000e+01	-5.296685e+01
7.800000e-07	-4.332803e-06	-7.824319e-10	-3.014916e+01	-5.284725e+01
7.900000e-07	-4.303600e-06	-7.753912e-10	-2.994595e+01	-5.272412e+01
8.000000e-07	-4.274030e-06	-7.855735e-10	-2.974020e+01	-5.259733e+01
8.100000e-07	-4.244167e-06	-7.833114e-10	-2.953240e+01	-5.246673e+01
8.200000e-07	-4.214065e-06	-7.627212e-10	-2.932294e+01	-5.233221e+01
8.300000e-07	-4.183723e-06	-7.701368e-10	-2.911180e+01	-5.219368e+01
8.400000e-07	-4.153081e-06	-7.727315e-10	-2.889859e+01	-5.205104e+01
8.500000e-07	-4.122055e-06	-7.600920e-10	-2.868270e+01	-5.190423e+01
8.600000e-07	-4.090751e-06	-7.602324e-10	-2.846487e+01	-5.175322e+01
8.700000e-07	-4.059283e-06	-7.709018e-10	-2.824591e+01	-5.159799e+01
8.800000e-07	-4.027696e-06	-7.593037e-10	-2.802611e+01	-5.143851e+01
8.900000e-07	-3.995964e-06	-7.535988e-10	-2.780531e+01	-5.127481e+01
9.000000e-07	-3.963989e-06	-7.594701e-10	-2.758282e+01	-5.110692e+01
9.100000e-07	-3.931715e-06	-7.496946e-10	-2.735824e+01	-5.093489e+01
9.200000e-07	-3.899073e-06	-7.374956e-10	-2.713111e+01	-5.075876e+01
9.300000e-07	-3.866082e-06	-7.423786e-10	-2.690155e+01	-5.057863e+01
9.400000e-07	-3.832550e-06	-7.414068e-10	-2.666823e+01	-5.039457e+01
9.500000e-07	-3.798378e-06	-7.295202e-10	-2.643044e+01	-5.020669e+01
9.600000e-07	-3.763817e-06	-7.311538e-10	-2.618996e+01	-5.001510e+01
9.700000e-07	-3.729032e-06	-7.329713e-10	-2.594791e+01	-4.981991e+01
9.800000e-07	-3.693995e-06	-7.245486e-10	-2.570411e+01	-4.962124e+01
9.900000e-07	-3.658661e-06	-7.204343e-10	-2.545824e+01	-4.941923e+01
1.000000e-06	-3.623113e-06	-7.260340e-10	-2.521089e+01	-4.921400e+01
1.010000e-06	-3.587428e-06	-7.182431e-10	-2.496258e+01	-4.900568e+01
1.020000e-06	-3.551617e-06	-7.144505e-10	-2.471339e+01	-4.879440e+01
1.030000e-06	-3.515693e-06	-7.162852e-10	-2.446342e+01	-4.858029e+01
1.040000e-06	-3.479595e-06	-7.138812e-10	-2.421224e+01	-4.836347e+01
1.050000e-06	-3.443205e-06	-7.048187e-10	-2.395902e+01	-4.814405e+01
1.060000e-06	-3.406527e-06	-7.052077e-10	-2.370380e+01	-4.792215e+01
1.070000e-06	-3.369600e-06	-7.003029e-10	-2.344686e+01	-4.769784e+01
1.080000e-06	-3.332300e-06	-6.934641e-10	-2.318731e+01	-4.747123e+01
1.090000e-06	-3.294723e-06	-6.921379e-10	-2.292584e+01	-4.724238e+01
1.100000e-06	-3.257020e-06	-6.931674e-10	-2.266348e+01	-4.701135e+01
1.110000e-06	-3.219109e-06	-6.853078e-10	-2.239968e+01	-4.677819e+01
1.120000e-06	-3.181010e-06	-6.813439e-10	-2.213458e+01	-4.654291e+01
1.130000e-06	-3.142675e-06	-6.792166e-10	-2.186783e+01	-4.630553e+01
1.140000e-06	-3.104076e-06	-6.737668e-10	-2.159925e+01	-4.606604e+01
1.150000e-06	-3.065255e-06	-6.642661e-10	-2.132912e+01	-4.582441e+01
1.160000e-06	-3.026230e-06	-6.613667e-10	-2.105757e+01	-4.558060e+01
1.170000e-06	-2.987075e-06	-6.582685e-10	-2.078511e+01	-4.533454e+01
1.180000e-06	-2.947781e-06	-6.537539e-10	-2.051169e+01	-4.508615e+01
1.190000e-06	-2.908293e-06	-6.531289e-10	-2.023692e+01	-4.483533e+01
1.200000e-06	-2.868658e-06	-6.511817e-10	-1.996112e+01	-4.458196e+01
1.210000e-06	-2.828906e-06	-6.448341e-10	-1.968452e+01	-4.432589e+01
1.220000e-06	-2.789040e-06	-6.396926e-10	-1.940712e+01	-4.406698e+01
1.230000e-06	-2.748994e-06	-6.368175e-10	-1.912846e+01	-4.380505e+01
1.240000e-06	-2.708696e-06	-6.282186e-10	-1.884806e+01	-4.353991e+01
1.250000e-06	-2.668252e-06	-6.214896e-10	-1.856663e+01	-4.327136e+01
1.260000e-06	-2.627667e-06	-6.181619e-10	-1.828422e+01	-4.299917e+01
1.270000e-06	-2.586760e-06	-6.157036e-10	-1.799958e+01	-4.272311e+01
1.280000e-06	-2.545603e-06	-6.137005e-10	-1.771319e+01	-4.244294e+01
1.290000e-06	-2.504197e-06	-6.129805e-10	-1.742508e+01	-4.215841e+01
1.300000e-06	-2.462474e-06	-6.071079e-10	-1.713475e+01	-4.186923e+01
1.310000e-06	-2.420490e-06	-5.986507e-10	-1.684262e+01	-4.157515e+01
1.320000e-06	-2.378104e-06	-5.912515e-10	-1.654768e+01	-4.127587e+01
1.330000e-06	-2.335430e-06	-5.863601e-10	-1.625074e+01	-4.097110e+01
1.340000e-06	-2.292644e-06	-5.804200e-10	-1.595302e+01	-4.066055e+01
1.350000e-06	-2.249608e-06	-5.776086e-10	-1.565356e+01	-4.034391e+01
1.360000e-06	-2.206344e-06	-5.756023e-10	-1.535252e+01	-4.002088e+01
1.370000e-06	-2.162965e-06	-5.741059e-10	-1.505067e+01	-3.969117e+01
1.380000e-06	-2.119475e-06	-5.698142e-10	-1.474805e+01	-3.935445e+01
1.390000e-06	-2.075905e-06	-5.628665e-10	-1.444487e+01	-3.901041e+01
1.400000e-06	-2.032213e-06	-5.529729e-10	-1.414085e+01	-3.865877e+01
1.410000e-06	-1.988378e-06	-5.449212e-10	-1.383583e+01	-3.829919e+01
1.420000e-06	-1.944459e-06	-5.399308e-10	-1.353023e+01	-3.793139e+01
1.430000e-06	-1.900470e-06	-5.367692e-10	-1.322414e+01	-3.755506e+01
1.440000e-06	-1.856437e-06	-5.317093e-10	-1.291774e+01	-3.716990e+01
1.450000e-06	-1.812267e-06	-5.241599e-10	-1.261038e+01	-3.677562e+01
1.460000e-06	-1.767895e-06	-5.144249e-10	-1.230163e+01	-3.637193e+01
1.470000e-06	-1.723415e-06	-5.057363e-10	-1.199213e+01	-3.595855e+01
1.480000e-06	-1.678914e-06	-5.002096e-10	-1.168247e+01	-3.553519e+01
1.490000e-06	-1.634290e-06	-4.977098e-10	-1.137196e+01	-3.510159e+01
1.500000e-06	-1.589424e-06	-4.958272e-10	-1.105977e+01	-3.465747e+01
1.510000e-06	-1.544425e-06	-4.911388e-10	-1.074665e+01	-3.420258e+01
1.520000e-06	-1.499345e-06	-4.833859e-10	-1.043297e+01	-3.373666e+01
1.530000e-06	-1.454153e-06	-4.736723e-10	-1.011850e+01	-3.325946e+01
1.540000e-06	-1.408842e-06	-4.625484e-10	-9.803212e+00	-3.277075e+01
1.550000e-06	-1.363466e-06	-4.524125e-10	-9.487471e+00	-3.227029e+01
1.560000e-06	-1.318031e-06	-4.440957e-10	-9.171320e+00	-3.175785e+01
1.570000e-06	-1.272447e-06	-4.386622e-10	-8.854131e+00	-3.123323e+01
1.580000e-06	-1.226766e-06	-4.342569e-10	-8.536267e+00	-3.069621e+01
1.590000e-06	-1.181078e-06	-4.266110e-10	-8.218354e+00	-3.014660e+01
1.600000e-06	-1.135298e-06	-4.183842e-10	-7.899800e+00	-2.958421e+01
1.610000e-06	-1.089335e-06	-4.085455e-10	-7.579976e+00	-2.900885e+01
1.620000e-06	-1.043296e-06	-3.965207e-10	-7.259620e+00	-2.842036e+01
1.630000e-06	-9.973189e-07	-3.833707e-10	-6.939693e+00	-2.781858e+01
1.640000e-06	-9.512667e-07	-3.726211e-10	-6.619246e+00	-2.720336e+01
1.650000e-06	-9.051282e-07	-3.642069e-10	-6.298198e+00	-2.657458e+01
1.660000e-06	-8.589807e-07	-3.576102e-10	-5.977088e+00	-2.593211e+01
1.670000e-06	-8.127307e-07	-3.490325e-10	-5.655265e+00	-2.527585e+01
1.680000e-06	-7.663271e-07	-3.395114e-10	-5.332372e+00	-2.460571e+01
1.690000e-06	-7.198230e-07	-3.291033e-10	-5.008780e+00	-2.392161e+01
1.700000e-06	-6.733583e-07	-3.185031e-10	-4.685462e+00	-2.322351e+01
1.710000e-06	-6.269612e-07	-3.068478e-10	-4.362615e+00	-2.251137e+01
1.720000e-06	-5.804960e-07	-2.964212e-10	-4.039294e+00	-2.178517e+01
1.730000e-06	-5.339548e-07	-2.865145e-10	-3.715444e+00	-2.104493e+01
1.740000e-06	-4.874559e-07	-2.744632e-10	-3.391889e+00	-2.029066e+01
1.750000e-06	-4.409842e-07	-2.613034e-10	-3.068522e+00	-1.952242e+01
1.760000e-06	-3.944160e-07	-2.482939e-10	-2.744484e+00	-1.874029e+01
1.770000e-06	-3.477691e-07	-2.349455e-10	-2.419899e+00	-1.794438e+01
1.780000e-06	-3.010256e-07	-2.225550e-10	-2.094642e+00	-1.713481e+01
1.790000e-06	-2.542169e-07	-2.095267e-10	-1.768930e+00	-1.631175e+01
1.800000e-06	-2.075519e-07	-1.989534e-10	-1.444219e+00	-1.547539e+01
1.810000e-06	-1.609153e-07	-1.893051e-10	-1.119705e+00	-1.462595e+01
1.820000e-06	-1.141857e-07	-1.782711e-10	-7.945442e-01	-1.376369e+01
1.830000e-06	-6.739251e-08	-1.647417e-10	-4.689407e-01	-1.288889e+01
1.840000e-06	-2.060998e-08	-1.492989e-10	-1.434115e-01	-1.200187e+01
1.850000e-06	2.613675e-08	-1.348262e-10	1.818687e-01	-1.110299e+01
1.860000e-06	7.285508e-08	-1.198389e-10	5.069511e-01	-1.019262e+01
1.870000e-06	1.195785e-07	-1.048300e-10	8.320690e-01	-9.271209e+00
1.880000e-06	1.663963e-07	-9.156946e-11	1.157843e+00	-8.339194e+00
1.890000e-06	2.132085e-07	-8.202385e-11	1.483579e+00	-7.397071e+00
1.900000e-06	2.600054e-07	-7.377469e-11	1.809209e+00	-6.445362e+00
1.910000e-06	3.067658e-07	-6.373510e-11	2.134584e+00	-5.484624e+00
1.920000e-06	3.534728e-07	-4.909104e-11	2.459588e+00	-4.515447e+00
1.930000e-06	4.001712e-07	-3.051062e-11	2.784531e+00	-3.538450e+00
1.940000e-06	4.467879e-07	-1.209503e-11	3.108907e+00	-2.554283e+00
1.950000e-06	4.933179e-07	3.090643e-12	3.432678e+00	-1.563624e+00
1.960000e-06	5.398563e-07	1.766870e-11	3.756509e+00	-5.671777e-01
1.970000e-06	5.863259e-07	2.969428e-11	4.079860e+00	4.343261e-01
1.980000e-06	6.326562e-07	4.114283e-11	4.402243e+00	1.440135e+00
1.990000e-06	6.789512e-07	5.121634e-11	4.724380e+00	2.449478e+00
2.000000e-06	7.252339e-07	6.297857e-11	5.046431e+00	3.461563e+00
2.010000e-06	7.715313e-07	7.762952e-11	5.368584e+00	4.475586e+00
2.020000e-06	8.177138e-07	9.224439e-11	5.689939e+00	5.490728e+00
2.030000e-06	8.638092e-07	1.093112e-10	6.010686e+00	6.506162e+00
2.040000e-06	9.099192e-07	1.275467e-10	6.331536e+00	7.521054e+00
2.050000e-06	9.559903e-07	1.432313e-10	6.652115e+00	8.534566e+00
2.060000e-06	1.002009e-06	1.588527e-10	6.972331e+00	9.545862e+00
2.070000e-06	1.047909e-06	1.723313e-10	7.291718e+00	1.055411e+01
2.080000e-06	1.093728e-06	1.826028e-10	7.610541e+00	1.155847e+01
2.090000e-06	1.139483e-06	1.924624e-10	7.928919e+00	1.255814e+01
2.100000e-06	1.185189e-06	2.069142e-10	8.246958e+00	1.355230e+01
2.110000e-06	1.230877e-06	2.234244e-10	8.564875e+00	1.454016e+01
2.120000e-06	1.276417e-06	2.392820e-10	8.881754e+00	1.552097e+01
2.130000e-06	1.321762e-06	2.546239e-10	9.197284e+00	1.649395e+01
2.140000e-06	1.367029e-06	2.685740e-10	9.512266e+00	1.745841e+01
2.150000e-06	1.412158e-06	2.799292e-10	9.826292e+00	1.841362e+01
2.160000e-06	1.457123e-06	2.890915e-10	1.013917e+01	1.935894e+01
2.170000e-06	1.502072e-06	3.003991e-10	1.045194e+01	2.029373e+01
2.180000e-06	1.546974e-06	3.130886e-10	1.076438e+01	2.121738e+01
2.190000e-06	1.591816e-06	3.269901e-10	1.107641e+01	2.212935e+01
2.200000e-06	1.636521e-06	3.418481e-10	1.138748e+01	2.302910e+01
2.210000e-06	1.681010e-06	3.557660e-10	1.169706e+01	2.391615e+01
2.220000e-06	1.725360e-06	3.658100e-10	1.200566e+01	2.479007e+01
2.230000e-06	1.769592e-06	3.736173e-10	1.231344e+01	2.565045e+01
2.240000e-06	1.813745e-06	3.825070e-10	1.262067e+01	2.649694e+01
2.250000e-06	1.857808e-06	3.935411e-10	1.292728e+01	2.732922e+01
2.260000e-06	1.901758e-06	4.070295e-10	1.323310e+01	2.814703e+01
2.270000e-06	1.945629e-06	4.227263e-10	1.353837e+01	2.895014e+01
2.280000e-06	1.989425e-06	4.370221e-10	1.384311e+01	2.973837e+01
2.290000e-06	2.033122e-06	4.477971e-10	1.414717e+01	3.051158e+01
2.300000e-06	2.076764e-06	4.553186e-10	1.445085e+01	3.126967e+01
2.310000e-06	2.120373e-06	4.619302e-10	1.475430e+01	3.201258e+01
2.320000e-06	2.163905e-06	4.699433e-10	1.505721e+01	3.274029e+01
2.330000e-06	2.207307e-06	4.822644e-10	1.535921e+01	3.345282e+01
2.340000e-06	2.250556e-06	4.979132e-10	1.566016e+01	3.415022e+01
2.350000e-06	2.293707e-06	5.122263e-10	1.596041e+01	3.483258e+01
2.360000e-06	2.336706e-06	5.236760e-10	1.625962e+01	3.550001e+01
2.370000e-06	2.379460e-06	5.327627e-10	1.655711e+01	3.615267e+01
2.380000e-06	2.421933e-06	5.363130e-10	1.685266e+01	3.679071e+01
2.390000e-06	2.463997e-06	5.387708e-10	1.714535e+01	3.741435e+01
2.400000e-06	2.505653e-06	5.430390e-10	1.743521e+01	3.802380e+01
2.410000e-06	2.546963e-06	5.509860e-10	1.772266e+01	3.861928e+01
2.420000e-06	2.587954e-06	5.633454e-10	1.800789e+01	3.920107e+01
2.430000e-06	2.628699e-06	5.759662e-10	1.829141e+01	3.976941e+01
2.440000e-06	2.669216e-06	5.862549e-10	1.857334e+01	4.032459e+01
2.450000e-06	2.709500e-06	5.926998e-10	1.885365e+01	4.086689e+01
2.460000e-06	2.749603e-06	5.968742e-10	1.913270e+01	4.139661e+01
2.470000e-06	2.789588e-06	6.006381e-10	1.941093e+01	4.191403e+01
2.480000e-06	2.829460e-06	6.061237e-10	1.968837e+01	4.241944e+01
2.490000e-06	2.869228e-06	6.134672e-10	1.996509e+01	4.291315e+01
2.500000e-06	2.908888e-06	6.214329e-10	2.024106e+01	4.339544e+01
2.510000e-06	2.948412e-06	6.304203e-10	2.051608e+01	4.386659e+01
2.520000e-06	2.987724e-06	6.410746e-10	2.078963e+01	4.432689e+01
2.530000e-06	3.026889e-06	6.496582e-10	2.106215e+01	4.477660e+01
2.540000e-06	3.065844e-06	6.555866e-10	2.133321e+01	4.521598e+01
2.550000e-06	3.104463e-06	6.608904e-10	2.160194e+01	4.564527e+01
2.560000e-06	3.142878e-06	6.647856e-10	2.186925e+01	4.606473e+01
2.570000e-06	3.181076e-06	6.694741e-10	2.213504e+01	4.647456e+01
2.580000e-06	3.219098e-06	6.776209e-10	2.239961e+01	4.687498e+01
2.590000e-06	3.256994e-06	6.882616e-10	2.266331e+01	4.726619e+01
2.600000e-06	3.294654e-06	6.971928e-10	2.292535e+01	4.764838e+01
2.610000e-06	3.332001e-06	7.013661e-10	2.318523e+01	4.802172e+01
2.620000e-06	3.369095e-06	7.044592e-10	2.344334e+01	4.838635e+01
2.630000e-06	3.405987e-06	7.078108e-10	2.370005e+01	4.874244e+01
2.640000e-06	3.442597e-06	7.117504e-10	2.395480e+01	4.909011e+01
2.650000e-06	3.478902e-06	7.178028e-10	2.420742e+01	4.942949e+01
2.660000e-06	3.514957e-06	7.258442e-10	2.445830e+01	4.976069e+01
2.670000e-06	3.550872e-06	7.334108e-10	2.470821e+01	5.008381e+01
2.680000e-06	3.586707e-06	7.397736e-10	2.495756e+01	5.039895e+01
2.690000e-06	3.622444e-06	7.413181e-10	2.520623e+01	5.070619e+01
2.700000e-06	3.658004e-06	7.378943e-10	2.545367e+01	5.100561e+01
2.710000e-06	3.693380e-06	7.372180e-10	2.569983e+01	5.129730e+01
2.720000e-06	3.728558e-06	7.402241e-10	2.594461e+01	5.158132e+01
2.730000e-06	3.763390e-06	7.449654e-10	2.618699e+01	5.185774e+01
2.740000e-06	3.797794e-06	7.507188e-10	2.642638e+01	5.212663e+01
2.750000e-06	3.831682e-06	7.559118e-10	2.666218e+01	5.238807e+01
2.760000e-06	3.865081e-06	7.601163e-10	2.689458e+01	5.264211e+01
2.770000e-06	3.898111e-06	7.621884e-10	2.712442e+01	5.288884e+01
2.780000e-06	3.930721e-06	7.622880e-10	2.735133e+01	5.312833e+01
2.790000e-06	3.962911e-06	7.630951e-10	2.757532e+01	5.336066e+01
2.800000e-06	3.994883e-06	7.641451e-10	2.779779e+01	5.358591e+01
2.810000e-06	4.026704e-06	7.660129e-10	2.801921e+01	5.380418e+01
2.820000e-06	4.058363e-06	7.696998e-10	2.823951e+01	5.401556e+01
2.830000e-06	4.089933e-06	7.736806e-10	2.845919e+01	5.422015e+01
2.840000e-06	4.121346e-06	7.790531e-10	2.867776e+01	5.441806e+01
2.850000e-06	4.152478e-06	7.839711e-10	2.889439e+01	5.460942e+01
2.860000e-06	4.183197e-06	7.855545e-10	2.910815e+01	5.479434e+01
2.870000e-06	4.213474e-06	7.851845e-10	2.931883e+01	5.497295e+01
2.880000e-06	4.243481e-06	7.851490e-10	2.952763e+01	5.514541e+01
2.890000e-06	4.273255e-06	7.851077e-10	2.973480e+01	5.531184e+01
2.900000e-06	4.302671e-06	7.853988e-10	2.993949e+01	5.547241e+01
