# Temperatura_=_13.5
# Concentracion g/m^3_=_1620.0
# C_Vs_to_Am_M_A/Vsm_=_65563218390.804596
# pendiente_HvsI_1/m_=_3716.3
# ordenada_HvsI_A/m_=_1297.0
# frecuencia_Hz_=_135105.87299977452

Tiempo_(s)	Campo_(V.s)	Magnetizacion_(V.s)	Campo_(kA/m)	Magnetizacion_(A/m)
0.000000e+00	-5.521765e-06	-1.163727e-09	-3.837427e+01	-7.418667e+01
1.000000e-08	-5.521916e-06	-1.157291e-09	-3.837532e+01	-7.416406e+01
2.000000e-08	-5.521717e-06	-1.153180e-09	-3.837394e+01	-7.413924e+01
3.000000e-08	-5.521099e-06	-1.154799e-09	-3.836964e+01	-7.411224e+01
4.000000e-08	-5.519982e-06	-1.159055e-09	-3.836188e+01	-7.408309e+01
5.000000e-08	-5.518219e-06	-1.160604e-09	-3.834963e+01	-7.405182e+01
6.000000e-08	-5.515884e-06	-1.153500e-09	-3.833340e+01	-7.401847e+01
7.000000e-08	-5.513031e-06	-1.156156e-09	-3.831357e+01	-7.398307e+01
8.000000e-08	-5.509637e-06	-1.170378e-09	-3.828999e+01	-7.394564e+01
9.000000e-08	-5.505760e-06	-1.182518e-09	-3.826304e+01	-7.390620e+01
1.000000e-07	-5.501497e-06	-1.166413e-09	-3.823342e+01	-7.386478e+01
1.100000e-07	-5.496945e-06	-1.153029e-09	-3.820179e+01	-7.382141e+01
1.200000e-07	-5.492204e-06	-1.133989e-09	-3.816883e+01	-7.377609e+01
1.300000e-07	-5.487256e-06	-1.156737e-09	-3.813445e+01	-7.372883e+01
1.400000e-07	-5.481962e-06	-1.140893e-09	-3.809765e+01	-7.367965e+01
1.500000e-07	-5.476291e-06	-1.161484e-09	-3.805825e+01	-7.362856e+01
1.600000e-07	-5.470249e-06	-1.140692e-09	-3.801626e+01	-7.357554e+01
1.700000e-07	-5.463753e-06	-1.146649e-09	-3.797111e+01	-7.352059e+01
1.800000e-07	-5.456735e-06	-1.113147e-09	-3.792234e+01	-7.346371e+01
1.900000e-07	-5.449372e-06	-1.123996e-09	-3.787117e+01	-7.340487e+01
2.000000e-07	-5.441794e-06	-1.120870e-09	-3.781851e+01	-7.334406e+01
2.100000e-07	-5.434001e-06	-1.128723e-09	-3.776435e+01	-7.328125e+01
2.200000e-07	-5.425941e-06	-1.104136e-09	-3.770833e+01	-7.321641e+01
2.300000e-07	-5.417596e-06	-1.093551e-09	-3.765034e+01	-7.314949e+01
2.400000e-07	-5.408743e-06	-1.091806e-09	-3.758881e+01	-7.308046e+01
2.500000e-07	-5.399134e-06	-1.077262e-09	-3.752203e+01	-7.300927e+01
2.600000e-07	-5.388768e-06	-1.083935e-09	-3.744999e+01	-7.293587e+01
2.700000e-07	-5.377804e-06	-1.085105e-09	-3.737380e+01	-7.286018e+01
2.800000e-07	-5.366450e-06	-1.105546e-09	-3.729489e+01	-7.278217e+01
2.900000e-07	-5.354756e-06	-1.086736e-09	-3.721362e+01	-7.270174e+01
3.000000e-07	-5.342711e-06	-1.103098e-09	-3.712991e+01	-7.261884e+01
3.100000e-07	-5.330210e-06	-1.085273e-09	-3.704303e+01	-7.253339e+01
3.200000e-07	-5.317309e-06	-1.094309e-09	-3.695338e+01	-7.244531e+01
3.300000e-07	-5.304107e-06	-1.059477e-09	-3.686163e+01	-7.235452e+01
3.400000e-07	-5.290495e-06	-1.076574e-09	-3.676703e+01	-7.226094e+01
3.500000e-07	-5.276401e-06	-1.066443e-09	-3.666908e+01	-7.216449e+01
3.600000e-07	-5.261788e-06	-1.096077e-09	-3.656752e+01	-7.206508e+01
3.700000e-07	-5.246603e-06	-1.081415e-09	-3.646199e+01	-7.196263e+01
3.800000e-07	-5.230928e-06	-1.088484e-09	-3.635306e+01	-7.185706e+01
3.900000e-07	-5.214790e-06	-1.069728e-09	-3.624091e+01	-7.174828e+01
4.000000e-07	-5.198278e-06	-1.075691e-09	-3.612615e+01	-7.163623e+01
4.100000e-07	-5.181416e-06	-1.063752e-09	-3.600897e+01	-7.152082e+01
4.200000e-07	-5.164264e-06	-1.064389e-09	-3.588977e+01	-7.140198e+01
4.300000e-07	-5.146762e-06	-1.062170e-09	-3.576814e+01	-7.127965e+01
4.400000e-07	-5.128863e-06	-1.068326e-09	-3.564374e+01	-7.115376e+01
4.500000e-07	-5.110705e-06	-1.065201e-09	-3.551756e+01	-7.102426e+01
4.600000e-07	-5.092127e-06	-1.061893e-09	-3.538844e+01	-7.089109e+01
4.700000e-07	-5.073088e-06	-1.062325e-09	-3.525613e+01	-7.075423e+01
4.800000e-07	-5.053743e-06	-1.060091e-09	-3.512169e+01	-7.061362e+01
4.900000e-07	-5.034158e-06	-1.056847e-09	-3.498558e+01	-7.046925e+01
5.000000e-07	-5.014407e-06	-1.051002e-09	-3.484832e+01	-7.032109e+01
5.100000e-07	-4.994437e-06	-1.054308e-09	-3.470953e+01	-7.016913e+01
5.200000e-07	-4.974082e-06	-1.052873e-09	-3.456807e+01	-7.001336e+01
5.300000e-07	-4.953356e-06	-1.050631e-09	-3.442403e+01	-6.985379e+01
5.400000e-07	-4.932332e-06	-1.032614e-09	-3.427793e+01	-6.969044e+01
5.500000e-07	-4.910971e-06	-1.034863e-09	-3.412948e+01	-6.952332e+01
5.600000e-07	-4.889217e-06	-1.036002e-09	-3.397829e+01	-6.935247e+01
5.700000e-07	-4.867102e-06	-1.042048e-09	-3.382460e+01	-6.917791e+01
5.800000e-07	-4.844603e-06	-1.035081e-09	-3.366824e+01	-6.899969e+01
5.900000e-07	-4.821743e-06	-1.042672e-09	-3.350937e+01	-6.881785e+01
6.000000e-07	-4.798600e-06	-1.033496e-09	-3.334854e+01	-6.863246e+01
6.100000e-07	-4.775232e-06	-1.030010e-09	-3.318614e+01	-6.844357e+01
6.200000e-07	-4.751654e-06	-1.021142e-09	-3.302228e+01	-6.825125e+01
6.300000e-07	-4.727842e-06	-1.025409e-09	-3.285679e+01	-6.805555e+01
6.400000e-07	-4.703717e-06	-1.013032e-09	-3.268914e+01	-6.785655e+01
6.500000e-07	-4.679150e-06	-1.013458e-09	-3.251840e+01	-6.765432e+01
6.600000e-07	-4.654054e-06	-1.010093e-09	-3.234400e+01	-6.744893e+01
6.700000e-07	-4.628407e-06	-1.010206e-09	-3.216576e+01	-6.724044e+01
6.800000e-07	-4.602241e-06	-1.003013e-09	-3.198391e+01	-6.702893e+01
6.900000e-07	-4.575574e-06	-1.005841e-09	-3.179858e+01	-6.681444e+01
7.000000e-07	-4.548489e-06	-9.956938e-10	-3.161036e+01	-6.659705e+01
7.100000e-07	-4.521112e-06	-9.896986e-10	-3.142010e+01	-6.637681e+01
7.200000e-07	-4.493548e-06	-9.853241e-10	-3.122853e+01	-6.615375e+01
7.300000e-07	-4.465835e-06	-9.812510e-10	-3.103594e+01	-6.592793e+01
7.400000e-07	-4.437994e-06	-9.671405e-10	-3.084246e+01	-6.569936e+01
7.500000e-07	-4.409861e-06	-9.627291e-10	-3.064694e+01	-6.546807e+01
7.600000e-07	-4.381332e-06	-9.630080e-10	-3.044868e+01	-6.523408e+01
7.700000e-07	-4.352460e-06	-9.576787e-10	-3.024803e+01	-6.499737e+01
7.800000e-07	-4.323329e-06	-9.557449e-10	-3.004557e+01	-6.475795e+01
7.900000e-07	-4.293943e-06	-9.563839e-10	-2.984135e+01	-6.451577e+01
8.000000e-07	-4.264260e-06	-9.491211e-10	-2.963507e+01	-6.427081e+01
8.100000e-07	-4.234320e-06	-9.338399e-10	-2.942699e+01	-6.402302e+01
8.200000e-07	-4.204057e-06	-9.279269e-10	-2.921668e+01	-6.377234e+01
8.300000e-07	-4.173502e-06	-9.182112e-10	-2.900433e+01	-6.351868e+01
8.400000e-07	-4.142642e-06	-9.128931e-10	-2.878986e+01	-6.326197e+01
8.500000e-07	-4.111482e-06	-9.122126e-10	-2.857331e+01	-6.300211e+01
8.600000e-07	-4.080151e-06	-9.155870e-10	-2.835558e+01	-6.273899e+01
8.700000e-07	-4.048652e-06	-9.089193e-10	-2.813667e+01	-6.247249e+01
8.800000e-07	-4.016964e-06	-9.096909e-10	-2.791645e+01	-6.220247e+01
8.900000e-07	-3.985095e-06	-9.022344e-10	-2.769497e+01	-6.192881e+01
9.000000e-07	-3.952907e-06	-8.917930e-10	-2.747128e+01	-6.165136e+01
9.100000e-07	-3.920329e-06	-8.793458e-10	-2.724487e+01	-6.136996e+01
9.200000e-07	-3.887332e-06	-8.751315e-10	-2.701556e+01	-6.108446e+01
9.300000e-07	-3.853817e-06	-8.664703e-10	-2.678263e+01	-6.079470e+01
9.400000e-07	-3.819782e-06	-8.629370e-10	-2.654610e+01	-6.050052e+01
9.500000e-07	-3.785375e-06	-8.591296e-10	-2.630699e+01	-6.020176e+01
9.600000e-07	-3.750669e-06	-8.559413e-10	-2.606580e+01	-5.989826e+01
9.700000e-07	-3.715608e-06	-8.476717e-10	-2.582214e+01	-5.958986e+01
9.800000e-07	-3.680244e-06	-8.464591e-10	-2.557636e+01	-5.927643e+01
9.900000e-07	-3.644717e-06	-8.419342e-10	-2.532947e+01	-5.895780e+01
1.000000e-06	-3.609063e-06	-8.361250e-10	-2.508169e+01	-5.863386e+01
1.010000e-06	-3.573289e-06	-8.320773e-10	-2.483307e+01	-5.830447e+01
1.020000e-06	-3.537397e-06	-8.297743e-10	-2.458363e+01	-5.796953e+01
1.030000e-06	-3.501314e-06	-8.213948e-10	-2.433287e+01	-5.762894e+01
1.040000e-06	-3.464992e-06	-8.137075e-10	-2.408044e+01	-5.728261e+01
1.050000e-06	-3.428327e-06	-8.093096e-10	-2.382563e+01	-5.693048e+01
1.060000e-06	-3.391328e-06	-8.037784e-10	-2.356851e+01	-5.657250e+01
1.070000e-06	-3.354093e-06	-7.989974e-10	-2.330973e+01	-5.620865e+01
1.080000e-06	-3.316688e-06	-7.964062e-10	-2.304979e+01	-5.583890e+01
1.090000e-06	-3.279138e-06	-7.935597e-10	-2.278882e+01	-5.546327e+01
1.100000e-06	-3.241258e-06	-7.869181e-10	-2.252557e+01	-5.508180e+01
1.110000e-06	-3.203143e-06	-7.810577e-10	-2.226069e+01	-5.469451e+01
1.120000e-06	-3.164822e-06	-7.716820e-10	-2.199437e+01	-5.430150e+01
1.130000e-06	-3.126241e-06	-7.625395e-10	-2.172624e+01	-5.390283e+01
1.140000e-06	-3.087498e-06	-7.546326e-10	-2.145700e+01	-5.349863e+01
1.150000e-06	-3.048556e-06	-7.516980e-10	-2.118636e+01	-5.308902e+01
1.160000e-06	-3.009403e-06	-7.469169e-10	-2.091427e+01	-5.267414e+01
1.170000e-06	-2.970116e-06	-7.444359e-10	-2.064123e+01	-5.225415e+01
1.180000e-06	-2.930732e-06	-7.409677e-10	-2.036753e+01	-5.182922e+01
1.190000e-06	-2.891165e-06	-7.371763e-10	-2.009255e+01	-5.139953e+01
1.200000e-06	-2.851456e-06	-7.289040e-10	-1.981659e+01	-5.096527e+01
1.210000e-06	-2.811630e-06	-7.208807e-10	-1.953982e+01	-5.052666e+01
1.220000e-06	-2.771670e-06	-7.108552e-10	-1.926211e+01	-5.008388e+01
1.230000e-06	-2.731532e-06	-7.009017e-10	-1.898316e+01	-4.963716e+01
1.240000e-06	-2.691171e-06	-6.911554e-10	-1.870267e+01	-4.918669e+01
1.250000e-06	-2.650556e-06	-6.862515e-10	-1.842041e+01	-4.873268e+01
1.260000e-06	-2.609617e-06	-6.799410e-10	-1.813589e+01	-4.827533e+01
1.270000e-06	-2.568319e-06	-6.755282e-10	-1.784889e+01	-4.781481e+01
1.280000e-06	-2.526662e-06	-6.711677e-10	-1.755939e+01	-4.735131e+01
1.290000e-06	-2.484803e-06	-6.661240e-10	-1.726848e+01	-4.688497e+01
1.300000e-06	-2.442797e-06	-6.573695e-10	-1.697656e+01	-4.641593e+01
1.310000e-06	-2.400449e-06	-6.474225e-10	-1.668225e+01	-4.594431e+01
1.320000e-06	-2.357708e-06	-6.365546e-10	-1.638522e+01	-4.547018e+01
1.330000e-06	-2.314709e-06	-6.258694e-10	-1.608639e+01	-4.499360e+01
1.340000e-06	-2.271645e-06	-6.184527e-10	-1.578711e+01	-4.451460e+01
1.350000e-06	-2.228480e-06	-6.130184e-10	-1.548713e+01	-4.403317e+01
1.360000e-06	-2.185068e-06	-6.088422e-10	-1.518543e+01	-4.354925e+01
1.370000e-06	-2.141500e-06	-6.031861e-10	-1.488265e+01	-4.306276e+01
1.380000e-06	-2.097861e-06	-5.952968e-10	-1.457938e+01	-4.257358e+01
1.390000e-06	-2.054127e-06	-5.838444e-10	-1.427544e+01	-4.208151e+01
1.400000e-06	-2.010309e-06	-5.725630e-10	-1.397092e+01	-4.158636e+01
1.410000e-06	-1.966463e-06	-5.627191e-10	-1.366621e+01	-4.108786e+01
1.420000e-06	-1.922543e-06	-5.546273e-10	-1.336098e+01	-4.058569e+01
1.430000e-06	-1.878509e-06	-5.478096e-10	-1.305496e+01	-4.007951e+01
1.440000e-06	-1.834386e-06	-5.404175e-10	-1.274832e+01	-3.956892e+01
1.450000e-06	-1.790177e-06	-5.308739e-10	-1.244108e+01	-3.905347e+01
1.460000e-06	-1.745812e-06	-5.216362e-10	-1.213276e+01	-3.853267e+01
1.470000e-06	-1.701280e-06	-5.114239e-10	-1.182328e+01	-3.800600e+01
1.480000e-06	-1.656632e-06	-5.036757e-10	-1.151299e+01	-3.747287e+01
1.490000e-06	-1.611835e-06	-4.982132e-10	-1.120167e+01	-3.693270e+01
1.500000e-06	-1.566897e-06	-4.965097e-10	-1.088937e+01	-3.638482e+01
1.510000e-06	-1.521853e-06	-4.908686e-10	-1.057633e+01	-3.582857e+01
1.520000e-06	-1.476650e-06	-4.786780e-10	-1.026219e+01	-3.526324e+01
1.530000e-06	-1.431339e-06	-4.626169e-10	-9.947292e+00	-3.468810e+01
1.540000e-06	-1.385944e-06	-4.481226e-10	-9.631811e+00	-3.410240e+01
1.550000e-06	-1.340434e-06	-4.358259e-10	-9.315530e+00	-3.350539e+01
1.560000e-06	-1.294887e-06	-4.267382e-10	-8.999000e+00	-3.289628e+01
1.570000e-06	-1.249332e-06	-4.207354e-10	-8.682405e+00	-3.227429e+01
1.580000e-06	-1.203662e-06	-4.141611e-10	-8.365019e+00	-3.163866e+01
1.590000e-06	-1.157862e-06	-4.042915e-10	-8.046722e+00	-3.098860e+01
1.600000e-06	-1.111954e-06	-3.930302e-10	-7.727678e+00	-3.032335e+01
1.610000e-06	-1.065925e-06	-3.784409e-10	-7.407791e+00	-2.964217e+01
1.620000e-06	-1.019841e-06	-3.632896e-10	-7.087529e+00	-2.894434e+01
1.630000e-06	-9.737447e-07	-3.494449e-10	-6.767174e+00	-2.822916e+01
1.640000e-06	-9.275638e-07	-3.384861e-10	-6.446233e+00	-2.749598e+01
1.650000e-06	-8.812514e-07	-3.282925e-10	-6.124379e+00	-2.674417e+01
1.660000e-06	-8.349160e-07	-3.164780e-10	-5.802365e+00	-2.597317e+01
1.670000e-06	-7.885063e-07	-3.048235e-10	-5.479834e+00	-2.518246e+01
1.680000e-06	-7.420667e-07	-2.937206e-10	-5.157096e+00	-2.437157e+01
1.690000e-06	-6.956866e-07	-2.831743e-10	-4.834771e+00	-2.354011e+01
1.700000e-06	-6.492485e-07	-2.722251e-10	-4.512042e+00	-2.268772e+01
1.710000e-06	-6.027011e-07	-2.603455e-10	-4.188555e+00	-2.181417e+01
1.720000e-06	-5.561136e-07	-2.473076e-10	-3.864789e+00	-2.091924e+01
1.730000e-06	-5.094859e-07	-2.320145e-10	-3.540743e+00	-2.000282e+01
1.740000e-06	-4.627454e-07	-2.134955e-10	-3.215913e+00	-1.906489e+01
1.750000e-06	-4.158242e-07	-1.966885e-10	-2.889828e+00	-1.810549e+01
1.760000e-06	-3.688113e-07	-1.827190e-10	-2.563106e+00	-1.712476e+01
1.770000e-06	-3.219060e-07	-1.704824e-10	-2.237130e+00	-1.612292e+01
1.780000e-06	-2.750516e-07	-1.585008e-10	-1.911509e+00	-1.510028e+01
1.790000e-06	-2.281707e-07	-1.478074e-10	-1.585704e+00	-1.405723e+01
1.800000e-06	-1.812307e-07	-1.355003e-10	-1.259488e+00	-1.299425e+01
1.810000e-06	-1.342224e-07	-1.207684e-10	-9.327975e-01	-1.191192e+01
1.820000e-06	-8.722873e-08	-1.027972e-10	-6.062082e-01	-1.081088e+01
1.830000e-06	-4.027700e-08	-8.398799e-11	-2.799106e-01	-9.691887e+00
1.840000e-06	6.642596e-09	-6.475514e-11	4.616364e-02	-8.555743e+00
1.850000e-06	5.345350e-08	-4.703709e-11	3.714825e-01	-7.403349e+00
1.860000e-06	1.002015e-07	-3.072866e-11	6.963642e-01	-6.235671e+00
1.870000e-06	1.470427e-07	-1.595914e-11	1.021894e+00	-5.053750e+00
1.880000e-06	1.939533e-07	-5.131738e-12	1.347906e+00	-3.858688e+00
1.890000e-06	2.408525e-07	5.978398e-12	1.673838e+00	-2.651650e+00
1.900000e-06	2.876736e-07	1.910564e-11	1.999228e+00	-1.433854e+00
1.910000e-06	3.344252e-07	3.538587e-11	2.324134e+00	-2.065683e-01
1.920000e-06	3.812165e-07	5.509265e-11	2.649317e+00	1.028896e+00
1.930000e-06	4.280228e-07	7.807688e-11	2.974604e+00	2.271190e+00
1.940000e-06	4.746975e-07	1.007828e-10	3.298976e+00	3.518938e+00
1.950000e-06	5.212994e-07	1.192780e-10	3.622843e+00	4.770736e+00
1.960000e-06	5.678611e-07	1.339942e-10	3.946430e+00	6.025167e+00
1.970000e-06	6.143573e-07	1.473897e-10	4.269561e+00	7.280802e+00
1.980000e-06	6.609024e-07	1.610712e-10	4.593033e+00	8.536212e+00
1.990000e-06	7.073969e-07	1.752077e-10	4.916153e+00	9.789968e+00
2.000000e-06	7.537842e-07	1.940875e-10	5.238528e+00	1.104066e+01
2.010000e-06	8.001309e-07	2.148091e-10	5.560621e+00	1.228688e+01
2.020000e-06	8.464166e-07	2.339627e-10	5.882289e+00	1.352726e+01
2.030000e-06	8.926373e-07	2.543451e-10	6.203507e+00	1.476046e+01
2.040000e-06	9.388184e-07	2.748964e-10	6.524449e+00	1.598518e+01
2.050000e-06	9.849772e-07	2.923793e-10	6.845236e+00	1.720014e+01
2.060000e-06	1.031075e-06	3.064940e-10	7.165597e+00	1.840414e+01
2.070000e-06	1.077088e-06	3.195078e-10	7.485372e+00	1.959602e+01
2.080000e-06	1.122983e-06	3.331459e-10	7.804324e+00	2.077467e+01
2.090000e-06	1.168719e-06	3.493178e-10	8.122176e+00	2.193905e+01
2.100000e-06	1.214329e-06	3.671509e-10	8.439151e+00	2.308818e+01
2.110000e-06	1.259919e-06	3.843533e-10	8.755983e+00	2.422117e+01
2.120000e-06	1.305497e-06	4.005685e-10	9.072731e+00	2.533718e+01
2.130000e-06	1.351026e-06	4.164171e-10	9.389144e+00	2.643546e+01
2.140000e-06	1.396465e-06	4.305167e-10	9.704930e+00	2.751532e+01
2.150000e-06	1.441733e-06	4.422748e-10	1.001952e+01	2.857615e+01
2.160000e-06	1.486896e-06	4.548418e-10	1.033339e+01	2.961745e+01
2.170000e-06	1.531973e-06	4.700572e-10	1.064666e+01	3.063875e+01
2.180000e-06	1.576923e-06	4.862143e-10	1.095905e+01	3.163971e+01
2.190000e-06	1.621724e-06	5.019038e-10	1.127040e+01	3.262002e+01
2.200000e-06	1.666395e-06	5.156230e-10	1.158084e+01	3.357947e+01
2.210000e-06	1.710963e-06	5.259382e-10	1.189058e+01	3.451794e+01
2.220000e-06	1.755393e-06	5.342950e-10	1.219934e+01	3.543535e+01
2.230000e-06	1.799665e-06	5.444667e-10	1.250702e+01	3.633172e+01
2.240000e-06	1.843804e-06	5.577917e-10	1.281378e+01	3.720712e+01
2.250000e-06	1.887829e-06	5.732903e-10	1.311973e+01	3.806169e+01
2.260000e-06	1.931731e-06	5.885635e-10	1.342483e+01	3.889562e+01
2.270000e-06	1.975540e-06	6.008103e-10	1.372929e+01	3.970919e+01
2.280000e-06	2.019250e-06	6.101190e-10	1.403306e+01	4.050268e+01
2.290000e-06	2.062866e-06	6.170175e-10	1.433617e+01	4.127648e+01
2.300000e-06	2.106442e-06	6.218198e-10	1.463901e+01	4.203096e+01
2.310000e-06	2.150006e-06	6.271694e-10	1.494177e+01	4.276659e+01
2.320000e-06	2.193535e-06	6.373067e-10	1.524428e+01	4.348382e+01
2.330000e-06	2.236974e-06	6.525662e-10	1.554616e+01	4.418318e+01
2.340000e-06	2.280290e-06	6.684517e-10	1.584719e+01	4.486518e+01
2.350000e-06	2.323433e-06	6.815345e-10	1.614702e+01	4.553039e+01
2.360000e-06	2.366267e-06	6.917262e-10	1.644470e+01	4.617936e+01
2.370000e-06	2.408864e-06	6.978086e-10	1.674073e+01	4.681267e+01
2.380000e-06	2.451215e-06	7.028399e-10	1.703506e+01	4.743092e+01
2.390000e-06	2.493243e-06	7.076626e-10	1.732714e+01	4.803468e+01
2.400000e-06	2.535014e-06	7.122159e-10	1.761743e+01	4.862455e+01
2.410000e-06	2.576517e-06	7.211362e-10	1.790586e+01	4.920110e+01
2.420000e-06	2.617646e-06	7.329071e-10	1.819170e+01	4.976490e+01
2.430000e-06	2.658326e-06	7.423531e-10	1.847441e+01	5.031651e+01
2.440000e-06	2.698674e-06	7.499838e-10	1.875481e+01	5.085647e+01
2.450000e-06	2.738917e-06	7.574341e-10	1.903448e+01	5.138531e+01
2.460000e-06	2.779032e-06	7.642048e-10	1.931327e+01	5.190353e+01
2.470000e-06	2.818943e-06	7.704636e-10	1.959063e+01	5.241161e+01
2.480000e-06	2.858745e-06	7.752894e-10	1.986725e+01	5.291001e+01
2.490000e-06	2.898417e-06	7.792874e-10	2.014295e+01	5.339915e+01
2.500000e-06	2.937950e-06	7.856172e-10	2.041769e+01	5.387944e+01
2.510000e-06	2.977322e-06	7.936584e-10	2.069131e+01	5.435124e+01
2.520000e-06	3.016569e-06	8.017158e-10	2.096407e+01	5.481491e+01
2.530000e-06	3.055659e-06	8.107055e-10	2.123573e+01	5.527075e+01
2.540000e-06	3.094545e-06	8.194572e-10	2.150597e+01	5.571905e+01
2.550000e-06	3.133201e-06	8.258094e-10	2.177461e+01	5.616007e+01
2.560000e-06	3.171482e-06	8.300605e-10	2.204066e+01	5.659403e+01
2.570000e-06	3.209475e-06	8.358636e-10	2.230470e+01	5.702113e+01
2.580000e-06	3.247343e-06	8.432231e-10	2.256786e+01	5.744155e+01
2.590000e-06	3.285042e-06	8.492591e-10	2.282986e+01	5.785542e+01
2.600000e-06	3.322499e-06	8.538322e-10	2.309017e+01	5.826288e+01
2.610000e-06	3.359723e-06	8.583366e-10	2.334887e+01	5.866403e+01
2.620000e-06	3.396693e-06	8.641072e-10	2.360579e+01	5.905894e+01
2.630000e-06	3.433381e-06	8.692980e-10	2.386076e+01	5.944767e+01
2.640000e-06	3.469843e-06	8.735111e-10	2.411415e+01	5.983026e+01
2.650000e-06	3.506085e-06	8.808060e-10	2.436603e+01	6.020675e+01
2.660000e-06	3.542148e-06	8.902802e-10	2.461665e+01	6.057714e+01
2.670000e-06	3.578070e-06	8.978400e-10	2.486630e+01	6.094144e+01
2.680000e-06	3.613823e-06	9.007735e-10	2.511477e+01	6.129965e+01
2.690000e-06	3.649432e-06	8.984310e-10	2.536224e+01	6.165174e+01
2.700000e-06	3.684891e-06	8.960633e-10	2.560866e+01	6.199770e+01
2.710000e-06	3.720198e-06	8.962995e-10	2.585403e+01	6.233750e+01
2.720000e-06	3.755277e-06	8.998307e-10	2.609782e+01	6.267112e+01
2.730000e-06	3.789961e-06	9.065391e-10	2.633886e+01	6.299853e+01
2.740000e-06	3.824229e-06	9.135860e-10	2.657701e+01	6.331971e+01
2.750000e-06	3.858108e-06	9.205447e-10	2.681246e+01	6.363463e+01
2.760000e-06	3.891381e-06	9.265442e-10	2.704369e+01	6.394329e+01
2.770000e-06	3.924040e-06	9.297404e-10	2.727066e+01	6.424566e+01
2.780000e-06	3.956377e-06	9.309799e-10	2.749539e+01	6.454174e+01
2.790000e-06	3.988435e-06	9.311104e-10	2.771818e+01	6.483154e+01
2.800000e-06	4.020291e-06	9.318037e-10	2.793957e+01	6.511506e+01
2.810000e-06	4.052038e-06	9.338532e-10	2.816020e+01	6.539232e+01
2.820000e-06	4.083629e-06	9.377997e-10	2.837975e+01	6.566335e+01
2.830000e-06	4.114989e-06	9.447836e-10	2.859769e+01	6.592819e+01
2.840000e-06	4.146082e-06	9.526011e-10	2.881377e+01	6.618688e+01
2.850000e-06	4.176923e-06	9.598438e-10	2.902811e+01	6.643947e+01
2.860000e-06	4.207395e-06	9.659137e-10	2.923987e+01	6.668604e+01
2.870000e-06	4.237514e-06	9.696600e-10	2.944919e+01	6.692667e+01
2.880000e-06	4.267356e-06	9.712346e-10	2.965658e+01	6.716142e+01
2.890000e-06	4.296868e-06	9.704410e-10	2.986168e+01	6.739040e+01
2.900000e-06	4.326136e-06	9.692059e-10	3.006509e+01	6.761370e+01
2.910000e-06	4.355200e-06	9.694054e-10	3.026707e+01	6.783143e+01
