# Temperatura_=_-0.3
# Concentracion g/m^3_=_1620.0
# C_Vs_to_Am_M_A/Vsm_=_65563218390.804596
# pendiente_HvsI_1/m_=_3716.3
# ordenada_HvsI_A/m_=_1297.0
# frecuencia_Hz_=_135103.65746857863

Tiempo_(s)	Campo_(V.s)	Magnetizacion_(V.s)	Campo_(kA/m)	Magnetizacion_(A/m)
0.000000e+00	-5.506653e-06	-1.553538e-09	-3.837039e+01	-1.000497e+02
1.000000e-08	-5.506846e-06	-1.549693e-09	-3.837174e+01	-1.000202e+02
2.000000e-08	-5.506793e-06	-1.545384e-09	-3.837137e+01	-9.998986e+01
3.000000e-08	-5.506370e-06	-1.543258e-09	-3.836842e+01	-9.995864e+01
4.000000e-08	-5.505453e-06	-1.541573e-09	-3.836204e+01	-9.992645e+01
5.000000e-08	-5.503912e-06	-1.539389e-09	-3.835130e+01	-9.989321e+01
6.000000e-08	-5.501616e-06	-1.537185e-09	-3.833529e+01	-9.985879e+01
7.000000e-08	-5.498731e-06	-1.553913e-09	-3.831519e+01	-9.982306e+01
8.000000e-08	-5.495472e-06	-1.570800e-09	-3.829249e+01	-9.978586e+01
9.000000e-08	-5.491766e-06	-1.541453e-09	-3.826666e+01	-9.974702e+01
1.000000e-07	-5.487647e-06	-1.511238e-09	-3.823796e+01	-9.970636e+01
1.100000e-07	-5.483303e-06	-1.575168e-09	-3.820770e+01	-9.966367e+01
1.200000e-07	-5.478668e-06	-1.577219e-09	-3.817540e+01	-9.961876e+01
1.300000e-07	-5.473717e-06	-1.555715e-09	-3.814090e+01	-9.957140e+01
1.400000e-07	-5.468498e-06	-1.491722e-09	-3.810453e+01	-9.952136e+01
1.500000e-07	-5.462923e-06	-1.545914e-09	-3.806569e+01	-9.946843e+01
1.600000e-07	-5.456962e-06	-1.579354e-09	-3.802415e+01	-9.941235e+01
1.700000e-07	-5.450578e-06	-1.544179e-09	-3.797967e+01	-9.935290e+01
1.800000e-07	-5.443806e-06	-1.521584e-09	-3.793248e+01	-9.928984e+01
1.900000e-07	-5.436649e-06	-1.536515e-09	-3.788261e+01	-9.922293e+01
2.000000e-07	-5.429113e-06	-1.578343e-09	-3.783009e+01	-9.915195e+01
2.100000e-07	-5.421325e-06	-1.550229e-09	-3.777583e+01	-9.907667e+01
2.200000e-07	-5.413375e-06	-1.551034e-09	-3.772043e+01	-9.899688e+01
2.300000e-07	-5.405198e-06	-1.551232e-09	-3.766346e+01	-9.891236e+01
2.400000e-07	-5.396474e-06	-1.576676e-09	-3.760266e+01	-9.882291e+01
2.500000e-07	-5.387079e-06	-1.536651e-09	-3.753720e+01	-9.872836e+01
2.600000e-07	-5.376951e-06	-1.524249e-09	-3.746663e+01	-9.862852e+01
2.700000e-07	-5.366149e-06	-1.502144e-09	-3.739136e+01	-9.852323e+01
2.800000e-07	-5.354881e-06	-1.515141e-09	-3.731285e+01	-9.841234e+01
2.900000e-07	-5.343199e-06	-1.494472e-09	-3.723145e+01	-9.829574e+01
3.000000e-07	-5.331199e-06	-1.497750e-09	-3.714783e+01	-9.817329e+01
3.100000e-07	-5.318853e-06	-1.489263e-09	-3.706181e+01	-9.804490e+01
3.200000e-07	-5.306167e-06	-1.505945e-09	-3.697341e+01	-9.791048e+01
3.300000e-07	-5.293083e-06	-1.488743e-09	-3.688224e+01	-9.776998e+01
3.400000e-07	-5.279534e-06	-1.463260e-09	-3.678783e+01	-9.762335e+01
3.500000e-07	-5.265650e-06	-1.458842e-09	-3.669109e+01	-9.747054e+01
3.600000e-07	-5.251392e-06	-1.474101e-09	-3.659174e+01	-9.731155e+01
3.700000e-07	-5.236507e-06	-1.448565e-09	-3.648802e+01	-9.714638e+01
3.800000e-07	-5.220943e-06	-1.446500e-09	-3.637956e+01	-9.697505e+01
3.900000e-07	-5.204975e-06	-1.488533e-09	-3.626830e+01	-9.679758e+01
4.000000e-07	-5.188737e-06	-1.463929e-09	-3.615516e+01	-9.661403e+01
4.100000e-07	-5.172102e-06	-1.416892e-09	-3.603924e+01	-9.642445e+01
4.200000e-07	-5.155159e-06	-1.452112e-09	-3.592118e+01	-9.622893e+01
4.300000e-07	-5.137902e-06	-1.488323e-09	-3.580094e+01	-9.602753e+01
4.400000e-07	-5.120212e-06	-1.417193e-09	-3.567767e+01	-9.582036e+01
4.500000e-07	-5.102157e-06	-1.421925e-09	-3.555186e+01	-9.560753e+01
4.600000e-07	-5.083748e-06	-1.476568e-09	-3.542359e+01	-9.538914e+01
4.700000e-07	-5.064962e-06	-1.442925e-09	-3.529269e+01	-9.516533e+01
4.800000e-07	-5.045790e-06	-1.389635e-09	-3.515910e+01	-9.493621e+01
4.900000e-07	-5.026320e-06	-1.459492e-09	-3.502343e+01	-9.470191e+01
5.000000e-07	-5.006632e-06	-1.452971e-09	-3.488625e+01	-9.446258e+01
5.100000e-07	-4.986728e-06	-1.390477e-09	-3.474755e+01	-9.421835e+01
5.200000e-07	-4.966507e-06	-1.420839e-09	-3.460665e+01	-9.396935e+01
5.300000e-07	-4.945945e-06	-1.465714e-09	-3.446338e+01	-9.371574e+01
5.400000e-07	-4.924953e-06	-1.391702e-09	-3.431710e+01	-9.345763e+01
5.500000e-07	-4.903528e-06	-1.390872e-09	-3.416782e+01	-9.319517e+01
5.600000e-07	-4.881838e-06	-1.436574e-09	-3.401668e+01	-9.292848e+01
5.700000e-07	-4.859858e-06	-1.397575e-09	-3.386352e+01	-9.265770e+01
5.800000e-07	-4.837579e-06	-1.365406e-09	-3.370829e+01	-9.238294e+01
5.900000e-07	-4.815017e-06	-1.424531e-09	-3.355107e+01	-9.210430e+01
6.000000e-07	-4.792091e-06	-1.411768e-09	-3.339132e+01	-9.182191e+01
6.100000e-07	-4.768841e-06	-1.372083e-09	-3.322931e+01	-9.153584e+01
6.200000e-07	-4.745346e-06	-1.400781e-09	-3.306560e+01	-9.124619e+01
6.300000e-07	-4.721640e-06	-1.407474e-09	-3.290042e+01	-9.095304e+01
6.400000e-07	-4.697664e-06	-1.365034e-09	-3.273335e+01	-9.065644e+01
6.500000e-07	-4.673334e-06	-1.376877e-09	-3.256382e+01	-9.035646e+01
6.600000e-07	-4.648568e-06	-1.390282e-09	-3.239126e+01	-9.005312e+01
6.700000e-07	-4.623264e-06	-1.355581e-09	-3.221494e+01	-8.974647e+01
6.800000e-07	-4.597493e-06	-1.355853e-09	-3.203536e+01	-8.943653e+01
6.900000e-07	-4.571188e-06	-1.373553e-09	-3.185207e+01	-8.912329e+01
7.000000e-07	-4.544372e-06	-1.353787e-09	-3.166521e+01	-8.880674e+01
7.100000e-07	-4.517230e-06	-1.342573e-09	-3.147609e+01	-8.848688e+01
7.200000e-07	-4.489797e-06	-1.360103e-09	-3.128494e+01	-8.816366e+01
7.300000e-07	-4.462117e-06	-1.346190e-09	-3.109206e+01	-8.783704e+01
7.400000e-07	-4.434303e-06	-1.334200e-09	-3.089825e+01	-8.750697e+01
7.500000e-07	-4.406339e-06	-1.338762e-09	-3.070340e+01	-8.717337e+01
7.600000e-07	-4.378039e-06	-1.331411e-09	-3.050620e+01	-8.683616e+01
7.700000e-07	-4.349419e-06	-1.308765e-09	-3.030678e+01	-8.649526e+01
7.800000e-07	-4.320499e-06	-1.315558e-09	-3.010527e+01	-8.615056e+01
7.900000e-07	-4.291253e-06	-1.310906e-09	-2.990148e+01	-8.580196e+01
8.000000e-07	-4.261754e-06	-1.294618e-09	-2.969593e+01	-8.544932e+01
8.100000e-07	-4.232004e-06	-1.288005e-09	-2.948864e+01	-8.509253e+01
8.200000e-07	-4.201965e-06	-1.285287e-09	-2.927932e+01	-8.473145e+01
8.300000e-07	-4.171601e-06	-1.262054e-09	-2.906775e+01	-8.436594e+01
8.400000e-07	-4.140862e-06	-1.255739e-09	-2.885356e+01	-8.399585e+01
8.500000e-07	-4.109789e-06	-1.261030e-09	-2.863704e+01	-8.362104e+01
8.600000e-07	-4.078503e-06	-1.257902e-09	-2.841903e+01	-8.324134e+01
8.700000e-07	-4.047076e-06	-1.244404e-09	-2.820005e+01	-8.285661e+01
8.800000e-07	-4.015512e-06	-1.244366e-09	-2.798011e+01	-8.246668e+01
8.900000e-07	-3.983772e-06	-1.230839e-09	-2.775895e+01	-8.207141e+01
9.000000e-07	-3.951698e-06	-1.209804e-09	-2.753546e+01	-8.167063e+01
9.100000e-07	-3.919306e-06	-1.202885e-09	-2.730975e+01	-8.126420e+01
9.200000e-07	-3.886589e-06	-1.204828e-09	-2.708178e+01	-8.085196e+01
9.300000e-07	-3.853392e-06	-1.197124e-09	-2.685046e+01	-8.043377e+01
9.400000e-07	-3.819791e-06	-1.192207e-09	-2.661633e+01	-8.000950e+01
9.500000e-07	-3.785795e-06	-1.189711e-09	-2.637944e+01	-7.957902e+01
9.600000e-07	-3.751358e-06	-1.169941e-09	-2.613949e+01	-7.914220e+01
9.700000e-07	-3.716495e-06	-1.146460e-09	-2.589656e+01	-7.869894e+01
9.800000e-07	-3.681322e-06	-1.136098e-09	-2.565148e+01	-7.824913e+01
9.900000e-07	-3.645918e-06	-1.131345e-09	-2.540478e+01	-7.779269e+01
1.000000e-06	-3.610352e-06	-1.126793e-09	-2.515696e+01	-7.732954e+01
1.010000e-06	-3.574696e-06	-1.130896e-09	-2.490851e+01	-7.685962e+01
1.020000e-06	-3.538883e-06	-1.132497e-09	-2.465896e+01	-7.638287e+01
1.030000e-06	-3.502867e-06	-1.120905e-09	-2.440800e+01	-7.589927e+01
1.040000e-06	-3.466635e-06	-1.104752e-09	-2.415554e+01	-7.540880e+01
1.050000e-06	-3.430160e-06	-1.093470e-09	-2.390138e+01	-7.491145e+01
1.060000e-06	-3.393461e-06	-1.076730e-09	-2.364566e+01	-7.440724e+01
1.070000e-06	-3.356517e-06	-1.065943e-09	-2.338823e+01	-7.389619e+01
1.080000e-06	-3.319332e-06	-1.062859e-09	-2.312913e+01	-7.337836e+01
1.090000e-06	-3.281867e-06	-1.064080e-09	-2.286807e+01	-7.285381e+01
1.100000e-06	-3.244081e-06	-1.058840e-09	-2.260478e+01	-7.232261e+01
1.110000e-06	-3.206093e-06	-1.055203e-09	-2.234008e+01	-7.178485e+01
1.120000e-06	-3.167934e-06	-1.045711e-09	-2.207419e+01	-7.124065e+01
1.130000e-06	-3.129607e-06	-1.032492e-09	-2.180712e+01	-7.069013e+01
1.140000e-06	-3.091126e-06	-1.018093e-09	-2.153899e+01	-7.013342e+01
1.150000e-06	-3.052377e-06	-1.009099e-09	-2.126899e+01	-6.957067e+01
1.160000e-06	-3.013321e-06	-9.999587e-10	-2.099684e+01	-6.900203e+01
1.170000e-06	-2.974112e-06	-9.923957e-10	-2.072364e+01	-6.842767e+01
1.180000e-06	-2.934806e-06	-9.852597e-10	-2.044975e+01	-6.784777e+01
1.190000e-06	-2.895351e-06	-9.796458e-10	-2.017483e+01	-6.726250e+01
1.200000e-06	-2.855742e-06	-9.722720e-10	-1.989883e+01	-6.667205e+01
1.210000e-06	-2.816036e-06	-9.631199e-10	-1.962216e+01	-6.607660e+01
1.220000e-06	-2.776252e-06	-9.512640e-10	-1.934495e+01	-6.547634e+01
1.230000e-06	-2.736292e-06	-9.386816e-10	-1.906650e+01	-6.487145e+01
1.240000e-06	-2.696101e-06	-9.263681e-10	-1.878645e+01	-6.426210e+01
1.250000e-06	-2.655727e-06	-9.171995e-10	-1.850512e+01	-6.364846e+01
1.260000e-06	-2.615125e-06	-9.110475e-10	-1.822221e+01	-6.303070e+01
1.270000e-06	-2.574257e-06	-9.046673e-10	-1.793744e+01	-6.240896e+01
1.280000e-06	-2.533092e-06	-8.972345e-10	-1.765060e+01	-6.178336e+01
1.290000e-06	-2.491603e-06	-8.883305e-10	-1.736150e+01	-6.115403e+01
1.300000e-06	-2.449788e-06	-8.755227e-10	-1.707014e+01	-6.052106e+01
1.310000e-06	-2.407580e-06	-8.596989e-10	-1.677603e+01	-5.988451e+01
1.320000e-06	-2.365009e-06	-8.473813e-10	-1.647940e+01	-5.924443e+01
1.330000e-06	-2.322155e-06	-8.378726e-10	-1.618079e+01	-5.860083e+01
1.340000e-06	-2.279157e-06	-8.298914e-10	-1.588118e+01	-5.795371e+01
1.350000e-06	-2.236010e-06	-8.225441e-10	-1.558053e+01	-5.730302e+01
1.360000e-06	-2.192716e-06	-8.151827e-10	-1.527886e+01	-5.664867e+01
1.370000e-06	-2.149325e-06	-8.029917e-10	-1.497651e+01	-5.599056e+01
1.380000e-06	-2.105781e-06	-7.891208e-10	-1.467310e+01	-5.532853e+01
1.390000e-06	-2.062131e-06	-7.734778e-10	-1.436894e+01	-5.466239e+01
1.400000e-06	-2.018428e-06	-7.588850e-10	-1.406442e+01	-5.399191e+01
1.410000e-06	-1.974702e-06	-7.464688e-10	-1.375973e+01	-5.331681e+01
1.420000e-06	-1.930927e-06	-7.380980e-10	-1.345472e+01	-5.263679e+01
1.430000e-06	-1.887046e-06	-7.289132e-10	-1.314895e+01	-5.195149e+01
1.440000e-06	-1.843025e-06	-7.175479e-10	-1.284221e+01	-5.126051e+01
1.450000e-06	-1.798900e-06	-7.029663e-10	-1.253475e+01	-5.056343e+01
1.460000e-06	-1.754683e-06	-6.882329e-10	-1.222664e+01	-4.985976e+01
1.470000e-06	-1.710321e-06	-6.722486e-10	-1.191753e+01	-4.914900e+01
1.480000e-06	-1.665788e-06	-6.568144e-10	-1.160722e+01	-4.843059e+01
1.490000e-06	-1.621200e-06	-6.427560e-10	-1.129653e+01	-4.770394e+01
1.500000e-06	-1.576530e-06	-6.317807e-10	-1.098527e+01	-4.696845e+01
1.510000e-06	-1.531643e-06	-6.212164e-10	-1.067250e+01	-4.622347e+01
1.520000e-06	-1.486589e-06	-6.113217e-10	-1.035856e+01	-4.546831e+01
1.530000e-06	-1.441433e-06	-6.027576e-10	-1.004391e+01	-4.470228e+01
1.540000e-06	-1.396200e-06	-5.935727e-10	-9.728734e+00	-4.392466e+01
1.550000e-06	-1.350872e-06	-5.807598e-10	-9.412887e+00	-4.313471e+01
1.560000e-06	-1.305484e-06	-5.650880e-10	-9.096622e+00	-4.233170e+01
1.570000e-06	-1.260035e-06	-5.493415e-10	-8.779930e+00	-4.151485e+01
1.580000e-06	-1.214520e-06	-5.339237e-10	-8.462783e+00	-4.068342e+01
1.590000e-06	-1.168957e-06	-5.190138e-10	-8.145299e+00	-3.983665e+01
1.600000e-06	-1.123299e-06	-5.064667e-10	-7.827154e+00	-3.897378e+01
1.610000e-06	-1.077565e-06	-4.946965e-10	-7.508480e+00	-3.809409e+01
1.620000e-06	-1.031738e-06	-4.802001e-10	-7.189155e+00	-3.719684e+01
1.630000e-06	-9.857949e-07	-4.656404e-10	-6.869026e+00	-3.628135e+01
1.640000e-06	-9.397454e-07	-4.506745e-10	-6.548152e+00	-3.534695e+01
1.650000e-06	-8.935223e-07	-4.351720e-10	-6.226069e+00	-3.439299e+01
1.660000e-06	-8.472042e-07	-4.190915e-10	-5.903325e+00	-3.341888e+01
1.670000e-06	-8.008907e-07	-4.029857e-10	-5.580612e+00	-3.242407e+01
1.680000e-06	-7.545420e-07	-3.872853e-10	-5.257654e+00	-3.140806e+01
1.690000e-06	-7.081885e-07	-3.728940e-10	-4.934662e+00	-3.037039e+01
1.700000e-06	-6.617785e-07	-3.568203e-10	-4.611277e+00	-2.931067e+01
1.710000e-06	-6.153678e-07	-3.408155e-10	-4.287887e+00	-2.822858e+01
1.720000e-06	-5.689794e-07	-3.233368e-10	-3.964652e+00	-2.712385e+01
1.730000e-06	-5.225099e-07	-3.042705e-10	-3.640853e+00	-2.599630e+01
1.740000e-06	-4.759613e-07	-2.839166e-10	-3.316501e+00	-2.484580e+01
1.750000e-06	-4.293608e-07	-2.636251e-10	-2.991789e+00	-2.367232e+01
1.760000e-06	-3.827195e-07	-2.451557e-10	-2.666792e+00	-2.247590e+01
1.770000e-06	-3.360736e-07	-2.292867e-10	-2.341763e+00	-2.125667e+01
1.780000e-06	-2.894374e-07	-2.138872e-10	-2.016802e+00	-2.001482e+01
1.790000e-06	-2.427527e-07	-1.973597e-10	-1.691503e+00	-1.875066e+01
1.800000e-06	-1.959898e-07	-1.795187e-10	-1.365658e+00	-1.746455e+01
1.810000e-06	-1.492673e-07	-1.605881e-10	-1.040096e+00	-1.615697e+01
1.820000e-06	-1.025837e-07	-1.405428e-10	-7.148037e-01	-1.482845e+01
1.830000e-06	-5.583552e-08	-1.201601e-10	-3.890623e-01	-1.347964e+01
1.840000e-06	-9.075122e-09	-1.008921e-10	-6.323551e-02	-1.211124e+01
1.850000e-06	3.759992e-08	-8.318134e-11	2.619965e-01	-1.072406e+01
1.860000e-06	8.419008e-08	-6.563823e-11	5.866370e-01	-9.318957e+00
1.870000e-06	1.308681e-07	-4.585750e-11	9.118897e-01	-7.896890e+00
1.880000e-06	1.776265e-07	-2.618535e-11	1.237703e+00	-6.458875e+00
1.890000e-06	2.242816e-07	-8.604457e-12	1.562796e+00	-5.006000e+00
1.900000e-06	2.708739e-07	8.272438e-12	1.887451e+00	-3.539414e+00
1.910000e-06	3.175053e-07	2.555218e-11	2.212379e+00	-2.060325e+00
1.920000e-06	3.640941e-07	4.466181e-11	2.537010e+00	-5.699931e-01
1.930000e-06	4.106720e-07	6.645198e-11	2.861565e+00	9.302744e-01
1.940000e-06	4.572581e-07	8.882268e-11	3.186178e+00	2.439129e+00
1.950000e-06	5.037915e-07	1.103336e-10	3.510423e+00	3.955188e+00
1.960000e-06	5.502635e-07	1.310078e-10	3.834239e+00	5.477039e+00
1.970000e-06	5.965770e-07	1.511295e-10	4.156953e+00	7.003250e+00
1.980000e-06	6.427988e-07	1.699547e-10	4.479027e+00	8.532371e+00
1.990000e-06	6.890120e-07	1.875748e-10	4.801040e+00	1.006295e+01
2.000000e-06	7.351748e-07	2.056996e-10	5.122703e+00	1.159352e+01
2.010000e-06	7.813079e-07	2.248092e-10	5.444159e+00	1.312263e+01
2.020000e-06	8.274192e-07	2.447511e-10	5.765463e+00	1.464885e+01
2.030000e-06	8.734435e-07	2.674279e-10	6.086160e+00	1.617074e+01
2.040000e-06	9.193430e-07	2.901770e-10	6.405989e+00	1.768692e+01
2.050000e-06	9.652423e-07	3.120919e-10	6.725815e+00	1.919603e+01
2.060000e-06	1.011172e-06	3.327906e-10	7.045854e+00	2.069672e+01
2.070000e-06	1.057013e-06	3.516667e-10	7.365277e+00	2.218772e+01
2.080000e-06	1.102719e-06	3.701550e-10	7.683752e+00	2.366780e+01
2.090000e-06	1.148302e-06	3.903363e-10	8.001376e+00	2.513576e+01
2.100000e-06	1.193806e-06	4.122969e-10	8.318446e+00	2.659049e+01
2.110000e-06	1.239282e-06	4.341678e-10	8.635329e+00	2.803093e+01
2.120000e-06	1.284720e-06	4.551587e-10	8.951937e+00	2.945608e+01
2.130000e-06	1.330060e-06	4.751077e-10	9.267865e+00	3.086501e+01
2.140000e-06	1.375282e-06	4.940756e-10	9.582971e+00	3.225687e+01
2.150000e-06	1.420482e-06	5.112245e-10	9.897925e+00	3.363088e+01
2.160000e-06	1.465602e-06	5.289810e-10	1.021232e+01	3.498634e+01
2.170000e-06	1.510627e-06	5.490372e-10	1.052606e+01	3.632261e+01
2.180000e-06	1.555591e-06	5.691566e-10	1.083937e+01	3.763915e+01
2.190000e-06	1.600358e-06	5.894074e-10	1.115131e+01	3.893548e+01
2.200000e-06	1.644939e-06	6.094818e-10	1.146195e+01	4.021121e+01
2.210000e-06	1.689378e-06	6.261410e-10	1.177160e+01	4.146601e+01
2.220000e-06	1.733626e-06	6.393796e-10	1.207992e+01	4.269964e+01
2.230000e-06	1.777773e-06	6.519736e-10	1.238754e+01	4.391192e+01
2.240000e-06	1.821833e-06	6.662283e-10	1.269454e+01	4.510276e+01
2.250000e-06	1.865728e-06	6.832772e-10	1.300040e+01	4.627211e+01
2.260000e-06	1.909494e-06	7.033582e-10	1.330537e+01	4.742000e+01
2.270000e-06	1.953205e-06	7.230680e-10	1.360995e+01	4.854652e+01
2.280000e-06	1.996920e-06	7.398903e-10	1.391456e+01	4.965182e+01
2.290000e-06	2.040609e-06	7.546833e-10	1.421898e+01	5.073609e+01
2.300000e-06	2.084250e-06	7.666755e-10	1.452307e+01	5.179957e+01
2.310000e-06	2.127803e-06	7.771005e-10	1.482654e+01	5.284256e+01
2.320000e-06	2.171276e-06	7.897404e-10	1.512947e+01	5.386539e+01
2.330000e-06	2.214651e-06	8.052632e-10	1.543170e+01	5.486842e+01
2.340000e-06	2.257830e-06	8.218253e-10	1.573258e+01	5.585203e+01
2.350000e-06	2.300788e-06	8.368564e-10	1.603190e+01	5.681666e+01
2.360000e-06	2.343558e-06	8.509501e-10	1.632993e+01	5.776273e+01
2.370000e-06	2.386092e-06	8.643287e-10	1.662631e+01	5.869070e+01
2.380000e-06	2.428323e-06	8.763381e-10	1.692057e+01	5.960103e+01
2.390000e-06	2.470193e-06	8.880004e-10	1.721232e+01	6.049418e+01
2.400000e-06	2.511738e-06	8.999028e-10	1.750181e+01	6.137064e+01
2.410000e-06	2.552978e-06	9.126970e-10	1.778917e+01	6.223087e+01
2.420000e-06	2.593861e-06	9.269342e-10	1.807404e+01	6.307532e+01
2.430000e-06	2.634524e-06	9.399883e-10	1.835738e+01	6.390447e+01
2.440000e-06	2.675055e-06	9.491654e-10	1.863980e+01	6.471874e+01
2.450000e-06	2.715370e-06	9.558227e-10	1.892072e+01	6.551856e+01
2.460000e-06	2.755400e-06	9.623334e-10	1.919965e+01	6.630434e+01
2.470000e-06	2.795212e-06	9.691345e-10	1.947706e+01	6.707646e+01
2.480000e-06	2.834928e-06	9.783088e-10	1.975380e+01	6.783530e+01
2.490000e-06	2.874557e-06	9.915589e-10	2.002993e+01	6.858119e+01
2.500000e-06	2.914092e-06	1.006597e-09	2.030541e+01	6.931444e+01
2.510000e-06	2.953566e-06	1.021673e-09	2.058047e+01	7.003536e+01
2.520000e-06	2.992877e-06	1.032947e-09	2.085438e+01	7.074421e+01
2.530000e-06	3.031894e-06	1.039869e-09	2.112626e+01	7.144122e+01
2.540000e-06	3.070661e-06	1.045453e-09	2.139639e+01	7.212661e+01
2.550000e-06	3.109242e-06	1.053069e-09	2.166522e+01	7.280058e+01
2.560000e-06	3.147578e-06	1.062632e-09	2.193235e+01	7.346329e+01
2.570000e-06	3.185685e-06	1.072801e-09	2.219788e+01	7.411488e+01
2.580000e-06	3.223595e-06	1.085169e-09	2.246203e+01	7.475548e+01
2.590000e-06	3.261246e-06	1.098702e-09	2.272438e+01	7.538518e+01
2.600000e-06	3.298698e-06	1.107307e-09	2.298535e+01	7.600409e+01
2.610000e-06	3.335984e-06	1.110454e-09	2.324516e+01	7.661226e+01
2.620000e-06	3.373038e-06	1.115213e-09	2.350335e+01	7.720977e+01
2.630000e-06	3.409771e-06	1.121643e-09	2.375931e+01	7.779664e+01
2.640000e-06	3.446168e-06	1.129083e-09	2.401292e+01	7.837293e+01
2.650000e-06	3.482370e-06	1.137804e-09	2.426518e+01	7.893867e+01
2.660000e-06	3.518453e-06	1.148154e-09	2.451660e+01	7.949388e+01
2.670000e-06	3.554327e-06	1.158052e-09	2.476658e+01	8.003860e+01
2.680000e-06	3.589959e-06	1.166721e-09	2.501486e+01	8.057286e+01
2.690000e-06	3.625474e-06	1.173608e-09	2.526233e+01	8.109668e+01
2.700000e-06	3.660924e-06	1.179906e-09	2.550934e+01	8.161011e+01
2.710000e-06	3.696255e-06	1.187769e-09	2.575553e+01	8.211319e+01
2.720000e-06	3.731369e-06	1.192959e-09	2.600021e+01	8.260599e+01
2.730000e-06	3.766186e-06	1.194919e-09	2.624281e+01	8.308856e+01
2.740000e-06	3.800639e-06	1.197343e-09	2.648288e+01	8.356099e+01
2.750000e-06	3.834534e-06	1.201382e-09	2.671906e+01	8.402336e+01
2.760000e-06	3.867810e-06	1.208711e-09	2.695093e+01	8.447579e+01
2.770000e-06	3.900605e-06	1.217263e-09	2.717944e+01	8.491840e+01
2.780000e-06	3.932998e-06	1.228320e-09	2.740516e+01	8.535133e+01
2.790000e-06	3.965113e-06	1.237416e-09	2.762894e+01	8.577473e+01
2.800000e-06	3.997043e-06	1.241886e-09	2.785142e+01	8.618878e+01
2.810000e-06	4.028814e-06	1.246564e-09	2.807281e+01	8.659365e+01
2.820000e-06	4.060411e-06	1.248518e-09	2.829297e+01	8.698955e+01
2.830000e-06	4.091764e-06	1.254373e-09	2.851144e+01	8.737670e+01
2.840000e-06	4.122918e-06	1.262204e-09	2.872852e+01	8.775532e+01
2.850000e-06	4.153798e-06	1.269816e-09	2.894369e+01	8.812566e+01
2.860000e-06	4.184372e-06	1.278002e-09	2.915673e+01	8.848796e+01
2.870000e-06	4.214658e-06	1.285588e-09	2.936777e+01	8.884249e+01
2.880000e-06	4.244582e-06	1.292529e-09	2.957627e+01	8.918951e+01
2.890000e-06	4.274187e-06	1.295829e-09	2.978256e+01	8.952930e+01
2.900000e-06	4.303527e-06	1.297514e-09	2.998701e+01	8.986213e+01
2.910000e-06	4.332661e-06	1.299889e-09	3.019001e+01	9.018828e+01
