# Temperatura_=_-19.22
# Concentracion g/m^3_=_1620.0
# C_Vs_to_Am_M_A/Vsm_=_65563218390.804596
# pendiente_HvsI_1/m_=_3716.3
# ordenada_HvsI_A/m_=_1297.0
# frecuencia_Hz_=_135106.12816595245

Tiempo_(s)	Campo_(V.s)	Magnetizacion_(V.s)	Campo_(kA/m)	Magnetizacion_(A/m)
0.000000e+00	-5.518486e-06	-7.319795e-10	-3.836919e+01	-4.775941e+01
1.000000e-08	-5.518713e-06	-7.311785e-10	-3.837077e+01	-4.772787e+01
2.000000e-08	-5.518666e-06	-7.314560e-10	-3.837044e+01	-4.769344e+01
3.000000e-08	-5.518237e-06	-7.334662e-10	-3.836746e+01	-4.765614e+01
4.000000e-08	-5.517362e-06	-7.362266e-10	-3.836138e+01	-4.761599e+01
5.000000e-08	-5.515880e-06	-7.395189e-10	-3.835107e+01	-4.757305e+01
6.000000e-08	-5.513763e-06	-7.434753e-10	-3.833636e+01	-4.752736e+01
7.000000e-08	-5.511075e-06	-7.596410e-10	-3.831766e+01	-4.747903e+01
8.000000e-08	-5.507891e-06	-7.611145e-10	-3.829553e+01	-4.742816e+01
9.000000e-08	-5.504268e-06	-7.215577e-10	-3.827033e+01	-4.737486e+01
1.000000e-07	-5.500223e-06	-6.968269e-10	-3.824221e+01	-4.731929e+01
1.100000e-07	-5.495857e-06	-7.419251e-10	-3.821185e+01	-4.726162e+01
1.200000e-07	-5.491249e-06	-7.718561e-10	-3.817982e+01	-4.720202e+01
1.300000e-07	-5.486364e-06	-7.538115e-10	-3.814585e+01	-4.714070e+01
1.400000e-07	-5.481095e-06	-7.073576e-10	-3.810922e+01	-4.707788e+01
1.500000e-07	-5.475443e-06	-7.443576e-10	-3.806992e+01	-4.701379e+01
1.600000e-07	-5.469440e-06	-7.727937e-10	-3.802818e+01	-4.694868e+01
1.700000e-07	-5.463019e-06	-7.493618e-10	-3.798354e+01	-4.688281e+01
1.800000e-07	-5.456178e-06	-6.998467e-10	-3.793597e+01	-4.681644e+01
1.900000e-07	-5.448922e-06	-7.194220e-10	-3.788552e+01	-4.674987e+01
2.000000e-07	-5.441281e-06	-7.512568e-10	-3.783240e+01	-4.668336e+01
2.100000e-07	-5.433385e-06	-7.434312e-10	-3.777750e+01	-4.661721e+01
2.200000e-07	-5.425336e-06	-7.133698e-10	-3.772154e+01	-4.655170e+01
2.300000e-07	-5.417074e-06	-7.070288e-10	-3.766409e+01	-4.648712e+01
2.400000e-07	-5.408335e-06	-7.159046e-10	-3.760333e+01	-4.642375e+01
2.500000e-07	-5.398869e-06	-6.967795e-10	-3.753751e+01	-4.636186e+01
2.600000e-07	-5.388694e-06	-6.859183e-10	-3.746677e+01	-4.630172e+01
2.700000e-07	-5.377977e-06	-6.799496e-10	-3.739225e+01	-4.624358e+01
2.800000e-07	-5.366795e-06	-6.908595e-10	-3.731451e+01	-4.618766e+01
2.900000e-07	-5.355244e-06	-6.762318e-10	-3.723419e+01	-4.613421e+01
3.000000e-07	-5.343327e-06	-6.732194e-10	-3.715134e+01	-4.608340e+01
3.100000e-07	-5.330992e-06	-6.657737e-10	-3.706558e+01	-4.603542e+01
3.200000e-07	-5.318206e-06	-6.857905e-10	-3.697667e+01	-4.599043e+01
3.300000e-07	-5.305037e-06	-6.764746e-10	-3.688511e+01	-4.594856e+01
3.400000e-07	-5.291576e-06	-6.671016e-10	-3.679152e+01	-4.590990e+01
3.500000e-07	-5.277730e-06	-6.638089e-10	-3.669525e+01	-4.587454e+01
3.600000e-07	-5.263403e-06	-6.855547e-10	-3.659564e+01	-4.584251e+01
3.700000e-07	-5.248535e-06	-6.676781e-10	-3.649227e+01	-4.581384e+01
3.800000e-07	-5.233174e-06	-6.617866e-10	-3.638546e+01	-4.578851e+01
3.900000e-07	-5.217210e-06	-6.804187e-10	-3.627447e+01	-4.576648e+01
4.000000e-07	-5.200774e-06	-6.757744e-10	-3.616019e+01	-4.574766e+01
4.100000e-07	-5.184093e-06	-6.468769e-10	-3.604421e+01	-4.573197e+01
4.200000e-07	-5.167073e-06	-6.732392e-10	-3.592587e+01	-4.571927e+01
4.300000e-07	-5.149705e-06	-6.964046e-10	-3.580512e+01	-4.570938e+01
4.400000e-07	-5.131973e-06	-6.561163e-10	-3.568183e+01	-4.570214e+01
4.500000e-07	-5.113864e-06	-6.474540e-10	-3.555591e+01	-4.569732e+01
4.600000e-07	-5.095329e-06	-6.888163e-10	-3.542704e+01	-4.569469e+01
4.700000e-07	-5.076392e-06	-6.732627e-10	-3.529538e+01	-4.569399e+01
4.800000e-07	-5.057065e-06	-6.402856e-10	-3.516100e+01	-4.569495e+01
4.900000e-07	-5.037468e-06	-6.776918e-10	-3.502475e+01	-4.569728e+01
5.000000e-07	-5.017749e-06	-6.845726e-10	-3.488764e+01	-4.570066e+01
5.100000e-07	-4.997797e-06	-6.445121e-10	-3.474892e+01	-4.570479e+01
5.200000e-07	-4.977488e-06	-6.598826e-10	-3.460771e+01	-4.570933e+01
5.300000e-07	-4.956822e-06	-6.899010e-10	-3.446403e+01	-4.571395e+01
5.400000e-07	-4.935840e-06	-6.476238e-10	-3.431814e+01	-4.571833e+01
5.500000e-07	-4.914491e-06	-6.431375e-10	-3.416970e+01	-4.572212e+01
5.600000e-07	-4.892829e-06	-6.859545e-10	-3.401910e+01	-4.572501e+01
5.700000e-07	-4.870889e-06	-6.772300e-10	-3.386655e+01	-4.572666e+01
5.800000e-07	-4.848506e-06	-6.503543e-10	-3.371092e+01	-4.572676e+01
5.900000e-07	-4.825739e-06	-6.801944e-10	-3.355262e+01	-4.572502e+01
6.000000e-07	-4.802699e-06	-6.806858e-10	-3.339243e+01	-4.572114e+01
6.100000e-07	-4.779380e-06	-6.548850e-10	-3.323030e+01	-4.571485e+01
6.200000e-07	-4.755795e-06	-6.651440e-10	-3.306632e+01	-4.570589e+01
6.300000e-07	-4.731967e-06	-6.819418e-10	-3.290064e+01	-4.569405e+01
6.400000e-07	-4.707929e-06	-6.640954e-10	-3.273351e+01	-4.567910e+01
6.500000e-07	-4.683586e-06	-6.705337e-10	-3.256426e+01	-4.566087e+01
6.600000e-07	-4.658770e-06	-6.845493e-10	-3.239172e+01	-4.563920e+01
6.700000e-07	-4.633431e-06	-6.727854e-10	-3.221554e+01	-4.561394e+01
6.800000e-07	-4.607537e-06	-6.619894e-10	-3.203550e+01	-4.558499e+01
6.900000e-07	-4.581084e-06	-6.717638e-10	-3.185158e+01	-4.555228e+01
7.000000e-07	-4.554201e-06	-6.677644e-10	-3.166466e+01	-4.551574e+01
7.100000e-07	-4.526952e-06	-6.602704e-10	-3.147520e+01	-4.547534e+01
7.200000e-07	-4.499418e-06	-6.641723e-10	-3.128377e+01	-4.543110e+01
7.300000e-07	-4.471684e-06	-6.650531e-10	-3.109094e+01	-4.538302e+01
7.400000e-07	-4.443763e-06	-6.609705e-10	-3.089681e+01	-4.533116e+01
7.500000e-07	-4.415595e-06	-6.635449e-10	-3.070096e+01	-4.527557e+01
7.600000e-07	-4.387175e-06	-6.677683e-10	-3.050336e+01	-4.521636e+01
7.700000e-07	-4.358522e-06	-6.670922e-10	-3.030414e+01	-4.515363e+01
7.800000e-07	-4.329442e-06	-6.694585e-10	-3.010195e+01	-4.508749e+01
7.900000e-07	-4.299989e-06	-6.711695e-10	-2.989717e+01	-4.501809e+01
8.000000e-07	-4.270318e-06	-6.677121e-10	-2.969087e+01	-4.494558e+01
8.100000e-07	-4.240427e-06	-6.614180e-10	-2.948304e+01	-4.487011e+01
8.200000e-07	-4.210270e-06	-6.593743e-10	-2.927336e+01	-4.479185e+01
8.300000e-07	-4.179804e-06	-6.547958e-10	-2.906154e+01	-4.471097e+01
8.400000e-07	-4.149039e-06	-6.548650e-10	-2.884763e+01	-4.462764e+01
8.500000e-07	-4.117961e-06	-6.601307e-10	-2.863156e+01	-4.454202e+01
8.600000e-07	-4.086649e-06	-6.659879e-10	-2.841385e+01	-4.445428e+01
8.700000e-07	-4.055135e-06	-6.632149e-10	-2.819474e+01	-4.436458e+01
8.800000e-07	-4.023408e-06	-6.646116e-10	-2.797414e+01	-4.427307e+01
8.900000e-07	-3.991526e-06	-6.622442e-10	-2.775247e+01	-4.417988e+01
9.000000e-07	-3.959452e-06	-6.527828e-10	-2.752947e+01	-4.408514e+01
9.100000e-07	-3.927069e-06	-6.448432e-10	-2.730431e+01	-4.398895e+01
9.200000e-07	-3.894369e-06	-6.452815e-10	-2.707695e+01	-4.389142e+01
9.300000e-07	-3.861314e-06	-6.433703e-10	-2.684713e+01	-4.379261e+01
9.400000e-07	-3.827778e-06	-6.432517e-10	-2.661396e+01	-4.369258e+01
9.500000e-07	-3.793727e-06	-6.464369e-10	-2.637721e+01	-4.359137e+01
9.600000e-07	-3.759235e-06	-6.469141e-10	-2.613739e+01	-4.348897e+01
9.700000e-07	-3.724433e-06	-6.400908e-10	-2.589542e+01	-4.338540e+01
9.800000e-07	-3.689352e-06	-6.380650e-10	-2.565150e+01	-4.328061e+01
9.900000e-07	-3.653991e-06	-6.354610e-10	-2.540565e+01	-4.317456e+01
1.000000e-06	-3.618426e-06	-6.278561e-10	-2.515837e+01	-4.306717e+01
1.010000e-06	-3.582661e-06	-6.244503e-10	-2.490969e+01	-4.295835e+01
1.020000e-06	-3.546686e-06	-6.266081e-10	-2.465957e+01	-4.284799e+01
1.030000e-06	-3.510549e-06	-6.249058e-10	-2.440831e+01	-4.273595e+01
1.040000e-06	-3.474281e-06	-6.230877e-10	-2.415615e+01	-4.262209e+01
1.050000e-06	-3.437780e-06	-6.253774e-10	-2.390236e+01	-4.250624e+01
1.060000e-06	-3.400959e-06	-6.238331e-10	-2.364635e+01	-4.238824e+01
1.070000e-06	-3.363890e-06	-6.184537e-10	-2.338861e+01	-4.226790e+01
1.080000e-06	-3.326569e-06	-6.152379e-10	-2.312913e+01	-4.214501e+01
1.090000e-06	-3.289015e-06	-6.148305e-10	-2.286802e+01	-4.201939e+01
1.100000e-06	-3.251277e-06	-6.105902e-10	-2.260563e+01	-4.189081e+01
1.110000e-06	-3.213315e-06	-6.081021e-10	-2.234169e+01	-4.175908e+01
1.120000e-06	-3.175131e-06	-6.076317e-10	-2.207620e+01	-4.162399e+01
1.130000e-06	-3.136700e-06	-6.047919e-10	-2.180900e+01	-4.148532e+01
1.140000e-06	-3.098020e-06	-5.995493e-10	-2.154006e+01	-4.134289e+01
1.150000e-06	-3.059131e-06	-5.985730e-10	-2.126967e+01	-4.119649e+01
1.160000e-06	-3.020055e-06	-5.981249e-10	-2.099798e+01	-4.104594e+01
1.170000e-06	-2.980781e-06	-5.963103e-10	-2.072491e+01	-4.089106e+01
1.180000e-06	-2.941333e-06	-5.939960e-10	-2.045064e+01	-4.073170e+01
1.190000e-06	-2.901738e-06	-5.923323e-10	-2.017534e+01	-4.056771e+01
1.200000e-06	-2.861977e-06	-5.873842e-10	-1.989889e+01	-4.039895e+01
1.210000e-06	-2.822100e-06	-5.839321e-10	-1.962163e+01	-4.022531e+01
1.220000e-06	-2.782096e-06	-5.818165e-10	-1.934349e+01	-4.004668e+01
1.230000e-06	-2.741935e-06	-5.776772e-10	-1.906425e+01	-3.986300e+01
1.240000e-06	-2.701643e-06	-5.703173e-10	-1.878411e+01	-3.967419e+01
1.250000e-06	-2.661126e-06	-5.659962e-10	-1.850240e+01	-3.948021e+01
1.260000e-06	-2.620364e-06	-5.639214e-10	-1.821899e+01	-3.928103e+01
1.270000e-06	-2.579352e-06	-5.617427e-10	-1.793384e+01	-3.907664e+01
1.280000e-06	-2.537978e-06	-5.608728e-10	-1.764617e+01	-3.886703e+01
1.290000e-06	-2.496353e-06	-5.609610e-10	-1.735676e+01	-3.865224e+01
1.300000e-06	-2.454596e-06	-5.576889e-10	-1.706643e+01	-3.843228e+01
1.310000e-06	-2.412567e-06	-5.509531e-10	-1.677421e+01	-3.820719e+01
1.320000e-06	-2.370111e-06	-5.452492e-10	-1.647902e+01	-3.797704e+01
1.330000e-06	-2.327321e-06	-5.405050e-10	-1.618151e+01	-3.774186e+01
1.340000e-06	-2.284278e-06	-5.375354e-10	-1.588223e+01	-3.750173e+01
1.350000e-06	-2.241080e-06	-5.380609e-10	-1.558189e+01	-3.725670e+01
1.360000e-06	-2.197864e-06	-5.389180e-10	-1.528141e+01	-3.700683e+01
1.370000e-06	-2.154512e-06	-5.375546e-10	-1.497999e+01	-3.675219e+01
1.380000e-06	-2.110940e-06	-5.356324e-10	-1.467704e+01	-3.649281e+01
1.390000e-06	-2.067203e-06	-5.302615e-10	-1.437295e+01	-3.622874e+01
1.400000e-06	-2.023381e-06	-5.221526e-10	-1.406826e+01	-3.596000e+01
1.410000e-06	-1.979499e-06	-5.163824e-10	-1.376315e+01	-3.568661e+01
1.420000e-06	-1.935524e-06	-5.150074e-10	-1.345741e+01	-3.540857e+01
1.430000e-06	-1.891434e-06	-5.140921e-10	-1.315085e+01	-3.512583e+01
1.440000e-06	-1.847226e-06	-5.123724e-10	-1.284348e+01	-3.483837e+01
1.450000e-06	-1.802968e-06	-5.103173e-10	-1.253576e+01	-3.454609e+01
1.460000e-06	-1.758631e-06	-5.075411e-10	-1.222749e+01	-3.424890e+01
1.470000e-06	-1.714211e-06	-5.016912e-10	-1.191864e+01	-3.394667e+01
1.480000e-06	-1.669673e-06	-4.965942e-10	-1.160898e+01	-3.363925e+01
1.490000e-06	-1.624941e-06	-4.925248e-10	-1.129796e+01	-3.332643e+01
1.500000e-06	-1.580052e-06	-4.880307e-10	-1.098586e+01	-3.300800e+01
1.510000e-06	-1.535053e-06	-4.835101e-10	-1.067299e+01	-3.268371e+01
1.520000e-06	-1.489972e-06	-4.786569e-10	-1.035955e+01	-3.235327e+01
1.530000e-06	-1.444777e-06	-4.743048e-10	-1.004532e+01	-3.201636e+01
1.540000e-06	-1.399468e-06	-4.696730e-10	-9.730290e+00	-3.167263e+01
1.550000e-06	-1.354073e-06	-4.646817e-10	-9.414660e+00	-3.132172e+01
1.560000e-06	-1.308565e-06	-4.595181e-10	-9.098253e+00	-3.096322e+01
1.570000e-06	-1.262978e-06	-4.538050e-10	-8.781293e+00	-3.059669e+01
1.580000e-06	-1.217365e-06	-4.475151e-10	-8.464150e+00	-3.022170e+01
1.590000e-06	-1.171682e-06	-4.391717e-10	-8.146523e+00	-2.983776e+01
1.600000e-06	-1.125874e-06	-4.308455e-10	-7.828030e+00	-2.944438e+01
1.610000e-06	-1.079968e-06	-4.238647e-10	-7.508851e+00	-2.904108e+01
1.620000e-06	-1.033963e-06	-4.149386e-10	-7.188985e+00	-2.862733e+01
1.630000e-06	-9.878333e-07	-4.053015e-10	-6.868254e+00	-2.820262e+01
1.640000e-06	-9.416041e-07	-3.991893e-10	-6.546830e+00	-2.776643e+01
1.650000e-06	-8.953238e-07	-3.926951e-10	-6.225050e+00	-2.731825e+01
1.660000e-06	-8.489674e-07	-3.836150e-10	-5.902740e+00	-2.685756e+01
1.670000e-06	-8.025582e-07	-3.750077e-10	-5.580065e+00	-2.638387e+01
1.680000e-06	-7.561175e-07	-3.677194e-10	-5.257170e+00	-2.589670e+01
1.690000e-06	-7.096003e-07	-3.592593e-10	-4.933743e+00	-2.539559e+01
1.700000e-06	-6.630690e-07	-3.509334e-10	-4.610217e+00	-2.488011e+01
1.710000e-06	-6.165630e-07	-3.408419e-10	-4.286869e+00	-2.434987e+01
1.720000e-06	-5.700198e-07	-3.285185e-10	-3.963260e+00	-2.380449e+01
1.730000e-06	-5.234185e-07	-3.171462e-10	-3.639249e+00	-2.324364e+01
1.740000e-06	-4.767908e-07	-3.075017e-10	-3.315054e+00	-2.266706e+01
1.750000e-06	-4.301912e-07	-2.989827e-10	-2.991054e+00	-2.207449e+01
1.760000e-06	-3.835752e-07	-2.896284e-10	-2.666940e+00	-2.146575e+01
1.770000e-06	-3.368203e-07	-2.805808e-10	-2.341860e+00	-2.084073e+01
1.780000e-06	-2.900603e-07	-2.710924e-10	-2.016745e+00	-2.019933e+01
1.790000e-06	-2.432495e-07	-2.613109e-10	-1.691277e+00	-1.954156e+01
1.800000e-06	-1.964468e-07	-2.519681e-10	-1.365865e+00	-1.886744e+01
1.810000e-06	-1.496971e-07	-2.424876e-10	-1.040821e+00	-1.817711e+01
1.820000e-06	-1.028871e-07	-2.305346e-10	-7.153580e-01	-1.747072e+01
1.830000e-06	-5.604695e-08	-2.175478e-10	-3.896859e-01	-1.674851e+01
1.840000e-06	-9.189863e-09	-2.053630e-10	-6.389571e-02	-1.601080e+01
1.850000e-06	3.767425e-08	-1.945657e-10	2.619433e-01	-1.525794e+01
1.860000e-06	8.461414e-08	-1.836899e-10	5.883092e-01	-1.449037e+01
1.870000e-06	1.315113e-07	-1.716785e-10	9.143781e-01	-1.370858e+01
1.880000e-06	1.782896e-07	-1.587289e-10	1.239621e+00	-1.291311e+01
1.890000e-06	2.250191e-07	-1.470456e-10	1.564524e+00	-1.210458e+01
1.900000e-06	2.717138e-07	-1.366029e-10	1.889185e+00	-1.128365e+01
1.910000e-06	3.184456e-07	-1.256525e-10	2.214103e+00	-1.045103e+01
1.920000e-06	3.652010e-07	-1.128859e-10	2.539187e+00	-9.607498e+00
1.930000e-06	4.119230e-07	-9.953501e-11	2.864038e+00	-8.753848e+00
1.940000e-06	4.586211e-07	-8.595074e-11	3.188723e+00	-7.890929e+00
1.950000e-06	5.053036e-07	-7.142435e-11	3.513299e+00	-7.019623e+00
1.960000e-06	5.519372e-07	-5.760589e-11	3.837535e+00	-6.140842e+00
1.970000e-06	5.984521e-07	-4.506422e-11	4.160946e+00	-5.255523e+00
1.980000e-06	6.448893e-07	-3.491184e-11	4.483817e+00	-4.364621e+00
1.990000e-06	6.912966e-07	-2.736461e-11	4.806479e+00	-3.469107e+00
2.000000e-06	7.376806e-07	-1.876665e-11	5.128981e+00	-2.569964e+00
2.010000e-06	7.840293e-07	-6.965440e-12	5.451236e+00	-1.668174e+00
2.020000e-06	8.303455e-07	7.250047e-12	5.773266e+00	-7.647201e-01
2.030000e-06	8.765431e-07	2.441457e-11	6.094470e+00	1.394212e-01
2.040000e-06	9.226089e-07	4.227024e-11	6.414759e+00	1.043286e+00
2.050000e-06	9.686488e-07	5.641477e-11	6.734867e+00	1.945928e+00
2.060000e-06	1.014690e-06	6.533620e-11	7.054982e+00	2.846421e+00
2.070000e-06	1.060619e-06	7.296786e-11	7.374324e+00	3.743866e+00
2.080000e-06	1.106443e-06	8.213466e-11	7.692931e+00	4.637394e+00
2.090000e-06	1.152251e-06	9.374682e-11	8.011427e+00	5.526172e+00
2.100000e-06	1.197971e-06	1.085962e-10	8.329309e+00	6.409402e+00
2.110000e-06	1.243570e-06	1.240576e-10	8.646353e+00	7.286330e+00
2.120000e-06	1.289080e-06	1.379180e-10	8.962778e+00	8.156244e+00
2.130000e-06	1.334546e-06	1.496865e-10	9.278894e+00	9.018478e+00
2.140000e-06	1.379965e-06	1.587697e-10	9.594688e+00	9.872416e+00
2.150000e-06	1.425213e-06	1.653831e-10	9.909285e+00	1.071749e+01
2.160000e-06	1.470289e-06	1.727295e-10	1.022270e+01	1.155318e+01
2.170000e-06	1.515330e-06	1.833064e-10	1.053586e+01	1.237903e+01
2.180000e-06	1.560299e-06	1.952383e-10	1.084852e+01	1.319461e+01
2.190000e-06	1.605120e-06	2.094228e-10	1.116015e+01	1.399957e+01
2.200000e-06	1.649708e-06	2.236902e-10	1.147017e+01	1.479359e+01
2.210000e-06	1.694113e-06	2.352531e-10	1.177891e+01	1.557642e+01
2.220000e-06	1.738465e-06	2.430114e-10	1.208728e+01	1.634782e+01
2.230000e-06	1.782701e-06	2.500472e-10	1.239485e+01	1.710763e+01
2.240000e-06	1.826822e-06	2.606149e-10	1.270162e+01	1.785573e+01
2.250000e-06	1.870886e-06	2.716502e-10	1.300798e+01	1.859203e+01
2.260000e-06	1.914877e-06	2.835487e-10	1.331384e+01	1.931648e+01
2.270000e-06	1.958797e-06	2.949735e-10	1.361922e+01	2.002907e+01
2.280000e-06	2.002633e-06	3.049392e-10	1.392400e+01	2.072983e+01
2.290000e-06	2.046414e-06	3.123091e-10	1.422840e+01	2.141879e+01
2.300000e-06	2.090181e-06	3.184173e-10	1.453271e+01	2.209604e+01
2.310000e-06	2.133888e-06	3.254270e-10	1.483660e+01	2.276167e+01
2.320000e-06	2.177503e-06	3.353991e-10	1.513985e+01	2.341580e+01
2.330000e-06	2.221050e-06	3.488336e-10	1.544263e+01	2.405856e+01
2.340000e-06	2.264435e-06	3.628413e-10	1.574427e+01	2.469010e+01
2.350000e-06	2.307622e-06	3.733614e-10	1.604454e+01	2.531056e+01
2.360000e-06	2.350586e-06	3.812887e-10	1.634327e+01	2.592010e+01
2.370000e-06	2.393249e-06	3.884580e-10	1.663989e+01	2.651887e+01
2.380000e-06	2.435582e-06	3.942340e-10	1.693423e+01	2.710705e+01
2.390000e-06	2.477624e-06	4.002874e-10	1.722654e+01	2.768477e+01
2.400000e-06	2.519368e-06	4.082746e-10	1.751678e+01	2.825218e+01
2.410000e-06	2.560666e-06	4.195742e-10	1.780392e+01	2.880943e+01
2.420000e-06	2.601603e-06	4.316714e-10	1.808855e+01	2.935665e+01
2.430000e-06	2.642300e-06	4.434338e-10	1.837151e+01	2.989395e+01
2.440000e-06	2.682774e-06	4.517430e-10	1.865292e+01	3.042143e+01
2.450000e-06	2.723100e-06	4.556273e-10	1.893330e+01	3.093919e+01
2.460000e-06	2.763236e-06	4.590490e-10	1.921236e+01	3.144729e+01
2.470000e-06	2.803196e-06	4.631546e-10	1.949019e+01	3.194581e+01
2.480000e-06	2.843037e-06	4.692440e-10	1.976720e+01	3.243479e+01
2.490000e-06	2.882758e-06	4.782120e-10	2.004337e+01	3.291425e+01
2.500000e-06	2.922402e-06	4.885622e-10	2.031901e+01	3.338421e+01
2.510000e-06	2.961951e-06	4.996056e-10	2.059399e+01	3.384468e+01
2.520000e-06	3.001291e-06	5.078751e-10	2.086752e+01	3.429564e+01
2.530000e-06	3.040316e-06	5.136359e-10	2.113885e+01	3.473707e+01
2.540000e-06	3.079081e-06	5.184729e-10	2.140838e+01	3.516894e+01
2.550000e-06	3.117751e-06	5.225393e-10	2.167724e+01	3.559120e+01
2.560000e-06	3.156236e-06	5.259609e-10	2.194483e+01	3.600383e+01
2.570000e-06	3.194471e-06	5.308953e-10	2.221067e+01	3.640675e+01
2.580000e-06	3.232520e-06	5.379437e-10	2.247522e+01	3.679992e+01
2.590000e-06	3.270313e-06	5.452829e-10	2.273799e+01	3.718329e+01
2.600000e-06	3.307866e-06	5.506587e-10	2.299909e+01	3.755681e+01
2.610000e-06	3.345254e-06	5.526511e-10	2.325904e+01	3.792042e+01
2.620000e-06	3.382379e-06	5.547759e-10	2.351717e+01	3.827409e+01
2.630000e-06	3.419186e-06	5.585689e-10	2.377308e+01	3.861779e+01
2.640000e-06	3.455764e-06	5.617794e-10	2.402740e+01	3.895148e+01
2.650000e-06	3.492087e-06	5.663059e-10	2.427995e+01	3.927517e+01
2.660000e-06	3.528180e-06	5.729994e-10	2.453090e+01	3.958886e+01
2.670000e-06	3.564154e-06	5.774890e-10	2.478102e+01	3.989256e+01
2.680000e-06	3.600008e-06	5.791713e-10	2.503031e+01	4.018631e+01
2.690000e-06	3.635726e-06	5.794390e-10	2.527865e+01	4.047017e+01
2.700000e-06	3.671316e-06	5.788782e-10	2.552610e+01	4.074421e+01
2.710000e-06	3.706721e-06	5.790572e-10	2.577227e+01	4.100852e+01
2.720000e-06	3.741812e-06	5.808063e-10	2.601625e+01	4.126322e+01
2.730000e-06	3.776505e-06	5.845143e-10	2.625746e+01	4.150844e+01
2.740000e-06	3.810754e-06	5.884082e-10	2.649559e+01	4.174433e+01
2.750000e-06	3.844537e-06	5.926163e-10	2.673048e+01	4.197108e+01
2.760000e-06	3.877863e-06	5.964189e-10	2.696219e+01	4.218887e+01
2.770000e-06	3.910720e-06	5.971888e-10	2.719064e+01	4.239792e+01
2.780000e-06	3.943126e-06	5.965912e-10	2.741595e+01	4.259847e+01
2.790000e-06	3.975225e-06	5.968072e-10	2.763913e+01	4.279076e+01
2.800000e-06	4.007142e-06	5.990160e-10	2.786104e+01	4.297506e+01
2.810000e-06	4.038943e-06	6.019762e-10	2.808216e+01	4.315166e+01
2.820000e-06	4.070638e-06	6.043562e-10	2.830253e+01	4.332084e+01
2.830000e-06	4.102087e-06	6.068594e-10	2.852119e+01	4.348292e+01
2.840000e-06	4.133216e-06	6.100441e-10	2.873762e+01	4.363820e+01
2.850000e-06	4.164109e-06	6.134236e-10	2.895242e+01	4.378700e+01
2.860000e-06	4.194763e-06	6.165232e-10	2.916555e+01	4.392966e+01
2.870000e-06	4.225055e-06	6.184092e-10	2.937616e+01	4.406650e+01
2.880000e-06	4.255009e-06	6.183195e-10	2.958443e+01	4.419785e+01
2.890000e-06	4.284694e-06	6.173451e-10	2.979083e+01	4.432404e+01
2.900000e-06	4.314103e-06	6.181088e-10	2.999530e+01	4.444540e+01
