# Temperatura_=_-18.46
# Concentracion g/m^3_=_1620.0
# C_Vs_to_Am_M_A/Vsm_=_65563218390.804596
# pendiente_HvsI_1/m_=_3716.3
# ordenada_HvsI_A/m_=_1297.0
# frecuencia_Hz_=_135106.34241554362

Tiempo_(s)	Campo_(V.s)	Magnetizacion_(V.s)	Campo_(kA/m)	Magnetizacion_(A/m)
0.000000e+00	-5.526656e-06	-7.422723e-10	-3.837021e+01	-4.945781e+01
1.000000e-08	-5.526871e-06	-7.409262e-10	-3.837169e+01	-4.947661e+01
2.000000e-08	-5.526873e-06	-7.362755e-10	-3.837171e+01	-4.949336e+01
3.000000e-08	-5.526562e-06	-7.332056e-10	-3.836955e+01	-4.950791e+01
4.000000e-08	-5.525813e-06	-7.323906e-10	-3.836435e+01	-4.952009e+01
5.000000e-08	-5.524615e-06	-7.334648e-10	-3.835604e+01	-4.952976e+01
6.000000e-08	-5.522891e-06	-7.380783e-10	-3.834406e+01	-4.953679e+01
7.000000e-08	-5.520510e-06	-7.410858e-10	-3.832753e+01	-4.954106e+01
8.000000e-08	-5.517529e-06	-7.479434e-10	-3.830684e+01	-4.954244e+01
9.000000e-08	-5.514021e-06	-7.447395e-10	-3.828248e+01	-4.954085e+01
1.000000e-07	-5.510006e-06	-7.187007e-10	-3.825461e+01	-4.953622e+01
1.100000e-07	-5.505671e-06	-6.877275e-10	-3.822451e+01	-4.952847e+01
1.200000e-07	-5.501226e-06	-7.602570e-10	-3.819365e+01	-4.951756e+01
1.300000e-07	-5.496631e-06	-7.589684e-10	-3.816175e+01	-4.950346e+01
1.400000e-07	-5.491652e-06	-7.438188e-10	-3.812718e+01	-4.948616e+01
1.500000e-07	-5.486163e-06	-6.907860e-10	-3.808907e+01	-4.946567e+01
1.600000e-07	-5.480283e-06	-7.431976e-10	-3.804825e+01	-4.944202e+01
1.700000e-07	-5.474076e-06	-7.770699e-10	-3.800515e+01	-4.941524e+01
1.800000e-07	-5.467441e-06	-7.216607e-10	-3.795909e+01	-4.938542e+01
1.900000e-07	-5.460328e-06	-6.932428e-10	-3.790970e+01	-4.935262e+01
2.000000e-07	-5.452836e-06	-7.093803e-10	-3.785769e+01	-4.931695e+01
2.100000e-07	-5.445111e-06	-7.532279e-10	-3.780405e+01	-4.927854e+01
2.200000e-07	-5.437162e-06	-7.083024e-10	-3.774887e+01	-4.923750e+01
2.300000e-07	-5.428976e-06	-6.911420e-10	-3.769203e+01	-4.919401e+01
2.400000e-07	-5.420447e-06	-6.850186e-10	-3.763282e+01	-4.914822e+01
2.500000e-07	-5.411333e-06	-7.177598e-10	-3.756954e+01	-4.910032e+01
2.600000e-07	-5.401526e-06	-6.761870e-10	-3.750146e+01	-4.905050e+01
2.700000e-07	-5.391155e-06	-6.824220e-10	-3.742945e+01	-4.899897e+01
2.800000e-07	-5.380139e-06	-6.813012e-10	-3.735297e+01	-4.894595e+01
2.900000e-07	-5.368565e-06	-7.005337e-10	-3.727262e+01	-4.889167e+01
3.000000e-07	-5.356696e-06	-6.743789e-10	-3.719021e+01	-4.883635e+01
3.100000e-07	-5.344516e-06	-6.831505e-10	-3.710565e+01	-4.878024e+01
3.200000e-07	-5.331904e-06	-6.853178e-10	-3.701809e+01	-4.872358e+01
3.300000e-07	-5.318826e-06	-7.021563e-10	-3.692729e+01	-4.866662e+01
3.400000e-07	-5.305373e-06	-6.924894e-10	-3.683389e+01	-4.860960e+01
3.500000e-07	-5.291592e-06	-6.816121e-10	-3.673821e+01	-4.855277e+01
3.600000e-07	-5.277424e-06	-6.822087e-10	-3.663984e+01	-4.849637e+01
3.700000e-07	-5.262772e-06	-6.989210e-10	-3.653812e+01	-4.844064e+01
3.800000e-07	-5.247485e-06	-6.821597e-10	-3.643199e+01	-4.838579e+01
3.900000e-07	-5.231551e-06	-6.765863e-10	-3.632136e+01	-4.833205e+01
4.000000e-07	-5.215271e-06	-7.117763e-10	-3.620833e+01	-4.827963e+01
4.100000e-07	-5.198729e-06	-7.047413e-10	-3.609349e+01	-4.822872e+01
4.200000e-07	-5.181759e-06	-6.755636e-10	-3.597567e+01	-4.817951e+01
4.300000e-07	-5.164394e-06	-6.961579e-10	-3.585511e+01	-4.813215e+01
4.400000e-07	-5.146804e-06	-7.302809e-10	-3.573298e+01	-4.808680e+01
4.500000e-07	-5.128845e-06	-6.674685e-10	-3.560830e+01	-4.804357e+01
4.600000e-07	-5.110395e-06	-6.649955e-10	-3.548021e+01	-4.800259e+01
4.700000e-07	-5.091598e-06	-7.146690e-10	-3.534971e+01	-4.796393e+01
4.800000e-07	-5.072411e-06	-7.029001e-10	-3.521649e+01	-4.792765e+01
4.900000e-07	-5.052848e-06	-6.526583e-10	-3.508067e+01	-4.789381e+01
5.000000e-07	-5.033119e-06	-7.151777e-10	-3.494370e+01	-4.786242e+01
5.100000e-07	-5.013222e-06	-7.202164e-10	-3.480556e+01	-4.783347e+01
5.200000e-07	-4.993072e-06	-6.667845e-10	-3.466566e+01	-4.780692e+01
5.300000e-07	-4.972590e-06	-6.827676e-10	-3.452346e+01	-4.778274e+01
5.400000e-07	-4.951744e-06	-7.309725e-10	-3.437873e+01	-4.776083e+01
5.500000e-07	-4.930536e-06	-6.696146e-10	-3.423149e+01	-4.774109e+01
5.600000e-07	-4.908968e-06	-6.696742e-10	-3.408175e+01	-4.772340e+01
5.700000e-07	-4.887020e-06	-7.248813e-10	-3.392937e+01	-4.770760e+01
5.800000e-07	-4.864721e-06	-7.058827e-10	-3.377455e+01	-4.769353e+01
5.900000e-07	-4.842085e-06	-6.681145e-10	-3.361740e+01	-4.768100e+01
6.000000e-07	-4.819159e-06	-7.195745e-10	-3.345823e+01	-4.766978e+01
6.100000e-07	-4.795949e-06	-7.213634e-10	-3.329709e+01	-4.765966e+01
6.200000e-07	-4.772422e-06	-6.823931e-10	-3.313374e+01	-4.765039e+01
6.300000e-07	-4.748668e-06	-7.025027e-10	-3.296883e+01	-4.764169e+01
6.400000e-07	-4.724734e-06	-7.221089e-10	-3.280266e+01	-4.763331e+01
6.500000e-07	-4.700463e-06	-6.888895e-10	-3.263415e+01	-4.762495e+01
6.600000e-07	-4.675741e-06	-6.923282e-10	-3.246251e+01	-4.761633e+01
6.700000e-07	-4.650568e-06	-7.126935e-10	-3.228774e+01	-4.760713e+01
6.800000e-07	-4.624893e-06	-6.908951e-10	-3.210949e+01	-4.759705e+01
6.900000e-07	-4.598718e-06	-6.883558e-10	-3.192776e+01	-4.758578e+01
7.000000e-07	-4.571994e-06	-7.078556e-10	-3.174222e+01	-4.757301e+01
7.100000e-07	-4.544816e-06	-7.045528e-10	-3.155353e+01	-4.755843e+01
7.200000e-07	-4.517335e-06	-6.948285e-10	-3.136274e+01	-4.754174e+01
7.300000e-07	-4.489639e-06	-7.091606e-10	-3.117045e+01	-4.752265e+01
7.400000e-07	-4.461756e-06	-7.003262e-10	-3.097686e+01	-4.750085e+01
7.500000e-07	-4.433685e-06	-6.904404e-10	-3.078197e+01	-4.747608e+01
7.600000e-07	-4.405376e-06	-6.915487e-10	-3.058543e+01	-4.744806e+01
7.700000e-07	-4.376753e-06	-6.954434e-10	-3.038671e+01	-4.741654e+01
7.800000e-07	-4.347829e-06	-6.846264e-10	-3.018590e+01	-4.738130e+01
7.900000e-07	-4.318633e-06	-6.914582e-10	-2.998320e+01	-4.734210e+01
8.000000e-07	-4.289154e-06	-6.917400e-10	-2.977853e+01	-4.729875e+01
8.100000e-07	-4.259350e-06	-6.851875e-10	-2.957161e+01	-4.725108e+01
8.200000e-07	-4.229216e-06	-6.765047e-10	-2.936240e+01	-4.719893e+01
8.300000e-07	-4.198826e-06	-6.782558e-10	-2.915141e+01	-4.714216e+01
8.400000e-07	-4.168188e-06	-6.662221e-10	-2.893869e+01	-4.708066e+01
8.500000e-07	-4.137225e-06	-6.645603e-10	-2.872373e+01	-4.701436e+01
8.600000e-07	-4.105928e-06	-6.700351e-10	-2.850644e+01	-4.694319e+01
8.700000e-07	-4.074397e-06	-6.740623e-10	-2.828753e+01	-4.686712e+01
8.800000e-07	-4.042738e-06	-6.691685e-10	-2.806773e+01	-4.678613e+01
8.900000e-07	-4.010966e-06	-6.745067e-10	-2.784714e+01	-4.670024e+01
9.000000e-07	-3.979024e-06	-6.722393e-10	-2.762537e+01	-4.660948e+01
9.100000e-07	-3.946799e-06	-6.599368e-10	-2.740165e+01	-4.651392e+01
9.200000e-07	-3.914187e-06	-6.533053e-10	-2.717523e+01	-4.641364e+01
9.300000e-07	-3.881173e-06	-6.543241e-10	-2.694602e+01	-4.630874e+01
9.400000e-07	-3.847761e-06	-6.517462e-10	-2.671405e+01	-4.619935e+01
9.500000e-07	-3.814001e-06	-6.528039e-10	-2.647966e+01	-4.608561e+01
9.600000e-07	-3.779812e-06	-6.607489e-10	-2.624230e+01	-4.596767e+01
9.700000e-07	-3.745060e-06	-6.589275e-10	-2.600102e+01	-4.584571e+01
9.800000e-07	-3.709859e-06	-6.523690e-10	-2.575663e+01	-4.571992e+01
9.900000e-07	-3.674410e-06	-6.519689e-10	-2.551052e+01	-4.559048e+01
1.000000e-06	-3.638760e-06	-6.541192e-10	-2.526301e+01	-4.545761e+01
1.010000e-06	-3.602943e-06	-6.495291e-10	-2.501434e+01	-4.532152e+01
1.020000e-06	-3.567027e-06	-6.525692e-10	-2.476498e+01	-4.518242e+01
1.030000e-06	-3.530988e-06	-6.554891e-10	-2.451478e+01	-4.504053e+01
1.040000e-06	-3.494808e-06	-6.531887e-10	-2.426358e+01	-4.489606e+01
1.050000e-06	-3.458366e-06	-6.500542e-10	-2.401058e+01	-4.474922e+01
1.060000e-06	-3.421570e-06	-6.530930e-10	-2.375511e+01	-4.460022e+01
1.070000e-06	-3.384519e-06	-6.480300e-10	-2.349788e+01	-4.444926e+01
1.080000e-06	-3.347244e-06	-6.446932e-10	-2.323908e+01	-4.429652e+01
1.090000e-06	-3.309743e-06	-6.466315e-10	-2.297872e+01	-4.414218e+01
1.100000e-06	-3.272051e-06	-6.505607e-10	-2.271704e+01	-4.398639e+01
1.110000e-06	-3.234158e-06	-6.452855e-10	-2.245396e+01	-4.382929e+01
1.120000e-06	-3.196041e-06	-6.447097e-10	-2.218932e+01	-4.367102e+01
1.130000e-06	-3.157682e-06	-6.423025e-10	-2.192301e+01	-4.351167e+01
1.140000e-06	-3.119080e-06	-6.370651e-10	-2.165500e+01	-4.335132e+01
1.150000e-06	-3.080269e-06	-6.317312e-10	-2.138554e+01	-4.319002e+01
1.160000e-06	-3.041186e-06	-6.331211e-10	-2.111420e+01	-4.302782e+01
1.170000e-06	-3.001874e-06	-6.332309e-10	-2.084127e+01	-4.286470e+01
1.180000e-06	-2.962464e-06	-6.317380e-10	-2.056765e+01	-4.270065e+01
1.190000e-06	-2.922918e-06	-6.302288e-10	-2.029310e+01	-4.253562e+01
1.200000e-06	-2.883226e-06	-6.276663e-10	-2.001752e+01	-4.236953e+01
1.210000e-06	-2.843355e-06	-6.219673e-10	-1.974071e+01	-4.220227e+01
1.220000e-06	-2.803317e-06	-6.187215e-10	-1.946273e+01	-4.203372e+01
1.230000e-06	-2.763135e-06	-6.183529e-10	-1.918376e+01	-4.186370e+01
1.240000e-06	-2.722861e-06	-6.149344e-10	-1.890415e+01	-4.169204e+01
1.250000e-06	-2.682470e-06	-6.131145e-10	-1.862372e+01	-4.151850e+01
1.260000e-06	-2.641840e-06	-6.122815e-10	-1.834164e+01	-4.134286e+01
1.270000e-06	-2.600940e-06	-6.099037e-10	-1.805768e+01	-4.116484e+01
1.280000e-06	-2.559730e-06	-6.049745e-10	-1.777157e+01	-4.098415e+01
1.290000e-06	-2.518256e-06	-6.021861e-10	-1.748363e+01	-4.080048e+01
1.300000e-06	-2.476550e-06	-6.005669e-10	-1.719407e+01	-4.061350e+01
1.310000e-06	-2.434482e-06	-5.984557e-10	-1.690201e+01	-4.042286e+01
1.320000e-06	-2.392015e-06	-5.934902e-10	-1.660717e+01	-4.022818e+01
1.330000e-06	-2.349322e-06	-5.892456e-10	-1.631076e+01	-4.002908e+01
1.340000e-06	-2.306412e-06	-5.840590e-10	-1.601285e+01	-3.982517e+01
1.350000e-06	-2.263205e-06	-5.805585e-10	-1.571287e+01	-3.961604e+01
1.360000e-06	-2.219782e-06	-5.766095e-10	-1.541140e+01	-3.940126e+01
1.370000e-06	-2.176207e-06	-5.736656e-10	-1.510887e+01	-3.918043e+01
1.380000e-06	-2.132525e-06	-5.683428e-10	-1.480559e+01	-3.895311e+01
1.390000e-06	-2.088746e-06	-5.595374e-10	-1.450164e+01	-3.871888e+01
1.400000e-06	-2.044936e-06	-5.495092e-10	-1.419749e+01	-3.847730e+01
1.410000e-06	-2.001127e-06	-5.437279e-10	-1.389333e+01	-3.822795e+01
1.420000e-06	-1.957229e-06	-5.406109e-10	-1.358855e+01	-3.797041e+01
1.430000e-06	-1.913224e-06	-5.393352e-10	-1.328304e+01	-3.770427e+01
1.440000e-06	-1.869115e-06	-5.370585e-10	-1.297680e+01	-3.742913e+01
1.450000e-06	-1.824893e-06	-5.330135e-10	-1.266978e+01	-3.714458e+01
1.460000e-06	-1.780529e-06	-5.250393e-10	-1.236177e+01	-3.685025e+01
1.470000e-06	-1.736004e-06	-5.152113e-10	-1.205265e+01	-3.654578e+01
1.480000e-06	-1.691380e-06	-5.070542e-10	-1.174283e+01	-3.623081e+01
1.490000e-06	-1.646634e-06	-5.022543e-10	-1.143217e+01	-3.590501e+01
1.500000e-06	-1.601789e-06	-5.000097e-10	-1.112082e+01	-3.556807e+01
1.510000e-06	-1.556829e-06	-4.995056e-10	-1.080868e+01	-3.521969e+01
1.520000e-06	-1.511702e-06	-4.968007e-10	-1.049537e+01	-3.485960e+01
1.530000e-06	-1.466389e-06	-4.887798e-10	-1.018078e+01	-3.448755e+01
1.540000e-06	-1.420921e-06	-4.766992e-10	-9.865104e+00	-3.410331e+01
1.550000e-06	-1.375499e-06	-4.657195e-10	-9.549749e+00	-3.370667e+01
1.560000e-06	-1.330055e-06	-4.545768e-10	-9.234241e+00	-3.329745e+01
1.570000e-06	-1.284475e-06	-4.454662e-10	-8.917794e+00	-3.287549e+01
1.580000e-06	-1.238826e-06	-4.426642e-10	-8.600860e+00	-3.244066e+01
1.590000e-06	-1.193121e-06	-4.399379e-10	-8.283541e+00	-3.199283e+01
1.600000e-06	-1.147321e-06	-4.356904e-10	-7.965568e+00	-3.153193e+01
1.610000e-06	-1.101385e-06	-4.300151e-10	-7.646645e+00	-3.105788e+01
1.620000e-06	-1.055367e-06	-4.205649e-10	-7.327153e+00	-3.057064e+01
1.630000e-06	-1.009269e-06	-4.077460e-10	-7.007106e+00	-3.007019e+01
1.640000e-06	-9.630483e-07	-3.983774e-10	-6.686206e+00	-2.955652e+01
1.650000e-06	-9.167487e-07	-3.908673e-10	-6.364759e+00	-2.902965e+01
1.660000e-06	-8.704425e-07	-3.856319e-10	-6.043267e+00	-2.848962e+01
1.670000e-06	-8.241655e-07	-3.789904e-10	-5.721977e+00	-2.793648e+01
1.680000e-06	-7.777719e-07	-3.700908e-10	-5.399877e+00	-2.737031e+01
1.690000e-06	-7.312070e-07	-3.583142e-10	-5.076589e+00	-2.679120e+01
1.700000e-06	-6.845933e-07	-3.468150e-10	-4.752961e+00	-2.619926e+01
1.710000e-06	-6.380590e-07	-3.364136e-10	-4.429886e+00	-2.559461e+01
1.720000e-06	-5.916267e-07	-3.284990e-10	-4.107518e+00	-2.497738e+01
1.730000e-06	-5.451199e-07	-3.213783e-10	-3.784633e+00	-2.434772e+01
1.740000e-06	-4.985177e-07	-3.130788e-10	-3.461085e+00	-2.370580e+01
1.750000e-06	-4.518126e-07	-3.031928e-10	-3.136823e+00	-2.305178e+01
1.760000e-06	-4.050090e-07	-2.925618e-10	-2.811877e+00	-2.238586e+01
1.770000e-06	-3.582367e-07	-2.833908e-10	-2.487149e+00	-2.170823e+01
1.780000e-06	-3.114680e-07	-2.745976e-10	-2.162445e+00	-2.101909e+01
1.790000e-06	-2.645942e-07	-2.651225e-10	-1.837012e+00	-2.031866e+01
1.800000e-06	-2.176599e-07	-2.563641e-10	-1.511159e+00	-1.960716e+01
1.810000e-06	-1.707574e-07	-2.471163e-10	-1.185526e+00	-1.888483e+01
1.820000e-06	-1.238787e-07	-2.363971e-10	-8.600594e-01	-1.815189e+01
1.830000e-06	-7.701036e-08	-2.262785e-10	-5.346638e-01	-1.740861e+01
1.840000e-06	-3.016806e-08	-2.158503e-10	-2.094493e-01	-1.665523e+01
1.850000e-06	1.674254e-08	-2.046567e-10	1.162393e-01	-1.589202e+01
1.860000e-06	6.370183e-08	-1.935985e-10	4.422660e-01	-1.511927e+01
1.870000e-06	1.106264e-07	-1.810826e-10	7.680514e-01	-1.433724e+01
1.880000e-06	1.576021e-07	-1.681495e-10	1.094193e+00	-1.354623e+01
1.890000e-06	2.045421e-07	-1.571562e-10	1.420085e+00	-1.274654e+01
1.900000e-06	2.513508e-07	-1.476609e-10	1.745066e+00	-1.193848e+01
1.910000e-06	2.982276e-07	-1.397018e-10	2.070521e+00	-1.112236e+01
1.920000e-06	3.451338e-07	-1.314895e-10	2.396178e+00	-1.029853e+01
1.930000e-06	3.919242e-07	-1.215216e-10	2.721033e+00	-9.467322e+00
1.940000e-06	4.386412e-07	-1.089970e-10	3.045377e+00	-8.629086e+00
1.950000e-06	4.853390e-07	-9.450625e-11	3.369588e+00	-7.784188e+00
1.960000e-06	5.320626e-07	-7.896718e-11	3.693979e+00	-6.933007e+00
1.970000e-06	5.787248e-07	-6.483347e-11	4.017943e+00	-6.075932e+00
1.980000e-06	6.252608e-07	-5.256824e-11	4.341031e+00	-5.213367e+00
1.990000e-06	6.716980e-07	-4.458463e-11	4.663433e+00	-4.345728e+00
2.000000e-06	7.180815e-07	-3.815752e-11	4.985462e+00	-3.473448e+00
2.010000e-06	7.644398e-07	-2.657359e-11	5.307316e+00	-2.596971e+00
2.020000e-06	8.107309e-07	-1.250873e-11	5.628704e+00	-1.716757e+00
2.030000e-06	8.569217e-07	3.236995e-12	5.949395e+00	-8.332806e-01
2.040000e-06	9.031061e-07	2.262802e-11	6.270042e+00	5.297097e-02
2.050000e-06	9.492655e-07	4.001768e-11	6.590515e+00	9.414949e-01
2.060000e-06	9.953532e-07	5.416829e-11	6.910490e+00	1.831775e+00
2.070000e-06	1.041417e-06	6.426706e-11	7.230303e+00	2.723282e+00
2.080000e-06	1.087413e-06	7.299919e-11	7.549638e+00	3.615473e+00
2.090000e-06	1.133270e-06	8.302315e-11	7.868012e+00	4.507793e+00
2.100000e-06	1.179035e-06	9.736942e-11	8.185748e+00	5.399677e+00
2.110000e-06	1.224715e-06	1.135746e-10	8.502895e+00	6.290549e+00
2.120000e-06	1.270298e-06	1.300950e-10	8.819363e+00	7.179823e+00
2.130000e-06	1.315807e-06	1.448205e-10	9.135323e+00	8.066905e+00
2.140000e-06	1.361229e-06	1.570008e-10	9.450673e+00	8.951196e+00
2.150000e-06	1.406582e-06	1.664897e-10	9.765547e+00	9.832090e+00
2.160000e-06	1.451848e-06	1.746697e-10	1.007982e+01	1.070898e+01
2.170000e-06	1.496960e-06	1.862794e-10	1.039302e+01	1.158125e+01
2.180000e-06	1.541892e-06	2.004529e-10	1.070497e+01	1.244829e+01
2.190000e-06	1.586735e-06	2.156254e-10	1.101630e+01	1.330949e+01
2.200000e-06	1.631496e-06	2.307277e-10	1.132707e+01	1.416425e+01
2.210000e-06	1.676103e-06	2.427068e-10	1.163676e+01	1.501197e+01
2.220000e-06	1.720590e-06	2.502704e-10	1.194563e+01	1.585205e+01
2.230000e-06	1.764966e-06	2.565939e-10	1.225372e+01	1.668392e+01
2.240000e-06	1.809188e-06	2.647644e-10	1.256074e+01	1.750699e+01
2.250000e-06	1.853283e-06	2.760343e-10	1.286688e+01	1.832072e+01
2.260000e-06	1.897315e-06	2.905011e-10	1.317259e+01	1.912456e+01
2.270000e-06	1.941286e-06	3.053797e-10	1.347787e+01	1.991800e+01
2.280000e-06	1.985199e-06	3.173752e-10	1.378274e+01	2.070053e+01
2.290000e-06	2.029063e-06	3.272973e-10	1.408728e+01	2.147166e+01
2.300000e-06	2.072880e-06	3.356895e-10	1.439149e+01	2.223095e+01
2.310000e-06	2.116635e-06	3.419555e-10	1.469527e+01	2.297797e+01
2.320000e-06	2.160304e-06	3.484378e-10	1.499846e+01	2.371231e+01
2.330000e-06	2.203903e-06	3.598969e-10	1.530115e+01	2.443360e+01
2.340000e-06	2.247411e-06	3.729363e-10	1.560322e+01	2.514149e+01
2.350000e-06	2.290750e-06	3.842347e-10	1.590411e+01	2.583568e+01
2.360000e-06	2.333786e-06	3.938467e-10	1.620290e+01	2.651588e+01
2.370000e-06	2.376540e-06	4.024186e-10	1.649973e+01	2.718186e+01
2.380000e-06	2.419054e-06	4.092491e-10	1.679490e+01	2.783339e+01
2.390000e-06	2.461301e-06	4.153386e-10	1.708821e+01	2.847032e+01
2.400000e-06	2.503178e-06	4.192897e-10	1.737894e+01	2.909249e+01
2.410000e-06	2.544728e-06	4.228614e-10	1.766742e+01	2.969980e+01
2.420000e-06	2.586080e-06	4.300217e-10	1.795451e+01	3.029219e+01
2.430000e-06	2.627104e-06	4.401846e-10	1.823933e+01	3.086962e+01
2.440000e-06	2.667726e-06	4.521134e-10	1.852136e+01	3.143210e+01
2.450000e-06	2.708099e-06	4.629711e-10	1.880166e+01	3.197966e+01
2.460000e-06	2.748343e-06	4.702710e-10	1.908107e+01	3.251237e+01
2.470000e-06	2.788463e-06	4.746940e-10	1.935961e+01	3.303035e+01
2.480000e-06	2.828496e-06	4.769002e-10	1.963754e+01	3.353371e+01
2.490000e-06	2.868379e-06	4.789732e-10	1.991444e+01	3.402264e+01
2.500000e-06	2.908104e-06	4.842366e-10	2.019025e+01	3.449732e+01
2.510000e-06	2.947740e-06	4.946170e-10	2.046543e+01	3.495799e+01
2.520000e-06	2.987163e-06	5.079339e-10	2.073913e+01	3.540488e+01
2.530000e-06	3.026305e-06	5.168834e-10	2.101089e+01	3.583826e+01
2.540000e-06	3.065255e-06	5.217290e-10	2.128131e+01	3.625845e+01
2.550000e-06	3.104035e-06	5.262545e-10	2.155054e+01	3.666574e+01
2.560000e-06	3.142558e-06	5.286105e-10	2.181800e+01	3.706047e+01
2.570000e-06	3.180841e-06	5.310628e-10	2.208379e+01	3.744299e+01
2.580000e-06	3.218923e-06	5.367132e-10	2.234818e+01	3.781366e+01
2.590000e-06	3.256795e-06	5.461832e-10	2.261112e+01	3.817285e+01
2.600000e-06	3.294514e-06	5.545842e-10	2.287299e+01	3.852095e+01
2.610000e-06	3.332039e-06	5.603118e-10	2.313352e+01	3.885832e+01
2.620000e-06	3.369355e-06	5.637936e-10	2.339259e+01	3.918538e+01
2.630000e-06	3.406459e-06	5.654659e-10	2.365020e+01	3.950251e+01
2.640000e-06	3.443306e-06	5.668182e-10	2.390602e+01	3.981011e+01
2.650000e-06	3.479850e-06	5.709627e-10	2.415973e+01	4.010855e+01
2.660000e-06	3.516102e-06	5.804646e-10	2.441143e+01	4.039824e+01
2.670000e-06	3.552144e-06	5.903028e-10	2.466166e+01	4.067955e+01
2.680000e-06	3.588073e-06	5.974741e-10	2.491110e+01	4.095284e+01
2.690000e-06	3.623934e-06	6.012114e-10	2.516008e+01	4.121849e+01
2.700000e-06	3.659662e-06	6.007621e-10	2.540812e+01	4.147684e+01
2.710000e-06	3.695196e-06	6.018384e-10	2.565483e+01	4.172822e+01
2.720000e-06	3.730416e-06	6.064648e-10	2.589935e+01	4.197296e+01
2.730000e-06	3.765282e-06	6.107220e-10	2.614142e+01	4.221137e+01
2.740000e-06	3.799757e-06	6.141662e-10	2.638077e+01	4.244372e+01
2.750000e-06	3.833786e-06	6.177852e-10	2.661703e+01	4.267030e+01
2.760000e-06	3.867373e-06	6.212350e-10	2.685021e+01	4.289136e+01
2.770000e-06	3.900479e-06	6.236011e-10	2.708006e+01	4.310714e+01
2.780000e-06	3.933159e-06	6.258007e-10	2.730695e+01	4.331784e+01
2.790000e-06	3.965505e-06	6.294497e-10	2.753152e+01	4.352367e+01
2.800000e-06	3.997630e-06	6.335639e-10	2.775455e+01	4.372480e+01
2.810000e-06	4.029602e-06	6.367208e-10	2.797653e+01	4.392138e+01
2.820000e-06	4.061413e-06	6.393472e-10	2.819738e+01	4.411357e+01
2.830000e-06	4.093066e-06	6.410623e-10	2.841714e+01	4.430148e+01
2.840000e-06	4.124532e-06	6.425835e-10	2.863560e+01	4.448521e+01
2.850000e-06	4.155719e-06	6.442014e-10	2.885213e+01	4.466484e+01
2.860000e-06	4.186642e-06	6.479454e-10	2.906682e+01	4.484045e+01
2.870000e-06	4.217262e-06	6.521891e-10	2.927940e+01	4.501208e+01
2.880000e-06	4.247516e-06	6.544384e-10	2.948945e+01	4.517978e+01
2.890000e-06	4.277446e-06	6.539732e-10	2.969725e+01	4.534357e+01
2.900000e-06	4.307046e-06	6.525150e-10	2.990275e+01	4.550346e+01
