# Temperatura_=_-0.6
# Concentracion g/m^3_=_1620.0
# C_Vs_to_Am_M_A/Vsm_=_65563218390.804596
# pendiente_HvsI_1/m_=_3716.3
# ordenada_HvsI_A/m_=_1297.0
# frecuencia_Hz_=_135095.37593371543

Tiempo_(s)	Campo_(V.s)	Magnetizacion_(V.s)	Campo_(kA/m)	Magnetizacion_(A/m)
0.000000e+00	-5.508039e-06	-1.316901e-09	-3.837632e+01	-8.599347e+01
1.000000e-08	-5.508147e-06	-1.311549e-09	-3.837708e+01	-8.597841e+01
2.000000e-08	-5.507943e-06	-1.307726e-09	-3.837565e+01	-8.596182e+01
3.000000e-08	-5.507352e-06	-1.305297e-09	-3.837154e+01	-8.594356e+01
4.000000e-08	-5.506241e-06	-1.302687e-09	-3.836380e+01	-8.592350e+01
5.000000e-08	-5.504460e-06	-1.298432e-09	-3.835139e+01	-8.590148e+01
6.000000e-08	-5.502104e-06	-1.293726e-09	-3.833497e+01	-8.587735e+01
7.000000e-08	-5.499264e-06	-1.314253e-09	-3.831518e+01	-8.585093e+01
8.000000e-08	-5.495930e-06	-1.330773e-09	-3.829195e+01	-8.582206e+01
9.000000e-08	-5.492073e-06	-1.306356e-09	-3.826508e+01	-8.579056e+01
1.000000e-07	-5.487867e-06	-1.281531e-09	-3.823578e+01	-8.575625e+01
1.100000e-07	-5.483522e-06	-1.294857e-09	-3.820550e+01	-8.571896e+01
1.200000e-07	-5.478963e-06	-1.294959e-09	-3.817374e+01	-8.567851e+01
1.300000e-07	-5.473989e-06	-1.300107e-09	-3.813909e+01	-8.563472e+01
1.400000e-07	-5.468582e-06	-1.260906e-09	-3.810141e+01	-8.558741e+01
1.500000e-07	-5.462832e-06	-1.308511e-09	-3.806135e+01	-8.553642e+01
1.600000e-07	-5.456739e-06	-1.303987e-09	-3.801890e+01	-8.548158e+01
1.700000e-07	-5.450220e-06	-1.311292e-09	-3.797348e+01	-8.542274e+01
1.800000e-07	-5.443254e-06	-1.274192e-09	-3.792495e+01	-8.535974e+01
1.900000e-07	-5.435945e-06	-1.298147e-09	-3.787402e+01	-8.529246e+01
2.000000e-07	-5.428258e-06	-1.300149e-09	-3.782047e+01	-8.522075e+01
2.100000e-07	-5.420322e-06	-1.309842e-09	-3.776517e+01	-8.514451e+01
2.200000e-07	-5.412170e-06	-1.298515e-09	-3.770837e+01	-8.506362e+01
2.300000e-07	-5.403672e-06	-1.295822e-09	-3.764917e+01	-8.497800e+01
2.400000e-07	-5.394549e-06	-1.297389e-09	-3.758560e+01	-8.488758e+01
2.500000e-07	-5.384724e-06	-1.279121e-09	-3.751714e+01	-8.479229e+01
2.600000e-07	-5.374350e-06	-1.279135e-09	-3.744487e+01	-8.469209e+01
2.700000e-07	-5.363400e-06	-1.258990e-09	-3.736858e+01	-8.458694e+01
2.800000e-07	-5.351980e-06	-1.269157e-09	-3.728901e+01	-8.447683e+01
2.900000e-07	-5.340236e-06	-1.244367e-09	-3.720719e+01	-8.436177e+01
3.000000e-07	-5.328151e-06	-1.257076e-09	-3.712298e+01	-8.424177e+01
3.100000e-07	-5.315619e-06	-1.231604e-09	-3.703567e+01	-8.411687e+01
3.200000e-07	-5.302665e-06	-1.262035e-09	-3.694541e+01	-8.398712e+01
3.300000e-07	-5.289323e-06	-1.241892e-09	-3.685246e+01	-8.385258e+01
3.400000e-07	-5.275550e-06	-1.244761e-09	-3.675650e+01	-8.371333e+01
3.500000e-07	-5.261380e-06	-1.226082e-09	-3.665777e+01	-8.356946e+01
3.600000e-07	-5.246835e-06	-1.250469e-09	-3.655643e+01	-8.342108e+01
3.700000e-07	-5.231701e-06	-1.219347e-09	-3.645099e+01	-8.326830e+01
3.800000e-07	-5.215999e-06	-1.230938e-09	-3.634158e+01	-8.311127e+01
3.900000e-07	-5.199837e-06	-1.242486e-09	-3.622898e+01	-8.295010e+01
4.000000e-07	-5.183269e-06	-1.241172e-09	-3.611355e+01	-8.278496e+01
4.100000e-07	-5.166433e-06	-1.210748e-09	-3.599624e+01	-8.261598e+01
4.200000e-07	-5.149269e-06	-1.238455e-09	-3.587665e+01	-8.244334e+01
4.300000e-07	-5.131691e-06	-1.239728e-09	-3.575418e+01	-8.226719e+01
4.400000e-07	-5.113696e-06	-1.199772e-09	-3.562881e+01	-8.208771e+01
4.500000e-07	-5.095327e-06	-1.200085e-09	-3.550082e+01	-8.190505e+01
4.600000e-07	-5.076633e-06	-1.234371e-09	-3.537058e+01	-8.171939e+01
4.700000e-07	-5.057645e-06	-1.217686e-09	-3.523828e+01	-8.153089e+01
4.800000e-07	-5.038311e-06	-1.207602e-09	-3.510357e+01	-8.133971e+01
4.900000e-07	-5.018698e-06	-1.244744e-09	-3.496692e+01	-8.114601e+01
5.000000e-07	-4.998916e-06	-1.226408e-09	-3.482909e+01	-8.094994e+01
5.100000e-07	-4.978874e-06	-1.188480e-09	-3.468946e+01	-8.075165e+01
5.200000e-07	-4.958528e-06	-1.205278e-09	-3.454770e+01	-8.055127e+01
5.300000e-07	-4.937865e-06	-1.219385e-09	-3.440373e+01	-8.034892e+01
5.400000e-07	-4.916892e-06	-1.178768e-09	-3.425761e+01	-8.014472e+01
5.500000e-07	-4.895534e-06	-1.194343e-09	-3.410880e+01	-7.993878e+01
5.600000e-07	-4.873783e-06	-1.219083e-09	-3.395725e+01	-7.973117e+01
5.700000e-07	-4.851672e-06	-1.200439e-09	-3.380320e+01	-7.952198e+01
5.800000e-07	-4.829208e-06	-1.180441e-09	-3.364668e+01	-7.931127e+01
5.900000e-07	-4.806499e-06	-1.205349e-09	-3.348847e+01	-7.909908e+01
6.000000e-07	-4.783499e-06	-1.183525e-09	-3.332822e+01	-7.888544e+01
6.100000e-07	-4.760119e-06	-1.168311e-09	-3.316532e+01	-7.867038e+01
6.200000e-07	-4.736510e-06	-1.181205e-09	-3.300082e+01	-7.845387e+01
6.300000e-07	-4.712751e-06	-1.189109e-09	-3.283529e+01	-7.823592e+01
6.400000e-07	-4.688627e-06	-1.162579e-09	-3.266721e+01	-7.801649e+01
6.500000e-07	-4.664106e-06	-1.170029e-09	-3.249637e+01	-7.779553e+01
6.600000e-07	-4.639193e-06	-1.168824e-09	-3.232279e+01	-7.757297e+01
6.700000e-07	-4.613707e-06	-1.155356e-09	-3.214522e+01	-7.734874e+01
6.800000e-07	-4.587657e-06	-1.145364e-09	-3.196372e+01	-7.712275e+01
6.900000e-07	-4.561015e-06	-1.154584e-09	-3.177809e+01	-7.689490e+01
7.000000e-07	-4.533892e-06	-1.144220e-09	-3.158912e+01	-7.666507e+01
7.100000e-07	-4.506571e-06	-1.137172e-09	-3.139876e+01	-7.643312e+01
7.200000e-07	-4.479050e-06	-1.135352e-09	-3.120702e+01	-7.619893e+01
7.300000e-07	-4.451287e-06	-1.134997e-09	-3.101358e+01	-7.596235e+01
7.400000e-07	-4.423335e-06	-1.124063e-09	-3.081883e+01	-7.572321e+01
7.500000e-07	-4.395199e-06	-1.119083e-09	-3.062280e+01	-7.548137e+01
7.600000e-07	-4.366845e-06	-1.119258e-09	-3.042525e+01	-7.523666e+01
7.700000e-07	-4.338178e-06	-1.115029e-09	-3.022552e+01	-7.498889e+01
7.800000e-07	-4.309126e-06	-1.110825e-09	-3.002310e+01	-7.473791e+01
7.900000e-07	-4.279722e-06	-1.108515e-09	-2.981824e+01	-7.448354e+01
8.000000e-07	-4.250005e-06	-1.101523e-09	-2.961119e+01	-7.422559e+01
8.100000e-07	-4.220048e-06	-1.086444e-09	-2.940246e+01	-7.396391e+01
8.200000e-07	-4.189894e-06	-1.082191e-09	-2.919237e+01	-7.369833e+01
8.300000e-07	-4.159389e-06	-1.077339e-09	-2.897984e+01	-7.342867e+01
8.400000e-07	-4.128499e-06	-1.074661e-09	-2.876461e+01	-7.315477e+01
8.500000e-07	-4.097357e-06	-1.071314e-09	-2.854764e+01	-7.287649e+01
8.600000e-07	-4.066000e-06	-1.073413e-09	-2.832916e+01	-7.259368e+01
8.700000e-07	-4.034473e-06	-1.065266e-09	-2.810951e+01	-7.230620e+01
8.800000e-07	-4.002808e-06	-1.063324e-09	-2.788888e+01	-7.201393e+01
8.900000e-07	-3.970964e-06	-1.055505e-09	-2.766702e+01	-7.171674e+01
9.000000e-07	-3.938808e-06	-1.046507e-09	-2.744297e+01	-7.141454e+01
9.100000e-07	-3.906314e-06	-1.034453e-09	-2.721658e+01	-7.110723e+01
9.200000e-07	-3.873531e-06	-1.031275e-09	-2.698817e+01	-7.079472e+01
9.300000e-07	-3.840235e-06	-1.023045e-09	-2.675618e+01	-7.047696e+01
9.400000e-07	-3.806452e-06	-1.019721e-09	-2.652080e+01	-7.015389e+01
9.500000e-07	-3.772257e-06	-1.017932e-09	-2.628256e+01	-6.982546e+01
9.600000e-07	-3.737653e-06	-1.014719e-09	-2.604146e+01	-6.949165e+01
9.700000e-07	-3.702750e-06	-1.003750e-09	-2.579828e+01	-6.915244e+01
9.800000e-07	-3.667495e-06	-1.001644e-09	-2.555265e+01	-6.880784e+01
9.900000e-07	-3.631990e-06	-9.975715e-10	-2.530527e+01	-6.845786e+01
1.000000e-06	-3.596358e-06	-9.911492e-10	-2.505701e+01	-6.810251e+01
1.010000e-06	-3.560587e-06	-9.859771e-10	-2.480778e+01	-6.774183e+01
1.020000e-06	-3.524717e-06	-9.839695e-10	-2.455787e+01	-6.737588e+01
1.030000e-06	-3.488719e-06	-9.770839e-10	-2.430706e+01	-6.700471e+01
1.040000e-06	-3.452475e-06	-9.716794e-10	-2.405453e+01	-6.662839e+01
1.050000e-06	-3.415910e-06	-9.715320e-10	-2.379977e+01	-6.624699e+01
1.060000e-06	-3.379012e-06	-9.665262e-10	-2.354269e+01	-6.586059e+01
1.070000e-06	-3.341858e-06	-9.574597e-10	-2.328383e+01	-6.546929e+01
1.080000e-06	-3.304437e-06	-9.528522e-10	-2.302310e+01	-6.507318e+01
1.090000e-06	-3.266826e-06	-9.500798e-10	-2.276105e+01	-6.467236e+01
1.100000e-06	-3.229108e-06	-9.425822e-10	-2.249826e+01	-6.426693e+01
1.110000e-06	-3.191211e-06	-9.384689e-10	-2.223422e+01	-6.385700e+01
1.120000e-06	-3.153077e-06	-9.332211e-10	-2.196853e+01	-6.344265e+01
1.130000e-06	-3.114672e-06	-9.247380e-10	-2.170095e+01	-6.302400e+01
1.140000e-06	-3.076066e-06	-9.131602e-10	-2.143197e+01	-6.260115e+01
1.150000e-06	-3.037268e-06	-9.073054e-10	-2.116165e+01	-6.217417e+01
1.160000e-06	-2.998243e-06	-9.006767e-10	-2.088975e+01	-6.174317e+01
1.170000e-06	-2.959041e-06	-8.950271e-10	-2.061662e+01	-6.130822e+01
1.180000e-06	-2.919612e-06	-8.918794e-10	-2.034190e+01	-6.086938e+01
1.190000e-06	-2.879979e-06	-8.882039e-10	-2.006576e+01	-6.042672e+01
1.200000e-06	-2.840280e-06	-8.765139e-10	-1.978917e+01	-5.998029e+01
1.210000e-06	-2.800506e-06	-8.679377e-10	-1.951205e+01	-5.953011e+01
1.220000e-06	-2.760626e-06	-8.590438e-10	-1.923419e+01	-5.907621e+01
1.230000e-06	-2.720604e-06	-8.494689e-10	-1.895535e+01	-5.861859e+01
1.240000e-06	-2.680477e-06	-8.403437e-10	-1.867577e+01	-5.815723e+01
1.250000e-06	-2.640164e-06	-8.358875e-10	-1.839489e+01	-5.769211e+01
1.260000e-06	-2.599434e-06	-8.287238e-10	-1.811111e+01	-5.722317e+01
1.270000e-06	-2.558470e-06	-8.204626e-10	-1.782570e+01	-5.675034e+01
1.280000e-06	-2.517279e-06	-8.138064e-10	-1.753871e+01	-5.627354e+01
1.290000e-06	-2.475733e-06	-8.074188e-10	-1.724924e+01	-5.579263e+01
1.300000e-06	-2.433925e-06	-7.958256e-10	-1.695796e+01	-5.530750e+01
1.310000e-06	-2.391853e-06	-7.849101e-10	-1.666483e+01	-5.481798e+01
1.320000e-06	-2.349340e-06	-7.758037e-10	-1.636863e+01	-5.432388e+01
1.330000e-06	-2.306445e-06	-7.661750e-10	-1.606976e+01	-5.382502e+01
1.340000e-06	-2.263426e-06	-7.568993e-10	-1.577003e+01	-5.332114e+01
1.350000e-06	-2.220258e-06	-7.505266e-10	-1.546927e+01	-5.281201e+01
1.360000e-06	-2.176883e-06	-7.447197e-10	-1.516706e+01	-5.229735e+01
1.370000e-06	-2.133351e-06	-7.362134e-10	-1.486376e+01	-5.177687e+01
1.380000e-06	-2.089725e-06	-7.262385e-10	-1.455980e+01	-5.125023e+01
1.390000e-06	-2.046024e-06	-7.142255e-10	-1.425532e+01	-5.071709e+01
1.400000e-06	-2.002281e-06	-7.032399e-10	-1.395055e+01	-5.017710e+01
1.410000e-06	-1.958432e-06	-6.935466e-10	-1.364504e+01	-4.962987e+01
1.420000e-06	-1.914506e-06	-6.843462e-10	-1.333899e+01	-4.907499e+01
1.430000e-06	-1.870540e-06	-6.742246e-10	-1.303267e+01	-4.851204e+01
1.440000e-06	-1.826477e-06	-6.635059e-10	-1.272567e+01	-4.794058e+01
1.450000e-06	-1.782307e-06	-6.524468e-10	-1.241792e+01	-4.736015e+01
1.460000e-06	-1.738042e-06	-6.438816e-10	-1.210951e+01	-4.677029e+01
1.470000e-06	-1.693610e-06	-6.340446e-10	-1.179994e+01	-4.617050e+01
1.480000e-06	-1.648966e-06	-6.236413e-10	-1.148889e+01	-4.556030e+01
1.490000e-06	-1.604268e-06	-6.114813e-10	-1.117746e+01	-4.493918e+01
1.500000e-06	-1.559482e-06	-5.997120e-10	-1.086542e+01	-4.430662e+01
1.510000e-06	-1.514480e-06	-5.889691e-10	-1.055188e+01	-4.366212e+01
1.520000e-06	-1.469302e-06	-5.807070e-10	-1.023711e+01	-4.300515e+01
1.530000e-06	-1.424100e-06	-5.721132e-10	-9.922172e+00	-4.233519e+01
1.540000e-06	-1.378898e-06	-5.615514e-10	-9.607239e+00	-4.165172e+01
1.550000e-06	-1.333603e-06	-5.472000e-10	-9.291653e+00	-4.095423e+01
1.560000e-06	-1.288141e-06	-5.334759e-10	-8.974905e+00	-4.024222e+01
1.570000e-06	-1.242536e-06	-5.235933e-10	-8.657155e+00	-3.951517e+01
1.580000e-06	-1.196909e-06	-5.148696e-10	-8.339261e+00	-3.877261e+01
1.590000e-06	-1.151232e-06	-5.050378e-10	-8.021009e+00	-3.801405e+01
1.600000e-06	-1.105440e-06	-4.967433e-10	-7.701962e+00	-3.723905e+01
1.610000e-06	-1.059579e-06	-4.851961e-10	-7.382437e+00	-3.644716e+01
1.620000e-06	-1.013640e-06	-4.699544e-10	-7.062364e+00	-3.563797e+01
1.630000e-06	-9.676571e-07	-4.564095e-10	-6.741986e+00	-3.481108e+01
1.640000e-06	-9.217055e-07	-4.449366e-10	-6.421826e+00	-3.396614e+01
1.650000e-06	-8.756456e-07	-4.337352e-10	-6.100912e+00	-3.310281e+01
1.660000e-06	-8.293783e-07	-4.210164e-10	-5.778552e+00	-3.222079e+01
1.670000e-06	-7.830758e-07	-4.077269e-10	-5.455947e+00	-3.131981e+01
1.680000e-06	-7.367918e-07	-3.950880e-10	-5.133471e+00	-3.039964e+01
1.690000e-06	-6.904320e-07	-3.819896e-10	-4.810468e+00	-2.946009e+01
1.700000e-06	-6.440619e-07	-3.673670e-10	-4.487392e+00	-2.850101e+01
1.710000e-06	-5.976491e-07	-3.523621e-10	-4.164018e+00	-2.752229e+01
1.720000e-06	-5.511608e-07	-3.357108e-10	-3.840119e+00	-2.652388e+01
1.730000e-06	-5.046259e-07	-3.190885e-10	-3.515895e+00	-2.550574e+01
1.740000e-06	-4.580339e-07	-3.023422e-10	-3.191273e+00	-2.446793e+01
1.750000e-06	-4.114229e-07	-2.862994e-10	-2.866519e+00	-2.341052e+01
1.760000e-06	-3.648156e-07	-2.716795e-10	-2.541790e+00	-2.233364e+01
1.770000e-06	-3.181460e-07	-2.577415e-10	-2.216628e+00	-2.123749e+01
1.780000e-06	-2.714181e-07	-2.435900e-10	-1.891059e+00	-2.012229e+01
1.790000e-06	-2.247681e-07	-2.298557e-10	-1.566033e+00	-1.898833e+01
1.800000e-06	-1.781643e-07	-2.145914e-10	-1.241329e+00	-1.783597e+01
1.810000e-06	-1.315279e-07	-1.960378e-10	-9.163984e-01	-1.666558e+01
1.820000e-06	-8.489131e-08	-1.756677e-10	-5.914657e-01	-1.547763e+01
1.830000e-06	-3.825807e-08	-1.558163e-10	-2.665566e-01	-1.427262e+01
1.840000e-06	8.468906e-09	-1.371426e-10	5.900566e-02	-1.305109e+01
1.850000e-06	5.518274e-08	-1.212802e-10	3.844763e-01	-1.181365e+01
1.860000e-06	1.017679e-07	-1.044714e-10	7.090505e-01	-1.056095e+01
1.870000e-06	1.484008e-07	-8.549202e-11	1.033958e+00	-9.293690e+00
1.880000e-06	1.951548e-07	-6.758034e-11	1.359707e+00	-8.012623e+00
1.890000e-06	2.419061e-07	-5.204444e-11	1.685439e+00	-6.718537e+00
1.900000e-06	2.885945e-07	-3.657712e-11	2.010733e+00	-5.412267e+00
1.910000e-06	3.352663e-07	-1.897273e-11	2.335911e+00	-4.094687e+00
1.920000e-06	3.819524e-07	1.246307e-12	2.661188e+00	-2.766708e+00
1.930000e-06	4.286300e-07	2.322625e-11	2.986407e+00	-1.429277e+00
1.940000e-06	4.751840e-07	4.418890e-11	3.310763e+00	-8.337133e-02
1.950000e-06	5.216340e-07	6.330640e-11	3.634396e+00	1.270002e+00
1.960000e-06	5.680380e-07	8.151419e-11	3.957708e+00	2.629812e+00
1.970000e-06	6.143941e-07	1.001235e-10	4.280686e+00	3.995004e+00
1.980000e-06	6.607485e-07	1.159892e-10	4.603652e+00	5.364506e+00
1.990000e-06	7.070379e-07	1.297127e-10	4.926166e+00	6.737232e+00
2.000000e-06	7.532202e-07	1.480618e-10	5.247934e+00	8.112083e+00
2.010000e-06	7.993793e-07	1.679169e-10	5.569539e+00	9.487955e+00
2.020000e-06	8.456114e-07	1.894399e-10	5.891653e+00	1.086374e+01
2.030000e-06	8.918230e-07	2.132202e-10	6.213625e+00	1.223833e+01
2.040000e-06	9.378408e-07	2.344562e-10	6.534246e+00	1.361062e+01
2.050000e-06	9.837366e-07	2.542119e-10	6.854017e+00	1.497952e+01
2.060000e-06	1.029643e-06	2.723290e-10	7.173862e+00	1.634394e+01
2.070000e-06	1.075553e-06	2.906484e-10	7.493735e+00	1.770282e+01
2.080000e-06	1.121316e-06	3.085834e-10	7.812579e+00	1.905511e+01
2.090000e-06	1.166940e-06	3.278989e-10	8.130453e+00	2.039978e+01
2.100000e-06	1.212524e-06	3.491198e-10	8.448055e+00	2.173584e+01
2.110000e-06	1.258031e-06	3.699437e-10	8.765119e+00	2.306231e+01
2.120000e-06	1.303477e-06	3.893124e-10	9.081757e+00	2.437827e+01
2.130000e-06	1.348817e-06	4.083135e-10	9.397655e+00	2.568281e+01
2.140000e-06	1.393999e-06	4.261022e-10	9.712451e+00	2.697507e+01
2.150000e-06	1.439089e-06	4.420021e-10	1.002661e+01	2.825422e+01
2.160000e-06	1.484105e-06	4.575748e-10	1.034025e+01	2.951950e+01
2.170000e-06	1.529067e-06	4.743572e-10	1.065351e+01	3.077017e+01
2.180000e-06	1.573881e-06	4.922535e-10	1.096575e+01	3.200554e+01
2.190000e-06	1.618465e-06	5.120296e-10	1.127638e+01	3.322497e+01
2.200000e-06	1.662942e-06	5.308069e-10	1.158627e+01	3.442789e+01
2.210000e-06	1.707271e-06	5.458414e-10	1.189512e+01	3.561374e+01
2.220000e-06	1.751479e-06	5.572469e-10	1.220313e+01	3.678205e+01
2.230000e-06	1.795587e-06	5.705699e-10	1.251045e+01	3.793238e+01
2.240000e-06	1.839621e-06	5.879289e-10	1.281725e+01	3.906435e+01
2.250000e-06	1.883614e-06	6.053209e-10	1.312376e+01	4.017763e+01
2.260000e-06	1.927461e-06	6.224612e-10	1.342925e+01	4.127194e+01
2.270000e-06	1.971230e-06	6.375320e-10	1.373421e+01	4.234705e+01
2.280000e-06	2.014957e-06	6.496203e-10	1.403887e+01	4.340279e+01
2.290000e-06	2.058645e-06	6.604916e-10	1.434325e+01	4.443903e+01
2.300000e-06	2.102308e-06	6.703554e-10	1.464747e+01	4.545568e+01
2.310000e-06	2.145905e-06	6.795540e-10	1.495123e+01	4.645271e+01
2.320000e-06	2.189387e-06	6.925945e-10	1.525418e+01	4.743012e+01
2.330000e-06	2.232689e-06	7.098052e-10	1.555588e+01	4.838798e+01
2.340000e-06	2.275819e-06	7.273371e-10	1.585638e+01	4.932636e+01
2.350000e-06	2.318846e-06	7.431592e-10	1.615617e+01	5.024540e+01
2.360000e-06	2.361590e-06	7.568090e-10	1.645398e+01	5.114526e+01
2.370000e-06	2.403933e-06	7.659650e-10	1.674899e+01	5.202614e+01
2.380000e-06	2.445979e-06	7.740545e-10	1.704194e+01	5.288826e+01
2.390000e-06	2.487701e-06	7.815187e-10	1.733263e+01	5.373188e+01
2.400000e-06	2.529022e-06	7.907187e-10	1.762053e+01	5.455727e+01
2.410000e-06	2.570043e-06	8.039109e-10	1.790634e+01	5.536474e+01
2.420000e-06	2.610860e-06	8.185704e-10	1.819072e+01	5.615460e+01
2.430000e-06	2.651342e-06	8.317438e-10	1.847278e+01	5.692720e+01
2.440000e-06	2.691561e-06	8.425207e-10	1.875299e+01	5.768288e+01
2.450000e-06	2.731699e-06	8.514377e-10	1.903265e+01	5.842201e+01
2.460000e-06	2.771716e-06	8.578175e-10	1.931146e+01	5.914495e+01
2.470000e-06	2.811573e-06	8.635930e-10	1.958915e+01	5.985209e+01
2.480000e-06	2.851315e-06	8.698894e-10	1.986605e+01	6.054380e+01
2.490000e-06	2.890950e-06	8.776397e-10	2.014220e+01	6.122046e+01
2.500000e-06	2.930451e-06	8.890726e-10	2.041742e+01	6.188245e+01
2.510000e-06	2.969832e-06	9.033782e-10	2.069180e+01	6.253016e+01
2.520000e-06	3.009048e-06	9.165069e-10	2.096503e+01	6.316396e+01
2.530000e-06	3.047961e-06	9.272380e-10	2.123615e+01	6.378420e+01
2.540000e-06	3.086629e-06	9.379532e-10	2.150556e+01	6.439126e+01
2.550000e-06	3.125093e-06	9.453979e-10	2.177356e+01	6.498547e+01
2.560000e-06	3.163348e-06	9.482982e-10	2.204009e+01	6.556719e+01
2.570000e-06	3.201396e-06	9.529782e-10	2.230518e+01	6.613673e+01
2.580000e-06	3.239190e-06	9.614423e-10	2.256851e+01	6.669440e+01
2.590000e-06	3.276802e-06	9.718905e-10	2.283056e+01	6.724052e+01
2.600000e-06	3.314201e-06	9.822915e-10	2.309113e+01	6.777537e+01
2.610000e-06	3.351300e-06	9.917309e-10	2.334961e+01	6.829921e+01
2.620000e-06	3.388135e-06	9.994386e-10	2.360626e+01	6.881232e+01
2.630000e-06	3.424796e-06	1.005134e-09	2.386168e+01	6.931493e+01
2.640000e-06	3.461210e-06	1.011643e-09	2.411539e+01	6.980727e+01
2.650000e-06	3.497344e-06	1.022453e-09	2.436715e+01	7.028956e+01
2.660000e-06	3.533278e-06	1.032947e-09	2.461751e+01	7.076201e+01
2.670000e-06	3.569075e-06	1.041204e-09	2.486692e+01	7.122479e+01
2.680000e-06	3.604776e-06	1.048741e-09	2.511567e+01	7.167810e+01
2.690000e-06	3.640377e-06	1.054461e-09	2.536371e+01	7.212208e+01
2.700000e-06	3.675800e-06	1.058918e-09	2.561051e+01	7.255690e+01
2.710000e-06	3.710943e-06	1.064460e-09	2.585536e+01	7.298269e+01
2.720000e-06	3.745810e-06	1.070745e-09	2.609829e+01	7.339960e+01
2.730000e-06	3.780250e-06	1.075868e-09	2.633824e+01	7.380773e+01
2.740000e-06	3.814181e-06	1.081640e-09	2.657466e+01	7.420722e+01
2.750000e-06	3.847657e-06	1.090114e-09	2.680789e+01	7.459817e+01
2.760000e-06	3.880686e-06	1.097829e-09	2.703802e+01	7.498068e+01
2.770000e-06	3.913341e-06	1.102245e-09	2.726554e+01	7.535485e+01
2.780000e-06	3.945590e-06	1.104089e-09	2.749022e+01	7.572077e+01
2.790000e-06	3.977513e-06	1.105630e-09	2.771264e+01	7.607854e+01
2.800000e-06	4.009313e-06	1.108102e-09	2.793421e+01	7.642824e+01
2.810000e-06	4.041016e-06	1.112489e-09	2.815509e+01	7.676996e+01
2.820000e-06	4.072552e-06	1.118739e-09	2.837482e+01	7.710378e+01
2.830000e-06	4.103862e-06	1.126930e-09	2.859296e+01	7.742980e+01
2.840000e-06	4.134943e-06	1.134490e-09	2.880951e+01	7.774809e+01
2.850000e-06	4.165747e-06	1.138510e-09	2.902413e+01	7.805873e+01
2.860000e-06	4.196152e-06	1.140914e-09	2.923598e+01	7.836183e+01
2.870000e-06	4.226234e-06	1.143089e-09	2.944556e+01	7.865746e+01
2.880000e-06	4.256106e-06	1.144222e-09	2.965369e+01	7.894571e+01
2.890000e-06	4.285731e-06	1.145247e-09	2.986010e+01	7.922668e+01
2.900000e-06	4.315081e-06	1.147640e-09	3.006459e+01	7.950045e+01
