# Temperatura_=_-0.4
# Concentracion g/m^3_=_1620.0
# C_Vs_to_Am_M_A/Vsm_=_65563218390.804596
# pendiente_HvsI_1/m_=_3716.3
# ordenada_HvsI_A/m_=_1297.0
# frecuencia_Hz_=_135094.24230664616

Tiempo_(s)	Campo_(V.s)	Magnetizacion_(V.s)	Campo_(kA/m)	Magnetizacion_(A/m)
0.000000e+00	-5.526778e-06	-1.394227e-09	-3.837937e+01	-9.081911e+01
1.000000e-08	-5.527170e-06	-1.387546e-09	-3.838209e+01	-9.079886e+01
2.000000e-08	-5.527285e-06	-1.381892e-09	-3.838288e+01	-9.077672e+01
3.000000e-08	-5.527039e-06	-1.383772e-09	-3.838117e+01	-9.075249e+01
4.000000e-08	-5.526273e-06	-1.387904e-09	-3.837586e+01	-9.072600e+01
5.000000e-08	-5.524954e-06	-1.392610e-09	-3.836670e+01	-9.069705e+01
6.000000e-08	-5.523039e-06	-1.394460e-09	-3.835340e+01	-9.066543e+01
7.000000e-08	-5.520524e-06	-1.391335e-09	-3.833594e+01	-9.063093e+01
8.000000e-08	-5.517544e-06	-1.432322e-09	-3.831524e+01	-9.059334e+01
9.000000e-08	-5.514172e-06	-1.444132e-09	-3.829182e+01	-9.055244e+01
1.000000e-07	-5.510313e-06	-1.349736e-09	-3.826502e+01	-9.050802e+01
1.100000e-07	-5.506097e-06	-1.259453e-09	-3.823575e+01	-9.045987e+01
1.200000e-07	-5.501668e-06	-1.376414e-09	-3.820499e+01	-9.040778e+01
1.300000e-07	-5.496946e-06	-1.489308e-09	-3.817220e+01	-9.035155e+01
1.400000e-07	-5.491875e-06	-1.441436e-09	-3.813699e+01	-9.029100e+01
1.500000e-07	-5.486460e-06	-1.282496e-09	-3.809939e+01	-9.022593e+01
1.600000e-07	-5.480764e-06	-1.393569e-09	-3.805983e+01	-9.015619e+01
1.700000e-07	-5.474550e-06	-1.473028e-09	-3.801668e+01	-9.008163e+01
1.800000e-07	-5.467917e-06	-1.420257e-09	-3.797062e+01	-9.000210e+01
1.900000e-07	-5.460973e-06	-1.252079e-09	-3.792240e+01	-8.991749e+01
2.000000e-07	-5.453688e-06	-1.332805e-09	-3.787181e+01	-8.982770e+01
2.100000e-07	-5.446089e-06	-1.438353e-09	-3.781904e+01	-8.973265e+01
2.200000e-07	-5.438153e-06	-1.443043e-09	-3.776393e+01	-8.963229e+01
2.300000e-07	-5.429912e-06	-1.339267e-09	-3.770670e+01	-8.952656e+01
2.400000e-07	-5.421292e-06	-1.325096e-09	-3.764684e+01	-8.941546e+01
2.500000e-07	-5.411997e-06	-1.388643e-09	-3.758229e+01	-8.929900e+01
2.600000e-07	-5.401968e-06	-1.373891e-09	-3.751265e+01	-8.917720e+01
2.700000e-07	-5.391508e-06	-1.325030e-09	-3.744001e+01	-8.905010e+01
2.800000e-07	-5.380626e-06	-1.305227e-09	-3.736444e+01	-8.891780e+01
2.900000e-07	-5.369311e-06	-1.371880e-09	-3.728587e+01	-8.878036e+01
3.000000e-07	-5.357610e-06	-1.319482e-09	-3.720462e+01	-8.863791e+01
3.100000e-07	-5.345489e-06	-1.294477e-09	-3.712045e+01	-8.849058e+01
3.200000e-07	-5.332868e-06	-1.272006e-09	-3.703280e+01	-8.833852e+01
3.300000e-07	-5.319836e-06	-1.365060e-09	-3.694230e+01	-8.818188e+01
3.400000e-07	-5.306488e-06	-1.310097e-09	-3.684961e+01	-8.802086e+01
3.500000e-07	-5.292711e-06	-1.278241e-09	-3.675394e+01	-8.785563e+01
3.600000e-07	-5.278398e-06	-1.275863e-09	-3.665455e+01	-8.768642e+01
3.700000e-07	-5.263752e-06	-1.356541e-09	-3.655284e+01	-8.751342e+01
3.800000e-07	-5.248643e-06	-1.270536e-09	-3.644792e+01	-8.733686e+01
3.900000e-07	-5.232923e-06	-1.258317e-09	-3.633876e+01	-8.715697e+01
4.000000e-07	-5.216919e-06	-1.324002e-09	-3.622762e+01	-8.697396e+01
4.100000e-07	-5.200563e-06	-1.328839e-09	-3.611404e+01	-8.678809e+01
4.200000e-07	-5.183751e-06	-1.221949e-09	-3.599729e+01	-8.659956e+01
4.300000e-07	-5.166642e-06	-1.288473e-09	-3.587849e+01	-8.640861e+01
4.400000e-07	-5.149195e-06	-1.352015e-09	-3.575733e+01	-8.621546e+01
4.500000e-07	-5.131280e-06	-1.248890e-09	-3.563292e+01	-8.602032e+01
4.600000e-07	-5.112833e-06	-1.209949e-09	-3.550482e+01	-8.582340e+01
4.700000e-07	-5.093989e-06	-1.329882e-09	-3.537397e+01	-8.562488e+01
4.800000e-07	-5.074902e-06	-1.304258e-09	-3.524142e+01	-8.542495e+01
4.900000e-07	-5.055589e-06	-1.212629e-09	-3.510731e+01	-8.522377e+01
5.000000e-07	-5.036060e-06	-1.287415e-09	-3.497169e+01	-8.502150e+01
5.100000e-07	-5.016299e-06	-1.304536e-09	-3.483447e+01	-8.481826e+01
5.200000e-07	-4.996209e-06	-1.209306e-09	-3.469495e+01	-8.461418e+01
5.300000e-07	-4.975729e-06	-1.247716e-09	-3.455274e+01	-8.440935e+01
5.400000e-07	-4.954963e-06	-1.321990e-09	-3.440853e+01	-8.420384e+01
5.500000e-07	-4.933887e-06	-1.210212e-09	-3.426218e+01	-8.399772e+01
5.600000e-07	-4.912405e-06	-1.195606e-09	-3.411300e+01	-8.379102e+01
5.700000e-07	-4.890628e-06	-1.293776e-09	-3.396177e+01	-8.358375e+01
5.800000e-07	-4.868529e-06	-1.262626e-09	-3.380831e+01	-8.337592e+01
5.900000e-07	-4.846022e-06	-1.180757e-09	-3.365202e+01	-8.316749e+01
6.000000e-07	-4.823069e-06	-1.259700e-09	-3.349262e+01	-8.295842e+01
6.100000e-07	-4.799775e-06	-1.260145e-09	-3.333087e+01	-8.274865e+01
6.200000e-07	-4.776325e-06	-1.196273e-09	-3.316802e+01	-8.253809e+01
6.300000e-07	-4.752646e-06	-1.218779e-09	-3.300360e+01	-8.232665e+01
6.400000e-07	-4.728697e-06	-1.263620e-09	-3.283728e+01	-8.211420e+01
6.500000e-07	-4.704368e-06	-1.199885e-09	-3.266834e+01	-8.190061e+01
6.600000e-07	-4.679653e-06	-1.207146e-09	-3.249671e+01	-8.168573e+01
6.700000e-07	-4.654577e-06	-1.234716e-09	-3.232258e+01	-8.146940e+01
6.800000e-07	-4.628911e-06	-1.203608e-09	-3.214434e+01	-8.125146e+01
6.900000e-07	-4.602567e-06	-1.174660e-09	-3.196140e+01	-8.103171e+01
7.000000e-07	-4.575699e-06	-1.212063e-09	-3.177483e+01	-8.080997e+01
7.100000e-07	-4.548546e-06	-1.192633e-09	-3.158627e+01	-8.058603e+01
7.200000e-07	-4.521212e-06	-1.173416e-09	-3.139646e+01	-8.035971e+01
7.300000e-07	-4.493705e-06	-1.196319e-09	-3.120544e+01	-8.013078e+01
7.400000e-07	-4.466023e-06	-1.198502e-09	-3.101321e+01	-7.989904e+01
7.500000e-07	-4.438074e-06	-1.160577e-09	-3.081912e+01	-7.966428e+01
7.600000e-07	-4.409785e-06	-1.166011e-09	-3.062268e+01	-7.942629e+01
7.700000e-07	-4.381113e-06	-1.172703e-09	-3.042357e+01	-7.918487e+01
7.800000e-07	-4.352130e-06	-1.154563e-09	-3.022231e+01	-7.893982e+01
7.900000e-07	-4.322983e-06	-1.160674e-09	-3.001990e+01	-7.869093e+01
8.000000e-07	-4.293637e-06	-1.171930e-09	-2.981612e+01	-7.843802e+01
8.100000e-07	-4.263977e-06	-1.148376e-09	-2.961015e+01	-7.818090e+01
8.200000e-07	-4.233959e-06	-1.131884e-09	-2.940170e+01	-7.791940e+01
8.300000e-07	-4.203574e-06	-1.145438e-09	-2.919069e+01	-7.765336e+01
8.400000e-07	-4.172916e-06	-1.126510e-09	-2.897780e+01	-7.738262e+01
8.500000e-07	-4.142016e-06	-1.112522e-09	-2.876322e+01	-7.710703e+01
8.600000e-07	-4.110909e-06	-1.122964e-09	-2.854721e+01	-7.682647e+01
8.700000e-07	-4.079608e-06	-1.127188e-09	-2.832985e+01	-7.654081e+01
8.800000e-07	-4.048087e-06	-1.103114e-09	-2.811096e+01	-7.624994e+01
8.900000e-07	-4.016356e-06	-1.111466e-09	-2.789061e+01	-7.595377e+01
9.000000e-07	-3.984380e-06	-1.108966e-09	-2.766856e+01	-7.565221e+01
9.100000e-07	-3.952051e-06	-1.089705e-09	-2.744406e+01	-7.534518e+01
9.200000e-07	-3.919268e-06	-1.082209e-09	-2.721640e+01	-7.503264e+01
9.300000e-07	-3.886049e-06	-1.096316e-09	-2.698572e+01	-7.471452e+01
9.400000e-07	-3.852455e-06	-1.078909e-09	-2.675243e+01	-7.439079e+01
9.500000e-07	-3.818484e-06	-1.069385e-09	-2.651653e+01	-7.406143e+01
9.600000e-07	-3.784072e-06	-1.073046e-09	-2.627757e+01	-7.372641e+01
9.700000e-07	-3.749274e-06	-1.067746e-09	-2.603592e+01	-7.338572e+01
9.800000e-07	-3.714183e-06	-1.046912e-09	-2.579224e+01	-7.303938e+01
9.900000e-07	-3.678897e-06	-1.052227e-09	-2.554721e+01	-7.268739e+01
1.000000e-06	-3.643398e-06	-1.050268e-09	-2.530069e+01	-7.232976e+01
1.010000e-06	-3.607735e-06	-1.036213e-09	-2.505303e+01	-7.196653e+01
1.020000e-06	-3.571997e-06	-1.033467e-09	-2.480486e+01	-7.159771e+01
1.030000e-06	-3.536072e-06	-1.040001e-09	-2.455539e+01	-7.122336e+01
1.040000e-06	-3.499861e-06	-1.027270e-09	-2.430393e+01	-7.084350e+01
1.050000e-06	-3.463417e-06	-1.018840e-09	-2.405086e+01	-7.045817e+01
1.060000e-06	-3.426733e-06	-1.019624e-09	-2.379611e+01	-7.006743e+01
1.070000e-06	-3.389674e-06	-1.008155e-09	-2.353877e+01	-6.967132e+01
1.080000e-06	-3.352361e-06	-9.951440e-10	-2.327965e+01	-6.926989e+01
1.090000e-06	-3.314894e-06	-9.942899e-10	-2.301948e+01	-6.886319e+01
1.100000e-06	-3.277167e-06	-9.921807e-10	-2.275749e+01	-6.845126e+01
1.110000e-06	-3.239237e-06	-9.795925e-10	-2.249409e+01	-6.803415e+01
1.120000e-06	-3.201174e-06	-9.759307e-10	-2.222977e+01	-6.761191e+01
1.130000e-06	-3.162805e-06	-9.699807e-10	-2.196333e+01	-6.718457e+01
1.140000e-06	-3.124119e-06	-9.574198e-10	-2.169469e+01	-6.675218e+01
1.150000e-06	-3.085289e-06	-9.475762e-10	-2.142503e+01	-6.631477e+01
1.160000e-06	-3.046254e-06	-9.486963e-10	-2.115397e+01	-6.587237e+01
1.170000e-06	-3.007026e-06	-9.409328e-10	-2.088156e+01	-6.542500e+01
1.180000e-06	-2.967749e-06	-9.347228e-10	-2.060881e+01	-6.497267e+01
1.190000e-06	-2.928335e-06	-9.310231e-10	-2.033511e+01	-6.451541e+01
1.200000e-06	-2.888707e-06	-9.263509e-10	-2.005992e+01	-6.405321e+01
1.210000e-06	-2.848949e-06	-9.129208e-10	-1.978383e+01	-6.358607e+01
1.220000e-06	-2.809052e-06	-9.070090e-10	-1.950678e+01	-6.311398e+01
1.230000e-06	-2.768948e-06	-9.003306e-10	-1.922829e+01	-6.263691e+01
1.240000e-06	-2.728708e-06	-8.920988e-10	-1.894885e+01	-6.215483e+01
1.250000e-06	-2.688287e-06	-8.842909e-10	-1.866815e+01	-6.166771e+01
1.260000e-06	-2.647592e-06	-8.829984e-10	-1.838555e+01	-6.117548e+01
1.270000e-06	-2.606584e-06	-8.767451e-10	-1.810079e+01	-6.067809e+01
1.280000e-06	-2.565128e-06	-8.705298e-10	-1.781290e+01	-6.017545e+01
1.290000e-06	-2.523277e-06	-8.632742e-10	-1.752228e+01	-5.966749e+01
1.300000e-06	-2.481329e-06	-8.562120e-10	-1.723098e+01	-5.915408e+01
1.310000e-06	-2.439335e-06	-8.447050e-10	-1.693937e+01	-5.863513e+01
1.320000e-06	-2.397021e-06	-8.348602e-10	-1.664553e+01	-5.811049e+01
1.330000e-06	-2.354393e-06	-8.275381e-10	-1.634951e+01	-5.758002e+01
1.340000e-06	-2.311569e-06	-8.201927e-10	-1.605213e+01	-5.704356e+01
1.350000e-06	-2.268515e-06	-8.125216e-10	-1.575315e+01	-5.650092e+01
1.360000e-06	-2.225224e-06	-8.047408e-10	-1.545252e+01	-5.595190e+01
1.370000e-06	-2.181773e-06	-7.936443e-10	-1.515079e+01	-5.539629e+01
1.380000e-06	-2.138250e-06	-7.803015e-10	-1.484855e+01	-5.483386e+01
1.390000e-06	-2.094623e-06	-7.678698e-10	-1.454560e+01	-5.426435e+01
1.400000e-06	-2.050914e-06	-7.553234e-10	-1.424207e+01	-5.368749e+01
1.410000e-06	-2.007086e-06	-7.457290e-10	-1.393772e+01	-5.310298e+01
1.420000e-06	-1.963094e-06	-7.381744e-10	-1.363223e+01	-5.251051e+01
1.430000e-06	-1.919030e-06	-7.317828e-10	-1.332624e+01	-5.190976e+01
1.440000e-06	-1.874978e-06	-7.218013e-10	-1.302033e+01	-5.130035e+01
1.450000e-06	-1.830791e-06	-7.113799e-10	-1.271348e+01	-5.068193e+01
1.460000e-06	-1.786391e-06	-6.987673e-10	-1.240516e+01	-5.005410e+01
1.470000e-06	-1.741929e-06	-6.877777e-10	-1.209640e+01	-4.941645e+01
1.480000e-06	-1.697346e-06	-6.764696e-10	-1.178680e+01	-4.876853e+01
1.490000e-06	-1.652546e-06	-6.662523e-10	-1.147570e+01	-4.810992e+01
1.500000e-06	-1.607641e-06	-6.557309e-10	-1.116387e+01	-4.744012e+01
1.510000e-06	-1.562627e-06	-6.464039e-10	-1.085128e+01	-4.675867e+01
1.520000e-06	-1.517430e-06	-6.350880e-10	-1.053743e+01	-4.606506e+01
1.530000e-06	-1.472128e-06	-6.245105e-10	-1.022283e+01	-4.535879e+01
1.540000e-06	-1.426709e-06	-6.138706e-10	-9.907434e+00	-4.463932e+01
1.550000e-06	-1.381268e-06	-6.057947e-10	-9.591876e+00	-4.390612e+01
1.560000e-06	-1.335743e-06	-5.915897e-10	-9.275744e+00	-4.315866e+01
1.570000e-06	-1.290131e-06	-5.761869e-10	-8.958998e+00	-4.239638e+01
1.580000e-06	-1.244526e-06	-5.622870e-10	-8.642306e+00	-4.161873e+01
1.590000e-06	-1.198798e-06	-5.485464e-10	-8.324761e+00	-4.082517e+01
1.600000e-06	-1.152955e-06	-5.360247e-10	-8.006415e+00	-4.001514e+01
1.610000e-06	-1.107045e-06	-5.256224e-10	-7.687604e+00	-3.918811e+01
1.620000e-06	-1.061072e-06	-5.134960e-10	-7.368354e+00	-3.834355e+01
1.630000e-06	-1.015067e-06	-4.988804e-10	-7.048882e+00	-3.748092e+01
1.640000e-06	-9.689705e-07	-4.824453e-10	-6.728779e+00	-3.659973e+01
1.650000e-06	-9.227739e-07	-4.665865e-10	-6.407978e+00	-3.569950e+01
1.660000e-06	-8.764759e-07	-4.517534e-10	-6.086473e+00	-3.477975e+01
1.670000e-06	-8.301063e-07	-4.371970e-10	-5.764471e+00	-3.384006e+01
1.680000e-06	-7.836993e-07	-4.252138e-10	-5.442209e+00	-3.288002e+01
1.690000e-06	-7.372302e-07	-4.128251e-10	-5.119515e+00	-3.189926e+01
1.700000e-06	-6.906516e-07	-3.985403e-10	-4.796062e+00	-3.089745e+01
1.710000e-06	-6.439846e-07	-3.814147e-10	-4.471994e+00	-2.987430e+01
1.720000e-06	-5.973094e-07	-3.633292e-10	-4.147870e+00	-2.882956e+01
1.730000e-06	-5.505626e-07	-3.442470e-10	-3.823248e+00	-2.776304e+01
1.740000e-06	-5.037452e-07	-3.256317e-10	-3.498136e+00	-2.667460e+01
1.750000e-06	-4.569665e-07	-3.078671e-10	-3.173292e+00	-2.556414e+01
1.760000e-06	-4.102320e-07	-2.927360e-10	-2.848756e+00	-2.443164e+01
1.770000e-06	-3.633985e-07	-2.785758e-10	-2.523532e+00	-2.327714e+01
1.780000e-06	-3.165802e-07	-2.639508e-10	-2.198414e+00	-2.210072e+01
1.790000e-06	-2.698285e-07	-2.475386e-10	-1.873758e+00	-2.090255e+01
1.800000e-06	-2.229530e-07	-2.314757e-10	-1.548243e+00	-1.968287e+01
1.810000e-06	-1.760228e-07	-2.137232e-10	-1.222348e+00	-1.844195e+01
1.820000e-06	-1.290829e-07	-1.944778e-10	-8.963845e-01	-1.718019e+01
1.830000e-06	-8.211327e-08	-1.744204e-10	-5.702156e-01	-1.589801e+01
1.840000e-06	-3.524544e-08	-1.545124e-10	-2.447534e-01	-1.459594e+01
1.850000e-06	1.154410e-08	-1.343984e-10	8.016518e-02	-1.327455e+01
1.860000e-06	5.836029e-08	-1.164642e-10	4.052688e-01	-1.193450e+01
1.870000e-06	1.052772e-07	-9.658223e-11	7.310716e-01	-1.057651e+01
1.880000e-06	1.522272e-07	-7.716278e-11	1.057105e+00	-9.201375e+00
1.890000e-06	1.990888e-07	-5.823891e-11	1.382524e+00	-7.809963e+00
1.900000e-06	2.458940e-07	-4.172817e-11	1.707551e+00	-6.403194e+00
1.910000e-06	2.927524e-07	-2.679980e-11	2.032948e+00	-4.982058e+00
1.920000e-06	3.396145e-07	-9.569039e-12	2.358370e+00	-3.547602e+00
1.930000e-06	3.863703e-07	1.018702e-11	2.683055e+00	-2.100928e+00
1.940000e-06	4.330643e-07	3.693037e-11	3.007310e+00	-6.431916e-01
1.950000e-06	4.797449e-07	6.326252e-11	3.331472e+00	8.244048e-01
1.960000e-06	5.263868e-07	8.666216e-11	3.655365e+00	2.300615e+00
1.970000e-06	5.729900e-07	1.053649e-10	3.978990e+00	3.784156e+00
1.980000e-06	6.196093e-07	1.204741e-10	4.302726e+00	5.273709e+00
1.990000e-06	6.661330e-07	1.339667e-10	4.625799e+00	6.767930e+00
2.000000e-06	7.124779e-07	1.497794e-10	4.947629e+00	8.265450e+00
2.010000e-06	7.587981e-07	1.715661e-10	5.269289e+00	9.764886e+00
2.020000e-06	8.051763e-07	1.961271e-10	5.591350e+00	1.126484e+01
2.030000e-06	8.515023e-07	2.208530e-10	5.913050e+00	1.276392e+01
2.040000e-06	8.977142e-07	2.477572e-10	6.233958e+00	1.426072e+01
2.050000e-06	9.437952e-07	2.727002e-10	6.553955e+00	1.575385e+01
2.060000e-06	9.898855e-07	2.939772e-10	6.874019e+00	1.724194e+01
2.070000e-06	1.035990e-06	3.122364e-10	7.194181e+00	1.872363e+01
2.080000e-06	1.081965e-06	3.281162e-10	7.513442e+00	2.019758e+01
2.090000e-06	1.127857e-06	3.433545e-10	7.832126e+00	2.166248e+01
2.100000e-06	1.173620e-06	3.646178e-10	8.149916e+00	2.311709e+01
2.110000e-06	1.219219e-06	3.885501e-10	8.466569e+00	2.456016e+01
2.120000e-06	1.264750e-06	4.124539e-10	8.782749e+00	2.599053e+01
2.130000e-06	1.310259e-06	4.354326e-10	9.098776e+00	2.740705e+01
2.140000e-06	1.355682e-06	4.539692e-10	9.414201e+00	2.880867e+01
2.150000e-06	1.400981e-06	4.706556e-10	9.728770e+00	3.019437e+01
2.160000e-06	1.446226e-06	4.866728e-10	1.004296e+01	3.156319e+01
2.170000e-06	1.491463e-06	5.049549e-10	1.035710e+01	3.291425e+01
2.180000e-06	1.536554e-06	5.239588e-10	1.067022e+01	3.424674e+01
2.190000e-06	1.581437e-06	5.436223e-10	1.098191e+01	3.555989e+01
2.200000e-06	1.626237e-06	5.654017e-10	1.129300e+01	3.685305e+01
2.210000e-06	1.670886e-06	5.858953e-10	1.160306e+01	3.812561e+01
2.220000e-06	1.715372e-06	6.026924e-10	1.191199e+01	3.937703e+01
2.230000e-06	1.759729e-06	6.153366e-10	1.222001e+01	4.060687e+01
2.240000e-06	1.803955e-06	6.283176e-10	1.252712e+01	4.181474e+01
2.250000e-06	1.848106e-06	6.445221e-10	1.283372e+01	4.300034e+01
2.260000e-06	1.892217e-06	6.626866e-10	1.314004e+01	4.416343e+01
2.270000e-06	1.936275e-06	6.817498e-10	1.344599e+01	4.530384e+01
2.280000e-06	1.980214e-06	6.986239e-10	1.375111e+01	4.642149e+01
2.290000e-06	2.024022e-06	7.135541e-10	1.405533e+01	4.751633e+01
2.300000e-06	2.067667e-06	7.269342e-10	1.435841e+01	4.858840e+01
2.310000e-06	2.111210e-06	7.383645e-10	1.466078e+01	4.963780e+01
2.320000e-06	2.154710e-06	7.491605e-10	1.496286e+01	5.066467e+01
2.330000e-06	2.198176e-06	7.628005e-10	1.526470e+01	5.166922e+01
2.340000e-06	2.241552e-06	7.776398e-10	1.556591e+01	5.265170e+01
2.350000e-06	2.284759e-06	7.927847e-10	1.586595e+01	5.361240e+01
2.360000e-06	2.327815e-06	8.065634e-10	1.616494e+01	5.455166e+01
2.370000e-06	2.370703e-06	8.210271e-10	1.646277e+01	5.546985e+01
2.380000e-06	2.413421e-06	8.331511e-10	1.675941e+01	5.636738e+01
2.390000e-06	2.455877e-06	8.416108e-10	1.705424e+01	5.724469e+01
2.400000e-06	2.498036e-06	8.510475e-10	1.734700e+01	5.810222e+01
2.410000e-06	2.539814e-06	8.631874e-10	1.763712e+01	5.894046e+01
2.420000e-06	2.581170e-06	8.744716e-10	1.792431e+01	5.975988e+01
2.430000e-06	2.622262e-06	8.855343e-10	1.820966e+01	6.056099e+01
2.440000e-06	2.663039e-06	8.977354e-10	1.849283e+01	6.134428e+01
2.450000e-06	2.703553e-06	9.080963e-10	1.877416e+01	6.211027e+01
2.460000e-06	2.743859e-06	9.175489e-10	1.905406e+01	6.285945e+01
2.470000e-06	2.783946e-06	9.278809e-10	1.933244e+01	6.359232e+01
2.480000e-06	2.823828e-06	9.373898e-10	1.960939e+01	6.430937e+01
2.490000e-06	2.863593e-06	9.485316e-10	1.988552e+01	6.501108e+01
2.500000e-06	2.903268e-06	9.607129e-10	2.016104e+01	6.569789e+01
2.510000e-06	2.942794e-06	9.709545e-10	2.043551e+01	6.637027e+01
2.520000e-06	2.982184e-06	9.806662e-10	2.070905e+01	6.702862e+01
2.530000e-06	3.021408e-06	9.900718e-10	2.098143e+01	6.767337e+01
2.540000e-06	3.060426e-06	1.000307e-09	2.125238e+01	6.830488e+01
2.550000e-06	3.099195e-06	1.010743e-09	2.152161e+01	6.892352e+01
2.560000e-06	3.137709e-06	1.019565e-09	2.178905e+01	6.952963e+01
2.570000e-06	3.176015e-06	1.026150e-09	2.205506e+01	7.012351e+01
2.580000e-06	3.214126e-06	1.034182e-09	2.231971e+01	7.070545e+01
2.590000e-06	3.252083e-06	1.045013e-09	2.258330e+01	7.127571e+01
2.600000e-06	3.289797e-06	1.055769e-09	2.284519e+01	7.183454e+01
2.610000e-06	3.327236e-06	1.063653e-09	2.310518e+01	7.238215e+01
2.620000e-06	3.364530e-06	1.069705e-09	2.336416e+01	7.291873e+01
2.630000e-06	3.401641e-06	1.074667e-09	2.362187e+01	7.344446e+01
2.640000e-06	3.438491e-06	1.079245e-09	2.387776e+01	7.395950e+01
2.650000e-06	3.475042e-06	1.085417e-09	2.413158e+01	7.446398e+01
2.660000e-06	3.511335e-06	1.094470e-09	2.438361e+01	7.495803e+01
2.670000e-06	3.547390e-06	1.103104e-09	2.463398e+01	7.544175e+01
2.680000e-06	3.583206e-06	1.109673e-09	2.488270e+01	7.591524e+01
2.690000e-06	3.618872e-06	1.114784e-09	2.513038e+01	7.637860e+01
2.700000e-06	3.654443e-06	1.118095e-09	2.537739e+01	7.683189e+01
2.710000e-06	3.689866e-06	1.120249e-09	2.562338e+01	7.727519e+01
2.720000e-06	3.725083e-06	1.124708e-09	2.586793e+01	7.770858e+01
2.730000e-06	3.760108e-06	1.131440e-09	2.611115e+01	7.813212e+01
2.740000e-06	3.794822e-06	1.140905e-09	2.635222e+01	7.854588e+01
2.750000e-06	3.829097e-06	1.149456e-09	2.659023e+01	7.894993e+01
2.760000e-06	3.862889e-06	1.153908e-09	2.682489e+01	7.934434e+01
2.770000e-06	3.896176e-06	1.155038e-09	2.705604e+01	7.972920e+01
2.780000e-06	3.929099e-06	1.155484e-09	2.728467e+01	8.010459e+01
2.790000e-06	3.961642e-06	1.159858e-09	2.751066e+01	8.047060e+01
2.800000e-06	3.993773e-06	1.165577e-09	2.773379e+01	8.082733e+01
2.810000e-06	4.025636e-06	1.171733e-09	2.795505e+01	8.117490e+01
2.820000e-06	4.057292e-06	1.177834e-09	2.817488e+01	8.151343e+01
2.830000e-06	4.088803e-06	1.182397e-09	2.839370e+01	8.184304e+01
2.840000e-06	4.120160e-06	1.187416e-09	2.861145e+01	8.216388e+01
2.850000e-06	4.151240e-06	1.190225e-09	2.882727e+01	8.247610e+01
2.860000e-06	4.182046e-06	1.191768e-09	2.904120e+01	8.277986e+01
2.870000e-06	4.212628e-06	1.194596e-09	2.925357e+01	8.307534e+01
2.880000e-06	4.242881e-06	1.197447e-09	2.946365e+01	8.336271e+01
2.890000e-06	4.272802e-06	1.200273e-09	2.967143e+01	8.364217e+01
2.900000e-06	4.302490e-06	1.202682e-09	2.987759e+01	8.391391e+01
