# Temperatura_=_8.69
# Concentracion g/m^3_=_1620.0
# C_Vs_to_Am_M_A/Vsm_=_65563218390.804596
# pendiente_HvsI_1/m_=_3716.3
# ordenada_HvsI_A/m_=_1297.0
# frecuencia_Hz_=_135109.8239860541

Tiempo_(s)	Campo_(V.s)	Magnetizacion_(V.s)	Campo_(kA/m)	Magnetizacion_(A/m)
0.000000e+00	-5.521547e-06	-1.225042e-09	-3.837099e+01	-7.909376e+01
1.000000e-08	-5.521553e-06	-1.224322e-09	-3.837103e+01	-7.907002e+01
2.000000e-08	-5.521312e-06	-1.224619e-09	-3.836936e+01	-7.904431e+01
3.000000e-08	-5.520725e-06	-1.222864e-09	-3.836528e+01	-7.901664e+01
4.000000e-08	-5.519627e-06	-1.218891e-09	-3.835765e+01	-7.898706e+01
5.000000e-08	-5.517888e-06	-1.218584e-09	-3.834557e+01	-7.895556e+01
6.000000e-08	-5.515521e-06	-1.224620e-09	-3.832912e+01	-7.892215e+01
7.000000e-08	-5.512689e-06	-1.240712e-09	-3.830944e+01	-7.888686e+01
8.000000e-08	-5.509363e-06	-1.233111e-09	-3.828632e+01	-7.884966e+01
9.000000e-08	-5.505566e-06	-1.183791e-09	-3.825994e+01	-7.881056e+01
1.000000e-07	-5.501375e-06	-1.189259e-09	-3.823081e+01	-7.876955e+01
1.100000e-07	-5.496915e-06	-1.272069e-09	-3.819982e+01	-7.872661e+01
1.200000e-07	-5.492265e-06	-1.273344e-09	-3.816750e+01	-7.868172e+01
1.300000e-07	-5.487283e-06	-1.174842e-09	-3.813288e+01	-7.863485e+01
1.400000e-07	-5.481934e-06	-1.147682e-09	-3.809571e+01	-7.858598e+01
1.500000e-07	-5.476199e-06	-1.236947e-09	-3.805586e+01	-7.853507e+01
1.600000e-07	-5.470052e-06	-1.276712e-09	-3.801313e+01	-7.848208e+01
1.700000e-07	-5.463473e-06	-1.180619e-09	-3.796742e+01	-7.842696e+01
1.800000e-07	-5.456506e-06	-1.136808e-09	-3.791900e+01	-7.836966e+01
1.900000e-07	-5.449136e-06	-1.211219e-09	-3.786779e+01	-7.831013e+01
2.000000e-07	-5.441451e-06	-1.255290e-09	-3.781438e+01	-7.824831e+01
2.100000e-07	-5.433575e-06	-1.205515e-09	-3.775965e+01	-7.818414e+01
2.200000e-07	-5.425409e-06	-1.156587e-09	-3.770290e+01	-7.811753e+01
2.300000e-07	-5.416879e-06	-1.179529e-09	-3.764362e+01	-7.804843e+01
2.400000e-07	-5.407852e-06	-1.200774e-09	-3.758089e+01	-7.797675e+01
2.500000e-07	-5.398181e-06	-1.169535e-09	-3.751368e+01	-7.790241e+01
2.600000e-07	-5.387913e-06	-1.148854e-09	-3.744233e+01	-7.782531e+01
2.700000e-07	-5.377000e-06	-1.172952e-09	-3.736649e+01	-7.774538e+01
2.800000e-07	-5.365542e-06	-1.182400e-09	-3.728687e+01	-7.766251e+01
2.900000e-07	-5.353810e-06	-1.157704e-09	-3.720533e+01	-7.757661e+01
3.000000e-07	-5.341759e-06	-1.133120e-09	-3.712159e+01	-7.748757e+01
3.100000e-07	-5.329260e-06	-1.140957e-09	-3.703473e+01	-7.739529e+01
3.200000e-07	-5.316266e-06	-1.153944e-09	-3.694443e+01	-7.729966e+01
3.300000e-07	-5.302922e-06	-1.139505e-09	-3.685170e+01	-7.720056e+01
3.400000e-07	-5.289212e-06	-1.114437e-09	-3.675643e+01	-7.709790e+01
3.500000e-07	-5.275051e-06	-1.138365e-09	-3.665802e+01	-7.699154e+01
3.600000e-07	-5.260449e-06	-1.157662e-09	-3.655654e+01	-7.688138e+01
3.700000e-07	-5.245287e-06	-1.124213e-09	-3.645117e+01	-7.676731e+01
3.800000e-07	-5.229573e-06	-1.116066e-09	-3.634197e+01	-7.664920e+01
3.900000e-07	-5.213509e-06	-1.160058e-09	-3.623034e+01	-7.652694e+01
4.000000e-07	-5.197003e-06	-1.138272e-09	-3.611563e+01	-7.640043e+01
4.100000e-07	-5.180023e-06	-1.098921e-09	-3.599763e+01	-7.626955e+01
4.200000e-07	-5.162775e-06	-1.154682e-09	-3.587777e+01	-7.613420e+01
4.300000e-07	-5.145292e-06	-1.175693e-09	-3.575628e+01	-7.599426e+01
4.400000e-07	-5.127405e-06	-1.090206e-09	-3.563197e+01	-7.584966e+01
4.500000e-07	-5.109068e-06	-1.088365e-09	-3.550454e+01	-7.570029e+01
4.600000e-07	-5.090379e-06	-1.168089e-09	-3.537467e+01	-7.554607e+01
4.700000e-07	-5.071327e-06	-1.120772e-09	-3.524227e+01	-7.538692e+01
4.800000e-07	-5.051968e-06	-1.066957e-09	-3.510774e+01	-7.522277e+01
4.900000e-07	-5.032425e-06	-1.137384e-09	-3.497193e+01	-7.505356e+01
5.000000e-07	-5.012648e-06	-1.141870e-09	-3.483449e+01	-7.487924e+01
5.100000e-07	-4.992525e-06	-1.059884e-09	-3.469465e+01	-7.469976e+01
5.200000e-07	-4.972032e-06	-1.099260e-09	-3.455224e+01	-7.451511e+01
5.300000e-07	-4.951189e-06	-1.135364e-09	-3.440739e+01	-7.432524e+01
5.400000e-07	-4.929974e-06	-1.051486e-09	-3.425996e+01	-7.413017e+01
5.500000e-07	-4.908453e-06	-1.050890e-09	-3.411041e+01	-7.392989e+01
5.600000e-07	-4.886681e-06	-1.135564e-09	-3.395910e+01	-7.372442e+01
5.700000e-07	-4.864578e-06	-1.094352e-09	-3.380551e+01	-7.351379e+01
5.800000e-07	-4.842158e-06	-1.048318e-09	-3.364970e+01	-7.329805e+01
5.900000e-07	-4.819484e-06	-1.108753e-09	-3.349213e+01	-7.307724e+01
6.000000e-07	-4.796506e-06	-1.104870e-09	-3.333245e+01	-7.285143e+01
6.100000e-07	-4.773076e-06	-1.041389e-09	-3.316963e+01	-7.262071e+01
6.200000e-07	-4.749326e-06	-1.070738e-09	-3.300458e+01	-7.238517e+01
6.300000e-07	-4.725360e-06	-1.096173e-09	-3.283803e+01	-7.214491e+01
6.400000e-07	-4.701064e-06	-1.051142e-09	-3.266920e+01	-7.190004e+01
6.500000e-07	-4.676390e-06	-1.056307e-09	-3.249772e+01	-7.165069e+01
6.600000e-07	-4.651338e-06	-1.087725e-09	-3.232364e+01	-7.139699e+01
6.700000e-07	-4.625842e-06	-1.058768e-09	-3.214646e+01	-7.113908e+01
6.800000e-07	-4.599827e-06	-1.045690e-09	-3.196567e+01	-7.087711e+01
6.900000e-07	-4.573308e-06	-1.069014e-09	-3.178138e+01	-7.061123e+01
7.000000e-07	-4.546325e-06	-1.052272e-09	-3.159386e+01	-7.034160e+01
7.100000e-07	-4.518941e-06	-1.028920e-09	-3.140356e+01	-7.006838e+01
7.200000e-07	-4.491309e-06	-1.040044e-09	-3.121154e+01	-6.979173e+01
7.300000e-07	-4.463543e-06	-1.037114e-09	-3.101859e+01	-6.951181e+01
7.400000e-07	-4.435604e-06	-1.019155e-09	-3.082443e+01	-6.922879e+01
7.500000e-07	-4.407395e-06	-1.028615e-09	-3.062840e+01	-6.894283e+01
7.600000e-07	-4.378834e-06	-1.034302e-09	-3.042992e+01	-6.865406e+01
7.700000e-07	-4.349960e-06	-1.020643e-09	-3.022926e+01	-6.836266e+01
7.800000e-07	-4.320855e-06	-1.013681e-09	-3.002700e+01	-6.806874e+01
7.900000e-07	-4.291478e-06	-1.008998e-09	-2.982285e+01	-6.777244e+01
8.000000e-07	-4.261813e-06	-9.894520e-10	-2.961670e+01	-6.747389e+01
8.100000e-07	-4.231828e-06	-9.820680e-10	-2.940832e+01	-6.717318e+01
8.200000e-07	-4.201460e-06	-9.863087e-10	-2.919728e+01	-6.687042e+01
8.300000e-07	-4.170732e-06	-9.796081e-10	-2.898375e+01	-6.656568e+01
8.400000e-07	-4.139763e-06	-9.743493e-10	-2.876853e+01	-6.625903e+01
8.500000e-07	-4.108630e-06	-9.816606e-10	-2.855218e+01	-6.595051e+01
8.600000e-07	-4.077292e-06	-9.763796e-10	-2.833440e+01	-6.564015e+01
8.700000e-07	-4.045745e-06	-9.621966e-10	-2.811517e+01	-6.532798e+01
8.800000e-07	-4.013993e-06	-9.598142e-10	-2.789452e+01	-6.501398e+01
8.900000e-07	-3.982054e-06	-9.571601e-10	-2.767256e+01	-6.469814e+01
9.000000e-07	-3.949834e-06	-9.428480e-10	-2.744866e+01	-6.438040e+01
9.100000e-07	-3.917299e-06	-9.400150e-10	-2.722256e+01	-6.406072e+01
9.200000e-07	-3.884337e-06	-9.426310e-10	-2.699350e+01	-6.373902e+01
9.300000e-07	-3.850868e-06	-9.330421e-10	-2.676091e+01	-6.341519e+01
9.400000e-07	-3.816952e-06	-9.244430e-10	-2.652522e+01	-6.308914e+01
9.500000e-07	-3.782588e-06	-9.255686e-10	-2.628641e+01	-6.276074e+01
9.600000e-07	-3.747893e-06	-9.170387e-10	-2.604531e+01	-6.242984e+01
9.700000e-07	-3.712865e-06	-9.029308e-10	-2.580188e+01	-6.209629e+01
9.800000e-07	-3.677538e-06	-9.025104e-10	-2.555639e+01	-6.175994e+01
9.900000e-07	-3.642020e-06	-9.002644e-10	-2.530956e+01	-6.142059e+01
1.000000e-06	-3.606332e-06	-8.895499e-10	-2.506156e+01	-6.107808e+01
1.010000e-06	-3.570543e-06	-8.863056e-10	-2.481284e+01	-6.073220e+01
1.020000e-06	-3.534585e-06	-8.874668e-10	-2.456296e+01	-6.038276e+01
1.030000e-06	-3.498383e-06	-8.779467e-10	-2.431138e+01	-6.002957e+01
1.040000e-06	-3.461943e-06	-8.700922e-10	-2.405815e+01	-5.967243e+01
1.050000e-06	-3.425256e-06	-8.682585e-10	-2.380320e+01	-5.931113e+01
1.060000e-06	-3.388343e-06	-8.600942e-10	-2.354668e+01	-5.894548e+01
1.070000e-06	-3.351139e-06	-8.487993e-10	-2.328814e+01	-5.857529e+01
1.080000e-06	-3.313699e-06	-8.465356e-10	-2.302795e+01	-5.820039e+01
1.090000e-06	-3.276085e-06	-8.418687e-10	-2.276656e+01	-5.782058e+01
1.100000e-06	-3.238227e-06	-8.322318e-10	-2.250347e+01	-5.743572e+01
1.110000e-06	-3.200107e-06	-8.253871e-10	-2.223856e+01	-5.704564e+01
1.120000e-06	-3.161765e-06	-8.196079e-10	-2.197211e+01	-5.665022e+01
1.130000e-06	-3.123276e-06	-8.073465e-10	-2.170464e+01	-5.624932e+01
1.140000e-06	-3.084603e-06	-7.968712e-10	-2.143589e+01	-5.584284e+01
1.150000e-06	-3.045709e-06	-7.916233e-10	-2.116561e+01	-5.543069e+01
1.160000e-06	-3.006525e-06	-7.877928e-10	-2.089330e+01	-5.501279e+01
1.170000e-06	-2.967089e-06	-7.812866e-10	-2.061925e+01	-5.458910e+01
1.180000e-06	-2.927567e-06	-7.756082e-10	-2.034460e+01	-5.415957e+01
1.190000e-06	-2.887966e-06	-7.704050e-10	-2.006939e+01	-5.372419e+01
1.200000e-06	-2.848242e-06	-7.601097e-10	-1.979335e+01	-5.328296e+01
1.210000e-06	-2.808383e-06	-7.517174e-10	-1.951635e+01	-5.283589e+01
1.220000e-06	-2.768385e-06	-7.443829e-10	-1.923839e+01	-5.238301e+01
1.230000e-06	-2.728204e-06	-7.345640e-10	-1.895916e+01	-5.192437e+01
1.240000e-06	-2.687782e-06	-7.255978e-10	-1.867825e+01	-5.146003e+01
1.250000e-06	-2.647109e-06	-7.203523e-10	-1.839560e+01	-5.099007e+01
1.260000e-06	-2.606130e-06	-7.144367e-10	-1.811083e+01	-5.051457e+01
1.270000e-06	-2.564913e-06	-7.077266e-10	-1.782440e+01	-5.003362e+01
1.280000e-06	-2.523439e-06	-7.034903e-10	-1.753618e+01	-4.954731e+01
1.290000e-06	-2.481687e-06	-6.978523e-10	-1.724603e+01	-4.905574e+01
1.300000e-06	-2.439651e-06	-6.862535e-10	-1.695392e+01	-4.855902e+01
1.310000e-06	-2.397289e-06	-6.767650e-10	-1.665952e+01	-4.805723e+01
1.320000e-06	-2.354691e-06	-6.713878e-10	-1.636350e+01	-4.755047e+01
1.330000e-06	-2.311824e-06	-6.666572e-10	-1.606560e+01	-4.703881e+01
1.340000e-06	-2.268761e-06	-6.596821e-10	-1.576635e+01	-4.652234e+01
1.350000e-06	-2.225522e-06	-6.538176e-10	-1.546586e+01	-4.600110e+01
1.360000e-06	-2.182098e-06	-6.476613e-10	-1.516409e+01	-4.547512e+01
1.370000e-06	-2.138593e-06	-6.412516e-10	-1.486177e+01	-4.494444e+01
1.380000e-06	-2.094955e-06	-6.346214e-10	-1.455851e+01	-4.440903e+01
1.390000e-06	-2.051174e-06	-6.247211e-10	-1.425426e+01	-4.386886e+01
1.400000e-06	-2.007370e-06	-6.125970e-10	-1.394985e+01	-4.332387e+01
1.410000e-06	-1.963535e-06	-6.004761e-10	-1.364523e+01	-4.277397e+01
1.420000e-06	-1.919615e-06	-5.928678e-10	-1.334002e+01	-4.221902e+01
1.430000e-06	-1.875581e-06	-5.861630e-10	-1.303401e+01	-4.165886e+01
1.440000e-06	-1.831370e-06	-5.776388e-10	-1.272678e+01	-4.109330e+01
1.450000e-06	-1.787000e-06	-5.691496e-10	-1.241843e+01	-4.052209e+01
1.460000e-06	-1.742515e-06	-5.605899e-10	-1.210929e+01	-3.994495e+01
1.470000e-06	-1.697903e-06	-5.533614e-10	-1.179927e+01	-3.936157e+01
1.480000e-06	-1.653135e-06	-5.456407e-10	-1.148816e+01	-3.877159e+01
1.490000e-06	-1.608269e-06	-5.371380e-10	-1.117637e+01	-3.817461e+01
1.500000e-06	-1.563307e-06	-5.261738e-10	-1.086392e+01	-3.757021e+01
1.510000e-06	-1.518205e-06	-5.146738e-10	-1.055049e+01	-3.695791e+01
1.520000e-06	-1.473016e-06	-5.056817e-10	-1.023646e+01	-3.633721e+01
1.530000e-06	-1.427701e-06	-4.990067e-10	-9.921550e+00	-3.570757e+01
1.540000e-06	-1.382281e-06	-4.916146e-10	-9.605911e+00	-3.506841e+01
1.550000e-06	-1.336768e-06	-4.809450e-10	-9.289631e+00	-3.441915e+01
1.560000e-06	-1.291155e-06	-4.671662e-10	-8.972646e+00	-3.375916e+01
1.570000e-06	-1.245504e-06	-4.531752e-10	-8.655403e+00	-3.308781e+01
1.580000e-06	-1.199793e-06	-4.410445e-10	-8.337747e+00	-3.240443e+01
1.590000e-06	-1.153984e-06	-4.303397e-10	-8.019407e+00	-3.170835e+01
1.600000e-06	-1.108074e-06	-4.215604e-10	-7.700362e+00	-3.099891e+01
1.610000e-06	-1.062103e-06	-4.102387e-10	-7.380896e+00	-3.027542e+01
1.620000e-06	-1.016043e-06	-3.988816e-10	-7.060805e+00	-2.953721e+01
1.630000e-06	-9.698229e-07	-3.856217e-10	-6.739609e+00	-2.878362e+01
1.640000e-06	-9.234919e-07	-3.715178e-10	-6.417640e+00	-2.801400e+01
1.650000e-06	-8.771581e-07	-3.552107e-10	-6.095652e+00	-2.722771e+01
1.660000e-06	-8.308060e-07	-3.420848e-10	-5.773536e+00	-2.642416e+01
1.670000e-06	-7.844294e-07	-3.337654e-10	-5.451250e+00	-2.560278e+01
1.680000e-06	-7.380652e-07	-3.257851e-10	-5.129050e+00	-2.476303e+01
1.690000e-06	-6.916726e-07	-3.148171e-10	-4.806654e+00	-2.390442e+01
1.700000e-06	-6.451704e-07	-2.999880e-10	-4.483495e+00	-2.302652e+01
1.710000e-06	-5.985259e-07	-2.817272e-10	-4.159347e+00	-2.212893e+01
1.720000e-06	-5.518736e-07	-2.626264e-10	-3.835146e+00	-2.121134e+01
1.730000e-06	-5.051930e-07	-2.454695e-10	-3.510747e+00	-2.027348e+01
1.740000e-06	-4.584080e-07	-2.309305e-10	-3.185624e+00	-1.931516e+01
1.750000e-06	-4.116106e-07	-2.195180e-10	-2.860413e+00	-1.833625e+01
1.760000e-06	-3.648205e-07	-2.087068e-10	-2.535254e+00	-1.733673e+01
1.770000e-06	-3.180477e-07	-1.962310e-10	-2.210215e+00	-1.631662e+01
1.780000e-06	-2.713123e-07	-1.811858e-10	-1.885436e+00	-1.527604e+01
1.790000e-06	-2.245518e-07	-1.641620e-10	-1.560482e+00	-1.421520e+01
1.800000e-06	-1.777395e-07	-1.462830e-10	-1.235169e+00	-1.313438e+01
1.810000e-06	-1.308506e-07	-1.285135e-10	-9.093226e-01	-1.203396e+01
1.820000e-06	-8.399102e-08	-1.127995e-10	-5.836804e-01	-1.091441e+01
1.830000e-06	-3.713430e-08	-9.952860e-11	-2.580581e-01	-9.776275e+00
1.840000e-06	9.827445e-09	-8.510740e-11	6.829405e-02	-8.620195e+00
1.850000e-06	5.674198e-08	-7.284515e-11	3.943181e-01	-7.446892e+00
1.860000e-06	1.036360e-07	-5.878979e-11	7.201994e-01	-6.257170e+00
1.870000e-06	1.505030e-07	-3.956405e-11	1.045894e+00	-5.051915e+00
1.880000e-06	1.972887e-07	-1.853436e-11	1.371022e+00	-3.832090e+00
1.890000e-06	2.440786e-07	6.524314e-13	1.696180e+00	-2.598729e+00
1.900000e-06	2.908308e-07	1.574379e-11	2.021076e+00	-1.352936e+00
1.910000e-06	3.374752e-07	3.027519e-11	2.345223e+00	-9.588057e-02
1.920000e-06	3.841635e-07	4.727777e-11	2.669675e+00	1.171212e+00
1.930000e-06	4.309114e-07	6.541536e-11	2.994541e+00	2.447063e+00
1.940000e-06	4.775567e-07	8.473873e-11	3.318694e+00	3.730347e+00
1.950000e-06	5.241673e-07	1.056216e-10	3.642606e+00	5.019698e+00
1.960000e-06	5.707197e-07	1.253800e-10	3.966114e+00	6.313718e+00
1.970000e-06	6.172104e-07	1.420269e-10	4.289192e+00	7.610981e+00
1.980000e-06	6.637142e-07	1.579632e-10	4.612362e+00	8.910046e+00
1.990000e-06	7.101406e-07	1.722648e-10	4.934994e+00	1.020946e+01
2.000000e-06	7.565160e-07	1.888735e-10	5.257271e+00	1.150776e+01
2.010000e-06	8.028628e-07	2.071612e-10	5.579350e+00	1.280349e+01
2.020000e-06	8.491628e-07	2.273605e-10	5.901104e+00	1.409521e+01
2.030000e-06	8.954099e-07	2.519975e-10	6.222489e+00	1.538150e+01
2.040000e-06	9.415812e-07	2.751931e-10	6.543348e+00	1.666096e+01
2.050000e-06	9.876129e-07	2.935140e-10	6.863237e+00	1.793222e+01
2.060000e-06	1.033560e-06	3.085782e-10	7.182539e+00	1.919396e+01
2.070000e-06	1.079485e-06	3.221833e-10	7.501685e+00	2.044489e+01
2.080000e-06	1.125344e-06	3.368106e-10	7.820373e+00	2.168378e+01
2.090000e-06	1.171153e-06	3.547022e-10	8.138714e+00	2.290948e+01
2.100000e-06	1.216899e-06	3.733743e-10	8.456619e+00	2.412087e+01
2.110000e-06	1.262545e-06	3.909066e-10	8.773827e+00	2.531692e+01
2.120000e-06	1.308072e-06	4.077003e-10	9.090213e+00	2.649665e+01
2.130000e-06	1.353531e-06	4.235777e-10	9.406120e+00	2.765918e+01
2.140000e-06	1.398880e-06	4.363675e-10	9.721267e+00	2.880370e+01
2.150000e-06	1.444146e-06	4.471658e-10	1.003583e+01	2.992947e+01
2.160000e-06	1.489308e-06	4.593489e-10	1.034968e+01	3.103586e+01
2.170000e-06	1.534362e-06	4.735775e-10	1.066277e+01	3.212230e+01
2.180000e-06	1.579338e-06	4.893088e-10	1.097532e+01	3.318831e+01
2.190000e-06	1.624174e-06	5.064641e-10	1.128690e+01	3.423351e+01
2.200000e-06	1.668878e-06	5.216572e-10	1.159757e+01	3.525759e+01
2.210000e-06	1.713452e-06	5.328919e-10	1.190732e+01	3.626034e+01
2.220000e-06	1.757884e-06	5.419702e-10	1.221609e+01	3.724160e+01
2.230000e-06	1.802093e-06	5.525391e-10	1.252332e+01	3.820134e+01
2.240000e-06	1.846094e-06	5.650279e-10	1.282910e+01	3.913956e+01
2.250000e-06	1.890010e-06	5.796621e-10	1.313428e+01	4.005636e+01
2.260000e-06	1.933891e-06	5.955936e-10	1.343922e+01	4.095191e+01
2.270000e-06	1.977701e-06	6.104999e-10	1.374368e+01	4.182644e+01
2.280000e-06	2.021443e-06	6.231747e-10	1.404765e+01	4.268024e+01
2.290000e-06	2.065189e-06	6.332637e-10	1.435166e+01	4.351367e+01
2.300000e-06	2.108889e-06	6.408122e-10	1.465534e+01	4.432713e+01
2.310000e-06	2.152516e-06	6.496307e-10	1.495852e+01	4.512107e+01
2.320000e-06	2.196029e-06	6.631914e-10	1.526090e+01	4.589598e+01
2.330000e-06	2.239441e-06	6.784944e-10	1.556259e+01	4.665240e+01
2.340000e-06	2.282766e-06	6.929384e-10	1.586367e+01	4.739088e+01
2.350000e-06	2.325886e-06	7.041131e-10	1.616333e+01	4.811201e+01
2.360000e-06	2.368749e-06	7.124822e-10	1.646119e+01	4.881640e+01
2.370000e-06	2.411303e-06	7.196948e-10	1.675692e+01	4.950465e+01
2.380000e-06	2.453523e-06	7.275307e-10	1.705031e+01	5.017739e+01
2.390000e-06	2.495396e-06	7.359905e-10	1.734130e+01	5.083526e+01
2.400000e-06	2.536976e-06	7.450255e-10	1.763025e+01	5.147887e+01
2.410000e-06	2.578274e-06	7.566710e-10	1.791725e+01	5.210885e+01
2.420000e-06	2.619271e-06	7.691107e-10	1.820215e+01	5.272580e+01
2.430000e-06	2.659972e-06	7.800100e-10	1.848499e+01	5.333031e+01
2.440000e-06	2.700385e-06	7.882034e-10	1.876584e+01	5.392296e+01
2.450000e-06	2.740564e-06	7.938967e-10	1.904506e+01	5.450428e+01
2.460000e-06	2.780575e-06	7.985494e-10	1.932311e+01	5.507480e+01
2.470000e-06	2.820481e-06	8.041648e-10	1.960042e+01	5.563500e+01
2.480000e-06	2.860267e-06	8.117224e-10	1.987691e+01	5.618535e+01
2.490000e-06	2.899918e-06	8.210110e-10	2.015246e+01	5.672626e+01
2.500000e-06	2.939465e-06	8.328593e-10	2.042728e+01	5.725813e+01
2.510000e-06	2.978907e-06	8.432651e-10	2.070138e+01	5.778130e+01
2.520000e-06	3.018175e-06	8.508631e-10	2.097426e+01	5.829610e+01
2.530000e-06	3.057271e-06	8.566972e-10	2.124595e+01	5.880279e+01
2.540000e-06	3.096213e-06	8.629437e-10	2.151657e+01	5.930162e+01
2.550000e-06	3.134883e-06	8.695283e-10	2.178530e+01	5.979280e+01
2.560000e-06	3.173206e-06	8.756003e-10	2.205162e+01	6.027648e+01
2.570000e-06	3.211251e-06	8.827818e-10	2.231601e+01	6.075280e+01
2.580000e-06	3.249103e-06	8.909547e-10	2.257906e+01	6.122187e+01
2.590000e-06	3.286794e-06	8.979798e-10	2.284098e+01	6.168375e+01
2.600000e-06	3.324289e-06	9.015374e-10	2.310155e+01	6.213848e+01
2.610000e-06	3.361632e-06	9.047554e-10	2.336105e+01	6.258608e+01
2.620000e-06	3.398775e-06	9.092579e-10	2.361917e+01	6.302655e+01
2.630000e-06	3.435564e-06	9.144190e-10	2.387483e+01	6.345984e+01
2.640000e-06	3.472016e-06	9.211141e-10	2.412814e+01	6.388592e+01
2.650000e-06	3.508166e-06	9.293624e-10	2.437936e+01	6.430472e+01
2.660000e-06	3.544107e-06	9.360420e-10	2.462913e+01	6.471617e+01
2.670000e-06	3.579912e-06	9.409125e-10	2.487795e+01	6.512018e+01
2.680000e-06	3.615634e-06	9.450221e-10	2.512619e+01	6.551667e+01
2.690000e-06	3.651288e-06	9.452741e-10	2.537396e+01	6.590554e+01
2.700000e-06	3.686762e-06	9.451168e-10	2.562049e+01	6.628670e+01
2.710000e-06	3.722049e-06	9.494265e-10	2.586571e+01	6.666007e+01
2.720000e-06	3.757076e-06	9.565265e-10	2.610912e+01	6.702556e+01
2.730000e-06	3.791664e-06	9.653981e-10	2.634948e+01	6.738309e+01
2.740000e-06	3.825778e-06	9.723603e-10	2.658656e+01	6.773260e+01
2.750000e-06	3.859385e-06	9.757529e-10	2.682010e+01	6.807404e+01
2.760000e-06	3.892571e-06	9.776004e-10	2.705072e+01	6.840737e+01
2.770000e-06	3.925385e-06	9.789598e-10	2.727875e+01	6.873256e+01
2.780000e-06	3.957754e-06	9.803607e-10	2.750370e+01	6.904961e+01
2.790000e-06	3.989811e-06	9.821862e-10	2.772647e+01	6.935853e+01
2.800000e-06	4.021704e-06	9.868421e-10	2.794811e+01	6.965936e+01
2.810000e-06	4.053476e-06	9.930441e-10	2.816890e+01	6.995214e+01
2.820000e-06	4.085117e-06	9.984078e-10	2.838878e+01	7.023695e+01
2.830000e-06	4.116544e-06	1.003982e-09	2.860718e+01	7.051387e+01
2.840000e-06	4.147643e-06	1.007264e-09	2.882330e+01	7.078303e+01
2.850000e-06	4.178415e-06	1.006775e-09	2.903714e+01	7.104454e+01
2.860000e-06	4.208954e-06	1.005106e-09	2.924936e+01	7.129856e+01
2.870000e-06	4.239179e-06	1.004719e-09	2.945941e+01	7.154525e+01
2.880000e-06	4.269059e-06	1.005611e-09	2.966705e+01	7.178480e+01
2.890000e-06	4.298683e-06	1.005975e-09	2.987292e+01	7.201740e+01
2.900000e-06	4.328060e-06	1.007832e-09	3.007707e+01	7.224327e+01
2.910000e-06	4.357173e-06	1.013217e-09	3.027939e+01	7.246263e+01
