# Temperatura_=_-0.4
# Concentracion g/m^3_=_1620.0
# C_Vs_to_Am_M_A/Vsm_=_65563218390.804596
# pendiente_HvsI_1/m_=_3716.3
# ordenada_HvsI_A/m_=_1297.0
# frecuencia_Hz_=_135089.91682656738

Tiempo_(s)	Campo_(V.s)	Magnetizacion_(V.s)	Campo_(kA/m)	Magnetizacion_(A/m)
0.000000e+00	-5.505687e-06	-1.709495e-09	-3.838277e+01	-1.108764e+02
1.000000e-08	-5.506012e-06	-1.705505e-09	-3.838503e+01	-1.108213e+02
2.000000e-08	-5.506105e-06	-1.700209e-09	-3.838568e+01	-1.107614e+02
3.000000e-08	-5.505730e-06	-1.699770e-09	-3.838307e+01	-1.106967e+02
4.000000e-08	-5.504816e-06	-1.700899e-09	-3.837669e+01	-1.106275e+02
5.000000e-08	-5.503415e-06	-1.702048e-09	-3.836693e+01	-1.105537e+02
6.000000e-08	-5.501512e-06	-1.700692e-09	-3.835366e+01	-1.104757e+02
7.000000e-08	-5.499062e-06	-1.697768e-09	-3.833658e+01	-1.103933e+02
8.000000e-08	-5.496034e-06	-1.715411e-09	-3.831547e+01	-1.103070e+02
9.000000e-08	-5.492495e-06	-1.715781e-09	-3.829080e+01	-1.102167e+02
1.000000e-07	-5.488563e-06	-1.675917e-09	-3.826339e+01	-1.101226e+02
1.100000e-07	-5.484261e-06	-1.663834e-09	-3.823340e+01	-1.100250e+02
1.200000e-07	-5.479694e-06	-1.693223e-09	-3.820156e+01	-1.099238e+02
1.300000e-07	-5.474987e-06	-1.728736e-09	-3.816874e+01	-1.098194e+02
1.400000e-07	-5.469909e-06	-1.702996e-09	-3.813334e+01	-1.097119e+02
1.500000e-07	-5.464333e-06	-1.655806e-09	-3.809447e+01	-1.096013e+02
1.600000e-07	-5.458453e-06	-1.716418e-09	-3.805348e+01	-1.094879e+02
1.700000e-07	-5.452286e-06	-1.736265e-09	-3.801048e+01	-1.093717e+02
1.800000e-07	-5.445580e-06	-1.719381e-09	-3.796373e+01	-1.092530e+02
1.900000e-07	-5.438459e-06	-1.638866e-09	-3.791409e+01	-1.091318e+02
2.000000e-07	-5.431058e-06	-1.654135e-09	-3.786249e+01	-1.090083e+02
2.100000e-07	-5.423386e-06	-1.655674e-09	-3.780901e+01	-1.088825e+02
2.200000e-07	-5.415518e-06	-1.651770e-09	-3.775416e+01	-1.087545e+02
2.300000e-07	-5.407406e-06	-1.625233e-09	-3.769760e+01	-1.086245e+02
2.400000e-07	-5.398957e-06	-1.636151e-09	-3.763870e+01	-1.084924e+02
2.500000e-07	-5.389938e-06	-1.630520e-09	-3.757582e+01	-1.083582e+02
2.600000e-07	-5.380124e-06	-1.609764e-09	-3.750740e+01	-1.082222e+02
2.700000e-07	-5.369541e-06	-1.594975e-09	-3.743363e+01	-1.080841e+02
2.800000e-07	-5.358517e-06	-1.594088e-09	-3.735677e+01	-1.079441e+02
2.900000e-07	-5.347138e-06	-1.601999e-09	-3.727745e+01	-1.078021e+02
3.000000e-07	-5.335403e-06	-1.585354e-09	-3.719563e+01	-1.076581e+02
3.100000e-07	-5.323279e-06	-1.603036e-09	-3.711112e+01	-1.075120e+02
3.200000e-07	-5.310677e-06	-1.597557e-09	-3.702326e+01	-1.073638e+02
3.300000e-07	-5.297616e-06	-1.613000e-09	-3.693221e+01	-1.072133e+02
3.400000e-07	-5.284261e-06	-1.588942e-09	-3.683910e+01	-1.070605e+02
3.500000e-07	-5.270651e-06	-1.593675e-09	-3.674422e+01	-1.069053e+02
3.600000e-07	-5.256460e-06	-1.579717e-09	-3.664529e+01	-1.067475e+02
3.700000e-07	-5.241585e-06	-1.591303e-09	-3.654159e+01	-1.065870e+02
3.800000e-07	-5.226290e-06	-1.570373e-09	-3.643496e+01	-1.064236e+02
3.900000e-07	-5.210608e-06	-1.588234e-09	-3.632563e+01	-1.062572e+02
4.000000e-07	-5.194444e-06	-1.590444e-09	-3.621294e+01	-1.060877e+02
4.100000e-07	-5.177844e-06	-1.581550e-09	-3.609722e+01	-1.059147e+02
4.200000e-07	-5.160924e-06	-1.557303e-09	-3.597926e+01	-1.057382e+02
4.300000e-07	-5.143711e-06	-1.585412e-09	-3.585926e+01	-1.055579e+02
4.400000e-07	-5.126204e-06	-1.579356e-09	-3.573721e+01	-1.053737e+02
4.500000e-07	-5.108442e-06	-1.552042e-09	-3.561338e+01	-1.051853e+02
4.600000e-07	-5.090160e-06	-1.553629e-09	-3.548593e+01	-1.049927e+02
4.700000e-07	-5.071364e-06	-1.579081e-09	-3.535489e+01	-1.047954e+02
4.800000e-07	-5.052294e-06	-1.547028e-09	-3.522194e+01	-1.045935e+02
4.900000e-07	-5.032956e-06	-1.531626e-09	-3.508713e+01	-1.043867e+02
5.000000e-07	-5.013433e-06	-1.556999e-09	-3.495103e+01	-1.041747e+02
5.100000e-07	-4.993728e-06	-1.546443e-09	-3.481365e+01	-1.039575e+02
5.200000e-07	-4.973742e-06	-1.517290e-09	-3.467433e+01	-1.037349e+02
5.300000e-07	-4.953423e-06	-1.540782e-09	-3.453267e+01	-1.035066e+02
5.400000e-07	-4.932695e-06	-1.546730e-09	-3.438817e+01	-1.032726e+02
5.500000e-07	-4.911641e-06	-1.502258e-09	-3.424139e+01	-1.030327e+02
5.600000e-07	-4.890143e-06	-1.507568e-09	-3.409152e+01	-1.027867e+02
5.700000e-07	-4.868348e-06	-1.530993e-09	-3.393957e+01	-1.025347e+02
5.800000e-07	-4.846274e-06	-1.506162e-09	-3.378569e+01	-1.022763e+02
5.900000e-07	-4.823709e-06	-1.487194e-09	-3.362838e+01	-1.020117e+02
6.000000e-07	-4.800798e-06	-1.516475e-09	-3.346865e+01	-1.017406e+02
6.100000e-07	-4.777578e-06	-1.506391e-09	-3.330677e+01	-1.014631e+02
6.200000e-07	-4.754092e-06	-1.491361e-09	-3.314304e+01	-1.011790e+02
6.300000e-07	-4.730477e-06	-1.500314e-09	-3.297841e+01	-1.008884e+02
6.400000e-07	-4.706662e-06	-1.501322e-09	-3.281238e+01	-1.005913e+02
6.500000e-07	-4.682530e-06	-1.473519e-09	-3.264415e+01	-1.002876e+02
6.600000e-07	-4.657958e-06	-1.479350e-09	-3.247284e+01	-9.997726e+01
6.700000e-07	-4.632856e-06	-1.477911e-09	-3.229785e+01	-9.966043e+01
6.800000e-07	-4.607319e-06	-1.464646e-09	-3.211981e+01	-9.933709e+01
6.900000e-07	-4.581123e-06	-1.457316e-09	-3.193719e+01	-9.900728e+01
7.000000e-07	-4.554383e-06	-1.463391e-09	-3.175077e+01	-9.867107e+01
7.100000e-07	-4.527319e-06	-1.447751e-09	-3.156210e+01	-9.832852e+01
7.200000e-07	-4.499948e-06	-1.442518e-09	-3.137128e+01	-9.797971e+01
7.300000e-07	-4.472416e-06	-1.440302e-09	-3.117934e+01	-9.762470e+01
7.400000e-07	-4.444785e-06	-1.434474e-09	-3.098672e+01	-9.726359e+01
7.500000e-07	-4.416958e-06	-1.422160e-09	-3.079272e+01	-9.689648e+01
7.600000e-07	-4.388806e-06	-1.419714e-09	-3.059646e+01	-9.652346e+01
7.700000e-07	-4.360289e-06	-1.409588e-09	-3.039765e+01	-9.614463e+01
7.800000e-07	-4.331419e-06	-1.398164e-09	-3.019639e+01	-9.576008e+01
7.900000e-07	-4.302236e-06	-1.389264e-09	-2.999294e+01	-9.536993e+01
8.000000e-07	-4.272810e-06	-1.378613e-09	-2.978780e+01	-9.497427e+01
8.100000e-07	-4.243174e-06	-1.364924e-09	-2.958119e+01	-9.457321e+01
8.200000e-07	-4.213203e-06	-1.358027e-09	-2.937225e+01	-9.416683e+01
8.300000e-07	-4.182929e-06	-1.352544e-09	-2.916119e+01	-9.375523e+01
8.400000e-07	-4.152390e-06	-1.340829e-09	-2.894829e+01	-9.333851e+01
8.500000e-07	-4.121555e-06	-1.333438e-09	-2.873332e+01	-9.291674e+01
8.600000e-07	-4.090451e-06	-1.328762e-09	-2.851648e+01	-9.248999e+01
8.700000e-07	-4.059094e-06	-1.324202e-09	-2.829788e+01	-9.205834e+01
8.800000e-07	-4.027543e-06	-1.316327e-09	-2.807792e+01	-9.162186e+01
8.900000e-07	-3.995853e-06	-1.316082e-09	-2.785700e+01	-9.118059e+01
9.000000e-07	-3.963967e-06	-1.305930e-09	-2.763470e+01	-9.073458e+01
9.100000e-07	-3.931716e-06	-1.291318e-09	-2.740986e+01	-9.028386e+01
9.200000e-07	-3.899157e-06	-1.280084e-09	-2.718288e+01	-8.982848e+01
9.300000e-07	-3.866230e-06	-1.276293e-09	-2.695333e+01	-8.936844e+01
9.400000e-07	-3.832817e-06	-1.268902e-09	-2.672039e+01	-8.890375e+01
9.500000e-07	-3.798948e-06	-1.266342e-09	-2.648427e+01	-8.843443e+01
9.600000e-07	-3.764606e-06	-1.264779e-09	-2.624486e+01	-8.796047e+01
9.700000e-07	-3.729899e-06	-1.258014e-09	-2.600290e+01	-8.748185e+01
9.800000e-07	-3.694801e-06	-1.241665e-09	-2.575822e+01	-8.699856e+01
9.900000e-07	-3.659433e-06	-1.232393e-09	-2.551165e+01	-8.651057e+01
1.000000e-06	-3.623986e-06	-1.221216e-09	-2.526453e+01	-8.601784e+01
1.010000e-06	-3.588404e-06	-1.213151e-09	-2.501647e+01	-8.552033e+01
1.020000e-06	-3.552697e-06	-1.210574e-09	-2.476755e+01	-8.501801e+01
1.030000e-06	-3.516865e-06	-1.213724e-09	-2.451774e+01	-8.451083e+01
1.040000e-06	-3.480858e-06	-1.209833e-09	-2.426672e+01	-8.399873e+01
1.050000e-06	-3.444579e-06	-1.205024e-09	-2.401380e+01	-8.348167e+01
1.060000e-06	-3.407986e-06	-1.197356e-09	-2.375869e+01	-8.295957e+01
1.070000e-06	-3.371116e-06	-1.181766e-09	-2.350166e+01	-8.243240e+01
1.080000e-06	-3.333977e-06	-1.163862e-09	-2.324274e+01	-8.190008e+01
1.090000e-06	-3.296602e-06	-1.154802e-09	-2.298218e+01	-8.136257e+01
1.100000e-06	-3.258996e-06	-1.148581e-09	-2.272002e+01	-8.081979e+01
1.110000e-06	-3.221246e-06	-1.139879e-09	-2.245684e+01	-8.027170e+01
1.120000e-06	-3.183304e-06	-1.134667e-09	-2.219233e+01	-7.971824e+01
1.130000e-06	-3.145175e-06	-1.130366e-09	-2.192652e+01	-7.915935e+01
1.140000e-06	-3.106820e-06	-1.120986e-09	-2.165912e+01	-7.859498e+01
1.150000e-06	-3.068069e-06	-1.107475e-09	-2.138897e+01	-7.802507e+01
1.160000e-06	-3.029103e-06	-1.095954e-09	-2.111732e+01	-7.744958e+01
1.170000e-06	-2.990042e-06	-1.085901e-09	-2.084501e+01	-7.686846e+01
1.180000e-06	-2.950763e-06	-1.077003e-09	-2.057118e+01	-7.628166e+01
1.190000e-06	-2.911321e-06	-1.067216e-09	-2.029621e+01	-7.568913e+01
1.200000e-06	-2.871796e-06	-1.057627e-09	-2.002066e+01	-7.509083e+01
1.210000e-06	-2.832143e-06	-1.047495e-09	-1.974422e+01	-7.448671e+01
1.220000e-06	-2.792318e-06	-1.037149e-09	-1.946658e+01	-7.387672e+01
1.230000e-06	-2.752343e-06	-1.024505e-09	-1.918789e+01	-7.326081e+01
1.240000e-06	-2.712178e-06	-1.013063e-09	-1.890788e+01	-7.263894e+01
1.250000e-06	-2.671827e-06	-1.001883e-09	-1.862658e+01	-7.201104e+01
1.260000e-06	-2.631241e-06	-9.950620e-10	-1.834364e+01	-7.137706e+01
1.270000e-06	-2.590349e-06	-9.856624e-10	-1.805856e+01	-7.073693e+01
1.280000e-06	-2.549167e-06	-9.760702e-10	-1.777146e+01	-7.009057e+01
1.290000e-06	-2.507724e-06	-9.663463e-10	-1.748254e+01	-6.943790e+01
1.300000e-06	-2.466090e-06	-9.554052e-10	-1.719229e+01	-6.877883e+01
1.310000e-06	-2.424156e-06	-9.396603e-10	-1.689994e+01	-6.811325e+01
1.320000e-06	-2.381839e-06	-9.255277e-10	-1.660494e+01	-6.744105e+01
1.330000e-06	-2.339256e-06	-9.136669e-10	-1.630807e+01	-6.676210e+01
1.340000e-06	-2.296527e-06	-9.049314e-10	-1.601019e+01	-6.607625e+01
1.350000e-06	-2.253573e-06	-8.971603e-10	-1.571073e+01	-6.538333e+01
1.360000e-06	-2.210372e-06	-8.889789e-10	-1.540956e+01	-6.468317e+01
1.370000e-06	-2.167092e-06	-8.779017e-10	-1.510783e+01	-6.397556e+01
1.380000e-06	-2.123738e-06	-8.645137e-10	-1.480559e+01	-6.326029e+01
1.390000e-06	-2.080242e-06	-8.473740e-10	-1.450236e+01	-6.253711e+01
1.400000e-06	-2.036582e-06	-8.283386e-10	-1.419798e+01	-6.180577e+01
1.410000e-06	-1.992836e-06	-8.129136e-10	-1.389301e+01	-6.106597e+01
1.420000e-06	-1.949021e-06	-8.015617e-10	-1.358756e+01	-6.031741e+01
1.430000e-06	-1.905118e-06	-7.937284e-10	-1.328149e+01	-5.955975e+01
1.440000e-06	-1.861187e-06	-7.849371e-10	-1.297522e+01	-5.879265e+01
1.450000e-06	-1.817151e-06	-7.735955e-10	-1.266822e+01	-5.801572e+01
1.460000e-06	-1.772978e-06	-7.591998e-10	-1.236027e+01	-5.722857e+01
1.470000e-06	-1.728692e-06	-7.425890e-10	-1.205154e+01	-5.643078e+01
1.480000e-06	-1.684357e-06	-7.243176e-10	-1.174246e+01	-5.562190e+01
1.490000e-06	-1.639796e-06	-7.089798e-10	-1.143180e+01	-5.480147e+01
1.500000e-06	-1.594939e-06	-6.990689e-10	-1.111908e+01	-5.396901e+01
1.510000e-06	-1.550011e-06	-6.914407e-10	-1.080586e+01	-5.312401e+01
1.520000e-06	-1.505053e-06	-6.806394e-10	-1.049244e+01	-5.226597e+01
1.530000e-06	-1.460059e-06	-6.677064e-10	-1.017877e+01	-5.139436e+01
1.540000e-06	-1.415045e-06	-6.531517e-10	-9.864949e+00	-5.050863e+01
1.550000e-06	-1.369901e-06	-6.412371e-10	-9.550232e+00	-4.960824e+01
1.560000e-06	-1.324595e-06	-6.307481e-10	-9.234380e+00	-4.869263e+01
1.570000e-06	-1.279159e-06	-6.187217e-10	-8.917629e+00	-4.776124e+01
1.580000e-06	-1.233625e-06	-6.062678e-10	-8.600187e+00	-4.681352e+01
1.590000e-06	-1.187979e-06	-5.911786e-10	-8.281968e+00	-4.584891e+01
1.600000e-06	-1.142183e-06	-5.740038e-10	-7.962701e+00	-4.486686e+01
1.610000e-06	-1.096386e-06	-5.598410e-10	-7.643426e+00	-4.386683e+01
1.620000e-06	-1.050502e-06	-5.450481e-10	-7.323552e+00	-4.284829e+01
1.630000e-06	-1.004453e-06	-5.309286e-10	-7.002524e+00	-4.181072e+01
1.640000e-06	-9.584193e-07	-5.180092e-10	-6.681597e+00	-4.075365e+01
1.650000e-06	-9.124189e-07	-5.055856e-10	-6.360906e+00	-3.967659e+01
1.660000e-06	-8.664081e-07	-4.906598e-10	-6.040144e+00	-3.857912e+01
1.670000e-06	-8.203306e-07	-4.740963e-10	-5.718915e+00	-3.746083e+01
1.680000e-06	-7.741211e-07	-4.581508e-10	-5.396767e+00	-3.632133e+01
1.690000e-06	-7.279149e-07	-4.421860e-10	-5.074641e+00	-3.516031e+01
1.700000e-06	-6.816989e-07	-4.255145e-10	-4.752448e+00	-3.397747e+01
1.710000e-06	-6.353469e-07	-4.097303e-10	-4.429306e+00	-3.277257e+01
1.720000e-06	-5.889210e-07	-3.929920e-10	-4.105649e+00	-3.154540e+01
1.730000e-06	-5.423603e-07	-3.742598e-10	-3.781052e+00	-3.029583e+01
1.740000e-06	-4.957836e-07	-3.554589e-10	-3.456344e+00	-2.902376e+01
1.750000e-06	-4.493114e-07	-3.344335e-10	-3.132364e+00	-2.772918e+01
1.760000e-06	-4.026846e-07	-3.132080e-10	-2.807306e+00	-2.641209e+01
1.770000e-06	-3.560440e-07	-2.942876e-10	-2.482152e+00	-2.507260e+01
1.780000e-06	-3.094385e-07	-2.755930e-10	-2.157243e+00	-2.371086e+01
1.790000e-06	-2.627868e-07	-2.544035e-10	-1.832012e+00	-2.232710e+01
1.800000e-06	-2.161616e-07	-2.342042e-10	-1.506966e+00	-2.092159e+01
1.810000e-06	-1.694819e-07	-2.136234e-10	-1.181539e+00	-1.949470e+01
1.820000e-06	-1.228134e-07	-1.929242e-10	-8.561910e-01	-1.804685e+01
1.830000e-06	-7.616083e-08	-1.730757e-10	-5.309534e-01	-1.657852e+01
1.840000e-06	-2.952723e-08	-1.528748e-10	-2.058484e-01	-1.509029e+01
1.850000e-06	1.719557e-08	-1.329838e-10	1.198785e-01	-1.358278e+01
1.860000e-06	6.382278e-08	-1.155572e-10	4.449390e-01	-1.205668e+01
1.870000e-06	1.103737e-07	-9.427728e-11	7.694673e-01	-1.051276e+01
1.880000e-06	1.570194e-07	-7.011261e-11	1.094657e+00	-8.951837e+00
1.890000e-06	2.036836e-07	-4.838679e-11	1.419975e+00	-7.374807e+00
1.900000e-06	2.503252e-07	-2.614290e-11	1.745136e+00	-5.782614e+00
1.910000e-06	2.969326e-07	-5.019041e-12	2.070059e+00	-4.176264e+00
1.920000e-06	3.434852e-07	1.503023e-11	2.394599e+00	-2.556815e+00
1.930000e-06	3.900087e-07	3.664056e-11	2.718937e+00	-9.253777e-01
1.940000e-06	4.365428e-07	5.758378e-11	3.043348e+00	7.168895e-01
1.950000e-06	4.829910e-07	7.966412e-11	3.367160e+00	2.368785e+00
1.960000e-06	5.293292e-07	1.014792e-10	3.690206e+00	4.029068e+00
1.970000e-06	5.757136e-07	1.236325e-10	4.013574e+00	5.696460e+00
1.980000e-06	6.221373e-07	1.480519e-10	4.337215e+00	7.369656e+00
1.990000e-06	6.684164e-07	1.726373e-10	4.659849e+00	9.047321e+00
2.000000e-06	7.145970e-07	1.938243e-10	4.981796e+00	1.072810e+01
2.010000e-06	7.606969e-07	2.170057e-10	5.303180e+00	1.241062e+01
2.020000e-06	8.068975e-07	2.414909e-10	5.625267e+00	1.409350e+01
2.030000e-06	8.530820e-07	2.660365e-10	5.947241e+00	1.577536e+01
2.040000e-06	8.991338e-07	2.926943e-10	6.268290e+00	1.745479e+01
2.050000e-06	9.451194e-07	3.142233e-10	6.588878e+00	1.913042e+01
2.060000e-06	9.909462e-07	3.365066e-10	6.908358e+00	2.080087e+01
2.070000e-06	1.036715e-06	3.563865e-10	7.227432e+00	2.246478e+01
2.080000e-06	1.082486e-06	3.797323e-10	7.546524e+00	2.412080e+01
2.090000e-06	1.128192e-06	4.040745e-10	7.865161e+00	2.576762e+01
2.100000e-06	1.173807e-06	4.306727e-10	8.183165e+00	2.740394e+01
2.110000e-06	1.219325e-06	4.586964e-10	8.500494e+00	2.902852e+01
2.120000e-06	1.264725e-06	4.802091e-10	8.816999e+00	3.064013e+01
2.130000e-06	1.310035e-06	4.988081e-10	9.132881e+00	3.223760e+01
2.140000e-06	1.355340e-06	5.167932e-10	9.448723e+00	3.381980e+01
2.150000e-06	1.400522e-06	5.342771e-10	9.763703e+00	3.538566e+01
2.160000e-06	1.445612e-06	5.526093e-10	1.007805e+01	3.693413e+01
2.170000e-06	1.490681e-06	5.730112e-10	1.039225e+01	3.846427e+01
2.180000e-06	1.535602e-06	5.949947e-10	1.070541e+01	3.997515e+01
2.190000e-06	1.580320e-06	6.169915e-10	1.101716e+01	4.146593e+01
2.200000e-06	1.624933e-06	6.388872e-10	1.132818e+01	4.293582e+01
2.210000e-06	1.669415e-06	6.589318e-10	1.163829e+01	4.438411e+01
2.220000e-06	1.713703e-06	6.762767e-10	1.194704e+01	4.581015e+01
2.230000e-06	1.757913e-06	6.921182e-10	1.225525e+01	4.721335e+01
2.240000e-06	1.801993e-06	7.087926e-10	1.256255e+01	4.859321e+01
2.250000e-06	1.845986e-06	7.270759e-10	1.286925e+01	4.994928e+01
2.260000e-06	1.889967e-06	7.443909e-10	1.317586e+01	5.128119e+01
2.270000e-06	1.933833e-06	7.626344e-10	1.348167e+01	5.258863e+01
2.280000e-06	1.977569e-06	7.804367e-10	1.378658e+01	5.387138e+01
2.290000e-06	2.021271e-06	7.989209e-10	1.409124e+01	5.512926e+01
2.300000e-06	2.064866e-06	8.154051e-10	1.439516e+01	5.636218e+01
2.310000e-06	2.108379e-06	8.283463e-10	1.469851e+01	5.757010e+01
2.320000e-06	2.151841e-06	8.420297e-10	1.500151e+01	5.875307e+01
2.330000e-06	2.195187e-06	8.590211e-10	1.530369e+01	5.991116e+01
2.340000e-06	2.238464e-06	8.765364e-10	1.560540e+01	6.104453e+01
2.350000e-06	2.281590e-06	8.915289e-10	1.590605e+01	6.215338e+01
2.360000e-06	2.324549e-06	9.021915e-10	1.620554e+01	6.323799e+01
2.370000e-06	2.367230e-06	9.118917e-10	1.650309e+01	6.429865e+01
2.380000e-06	2.409638e-06	9.230876e-10	1.679873e+01	6.533574e+01
2.390000e-06	2.451861e-06	9.386322e-10	1.709309e+01	6.634964e+01
2.400000e-06	2.493676e-06	9.547562e-10	1.738460e+01	6.734082e+01
2.410000e-06	2.535006e-06	9.703407e-10	1.767273e+01	6.830973e+01
2.420000e-06	2.576047e-06	9.849802e-10	1.795885e+01	6.925691e+01
2.430000e-06	2.616853e-06	9.980269e-10	1.824333e+01	7.018290e+01
2.440000e-06	2.657329e-06	1.007271e-09	1.852551e+01	7.108825e+01
2.450000e-06	2.697587e-06	1.012564e-09	1.880617e+01	7.197356e+01
2.460000e-06	2.737691e-06	1.018814e-09	1.908575e+01	7.283944e+01
2.470000e-06	2.777614e-06	1.029948e-09	1.936407e+01	7.368650e+01
2.480000e-06	2.817389e-06	1.044087e-09	1.964136e+01	7.451539e+01
2.490000e-06	2.857066e-06	1.058464e-09	1.991797e+01	7.532673e+01
2.500000e-06	2.896588e-06	1.072919e-09	2.019350e+01	7.612117e+01
2.510000e-06	2.935951e-06	1.085802e-09	2.046792e+01	7.689934e+01
2.520000e-06	2.975211e-06	1.096164e-09	2.074161e+01	7.766189e+01
2.530000e-06	3.014261e-06	1.105273e-09	2.101385e+01	7.840943e+01
2.540000e-06	3.053022e-06	1.114486e-09	2.128407e+01	7.914259e+01
2.550000e-06	3.091637e-06	1.124844e-09	2.155327e+01	7.986196e+01
2.560000e-06	3.130099e-06	1.135982e-09	2.182141e+01	8.056814e+01
2.570000e-06	3.168258e-06	1.147408e-09	2.208744e+01	8.126170e+01
2.580000e-06	3.206206e-06	1.161652e-09	2.235199e+01	8.194317e+01
2.590000e-06	3.243987e-06	1.177132e-09	2.261538e+01	8.261309e+01
2.600000e-06	3.281555e-06	1.189631e-09	2.287728e+01	8.327195e+01
2.610000e-06	3.318884e-06	1.196884e-09	2.313752e+01	8.392023e+01
2.620000e-06	3.355929e-06	1.201337e-09	2.339578e+01	8.455837e+01
2.630000e-06	3.392813e-06	1.208657e-09	2.365292e+01	8.518678e+01
2.640000e-06	3.429451e-06	1.218508e-09	2.390834e+01	8.580585e+01
2.650000e-06	3.465777e-06	1.229203e-09	2.416159e+01	8.641594e+01
2.660000e-06	3.501914e-06	1.241848e-09	2.441351e+01	8.701736e+01
2.670000e-06	3.537867e-06	1.253336e-09	2.466416e+01	8.761040e+01
2.680000e-06	3.573634e-06	1.262775e-09	2.491350e+01	8.819534e+01
2.690000e-06	3.609285e-06	1.269661e-09	2.516204e+01	8.877238e+01
2.700000e-06	3.644853e-06	1.275046e-09	2.541001e+01	8.934173e+01
2.710000e-06	3.680252e-06	1.281281e-09	2.565679e+01	8.990356e+01
2.720000e-06	3.715397e-06	1.290268e-09	2.590180e+01	9.045801e+01
2.730000e-06	3.750225e-06	1.300475e-09	2.614460e+01	9.100517e+01
2.740000e-06	3.784818e-06	1.310831e-09	2.638577e+01	9.154514e+01
2.750000e-06	3.818893e-06	1.320181e-09	2.662332e+01	9.207796e+01
2.760000e-06	3.852313e-06	1.327540e-09	2.685631e+01	9.260367e+01
2.770000e-06	3.885289e-06	1.331666e-09	2.708620e+01	9.312228e+01
2.780000e-06	3.917830e-06	1.334551e-09	2.731306e+01	9.363378e+01
2.790000e-06	3.950066e-06	1.341456e-09	2.753779e+01	9.413812e+01
2.800000e-06	3.982046e-06	1.350933e-09	2.776074e+01	9.463526e+01
2.810000e-06	4.013767e-06	1.359641e-09	2.798188e+01	9.512514e+01
2.820000e-06	4.045335e-06	1.367525e-09	2.820196e+01	9.560768e+01
2.830000e-06	4.076788e-06	1.373882e-09	2.842123e+01	9.608279e+01
2.840000e-06	4.108095e-06	1.380308e-09	2.863949e+01	9.655036e+01
2.850000e-06	4.139125e-06	1.384773e-09	2.885581e+01	9.701030e+01
2.860000e-06	4.169790e-06	1.388239e-09	2.906959e+01	9.746248e+01
2.870000e-06	4.200168e-06	1.392579e-09	2.928137e+01	9.790681e+01
2.880000e-06	4.230319e-06	1.396765e-09	2.949157e+01	9.834315e+01
2.890000e-06	4.260153e-06	1.402240e-09	2.969956e+01	9.877141e+01
2.900000e-06	4.289688e-06	1.408549e-09	2.990546e+01	9.919146e+01
