# Temperatura_=_15.2
# Concentracion g/m^3_=_1620.0
# C_Vs_to_Am_M_A/Vsm_=_65563218390.804596
# pendiente_HvsI_1/m_=_3716.3
# ordenada_HvsI_A/m_=_1297.0
# frecuencia_Hz_=_135105.75305073758

Tiempo_(s)	Campo_(V.s)	Magnetizacion_(V.s)	Campo_(kA/m)	Magnetizacion_(A/m)
0.000000e+00	-5.520371e-06	-1.091496e-09	-3.836913e+01	-7.135682e+01
1.000000e-08	-5.520514e-06	-1.087356e-09	-3.837012e+01	-7.133850e+01
2.000000e-08	-5.520393e-06	-1.084969e-09	-3.836928e+01	-7.131940e+01
3.000000e-08	-5.519828e-06	-1.084958e-09	-3.836535e+01	-7.129931e+01
4.000000e-08	-5.518695e-06	-1.086064e-09	-3.835748e+01	-7.127801e+01
5.000000e-08	-5.517094e-06	-1.085936e-09	-3.834635e+01	-7.125527e+01
6.000000e-08	-5.514997e-06	-1.078891e-09	-3.833177e+01	-7.123087e+01
7.000000e-08	-5.512276e-06	-1.076789e-09	-3.831286e+01	-7.120456e+01
8.000000e-08	-5.508936e-06	-1.091117e-09	-3.828965e+01	-7.117611e+01
9.000000e-08	-5.505090e-06	-1.106356e-09	-3.826291e+01	-7.114528e+01
1.000000e-07	-5.500858e-06	-1.092690e-09	-3.823350e+01	-7.111184e+01
1.100000e-07	-5.496362e-06	-1.078586e-09	-3.820225e+01	-7.107556e+01
1.200000e-07	-5.491644e-06	-1.080613e-09	-3.816946e+01	-7.103623e+01
1.300000e-07	-5.486697e-06	-1.089392e-09	-3.813508e+01	-7.099364e+01
1.400000e-07	-5.481432e-06	-1.075341e-09	-3.809848e+01	-7.094760e+01
1.500000e-07	-5.475766e-06	-1.067625e-09	-3.805910e+01	-7.089792e+01
1.600000e-07	-5.469761e-06	-1.071504e-09	-3.801737e+01	-7.084444e+01
1.700000e-07	-5.463358e-06	-1.083099e-09	-3.797286e+01	-7.078702e+01
1.800000e-07	-5.456455e-06	-1.069246e-09	-3.792488e+01	-7.072553e+01
1.900000e-07	-5.449151e-06	-1.066409e-09	-3.787412e+01	-7.065985e+01
2.000000e-07	-5.441533e-06	-1.059837e-09	-3.782117e+01	-7.058990e+01
2.100000e-07	-5.433652e-06	-1.077914e-09	-3.776639e+01	-7.051561e+01
2.200000e-07	-5.425521e-06	-1.083407e-09	-3.770988e+01	-7.043694e+01
2.300000e-07	-5.417126e-06	-1.087919e-09	-3.765153e+01	-7.035385e+01
2.400000e-07	-5.408289e-06	-1.073547e-09	-3.759011e+01	-7.026634e+01
2.500000e-07	-5.398758e-06	-1.065632e-09	-3.752386e+01	-7.017442e+01
2.600000e-07	-5.388478e-06	-1.067974e-09	-3.745241e+01	-7.007813e+01
2.700000e-07	-5.377626e-06	-1.064652e-09	-3.737699e+01	-6.997753e+01
2.800000e-07	-5.366394e-06	-1.057446e-09	-3.729892e+01	-6.987268e+01
2.900000e-07	-5.354812e-06	-1.051525e-09	-3.721842e+01	-6.976367e+01
3.000000e-07	-5.342876e-06	-1.058213e-09	-3.713545e+01	-6.965060e+01
3.100000e-07	-5.330491e-06	-1.042772e-09	-3.704938e+01	-6.953359e+01
3.200000e-07	-5.317570e-06	-1.037559e-09	-3.695957e+01	-6.941278e+01
3.300000e-07	-5.304214e-06	-1.037085e-09	-3.686673e+01	-6.928830e+01
3.400000e-07	-5.290598e-06	-1.041123e-09	-3.677210e+01	-6.916029e+01
3.500000e-07	-5.276581e-06	-1.017080e-09	-3.667468e+01	-6.902892e+01
3.600000e-07	-5.262017e-06	-1.024544e-09	-3.657345e+01	-6.889435e+01
3.700000e-07	-5.246995e-06	-1.024351e-09	-3.646904e+01	-6.875673e+01
3.800000e-07	-5.231386e-06	-1.018405e-09	-3.636055e+01	-6.861624e+01
3.900000e-07	-5.215220e-06	-1.016337e-09	-3.624819e+01	-6.847304e+01
4.000000e-07	-5.198727e-06	-1.037264e-09	-3.613355e+01	-6.832729e+01
4.100000e-07	-5.181892e-06	-1.022126e-09	-3.601654e+01	-6.817915e+01
4.200000e-07	-5.164742e-06	-1.008402e-09	-3.589734e+01	-6.802877e+01
4.300000e-07	-5.147343e-06	-1.022144e-09	-3.577641e+01	-6.787631e+01
4.400000e-07	-5.129665e-06	-1.022931e-09	-3.565354e+01	-6.772188e+01
4.500000e-07	-5.111495e-06	-9.911879e-10	-3.552725e+01	-6.756563e+01
4.600000e-07	-5.092869e-06	-1.001832e-09	-3.539779e+01	-6.740766e+01
4.700000e-07	-5.073881e-06	-1.019817e-09	-3.526582e+01	-6.724808e+01
4.800000e-07	-5.054510e-06	-1.002209e-09	-3.513118e+01	-6.708699e+01
4.900000e-07	-5.034945e-06	-9.981215e-10	-3.499519e+01	-6.692446e+01
5.000000e-07	-5.015221e-06	-1.020782e-09	-3.485810e+01	-6.676055e+01
5.100000e-07	-4.995294e-06	-1.000983e-09	-3.471960e+01	-6.659532e+01
5.200000e-07	-4.975047e-06	-9.745207e-10	-3.457888e+01	-6.642879e+01
5.300000e-07	-4.954449e-06	-9.949658e-10	-3.443571e+01	-6.626100e+01
5.400000e-07	-4.933502e-06	-1.000419e-09	-3.429012e+01	-6.609194e+01
5.500000e-07	-4.912068e-06	-9.785082e-10	-3.414114e+01	-6.592162e+01
5.600000e-07	-4.890256e-06	-9.862519e-10	-3.398954e+01	-6.575000e+01
5.700000e-07	-4.868176e-06	-9.974243e-10	-3.383607e+01	-6.557706e+01
5.800000e-07	-4.845763e-06	-9.744122e-10	-3.368029e+01	-6.540276e+01
5.900000e-07	-4.823004e-06	-9.720248e-10	-3.352210e+01	-6.522703e+01
6.000000e-07	-4.799895e-06	-9.857034e-10	-3.336149e+01	-6.504981e+01
6.100000e-07	-4.776482e-06	-9.788538e-10	-3.319875e+01	-6.487102e+01
6.200000e-07	-4.752844e-06	-9.690341e-10	-3.303446e+01	-6.469058e+01
6.300000e-07	-4.729002e-06	-9.822211e-10	-3.286875e+01	-6.450840e+01
6.400000e-07	-4.704911e-06	-9.713111e-10	-3.270131e+01	-6.432439e+01
6.500000e-07	-4.680505e-06	-9.555891e-10	-3.253167e+01	-6.413842e+01
6.600000e-07	-4.655679e-06	-9.563320e-10	-3.235912e+01	-6.395041e+01
6.700000e-07	-4.630292e-06	-9.552226e-10	-3.218267e+01	-6.376024e+01
6.800000e-07	-4.604247e-06	-9.435225e-10	-3.200164e+01	-6.356779e+01
6.900000e-07	-4.577685e-06	-9.541446e-10	-3.181703e+01	-6.337297e+01
7.000000e-07	-4.550742e-06	-9.613927e-10	-3.162976e+01	-6.317564e+01
7.100000e-07	-4.523401e-06	-9.537116e-10	-3.143972e+01	-6.297571e+01
7.200000e-07	-4.495815e-06	-9.439308e-10	-3.124799e+01	-6.277305e+01
7.300000e-07	-4.468100e-06	-9.408822e-10	-3.105536e+01	-6.256758e+01
7.400000e-07	-4.440266e-06	-9.281772e-10	-3.086190e+01	-6.235917e+01
7.500000e-07	-4.412189e-06	-9.239276e-10	-3.066675e+01	-6.214773e+01
7.600000e-07	-4.383715e-06	-9.298597e-10	-3.046885e+01	-6.193316e+01
7.700000e-07	-4.354905e-06	-9.298305e-10	-3.026860e+01	-6.171536e+01
7.800000e-07	-4.325859e-06	-9.246524e-10	-3.006672e+01	-6.149426e+01
7.900000e-07	-4.296495e-06	-9.250799e-10	-2.986263e+01	-6.126977e+01
8.000000e-07	-4.266815e-06	-9.173647e-10	-2.965633e+01	-6.104180e+01
8.100000e-07	-4.236943e-06	-8.995968e-10	-2.944871e+01	-6.081029e+01
8.200000e-07	-4.206782e-06	-8.914099e-10	-2.923908e+01	-6.057516e+01
8.300000e-07	-4.176218e-06	-8.896948e-10	-2.902664e+01	-6.033635e+01
8.400000e-07	-4.145325e-06	-8.845691e-10	-2.881192e+01	-6.009380e+01
8.500000e-07	-4.114171e-06	-8.819764e-10	-2.859539e+01	-5.984745e+01
8.600000e-07	-4.082772e-06	-8.825159e-10	-2.837715e+01	-5.959725e+01
8.700000e-07	-4.051236e-06	-8.769116e-10	-2.815796e+01	-5.934315e+01
8.800000e-07	-4.019610e-06	-8.719222e-10	-2.793815e+01	-5.908510e+01
8.900000e-07	-3.987815e-06	-8.684558e-10	-2.771716e+01	-5.882306e+01
9.000000e-07	-3.955768e-06	-8.616268e-10	-2.749442e+01	-5.855698e+01
9.100000e-07	-3.923424e-06	-8.482913e-10	-2.726961e+01	-5.828683e+01
9.200000e-07	-3.890655e-06	-8.424341e-10	-2.704185e+01	-5.801256e+01
9.300000e-07	-3.857382e-06	-8.388368e-10	-2.681058e+01	-5.773414e+01
9.400000e-07	-3.823596e-06	-8.345246e-10	-2.657576e+01	-5.745154e+01
9.500000e-07	-3.789437e-06	-8.309880e-10	-2.633834e+01	-5.716471e+01
9.600000e-07	-3.754997e-06	-8.327642e-10	-2.609896e+01	-5.687362e+01
9.700000e-07	-3.720129e-06	-8.255587e-10	-2.585662e+01	-5.657824e+01
9.800000e-07	-3.684896e-06	-8.161776e-10	-2.561173e+01	-5.627854e+01
9.900000e-07	-3.649399e-06	-8.104151e-10	-2.536501e+01	-5.597447e+01
1.000000e-06	-3.613726e-06	-8.056694e-10	-2.511707e+01	-5.566601e+01
1.010000e-06	-3.577948e-06	-7.988873e-10	-2.486839e+01	-5.535312e+01
1.020000e-06	-3.542054e-06	-7.967915e-10	-2.461891e+01	-5.503578e+01
1.030000e-06	-3.506008e-06	-7.947739e-10	-2.436838e+01	-5.471395e+01
1.040000e-06	-3.469752e-06	-7.899834e-10	-2.411638e+01	-5.438762e+01
1.050000e-06	-3.433281e-06	-7.828697e-10	-2.386289e+01	-5.405674e+01
1.060000e-06	-3.396506e-06	-7.756000e-10	-2.360729e+01	-5.372131e+01
1.070000e-06	-3.359420e-06	-7.646712e-10	-2.334952e+01	-5.338129e+01
1.080000e-06	-3.322074e-06	-7.557046e-10	-2.308995e+01	-5.303668e+01
1.090000e-06	-3.284471e-06	-7.517554e-10	-2.282859e+01	-5.268746e+01
1.100000e-06	-3.246667e-06	-7.486859e-10	-2.256584e+01	-5.233362e+01
1.110000e-06	-3.208613e-06	-7.448117e-10	-2.230134e+01	-5.197516e+01
1.120000e-06	-3.170325e-06	-7.416416e-10	-2.203522e+01	-5.161207e+01
1.130000e-06	-3.131838e-06	-7.382907e-10	-2.176772e+01	-5.124437e+01
1.140000e-06	-3.093097e-06	-7.304046e-10	-2.149845e+01	-5.087206e+01
1.150000e-06	-3.054243e-06	-7.225163e-10	-2.122840e+01	-5.049516e+01
1.160000e-06	-3.015219e-06	-7.166717e-10	-2.095716e+01	-5.011369e+01
1.170000e-06	-2.975926e-06	-7.099433e-10	-2.068406e+01	-4.972767e+01
1.180000e-06	-2.936461e-06	-7.034019e-10	-2.040976e+01	-4.933714e+01
1.190000e-06	-2.896838e-06	-7.022872e-10	-2.013436e+01	-4.894213e+01
1.200000e-06	-2.857114e-06	-7.005009e-10	-1.985826e+01	-4.854268e+01
1.210000e-06	-2.817272e-06	-6.959945e-10	-1.958134e+01	-4.813883e+01
1.220000e-06	-2.777291e-06	-6.891823e-10	-1.930346e+01	-4.773063e+01
1.230000e-06	-2.737151e-06	-6.811125e-10	-1.902446e+01	-4.731812e+01
1.240000e-06	-2.696830e-06	-6.705217e-10	-1.874421e+01	-4.690134e+01
1.250000e-06	-2.656315e-06	-6.630438e-10	-1.846262e+01	-4.648035e+01
1.260000e-06	-2.615484e-06	-6.590876e-10	-1.817882e+01	-4.605517e+01
1.270000e-06	-2.574400e-06	-6.551188e-10	-1.789327e+01	-4.562586e+01
1.280000e-06	-2.533108e-06	-6.480330e-10	-1.760627e+01	-4.519244e+01
1.290000e-06	-2.491527e-06	-6.416266e-10	-1.731726e+01	-4.475493e+01
1.300000e-06	-2.449597e-06	-6.332770e-10	-1.702583e+01	-4.431335e+01
1.310000e-06	-2.407354e-06	-6.226535e-10	-1.673222e+01	-4.386770e+01
1.320000e-06	-2.364803e-06	-6.124107e-10	-1.643647e+01	-4.341797e+01
1.330000e-06	-2.321983e-06	-6.039308e-10	-1.613885e+01	-4.296413e+01
1.340000e-06	-2.278998e-06	-5.960070e-10	-1.584009e+01	-4.250614e+01
1.350000e-06	-2.235826e-06	-5.913419e-10	-1.554002e+01	-4.204393e+01
1.360000e-06	-2.192456e-06	-5.891710e-10	-1.523858e+01	-4.157742e+01
1.370000e-06	-2.148898e-06	-5.845807e-10	-1.493583e+01	-4.110649e+01
1.380000e-06	-2.105254e-06	-5.762563e-10	-1.463249e+01	-4.063101e+01
1.390000e-06	-2.061584e-06	-5.668207e-10	-1.432896e+01	-4.015081e+01
1.400000e-06	-2.017882e-06	-5.564132e-10	-1.402521e+01	-3.966571e+01
1.410000e-06	-1.974114e-06	-5.461571e-10	-1.372100e+01	-3.917548e+01
1.420000e-06	-1.930225e-06	-5.383932e-10	-1.341595e+01	-3.867986e+01
1.430000e-06	-1.886209e-06	-5.307987e-10	-1.311002e+01	-3.817857e+01
1.440000e-06	-1.842103e-06	-5.218520e-10	-1.280347e+01	-3.767128e+01
1.450000e-06	-1.797886e-06	-5.126967e-10	-1.249614e+01	-3.715764e+01
1.460000e-06	-1.753558e-06	-5.040546e-10	-1.218804e+01	-3.663727e+01
1.470000e-06	-1.709149e-06	-4.952656e-10	-1.187937e+01	-3.610974e+01
1.480000e-06	-1.664614e-06	-4.868946e-10	-1.156984e+01	-3.557460e+01
1.490000e-06	-1.619807e-06	-4.793365e-10	-1.125841e+01	-3.503136e+01
1.500000e-06	-1.574764e-06	-4.735001e-10	-1.094534e+01	-3.447951e+01
1.510000e-06	-1.529646e-06	-4.653844e-10	-1.063175e+01	-3.391850e+01
1.520000e-06	-1.484388e-06	-4.542646e-10	-1.031719e+01	-3.334776e+01
1.530000e-06	-1.439025e-06	-4.425704e-10	-1.000189e+01	-3.276669e+01
1.540000e-06	-1.393631e-06	-4.329974e-10	-9.686376e+00	-3.217468e+01
1.550000e-06	-1.348146e-06	-4.229889e-10	-9.370234e+00	-3.157109e+01
1.560000e-06	-1.302573e-06	-4.132347e-10	-9.053486e+00	-3.095527e+01
1.570000e-06	-1.256947e-06	-4.053812e-10	-8.736363e+00	-3.032656e+01
1.580000e-06	-1.211201e-06	-3.971814e-10	-8.418409e+00	-2.968430e+01
1.590000e-06	-1.165422e-06	-3.860229e-10	-8.100218e+00	-2.902781e+01
1.600000e-06	-1.119641e-06	-3.729272e-10	-7.782023e+00	-2.835643e+01
1.610000e-06	-1.073750e-06	-3.592201e-10	-7.463056e+00	-2.766951e+01
1.620000e-06	-1.027732e-06	-3.445672e-10	-7.143212e+00	-2.696639e+01
1.630000e-06	-9.816401e-07	-3.304742e-10	-6.822852e+00	-2.624645e+01
1.640000e-06	-9.354774e-07	-3.191289e-10	-6.502000e+00	-2.550909e+01
1.650000e-06	-8.891969e-07	-3.090219e-10	-6.180329e+00	-2.475373e+01
1.660000e-06	-8.429313e-07	-2.989369e-10	-5.858762e+00	-2.397984e+01
1.670000e-06	-7.966411e-07	-2.894190e-10	-5.537024e+00	-2.318692e+01
1.680000e-06	-7.502466e-07	-2.784883e-10	-5.214561e+00	-2.237451e+01
1.690000e-06	-7.038560e-07	-2.661542e-10	-4.892125e+00	-2.154222e+01
1.700000e-06	-6.574086e-07	-2.534933e-10	-4.569294e+00	-2.068969e+01
1.710000e-06	-6.108312e-07	-2.377931e-10	-4.245559e+00	-1.981665e+01
1.720000e-06	-5.642519e-07	-2.237709e-10	-3.921811e+00	-1.892288e+01
1.730000e-06	-5.176599e-07	-2.104247e-10	-3.597975e+00	-1.800822e+01
1.740000e-06	-4.710665e-07	-1.960895e-10	-3.274130e+00	-1.707261e+01
1.750000e-06	-4.244317e-07	-1.829340e-10	-2.949996e+00	-1.611604e+01
1.760000e-06	-3.776756e-07	-1.692177e-10	-2.625020e+00	-1.513860e+01
1.770000e-06	-3.309113e-07	-1.540548e-10	-2.299986e+00	-1.414046e+01
1.780000e-06	-2.841575e-07	-1.372596e-10	-1.975026e+00	-1.312186e+01
1.790000e-06	-2.373710e-07	-1.220405e-10	-1.649838e+00	-1.208315e+01
1.800000e-06	-1.904901e-07	-1.069612e-10	-1.323994e+00	-1.102475e+01
1.810000e-06	-1.435951e-07	-9.320568e-11	-9.980524e-01	-9.947177e+00
1.820000e-06	-9.671839e-08	-8.116902e-11	-6.722375e-01	-8.851026e+00
1.830000e-06	-4.984968e-08	-6.975859e-11	-3.464783e-01	-7.736988e+00
1.840000e-06	-3.031473e-09	-5.594272e-11	-2.107014e-02	-6.605835e+00
1.850000e-06	4.381122e-08	-4.129779e-11	3.045082e-01	-5.458422e+00
1.860000e-06	9.062805e-08	-2.428893e-11	6.299068e-01	-4.295686e+00
1.870000e-06	1.374899e-07	-4.171336e-12	9.556184e-01	-3.118640e+00
1.880000e-06	1.844497e-07	1.330618e-11	1.282011e+00	-1.928369e+00
1.890000e-06	2.313511e-07	2.746386e-11	1.607997e+00	-7.260271e-01
1.900000e-06	2.781804e-07	3.934249e-11	1.933482e+00	4.871676e-01
1.910000e-06	3.249831e-07	5.168135e-11	2.258783e+00	1.709940e+00
1.920000e-06	3.716700e-07	6.895322e-11	2.583278e+00	2.940963e+00
1.930000e-06	4.183411e-07	8.907607e-11	2.907664e+00	4.178864e+00
1.940000e-06	4.650614e-07	1.087380e-10	3.232392e+00	5.422232e+00
1.950000e-06	5.117570e-07	1.268613e-10	3.556948e+00	6.669624e+00
1.960000e-06	5.583759e-07	1.444838e-10	3.880970e+00	7.919573e+00
1.970000e-06	6.048251e-07	1.621765e-10	4.203814e+00	9.170596e+00
1.980000e-06	6.512419e-07	1.777486e-10	4.526432e+00	1.042120e+01
1.990000e-06	6.977408e-07	1.902769e-10	4.849621e+00	1.166989e+01
2.000000e-06	7.442166e-07	2.025153e-10	5.172649e+00	1.291519e+01
2.010000e-06	7.905985e-07	2.172513e-10	5.495025e+00	1.415561e+01
2.020000e-06	8.368525e-07	2.358889e-10	5.816511e+00	1.538972e+01
2.030000e-06	8.829979e-07	2.593389e-10	6.137243e+00	1.661608e+01
2.040000e-06	9.290454e-07	2.826013e-10	6.457294e+00	1.783332e+01
2.050000e-06	9.750389e-07	3.024151e-10	6.776970e+00	1.904011e+01
2.060000e-06	1.021013e-06	3.188640e-10	7.096511e+00	2.023515e+01
2.070000e-06	1.066877e-06	3.338783e-10	7.415285e+00	2.141720e+01
2.080000e-06	1.112619e-06	3.474982e-10	7.733214e+00	2.258512e+01
2.090000e-06	1.158370e-06	3.619708e-10	8.051209e+00	2.373779e+01
2.100000e-06	1.204081e-06	3.786786e-10	8.368919e+00	2.487420e+01
2.110000e-06	1.249634e-06	3.970722e-10	8.685534e+00	2.599338e+01
2.120000e-06	1.295103e-06	4.160007e-10	9.001562e+00	2.709449e+01
2.130000e-06	1.340530e-06	4.339016e-10	9.317299e+00	2.817674e+01
2.140000e-06	1.385895e-06	4.490424e-10	9.632612e+00	2.923943e+01
2.150000e-06	1.431156e-06	4.603376e-10	9.947195e+00	3.028195e+01
2.160000e-06	1.476378e-06	4.703114e-10	1.026151e+01	3.130380e+01
2.170000e-06	1.521496e-06	4.817863e-10	1.057510e+01	3.230454e+01
2.180000e-06	1.566418e-06	4.947517e-10	1.088733e+01	3.328384e+01
2.190000e-06	1.611221e-06	5.091515e-10	1.119873e+01	3.424145e+01
2.200000e-06	1.655860e-06	5.225578e-10	1.150899e+01	3.517722e+01
2.210000e-06	1.700337e-06	5.339852e-10	1.181813e+01	3.609106e+01
2.220000e-06	1.744791e-06	5.452100e-10	1.212710e+01	3.698300e+01
2.230000e-06	1.789119e-06	5.571050e-10	1.243520e+01	3.785312e+01
2.240000e-06	1.833262e-06	5.688030e-10	1.274202e+01	3.870158e+01
2.250000e-06	1.877305e-06	5.801702e-10	1.304814e+01	3.952863e+01
2.260000e-06	1.921215e-06	5.924802e-10	1.335333e+01	4.033456e+01
2.270000e-06	1.965032e-06	6.041506e-10	1.365788e+01	4.111974e+01
2.280000e-06	2.008806e-06	6.136654e-10	1.396213e+01	4.188459e+01
2.290000e-06	2.052534e-06	6.230139e-10	1.426606e+01	4.262959e+01
2.300000e-06	2.096216e-06	6.323121e-10	1.456967e+01	4.335525e+01
2.310000e-06	2.139849e-06	6.404083e-10	1.487294e+01	4.406213e+01
2.320000e-06	2.183389e-06	6.492528e-10	1.517556e+01	4.475082e+01
2.330000e-06	2.226806e-06	6.598540e-10	1.547733e+01	4.542193e+01
2.340000e-06	2.270117e-06	6.707668e-10	1.577836e+01	4.607609e+01
2.350000e-06	2.313253e-06	6.810540e-10	1.607817e+01	4.671396e+01
2.360000e-06	2.356172e-06	6.908157e-10	1.637648e+01	4.733619e+01
2.370000e-06	2.398816e-06	6.986787e-10	1.667288e+01	4.794344e+01
2.380000e-06	2.441079e-06	7.055119e-10	1.696662e+01	4.853636e+01
2.390000e-06	2.483109e-06	7.137368e-10	1.725875e+01	4.911560e+01
2.400000e-06	2.524918e-06	7.222553e-10	1.754935e+01	4.968180e+01
2.410000e-06	2.566274e-06	7.298115e-10	1.783679e+01	5.023555e+01
2.420000e-06	2.607242e-06	7.386876e-10	1.812153e+01	5.077746e+01
2.430000e-06	2.647942e-06	7.483573e-10	1.840442e+01	5.130808e+01
2.440000e-06	2.688386e-06	7.566663e-10	1.868552e+01	5.182795e+01
2.450000e-06	2.728645e-06	7.611273e-10	1.896534e+01	5.233756e+01
2.460000e-06	2.768745e-06	7.645656e-10	1.924406e+01	5.283738e+01
2.470000e-06	2.808712e-06	7.691167e-10	1.952184e+01	5.332783e+01
2.480000e-06	2.848585e-06	7.762459e-10	1.979898e+01	5.380930e+01
2.490000e-06	2.888329e-06	7.829509e-10	2.007522e+01	5.428214e+01
2.500000e-06	2.927934e-06	7.910549e-10	2.035049e+01	5.474664e+01
2.510000e-06	2.967416e-06	8.001845e-10	2.062491e+01	5.520309e+01
2.520000e-06	3.006668e-06	8.049617e-10	2.089773e+01	5.565169e+01
2.530000e-06	3.045690e-06	8.090246e-10	2.116895e+01	5.609264e+01
2.540000e-06	3.084461e-06	8.155127e-10	2.143843e+01	5.652609e+01
2.550000e-06	3.123029e-06	8.241782e-10	2.170650e+01	5.695214e+01
2.560000e-06	3.161453e-06	8.310178e-10	2.197355e+01	5.737088e+01
2.570000e-06	3.199651e-06	8.371611e-10	2.223905e+01	5.778236e+01
2.580000e-06	3.237595e-06	8.439239e-10	2.250278e+01	5.818660e+01
2.590000e-06	3.275307e-06	8.494356e-10	2.276489e+01	5.858359e+01
2.600000e-06	3.312900e-06	8.525278e-10	2.302618e+01	5.897331e+01
2.610000e-06	3.350359e-06	8.569280e-10	2.328654e+01	5.935570e+01
2.620000e-06	3.387528e-06	8.609800e-10	2.354488e+01	5.973072e+01
2.630000e-06	3.424392e-06	8.671951e-10	2.380111e+01	6.009829e+01
2.640000e-06	3.460972e-06	8.723651e-10	2.405535e+01	6.045832e+01
2.650000e-06	3.497210e-06	8.777548e-10	2.430722e+01	6.081074e+01
2.660000e-06	3.533214e-06	8.846888e-10	2.455747e+01	6.115547e+01
2.670000e-06	3.569076e-06	8.890490e-10	2.480673e+01	6.149241e+01
2.680000e-06	3.604812e-06	8.908188e-10	2.505511e+01	6.182150e+01
2.690000e-06	3.640454e-06	8.908721e-10	2.530284e+01	6.214267e+01
2.700000e-06	3.675993e-06	8.924777e-10	2.554985e+01	6.245586e+01
2.710000e-06	3.711344e-06	8.984051e-10	2.579555e+01	6.276103e+01
2.720000e-06	3.746388e-06	9.047567e-10	2.603912e+01	6.305817e+01
2.730000e-06	3.781081e-06	9.091105e-10	2.628026e+01	6.334725e+01
2.740000e-06	3.815371e-06	9.144666e-10	2.651859e+01	6.362831e+01
2.750000e-06	3.849125e-06	9.195354e-10	2.675320e+01	6.390138e+01
2.760000e-06	3.882397e-06	9.237600e-10	2.698445e+01	6.416652e+01
2.770000e-06	3.915258e-06	9.255708e-10	2.721285e+01	6.442381e+01
2.780000e-06	3.947772e-06	9.283324e-10	2.743884e+01	6.467335e+01
2.790000e-06	3.980040e-06	9.318568e-10	2.766312e+01	6.491529e+01
2.800000e-06	4.011996e-06	9.350528e-10	2.788523e+01	6.514977e+01
2.810000e-06	4.043725e-06	9.394170e-10	2.810575e+01	6.537697e+01
2.820000e-06	4.075366e-06	9.435180e-10	2.832567e+01	6.559709e+01
2.830000e-06	4.106863e-06	9.469596e-10	2.854459e+01	6.581034e+01
2.840000e-06	4.138127e-06	9.507132e-10	2.876189e+01	6.601696e+01
2.850000e-06	4.169088e-06	9.546294e-10	2.897708e+01	6.621721e+01
2.860000e-06	4.199693e-06	9.588392e-10	2.918980e+01	6.641133e+01
2.870000e-06	4.229908e-06	9.610149e-10	2.939981e+01	6.659962e+01
2.880000e-06	4.259840e-06	9.623133e-10	2.960785e+01	6.678236e+01
2.890000e-06	4.289537e-06	9.622370e-10	2.981426e+01	6.695983e+01
2.900000e-06	4.318904e-06	9.628547e-10	3.001838e+01	6.713234e+01
2.910000e-06	4.347977e-06	9.653533e-10	3.022045e+01	6.730019e+01
