# Temperatura_=_-0.49
# Concentracion g/m^3_=_1620.0
# C_Vs_to_Am_M_A/Vsm_=_65563218390.804596
# pendiente_HvsI_1/m_=_3716.3
# ordenada_HvsI_A/m_=_1297.0
# frecuencia_Hz_=_135095.9684271717

Tiempo_(s)	Campo_(V.s)	Magnetizacion_(V.s)	Campo_(kA/m)	Magnetizacion_(A/m)
0.000000e+00	-5.511820e-06	-1.434170e-09	-3.837900e+01	-9.311955e+01
1.000000e-08	-5.512048e-06	-1.429416e-09	-3.838059e+01	-9.309037e+01
2.000000e-08	-5.512002e-06	-1.427135e-09	-3.838027e+01	-9.305915e+01
3.000000e-08	-5.511516e-06	-1.427574e-09	-3.837689e+01	-9.302569e+01
4.000000e-08	-5.510568e-06	-1.426595e-09	-3.837029e+01	-9.298980e+01
5.000000e-08	-5.509152e-06	-1.423195e-09	-3.836042e+01	-9.295126e+01
6.000000e-08	-5.507103e-06	-1.420499e-09	-3.834616e+01	-9.290985e+01
7.000000e-08	-5.504368e-06	-1.438551e-09	-3.832712e+01	-9.286534e+01
8.000000e-08	-5.501162e-06	-1.492334e-09	-3.830479e+01	-9.281751e+01
9.000000e-08	-5.497544e-06	-1.459997e-09	-3.827960e+01	-9.276614e+01
1.000000e-07	-5.493510e-06	-1.299456e-09	-3.825151e+01	-9.271102e+01
1.100000e-07	-5.489228e-06	-1.324905e-09	-3.822170e+01	-9.265193e+01
1.200000e-07	-5.484779e-06	-1.513662e-09	-3.819072e+01	-9.258867e+01
1.300000e-07	-5.479967e-06	-1.558944e-09	-3.815721e+01	-9.252105e+01
1.400000e-07	-5.474676e-06	-1.369004e-09	-3.812037e+01	-9.244890e+01
1.500000e-07	-5.469058e-06	-1.298560e-09	-3.808125e+01	-9.237205e+01
1.600000e-07	-5.463081e-06	-1.500327e-09	-3.803963e+01	-9.229036e+01
1.700000e-07	-5.456672e-06	-1.551021e-09	-3.799501e+01	-9.220370e+01
1.800000e-07	-5.449950e-06	-1.367630e-09	-3.794820e+01	-9.211197e+01
1.900000e-07	-5.442937e-06	-1.267621e-09	-3.789937e+01	-9.201508e+01
2.000000e-07	-5.435519e-06	-1.437491e-09	-3.784772e+01	-9.191297e+01
2.100000e-07	-5.427750e-06	-1.534091e-09	-3.779362e+01	-9.180560e+01
2.200000e-07	-5.419780e-06	-1.440864e-09	-3.773813e+01	-9.169294e+01
2.300000e-07	-5.411554e-06	-1.340028e-09	-3.768085e+01	-9.157501e+01
2.400000e-07	-5.402849e-06	-1.413306e-09	-3.762024e+01	-9.145183e+01
2.500000e-07	-5.393424e-06	-1.459948e-09	-3.755461e+01	-9.132345e+01
2.600000e-07	-5.383342e-06	-1.399278e-09	-3.748441e+01	-9.118995e+01
2.700000e-07	-5.372665e-06	-1.337048e-09	-3.741006e+01	-9.105142e+01
2.800000e-07	-5.361383e-06	-1.373396e-09	-3.733150e+01	-9.090798e+01
2.900000e-07	-5.349742e-06	-1.402465e-09	-3.725045e+01	-9.075975e+01
3.000000e-07	-5.337857e-06	-1.353971e-09	-3.716770e+01	-9.060689e+01
3.100000e-07	-5.325579e-06	-1.318512e-09	-3.708220e+01	-9.044956e+01
3.200000e-07	-5.312844e-06	-1.357567e-09	-3.699353e+01	-9.028795e+01
3.300000e-07	-5.299823e-06	-1.399624e-09	-3.690286e+01	-9.012225e+01
3.400000e-07	-5.286404e-06	-1.332223e-09	-3.680943e+01	-8.995266e+01
3.500000e-07	-5.272344e-06	-1.285453e-09	-3.671153e+01	-8.977940e+01
3.600000e-07	-5.257938e-06	-1.349851e-09	-3.661121e+01	-8.960268e+01
3.700000e-07	-5.243332e-06	-1.370163e-09	-3.650951e+01	-8.942273e+01
3.800000e-07	-5.228102e-06	-1.277890e-09	-3.640346e+01	-8.923977e+01
3.900000e-07	-5.212113e-06	-1.316424e-09	-3.629213e+01	-8.905402e+01
4.000000e-07	-5.195782e-06	-1.396605e-09	-3.617842e+01	-8.886571e+01
4.100000e-07	-5.179194e-06	-1.297649e-09	-3.606292e+01	-8.867505e+01
4.200000e-07	-5.162175e-06	-1.227287e-09	-3.594441e+01	-8.848225e+01
4.300000e-07	-5.144827e-06	-1.382370e-09	-3.582362e+01	-8.828751e+01
4.400000e-07	-5.127220e-06	-1.371325e-09	-3.570102e+01	-8.809102e+01
4.500000e-07	-5.109172e-06	-1.203384e-09	-3.557535e+01	-8.789296e+01
4.600000e-07	-5.090628e-06	-1.275255e-09	-3.544623e+01	-8.769348e+01
4.700000e-07	-5.071746e-06	-1.409810e-09	-3.531475e+01	-8.749275e+01
4.800000e-07	-5.052563e-06	-1.259083e-09	-3.518118e+01	-8.729089e+01
4.900000e-07	-5.033146e-06	-1.217965e-09	-3.504598e+01	-8.708801e+01
5.000000e-07	-5.013548e-06	-1.366472e-09	-3.490952e+01	-8.688421e+01
5.100000e-07	-4.993696e-06	-1.303222e-09	-3.477129e+01	-8.667957e+01
5.200000e-07	-4.973457e-06	-1.187927e-09	-3.463036e+01	-8.647414e+01
5.300000e-07	-4.952845e-06	-1.336726e-09	-3.448684e+01	-8.626796e+01
5.400000e-07	-4.931951e-06	-1.350441e-09	-3.434135e+01	-8.606104e+01
5.500000e-07	-4.910687e-06	-1.182583e-09	-3.419329e+01	-8.585338e+01
5.600000e-07	-4.889078e-06	-1.252783e-09	-3.404283e+01	-8.564496e+01
5.700000e-07	-4.867151e-06	-1.365549e-09	-3.389015e+01	-8.543573e+01
5.800000e-07	-4.844867e-06	-1.233814e-09	-3.373499e+01	-8.522564e+01
5.900000e-07	-4.822284e-06	-1.212846e-09	-3.357774e+01	-8.501460e+01
6.000000e-07	-4.799405e-06	-1.339509e-09	-3.341844e+01	-8.480252e+01
6.100000e-07	-4.776211e-06	-1.277638e-09	-3.325693e+01	-8.458929e+01
6.200000e-07	-4.752687e-06	-1.205514e-09	-3.309313e+01	-8.437478e+01
6.300000e-07	-4.728937e-06	-1.295189e-09	-3.292776e+01	-8.415885e+01
6.400000e-07	-4.704960e-06	-1.286452e-09	-3.276081e+01	-8.394135e+01
6.500000e-07	-4.680580e-06	-1.201000e-09	-3.259105e+01	-8.372212e+01
6.600000e-07	-4.655802e-06	-1.254490e-09	-3.241852e+01	-8.350099e+01
6.700000e-07	-4.630634e-06	-1.274018e-09	-3.224327e+01	-8.327778e+01
6.800000e-07	-4.604809e-06	-1.206270e-09	-3.206345e+01	-8.305230e+01
6.900000e-07	-4.578403e-06	-1.222847e-09	-3.187959e+01	-8.282438e+01
7.000000e-07	-4.551679e-06	-1.263588e-09	-3.169351e+01	-8.259381e+01
7.100000e-07	-4.524562e-06	-1.209317e-09	-3.150469e+01	-8.236040e+01
7.200000e-07	-4.497114e-06	-1.203205e-09	-3.131357e+01	-8.212396e+01
7.300000e-07	-4.469476e-06	-1.237948e-09	-3.112113e+01	-8.188430e+01
7.400000e-07	-4.441635e-06	-1.211026e-09	-3.092727e+01	-8.164124e+01
7.500000e-07	-4.413572e-06	-1.187228e-09	-3.073187e+01	-8.139457e+01
7.600000e-07	-4.385323e-06	-1.215856e-09	-3.053517e+01	-8.114413e+01
7.700000e-07	-4.356697e-06	-1.198146e-09	-3.033584e+01	-8.088973e+01
7.800000e-07	-4.327632e-06	-1.174988e-09	-3.013346e+01	-8.063121e+01
7.900000e-07	-4.298359e-06	-1.192921e-09	-2.992963e+01	-8.036841e+01
8.000000e-07	-4.268840e-06	-1.184958e-09	-2.972409e+01	-8.010117e+01
8.100000e-07	-4.238940e-06	-1.146433e-09	-2.951589e+01	-7.982935e+01
8.200000e-07	-4.208785e-06	-1.158063e-09	-2.930592e+01	-7.955281e+01
8.300000e-07	-4.178371e-06	-1.166684e-09	-2.909415e+01	-7.927143e+01
8.400000e-07	-4.147643e-06	-1.136551e-09	-2.888019e+01	-7.898508e+01
8.500000e-07	-4.116549e-06	-1.134958e-09	-2.866368e+01	-7.869366e+01
8.600000e-07	-4.085194e-06	-1.155778e-09	-2.844535e+01	-7.839707e+01
8.700000e-07	-4.053762e-06	-1.135691e-09	-2.822649e+01	-7.809522e+01
8.800000e-07	-4.022175e-06	-1.118983e-09	-2.800655e+01	-7.778803e+01
8.900000e-07	-3.990400e-06	-1.133944e-09	-2.778530e+01	-7.747542e+01
9.000000e-07	-3.958426e-06	-1.120552e-09	-2.756266e+01	-7.715734e+01
9.100000e-07	-3.926150e-06	-1.095793e-09	-2.733793e+01	-7.683373e+01
9.200000e-07	-3.893422e-06	-1.105382e-09	-2.711004e+01	-7.650453e+01
9.300000e-07	-3.860308e-06	-1.107160e-09	-2.687947e+01	-7.616972e+01
9.400000e-07	-3.826745e-06	-1.080234e-09	-2.664577e+01	-7.582925e+01
9.500000e-07	-3.792606e-06	-1.080313e-09	-2.640805e+01	-7.548310e+01
9.600000e-07	-3.758004e-06	-1.089573e-09	-2.616712e+01	-7.513124e+01
9.700000e-07	-3.723078e-06	-1.068962e-09	-2.592393e+01	-7.477367e+01
9.800000e-07	-3.687943e-06	-1.053321e-09	-2.567928e+01	-7.441036e+01
9.900000e-07	-3.652595e-06	-1.064848e-09	-2.543316e+01	-7.404132e+01
1.000000e-06	-3.617067e-06	-1.055717e-09	-2.518577e+01	-7.366653e+01
1.010000e-06	-3.581384e-06	-1.038164e-09	-2.493731e+01	-7.328600e+01
1.020000e-06	-3.545551e-06	-1.040068e-09	-2.468780e+01	-7.289972e+01
1.030000e-06	-3.509548e-06	-1.039067e-09	-2.443711e+01	-7.250772e+01
1.040000e-06	-3.473357e-06	-1.020225e-09	-2.418511e+01	-7.211000e+01
1.050000e-06	-3.436989e-06	-1.018929e-09	-2.393188e+01	-7.170656e+01
1.060000e-06	-3.400356e-06	-1.020555e-09	-2.367680e+01	-7.129743e+01
1.070000e-06	-3.363445e-06	-1.005624e-09	-2.341979e+01	-7.088261e+01
1.080000e-06	-3.326226e-06	-9.939993e-10	-2.316063e+01	-7.046213e+01
1.090000e-06	-3.288739e-06	-9.963187e-10	-2.289961e+01	-7.003601e+01
1.100000e-06	-3.251079e-06	-9.857375e-10	-2.263738e+01	-6.960426e+01
1.110000e-06	-3.213212e-06	-9.752598e-10	-2.237371e+01	-6.916691e+01
1.120000e-06	-3.175033e-06	-9.774557e-10	-2.210787e+01	-6.872399e+01
1.130000e-06	-3.136590e-06	-9.722017e-10	-2.184019e+01	-6.827551e+01
1.140000e-06	-3.098029e-06	-9.586653e-10	-2.157169e+01	-6.782151e+01
1.150000e-06	-3.059297e-06	-9.525745e-10	-2.130199e+01	-6.736202e+01
1.160000e-06	-3.020353e-06	-9.485897e-10	-2.103083e+01	-6.689706e+01
1.170000e-06	-2.981128e-06	-9.395807e-10	-2.075770e+01	-6.642666e+01
1.180000e-06	-2.941693e-06	-9.342234e-10	-2.048312e+01	-6.595086e+01
1.190000e-06	-2.902165e-06	-9.310873e-10	-2.020788e+01	-6.546967e+01
1.200000e-06	-2.862527e-06	-9.202422e-10	-1.993188e+01	-6.498314e+01
1.210000e-06	-2.822836e-06	-9.097522e-10	-1.965551e+01	-6.449128e+01
1.220000e-06	-2.783017e-06	-9.040311e-10	-1.937825e+01	-6.399413e+01
1.230000e-06	-2.742982e-06	-8.935315e-10	-1.909948e+01	-6.349170e+01
1.240000e-06	-2.702754e-06	-8.832015e-10	-1.881937e+01	-6.298402e+01
1.250000e-06	-2.662380e-06	-8.797547e-10	-1.853825e+01	-6.247111e+01
1.260000e-06	-2.621734e-06	-8.764227e-10	-1.825523e+01	-6.195297e+01
1.270000e-06	-2.580792e-06	-8.661085e-10	-1.797015e+01	-6.142960e+01
1.280000e-06	-2.539596e-06	-8.572795e-10	-1.768330e+01	-6.090102e+01
1.290000e-06	-2.498169e-06	-8.481340e-10	-1.739485e+01	-6.036719e+01
1.300000e-06	-2.456504e-06	-8.364891e-10	-1.710473e+01	-5.982811e+01
1.310000e-06	-2.414441e-06	-8.235939e-10	-1.681184e+01	-5.928373e+01
1.320000e-06	-2.372061e-06	-8.141495e-10	-1.651675e+01	-5.873402e+01
1.330000e-06	-2.329511e-06	-8.046973e-10	-1.622047e+01	-5.817890e+01
1.340000e-06	-2.286665e-06	-7.963185e-10	-1.592213e+01	-5.761831e+01
1.350000e-06	-2.243509e-06	-7.886813e-10	-1.562163e+01	-5.705214e+01
1.360000e-06	-2.200170e-06	-7.807453e-10	-1.531986e+01	-5.648029e+01
1.370000e-06	-2.156702e-06	-7.728401e-10	-1.501719e+01	-5.590261e+01
1.380000e-06	-2.113142e-06	-7.637719e-10	-1.471389e+01	-5.531895e+01
1.390000e-06	-2.069560e-06	-7.512399e-10	-1.441042e+01	-5.472914e+01
1.400000e-06	-2.025936e-06	-7.368087e-10	-1.410666e+01	-5.413295e+01
1.410000e-06	-1.982177e-06	-7.219337e-10	-1.380197e+01	-5.353017e+01
1.420000e-06	-1.938273e-06	-7.123599e-10	-1.349627e+01	-5.292053e+01
1.430000e-06	-1.894263e-06	-7.072825e-10	-1.318982e+01	-5.230374e+01
1.440000e-06	-1.850165e-06	-7.024680e-10	-1.288277e+01	-5.167950e+01
1.450000e-06	-1.805960e-06	-6.931975e-10	-1.257497e+01	-5.104744e+01
1.460000e-06	-1.761716e-06	-6.808277e-10	-1.226689e+01	-5.040721e+01
1.470000e-06	-1.717332e-06	-6.692157e-10	-1.195785e+01	-4.975839e+01
1.480000e-06	-1.672818e-06	-6.574323e-10	-1.164789e+01	-4.910056e+01
1.490000e-06	-1.628229e-06	-6.457982e-10	-1.133742e+01	-4.843325e+01
1.500000e-06	-1.583452e-06	-6.370576e-10	-1.102563e+01	-4.775597e+01
1.510000e-06	-1.538523e-06	-6.292700e-10	-1.071279e+01	-4.706820e+01
1.520000e-06	-1.493420e-06	-6.185657e-10	-1.039873e+01	-4.636941e+01
1.530000e-06	-1.448241e-06	-6.075376e-10	-1.008415e+01	-4.565902e+01
1.540000e-06	-1.402996e-06	-5.975176e-10	-9.769116e+00	-4.493645e+01
1.550000e-06	-1.357643e-06	-5.857256e-10	-9.453320e+00	-4.420110e+01
1.560000e-06	-1.312189e-06	-5.721410e-10	-9.136820e+00	-4.345233e+01
1.570000e-06	-1.266553e-06	-5.619768e-10	-8.819053e+00	-4.268952e+01
1.580000e-06	-1.220803e-06	-5.521765e-10	-8.500493e+00	-4.191201e+01
1.590000e-06	-1.175078e-06	-5.395001e-10	-8.182108e+00	-4.111916e+01
1.600000e-06	-1.129333e-06	-5.273211e-10	-7.863589e+00	-4.031030e+01
1.610000e-06	-1.083450e-06	-5.144627e-10	-7.544103e+00	-3.948479e+01
1.620000e-06	-1.037474e-06	-4.983062e-10	-7.223973e+00	-3.864196e+01
1.630000e-06	-9.913932e-07	-4.832372e-10	-6.903107e+00	-3.778119e+01
1.640000e-06	-9.453210e-07	-4.711018e-10	-6.582304e+00	-3.690184e+01
1.650000e-06	-8.992127e-07	-4.584177e-10	-6.261251e+00	-3.600331e+01
1.660000e-06	-8.529816e-07	-4.437852e-10	-5.939342e+00	-3.508502e+01
1.670000e-06	-8.067607e-07	-4.314055e-10	-5.617505e+00	-3.414641e+01
1.680000e-06	-7.604836e-07	-4.178564e-10	-5.295275e+00	-3.318697e+01
1.690000e-06	-7.141461e-07	-4.031031e-10	-4.972625e+00	-3.220621e+01
1.700000e-06	-6.677595e-07	-3.883648e-10	-4.649634e+00	-3.120370e+01
1.710000e-06	-6.212606e-07	-3.709313e-10	-4.325860e+00	-3.017905e+01
1.720000e-06	-5.747854e-07	-3.519878e-10	-4.002252e+00	-2.913193e+01
1.730000e-06	-5.283526e-07	-3.348512e-10	-3.678938e+00	-2.806205e+01
1.740000e-06	-4.818160e-07	-3.188741e-10	-3.354902e+00	-2.696920e+01
1.750000e-06	-4.351905e-07	-3.028792e-10	-3.030247e+00	-2.585323e+01
1.760000e-06	-3.885475e-07	-2.881304e-10	-2.705470e+00	-2.471406e+01
1.770000e-06	-3.419041e-07	-2.733105e-10	-2.380691e+00	-2.355167e+01
1.780000e-06	-2.952080e-07	-2.551985e-10	-2.055544e+00	-2.236614e+01
1.790000e-06	-2.484762e-07	-2.369012e-10	-1.730149e+00	-2.115759e+01
1.800000e-06	-2.017250e-07	-2.198498e-10	-1.404619e+00	-1.992627e+01
1.810000e-06	-1.549441e-07	-2.012329e-10	-1.078881e+00	-1.867247e+01
1.820000e-06	-1.081377e-07	-1.827225e-10	-7.529668e-01	-1.739656e+01
1.830000e-06	-6.130963e-08	-1.655930e-10	-4.269012e-01	-1.609903e+01
1.840000e-06	-1.453001e-08	-1.488562e-10	-1.011730e-01	-1.478042e+01
1.850000e-06	3.223029e-08	-1.315194e-10	2.244207e-01	-1.344137e+01
1.860000e-06	7.907137e-08	-1.144239e-10	5.505769e-01	-1.208257e+01
1.870000e-06	1.259013e-07	-9.503352e-11	8.766552e-01	-1.070484e+01
1.880000e-06	1.727264e-07	-7.417381e-11	1.202700e+00	-9.309029e+00
1.890000e-06	2.195283e-07	-5.520180e-11	1.528583e+00	-7.896089e+00
1.900000e-06	2.662592e-07	-3.728692e-11	1.853973e+00	-6.467033e+00
1.910000e-06	3.130222e-07	-1.914058e-11	2.179585e+00	-5.022944e+00
1.920000e-06	3.597690e-07	2.343851e-13	2.505085e+00	-3.564968e+00
1.930000e-06	4.065613e-07	2.204530e-11	2.830901e+00	-2.094309e+00
1.940000e-06	4.532545e-07	4.363395e-11	3.156028e+00	-6.122268e-01
1.950000e-06	4.997980e-07	6.367967e-11	3.480112e+00	8.799719e-01
1.960000e-06	5.462839e-07	8.285581e-11	3.803795e+00	2.380937e+00
1.970000e-06	5.927004e-07	1.026612e-10	4.126995e+00	3.889281e+00
1.980000e-06	6.391028e-07	1.229562e-10	4.450096e+00	5.403587e+00
1.990000e-06	6.854862e-07	1.429482e-10	4.773066e+00	6.922414e+00
2.000000e-06	7.317734e-07	1.638281e-10	5.095365e+00	8.444302e+00
2.010000e-06	7.779324e-07	1.860035e-10	5.416772e+00	9.967783e+00
2.020000e-06	8.240912e-07	2.087473e-10	5.738177e+00	1.149138e+01
2.030000e-06	8.702437e-07	2.344970e-10	6.059539e+00	1.301363e+01
2.040000e-06	9.163790e-07	2.607875e-10	6.380780e+00	1.453307e+01
2.050000e-06	9.624298e-07	2.827903e-10	6.701434e+00	1.604825e+01
2.060000e-06	1.008342e-06	3.036732e-10	7.021119e+00	1.755775e+01
2.070000e-06	1.054230e-06	3.226011e-10	7.340644e+00	1.906019e+01
2.080000e-06	1.100049e-06	3.408671e-10	7.659685e+00	2.055420e+01
2.090000e-06	1.145762e-06	3.615301e-10	7.977985e+00	2.203848e+01
2.100000e-06	1.191421e-06	3.860426e-10	8.295906e+00	2.351174e+01
2.110000e-06	1.236991e-06	4.102390e-10	8.613212e+00	2.497279e+01
2.120000e-06	1.282494e-06	4.308656e-10	8.930053e+00	2.642045e+01
2.130000e-06	1.327881e-06	4.508494e-10	9.246085e+00	2.785363e+01
2.140000e-06	1.373196e-06	4.709675e-10	9.561613e+00	2.927129e+01
2.150000e-06	1.418473e-06	4.875643e-10	9.876883e+00	3.067248e+01
2.160000e-06	1.463538e-06	5.024457e-10	1.019067e+01	3.205628e+01
2.170000e-06	1.508414e-06	5.205160e-10	1.050314e+01	3.342189e+01
2.180000e-06	1.553252e-06	5.406362e-10	1.081535e+01	3.476855e+01
2.190000e-06	1.597958e-06	5.628287e-10	1.112664e+01	3.609558e+01
2.200000e-06	1.642492e-06	5.848827e-10	1.143674e+01	3.740241e+01
2.210000e-06	1.686968e-06	6.036500e-10	1.174642e+01	3.868849e+01
2.220000e-06	1.731292e-06	6.176766e-10	1.205505e+01	3.995341e+01
2.230000e-06	1.775484e-06	6.298256e-10	1.236276e+01	4.119678e+01
2.240000e-06	1.819635e-06	6.444141e-10	1.267019e+01	4.241831e+01
2.250000e-06	1.863659e-06	6.616565e-10	1.297673e+01	4.361778e+01
2.260000e-06	1.907586e-06	6.798918e-10	1.328259e+01	4.479504e+01
2.270000e-06	1.951433e-06	6.988062e-10	1.358790e+01	4.595001e+01
2.280000e-06	1.995184e-06	7.162107e-10	1.389254e+01	4.708266e+01
2.290000e-06	2.038870e-06	7.306528e-10	1.419672e+01	4.819304e+01
2.300000e-06	2.082461e-06	7.446262e-10	1.450025e+01	4.928123e+01
2.310000e-06	2.125962e-06	7.575671e-10	1.480315e+01	5.034739e+01
2.320000e-06	2.169390e-06	7.707573e-10	1.510554e+01	5.139171e+01
2.330000e-06	2.212694e-06	7.855776e-10	1.540707e+01	5.241444e+01
2.340000e-06	2.255885e-06	8.005034e-10	1.570781e+01	5.341585e+01
2.350000e-06	2.298960e-06	8.141564e-10	1.600774e+01	5.439626e+01
2.360000e-06	2.341734e-06	8.260838e-10	1.630558e+01	5.535601e+01
2.370000e-06	2.384160e-06	8.377497e-10	1.660100e+01	5.629547e+01
2.380000e-06	2.426370e-06	8.500257e-10	1.689490e+01	5.721502e+01
2.390000e-06	2.468438e-06	8.635562e-10	1.718782e+01	5.811509e+01
2.400000e-06	2.510160e-06	8.758840e-10	1.747833e+01	5.899608e+01
2.410000e-06	2.551485e-06	8.875887e-10	1.776608e+01	5.985842e+01
2.420000e-06	2.592569e-06	9.005165e-10	1.805215e+01	6.070255e+01
2.430000e-06	2.633401e-06	9.136176e-10	1.833647e+01	6.152888e+01
2.440000e-06	2.673995e-06	9.246491e-10	1.861913e+01	6.233784e+01
2.450000e-06	2.714340e-06	9.322672e-10	1.890005e+01	6.312986e+01
2.460000e-06	2.754412e-06	9.411301e-10	1.917907e+01	6.390534e+01
2.470000e-06	2.794370e-06	9.503378e-10	1.945730e+01	6.466468e+01
2.480000e-06	2.834233e-06	9.595126e-10	1.973487e+01	6.540826e+01
2.490000e-06	2.873950e-06	9.705037e-10	2.001142e+01	6.613644e+01
2.500000e-06	2.913429e-06	9.798609e-10	2.028632e+01	6.684959e+01
2.510000e-06	2.952712e-06	9.907368e-10	2.055984e+01	6.754801e+01
2.520000e-06	2.991965e-06	1.002794e-09	2.083316e+01	6.823204e+01
2.530000e-06	3.031061e-06	1.016730e-09	2.110539e+01	6.890195e+01
2.540000e-06	3.069935e-06	1.027533e-09	2.137607e+01	6.955802e+01
2.550000e-06	3.108654e-06	1.033418e-09	2.164567e+01	7.020049e+01
2.560000e-06	3.147175e-06	1.038151e-09	2.191389e+01	7.082960e+01
2.570000e-06	3.185398e-06	1.040261e-09	2.218004e+01	7.144556e+01
2.580000e-06	3.223365e-06	1.050767e-09	2.244441e+01	7.204857e+01
2.590000e-06	3.261105e-06	1.063923e-09	2.270719e+01	7.263881e+01
2.600000e-06	3.298572e-06	1.075926e-09	2.296808e+01	7.321643e+01
2.610000e-06	3.335778e-06	1.085636e-09	2.322715e+01	7.378161e+01
2.620000e-06	3.372729e-06	1.092848e-09	2.348443e+01	7.433447e+01
2.630000e-06	3.409481e-06	1.097868e-09	2.374034e+01	7.487515e+01
2.640000e-06	3.446076e-06	1.100593e-09	2.399516e+01	7.540378e+01
2.650000e-06	3.482412e-06	1.106770e-09	2.424816e+01	7.592048e+01
2.660000e-06	3.518505e-06	1.116924e-09	2.449948e+01	7.642537e+01
2.670000e-06	3.554446e-06	1.127560e-09	2.474974e+01	7.691858e+01
2.680000e-06	3.590176e-06	1.134929e-09	2.499853e+01	7.740022e+01
2.690000e-06	3.625748e-06	1.139752e-09	2.524622e+01	7.787042e+01
2.700000e-06	3.661200e-06	1.141097e-09	2.549307e+01	7.832930e+01
2.710000e-06	3.696405e-06	1.141861e-09	2.573821e+01	7.877702e+01
2.720000e-06	3.731385e-06	1.148780e-09	2.598177e+01	7.921370e+01
2.730000e-06	3.766066e-06	1.155475e-09	2.622326e+01	7.963952e+01
2.740000e-06	3.800277e-06	1.161516e-09	2.646147e+01	8.005463e+01
2.750000e-06	3.834107e-06	1.166017e-09	2.669703e+01	8.045922e+01
2.760000e-06	3.867505e-06	1.170434e-09	2.692958e+01	8.085348e+01
2.770000e-06	3.900433e-06	1.176346e-09	2.715885e+01	8.123761e+01
2.780000e-06	3.932959e-06	1.180465e-09	2.738534e+01	8.161183e+01
2.790000e-06	3.965214e-06	1.187728e-09	2.760993e+01	8.197638e+01
2.800000e-06	3.997311e-06	1.190192e-09	2.783342e+01	8.233149e+01
2.810000e-06	4.029181e-06	1.193316e-09	2.805534e+01	8.267742e+01
2.820000e-06	4.060819e-06	1.199067e-09	2.827563e+01	8.301444e+01
2.830000e-06	4.092216e-06	1.206876e-09	2.849425e+01	8.334283e+01
2.840000e-06	4.123404e-06	1.214153e-09	2.871142e+01	8.366287e+01
2.850000e-06	4.154379e-06	1.219647e-09	2.892709e+01	8.397487e+01
2.860000e-06	4.185035e-06	1.225246e-09	2.914055e+01	8.427910e+01
2.870000e-06	4.215353e-06	1.227088e-09	2.935166e+01	8.457589e+01
2.880000e-06	4.245405e-06	1.226500e-09	2.956091e+01	8.486554e+01
2.890000e-06	4.275139e-06	1.225325e-09	2.976795e+01	8.514836e+01
2.900000e-06	4.304558e-06	1.227669e-09	2.997280e+01	8.542464e+01
