# Temperatura_=_12.6
# Concentracion g/m^3_=_1620.0
# C_Vs_to_Am_M_A/Vsm_=_65563218390.804596
# pendiente_HvsI_1/m_=_3716.3
# ordenada_HvsI_A/m_=_1297.0
# frecuencia_Hz_=_135108.6738852493

Tiempo_(s)	Campo_(V.s)	Magnetizacion_(V.s)	Campo_(kA/m)	Magnetizacion_(A/m)
0.000000e+00	-5.531828e-06	-1.153160e-09	-3.836948e+01	-7.332338e+01
1.000000e-08	-5.532012e-06	-1.149584e-09	-3.837076e+01	-7.330234e+01
2.000000e-08	-5.531845e-06	-1.147381e-09	-3.836960e+01	-7.328041e+01
3.000000e-08	-5.531210e-06	-1.146549e-09	-3.836520e+01	-7.325745e+01
4.000000e-08	-5.529988e-06	-1.147355e-09	-3.835672e+01	-7.323333e+01
5.000000e-08	-5.528180e-06	-1.148461e-09	-3.834418e+01	-7.320791e+01
6.000000e-08	-5.525850e-06	-1.151210e-09	-3.832802e+01	-7.318102e+01
7.000000e-08	-5.523094e-06	-1.179168e-09	-3.830891e+01	-7.315253e+01
8.000000e-08	-5.519889e-06	-1.188663e-09	-3.828667e+01	-7.312226e+01
9.000000e-08	-5.516176e-06	-1.110689e-09	-3.826092e+01	-7.309007e+01
1.000000e-07	-5.512015e-06	-1.044134e-09	-3.823206e+01	-7.305579e+01
1.100000e-07	-5.507504e-06	-1.131721e-09	-3.820077e+01	-7.301926e+01
1.200000e-07	-5.502707e-06	-1.189470e-09	-3.816749e+01	-7.298035e+01
1.300000e-07	-5.497626e-06	-1.182016e-09	-3.813225e+01	-7.293889e+01
1.400000e-07	-5.492215e-06	-1.082528e-09	-3.809473e+01	-7.289475e+01
1.500000e-07	-5.486462e-06	-1.138588e-09	-3.805482e+01	-7.284778e+01
1.600000e-07	-5.480326e-06	-1.185789e-09	-3.801226e+01	-7.279786e+01
1.700000e-07	-5.473840e-06	-1.139273e-09	-3.796727e+01	-7.274487e+01
1.800000e-07	-5.466992e-06	-1.069044e-09	-3.791978e+01	-7.268869e+01
1.900000e-07	-5.459806e-06	-1.079665e-09	-3.786993e+01	-7.262923e+01
2.000000e-07	-5.452327e-06	-1.153801e-09	-3.781806e+01	-7.256638e+01
2.100000e-07	-5.444557e-06	-1.149091e-09	-3.776416e+01	-7.250007e+01
2.200000e-07	-5.436515e-06	-1.126209e-09	-3.770838e+01	-7.243021e+01
2.300000e-07	-5.428025e-06	-1.093429e-09	-3.764949e+01	-7.235675e+01
2.400000e-07	-5.418913e-06	-1.113114e-09	-3.758629e+01	-7.227963e+01
2.500000e-07	-5.409238e-06	-1.088311e-09	-3.751919e+01	-7.219880e+01
2.600000e-07	-5.398988e-06	-1.093504e-09	-3.744809e+01	-7.211424e+01
2.700000e-07	-5.388134e-06	-1.077945e-09	-3.737281e+01	-7.202590e+01
2.800000e-07	-5.376831e-06	-1.104913e-09	-3.729441e+01	-7.193378e+01
2.900000e-07	-5.365162e-06	-1.085619e-09	-3.721347e+01	-7.183786e+01
3.000000e-07	-5.353174e-06	-1.079008e-09	-3.713032e+01	-7.173814e+01
3.100000e-07	-5.340740e-06	-1.059638e-09	-3.704407e+01	-7.163462e+01
3.200000e-07	-5.327809e-06	-1.090454e-09	-3.695438e+01	-7.152732e+01
3.300000e-07	-5.314477e-06	-1.076663e-09	-3.686191e+01	-7.141625e+01
3.400000e-07	-5.300773e-06	-1.048862e-09	-3.676686e+01	-7.130143e+01
3.500000e-07	-5.286653e-06	-1.052770e-09	-3.666892e+01	-7.118289e+01
3.600000e-07	-5.272149e-06	-1.088979e-09	-3.656831e+01	-7.106065e+01
3.700000e-07	-5.257049e-06	-1.053967e-09	-3.646358e+01	-7.093476e+01
3.800000e-07	-5.241319e-06	-1.046465e-09	-3.635448e+01	-7.080524e+01
3.900000e-07	-5.225275e-06	-1.093862e-09	-3.624319e+01	-7.067214e+01
4.000000e-07	-5.208918e-06	-1.069753e-09	-3.612974e+01	-7.053550e+01
4.100000e-07	-5.192156e-06	-1.009767e-09	-3.601347e+01	-7.039535e+01
4.200000e-07	-5.175127e-06	-1.058828e-09	-3.589536e+01	-7.025175e+01
4.300000e-07	-5.157786e-06	-1.102734e-09	-3.577508e+01	-7.010474e+01
4.400000e-07	-5.139997e-06	-1.017018e-09	-3.565169e+01	-6.995436e+01
4.500000e-07	-5.121811e-06	-1.022311e-09	-3.552555e+01	-6.980066e+01
4.600000e-07	-5.103173e-06	-1.093383e-09	-3.539628e+01	-6.964370e+01
4.700000e-07	-5.084151e-06	-1.056080e-09	-3.526434e+01	-6.948352e+01
4.800000e-07	-5.064866e-06	-9.989725e-10	-3.513058e+01	-6.932016e+01
4.900000e-07	-5.045385e-06	-1.075956e-09	-3.499545e+01	-6.915368e+01
5.000000e-07	-5.025719e-06	-1.055012e-09	-3.485905e+01	-6.898414e+01
5.100000e-07	-5.005736e-06	-9.847582e-10	-3.472044e+01	-6.881158e+01
5.200000e-07	-4.985375e-06	-1.034023e-09	-3.457921e+01	-6.863605e+01
5.300000e-07	-4.964697e-06	-1.080304e-09	-3.443579e+01	-6.845762e+01
5.400000e-07	-4.943665e-06	-9.839345e-10	-3.428991e+01	-6.827634e+01
5.500000e-07	-4.922250e-06	-9.951370e-10	-3.414137e+01	-6.809226e+01
5.600000e-07	-4.900468e-06	-1.061659e-09	-3.399029e+01	-6.790544e+01
5.700000e-07	-4.878329e-06	-1.018940e-09	-3.383673e+01	-6.771594e+01
5.800000e-07	-4.855854e-06	-9.829955e-10	-3.368084e+01	-6.752384e+01
5.900000e-07	-4.833100e-06	-1.049804e-09	-3.352302e+01	-6.732918e+01
6.000000e-07	-4.810019e-06	-1.023546e-09	-3.336292e+01	-6.713203e+01
6.100000e-07	-4.786671e-06	-9.744955e-10	-3.320097e+01	-6.693246e+01
6.200000e-07	-4.763155e-06	-1.011123e-09	-3.303787e+01	-6.673053e+01
6.300000e-07	-4.739399e-06	-1.021971e-09	-3.287309e+01	-6.652632e+01
6.400000e-07	-4.715330e-06	-9.751889e-10	-3.270614e+01	-6.631988e+01
6.500000e-07	-4.690835e-06	-9.977525e-10	-3.253625e+01	-6.611130e+01
6.600000e-07	-4.665804e-06	-1.018532e-09	-3.236263e+01	-6.590062e+01
6.700000e-07	-4.640195e-06	-9.809110e-10	-3.218500e+01	-6.568792e+01
6.800000e-07	-4.614021e-06	-9.808722e-10	-3.200345e+01	-6.547326e+01
6.900000e-07	-4.587353e-06	-1.004817e-09	-3.181848e+01	-6.525670e+01
7.000000e-07	-4.560302e-06	-9.820628e-10	-3.163085e+01	-6.503829e+01
7.100000e-07	-4.533013e-06	-9.654903e-10	-3.144157e+01	-6.481810e+01
7.200000e-07	-4.505532e-06	-9.850723e-10	-3.125096e+01	-6.459616e+01
7.300000e-07	-4.477877e-06	-9.738410e-10	-3.105914e+01	-6.437253e+01
7.400000e-07	-4.450054e-06	-9.588567e-10	-3.086616e+01	-6.414722e+01
7.500000e-07	-4.421990e-06	-9.666352e-10	-3.067151e+01	-6.392028e+01
7.600000e-07	-4.393596e-06	-9.692061e-10	-3.047456e+01	-6.369172e+01
7.700000e-07	-4.364808e-06	-9.510166e-10	-3.027488e+01	-6.346155e+01
7.800000e-07	-4.335687e-06	-9.559366e-10	-3.007289e+01	-6.322977e+01
7.900000e-07	-4.306280e-06	-9.515779e-10	-2.986892e+01	-6.299637e+01
8.000000e-07	-4.276558e-06	-9.325724e-10	-2.966277e+01	-6.276133e+01
8.100000e-07	-4.246536e-06	-9.202680e-10	-2.945453e+01	-6.252460e+01
8.200000e-07	-4.216231e-06	-9.265690e-10	-2.924433e+01	-6.228615e+01
8.300000e-07	-4.185580e-06	-9.122629e-10	-2.903173e+01	-6.204591e+01
8.400000e-07	-4.154600e-06	-9.064869e-10	-2.881685e+01	-6.180380e+01
8.500000e-07	-4.123351e-06	-9.094054e-10	-2.860010e+01	-6.155975e+01
8.600000e-07	-4.091889e-06	-9.055997e-10	-2.838188e+01	-6.131365e+01
8.700000e-07	-4.060342e-06	-8.918898e-10	-2.816307e+01	-6.106539e+01
8.800000e-07	-4.028682e-06	-8.990053e-10	-2.794346e+01	-6.081484e+01
8.900000e-07	-3.996803e-06	-8.967505e-10	-2.772235e+01	-6.056187e+01
9.000000e-07	-3.964594e-06	-8.806206e-10	-2.749895e+01	-6.030631e+01
9.100000e-07	-3.932013e-06	-8.726498e-10	-2.727296e+01	-6.004802e+01
9.200000e-07	-3.899072e-06	-8.723168e-10	-2.704447e+01	-5.978682e+01
9.300000e-07	-3.865644e-06	-8.601027e-10	-2.681261e+01	-5.952254e+01
9.400000e-07	-3.831713e-06	-8.566601e-10	-2.657726e+01	-5.925498e+01
9.500000e-07	-3.797266e-06	-8.635001e-10	-2.633834e+01	-5.898395e+01
9.600000e-07	-3.762384e-06	-8.591540e-10	-2.609639e+01	-5.870926e+01
9.700000e-07	-3.727316e-06	-8.491208e-10	-2.585315e+01	-5.843070e+01
9.800000e-07	-3.692063e-06	-8.497572e-10	-2.560863e+01	-5.814809e+01
9.900000e-07	-3.656573e-06	-8.465829e-10	-2.536247e+01	-5.786120e+01
1.000000e-06	-3.620942e-06	-8.324103e-10	-2.511533e+01	-5.756986e+01
1.010000e-06	-3.585198e-06	-8.291753e-10	-2.486740e+01	-5.727386e+01
1.020000e-06	-3.549328e-06	-8.281512e-10	-2.461860e+01	-5.697302e+01
1.030000e-06	-3.513229e-06	-8.196015e-10	-2.436822e+01	-5.666716e+01
1.040000e-06	-3.476897e-06	-8.136616e-10	-2.411621e+01	-5.635612e+01
1.050000e-06	-3.440287e-06	-8.172174e-10	-2.386228e+01	-5.603974e+01
1.060000e-06	-3.403350e-06	-8.097743e-10	-2.360608e+01	-5.571787e+01
1.070000e-06	-3.366216e-06	-8.016317e-10	-2.334852e+01	-5.539040e+01
1.080000e-06	-3.328808e-06	-7.983258e-10	-2.308905e+01	-5.505722e+01
1.090000e-06	-3.291116e-06	-7.953369e-10	-2.282761e+01	-5.471824e+01
1.100000e-06	-3.253213e-06	-7.846178e-10	-2.256471e+01	-5.437338e+01
1.110000e-06	-3.215045e-06	-7.798553e-10	-2.229997e+01	-5.402260e+01
1.120000e-06	-3.176651e-06	-7.741340e-10	-2.203367e+01	-5.366587e+01
1.130000e-06	-3.138051e-06	-7.664349e-10	-2.176593e+01	-5.330319e+01
1.140000e-06	-3.099252e-06	-7.589373e-10	-2.149682e+01	-5.293457e+01
1.150000e-06	-3.060261e-06	-7.580235e-10	-2.122637e+01	-5.256004e+01
1.160000e-06	-3.021081e-06	-7.539514e-10	-2.095461e+01	-5.217968e+01
1.170000e-06	-2.981784e-06	-7.491346e-10	-2.068205e+01	-5.179355e+01
1.180000e-06	-2.942384e-06	-7.440606e-10	-2.040876e+01	-5.140176e+01
1.190000e-06	-2.902814e-06	-7.375571e-10	-2.013430e+01	-5.100443e+01
1.200000e-06	-2.863079e-06	-7.265376e-10	-1.985869e+01	-5.060170e+01
1.210000e-06	-2.823200e-06	-7.177868e-10	-1.958209e+01	-5.019371e+01
1.220000e-06	-2.783135e-06	-7.107098e-10	-1.930419e+01	-4.978064e+01
1.230000e-06	-2.742855e-06	-7.043349e-10	-1.902480e+01	-4.936265e+01
1.240000e-06	-2.702419e-06	-6.978469e-10	-1.874433e+01	-4.893993e+01
1.250000e-06	-2.661818e-06	-6.943503e-10	-1.846272e+01	-4.851268e+01
1.260000e-06	-2.620839e-06	-6.900301e-10	-1.817849e+01	-4.808107e+01
1.270000e-06	-2.579485e-06	-6.814288e-10	-1.789164e+01	-4.764530e+01
1.280000e-06	-2.537876e-06	-6.762283e-10	-1.760304e+01	-4.720556e+01
1.290000e-06	-2.496037e-06	-6.711626e-10	-1.731284e+01	-4.676201e+01
1.300000e-06	-2.453875e-06	-6.658274e-10	-1.702040e+01	-4.631483e+01
1.310000e-06	-2.411391e-06	-6.575881e-10	-1.672572e+01	-4.586417e+01
1.320000e-06	-2.368618e-06	-6.509496e-10	-1.642904e+01	-4.541014e+01
1.330000e-06	-2.325569e-06	-6.408349e-10	-1.613045e+01	-4.495286e+01
1.340000e-06	-2.282434e-06	-6.308927e-10	-1.583126e+01	-4.449241e+01
1.350000e-06	-2.239171e-06	-6.249833e-10	-1.553119e+01	-4.402883e+01
1.360000e-06	-2.195746e-06	-6.225322e-10	-1.522998e+01	-4.356214e+01
1.370000e-06	-2.152233e-06	-6.200312e-10	-1.492817e+01	-4.309232e+01
1.380000e-06	-2.108604e-06	-6.174270e-10	-1.462555e+01	-4.261930e+01
1.390000e-06	-2.064871e-06	-6.099703e-10	-1.432222e+01	-4.214298e+01
1.400000e-06	-2.021076e-06	-5.982824e-10	-1.401845e+01	-4.166321e+01
1.410000e-06	-1.977211e-06	-5.837423e-10	-1.371420e+01	-4.117979e+01
1.420000e-06	-1.933292e-06	-5.728644e-10	-1.340956e+01	-4.069248e+01
1.430000e-06	-1.889331e-06	-5.640558e-10	-1.310465e+01	-4.020098e+01
1.440000e-06	-1.845240e-06	-5.586300e-10	-1.279883e+01	-3.970495e+01
1.450000e-06	-1.800914e-06	-5.571721e-10	-1.249137e+01	-3.920400e+01
1.460000e-06	-1.756417e-06	-5.545549e-10	-1.218274e+01	-3.869768e+01
1.470000e-06	-1.711793e-06	-5.478602e-10	-1.187322e+01	-3.818549e+01
1.480000e-06	-1.667036e-06	-5.380110e-10	-1.156278e+01	-3.766689e+01
1.490000e-06	-1.622096e-06	-5.279703e-10	-1.125107e+01	-3.714130e+01
1.500000e-06	-1.577008e-06	-5.164409e-10	-1.093833e+01	-3.660808e+01
1.510000e-06	-1.531868e-06	-5.037574e-10	-1.062524e+01	-3.606655e+01
1.520000e-06	-1.486632e-06	-4.929627e-10	-1.031148e+01	-3.551601e+01
1.530000e-06	-1.441292e-06	-4.854921e-10	-9.996994e+00	-3.495571e+01
1.540000e-06	-1.395837e-06	-4.792354e-10	-9.681711e+00	-3.438488e+01
1.550000e-06	-1.350274e-06	-4.708872e-10	-9.365678e+00	-3.380271e+01
1.560000e-06	-1.304666e-06	-4.592158e-10	-9.049331e+00	-3.320839e+01
1.570000e-06	-1.258957e-06	-4.458996e-10	-8.732287e+00	-3.260108e+01
1.580000e-06	-1.213147e-06	-4.305976e-10	-8.414544e+00	-3.197994e+01
1.590000e-06	-1.167213e-06	-4.173433e-10	-8.095939e+00	-3.134413e+01
1.600000e-06	-1.121138e-06	-4.068287e-10	-7.776360e+00	-3.069281e+01
1.610000e-06	-1.075086e-06	-3.969583e-10	-7.456934e+00	-3.002515e+01
1.620000e-06	-1.028986e-06	-3.850828e-10	-7.137182e+00	-2.934034e+01
1.630000e-06	-9.827548e-07	-3.723470e-10	-6.816516e+00	-2.863761e+01
1.640000e-06	-9.364265e-07	-3.600809e-10	-6.495177e+00	-2.791619e+01
1.650000e-06	-8.900712e-07	-3.491136e-10	-6.173650e+00	-2.717538e+01
1.660000e-06	-8.436832e-07	-3.384614e-10	-5.851897e+00	-2.641450e+01
1.670000e-06	-7.971747e-07	-3.286399e-10	-5.529308e+00	-2.563295e+01
1.680000e-06	-7.505986e-07	-3.203967e-10	-5.206250e+00	-2.483016e+01
1.690000e-06	-7.040504e-07	-3.107344e-10	-4.883386e+00	-2.400564e+01
1.700000e-06	-6.575207e-07	-2.977626e-10	-4.560650e+00	-2.315897e+01
1.710000e-06	-6.109414e-07	-2.824708e-10	-4.237570e+00	-2.228981e+01
1.720000e-06	-5.643396e-07	-2.659126e-10	-3.914333e+00	-2.139789e+01
1.730000e-06	-5.176172e-07	-2.494045e-10	-3.590261e+00	-2.048303e+01
1.740000e-06	-4.708378e-07	-2.331373e-10	-3.265792e+00	-1.954514e+01
1.750000e-06	-4.240605e-07	-2.192603e-10	-2.941339e+00	-1.858423e+01
1.760000e-06	-3.772044e-07	-2.078627e-10	-2.616339e+00	-1.760040e+01
1.770000e-06	-3.302768e-07	-1.950900e-10	-2.290843e+00	-1.659385e+01
1.780000e-06	-2.832926e-07	-1.786017e-10	-1.964954e+00	-1.556486e+01
1.790000e-06	-2.362504e-07	-1.614273e-10	-1.638664e+00	-1.451385e+01
1.800000e-06	-1.892016e-07	-1.448689e-10	-1.312327e+00	-1.344130e+01
1.810000e-06	-1.422104e-07	-1.282612e-10	-9.863900e-01	-1.234781e+01
1.820000e-06	-9.517940e-08	-1.101106e-10	-6.601768e-01	-1.123407e+01
1.830000e-06	-4.818458e-08	-9.118082e-11	-3.342146e-01	-1.010088e+01
1.840000e-06	-1.123961e-09	-7.447979e-11	-7.795944e-03	-8.949122e+00
1.850000e-06	4.595713e-08	-6.083089e-11	3.187647e-01	-7.779764e+00
1.860000e-06	9.294624e-08	-4.763219e-11	6.446873e-01	-6.593865e+00
1.870000e-06	1.399127e-07	-3.251183e-11	9.704525e-01	-5.392565e+00
1.880000e-06	1.868553e-07	-1.689607e-11	1.296053e+00	-4.177077e+00
1.890000e-06	2.338006e-07	-2.051267e-12	1.621671e+00	-2.948686e+00
1.900000e-06	2.806912e-07	1.188732e-11	1.946911e+00	-1.708736e+00
1.910000e-06	3.275517e-07	2.823127e-11	2.271942e+00	-4.586308e-01
1.920000e-06	3.744354e-07	4.823499e-11	2.597133e+00	8.001805e-01
1.930000e-06	4.213177e-07	6.986421e-11	2.922315e+00	2.066206e+00
1.940000e-06	4.681321e-07	9.102860e-11	3.247026e+00	3.337923e+00
1.950000e-06	5.149186e-07	1.093475e-10	3.571543e+00	4.613783e+00
1.960000e-06	5.616557e-07	1.229781e-10	3.895717e+00	5.892220e+00
1.970000e-06	6.082533e-07	1.349684e-10	4.218925e+00	7.171663e+00
1.980000e-06	6.547445e-07	1.491191e-10	4.541394e+00	8.450540e+00
1.990000e-06	7.012483e-07	1.656416e-10	4.863950e+00	9.727290e+00
2.000000e-06	7.478062e-07	1.838984e-10	5.186882e+00	1.100037e+01
2.010000e-06	7.942570e-07	2.039953e-10	5.509070e+00	1.226825e+01
2.020000e-06	8.406411e-07	2.258591e-10	5.830797e+00	1.352946e+01
2.030000e-06	8.870635e-07	2.478061e-10	6.152789e+00	1.478255e+01
2.040000e-06	9.334078e-07	2.685139e-10	6.474239e+00	1.602612e+01
2.050000e-06	9.796183e-07	2.835197e-10	6.794761e+00	1.725883e+01
2.060000e-06	1.025743e-06	2.945118e-10	7.114686e+00	1.847941e+01
2.070000e-06	1.071727e-06	3.059615e-10	7.433641e+00	1.968664e+01
2.080000e-06	1.117599e-06	3.215258e-10	7.751811e+00	2.087938e+01
2.090000e-06	1.163486e-06	3.414245e-10	8.070093e+00	2.205657e+01
2.100000e-06	1.209275e-06	3.639920e-10	8.387688e+00	2.321724e+01
2.110000e-06	1.254895e-06	3.861894e-10	8.704116e+00	2.436048e+01
2.120000e-06	1.300408e-06	4.020136e-10	9.019802e+00	2.548550e+01
2.130000e-06	1.345879e-06	4.151042e-10	9.335193e+00	2.659156e+01
2.140000e-06	1.391322e-06	4.263418e-10	9.650395e+00	2.767804e+01
2.150000e-06	1.436714e-06	4.358333e-10	9.965234e+00	2.874440e+01
2.160000e-06	1.482007e-06	4.480230e-10	1.027939e+01	2.979021e+01
2.170000e-06	1.527140e-06	4.646506e-10	1.059244e+01	3.081509e+01
2.180000e-06	1.572152e-06	4.833605e-10	1.090465e+01	3.181880e+01
2.190000e-06	1.617041e-06	5.023222e-10	1.121601e+01	3.280114e+01
2.200000e-06	1.661795e-06	5.183614e-10	1.152643e+01	3.376202e+01
2.210000e-06	1.706428e-06	5.287595e-10	1.183601e+01	3.470143e+01
2.220000e-06	1.750978e-06	5.346691e-10	1.214501e+01	3.561944e+01
2.230000e-06	1.795352e-06	5.430772e-10	1.245280e+01	3.651617e+01
2.240000e-06	1.839494e-06	5.559304e-10	1.275897e+01	3.739185e+01
2.250000e-06	1.883538e-06	5.728593e-10	1.306447e+01	3.824672e+01
2.260000e-06	1.927513e-06	5.899113e-10	1.336948e+01	3.908113e+01
2.270000e-06	1.971365e-06	6.045016e-10	1.367365e+01	3.989546e+01
2.280000e-06	2.015101e-06	6.158052e-10	1.397700e+01	4.069012e+01
2.290000e-06	2.058753e-06	6.244234e-10	1.427978e+01	4.146560e+01
2.300000e-06	2.102338e-06	6.312975e-10	1.458209e+01	4.222238e+01
2.310000e-06	2.145874e-06	6.372595e-10	1.488406e+01	4.296101e+01
2.320000e-06	2.189400e-06	6.458730e-10	1.518597e+01	4.368204e+01
2.330000e-06	2.232891e-06	6.588000e-10	1.548762e+01	4.438604e+01
2.340000e-06	2.276268e-06	6.738673e-10	1.578849e+01	4.507360e+01
2.350000e-06	2.319414e-06	6.879718e-10	1.608776e+01	4.574529e+01
2.360000e-06	2.362323e-06	6.976233e-10	1.638538e+01	4.640171e+01
2.370000e-06	2.405057e-06	7.038650e-10	1.668179e+01	4.704344e+01
2.380000e-06	2.447520e-06	7.091935e-10	1.697632e+01	4.767106e+01
2.390000e-06	2.489718e-06	7.147831e-10	1.726901e+01	4.828511e+01
2.400000e-06	2.531632e-06	7.222485e-10	1.755973e+01	4.888614e+01
2.410000e-06	2.573178e-06	7.304046e-10	1.784790e+01	4.947466e+01
2.420000e-06	2.614414e-06	7.401013e-10	1.813391e+01	5.005117e+01
2.430000e-06	2.655362e-06	7.515895e-10	1.841794e+01	5.061613e+01
2.440000e-06	2.696003e-06	7.626572e-10	1.869983e+01	5.116997e+01
2.450000e-06	2.736450e-06	7.698994e-10	1.898037e+01	5.171309e+01
2.460000e-06	2.776755e-06	7.744174e-10	1.925994e+01	5.224585e+01
2.470000e-06	2.816788e-06	7.786530e-10	1.953761e+01	5.276860e+01
2.480000e-06	2.856589e-06	7.826543e-10	1.981368e+01	5.328163e+01
2.490000e-06	2.896252e-06	7.868996e-10	2.008878e+01	5.378520e+01
2.500000e-06	2.935738e-06	7.940318e-10	2.036267e+01	5.427954e+01
2.510000e-06	2.975120e-06	8.028384e-10	2.063582e+01	5.476485e+01
2.520000e-06	3.014428e-06	8.125593e-10	2.090847e+01	5.524130e+01
2.530000e-06	3.053557e-06	8.221517e-10	2.117987e+01	5.570902e+01
2.540000e-06	3.092483e-06	8.313582e-10	2.144987e+01	5.616812e+01
2.550000e-06	3.131140e-06	8.374131e-10	2.171800e+01	5.661869e+01
2.560000e-06	3.169521e-06	8.411174e-10	2.198422e+01	5.706078e+01
2.570000e-06	3.207743e-06	8.450034e-10	2.224932e+01	5.749443e+01
2.580000e-06	3.245739e-06	8.499843e-10	2.251287e+01	5.791968e+01
2.590000e-06	3.283518e-06	8.543581e-10	2.277491e+01	5.833653e+01
2.600000e-06	3.321167e-06	8.592563e-10	2.303605e+01	5.874498e+01
2.610000e-06	3.358573e-06	8.662345e-10	2.329551e+01	5.914503e+01
2.620000e-06	3.395686e-06	8.745388e-10	2.355292e+01	5.953666e+01
2.630000e-06	3.432558e-06	8.816839e-10	2.380867e+01	5.991987e+01
2.640000e-06	3.469169e-06	8.854764e-10	2.406261e+01	6.029463e+01
2.650000e-06	3.505566e-06	8.885941e-10	2.431507e+01	6.066095e+01
2.660000e-06	3.541777e-06	8.919454e-10	2.456623e+01	6.101884e+01
2.670000e-06	3.577760e-06	8.941066e-10	2.481581e+01	6.136829e+01
2.680000e-06	3.613534e-06	8.955072e-10	2.506394e+01	6.170935e+01
2.690000e-06	3.649126e-06	8.972388e-10	2.531081e+01	6.204205e+01
2.700000e-06	3.684569e-06	9.018005e-10	2.555665e+01	6.236644e+01
2.710000e-06	3.719862e-06	9.095249e-10	2.580145e+01	6.268261e+01
2.720000e-06	3.754956e-06	9.164792e-10	2.604487e+01	6.299065e+01
2.730000e-06	3.789720e-06	9.210414e-10	2.628600e+01	6.329067e+01
2.740000e-06	3.824005e-06	9.252729e-10	2.652380e+01	6.358280e+01
2.750000e-06	3.857868e-06	9.298326e-10	2.675868e+01	6.386721e+01
2.760000e-06	3.891442e-06	9.326686e-10	2.699155e+01	6.414406e+01
2.770000e-06	3.924701e-06	9.349338e-10	2.722224e+01	6.441356e+01
2.780000e-06	3.957535e-06	9.389769e-10	2.744998e+01	6.467592e+01
2.790000e-06	3.989935e-06	9.436737e-10	2.767472e+01	6.493136e+01
2.800000e-06	4.021993e-06	9.459458e-10	2.789707e+01	6.518015e+01
2.810000e-06	4.053815e-06	9.483954e-10	2.811779e+01	6.542254e+01
2.820000e-06	4.085450e-06	9.526492e-10	2.833721e+01	6.565882e+01
2.830000e-06	4.116896e-06	9.579189e-10	2.855533e+01	6.588926e+01
2.840000e-06	4.148108e-06	9.626300e-10	2.877182e+01	6.611417e+01
2.850000e-06	4.178998e-06	9.664002e-10	2.898608e+01	6.633386e+01
2.860000e-06	4.209595e-06	9.696023e-10	2.919830e+01	6.654862e+01
2.870000e-06	4.239901e-06	9.711581e-10	2.940851e+01	6.675876e+01
2.880000e-06	4.269941e-06	9.711857e-10	2.961687e+01	6.696459e+01
2.890000e-06	4.299706e-06	9.716031e-10	2.982332e+01	6.716642e+01
2.900000e-06	4.329141e-06	9.741303e-10	3.002749e+01	6.736453e+01
2.910000e-06	4.358272e-06	9.805098e-10	3.022955e+01	6.755921e+01
