# Temperatura_=_-0.4
# Concentracion g/m^3_=_1620.0
# C_Vs_to_Am_M_A/Vsm_=_65563218390.804596
# pendiente_HvsI_1/m_=_3716.3
# ordenada_HvsI_A/m_=_1297.0
# frecuencia_Hz_=_135092.93061716628

Tiempo_(s)	Campo_(V.s)	Magnetizacion_(V.s)	Campo_(kA/m)	Magnetizacion_(A/m)
0.000000e+00	-5.521119e-06	-1.658470e-09	-3.837719e+01	-1.057480e+02
1.000000e-08	-5.521446e-06	-1.654807e-09	-3.837947e+01	-1.057259e+02
2.000000e-08	-5.521530e-06	-1.650283e-09	-3.838004e+01	-1.057024e+02
3.000000e-08	-5.521291e-06	-1.646880e-09	-3.837839e+01	-1.056775e+02
4.000000e-08	-5.520579e-06	-1.645578e-09	-3.837344e+01	-1.056514e+02
5.000000e-08	-5.519325e-06	-1.646239e-09	-3.836472e+01	-1.056241e+02
6.000000e-08	-5.517465e-06	-1.648962e-09	-3.835179e+01	-1.055958e+02
7.000000e-08	-5.515006e-06	-1.657878e-09	-3.833470e+01	-1.055663e+02
8.000000e-08	-5.512057e-06	-1.670864e-09	-3.831420e+01	-1.055359e+02
9.000000e-08	-5.508672e-06	-1.655944e-09	-3.829067e+01	-1.055045e+02
1.000000e-07	-5.504827e-06	-1.614986e-09	-3.826395e+01	-1.054721e+02
1.100000e-07	-5.500551e-06	-1.624968e-09	-3.823423e+01	-1.054387e+02
1.200000e-07	-5.496033e-06	-1.687640e-09	-3.820282e+01	-1.054043e+02
1.300000e-07	-5.491250e-06	-1.658385e-09	-3.816958e+01	-1.053688e+02
1.400000e-07	-5.486185e-06	-1.625573e-09	-3.813437e+01	-1.053322e+02
1.500000e-07	-5.480757e-06	-1.610457e-09	-3.809664e+01	-1.052943e+02
1.600000e-07	-5.475012e-06	-1.683353e-09	-3.805670e+01	-1.052552e+02
1.700000e-07	-5.468893e-06	-1.670650e-09	-3.801417e+01	-1.052146e+02
1.800000e-07	-5.462330e-06	-1.621200e-09	-3.796855e+01	-1.051724e+02
1.900000e-07	-5.455306e-06	-1.584117e-09	-3.791973e+01	-1.051286e+02
2.000000e-07	-5.447931e-06	-1.622031e-09	-3.786846e+01	-1.050828e+02
2.100000e-07	-5.440373e-06	-1.634853e-09	-3.781593e+01	-1.050351e+02
2.200000e-07	-5.432563e-06	-1.621526e-09	-3.776164e+01	-1.049850e+02
2.300000e-07	-5.424463e-06	-1.611180e-09	-3.770534e+01	-1.049326e+02
2.400000e-07	-5.415964e-06	-1.616581e-09	-3.764626e+01	-1.048775e+02
2.500000e-07	-5.406883e-06	-1.624210e-09	-3.758314e+01	-1.048196e+02
2.600000e-07	-5.397001e-06	-1.584585e-09	-3.751445e+01	-1.047585e+02
2.700000e-07	-5.386473e-06	-1.586944e-09	-3.744127e+01	-1.046942e+02
2.800000e-07	-5.375427e-06	-1.589173e-09	-3.736449e+01	-1.046263e+02
2.900000e-07	-5.363986e-06	-1.598734e-09	-3.728496e+01	-1.045547e+02
3.000000e-07	-5.352239e-06	-1.569633e-09	-3.720331e+01	-1.044790e+02
3.100000e-07	-5.340074e-06	-1.578315e-09	-3.711875e+01	-1.043991e+02
3.200000e-07	-5.327503e-06	-1.575406e-09	-3.703137e+01	-1.043148e+02
3.300000e-07	-5.314521e-06	-1.588443e-09	-3.694113e+01	-1.042258e+02
3.400000e-07	-5.301086e-06	-1.551164e-09	-3.684774e+01	-1.041319e+02
3.500000e-07	-5.287339e-06	-1.557262e-09	-3.675219e+01	-1.040330e+02
3.600000e-07	-5.273251e-06	-1.557460e-09	-3.665426e+01	-1.039287e+02
3.700000e-07	-5.258562e-06	-1.566699e-09	-3.655216e+01	-1.038190e+02
3.800000e-07	-5.243367e-06	-1.530443e-09	-3.644654e+01	-1.037037e+02
3.900000e-07	-5.227773e-06	-1.549870e-09	-3.633815e+01	-1.035827e+02
4.000000e-07	-5.211644e-06	-1.550676e-09	-3.622604e+01	-1.034557e+02
4.100000e-07	-5.195054e-06	-1.525521e-09	-3.611072e+01	-1.033227e+02
4.200000e-07	-5.178122e-06	-1.519512e-09	-3.599303e+01	-1.031836e+02
4.300000e-07	-5.160961e-06	-1.557232e-09	-3.587374e+01	-1.030383e+02
4.400000e-07	-5.143511e-06	-1.536065e-09	-3.575244e+01	-1.028868e+02
4.500000e-07	-5.125624e-06	-1.492021e-09	-3.562811e+01	-1.027289e+02
4.600000e-07	-5.107335e-06	-1.522259e-09	-3.550099e+01	-1.025647e+02
4.700000e-07	-5.088588e-06	-1.536098e-09	-3.537068e+01	-1.023942e+02
4.800000e-07	-5.069458e-06	-1.496228e-09	-3.523770e+01	-1.022173e+02
4.900000e-07	-5.050071e-06	-1.500961e-09	-3.510295e+01	-1.020341e+02
5.000000e-07	-5.030492e-06	-1.540694e-09	-3.496685e+01	-1.018446e+02
5.100000e-07	-5.010719e-06	-1.500178e-09	-3.482941e+01	-1.016489e+02
5.200000e-07	-4.990637e-06	-1.478342e-09	-3.468982e+01	-1.014470e+02
5.300000e-07	-4.970199e-06	-1.511299e-09	-3.454776e+01	-1.012390e+02
5.400000e-07	-4.949423e-06	-1.503110e-09	-3.440335e+01	-1.010251e+02
5.500000e-07	-4.928291e-06	-1.454650e-09	-3.425646e+01	-1.008053e+02
5.600000e-07	-4.906771e-06	-1.491479e-09	-3.410687e+01	-1.005797e+02
5.700000e-07	-4.884947e-06	-1.503523e-09	-3.395517e+01	-1.003485e+02
5.800000e-07	-4.862906e-06	-1.464305e-09	-3.380196e+01	-1.001117e+02
5.900000e-07	-4.840474e-06	-1.458511e-09	-3.364604e+01	-9.986956e+01
6.000000e-07	-4.817588e-06	-1.487566e-09	-3.348696e+01	-9.962213e+01
6.100000e-07	-4.794387e-06	-1.454366e-09	-3.332569e+01	-9.936956e+01
6.200000e-07	-4.770978e-06	-1.448621e-09	-3.316298e+01	-9.911196e+01
6.300000e-07	-4.747370e-06	-1.471293e-09	-3.299888e+01	-9.884947e+01
6.400000e-07	-4.723486e-06	-1.461234e-09	-3.283286e+01	-9.858220e+01
6.500000e-07	-4.699297e-06	-1.434156e-09	-3.266472e+01	-9.831027e+01
6.600000e-07	-4.674742e-06	-1.448335e-09	-3.249404e+01	-9.803376e+01
6.700000e-07	-4.649673e-06	-1.436762e-09	-3.231979e+01	-9.775279e+01
6.800000e-07	-4.624015e-06	-1.414244e-09	-3.214144e+01	-9.746742e+01
6.900000e-07	-4.597825e-06	-1.419148e-09	-3.195939e+01	-9.717772e+01
7.000000e-07	-4.571117e-06	-1.426826e-09	-3.177375e+01	-9.688376e+01
7.100000e-07	-4.544082e-06	-1.409095e-09	-3.158583e+01	-9.658557e+01
7.200000e-07	-4.516853e-06	-1.409588e-09	-3.139656e+01	-9.628319e+01
7.300000e-07	-4.489338e-06	-1.412207e-09	-3.120530e+01	-9.597662e+01
7.400000e-07	-4.461583e-06	-1.395607e-09	-3.101237e+01	-9.566586e+01
7.500000e-07	-4.433624e-06	-1.383835e-09	-3.081803e+01	-9.535090e+01
7.600000e-07	-4.405404e-06	-1.382871e-09	-3.062188e+01	-9.503169e+01
7.700000e-07	-4.376915e-06	-1.376894e-09	-3.042385e+01	-9.470821e+01
7.800000e-07	-4.348072e-06	-1.369824e-09	-3.022336e+01	-9.438037e+01
7.900000e-07	-4.318819e-06	-1.374301e-09	-3.002003e+01	-9.404810e+01
8.000000e-07	-4.289307e-06	-1.366686e-09	-2.981489e+01	-9.371133e+01
8.100000e-07	-4.259514e-06	-1.355561e-09	-2.960780e+01	-9.336993e+01
8.200000e-07	-4.229445e-06	-1.347472e-09	-2.939879e+01	-9.302380e+01
8.300000e-07	-4.199071e-06	-1.340738e-09	-2.918766e+01	-9.267282e+01
8.400000e-07	-4.168369e-06	-1.322114e-09	-2.897425e+01	-9.231686e+01
8.500000e-07	-4.137469e-06	-1.318171e-09	-2.875947e+01	-9.195578e+01
8.600000e-07	-4.106385e-06	-1.317491e-09	-2.854340e+01	-9.158943e+01
8.700000e-07	-4.075075e-06	-1.315042e-09	-2.832576e+01	-9.121767e+01
8.800000e-07	-4.043559e-06	-1.310177e-09	-2.810670e+01	-9.084036e+01
8.900000e-07	-4.011850e-06	-1.312243e-09	-2.788629e+01	-9.045733e+01
9.000000e-07	-3.979948e-06	-1.297639e-09	-2.766454e+01	-9.006846e+01
9.100000e-07	-3.947755e-06	-1.282317e-09	-2.744077e+01	-8.967358e+01
9.200000e-07	-3.915225e-06	-1.273232e-09	-2.721465e+01	-8.927257e+01
9.300000e-07	-3.882322e-06	-1.266597e-09	-2.698595e+01	-8.886529e+01
9.400000e-07	-3.848917e-06	-1.254766e-09	-2.675375e+01	-8.845163e+01
9.500000e-07	-3.815026e-06	-1.254073e-09	-2.651817e+01	-8.803145e+01
9.600000e-07	-3.780618e-06	-1.253077e-09	-2.627900e+01	-8.760467e+01
9.700000e-07	-3.745822e-06	-1.242507e-09	-2.603713e+01	-8.717120e+01
9.800000e-07	-3.710763e-06	-1.230566e-09	-2.579344e+01	-8.673095e+01
9.900000e-07	-3.675544e-06	-1.227088e-09	-2.554864e+01	-8.628387e+01
1.000000e-06	-3.640175e-06	-1.217971e-09	-2.530278e+01	-8.582991e+01
1.010000e-06	-3.604555e-06	-1.209022e-09	-2.505519e+01	-8.536904e+01
1.020000e-06	-3.568772e-06	-1.208576e-09	-2.480647e+01	-8.490126e+01
1.030000e-06	-3.532854e-06	-1.206673e-09	-2.455680e+01	-8.442655e+01
1.040000e-06	-3.496731e-06	-1.196999e-09	-2.430571e+01	-8.394495e+01
1.050000e-06	-3.460362e-06	-1.189696e-09	-2.405291e+01	-8.345649e+01
1.060000e-06	-3.423690e-06	-1.182646e-09	-2.379800e+01	-8.296122e+01
1.070000e-06	-3.386713e-06	-1.168594e-09	-2.354098e+01	-8.245922e+01
1.080000e-06	-3.349559e-06	-1.156863e-09	-2.328272e+01	-8.195057e+01
1.090000e-06	-3.312197e-06	-1.150390e-09	-2.302302e+01	-8.143537e+01
1.100000e-06	-3.274555e-06	-1.144768e-09	-2.276137e+01	-8.091372e+01
1.110000e-06	-3.236727e-06	-1.135639e-09	-2.249842e+01	-8.038575e+01
1.120000e-06	-3.198689e-06	-1.132088e-09	-2.223402e+01	-7.985159e+01
1.130000e-06	-3.160342e-06	-1.125121e-09	-2.196747e+01	-7.931137e+01
1.140000e-06	-3.121823e-06	-1.114423e-09	-2.169973e+01	-7.876525e+01
1.150000e-06	-3.083146e-06	-1.100395e-09	-2.143089e+01	-7.821338e+01
1.160000e-06	-3.044215e-06	-1.090548e-09	-2.116028e+01	-7.765589e+01
1.170000e-06	-3.005037e-06	-1.080686e-09	-2.088795e+01	-7.709295e+01
1.180000e-06	-2.965729e-06	-1.074692e-09	-2.061473e+01	-7.652469e+01
1.190000e-06	-2.926355e-06	-1.071330e-09	-2.034104e+01	-7.595126e+01
1.200000e-06	-2.886832e-06	-1.068108e-09	-2.006631e+01	-7.537279e+01
1.210000e-06	-2.847145e-06	-1.059997e-09	-1.979045e+01	-7.478940e+01
1.220000e-06	-2.807278e-06	-1.049631e-09	-1.951333e+01	-7.420120e+01
1.230000e-06	-2.767226e-06	-1.035840e-09	-1.923494e+01	-7.360829e+01
1.240000e-06	-2.726974e-06	-1.022148e-09	-1.895514e+01	-7.301074e+01
1.250000e-06	-2.686499e-06	-1.013531e-09	-1.867380e+01	-7.240861e+01
1.260000e-06	-2.645745e-06	-1.010128e-09	-1.839052e+01	-7.180192e+01
1.270000e-06	-2.604759e-06	-1.004577e-09	-1.810563e+01	-7.119070e+01
1.280000e-06	-2.563583e-06	-9.970892e-10	-1.781942e+01	-7.057492e+01
1.290000e-06	-2.522129e-06	-9.871611e-10	-1.753127e+01	-6.995453e+01
1.300000e-06	-2.480397e-06	-9.745679e-10	-1.724119e+01	-6.932947e+01
1.310000e-06	-2.438398e-06	-9.592786e-10	-1.694925e+01	-6.869962e+01
1.320000e-06	-2.396094e-06	-9.470663e-10	-1.665520e+01	-6.806484e+01
1.330000e-06	-2.353458e-06	-9.363042e-10	-1.635884e+01	-6.742497e+01
1.340000e-06	-2.310544e-06	-9.260151e-10	-1.606055e+01	-6.677980e+01
1.350000e-06	-2.267466e-06	-9.172331e-10	-1.576111e+01	-6.612908e+01
1.360000e-06	-2.224197e-06	-9.075203e-10	-1.546035e+01	-6.547254e+01
1.370000e-06	-2.180775e-06	-8.973486e-10	-1.515852e+01	-6.480986e+01
1.380000e-06	-2.137265e-06	-8.867674e-10	-1.485608e+01	-6.414072e+01
1.390000e-06	-2.093638e-06	-8.754510e-10	-1.455284e+01	-6.346471e+01
1.400000e-06	-2.049940e-06	-8.613811e-10	-1.424909e+01	-6.278144e+01
1.410000e-06	-2.006176e-06	-8.481579e-10	-1.394489e+01	-6.209044e+01
1.420000e-06	-1.962366e-06	-8.360315e-10	-1.364037e+01	-6.139126e+01
1.430000e-06	-1.918431e-06	-8.252101e-10	-1.333497e+01	-6.068338e+01
1.440000e-06	-1.874349e-06	-8.135541e-10	-1.302856e+01	-5.996628e+01
1.450000e-06	-1.830275e-06	-8.046265e-10	-1.272221e+01	-5.923938e+01
1.460000e-06	-1.786128e-06	-7.946536e-10	-1.241534e+01	-5.850212e+01
1.470000e-06	-1.741733e-06	-7.823486e-10	-1.210676e+01	-5.775389e+01
1.480000e-06	-1.697175e-06	-7.679508e-10	-1.179703e+01	-5.699406e+01
1.490000e-06	-1.652498e-06	-7.549762e-10	-1.148648e+01	-5.622201e+01
1.500000e-06	-1.607632e-06	-7.417288e-10	-1.117462e+01	-5.543710e+01
1.510000e-06	-1.562624e-06	-7.287804e-10	-1.086177e+01	-5.463865e+01
1.520000e-06	-1.517514e-06	-7.173435e-10	-1.054821e+01	-5.382602e+01
1.530000e-06	-1.472261e-06	-7.042347e-10	-1.023366e+01	-5.299854e+01
1.540000e-06	-1.426895e-06	-6.900972e-10	-9.918322e+00	-5.215554e+01
1.550000e-06	-1.381514e-06	-6.782533e-10	-9.602880e+00	-5.129638e+01
1.560000e-06	-1.336095e-06	-6.639349e-10	-9.287172e+00	-5.042040e+01
1.570000e-06	-1.290583e-06	-6.482050e-10	-8.970819e+00	-4.952697e+01
1.580000e-06	-1.244946e-06	-6.335452e-10	-8.653593e+00	-4.861547e+01
1.590000e-06	-1.199205e-06	-6.205037e-10	-8.335648e+00	-4.768530e+01
1.600000e-06	-1.153384e-06	-6.068016e-10	-8.017151e+00	-4.673588e+01
1.610000e-06	-1.107468e-06	-5.933487e-10	-7.697991e+00	-4.576665e+01
1.620000e-06	-1.061441e-06	-5.777901e-10	-7.378056e+00	-4.477710e+01
1.630000e-06	-1.015369e-06	-5.601578e-10	-7.057809e+00	-4.376674e+01
1.640000e-06	-9.692184e-07	-5.430493e-10	-6.737018e+00	-4.273512e+01
1.650000e-06	-9.229579e-07	-5.272971e-10	-6.415462e+00	-4.168182e+01
1.660000e-06	-8.766548e-07	-5.124681e-10	-6.093610e+00	-4.060648e+01
1.670000e-06	-8.303273e-07	-4.972764e-10	-5.771589e+00	-3.950875e+01
1.680000e-06	-7.839731e-07	-4.818523e-10	-5.449382e+00	-3.838838e+01
1.690000e-06	-7.375450e-07	-4.646885e-10	-5.126661e+00	-3.724513e+01
1.700000e-06	-6.911032e-07	-4.469078e-10	-4.803845e+00	-3.607881e+01
1.710000e-06	-6.445588e-07	-4.267688e-10	-4.480316e+00	-3.488931e+01
1.720000e-06	-5.979027e-07	-4.050111e-10	-4.156010e+00	-3.367656e+01
1.730000e-06	-5.512259e-07	-3.843422e-10	-3.831560e+00	-3.244055e+01
1.740000e-06	-5.044667e-07	-3.659020e-10	-3.506539e+00	-3.118132e+01
1.750000e-06	-4.576906e-07	-3.461669e-10	-3.181398e+00	-2.989898e+01
1.760000e-06	-4.109283e-07	-3.276433e-10	-2.856354e+00	-2.859369e+01
1.770000e-06	-3.640818e-07	-3.107597e-10	-2.530726e+00	-2.726568e+01
1.780000e-06	-3.172265e-07	-2.939279e-10	-2.205035e+00	-2.591523e+01
1.790000e-06	-2.703439e-07	-2.745439e-10	-1.879155e+00	-2.454269e+01
1.800000e-06	-2.234069e-07	-2.559985e-10	-1.552897e+00	-2.314847e+01
1.810000e-06	-1.765310e-07	-2.361659e-10	-1.227063e+00	-2.173303e+01
1.820000e-06	-1.296156e-07	-2.141298e-10	-9.009553e-01	-2.029689e+01
1.830000e-06	-8.267290e-08	-1.926956e-10	-5.746577e-01	-1.884064e+01
1.840000e-06	-3.581469e-08	-1.718795e-10	-2.489472e-01	-1.736492e+01
1.850000e-06	1.102466e-08	-1.510492e-10	7.663218e-02	-1.587042e+01
1.860000e-06	5.800217e-08	-1.326192e-10	4.031720e-01	-1.435789e+01
1.870000e-06	1.049889e-07	-1.131788e-10	7.297759e-01	-1.282812e+01
1.880000e-06	1.518594e-07	-8.879626e-11	1.055572e+00	-1.128198e+01
1.890000e-06	1.987699e-07	-6.466259e-11	1.381646e+00	-9.720347e+00
1.900000e-06	2.456514e-07	-4.349288e-11	1.707518e+00	-8.144175e+00
1.910000e-06	2.924776e-07	-2.385507e-11	2.033006e+00	-6.554448e+00
1.920000e-06	3.393317e-07	-3.732062e-12	2.358688e+00	-4.952190e+00
1.930000e-06	3.861270e-07	1.823953e-11	2.683961e+00	-3.338463e+00
1.940000e-06	4.328393e-07	4.097436e-11	3.008657e+00	-1.714366e+00
1.950000e-06	4.795636e-07	6.462642e-11	3.333437e+00	-8.102513e-02
1.960000e-06	5.263289e-07	8.950831e-11	3.658502e+00	1.560403e+00
1.970000e-06	5.729351e-07	1.130071e-10	3.982461e+00	3.208738e+00
1.980000e-06	6.194527e-07	1.367346e-10	4.305803e+00	4.862778e+00
1.990000e-06	6.659597e-07	1.592294e-10	4.629073e+00	6.521303e+00
2.000000e-06	7.123498e-07	1.792420e-10	4.951529e+00	8.183080e+00
2.010000e-06	7.587711e-07	2.013330e-10	5.274203e+00	9.846863e+00
2.020000e-06	8.051979e-07	2.239895e-10	5.596915e+00	1.151140e+01
2.030000e-06	8.514740e-07	2.487209e-10	5.918579e+00	1.317544e+01
2.040000e-06	8.976107e-07	2.775010e-10	6.239275e+00	1.483772e+01
2.050000e-06	9.437403e-07	3.049179e-10	6.559921e+00	1.649699e+01
2.060000e-06	9.898906e-07	3.294882e-10	6.880710e+00	1.815201e+01
2.070000e-06	1.035914e-06	3.501596e-10	7.200618e+00	1.980154e+01
2.080000e-06	1.081742e-06	3.689193e-10	7.519170e+00	2.144436e+01
2.090000e-06	1.127485e-06	3.865206e-10	7.837126e+00	2.307928e+01
2.100000e-06	1.173253e-06	4.085843e-10	8.155261e+00	2.470510e+01
2.110000e-06	1.218947e-06	4.334592e-10	8.472879e+00	2.632068e+01
2.120000e-06	1.264509e-06	4.582226e-10	8.789575e+00	2.792489e+01
2.130000e-06	1.309980e-06	4.832114e-10	9.105645e+00	2.951662e+01
2.140000e-06	1.355392e-06	5.072789e-10	9.421301e+00	3.109482e+01
2.150000e-06	1.400787e-06	5.276487e-10	9.736840e+00	3.265845e+01
2.160000e-06	1.446062e-06	5.438888e-10	1.005155e+01	3.420653e+01
2.170000e-06	1.491202e-06	5.613111e-10	1.036532e+01	3.573812e+01
2.180000e-06	1.536262e-06	5.815141e-10	1.067853e+01	3.725230e+01
2.190000e-06	1.581234e-06	6.034791e-10	1.099113e+01	3.874823e+01
2.200000e-06	1.626002e-06	6.267389e-10	1.130231e+01	4.022509e+01
2.210000e-06	1.670608e-06	6.491256e-10	1.161237e+01	4.168214e+01
2.220000e-06	1.715134e-06	6.669984e-10	1.192186e+01	4.311866e+01
2.230000e-06	1.759512e-06	6.810133e-10	1.223033e+01	4.453401e+01
2.240000e-06	1.803680e-06	6.977045e-10	1.253734e+01	4.592760e+01
2.250000e-06	1.847655e-06	7.168296e-10	1.284301e+01	4.729888e+01
2.260000e-06	1.891526e-06	7.364397e-10	1.314796e+01	4.864736e+01
2.270000e-06	1.935342e-06	7.563681e-10	1.345252e+01	4.997264e+01
2.280000e-06	1.979109e-06	7.747645e-10	1.375675e+01	5.127433e+01
2.290000e-06	2.022810e-06	7.907826e-10	1.406051e+01	5.255213e+01
2.300000e-06	2.066477e-06	8.053140e-10	1.436404e+01	5.380578e+01
2.310000e-06	2.110083e-06	8.196888e-10	1.466714e+01	5.503509e+01
2.320000e-06	2.153631e-06	8.344485e-10	1.496984e+01	5.623993e+01
2.330000e-06	2.197131e-06	8.517870e-10	1.527222e+01	5.742021e+01
2.340000e-06	2.240581e-06	8.702877e-10	1.557424e+01	5.857590e+01
2.350000e-06	2.283851e-06	8.886415e-10	1.587501e+01	5.970703e+01
2.360000e-06	2.326902e-06	9.041973e-10	1.617425e+01	6.081368e+01
2.370000e-06	2.369801e-06	9.168288e-10	1.647244e+01	6.189597e+01
2.380000e-06	2.412458e-06	9.285674e-10	1.676895e+01	6.295409e+01
2.390000e-06	2.454717e-06	9.412615e-10	1.706269e+01	6.398825e+01
2.400000e-06	2.496593e-06	9.535480e-10	1.735377e+01	6.499873e+01
2.410000e-06	2.538156e-06	9.674624e-10	1.764267e+01	6.598583e+01
2.420000e-06	2.579433e-06	9.821301e-10	1.792959e+01	6.694991e+01
2.430000e-06	2.620464e-06	9.966519e-10	1.821480e+01	6.789134e+01
2.440000e-06	2.661265e-06	1.008868e-09	1.849840e+01	6.881054e+01
2.450000e-06	2.701692e-06	1.018798e-09	1.877941e+01	6.970797e+01
2.460000e-06	2.741823e-06	1.028862e-09	1.905836e+01	7.058409e+01
2.470000e-06	2.781817e-06	1.039456e-09	1.933635e+01	7.143942e+01
2.480000e-06	2.821659e-06	1.050402e-09	1.961329e+01	7.227446e+01
2.490000e-06	2.861406e-06	1.059697e-09	1.988958e+01	7.308976e+01
2.500000e-06	2.901065e-06	1.069318e-09	2.016525e+01	7.388588e+01
2.510000e-06	2.940624e-06	1.079791e-09	2.044022e+01	7.466337e+01
2.520000e-06	2.979960e-06	1.090251e-09	2.071365e+01	7.542281e+01
2.530000e-06	3.019058e-06	1.101645e-09	2.098541e+01	7.616478e+01
2.540000e-06	3.057978e-06	1.114216e-09	2.125595e+01	7.688987e+01
2.550000e-06	3.096785e-06	1.126783e-09	2.152569e+01	7.759864e+01
2.560000e-06	3.135363e-06	1.135685e-09	2.179385e+01	7.829167e+01
2.570000e-06	3.173671e-06	1.142307e-09	2.206012e+01	7.896954e+01
2.580000e-06	3.211729e-06	1.151734e-09	2.232467e+01	7.963280e+01
2.590000e-06	3.249575e-06	1.162946e-09	2.258773e+01	8.028199e+01
2.600000e-06	3.287212e-06	1.173283e-09	2.284934e+01	8.091766e+01
2.610000e-06	3.324639e-06	1.182581e-09	2.310950e+01	8.154032e+01
2.620000e-06	3.361967e-06	1.191960e-09	2.336897e+01	8.215047e+01
2.630000e-06	3.399082e-06	1.202881e-09	2.362695e+01	8.274858e+01
2.640000e-06	3.435854e-06	1.214018e-09	2.388256e+01	8.333511e+01
2.650000e-06	3.472277e-06	1.222936e-09	2.413573e+01	8.391049e+01
2.660000e-06	3.508466e-06	1.232523e-09	2.438728e+01	8.447514e+01
2.670000e-06	3.544475e-06	1.240927e-09	2.463758e+01	8.502943e+01
2.680000e-06	3.580351e-06	1.247391e-09	2.488695e+01	8.557373e+01
2.690000e-06	3.616117e-06	1.251702e-09	2.513556e+01	8.610836e+01
2.700000e-06	3.651726e-06	1.254820e-09	2.538307e+01	8.663363e+01
2.710000e-06	3.687112e-06	1.260699e-09	2.562904e+01	8.714981e+01
2.720000e-06	3.722271e-06	1.269555e-09	2.587343e+01	8.765716e+01
2.730000e-06	3.757168e-06	1.279580e-09	2.611600e+01	8.815591e+01
2.740000e-06	3.791738e-06	1.289748e-09	2.635629e+01	8.864625e+01
2.750000e-06	3.825933e-06	1.297758e-09	2.659399e+01	8.912836e+01
2.760000e-06	3.859626e-06	1.302975e-09	2.682818e+01	8.960238e+01
2.770000e-06	3.892867e-06	1.305779e-09	2.705924e+01	9.006846e+01
2.780000e-06	3.925661e-06	1.307146e-09	2.728719e+01	9.052669e+01
2.790000e-06	3.957982e-06	1.312309e-09	2.751185e+01	9.097717e+01
2.800000e-06	3.990014e-06	1.319619e-09	2.773451e+01	9.141996e+01
2.810000e-06	4.021875e-06	1.325831e-09	2.795597e+01	9.185511e+01
2.820000e-06	4.053591e-06	1.332224e-09	2.817643e+01	9.228267e+01
2.830000e-06	4.085106e-06	1.339254e-09	2.839549e+01	9.270266e+01
2.840000e-06	4.116411e-06	1.346884e-09	2.861309e+01	9.311508e+01
2.850000e-06	4.147560e-06	1.354605e-09	2.882961e+01	9.351995e+01
2.860000e-06	4.178437e-06	1.360108e-09	2.904424e+01	9.391726e+01
2.870000e-06	4.208972e-06	1.362387e-09	2.925649e+01	9.430699e+01
2.880000e-06	4.239238e-06	1.366230e-09	2.946686e+01	9.468914e+01
2.890000e-06	4.269258e-06	1.370263e-09	2.967553e+01	9.506368e+01
2.900000e-06	4.298938e-06	1.372241e-09	2.988183e+01	9.543059e+01
