# Temperatura_=_-3.1
# Concentracion g/m^3_=_1620.0
# C_Vs_to_Am_M_A/Vsm_=_65563218390.804596
# pendiente_HvsI_1/m_=_3716.3
# ordenada_HvsI_A/m_=_1297.0
# frecuencia_Hz_=_135097.97220756614

Tiempo_(s)	Campo_(V.s)	Magnetizacion_(V.s)	Campo_(kA/m)	Magnetizacion_(A/m)
0.000000e+00	-5.533368e-06	-1.000114e-09	-3.836134e+01	-6.603182e+01
1.000000e-08	-5.533580e-06	-9.977780e-10	-3.836281e+01	-6.598849e+01
2.000000e-08	-5.533415e-06	-9.971305e-10	-3.836166e+01	-6.594189e+01
3.000000e-08	-5.532808e-06	-9.975885e-10	-3.835746e+01	-6.589202e+01
4.000000e-08	-5.531693e-06	-9.970851e-10	-3.834972e+01	-6.583886e+01
5.000000e-08	-5.530037e-06	-9.951704e-10	-3.833825e+01	-6.578245e+01
6.000000e-08	-5.527722e-06	-9.852723e-10	-3.832220e+01	-6.572281e+01
7.000000e-08	-5.524740e-06	-9.793247e-10	-3.830152e+01	-6.566000e+01
8.000000e-08	-5.521355e-06	-1.005470e-09	-3.827806e+01	-6.559410e+01
9.000000e-08	-5.517661e-06	-1.047795e-09	-3.825244e+01	-6.552519e+01
1.000000e-07	-5.513424e-06	-1.029205e-09	-3.822307e+01	-6.545339e+01
1.100000e-07	-5.508800e-06	-9.603447e-10	-3.819102e+01	-6.537882e+01
1.200000e-07	-5.504126e-06	-9.486688e-10	-3.815861e+01	-6.530162e+01
1.300000e-07	-5.499211e-06	-1.010370e-09	-3.812454e+01	-6.522193e+01
1.400000e-07	-5.493899e-06	-1.017891e-09	-3.808771e+01	-6.513992e+01
1.500000e-07	-5.488163e-06	-9.702284e-10	-3.804795e+01	-6.505575e+01
1.600000e-07	-5.481975e-06	-9.553470e-10	-3.800504e+01	-6.496960e+01
1.700000e-07	-5.475468e-06	-1.006930e-09	-3.795993e+01	-6.488165e+01
1.800000e-07	-5.468584e-06	-1.006622e-09	-3.791221e+01	-6.479208e+01
1.900000e-07	-5.461299e-06	-9.589554e-10	-3.786170e+01	-6.470107e+01
2.000000e-07	-5.453764e-06	-9.326692e-10	-3.780946e+01	-6.460881e+01
2.100000e-07	-5.445956e-06	-9.616705e-10	-3.775534e+01	-6.451547e+01
2.200000e-07	-5.437853e-06	-9.712684e-10	-3.769916e+01	-6.442122e+01
2.300000e-07	-5.429543e-06	-9.498324e-10	-3.764155e+01	-6.432624e+01
2.400000e-07	-5.420753e-06	-9.282787e-10	-3.758061e+01	-6.423067e+01
2.500000e-07	-5.411115e-06	-9.265423e-10	-3.751379e+01	-6.413466e+01
2.600000e-07	-5.400755e-06	-9.353627e-10	-3.744197e+01	-6.403835e+01
2.700000e-07	-5.389865e-06	-9.315489e-10	-3.736647e+01	-6.394185e+01
2.800000e-07	-5.378553e-06	-9.228958e-10	-3.728804e+01	-6.384527e+01
2.900000e-07	-5.366893e-06	-9.167493e-10	-3.720721e+01	-6.374870e+01
3.000000e-07	-5.354894e-06	-9.332568e-10	-3.712403e+01	-6.365220e+01
3.100000e-07	-5.342476e-06	-9.265097e-10	-3.703794e+01	-6.355585e+01
3.200000e-07	-5.329526e-06	-9.151818e-10	-3.694816e+01	-6.345966e+01
3.300000e-07	-5.316214e-06	-9.171034e-10	-3.685587e+01	-6.336366e+01
3.400000e-07	-5.302656e-06	-9.362858e-10	-3.676188e+01	-6.326786e+01
3.500000e-07	-5.288619e-06	-9.199359e-10	-3.666456e+01	-6.317223e+01
3.600000e-07	-5.273939e-06	-9.185890e-10	-3.656279e+01	-6.307674e+01
3.700000e-07	-5.258673e-06	-9.274418e-10	-3.645695e+01	-6.298135e+01
3.800000e-07	-5.242916e-06	-9.196402e-10	-3.634771e+01	-6.288599e+01
3.900000e-07	-5.226733e-06	-8.984326e-10	-3.623552e+01	-6.279058e+01
4.000000e-07	-5.210256e-06	-9.241542e-10	-3.612129e+01	-6.269502e+01
4.100000e-07	-5.193443e-06	-9.312455e-10	-3.600473e+01	-6.259920e+01
4.200000e-07	-5.176252e-06	-8.979056e-10	-3.588555e+01	-6.250302e+01
4.300000e-07	-5.158828e-06	-9.004135e-10	-3.576475e+01	-6.240634e+01
4.400000e-07	-5.141136e-06	-9.354949e-10	-3.564210e+01	-6.230903e+01
4.500000e-07	-5.122945e-06	-9.110346e-10	-3.551599e+01	-6.221095e+01
4.600000e-07	-5.104165e-06	-8.861214e-10	-3.538579e+01	-6.211195e+01
4.700000e-07	-5.085010e-06	-9.162399e-10	-3.525299e+01	-6.201189e+01
4.800000e-07	-5.065713e-06	-9.156762e-10	-3.511921e+01	-6.191061e+01
4.900000e-07	-5.046218e-06	-8.832892e-10	-3.498406e+01	-6.180796e+01
5.000000e-07	-5.026416e-06	-8.987544e-10	-3.484678e+01	-6.170381e+01
5.100000e-07	-5.006377e-06	-9.132399e-10	-3.470785e+01	-6.159801e+01
5.200000e-07	-4.986067e-06	-8.784041e-10	-3.456705e+01	-6.149041e+01
5.300000e-07	-4.965351e-06	-8.866478e-10	-3.442343e+01	-6.138089e+01
5.400000e-07	-4.944279e-06	-9.212889e-10	-3.427734e+01	-6.126933e+01
5.500000e-07	-4.922848e-06	-8.990816e-10	-3.412877e+01	-6.115562e+01
5.600000e-07	-4.901087e-06	-8.775732e-10	-3.397790e+01	-6.103964e+01
5.700000e-07	-4.879082e-06	-9.041421e-10	-3.382535e+01	-6.092130e+01
5.800000e-07	-4.856722e-06	-8.956809e-10	-3.367034e+01	-6.080053e+01
5.900000e-07	-4.833895e-06	-8.717612e-10	-3.351208e+01	-6.067725e+01
6.000000e-07	-4.810727e-06	-8.921133e-10	-3.335146e+01	-6.055141e+01
6.100000e-07	-4.787335e-06	-9.069607e-10	-3.318929e+01	-6.042296e+01
6.200000e-07	-4.763682e-06	-8.831868e-10	-3.302532e+01	-6.029186e+01
6.300000e-07	-4.739811e-06	-8.904518e-10	-3.285982e+01	-6.015809e+01
6.400000e-07	-4.715619e-06	-9.019217e-10	-3.269211e+01	-6.002164e+01
6.500000e-07	-4.691039e-06	-8.825920e-10	-3.252170e+01	-5.988252e+01
6.600000e-07	-4.666081e-06	-8.729914e-10	-3.234867e+01	-5.974072e+01
6.700000e-07	-4.640624e-06	-8.852503e-10	-3.217219e+01	-5.959627e+01
6.800000e-07	-4.614611e-06	-8.742078e-10	-3.199185e+01	-5.944920e+01
6.900000e-07	-4.588056e-06	-8.655694e-10	-3.180775e+01	-5.929952e+01
7.000000e-07	-4.560995e-06	-8.806304e-10	-3.162014e+01	-5.914729e+01
7.100000e-07	-4.533580e-06	-8.785202e-10	-3.143008e+01	-5.899254e+01
7.200000e-07	-4.505972e-06	-8.623213e-10	-3.123868e+01	-5.883532e+01
7.300000e-07	-4.478231e-06	-8.662390e-10	-3.104636e+01	-5.867567e+01
7.400000e-07	-4.450277e-06	-8.651731e-10	-3.085256e+01	-5.851363e+01
7.500000e-07	-4.422083e-06	-8.524078e-10	-3.065710e+01	-5.834924e+01
7.600000e-07	-4.393627e-06	-8.542239e-10	-3.045983e+01	-5.818255e+01
7.700000e-07	-4.364819e-06	-8.598381e-10	-3.026010e+01	-5.801359e+01
7.800000e-07	-4.335635e-06	-8.483989e-10	-3.005778e+01	-5.784237e+01
7.900000e-07	-4.306080e-06	-8.440555e-10	-2.985289e+01	-5.766893e+01
8.000000e-07	-4.276314e-06	-8.480167e-10	-2.964652e+01	-5.749328e+01
8.100000e-07	-4.246301e-06	-8.344931e-10	-2.943845e+01	-5.731540e+01
8.200000e-07	-4.215937e-06	-8.217544e-10	-2.922795e+01	-5.713531e+01
8.300000e-07	-4.185286e-06	-8.257799e-10	-2.901545e+01	-5.695297e+01
8.400000e-07	-4.154383e-06	-8.250157e-10	-2.880121e+01	-5.676835e+01
8.500000e-07	-4.123191e-06	-8.154365e-10	-2.858497e+01	-5.658140e+01
8.600000e-07	-4.091770e-06	-8.178972e-10	-2.836713e+01	-5.639208e+01
8.700000e-07	-4.060198e-06	-8.190591e-10	-2.814825e+01	-5.620032e+01
8.800000e-07	-4.028468e-06	-8.108322e-10	-2.792828e+01	-5.600602e+01
8.900000e-07	-3.996597e-06	-8.060560e-10	-2.770732e+01	-5.580911e+01
9.000000e-07	-3.964476e-06	-8.050104e-10	-2.748464e+01	-5.560946e+01
9.100000e-07	-3.932006e-06	-7.934238e-10	-2.725953e+01	-5.540698e+01
9.200000e-07	-3.899051e-06	-7.851006e-10	-2.703106e+01	-5.520154e+01
9.300000e-07	-3.865567e-06	-7.873192e-10	-2.679893e+01	-5.499300e+01
9.400000e-07	-3.831600e-06	-7.869969e-10	-2.656344e+01	-5.478122e+01
9.500000e-07	-3.797110e-06	-7.821239e-10	-2.632433e+01	-5.456606e+01
9.600000e-07	-3.762203e-06	-7.843981e-10	-2.608233e+01	-5.434737e+01
9.700000e-07	-3.727082e-06	-7.832930e-10	-2.583885e+01	-5.412500e+01
9.800000e-07	-3.691791e-06	-7.735559e-10	-2.559419e+01	-5.389878e+01
9.900000e-07	-3.656293e-06	-7.662424e-10	-2.534808e+01	-5.366857e+01
1.000000e-06	-3.620633e-06	-7.647563e-10	-2.510087e+01	-5.343421e+01
1.010000e-06	-3.584892e-06	-7.608673e-10	-2.485308e+01	-5.319556e+01
1.020000e-06	-3.549019e-06	-7.595031e-10	-2.460438e+01	-5.295247e+01
1.030000e-06	-3.512900e-06	-7.619404e-10	-2.435398e+01	-5.270480e+01
1.040000e-06	-3.476472e-06	-7.596856e-10	-2.410144e+01	-5.245243e+01
1.050000e-06	-3.439784e-06	-7.532329e-10	-2.384709e+01	-5.219524e+01
1.060000e-06	-3.402887e-06	-7.492582e-10	-2.359129e+01	-5.193312e+01
1.070000e-06	-3.365760e-06	-7.433918e-10	-2.333390e+01	-5.166597e+01
1.080000e-06	-3.328404e-06	-7.356330e-10	-2.307492e+01	-5.139373e+01
1.090000e-06	-3.290757e-06	-7.331439e-10	-2.281392e+01	-5.111632e+01
1.100000e-06	-3.252804e-06	-7.313548e-10	-2.255081e+01	-5.083368e+01
1.110000e-06	-3.214662e-06	-7.242420e-10	-2.228638e+01	-5.054579e+01
1.120000e-06	-3.176324e-06	-7.181047e-10	-2.202059e+01	-5.025263e+01
1.130000e-06	-3.137717e-06	-7.171978e-10	-2.175294e+01	-4.995419e+01
1.140000e-06	-3.098838e-06	-7.132710e-10	-2.148340e+01	-4.965048e+01
1.150000e-06	-3.059725e-06	-7.087411e-10	-2.121224e+01	-4.934153e+01
1.160000e-06	-3.020533e-06	-7.070122e-10	-2.094054e+01	-4.902738e+01
1.170000e-06	-2.981219e-06	-7.037875e-10	-2.066798e+01	-4.870808e+01
1.180000e-06	-2.941751e-06	-6.977679e-10	-2.039436e+01	-4.838371e+01
1.190000e-06	-2.902185e-06	-6.934660e-10	-2.012006e+01	-4.805435e+01
1.200000e-06	-2.862399e-06	-6.898284e-10	-1.984424e+01	-4.772007e+01
1.210000e-06	-2.822429e-06	-6.837801e-10	-1.956713e+01	-4.738097e+01
1.220000e-06	-2.782360e-06	-6.775251e-10	-1.928935e+01	-4.703716e+01
1.230000e-06	-2.742221e-06	-6.740776e-10	-1.901107e+01	-4.668874e+01
1.240000e-06	-2.701891e-06	-6.688074e-10	-1.873147e+01	-4.633581e+01
1.250000e-06	-2.661180e-06	-6.637716e-10	-1.844924e+01	-4.597847e+01
1.260000e-06	-2.620147e-06	-6.608208e-10	-1.816477e+01	-4.561684e+01
1.270000e-06	-2.578788e-06	-6.562772e-10	-1.787804e+01	-4.525099e+01
1.280000e-06	-2.537120e-06	-6.505363e-10	-1.758916e+01	-4.488102e+01
1.290000e-06	-2.495139e-06	-6.459598e-10	-1.729812e+01	-4.450700e+01
1.300000e-06	-2.452866e-06	-6.396933e-10	-1.700506e+01	-4.412898e+01
1.310000e-06	-2.410332e-06	-6.313959e-10	-1.671018e+01	-4.374701e+01
1.320000e-06	-2.367451e-06	-6.232612e-10	-1.641289e+01	-4.336111e+01
1.330000e-06	-2.324400e-06	-6.173654e-10	-1.611443e+01	-4.297128e+01
1.340000e-06	-2.281291e-06	-6.129452e-10	-1.581557e+01	-4.257750e+01
1.350000e-06	-2.238001e-06	-6.094125e-10	-1.551545e+01	-4.217972e+01
1.360000e-06	-2.194492e-06	-6.064038e-10	-1.521381e+01	-4.177787e+01
1.370000e-06	-2.150884e-06	-6.011385e-10	-1.491149e+01	-4.137183e+01
1.380000e-06	-2.107219e-06	-5.926861e-10	-1.460877e+01	-4.096147e+01
1.390000e-06	-2.063503e-06	-5.826307e-10	-1.430570e+01	-4.054663e+01
1.400000e-06	-2.019757e-06	-5.721570e-10	-1.400243e+01	-4.012711e+01
1.410000e-06	-1.975859e-06	-5.628841e-10	-1.369809e+01	-3.970268e+01
1.420000e-06	-1.931784e-06	-5.568117e-10	-1.339253e+01	-3.927307e+01
1.430000e-06	-1.887570e-06	-5.531722e-10	-1.308601e+01	-3.883798e+01
1.440000e-06	-1.843271e-06	-5.494510e-10	-1.277890e+01	-3.839708e+01
1.450000e-06	-1.798946e-06	-5.441650e-10	-1.247161e+01	-3.795002e+01
1.460000e-06	-1.754463e-06	-5.370401e-10	-1.216322e+01	-3.749641e+01
1.470000e-06	-1.709782e-06	-5.289641e-10	-1.185345e+01	-3.703583e+01
1.480000e-06	-1.664938e-06	-5.204255e-10	-1.154256e+01	-3.656783e+01
1.490000e-06	-1.619952e-06	-5.104926e-10	-1.123069e+01	-3.609194e+01
1.500000e-06	-1.574861e-06	-5.018438e-10	-1.091809e+01	-3.560768e+01
1.510000e-06	-1.529658e-06	-4.948016e-10	-1.060470e+01	-3.511454e+01
1.520000e-06	-1.484326e-06	-4.883266e-10	-1.029043e+01	-3.461199e+01
1.530000e-06	-1.438832e-06	-4.823639e-10	-9.975035e+00	-3.409950e+01
1.540000e-06	-1.393312e-06	-4.770272e-10	-9.659455e+00	-3.357652e+01
1.550000e-06	-1.347796e-06	-4.713634e-10	-9.343900e+00	-3.304250e+01
1.560000e-06	-1.302150e-06	-4.630290e-10	-9.027452e+00	-3.249689e+01
1.570000e-06	-1.256427e-06	-4.525020e-10	-8.710469e+00	-3.193913e+01
1.580000e-06	-1.210666e-06	-4.406192e-10	-8.393221e+00	-3.136870e+01
1.590000e-06	-1.164817e-06	-4.286950e-10	-8.075359e+00	-3.078506e+01
1.600000e-06	-1.118810e-06	-4.186052e-10	-7.756407e+00	-3.018769e+01
1.610000e-06	-1.072699e-06	-4.082677e-10	-7.436731e+00	-2.957609e+01
1.620000e-06	-1.026570e-06	-3.987097e-10	-7.116929e+00	-2.894980e+01
1.630000e-06	-9.803964e-07	-3.906485e-10	-6.796822e+00	-2.830837e+01
1.640000e-06	-9.341245e-07	-3.823802e-10	-6.476031e+00	-2.765138e+01
1.650000e-06	-8.877238e-07	-3.706987e-10	-6.154348e+00	-2.697846e+01
1.660000e-06	-8.412316e-07	-3.567365e-10	-5.832030e+00	-2.628927e+01
1.670000e-06	-7.947225e-07	-3.431040e-10	-5.509595e+00	-2.558350e+01
1.680000e-06	-7.481482e-07	-3.291367e-10	-5.186708e+00	-2.486090e+01
1.690000e-06	-7.015175e-07	-3.165445e-10	-4.863430e+00	-2.412127e+01
1.700000e-06	-6.549110e-07	-3.059597e-10	-4.540320e+00	-2.336445e+01
1.710000e-06	-6.082777e-07	-2.948072e-10	-4.217024e+00	-2.259033e+01
1.720000e-06	-5.615951e-07	-2.816581e-10	-3.893386e+00	-2.179886e+01
1.730000e-06	-5.148771e-07	-2.692240e-10	-3.569503e+00	-2.099005e+01
1.740000e-06	-4.680804e-07	-2.587617e-10	-3.245075e+00	-2.016396e+01
1.750000e-06	-4.212231e-07	-2.490968e-10	-2.920225e+00	-1.932070e+01
1.760000e-06	-3.743465e-07	-2.390761e-10	-2.595243e+00	-1.846045e+01
1.770000e-06	-3.274646e-07	-2.265247e-10	-2.270223e+00	-1.758343e+01
1.780000e-06	-2.805762e-07	-2.108392e-10	-1.945158e+00	-1.668994e+01
1.790000e-06	-2.336700e-07	-1.945957e-10	-1.619970e+00	-1.578031e+01
1.800000e-06	-1.866807e-07	-1.807440e-10	-1.294207e+00	-1.485494e+01
1.810000e-06	-1.396562e-07	-1.679134e-10	-9.681985e-01	-1.391428e+01
1.820000e-06	-9.266891e-08	-1.555680e-10	-6.424484e-01	-1.295883e+01
1.830000e-06	-4.562986e-08	-1.426721e-10	-3.163394e-01	-1.198913e+01
1.840000e-06	1.341339e-09	-1.303457e-10	9.299139e-03	-1.100578e+01
1.850000e-06	4.818367e-08	-1.177522e-10	3.340443e-01	-1.000941e+01
1.860000e-06	9.506165e-08	-1.036436e-10	6.590366e-01	-9.000699e+00
1.870000e-06	1.419530e-07	-8.729433e-11	9.841213e-01	-7.980354e+00
1.880000e-06	1.888144e-07	-7.019627e-11	1.308999e+00	-6.949122e+00
1.890000e-06	2.356923e-07	-5.723541e-11	1.633991e+00	-5.907777e+00
1.900000e-06	2.825322e-07	-4.589575e-11	1.958719e+00	-4.857118e+00
1.910000e-06	3.293410e-07	-3.533996e-11	2.283232e+00	-3.797967e+00
1.920000e-06	3.761428e-07	-2.259663e-11	2.607696e+00	-2.731164e+00
1.930000e-06	4.229965e-07	-6.776233e-12	2.932520e+00	-1.657562e+00
1.940000e-06	4.698038e-07	1.037764e-11	3.257022e+00	-5.780248e-01
1.950000e-06	5.165115e-07	2.794909e-11	3.580834e+00	5.065760e-01
1.960000e-06	5.632292e-07	4.390874e-11	3.904715e+00	1.595367e+00
1.970000e-06	6.099089e-07	5.778917e-11	4.228333e+00	2.687476e+00
1.980000e-06	6.565656e-07	7.075964e-11	4.551791e+00	3.782033e+00
1.990000e-06	7.032584e-07	8.324518e-11	4.875499e+00	4.878179e+00
2.000000e-06	7.498729e-07	9.902951e-11	5.198665e+00	5.975062e+00
2.010000e-06	7.964114e-07	1.144764e-10	5.521304e+00	7.071845e+00
2.020000e-06	8.428809e-07	1.304610e-10	5.843464e+00	8.167708e+00
2.030000e-06	8.892029e-07	1.491463e-10	6.164602e+00	9.261849e+00
2.040000e-06	9.354632e-07	1.681778e-10	6.485312e+00	1.035349e+01
2.050000e-06	9.816822e-07	1.857264e-10	6.805736e+00	1.144186e+01
2.060000e-06	1.027753e-06	2.008951e-10	7.125131e+00	1.252625e+01
2.070000e-06	1.073735e-06	2.144246e-10	7.443911e+00	1.360592e+01
2.080000e-06	1.119690e-06	2.264722e-10	7.762508e+00	1.468022e+01
2.090000e-06	1.165534e-06	2.425393e-10	8.080328e+00	1.574848e+01
2.100000e-06	1.211264e-06	2.611396e-10	8.397368e+00	1.681008e+01
2.110000e-06	1.256931e-06	2.781541e-10	8.713960e+00	1.786443e+01
2.120000e-06	1.302582e-06	2.929722e-10	9.030449e+00	1.891096e+01
2.130000e-06	1.348119e-06	3.075891e-10	9.346145e+00	1.994913e+01
2.140000e-06	1.393483e-06	3.211553e-10	9.660642e+00	2.097844e+01
2.150000e-06	1.438730e-06	3.338307e-10	9.974326e+00	2.199841e+01
2.160000e-06	1.483944e-06	3.472897e-10	1.028778e+01	2.300858e+01
2.170000e-06	1.529141e-06	3.612262e-10	1.060112e+01	2.400853e+01
2.180000e-06	1.574216e-06	3.751423e-10	1.091362e+01	2.499787e+01
2.190000e-06	1.619159e-06	3.897115e-10	1.122519e+01	2.597622e+01
2.200000e-06	1.663991e-06	4.045951e-10	1.153600e+01	2.694322e+01
2.210000e-06	1.708645e-06	4.181879e-10	1.184557e+01	2.789857e+01
2.220000e-06	1.753159e-06	4.303209e-10	1.215418e+01	2.884194e+01
2.230000e-06	1.797573e-06	4.423381e-10	1.246208e+01	2.977306e+01
2.240000e-06	1.841849e-06	4.534640e-10	1.276904e+01	3.069165e+01
2.250000e-06	1.885960e-06	4.647983e-10	1.307485e+01	3.159749e+01
2.260000e-06	1.929889e-06	4.773545e-10	1.337940e+01	3.249032e+01
2.270000e-06	1.973768e-06	4.892589e-10	1.368360e+01	3.336994e+01
2.280000e-06	2.017585e-06	5.017169e-10	1.398737e+01	3.423616e+01
2.290000e-06	2.061288e-06	5.156121e-10	1.429035e+01	3.508878e+01
2.300000e-06	2.104926e-06	5.282967e-10	1.459288e+01	3.592763e+01
2.310000e-06	2.148525e-06	5.389269e-10	1.489514e+01	3.675256e+01
2.320000e-06	2.192130e-06	5.504311e-10	1.519744e+01	3.756341e+01
2.330000e-06	2.235606e-06	5.628349e-10	1.549885e+01	3.836005e+01
2.340000e-06	2.278871e-06	5.730610e-10	1.579879e+01	3.914237e+01
2.350000e-06	2.322058e-06	5.822743e-10	1.609820e+01	3.991023e+01
2.360000e-06	2.365168e-06	5.929258e-10	1.639707e+01	4.066355e+01
2.370000e-06	2.408085e-06	6.032414e-10	1.669460e+01	4.140223e+01
2.380000e-06	2.450622e-06	6.134549e-10	1.698950e+01	4.212620e+01
2.390000e-06	2.492720e-06	6.246486e-10	1.728135e+01	4.283538e+01
2.400000e-06	2.534537e-06	6.356557e-10	1.757126e+01	4.352973e+01
2.410000e-06	2.576127e-06	6.455731e-10	1.785959e+01	4.420920e+01
2.420000e-06	2.617422e-06	6.553927e-10	1.814587e+01	4.487377e+01
2.430000e-06	2.658471e-06	6.645431e-10	1.843046e+01	4.552342e+01
2.440000e-06	2.699218e-06	6.707220e-10	1.871295e+01	4.615815e+01
2.450000e-06	2.739616e-06	6.766629e-10	1.899301e+01	4.677798e+01
2.460000e-06	2.779736e-06	6.846629e-10	1.927115e+01	4.738295e+01
2.470000e-06	2.819628e-06	6.924497e-10	1.954772e+01	4.797309e+01
2.480000e-06	2.859393e-06	6.997500e-10	1.982340e+01	4.854849e+01
2.490000e-06	2.899045e-06	7.077478e-10	2.009829e+01	4.910923e+01
2.500000e-06	2.938607e-06	7.171898e-10	2.037257e+01	4.965540e+01
2.510000e-06	2.978101e-06	7.270564e-10	2.064637e+01	5.018715e+01
2.520000e-06	3.017458e-06	7.351508e-10	2.091922e+01	5.070460e+01
2.530000e-06	3.056611e-06	7.414098e-10	2.119065e+01	5.120792e+01
2.540000e-06	3.095547e-06	7.475041e-10	2.146059e+01	5.169730e+01
2.550000e-06	3.134272e-06	7.522846e-10	2.172906e+01	5.217294e+01
2.560000e-06	3.172768e-06	7.550028e-10	2.199594e+01	5.263506e+01
2.570000e-06	3.210957e-06	7.589778e-10	2.226069e+01	5.308390e+01
2.580000e-06	3.248912e-06	7.646600e-10	2.252382e+01	5.351973e+01
2.590000e-06	3.286708e-06	7.713030e-10	2.278586e+01	5.394282e+01
2.600000e-06	3.324280e-06	7.800548e-10	2.304633e+01	5.435347e+01
2.610000e-06	3.361680e-06	7.882242e-10	2.330562e+01	5.475198e+01
2.620000e-06	3.398876e-06	7.942915e-10	2.356348e+01	5.513870e+01
2.630000e-06	3.435818e-06	7.969918e-10	2.381960e+01	5.551396e+01
2.640000e-06	3.472510e-06	7.968604e-10	2.407397e+01	5.587811e+01
2.650000e-06	3.508871e-06	7.986820e-10	2.432605e+01	5.623151e+01
2.660000e-06	3.544914e-06	8.033536e-10	2.457593e+01	5.657453e+01
2.670000e-06	3.580804e-06	8.099841e-10	2.482474e+01	5.690756e+01
2.680000e-06	3.616603e-06	8.164053e-10	2.507293e+01	5.723097e+01
2.690000e-06	3.652246e-06	8.198638e-10	2.532003e+01	5.754516e+01
2.700000e-06	3.687751e-06	8.227121e-10	2.556617e+01	5.785050e+01
2.710000e-06	3.723181e-06	8.261369e-10	2.581180e+01	5.814738e+01
2.720000e-06	3.758386e-06	8.294070e-10	2.605587e+01	5.843619e+01
2.730000e-06	3.793298e-06	8.333052e-10	2.629790e+01	5.871728e+01
2.740000e-06	3.827873e-06	8.372256e-10	2.653760e+01	5.899104e+01
2.750000e-06	3.861920e-06	8.403772e-10	2.677364e+01	5.925781e+01
2.760000e-06	3.895399e-06	8.438967e-10	2.700574e+01	5.951794e+01
2.770000e-06	3.928352e-06	8.465596e-10	2.723419e+01	5.977176e+01
2.780000e-06	3.960819e-06	8.491039e-10	2.745928e+01	6.001957e+01
2.790000e-06	3.992923e-06	8.533419e-10	2.768185e+01	6.026168e+01
2.800000e-06	4.024838e-06	8.571582e-10	2.790311e+01	6.049836e+01
2.810000e-06	4.056585e-06	8.601445e-10	2.812320e+01	6.072985e+01
2.820000e-06	4.088223e-06	8.630906e-10	2.834254e+01	6.095640e+01
2.830000e-06	4.119769e-06	8.670012e-10	2.856124e+01	6.117821e+01
2.840000e-06	4.151138e-06	8.698282e-10	2.877871e+01	6.139547e+01
2.850000e-06	4.182197e-06	8.722743e-10	2.899403e+01	6.160834e+01
2.860000e-06	4.212821e-06	8.755477e-10	2.920635e+01	6.181696e+01
2.870000e-06	4.243048e-06	8.790825e-10	2.941590e+01	6.202144e+01
2.880000e-06	4.272957e-06	8.811654e-10	2.962325e+01	6.222187e+01
2.890000e-06	4.302668e-06	8.824721e-10	2.982923e+01	6.241832e+01
2.900000e-06	4.332181e-06	8.846192e-10	3.003383e+01	6.261082e+01
