# Temperatura_=_-0.4
# Concentracion g/m^3_=_1620.0
# C_Vs_to_Am_M_A/Vsm_=_65563218390.804596
# pendiente_HvsI_1/m_=_3716.3
# ordenada_HvsI_A/m_=_1297.0
# frecuencia_Hz_=_135091.8530626249

Tiempo_(s)	Campo_(V.s)	Magnetizacion_(V.s)	Campo_(kA/m)	Magnetizacion_(A/m)
0.000000e+00	-5.527668e-06	-1.542892e-09	-3.838303e+01	-1.007821e+02
1.000000e-08	-5.527861e-06	-1.541532e-09	-3.838437e+01	-1.007250e+02
2.000000e-08	-5.527795e-06	-1.539273e-09	-3.838391e+01	-1.006640e+02
3.000000e-08	-5.527362e-06	-1.539012e-09	-3.838091e+01	-1.005992e+02
4.000000e-08	-5.526434e-06	-1.539333e-09	-3.837446e+01	-1.005309e+02
5.000000e-08	-5.524968e-06	-1.535912e-09	-3.836428e+01	-1.004594e+02
6.000000e-08	-5.522855e-06	-1.528239e-09	-3.834961e+01	-1.003849e+02
7.000000e-08	-5.520183e-06	-1.527657e-09	-3.833106e+01	-1.003075e+02
8.000000e-08	-5.517113e-06	-1.568128e-09	-3.830974e+01	-1.002276e+02
9.000000e-08	-5.513577e-06	-1.590435e-09	-3.828518e+01	-1.001454e+02
1.000000e-07	-5.509550e-06	-1.518995e-09	-3.825722e+01	-1.000610e+02
1.100000e-07	-5.505199e-06	-1.461478e-09	-3.822701e+01	-9.997485e+01
1.200000e-07	-5.500738e-06	-1.519576e-09	-3.819604e+01	-9.988699e+01
1.300000e-07	-5.495958e-06	-1.601311e-09	-3.816284e+01	-9.979766e+01
1.400000e-07	-5.490645e-06	-1.550726e-09	-3.812595e+01	-9.970707e+01
1.500000e-07	-5.485022e-06	-1.462595e-09	-3.808691e+01	-9.961537e+01
1.600000e-07	-5.479182e-06	-1.534830e-09	-3.804635e+01	-9.952272e+01
1.700000e-07	-5.472818e-06	-1.589005e-09	-3.800217e+01	-9.942926e+01
1.800000e-07	-5.465960e-06	-1.545407e-09	-3.795454e+01	-9.933509e+01
1.900000e-07	-5.458789e-06	-1.426229e-09	-3.790475e+01	-9.924031e+01
2.000000e-07	-5.451397e-06	-1.468959e-09	-3.785342e+01	-9.914498e+01
2.100000e-07	-5.443724e-06	-1.519495e-09	-3.780014e+01	-9.904915e+01
2.200000e-07	-5.435709e-06	-1.520078e-09	-3.774448e+01	-9.895283e+01
2.300000e-07	-5.427439e-06	-1.452804e-09	-3.768706e+01	-9.885602e+01
2.400000e-07	-5.418818e-06	-1.458970e-09	-3.762720e+01	-9.875868e+01
2.500000e-07	-5.409362e-06	-1.471076e-09	-3.756153e+01	-9.866076e+01
2.600000e-07	-5.399065e-06	-1.464795e-09	-3.749004e+01	-9.856218e+01
2.700000e-07	-5.388393e-06	-1.456687e-09	-3.741593e+01	-9.846283e+01
2.800000e-07	-5.377254e-06	-1.464165e-09	-3.733858e+01	-9.836258e+01
2.900000e-07	-5.365637e-06	-1.471087e-09	-3.725792e+01	-9.826128e+01
3.000000e-07	-5.353601e-06	-1.465525e-09	-3.717434e+01	-9.815876e+01
3.100000e-07	-5.341235e-06	-1.480456e-09	-3.708848e+01	-9.805482e+01
3.200000e-07	-5.328421e-06	-1.453450e-09	-3.699950e+01	-9.794927e+01
3.300000e-07	-5.315112e-06	-1.470868e-09	-3.690708e+01	-9.784187e+01
3.400000e-07	-5.301520e-06	-1.465369e-09	-3.681270e+01	-9.773240e+01
3.500000e-07	-5.287574e-06	-1.460346e-09	-3.671586e+01	-9.762059e+01
3.600000e-07	-5.273190e-06	-1.434825e-09	-3.661598e+01	-9.750621e+01
3.700000e-07	-5.258316e-06	-1.469349e-09	-3.651270e+01	-9.738898e+01
3.800000e-07	-5.242809e-06	-1.446599e-09	-3.640503e+01	-9.726865e+01
3.900000e-07	-5.226711e-06	-1.439024e-09	-3.629325e+01	-9.714494e+01
4.000000e-07	-5.210277e-06	-1.457029e-09	-3.617913e+01	-9.701758e+01
4.100000e-07	-5.193534e-06	-1.463643e-09	-3.606287e+01	-9.688633e+01
4.200000e-07	-5.176443e-06	-1.404782e-09	-3.594419e+01	-9.675092e+01
4.300000e-07	-5.159151e-06	-1.435172e-09	-3.582412e+01	-9.661111e+01
4.400000e-07	-5.141525e-06	-1.468962e-09	-3.570173e+01	-9.646666e+01
4.500000e-07	-5.123427e-06	-1.422149e-09	-3.557606e+01	-9.631735e+01
4.600000e-07	-5.104865e-06	-1.389300e-09	-3.544717e+01	-9.616297e+01
4.700000e-07	-5.085859e-06	-1.451954e-09	-3.531519e+01	-9.600335e+01
4.800000e-07	-5.066583e-06	-1.431794e-09	-3.518135e+01	-9.583829e+01
4.900000e-07	-5.047081e-06	-1.382605e-09	-3.504593e+01	-9.566767e+01
5.000000e-07	-5.027435e-06	-1.417824e-09	-3.490951e+01	-9.549134e+01
5.100000e-07	-5.007642e-06	-1.434921e-09	-3.477207e+01	-9.530920e+01
5.200000e-07	-4.987458e-06	-1.376078e-09	-3.463192e+01	-9.512116e+01
5.300000e-07	-4.966811e-06	-1.396780e-09	-3.448855e+01	-9.492717e+01
5.400000e-07	-4.945799e-06	-1.436994e-09	-3.434265e+01	-9.472720e+01
5.500000e-07	-4.924451e-06	-1.380265e-09	-3.419441e+01	-9.452122e+01
5.600000e-07	-4.902721e-06	-1.361695e-09	-3.404353e+01	-9.430924e+01
5.700000e-07	-4.880690e-06	-1.413402e-09	-3.389054e+01	-9.409131e+01
5.800000e-07	-4.858283e-06	-1.393178e-09	-3.373495e+01	-9.386748e+01
5.900000e-07	-4.835403e-06	-1.351437e-09	-3.357608e+01	-9.363782e+01
6.000000e-07	-4.812262e-06	-1.394362e-09	-3.341540e+01	-9.340243e+01
6.100000e-07	-4.788868e-06	-1.401347e-09	-3.325295e+01	-9.316142e+01
6.200000e-07	-4.765268e-06	-1.367541e-09	-3.308908e+01	-9.291492e+01
6.300000e-07	-4.741552e-06	-1.375854e-09	-3.292440e+01	-9.266308e+01
6.400000e-07	-4.717570e-06	-1.391733e-09	-3.275787e+01	-9.240606e+01
6.500000e-07	-4.693121e-06	-1.357998e-09	-3.258810e+01	-9.214402e+01
6.600000e-07	-4.668212e-06	-1.360809e-09	-3.241514e+01	-9.187713e+01
6.700000e-07	-4.642806e-06	-1.368449e-09	-3.223873e+01	-9.160558e+01
6.800000e-07	-4.616763e-06	-1.353366e-09	-3.205788e+01	-9.132955e+01
6.900000e-07	-4.590115e-06	-1.341974e-09	-3.187285e+01	-9.104922e+01
7.000000e-07	-4.563050e-06	-1.358587e-09	-3.168491e+01	-9.076478e+01
7.100000e-07	-4.535698e-06	-1.345662e-09	-3.149499e+01	-9.047640e+01
7.200000e-07	-4.508134e-06	-1.337838e-09	-3.130359e+01	-9.018426e+01
7.300000e-07	-4.480485e-06	-1.336645e-09	-3.111160e+01	-8.988852e+01
7.400000e-07	-4.452687e-06	-1.330849e-09	-3.091857e+01	-8.958932e+01
7.500000e-07	-4.424689e-06	-1.316178e-09	-3.072416e+01	-8.928681e+01
7.600000e-07	-4.396367e-06	-1.317883e-09	-3.052750e+01	-8.898112e+01
7.700000e-07	-4.367667e-06	-1.309411e-09	-3.032822e+01	-8.867234e+01
7.800000e-07	-4.338664e-06	-1.303062e-09	-3.012682e+01	-8.836057e+01
7.900000e-07	-4.309301e-06	-1.302083e-09	-2.992293e+01	-8.804587e+01
8.000000e-07	-4.279602e-06	-1.296845e-09	-2.971671e+01	-8.772830e+01
8.100000e-07	-4.249677e-06	-1.280747e-09	-2.950891e+01	-8.740788e+01
8.200000e-07	-4.219466e-06	-1.273544e-09	-2.929913e+01	-8.708461e+01
8.300000e-07	-4.188916e-06	-1.269151e-09	-2.908700e+01	-8.675849e+01
8.400000e-07	-4.157946e-06	-1.257837e-09	-2.887195e+01	-8.642947e+01
8.500000e-07	-4.126740e-06	-1.250208e-09	-2.865526e+01	-8.609750e+01
8.600000e-07	-4.095471e-06	-1.249962e-09	-2.843814e+01	-8.576249e+01
8.700000e-07	-4.063983e-06	-1.246328e-09	-2.821949e+01	-8.542434e+01
8.800000e-07	-4.032341e-06	-1.236661e-09	-2.799978e+01	-8.508293e+01
8.900000e-07	-4.000553e-06	-1.235465e-09	-2.777905e+01	-8.473812e+01
9.000000e-07	-3.968458e-06	-1.225471e-09	-2.755619e+01	-8.438976e+01
9.100000e-07	-3.935954e-06	-1.211501e-09	-2.733049e+01	-8.403767e+01
9.200000e-07	-3.903055e-06	-1.203583e-09	-2.710204e+01	-8.368167e+01
9.300000e-07	-3.869811e-06	-1.205143e-09	-2.687120e+01	-8.332156e+01
9.400000e-07	-3.836150e-06	-1.195955e-09	-2.663747e+01	-8.295714e+01
9.500000e-07	-3.801944e-06	-1.190565e-09	-2.639995e+01	-8.258820e+01
9.600000e-07	-3.767322e-06	-1.188763e-09	-2.615954e+01	-8.221452e+01
9.700000e-07	-3.732389e-06	-1.182989e-09	-2.591697e+01	-8.183589e+01
9.800000e-07	-3.697126e-06	-1.168666e-09	-2.567211e+01	-8.145208e+01
9.900000e-07	-3.661637e-06	-1.165472e-09	-2.542568e+01	-8.106289e+01
1.000000e-06	-3.626047e-06	-1.160364e-09	-2.517855e+01	-8.066810e+01
1.010000e-06	-3.590385e-06	-1.154306e-09	-2.493092e+01	-8.026751e+01
1.020000e-06	-3.554558e-06	-1.150427e-09	-2.468214e+01	-7.986094e+01
1.030000e-06	-3.518487e-06	-1.150941e-09	-2.443168e+01	-7.944820e+01
1.040000e-06	-3.482176e-06	-1.143493e-09	-2.417954e+01	-7.902912e+01
1.050000e-06	-3.445563e-06	-1.135815e-09	-2.392531e+01	-7.860356e+01
1.060000e-06	-3.408753e-06	-1.127044e-09	-2.366970e+01	-7.817138e+01
1.070000e-06	-3.371783e-06	-1.117112e-09	-2.341300e+01	-7.773248e+01
1.080000e-06	-3.334457e-06	-1.105783e-09	-2.315381e+01	-7.728674e+01
1.090000e-06	-3.296877e-06	-1.100221e-09	-2.289286e+01	-7.683411e+01
1.100000e-06	-3.259082e-06	-1.094220e-09	-2.263042e+01	-7.637452e+01
1.110000e-06	-3.221042e-06	-1.088419e-09	-2.236628e+01	-7.590795e+01
1.120000e-06	-3.182717e-06	-1.082634e-09	-2.210016e+01	-7.543438e+01
1.130000e-06	-3.144193e-06	-1.075985e-09	-2.183265e+01	-7.495384e+01
1.140000e-06	-3.105492e-06	-1.067373e-09	-2.156392e+01	-7.446634e+01
1.150000e-06	-3.066613e-06	-1.055900e-09	-2.129395e+01	-7.397195e+01
1.160000e-06	-3.027579e-06	-1.049265e-09	-2.102291e+01	-7.347072e+01
1.170000e-06	-2.988296e-06	-1.041926e-09	-2.075013e+01	-7.296275e+01
1.180000e-06	-2.948835e-06	-1.034251e-09	-2.047613e+01	-7.244815e+01
1.190000e-06	-2.909209e-06	-1.025652e-09	-2.020097e+01	-7.192701e+01
1.200000e-06	-2.869454e-06	-1.018787e-09	-1.992492e+01	-7.139948e+01
1.210000e-06	-2.829551e-06	-1.010675e-09	-1.964784e+01	-7.086568e+01
1.220000e-06	-2.789503e-06	-1.004161e-09	-1.936976e+01	-7.032576e+01
1.230000e-06	-2.749402e-06	-9.966823e-10	-1.909130e+01	-6.977985e+01
1.240000e-06	-2.709145e-06	-9.884379e-10	-1.881177e+01	-6.922810e+01
1.250000e-06	-2.668607e-06	-9.774009e-10	-1.853028e+01	-6.867065e+01
1.260000e-06	-2.627790e-06	-9.692818e-10	-1.824686e+01	-6.810762e+01
1.270000e-06	-2.586638e-06	-9.593252e-10	-1.796110e+01	-6.753914e+01
1.280000e-06	-2.545225e-06	-9.501706e-10	-1.767354e+01	-6.696533e+01
1.290000e-06	-2.503574e-06	-9.419132e-10	-1.738432e+01	-6.638626e+01
1.300000e-06	-2.461591e-06	-9.354210e-10	-1.709280e+01	-6.580201e+01
1.310000e-06	-2.419190e-06	-9.252891e-10	-1.679838e+01	-6.521263e+01
1.320000e-06	-2.376527e-06	-9.146361e-10	-1.650213e+01	-6.461814e+01
1.330000e-06	-2.333692e-06	-9.038786e-10	-1.620470e+01	-6.401854e+01
1.340000e-06	-2.290544e-06	-8.932957e-10	-1.590509e+01	-6.341378e+01
1.350000e-06	-2.247197e-06	-8.815074e-10	-1.560409e+01	-6.280380e+01
1.360000e-06	-2.203763e-06	-8.710577e-10	-1.530250e+01	-6.218848e+01
1.370000e-06	-2.160259e-06	-8.617906e-10	-1.500041e+01	-6.156767e+01
1.380000e-06	-2.116654e-06	-8.529539e-10	-1.469763e+01	-6.094119e+01
1.390000e-06	-2.072984e-06	-8.423898e-10	-1.439439e+01	-6.030882e+01
1.400000e-06	-2.029217e-06	-8.314245e-10	-1.409048e+01	-5.967026e+01
1.410000e-06	-1.985324e-06	-8.224766e-10	-1.378569e+01	-5.902523e+01
1.420000e-06	-1.941390e-06	-8.120086e-10	-1.348063e+01	-5.837334e+01
1.430000e-06	-1.897336e-06	-7.999431e-10	-1.317473e+01	-5.771421e+01
1.440000e-06	-1.853219e-06	-7.875689e-10	-1.286838e+01	-5.704739e+01
1.450000e-06	-1.808984e-06	-7.755218e-10	-1.256123e+01	-5.637240e+01
1.460000e-06	-1.764522e-06	-7.632476e-10	-1.225249e+01	-5.568871e+01
1.470000e-06	-1.719930e-06	-7.536017e-10	-1.194285e+01	-5.499577e+01
1.480000e-06	-1.675285e-06	-7.448110e-10	-1.163285e+01	-5.429296e+01
1.490000e-06	-1.630489e-06	-7.349460e-10	-1.132179e+01	-5.357966e+01
1.500000e-06	-1.585531e-06	-7.241743e-10	-1.100961e+01	-5.285520e+01
1.510000e-06	-1.540520e-06	-7.146149e-10	-1.069707e+01	-5.211890e+01
1.520000e-06	-1.495309e-06	-7.026177e-10	-1.038313e+01	-5.137003e+01
1.530000e-06	-1.449959e-06	-6.914491e-10	-1.006823e+01	-5.060787e+01
1.540000e-06	-1.404558e-06	-6.829486e-10	-9.752974e+00	-4.983167e+01
1.550000e-06	-1.359108e-06	-6.757402e-10	-9.437379e+00	-4.904065e+01
1.560000e-06	-1.313568e-06	-6.647717e-10	-9.121158e+00	-4.823406e+01
1.570000e-06	-1.267877e-06	-6.527776e-10	-8.803886e+00	-4.741112e+01
1.580000e-06	-1.222131e-06	-6.386645e-10	-8.486233e+00	-4.657107e+01
1.590000e-06	-1.176389e-06	-6.227326e-10	-8.168612e+00	-4.571314e+01
1.600000e-06	-1.130576e-06	-6.078525e-10	-7.850494e+00	-4.483658e+01
1.610000e-06	-1.084631e-06	-5.956502e-10	-7.531461e+00	-4.394068e+01
1.620000e-06	-1.038638e-06	-5.837757e-10	-7.212096e+00	-4.302472e+01
1.630000e-06	-9.924753e-07	-5.723316e-10	-6.891552e+00	-4.208804e+01
1.640000e-06	-9.462280e-07	-5.621411e-10	-6.570419e+00	-4.112998e+01
1.650000e-06	-9.000633e-07	-5.505313e-10	-6.249861e+00	-4.014994e+01
1.660000e-06	-8.538803e-07	-5.353872e-10	-5.929175e+00	-3.914737e+01
1.670000e-06	-8.075312e-07	-5.185093e-10	-5.607336e+00	-3.812175e+01
1.680000e-06	-7.610147e-07	-5.011292e-10	-5.284335e+00	-3.707262e+01
1.690000e-06	-7.144408e-07	-4.846372e-10	-4.960935e+00	-3.599958e+01
1.700000e-06	-6.678281e-07	-4.688994e-10	-4.637266e+00	-3.490229e+01
1.710000e-06	-6.210684e-07	-4.524581e-10	-4.312576e+00	-3.378047e+01
1.720000e-06	-5.743522e-07	-4.372727e-10	-3.988188e+00	-3.263390e+01
1.730000e-06	-5.277308e-07	-4.219820e-10	-3.664458e+00	-3.146245e+01
1.740000e-06	-4.809787e-07	-4.034368e-10	-3.339821e+00	-3.026604e+01
1.750000e-06	-4.341780e-07	-3.817452e-10	-3.014846e+00	-2.904468e+01
1.760000e-06	-3.873266e-07	-3.606320e-10	-2.689519e+00	-2.779845e+01
1.770000e-06	-3.404798e-07	-3.403918e-10	-2.364224e+00	-2.652751e+01
1.780000e-06	-2.936696e-07	-3.218177e-10	-2.039184e+00	-2.523209e+01
1.790000e-06	-2.468439e-07	-3.046268e-10	-1.714035e+00	-2.391252e+01
1.800000e-06	-1.999940e-07	-2.878083e-10	-1.388719e+00	-2.256917e+01
1.810000e-06	-1.530802e-07	-2.694628e-10	-1.062959e+00	-2.120252e+01
1.820000e-06	-1.061652e-07	-2.507629e-10	-7.371898e-01	-1.981312e+01
1.830000e-06	-5.927972e-08	-2.308242e-10	-4.116266e-01	-1.840158e+01
1.840000e-06	-1.236888e-08	-2.095112e-10	-8.588706e-02	-1.696861e+01
1.850000e-06	3.446425e-08	-1.892388e-10	2.393129e-01	-1.551497e+01
1.860000e-06	8.135741e-08	-1.697543e-10	5.649297e-01	-1.404149e+01
1.870000e-06	1.283245e-07	-1.477857e-10	8.910600e-01	-1.254908e+01
1.880000e-06	1.752173e-07	-1.267154e-10	1.216674e+00	-1.103870e+01
1.890000e-06	2.221021e-07	-1.081684e-10	1.542233e+00	-9.511379e+00
1.900000e-06	2.688962e-07	-8.900197e-11	1.867162e+00	-7.968189e+00
1.910000e-06	3.156722e-07	-6.736734e-11	2.191965e+00	-6.410263e+00
1.920000e-06	3.625346e-07	-4.251834e-11	2.517368e+00	-4.838780e+00
1.930000e-06	4.093000e-07	-1.557317e-11	2.842098e+00	-3.254958e+00
1.940000e-06	4.559977e-07	9.018598e-12	3.166357e+00	-1.660056e+00
1.950000e-06	5.026641e-07	2.997911e-11	3.490400e+00	-5.536667e-02
1.960000e-06	5.492656e-07	5.043030e-11	3.813991e+00	1.557792e+00
1.970000e-06	5.958571e-07	7.161753e-11	4.137514e+00	3.178075e+00
1.980000e-06	6.424013e-07	9.389872e-11	4.460708e+00	4.804123e+00
1.990000e-06	6.888739e-07	1.168278e-10	4.783404e+00	6.434559e+00
2.000000e-06	7.353224e-07	1.397695e-10	5.105933e+00	8.068002e+00
2.010000e-06	7.817300e-07	1.621347e-10	5.428178e+00	9.703063e+00
2.020000e-06	8.279763e-07	1.843013e-10	5.749304e+00	1.133836e+01
2.030000e-06	8.741976e-07	2.093734e-10	6.070255e+00	1.297251e+01
2.040000e-06	9.204035e-07	2.349255e-10	6.391100e+00	1.460415e+01
2.050000e-06	9.665516e-07	2.580645e-10	6.711543e+00	1.623193e+01
2.060000e-06	1.012672e-06	2.814660e-10	7.031795e+00	1.785451e+01
2.070000e-06	1.058735e-06	3.025097e-10	7.351647e+00	1.947060e+01
2.080000e-06	1.104756e-06	3.219707e-10	7.671207e+00	2.107890e+01
2.090000e-06	1.150692e-06	3.431227e-10	7.990177e+00	2.267817e+01
2.100000e-06	1.196533e-06	3.681173e-10	8.308486e+00	2.426720e+01
2.110000e-06	1.242271e-06	3.933794e-10	8.626086e+00	2.584482e+01
2.120000e-06	1.287891e-06	4.163608e-10	8.942861e+00	2.740990e+01
2.130000e-06	1.333394e-06	4.381797e-10	9.258826e+00	2.896135e+01
2.140000e-06	1.378741e-06	4.578995e-10	9.573702e+00	3.049813e+01
2.150000e-06	1.423930e-06	4.748383e-10	9.887485e+00	3.201927e+01
2.160000e-06	1.469058e-06	4.928323e-10	1.020085e+01	3.352381e+01
2.170000e-06	1.514158e-06	5.140168e-10	1.051402e+01	3.501088e+01
2.180000e-06	1.559163e-06	5.358017e-10	1.082652e+01	3.647965e+01
2.190000e-06	1.604013e-06	5.598088e-10	1.113795e+01	3.792935e+01
2.200000e-06	1.648765e-06	5.847784e-10	1.144870e+01	3.935927e+01
2.210000e-06	1.693387e-06	6.043911e-10	1.175854e+01	4.076874e+01
2.220000e-06	1.737843e-06	6.179703e-10	1.206723e+01	4.215717e+01
2.230000e-06	1.782182e-06	6.293889e-10	1.237512e+01	4.352403e+01
2.240000e-06	1.826425e-06	6.446726e-10	1.268233e+01	4.486882e+01
2.250000e-06	1.870538e-06	6.651788e-10	1.298864e+01	4.619114e+01
2.260000e-06	1.914515e-06	6.874528e-10	1.329401e+01	4.749061e+01
2.270000e-06	1.958401e-06	7.096543e-10	1.359875e+01	4.876692e+01
2.280000e-06	2.002181e-06	7.287383e-10	1.390275e+01	5.001982e+01
2.290000e-06	2.045851e-06	7.444400e-10	1.420598e+01	5.124912e+01
2.300000e-06	2.089496e-06	7.581924e-10	1.450905e+01	5.245468e+01
2.310000e-06	2.133074e-06	7.688350e-10	1.481164e+01	5.363639e+01
2.320000e-06	2.176534e-06	7.817745e-10	1.511342e+01	5.479422e+01
2.330000e-06	2.219923e-06	7.997357e-10	1.541470e+01	5.592818e+01
2.340000e-06	2.263218e-06	8.188050e-10	1.571533e+01	5.703833e+01
2.350000e-06	2.306468e-06	8.369658e-10	1.601566e+01	5.812476e+01
2.360000e-06	2.349519e-06	8.528629e-10	1.631459e+01	5.918762e+01
2.370000e-06	2.392245e-06	8.646773e-10	1.661127e+01	6.022708e+01
2.380000e-06	2.434745e-06	8.751540e-10	1.690639e+01	6.124338e+01
2.390000e-06	2.477026e-06	8.883067e-10	1.719998e+01	6.223678e+01
2.400000e-06	2.518961e-06	9.016130e-10	1.749116e+01	6.320755e+01
2.410000e-06	2.560397e-06	9.159421e-10	1.777889e+01	6.415603e+01
2.420000e-06	2.601563e-06	9.316397e-10	1.806474e+01	6.508257e+01
2.430000e-06	2.642576e-06	9.459591e-10	1.834952e+01	6.598754e+01
2.440000e-06	2.683216e-06	9.576462e-10	1.863172e+01	6.687135e+01
2.450000e-06	2.723550e-06	9.684710e-10	1.891179e+01	6.773442e+01
2.460000e-06	2.763654e-06	9.793183e-10	1.919027e+01	6.857719e+01
2.470000e-06	2.803601e-06	9.906965e-10	1.946765e+01	6.940012e+01
2.480000e-06	2.843465e-06	1.002171e-09	1.974446e+01	7.020368e+01
2.490000e-06	2.883219e-06	1.013786e-09	2.002050e+01	7.098835e+01
2.500000e-06	2.922872e-06	1.026390e-09	2.029584e+01	7.175462e+01
2.510000e-06	2.962399e-06	1.040160e-09	2.057031e+01	7.250298e+01
2.520000e-06	3.001738e-06	1.051578e-09	2.084348e+01	7.323394e+01
2.530000e-06	3.040843e-06	1.060644e-09	2.111501e+01	7.394799e+01
2.540000e-06	3.079773e-06	1.070364e-09	2.138534e+01	7.464564e+01
2.550000e-06	3.118497e-06	1.078891e-09	2.165422e+01	7.532739e+01
2.560000e-06	3.156921e-06	1.085933e-09	2.192103e+01	7.599372e+01
2.570000e-06	3.195113e-06	1.094450e-09	2.218623e+01	7.664512e+01
2.580000e-06	3.233056e-06	1.105724e-09	2.244970e+01	7.728207e+01
2.590000e-06	3.270763e-06	1.118995e-09	2.271153e+01	7.790503e+01
2.600000e-06	3.308374e-06	1.129499e-09	2.297270e+01	7.851445e+01
2.610000e-06	3.345776e-06	1.137306e-09	2.323241e+01	7.911079e+01
2.620000e-06	3.382898e-06	1.146483e-09	2.349018e+01	7.969445e+01
2.630000e-06	3.419794e-06	1.156616e-09	2.374637e+01	8.026585e+01
2.640000e-06	3.456405e-06	1.165757e-09	2.400059e+01	8.082538e+01
2.650000e-06	3.492746e-06	1.173699e-09	2.425294e+01	8.137342e+01
2.660000e-06	3.528899e-06	1.183555e-09	2.450398e+01	8.191030e+01
2.670000e-06	3.564849e-06	1.192115e-09	2.475361e+01	8.243638e+01
2.680000e-06	3.600602e-06	1.199849e-09	2.500187e+01	8.295196e+01
2.690000e-06	3.636249e-06	1.205841e-09	2.524939e+01	8.345733e+01
2.700000e-06	3.671800e-06	1.209526e-09	2.549625e+01	8.395277e+01
2.710000e-06	3.707173e-06	1.216804e-09	2.574188e+01	8.443851e+01
2.720000e-06	3.742225e-06	1.227047e-09	2.598527e+01	8.491481e+01
2.730000e-06	3.776946e-06	1.233443e-09	2.622637e+01	8.538185e+01
2.740000e-06	3.811364e-06	1.237962e-09	2.646536e+01	8.583984e+01
2.750000e-06	3.845534e-06	1.242864e-09	2.670262e+01	8.628893e+01
2.760000e-06	3.879340e-06	1.248384e-09	2.693737e+01	8.672929e+01
2.770000e-06	3.912563e-06	1.254856e-09	2.716806e+01	8.716103e+01
2.780000e-06	3.945239e-06	1.262494e-09	2.739495e+01	8.758428e+01
2.790000e-06	3.977515e-06	1.271506e-09	2.761907e+01	8.799914e+01
2.800000e-06	4.009567e-06	1.278990e-09	2.784164e+01	8.840568e+01
2.810000e-06	4.041467e-06	1.283758e-09	2.806314e+01	8.880398e+01
2.820000e-06	4.073140e-06	1.286973e-09	2.828308e+01	8.919409e+01
2.830000e-06	4.104577e-06	1.291417e-09	2.850137e+01	8.957607e+01
2.840000e-06	4.135855e-06	1.298541e-09	2.871856e+01	8.994995e+01
2.850000e-06	4.166849e-06	1.306183e-09	2.893377e+01	9.031575e+01
2.860000e-06	4.197468e-06	1.312101e-09	2.914638e+01	9.067351e+01
2.870000e-06	4.227765e-06	1.316548e-09	2.935676e+01	9.102324e+01
2.880000e-06	4.257857e-06	1.319529e-09	2.956572e+01	9.136496e+01
2.890000e-06	4.287713e-06	1.320460e-09	2.977303e+01	9.169869e+01
2.900000e-06	4.317230e-06	1.320879e-09	2.997799e+01	9.202443e+01
