# Temperatura_=_-0.42
# Concentracion g/m^3_=_1620.0
# C_Vs_to_Am_M_A/Vsm_=_65563218390.804596
# pendiente_HvsI_1/m_=_3716.3
# ordenada_HvsI_A/m_=_1297.0
# frecuencia_Hz_=_135095.2593908144

Tiempo_(s)	Campo_(V.s)	Magnetizacion_(V.s)	Campo_(kA/m)	Magnetizacion_(A/m)
0.000000e+00	-5.522404e-06	-1.422109e-09	-3.837127e+01	-9.233428e+01
1.000000e-08	-5.522703e-06	-1.420042e-09	-3.837335e+01	-9.229627e+01
2.000000e-08	-5.522751e-06	-1.414613e-09	-3.837369e+01	-9.225449e+01
3.000000e-08	-5.522479e-06	-1.408491e-09	-3.837180e+01	-9.220892e+01
4.000000e-08	-5.521746e-06	-1.405424e-09	-3.836670e+01	-9.215957e+01
5.000000e-08	-5.520415e-06	-1.407828e-09	-3.835746e+01	-9.210645e+01
6.000000e-08	-5.518459e-06	-1.417247e-09	-3.834386e+01	-9.204957e+01
7.000000e-08	-5.515910e-06	-1.440005e-09	-3.832615e+01	-9.198899e+01
8.000000e-08	-5.512801e-06	-1.434225e-09	-3.830455e+01	-9.192473e+01
9.000000e-08	-5.509242e-06	-1.379832e-09	-3.827982e+01	-9.185688e+01
1.000000e-07	-5.505345e-06	-1.375653e-09	-3.825274e+01	-9.178550e+01
1.100000e-07	-5.501081e-06	-1.447057e-09	-3.822311e+01	-9.171068e+01
1.200000e-07	-5.496547e-06	-1.421277e-09	-3.819161e+01	-9.163252e+01
1.300000e-07	-5.491880e-06	-1.384993e-09	-3.815918e+01	-9.155112e+01
1.400000e-07	-5.486918e-06	-1.372190e-09	-3.812471e+01	-9.146661e+01
1.500000e-07	-5.481502e-06	-1.449403e-09	-3.808708e+01	-9.137912e+01
1.600000e-07	-5.475654e-06	-1.457653e-09	-3.804644e+01	-9.128877e+01
1.700000e-07	-5.469510e-06	-1.385415e-09	-3.800375e+01	-9.119570e+01
1.800000e-07	-5.463011e-06	-1.374285e-09	-3.795859e+01	-9.110006e+01
1.900000e-07	-5.456052e-06	-1.388324e-09	-3.791024e+01	-9.100200e+01
2.000000e-07	-5.448682e-06	-1.411032e-09	-3.785903e+01	-9.090166e+01
2.100000e-07	-5.441009e-06	-1.374327e-09	-3.780572e+01	-9.079919e+01
2.200000e-07	-5.433097e-06	-1.386293e-09	-3.775074e+01	-9.069474e+01
2.300000e-07	-5.424952e-06	-1.385784e-09	-3.769415e+01	-9.058844e+01
2.400000e-07	-5.416492e-06	-1.390245e-09	-3.763536e+01	-9.048043e+01
2.500000e-07	-5.407444e-06	-1.355860e-09	-3.757250e+01	-9.037085e+01
2.600000e-07	-5.397645e-06	-1.361777e-09	-3.750441e+01	-9.025981e+01
2.700000e-07	-5.387160e-06	-1.365157e-09	-3.743156e+01	-9.014742e+01
2.800000e-07	-5.376180e-06	-1.371766e-09	-3.735527e+01	-9.003379e+01
2.900000e-07	-5.364789e-06	-1.346818e-09	-3.727612e+01	-8.991899e+01
3.000000e-07	-5.353031e-06	-1.333281e-09	-3.719442e+01	-8.980310e+01
3.100000e-07	-5.340931e-06	-1.335549e-09	-3.711035e+01	-8.968618e+01
3.200000e-07	-5.328381e-06	-1.356241e-09	-3.702315e+01	-8.956826e+01
3.300000e-07	-5.315315e-06	-1.345421e-09	-3.693236e+01	-8.944938e+01
3.400000e-07	-5.301926e-06	-1.326812e-09	-3.683933e+01	-8.932953e+01
3.500000e-07	-5.288245e-06	-1.353028e-09	-3.674427e+01	-8.920872e+01
3.600000e-07	-5.274115e-06	-1.358694e-09	-3.664609e+01	-8.908689e+01
3.700000e-07	-5.259412e-06	-1.326837e-09	-3.654393e+01	-8.896402e+01
3.800000e-07	-5.244267e-06	-1.329123e-09	-3.643870e+01	-8.884003e+01
3.900000e-07	-5.228683e-06	-1.362300e-09	-3.633041e+01	-8.871485e+01
4.000000e-07	-5.212566e-06	-1.310736e-09	-3.621843e+01	-8.858836e+01
4.100000e-07	-5.196012e-06	-1.300565e-09	-3.610341e+01	-8.846046e+01
4.200000e-07	-5.179154e-06	-1.363181e-09	-3.598628e+01	-8.833100e+01
4.300000e-07	-5.162007e-06	-1.356720e-09	-3.586713e+01	-8.819985e+01
4.400000e-07	-5.144444e-06	-1.280347e-09	-3.574510e+01	-8.806684e+01
4.500000e-07	-5.126529e-06	-1.331275e-09	-3.562062e+01	-8.793180e+01
4.600000e-07	-5.108222e-06	-1.365898e-09	-3.549342e+01	-8.779453e+01
4.700000e-07	-5.089411e-06	-1.290166e-09	-3.536272e+01	-8.765486e+01
4.800000e-07	-5.070216e-06	-1.286105e-09	-3.522934e+01	-8.751258e+01
4.900000e-07	-5.050826e-06	-1.364531e-09	-3.509461e+01	-8.736747e+01
5.000000e-07	-5.031260e-06	-1.308972e-09	-3.495866e+01	-8.721934e+01
5.100000e-07	-5.011449e-06	-1.270169e-09	-3.482101e+01	-8.706795e+01
5.200000e-07	-4.991380e-06	-1.343417e-09	-3.468157e+01	-8.691311e+01
5.300000e-07	-4.970987e-06	-1.333729e-09	-3.453987e+01	-8.675458e+01
5.400000e-07	-4.950226e-06	-1.253196e-09	-3.439562e+01	-8.659217e+01
5.500000e-07	-4.929109e-06	-1.303578e-09	-3.424889e+01	-8.642567e+01
5.600000e-07	-4.907647e-06	-1.336206e-09	-3.409977e+01	-8.625488e+01
5.700000e-07	-4.885870e-06	-1.269557e-09	-3.394845e+01	-8.607959e+01
5.800000e-07	-4.863742e-06	-1.277394e-09	-3.379470e+01	-8.589965e+01
5.900000e-07	-4.841148e-06	-1.324578e-09	-3.363771e+01	-8.571486e+01
6.000000e-07	-4.818201e-06	-1.273338e-09	-3.347826e+01	-8.552507e+01
6.100000e-07	-4.795056e-06	-1.256846e-09	-3.331745e+01	-8.533014e+01
6.200000e-07	-4.771649e-06	-1.304725e-09	-3.315481e+01	-8.512994e+01
6.300000e-07	-4.748011e-06	-1.283038e-09	-3.299056e+01	-8.492434e+01
6.400000e-07	-4.724125e-06	-1.256190e-09	-3.282460e+01	-8.471325e+01
6.500000e-07	-4.699845e-06	-1.286572e-09	-3.265589e+01	-8.449659e+01
6.600000e-07	-4.675090e-06	-1.277487e-09	-3.248389e+01	-8.427428e+01
6.700000e-07	-4.649912e-06	-1.240796e-09	-3.230894e+01	-8.404629e+01
6.800000e-07	-4.624211e-06	-1.258570e-09	-3.213037e+01	-8.381257e+01
6.900000e-07	-4.597892e-06	-1.259972e-09	-3.194750e+01	-8.357311e+01
7.000000e-07	-4.571109e-06	-1.233652e-09	-3.176140e+01	-8.332791e+01
7.100000e-07	-4.544002e-06	-1.237537e-09	-3.157305e+01	-8.307699e+01
7.200000e-07	-4.516609e-06	-1.245391e-09	-3.138271e+01	-8.282038e+01
7.300000e-07	-4.489016e-06	-1.222164e-09	-3.119099e+01	-8.255812e+01
7.400000e-07	-4.461275e-06	-1.221558e-09	-3.099824e+01	-8.229027e+01
7.500000e-07	-4.433324e-06	-1.223437e-09	-3.080403e+01	-8.201691e+01
7.600000e-07	-4.405099e-06	-1.211325e-09	-3.060792e+01	-8.173811e+01
7.700000e-07	-4.376517e-06	-1.209444e-09	-3.040932e+01	-8.145396e+01
7.800000e-07	-4.347579e-06	-1.218140e-09	-3.020825e+01	-8.116458e+01
7.900000e-07	-4.318326e-06	-1.201828e-09	-3.000499e+01	-8.087006e+01
8.000000e-07	-4.288734e-06	-1.190760e-09	-2.979938e+01	-8.057051e+01
8.100000e-07	-4.258921e-06	-1.188752e-09	-2.959222e+01	-8.026605e+01
8.200000e-07	-4.228860e-06	-1.175276e-09	-2.938336e+01	-7.995680e+01
8.300000e-07	-4.198465e-06	-1.155995e-09	-2.917216e+01	-7.964288e+01
8.400000e-07	-4.167777e-06	-1.158022e-09	-2.895893e+01	-7.932440e+01
8.500000e-07	-4.136766e-06	-1.158121e-09	-2.874346e+01	-7.900148e+01
8.600000e-07	-4.105520e-06	-1.150465e-09	-2.852635e+01	-7.867423e+01
8.700000e-07	-4.074111e-06	-1.151020e-09	-2.830811e+01	-7.834275e+01
8.800000e-07	-4.042490e-06	-1.154421e-09	-2.808840e+01	-7.800716e+01
8.900000e-07	-4.010685e-06	-1.142368e-09	-2.786741e+01	-7.766754e+01
9.000000e-07	-3.978671e-06	-1.128334e-09	-2.764497e+01	-7.732397e+01
9.100000e-07	-3.946375e-06	-1.123611e-09	-2.742057e+01	-7.697654e+01
9.200000e-07	-3.913707e-06	-1.115094e-09	-2.719358e+01	-7.662530e+01
9.300000e-07	-3.880676e-06	-1.103119e-09	-2.696407e+01	-7.627032e+01
9.400000e-07	-3.847219e-06	-1.106292e-09	-2.673160e+01	-7.591164e+01
9.500000e-07	-3.813221e-06	-1.110974e-09	-2.649537e+01	-7.554930e+01
9.600000e-07	-3.778790e-06	-1.101443e-09	-2.625613e+01	-7.518331e+01
9.700000e-07	-3.744081e-06	-1.095072e-09	-2.601497e+01	-7.481368e+01
9.800000e-07	-3.709071e-06	-1.091796e-09	-2.577171e+01	-7.444043e+01
9.900000e-07	-3.673688e-06	-1.081776e-09	-2.552586e+01	-7.406353e+01
1.000000e-06	-3.638150e-06	-1.068943e-09	-2.527893e+01	-7.368297e+01
1.010000e-06	-3.602542e-06	-1.065688e-09	-2.503152e+01	-7.329871e+01
1.020000e-06	-3.566693e-06	-1.062167e-09	-2.478243e+01	-7.291072e+01
1.030000e-06	-3.530601e-06	-1.057384e-09	-2.453164e+01	-7.251894e+01
1.040000e-06	-3.494392e-06	-1.053807e-09	-2.428005e+01	-7.212332e+01
1.050000e-06	-3.458012e-06	-1.052796e-09	-2.402727e+01	-7.172380e+01
1.060000e-06	-3.421334e-06	-1.043613e-09	-2.377243e+01	-7.132030e+01
1.070000e-06	-3.384421e-06	-1.035514e-09	-2.351594e+01	-7.091274e+01
1.080000e-06	-3.347267e-06	-1.027810e-09	-2.325779e+01	-7.050106e+01
1.090000e-06	-3.309827e-06	-1.019308e-09	-2.299765e+01	-7.008516e+01
1.100000e-06	-3.272142e-06	-1.010051e-09	-2.273580e+01	-6.966497e+01
1.110000e-06	-3.234194e-06	-1.007025e-09	-2.247212e+01	-6.924038e+01
1.120000e-06	-3.196013e-06	-1.003092e-09	-2.220683e+01	-6.881133e+01
1.130000e-06	-3.157612e-06	-9.957657e-10	-2.194001e+01	-6.837771e+01
1.140000e-06	-3.118870e-06	-9.890115e-10	-2.167082e+01	-6.793945e+01
1.150000e-06	-3.080031e-06	-9.829464e-10	-2.140095e+01	-6.749645e+01
1.160000e-06	-3.041126e-06	-9.738348e-10	-2.113063e+01	-6.704863e+01
1.170000e-06	-3.001968e-06	-9.665068e-10	-2.085855e+01	-6.659591e+01
1.180000e-06	-2.962649e-06	-9.610313e-10	-2.058535e+01	-6.613821e+01
1.190000e-06	-2.923216e-06	-9.536007e-10	-2.031136e+01	-6.567546e+01
1.200000e-06	-2.883688e-06	-9.449075e-10	-2.003671e+01	-6.520757e+01
1.210000e-06	-2.844023e-06	-9.385507e-10	-1.976110e+01	-6.473447e+01
1.220000e-06	-2.804215e-06	-9.298366e-10	-1.948450e+01	-6.425609e+01
1.230000e-06	-2.764207e-06	-9.191801e-10	-1.920651e+01	-6.377235e+01
1.240000e-06	-2.723999e-06	-9.102919e-10	-1.892714e+01	-6.328319e+01
1.250000e-06	-2.683592e-06	-9.026607e-10	-1.864638e+01	-6.278853e+01
1.260000e-06	-2.642988e-06	-8.972944e-10	-1.836425e+01	-6.228830e+01
1.270000e-06	-2.602130e-06	-8.916309e-10	-1.808036e+01	-6.178242e+01
1.280000e-06	-2.560844e-06	-8.860567e-10	-1.779349e+01	-6.127081e+01
1.290000e-06	-2.519240e-06	-8.770226e-10	-1.750442e+01	-6.075338e+01
1.300000e-06	-2.477322e-06	-8.660944e-10	-1.721316e+01	-6.023003e+01
1.310000e-06	-2.435136e-06	-8.532746e-10	-1.692004e+01	-5.970067e+01
1.320000e-06	-2.392805e-06	-8.407261e-10	-1.662591e+01	-5.916518e+01
1.330000e-06	-2.350163e-06	-8.298224e-10	-1.632962e+01	-5.862344e+01
1.340000e-06	-2.307205e-06	-8.208052e-10	-1.603113e+01	-5.807531e+01
1.350000e-06	-2.264046e-06	-8.146546e-10	-1.573125e+01	-5.752065e+01
1.360000e-06	-2.220705e-06	-8.101706e-10	-1.543011e+01	-5.695928e+01
1.370000e-06	-2.177223e-06	-8.013596e-10	-1.512798e+01	-5.639101e+01
1.380000e-06	-2.133650e-06	-7.911407e-10	-1.482522e+01	-5.581566e+01
1.390000e-06	-2.089999e-06	-7.796135e-10	-1.452193e+01	-5.523299e+01
1.400000e-06	-2.046257e-06	-7.673211e-10	-1.421799e+01	-5.464276e+01
1.410000e-06	-2.002442e-06	-7.560342e-10	-1.391355e+01	-5.404471e+01
1.420000e-06	-1.958658e-06	-7.472744e-10	-1.360933e+01	-5.343854e+01
1.430000e-06	-1.914800e-06	-7.378658e-10	-1.330459e+01	-5.282395e+01
1.440000e-06	-1.870771e-06	-7.274548e-10	-1.299866e+01	-5.220061e+01
1.450000e-06	-1.826616e-06	-7.183199e-10	-1.269186e+01	-5.156814e+01
1.460000e-06	-1.782280e-06	-7.095547e-10	-1.238380e+01	-5.092618e+01
1.470000e-06	-1.737729e-06	-6.994740e-10	-1.207425e+01	-5.027431e+01
1.480000e-06	-1.693048e-06	-6.883241e-10	-1.176379e+01	-4.961211e+01
1.490000e-06	-1.648335e-06	-6.777800e-10	-1.145312e+01	-4.893913e+01
1.500000e-06	-1.603551e-06	-6.680932e-10	-1.114194e+01	-4.825490e+01
1.510000e-06	-1.558548e-06	-6.580477e-10	-1.082924e+01	-4.755893e+01
1.520000e-06	-1.513388e-06	-6.489086e-10	-1.051546e+01	-4.685072e+01
1.530000e-06	-1.468188e-06	-6.382202e-10	-1.020140e+01	-4.612975e+01
1.540000e-06	-1.422871e-06	-6.268505e-10	-9.886526e+00	-4.539549e+01
1.550000e-06	-1.377393e-06	-6.162082e-10	-9.570530e+00	-4.464739e+01
1.560000e-06	-1.331842e-06	-6.054369e-10	-9.254025e+00	-4.388490e+01
1.570000e-06	-1.286292e-06	-5.940724e-10	-8.937530e+00	-4.310747e+01
1.580000e-06	-1.240704e-06	-5.823464e-10	-8.620770e+00	-4.231455e+01
1.590000e-06	-1.195009e-06	-5.688275e-10	-8.303272e+00	-4.150558e+01
1.600000e-06	-1.149221e-06	-5.536036e-10	-7.985125e+00	-4.068001e+01
1.610000e-06	-1.103289e-06	-5.397066e-10	-7.665976e+00	-3.983730e+01
1.620000e-06	-1.057190e-06	-5.249314e-10	-7.345663e+00	-3.897694e+01
1.630000e-06	-1.010997e-06	-5.097999e-10	-7.024699e+00	-3.809841e+01
1.640000e-06	-9.647658e-07	-4.958145e-10	-6.703475e+00	-3.720122e+01
1.650000e-06	-9.185175e-07	-4.833633e-10	-6.382128e+00	-3.628492e+01
1.660000e-06	-8.722983e-07	-4.704608e-10	-6.060983e+00	-3.534907e+01
1.670000e-06	-8.260297e-07	-4.576704e-10	-5.739495e+00	-3.439328e+01
1.680000e-06	-7.795767e-07	-4.442366e-10	-5.416727e+00	-3.341718e+01
1.690000e-06	-7.330114e-07	-4.307145e-10	-5.093177e+00	-3.242045e+01
1.700000e-06	-6.864675e-07	-4.156357e-10	-4.769777e+00	-3.140280e+01
1.710000e-06	-6.399275e-07	-3.981983e-10	-4.446403e+00	-3.036402e+01
1.720000e-06	-5.934404e-07	-3.806600e-10	-4.123397e+00	-2.930391e+01
1.730000e-06	-5.469420e-07	-3.624455e-10	-3.800313e+00	-2.822236e+01
1.740000e-06	-5.003192e-07	-3.459606e-10	-3.476364e+00	-2.711929e+01
1.750000e-06	-4.535833e-07	-3.308344e-10	-3.151629e+00	-2.599469e+01
1.760000e-06	-4.067769e-07	-3.159913e-10	-2.826404e+00	-2.484860e+01
1.770000e-06	-3.600110e-07	-3.012315e-10	-2.501462e+00	-2.368115e+01
1.780000e-06	-3.132183e-07	-2.825768e-10	-2.176332e+00	-2.249250e+01
1.790000e-06	-2.664107e-07	-2.624875e-10	-1.851099e+00	-2.128290e+01
1.800000e-06	-2.195642e-07	-2.433418e-10	-1.525596e+00	-2.005265e+01
1.810000e-06	-1.727313e-07	-2.251904e-10	-1.200187e+00	-1.880212e+01
1.820000e-06	-1.259245e-07	-2.075471e-10	-8.749600e-01	-1.753175e+01
1.830000e-06	-7.914182e-08	-1.924880e-10	-5.499005e-01	-1.624205e+01
1.840000e-06	-3.241948e-08	-1.767456e-10	-2.252600e-01	-1.493359e+01
1.850000e-06	1.430585e-08	-1.586811e-10	9.940119e-02	-1.360700e+01
1.860000e-06	6.107813e-08	-1.398032e-10	4.243887e-01	-1.226296e+01
1.870000e-06	1.079572e-07	-1.181756e-10	7.501184e-01	-1.090225e+01
1.880000e-06	1.548132e-07	-9.539667e-11	1.075688e+00	-9.525666e+00
1.890000e-06	2.015721e-07	-7.457318e-11	1.400582e+00	-8.134080e+00
1.900000e-06	2.483475e-07	-5.745395e-11	1.725591e+00	-6.728412e+00
1.910000e-06	2.951494e-07	-4.163492e-11	2.050784e+00	-5.309630e+00
1.920000e-06	3.418773e-07	-2.264155e-11	2.375463e+00	-3.878749e+00
1.930000e-06	3.885397e-07	-5.662728e-13	2.699687e+00	-2.436825e+00
1.940000e-06	4.352002e-07	2.282439e-11	3.023898e+00	-9.849521e-01
1.950000e-06	4.818784e-07	4.566867e-11	3.348232e+00	4.757440e-01
1.960000e-06	5.284738e-07	6.723510e-11	3.671990e+00	1.944107e+00
1.970000e-06	5.749835e-07	8.600169e-11	3.995153e+00	3.418956e+00
1.980000e-06	6.214486e-07	1.050494e-10	4.318006e+00	4.899090e+00
1.990000e-06	6.678706e-07	1.260208e-10	4.640560e+00	6.383295e+00
2.000000e-06	7.143398e-07	1.445880e-10	4.963441e+00	7.870342e+00
2.010000e-06	7.607790e-07	1.669760e-10	5.286115e+00	9.359001e+00
2.020000e-06	8.070719e-07	1.905761e-10	5.607771e+00	1.084804e+01
2.030000e-06	8.533528e-07	2.155624e-10	5.929344e+00	1.233622e+01
2.040000e-06	8.996080e-07	2.426484e-10	6.250739e+00	1.382233e+01
2.050000e-06	9.457609e-07	2.651277e-10	6.571423e+00	1.530515e+01
2.060000e-06	9.917877e-07	2.845678e-10	6.891230e+00	1.678349e+01
2.070000e-06	1.037728e-06	3.019081e-10	7.210437e+00	1.825618e+01
2.080000e-06	1.083608e-06	3.180681e-10	7.529222e+00	1.972207e+01
2.090000e-06	1.129443e-06	3.359582e-10	7.847699e+00	2.118003e+01
2.100000e-06	1.175277e-06	3.603156e-10	8.166170e+00	2.262899e+01
2.110000e-06	1.220975e-06	3.858389e-10	8.483692e+00	2.406788e+01
2.120000e-06	1.266588e-06	4.091069e-10	8.800620e+00	2.549569e+01
2.130000e-06	1.312163e-06	4.300645e-10	9.117295e+00	2.691144e+01
2.140000e-06	1.357666e-06	4.470335e-10	9.433459e+00	2.831421e+01
2.150000e-06	1.403089e-06	4.613973e-10	9.749071e+00	2.970309e+01
2.160000e-06	1.448374e-06	4.735360e-10	1.006372e+01	3.107726e+01
2.170000e-06	1.493475e-06	4.901887e-10	1.037710e+01	3.243590e+01
2.180000e-06	1.538429e-06	5.111305e-10	1.068945e+01	3.377829e+01
2.190000e-06	1.583293e-06	5.327680e-10	1.100118e+01	3.510372e+01
2.200000e-06	1.628074e-06	5.537955e-10	1.131233e+01	3.641156e+01
2.210000e-06	1.672758e-06	5.713310e-10	1.162281e+01	3.770120e+01
2.220000e-06	1.717311e-06	5.845039e-10	1.193238e+01	3.897211e+01
2.230000e-06	1.761687e-06	5.960724e-10	1.224071e+01	4.022379e+01
2.240000e-06	1.805919e-06	6.107514e-10	1.254805e+01	4.145580e+01
2.250000e-06	1.850028e-06	6.279519e-10	1.285453e+01	4.266776e+01
2.260000e-06	1.894003e-06	6.466473e-10	1.316009e+01	4.385931e+01
2.270000e-06	1.937855e-06	6.657626e-10	1.346478e+01	4.503018e+01
2.280000e-06	1.981619e-06	6.828750e-10	1.376886e+01	4.618010e+01
2.290000e-06	2.025348e-06	6.957538e-10	1.407271e+01	4.730887e+01
2.300000e-06	2.069061e-06	7.070759e-10	1.437644e+01	4.841634e+01
2.310000e-06	2.112700e-06	7.188186e-10	1.467965e+01	4.950239e+01
2.320000e-06	2.156235e-06	7.316571e-10	1.498215e+01	5.056695e+01
2.330000e-06	2.199690e-06	7.478027e-10	1.528409e+01	5.160997e+01
2.340000e-06	2.243044e-06	7.640573e-10	1.558532e+01	5.263145e+01
2.350000e-06	2.286194e-06	7.773670e-10	1.588514e+01	5.363144e+01
2.360000e-06	2.329117e-06	7.895578e-10	1.618339e+01	5.460999e+01
2.370000e-06	2.371818e-06	8.025371e-10	1.648009e+01	5.556721e+01
2.380000e-06	2.414345e-06	8.137257e-10	1.677558e+01	5.650322e+01
2.390000e-06	2.456729e-06	8.260921e-10	1.707007e+01	5.741818e+01
2.400000e-06	2.498751e-06	8.385832e-10	1.736205e+01	5.831227e+01
2.410000e-06	2.540342e-06	8.509331e-10	1.765104e+01	5.918569e+01
2.420000e-06	2.581534e-06	8.652053e-10	1.793725e+01	6.003867e+01
2.430000e-06	2.622469e-06	8.776159e-10	1.822168e+01	6.087146e+01
2.440000e-06	2.663261e-06	8.874839e-10	1.850511e+01	6.168432e+01
2.450000e-06	2.703742e-06	8.939242e-10	1.878639e+01	6.247754e+01
2.460000e-06	2.743937e-06	9.015981e-10	1.906567e+01	6.325141e+01
2.470000e-06	2.783958e-06	9.105823e-10	1.934376e+01	6.400625e+01
2.480000e-06	2.823796e-06	9.208072e-10	1.962056e+01	6.474239e+01
2.490000e-06	2.863536e-06	9.326209e-10	1.989668e+01	6.546016e+01
2.500000e-06	2.903210e-06	9.436493e-10	2.017235e+01	6.615992e+01
2.510000e-06	2.942795e-06	9.533306e-10	2.044740e+01	6.684202e+01
2.520000e-06	2.982213e-06	9.624117e-10	2.072128e+01	6.750683e+01
2.530000e-06	3.021407e-06	9.715873e-10	2.099362e+01	6.815473e+01
2.540000e-06	3.060385e-06	9.817165e-10	2.126445e+01	6.878610e+01
2.550000e-06	3.099174e-06	9.928811e-10	2.153396e+01	6.940134e+01
2.560000e-06	3.137747e-06	1.003912e-09	2.180198e+01	7.000083e+01
2.570000e-06	3.176070e-06	1.012942e-09	2.206826e+01	7.058498e+01
2.580000e-06	3.214243e-06	1.021381e-09	2.233350e+01	7.115419e+01
2.590000e-06	3.252170e-06	1.032370e-09	2.259703e+01	7.170887e+01
2.600000e-06	3.289840e-06	1.042813e-09	2.285877e+01	7.224942e+01
2.610000e-06	3.327331e-06	1.051695e-09	2.311927e+01	7.277626e+01
2.620000e-06	3.364582e-06	1.059905e-09	2.337810e+01	7.328980e+01
2.630000e-06	3.401620e-06	1.068245e-09	2.363545e+01	7.379045e+01
2.640000e-06	3.438349e-06	1.074060e-09	2.389066e+01	7.427863e+01
2.650000e-06	3.474739e-06	1.080309e-09	2.414350e+01	7.475473e+01
2.660000e-06	3.510939e-06	1.089163e-09	2.439503e+01	7.521919e+01
2.670000e-06	3.546955e-06	1.095748e-09	2.464528e+01	7.567239e+01
2.680000e-06	3.582773e-06	1.100589e-09	2.489415e+01	7.611474e+01
2.690000e-06	3.618463e-06	1.104811e-09	2.514214e+01	7.654664e+01
2.700000e-06	3.654096e-06	1.107283e-09	2.538973e+01	7.696848e+01
2.710000e-06	3.689627e-06	1.112457e-09	2.563660e+01	7.738065e+01
2.720000e-06	3.724918e-06	1.120244e-09	2.588182e+01	7.778352e+01
2.730000e-06	3.759933e-06	1.128044e-09	2.612511e+01	7.817747e+01
2.740000e-06	3.794648e-06	1.135448e-09	2.636632e+01	7.856287e+01
2.750000e-06	3.828886e-06	1.142466e-09	2.660422e+01	7.894005e+01
2.760000e-06	3.862544e-06	1.147694e-09	2.683808e+01	7.930937e+01
2.770000e-06	3.895683e-06	1.149662e-09	2.706834e+01	7.967114e+01
2.780000e-06	3.928416e-06	1.151380e-09	2.729578e+01	8.002570e+01
2.790000e-06	3.960778e-06	1.156053e-09	2.752064e+01	8.037334e+01
2.800000e-06	3.992819e-06	1.161260e-09	2.774327e+01	8.071436e+01
2.810000e-06	4.024661e-06	1.167024e-09	2.796452e+01	8.104902e+01
2.820000e-06	4.056352e-06	1.172757e-09	2.818472e+01	8.137758e+01
2.830000e-06	4.087907e-06	1.177989e-09	2.840397e+01	8.170030e+01
2.840000e-06	4.119315e-06	1.184875e-09	2.862221e+01	8.201738e+01
2.850000e-06	4.150497e-06	1.190886e-09	2.883887e+01	8.232905e+01
2.860000e-06	4.181422e-06	1.194888e-09	2.905374e+01	8.263548e+01
2.870000e-06	4.212029e-06	1.196731e-09	2.926640e+01	8.293686e+01
2.880000e-06	4.242275e-06	1.196949e-09	2.947656e+01	8.323334e+01
2.890000e-06	4.272150e-06	1.196642e-09	2.968415e+01	8.352504e+01
2.900000e-06	4.301717e-06	1.197707e-09	2.988959e+01	8.381210e+01
