# Temperatura_=_15.13
# Concentracion g/m^3_=_1620.0
# C_Vs_to_Am_M_A/Vsm_=_65563218390.804596
# pendiente_HvsI_1/m_=_3716.3
# ordenada_HvsI_A/m_=_1297.0
# frecuencia_Hz_=_135107.03156754957

Tiempo_(s)	Campo_(V.s)	Magnetizacion_(V.s)	Campo_(kA/m)	Magnetizacion_(A/m)
0.000000e+00	-5.527109e-06	-1.129983e-09	-3.837093e+01	-7.388319e+01
1.000000e-08	-5.527441e-06	-1.129104e-09	-3.837324e+01	-7.384689e+01
2.000000e-08	-5.527529e-06	-1.128461e-09	-3.837385e+01	-7.380851e+01
3.000000e-08	-5.527417e-06	-1.128074e-09	-3.837307e+01	-7.376803e+01
4.000000e-08	-5.526857e-06	-1.125623e-09	-3.836918e+01	-7.372544e+01
5.000000e-08	-5.525636e-06	-1.121825e-09	-3.836071e+01	-7.368075e+01
6.000000e-08	-5.523734e-06	-1.122678e-09	-3.834751e+01	-7.363394e+01
7.000000e-08	-5.521201e-06	-1.129564e-09	-3.832992e+01	-7.358502e+01
8.000000e-08	-5.518219e-06	-1.148414e-09	-3.830922e+01	-7.353397e+01
9.000000e-08	-5.514785e-06	-1.125766e-09	-3.828538e+01	-7.348081e+01
1.000000e-07	-5.510813e-06	-1.061101e-09	-3.825781e+01	-7.342552e+01
1.100000e-07	-5.506474e-06	-1.101687e-09	-3.822768e+01	-7.336812e+01
1.200000e-07	-5.501920e-06	-1.219635e-09	-3.819607e+01	-7.330862e+01
1.300000e-07	-5.497139e-06	-1.165930e-09	-3.816288e+01	-7.324702e+01
1.400000e-07	-5.492115e-06	-1.055395e-09	-3.812800e+01	-7.318334e+01
1.500000e-07	-5.486732e-06	-1.037242e-09	-3.809063e+01	-7.311760e+01
1.600000e-07	-5.480948e-06	-1.186217e-09	-3.805048e+01	-7.304982e+01
1.700000e-07	-5.474784e-06	-1.173767e-09	-3.800768e+01	-7.298002e+01
1.800000e-07	-5.468191e-06	-1.051942e-09	-3.796191e+01	-7.290822e+01
1.900000e-07	-5.461181e-06	-1.045086e-09	-3.791325e+01	-7.283446e+01
2.000000e-07	-5.453786e-06	-1.143052e-09	-3.786190e+01	-7.275876e+01
2.100000e-07	-5.446112e-06	-1.156867e-09	-3.780863e+01	-7.268115e+01
2.200000e-07	-5.438257e-06	-1.061106e-09	-3.775410e+01	-7.260167e+01
2.300000e-07	-5.430116e-06	-1.045724e-09	-3.769758e+01	-7.252035e+01
2.400000e-07	-5.421479e-06	-1.091257e-09	-3.763762e+01	-7.243722e+01
2.500000e-07	-5.412294e-06	-1.125351e-09	-3.757386e+01	-7.235231e+01
2.600000e-07	-5.402571e-06	-1.070156e-09	-3.750635e+01	-7.226565e+01
2.700000e-07	-5.392288e-06	-1.070941e-09	-3.743497e+01	-7.217728e+01
2.800000e-07	-5.381339e-06	-1.088427e-09	-3.735896e+01	-7.208721e+01
2.900000e-07	-5.369898e-06	-1.108875e-09	-3.727953e+01	-7.199546e+01
3.000000e-07	-5.358146e-06	-1.070404e-09	-3.719794e+01	-7.190207e+01
3.100000e-07	-5.345996e-06	-1.068281e-09	-3.711360e+01	-7.180703e+01
3.200000e-07	-5.333440e-06	-1.079054e-09	-3.702642e+01	-7.171036e+01
3.300000e-07	-5.320500e-06	-1.108101e-09	-3.693659e+01	-7.161206e+01
3.400000e-07	-5.307142e-06	-1.074983e-09	-3.684385e+01	-7.151213e+01
3.500000e-07	-5.293288e-06	-1.056233e-09	-3.674768e+01	-7.141056e+01
3.600000e-07	-5.278978e-06	-1.082971e-09	-3.664833e+01	-7.130733e+01
3.700000e-07	-5.264254e-06	-1.092416e-09	-3.654612e+01	-7.120242e+01
3.800000e-07	-5.249028e-06	-1.043598e-09	-3.644041e+01	-7.109580e+01
3.900000e-07	-5.233285e-06	-1.066868e-09	-3.633112e+01	-7.098744e+01
4.000000e-07	-5.217039e-06	-1.113741e-09	-3.621833e+01	-7.087728e+01
4.100000e-07	-5.200301e-06	-1.054696e-09	-3.610213e+01	-7.076527e+01
4.200000e-07	-5.183288e-06	-1.032757e-09	-3.598402e+01	-7.065137e+01
4.300000e-07	-5.166066e-06	-1.121589e-09	-3.586446e+01	-7.053549e+01
4.400000e-07	-5.148499e-06	-1.102364e-09	-3.574251e+01	-7.041758e+01
4.500000e-07	-5.130577e-06	-9.911121e-10	-3.561808e+01	-7.029754e+01
4.600000e-07	-5.112314e-06	-1.058398e-09	-3.549130e+01	-7.017530e+01
4.700000e-07	-5.093607e-06	-1.126292e-09	-3.536143e+01	-7.005077e+01
4.800000e-07	-5.074447e-06	-1.022668e-09	-3.522842e+01	-6.992385e+01
4.900000e-07	-5.055022e-06	-1.004455e-09	-3.509356e+01	-6.979445e+01
5.000000e-07	-5.035446e-06	-1.121134e-09	-3.495766e+01	-6.966247e+01
5.100000e-07	-5.015635e-06	-1.058187e-09	-3.482012e+01	-6.952780e+01
5.200000e-07	-4.995568e-06	-9.816519e-10	-3.468081e+01	-6.939035e+01
5.300000e-07	-4.975169e-06	-1.071941e-09	-3.453920e+01	-6.925000e+01
5.400000e-07	-4.954378e-06	-1.075061e-09	-3.439486e+01	-6.910666e+01
5.500000e-07	-4.933188e-06	-9.554821e-10	-3.424775e+01	-6.896021e+01
5.600000e-07	-4.911616e-06	-1.020123e-09	-3.409799e+01	-6.881057e+01
5.700000e-07	-4.889754e-06	-1.088522e-09	-3.394622e+01	-6.865762e+01
5.800000e-07	-4.867549e-06	-9.935638e-10	-3.379207e+01	-6.850128e+01
5.900000e-07	-4.845005e-06	-9.839857e-10	-3.363555e+01	-6.834146e+01
6.000000e-07	-4.822193e-06	-1.077678e-09	-3.347718e+01	-6.817806e+01
6.100000e-07	-4.798998e-06	-1.022234e-09	-3.331616e+01	-6.801101e+01
6.200000e-07	-4.775516e-06	-9.743718e-10	-3.315314e+01	-6.784024e+01
6.300000e-07	-4.751895e-06	-1.040131e-09	-3.298916e+01	-6.766567e+01
6.400000e-07	-4.727966e-06	-1.030105e-09	-3.282303e+01	-6.748725e+01
6.500000e-07	-4.703673e-06	-9.674832e-10	-3.265439e+01	-6.730491e+01
6.600000e-07	-4.679031e-06	-1.008852e-09	-3.248331e+01	-6.711862e+01
6.700000e-07	-4.653829e-06	-1.022711e-09	-3.230835e+01	-6.692834e+01
6.800000e-07	-4.628098e-06	-9.707869e-10	-3.212972e+01	-6.673402e+01
6.900000e-07	-4.601952e-06	-9.855686e-10	-3.194821e+01	-6.653565e+01
7.000000e-07	-4.575294e-06	-1.014455e-09	-3.176314e+01	-6.633321e+01
7.100000e-07	-4.548177e-06	-9.773708e-10	-3.157488e+01	-6.612668e+01
7.200000e-07	-4.520780e-06	-9.676134e-10	-3.138469e+01	-6.591607e+01
7.300000e-07	-4.493191e-06	-9.932253e-10	-3.119316e+01	-6.570137e+01
7.400000e-07	-4.465367e-06	-9.738545e-10	-3.099999e+01	-6.548259e+01
7.500000e-07	-4.437307e-06	-9.611345e-10	-3.080519e+01	-6.525974e+01
7.600000e-07	-4.409044e-06	-9.783479e-10	-3.060897e+01	-6.503284e+01
7.700000e-07	-4.380477e-06	-9.745520e-10	-3.041066e+01	-6.480190e+01
7.800000e-07	-4.351555e-06	-9.546246e-10	-3.020987e+01	-6.456695e+01
7.900000e-07	-4.322364e-06	-9.640631e-10	-3.000722e+01	-6.432801e+01
8.000000e-07	-4.292886e-06	-9.589673e-10	-2.980257e+01	-6.408510e+01
8.100000e-07	-4.263115e-06	-9.396598e-10	-2.959589e+01	-6.383825e+01
8.200000e-07	-4.233085e-06	-9.396628e-10	-2.938742e+01	-6.358748e+01
8.300000e-07	-4.202699e-06	-9.455127e-10	-2.917647e+01	-6.333281e+01
8.400000e-07	-4.171962e-06	-9.257875e-10	-2.896307e+01	-6.307427e+01
8.500000e-07	-4.140991e-06	-9.237058e-10	-2.874807e+01	-6.281186e+01
8.600000e-07	-4.109839e-06	-9.313826e-10	-2.853180e+01	-6.254561e+01
8.700000e-07	-4.078485e-06	-9.225594e-10	-2.831413e+01	-6.227552e+01
8.800000e-07	-4.046951e-06	-9.099976e-10	-2.809521e+01	-6.200159e+01
8.900000e-07	-4.015223e-06	-9.183900e-10	-2.787495e+01	-6.172382e+01
9.000000e-07	-3.983235e-06	-9.102115e-10	-2.765288e+01	-6.144221e+01
9.100000e-07	-3.951018e-06	-8.929046e-10	-2.742921e+01	-6.115675e+01
9.200000e-07	-3.918505e-06	-8.949285e-10	-2.720350e+01	-6.086741e+01
9.300000e-07	-3.885508e-06	-8.954381e-10	-2.697442e+01	-6.057416e+01
9.400000e-07	-3.852009e-06	-8.791404e-10	-2.674187e+01	-6.027699e+01
9.500000e-07	-3.818128e-06	-8.773425e-10	-2.650665e+01	-5.997585e+01
9.600000e-07	-3.783834e-06	-8.835260e-10	-2.626857e+01	-5.967070e+01
9.700000e-07	-3.749110e-06	-8.700436e-10	-2.602750e+01	-5.936149e+01
9.800000e-07	-3.714039e-06	-8.553842e-10	-2.578404e+01	-5.904817e+01
9.900000e-07	-3.678769e-06	-8.579424e-10	-2.553917e+01	-5.873069e+01
1.000000e-06	-3.643341e-06	-8.538084e-10	-2.529322e+01	-5.840899e+01
1.010000e-06	-3.607705e-06	-8.444064e-10	-2.504583e+01	-5.808299e+01
1.020000e-06	-3.571870e-06	-8.523533e-10	-2.479705e+01	-5.775265e+01
1.030000e-06	-3.535822e-06	-8.557006e-10	-2.454679e+01	-5.741790e+01
1.040000e-06	-3.499561e-06	-8.427207e-10	-2.429506e+01	-5.707866e+01
1.050000e-06	-3.463096e-06	-8.343009e-10	-2.404191e+01	-5.673489e+01
1.060000e-06	-3.426414e-06	-8.319617e-10	-2.378725e+01	-5.638652e+01
1.070000e-06	-3.389426e-06	-8.160519e-10	-2.353047e+01	-5.603348e+01
1.080000e-06	-3.352131e-06	-8.039159e-10	-2.327155e+01	-5.567573e+01
1.090000e-06	-3.314662e-06	-8.047599e-10	-2.301143e+01	-5.531321e+01
1.100000e-06	-3.276969e-06	-8.040245e-10	-2.274976e+01	-5.494588e+01
1.110000e-06	-3.238955e-06	-7.964629e-10	-2.248585e+01	-5.457371e+01
1.120000e-06	-3.200766e-06	-7.973360e-10	-2.222073e+01	-5.419666e+01
1.130000e-06	-3.162445e-06	-7.929801e-10	-2.195469e+01	-5.381472e+01
1.140000e-06	-3.123895e-06	-7.786864e-10	-2.168707e+01	-5.342785e+01
1.150000e-06	-3.085058e-06	-7.656966e-10	-2.141745e+01	-5.303607e+01
1.160000e-06	-3.045990e-06	-7.593097e-10	-2.114623e+01	-5.263936e+01
1.170000e-06	-3.006756e-06	-7.501572e-10	-2.087385e+01	-5.223775e+01
1.180000e-06	-2.967367e-06	-7.445502e-10	-2.060040e+01	-5.183125e+01
1.190000e-06	-2.927877e-06	-7.467024e-10	-2.032625e+01	-5.141989e+01
1.200000e-06	-2.888273e-06	-7.465872e-10	-2.005130e+01	-5.100370e+01
1.210000e-06	-2.848525e-06	-7.386558e-10	-1.977536e+01	-5.058272e+01
1.220000e-06	-2.808621e-06	-7.323165e-10	-1.949833e+01	-5.015701e+01
1.230000e-06	-2.768533e-06	-7.226316e-10	-1.922003e+01	-4.972662e+01
1.240000e-06	-2.728221e-06	-7.076741e-10	-1.894017e+01	-4.929159e+01
1.250000e-06	-2.687695e-06	-6.967566e-10	-1.865883e+01	-4.885200e+01
1.260000e-06	-2.646906e-06	-6.912180e-10	-1.837566e+01	-4.840791e+01
1.270000e-06	-2.605861e-06	-6.837471e-10	-1.809071e+01	-4.795936e+01
1.280000e-06	-2.564603e-06	-6.778396e-10	-1.780428e+01	-4.750642e+01
1.290000e-06	-2.523058e-06	-6.776145e-10	-1.751586e+01	-4.704914e+01
1.300000e-06	-2.481153e-06	-6.725658e-10	-1.722495e+01	-4.658757e+01
1.310000e-06	-2.438893e-06	-6.603069e-10	-1.693156e+01	-4.612174e+01
1.320000e-06	-2.396382e-06	-6.473961e-10	-1.663644e+01	-4.565167e+01
1.330000e-06	-2.353755e-06	-6.363116e-10	-1.634051e+01	-4.517739e+01
1.340000e-06	-2.310925e-06	-6.242397e-10	-1.604317e+01	-4.469887e+01
1.350000e-06	-2.267788e-06	-6.172414e-10	-1.574370e+01	-4.421611e+01
1.360000e-06	-2.224454e-06	-6.156798e-10	-1.544286e+01	-4.372906e+01
1.370000e-06	-2.181030e-06	-6.139567e-10	-1.514140e+01	-4.323766e+01
1.380000e-06	-2.137460e-06	-6.088929e-10	-1.483892e+01	-4.274182e+01
1.390000e-06	-2.093759e-06	-6.012773e-10	-1.453554e+01	-4.224142e+01
1.400000e-06	-2.050041e-06	-5.877879e-10	-1.423204e+01	-4.173633e+01
1.410000e-06	-2.006273e-06	-5.730532e-10	-1.392818e+01	-4.122637e+01
1.420000e-06	-1.962380e-06	-5.610757e-10	-1.362346e+01	-4.071134e+01
1.430000e-06	-1.918339e-06	-5.535516e-10	-1.331772e+01	-4.019101e+01
1.440000e-06	-1.874160e-06	-5.478087e-10	-1.301101e+01	-3.966511e+01
1.450000e-06	-1.829862e-06	-5.433131e-10	-1.270348e+01	-3.913334e+01
1.460000e-06	-1.785461e-06	-5.387347e-10	-1.239523e+01	-3.859537e+01
1.470000e-06	-1.740936e-06	-5.312215e-10	-1.208613e+01	-3.805083e+01
1.480000e-06	-1.696287e-06	-5.181045e-10	-1.177616e+01	-3.749933e+01
1.490000e-06	-1.651511e-06	-5.051970e-10	-1.146531e+01	-3.694044e+01
1.500000e-06	-1.606574e-06	-4.965223e-10	-1.115334e+01	-3.637368e+01
1.510000e-06	-1.561521e-06	-4.893880e-10	-1.084057e+01	-3.579858e+01
1.520000e-06	-1.516407e-06	-4.826529e-10	-1.052738e+01	-3.521461e+01
1.530000e-06	-1.471220e-06	-4.764498e-10	-1.021368e+01	-3.462122e+01
1.540000e-06	-1.425919e-06	-4.701896e-10	-9.899181e+00	-3.401785e+01
1.550000e-06	-1.380470e-06	-4.626562e-10	-9.583656e+00	-3.340392e+01
1.560000e-06	-1.334913e-06	-4.495644e-10	-9.267386e+00	-3.277881e+01
1.570000e-06	-1.289273e-06	-4.339356e-10	-8.950543e+00	-3.214190e+01
1.580000e-06	-1.243599e-06	-4.188012e-10	-8.633457e+00	-3.149258e+01
1.590000e-06	-1.197823e-06	-4.034239e-10	-8.315668e+00	-3.083020e+01
1.600000e-06	-1.151925e-06	-3.931285e-10	-7.997030e+00	-3.015414e+01
1.610000e-06	-1.105954e-06	-3.869703e-10	-7.677884e+00	-2.946376e+01
1.620000e-06	-1.059895e-06	-3.822999e-10	-7.358127e+00	-2.875843e+01
1.630000e-06	-1.013789e-06	-3.730100e-10	-7.038043e+00	-2.803756e+01
1.640000e-06	-9.675752e-07	-3.608235e-10	-6.717213e+00	-2.730054e+01
1.650000e-06	-9.213029e-07	-3.453876e-10	-6.395976e+00	-2.654681e+01
1.660000e-06	-8.749865e-07	-3.312841e-10	-6.074433e+00	-2.577583e+01
1.670000e-06	-8.286320e-07	-3.171559e-10	-5.752625e+00	-2.498709e+01
1.680000e-06	-7.822547e-07	-3.046076e-10	-5.430660e+00	-2.418013e+01
1.690000e-06	-7.358291e-07	-2.957512e-10	-5.108358e+00	-2.335452e+01
1.700000e-06	-6.893426e-07	-2.896298e-10	-4.785634e+00	-2.250989e+01
1.710000e-06	-6.427231e-07	-2.814171e-10	-4.461987e+00	-2.164590e+01
1.720000e-06	-5.960785e-07	-2.693349e-10	-4.138165e+00	-2.076231e+01
1.730000e-06	-5.494248e-07	-2.550694e-10	-3.814281e+00	-1.985889e+01
1.740000e-06	-5.027394e-07	-2.384725e-10	-3.490176e+00	-1.893551e+01
1.750000e-06	-4.560256e-07	-2.199188e-10	-3.165874e+00	-1.799210e+01
1.760000e-06	-4.092397e-07	-2.019585e-10	-2.841071e+00	-1.702866e+01
1.770000e-06	-3.624182e-07	-1.883739e-10	-2.516021e+00	-1.604527e+01
1.780000e-06	-3.155322e-07	-1.751126e-10	-2.190524e+00	-1.504208e+01
1.790000e-06	-2.686307e-07	-1.612034e-10	-1.864919e+00	-1.401931e+01
1.800000e-06	-2.217614e-07	-1.477260e-10	-1.539538e+00	-1.297728e+01
1.810000e-06	-1.749274e-07	-1.346863e-10	-1.214401e+00	-1.191638e+01
1.820000e-06	-1.281035e-07	-1.190678e-10	-8.893351e-01	-1.083707e+01
1.830000e-06	-8.124000e-08	-1.011373e-10	-5.639938e-01	-9.739918e+00
1.840000e-06	-3.438474e-08	-8.263113e-11	-2.387098e-01	-8.625545e+00
1.850000e-06	1.239907e-08	-6.604559e-11	8.607828e-02	-7.494661e+00
1.860000e-06	5.920071e-08	-5.199964e-11	4.109900e-01	-6.348051e+00
1.870000e-06	1.061431e-07	-3.773408e-11	7.368788e-01	-5.186574e+00
1.880000e-06	1.530847e-07	-2.217832e-11	1.062762e+00	-4.011160e+00
1.890000e-06	1.999205e-07	-8.814354e-12	1.387911e+00	-2.822804e+00
1.900000e-06	2.467841e-07	6.452618e-12	1.713253e+00	-1.622566e+00
1.910000e-06	2.937122e-07	2.242208e-11	2.039043e+00	-4.115663e-01
1.920000e-06	3.405698e-07	4.190930e-11	2.364343e+00	8.090239e-01
1.930000e-06	3.873797e-07	6.267799e-11	2.689312e+00	2.037983e+00
1.940000e-06	4.341814e-07	8.069235e-11	3.014225e+00	3.274046e+00
1.950000e-06	4.809944e-07	9.867404e-11	3.339215e+00	4.515910e+00
1.960000e-06	5.278109e-07	1.156671e-10	3.664230e+00	5.762244e+00
1.970000e-06	5.745499e-07	1.332057e-10	3.988707e+00	7.011689e+00
1.980000e-06	6.211479e-07	1.513802e-10	4.312205e+00	8.262868e+00
1.990000e-06	6.676671e-07	1.682276e-10	4.635156e+00	9.514395e+00
2.000000e-06	7.141563e-07	1.841336e-10	4.957899e+00	1.076488e+01
2.010000e-06	7.606032e-07	2.001095e-10	5.280348e+00	1.201292e+01
2.020000e-06	8.070435e-07	2.167980e-10	5.602751e+00	1.325715e+01
2.030000e-06	8.533941e-07	2.360042e-10	5.924532e+00	1.449620e+01
2.040000e-06	8.996755e-07	2.598152e-10	6.245831e+00	1.572872e+01
2.050000e-06	9.459167e-07	2.816051e-10	6.566853e+00	1.695340e+01
2.060000e-06	9.920861e-07	3.006938e-10	6.887375e+00	1.816896e+01
2.070000e-06	1.038158e-06	3.168700e-10	7.207221e+00	1.937416e+01
2.080000e-06	1.084058e-06	3.309365e-10	7.525871e+00	2.056780e+01
2.090000e-06	1.129888e-06	3.445770e-10	7.844036e+00	2.174875e+01
2.100000e-06	1.175752e-06	3.606862e-10	8.162441e+00	2.291592e+01
2.110000e-06	1.221569e-06	3.797987e-10	8.480520e+00	2.406828e+01
2.120000e-06	1.267268e-06	3.984699e-10	8.797775e+00	2.520488e+01
2.130000e-06	1.312824e-06	4.155003e-10	9.114039e+00	2.632483e+01
2.140000e-06	1.358273e-06	4.299082e-10	9.429559e+00	2.742730e+01
2.150000e-06	1.403617e-06	4.434858e-10	9.744352e+00	2.851155e+01
2.160000e-06	1.448902e-06	4.567221e-10	1.005873e+01	2.957692e+01
2.170000e-06	1.494099e-06	4.724910e-10	1.037251e+01	3.062282e+01
2.180000e-06	1.539150e-06	4.887518e-10	1.068527e+01	3.164872e+01
2.190000e-06	1.584125e-06	5.052626e-10	1.099750e+01	3.265420e+01
2.200000e-06	1.629014e-06	5.194853e-10	1.130913e+01	3.363891e+01
2.210000e-06	1.673772e-06	5.292481e-10	1.161985e+01	3.460258e+01
2.220000e-06	1.718342e-06	5.369072e-10	1.192927e+01	3.554499e+01
2.230000e-06	1.762732e-06	5.454749e-10	1.223744e+01	3.646604e+01
2.240000e-06	1.807010e-06	5.575594e-10	1.254483e+01	3.736567e+01
2.250000e-06	1.851144e-06	5.722564e-10	1.285123e+01	3.824390e+01
2.260000e-06	1.895117e-06	5.884306e-10	1.315650e+01	3.910084e+01
2.270000e-06	1.939022e-06	6.035675e-10	1.346130e+01	3.993662e+01
2.280000e-06	1.982861e-06	6.138371e-10	1.376565e+01	4.075148e+01
2.290000e-06	2.026627e-06	6.231236e-10	1.406948e+01	4.154569e+01
2.300000e-06	2.070378e-06	6.318741e-10	1.437322e+01	4.231957e+01
2.310000e-06	2.114024e-06	6.389655e-10	1.467622e+01	4.307350e+01
2.320000e-06	2.157570e-06	6.469491e-10	1.497853e+01	4.380791e+01
2.330000e-06	2.201107e-06	6.590486e-10	1.528078e+01	4.452325e+01
2.340000e-06	2.244549e-06	6.729022e-10	1.558237e+01	4.522001e+01
2.350000e-06	2.287820e-06	6.853266e-10	1.588277e+01	4.589873e+01
2.360000e-06	2.330845e-06	6.946119e-10	1.618147e+01	4.655995e+01
2.370000e-06	2.373652e-06	7.009357e-10	1.647864e+01	4.720425e+01
2.380000e-06	2.416201e-06	7.057123e-10	1.677403e+01	4.783219e+01
2.390000e-06	2.458434e-06	7.121175e-10	1.706723e+01	4.844439e+01
2.400000e-06	2.500386e-06	7.201580e-10	1.735847e+01	4.904144e+01
2.410000e-06	2.542035e-06	7.290474e-10	1.764761e+01	4.962393e+01
2.420000e-06	2.583379e-06	7.388816e-10	1.793463e+01	5.019248e+01
2.430000e-06	2.624537e-06	7.489656e-10	1.822037e+01	5.074766e+01
2.440000e-06	2.665392e-06	7.591134e-10	1.850399e+01	5.129007e+01
2.450000e-06	2.705891e-06	7.659299e-10	1.878515e+01	5.182027e+01
2.460000e-06	2.746190e-06	7.714686e-10	1.906492e+01	5.233880e+01
2.470000e-06	2.786261e-06	7.778781e-10	1.934310e+01	5.284620e+01
2.480000e-06	2.826148e-06	7.855151e-10	1.962001e+01	5.334298e+01
2.490000e-06	2.865943e-06	7.936092e-10	1.989628e+01	5.382961e+01
2.500000e-06	2.905646e-06	8.019578e-10	2.017192e+01	5.430656e+01
2.510000e-06	2.945199e-06	8.100108e-10	2.044650e+01	5.477426e+01
2.520000e-06	2.984582e-06	8.171283e-10	2.071991e+01	5.523310e+01
2.530000e-06	3.023785e-06	8.227712e-10	2.099207e+01	5.568347e+01
2.540000e-06	3.062824e-06	8.283527e-10	2.126309e+01	5.612569e+01
2.550000e-06	3.101611e-06	8.360448e-10	2.153236e+01	5.656009e+01
2.560000e-06	3.140127e-06	8.427838e-10	2.179975e+01	5.698694e+01
2.570000e-06	3.178505e-06	8.469447e-10	2.206619e+01	5.740651e+01
2.580000e-06	3.216729e-06	8.541821e-10	2.233155e+01	5.781901e+01
2.590000e-06	3.254712e-06	8.649410e-10	2.259524e+01	5.822465e+01
2.600000e-06	3.292502e-06	8.738976e-10	2.285759e+01	5.862360e+01
2.610000e-06	3.330158e-06	8.778785e-10	2.311901e+01	5.901600e+01
2.620000e-06	3.367513e-06	8.793551e-10	2.337834e+01	5.940199e+01
2.630000e-06	3.404450e-06	8.814997e-10	2.363477e+01	5.978166e+01
2.640000e-06	3.441134e-06	8.847520e-10	2.388944e+01	6.015511e+01
2.650000e-06	3.477602e-06	8.910379e-10	2.414261e+01	6.052240e+01
2.660000e-06	3.513809e-06	9.027019e-10	2.439397e+01	6.088359e+01
2.670000e-06	3.549797e-06	9.148051e-10	2.464381e+01	6.123872e+01
2.680000e-06	3.585621e-06	9.211574e-10	2.489251e+01	6.158781e+01
2.690000e-06	3.621323e-06	9.234623e-10	2.514037e+01	6.193089e+01
2.700000e-06	3.656899e-06	9.227286e-10	2.538735e+01	6.226798e+01
2.710000e-06	3.692289e-06	9.235805e-10	2.563304e+01	6.259909e+01
2.720000e-06	3.727489e-06	9.280750e-10	2.587740e+01	6.292421e+01
2.730000e-06	3.762469e-06	9.341305e-10	2.612025e+01	6.324336e+01
2.740000e-06	3.797088e-06	9.422136e-10	2.636058e+01	6.355655e+01
2.750000e-06	3.831283e-06	9.495339e-10	2.659798e+01	6.386378e+01
2.760000e-06	3.865020e-06	9.533011e-10	2.683219e+01	6.416507e+01
2.770000e-06	3.898279e-06	9.553809e-10	2.706308e+01	6.446044e+01
2.780000e-06	3.931101e-06	9.559413e-10	2.729095e+01	6.474990e+01
2.790000e-06	3.963550e-06	9.580237e-10	2.751622e+01	6.503349e+01
2.800000e-06	3.995702e-06	9.613711e-10	2.773942e+01	6.531124e+01
2.810000e-06	4.027625e-06	9.654127e-10	2.796104e+01	6.558320e+01
2.820000e-06	4.059367e-06	9.711509e-10	2.818141e+01	6.584942e+01
2.830000e-06	4.090937e-06	9.765832e-10	2.840057e+01	6.610996e+01
2.840000e-06	4.122309e-06	9.816178e-10	2.861837e+01	6.636490e+01
2.850000e-06	4.153451e-06	9.843293e-10	2.883457e+01	6.661430e+01
2.860000e-06	4.184315e-06	9.843616e-10	2.904883e+01	6.685825e+01
2.870000e-06	4.214797e-06	9.851910e-10	2.926045e+01	6.709685e+01
2.880000e-06	4.244978e-06	9.874122e-10	2.946998e+01	6.733018e+01
2.890000e-06	4.274946e-06	9.894487e-10	2.967802e+01	6.755837e+01
2.900000e-06	4.304561e-06	9.906962e-10	2.988362e+01	6.778151e+01
2.910000e-06	4.333826e-06	9.928259e-10	3.008679e+01	6.799971e+01
