# Temperatura_=_-24.19
# Concentracion g/m^3_=_1620.0
# C_Vs_to_Am_M_A/Vsm_=_65563218390.804596
# pendiente_HvsI_1/m_=_3716.3
# ordenada_HvsI_A/m_=_1297.0
# frecuencia_Hz_=_135102.38413985365

Tiempo_(s)	Campo_(V.s)	Magnetizacion_(V.s)	Campo_(kA/m)	Magnetizacion_(A/m)
0.000000e+00	-5.524207e-06	-7.054161e-10	-3.837698e+01	-4.472736e+01
1.000000e-08	-5.524338e-06	-7.013500e-10	-3.837788e+01	-4.470993e+01
2.000000e-08	-5.524230e-06	-7.004449e-10	-3.837713e+01	-4.468999e+01
3.000000e-08	-5.523764e-06	-7.012462e-10	-3.837390e+01	-4.466761e+01
4.000000e-08	-5.522851e-06	-7.024836e-10	-3.836756e+01	-4.464283e+01
5.000000e-08	-5.521383e-06	-7.031664e-10	-3.835736e+01	-4.461575e+01
6.000000e-08	-5.519311e-06	-7.021206e-10	-3.834296e+01	-4.458644e+01
7.000000e-08	-5.516628e-06	-7.230397e-10	-3.832432e+01	-4.455503e+01
8.000000e-08	-5.513356e-06	-7.252795e-10	-3.830159e+01	-4.452164e+01
9.000000e-08	-5.509590e-06	-6.702055e-10	-3.827543e+01	-4.448640e+01
1.000000e-07	-5.505499e-06	-6.383077e-10	-3.824701e+01	-4.444946e+01
1.100000e-07	-5.501183e-06	-7.133256e-10	-3.821702e+01	-4.441098e+01
1.200000e-07	-5.496560e-06	-7.124053e-10	-3.818491e+01	-4.437114e+01
1.300000e-07	-5.491658e-06	-7.336925e-10	-3.815085e+01	-4.433011e+01
1.400000e-07	-5.486436e-06	-6.676935e-10	-3.811458e+01	-4.428808e+01
1.500000e-07	-5.480764e-06	-7.214983e-10	-3.807517e+01	-4.424524e+01
1.600000e-07	-5.474654e-06	-7.160509e-10	-3.803273e+01	-4.420179e+01
1.700000e-07	-5.468252e-06	-7.064885e-10	-3.798825e+01	-4.415793e+01
1.800000e-07	-5.461443e-06	-6.883408e-10	-3.794095e+01	-4.411386e+01
1.900000e-07	-5.454208e-06	-6.861853e-10	-3.789069e+01	-4.406978e+01
2.000000e-07	-5.446706e-06	-7.041370e-10	-3.783857e+01	-4.402589e+01
2.100000e-07	-5.438928e-06	-6.929535e-10	-3.778454e+01	-4.398238e+01
2.200000e-07	-5.430935e-06	-6.893050e-10	-3.772901e+01	-4.393945e+01
2.300000e-07	-5.422676e-06	-6.423082e-10	-3.767164e+01	-4.389727e+01
2.400000e-07	-5.413789e-06	-6.578678e-10	-3.760990e+01	-4.385602e+01
2.500000e-07	-5.404236e-06	-6.339117e-10	-3.754353e+01	-4.381587e+01
2.600000e-07	-5.394149e-06	-6.556767e-10	-3.747346e+01	-4.377696e+01
2.700000e-07	-5.383446e-06	-6.233678e-10	-3.739910e+01	-4.373944e+01
2.800000e-07	-5.372251e-06	-6.461050e-10	-3.732133e+01	-4.370344e+01
2.900000e-07	-5.360657e-06	-6.192954e-10	-3.724078e+01	-4.366906e+01
3.000000e-07	-5.348612e-06	-6.309612e-10	-3.715711e+01	-4.363640e+01
3.100000e-07	-5.336146e-06	-6.087188e-10	-3.707051e+01	-4.360555e+01
3.200000e-07	-5.323333e-06	-6.518643e-10	-3.698149e+01	-4.357656e+01
3.300000e-07	-5.310087e-06	-6.345804e-10	-3.688947e+01	-4.354949e+01
3.400000e-07	-5.296460e-06	-6.330962e-10	-3.679481e+01	-4.352435e+01
3.500000e-07	-5.282520e-06	-6.295859e-10	-3.669796e+01	-4.350116e+01
3.600000e-07	-5.268213e-06	-6.493789e-10	-3.659857e+01	-4.347990e+01
3.700000e-07	-5.253324e-06	-6.076082e-10	-3.649514e+01	-4.346056e+01
3.800000e-07	-5.237814e-06	-6.247142e-10	-3.638739e+01	-4.344307e+01
3.900000e-07	-5.221787e-06	-6.571006e-10	-3.627604e+01	-4.342739e+01
4.000000e-07	-5.205308e-06	-6.286177e-10	-3.616157e+01	-4.341343e+01
4.100000e-07	-5.188474e-06	-6.095092e-10	-3.604462e+01	-4.340109e+01
4.200000e-07	-5.171373e-06	-6.574312e-10	-3.592582e+01	-4.339027e+01
4.300000e-07	-5.153971e-06	-6.560663e-10	-3.580492e+01	-4.338083e+01
4.400000e-07	-5.136173e-06	-5.868597e-10	-3.568128e+01	-4.337264e+01
4.500000e-07	-5.117998e-06	-6.289922e-10	-3.555502e+01	-4.336555e+01
4.600000e-07	-5.099420e-06	-6.587027e-10	-3.542596e+01	-4.335939e+01
4.700000e-07	-5.080430e-06	-6.125889e-10	-3.529403e+01	-4.335399e+01
4.800000e-07	-5.061077e-06	-6.090773e-10	-3.515959e+01	-4.334917e+01
4.900000e-07	-5.041464e-06	-6.818262e-10	-3.502333e+01	-4.334474e+01
5.000000e-07	-5.021675e-06	-6.281575e-10	-3.488586e+01	-4.334052e+01
5.100000e-07	-5.001685e-06	-5.993362e-10	-3.474699e+01	-4.333630e+01
5.200000e-07	-4.981441e-06	-6.537454e-10	-3.460635e+01	-4.333189e+01
5.300000e-07	-4.960876e-06	-6.585545e-10	-3.446349e+01	-4.332708e+01
5.400000e-07	-4.939848e-06	-5.853355e-10	-3.431740e+01	-4.332169e+01
5.500000e-07	-4.918461e-06	-6.338713e-10	-3.416882e+01	-4.331551e+01
5.600000e-07	-4.896802e-06	-6.546530e-10	-3.401836e+01	-4.330836e+01
5.700000e-07	-4.874793e-06	-6.082833e-10	-3.386546e+01	-4.330005e+01
5.800000e-07	-4.852345e-06	-6.117737e-10	-3.370951e+01	-4.329040e+01
5.900000e-07	-4.829606e-06	-6.615913e-10	-3.355155e+01	-4.327924e+01
6.000000e-07	-4.806632e-06	-6.149382e-10	-3.339194e+01	-4.326640e+01
6.100000e-07	-4.783321e-06	-6.086273e-10	-3.323000e+01	-4.325173e+01
6.200000e-07	-4.759726e-06	-6.443922e-10	-3.306609e+01	-4.323509e+01
6.300000e-07	-4.735903e-06	-6.288101e-10	-3.290058e+01	-4.321636e+01
6.400000e-07	-4.711809e-06	-6.032981e-10	-3.273320e+01	-4.319540e+01
6.500000e-07	-4.687354e-06	-6.394351e-10	-3.256331e+01	-4.317213e+01
6.600000e-07	-4.662524e-06	-6.329054e-10	-3.239082e+01	-4.314643e+01
6.700000e-07	-4.637148e-06	-6.060434e-10	-3.221453e+01	-4.311825e+01
6.800000e-07	-4.611100e-06	-6.229444e-10	-3.203357e+01	-4.308750e+01
6.900000e-07	-4.584438e-06	-6.314503e-10	-3.184835e+01	-4.305415e+01
7.000000e-07	-4.557305e-06	-6.113442e-10	-3.165986e+01	-4.301815e+01
7.100000e-07	-4.529961e-06	-6.180862e-10	-3.146990e+01	-4.297948e+01
7.200000e-07	-4.502472e-06	-6.306215e-10	-3.127892e+01	-4.293812e+01
7.300000e-07	-4.474790e-06	-6.117273e-10	-3.108662e+01	-4.289408e+01
7.400000e-07	-4.446908e-06	-6.129245e-10	-3.089292e+01	-4.284737e+01
7.500000e-07	-4.418831e-06	-6.192618e-10	-3.069786e+01	-4.279801e+01
7.600000e-07	-4.390508e-06	-6.143196e-10	-3.050110e+01	-4.274604e+01
7.700000e-07	-4.361806e-06	-6.100677e-10	-3.030171e+01	-4.269149e+01
7.800000e-07	-4.332747e-06	-6.249132e-10	-3.009983e+01	-4.263442e+01
7.900000e-07	-4.303358e-06	-6.162803e-10	-2.989567e+01	-4.257489e+01
8.000000e-07	-4.273727e-06	-6.071598e-10	-2.968982e+01	-4.251296e+01
8.100000e-07	-4.243851e-06	-6.054455e-10	-2.948227e+01	-4.244870e+01
8.200000e-07	-4.213691e-06	-6.093480e-10	-2.927275e+01	-4.238219e+01
8.300000e-07	-4.183145e-06	-5.984269e-10	-2.906054e+01	-4.231349e+01
8.400000e-07	-4.152178e-06	-6.049655e-10	-2.884541e+01	-4.224269e+01
8.500000e-07	-4.120959e-06	-6.063762e-10	-2.862854e+01	-4.216987e+01
8.600000e-07	-4.089602e-06	-6.034171e-10	-2.841069e+01	-4.209510e+01
8.700000e-07	-4.058072e-06	-5.976552e-10	-2.819165e+01	-4.201846e+01
8.800000e-07	-4.026315e-06	-6.068737e-10	-2.797104e+01	-4.194003e+01
8.900000e-07	-3.994391e-06	-5.991896e-10	-2.774926e+01	-4.185986e+01
9.000000e-07	-3.962223e-06	-5.919453e-10	-2.752578e+01	-4.177804e+01
9.100000e-07	-3.929807e-06	-5.941207e-10	-2.730059e+01	-4.169461e+01
9.200000e-07	-3.897145e-06	-5.975945e-10	-2.707369e+01	-4.160964e+01
9.300000e-07	-3.863979e-06	-5.888400e-10	-2.684328e+01	-4.152317e+01
9.400000e-07	-3.830224e-06	-5.914810e-10	-2.660878e+01	-4.143523e+01
9.500000e-07	-3.795970e-06	-5.954421e-10	-2.637082e+01	-4.134587e+01
9.600000e-07	-3.761313e-06	-5.930513e-10	-2.613006e+01	-4.125510e+01
9.700000e-07	-3.726328e-06	-5.918260e-10	-2.588701e+01	-4.116294e+01
9.800000e-07	-3.691053e-06	-5.969757e-10	-2.564195e+01	-4.106940e+01
9.900000e-07	-3.655611e-06	-5.949602e-10	-2.539574e+01	-4.097447e+01
1.000000e-06	-3.620008e-06	-5.881492e-10	-2.514840e+01	-4.087815e+01
1.010000e-06	-3.584232e-06	-5.917851e-10	-2.489986e+01	-4.078040e+01
1.020000e-06	-3.548307e-06	-5.929790e-10	-2.465029e+01	-4.068121e+01
1.030000e-06	-3.512217e-06	-5.890302e-10	-2.439957e+01	-4.058054e+01
1.040000e-06	-3.475913e-06	-5.881855e-10	-2.414736e+01	-4.047833e+01
1.050000e-06	-3.439315e-06	-5.922315e-10	-2.389311e+01	-4.037455e+01
1.060000e-06	-3.402401e-06	-5.876830e-10	-2.363667e+01	-4.026911e+01
1.070000e-06	-3.365190e-06	-5.850357e-10	-2.337817e+01	-4.016197e+01
1.080000e-06	-3.327752e-06	-5.839789e-10	-2.311808e+01	-4.005304e+01
1.090000e-06	-3.290108e-06	-5.837473e-10	-2.285657e+01	-3.994225e+01
1.100000e-06	-3.252259e-06	-5.778700e-10	-2.259363e+01	-3.982950e+01
1.110000e-06	-3.214254e-06	-5.785360e-10	-2.232960e+01	-3.971472e+01
1.120000e-06	-3.176028e-06	-5.770716e-10	-2.206404e+01	-3.959780e+01
1.130000e-06	-3.137525e-06	-5.770534e-10	-2.179656e+01	-3.947864e+01
1.140000e-06	-3.098823e-06	-5.760689e-10	-2.152770e+01	-3.935715e+01
1.150000e-06	-3.059930e-06	-5.784107e-10	-2.125751e+01	-3.923322e+01
1.160000e-06	-3.020815e-06	-5.747448e-10	-2.098577e+01	-3.910674e+01
1.170000e-06	-2.981519e-06	-5.719617e-10	-2.071278e+01	-3.897761e+01
1.180000e-06	-2.942088e-06	-5.668692e-10	-2.043885e+01	-3.884572e+01
1.190000e-06	-2.902507e-06	-5.630045e-10	-2.016388e+01	-3.871095e+01
1.200000e-06	-2.862774e-06	-5.581334e-10	-1.988785e+01	-3.857319e+01
1.210000e-06	-2.822879e-06	-5.574621e-10	-1.961070e+01	-3.843234e+01
1.220000e-06	-2.782911e-06	-5.563928e-10	-1.933304e+01	-3.828827e+01
1.230000e-06	-2.742839e-06	-5.550823e-10	-1.905465e+01	-3.814087e+01
1.240000e-06	-2.702516e-06	-5.538276e-10	-1.877453e+01	-3.799003e+01
1.250000e-06	-2.661937e-06	-5.532600e-10	-1.849262e+01	-3.783563e+01
1.260000e-06	-2.621105e-06	-5.520556e-10	-1.820896e+01	-3.767755e+01
1.270000e-06	-2.580037e-06	-5.492929e-10	-1.792366e+01	-3.751568e+01
1.280000e-06	-2.538776e-06	-5.475484e-10	-1.763702e+01	-3.734989e+01
1.290000e-06	-2.497182e-06	-5.459430e-10	-1.734806e+01	-3.718007e+01
1.300000e-06	-2.455159e-06	-5.428371e-10	-1.705613e+01	-3.700608e+01
1.310000e-06	-2.412830e-06	-5.369620e-10	-1.676207e+01	-3.682781e+01
1.320000e-06	-2.370282e-06	-5.311202e-10	-1.646649e+01	-3.664511e+01
1.330000e-06	-2.327472e-06	-5.247048e-10	-1.616908e+01	-3.645786e+01
1.340000e-06	-2.284385e-06	-5.216982e-10	-1.586975e+01	-3.626591e+01
1.350000e-06	-2.241051e-06	-5.218061e-10	-1.556871e+01	-3.606913e+01
1.360000e-06	-2.197543e-06	-5.226816e-10	-1.526645e+01	-3.586735e+01
1.370000e-06	-2.153922e-06	-5.200173e-10	-1.496341e+01	-3.566042e+01
1.380000e-06	-2.110179e-06	-5.167501e-10	-1.465953e+01	-3.544819e+01
1.390000e-06	-2.066352e-06	-5.107685e-10	-1.435506e+01	-3.523047e+01
1.400000e-06	-2.022451e-06	-5.054566e-10	-1.405008e+01	-3.500709e+01
1.410000e-06	-1.978522e-06	-5.021745e-10	-1.374490e+01	-3.477786e+01
1.420000e-06	-1.934550e-06	-5.030522e-10	-1.343942e+01	-3.454259e+01
1.430000e-06	-1.890520e-06	-5.035521e-10	-1.313355e+01	-3.430107e+01
1.440000e-06	-1.846460e-06	-5.025091e-10	-1.282746e+01	-3.405308e+01
1.450000e-06	-1.802288e-06	-4.977934e-10	-1.252059e+01	-3.379841e+01
1.460000e-06	-1.757966e-06	-4.926106e-10	-1.221269e+01	-3.353682e+01
1.470000e-06	-1.713556e-06	-4.868820e-10	-1.190417e+01	-3.326807e+01
1.480000e-06	-1.669007e-06	-4.820473e-10	-1.159469e+01	-3.299191e+01
1.490000e-06	-1.624313e-06	-4.777100e-10	-1.128419e+01	-3.270808e+01
1.500000e-06	-1.579452e-06	-4.748839e-10	-1.097254e+01	-3.241632e+01
1.510000e-06	-1.534379e-06	-4.721109e-10	-1.065942e+01	-3.211634e+01
1.520000e-06	-1.489151e-06	-4.687929e-10	-1.034521e+01	-3.180788e+01
1.530000e-06	-1.443804e-06	-4.633647e-10	-1.003018e+01	-3.149063e+01
1.540000e-06	-1.398398e-06	-4.579240e-10	-9.714751e+00	-3.116432e+01
1.550000e-06	-1.352883e-06	-4.515975e-10	-9.398554e+00	-3.082864e+01
1.560000e-06	-1.307358e-06	-4.458487e-10	-9.082290e+00	-3.048330e+01
1.570000e-06	-1.261807e-06	-4.409980e-10	-8.765847e+00	-3.012799e+01
1.580000e-06	-1.216043e-06	-4.356463e-10	-8.447922e+00	-2.976242e+01
1.590000e-06	-1.170150e-06	-4.294124e-10	-8.129095e+00	-2.938630e+01
1.600000e-06	-1.124256e-06	-4.245050e-10	-7.810270e+00	-2.899931e+01
1.610000e-06	-1.078265e-06	-4.195169e-10	-7.490769e+00	-2.860119e+01
1.620000e-06	-1.032093e-06	-4.105153e-10	-7.170007e+00	-2.819164e+01
1.630000e-06	-9.858346e-07	-4.013996e-10	-6.848649e+00	-2.777039e+01
1.640000e-06	-9.395548e-07	-3.936811e-10	-6.527140e+00	-2.733717e+01
1.650000e-06	-8.932792e-07	-3.859508e-10	-6.205661e+00	-2.689175e+01
1.660000e-06	-8.469883e-07	-3.763168e-10	-5.884075e+00	-2.643387e+01
1.670000e-06	-8.006067e-07	-3.693789e-10	-5.561860e+00	-2.596332e+01
1.680000e-06	-7.541824e-07	-3.637606e-10	-5.239347e+00	-2.547991e+01
1.690000e-06	-7.077167e-07	-3.575709e-10	-4.916547e+00	-2.498344e+01
1.700000e-06	-6.610434e-07	-3.497015e-10	-4.592306e+00	-2.447375e+01
1.710000e-06	-6.143796e-07	-3.409541e-10	-4.268129e+00	-2.395072e+01
1.720000e-06	-5.678604e-07	-3.312343e-10	-3.944958e+00	-2.341423e+01
1.730000e-06	-5.212362e-07	-3.215048e-10	-3.621057e+00	-2.286419e+01
1.740000e-06	-4.743735e-07	-3.122395e-10	-3.295499e+00	-2.230055e+01
1.750000e-06	-4.275220e-07	-3.033946e-10	-2.970019e+00	-2.172329e+01
1.760000e-06	-3.808085e-07	-2.946892e-10	-2.645498e+00	-2.113241e+01
1.770000e-06	-3.340220e-07	-2.873884e-10	-2.320469e+00	-2.052794e+01
1.780000e-06	-2.872493e-07	-2.781274e-10	-1.995537e+00	-1.990997e+01
1.790000e-06	-2.405712e-07	-2.683885e-10	-1.671262e+00	-1.927859e+01
1.800000e-06	-1.938223e-07	-2.583581e-10	-1.346494e+00	-1.863394e+01
1.810000e-06	-1.469723e-07	-2.477709e-10	-1.021024e+00	-1.797619e+01
1.820000e-06	-1.001498e-07	-2.365422e-10	-6.957460e-01	-1.730557e+01
1.830000e-06	-5.331519e-08	-2.248754e-10	-3.703836e-01	-1.662231e+01
1.840000e-06	-6.504088e-09	-2.143514e-10	-4.518426e-02	-1.592669e+01
1.850000e-06	4.019255e-08	-2.057194e-10	2.792199e-01	-1.521902e+01
1.860000e-06	8.689193e-08	-1.977466e-10	6.036431e-01	-1.449967e+01
1.870000e-06	1.337062e-07	-1.886816e-10	9.288645e-01	-1.376901e+01
1.880000e-06	1.805863e-07	-1.794649e-10	1.254543e+00	-1.302745e+01
1.890000e-06	2.274147e-07	-1.705030e-10	1.579863e+00	-1.227546e+01
1.900000e-06	2.741600e-07	-1.605493e-10	1.904605e+00	-1.151350e+01
1.910000e-06	3.209272e-07	-1.495144e-10	2.229499e+00	-1.074208e+01
1.920000e-06	3.676933e-07	-1.372582e-10	2.554386e+00	-9.961748e+00
1.930000e-06	4.143882e-07	-1.230862e-10	2.878778e+00	-9.173058e+00
1.940000e-06	4.610140e-07	-1.092562e-10	3.202690e+00	-8.376599e+00
1.950000e-06	5.075914e-07	-9.691879e-11	3.526266e+00	-7.572980e+00
1.960000e-06	5.541374e-07	-8.571150e-11	3.849624e+00	-6.762829e+00
1.970000e-06	6.006502e-07	-7.490970e-11	4.172751e+00	-5.946795e+00
1.980000e-06	6.471199e-07	-6.492891e-11	4.495578e+00	-5.125539e+00
1.990000e-06	6.935854e-07	-5.623766e-11	4.818377e+00	-4.299739e+00
2.000000e-06	7.400299e-07	-4.618342e-11	5.141029e+00	-3.470082e+00
2.010000e-06	7.863100e-07	-3.269079e-11	5.462540e+00	-2.637263e+00
2.020000e-06	8.325558e-07	-1.832380e-11	5.783812e+00	-1.801985e+00
2.030000e-06	8.787954e-07	-2.482373e-12	6.105041e+00	-9.649545e-01
2.040000e-06	9.249769e-07	1.098493e-11	6.425867e+00	-1.268771e-01
2.050000e-06	9.711544e-07	2.176509e-11	6.746664e+00	7.115410e-01
2.060000e-06	1.017265e-06	3.145536e-11	7.066998e+00	1.549598e+00
2.070000e-06	1.063262e-06	4.131258e-11	7.386539e+00	2.386597e+00
2.080000e-06	1.109141e-06	5.373563e-11	7.705262e+00	3.221852e+00
2.090000e-06	1.154915e-06	6.890727e-11	8.023262e+00	4.054685e+00
2.100000e-06	1.200622e-06	8.706792e-11	8.340788e+00	4.884432e+00
2.110000e-06	1.246252e-06	1.009801e-10	8.657784e+00	5.710444e+00
2.120000e-06	1.291792e-06	1.088685e-10	8.974153e+00	6.532088e+00
2.130000e-06	1.337318e-06	1.160567e-10	9.290426e+00	7.348751e+00
2.140000e-06	1.382783e-06	1.252183e-10	9.606271e+00	8.159838e+00
2.150000e-06	1.428043e-06	1.373541e-10	9.920696e+00	8.964777e+00
2.160000e-06	1.473206e-06	1.514282e-10	1.023444e+01	9.763021e+00
2.170000e-06	1.518318e-06	1.680846e-10	1.054784e+01	1.055404e+01
2.180000e-06	1.563302e-06	1.822026e-10	1.086035e+01	1.133735e+01
2.190000e-06	1.608190e-06	1.928456e-10	1.117219e+01	1.211247e+01
2.200000e-06	1.652943e-06	2.002080e-10	1.148309e+01	1.287895e+01
2.210000e-06	1.697581e-06	2.046892e-10	1.179319e+01	1.363638e+01
2.220000e-06	1.742137e-06	2.095464e-10	1.210272e+01	1.438438e+01
2.230000e-06	1.786527e-06	2.189836e-10	1.241111e+01	1.512259e+01
2.240000e-06	1.830774e-06	2.338619e-10	1.271849e+01	1.585067e+01
2.250000e-06	1.874955e-06	2.512217e-10	1.302542e+01	1.656833e+01
2.260000e-06	1.919050e-06	2.683606e-10	1.333175e+01	1.727530e+01
2.270000e-06	1.962991e-06	2.798531e-10	1.363701e+01	1.797134e+01
2.280000e-06	2.006851e-06	2.851896e-10	1.394171e+01	1.865623e+01
2.290000e-06	2.050683e-06	2.893765e-10	1.424621e+01	1.932981e+01
2.300000e-06	2.094440e-06	2.940930e-10	1.455019e+01	1.999190e+01
2.310000e-06	2.138097e-06	3.015327e-10	1.485348e+01	2.064238e+01
2.320000e-06	2.181659e-06	3.141270e-10	1.515611e+01	2.128115e+01
2.330000e-06	2.225114e-06	3.295785e-10	1.545799e+01	2.190814e+01
2.340000e-06	2.268411e-06	3.434231e-10	1.575878e+01	2.252329e+01
2.350000e-06	2.311528e-06	3.529851e-10	1.605831e+01	2.312659e+01
2.360000e-06	2.354402e-06	3.583914e-10	1.635616e+01	2.371801e+01
2.370000e-06	2.397031e-06	3.611166e-10	1.665231e+01	2.429758e+01
2.380000e-06	2.439395e-06	3.655153e-10	1.694661e+01	2.486534e+01
2.390000e-06	2.481452e-06	3.720643e-10	1.723879e+01	2.542134e+01
2.400000e-06	2.523136e-06	3.804777e-10	1.752837e+01	2.596566e+01
2.410000e-06	2.564497e-06	3.914965e-10	1.781570e+01	2.649839e+01
2.420000e-06	2.605741e-06	4.040946e-10	1.810223e+01	2.701962e+01
2.430000e-06	2.646678e-06	4.132830e-10	1.838662e+01	2.752950e+01
2.440000e-06	2.687209e-06	4.187992e-10	1.866819e+01	2.802814e+01
2.450000e-06	2.727505e-06	4.231016e-10	1.894813e+01	2.851569e+01
2.460000e-06	2.767620e-06	4.277532e-10	1.922681e+01	2.899230e+01
2.470000e-06	2.807606e-06	4.340890e-10	1.950459e+01	2.945814e+01
2.480000e-06	2.847457e-06	4.416658e-10	1.978144e+01	2.991338e+01
2.490000e-06	2.887223e-06	4.487793e-10	2.005770e+01	3.035819e+01
2.500000e-06	2.926862e-06	4.566569e-10	2.033307e+01	3.079276e+01
2.510000e-06	2.966286e-06	4.656346e-10	2.060696e+01	3.121727e+01
2.520000e-06	3.005523e-06	4.736896e-10	2.087954e+01	3.163191e+01
2.530000e-06	3.044612e-06	4.809239e-10	2.115109e+01	3.203688e+01
2.540000e-06	3.083527e-06	4.881999e-10	2.142143e+01	3.243237e+01
2.550000e-06	3.122167e-06	4.949563e-10	2.168987e+01	3.281857e+01
2.560000e-06	3.160540e-06	5.015340e-10	2.195645e+01	3.319566e+01
2.570000e-06	3.198722e-06	5.089791e-10	2.222170e+01	3.356385e+01
2.580000e-06	3.236713e-06	5.177327e-10	2.248563e+01	3.392333e+01
2.590000e-06	3.274411e-06	5.239802e-10	2.274752e+01	3.427427e+01
2.600000e-06	3.311865e-06	5.273595e-10	2.300771e+01	3.461685e+01
2.610000e-06	3.349114e-06	5.292571e-10	2.326649e+01	3.495127e+01
2.620000e-06	3.386178e-06	5.309952e-10	2.352397e+01	3.527768e+01
2.630000e-06	3.423050e-06	5.361811e-10	2.378012e+01	3.559626e+01
2.640000e-06	3.459658e-06	5.412457e-10	2.403444e+01	3.590717e+01
2.650000e-06	3.496011e-06	5.463005e-10	2.428699e+01	3.621056e+01
2.660000e-06	3.532214e-06	5.526276e-10	2.453849e+01	3.650659e+01
2.670000e-06	3.568257e-06	5.580692e-10	2.478888e+01	3.679540e+01
2.680000e-06	3.604053e-06	5.597605e-10	2.503756e+01	3.707713e+01
2.690000e-06	3.639733e-06	5.589574e-10	2.528543e+01	3.735190e+01
2.700000e-06	3.675283e-06	5.575858e-10	2.553240e+01	3.761984e+01
2.710000e-06	3.710610e-06	5.580774e-10	2.577782e+01	3.788107e+01
2.720000e-06	3.745734e-06	5.612441e-10	2.602182e+01	3.813570e+01
2.730000e-06	3.780518e-06	5.679505e-10	2.626347e+01	3.838383e+01
2.740000e-06	3.814838e-06	5.759579e-10	2.650189e+01	3.862556e+01
2.750000e-06	3.848697e-06	5.808702e-10	2.673711e+01	3.886098e+01
2.760000e-06	3.882078e-06	5.819311e-10	2.696901e+01	3.909018e+01
2.770000e-06	3.915032e-06	5.802397e-10	2.719795e+01	3.931324e+01
2.780000e-06	3.947659e-06	5.797935e-10	2.742461e+01	3.953022e+01
2.790000e-06	3.979971e-06	5.819233e-10	2.764908e+01	3.974121e+01
2.800000e-06	4.011986e-06	5.842492e-10	2.787149e+01	3.994626e+01
2.810000e-06	4.043825e-06	5.868300e-10	2.809268e+01	4.014544e+01
2.820000e-06	4.075465e-06	5.899647e-10	2.831248e+01	4.033880e+01
2.830000e-06	4.106866e-06	5.939966e-10	2.853063e+01	4.052641e+01
2.840000e-06	4.138106e-06	5.972756e-10	2.874765e+01	4.070830e+01
2.850000e-06	4.169083e-06	5.981408e-10	2.896285e+01	4.088453e+01
2.860000e-06	4.199726e-06	5.973487e-10	2.917573e+01	4.105515e+01
2.870000e-06	4.230072e-06	5.967088e-10	2.938655e+01	4.122021e+01
2.880000e-06	4.260156e-06	5.979330e-10	2.959555e+01	4.137975e+01
2.890000e-06	4.289905e-06	5.987984e-10	2.980221e+01	4.153383e+01
2.900000e-06	4.319259e-06	5.995216e-10	3.000613e+01	4.168248e+01
