# Temperatura_=_-0.39
# Concentracion g/m^3_=_1620.0
# C_Vs_to_Am_M_A/Vsm_=_65563218390.804596
# pendiente_HvsI_1/m_=_3716.3
# ordenada_HvsI_A/m_=_1297.0
# frecuencia_Hz_=_135092.53341002227

Tiempo_(s)	Campo_(V.s)	Magnetizacion_(V.s)	Campo_(kA/m)	Magnetizacion_(A/m)
0.000000e+00	-5.503841e-06	-1.734193e-09	-3.838751e+01	-1.118294e+02
1.000000e-08	-5.503920e-06	-1.731316e-09	-3.838806e+01	-1.117860e+02
2.000000e-08	-5.503822e-06	-1.730880e-09	-3.838738e+01	-1.117391e+02
3.000000e-08	-5.503385e-06	-1.731769e-09	-3.838433e+01	-1.116888e+02
4.000000e-08	-5.502358e-06	-1.731337e-09	-3.837717e+01	-1.116353e+02
5.000000e-08	-5.500644e-06	-1.729129e-09	-3.836521e+01	-1.115788e+02
6.000000e-08	-5.498270e-06	-1.720734e-09	-3.834866e+01	-1.115194e+02
7.000000e-08	-5.495383e-06	-1.723717e-09	-3.832852e+01	-1.114573e+02
8.000000e-08	-5.492073e-06	-1.750646e-09	-3.830543e+01	-1.113926e+02
9.000000e-08	-5.488290e-06	-1.767700e-09	-3.827905e+01	-1.113255e+02
1.000000e-07	-5.484076e-06	-1.739647e-09	-3.824965e+01	-1.112561e+02
1.100000e-07	-5.479612e-06	-1.735252e-09	-3.821852e+01	-1.111846e+02
1.200000e-07	-5.474941e-06	-1.685269e-09	-3.818594e+01	-1.111110e+02
1.300000e-07	-5.470039e-06	-1.726363e-09	-3.815175e+01	-1.110355e+02
1.400000e-07	-5.464842e-06	-1.706812e-09	-3.811550e+01	-1.109581e+02
1.500000e-07	-5.459224e-06	-1.737331e-09	-3.807632e+01	-1.108790e+02
1.600000e-07	-5.453187e-06	-1.721446e-09	-3.803422e+01	-1.107980e+02
1.700000e-07	-5.446799e-06	-1.711122e-09	-3.798966e+01	-1.107154e+02
1.800000e-07	-5.439969e-06	-1.704164e-09	-3.794203e+01	-1.106311e+02
1.900000e-07	-5.432616e-06	-1.673553e-09	-3.789074e+01	-1.105451e+02
2.000000e-07	-5.424983e-06	-1.680740e-09	-3.783750e+01	-1.104574e+02
2.100000e-07	-5.417154e-06	-1.660017e-09	-3.778289e+01	-1.103679e+02
2.200000e-07	-5.409035e-06	-1.685975e-09	-3.772627e+01	-1.102766e+02
2.300000e-07	-5.400667e-06	-1.659423e-09	-3.766790e+01	-1.101834e+02
2.400000e-07	-5.391873e-06	-1.667621e-09	-3.760657e+01	-1.100882e+02
2.500000e-07	-5.382184e-06	-1.621812e-09	-3.753899e+01	-1.099908e+02
2.600000e-07	-5.371625e-06	-1.645598e-09	-3.746534e+01	-1.098912e+02
2.700000e-07	-5.360624e-06	-1.638078e-09	-3.738861e+01	-1.097892e+02
2.800000e-07	-5.349276e-06	-1.650441e-09	-3.730947e+01	-1.096845e+02
2.900000e-07	-5.337575e-06	-1.612948e-09	-3.722785e+01	-1.095771e+02
3.000000e-07	-5.325534e-06	-1.630175e-09	-3.714388e+01	-1.094667e+02
3.100000e-07	-5.313108e-06	-1.624073e-09	-3.705721e+01	-1.093531e+02
3.200000e-07	-5.300241e-06	-1.629391e-09	-3.696746e+01	-1.092361e+02
3.300000e-07	-5.286915e-06	-1.602998e-09	-3.687452e+01	-1.091155e+02
3.400000e-07	-5.273249e-06	-1.608418e-09	-3.677920e+01	-1.089909e+02
3.500000e-07	-5.259249e-06	-1.607746e-09	-3.668156e+01	-1.088622e+02
3.600000e-07	-5.244725e-06	-1.609930e-09	-3.658026e+01	-1.087291e+02
3.700000e-07	-5.229719e-06	-1.587819e-09	-3.647560e+01	-1.085914e+02
3.800000e-07	-5.214271e-06	-1.586531e-09	-3.636785e+01	-1.084488e+02
3.900000e-07	-5.198276e-06	-1.599437e-09	-3.625629e+01	-1.083010e+02
4.000000e-07	-5.181819e-06	-1.593246e-09	-3.614151e+01	-1.081478e+02
4.100000e-07	-5.165031e-06	-1.593820e-09	-3.602442e+01	-1.079891e+02
4.200000e-07	-5.147964e-06	-1.594070e-09	-3.590538e+01	-1.078244e+02
4.300000e-07	-5.130570e-06	-1.592085e-09	-3.578406e+01	-1.076537e+02
4.400000e-07	-5.112863e-06	-1.553818e-09	-3.566056e+01	-1.074767e+02
4.500000e-07	-5.094808e-06	-1.569945e-09	-3.553463e+01	-1.072932e+02
4.600000e-07	-5.076238e-06	-1.567851e-09	-3.540511e+01	-1.071031e+02
4.700000e-07	-5.057153e-06	-1.562031e-09	-3.527200e+01	-1.069061e+02
4.800000e-07	-5.037857e-06	-1.557978e-09	-3.513742e+01	-1.067021e+02
4.900000e-07	-5.018438e-06	-1.591984e-09	-3.500198e+01	-1.064910e+02
5.000000e-07	-4.998730e-06	-1.554866e-09	-3.486452e+01	-1.062727e+02
5.100000e-07	-4.978782e-06	-1.536087e-09	-3.472539e+01	-1.060471e+02
5.200000e-07	-4.958551e-06	-1.538439e-09	-3.458429e+01	-1.058141e+02
5.300000e-07	-4.937876e-06	-1.539003e-09	-3.444009e+01	-1.055737e+02
5.400000e-07	-4.916900e-06	-1.498358e-09	-3.429378e+01	-1.053258e+02
5.500000e-07	-4.895637e-06	-1.525146e-09	-3.414548e+01	-1.050704e+02
5.600000e-07	-4.873938e-06	-1.534405e-09	-3.399414e+01	-1.048076e+02
5.700000e-07	-4.851985e-06	-1.517849e-09	-3.384103e+01	-1.045374e+02
5.800000e-07	-4.829700e-06	-1.508352e-09	-3.368560e+01	-1.042598e+02
5.900000e-07	-4.806936e-06	-1.524180e-09	-3.352682e+01	-1.039749e+02
6.000000e-07	-4.783797e-06	-1.491801e-09	-3.336543e+01	-1.036828e+02
6.100000e-07	-4.760424e-06	-1.480207e-09	-3.320242e+01	-1.033836e+02
6.200000e-07	-4.736868e-06	-1.494420e-09	-3.303812e+01	-1.030774e+02
6.300000e-07	-4.713134e-06	-1.487801e-09	-3.287258e+01	-1.027645e+02
6.400000e-07	-4.689128e-06	-1.469351e-09	-3.270515e+01	-1.024448e+02
6.500000e-07	-4.664749e-06	-1.480824e-09	-3.253511e+01	-1.021186e+02
6.600000e-07	-4.639926e-06	-1.478467e-09	-3.236198e+01	-1.017861e+02
6.700000e-07	-4.614602e-06	-1.456680e-09	-3.218536e+01	-1.014474e+02
6.800000e-07	-4.588718e-06	-1.458442e-09	-3.200482e+01	-1.011027e+02
6.900000e-07	-4.562282e-06	-1.454345e-09	-3.182044e+01	-1.007522e+02
7.000000e-07	-4.535292e-06	-1.435162e-09	-3.163219e+01	-1.003961e+02
7.100000e-07	-4.507908e-06	-1.425991e-09	-3.144120e+01	-1.000345e+02
7.200000e-07	-4.480371e-06	-1.436223e-09	-3.124914e+01	-9.966775e+01
7.300000e-07	-4.452710e-06	-1.424276e-09	-3.105621e+01	-9.929590e+01
7.400000e-07	-4.424889e-06	-1.419498e-09	-3.086217e+01	-9.891917e+01
7.500000e-07	-4.396871e-06	-1.417035e-09	-3.066675e+01	-9.853772e+01
7.600000e-07	-4.368566e-06	-1.414094e-09	-3.046934e+01	-9.815170e+01
7.700000e-07	-4.339898e-06	-1.394193e-09	-3.026938e+01	-9.776125e+01
7.800000e-07	-4.310904e-06	-1.392777e-09	-3.006716e+01	-9.736652e+01
7.900000e-07	-4.281640e-06	-1.383594e-09	-2.986305e+01	-9.696761e+01
8.000000e-07	-4.252051e-06	-1.375913e-09	-2.965668e+01	-9.656463e+01
8.100000e-07	-4.222154e-06	-1.364396e-09	-2.944815e+01	-9.615767e+01
8.200000e-07	-4.191942e-06	-1.365272e-09	-2.923744e+01	-9.574680e+01
8.300000e-07	-4.161485e-06	-1.350650e-09	-2.902501e+01	-9.533206e+01
8.400000e-07	-4.130761e-06	-1.343161e-09	-2.881072e+01	-9.491349e+01
8.500000e-07	-4.099721e-06	-1.335710e-09	-2.859423e+01	-9.449110e+01
8.600000e-07	-4.068476e-06	-1.331307e-09	-2.837630e+01	-9.406490e+01
8.700000e-07	-4.037022e-06	-1.319544e-09	-2.815692e+01	-9.363486e+01
8.800000e-07	-4.005393e-06	-1.319640e-09	-2.793632e+01	-9.320094e+01
8.900000e-07	-3.973626e-06	-1.313669e-09	-2.771476e+01	-9.276308e+01
9.000000e-07	-3.941646e-06	-1.301897e-09	-2.749171e+01	-9.232121e+01
9.100000e-07	-3.909345e-06	-1.292787e-09	-2.726641e+01	-9.187525e+01
9.200000e-07	-3.876732e-06	-1.288223e-09	-2.703895e+01	-9.142509e+01
9.300000e-07	-3.843622e-06	-1.277304e-09	-2.680802e+01	-9.097061e+01
9.400000e-07	-3.809947e-06	-1.269675e-09	-2.657315e+01	-9.051169e+01
9.500000e-07	-3.775780e-06	-1.266175e-09	-2.633484e+01	-9.004818e+01
9.600000e-07	-3.741242e-06	-1.257211e-09	-2.609395e+01	-8.957994e+01
9.700000e-07	-3.706413e-06	-1.248652e-09	-2.585103e+01	-8.910681e+01
9.800000e-07	-3.671230e-06	-1.242416e-09	-2.560564e+01	-8.862864e+01
9.900000e-07	-3.635825e-06	-1.235688e-09	-2.535870e+01	-8.814525e+01
1.000000e-06	-3.600283e-06	-1.224476e-09	-2.511081e+01	-8.765649e+01
1.010000e-06	-3.564592e-06	-1.221875e-09	-2.486188e+01	-8.716218e+01
1.020000e-06	-3.528776e-06	-1.215895e-09	-2.461207e+01	-8.666217e+01
1.030000e-06	-3.492752e-06	-1.209075e-09	-2.436081e+01	-8.615629e+01
1.040000e-06	-3.456423e-06	-1.202231e-09	-2.410743e+01	-8.564438e+01
1.050000e-06	-3.419874e-06	-1.199066e-09	-2.385251e+01	-8.512630e+01
1.060000e-06	-3.383102e-06	-1.185504e-09	-2.359604e+01	-8.460191e+01
1.070000e-06	-3.346036e-06	-1.175487e-09	-2.333752e+01	-8.407108e+01
1.080000e-06	-3.308760e-06	-1.167954e-09	-2.307753e+01	-8.353368e+01
1.090000e-06	-3.271237e-06	-1.162978e-09	-2.281582e+01	-8.298961e+01
1.100000e-06	-3.233490e-06	-1.152664e-09	-2.255255e+01	-8.243877e+01
1.110000e-06	-3.195573e-06	-1.148283e-09	-2.228808e+01	-8.188109e+01
1.120000e-06	-3.157317e-06	-1.138283e-09	-2.202126e+01	-8.131649e+01
1.130000e-06	-3.118858e-06	-1.127017e-09	-2.175302e+01	-8.074492e+01
1.140000e-06	-3.080280e-06	-1.116107e-09	-2.148396e+01	-8.016635e+01
1.150000e-06	-3.041362e-06	-1.109978e-09	-2.121252e+01	-7.958075e+01
1.160000e-06	-3.002244e-06	-1.099642e-09	-2.093968e+01	-7.898811e+01
1.170000e-06	-2.963013e-06	-1.091454e-09	-2.066606e+01	-7.838844e+01
1.180000e-06	-2.923637e-06	-1.082467e-09	-2.039142e+01	-7.778176e+01
1.190000e-06	-2.884142e-06	-1.071426e-09	-2.011595e+01	-7.716808e+01
1.200000e-06	-2.844530e-06	-1.059177e-09	-1.983967e+01	-7.654746e+01
1.210000e-06	-2.804827e-06	-1.049593e-09	-1.956276e+01	-7.591994e+01
1.220000e-06	-2.764960e-06	-1.040296e-09	-1.928470e+01	-7.528557e+01
1.230000e-06	-2.724977e-06	-1.028769e-09	-1.900583e+01	-7.464442e+01
1.240000e-06	-2.684740e-06	-1.019423e-09	-1.872519e+01	-7.399655e+01
1.250000e-06	-2.644287e-06	-1.010889e-09	-1.844305e+01	-7.334202e+01
1.260000e-06	-2.603620e-06	-1.001231e-09	-1.815941e+01	-7.268091e+01
1.270000e-06	-2.562582e-06	-9.914401e-10	-1.787318e+01	-7.201328e+01
1.280000e-06	-2.521337e-06	-9.824800e-10	-1.758551e+01	-7.133917e+01
1.290000e-06	-2.479842e-06	-9.704581e-10	-1.729610e+01	-7.065865e+01
1.300000e-06	-2.437960e-06	-9.574681e-10	-1.700398e+01	-6.997175e+01
1.310000e-06	-2.395823e-06	-9.431002e-10	-1.671009e+01	-6.927849e+01
1.320000e-06	-2.353443e-06	-9.304072e-10	-1.641451e+01	-6.857888e+01
1.330000e-06	-2.310792e-06	-9.177670e-10	-1.611702e+01	-6.787292e+01
1.340000e-06	-2.267928e-06	-9.081060e-10	-1.581806e+01	-6.716058e+01
1.350000e-06	-2.224820e-06	-8.989254e-10	-1.551740e+01	-6.644179e+01
1.360000e-06	-2.181527e-06	-8.915154e-10	-1.521544e+01	-6.571649e+01
1.370000e-06	-2.138128e-06	-8.809849e-10	-1.491275e+01	-6.498458e+01
1.380000e-06	-2.094680e-06	-8.681909e-10	-1.460971e+01	-6.424591e+01
1.390000e-06	-2.051107e-06	-8.499448e-10	-1.430581e+01	-6.350033e+01
1.400000e-06	-2.007385e-06	-8.337701e-10	-1.400086e+01	-6.274764e+01
1.410000e-06	-1.963585e-06	-8.201247e-10	-1.369537e+01	-6.198762e+01
1.420000e-06	-1.919787e-06	-8.103439e-10	-1.338989e+01	-6.121999e+01
1.430000e-06	-1.875946e-06	-8.008110e-10	-1.308412e+01	-6.044447e+01
1.440000e-06	-1.831949e-06	-7.917851e-10	-1.277725e+01	-5.966072e+01
1.450000e-06	-1.787761e-06	-7.794362e-10	-1.246906e+01	-5.886839e+01
1.460000e-06	-1.743425e-06	-7.659685e-10	-1.215983e+01	-5.806705e+01
1.470000e-06	-1.698982e-06	-7.529368e-10	-1.184985e+01	-5.725630e+01
1.480000e-06	-1.654391e-06	-7.415577e-10	-1.153884e+01	-5.643565e+01
1.490000e-06	-1.609631e-06	-7.305805e-10	-1.122666e+01	-5.560460e+01
1.500000e-06	-1.564774e-06	-7.201306e-10	-1.091380e+01	-5.476265e+01
1.510000e-06	-1.519845e-06	-7.082345e-10	-1.060043e+01	-5.390921e+01
1.520000e-06	-1.474842e-06	-6.938680e-10	-1.028655e+01	-5.304373e+01
1.530000e-06	-1.429728e-06	-6.801405e-10	-9.971889e+00	-5.216559e+01
1.540000e-06	-1.384473e-06	-6.698603e-10	-9.656249e+00	-5.127416e+01
1.550000e-06	-1.339138e-06	-6.596304e-10	-9.340057e+00	-5.036882e+01
1.560000e-06	-1.293730e-06	-6.488694e-10	-9.023347e+00	-4.944891e+01
1.570000e-06	-1.248213e-06	-6.404340e-10	-8.705883e+00	-4.851377e+01
1.580000e-06	-1.202593e-06	-6.278257e-10	-8.387699e+00	-4.756272e+01
1.590000e-06	-1.156935e-06	-6.091674e-10	-8.069244e+00	-4.659511e+01
1.600000e-06	-1.111203e-06	-5.891331e-10	-7.750283e+00	-4.561027e+01
1.610000e-06	-1.065350e-06	-5.721296e-10	-7.430468e+00	-4.460753e+01
1.620000e-06	-1.019484e-06	-5.557771e-10	-7.110572e+00	-4.358626e+01
1.630000e-06	-9.736095e-07	-5.423344e-10	-6.790611e+00	-4.254584e+01
1.640000e-06	-9.276063e-07	-5.290141e-10	-6.469754e+00	-4.148564e+01
1.650000e-06	-8.815192e-07	-5.153770e-10	-6.148311e+00	-4.040510e+01
1.660000e-06	-8.353815e-07	-5.008972e-10	-5.826516e+00	-3.930366e+01
1.670000e-06	-7.891747e-07	-4.840832e-10	-5.504238e+00	-3.818081e+01
1.680000e-06	-7.429095e-07	-4.654783e-10	-5.181553e+00	-3.703609e+01
1.690000e-06	-6.965770e-07	-4.480146e-10	-4.858399e+00	-3.586906e+01
1.700000e-06	-6.501834e-07	-4.296767e-10	-4.534818e+00	-3.467935e+01
1.710000e-06	-6.037770e-07	-4.117116e-10	-4.211149e+00	-3.346663e+01
1.720000e-06	-5.573362e-07	-3.936895e-10	-3.887239e+00	-3.223063e+01
1.730000e-06	-5.108066e-07	-3.751392e-10	-3.562711e+00	-3.097116e+01
1.740000e-06	-4.641280e-07	-3.543144e-10	-3.237143e+00	-2.968806e+01
1.750000e-06	-4.174978e-07	-3.328014e-10	-2.911912e+00	-2.838126e+01
1.760000e-06	-3.709427e-07	-3.119861e-10	-2.587205e+00	-2.705076e+01
1.770000e-06	-3.242395e-07	-2.908675e-10	-2.261465e+00	-2.569663e+01
1.780000e-06	-2.775286e-07	-2.708236e-10	-1.935672e+00	-2.431900e+01
1.790000e-06	-2.308587e-07	-2.553296e-10	-1.610165e+00	-2.291810e+01
1.800000e-06	-1.841869e-07	-2.404237e-10	-1.284644e+00	-2.149421e+01
1.810000e-06	-1.374987e-07	-2.206976e-10	-9.590086e-01	-2.004772e+01
1.820000e-06	-9.092155e-08	-1.967711e-10	-6.341484e-01	-1.857906e+01
1.830000e-06	-4.438830e-08	-1.719501e-10	-3.095940e-01	-1.708878e+01
1.840000e-06	2.231282e-09	-1.477995e-10	1.556247e-02	-1.557748e+01
1.850000e-06	4.890527e-08	-1.268510e-10	3.410984e-01	-1.404583e+01
1.860000e-06	9.564330e-08	-1.092687e-10	6.670810e-01	-1.249460e+01
1.870000e-06	1.424170e-07	-9.020600e-11	9.933123e-01	-1.092462e+01
1.880000e-06	1.891448e-07	-6.976943e-11	1.319224e+00	-9.336784e+00
1.890000e-06	2.358303e-07	-4.807988e-11	1.644840e+00	-7.732072e+00
1.900000e-06	2.824926e-07	-2.497236e-11	1.970294e+00	-6.111517e+00
1.910000e-06	3.291452e-07	-6.134309e-13	2.295681e+00	-4.476215e+00
1.920000e-06	3.757376e-07	2.466384e-11	2.620648e+00	-2.827322e+00
1.930000e-06	4.222336e-07	4.965115e-11	2.944942e+00	-1.166048e+00
1.940000e-06	4.687403e-07	7.245457e-11	3.269312e+00	5.063478e-01
1.950000e-06	5.151560e-07	9.440819e-11	3.593046e+00	2.188562e+00
1.960000e-06	5.615364e-07	1.163686e-10	3.916534e+00	3.879251e+00
1.970000e-06	6.078843e-07	1.388690e-10	4.239796e+00	5.577036e+00
1.980000e-06	6.542118e-07	1.611555e-10	4.562916e+00	7.280509e+00
1.990000e-06	7.004746e-07	1.831474e-10	4.885584e+00	8.988239e+00
2.000000e-06	7.466412e-07	2.073800e-10	5.207581e+00	1.069878e+01
2.010000e-06	7.928261e-07	2.327857e-10	5.529706e+00	1.241066e+01
2.020000e-06	8.389708e-07	2.581042e-10	5.851549e+00	1.412241e+01
2.030000e-06	8.849996e-07	2.850812e-10	6.172586e+00	1.583258e+01
2.040000e-06	9.309347e-07	3.105439e-10	6.492968e+00	1.753968e+01
2.050000e-06	9.768123e-07	3.324761e-10	6.812950e+00	1.924227e+01
2.060000e-06	1.022587e-06	3.521804e-10	7.132211e+00	2.093891e+01
2.070000e-06	1.068267e-06	3.722867e-10	7.450816e+00	2.262819e+01
2.080000e-06	1.113948e-06	3.942364e-10	7.769425e+00	2.430870e+01
2.090000e-06	1.159654e-06	4.192402e-10	8.088212e+00	2.597910e+01
2.100000e-06	1.205269e-06	4.456602e-10	8.406363e+00	2.763807e+01
2.110000e-06	1.250729e-06	4.709076e-10	8.723429e+00	2.928433e+01
2.120000e-06	1.296102e-06	4.925250e-10	9.039895e+00	3.091664e+01
2.130000e-06	1.341362e-06	5.122654e-10	9.355565e+00	3.253383e+01
2.140000e-06	1.386572e-06	5.312243e-10	9.670892e+00	3.413478e+01
2.150000e-06	1.431829e-06	5.499044e-10	9.986541e+00	3.571841e+01
2.160000e-06	1.476924e-06	5.693952e-10	1.030107e+01	3.728371e+01
2.170000e-06	1.521826e-06	5.888668e-10	1.061425e+01	3.882975e+01
2.180000e-06	1.566576e-06	6.097844e-10	1.092636e+01	4.035565e+01
2.190000e-06	1.611156e-06	6.316354e-10	1.123729e+01	4.186060e+01
2.200000e-06	1.655648e-06	6.523537e-10	1.154761e+01	4.334386e+01
2.210000e-06	1.699954e-06	6.698569e-10	1.185663e+01	4.480478e+01
2.220000e-06	1.744079e-06	6.867582e-10	1.216439e+01	4.624275e+01
2.230000e-06	1.788165e-06	7.046892e-10	1.247187e+01	4.765726e+01
2.240000e-06	1.832149e-06	7.220535e-10	1.277864e+01	4.904787e+01
2.250000e-06	1.876071e-06	7.402720e-10	1.308499e+01	5.041419e+01
2.260000e-06	1.919925e-06	7.604592e-10	1.339086e+01	5.175593e+01
2.270000e-06	1.963650e-06	7.782804e-10	1.369583e+01	5.307286e+01
2.280000e-06	2.007320e-06	7.942706e-10	1.400040e+01	5.436483e+01
2.290000e-06	2.050961e-06	8.096420e-10	1.430479e+01	5.563173e+01
2.300000e-06	2.094551e-06	8.239847e-10	1.460881e+01	5.687355e+01
2.310000e-06	2.138074e-06	8.403171e-10	1.491238e+01	5.809032e+01
2.320000e-06	2.181455e-06	8.585758e-10	1.521494e+01	5.928215e+01
2.330000e-06	2.224683e-06	8.771633e-10	1.551645e+01	6.044920e+01
2.340000e-06	2.267886e-06	8.939825e-10	1.581777e+01	6.159169e+01
2.350000e-06	2.310935e-06	9.068551e-10	1.611803e+01	6.270987e+01
2.360000e-06	2.353690e-06	9.203298e-10	1.641623e+01	6.380408e+01
2.370000e-06	2.396103e-06	9.335534e-10	1.671204e+01	6.487468e+01
2.380000e-06	2.438134e-06	9.459133e-10	1.700520e+01	6.592206e+01
2.390000e-06	2.479827e-06	9.607786e-10	1.729599e+01	6.694667e+01
2.400000e-06	2.521172e-06	9.748432e-10	1.758436e+01	6.794899e+01
2.410000e-06	2.562208e-06	9.893229e-10	1.787057e+01	6.892953e+01
2.420000e-06	2.603086e-06	1.004609e-09	1.815568e+01	6.988882e+01
2.430000e-06	2.643735e-06	1.019737e-09	1.843920e+01	7.082740e+01
2.440000e-06	2.684105e-06	1.033046e-09	1.872076e+01	7.174586e+01
2.450000e-06	2.724317e-06	1.042921e-09	1.900123e+01	7.264479e+01
2.460000e-06	2.764310e-06	1.051664e-09	1.928017e+01	7.352476e+01
2.470000e-06	2.804124e-06	1.061258e-09	1.955786e+01	7.438640e+01
2.480000e-06	2.843856e-06	1.072630e-09	1.983497e+01	7.523030e+01
2.490000e-06	2.883464e-06	1.085289e-09	2.011123e+01	7.605707e+01
2.500000e-06	2.922888e-06	1.099864e-09	2.038620e+01	7.686730e+01
2.510000e-06	2.962196e-06	1.114751e-09	2.066036e+01	7.766160e+01
2.520000e-06	3.001366e-06	1.127824e-09	2.093356e+01	7.844054e+01
2.530000e-06	3.040331e-06	1.139227e-09	2.120532e+01	7.920468e+01
2.540000e-06	3.078970e-06	1.149610e-09	2.147482e+01	7.995459e+01
2.550000e-06	3.117305e-06	1.157885e-09	2.174219e+01	8.069079e+01
2.560000e-06	3.155552e-06	1.164312e-09	2.200895e+01	8.141380e+01
2.570000e-06	3.193614e-06	1.173384e-09	2.227443e+01	8.212411e+01
2.580000e-06	3.231482e-06	1.185366e-09	2.253854e+01	8.282219e+01
2.590000e-06	3.269116e-06	1.198098e-09	2.280103e+01	8.350847e+01
2.600000e-06	3.306502e-06	1.209775e-09	2.306178e+01	8.418337e+01
2.610000e-06	3.343682e-06	1.217552e-09	2.332110e+01	8.484728e+01
2.620000e-06	3.380541e-06	1.224641e-09	2.357818e+01	8.550055e+01
2.630000e-06	3.417098e-06	1.231616e-09	2.383315e+01	8.614351e+01
2.640000e-06	3.453472e-06	1.240262e-09	2.408685e+01	8.677647e+01
2.650000e-06	3.489635e-06	1.251802e-09	2.433908e+01	8.739969e+01
2.660000e-06	3.525586e-06	1.263669e-09	2.458982e+01	8.801342e+01
2.670000e-06	3.561356e-06	1.273362e-09	2.483930e+01	8.861786e+01
2.680000e-06	3.597007e-06	1.278237e-09	2.508796e+01	8.921321e+01
2.690000e-06	3.632580e-06	1.280974e-09	2.533607e+01	8.979963e+01
2.700000e-06	3.667998e-06	1.285394e-09	2.558310e+01	9.037725e+01
2.710000e-06	3.703277e-06	1.294886e-09	2.582916e+01	9.094619e+01
2.720000e-06	3.738316e-06	1.305821e-09	2.607355e+01	9.150651e+01
2.730000e-06	3.772924e-06	1.316955e-09	2.631492e+01	9.205830e+01
2.740000e-06	3.806954e-06	1.326839e-09	2.655227e+01	9.260160e+01
2.750000e-06	3.840441e-06	1.330864e-09	2.678584e+01	9.313644e+01
2.760000e-06	3.873461e-06	1.332229e-09	2.701614e+01	9.366282e+01
2.770000e-06	3.906087e-06	1.334364e-09	2.724369e+01	9.418074e+01
2.780000e-06	3.938380e-06	1.339841e-09	2.746893e+01	9.469019e+01
2.790000e-06	3.970393e-06	1.349198e-09	2.769220e+01	9.519114e+01
2.800000e-06	4.002150e-06	1.360683e-09	2.791370e+01	9.568356e+01
2.810000e-06	4.033790e-06	1.370901e-09	2.813438e+01	9.616740e+01
2.820000e-06	4.065373e-06	1.377113e-09	2.835466e+01	9.664261e+01
2.830000e-06	4.096713e-06	1.379813e-09	2.857325e+01	9.710915e+01
2.840000e-06	4.127818e-06	1.381408e-09	2.879019e+01	9.756698e+01
2.850000e-06	4.158644e-06	1.384219e-09	2.900520e+01	9.801603e+01
2.860000e-06	4.189132e-06	1.389898e-09	2.921784e+01	9.845626e+01
2.870000e-06	4.219322e-06	1.397674e-09	2.942841e+01	9.888763e+01
2.880000e-06	4.249145e-06	1.404357e-09	2.963641e+01	9.931011e+01
2.890000e-06	4.278637e-06	1.408811e-09	2.984211e+01	9.972366e+01
2.900000e-06	4.307948e-06	1.412416e-09	3.004654e+01	1.001283e+02
