# Temperatura_=_-33.7
# Concentracion g/m^3_=_1620.0
# C_Vs_to_Am_M_A/Vsm_=_65563218390.804596
# pendiente_HvsI_1/m_=_3716.3
# ordenada_HvsI_A/m_=_1297.0
# frecuencia_Hz_=_135102.74109526744

Tiempo_(s)	Campo_(V.s)	Magnetizacion_(V.s)	Campo_(kA/m)	Magnetizacion_(A/m)
0.000000e+00	-5.511382e-06	-7.504324e-10	-3.835839e+01	-4.889673e+01
1.000000e-08	-5.511533e-06	-7.496860e-10	-3.835944e+01	-4.892403e+01
2.000000e-08	-5.511447e-06	-7.497000e-10	-3.835884e+01	-4.895071e+01
3.000000e-08	-5.510906e-06	-7.500359e-10	-3.835508e+01	-4.897650e+01
4.000000e-08	-5.509729e-06	-7.494157e-10	-3.834688e+01	-4.900114e+01
5.000000e-08	-5.507871e-06	-7.501563e-10	-3.833395e+01	-4.902435e+01
6.000000e-08	-5.505490e-06	-7.610786e-10	-3.831738e+01	-4.904589e+01
7.000000e-08	-5.502616e-06	-7.795197e-10	-3.829738e+01	-4.906550e+01
8.000000e-08	-5.499203e-06	-7.501989e-10	-3.827362e+01	-4.908294e+01
9.000000e-08	-5.495310e-06	-6.897571e-10	-3.824653e+01	-4.909799e+01
1.000000e-07	-5.490995e-06	-7.233422e-10	-3.821649e+01	-4.911042e+01
1.100000e-07	-5.486421e-06	-7.665363e-10	-3.818466e+01	-4.912003e+01
1.200000e-07	-5.481783e-06	-7.743767e-10	-3.815238e+01	-4.912666e+01
1.300000e-07	-5.476905e-06	-7.341194e-10	-3.811843e+01	-4.913013e+01
1.400000e-07	-5.471620e-06	-7.288765e-10	-3.808165e+01	-4.913031e+01
1.500000e-07	-5.465917e-06	-7.769758e-10	-3.804195e+01	-4.912707e+01
1.600000e-07	-5.459798e-06	-7.598060e-10	-3.799937e+01	-4.912033e+01
1.700000e-07	-5.453294e-06	-7.504438e-10	-3.795411e+01	-4.910999e+01
1.800000e-07	-5.446316e-06	-7.387431e-10	-3.790554e+01	-4.909603e+01
1.900000e-07	-5.438920e-06	-7.604566e-10	-3.785406e+01	-4.907840e+01
2.000000e-07	-5.431322e-06	-7.467243e-10	-3.780118e+01	-4.905711e+01
2.100000e-07	-5.423552e-06	-7.569162e-10	-3.774710e+01	-4.903219e+01
2.200000e-07	-5.415468e-06	-7.536815e-10	-3.769084e+01	-4.900367e+01
2.300000e-07	-5.406977e-06	-7.584393e-10	-3.763174e+01	-4.897162e+01
2.400000e-07	-5.397989e-06	-7.424238e-10	-3.756919e+01	-4.893614e+01
2.500000e-07	-5.388375e-06	-7.402471e-10	-3.750228e+01	-4.889733e+01
2.600000e-07	-5.378077e-06	-7.303715e-10	-3.743060e+01	-4.885532e+01
2.700000e-07	-5.367171e-06	-7.169192e-10	-3.735470e+01	-4.881027e+01
2.800000e-07	-5.355795e-06	-7.041786e-10	-3.727552e+01	-4.876233e+01
2.900000e-07	-5.344060e-06	-7.024155e-10	-3.719385e+01	-4.871168e+01
3.000000e-07	-5.331975e-06	-7.054750e-10	-3.710974e+01	-4.865852e+01
3.100000e-07	-5.319518e-06	-6.985588e-10	-3.702304e+01	-4.860305e+01
3.200000e-07	-5.306638e-06	-7.130167e-10	-3.693340e+01	-4.854548e+01
3.300000e-07	-5.293380e-06	-7.074244e-10	-3.684112e+01	-4.848603e+01
3.400000e-07	-5.279775e-06	-7.043102e-10	-3.674644e+01	-4.842492e+01
3.500000e-07	-5.265781e-06	-7.001601e-10	-3.664904e+01	-4.836238e+01
3.600000e-07	-5.251273e-06	-6.963039e-10	-3.654807e+01	-4.829865e+01
3.700000e-07	-5.236144e-06	-6.854455e-10	-3.644277e+01	-4.823394e+01
3.800000e-07	-5.220529e-06	-7.157900e-10	-3.633410e+01	-4.816849e+01
3.900000e-07	-5.204492e-06	-7.108846e-10	-3.622248e+01	-4.810250e+01
4.000000e-07	-5.188032e-06	-6.791547e-10	-3.610792e+01	-4.803621e+01
4.100000e-07	-5.171263e-06	-6.945058e-10	-3.599121e+01	-4.796980e+01
4.200000e-07	-5.154186e-06	-7.404892e-10	-3.587236e+01	-4.790349e+01
4.300000e-07	-5.136759e-06	-6.954338e-10	-3.575107e+01	-4.783744e+01
4.400000e-07	-5.118978e-06	-6.763380e-10	-3.562731e+01	-4.777183e+01
4.500000e-07	-5.100847e-06	-7.202702e-10	-3.550113e+01	-4.770682e+01
4.600000e-07	-5.082233e-06	-7.140810e-10	-3.537157e+01	-4.764256e+01
4.700000e-07	-5.063130e-06	-6.600424e-10	-3.523862e+01	-4.757916e+01
4.800000e-07	-5.043794e-06	-7.088862e-10	-3.510405e+01	-4.751674e+01
4.900000e-07	-5.024288e-06	-7.320879e-10	-3.496829e+01	-4.745540e+01
5.000000e-07	-5.004485e-06	-6.746093e-10	-3.483046e+01	-4.739520e+01
5.100000e-07	-4.984419e-06	-6.832211e-10	-3.469081e+01	-4.733621e+01
5.200000e-07	-4.964099e-06	-7.404781e-10	-3.454938e+01	-4.727846e+01
5.300000e-07	-4.943341e-06	-6.944348e-10	-3.440491e+01	-4.722199e+01
5.400000e-07	-4.922210e-06	-6.683816e-10	-3.425784e+01	-4.716679e+01
5.500000e-07	-4.900821e-06	-7.205485e-10	-3.410897e+01	-4.711285e+01
5.600000e-07	-4.879071e-06	-7.086361e-10	-3.395760e+01	-4.706015e+01
5.700000e-07	-4.856907e-06	-6.664908e-10	-3.380334e+01	-4.700864e+01
5.800000e-07	-4.834393e-06	-7.083448e-10	-3.364664e+01	-4.695827e+01
5.900000e-07	-4.811630e-06	-7.235784e-10	-3.348822e+01	-4.690895e+01
6.000000e-07	-4.788604e-06	-6.774453e-10	-3.332796e+01	-4.686061e+01
6.100000e-07	-4.765244e-06	-6.929331e-10	-3.316538e+01	-4.681314e+01
6.200000e-07	-4.741618e-06	-7.193197e-10	-3.300095e+01	-4.676644e+01
6.300000e-07	-4.717748e-06	-6.919025e-10	-3.283481e+01	-4.672038e+01
6.400000e-07	-4.693630e-06	-6.886667e-10	-3.266696e+01	-4.667484e+01
6.500000e-07	-4.669150e-06	-7.201779e-10	-3.249658e+01	-4.662968e+01
6.600000e-07	-4.644166e-06	-7.007740e-10	-3.232270e+01	-4.658475e+01
6.700000e-07	-4.618666e-06	-6.857037e-10	-3.214522e+01	-4.653990e+01
6.800000e-07	-4.592686e-06	-7.014155e-10	-3.196440e+01	-4.649499e+01
6.900000e-07	-4.566209e-06	-7.027386e-10	-3.178012e+01	-4.644986e+01
7.000000e-07	-4.539202e-06	-6.883230e-10	-3.159216e+01	-4.640434e+01
7.100000e-07	-4.511854e-06	-7.018857e-10	-3.140182e+01	-4.635828e+01
7.200000e-07	-4.484305e-06	-7.045867e-10	-3.121009e+01	-4.631151e+01
7.300000e-07	-4.456581e-06	-6.976128e-10	-3.101713e+01	-4.626389e+01
7.400000e-07	-4.428726e-06	-6.945815e-10	-3.082326e+01	-4.621524e+01
7.500000e-07	-4.400578e-06	-6.970851e-10	-3.062736e+01	-4.616542e+01
7.600000e-07	-4.372104e-06	-6.884349e-10	-3.042919e+01	-4.611427e+01
7.700000e-07	-4.343413e-06	-6.894506e-10	-3.022950e+01	-4.606166e+01
7.800000e-07	-4.314391e-06	-6.900197e-10	-3.002751e+01	-4.600742e+01
7.900000e-07	-4.285038e-06	-6.871636e-10	-2.982322e+01	-4.595143e+01
8.000000e-07	-4.255393e-06	-6.809587e-10	-2.961690e+01	-4.589355e+01
8.100000e-07	-4.225410e-06	-6.784220e-10	-2.940822e+01	-4.583366e+01
8.200000e-07	-4.195099e-06	-6.729608e-10	-2.919726e+01	-4.577162e+01
8.300000e-07	-4.164511e-06	-6.707104e-10	-2.898437e+01	-4.570734e+01
8.400000e-07	-4.133713e-06	-6.739230e-10	-2.877002e+01	-4.564069e+01
8.500000e-07	-4.102675e-06	-6.765509e-10	-2.855400e+01	-4.557158e+01
8.600000e-07	-4.071366e-06	-6.756453e-10	-2.833609e+01	-4.549990e+01
8.700000e-07	-4.039839e-06	-6.765471e-10	-2.811667e+01	-4.542557e+01
8.800000e-07	-4.008158e-06	-6.770633e-10	-2.789617e+01	-4.534851e+01
8.900000e-07	-3.976347e-06	-6.711678e-10	-2.767477e+01	-4.526862e+01
9.000000e-07	-3.944312e-06	-6.673021e-10	-2.745182e+01	-4.518585e+01
9.100000e-07	-3.911749e-06	-6.663425e-10	-2.722518e+01	-4.510011e+01
9.200000e-07	-3.878706e-06	-6.643792e-10	-2.699521e+01	-4.501136e+01
9.300000e-07	-3.845387e-06	-6.632122e-10	-2.676331e+01	-4.491953e+01
9.400000e-07	-3.811602e-06	-6.675864e-10	-2.652817e+01	-4.482456e+01
9.500000e-07	-3.777304e-06	-6.654621e-10	-2.628947e+01	-4.472642e+01
9.600000e-07	-3.742619e-06	-6.591669e-10	-2.604806e+01	-4.462506e+01
9.700000e-07	-3.707699e-06	-6.533735e-10	-2.580503e+01	-4.452043e+01
9.800000e-07	-3.672579e-06	-6.539960e-10	-2.556059e+01	-4.441251e+01
9.900000e-07	-3.637216e-06	-6.512070e-10	-2.531448e+01	-4.430125e+01
1.000000e-06	-3.601676e-06	-6.520582e-10	-2.506712e+01	-4.418664e+01
1.010000e-06	-3.565986e-06	-6.563706e-10	-2.481873e+01	-4.406865e+01
1.020000e-06	-3.530144e-06	-6.600781e-10	-2.456927e+01	-4.394725e+01
1.030000e-06	-3.494114e-06	-6.560395e-10	-2.431851e+01	-4.382243e+01
1.040000e-06	-3.457830e-06	-6.551505e-10	-2.406597e+01	-4.369417e+01
1.050000e-06	-3.421253e-06	-6.523613e-10	-2.381140e+01	-4.356245e+01
1.060000e-06	-3.384410e-06	-6.467107e-10	-2.355499e+01	-4.342726e+01
1.070000e-06	-3.347341e-06	-6.399935e-10	-2.329699e+01	-4.328861e+01
1.080000e-06	-3.310093e-06	-6.390540e-10	-2.303775e+01	-4.314647e+01
1.090000e-06	-3.272592e-06	-6.382780e-10	-2.277675e+01	-4.300084e+01
1.100000e-06	-3.234806e-06	-6.376307e-10	-2.251376e+01	-4.285172e+01
1.110000e-06	-3.196863e-06	-6.379089e-10	-2.224969e+01	-4.269911e+01
1.120000e-06	-3.158678e-06	-6.372902e-10	-2.198392e+01	-4.254302e+01
1.130000e-06	-3.120214e-06	-6.344486e-10	-2.171622e+01	-4.238343e+01
1.140000e-06	-3.081549e-06	-6.320234e-10	-2.144711e+01	-4.222036e+01
1.150000e-06	-3.042646e-06	-6.299440e-10	-2.117636e+01	-4.205381e+01
1.160000e-06	-3.003488e-06	-6.262840e-10	-2.090382e+01	-4.188377e+01
1.170000e-06	-2.964182e-06	-6.231038e-10	-2.063026e+01	-4.171027e+01
1.180000e-06	-2.924783e-06	-6.226642e-10	-2.035605e+01	-4.153329e+01
1.190000e-06	-2.885263e-06	-6.203704e-10	-2.008099e+01	-4.135285e+01
1.200000e-06	-2.845637e-06	-6.153840e-10	-1.980520e+01	-4.116894e+01
1.210000e-06	-2.805854e-06	-6.127683e-10	-1.952832e+01	-4.098157e+01
1.220000e-06	-2.765889e-06	-6.094132e-10	-1.925017e+01	-4.079074e+01
1.230000e-06	-2.725759e-06	-6.049393e-10	-1.897087e+01	-4.059643e+01
1.240000e-06	-2.685469e-06	-6.007537e-10	-1.869046e+01	-4.039864e+01
1.250000e-06	-2.644987e-06	-6.017314e-10	-1.840871e+01	-4.019736e+01
1.260000e-06	-2.604281e-06	-5.988212e-10	-1.812540e+01	-3.999258e+01
1.270000e-06	-2.563297e-06	-5.942433e-10	-1.784016e+01	-3.978426e+01
1.280000e-06	-2.522022e-06	-5.909492e-10	-1.755289e+01	-3.957237e+01
1.290000e-06	-2.480413e-06	-5.868957e-10	-1.726330e+01	-3.935689e+01
1.300000e-06	-2.438457e-06	-5.805562e-10	-1.697129e+01	-3.913776e+01
1.310000e-06	-2.396175e-06	-5.774346e-10	-1.667701e+01	-3.891493e+01
1.320000e-06	-2.353554e-06	-5.756749e-10	-1.638038e+01	-3.868833e+01
1.330000e-06	-2.310761e-06	-5.732938e-10	-1.608254e+01	-3.845790e+01
1.340000e-06	-2.267765e-06	-5.712752e-10	-1.578330e+01	-3.822353e+01
1.350000e-06	-2.224531e-06	-5.705928e-10	-1.548240e+01	-3.798513e+01
1.360000e-06	-2.181137e-06	-5.668344e-10	-1.518039e+01	-3.774260e+01
1.370000e-06	-2.137630e-06	-5.614459e-10	-1.487758e+01	-3.749579e+01
1.380000e-06	-2.094086e-06	-5.556051e-10	-1.457452e+01	-3.724458e+01
1.390000e-06	-2.050480e-06	-5.496418e-10	-1.427103e+01	-3.698881e+01
1.400000e-06	-2.006803e-06	-5.446517e-10	-1.396705e+01	-3.672830e+01
1.410000e-06	-1.963024e-06	-5.427737e-10	-1.366235e+01	-3.646287e+01
1.420000e-06	-1.919176e-06	-5.417988e-10	-1.335717e+01	-3.619232e+01
1.430000e-06	-1.875236e-06	-5.378495e-10	-1.305136e+01	-3.591644e+01
1.440000e-06	-1.831203e-06	-5.329094e-10	-1.274490e+01	-3.563498e+01
1.450000e-06	-1.787097e-06	-5.276072e-10	-1.243793e+01	-3.534771e+01
1.460000e-06	-1.742870e-06	-5.211950e-10	-1.213011e+01	-3.505435e+01
1.470000e-06	-1.698475e-06	-5.151130e-10	-1.182113e+01	-3.475464e+01
1.480000e-06	-1.653924e-06	-5.115826e-10	-1.151106e+01	-3.444829e+01
1.490000e-06	-1.609234e-06	-5.086173e-10	-1.120002e+01	-3.413498e+01
1.500000e-06	-1.564386e-06	-5.055449e-10	-1.088789e+01	-3.381440e+01
1.510000e-06	-1.519393e-06	-5.015643e-10	-1.057475e+01	-3.348624e+01
1.520000e-06	-1.474257e-06	-4.960654e-10	-1.026061e+01	-3.315014e+01
1.530000e-06	-1.428997e-06	-4.915663e-10	-9.945601e+00	-3.280578e+01
1.540000e-06	-1.383639e-06	-4.887463e-10	-9.629916e+00	-3.245280e+01
1.550000e-06	-1.338148e-06	-4.833544e-10	-9.313311e+00	-3.209084e+01
1.560000e-06	-1.292595e-06	-4.757398e-10	-8.996268e+00	-3.171955e+01
1.570000e-06	-1.247071e-06	-4.670709e-10	-8.679423e+00	-3.133858e+01
1.580000e-06	-1.201420e-06	-4.575819e-10	-8.361700e+00	-3.094756e+01
1.590000e-06	-1.155634e-06	-4.500270e-10	-8.043039e+00	-3.054615e+01
1.600000e-06	-1.109784e-06	-4.449611e-10	-7.723932e+00	-3.013400e+01
1.610000e-06	-1.063923e-06	-4.373983e-10	-7.404741e+00	-2.971076e+01
1.620000e-06	-1.018075e-06	-4.270259e-10	-7.085649e+00	-2.927612e+01
1.630000e-06	-9.720652e-07	-4.174480e-10	-6.765427e+00	-2.882976e+01
1.640000e-06	-9.258237e-07	-4.102962e-10	-6.443593e+00	-2.837137e+01
1.650000e-06	-8.795331e-07	-4.024520e-10	-6.121418e+00	-2.790068e+01
1.660000e-06	-8.332729e-07	-3.941636e-10	-5.799454e+00	-2.741741e+01
1.670000e-06	-7.869799e-07	-3.845092e-10	-5.477261e+00	-2.692134e+01
1.680000e-06	-7.406218e-07	-3.746920e-10	-5.154616e+00	-2.641225e+01
1.690000e-06	-6.941439e-07	-3.664435e-10	-4.831137e+00	-2.588994e+01
1.700000e-06	-6.475373e-07	-3.589960e-10	-4.506762e+00	-2.535425e+01
1.710000e-06	-6.009867e-07	-3.512251e-10	-4.182777e+00	-2.480506e+01
1.720000e-06	-5.544645e-07	-3.437081e-10	-3.858989e+00	-2.424225e+01
1.730000e-06	-5.079062e-07	-3.353655e-10	-3.534951e+00	-2.366577e+01
1.740000e-06	-4.613222e-07	-3.262776e-10	-3.210733e+00	-2.307558e+01
1.750000e-06	-4.147249e-07	-3.174073e-10	-2.886423e+00	-2.247169e+01
1.760000e-06	-3.681502e-07	-3.086013e-10	-2.562270e+00	-2.185413e+01
1.770000e-06	-3.214528e-07	-2.995406e-10	-2.237263e+00	-2.122298e+01
1.780000e-06	-2.747671e-07	-2.899920e-10	-1.912338e+00	-2.057836e+01
1.790000e-06	-2.281086e-07	-2.815486e-10	-1.587601e+00	-1.992042e+01
1.800000e-06	-1.814358e-07	-2.728425e-10	-1.262766e+00	-1.924934e+01
1.810000e-06	-1.347616e-07	-2.627022e-10	-9.379205e-01	-1.856536e+01
1.820000e-06	-8.801001e-08	-2.514702e-10	-6.125364e-01	-1.786874e+01
1.830000e-06	-4.126518e-08	-2.387032e-10	-2.871994e-01	-1.715978e+01
1.840000e-06	5.508531e-09	-2.253569e-10	3.833854e-02	-1.643883e+01
1.850000e-06	5.243546e-08	-2.138892e-10	3.649429e-01	-1.570624e+01
1.860000e-06	9.943808e-08	-2.017907e-10	6.920740e-01	-1.496243e+01
1.870000e-06	1.463653e-07	-1.900335e-10	1.018680e+00	-1.420782e+01
1.880000e-06	1.932336e-07	-1.806068e-10	1.344877e+00	-1.344289e+01
1.890000e-06	2.400177e-07	-1.725286e-10	1.670487e+00	-1.266812e+01
1.900000e-06	2.868126e-07	-1.649213e-10	1.996172e+00	-1.188404e+01
1.910000e-06	3.336036e-07	-1.558988e-10	2.321831e+00	-1.109118e+01
1.920000e-06	3.802913e-07	-1.424714e-10	2.646770e+00	-1.029010e+01
1.930000e-06	4.269129e-07	-1.278218e-10	2.971250e+00	-9.481387e+00
1.940000e-06	4.734332e-07	-1.146752e-10	3.295023e+00	-8.665631e+00
1.950000e-06	5.198741e-07	-1.035845e-10	3.618245e+00	-7.843441e+00
1.960000e-06	5.662621e-07	-9.450088e-11	3.941099e+00	-7.015435e+00
1.970000e-06	6.125737e-07	-8.461792e-11	4.263420e+00	-6.182239e+00
1.980000e-06	6.588506e-07	-7.345846e-11	4.585501e+00	-5.344484e+00
1.990000e-06	7.051820e-07	-6.166687e-11	4.907961e+00	-4.502802e+00
2.000000e-06	7.514968e-07	-4.787311e-11	5.230305e+00	-3.657828e+00
2.010000e-06	7.977384e-07	-3.669506e-11	5.552139e+00	-2.810189e+00
2.020000e-06	8.438680e-07	-2.580886e-11	5.873194e+00	-1.960512e+00
2.030000e-06	8.899733e-07	-1.244199e-11	6.194080e+00	-1.109414e+00
2.040000e-06	9.360073e-07	4.066750e-14	6.514470e+00	-2.575015e-01
2.050000e-06	9.819380e-07	1.244409e-11	6.834140e+00	5.946284e-01
2.060000e-06	1.027825e-06	2.394291e-11	7.153507e+00	1.446394e+00
2.070000e-06	1.073624e-06	3.518746e-11	7.472259e+00	2.297228e+00
2.080000e-06	1.119398e-06	4.794967e-11	7.790840e+00	3.146579e+00
2.090000e-06	1.165137e-06	6.222654e-11	8.109175e+00	3.993917e+00
2.100000e-06	1.210786e-06	7.531060e-11	8.426891e+00	4.838727e+00
2.110000e-06	1.256354e-06	8.742513e-11	8.744036e+00	5.680516e+00
2.120000e-06	1.301856e-06	1.004504e-10	9.060722e+00	6.518812e+00
2.130000e-06	1.347254e-06	1.151964e-10	9.376682e+00	7.353165e+00
2.140000e-06	1.392551e-06	1.265251e-10	9.691948e+00	8.183144e+00
2.150000e-06	1.437750e-06	1.356982e-10	1.000652e+01	9.008341e+00
2.160000e-06	1.482813e-06	1.437536e-10	1.032016e+01	9.828369e+00
2.170000e-06	1.527746e-06	1.544416e-10	1.063288e+01	1.064286e+01
2.180000e-06	1.572570e-06	1.696872e-10	1.094485e+01	1.145148e+01
2.190000e-06	1.617248e-06	1.881541e-10	1.125580e+01	1.225390e+01
2.200000e-06	1.661804e-06	2.036812e-10	1.156591e+01	1.304980e+01
2.210000e-06	1.706240e-06	2.132182e-10	1.187517e+01	1.383891e+01
2.220000e-06	1.750540e-06	2.187031e-10	1.218349e+01	1.462096e+01
2.230000e-06	1.794751e-06	2.223924e-10	1.249119e+01	1.539569e+01
2.240000e-06	1.838815e-06	2.308174e-10	1.279788e+01	1.616287e+01
2.250000e-06	1.882707e-06	2.451950e-10	1.310336e+01	1.692227e+01
2.260000e-06	1.926534e-06	2.614605e-10	1.340838e+01	1.767368e+01
2.270000e-06	1.970325e-06	2.761012e-10	1.371316e+01	1.841690e+01
2.280000e-06	2.014037e-06	2.885909e-10	1.401739e+01	1.915174e+01
2.290000e-06	2.057697e-06	2.979861e-10	1.432126e+01	1.987802e+01
2.300000e-06	2.101297e-06	3.036786e-10	1.462471e+01	2.059557e+01
2.310000e-06	2.144831e-06	3.089267e-10	1.492770e+01	2.130421e+01
2.320000e-06	2.188299e-06	3.181503e-10	1.523023e+01	2.200380e+01
2.330000e-06	2.231679e-06	3.291508e-10	1.553215e+01	2.269417e+01
2.340000e-06	2.274918e-06	3.422031e-10	1.583309e+01	2.337518e+01
2.350000e-06	2.317952e-06	3.541553e-10	1.613260e+01	2.404666e+01
2.360000e-06	2.360790e-06	3.636096e-10	1.643074e+01	2.470847e+01
2.370000e-06	2.403362e-06	3.697916e-10	1.672704e+01	2.536047e+01
2.380000e-06	2.445484e-06	3.751888e-10	1.702020e+01	2.600251e+01
2.390000e-06	2.487186e-06	3.816289e-10	1.731044e+01	2.663445e+01
2.400000e-06	2.528699e-06	3.904003e-10	1.759936e+01	2.725615e+01
2.410000e-06	2.569987e-06	4.013540e-10	1.788672e+01	2.786746e+01
2.420000e-06	2.610966e-06	4.116230e-10	1.817193e+01	2.846825e+01
2.430000e-06	2.651653e-06	4.196110e-10	1.845510e+01	2.905838e+01
2.440000e-06	2.692046e-06	4.259897e-10	1.873624e+01	2.963771e+01
2.450000e-06	2.732219e-06	4.315943e-10	1.901583e+01	3.020612e+01
2.460000e-06	2.772195e-06	4.378585e-10	1.929406e+01	3.076349e+01
2.470000e-06	2.812006e-06	4.460457e-10	1.957114e+01	3.130968e+01
2.480000e-06	2.851700e-06	4.546056e-10	1.984740e+01	3.184458e+01
2.490000e-06	2.891344e-06	4.621683e-10	2.012332e+01	3.236810e+01
2.500000e-06	2.930882e-06	4.705206e-10	2.039850e+01	3.288012e+01
2.510000e-06	2.970205e-06	4.793254e-10	2.067218e+01	3.338056e+01
2.520000e-06	3.009408e-06	4.861405e-10	2.094503e+01	3.386934e+01
2.530000e-06	3.048405e-06	4.925938e-10	2.121644e+01	3.434640e+01
2.540000e-06	3.087127e-06	4.992427e-10	2.148594e+01	3.481168e+01
2.550000e-06	3.125652e-06	5.056105e-10	2.175407e+01	3.526516e+01
2.560000e-06	3.163938e-06	5.116781e-10	2.202053e+01	3.570680e+01
2.570000e-06	3.201997e-06	5.181088e-10	2.228541e+01	3.613660e+01
2.580000e-06	3.239888e-06	5.257855e-10	2.254913e+01	3.655459e+01
2.590000e-06	3.277610e-06	5.336571e-10	2.281167e+01	3.696079e+01
2.600000e-06	3.315114e-06	5.390835e-10	2.307269e+01	3.735526e+01
2.610000e-06	3.352352e-06	5.441426e-10	2.333186e+01	3.773807e+01
2.620000e-06	3.389281e-06	5.505627e-10	2.358888e+01	3.810932e+01
2.630000e-06	3.425989e-06	5.557376e-10	2.384437e+01	3.846913e+01
2.640000e-06	3.462488e-06	5.595459e-10	2.409839e+01	3.881764e+01
2.650000e-06	3.498738e-06	5.658482e-10	2.435069e+01	3.915501e+01
2.660000e-06	3.534779e-06	5.712056e-10	2.460153e+01	3.948142e+01
2.670000e-06	3.570599e-06	5.744900e-10	2.485083e+01	3.979708e+01
2.680000e-06	3.606260e-06	5.769311e-10	2.509903e+01	4.010221e+01
2.690000e-06	3.641823e-06	5.768894e-10	2.534654e+01	4.039707e+01
2.700000e-06	3.677340e-06	5.779833e-10	2.559373e+01	4.068190e+01
2.710000e-06	3.712707e-06	5.820654e-10	2.583988e+01	4.095701e+01
2.720000e-06	3.747762e-06	5.869812e-10	2.608386e+01	4.122267e+01
2.730000e-06	3.782454e-06	5.917339e-10	2.632531e+01	4.147922e+01
2.740000e-06	3.816572e-06	5.951487e-10	2.656276e+01	4.172697e+01
2.750000e-06	3.850112e-06	5.978511e-10	2.679620e+01	4.196626e+01
2.760000e-06	3.883307e-06	6.007219e-10	2.702723e+01	4.219745e+01
2.770000e-06	3.916114e-06	6.042827e-10	2.725557e+01	4.242088e+01
2.780000e-06	3.948494e-06	6.105512e-10	2.748092e+01	4.263692e+01
2.790000e-06	3.980571e-06	6.164517e-10	2.770417e+01	4.284593e+01
2.800000e-06	4.012478e-06	6.190964e-10	2.792624e+01	4.304828e+01
2.810000e-06	4.044228e-06	6.207305e-10	2.814722e+01	4.324432e+01
2.820000e-06	4.075809e-06	6.228904e-10	2.836702e+01	4.343443e+01
2.830000e-06	4.107162e-06	6.258948e-10	2.858523e+01	4.361894e+01
2.840000e-06	4.138254e-06	6.286381e-10	2.880162e+01	4.379821e+01
2.850000e-06	4.169098e-06	6.307486e-10	2.901629e+01	4.397257e+01
2.860000e-06	4.199611e-06	6.322578e-10	2.922866e+01	4.414235e+01
2.870000e-06	4.229812e-06	6.334834e-10	2.943886e+01	4.430784e+01
2.880000e-06	4.259666e-06	6.346756e-10	2.964663e+01	4.446934e+01
2.890000e-06	4.289252e-06	6.359129e-10	2.985255e+01	4.462711e+01
2.900000e-06	4.318653e-06	6.384162e-10	3.005717e+01	4.478142e+01
