# Temperatura_=_-0.4
# Concentracion g/m^3_=_1620.0
# C_Vs_to_Am_M_A/Vsm_=_65563218390.804596
# pendiente_HvsI_1/m_=_3716.3
# ordenada_HvsI_A/m_=_1297.0
# frecuencia_Hz_=_135095.41871867422

Tiempo_(s)	Campo_(V.s)	Magnetizacion_(V.s)	Campo_(kA/m)	Magnetizacion_(A/m)
0.000000e+00	-5.536715e-06	-1.453826e-09	-3.838468e+01	-9.448368e+01
1.000000e-08	-5.536802e-06	-1.452240e-09	-3.838529e+01	-9.446191e+01
2.000000e-08	-5.536621e-06	-1.451534e-09	-3.838403e+01	-9.443726e+01
3.000000e-08	-5.536192e-06	-1.450930e-09	-3.838106e+01	-9.440962e+01
4.000000e-08	-5.535369e-06	-1.452325e-09	-3.837535e+01	-9.437889e+01
5.000000e-08	-5.534101e-06	-1.453071e-09	-3.836656e+01	-9.434497e+01
6.000000e-08	-5.532382e-06	-1.463795e-09	-3.835464e+01	-9.430778e+01
7.000000e-08	-5.529946e-06	-1.464622e-09	-3.833775e+01	-9.426722e+01
8.000000e-08	-5.526844e-06	-1.430278e-09	-3.831625e+01	-9.422321e+01
9.000000e-08	-5.523261e-06	-1.402664e-09	-3.829141e+01	-9.417566e+01
1.000000e-07	-5.519208e-06	-1.472195e-09	-3.826330e+01	-9.412450e+01
1.100000e-07	-5.514791e-06	-1.499688e-09	-3.823269e+01	-9.406966e+01
1.200000e-07	-5.510169e-06	-1.425578e-09	-3.820064e+01	-9.401106e+01
1.300000e-07	-5.505385e-06	-1.383930e-09	-3.816748e+01	-9.394867e+01
1.400000e-07	-5.500247e-06	-1.437576e-09	-3.813185e+01	-9.388242e+01
1.500000e-07	-5.494614e-06	-1.498400e-09	-3.809280e+01	-9.381227e+01
1.600000e-07	-5.488566e-06	-1.440177e-09	-3.805088e+01	-9.373819e+01
1.700000e-07	-5.482189e-06	-1.391487e-09	-3.800666e+01	-9.366016e+01
1.800000e-07	-5.475372e-06	-1.419349e-09	-3.795940e+01	-9.357815e+01
1.900000e-07	-5.468050e-06	-1.448451e-09	-3.790864e+01	-9.349215e+01
2.000000e-07	-5.460469e-06	-1.425454e-09	-3.785609e+01	-9.340217e+01
2.100000e-07	-5.452711e-06	-1.403178e-09	-3.780230e+01	-9.330820e+01
2.200000e-07	-5.444621e-06	-1.419876e-09	-3.774622e+01	-9.321028e+01
2.300000e-07	-5.436245e-06	-1.424574e-09	-3.768815e+01	-9.310841e+01
2.400000e-07	-5.427566e-06	-1.400326e-09	-3.762798e+01	-9.300264e+01
2.500000e-07	-5.418274e-06	-1.372565e-09	-3.756356e+01	-9.289300e+01
2.600000e-07	-5.408130e-06	-1.371337e-09	-3.749323e+01	-9.277953e+01
2.700000e-07	-5.397283e-06	-1.377377e-09	-3.741803e+01	-9.266231e+01
2.800000e-07	-5.386040e-06	-1.380759e-09	-3.734009e+01	-9.254138e+01
2.900000e-07	-5.374363e-06	-1.372929e-09	-3.725913e+01	-9.241682e+01
3.000000e-07	-5.362292e-06	-1.368155e-09	-3.717545e+01	-9.228869e+01
3.100000e-07	-5.349984e-06	-1.385031e-09	-3.709012e+01	-9.215708e+01
3.200000e-07	-5.337265e-06	-1.387710e-09	-3.700194e+01	-9.202208e+01
3.300000e-07	-5.324041e-06	-1.358485e-09	-3.691026e+01	-9.188376e+01
3.400000e-07	-5.310404e-06	-1.352914e-09	-3.681572e+01	-9.174222e+01
3.500000e-07	-5.296456e-06	-1.373213e-09	-3.671902e+01	-9.159755e+01
3.600000e-07	-5.282110e-06	-1.359159e-09	-3.661957e+01	-9.144984e+01
3.700000e-07	-5.267270e-06	-1.341989e-09	-3.651668e+01	-9.129919e+01
3.800000e-07	-5.252078e-06	-1.375352e-09	-3.641136e+01	-9.114570e+01
3.900000e-07	-5.236285e-06	-1.367807e-09	-3.630187e+01	-9.098945e+01
4.000000e-07	-5.219742e-06	-1.321270e-09	-3.618718e+01	-9.083053e+01
4.100000e-07	-5.202898e-06	-1.348278e-09	-3.607041e+01	-9.066905e+01
4.200000e-07	-5.185835e-06	-1.386981e-09	-3.595212e+01	-9.050507e+01
4.300000e-07	-5.168338e-06	-1.330933e-09	-3.583082e+01	-9.033868e+01
4.400000e-07	-5.150534e-06	-1.309254e-09	-3.570739e+01	-9.016995e+01
4.500000e-07	-5.132518e-06	-1.371465e-09	-3.558248e+01	-8.999896e+01
4.600000e-07	-5.114070e-06	-1.353754e-09	-3.545459e+01	-8.982577e+01
4.700000e-07	-5.095061e-06	-1.300127e-09	-3.532280e+01	-8.965042e+01
4.800000e-07	-5.075657e-06	-1.342541e-09	-3.518828e+01	-8.947297e+01
4.900000e-07	-5.056016e-06	-1.365696e-09	-3.505212e+01	-8.929345e+01
5.000000e-07	-5.036163e-06	-1.307309e-09	-3.491448e+01	-8.911189e+01
5.100000e-07	-5.016157e-06	-1.320472e-09	-3.477578e+01	-8.892831e+01
5.200000e-07	-4.995952e-06	-1.356183e-09	-3.463570e+01	-8.874272e+01
5.300000e-07	-4.975361e-06	-1.305937e-09	-3.449295e+01	-8.855511e+01
5.400000e-07	-4.954381e-06	-1.286300e-09	-3.434750e+01	-8.836547e+01
5.500000e-07	-4.933035e-06	-1.335375e-09	-3.419952e+01	-8.817378e+01
5.600000e-07	-4.911327e-06	-1.312619e-09	-3.404902e+01	-8.798000e+01
5.700000e-07	-4.889311e-06	-1.277212e-09	-3.389639e+01	-8.778408e+01
5.800000e-07	-4.866940e-06	-1.312798e-09	-3.374130e+01	-8.758597e+01
5.900000e-07	-4.844172e-06	-1.316492e-09	-3.358345e+01	-8.738559e+01
6.000000e-07	-4.821048e-06	-1.274272e-09	-3.342314e+01	-8.718287e+01
6.100000e-07	-4.797641e-06	-1.290765e-09	-3.326086e+01	-8.697772e+01
6.200000e-07	-4.773944e-06	-1.306767e-09	-3.309658e+01	-8.677003e+01
6.300000e-07	-4.749992e-06	-1.275319e-09	-3.293052e+01	-8.655970e+01
6.400000e-07	-4.725882e-06	-1.274348e-09	-3.276337e+01	-8.634661e+01
6.500000e-07	-4.701535e-06	-1.291646e-09	-3.259458e+01	-8.613064e+01
6.600000e-07	-4.676727e-06	-1.267777e-09	-3.242259e+01	-8.591164e+01
6.700000e-07	-4.651423e-06	-1.254552e-09	-3.224717e+01	-8.568948e+01
6.800000e-07	-4.625639e-06	-1.271226e-09	-3.206841e+01	-8.546401e+01
6.900000e-07	-4.599235e-06	-1.260860e-09	-3.188536e+01	-8.523508e+01
7.000000e-07	-4.572222e-06	-1.243327e-09	-3.169808e+01	-8.500254e+01
7.100000e-07	-4.544766e-06	-1.250333e-09	-3.150774e+01	-8.476621e+01
7.200000e-07	-4.517065e-06	-1.245970e-09	-3.131570e+01	-8.452595e+01
7.300000e-07	-4.489231e-06	-1.230784e-09	-3.112273e+01	-8.428159e+01
7.400000e-07	-4.461241e-06	-1.234211e-09	-3.092868e+01	-8.403297e+01
7.500000e-07	-4.433055e-06	-1.230677e-09	-3.073328e+01	-8.377992e+01
7.600000e-07	-4.404598e-06	-1.215102e-09	-3.053599e+01	-8.352228e+01
7.700000e-07	-4.375926e-06	-1.213209e-09	-3.033722e+01	-8.325990e+01
7.800000e-07	-4.346935e-06	-1.213918e-09	-3.013623e+01	-8.299262e+01
7.900000e-07	-4.317516e-06	-1.199774e-09	-2.993227e+01	-8.272030e+01
8.000000e-07	-4.287859e-06	-1.194129e-09	-2.972667e+01	-8.244279e+01
8.100000e-07	-4.257950e-06	-1.194542e-09	-2.951931e+01	-8.215996e+01
8.200000e-07	-4.227663e-06	-1.180573e-09	-2.930935e+01	-8.187168e+01
8.300000e-07	-4.197133e-06	-1.165616e-09	-2.909769e+01	-8.157783e+01
8.400000e-07	-4.166438e-06	-1.165886e-09	-2.888489e+01	-8.127830e+01
8.500000e-07	-4.135368e-06	-1.160308e-09	-2.866949e+01	-8.097299e+01
8.600000e-07	-4.103928e-06	-1.151000e-09	-2.845152e+01	-8.066181e+01
8.700000e-07	-4.072314e-06	-1.151042e-09	-2.823235e+01	-8.034468e+01
8.800000e-07	-4.040478e-06	-1.147724e-09	-2.801164e+01	-8.002153e+01
8.900000e-07	-4.008472e-06	-1.132780e-09	-2.778975e+01	-7.969232e+01
9.000000e-07	-3.976334e-06	-1.123654e-09	-2.756694e+01	-7.935699e+01
9.100000e-07	-3.944012e-06	-1.120335e-09	-2.734286e+01	-7.901552e+01
9.200000e-07	-3.911336e-06	-1.111224e-09	-2.711633e+01	-7.866789e+01
9.300000e-07	-3.878125e-06	-1.103053e-09	-2.688608e+01	-7.831410e+01
9.400000e-07	-3.844522e-06	-1.103947e-09	-2.665312e+01	-7.795414e+01
9.500000e-07	-3.810400e-06	-1.097851e-09	-2.641656e+01	-7.758805e+01
9.600000e-07	-3.775720e-06	-1.086194e-09	-2.617614e+01	-7.721584e+01
9.700000e-07	-3.740708e-06	-1.080006e-09	-2.593340e+01	-7.683757e+01
9.800000e-07	-3.705461e-06	-1.074048e-09	-2.568905e+01	-7.645328e+01
9.900000e-07	-3.669934e-06	-1.063589e-09	-2.544275e+01	-7.606305e+01
1.000000e-06	-3.634156e-06	-1.058385e-09	-2.519471e+01	-7.566693e+01
1.010000e-06	-3.598267e-06	-1.059554e-09	-2.494590e+01	-7.526502e+01
1.020000e-06	-3.562257e-06	-1.056078e-09	-2.469625e+01	-7.485741e+01
1.030000e-06	-3.526124e-06	-1.049414e-09	-2.444575e+01	-7.444419e+01
1.040000e-06	-3.489838e-06	-1.044292e-09	-2.419419e+01	-7.402546e+01
1.050000e-06	-3.453323e-06	-1.038419e-09	-2.394103e+01	-7.360133e+01
1.060000e-06	-3.416458e-06	-1.028908e-09	-2.368546e+01	-7.317192e+01
1.070000e-06	-3.379304e-06	-1.022217e-09	-2.342788e+01	-7.273734e+01
1.080000e-06	-3.341929e-06	-1.016564e-09	-2.316877e+01	-7.229771e+01
1.090000e-06	-3.304276e-06	-1.010151e-09	-2.290773e+01	-7.185313e+01
1.100000e-06	-3.266432e-06	-1.005153e-09	-2.264537e+01	-7.140373e+01
1.110000e-06	-3.228373e-06	-1.000544e-09	-2.238151e+01	-7.094962e+01
1.120000e-06	-3.189960e-06	-9.931103e-10	-2.211521e+01	-7.049091e+01
1.130000e-06	-3.151289e-06	-9.848115e-10	-2.184711e+01	-7.002769e+01
1.140000e-06	-3.112497e-06	-9.769230e-10	-2.157817e+01	-6.956008e+01
1.150000e-06	-3.073593e-06	-9.693551e-10	-2.130846e+01	-6.908815e+01
1.160000e-06	-3.034505e-06	-9.607256e-10	-2.103747e+01	-6.861199e+01
1.170000e-06	-2.995195e-06	-9.535283e-10	-2.076495e+01	-6.813166e+01
1.180000e-06	-2.955633e-06	-9.464102e-10	-2.049068e+01	-6.764722e+01
1.190000e-06	-2.915870e-06	-9.386023e-10	-2.021501e+01	-6.715871e+01
1.200000e-06	-2.876074e-06	-9.303459e-10	-1.993911e+01	-6.666618e+01
1.210000e-06	-2.836172e-06	-9.230381e-10	-1.966248e+01	-6.616962e+01
1.220000e-06	-2.796120e-06	-9.143128e-10	-1.938481e+01	-6.566903e+01
1.230000e-06	-2.755917e-06	-9.056179e-10	-1.910609e+01	-6.516440e+01
1.240000e-06	-2.715487e-06	-8.967343e-10	-1.882580e+01	-6.465569e+01
1.250000e-06	-2.674880e-06	-8.885185e-10	-1.854428e+01	-6.414284e+01
1.260000e-06	-2.634065e-06	-8.832859e-10	-1.826132e+01	-6.362576e+01
1.270000e-06	-2.592991e-06	-8.760415e-10	-1.797657e+01	-6.310436e+01
1.280000e-06	-2.551690e-06	-8.676341e-10	-1.769024e+01	-6.257851e+01
1.290000e-06	-2.510183e-06	-8.594546e-10	-1.740248e+01	-6.204808e+01
1.300000e-06	-2.468300e-06	-8.494685e-10	-1.711211e+01	-6.151288e+01
1.310000e-06	-2.425987e-06	-8.368181e-10	-1.681877e+01	-6.097274e+01
1.320000e-06	-2.383354e-06	-8.255164e-10	-1.652321e+01	-6.042744e+01
1.330000e-06	-2.340452e-06	-8.168252e-10	-1.622577e+01	-5.987674e+01
1.340000e-06	-2.297346e-06	-8.081739e-10	-1.592693e+01	-5.932037e+01
1.350000e-06	-2.253991e-06	-7.998411e-10	-1.562636e+01	-5.875806e+01
1.360000e-06	-2.210434e-06	-7.900119e-10	-1.532440e+01	-5.818950e+01
1.370000e-06	-2.166734e-06	-7.795508e-10	-1.502144e+01	-5.761435e+01
1.380000e-06	-2.122913e-06	-7.695260e-10	-1.471763e+01	-5.703226e+01
1.390000e-06	-2.079046e-06	-7.585650e-10	-1.441351e+01	-5.644286e+01
1.400000e-06	-2.035176e-06	-7.462075e-10	-1.410938e+01	-5.584576e+01
1.410000e-06	-1.991224e-06	-7.345929e-10	-1.380466e+01	-5.524052e+01
1.420000e-06	-1.947142e-06	-7.260536e-10	-1.349906e+01	-5.462673e+01
1.430000e-06	-1.903026e-06	-7.172848e-10	-1.319321e+01	-5.400393e+01
1.440000e-06	-1.858809e-06	-7.079792e-10	-1.288667e+01	-5.337164e+01
1.450000e-06	-1.814456e-06	-6.987090e-10	-1.257917e+01	-5.272937e+01
1.460000e-06	-1.770044e-06	-6.884086e-10	-1.227128e+01	-5.207664e+01
1.470000e-06	-1.725465e-06	-6.761584e-10	-1.196222e+01	-5.141292e+01
1.480000e-06	-1.680626e-06	-6.654068e-10	-1.165137e+01	-5.073770e+01
1.490000e-06	-1.635668e-06	-6.571666e-10	-1.133968e+01	-5.005043e+01
1.500000e-06	-1.590627e-06	-6.487322e-10	-1.102742e+01	-4.935058e+01
1.510000e-06	-1.545418e-06	-6.380057e-10	-1.071400e+01	-4.863759e+01
1.520000e-06	-1.500157e-06	-6.264610e-10	-1.040022e+01	-4.791093e+01
1.530000e-06	-1.454813e-06	-6.155851e-10	-1.008586e+01	-4.717004e+01
1.540000e-06	-1.409383e-06	-6.052488e-10	-9.770905e+00	-4.641436e+01
1.550000e-06	-1.363899e-06	-5.936043e-10	-9.455577e+00	-4.564336e+01
1.560000e-06	-1.318266e-06	-5.807365e-10	-9.139214e+00	-4.485649e+01
1.570000e-06	-1.272516e-06	-5.689263e-10	-8.822040e+00	-4.405323e+01
1.580000e-06	-1.226731e-06	-5.574163e-10	-8.504621e+00	-4.323303e+01
1.590000e-06	-1.180899e-06	-5.428619e-10	-8.186880e+00	-4.239541e+01
1.600000e-06	-1.134937e-06	-5.283864e-10	-7.868237e+00	-4.153986e+01
1.610000e-06	-1.088882e-06	-5.155299e-10	-7.548951e+00	-4.066591e+01
1.620000e-06	-1.042663e-06	-5.033915e-10	-7.228524e+00	-3.977311e+01
1.630000e-06	-9.963509e-07	-4.929594e-10	-6.907455e+00	-3.886102e+01
1.640000e-06	-9.500181e-07	-4.829735e-10	-6.586241e+00	-3.792924e+01
1.650000e-06	-9.035994e-07	-4.705033e-10	-6.264431e+00	-3.697739e+01
1.660000e-06	-8.571808e-07	-4.544890e-10	-5.942623e+00	-3.600512e+01
1.670000e-06	-8.107640e-07	-4.385940e-10	-5.620827e+00	-3.501213e+01
1.680000e-06	-7.643151e-07	-4.243311e-10	-5.298808e+00	-3.399814e+01
1.690000e-06	-7.177460e-07	-4.116989e-10	-4.975956e+00	-3.296291e+01
1.700000e-06	-6.711089e-07	-3.980907e-10	-4.652632e+00	-3.190624e+01
1.710000e-06	-6.245417e-07	-3.841676e-10	-4.329794e+00	-3.082797e+01
1.720000e-06	-5.779069e-07	-3.688534e-10	-4.006486e+00	-2.972800e+01
1.730000e-06	-5.311207e-07	-3.523072e-10	-3.682129e+00	-2.860627e+01
1.740000e-06	-4.842980e-07	-3.366788e-10	-3.357519e+00	-2.746274e+01
1.750000e-06	-4.373977e-07	-3.198255e-10	-3.032371e+00	-2.629747e+01
1.760000e-06	-3.904446e-07	-3.012875e-10	-2.706856e+00	-2.511054e+01
1.770000e-06	-3.434919e-07	-2.837323e-10	-2.381345e+00	-2.390208e+01
1.780000e-06	-2.965103e-07	-2.655581e-10	-2.055633e+00	-2.267228e+01
1.790000e-06	-2.496015e-07	-2.509716e-10	-1.730426e+00	-2.142140e+01
1.800000e-06	-2.026943e-07	-2.373917e-10	-1.405230e+00	-2.014974e+01
1.810000e-06	-1.557716e-07	-2.216913e-10	-1.079926e+00	-1.885765e+01
1.820000e-06	-1.089661e-07	-2.026170e-10	-7.554354e-01	-1.754556e+01
1.830000e-06	-6.212493e-08	-1.817394e-10	-4.306968e-01	-1.621393e+01
1.840000e-06	-1.515538e-08	-1.595283e-10	-1.050685e-01	-1.486329e+01
1.850000e-06	3.179386e-08	-1.389013e-10	2.204190e-01	-1.349423e+01
1.860000e-06	7.878368e-08	-1.221352e-10	5.461878e-01	-1.210739e+01
1.870000e-06	1.257767e-07	-1.043179e-10	8.719789e-01	-1.070346e+01
1.880000e-06	1.726665e-07	-8.728661e-11	1.197054e+00	-9.283198e+00
1.890000e-06	2.196279e-07	-7.118017e-11	1.522626e+00	-7.847395e+00
1.900000e-06	2.665868e-07	-5.293318e-11	1.848181e+00	-6.396907e+00
1.910000e-06	3.134374e-07	-3.344000e-11	2.172984e+00	-4.932632e+00
1.920000e-06	3.603276e-07	-1.148914e-11	2.498062e+00	-3.455520e+00
1.930000e-06	4.072882e-07	1.411788e-11	2.823628e+00	-1.966561e+00
1.940000e-06	4.540834e-07	3.748737e-11	3.148048e+00	-4.667902e-01
1.950000e-06	5.007368e-07	5.711664e-11	3.471484e+00	1.042720e+00
1.960000e-06	5.474331e-07	7.502024e-11	3.795218e+00	2.560860e+00
1.970000e-06	5.941538e-07	9.521517e-11	4.119122e+00	4.086487e+00
1.980000e-06	6.408702e-07	1.155954e-10	4.442995e+00	5.618427e+00
1.990000e-06	6.875476e-07	1.366593e-10	4.766598e+00	7.155481e+00
2.000000e-06	7.340861e-07	1.569222e-10	5.089238e+00	8.696428e+00
2.010000e-06	7.804564e-07	1.783194e-10	5.410712e+00	1.024002e+01
2.020000e-06	8.267922e-07	1.991770e-10	5.731946e+00	1.178501e+01
2.030000e-06	8.731535e-07	2.224676e-10	6.053358e+00	1.333013e+01
2.040000e-06	9.194521e-07	2.472690e-10	6.374334e+00	1.487409e+01
2.050000e-06	9.657073e-07	2.694955e-10	6.695011e+00	1.641562e+01
2.060000e-06	1.011996e-06	2.907460e-10	7.015917e+00	1.795345e+01
2.070000e-06	1.058229e-06	3.122876e-10	7.336441e+00	1.948630e+01
2.080000e-06	1.104323e-06	3.337238e-10	7.655997e+00	2.101291e+01
2.090000e-06	1.150322e-06	3.576438e-10	7.974902e+00	2.253202e+01
2.100000e-06	1.196262e-06	3.828353e-10	8.293388e+00	2.404242e+01
2.110000e-06	1.242130e-06	4.037251e-10	8.611382e+00	2.554288e+01
2.120000e-06	1.287887e-06	4.216922e-10	8.928606e+00	2.703224e+01
2.130000e-06	1.333456e-06	4.406276e-10	9.244519e+00	2.850932e+01
2.140000e-06	1.378848e-06	4.613215e-10	9.559216e+00	2.997302e+01
2.150000e-06	1.424186e-06	4.818447e-10	9.873529e+00	3.142225e+01
2.160000e-06	1.469443e-06	5.030094e-10	1.018729e+01	3.285596e+01
2.170000e-06	1.514559e-06	5.224909e-10	1.050007e+01	3.427317e+01
2.180000e-06	1.559582e-06	5.405737e-10	1.081220e+01	3.567293e+01
2.190000e-06	1.604432e-06	5.581742e-10	1.112313e+01	3.705432e+01
2.200000e-06	1.649171e-06	5.778195e-10	1.143330e+01	3.841650e+01
2.210000e-06	1.693823e-06	5.951591e-10	1.174286e+01	3.975869e+01
2.220000e-06	1.738334e-06	6.089220e-10	1.205144e+01	4.108014e+01
2.230000e-06	1.782696e-06	6.235167e-10	1.235899e+01	4.238018e+01
2.240000e-06	1.826957e-06	6.407248e-10	1.266584e+01	4.365820e+01
2.250000e-06	1.871183e-06	6.596474e-10	1.297245e+01	4.491363e+01
2.260000e-06	1.915358e-06	6.788010e-10	1.327870e+01	4.614599e+01
2.270000e-06	1.959461e-06	6.964068e-10	1.358446e+01	4.735484e+01
2.280000e-06	2.003461e-06	7.122935e-10	1.388950e+01	4.853984e+01
2.290000e-06	2.047388e-06	7.246133e-10	1.419404e+01	4.970067e+01
2.300000e-06	2.091252e-06	7.349151e-10	1.449814e+01	5.083710e+01
2.310000e-06	2.135051e-06	7.440787e-10	1.480178e+01	5.194896e+01
2.320000e-06	2.178777e-06	7.574138e-10	1.510493e+01	5.303614e+01
2.330000e-06	2.222341e-06	7.761727e-10	1.540694e+01	5.409859e+01
2.340000e-06	2.265743e-06	7.949564e-10	1.570784e+01	5.513632e+01
2.350000e-06	2.308956e-06	8.113430e-10	1.600742e+01	5.614940e+01
2.360000e-06	2.351996e-06	8.237743e-10	1.630581e+01	5.713796e+01
2.370000e-06	2.394857e-06	8.338316e-10	1.660295e+01	5.810218e+01
2.380000e-06	2.437341e-06	8.432798e-10	1.689749e+01	5.904230e+01
2.390000e-06	2.479468e-06	8.533614e-10	1.718954e+01	5.995859e+01
2.400000e-06	2.521335e-06	8.637271e-10	1.747980e+01	6.085139e+01
2.410000e-06	2.562933e-06	8.758397e-10	1.776818e+01	6.172107e+01
2.420000e-06	2.604240e-06	8.892863e-10	1.805455e+01	6.256804e+01
2.430000e-06	2.645201e-06	9.012338e-10	1.833852e+01	6.339277e+01
2.440000e-06	2.685860e-06	9.108563e-10	1.862040e+01	6.419573e+01
2.450000e-06	2.726318e-06	9.190873e-10	1.890089e+01	6.497744e+01
2.460000e-06	2.766600e-06	9.268258e-10	1.918016e+01	6.573845e+01
2.470000e-06	2.806761e-06	9.361421e-10	1.945858e+01	6.647933e+01
2.480000e-06	2.846778e-06	9.458391e-10	1.973601e+01	6.720066e+01
2.490000e-06	2.886649e-06	9.554655e-10	2.001242e+01	6.790306e+01
2.500000e-06	2.926440e-06	9.655494e-10	2.028828e+01	6.858714e+01
2.510000e-06	2.966064e-06	9.773602e-10	2.056299e+01	6.925353e+01
2.520000e-06	3.005441e-06	9.879903e-10	2.083598e+01	6.990287e+01
2.530000e-06	3.044647e-06	9.961637e-10	2.110778e+01	7.053580e+01
2.540000e-06	3.083662e-06	1.004006e-09	2.137827e+01	7.115295e+01
2.550000e-06	3.122478e-06	1.012607e-09	2.164737e+01	7.175496e+01
2.560000e-06	3.161005e-06	1.021527e-09	2.191447e+01	7.234245e+01
2.570000e-06	3.199273e-06	1.030424e-09	2.217977e+01	7.291605e+01
2.580000e-06	3.237354e-06	1.039914e-09	2.244377e+01	7.347636e+01
2.590000e-06	3.275182e-06	1.049906e-09	2.270603e+01	7.402397e+01
2.600000e-06	3.312788e-06	1.058769e-09	2.296674e+01	7.455945e+01
2.610000e-06	3.350197e-06	1.065650e-09	2.322609e+01	7.508337e+01
2.620000e-06	3.387371e-06	1.072930e-09	2.348380e+01	7.559625e+01
2.630000e-06	3.424271e-06	1.080662e-09	2.373962e+01	7.609860e+01
2.640000e-06	3.460926e-06	1.086779e-09	2.399375e+01	7.659092e+01
2.650000e-06	3.497374e-06	1.095036e-09	2.424643e+01	7.707365e+01
2.660000e-06	3.533636e-06	1.106900e-09	2.449783e+01	7.754724e+01
2.670000e-06	3.569737e-06	1.117800e-09	2.474810e+01	7.801209e+01
2.680000e-06	3.605714e-06	1.126073e-09	2.499752e+01	7.846856e+01
2.690000e-06	3.641545e-06	1.130381e-09	2.524593e+01	7.891702e+01
2.700000e-06	3.677207e-06	1.132166e-09	2.549317e+01	7.935778e+01
2.710000e-06	3.712733e-06	1.137020e-09	2.573946e+01	7.979113e+01
2.720000e-06	3.748112e-06	1.144266e-09	2.598474e+01	8.021732e+01
2.730000e-06	3.783101e-06	1.151758e-09	2.622731e+01	8.063658e+01
2.740000e-06	3.817539e-06	1.160724e-09	2.646606e+01	8.104912e+01
2.750000e-06	3.851528e-06	1.168132e-09	2.670170e+01	8.145512e+01
2.760000e-06	3.885030e-06	1.174141e-09	2.693396e+01	8.185472e+01
2.770000e-06	3.918041e-06	1.177700e-09	2.716282e+01	8.224803e+01
2.780000e-06	3.950742e-06	1.179993e-09	2.738952e+01	8.263517e+01
2.790000e-06	3.983135e-06	1.183855e-09	2.761409e+01	8.301620e+01
2.800000e-06	4.015277e-06	1.189191e-09	2.783693e+01	8.339118e+01
2.810000e-06	4.047270e-06	1.195599e-09	2.805872e+01	8.376013e+01
2.820000e-06	4.079036e-06	1.202327e-09	2.827895e+01	8.412308e+01
2.830000e-06	4.110585e-06	1.207968e-09	2.849767e+01	8.448001e+01
2.840000e-06	4.141929e-06	1.212324e-09	2.871497e+01	8.483091e+01
2.850000e-06	4.173001e-06	1.216185e-09	2.893039e+01	8.517575e+01
2.860000e-06	4.203802e-06	1.221071e-09	2.914392e+01	8.551448e+01
2.870000e-06	4.234210e-06	1.227232e-09	2.935473e+01	8.584705e+01
2.880000e-06	4.264192e-06	1.233044e-09	2.956259e+01	8.617339e+01
2.890000e-06	4.293976e-06	1.236969e-09	2.976908e+01	8.649344e+01
2.900000e-06	4.323582e-06	1.237613e-09	2.997433e+01	8.680712e+01
