# Temperatura_=_-2.52
# Concentracion g/m^3_=_1620.0
# C_Vs_to_Am_M_A/Vsm_=_65563218390.804596
# pendiente_HvsI_1/m_=_3716.3
# ordenada_HvsI_A/m_=_1297.0
# frecuencia_Hz_=_135101.11391944558

Tiempo_(s)	Campo_(V.s)	Magnetizacion_(V.s)	Campo_(kA/m)	Magnetizacion_(A/m)
0.000000e+00	-5.515160e-06	-1.016193e-09	-3.836290e+01	-6.597496e+01
1.000000e-08	-5.515488e-06	-1.010936e-09	-3.836518e+01	-6.594124e+01
2.000000e-08	-5.515572e-06	-1.005849e-09	-3.836577e+01	-6.590554e+01
3.000000e-08	-5.515290e-06	-1.004928e-09	-3.836381e+01	-6.586769e+01
4.000000e-08	-5.514601e-06	-1.006242e-09	-3.835902e+01	-6.582753e+01
5.000000e-08	-5.513381e-06	-1.008952e-09	-3.835053e+01	-6.578489e+01
6.000000e-08	-5.511467e-06	-1.010628e-09	-3.833721e+01	-6.573961e+01
7.000000e-08	-5.508914e-06	-1.021675e-09	-3.831946e+01	-6.569153e+01
8.000000e-08	-5.505827e-06	-1.034479e-09	-3.829798e+01	-6.564050e+01
9.000000e-08	-5.502303e-06	-1.008826e-09	-3.827347e+01	-6.558636e+01
1.000000e-07	-5.498388e-06	-9.616433e-10	-3.824624e+01	-6.552899e+01
1.100000e-07	-5.494099e-06	-9.815231e-10	-3.821640e+01	-6.546826e+01
1.200000e-07	-5.489523e-06	-1.002255e-09	-3.818457e+01	-6.540406e+01
1.300000e-07	-5.484758e-06	-1.054963e-09	-3.815143e+01	-6.533628e+01
1.400000e-07	-5.479635e-06	-1.014425e-09	-3.811579e+01	-6.526484e+01
1.500000e-07	-5.474070e-06	-9.924279e-10	-3.807708e+01	-6.518967e+01
1.600000e-07	-5.468189e-06	-1.009936e-09	-3.803618e+01	-6.511073e+01
1.700000e-07	-5.462041e-06	-1.013333e-09	-3.799341e+01	-6.502799e+01
1.800000e-07	-5.455464e-06	-1.018248e-09	-3.794767e+01	-6.494142e+01
1.900000e-07	-5.448377e-06	-9.605966e-10	-3.789836e+01	-6.485105e+01
2.000000e-07	-5.441059e-06	-1.000608e-09	-3.784746e+01	-6.475689e+01
2.100000e-07	-5.433610e-06	-1.019220e-09	-3.779565e+01	-6.465899e+01
2.200000e-07	-5.425840e-06	-1.057691e-09	-3.774160e+01	-6.455742e+01
2.300000e-07	-5.417685e-06	-1.001125e-09	-3.768488e+01	-6.445227e+01
2.400000e-07	-5.409112e-06	-1.000951e-09	-3.762524e+01	-6.434364e+01
2.500000e-07	-5.399940e-06	-9.856520e-10	-3.756145e+01	-6.423164e+01
2.600000e-07	-5.390029e-06	-9.941388e-10	-3.749250e+01	-6.411643e+01
2.700000e-07	-5.379488e-06	-9.675859e-10	-3.741918e+01	-6.399814e+01
2.800000e-07	-5.368534e-06	-9.672216e-10	-3.734299e+01	-6.387696e+01
2.900000e-07	-5.357109e-06	-9.586701e-10	-3.726351e+01	-6.375305e+01
3.000000e-07	-5.345245e-06	-9.551997e-10	-3.718099e+01	-6.362662e+01
3.100000e-07	-5.333094e-06	-9.421944e-10	-3.709647e+01	-6.349786e+01
3.200000e-07	-5.320548e-06	-9.292126e-10	-3.700920e+01	-6.336698e+01
3.300000e-07	-5.307524e-06	-9.390043e-10	-3.691861e+01	-6.323418e+01
3.400000e-07	-5.294139e-06	-9.312022e-10	-3.682550e+01	-6.309970e+01
3.500000e-07	-5.280324e-06	-9.325917e-10	-3.672941e+01	-6.296374e+01
3.600000e-07	-5.266022e-06	-9.201971e-10	-3.662992e+01	-6.282652e+01
3.700000e-07	-5.251238e-06	-9.334106e-10	-3.652708e+01	-6.268826e+01
3.800000e-07	-5.235986e-06	-9.251385e-10	-3.642100e+01	-6.254915e+01
3.900000e-07	-5.220274e-06	-9.330792e-10	-3.631170e+01	-6.240941e+01
4.000000e-07	-5.204063e-06	-9.131761e-10	-3.619894e+01	-6.226922e+01
4.100000e-07	-5.187440e-06	-9.234897e-10	-3.608332e+01	-6.212876e+01
4.200000e-07	-5.170492e-06	-9.142001e-10	-3.596542e+01	-6.198820e+01
4.300000e-07	-5.153272e-06	-9.194508e-10	-3.584565e+01	-6.184770e+01
4.400000e-07	-5.135743e-06	-9.093008e-10	-3.572372e+01	-6.170739e+01
4.500000e-07	-5.117817e-06	-9.265765e-10	-3.559902e+01	-6.156739e+01
4.600000e-07	-5.099452e-06	-8.993589e-10	-3.547128e+01	-6.142781e+01
4.700000e-07	-5.080648e-06	-8.985660e-10	-3.534048e+01	-6.128874e+01
4.800000e-07	-5.061520e-06	-9.107784e-10	-3.520743e+01	-6.115023e+01
4.900000e-07	-5.042134e-06	-9.197014e-10	-3.507258e+01	-6.101233e+01
5.000000e-07	-5.022517e-06	-8.822045e-10	-3.493613e+01	-6.087507e+01
5.100000e-07	-5.002703e-06	-8.974853e-10	-3.479830e+01	-6.073845e+01
5.200000e-07	-4.982654e-06	-9.086774e-10	-3.465884e+01	-6.060245e+01
5.300000e-07	-4.962247e-06	-8.896607e-10	-3.451689e+01	-6.046704e+01
5.400000e-07	-4.941452e-06	-8.729729e-10	-3.437225e+01	-6.033216e+01
5.500000e-07	-4.920375e-06	-8.975337e-10	-3.422564e+01	-6.019773e+01
5.600000e-07	-4.898955e-06	-8.849532e-10	-3.407664e+01	-6.006367e+01
5.700000e-07	-4.877203e-06	-8.754730e-10	-3.392533e+01	-5.992987e+01
5.800000e-07	-4.855138e-06	-8.971875e-10	-3.377186e+01	-5.979619e+01
5.900000e-07	-4.832753e-06	-8.944981e-10	-3.361614e+01	-5.966250e+01
6.000000e-07	-4.809903e-06	-8.670474e-10	-3.345720e+01	-5.952865e+01
6.100000e-07	-4.786634e-06	-8.782891e-10	-3.329535e+01	-5.939448e+01
6.200000e-07	-4.763156e-06	-8.881321e-10	-3.313204e+01	-5.925981e+01
6.300000e-07	-4.739514e-06	-8.637575e-10	-3.296758e+01	-5.912447e+01
6.400000e-07	-4.715714e-06	-8.730578e-10	-3.280203e+01	-5.898826e+01
6.500000e-07	-4.691591e-06	-8.864565e-10	-3.263424e+01	-5.885101e+01
6.600000e-07	-4.666963e-06	-8.721970e-10	-3.246293e+01	-5.871251e+01
6.700000e-07	-4.641835e-06	-8.606569e-10	-3.228814e+01	-5.857258e+01
6.800000e-07	-4.616216e-06	-8.753440e-10	-3.210994e+01	-5.843103e+01
6.900000e-07	-4.589914e-06	-8.571976e-10	-3.192698e+01	-5.828768e+01
7.000000e-07	-4.563054e-06	-8.524931e-10	-3.174015e+01	-5.814233e+01
7.100000e-07	-4.535988e-06	-8.599401e-10	-3.155188e+01	-5.799482e+01
7.200000e-07	-4.508731e-06	-8.613450e-10	-3.136228e+01	-5.784497e+01
7.300000e-07	-4.481219e-06	-8.485701e-10	-3.117091e+01	-5.769264e+01
7.400000e-07	-4.453487e-06	-8.591525e-10	-3.097801e+01	-5.753767e+01
7.500000e-07	-4.425520e-06	-8.486299e-10	-3.078348e+01	-5.737993e+01
7.600000e-07	-4.397280e-06	-8.407281e-10	-3.058704e+01	-5.721929e+01
7.700000e-07	-4.368780e-06	-8.417459e-10	-3.038880e+01	-5.705565e+01
7.800000e-07	-4.339979e-06	-8.454099e-10	-3.018846e+01	-5.688891e+01
7.900000e-07	-4.310821e-06	-8.315985e-10	-2.998564e+01	-5.671898e+01
8.000000e-07	-4.281324e-06	-8.359415e-10	-2.978046e+01	-5.654581e+01
8.100000e-07	-4.251536e-06	-8.310593e-10	-2.957326e+01	-5.636932e+01
8.200000e-07	-4.221512e-06	-8.179852e-10	-2.936442e+01	-5.618950e+01
8.300000e-07	-4.191164e-06	-8.101902e-10	-2.915332e+01	-5.600630e+01
8.400000e-07	-4.160477e-06	-8.154140e-10	-2.893987e+01	-5.581971e+01
8.500000e-07	-4.129490e-06	-8.087661e-10	-2.872432e+01	-5.562974e+01
8.600000e-07	-4.098279e-06	-8.073686e-10	-2.850722e+01	-5.543639e+01
8.700000e-07	-4.066966e-06	-8.150466e-10	-2.828941e+01	-5.523969e+01
8.800000e-07	-4.035505e-06	-8.140959e-10	-2.807057e+01	-5.503966e+01
8.900000e-07	-4.003828e-06	-8.040988e-10	-2.785023e+01	-5.483635e+01
9.000000e-07	-3.971939e-06	-7.965201e-10	-2.762841e+01	-5.462980e+01
9.100000e-07	-3.939814e-06	-7.894392e-10	-2.740495e+01	-5.442006e+01
9.200000e-07	-3.907255e-06	-7.772447e-10	-2.717848e+01	-5.420719e+01
9.300000e-07	-3.874155e-06	-7.763085e-10	-2.694824e+01	-5.399125e+01
9.400000e-07	-3.840652e-06	-7.804308e-10	-2.671519e+01	-5.377230e+01
9.500000e-07	-3.806776e-06	-7.781721e-10	-2.647955e+01	-5.355040e+01
9.600000e-07	-3.772496e-06	-7.715416e-10	-2.624110e+01	-5.332560e+01
9.700000e-07	-3.737812e-06	-7.713246e-10	-2.599985e+01	-5.309797e+01
9.800000e-07	-3.702745e-06	-7.617814e-10	-2.575592e+01	-5.286755e+01
9.900000e-07	-3.667384e-06	-7.567934e-10	-2.550995e+01	-5.263440e+01
1.000000e-06	-3.631813e-06	-7.566206e-10	-2.526253e+01	-5.239856e+01
1.010000e-06	-3.596135e-06	-7.601503e-10	-2.501435e+01	-5.216005e+01
1.020000e-06	-3.560391e-06	-7.561693e-10	-2.476573e+01	-5.191891e+01
1.030000e-06	-3.524587e-06	-7.574981e-10	-2.451667e+01	-5.167514e+01
1.040000e-06	-3.488646e-06	-7.537603e-10	-2.426667e+01	-5.142875e+01
1.050000e-06	-3.452370e-06	-7.489919e-10	-2.401434e+01	-5.117975e+01
1.060000e-06	-3.415680e-06	-7.414455e-10	-2.375913e+01	-5.092810e+01
1.070000e-06	-3.378728e-06	-7.403329e-10	-2.350209e+01	-5.067378e+01
1.080000e-06	-3.341581e-06	-7.343403e-10	-2.324370e+01	-5.041675e+01
1.090000e-06	-3.304190e-06	-7.320013e-10	-2.298361e+01	-5.015697e+01
1.100000e-06	-3.266615e-06	-7.291810e-10	-2.272225e+01	-4.989436e+01
1.110000e-06	-3.228782e-06	-7.248298e-10	-2.245909e+01	-4.962885e+01
1.120000e-06	-3.190692e-06	-7.167191e-10	-2.219414e+01	-4.936036e+01
1.130000e-06	-3.152435e-06	-7.138690e-10	-2.192803e+01	-4.908879e+01
1.140000e-06	-3.113924e-06	-7.119203e-10	-2.166014e+01	-4.881403e+01
1.150000e-06	-3.075127e-06	-7.073189e-10	-2.139028e+01	-4.853597e+01
1.160000e-06	-3.036138e-06	-7.030447e-10	-2.111907e+01	-4.825448e+01
1.170000e-06	-2.997015e-06	-7.014573e-10	-2.084694e+01	-4.796943e+01
1.180000e-06	-2.957710e-06	-6.966465e-10	-2.057354e+01	-4.768068e+01
1.190000e-06	-2.918248e-06	-6.908017e-10	-2.029904e+01	-4.738809e+01
1.200000e-06	-2.878683e-06	-6.865326e-10	-2.002383e+01	-4.709149e+01
1.210000e-06	-2.839048e-06	-6.805468e-10	-1.974813e+01	-4.679075e+01
1.220000e-06	-2.799288e-06	-6.738764e-10	-1.947156e+01	-4.648569e+01
1.230000e-06	-2.759312e-06	-6.678883e-10	-1.919350e+01	-4.617616e+01
1.240000e-06	-2.719192e-06	-6.644482e-10	-1.891443e+01	-4.586200e+01
1.250000e-06	-2.678908e-06	-6.583802e-10	-1.863422e+01	-4.554302e+01
1.260000e-06	-2.638343e-06	-6.556894e-10	-1.835205e+01	-4.521908e+01
1.270000e-06	-2.597505e-06	-6.496641e-10	-1.806799e+01	-4.489001e+01
1.280000e-06	-2.556339e-06	-6.435900e-10	-1.778164e+01	-4.455563e+01
1.290000e-06	-2.514794e-06	-6.382468e-10	-1.749266e+01	-4.421578e+01
1.300000e-06	-2.472988e-06	-6.355200e-10	-1.720185e+01	-4.387031e+01
1.310000e-06	-2.430942e-06	-6.290089e-10	-1.690939e+01	-4.351905e+01
1.320000e-06	-2.388584e-06	-6.225118e-10	-1.661475e+01	-4.316184e+01
1.330000e-06	-2.345972e-06	-6.156570e-10	-1.631835e+01	-4.279852e+01
1.340000e-06	-2.303142e-06	-6.091708e-10	-1.602043e+01	-4.242893e+01
1.350000e-06	-2.260046e-06	-6.030737e-10	-1.572066e+01	-4.205291e+01
1.360000e-06	-2.216710e-06	-5.993003e-10	-1.541922e+01	-4.167032e+01
1.370000e-06	-2.173264e-06	-5.947872e-10	-1.511701e+01	-4.128099e+01
1.380000e-06	-2.129763e-06	-5.911457e-10	-1.481442e+01	-4.088476e+01
1.390000e-06	-2.086154e-06	-5.843220e-10	-1.451108e+01	-4.048149e+01
1.400000e-06	-2.042433e-06	-5.764890e-10	-1.420696e+01	-4.007100e+01
1.410000e-06	-1.998683e-06	-5.669333e-10	-1.390264e+01	-3.965315e+01
1.420000e-06	-1.954917e-06	-5.577816e-10	-1.359821e+01	-3.922775e+01
1.430000e-06	-1.911067e-06	-5.503387e-10	-1.329319e+01	-3.879465e+01
1.440000e-06	-1.867106e-06	-5.460423e-10	-1.298740e+01	-3.835366e+01
1.450000e-06	-1.823055e-06	-5.432949e-10	-1.268099e+01	-3.790461e+01
1.460000e-06	-1.778936e-06	-5.388385e-10	-1.237410e+01	-3.744731e+01
1.470000e-06	-1.734707e-06	-5.308583e-10	-1.206645e+01	-3.698157e+01
1.480000e-06	-1.690280e-06	-5.198254e-10	-1.175742e+01	-3.650717e+01
1.490000e-06	-1.645659e-06	-5.101549e-10	-1.144704e+01	-3.602391e+01
1.500000e-06	-1.600904e-06	-5.027354e-10	-1.113573e+01	-3.553156e+01
1.510000e-06	-1.556006e-06	-4.970979e-10	-1.082342e+01	-3.502990e+01
1.520000e-06	-1.510934e-06	-4.926107e-10	-1.050991e+01	-3.451868e+01
1.530000e-06	-1.465721e-06	-4.869892e-10	-1.019541e+01	-3.399766e+01
1.540000e-06	-1.420426e-06	-4.797238e-10	-9.880342e+00	-3.346656e+01
1.550000e-06	-1.375030e-06	-4.720657e-10	-9.564572e+00	-3.292512e+01
1.560000e-06	-1.329555e-06	-4.619980e-10	-9.248249e+00	-3.237307e+01
1.570000e-06	-1.284060e-06	-4.524694e-10	-8.931796e+00	-3.181010e+01
1.580000e-06	-1.238450e-06	-4.457862e-10	-8.614537e+00	-3.123593e+01
1.590000e-06	-1.192675e-06	-4.387289e-10	-8.296131e+00	-3.065026e+01
1.600000e-06	-1.146811e-06	-4.300657e-10	-7.977104e+00	-3.005277e+01
1.610000e-06	-1.100935e-06	-4.226330e-10	-7.657996e+00	-2.944315e+01
1.620000e-06	-1.055037e-06	-4.118384e-10	-7.338730e+00	-2.882110e+01
1.630000e-06	-1.009048e-06	-4.002113e-10	-7.018834e+00	-2.818629e+01
1.640000e-06	-9.629996e-07	-3.893960e-10	-6.698529e+00	-2.753842e+01
1.650000e-06	-9.168417e-07	-3.793272e-10	-6.377459e+00	-2.687718e+01
1.660000e-06	-8.706188e-07	-3.685047e-10	-6.055937e+00	-2.620227e+01
1.670000e-06	-8.244074e-07	-3.584637e-10	-5.734495e+00	-2.551340e+01
1.680000e-06	-7.780772e-07	-3.490871e-10	-5.412227e+00	-2.481029e+01
1.690000e-06	-7.316126e-07	-3.410749e-10	-5.089024e+00	-2.409267e+01
1.700000e-06	-6.850893e-07	-3.300620e-10	-4.765413e+00	-2.336029e+01
1.710000e-06	-6.385757e-07	-3.180776e-10	-4.441869e+00	-2.261294e+01
1.720000e-06	-5.920071e-07	-3.041558e-10	-4.117942e+00	-2.185041e+01
1.730000e-06	-5.453824e-07	-2.921446e-10	-3.793626e+00	-2.107252e+01
1.740000e-06	-4.988188e-07	-2.798333e-10	-3.469734e+00	-2.027912e+01
1.750000e-06	-4.522788e-07	-2.659875e-10	-3.146006e+00	-1.947010e+01
1.760000e-06	-4.056803e-07	-2.540448e-10	-2.821872e+00	-1.864538e+01
1.770000e-06	-3.590169e-07	-2.435244e-10	-2.497285e+00	-1.780492e+01
1.780000e-06	-3.122773e-07	-2.321463e-10	-2.172170e+00	-1.694871e+01
1.790000e-06	-2.654227e-07	-2.189345e-10	-1.846254e+00	-1.607680e+01
1.800000e-06	-2.185847e-07	-2.062373e-10	-1.520453e+00	-1.518926e+01
1.810000e-06	-1.718210e-07	-1.932957e-10	-1.195170e+00	-1.428624e+01
1.820000e-06	-1.250821e-07	-1.781169e-10	-8.700587e-01	-1.336791e+01
1.830000e-06	-7.836877e-08	-1.618341e-10	-5.451254e-01	-1.243449e+01
1.840000e-06	-3.163281e-08	-1.461003e-10	-2.200347e-01	-1.148628e+01
1.850000e-06	1.517573e-08	-1.307825e-10	1.055609e-01	-1.052360e+01
1.860000e-06	6.198029e-08	-1.189591e-10	4.311287e-01	-9.546827e+00
1.870000e-06	1.087792e-07	-1.042061e-10	7.566572e-01	-8.556405e+00
1.880000e-06	1.554934e-07	-8.793135e-11	1.081596e+00	-7.552818e+00
1.890000e-06	2.021611e-07	-7.305877e-11	1.406213e+00	-6.536604e+00
1.900000e-06	2.488893e-07	-6.015895e-11	1.731249e+00	-5.508352e+00
1.910000e-06	2.956163e-07	-4.709315e-11	2.056278e+00	-4.468697e+00
1.920000e-06	3.423676e-07	-3.202575e-11	2.381474e+00	-3.418325e+00
1.930000e-06	3.890839e-07	-1.506450e-11	2.706428e+00	-2.357965e+00
1.940000e-06	4.357671e-07	2.505532e-12	3.031152e+00	-1.288390e+00
1.950000e-06	4.824535e-07	2.154056e-11	3.355898e+00	-2.104122e-01
1.960000e-06	5.291011e-07	3.821214e-11	3.680375e+00	8.751183e-01
1.970000e-06	5.756889e-07	5.080255e-11	4.004435e+00	1.967317e+00
1.980000e-06	6.221440e-07	6.254984e-11	4.327571e+00	3.065271e+00
1.990000e-06	6.684758e-07	7.573188e-11	4.649851e+00	4.168036e+00
2.000000e-06	7.147557e-07	8.753508e-11	4.971769e+00	5.274651e+00
2.010000e-06	7.609938e-07	1.039571e-10	5.293397e+00	6.384131e+00
2.020000e-06	8.071663e-07	1.221874e-10	5.614568e+00	7.495480e+00
2.030000e-06	8.533215e-07	1.405185e-10	5.935619e+00	8.607691e+00
2.040000e-06	8.995275e-07	1.599248e-10	6.257023e+00	9.719751e+00
2.050000e-06	9.456632e-07	1.769171e-10	6.577939e+00	1.083065e+01
2.060000e-06	9.916368e-07	1.922619e-10	6.897727e+00	1.193937e+01
2.070000e-06	1.037545e-06	2.049210e-10	7.217058e+00	1.304492e+01
2.080000e-06	1.083348e-06	2.176767e-10	7.535662e+00	1.414630e+01
2.090000e-06	1.129026e-06	2.305636e-10	7.853395e+00	1.524254e+01
2.100000e-06	1.174680e-06	2.462207e-10	8.170955e+00	1.633270e+01
2.110000e-06	1.220268e-06	2.646226e-10	8.488061e+00	1.741585e+01
2.120000e-06	1.265823e-06	2.838422e-10	8.804942e+00	1.849109e+01
2.130000e-06	1.311422e-06	2.998649e-10	9.122120e+00	1.955755e+01
2.140000e-06	1.356902e-06	3.138257e-10	9.438477e+00	2.061442e+01
2.150000e-06	1.402186e-06	3.268503e-10	9.753463e+00	2.166090e+01
2.160000e-06	1.447380e-06	3.381207e-10	1.006783e+01	2.269625e+01
2.170000e-06	1.492501e-06	3.499956e-10	1.038169e+01	2.371977e+01
2.180000e-06	1.537422e-06	3.645128e-10	1.069416e+01	2.473080e+01
2.190000e-06	1.582186e-06	3.804208e-10	1.100553e+01	2.572874e+01
2.200000e-06	1.626843e-06	3.968704e-10	1.131616e+01	2.671303e+01
2.210000e-06	1.671371e-06	4.121643e-10	1.162589e+01	2.768317e+01
2.220000e-06	1.715784e-06	4.257165e-10	1.193482e+01	2.863870e+01
2.230000e-06	1.760086e-06	4.356665e-10	1.224298e+01	2.957924e+01
2.240000e-06	1.804303e-06	4.459784e-10	1.255055e+01	3.050443e+01
2.250000e-06	1.848361e-06	4.576256e-10	1.285701e+01	3.141397e+01
2.260000e-06	1.892264e-06	4.697278e-10	1.316240e+01	3.230762e+01
2.270000e-06	1.936110e-06	4.832814e-10	1.346739e+01	3.318519e+01
2.280000e-06	1.979909e-06	4.968824e-10	1.377205e+01	3.404653e+01
2.290000e-06	2.023627e-06	5.086206e-10	1.407614e+01	3.489155e+01
2.300000e-06	2.067268e-06	5.186521e-10	1.437971e+01	3.572018e+01
2.310000e-06	2.110859e-06	5.271382e-10	1.468293e+01	3.653243e+01
2.320000e-06	2.154396e-06	5.366666e-10	1.498577e+01	3.732833e+01
2.330000e-06	2.197813e-06	5.487105e-10	1.528777e+01	3.810793e+01
2.340000e-06	2.241075e-06	5.607865e-10	1.558869e+01	3.887135e+01
2.350000e-06	2.284215e-06	5.722727e-10	1.588877e+01	3.961872e+01
2.360000e-06	2.327206e-06	5.810452e-10	1.618781e+01	4.035020e+01
2.370000e-06	2.369882e-06	5.888460e-10	1.648466e+01	4.106600e+01
2.380000e-06	2.412231e-06	5.971238e-10	1.677924e+01	4.176631e+01
2.390000e-06	2.454296e-06	6.062434e-10	1.707184e+01	4.245139e+01
2.400000e-06	2.496117e-06	6.153634e-10	1.736274e+01	4.312147e+01
2.410000e-06	2.537666e-06	6.250020e-10	1.765175e+01	4.377682e+01
2.420000e-06	2.578890e-06	6.348477e-10	1.793850e+01	4.441772e+01
2.430000e-06	2.619771e-06	6.451856e-10	1.822287e+01	4.504445e+01
2.440000e-06	2.660380e-06	6.538700e-10	1.850534e+01	4.565729e+01
2.450000e-06	2.700835e-06	6.597514e-10	1.878674e+01	4.625654e+01
2.460000e-06	2.741082e-06	6.654643e-10	1.906669e+01	4.684248e+01
2.470000e-06	2.781162e-06	6.733548e-10	1.934548e+01	4.741540e+01
2.480000e-06	2.821087e-06	6.823542e-10	1.962320e+01	4.797558e+01
2.490000e-06	2.860858e-06	6.916176e-10	1.989985e+01	4.852330e+01
2.500000e-06	2.900478e-06	7.015369e-10	2.017543e+01	4.905882e+01
2.510000e-06	2.939981e-06	7.118117e-10	2.045021e+01	4.958239e+01
2.520000e-06	2.979394e-06	7.205779e-10	2.072437e+01	5.009428e+01
2.530000e-06	3.018638e-06	7.272978e-10	2.099734e+01	5.059470e+01
2.540000e-06	3.057658e-06	7.345269e-10	2.126877e+01	5.108389e+01
2.550000e-06	3.096409e-06	7.441958e-10	2.153831e+01	5.156205e+01
2.560000e-06	3.134850e-06	7.514019e-10	2.180570e+01	5.202937e+01
2.570000e-06	3.173015e-06	7.552949e-10	2.207118e+01	5.248606e+01
2.580000e-06	3.211052e-06	7.610829e-10	2.233575e+01	5.293226e+01
2.590000e-06	3.248927e-06	7.690412e-10	2.259921e+01	5.336816e+01
2.600000e-06	3.286546e-06	7.756807e-10	2.286089e+01	5.379389e+01
2.610000e-06	3.323990e-06	7.816545e-10	2.312134e+01	5.420959e+01
2.620000e-06	3.361233e-06	7.887652e-10	2.338040e+01	5.461539e+01
2.630000e-06	3.398128e-06	7.963370e-10	2.363704e+01	5.501141e+01
2.640000e-06	3.434784e-06	8.024782e-10	2.389201e+01	5.539776e+01
2.650000e-06	3.471263e-06	8.063731e-10	2.414576e+01	5.577455e+01
2.660000e-06	3.507491e-06	8.111242e-10	2.439776e+01	5.614188e+01
2.670000e-06	3.543539e-06	8.157237e-10	2.464851e+01	5.649986e+01
2.680000e-06	3.579434e-06	8.197426e-10	2.489818e+01	5.684857e+01
2.690000e-06	3.615119e-06	8.243977e-10	2.514640e+01	5.718811e+01
2.700000e-06	3.650640e-06	8.279609e-10	2.539349e+01	5.751858e+01
2.710000e-06	3.686082e-06	8.311698e-10	2.564002e+01	5.784008e+01
2.720000e-06	3.721285e-06	8.358808e-10	2.588489e+01	5.815272e+01
2.730000e-06	3.756067e-06	8.406220e-10	2.612683e+01	5.845659e+01
2.740000e-06	3.790469e-06	8.462051e-10	2.636612e+01	5.875180e+01
2.750000e-06	3.824524e-06	8.506792e-10	2.660301e+01	5.903849e+01
2.760000e-06	3.858172e-06	8.531754e-10	2.683706e+01	5.931677e+01
2.770000e-06	3.891299e-06	8.543601e-10	2.706749e+01	5.958678e+01
2.780000e-06	3.924044e-06	8.566676e-10	2.729526e+01	5.984865e+01
2.790000e-06	3.956596e-06	8.609234e-10	2.752168e+01	6.010255e+01
2.800000e-06	3.988873e-06	8.639107e-10	2.774620e+01	6.034862e+01
2.810000e-06	4.020835e-06	8.655651e-10	2.796853e+01	6.058703e+01
2.820000e-06	4.052510e-06	8.676328e-10	2.818885e+01	6.081796e+01
2.830000e-06	4.084014e-06	8.699379e-10	2.840799e+01	6.104159e+01
2.840000e-06	4.115322e-06	8.721403e-10	2.862577e+01	6.125811e+01
2.850000e-06	4.146406e-06	8.755772e-10	2.884199e+01	6.146773e+01
2.860000e-06	4.177190e-06	8.808171e-10	2.905612e+01	6.167064e+01
2.870000e-06	4.207627e-06	8.843001e-10	2.926784e+01	6.186705e+01
2.880000e-06	4.237751e-06	8.841090e-10	2.947738e+01	6.205717e+01
2.890000e-06	4.267559e-06	8.828177e-10	2.968471e+01	6.224123e+01
2.900000e-06	4.297089e-06	8.811925e-10	2.989012e+01	6.241944e+01
