# Temperatura_=_-0.3
# Concentracion g/m^3_=_1620.0
# C_Vs_to_Am_M_A/Vsm_=_65563218390.804596
# pendiente_HvsI_1/m_=_3716.3
# ordenada_HvsI_A/m_=_1297.0
# frecuencia_Hz_=_135104.39678159176

Tiempo_(s)	Campo_(V.s)	Magnetizacion_(V.s)	Campo_(kA/m)	Magnetizacion_(A/m)
0.000000e+00	-5.509705e-06	-1.451169e-09	-3.836706e+01	-9.427601e+01
1.000000e-08	-5.509799e-06	-1.444642e-09	-3.836772e+01	-9.425114e+01
2.000000e-08	-5.509657e-06	-1.440812e-09	-3.836672e+01	-9.422520e+01
3.000000e-08	-5.509174e-06	-1.440586e-09	-3.836336e+01	-9.419823e+01
4.000000e-08	-5.508237e-06	-1.441800e-09	-3.835684e+01	-9.417028e+01
5.000000e-08	-5.506691e-06	-1.444632e-09	-3.834608e+01	-9.414138e+01
6.000000e-08	-5.504448e-06	-1.449697e-09	-3.833045e+01	-9.411154e+01
7.000000e-08	-5.501589e-06	-1.424049e-09	-3.831055e+01	-9.408076e+01
8.000000e-08	-5.498238e-06	-1.380679e-09	-3.828721e+01	-9.404900e+01
9.000000e-08	-5.494521e-06	-1.452423e-09	-3.826132e+01	-9.401623e+01
1.000000e-07	-5.490415e-06	-1.570452e-09	-3.823273e+01	-9.398239e+01
1.100000e-07	-5.485938e-06	-1.476736e-09	-3.820156e+01	-9.394740e+01
1.200000e-07	-5.481405e-06	-1.337813e-09	-3.816999e+01	-9.391118e+01
1.300000e-07	-5.476766e-06	-1.378690e-09	-3.813769e+01	-9.387362e+01
1.400000e-07	-5.471596e-06	-1.531523e-09	-3.810169e+01	-9.383459e+01
1.500000e-07	-5.465834e-06	-1.495084e-09	-3.806157e+01	-9.379398e+01
1.600000e-07	-5.459749e-06	-1.320486e-09	-3.801919e+01	-9.375162e+01
1.700000e-07	-5.453308e-06	-1.372832e-09	-3.797434e+01	-9.370737e+01
1.800000e-07	-5.446300e-06	-1.525362e-09	-3.792554e+01	-9.366105e+01
1.900000e-07	-5.438891e-06	-1.532297e-09	-3.787394e+01	-9.361249e+01
2.000000e-07	-5.431360e-06	-1.391000e-09	-3.782150e+01	-9.356150e+01
2.100000e-07	-5.423614e-06	-1.404067e-09	-3.776756e+01	-9.350789e+01
2.200000e-07	-5.415485e-06	-1.500969e-09	-3.771096e+01	-9.345147e+01
2.300000e-07	-5.407006e-06	-1.511476e-09	-3.765191e+01	-9.339203e+01
2.400000e-07	-5.398145e-06	-1.416572e-09	-3.759021e+01	-9.332937e+01
2.500000e-07	-5.388571e-06	-1.410352e-09	-3.752354e+01	-9.326329e+01
2.600000e-07	-5.378101e-06	-1.469533e-09	-3.745063e+01	-9.319358e+01
2.700000e-07	-5.367142e-06	-1.469410e-09	-3.737432e+01	-9.312004e+01
2.800000e-07	-5.355895e-06	-1.402297e-09	-3.729600e+01	-9.304246e+01
2.900000e-07	-5.344246e-06	-1.392650e-09	-3.721488e+01	-9.296066e+01
3.000000e-07	-5.332233e-06	-1.449241e-09	-3.713122e+01	-9.287443e+01
3.100000e-07	-5.319833e-06	-1.444020e-09	-3.704488e+01	-9.278359e+01
3.200000e-07	-5.306935e-06	-1.383074e-09	-3.695507e+01	-9.268796e+01
3.300000e-07	-5.293519e-06	-1.369449e-09	-3.686164e+01	-9.258737e+01
3.400000e-07	-5.279761e-06	-1.440531e-09	-3.676584e+01	-9.248166e+01
3.500000e-07	-5.265781e-06	-1.419203e-09	-3.666849e+01	-9.237067e+01
3.600000e-07	-5.251271e-06	-1.353655e-09	-3.656745e+01	-9.225425e+01
3.700000e-07	-5.236204e-06	-1.387197e-09	-3.646252e+01	-9.213228e+01
3.800000e-07	-5.220734e-06	-1.447505e-09	-3.635480e+01	-9.200463e+01
3.900000e-07	-5.204569e-06	-1.357726e-09	-3.624223e+01	-9.187118e+01
4.000000e-07	-5.188001e-06	-1.341913e-09	-3.612686e+01	-9.173185e+01
4.100000e-07	-5.171356e-06	-1.447747e-09	-3.601095e+01	-9.158654e+01
4.200000e-07	-5.154380e-06	-1.410644e-09	-3.589274e+01	-9.143517e+01
4.300000e-07	-5.136935e-06	-1.280900e-09	-3.577126e+01	-9.127767e+01
4.400000e-07	-5.119132e-06	-1.380132e-09	-3.564729e+01	-9.111401e+01
4.500000e-07	-5.101011e-06	-1.454495e-09	-3.552110e+01	-9.094412e+01
4.600000e-07	-5.082365e-06	-1.310903e-09	-3.539126e+01	-9.076799e+01
4.700000e-07	-5.063284e-06	-1.294105e-09	-3.525839e+01	-9.058558e+01
4.800000e-07	-5.044026e-06	-1.432114e-09	-3.512429e+01	-9.039690e+01
4.900000e-07	-5.024520e-06	-1.357694e-09	-3.498845e+01	-9.020194e+01
5.000000e-07	-5.004760e-06	-1.277054e-09	-3.485086e+01	-9.000071e+01
5.100000e-07	-4.984809e-06	-1.400344e-09	-3.471193e+01	-8.979323e+01
5.200000e-07	-4.964568e-06	-1.386043e-09	-3.457097e+01	-8.957953e+01
5.300000e-07	-4.943884e-06	-1.244509e-09	-3.442694e+01	-8.935964e+01
5.400000e-07	-4.922818e-06	-1.332035e-09	-3.428025e+01	-8.913361e+01
5.500000e-07	-4.901396e-06	-1.408359e-09	-3.413108e+01	-8.890149e+01
5.600000e-07	-4.879541e-06	-1.268014e-09	-3.397889e+01	-8.866332e+01
5.700000e-07	-4.857437e-06	-1.265983e-09	-3.382497e+01	-8.841918e+01
5.800000e-07	-4.835154e-06	-1.381224e-09	-3.366979e+01	-8.816912e+01
5.900000e-07	-4.812425e-06	-1.311135e-09	-3.351152e+01	-8.791323e+01
6.000000e-07	-4.789215e-06	-1.256100e-09	-3.334990e+01	-8.765156e+01
6.100000e-07	-4.765818e-06	-1.353170e-09	-3.318697e+01	-8.738420e+01
6.200000e-07	-4.742279e-06	-1.329332e-09	-3.302306e+01	-8.711124e+01
6.300000e-07	-4.718525e-06	-1.252539e-09	-3.285765e+01	-8.683274e+01
6.400000e-07	-4.694564e-06	-1.303462e-09	-3.269080e+01	-8.654880e+01
6.500000e-07	-4.670255e-06	-1.314478e-09	-3.252152e+01	-8.625949e+01
6.600000e-07	-4.645372e-06	-1.242804e-09	-3.234824e+01	-8.596491e+01
6.700000e-07	-4.619971e-06	-1.273824e-09	-3.217136e+01	-8.566513e+01
6.800000e-07	-4.593991e-06	-1.305384e-09	-3.199045e+01	-8.536024e+01
6.900000e-07	-4.567406e-06	-1.256731e-09	-3.180533e+01	-8.505034e+01
7.000000e-07	-4.540432e-06	-1.255913e-09	-3.161749e+01	-8.473549e+01
7.100000e-07	-4.513072e-06	-1.286824e-09	-3.142696e+01	-8.441579e+01
7.200000e-07	-4.485475e-06	-1.242192e-09	-3.123479e+01	-8.409131e+01
7.300000e-07	-4.457773e-06	-1.222878e-09	-3.104189e+01	-8.376213e+01
7.400000e-07	-4.429926e-06	-1.245820e-09	-3.084797e+01	-8.342833e+01
7.500000e-07	-4.401835e-06	-1.230044e-09	-3.065236e+01	-8.308999e+01
7.600000e-07	-4.373393e-06	-1.213694e-09	-3.045431e+01	-8.274717e+01
7.700000e-07	-4.344548e-06	-1.236910e-09	-3.025344e+01	-8.239995e+01
7.800000e-07	-4.315343e-06	-1.223345e-09	-3.005007e+01	-8.204841e+01
7.900000e-07	-4.285939e-06	-1.195862e-09	-2.984531e+01	-8.169259e+01
8.000000e-07	-4.256332e-06	-1.206380e-09	-2.963914e+01	-8.133257e+01
8.100000e-07	-4.226463e-06	-1.200020e-09	-2.943115e+01	-8.096840e+01
8.200000e-07	-4.196335e-06	-1.162827e-09	-2.922136e+01	-8.060014e+01
8.300000e-07	-4.165821e-06	-1.166135e-09	-2.900887e+01	-8.022785e+01
8.400000e-07	-4.134877e-06	-1.181675e-09	-2.879339e+01	-7.985157e+01
8.500000e-07	-4.103711e-06	-1.158600e-09	-2.857637e+01	-7.947136e+01
8.600000e-07	-4.072397e-06	-1.148576e-09	-2.835831e+01	-7.908725e+01
8.700000e-07	-4.040900e-06	-1.162479e-09	-2.813898e+01	-7.869928e+01
8.800000e-07	-4.009264e-06	-1.146832e-09	-2.791868e+01	-7.830750e+01
8.900000e-07	-3.977477e-06	-1.124497e-09	-2.769733e+01	-7.791194e+01
9.000000e-07	-3.945473e-06	-1.135763e-09	-2.747447e+01	-7.751263e+01
9.100000e-07	-3.913115e-06	-1.129806e-09	-2.724914e+01	-7.710959e+01
9.200000e-07	-3.880300e-06	-1.105666e-09	-2.702063e+01	-7.670284e+01
9.300000e-07	-3.847020e-06	-1.110117e-09	-2.678888e+01	-7.629242e+01
9.400000e-07	-3.813265e-06	-1.117124e-09	-2.655383e+01	-7.587832e+01
9.500000e-07	-3.779030e-06	-1.091991e-09	-2.631543e+01	-7.546056e+01
9.600000e-07	-3.744313e-06	-1.081833e-09	-2.607368e+01	-7.503915e+01
9.700000e-07	-3.709293e-06	-1.087873e-09	-2.582981e+01	-7.461410e+01
9.800000e-07	-3.674077e-06	-1.075867e-09	-2.558459e+01	-7.418540e+01
9.900000e-07	-3.638622e-06	-1.061439e-09	-2.533770e+01	-7.375304e+01
1.000000e-06	-3.603012e-06	-1.070047e-09	-2.508973e+01	-7.331703e+01
1.010000e-06	-3.567302e-06	-1.067807e-09	-2.484105e+01	-7.287733e+01
1.020000e-06	-3.531481e-06	-1.053482e-09	-2.459161e+01	-7.243395e+01
1.030000e-06	-3.495521e-06	-1.050204e-09	-2.434121e+01	-7.198685e+01
1.040000e-06	-3.459276e-06	-1.048155e-09	-2.408881e+01	-7.153602e+01
1.050000e-06	-3.422712e-06	-1.032074e-09	-2.383420e+01	-7.108141e+01
1.060000e-06	-3.385924e-06	-1.025160e-09	-2.357803e+01	-7.062300e+01
1.070000e-06	-3.348907e-06	-1.024440e-09	-2.332025e+01	-7.016075e+01
1.080000e-06	-3.311635e-06	-1.014151e-09	-2.306071e+01	-6.969462e+01
1.090000e-06	-3.274093e-06	-1.006021e-09	-2.279929e+01	-6.922455e+01
1.100000e-06	-3.236284e-06	-1.005842e-09	-2.253600e+01	-6.875050e+01
1.110000e-06	-3.198251e-06	-9.953561e-10	-2.227115e+01	-6.827241e+01
1.120000e-06	-3.160034e-06	-9.800314e-10	-2.200503e+01	-6.779023e+01
1.130000e-06	-3.121642e-06	-9.733982e-10	-2.173769e+01	-6.730388e+01
1.140000e-06	-3.083053e-06	-9.661208e-10	-2.146897e+01	-6.681330e+01
1.150000e-06	-3.044206e-06	-9.540156e-10	-2.119846e+01	-6.631841e+01
1.160000e-06	-3.005180e-06	-9.469917e-10	-2.092670e+01	-6.581914e+01
1.170000e-06	-2.965987e-06	-9.425240e-10	-2.065377e+01	-6.531540e+01
1.180000e-06	-2.926566e-06	-9.323809e-10	-2.037926e+01	-6.480711e+01
1.190000e-06	-2.886977e-06	-9.256018e-10	-2.010358e+01	-6.429418e+01
1.200000e-06	-2.847252e-06	-9.202849e-10	-1.982696e+01	-6.377650e+01
1.210000e-06	-2.807447e-06	-9.091154e-10	-1.954977e+01	-6.325397e+01
1.220000e-06	-2.767592e-06	-8.971243e-10	-1.927224e+01	-6.272649e+01
1.230000e-06	-2.727598e-06	-8.903901e-10	-1.899374e+01	-6.219395e+01
1.240000e-06	-2.687317e-06	-8.797370e-10	-1.871324e+01	-6.165622e+01
1.250000e-06	-2.646739e-06	-8.687991e-10	-1.843068e+01	-6.111318e+01
1.260000e-06	-2.606028e-06	-8.616379e-10	-1.814719e+01	-6.056469e+01
1.270000e-06	-2.565131e-06	-8.556766e-10	-1.786239e+01	-6.001063e+01
1.280000e-06	-2.523911e-06	-8.474867e-10	-1.757536e+01	-5.945083e+01
1.290000e-06	-2.482354e-06	-8.385185e-10	-1.728597e+01	-5.888516e+01
1.300000e-06	-2.440445e-06	-8.274231e-10	-1.699414e+01	-5.831344e+01
1.310000e-06	-2.398233e-06	-8.146092e-10	-1.670020e+01	-5.773552e+01
1.320000e-06	-2.355690e-06	-8.011246e-10	-1.640395e+01	-5.715120e+01
1.330000e-06	-2.312802e-06	-7.896974e-10	-1.610529e+01	-5.656031e+01
1.340000e-06	-2.269672e-06	-7.793226e-10	-1.580496e+01	-5.596265e+01
1.350000e-06	-2.226389e-06	-7.705879e-10	-1.550356e+01	-5.535802e+01
1.360000e-06	-2.182997e-06	-7.623847e-10	-1.520139e+01	-5.474618e+01
1.370000e-06	-2.139523e-06	-7.534174e-10	-1.489866e+01	-5.412693e+01
1.380000e-06	-2.095976e-06	-7.413313e-10	-1.459541e+01	-5.350002e+01
1.390000e-06	-2.052350e-06	-7.276031e-10	-1.429163e+01	-5.286520e+01
1.400000e-06	-2.008626e-06	-7.156109e-10	-1.398715e+01	-5.222222e+01
1.410000e-06	-1.964800e-06	-7.062968e-10	-1.368196e+01	-5.157079e+01
1.420000e-06	-1.920899e-06	-6.983052e-10	-1.337626e+01	-5.091065e+01
1.430000e-06	-1.876913e-06	-6.895948e-10	-1.306996e+01	-5.024148e+01
1.440000e-06	-1.832879e-06	-6.798238e-10	-1.276333e+01	-4.956298e+01
1.450000e-06	-1.788789e-06	-6.675167e-10	-1.245631e+01	-4.887485e+01
1.460000e-06	-1.744553e-06	-6.521467e-10	-1.214827e+01	-4.817673e+01
1.470000e-06	-1.700151e-06	-6.359105e-10	-1.183907e+01	-4.746830e+01
1.480000e-06	-1.655609e-06	-6.238779e-10	-1.152890e+01	-4.674921e+01
1.490000e-06	-1.610949e-06	-6.176828e-10	-1.121791e+01	-4.601908e+01
1.500000e-06	-1.566172e-06	-6.126532e-10	-1.090610e+01	-4.527756e+01
1.510000e-06	-1.521250e-06	-6.037175e-10	-1.059329e+01	-4.452426e+01
1.520000e-06	-1.476211e-06	-5.916496e-10	-1.027966e+01	-4.375880e+01
1.530000e-06	-1.431124e-06	-5.777927e-10	-9.965692e+00	-4.298079e+01
1.540000e-06	-1.385901e-06	-5.647095e-10	-9.650778e+00	-4.218983e+01
1.550000e-06	-1.340487e-06	-5.518916e-10	-9.334539e+00	-4.138552e+01
1.560000e-06	-1.295015e-06	-5.391003e-10	-9.017891e+00	-4.056746e+01
1.570000e-06	-1.249537e-06	-5.278332e-10	-8.701203e+00	-3.973526e+01
1.580000e-06	-1.203967e-06	-5.172875e-10	-8.383871e+00	-3.888851e+01
1.590000e-06	-1.158311e-06	-5.065289e-10	-8.065945e+00	-3.802682e+01
1.600000e-06	-1.112621e-06	-4.942004e-10	-7.747784e+00	-3.714981e+01
1.610000e-06	-1.066822e-06	-4.783454e-10	-7.428858e+00	-3.625709e+01
1.620000e-06	-1.020919e-06	-4.612643e-10	-7.109215e+00	-3.534831e+01
1.630000e-06	-9.748912e-07	-4.451341e-10	-6.788695e+00	-3.442310e+01
1.640000e-06	-9.287611e-07	-4.315084e-10	-6.467467e+00	-3.348115e+01
1.650000e-06	-8.825776e-07	-4.182388e-10	-6.145866e+00	-3.252212e+01
1.660000e-06	-8.363170e-07	-4.040177e-10	-5.823729e+00	-3.154572e+01
1.670000e-06	-7.900650e-07	-3.898304e-10	-5.501650e+00	-3.055170e+01
1.680000e-06	-7.438219e-07	-3.750917e-10	-5.179635e+00	-2.953979e+01
1.690000e-06	-6.975159e-07	-3.592854e-10	-4.857181e+00	-2.850981e+01
1.700000e-06	-6.512097e-07	-3.425880e-10	-4.534726e+00	-2.746156e+01
1.710000e-06	-6.049112e-07	-3.256355e-10	-4.212325e+00	-2.639492e+01
1.720000e-06	-5.584068e-07	-3.090357e-10	-3.888489e+00	-2.530977e+01
1.730000e-06	-5.117814e-07	-2.913393e-10	-3.563811e+00	-2.420606e+01
1.740000e-06	-4.652102e-07	-2.743308e-10	-3.239511e+00	-2.308378e+01
1.750000e-06	-4.185695e-07	-2.579094e-10	-2.914726e+00	-2.194295e+01
1.760000e-06	-3.718642e-07	-2.406146e-10	-2.589492e+00	-2.078365e+01
1.770000e-06	-3.251259e-07	-2.227935e-10	-2.264028e+00	-1.960602e+01
1.780000e-06	-2.783488e-07	-2.059779e-10	-1.938293e+00	-1.841024e+01
1.790000e-06	-2.316285e-07	-1.905497e-10	-1.612955e+00	-1.719655e+01
1.800000e-06	-1.849415e-07	-1.733328e-10	-1.287848e+00	-1.596524e+01
1.810000e-06	-1.381587e-07	-1.546279e-10	-9.620740e-01	-1.471666e+01
1.820000e-06	-9.135244e-08	-1.351083e-10	-6.361365e-01	-1.345121e+01
1.830000e-06	-4.459379e-08	-1.151586e-10	-3.105307e-01	-1.216937e+01
1.840000e-06	2.109005e-09	-9.556050e-11	1.468614e-02	-1.087166e+01
1.850000e-06	4.875367e-08	-7.782598e-11	3.394983e-01	-9.558658e+00
1.860000e-06	9.536757e-08	-5.932388e-11	6.640960e-01	-8.231002e+00
1.870000e-06	1.420734e-07	-4.018819e-11	9.893340e-01	-6.889392e+00
1.880000e-06	1.889356e-07	-2.215050e-11	1.315661e+00	-5.534578e+00
1.890000e-06	2.357317e-07	-5.054045e-12	1.641528e+00	-4.167366e+00
1.900000e-06	2.823914e-07	1.206369e-11	1.966444e+00	-2.788616e+00
1.910000e-06	3.290302e-07	3.040884e-11	2.291215e+00	-1.399235e+00
1.920000e-06	3.757299e-07	5.097388e-11	2.616411e+00	-1.802599e-04
1.930000e-06	4.224250e-07	7.334270e-11	2.941574e+00	1.407548e+00
1.940000e-06	4.690438e-07	9.576092e-11	3.266206e+00	2.822907e+00
1.950000e-06	5.155612e-07	1.171690e-10	3.590132e+00	4.244817e+00
1.960000e-06	5.619861e-07	1.370713e-10	3.913414e+00	5.672162e+00
1.970000e-06	6.084298e-07	1.560582e-10	4.236826e+00	7.103798e+00
1.980000e-06	6.548757e-07	1.743882e-10	4.560254e+00	8.538552e+00
1.990000e-06	7.012393e-07	1.920068e-10	4.883109e+00	9.975233e+00
2.000000e-06	7.475436e-07	2.113589e-10	5.205551e+00	1.141263e+01
2.010000e-06	7.938212e-07	2.315235e-10	5.527807e+00	1.284952e+01
2.020000e-06	8.400006e-07	2.535289e-10	5.849379e+00	1.428468e+01
2.030000e-06	8.860851e-07	2.788235e-10	6.170290e+00	1.571687e+01
2.040000e-06	9.320814e-07	3.028573e-10	6.490588e+00	1.714486e+01
2.050000e-06	9.780172e-07	3.252220e-10	6.810464e+00	1.856745e+01
2.060000e-06	1.023991e-06	3.443090e-10	7.130601e+00	1.998341e+01
2.070000e-06	1.069895e-06	3.607225e-10	7.450261e+00	2.139157e+01
2.080000e-06	1.115658e-06	3.774281e-10	7.768931e+00	2.279075e+01
2.090000e-06	1.161378e-06	3.967650e-10	8.087307e+00	2.417982e+01
2.100000e-06	1.207081e-06	4.170911e-10	8.405557e+00	2.555768e+01
2.110000e-06	1.252652e-06	4.372565e-10	8.722892e+00	2.692327e+01
2.120000e-06	1.298042e-06	4.569745e-10	9.038969e+00	2.827556e+01
2.130000e-06	1.343303e-06	4.739442e-10	9.354148e+00	2.961357e+01
2.140000e-06	1.388479e-06	4.877610e-10	9.668734e+00	3.093638e+01
2.150000e-06	1.433626e-06	5.013697e-10	9.983112e+00	3.224312e+01
2.160000e-06	1.478732e-06	5.175023e-10	1.029721e+01	3.353296e+01
2.170000e-06	1.523697e-06	5.354251e-10	1.061033e+01	3.480516e+01
2.180000e-06	1.568510e-06	5.537210e-10	1.092239e+01	3.605903e+01
2.190000e-06	1.613226e-06	5.728251e-10	1.123376e+01	3.729393e+01
2.200000e-06	1.657835e-06	5.908787e-10	1.154440e+01	3.850930e+01
2.210000e-06	1.702298e-06	6.052748e-10	1.185403e+01	3.970465e+01
2.220000e-06	1.746572e-06	6.169163e-10	1.216233e+01	4.087955e+01
2.230000e-06	1.790706e-06	6.291659e-10	1.246966e+01	4.203365e+01
2.240000e-06	1.834720e-06	6.437523e-10	1.277615e+01	4.316666e+01
2.250000e-06	1.878626e-06	6.604455e-10	1.308189e+01	4.427836e+01
2.260000e-06	1.922473e-06	6.802546e-10	1.338722e+01	4.536860e+01
2.270000e-06	1.966275e-06	6.981120e-10	1.369224e+01	4.643729e+01
2.280000e-06	2.010012e-06	7.139478e-10	1.399680e+01	4.748442e+01
2.290000e-06	2.053674e-06	7.255805e-10	1.430085e+01	4.851003e+01
2.300000e-06	2.097274e-06	7.322309e-10	1.460445e+01	4.951423e+01
2.310000e-06	2.140796e-06	7.387855e-10	1.490752e+01	5.049718e+01
2.320000e-06	2.184187e-06	7.488451e-10	1.520968e+01	5.145910e+01
2.330000e-06	2.227411e-06	7.644897e-10	1.551067e+01	5.240026e+01
2.340000e-06	2.270571e-06	7.800615e-10	1.581121e+01	5.332097e+01
2.350000e-06	2.313601e-06	7.955065e-10	1.611086e+01	5.422161e+01
2.360000e-06	2.356363e-06	8.100257e-10	1.640863e+01	5.510257e+01
2.370000e-06	2.398935e-06	8.209855e-10	1.670508e+01	5.596429e+01
2.380000e-06	2.441209e-06	8.299454e-10	1.699946e+01	5.680726e+01
2.390000e-06	2.483111e-06	8.390094e-10	1.729124e+01	5.763195e+01
2.400000e-06	2.524694e-06	8.483965e-10	1.758081e+01	5.843891e+01
2.410000e-06	2.565938e-06	8.596393e-10	1.786802e+01	5.922867e+01
2.420000e-06	2.606878e-06	8.712804e-10	1.815310e+01	6.000178e+01
2.430000e-06	2.647510e-06	8.831435e-10	1.843605e+01	6.075881e+01
2.440000e-06	2.687935e-06	8.934255e-10	1.871755e+01	6.150034e+01
2.450000e-06	2.728154e-06	9.019693e-10	1.899762e+01	6.222693e+01
2.460000e-06	2.768181e-06	9.111694e-10	1.927634e+01	6.293915e+01
2.470000e-06	2.808120e-06	9.228918e-10	1.955446e+01	6.363757e+01
2.480000e-06	2.847902e-06	9.345006e-10	1.983148e+01	6.432274e+01
2.490000e-06	2.887527e-06	9.450795e-10	2.010742e+01	6.499519e+01
2.500000e-06	2.927079e-06	9.537746e-10	2.038284e+01	6.565545e+01
2.510000e-06	2.966467e-06	9.621884e-10	2.065712e+01	6.630402e+01
2.520000e-06	3.005606e-06	9.722012e-10	2.092967e+01	6.694137e+01
2.530000e-06	3.044545e-06	9.823775e-10	2.120082e+01	6.756797e+01
2.540000e-06	3.083248e-06	9.934709e-10	2.147033e+01	6.818423e+01
2.550000e-06	3.121722e-06	1.002900e-09	2.173824e+01	6.879056e+01
2.560000e-06	3.160017e-06	1.012533e-09	2.200491e+01	6.938732e+01
2.570000e-06	3.198092e-06	1.023536e-09	2.227005e+01	6.997485e+01
2.580000e-06	3.235932e-06	1.035169e-09	2.253355e+01	7.055346e+01
2.590000e-06	3.273535e-06	1.045512e-09	2.279540e+01	7.112342e+01
2.600000e-06	3.310910e-06	1.054107e-09	2.305566e+01	7.168497e+01
2.610000e-06	3.348127e-06	1.060080e-09	2.331482e+01	7.223832e+01
2.620000e-06	3.385118e-06	1.065740e-09	2.357241e+01	7.278366e+01
2.630000e-06	3.421791e-06	1.071880e-09	2.382779e+01	7.332112e+01
2.640000e-06	3.458197e-06	1.078242e-09	2.408130e+01	7.385083e+01
2.650000e-06	3.494369e-06	1.087358e-09	2.433318e+01	7.437289e+01
2.660000e-06	3.530333e-06	1.099835e-09	2.458362e+01	7.488736e+01
2.670000e-06	3.566142e-06	1.110714e-09	2.483298e+01	7.539428e+01
2.680000e-06	3.601811e-06	1.118284e-09	2.508136e+01	7.589367e+01
2.690000e-06	3.637350e-06	1.121257e-09	2.532884e+01	7.638554e+01
2.700000e-06	3.672729e-06	1.122992e-09	2.557520e+01	7.686987e+01
2.710000e-06	3.707857e-06	1.128037e-09	2.581982e+01	7.734664e+01
2.720000e-06	3.742719e-06	1.136790e-09	2.606258e+01	7.781578e+01
2.730000e-06	3.777274e-06	1.145250e-09	2.630320e+01	7.827727e+01
2.740000e-06	3.811480e-06	1.151262e-09	2.654140e+01	7.873102e+01
2.750000e-06	3.845311e-06	1.156756e-09	2.677699e+01	7.917698e+01
2.760000e-06	3.878669e-06	1.163522e-09	2.700927e+01	7.961509e+01
2.770000e-06	3.911462e-06	1.169394e-09	2.723763e+01	8.004526e+01
2.780000e-06	3.943779e-06	1.173546e-09	2.746267e+01	8.046745e+01
2.790000e-06	3.975842e-06	1.178052e-09	2.768594e+01	8.088158e+01
2.800000e-06	4.007723e-06	1.182621e-09	2.790795e+01	8.128760e+01
2.810000e-06	4.039440e-06	1.187592e-09	2.812881e+01	8.168547e+01
2.820000e-06	4.071011e-06	1.191994e-09	2.834865e+01	8.207514e+01
2.830000e-06	4.102374e-06	1.196747e-09	2.856705e+01	8.245661e+01
2.840000e-06	4.133449e-06	1.201981e-09	2.878345e+01	8.282984e+01
2.850000e-06	4.164204e-06	1.207102e-09	2.899761e+01	8.319486e+01
2.860000e-06	4.194691e-06	1.212518e-09	2.920990e+01	8.355166e+01
2.870000e-06	4.224865e-06	1.217573e-09	2.942003e+01	8.390030e+01
2.880000e-06	4.254669e-06	1.220135e-09	2.962757e+01	8.424081e+01
2.890000e-06	4.284207e-06	1.223159e-09	2.983326e+01	8.457326e+01
2.900000e-06	4.313554e-06	1.226356e-09	3.003761e+01	8.489774e+01
2.910000e-06	4.342617e-06	1.232294e-09	3.023999e+01	8.521433e+01
