# Temperatura_=_-0.8
# Concentracion g/m^3_=_1620.0
# C_Vs_to_Am_M_A/Vsm_=_65563218390.804596
# pendiente_HvsI_1/m_=_3716.3
# ordenada_HvsI_A/m_=_1297.0
# frecuencia_Hz_=_135096.8817552352

Tiempo_(s)	Campo_(V.s)	Magnetizacion_(V.s)	Campo_(kA/m)	Magnetizacion_(A/m)
0.000000e+00	-5.518083e-06	-1.274233e-09	-3.838446e+01	-8.275565e+01
1.000000e-08	-5.518127e-06	-1.270675e-09	-3.838476e+01	-8.273048e+01
2.000000e-08	-5.517893e-06	-1.267127e-09	-3.838313e+01	-8.270420e+01
3.000000e-08	-5.517300e-06	-1.264710e-09	-3.837901e+01	-8.267649e+01
4.000000e-08	-5.516273e-06	-1.264793e-09	-3.837187e+01	-8.264703e+01
5.000000e-08	-5.514730e-06	-1.276604e-09	-3.836113e+01	-8.261551e+01
6.000000e-08	-5.512555e-06	-1.284884e-09	-3.834601e+01	-8.258159e+01
7.000000e-08	-5.509753e-06	-1.265962e-09	-3.832651e+01	-8.254495e+01
8.000000e-08	-5.506410e-06	-1.238911e-09	-3.830326e+01	-8.250525e+01
9.000000e-08	-5.502613e-06	-1.239898e-09	-3.827685e+01	-8.246218e+01
1.000000e-07	-5.498479e-06	-1.263250e-09	-3.824809e+01	-8.241543e+01
1.100000e-07	-5.494117e-06	-1.306244e-09	-3.821775e+01	-8.236468e+01
1.200000e-07	-5.489574e-06	-1.291461e-09	-3.818615e+01	-8.230966e+01
1.300000e-07	-5.484647e-06	-1.255613e-09	-3.815187e+01	-8.225010e+01
1.400000e-07	-5.479282e-06	-1.261105e-09	-3.811455e+01	-8.218574e+01
1.500000e-07	-5.473579e-06	-1.283479e-09	-3.807488e+01	-8.211636e+01
1.600000e-07	-5.467420e-06	-1.297397e-09	-3.803204e+01	-8.204174e+01
1.700000e-07	-5.460817e-06	-1.247294e-09	-3.798611e+01	-8.196171e+01
1.800000e-07	-5.453836e-06	-1.251609e-09	-3.793755e+01	-8.187610e+01
1.900000e-07	-5.446433e-06	-1.277203e-09	-3.788605e+01	-8.178479e+01
2.000000e-07	-5.438730e-06	-1.299088e-09	-3.783247e+01	-8.168768e+01
2.100000e-07	-5.430801e-06	-1.274903e-09	-3.777731e+01	-8.158469e+01
2.200000e-07	-5.422638e-06	-1.264452e-09	-3.772053e+01	-8.147579e+01
2.300000e-07	-5.414156e-06	-1.268531e-09	-3.766153e+01	-8.136096e+01
2.400000e-07	-5.405249e-06	-1.278996e-09	-3.759957e+01	-8.124021e+01
2.500000e-07	-5.395686e-06	-1.264873e-09	-3.753305e+01	-8.111360e+01
2.600000e-07	-5.385383e-06	-1.244724e-09	-3.746138e+01	-8.098119e+01
2.700000e-07	-5.374571e-06	-1.240960e-09	-3.738617e+01	-8.084307e+01
2.800000e-07	-5.363263e-06	-1.237956e-09	-3.730751e+01	-8.069939e+01
2.900000e-07	-5.351556e-06	-1.225291e-09	-3.722608e+01	-8.055027e+01
3.000000e-07	-5.339570e-06	-1.208695e-09	-3.714270e+01	-8.039591e+01
3.100000e-07	-5.327118e-06	-1.214328e-09	-3.705608e+01	-8.023648e+01
3.200000e-07	-5.314204e-06	-1.210594e-09	-3.696625e+01	-8.007220e+01
3.300000e-07	-5.300973e-06	-1.211852e-09	-3.687422e+01	-7.990330e+01
3.400000e-07	-5.287347e-06	-1.191297e-09	-3.677943e+01	-7.973002e+01
3.500000e-07	-5.273258e-06	-1.194714e-09	-3.668143e+01	-7.955261e+01
3.600000e-07	-5.258695e-06	-1.196235e-09	-3.658012e+01	-7.937134e+01
3.700000e-07	-5.243671e-06	-1.193219e-09	-3.647562e+01	-7.918648e+01
3.800000e-07	-5.228099e-06	-1.170882e-09	-3.636729e+01	-7.899831e+01
3.900000e-07	-5.211983e-06	-1.184958e-09	-3.625519e+01	-7.880710e+01
4.000000e-07	-5.195337e-06	-1.184710e-09	-3.613940e+01	-7.861314e+01
4.100000e-07	-5.178340e-06	-1.171982e-09	-3.602116e+01	-7.841670e+01
4.200000e-07	-5.161131e-06	-1.172187e-09	-3.590146e+01	-7.821805e+01
4.300000e-07	-5.143677e-06	-1.186435e-09	-3.578004e+01	-7.801747e+01
4.400000e-07	-5.125904e-06	-1.153998e-09	-3.565641e+01	-7.781521e+01
4.500000e-07	-5.107670e-06	-1.140204e-09	-3.552958e+01	-7.761150e+01
4.600000e-07	-5.089048e-06	-1.172580e-09	-3.540004e+01	-7.740660e+01
4.700000e-07	-5.070114e-06	-1.170544e-09	-3.526833e+01	-7.720072e+01
4.800000e-07	-5.050876e-06	-1.140443e-09	-3.513451e+01	-7.699405e+01
4.900000e-07	-5.031320e-06	-1.164402e-09	-3.499847e+01	-7.678680e+01
5.000000e-07	-5.011548e-06	-1.180348e-09	-3.486094e+01	-7.657912e+01
5.100000e-07	-4.991533e-06	-1.138636e-09	-3.472171e+01	-7.637117e+01
5.200000e-07	-4.971160e-06	-1.134354e-09	-3.458000e+01	-7.616307e+01
5.300000e-07	-4.950519e-06	-1.154526e-09	-3.443641e+01	-7.595494e+01
5.400000e-07	-4.929527e-06	-1.125381e-09	-3.429039e+01	-7.574685e+01
5.500000e-07	-4.908098e-06	-1.110786e-09	-3.414132e+01	-7.553888e+01
5.600000e-07	-4.886353e-06	-1.150912e-09	-3.399007e+01	-7.533107e+01
5.700000e-07	-4.864370e-06	-1.140842e-09	-3.383715e+01	-7.512344e+01
5.800000e-07	-4.842067e-06	-1.112185e-09	-3.368201e+01	-7.491600e+01
5.900000e-07	-4.819343e-06	-1.133933e-09	-3.352394e+01	-7.470872e+01
6.000000e-07	-4.796204e-06	-1.142327e-09	-3.336298e+01	-7.450156e+01
6.100000e-07	-4.772710e-06	-1.106673e-09	-3.319955e+01	-7.429448e+01
6.200000e-07	-4.748984e-06	-1.117340e-09	-3.303451e+01	-7.408738e+01
6.300000e-07	-4.725065e-06	-1.135431e-09	-3.286812e+01	-7.388017e+01
6.400000e-07	-4.700802e-06	-1.115686e-09	-3.269935e+01	-7.367275e+01
6.500000e-07	-4.676238e-06	-1.106952e-09	-3.252848e+01	-7.346498e+01
6.600000e-07	-4.651359e-06	-1.122334e-09	-3.235542e+01	-7.325672e+01
6.700000e-07	-4.625870e-06	-1.105523e-09	-3.217812e+01	-7.304782e+01
6.800000e-07	-4.599743e-06	-1.093874e-09	-3.199637e+01	-7.283810e+01
6.900000e-07	-4.573145e-06	-1.105037e-09	-3.181136e+01	-7.262740e+01
7.000000e-07	-4.546191e-06	-1.102685e-09	-3.162386e+01	-7.241552e+01
7.100000e-07	-4.518907e-06	-1.087929e-09	-3.143406e+01	-7.220227e+01
7.200000e-07	-4.491360e-06	-1.093184e-09	-3.124245e+01	-7.198745e+01
7.300000e-07	-4.463603e-06	-1.090005e-09	-3.104936e+01	-7.177084e+01
7.400000e-07	-4.435615e-06	-1.075357e-09	-3.085468e+01	-7.155223e+01
7.500000e-07	-4.407352e-06	-1.071976e-09	-3.065808e+01	-7.133142e+01
7.600000e-07	-4.378857e-06	-1.073851e-09	-3.045986e+01	-7.110819e+01
7.700000e-07	-4.350077e-06	-1.062711e-09	-3.025966e+01	-7.088231e+01
7.800000e-07	-4.321018e-06	-1.055522e-09	-3.005752e+01	-7.065357e+01
7.900000e-07	-4.291688e-06	-1.055653e-09	-2.985351e+01	-7.042176e+01
8.000000e-07	-4.262003e-06	-1.047121e-09	-2.964701e+01	-7.018666e+01
8.100000e-07	-4.232060e-06	-1.036128e-09	-2.943872e+01	-6.994807e+01
8.200000e-07	-4.201814e-06	-1.030941e-09	-2.922833e+01	-6.970579e+01
8.300000e-07	-4.171101e-06	-1.024473e-09	-2.901469e+01	-6.945961e+01
8.400000e-07	-4.140079e-06	-1.014610e-09	-2.879890e+01	-6.920934e+01
8.500000e-07	-4.108947e-06	-1.015082e-09	-2.858233e+01	-6.895480e+01
8.600000e-07	-4.077689e-06	-1.013359e-09	-2.836490e+01	-6.869581e+01
8.700000e-07	-4.046179e-06	-1.004749e-09	-2.814572e+01	-6.843220e+01
8.800000e-07	-4.014365e-06	-1.000672e-09	-2.792441e+01	-6.816381e+01
8.900000e-07	-3.982370e-06	-1.000168e-09	-2.770185e+01	-6.789048e+01
9.000000e-07	-3.950181e-06	-9.881661e-10	-2.747794e+01	-6.761209e+01
9.100000e-07	-3.917798e-06	-9.788493e-10	-2.725268e+01	-6.732848e+01
9.200000e-07	-3.885085e-06	-9.752064e-10	-2.702512e+01	-6.703955e+01
9.300000e-07	-3.851922e-06	-9.698372e-10	-2.679444e+01	-6.674517e+01
9.400000e-07	-3.818326e-06	-9.610546e-10	-2.656074e+01	-6.644525e+01
9.500000e-07	-3.784202e-06	-9.616733e-10	-2.632337e+01	-6.613971e+01
9.600000e-07	-3.749536e-06	-9.561074e-10	-2.608223e+01	-6.582845e+01
9.700000e-07	-3.714457e-06	-9.444092e-10	-2.583822e+01	-6.551142e+01
9.800000e-07	-3.679097e-06	-9.389201e-10	-2.559225e+01	-6.518855e+01
9.900000e-07	-3.643539e-06	-9.379562e-10	-2.534490e+01	-6.485982e+01
1.000000e-06	-3.607827e-06	-9.313835e-10	-2.509649e+01	-6.452517e+01
1.010000e-06	-3.571958e-06	-9.303087e-10	-2.484697e+01	-6.418459e+01
1.020000e-06	-3.535958e-06	-9.314958e-10	-2.459656e+01	-6.383807e+01
1.030000e-06	-3.499827e-06	-9.248027e-10	-2.434522e+01	-6.348562e+01
1.040000e-06	-3.463485e-06	-9.160057e-10	-2.409242e+01	-6.312724e+01
1.050000e-06	-3.426892e-06	-9.101480e-10	-2.383788e+01	-6.276296e+01
1.060000e-06	-3.390031e-06	-9.004744e-10	-2.358147e+01	-6.239281e+01
1.070000e-06	-3.352940e-06	-8.897860e-10	-2.332346e+01	-6.201683e+01
1.080000e-06	-3.315674e-06	-8.858776e-10	-2.306423e+01	-6.163509e+01
1.090000e-06	-3.278120e-06	-8.835691e-10	-2.280300e+01	-6.124763e+01
1.100000e-06	-3.240217e-06	-8.774594e-10	-2.253935e+01	-6.085454e+01
1.110000e-06	-3.202098e-06	-8.718170e-10	-2.227418e+01	-6.045589e+01
1.120000e-06	-3.163834e-06	-8.674164e-10	-2.200802e+01	-6.005177e+01
1.130000e-06	-3.125353e-06	-8.582412e-10	-2.174033e+01	-5.964227e+01
1.140000e-06	-3.086675e-06	-8.486731e-10	-2.147129e+01	-5.922749e+01
1.150000e-06	-3.047747e-06	-8.410251e-10	-2.120050e+01	-5.880753e+01
1.160000e-06	-3.008552e-06	-8.346225e-10	-2.092786e+01	-5.838249e+01
1.170000e-06	-2.969222e-06	-8.285109e-10	-2.065427e+01	-5.795249e+01
1.180000e-06	-2.929729e-06	-8.253307e-10	-2.037955e+01	-5.751763e+01
1.190000e-06	-2.890065e-06	-8.205340e-10	-2.010364e+01	-5.707802e+01
1.200000e-06	-2.850247e-06	-8.153960e-10	-1.982666e+01	-5.663377e+01
1.210000e-06	-2.810320e-06	-8.106973e-10	-1.954893e+01	-5.618497e+01
1.220000e-06	-2.770258e-06	-8.065471e-10	-1.927025e+01	-5.573172e+01
1.230000e-06	-2.730011e-06	-7.970502e-10	-1.899029e+01	-5.527412e+01
1.240000e-06	-2.689642e-06	-7.876391e-10	-1.870948e+01	-5.481223e+01
1.250000e-06	-2.649113e-06	-7.801381e-10	-1.842755e+01	-5.434614e+01
1.260000e-06	-2.608369e-06	-7.738520e-10	-1.814413e+01	-5.387590e+01
1.270000e-06	-2.567406e-06	-7.688583e-10	-1.785919e+01	-5.340154e+01
1.280000e-06	-2.526182e-06	-7.642457e-10	-1.757243e+01	-5.292311e+01
1.290000e-06	-2.484644e-06	-7.585129e-10	-1.728349e+01	-5.244060e+01
1.300000e-06	-2.442869e-06	-7.486556e-10	-1.699289e+01	-5.195400e+01
1.310000e-06	-2.400897e-06	-7.370635e-10	-1.670093e+01	-5.146329e+01
1.320000e-06	-2.358508e-06	-7.255309e-10	-1.640607e+01	-5.096840e+01
1.330000e-06	-2.315674e-06	-7.147079e-10	-1.610811e+01	-5.046926e+01
1.340000e-06	-2.272601e-06	-7.074388e-10	-1.580849e+01	-4.996576e+01
1.350000e-06	-2.229400e-06	-7.035135e-10	-1.550798e+01	-4.945776e+01
1.360000e-06	-2.185973e-06	-7.000792e-10	-1.520590e+01	-4.894510e+01
1.370000e-06	-2.142355e-06	-6.957444e-10	-1.490248e+01	-4.842759e+01
1.380000e-06	-2.098679e-06	-6.887379e-10	-1.459867e+01	-4.790500e+01
1.390000e-06	-2.054891e-06	-6.772095e-10	-1.429407e+01	-4.737707e+01
1.400000e-06	-2.010996e-06	-6.646825e-10	-1.398873e+01	-4.684353e+01
1.410000e-06	-1.967049e-06	-6.534515e-10	-1.368304e+01	-4.630403e+01
1.420000e-06	-1.923070e-06	-6.433720e-10	-1.337711e+01	-4.575824e+01
1.430000e-06	-1.879063e-06	-6.347453e-10	-1.307099e+01	-4.520577e+01
1.440000e-06	-1.834950e-06	-6.281945e-10	-1.276414e+01	-4.464619e+01
1.450000e-06	-1.790744e-06	-6.215440e-10	-1.245663e+01	-4.407907e+01
1.460000e-06	-1.746403e-06	-6.132037e-10	-1.214819e+01	-4.350393e+01
1.470000e-06	-1.701897e-06	-6.043252e-10	-1.183860e+01	-4.292027e+01
1.480000e-06	-1.657276e-06	-5.937541e-10	-1.152821e+01	-4.232754e+01
1.490000e-06	-1.612487e-06	-5.820444e-10	-1.121665e+01	-4.172521e+01
1.500000e-06	-1.567564e-06	-5.711296e-10	-1.090416e+01	-4.111268e+01
1.510000e-06	-1.522542e-06	-5.627060e-10	-1.059099e+01	-4.048938e+01
1.520000e-06	-1.477462e-06	-5.533599e-10	-1.027741e+01	-3.985468e+01
1.530000e-06	-1.432296e-06	-5.430068e-10	-9.963225e+00	-3.920796e+01
1.540000e-06	-1.387044e-06	-5.342371e-10	-9.648444e+00	-3.854858e+01
1.550000e-06	-1.341668e-06	-5.244026e-10	-9.332809e+00	-3.787591e+01
1.560000e-06	-1.296087e-06	-5.110127e-10	-9.015740e+00	-3.718930e+01
1.570000e-06	-1.250406e-06	-4.964478e-10	-8.697975e+00	-3.648811e+01
1.580000e-06	-1.204757e-06	-4.811602e-10	-8.380437e+00	-3.577171e+01
1.590000e-06	-1.159042e-06	-4.660178e-10	-8.062435e+00	-3.503947e+01
1.600000e-06	-1.113176e-06	-4.536261e-10	-7.743390e+00	-3.429078e+01
1.610000e-06	-1.067227e-06	-4.446869e-10	-7.423763e+00	-3.352505e+01
1.620000e-06	-1.021237e-06	-4.346717e-10	-7.103851e+00	-3.274172e+01
1.630000e-06	-9.751894e-07	-4.245220e-10	-6.783536e+00	-3.194024e+01
1.640000e-06	-9.290980e-07	-4.134457e-10	-6.462919e+00	-3.112012e+01
1.650000e-06	-8.829271e-07	-3.975871e-10	-6.141749e+00	-3.028088e+01
1.660000e-06	-8.366272e-07	-3.795190e-10	-5.819681e+00	-2.942210e+01
1.670000e-06	-7.902707e-07	-3.633129e-10	-5.497219e+00	-2.854341e+01
1.680000e-06	-7.438418e-07	-3.486251e-10	-5.174254e+00	-2.764446e+01
1.690000e-06	-6.974142e-07	-3.352557e-10	-4.851298e+00	-2.672499e+01
1.700000e-06	-6.510318e-07	-3.246361e-10	-4.528657e+00	-2.578478e+01
1.710000e-06	-6.046094e-07	-3.123165e-10	-4.205737e+00	-2.482368e+01
1.720000e-06	-5.581343e-07	-2.968690e-10	-3.882450e+00	-2.384157e+01
1.730000e-06	-5.115896e-07	-2.810278e-10	-3.558679e+00	-2.283845e+01
1.740000e-06	-4.650160e-07	-2.642680e-10	-3.234708e+00	-2.181435e+01
1.750000e-06	-4.184238e-07	-2.454410e-10	-2.910607e+00	-2.076939e+01
1.760000e-06	-3.717333e-07	-2.273723e-10	-2.585822e+00	-1.970373e+01
1.770000e-06	-3.249910e-07	-2.120174e-10	-2.260677e+00	-1.861765e+01
1.780000e-06	-2.781996e-07	-1.981676e-10	-1.935191e+00	-1.751146e+01
1.790000e-06	-2.314409e-07	-1.857046e-10	-1.609931e+00	-1.638558e+01
1.800000e-06	-1.847301e-07	-1.732657e-10	-1.285005e+00	-1.524046e+01
1.810000e-06	-1.379149e-07	-1.577962e-10	-9.593525e-01	-1.407667e+01
1.820000e-06	-9.113140e-08	-1.399875e-10	-6.339211e-01	-1.289481e+01
1.830000e-06	-4.442875e-08	-1.209477e-10	-3.090518e-01	-1.169557e+01
1.840000e-06	2.224668e-09	-1.010585e-10	1.547506e-02	-1.047970e+01
1.850000e-06	4.895681e-08	-8.383433e-11	3.405495e-01	-9.248018e+00
1.860000e-06	9.578217e-08	-6.789027e-11	6.662725e-01	-8.001393e+00
1.870000e-06	1.425452e-07	-5.018089e-11	9.915616e-01	-6.740758e+00
1.880000e-06	1.892703e-07	-3.387823e-11	1.316588e+00	-5.467097e+00
1.890000e-06	2.359279e-07	-2.002896e-11	1.641143e+00	-4.181441e+00
1.900000e-06	2.825746e-07	-6.360666e-12	1.965623e+00	-2.884867e+00
1.910000e-06	3.292944e-07	1.007057e-11	2.290612e+00	-1.578489e+00
1.920000e-06	3.760397e-07	2.982307e-11	2.615778e+00	-2.634549e-01
1.930000e-06	4.228202e-07	4.982499e-11	2.941189e+00	1.059059e+00
1.940000e-06	4.695120e-07	6.838416e-11	3.265982e+00	2.387853e+00
1.950000e-06	5.160540e-07	8.637057e-11	3.589734e+00	3.721713e+00
1.960000e-06	5.625066e-07	1.035888e-10	3.912864e+00	5.059410e+00
1.970000e-06	6.089087e-07	1.197768e-10	4.235643e+00	6.399713e+00
1.980000e-06	6.553006e-07	1.349646e-10	4.558351e+00	7.741389e+00
1.990000e-06	7.017079e-07	1.492004e-10	4.881166e+00	9.083213e+00
2.000000e-06	7.480708e-07	1.661132e-10	5.203671e+00	1.042397e+01
2.010000e-06	7.943005e-07	1.852216e-10	5.525251e+00	1.176247e+01
2.020000e-06	8.404536e-07	2.057393e-10	5.846298e+00	1.309752e+01
2.030000e-06	8.865790e-07	2.291633e-10	6.167151e+00	1.442800e+01
2.040000e-06	9.327160e-07	2.517005e-10	6.488086e+00	1.575277e+01
2.050000e-06	9.788018e-07	2.711458e-10	6.808665e+00	1.707077e+01
2.060000e-06	1.024792e-06	2.884616e-10	7.128576e+00	1.838096e+01
2.070000e-06	1.070718e-06	3.046099e-10	7.448043e+00	1.968235e+01
2.080000e-06	1.116617e-06	3.206683e-10	7.767321e+00	2.097399e+01
2.090000e-06	1.162420e-06	3.397845e-10	8.085933e+00	2.225500e+01
2.100000e-06	1.208107e-06	3.599914e-10	8.403740e+00	2.352453e+01
2.110000e-06	1.253735e-06	3.789970e-10	8.721130e+00	2.478181e+01
2.120000e-06	1.299246e-06	3.979307e-10	9.037710e+00	2.602612e+01
2.130000e-06	1.344627e-06	4.155599e-10	9.353389e+00	2.725678e+01
2.140000e-06	1.389892e-06	4.323749e-10	9.668257e+00	2.847320e+01
2.150000e-06	1.435080e-06	4.487739e-10	9.982591e+00	2.967483e+01
2.160000e-06	1.480174e-06	4.646658e-10	1.029627e+01	3.086119e+01
2.170000e-06	1.525096e-06	4.803973e-10	1.060875e+01	3.203185e+01
2.180000e-06	1.569911e-06	4.972114e-10	1.092049e+01	3.318645e+01
2.190000e-06	1.614645e-06	5.160440e-10	1.123167e+01	3.432467e+01
2.200000e-06	1.659203e-06	5.346262e-10	1.154162e+01	3.544627e+01
2.210000e-06	1.703593e-06	5.508862e-10	1.185040e+01	3.655104e+01
2.220000e-06	1.747936e-06	5.633806e-10	1.215886e+01	3.763883e+01
2.230000e-06	1.792274e-06	5.757797e-10	1.246727e+01	3.870954e+01
2.240000e-06	1.836490e-06	5.908480e-10	1.277485e+01	3.976311e+01
2.250000e-06	1.880572e-06	6.075093e-10	1.308149e+01	4.079953e+01
2.260000e-06	1.924551e-06	6.246045e-10	1.338741e+01	4.181881e+01
2.270000e-06	1.968484e-06	6.403200e-10	1.369301e+01	4.282102e+01
2.280000e-06	2.012384e-06	6.542752e-10	1.399839e+01	4.380623e+01
2.290000e-06	2.056166e-06	6.672880e-10	1.430294e+01	4.477457e+01
2.300000e-06	2.099892e-06	6.790901e-10	1.460710e+01	4.572616e+01
2.310000e-06	2.143584e-06	6.898809e-10	1.491103e+01	4.666118e+01
2.320000e-06	2.187202e-06	7.018473e-10	1.521444e+01	4.757978e+01
2.330000e-06	2.230622e-06	7.156135e-10	1.551648e+01	4.848216e+01
2.340000e-06	2.273708e-06	7.298382e-10	1.581619e+01	4.936850e+01
2.350000e-06	2.316661e-06	7.437762e-10	1.611498e+01	5.023901e+01
2.360000e-06	2.359509e-06	7.569692e-10	1.641303e+01	5.109389e+01
2.370000e-06	2.401955e-06	7.674537e-10	1.670829e+01	5.193334e+01
2.380000e-06	2.444010e-06	7.776900e-10	1.700083e+01	5.275756e+01
2.390000e-06	2.485837e-06	7.880338e-10	1.729178e+01	5.356673e+01
2.400000e-06	2.527349e-06	7.980893e-10	1.758055e+01	5.436105e+01
2.410000e-06	2.568579e-06	8.087523e-10	1.786735e+01	5.514069e+01
2.420000e-06	2.609602e-06	8.198370e-10	1.815271e+01	5.590581e+01
2.430000e-06	2.650198e-06	8.307350e-10	1.843510e+01	5.665656e+01
2.440000e-06	2.690528e-06	8.400105e-10	1.871564e+01	5.739310e+01
2.450000e-06	2.730859e-06	8.481392e-10	1.899619e+01	5.811553e+01
2.460000e-06	2.771062e-06	8.566569e-10	1.927584e+01	5.882399e+01
2.470000e-06	2.811095e-06	8.658439e-10	1.955432e+01	5.951855e+01
2.480000e-06	2.851008e-06	8.745639e-10	1.983196e+01	6.019933e+01
2.490000e-06	2.890775e-06	8.832803e-10	2.010858e+01	6.086638e+01
2.500000e-06	2.930359e-06	8.935948e-10	2.038393e+01	6.151978e+01
2.510000e-06	2.969799e-06	9.037401e-10	2.065828e+01	6.215958e+01
2.520000e-06	3.009027e-06	9.115560e-10	2.093116e+01	6.278583e+01
2.530000e-06	3.047969e-06	9.183433e-10	2.120204e+01	6.339856e+01
2.540000e-06	3.086728e-06	9.264108e-10	2.147166e+01	6.399782e+01
2.550000e-06	3.125288e-06	9.343266e-10	2.173989e+01	6.458364e+01
2.560000e-06	3.163584e-06	9.421534e-10	2.200628e+01	6.515606e+01
2.570000e-06	3.201668e-06	9.522046e-10	2.227119e+01	6.571509e+01
2.580000e-06	3.239648e-06	9.626406e-10	2.253539e+01	6.626080e+01
2.590000e-06	3.277493e-06	9.724189e-10	2.279864e+01	6.679321e+01
2.600000e-06	3.315129e-06	9.774688e-10	2.306044e+01	6.731239e+01
2.610000e-06	3.352447e-06	9.799947e-10	2.332003e+01	6.781839e+01
2.620000e-06	3.389397e-06	9.825142e-10	2.357706e+01	6.831130e+01
2.630000e-06	3.426069e-06	9.890862e-10	2.383215e+01	6.879119e+01
2.640000e-06	3.462528e-06	9.975555e-10	2.408576e+01	6.925818e+01
2.650000e-06	3.498722e-06	1.008240e-09	2.433754e+01	6.971239e+01
2.660000e-06	3.534758e-06	1.018830e-09	2.458821e+01	7.015396e+01
2.670000e-06	3.570738e-06	1.023769e-09	2.483849e+01	7.058305e+01
2.680000e-06	3.606530e-06	1.025932e-09	2.508746e+01	7.099984e+01
2.690000e-06	3.642115e-06	1.025471e-09	2.533499e+01	7.140454e+01
2.700000e-06	3.677516e-06	1.026138e-09	2.558125e+01	7.179736e+01
2.710000e-06	3.712663e-06	1.030403e-09	2.582573e+01	7.217855e+01
2.720000e-06	3.747550e-06	1.036561e-09	2.606842e+01	7.254839e+01
2.730000e-06	3.782081e-06	1.045806e-09	2.630861e+01	7.290715e+01
2.740000e-06	3.816113e-06	1.055141e-09	2.654535e+01	7.325514e+01
2.750000e-06	3.849764e-06	1.061224e-09	2.677943e+01	7.359269e+01
2.760000e-06	3.883106e-06	1.064493e-09	2.701136e+01	7.392014e+01
2.770000e-06	3.916017e-06	1.063372e-09	2.724029e+01	7.423785e+01
2.780000e-06	3.948478e-06	1.065327e-09	2.746610e+01	7.454619e+01
2.790000e-06	3.980610e-06	1.068793e-09	2.768961e+01	7.484554e+01
2.800000e-06	4.012547e-06	1.073342e-09	2.791176e+01	7.513629e+01
2.810000e-06	4.044400e-06	1.080482e-09	2.813334e+01	7.541885e+01
2.820000e-06	4.076090e-06	1.087181e-09	2.835378e+01	7.569362e+01
2.830000e-06	4.107543e-06	1.092987e-09	2.857257e+01	7.596099e+01
2.840000e-06	4.138733e-06	1.097076e-09	2.878953e+01	7.622139e+01
2.850000e-06	4.169602e-06	1.099712e-09	2.900426e+01	7.647520e+01
2.860000e-06	4.200130e-06	1.100484e-09	2.921662e+01	7.672282e+01
2.870000e-06	4.230331e-06	1.100110e-09	2.942670e+01	7.696463e+01
2.880000e-06	4.260217e-06	1.101960e-09	2.963459e+01	7.720101e+01
2.890000e-06	4.289796e-06	1.104378e-09	2.984034e+01	7.743230e+01
2.900000e-06	4.319103e-06	1.108583e-09	3.004420e+01	7.765884e+01
2.910000e-06	4.348200e-06	1.114621e-09	3.024661e+01	7.788095e+01
