# Temperatura_=_11.1
# Concentracion g/m^3_=_1620.0
# C_Vs_to_Am_M_A/Vsm_=_65563218390.804596
# pendiente_HvsI_1/m_=_3716.3
# ordenada_HvsI_A/m_=_1297.0
# frecuencia_Hz_=_135108.09763217682

Tiempo_(s)	Campo_(V.s)	Magnetizacion_(V.s)	Campo_(kA/m)	Magnetizacion_(A/m)
0.000000e+00	-5.515513e-06	-1.251085e-09	-3.836928e+01	-8.018463e+01
1.000000e-08	-5.515882e-06	-1.249787e-09	-3.837185e+01	-8.016023e+01
2.000000e-08	-5.515914e-06	-1.246154e-09	-3.837207e+01	-8.013237e+01
3.000000e-08	-5.515553e-06	-1.243392e-09	-3.836956e+01	-8.010096e+01
4.000000e-08	-5.514736e-06	-1.241460e-09	-3.836388e+01	-8.006587e+01
5.000000e-08	-5.513293e-06	-1.237706e-09	-3.835384e+01	-8.002701e+01
6.000000e-08	-5.511128e-06	-1.230073e-09	-3.833878e+01	-7.998424e+01
7.000000e-08	-5.508375e-06	-1.217631e-09	-3.831963e+01	-7.993747e+01
8.000000e-08	-5.505281e-06	-1.232396e-09	-3.829810e+01	-7.988656e+01
9.000000e-08	-5.501829e-06	-1.270555e-09	-3.827409e+01	-7.983140e+01
1.000000e-07	-5.497794e-06	-1.272479e-09	-3.824602e+01	-7.977189e+01
1.100000e-07	-5.493242e-06	-1.211582e-09	-3.821435e+01	-7.970791e+01
1.200000e-07	-5.488530e-06	-1.201298e-09	-3.818157e+01	-7.963937e+01
1.300000e-07	-5.483748e-06	-1.237658e-09	-3.814831e+01	-7.956615e+01
1.400000e-07	-5.478631e-06	-1.296631e-09	-3.811271e+01	-7.948819e+01
1.500000e-07	-5.473051e-06	-1.218686e-09	-3.807389e+01	-7.940540e+01
1.600000e-07	-5.467172e-06	-1.207588e-09	-3.803300e+01	-7.931770e+01
1.700000e-07	-5.460991e-06	-1.226963e-09	-3.798999e+01	-7.922504e+01
1.800000e-07	-5.454330e-06	-1.268844e-09	-3.794366e+01	-7.912737e+01
1.900000e-07	-5.447251e-06	-1.198842e-09	-3.789441e+01	-7.902466e+01
2.000000e-07	-5.439968e-06	-1.167284e-09	-3.784374e+01	-7.891689e+01
2.100000e-07	-5.432439e-06	-1.223184e-09	-3.779137e+01	-7.880406e+01
2.200000e-07	-5.424535e-06	-1.280418e-09	-3.773639e+01	-7.868616e+01
2.300000e-07	-5.416315e-06	-1.255260e-09	-3.767920e+01	-7.856322e+01
2.400000e-07	-5.407756e-06	-1.189485e-09	-3.761966e+01	-7.843529e+01
2.500000e-07	-5.398606e-06	-1.205429e-09	-3.755601e+01	-7.830241e+01
2.600000e-07	-5.388631e-06	-1.212825e-09	-3.748661e+01	-7.816467e+01
2.700000e-07	-5.378004e-06	-1.216286e-09	-3.741268e+01	-7.802213e+01
2.800000e-07	-5.367003e-06	-1.177054e-09	-3.733616e+01	-7.787490e+01
2.900000e-07	-5.355609e-06	-1.203581e-09	-3.725689e+01	-7.772309e+01
3.000000e-07	-5.343798e-06	-1.196841e-09	-3.717473e+01	-7.756684e+01
3.100000e-07	-5.331670e-06	-1.197609e-09	-3.709035e+01	-7.740629e+01
3.200000e-07	-5.319123e-06	-1.152227e-09	-3.700307e+01	-7.724157e+01
3.300000e-07	-5.306111e-06	-1.182401e-09	-3.691256e+01	-7.707287e+01
3.400000e-07	-5.292724e-06	-1.171862e-09	-3.681943e+01	-7.690036e+01
3.500000e-07	-5.278917e-06	-1.159493e-09	-3.672338e+01	-7.672421e+01
3.600000e-07	-5.264538e-06	-1.134545e-09	-3.662335e+01	-7.654463e+01
3.700000e-07	-5.249668e-06	-1.181826e-09	-3.651990e+01	-7.636180e+01
3.800000e-07	-5.234398e-06	-1.165274e-09	-3.641367e+01	-7.617593e+01
3.900000e-07	-5.218605e-06	-1.138082e-09	-3.630381e+01	-7.598722e+01
4.000000e-07	-5.202293e-06	-1.142851e-09	-3.619033e+01	-7.579588e+01
4.100000e-07	-5.185722e-06	-1.171410e-09	-3.607506e+01	-7.560212e+01
4.200000e-07	-5.168905e-06	-1.133539e-09	-3.595807e+01	-7.540613e+01
4.300000e-07	-5.151654e-06	-1.119884e-09	-3.583806e+01	-7.520813e+01
4.400000e-07	-5.134091e-06	-1.161331e-09	-3.571588e+01	-7.500830e+01
4.500000e-07	-5.116198e-06	-1.149017e-09	-3.559140e+01	-7.480684e+01
4.600000e-07	-5.097815e-06	-1.103499e-09	-3.546352e+01	-7.460393e+01
4.700000e-07	-5.078965e-06	-1.111596e-09	-3.533238e+01	-7.439973e+01
4.800000e-07	-5.059813e-06	-1.143402e-09	-3.519916e+01	-7.419441e+01
4.900000e-07	-5.040507e-06	-1.113606e-09	-3.506485e+01	-7.398813e+01
5.000000e-07	-5.021011e-06	-1.114193e-09	-3.492922e+01	-7.378100e+01
5.100000e-07	-5.001271e-06	-1.128624e-09	-3.479190e+01	-7.357316e+01
5.200000e-07	-4.981215e-06	-1.116283e-09	-3.465238e+01	-7.336470e+01
5.300000e-07	-4.960747e-06	-1.091291e-09	-3.450999e+01	-7.315572e+01
5.400000e-07	-4.939883e-06	-1.119637e-09	-3.436485e+01	-7.294628e+01
5.500000e-07	-4.918658e-06	-1.103400e-09	-3.421719e+01	-7.273644e+01
5.600000e-07	-4.897089e-06	-1.080584e-09	-3.406715e+01	-7.252623e+01
5.700000e-07	-4.875163e-06	-1.089006e-09	-3.391462e+01	-7.231566e+01
5.800000e-07	-4.852898e-06	-1.115972e-09	-3.375973e+01	-7.210473e+01
5.900000e-07	-4.830344e-06	-1.087628e-09	-3.360283e+01	-7.189341e+01
6.000000e-07	-4.807437e-06	-1.084756e-09	-3.344347e+01	-7.168167e+01
6.100000e-07	-4.784172e-06	-1.091974e-09	-3.328162e+01	-7.146944e+01
6.200000e-07	-4.760688e-06	-1.088158e-09	-3.311826e+01	-7.125664e+01
6.300000e-07	-4.737034e-06	-1.070609e-09	-3.295370e+01	-7.104318e+01
6.400000e-07	-4.713181e-06	-1.085548e-09	-3.278777e+01	-7.082893e+01
6.500000e-07	-4.689053e-06	-1.081785e-09	-3.261992e+01	-7.061378e+01
6.600000e-07	-4.664413e-06	-1.072572e-09	-3.244851e+01	-7.039757e+01
6.700000e-07	-4.639192e-06	-1.071418e-09	-3.227305e+01	-7.018015e+01
6.800000e-07	-4.613465e-06	-1.074981e-09	-3.209408e+01	-6.996134e+01
6.900000e-07	-4.587245e-06	-1.057469e-09	-3.191168e+01	-6.974096e+01
7.000000e-07	-4.560553e-06	-1.053597e-09	-3.172599e+01	-6.951881e+01
7.100000e-07	-4.533475e-06	-1.055437e-09	-3.153762e+01	-6.929470e+01
7.200000e-07	-4.506155e-06	-1.048410e-09	-3.134757e+01	-6.906841e+01
7.300000e-07	-4.478654e-06	-1.044950e-09	-3.115626e+01	-6.883972e+01
7.400000e-07	-4.451007e-06	-1.046920e-09	-3.096393e+01	-6.860843e+01
7.500000e-07	-4.423060e-06	-1.034734e-09	-3.076951e+01	-6.837429e+01
7.600000e-07	-4.394776e-06	-1.019430e-09	-3.057275e+01	-6.813710e+01
7.700000e-07	-4.366194e-06	-1.022910e-09	-3.037392e+01	-6.789662e+01
7.800000e-07	-4.337329e-06	-1.015693e-09	-3.017311e+01	-6.765264e+01
7.900000e-07	-4.308240e-06	-1.009910e-09	-2.997075e+01	-6.740495e+01
8.000000e-07	-4.278813e-06	-1.009175e-09	-2.976604e+01	-6.715332e+01
8.100000e-07	-4.249017e-06	-1.004034e-09	-2.955876e+01	-6.689755e+01
8.200000e-07	-4.218999e-06	-9.827656e-10	-2.934994e+01	-6.663745e+01
8.300000e-07	-4.188730e-06	-9.811161e-10	-2.913937e+01	-6.637283e+01
8.400000e-07	-4.158146e-06	-9.779754e-10	-2.892661e+01	-6.610352e+01
8.500000e-07	-4.127245e-06	-9.700375e-10	-2.871164e+01	-6.582934e+01
8.600000e-07	-4.096106e-06	-9.632675e-10	-2.849502e+01	-6.555015e+01
8.700000e-07	-4.064792e-06	-9.684463e-10	-2.827718e+01	-6.526581e+01
8.800000e-07	-4.033254e-06	-9.567191e-10	-2.805778e+01	-6.497620e+01
8.900000e-07	-4.001558e-06	-9.509771e-10	-2.783729e+01	-6.468119e+01
9.000000e-07	-3.969619e-06	-9.443340e-10	-2.761510e+01	-6.438071e+01
9.100000e-07	-3.937286e-06	-9.333121e-10	-2.739017e+01	-6.407468e+01
9.200000e-07	-3.904632e-06	-9.197906e-10	-2.716301e+01	-6.376303e+01
9.300000e-07	-3.871692e-06	-9.236136e-10	-2.693386e+01	-6.344572e+01
9.400000e-07	-3.838176e-06	-9.240646e-10	-2.670070e+01	-6.312272e+01
9.500000e-07	-3.804057e-06	-9.181310e-10	-2.646335e+01	-6.279403e+01
9.600000e-07	-3.769587e-06	-9.134390e-10	-2.622355e+01	-6.245964e+01
9.700000e-07	-3.734842e-06	-9.084631e-10	-2.598185e+01	-6.211958e+01
9.800000e-07	-3.699847e-06	-8.929056e-10	-2.573840e+01	-6.177388e+01
9.900000e-07	-3.664583e-06	-8.842845e-10	-2.549308e+01	-6.142260e+01
1.000000e-06	-3.629119e-06	-8.810550e-10	-2.524637e+01	-6.106580e+01
1.010000e-06	-3.593528e-06	-8.783566e-10	-2.499878e+01	-6.070357e+01
1.020000e-06	-3.557800e-06	-8.795422e-10	-2.475023e+01	-6.033598e+01
1.030000e-06	-3.521885e-06	-8.823536e-10	-2.450039e+01	-5.996315e+01
1.040000e-06	-3.485751e-06	-8.790296e-10	-2.424902e+01	-5.958519e+01
1.050000e-06	-3.449329e-06	-8.684863e-10	-2.399564e+01	-5.920222e+01
1.060000e-06	-3.412584e-06	-8.603899e-10	-2.374002e+01	-5.881438e+01
1.070000e-06	-3.375595e-06	-8.468688e-10	-2.348271e+01	-5.842179e+01
1.080000e-06	-3.338376e-06	-8.350627e-10	-2.322379e+01	-5.802460e+01
1.090000e-06	-3.300891e-06	-8.296740e-10	-2.296302e+01	-5.762295e+01
1.100000e-06	-3.263191e-06	-8.304680e-10	-2.270075e+01	-5.721701e+01
1.110000e-06	-3.225292e-06	-8.251732e-10	-2.243710e+01	-5.680690e+01
1.120000e-06	-3.187125e-06	-8.218484e-10	-2.217159e+01	-5.639279e+01
1.130000e-06	-3.148700e-06	-8.152237e-10	-2.190428e+01	-5.597482e+01
1.140000e-06	-3.110037e-06	-8.055006e-10	-2.163532e+01	-5.555313e+01
1.150000e-06	-3.071185e-06	-7.928630e-10	-2.136504e+01	-5.512785e+01
1.160000e-06	-3.032186e-06	-7.851374e-10	-2.109374e+01	-5.469913e+01
1.170000e-06	-2.993120e-06	-7.777683e-10	-2.082198e+01	-5.426708e+01
1.180000e-06	-2.953953e-06	-7.740277e-10	-2.054950e+01	-5.383182e+01
1.190000e-06	-2.914574e-06	-7.691593e-10	-2.027556e+01	-5.339344e+01
1.200000e-06	-2.875044e-06	-7.646633e-10	-2.000056e+01	-5.295203e+01
1.210000e-06	-2.835388e-06	-7.557797e-10	-1.972469e+01	-5.250768e+01
1.220000e-06	-2.795490e-06	-7.471072e-10	-1.944714e+01	-5.206043e+01
1.230000e-06	-2.755308e-06	-7.368931e-10	-1.916760e+01	-5.161033e+01
1.240000e-06	-2.714953e-06	-7.272439e-10	-1.888687e+01	-5.115740e+01
1.250000e-06	-2.674448e-06	-7.196815e-10	-1.860510e+01	-5.070165e+01
1.260000e-06	-2.633752e-06	-7.152265e-10	-1.832199e+01	-5.024306e+01
1.270000e-06	-2.592786e-06	-7.099215e-10	-1.803700e+01	-4.978159e+01
1.280000e-06	-2.551545e-06	-7.040081e-10	-1.775011e+01	-4.931720e+01
1.290000e-06	-2.509997e-06	-6.973627e-10	-1.746108e+01	-4.884978e+01
1.300000e-06	-2.468008e-06	-6.878362e-10	-1.716897e+01	-4.837925e+01
1.310000e-06	-2.425713e-06	-6.754538e-10	-1.687474e+01	-4.790546e+01
1.320000e-06	-2.383256e-06	-6.625420e-10	-1.657938e+01	-4.742826e+01
1.330000e-06	-2.340574e-06	-6.520379e-10	-1.628247e+01	-4.694748e+01
1.340000e-06	-2.297640e-06	-6.433253e-10	-1.598379e+01	-4.646291e+01
1.350000e-06	-2.254490e-06	-6.388725e-10	-1.568361e+01	-4.597431e+01
1.360000e-06	-2.211272e-06	-6.348034e-10	-1.538296e+01	-4.548143e+01
1.370000e-06	-2.167978e-06	-6.294475e-10	-1.508178e+01	-4.498400e+01
1.380000e-06	-2.124534e-06	-6.180910e-10	-1.477956e+01	-4.448169e+01
1.390000e-06	-2.081017e-06	-6.033786e-10	-1.447683e+01	-4.397417e+01
1.400000e-06	-2.037428e-06	-5.888068e-10	-1.417360e+01	-4.346110e+01
1.410000e-06	-1.993707e-06	-5.791686e-10	-1.386944e+01	-4.294210e+01
1.420000e-06	-1.949889e-06	-5.724206e-10	-1.356462e+01	-4.241675e+01
1.430000e-06	-1.905959e-06	-5.704796e-10	-1.325901e+01	-4.188463e+01
1.440000e-06	-1.861942e-06	-5.663944e-10	-1.295281e+01	-4.134530e+01
1.450000e-06	-1.817847e-06	-5.576956e-10	-1.264606e+01	-4.079830e+01
1.460000e-06	-1.773617e-06	-5.453733e-10	-1.233837e+01	-4.024314e+01
1.470000e-06	-1.729310e-06	-5.315756e-10	-1.203014e+01	-3.967933e+01
1.480000e-06	-1.684817e-06	-5.148213e-10	-1.172061e+01	-3.910635e+01
1.490000e-06	-1.640109e-06	-5.020274e-10	-1.140960e+01	-3.852368e+01
1.500000e-06	-1.595259e-06	-4.964213e-10	-1.109759e+01	-3.793078e+01
1.510000e-06	-1.550263e-06	-4.945957e-10	-1.078458e+01	-3.732711e+01
1.520000e-06	-1.505191e-06	-4.890253e-10	-1.047103e+01	-3.671212e+01
1.530000e-06	-1.460094e-06	-4.786340e-10	-1.015731e+01	-3.608526e+01
1.540000e-06	-1.414866e-06	-4.659864e-10	-9.842671e+00	-3.544597e+01
1.550000e-06	-1.369494e-06	-4.522299e-10	-9.527039e+00	-3.479371e+01
1.560000e-06	-1.324050e-06	-4.398588e-10	-9.210901e+00	-3.412792e+01
1.570000e-06	-1.278450e-06	-4.309228e-10	-8.893680e+00	-3.344806e+01
1.580000e-06	-1.232749e-06	-4.215254e-10	-8.575759e+00	-3.275361e+01
1.590000e-06	-1.187016e-06	-4.081551e-10	-8.257612e+00	-3.204406e+01
1.600000e-06	-1.141249e-06	-3.951396e-10	-7.939229e+00	-3.131889e+01
1.610000e-06	-1.095492e-06	-3.824429e-10	-7.620914e+00	-3.057764e+01
1.620000e-06	-1.049637e-06	-3.679325e-10	-7.301918e+00	-2.981984e+01
1.630000e-06	-1.003624e-06	-3.515154e-10	-6.981824e+00	-2.904507e+01
1.640000e-06	-9.574495e-07	-3.376692e-10	-6.660605e+00	-2.825292e+01
1.650000e-06	-9.112034e-07	-3.264721e-10	-6.338889e+00	-2.744303e+01
1.660000e-06	-8.649520e-07	-3.155781e-10	-6.017135e+00	-2.661506e+01
1.670000e-06	-8.186777e-07	-3.036709e-10	-5.695223e+00	-2.576870e+01
1.680000e-06	-7.724010e-07	-2.925971e-10	-5.373294e+00	-2.490372e+01
1.690000e-06	-7.260504e-07	-2.819580e-10	-5.050851e+00	-2.401988e+01
1.700000e-06	-6.796235e-07	-2.708350e-10	-4.727877e+00	-2.311704e+01
1.710000e-06	-6.332240e-07	-2.581202e-10	-4.405093e+00	-2.219506e+01
1.720000e-06	-5.867980e-07	-2.434657e-10	-4.082126e+00	-2.125388e+01
1.730000e-06	-5.402884e-07	-2.271871e-10	-3.758576e+00	-2.029350e+01
1.740000e-06	-4.937771e-07	-2.127864e-10	-3.435016e+00	-1.931394e+01
1.750000e-06	-4.471748e-07	-2.000840e-10	-3.110821e+00	-1.831531e+01
1.760000e-06	-4.004891e-07	-1.871516e-10	-2.786047e+00	-1.729775e+01
1.770000e-06	-3.538175e-07	-1.733132e-10	-2.461371e+00	-1.626150e+01
1.780000e-06	-3.070466e-07	-1.591415e-10	-2.136004e+00	-1.520681e+01
1.790000e-06	-2.601955e-07	-1.432009e-10	-1.810079e+00	-1.413402e+01
1.800000e-06	-2.133740e-07	-1.275378e-10	-1.484360e+00	-1.304354e+01
1.810000e-06	-1.665153e-07	-1.122821e-10	-1.158382e+00	-1.193580e+01
1.820000e-06	-1.196810e-07	-9.543837e-11	-8.325743e-01	-1.081134e+01
1.830000e-06	-7.288398e-08	-7.752531e-11	-5.070256e-01	-9.670716e+00
1.840000e-06	-2.607755e-08	-5.997721e-11	-1.814114e-01	-8.514576e+00
1.850000e-06	2.067987e-08	-4.463909e-11	1.438619e-01	-7.343609e+00
1.860000e-06	6.745671e-08	-3.182572e-11	4.692701e-01	-6.158562e+00
1.870000e-06	1.142888e-07	-1.633945e-11	7.950627e-01	-4.960237e+00
1.880000e-06	1.611016e-07	2.274376e-12	1.120721e+00	-3.749490e+00
1.890000e-06	2.078512e-07	1.997779e-11	1.445940e+00	-2.527223e+00
1.900000e-06	2.545736e-07	3.581310e-11	1.770969e+00	-1.294387e+00
1.910000e-06	3.013306e-07	5.177785e-11	2.096240e+00	-5.197312e-02
1.920000e-06	3.481483e-07	6.966532e-11	2.421933e+00	1.198984e+00
1.930000e-06	3.949019e-07	8.878095e-11	2.747179e+00	2.457415e+00
1.940000e-06	4.415109e-07	1.076400e-10	3.071420e+00	3.722219e+00
1.950000e-06	4.880579e-07	1.249116e-10	3.395230e+00	4.992265e+00
1.960000e-06	5.345235e-07	1.416271e-10	3.718473e+00	6.266399e+00
1.970000e-06	5.810234e-07	1.596594e-10	4.041954e+00	7.543446e+00
1.980000e-06	6.275780e-07	1.791870e-10	4.365817e+00	8.822218e+00
1.990000e-06	6.740123e-07	1.975946e-10	4.688842e+00	1.010152e+01
2.000000e-06	7.203335e-07	2.147116e-10	5.011081e+00	1.138013e+01
2.010000e-06	7.665624e-07	2.337966e-10	5.332677e+00	1.265686e+01
2.020000e-06	8.127183e-07	2.528504e-10	5.653766e+00	1.393050e+01
2.030000e-06	8.588244e-07	2.721652e-10	5.974508e+00	1.519986e+01
2.040000e-06	9.049192e-07	2.930686e-10	6.295172e+00	1.646376e+01
2.050000e-06	9.509850e-07	3.107191e-10	6.615633e+00	1.772104e+01
2.060000e-06	9.969150e-07	3.265924e-10	6.935150e+00	1.897056e+01
2.070000e-06	1.042768e-06	3.434753e-10	7.254132e+00	2.021120e+01
2.080000e-06	1.088623e-06	3.625217e-10	7.573129e+00	2.144190e+01
2.090000e-06	1.134411e-06	3.823815e-10	7.891655e+00	2.266160e+01
2.100000e-06	1.180096e-06	4.042723e-10	8.209468e+00	2.386931e+01
2.110000e-06	1.225705e-06	4.237412e-10	8.526755e+00	2.506407e+01
2.120000e-06	1.271184e-06	4.401935e-10	8.843134e+00	2.624497e+01
2.130000e-06	1.316473e-06	4.546033e-10	9.158189e+00	2.741114e+01
2.140000e-06	1.361813e-06	4.679219e-10	9.473605e+00	2.856178e+01
2.150000e-06	1.407197e-06	4.807739e-10	9.789321e+00	2.969613e+01
2.160000e-06	1.452444e-06	4.945351e-10	1.010409e+01	3.081352e+01
2.170000e-06	1.497540e-06	5.121506e-10	1.041780e+01	3.191329e+01
2.180000e-06	1.542517e-06	5.317607e-10	1.073069e+01	3.299489e+01
2.190000e-06	1.587459e-06	5.512436e-10	1.104334e+01	3.405780e+01
2.200000e-06	1.632220e-06	5.689604e-10	1.135472e+01	3.510159e+01
2.210000e-06	1.676780e-06	5.814132e-10	1.166471e+01	3.612586e+01
2.220000e-06	1.721233e-06	5.888207e-10	1.197395e+01	3.713030e+01
2.230000e-06	1.765502e-06	5.956942e-10	1.228191e+01	3.811466e+01
2.240000e-06	1.809615e-06	6.059060e-10	1.258879e+01	3.907876e+01
2.250000e-06	1.853616e-06	6.193003e-10	1.289489e+01	4.002246e+01
2.260000e-06	1.897515e-06	6.363173e-10	1.320028e+01	4.094570e+01
2.270000e-06	1.941332e-06	6.552641e-10	1.350509e+01	4.184847e+01
2.280000e-06	1.985034e-06	6.711231e-10	1.380911e+01	4.273082e+01
2.290000e-06	2.028650e-06	6.821328e-10	1.411253e+01	4.359286e+01
2.300000e-06	2.072187e-06	6.889903e-10	1.441540e+01	4.443474e+01
2.310000e-06	2.115653e-06	6.936804e-10	1.471778e+01	4.525668e+01
2.320000e-06	2.159079e-06	6.998827e-10	1.501987e+01	4.605891e+01
2.330000e-06	2.202478e-06	7.116799e-10	1.532178e+01	4.684175e+01
2.340000e-06	2.245831e-06	7.266657e-10	1.562337e+01	4.760552e+01
2.350000e-06	2.289091e-06	7.404017e-10	1.592432e+01	4.835060e+01
2.360000e-06	2.332201e-06	7.509014e-10	1.622422e+01	4.907739e+01
2.370000e-06	2.375108e-06	7.597388e-10	1.652270e+01	4.978633e+01
2.380000e-06	2.417803e-06	7.662365e-10	1.681972e+01	5.047787e+01
2.390000e-06	2.460178e-06	7.729091e-10	1.711450e+01	5.115250e+01
2.400000e-06	2.502030e-06	7.793476e-10	1.740565e+01	5.181071e+01
2.410000e-06	2.543475e-06	7.872013e-10	1.769397e+01	5.245301e+01
2.420000e-06	2.584660e-06	7.984592e-10	1.798048e+01	5.307992e+01
2.430000e-06	2.625658e-06	8.108020e-10	1.826569e+01	5.369198e+01
2.440000e-06	2.666417e-06	8.215294e-10	1.854923e+01	5.428970e+01
2.450000e-06	2.706767e-06	8.274852e-10	1.882993e+01	5.487363e+01
2.460000e-06	2.746852e-06	8.298520e-10	1.910878e+01	5.544428e+01
2.470000e-06	2.786797e-06	8.326610e-10	1.938666e+01	5.600217e+01
2.480000e-06	2.826591e-06	8.372264e-10	1.966350e+01	5.654782e+01
2.490000e-06	2.866235e-06	8.455423e-10	1.993928e+01	5.708172e+01
2.500000e-06	2.905783e-06	8.556144e-10	2.021441e+01	5.760435e+01
2.510000e-06	2.945262e-06	8.665931e-10	2.048904e+01	5.811617e+01
2.520000e-06	2.984619e-06	8.757928e-10	2.076283e+01	5.861764e+01
2.530000e-06	3.023832e-06	8.825945e-10	2.103562e+01	5.910918e+01
2.540000e-06	3.062844e-06	8.902362e-10	2.130701e+01	5.959119e+01
2.550000e-06	3.101532e-06	8.977585e-10	2.157615e+01	6.006406e+01
2.560000e-06	3.139842e-06	9.028009e-10	2.184266e+01	6.052815e+01
2.570000e-06	3.177909e-06	9.056926e-10	2.210748e+01	6.098378e+01
2.580000e-06	3.215819e-06	9.119987e-10	2.237120e+01	6.143126e+01
2.590000e-06	3.253566e-06	9.209530e-10	2.263380e+01	6.187089e+01
2.600000e-06	3.291140e-06	9.307871e-10	2.289518e+01	6.230292e+01
2.610000e-06	3.328530e-06	9.388847e-10	2.315529e+01	6.272759e+01
2.620000e-06	3.365761e-06	9.451726e-10	2.341429e+01	6.314511e+01
2.630000e-06	3.402719e-06	9.516440e-10	2.367140e+01	6.355567e+01
2.640000e-06	3.439331e-06	9.574345e-10	2.392609e+01	6.395943e+01
2.650000e-06	3.475655e-06	9.613174e-10	2.417878e+01	6.435655e+01
2.660000e-06	3.511790e-06	9.675661e-10	2.443016e+01	6.474715e+01
2.670000e-06	3.547728e-06	9.752477e-10	2.468017e+01	6.513135e+01
2.680000e-06	3.583427e-06	9.808664e-10	2.492851e+01	6.550922e+01
2.690000e-06	3.618979e-06	9.856128e-10	2.517584e+01	6.588086e+01
2.700000e-06	3.654441e-06	9.889139e-10	2.542253e+01	6.624633e+01
2.710000e-06	3.689747e-06	9.945896e-10	2.566813e+01	6.660568e+01
2.720000e-06	3.724845e-06	1.002175e-09	2.591230e+01	6.695896e+01
2.730000e-06	3.759707e-06	1.010208e-09	2.615482e+01	6.730619e+01
2.740000e-06	3.794291e-06	1.015223e-09	2.639541e+01	6.764742e+01
2.750000e-06	3.828437e-06	1.017353e-09	2.663295e+01	6.798266e+01
2.760000e-06	3.862113e-06	1.019469e-09	2.686722e+01	6.831193e+01
2.770000e-06	3.895362e-06	1.021162e-09	2.709852e+01	6.863525e+01
2.780000e-06	3.928100e-06	1.023475e-09	2.732626e+01	6.895264e+01
2.790000e-06	3.960392e-06	1.028767e-09	2.755091e+01	6.926412e+01
2.800000e-06	3.992333e-06	1.035270e-09	2.777311e+01	6.956971e+01
2.810000e-06	4.024053e-06	1.041277e-09	2.799377e+01	6.986944e+01
2.820000e-06	4.055666e-06	1.046289e-09	2.821369e+01	7.016333e+01
2.830000e-06	4.087181e-06	1.049931e-09	2.843293e+01	7.045142e+01
2.840000e-06	4.118534e-06	1.051965e-09	2.865104e+01	7.073375e+01
2.850000e-06	4.149644e-06	1.052635e-09	2.886746e+01	7.101036e+01
2.860000e-06	4.180422e-06	1.054133e-09	2.908157e+01	7.128130e+01
2.870000e-06	4.210831e-06	1.056647e-09	2.929311e+01	7.154664e+01
2.880000e-06	4.240953e-06	1.061091e-09	2.950266e+01	7.180644e+01
2.890000e-06	4.270777e-06	1.066054e-09	2.971014e+01	7.206077e+01
2.900000e-06	4.300320e-06	1.070319e-09	2.991566e+01	7.230972e+01
2.910000e-06	4.329595e-06	1.073468e-09	3.011931e+01	7.255336e+01
