# Temperatura_=_-39.77
# Concentracion g/m^3_=_1620.0
# C_Vs_to_Am_M_A/Vsm_=_65563218390.804596
# pendiente_HvsI_1/m_=_3716.3
# ordenada_HvsI_A/m_=_1297.0
# frecuencia_Hz_=_135103.8134410669

Tiempo_(s)	Campo_(V.s)	Magnetizacion_(V.s)	Campo_(kA/m)	Magnetizacion_(A/m)
0.000000e+00	-5.515980e-06	-7.972390e-10	-3.837064e+01	-5.254371e+01
1.000000e-08	-5.516258e-06	-7.954499e-10	-3.837257e+01	-5.255753e+01
2.000000e-08	-5.516267e-06	-7.930827e-10	-3.837264e+01	-5.256835e+01
3.000000e-08	-5.515973e-06	-7.930529e-10	-3.837059e+01	-5.257603e+01
4.000000e-08	-5.515304e-06	-7.961459e-10	-3.836594e+01	-5.258045e+01
5.000000e-08	-5.514082e-06	-8.040338e-10	-3.835744e+01	-5.258149e+01
6.000000e-08	-5.512242e-06	-8.169495e-10	-3.834464e+01	-5.257906e+01
7.000000e-08	-5.509810e-06	-8.055267e-10	-3.832772e+01	-5.257308e+01
8.000000e-08	-5.506784e-06	-7.654760e-10	-3.830667e+01	-5.256348e+01
9.000000e-08	-5.503298e-06	-7.545777e-10	-3.828242e+01	-5.255023e+01
1.000000e-07	-5.499451e-06	-7.946006e-10	-3.825566e+01	-5.253331e+01
1.100000e-07	-5.495170e-06	-8.303429e-10	-3.822588e+01	-5.251273e+01
1.200000e-07	-5.490609e-06	-8.006851e-10	-3.819415e+01	-5.248852e+01
1.300000e-07	-5.485917e-06	-7.503261e-10	-3.816151e+01	-5.246073e+01
1.400000e-07	-5.480899e-06	-7.979154e-10	-3.812661e+01	-5.242944e+01
1.500000e-07	-5.475407e-06	-8.270389e-10	-3.808841e+01	-5.239475e+01
1.600000e-07	-5.469515e-06	-8.198051e-10	-3.804742e+01	-5.235678e+01
1.700000e-07	-5.463285e-06	-7.589579e-10	-3.800408e+01	-5.231569e+01
1.800000e-07	-5.456666e-06	-7.857857e-10	-3.795804e+01	-5.227163e+01
1.900000e-07	-5.449698e-06	-8.134578e-10	-3.790957e+01	-5.222480e+01
2.000000e-07	-5.442379e-06	-8.132622e-10	-3.785865e+01	-5.217541e+01
2.100000e-07	-5.434762e-06	-7.808908e-10	-3.780567e+01	-5.212368e+01
2.200000e-07	-5.426897e-06	-7.963689e-10	-3.775095e+01	-5.206986e+01
2.300000e-07	-5.418728e-06	-8.232590e-10	-3.769413e+01	-5.201419e+01
2.400000e-07	-5.410262e-06	-8.171949e-10	-3.763524e+01	-5.195695e+01
2.500000e-07	-5.401218e-06	-7.985922e-10	-3.757233e+01	-5.189840e+01
2.600000e-07	-5.391346e-06	-7.851260e-10	-3.750365e+01	-5.183882e+01
2.700000e-07	-5.380828e-06	-7.968930e-10	-3.743048e+01	-5.177851e+01
2.800000e-07	-5.369884e-06	-7.718907e-10	-3.735436e+01	-5.171774e+01
2.900000e-07	-5.358518e-06	-7.631550e-10	-3.727529e+01	-5.165680e+01
3.000000e-07	-5.346705e-06	-7.603594e-10	-3.719312e+01	-5.159596e+01
3.100000e-07	-5.334536e-06	-7.834246e-10	-3.710847e+01	-5.153549e+01
3.200000e-07	-5.321955e-06	-7.616438e-10	-3.702095e+01	-5.147566e+01
3.300000e-07	-5.308934e-06	-7.694321e-10	-3.693037e+01	-5.141671e+01
3.400000e-07	-5.295593e-06	-7.721045e-10	-3.683757e+01	-5.135886e+01
3.500000e-07	-5.281806e-06	-7.704463e-10	-3.674167e+01	-5.130235e+01
3.600000e-07	-5.267482e-06	-7.402931e-10	-3.664202e+01	-5.124736e+01
3.700000e-07	-5.252862e-06	-7.650634e-10	-3.654032e+01	-5.119406e+01
3.800000e-07	-5.237895e-06	-7.784003e-10	-3.643621e+01	-5.114261e+01
3.900000e-07	-5.222308e-06	-7.659775e-10	-3.632778e+01	-5.109312e+01
4.000000e-07	-5.206146e-06	-7.470354e-10	-3.621535e+01	-5.104571e+01
4.100000e-07	-5.189581e-06	-7.769956e-10	-3.610012e+01	-5.100042e+01
4.200000e-07	-5.172718e-06	-7.745568e-10	-3.598282e+01	-5.095732e+01
4.300000e-07	-5.155522e-06	-7.480780e-10	-3.586320e+01	-5.091642e+01
4.400000e-07	-5.137975e-06	-7.500365e-10	-3.574114e+01	-5.087769e+01
4.500000e-07	-5.120127e-06	-7.736336e-10	-3.561698e+01	-5.084110e+01
4.600000e-07	-5.101911e-06	-7.607474e-10	-3.549027e+01	-5.080658e+01
4.700000e-07	-5.083253e-06	-7.459844e-10	-3.536048e+01	-5.077402e+01
4.800000e-07	-5.064222e-06	-7.585617e-10	-3.522809e+01	-5.074331e+01
4.900000e-07	-5.044878e-06	-7.597942e-10	-3.509353e+01	-5.071429e+01
5.000000e-07	-5.025281e-06	-7.514617e-10	-3.495721e+01	-5.068679e+01
5.100000e-07	-5.005508e-06	-7.558864e-10	-3.481966e+01	-5.066061e+01
5.200000e-07	-4.985472e-06	-7.595021e-10	-3.468029e+01	-5.063555e+01
5.300000e-07	-4.965029e-06	-7.439206e-10	-3.453807e+01	-5.061135e+01
5.400000e-07	-4.944231e-06	-7.455273e-10	-3.439340e+01	-5.058779e+01
5.500000e-07	-4.923100e-06	-7.504095e-10	-3.424641e+01	-5.056460e+01
5.600000e-07	-4.901570e-06	-7.482060e-10	-3.409664e+01	-5.054151e+01
5.700000e-07	-4.879750e-06	-7.402674e-10	-3.394486e+01	-5.051823e+01
5.800000e-07	-4.857664e-06	-7.492269e-10	-3.379122e+01	-5.049450e+01
5.900000e-07	-4.835186e-06	-7.508867e-10	-3.363485e+01	-5.047003e+01
6.000000e-07	-4.812317e-06	-7.529825e-10	-3.347577e+01	-5.044452e+01
6.100000e-07	-4.789165e-06	-7.504327e-10	-3.331472e+01	-5.041772e+01
6.200000e-07	-4.765777e-06	-7.561693e-10	-3.315203e+01	-5.038934e+01
6.300000e-07	-4.742127e-06	-7.514231e-10	-3.298752e+01	-5.035912e+01
6.400000e-07	-4.718261e-06	-7.527843e-10	-3.282150e+01	-5.032681e+01
6.500000e-07	-4.694027e-06	-7.508576e-10	-3.265291e+01	-5.029218e+01
6.600000e-07	-4.669213e-06	-7.534142e-10	-3.248030e+01	-5.025501e+01
6.700000e-07	-4.643888e-06	-7.474723e-10	-3.230413e+01	-5.021508e+01
6.800000e-07	-4.618106e-06	-7.492389e-10	-3.212479e+01	-5.017223e+01
6.900000e-07	-4.591782e-06	-7.489458e-10	-3.194167e+01	-5.012629e+01
7.000000e-07	-4.565045e-06	-7.465648e-10	-3.175568e+01	-5.007712e+01
7.100000e-07	-4.538012e-06	-7.387073e-10	-3.156764e+01	-5.002460e+01
7.200000e-07	-4.510686e-06	-7.394343e-10	-3.137755e+01	-4.996865e+01
7.300000e-07	-4.483190e-06	-7.418601e-10	-3.118628e+01	-4.990919e+01
7.400000e-07	-4.455514e-06	-7.471199e-10	-3.099376e+01	-4.984619e+01
7.500000e-07	-4.427611e-06	-7.479531e-10	-3.079966e+01	-4.977962e+01
7.600000e-07	-4.399437e-06	-7.497248e-10	-3.060366e+01	-4.970949e+01
7.700000e-07	-4.370874e-06	-7.529479e-10	-3.040497e+01	-4.963583e+01
7.800000e-07	-4.341883e-06	-7.491109e-10	-3.020331e+01	-4.955869e+01
7.900000e-07	-4.312574e-06	-7.404747e-10	-2.999943e+01	-4.947813e+01
8.000000e-07	-4.283003e-06	-7.365108e-10	-2.979372e+01	-4.939424e+01
8.100000e-07	-4.253228e-06	-7.363549e-10	-2.958660e+01	-4.930712e+01
8.200000e-07	-4.223243e-06	-7.308244e-10	-2.937802e+01	-4.921691e+01
8.300000e-07	-4.192894e-06	-7.312828e-10	-2.916690e+01	-4.912372e+01
8.400000e-07	-4.162223e-06	-7.341088e-10	-2.895354e+01	-4.902769e+01
8.500000e-07	-4.131245e-06	-7.339762e-10	-2.873805e+01	-4.892899e+01
8.600000e-07	-4.099981e-06	-7.299822e-10	-2.852057e+01	-4.882776e+01
8.700000e-07	-4.068536e-06	-7.317378e-10	-2.830183e+01	-4.872416e+01
8.800000e-07	-4.036956e-06	-7.275038e-10	-2.808215e+01	-4.861835e+01
8.900000e-07	-4.005274e-06	-7.262456e-10	-2.786176e+01	-4.851048e+01
9.000000e-07	-3.973404e-06	-7.258384e-10	-2.764007e+01	-4.840071e+01
9.100000e-07	-3.941201e-06	-7.238924e-10	-2.741605e+01	-4.828917e+01
9.200000e-07	-3.908555e-06	-7.178811e-10	-2.718896e+01	-4.817601e+01
9.300000e-07	-3.875445e-06	-7.201205e-10	-2.695864e+01	-4.806134e+01
9.400000e-07	-3.841944e-06	-7.235013e-10	-2.672560e+01	-4.794527e+01
9.500000e-07	-3.807987e-06	-7.255489e-10	-2.648938e+01	-4.782789e+01
9.600000e-07	-3.773604e-06	-7.249942e-10	-2.625021e+01	-4.770927e+01
9.700000e-07	-3.738942e-06	-7.238581e-10	-2.600908e+01	-4.758947e+01
9.800000e-07	-3.703956e-06	-7.169552e-10	-2.576572e+01	-4.746853e+01
9.900000e-07	-3.668678e-06	-7.141037e-10	-2.552031e+01	-4.734645e+01
1.000000e-06	-3.633181e-06	-7.127835e-10	-2.527338e+01	-4.722324e+01
1.010000e-06	-3.597517e-06	-7.117987e-10	-2.502530e+01	-4.709885e+01
1.020000e-06	-3.561702e-06	-7.117827e-10	-2.477616e+01	-4.697323e+01
1.030000e-06	-3.525706e-06	-7.142377e-10	-2.452576e+01	-4.684632e+01
1.040000e-06	-3.489441e-06	-7.129823e-10	-2.427349e+01	-4.671800e+01
1.050000e-06	-3.452969e-06	-7.117773e-10	-2.401978e+01	-4.658818e+01
1.060000e-06	-3.416318e-06	-7.111864e-10	-2.376483e+01	-4.645669e+01
1.070000e-06	-3.379352e-06	-7.065940e-10	-2.350768e+01	-4.632340e+01
1.080000e-06	-3.342144e-06	-7.007046e-10	-2.324885e+01	-4.618812e+01
1.090000e-06	-3.304729e-06	-6.990407e-10	-2.298858e+01	-4.605067e+01
1.100000e-06	-3.267017e-06	-6.977102e-10	-2.272625e+01	-4.591083e+01
1.110000e-06	-3.229053e-06	-6.933341e-10	-2.246216e+01	-4.576840e+01
1.120000e-06	-3.190871e-06	-6.919547e-10	-2.219656e+01	-4.562315e+01
1.130000e-06	-3.152458e-06	-6.901728e-10	-2.192935e+01	-4.547485e+01
1.140000e-06	-3.113906e-06	-6.854984e-10	-2.166117e+01	-4.532326e+01
1.150000e-06	-3.075158e-06	-6.790767e-10	-2.139163e+01	-4.516813e+01
1.160000e-06	-3.036172e-06	-6.760926e-10	-2.112043e+01	-4.500923e+01
1.170000e-06	-2.997034e-06	-6.715682e-10	-2.084817e+01	-4.484631e+01
1.180000e-06	-2.957735e-06	-6.665386e-10	-2.057480e+01	-4.467915e+01
1.190000e-06	-2.918243e-06	-6.632340e-10	-2.030008e+01	-4.450751e+01
1.200000e-06	-2.878605e-06	-6.603619e-10	-2.002435e+01	-4.433118e+01
1.210000e-06	-2.838910e-06	-6.554310e-10	-1.974823e+01	-4.414995e+01
1.220000e-06	-2.799091e-06	-6.534944e-10	-1.947123e+01	-4.396361e+01
1.230000e-06	-2.759009e-06	-6.512974e-10	-1.919241e+01	-4.377200e+01
1.240000e-06	-2.718742e-06	-6.478167e-10	-1.891230e+01	-4.357494e+01
1.250000e-06	-2.678333e-06	-6.442260e-10	-1.863121e+01	-4.337228e+01
1.260000e-06	-2.637708e-06	-6.438470e-10	-1.834861e+01	-4.316390e+01
1.270000e-06	-2.596870e-06	-6.406123e-10	-1.806453e+01	-4.294968e+01
1.280000e-06	-2.555712e-06	-6.375004e-10	-1.777822e+01	-4.272952e+01
1.290000e-06	-2.514303e-06	-6.353381e-10	-1.749017e+01	-4.250336e+01
1.300000e-06	-2.472637e-06	-6.310257e-10	-1.720033e+01	-4.227114e+01
1.310000e-06	-2.430535e-06	-6.234568e-10	-1.690745e+01	-4.203281e+01
1.320000e-06	-2.388112e-06	-6.175385e-10	-1.661235e+01	-4.178837e+01
1.330000e-06	-2.345469e-06	-6.127517e-10	-1.631571e+01	-4.153780e+01
1.340000e-06	-2.302596e-06	-6.078260e-10	-1.601748e+01	-4.128111e+01
1.350000e-06	-2.259480e-06	-6.054047e-10	-1.571755e+01	-4.101835e+01
1.360000e-06	-2.216170e-06	-6.050249e-10	-1.541628e+01	-4.074953e+01
1.370000e-06	-2.172763e-06	-6.034931e-10	-1.511433e+01	-4.047471e+01
1.380000e-06	-2.129273e-06	-5.999799e-10	-1.481180e+01	-4.019394e+01
1.390000e-06	-2.085656e-06	-5.937906e-10	-1.450838e+01	-3.990728e+01
1.400000e-06	-2.041939e-06	-5.847608e-10	-1.420428e+01	-3.961480e+01
1.410000e-06	-1.998163e-06	-5.766924e-10	-1.389976e+01	-3.931656e+01
1.420000e-06	-1.954324e-06	-5.704974e-10	-1.359480e+01	-3.901262e+01
1.430000e-06	-1.910439e-06	-5.684463e-10	-1.328953e+01	-3.870303e+01
1.440000e-06	-1.866469e-06	-5.683293e-10	-1.298366e+01	-3.838783e+01
1.450000e-06	-1.822345e-06	-5.682628e-10	-1.267673e+01	-3.806708e+01
1.460000e-06	-1.778044e-06	-5.651971e-10	-1.236855e+01	-3.774079e+01
1.470000e-06	-1.733541e-06	-5.595169e-10	-1.205898e+01	-3.740896e+01
1.480000e-06	-1.688939e-06	-5.524804e-10	-1.174871e+01	-3.707159e+01
1.490000e-06	-1.644275e-06	-5.459340e-10	-1.143802e+01	-3.672864e+01
1.500000e-06	-1.599522e-06	-5.403195e-10	-1.112671e+01	-3.638007e+01
1.510000e-06	-1.554657e-06	-5.347162e-10	-1.081461e+01	-3.602580e+01
1.520000e-06	-1.509596e-06	-5.292871e-10	-1.050116e+01	-3.566572e+01
1.530000e-06	-1.464401e-06	-5.260419e-10	-1.018677e+01	-3.529971e+01
1.540000e-06	-1.419176e-06	-5.242382e-10	-9.872167e+00	-3.492761e+01
1.550000e-06	-1.373927e-06	-5.221282e-10	-9.557403e+00	-3.454923e+01
1.560000e-06	-1.328529e-06	-5.172341e-10	-9.241605e+00	-3.416438e+01
1.570000e-06	-1.283025e-06	-5.105358e-10	-8.925066e+00	-3.377279e+01
1.580000e-06	-1.237431e-06	-5.010244e-10	-8.607902e+00	-3.337422e+01
1.590000e-06	-1.191717e-06	-4.891953e-10	-8.289904e+00	-3.296837e+01
1.600000e-06	-1.145953e-06	-4.791656e-10	-7.971555e+00	-3.255492e+01
1.610000e-06	-1.100077e-06	-4.727200e-10	-7.652429e+00	-3.213354e+01
1.620000e-06	-1.054127e-06	-4.659315e-10	-7.332793e+00	-3.170385e+01
1.630000e-06	-1.008207e-06	-4.588574e-10	-7.013362e+00	-3.126548e+01
1.640000e-06	-9.622202e-07	-4.528052e-10	-6.693463e+00	-3.081804e+01
1.650000e-06	-9.161139e-07	-4.447950e-10	-6.372735e+00	-3.036112e+01
1.660000e-06	-8.699432e-07	-4.337057e-10	-6.051559e+00	-2.989429e+01
1.670000e-06	-8.236433e-07	-4.226596e-10	-5.729484e+00	-2.941713e+01
1.680000e-06	-7.771880e-07	-4.150081e-10	-5.406329e+00	-2.892922e+01
1.690000e-06	-7.307016e-07	-4.091420e-10	-5.082957e+00	-2.843013e+01
1.700000e-06	-6.842335e-07	-4.030963e-10	-4.759712e+00	-2.791944e+01
1.710000e-06	-6.377708e-07	-3.956998e-10	-4.436505e+00	-2.739674e+01
1.720000e-06	-5.913035e-07	-3.869924e-10	-4.113266e+00	-2.686162e+01
1.730000e-06	-5.448244e-07	-3.765073e-10	-3.789945e+00	-2.631372e+01
1.740000e-06	-4.982956e-07	-3.650594e-10	-3.466278e+00	-2.575268e+01
1.750000e-06	-4.516693e-07	-3.536602e-10	-3.141933e+00	-2.517817e+01
1.760000e-06	-4.050142e-07	-3.436921e-10	-2.817388e+00	-2.458988e+01
1.770000e-06	-3.583763e-07	-3.350469e-10	-2.492962e+00	-2.398755e+01
1.780000e-06	-3.116685e-07	-3.254413e-10	-2.168050e+00	-2.337097e+01
1.790000e-06	-2.649206e-07	-3.139411e-10	-1.842859e+00	-2.273993e+01
1.800000e-06	-2.182014e-07	-3.019243e-10	-1.517868e+00	-2.209431e+01
1.810000e-06	-1.714865e-07	-2.890734e-10	-1.192906e+00	-2.143401e+01
1.820000e-06	-1.247608e-07	-2.765724e-10	-8.678699e-01	-2.075899e+01
1.830000e-06	-7.792056e-08	-2.659373e-10	-5.420364e-01	-2.006926e+01
1.840000e-06	-3.104463e-08	-2.579840e-10	-2.159548e-01	-1.936489e+01
1.850000e-06	1.575785e-08	-2.506682e-10	1.096158e-01	-1.864600e+01
1.860000e-06	6.252677e-08	-2.439039e-10	4.349530e-01	-1.791276e+01
1.870000e-06	1.093106e-07	-2.341978e-10	7.603936e-01	-1.716541e+01
1.880000e-06	1.561600e-07	-2.212037e-10	1.086291e+00	-1.640426e+01
1.890000e-06	2.029992e-07	-2.073977e-10	1.412117e+00	-1.562963e+01
1.900000e-06	2.497680e-07	-1.927298e-10	1.737453e+00	-1.484196e+01
1.910000e-06	2.964812e-07	-1.799839e-10	2.062403e+00	-1.404169e+01
1.920000e-06	3.432729e-07	-1.689370e-10	2.387898e+00	-1.322934e+01
1.930000e-06	3.901193e-07	-1.584046e-10	2.713775e+00	-1.240548e+01
1.940000e-06	4.368952e-07	-1.481618e-10	3.039160e+00	-1.157073e+01
1.950000e-06	4.835665e-07	-1.365653e-10	3.363819e+00	-1.072575e+01
1.960000e-06	5.301083e-07	-1.234672e-10	3.687576e+00	-9.871242e+00
1.970000e-06	5.766275e-07	-1.100146e-10	4.011176e+00	-9.007949e+00
1.980000e-06	6.231179e-07	-9.516702e-11	4.334576e+00	-8.136651e+00
1.990000e-06	6.695289e-07	-8.244018e-11	4.657424e+00	-7.258159e+00
2.000000e-06	7.159607e-07	-7.371985e-11	4.980416e+00	-6.373309e+00
2.010000e-06	7.623081e-07	-6.337127e-11	5.302820e+00	-5.482959e+00
2.020000e-06	8.084095e-07	-5.348271e-11	5.623514e+00	-4.587984e+00
2.030000e-06	8.544303e-07	-4.206745e-11	5.943647e+00	-3.689273e+00
2.040000e-06	9.005762e-07	-2.682331e-11	6.264651e+00	-2.787720e+00
2.050000e-06	9.467575e-07	-1.233397e-11	6.585900e+00	-1.884225e+00
2.060000e-06	9.927844e-07	2.311047e-12	6.906075e+00	-9.796813e-01
2.070000e-06	1.038705e-06	1.357232e-11	7.225510e+00	-7.497892e-02
2.080000e-06	1.084594e-06	2.201518e-11	7.544728e+00	8.290059e-01
2.090000e-06	1.130419e-06	3.089703e-11	7.863498e+00	1.731413e+00
2.100000e-06	1.176132e-06	4.398805e-11	8.181488e+00	2.631402e+00
2.110000e-06	1.221764e-06	5.790621e-11	8.498922e+00	3.528159e+00
2.120000e-06	1.267340e-06	7.077020e-11	8.815961e+00	4.420898e+00
2.130000e-06	1.312838e-06	8.263503e-11	9.132457e+00	5.308865e+00
2.140000e-06	1.358236e-06	9.323808e-11	9.448258e+00	6.191341e+00
2.150000e-06	1.403478e-06	1.020309e-10	9.762969e+00	7.067647e+00
2.160000e-06	1.448529e-06	1.091879e-10	1.007636e+01	7.937142e+00
2.170000e-06	1.493506e-06	1.185849e-10	1.038923e+01	8.799231e+00
2.180000e-06	1.538418e-06	1.298644e-10	1.070165e+01	9.653362e+00
2.190000e-06	1.583222e-06	1.423611e-10	1.101332e+01	1.049903e+01
2.200000e-06	1.627937e-06	1.572048e-10	1.132437e+01	1.133577e+01
2.210000e-06	1.672558e-06	1.708782e-10	1.163477e+01	1.216318e+01
2.220000e-06	1.717056e-06	1.814919e-10	1.194430e+01	1.298090e+01
2.230000e-06	1.761406e-06	1.904191e-10	1.225281e+01	1.378859e+01
2.240000e-06	1.805584e-06	2.015355e-10	1.256013e+01	1.458600e+01
2.250000e-06	1.849601e-06	2.137278e-10	1.286632e+01	1.537290e+01
2.260000e-06	1.893540e-06	2.253344e-10	1.317197e+01	1.614911e+01
2.270000e-06	1.937383e-06	2.381090e-10	1.347696e+01	1.691449e+01
2.280000e-06	1.981141e-06	2.490880e-10	1.378135e+01	1.766894e+01
2.290000e-06	2.024846e-06	2.590199e-10	1.408538e+01	1.841240e+01
2.300000e-06	2.068464e-06	2.709119e-10	1.438879e+01	1.914484e+01
2.310000e-06	2.112049e-06	2.829391e-10	1.469198e+01	1.986627e+01
2.320000e-06	2.155613e-06	2.931094e-10	1.499503e+01	2.057673e+01
2.330000e-06	2.199099e-06	3.044881e-10	1.529752e+01	2.127628e+01
2.340000e-06	2.242485e-06	3.153634e-10	1.559933e+01	2.196501e+01
2.350000e-06	2.285711e-06	3.231258e-10	1.590002e+01	2.264302e+01
2.360000e-06	2.328759e-06	3.298069e-10	1.619947e+01	2.331044e+01
2.370000e-06	2.371577e-06	3.377685e-10	1.649733e+01	2.396741e+01
2.380000e-06	2.414030e-06	3.452615e-10	1.679264e+01	2.461407e+01
2.390000e-06	2.456041e-06	3.552627e-10	1.708488e+01	2.525058e+01
2.400000e-06	2.497808e-06	3.671724e-10	1.737543e+01	2.587710e+01
2.410000e-06	2.539402e-06	3.794095e-10	1.766476e+01	2.649379e+01
2.420000e-06	2.580629e-06	3.923178e-10	1.795155e+01	2.710081e+01
2.430000e-06	2.621501e-06	4.038371e-10	1.823587e+01	2.769833e+01
2.440000e-06	2.662126e-06	4.117442e-10	1.851847e+01	2.828648e+01
2.450000e-06	2.702517e-06	4.162103e-10	1.879944e+01	2.886542e+01
2.460000e-06	2.742672e-06	4.202599e-10	1.907876e+01	2.943527e+01
2.470000e-06	2.782666e-06	4.266748e-10	1.935697e+01	2.999617e+01
2.480000e-06	2.822566e-06	4.371315e-10	1.963453e+01	3.054822e+01
2.490000e-06	2.862360e-06	4.492382e-10	1.991134e+01	3.109151e+01
2.500000e-06	2.901984e-06	4.600227e-10	2.018698e+01	3.162614e+01
2.510000e-06	2.941492e-06	4.701029e-10	2.046181e+01	3.215216e+01
2.520000e-06	2.980902e-06	4.778200e-10	2.073596e+01	3.266964e+01
2.530000e-06	3.020186e-06	4.826989e-10	2.100923e+01	3.317861e+01
2.540000e-06	3.059260e-06	4.885440e-10	2.128104e+01	3.367910e+01
2.550000e-06	3.098011e-06	4.961064e-10	2.155060e+01	3.417113e+01
2.560000e-06	3.136469e-06	5.023961e-10	2.181812e+01	3.465469e+01
2.570000e-06	3.174757e-06	5.081775e-10	2.208446e+01	3.512976e+01
2.580000e-06	3.212840e-06	5.174613e-10	2.234938e+01	3.559635e+01
2.590000e-06	3.250585e-06	5.271511e-10	2.261194e+01	3.605440e+01
2.600000e-06	3.288143e-06	5.341439e-10	2.287321e+01	3.650389e+01
2.610000e-06	3.325528e-06	5.398267e-10	2.313327e+01	3.694477e+01
2.620000e-06	3.362663e-06	5.451877e-10	2.339159e+01	3.737700e+01
2.630000e-06	3.399596e-06	5.499392e-10	2.364851e+01	3.780053e+01
2.640000e-06	3.436275e-06	5.535944e-10	2.390365e+01	3.821532e+01
2.650000e-06	3.472700e-06	5.571712e-10	2.415703e+01	3.862132e+01
2.660000e-06	3.508959e-06	5.638288e-10	2.440927e+01	3.901848e+01
2.670000e-06	3.545055e-06	5.705232e-10	2.466036e+01	3.940679e+01
2.680000e-06	3.580960e-06	5.750664e-10	2.491012e+01	3.978620e+01
2.690000e-06	3.616701e-06	5.796434e-10	2.515875e+01	4.015670e+01
2.700000e-06	3.652282e-06	5.829878e-10	2.540626e+01	4.051828e+01
2.710000e-06	3.687661e-06	5.864043e-10	2.565236e+01	4.087095e+01
2.720000e-06	3.722846e-06	5.913150e-10	2.589712e+01	4.121472e+01
2.730000e-06	3.757793e-06	5.961162e-10	2.614022e+01	4.154961e+01
2.740000e-06	3.792342e-06	6.008652e-10	2.638055e+01	4.187569e+01
2.750000e-06	3.826436e-06	6.047626e-10	2.661772e+01	4.219301e+01
2.760000e-06	3.860096e-06	6.067572e-10	2.685187e+01	4.250164e+01
2.770000e-06	3.893288e-06	6.084223e-10	2.708276e+01	4.280167e+01
2.780000e-06	3.925986e-06	6.105144e-10	2.731022e+01	4.309323e+01
2.790000e-06	3.958236e-06	6.142544e-10	2.753456e+01	4.337643e+01
2.800000e-06	3.990204e-06	6.178721e-10	2.775694e+01	4.365140e+01
2.810000e-06	4.022005e-06	6.203926e-10	2.797815e+01	4.391832e+01
2.820000e-06	4.053593e-06	6.228357e-10	2.819789e+01	4.417734e+01
2.830000e-06	4.084988e-06	6.267495e-10	2.841628e+01	4.442866e+01
2.840000e-06	4.116281e-06	6.320333e-10	2.863396e+01	4.467245e+01
2.850000e-06	4.147433e-06	6.354302e-10	2.885066e+01	4.490894e+01
2.860000e-06	4.178249e-06	6.376121e-10	2.906503e+01	4.513832e+01
2.870000e-06	4.208681e-06	6.386371e-10	2.927672e+01	4.536084e+01
2.880000e-06	4.238815e-06	6.390853e-10	2.948634e+01	4.557671e+01
2.890000e-06	4.268627e-06	6.409110e-10	2.969372e+01	4.578616e+01
2.900000e-06	4.298126e-06	6.427890e-10	2.989892e+01	4.598945e+01
