# Temperatura_=_-3.55
# Concentracion g/m^3_=_1620.0
# C_Vs_to_Am_M_A/Vsm_=_65563218390.804596
# pendiente_HvsI_1/m_=_3716.3
# ordenada_HvsI_A/m_=_1297.0
# frecuencia_Hz_=_135098.2330992558

Tiempo_(s)	Campo_(V.s)	Magnetizacion_(V.s)	Campo_(kA/m)	Magnetizacion_(A/m)
0.000000e+00	-5.523343e-06	-9.937748e-10	-3.836589e+01	-6.375721e+01
1.000000e-08	-5.523480e-06	-9.903294e-10	-3.836684e+01	-6.370831e+01
2.000000e-08	-5.523330e-06	-9.876219e-10	-3.836579e+01	-6.365592e+01
3.000000e-08	-5.522819e-06	-9.868818e-10	-3.836224e+01	-6.360011e+01
4.000000e-08	-5.521767e-06	-9.873421e-10	-3.835493e+01	-6.354100e+01
5.000000e-08	-5.520195e-06	-9.916873e-10	-3.834402e+01	-6.347871e+01
6.000000e-08	-5.518107e-06	-1.011525e-09	-3.832951e+01	-6.341339e+01
7.000000e-08	-5.515460e-06	-1.011381e-09	-3.831112e+01	-6.334517e+01
8.000000e-08	-5.512321e-06	-9.419757e-10	-3.828932e+01	-6.327424e+01
9.000000e-08	-5.508739e-06	-8.939144e-10	-3.826444e+01	-6.320076e+01
1.000000e-07	-5.504710e-06	-9.574396e-10	-3.823645e+01	-6.312493e+01
1.100000e-07	-5.500256e-06	-1.036433e-09	-3.820552e+01	-6.304693e+01
1.200000e-07	-5.495568e-06	-1.008200e-09	-3.817295e+01	-6.296697e+01
1.300000e-07	-5.490662e-06	-9.436617e-10	-3.813888e+01	-6.288525e+01
1.400000e-07	-5.485428e-06	-9.546453e-10	-3.810252e+01	-6.280196e+01
1.500000e-07	-5.479835e-06	-1.031993e-09	-3.806367e+01	-6.271732e+01
1.600000e-07	-5.473826e-06	-9.915252e-10	-3.802193e+01	-6.263152e+01
1.700000e-07	-5.467406e-06	-9.284862e-10	-3.797734e+01	-6.254477e+01
1.800000e-07	-5.460512e-06	-9.131460e-10	-3.792945e+01	-6.245725e+01
1.900000e-07	-5.453243e-06	-9.791437e-10	-3.787896e+01	-6.236916e+01
2.000000e-07	-5.445708e-06	-9.852656e-10	-3.782662e+01	-6.228065e+01
2.100000e-07	-5.437890e-06	-9.529159e-10	-3.777231e+01	-6.219191e+01
2.200000e-07	-5.429751e-06	-9.317215e-10	-3.771578e+01	-6.210308e+01
2.300000e-07	-5.421273e-06	-9.430327e-10	-3.765689e+01	-6.201430e+01
2.400000e-07	-5.412422e-06	-9.396883e-10	-3.759541e+01	-6.192571e+01
2.500000e-07	-5.403021e-06	-9.183185e-10	-3.753011e+01	-6.183739e+01
2.600000e-07	-5.392953e-06	-9.195737e-10	-3.746018e+01	-6.174947e+01
2.700000e-07	-5.382226e-06	-9.277986e-10	-3.738567e+01	-6.166199e+01
2.800000e-07	-5.370901e-06	-9.345089e-10	-3.730700e+01	-6.157504e+01
2.900000e-07	-5.359153e-06	-9.092691e-10	-3.722540e+01	-6.148864e+01
3.000000e-07	-5.347141e-06	-9.118910e-10	-3.714196e+01	-6.140283e+01
3.100000e-07	-5.334779e-06	-9.175154e-10	-3.705609e+01	-6.131760e+01
3.200000e-07	-5.321990e-06	-9.366483e-10	-3.696726e+01	-6.123295e+01
3.300000e-07	-5.308722e-06	-9.055306e-10	-3.687510e+01	-6.114885e+01
3.400000e-07	-5.295045e-06	-9.099828e-10	-3.678009e+01	-6.106525e+01
3.500000e-07	-5.281001e-06	-9.109282e-10	-3.668254e+01	-6.098209e+01
3.600000e-07	-5.266598e-06	-9.107004e-10	-3.658249e+01	-6.089929e+01
3.700000e-07	-5.251697e-06	-8.922770e-10	-3.647899e+01	-6.081675e+01
3.800000e-07	-5.236222e-06	-9.262596e-10	-3.637150e+01	-6.073439e+01
3.900000e-07	-5.220217e-06	-9.114100e-10	-3.626033e+01	-6.065206e+01
4.000000e-07	-5.203757e-06	-8.814713e-10	-3.614599e+01	-6.056966e+01
4.100000e-07	-5.186953e-06	-8.986093e-10	-3.602927e+01	-6.048704e+01
4.200000e-07	-5.169829e-06	-9.320623e-10	-3.591033e+01	-6.040406e+01
4.300000e-07	-5.152435e-06	-8.871850e-10	-3.578950e+01	-6.032056e+01
4.400000e-07	-5.134633e-06	-8.659425e-10	-3.566585e+01	-6.023639e+01
4.500000e-07	-5.116444e-06	-9.038585e-10	-3.553950e+01	-6.015138e+01
4.600000e-07	-5.097924e-06	-8.990806e-10	-3.541086e+01	-6.006537e+01
4.700000e-07	-5.078970e-06	-8.710964e-10	-3.527921e+01	-5.997821e+01
4.800000e-07	-5.059690e-06	-8.939205e-10	-3.514529e+01	-5.988972e+01
4.900000e-07	-5.040233e-06	-9.029480e-10	-3.501014e+01	-5.979975e+01
5.000000e-07	-5.020534e-06	-8.681832e-10	-3.487331e+01	-5.970815e+01
5.100000e-07	-5.000547e-06	-8.845289e-10	-3.473447e+01	-5.961475e+01
5.200000e-07	-4.980223e-06	-8.997274e-10	-3.459330e+01	-5.951941e+01
5.300000e-07	-4.959541e-06	-8.633955e-10	-3.444964e+01	-5.942201e+01
5.400000e-07	-4.938496e-06	-8.507701e-10	-3.430345e+01	-5.932239e+01
5.500000e-07	-4.917126e-06	-8.885469e-10	-3.415502e+01	-5.922046e+01
5.600000e-07	-4.895490e-06	-8.776667e-10	-3.400473e+01	-5.911609e+01
5.700000e-07	-4.873481e-06	-8.680437e-10	-3.385185e+01	-5.900918e+01
5.800000e-07	-4.851012e-06	-8.861276e-10	-3.369578e+01	-5.889965e+01
5.900000e-07	-4.828172e-06	-8.844319e-10	-3.353713e+01	-5.878741e+01
6.000000e-07	-4.804995e-06	-8.560388e-10	-3.337614e+01	-5.867240e+01
6.100000e-07	-4.781555e-06	-8.670359e-10	-3.321332e+01	-5.855456e+01
6.200000e-07	-4.757938e-06	-8.664888e-10	-3.304927e+01	-5.843385e+01
6.300000e-07	-4.734105e-06	-8.565608e-10	-3.288373e+01	-5.831023e+01
6.400000e-07	-4.710054e-06	-8.629904e-10	-3.271666e+01	-5.818369e+01
6.500000e-07	-4.685660e-06	-8.741767e-10	-3.254723e+01	-5.805420e+01
6.600000e-07	-4.660696e-06	-8.583086e-10	-3.237382e+01	-5.792176e+01
6.700000e-07	-4.635198e-06	-8.564430e-10	-3.219671e+01	-5.778638e+01
6.800000e-07	-4.609242e-06	-8.559933e-10	-3.201641e+01	-5.764808e+01
6.900000e-07	-4.582829e-06	-8.457296e-10	-3.183295e+01	-5.750687e+01
7.000000e-07	-4.555927e-06	-8.385881e-10	-3.164608e+01	-5.736278e+01
7.100000e-07	-4.528628e-06	-8.438265e-10	-3.145646e+01	-5.721584e+01
7.200000e-07	-4.501123e-06	-8.381580e-10	-3.126540e+01	-5.706609e+01
7.300000e-07	-4.473398e-06	-8.350318e-10	-3.107282e+01	-5.691356e+01
7.400000e-07	-4.445498e-06	-8.338260e-10	-3.087903e+01	-5.675830e+01
7.500000e-07	-4.417419e-06	-8.256340e-10	-3.068398e+01	-5.660035e+01
7.600000e-07	-4.389012e-06	-8.196088e-10	-3.048667e+01	-5.643975e+01
7.700000e-07	-4.360260e-06	-8.221540e-10	-3.028695e+01	-5.627653e+01
7.800000e-07	-4.331229e-06	-8.204203e-10	-3.008530e+01	-5.611074e+01
7.900000e-07	-4.301822e-06	-8.132035e-10	-2.988103e+01	-5.594241e+01
8.000000e-07	-4.272072e-06	-8.141192e-10	-2.967438e+01	-5.577157e+01
8.100000e-07	-4.242074e-06	-8.098441e-10	-2.946601e+01	-5.559823e+01
8.200000e-07	-4.211856e-06	-8.005347e-10	-2.925612e+01	-5.542243e+01
8.300000e-07	-4.181393e-06	-7.920029e-10	-2.904451e+01	-5.524416e+01
8.400000e-07	-4.150620e-06	-7.930399e-10	-2.883077e+01	-5.506343e+01
8.500000e-07	-4.119545e-06	-7.893789e-10	-2.861491e+01	-5.488025e+01
8.600000e-07	-4.088237e-06	-7.884208e-10	-2.839745e+01	-5.469458e+01
8.700000e-07	-4.056781e-06	-7.910049e-10	-2.817895e+01	-5.450641e+01
8.800000e-07	-4.025138e-06	-7.930681e-10	-2.795915e+01	-5.431572e+01
8.900000e-07	-3.993213e-06	-7.830407e-10	-2.773739e+01	-5.412246e+01
9.000000e-07	-3.961022e-06	-7.763253e-10	-2.751379e+01	-5.392658e+01
9.100000e-07	-3.928639e-06	-7.685220e-10	-2.728885e+01	-5.372803e+01
9.200000e-07	-3.895948e-06	-7.608401e-10	-2.706178e+01	-5.352674e+01
9.300000e-07	-3.862778e-06	-7.553649e-10	-2.683137e+01	-5.332265e+01
9.400000e-07	-3.829127e-06	-7.600425e-10	-2.659763e+01	-5.311566e+01
9.500000e-07	-3.794986e-06	-7.603641e-10	-2.636048e+01	-5.290570e+01
9.600000e-07	-3.760444e-06	-7.594406e-10	-2.612055e+01	-5.269267e+01
9.700000e-07	-3.725571e-06	-7.571775e-10	-2.587831e+01	-5.247648e+01
9.800000e-07	-3.690350e-06	-7.535270e-10	-2.563367e+01	-5.225702e+01
9.900000e-07	-3.654887e-06	-7.454428e-10	-2.538734e+01	-5.203418e+01
1.000000e-06	-3.619292e-06	-7.406431e-10	-2.514009e+01	-5.180787e+01
1.010000e-06	-3.583568e-06	-7.390507e-10	-2.489195e+01	-5.157797e+01
1.020000e-06	-3.547699e-06	-7.393594e-10	-2.464279e+01	-5.134436e+01
1.030000e-06	-3.511667e-06	-7.390807e-10	-2.439251e+01	-5.110695e+01
1.040000e-06	-3.475391e-06	-7.384302e-10	-2.414053e+01	-5.086562e+01
1.050000e-06	-3.438870e-06	-7.354044e-10	-2.388686e+01	-5.062026e+01
1.060000e-06	-3.402075e-06	-7.303325e-10	-2.363127e+01	-5.037077e+01
1.070000e-06	-3.364976e-06	-7.260653e-10	-2.337358e+01	-5.011705e+01
1.080000e-06	-3.327598e-06	-7.207142e-10	-2.311394e+01	-4.985900e+01
1.090000e-06	-3.289964e-06	-7.169803e-10	-2.285253e+01	-4.959654e+01
1.100000e-06	-3.252118e-06	-7.135761e-10	-2.258965e+01	-4.932957e+01
1.110000e-06	-3.214057e-06	-7.110076e-10	-2.232527e+01	-4.905801e+01
1.120000e-06	-3.175725e-06	-7.053597e-10	-2.205901e+01	-4.878181e+01
1.130000e-06	-3.137157e-06	-7.001042e-10	-2.179112e+01	-4.850088e+01
1.140000e-06	-3.098467e-06	-6.945906e-10	-2.152237e+01	-4.821518e+01
1.150000e-06	-3.059505e-06	-6.905295e-10	-2.125173e+01	-4.792464e+01
1.160000e-06	-3.020329e-06	-6.859064e-10	-2.097961e+01	-4.762923e+01
1.170000e-06	-2.981012e-06	-6.824518e-10	-2.070651e+01	-4.732891e+01
1.180000e-06	-2.941509e-06	-6.771462e-10	-2.043212e+01	-4.702365e+01
1.190000e-06	-2.901917e-06	-6.724357e-10	-2.015710e+01	-4.671342e+01
1.200000e-06	-2.862258e-06	-6.666222e-10	-1.988163e+01	-4.639820e+01
1.210000e-06	-2.822527e-06	-6.611423e-10	-1.960565e+01	-4.607798e+01
1.220000e-06	-2.782580e-06	-6.528808e-10	-1.932817e+01	-4.575275e+01
1.230000e-06	-2.742366e-06	-6.460829e-10	-1.904884e+01	-4.542249e+01
1.240000e-06	-2.702001e-06	-6.404409e-10	-1.876846e+01	-4.508721e+01
1.250000e-06	-2.661454e-06	-6.360068e-10	-1.848682e+01	-4.474690e+01
1.260000e-06	-2.620606e-06	-6.305321e-10	-1.820308e+01	-4.440155e+01
1.270000e-06	-2.579517e-06	-6.263791e-10	-1.791767e+01	-4.405116e+01
1.280000e-06	-2.538202e-06	-6.228275e-10	-1.763069e+01	-4.369572e+01
1.290000e-06	-2.496541e-06	-6.170469e-10	-1.734131e+01	-4.333522e+01
1.300000e-06	-2.454452e-06	-6.085185e-10	-1.704895e+01	-4.296964e+01
1.310000e-06	-2.412067e-06	-6.001393e-10	-1.675454e+01	-4.259896e+01
1.320000e-06	-2.369504e-06	-5.922438e-10	-1.645889e+01	-4.222314e+01
1.330000e-06	-2.326732e-06	-5.854062e-10	-1.616179e+01	-4.184214e+01
1.340000e-06	-2.283706e-06	-5.798313e-10	-1.586293e+01	-4.145592e+01
1.350000e-06	-2.240438e-06	-5.750174e-10	-1.556238e+01	-4.106441e+01
1.360000e-06	-2.197012e-06	-5.706443e-10	-1.526074e+01	-4.066753e+01
1.370000e-06	-2.153436e-06	-5.657191e-10	-1.495806e+01	-4.026520e+01
1.380000e-06	-2.109747e-06	-5.588749e-10	-1.465459e+01	-3.985731e+01
1.390000e-06	-2.066050e-06	-5.488785e-10	-1.435106e+01	-3.944375e+01
1.400000e-06	-2.022303e-06	-5.388488e-10	-1.404718e+01	-3.902437e+01
1.410000e-06	-1.978446e-06	-5.304011e-10	-1.374255e+01	-3.859903e+01
1.420000e-06	-1.934488e-06	-5.263600e-10	-1.343722e+01	-3.816755e+01
1.430000e-06	-1.890407e-06	-5.232064e-10	-1.313102e+01	-3.772976e+01
1.440000e-06	-1.846226e-06	-5.207281e-10	-1.282414e+01	-3.728545e+01
1.450000e-06	-1.801995e-06	-5.168597e-10	-1.251690e+01	-3.683439e+01
1.460000e-06	-1.757645e-06	-5.099344e-10	-1.220884e+01	-3.637634e+01
1.470000e-06	-1.713085e-06	-5.032588e-10	-1.189932e+01	-3.591106e+01
1.480000e-06	-1.668395e-06	-4.960046e-10	-1.158890e+01	-3.543826e+01
1.490000e-06	-1.623580e-06	-4.882462e-10	-1.127760e+01	-3.495767e+01
1.500000e-06	-1.578637e-06	-4.814936e-10	-1.096542e+01	-3.446897e+01
1.510000e-06	-1.533529e-06	-4.752373e-10	-1.065210e+01	-3.397186e+01
1.520000e-06	-1.488291e-06	-4.703002e-10	-1.033787e+01	-3.346600e+01
1.530000e-06	-1.442984e-06	-4.639386e-10	-1.002316e+01	-3.295105e+01
1.540000e-06	-1.397617e-06	-4.584881e-10	-9.708038e+00	-3.242666e+01
1.550000e-06	-1.352230e-06	-4.497617e-10	-9.392774e+00	-3.189249e+01
1.560000e-06	-1.306709e-06	-4.406501e-10	-9.076576e+00	-3.134816e+01
1.570000e-06	-1.261037e-06	-4.320449e-10	-8.759335e+00	-3.079331e+01
1.580000e-06	-1.215303e-06	-4.233868e-10	-8.441654e+00	-3.022757e+01
1.590000e-06	-1.169593e-06	-4.152702e-10	-8.124150e+00	-2.965057e+01
1.600000e-06	-1.123783e-06	-4.106140e-10	-7.805950e+00	-2.906195e+01
1.610000e-06	-1.077832e-06	-4.042634e-10	-7.486762e+00	-2.846135e+01
1.620000e-06	-1.031871e-06	-3.939150e-10	-7.167516e+00	-2.784841e+01
1.630000e-06	-9.857871e-07	-3.814555e-10	-6.847410e+00	-2.722280e+01
1.640000e-06	-9.395048e-07	-3.688309e-10	-6.525927e+00	-2.658418e+01
1.650000e-06	-8.931269e-07	-3.593734e-10	-6.203779e+00	-2.593223e+01
1.660000e-06	-8.466966e-07	-3.507771e-10	-5.881268e+00	-2.526667e+01
1.670000e-06	-8.002393e-07	-3.436930e-10	-5.558569e+00	-2.458719e+01
1.680000e-06	-7.537820e-07	-3.360584e-10	-5.235871e+00	-2.389356e+01
1.690000e-06	-7.072596e-07	-3.276100e-10	-4.912720e+00	-2.318554e+01
1.700000e-06	-6.606814e-07	-3.150699e-10	-4.589182e+00	-2.246292e+01
1.710000e-06	-6.140985e-07	-3.002586e-10	-4.265611e+00	-2.172552e+01
1.720000e-06	-5.674584e-07	-2.855908e-10	-3.941643e+00	-2.097320e+01
1.730000e-06	-5.207611e-07	-2.723015e-10	-3.617277e+00	-2.020584e+01
1.740000e-06	-4.740442e-07	-2.600107e-10	-3.292775e+00	-1.942336e+01
1.750000e-06	-4.272679e-07	-2.488349e-10	-2.967860e+00	-1.862571e+01
1.760000e-06	-3.804443e-07	-2.401498e-10	-2.642618e+00	-1.781290e+01
1.770000e-06	-3.335546e-07	-2.302150e-10	-2.316915e+00	-1.698494e+01
1.780000e-06	-2.866973e-07	-2.164512e-10	-1.991438e+00	-1.614192e+01
1.790000e-06	-2.399148e-07	-2.021055e-10	-1.666481e+00	-1.528393e+01
1.800000e-06	-1.929841e-07	-1.871191e-10	-1.340494e+00	-1.441115e+01
1.810000e-06	-1.459800e-07	-1.728229e-10	-1.013997e+00	-1.352376e+01
1.820000e-06	-9.903453e-08	-1.584227e-10	-6.879071e-01	-1.262200e+01
1.830000e-06	-5.208648e-08	-1.456938e-10	-3.617997e-01	-1.170614e+01
1.840000e-06	-5.207608e-09	-1.341902e-10	-3.617274e-02	-1.077652e+01
1.850000e-06	4.163226e-08	-1.228124e-10	2.891833e-01	-9.833501e+00
1.860000e-06	8.847325e-08	-1.100804e-10	6.145471e-01	-8.877482e+00
1.870000e-06	1.353747e-07	-9.341850e-11	9.403306e-01	-7.908912e+00
1.880000e-06	1.823209e-07	-7.675470e-11	1.266425e+00	-6.928281e+00
1.890000e-06	2.291527e-07	-6.231911e-11	1.591725e+00	-5.936113e+00
1.900000e-06	2.759246e-07	-4.993870e-11	1.916610e+00	-4.932973e+00
1.910000e-06	3.226984e-07	-3.929104e-11	2.241507e+00	-3.919461e+00
1.920000e-06	3.695327e-07	-2.638564e-11	2.566824e+00	-2.896213e+00
1.930000e-06	4.163518e-07	-1.131333e-11	2.892036e+00	-1.863896e+00
1.940000e-06	4.630611e-07	4.431657e-12	3.216485e+00	-8.232093e-01
1.950000e-06	5.097172e-07	2.130461e-11	3.540564e+00	2.251188e-01
1.960000e-06	5.563149e-07	3.668393e-11	3.864238e+00	1.280334e+00
1.970000e-06	6.027959e-07	5.017364e-11	4.187101e+00	2.341656e+00
1.980000e-06	6.492456e-07	6.429039e-11	4.509747e+00	3.408285e+00
1.990000e-06	6.957391e-07	7.820467e-11	4.832697e+00	4.479399e+00
2.000000e-06	7.422167e-07	9.164569e-11	5.155537e+00	5.554161e+00
2.010000e-06	7.887042e-07	1.073212e-10	5.478445e+00	6.631719e+00
2.020000e-06	8.350632e-07	1.246578e-10	5.800461e+00	7.711210e+00
2.030000e-06	8.812122e-07	1.432619e-10	6.121018e+00	8.791760e+00
2.040000e-06	9.272802e-07	1.620023e-10	6.441013e+00	9.872493e+00
2.050000e-06	9.733503e-07	1.789281e-10	6.761022e+00	1.095253e+01
2.060000e-06	1.019352e-06	1.919784e-10	7.080553e+00	1.203098e+01
2.070000e-06	1.065272e-06	2.030924e-10	7.399525e+00	1.310697e+01
2.080000e-06	1.111142e-06	2.150197e-10	7.718143e+00	1.417963e+01
2.090000e-06	1.156840e-06	2.299309e-10	8.035568e+00	1.524810e+01
2.100000e-06	1.202476e-06	2.475183e-10	8.352560e+00	1.631151e+01
2.110000e-06	1.248089e-06	2.662268e-10	8.669395e+00	1.736903e+01
2.120000e-06	1.293640e-06	2.837426e-10	8.985801e+00	1.841982e+01
2.130000e-06	1.339135e-06	2.989892e-10	9.301811e+00	1.946310e+01
2.140000e-06	1.384511e-06	3.119926e-10	9.616997e+00	2.049806e+01
2.150000e-06	1.429888e-06	3.225103e-10	9.932197e+00	2.152396e+01
2.160000e-06	1.475162e-06	3.326735e-10	1.024667e+01	2.254004e+01
2.170000e-06	1.520250e-06	3.460379e-10	1.055986e+01	2.354561e+01
2.180000e-06	1.565215e-06	3.610393e-10	1.087219e+01	2.453998e+01
2.190000e-06	1.610057e-06	3.748545e-10	1.118367e+01	2.552252e+01
2.200000e-06	1.654772e-06	3.887350e-10	1.149427e+01	2.649259e+01
2.210000e-06	1.699324e-06	4.021531e-10	1.180373e+01	2.744963e+01
2.220000e-06	1.743793e-06	4.131301e-10	1.211262e+01	2.839310e+01
2.230000e-06	1.788106e-06	4.231929e-10	1.242043e+01	2.932248e+01
2.240000e-06	1.832225e-06	4.345847e-10	1.272688e+01	3.023730e+01
2.250000e-06	1.876298e-06	4.473276e-10	1.303302e+01	3.113715e+01
2.260000e-06	1.920280e-06	4.623037e-10	1.333852e+01	3.202164e+01
2.270000e-06	1.964110e-06	4.768902e-10	1.364297e+01	3.289041e+01
2.280000e-06	2.007859e-06	4.892833e-10	1.394686e+01	3.374316e+01
2.290000e-06	2.051541e-06	5.004681e-10	1.425028e+01	3.457963e+01
2.300000e-06	2.095185e-06	5.101414e-10	1.455344e+01	3.539959e+01
2.310000e-06	2.138762e-06	5.189331e-10	1.485613e+01	3.620287e+01
2.320000e-06	2.182243e-06	5.282961e-10	1.515815e+01	3.698932e+01
2.330000e-06	2.225655e-06	5.407398e-10	1.545970e+01	3.775885e+01
2.340000e-06	2.268966e-06	5.553639e-10	1.576054e+01	3.851138e+01
2.350000e-06	2.312059e-06	5.680678e-10	1.605987e+01	3.924691e+01
2.360000e-06	2.354903e-06	5.778968e-10	1.635747e+01	3.996544e+01
2.370000e-06	2.397585e-06	5.847741e-10	1.665395e+01	4.066704e+01
2.380000e-06	2.439999e-06	5.904793e-10	1.694856e+01	4.135179e+01
2.390000e-06	2.482036e-06	5.975705e-10	1.724056e+01	4.201982e+01
2.400000e-06	2.523702e-06	6.062986e-10	1.752997e+01	4.267129e+01
2.410000e-06	2.565144e-06	6.160371e-10	1.781784e+01	4.330638e+01
2.420000e-06	2.606505e-06	6.277213e-10	1.810514e+01	4.392531e+01
2.430000e-06	2.647483e-06	6.398885e-10	1.838977e+01	4.452833e+01
2.440000e-06	2.688052e-06	6.494307e-10	1.867157e+01	4.511571e+01
2.450000e-06	2.728518e-06	6.568350e-10	1.895265e+01	4.568775e+01
2.460000e-06	2.768753e-06	6.633983e-10	1.923213e+01	4.624475e+01
2.470000e-06	2.808698e-06	6.692552e-10	1.950959e+01	4.678707e+01
2.480000e-06	2.848508e-06	6.745339e-10	1.978612e+01	4.731504e+01
2.490000e-06	2.888148e-06	6.810071e-10	2.006146e+01	4.782903e+01
2.500000e-06	2.927616e-06	6.895695e-10	2.033562e+01	4.832943e+01
2.510000e-06	2.967007e-06	6.996544e-10	2.060923e+01	4.881662e+01
2.520000e-06	3.006284e-06	7.109861e-10	2.088205e+01	4.929100e+01
2.530000e-06	3.045352e-06	7.218760e-10	2.115342e+01	4.975297e+01
2.540000e-06	3.084232e-06	7.301393e-10	2.142349e+01	5.020294e+01
2.550000e-06	3.122936e-06	7.361961e-10	2.169233e+01	5.064130e+01
2.560000e-06	3.161340e-06	7.413224e-10	2.195909e+01	5.106847e+01
2.570000e-06	3.199493e-06	7.462832e-10	2.222411e+01	5.148485e+01
2.580000e-06	3.237515e-06	7.535091e-10	2.248822e+01	5.189081e+01
2.590000e-06	3.275340e-06	7.632441e-10	2.275095e+01	5.228676e+01
2.600000e-06	3.312919e-06	7.722733e-10	2.301198e+01	5.267306e+01
2.610000e-06	3.350256e-06	7.797524e-10	2.327133e+01	5.305009e+01
2.620000e-06	3.387325e-06	7.865399e-10	2.352881e+01	5.341818e+01
2.630000e-06	3.424127e-06	7.911591e-10	2.378444e+01	5.377767e+01
2.640000e-06	3.460671e-06	7.931509e-10	2.403829e+01	5.412889e+01
2.650000e-06	3.497032e-06	7.970311e-10	2.429085e+01	5.447214e+01
2.660000e-06	3.533191e-06	8.032482e-10	2.454202e+01	5.480769e+01
2.670000e-06	3.569090e-06	8.083734e-10	2.479138e+01	5.513581e+01
2.680000e-06	3.604858e-06	8.127269e-10	2.503982e+01	5.545675e+01
2.690000e-06	3.640461e-06	8.173267e-10	2.528713e+01	5.577072e+01
2.700000e-06	3.675874e-06	8.223458e-10	2.553312e+01	5.607793e+01
2.710000e-06	3.711125e-06	8.272612e-10	2.577797e+01	5.637855e+01
2.720000e-06	3.746101e-06	8.317823e-10	2.602092e+01	5.667275e+01
2.730000e-06	3.780793e-06	8.342868e-10	2.626190e+01	5.696065e+01
2.740000e-06	3.815159e-06	8.355912e-10	2.650061e+01	5.724239e+01
2.750000e-06	3.849029e-06	8.381318e-10	2.673588e+01	5.751804e+01
2.760000e-06	3.882516e-06	8.424634e-10	2.696848e+01	5.778769e+01
2.770000e-06	3.915578e-06	8.483778e-10	2.719813e+01	5.805139e+01
2.780000e-06	3.948147e-06	8.545551e-10	2.742436e+01	5.830917e+01
2.790000e-06	3.980339e-06	8.601103e-10	2.764797e+01	5.856108e+01
2.800000e-06	4.012257e-06	8.631700e-10	2.786967e+01	5.880710e+01
2.810000e-06	4.044021e-06	8.625217e-10	2.809031e+01	5.904722e+01
2.820000e-06	4.075599e-06	8.604869e-10	2.830966e+01	5.928144e+01
2.830000e-06	4.106994e-06	8.608698e-10	2.852773e+01	5.950972e+01
2.840000e-06	4.138196e-06	8.639003e-10	2.874447e+01	5.973201e+01
2.850000e-06	4.169182e-06	8.674630e-10	2.895970e+01	5.994827e+01
2.860000e-06	4.199813e-06	8.727350e-10	2.917247e+01	6.015844e+01
2.870000e-06	4.230055e-06	8.788948e-10	2.938253e+01	6.036246e+01
2.880000e-06	4.260023e-06	8.810517e-10	2.959069e+01	6.056028e+01
2.890000e-06	4.289750e-06	8.787292e-10	2.979718e+01	6.075183e+01
2.900000e-06	4.319233e-06	8.750316e-10	3.000197e+01	6.093706e+01
