# Temperatura_=_10.44
# Concentracion g/m^3_=_1620.0
# C_Vs_to_Am_M_A/Vsm_=_65563218390.804596
# pendiente_HvsI_1/m_=_3716.3
# ordenada_HvsI_A/m_=_1297.0
# frecuencia_Hz_=_135113.0804960094

Tiempo_(s)	Campo_(V.s)	Magnetizacion_(V.s)	Campo_(kA/m)	Magnetizacion_(A/m)
0.000000e+00	-5.523757e-06	-1.175755e-09	-3.836098e+01	-7.856102e+01
1.000000e-08	-5.524064e-06	-1.169709e-09	-3.836311e+01	-7.849794e+01
2.000000e-08	-5.524063e-06	-1.164007e-09	-3.836311e+01	-7.843534e+01
3.000000e-08	-5.523663e-06	-1.160875e-09	-3.836032e+01	-7.837344e+01
4.000000e-08	-5.522768e-06	-1.160178e-09	-3.835411e+01	-7.831242e+01
5.000000e-08	-5.521342e-06	-1.160167e-09	-3.834420e+01	-7.825244e+01
6.000000e-08	-5.519373e-06	-1.157293e-09	-3.833053e+01	-7.819361e+01
7.000000e-08	-5.516818e-06	-1.155086e-09	-3.831279e+01	-7.813602e+01
8.000000e-08	-5.513771e-06	-1.175126e-09	-3.829163e+01	-7.807971e+01
9.000000e-08	-5.510350e-06	-1.205316e-09	-3.826787e+01	-7.802471e+01
1.000000e-07	-5.506441e-06	-1.184489e-09	-3.824073e+01	-7.797099e+01
1.100000e-07	-5.502150e-06	-1.115727e-09	-3.821092e+01	-7.791850e+01
1.200000e-07	-5.497787e-06	-1.133425e-09	-3.818062e+01	-7.786715e+01
1.300000e-07	-5.493182e-06	-1.197962e-09	-3.814864e+01	-7.781682e+01
1.400000e-07	-5.487998e-06	-1.219351e-09	-3.811264e+01	-7.776735e+01
1.500000e-07	-5.482381e-06	-1.135400e-09	-3.807363e+01	-7.771857e+01
1.600000e-07	-5.476522e-06	-1.128786e-09	-3.803294e+01	-7.767026e+01
1.700000e-07	-5.470276e-06	-1.176378e-09	-3.798957e+01	-7.762218e+01
1.800000e-07	-5.463487e-06	-1.184294e-09	-3.794242e+01	-7.757407e+01
1.900000e-07	-5.456272e-06	-1.111298e-09	-3.789231e+01	-7.752564e+01
2.000000e-07	-5.448843e-06	-1.126499e-09	-3.784072e+01	-7.747659e+01
2.100000e-07	-5.441208e-06	-1.210671e-09	-3.778770e+01	-7.742660e+01
2.200000e-07	-5.433292e-06	-1.243092e-09	-3.773272e+01	-7.737533e+01
2.300000e-07	-5.425120e-06	-1.185553e-09	-3.767597e+01	-7.732244e+01
2.400000e-07	-5.416565e-06	-1.152278e-09	-3.761656e+01	-7.726756e+01
2.500000e-07	-5.407221e-06	-1.187977e-09	-3.755167e+01	-7.721034e+01
2.600000e-07	-5.397137e-06	-1.208217e-09	-3.748163e+01	-7.715042e+01
2.700000e-07	-5.386577e-06	-1.204522e-09	-3.740830e+01	-7.708743e+01
2.800000e-07	-5.375567e-06	-1.191046e-09	-3.733184e+01	-7.702102e+01
2.900000e-07	-5.364085e-06	-1.212029e-09	-3.725210e+01	-7.695084e+01
3.000000e-07	-5.352232e-06	-1.203023e-09	-3.716978e+01	-7.687653e+01
3.100000e-07	-5.340059e-06	-1.191641e-09	-3.708524e+01	-7.679778e+01
3.200000e-07	-5.327378e-06	-1.164942e-09	-3.699718e+01	-7.671427e+01
3.300000e-07	-5.314237e-06	-1.190031e-09	-3.690592e+01	-7.662570e+01
3.400000e-07	-5.300780e-06	-1.189167e-09	-3.681246e+01	-7.653180e+01
3.500000e-07	-5.286973e-06	-1.179956e-09	-3.671658e+01	-7.643230e+01
3.600000e-07	-5.272608e-06	-1.165827e-09	-3.661682e+01	-7.632697e+01
3.700000e-07	-5.257715e-06	-1.205493e-09	-3.651339e+01	-7.621561e+01
3.800000e-07	-5.242351e-06	-1.180739e-09	-3.640669e+01	-7.609804e+01
3.900000e-07	-5.226397e-06	-1.146799e-09	-3.629589e+01	-7.597409e+01
4.000000e-07	-5.210040e-06	-1.160904e-09	-3.618230e+01	-7.584365e+01
4.100000e-07	-5.193456e-06	-1.192893e-09	-3.606713e+01	-7.570661e+01
4.200000e-07	-5.176444e-06	-1.140185e-09	-3.594899e+01	-7.556292e+01
4.300000e-07	-5.159039e-06	-1.129482e-09	-3.582811e+01	-7.541252e+01
4.400000e-07	-5.141416e-06	-1.188258e-09	-3.570572e+01	-7.525542e+01
4.500000e-07	-5.123457e-06	-1.169741e-09	-3.558100e+01	-7.509164e+01
4.600000e-07	-5.105023e-06	-1.105508e-09	-3.545299e+01	-7.492122e+01
4.700000e-07	-5.086151e-06	-1.141631e-09	-3.532192e+01	-7.474424e+01
4.800000e-07	-5.066954e-06	-1.175935e-09	-3.518861e+01	-7.456080e+01
4.900000e-07	-5.047504e-06	-1.110774e-09	-3.505353e+01	-7.437104e+01
5.000000e-07	-5.027873e-06	-1.109299e-09	-3.491720e+01	-7.417511e+01
5.100000e-07	-5.008028e-06	-1.158672e-09	-3.477938e+01	-7.397318e+01
5.200000e-07	-4.987898e-06	-1.124011e-09	-3.463959e+01	-7.376544e+01
5.300000e-07	-4.967434e-06	-1.089218e-09	-3.449747e+01	-7.355212e+01
5.400000e-07	-4.946597e-06	-1.145333e-09	-3.435276e+01	-7.333344e+01
5.500000e-07	-4.925321e-06	-1.129878e-09	-3.420501e+01	-7.310965e+01
5.600000e-07	-4.903674e-06	-1.078800e-09	-3.405467e+01	-7.288100e+01
5.700000e-07	-4.881784e-06	-1.114648e-09	-3.390265e+01	-7.264776e+01
5.800000e-07	-4.859580e-06	-1.144169e-09	-3.374845e+01	-7.241020e+01
5.900000e-07	-4.837003e-06	-1.083369e-09	-3.359166e+01	-7.216861e+01
6.000000e-07	-4.813963e-06	-1.089997e-09	-3.343166e+01	-7.192326e+01
6.100000e-07	-4.790599e-06	-1.128655e-09	-3.326940e+01	-7.167444e+01
6.200000e-07	-4.767103e-06	-1.099015e-09	-3.310623e+01	-7.142241e+01
6.300000e-07	-4.743431e-06	-1.073803e-09	-3.294183e+01	-7.116747e+01
6.400000e-07	-4.719557e-06	-1.109890e-09	-3.277603e+01	-7.090986e+01
6.500000e-07	-4.695296e-06	-1.092075e-09	-3.260754e+01	-7.064986e+01
6.600000e-07	-4.670499e-06	-1.063805e-09	-3.243534e+01	-7.038770e+01
6.700000e-07	-4.645194e-06	-1.083854e-09	-3.225960e+01	-7.012362e+01
6.800000e-07	-4.619397e-06	-1.088447e-09	-3.208045e+01	-6.985784e+01
6.900000e-07	-4.593068e-06	-1.058137e-09	-3.189760e+01	-6.959055e+01
7.000000e-07	-4.566232e-06	-1.069006e-09	-3.171123e+01	-6.932195e+01
7.100000e-07	-4.539039e-06	-1.079003e-09	-3.152238e+01	-6.905220e+01
7.200000e-07	-4.511612e-06	-1.056932e-09	-3.133191e+01	-6.878143e+01
7.300000e-07	-4.483972e-06	-1.051337e-09	-3.113995e+01	-6.850978e+01
7.400000e-07	-4.456133e-06	-1.058739e-09	-3.094662e+01	-6.823733e+01
7.500000e-07	-4.428041e-06	-1.037748e-09	-3.075153e+01	-6.796417e+01
7.600000e-07	-4.399732e-06	-1.028768e-09	-3.055493e+01	-6.769035e+01
7.700000e-07	-4.371143e-06	-1.042454e-09	-3.035639e+01	-6.741590e+01
7.800000e-07	-4.342167e-06	-1.033858e-09	-3.015516e+01	-6.714083e+01
7.900000e-07	-4.312839e-06	-1.021834e-09	-2.995148e+01	-6.686511e+01
8.000000e-07	-4.283253e-06	-1.026750e-09	-2.974602e+01	-6.658871e+01
8.100000e-07	-4.253456e-06	-1.018715e-09	-2.953908e+01	-6.631156e+01
8.200000e-07	-4.223339e-06	-9.956994e-10	-2.932993e+01	-6.603358e+01
8.300000e-07	-4.192882e-06	-9.970401e-10	-2.911842e+01	-6.575467e+01
8.400000e-07	-4.162101e-06	-9.962078e-10	-2.890465e+01	-6.547470e+01
8.500000e-07	-4.131047e-06	-9.846632e-10	-2.868899e+01	-6.519352e+01
8.600000e-07	-4.099760e-06	-9.859812e-10	-2.847171e+01	-6.491098e+01
8.700000e-07	-4.068291e-06	-9.969995e-10	-2.825317e+01	-6.462690e+01
8.800000e-07	-4.036682e-06	-9.864856e-10	-2.803365e+01	-6.434108e+01
8.900000e-07	-4.004895e-06	-9.798033e-10	-2.781290e+01	-6.405334e+01
9.000000e-07	-3.972867e-06	-9.783636e-10	-2.759047e+01	-6.376344e+01
9.100000e-07	-3.940524e-06	-9.665540e-10	-2.736586e+01	-6.347118e+01
9.200000e-07	-3.907769e-06	-9.519362e-10	-2.713838e+01	-6.317632e+01
9.300000e-07	-3.874571e-06	-9.560978e-10	-2.690784e+01	-6.287863e+01
9.400000e-07	-3.840989e-06	-9.525603e-10	-2.667462e+01	-6.257787e+01
9.500000e-07	-3.806931e-06	-9.411497e-10	-2.643809e+01	-6.227380e+01
9.600000e-07	-3.772321e-06	-9.392662e-10	-2.619773e+01	-6.196619e+01
9.700000e-07	-3.737344e-06	-9.392289e-10	-2.595483e+01	-6.165480e+01
9.800000e-07	-3.702189e-06	-9.251407e-10	-2.571069e+01	-6.133940e+01
9.900000e-07	-3.666852e-06	-9.167273e-10	-2.546528e+01	-6.101976e+01
1.000000e-06	-3.631326e-06	-9.154975e-10	-2.521856e+01	-6.069568e+01
1.010000e-06	-3.595673e-06	-9.093948e-10	-2.497096e+01	-6.036694e+01
1.020000e-06	-3.559901e-06	-9.027346e-10	-2.472254e+01	-6.003335e+01
1.030000e-06	-3.523951e-06	-9.042738e-10	-2.447287e+01	-5.969472e+01
1.040000e-06	-3.487744e-06	-8.988556e-10	-2.422143e+01	-5.935090e+01
1.050000e-06	-3.451282e-06	-8.901394e-10	-2.396821e+01	-5.900172e+01
1.060000e-06	-3.414554e-06	-8.860150e-10	-2.371314e+01	-5.864704e+01
1.070000e-06	-3.377512e-06	-8.790451e-10	-2.345589e+01	-5.828675e+01
1.080000e-06	-3.340262e-06	-8.658253e-10	-2.319721e+01	-5.792074e+01
1.090000e-06	-3.302835e-06	-8.568512e-10	-2.293729e+01	-5.754893e+01
1.100000e-06	-3.265128e-06	-8.535643e-10	-2.267542e+01	-5.717124e+01
1.110000e-06	-3.227185e-06	-8.431180e-10	-2.241192e+01	-5.678763e+01
1.120000e-06	-3.189096e-06	-8.339683e-10	-2.214740e+01	-5.639806e+01
1.130000e-06	-3.150804e-06	-8.291622e-10	-2.188147e+01	-5.600253e+01
1.140000e-06	-3.112240e-06	-8.222827e-10	-2.161365e+01	-5.560103e+01
1.150000e-06	-3.073410e-06	-8.132416e-10	-2.134399e+01	-5.519359e+01
1.160000e-06	-3.034347e-06	-8.095614e-10	-2.107271e+01	-5.478023e+01
1.170000e-06	-2.995100e-06	-8.029057e-10	-2.080015e+01	-5.436101e+01
1.180000e-06	-2.955714e-06	-7.953157e-10	-2.052662e+01	-5.393600e+01
1.190000e-06	-2.916214e-06	-7.894729e-10	-2.025231e+01	-5.350527e+01
1.200000e-06	-2.876592e-06	-7.858764e-10	-1.997714e+01	-5.306890e+01
1.210000e-06	-2.836835e-06	-7.766080e-10	-1.970104e+01	-5.262700e+01
1.220000e-06	-2.796960e-06	-7.697074e-10	-1.942412e+01	-5.217965e+01
1.230000e-06	-2.756986e-06	-7.631769e-10	-1.914651e+01	-5.172698e+01
1.240000e-06	-2.716795e-06	-7.516797e-10	-1.886740e+01	-5.126909e+01
1.250000e-06	-2.676321e-06	-7.399101e-10	-1.858632e+01	-5.080609e+01
1.260000e-06	-2.635661e-06	-7.344251e-10	-1.830394e+01	-5.033809e+01
1.270000e-06	-2.594802e-06	-7.290247e-10	-1.802019e+01	-4.986520e+01
1.280000e-06	-2.553580e-06	-7.237679e-10	-1.773391e+01	-4.938751e+01
1.290000e-06	-2.511905e-06	-7.194046e-10	-1.744449e+01	-4.890512e+01
1.300000e-06	-2.469972e-06	-7.146892e-10	-1.715328e+01	-4.841810e+01
1.310000e-06	-2.427811e-06	-7.049246e-10	-1.686048e+01	-4.792652e+01
1.320000e-06	-2.385293e-06	-6.927039e-10	-1.656520e+01	-4.743044e+01
1.330000e-06	-2.342397e-06	-6.811177e-10	-1.626730e+01	-4.692988e+01
1.340000e-06	-2.299266e-06	-6.705342e-10	-1.596777e+01	-4.642486e+01
1.350000e-06	-2.256024e-06	-6.642965e-10	-1.566747e+01	-4.591536e+01
1.360000e-06	-2.212606e-06	-6.608023e-10	-1.536594e+01	-4.540136e+01
1.370000e-06	-2.169073e-06	-6.562054e-10	-1.506362e+01	-4.488278e+01
1.380000e-06	-2.125508e-06	-6.499925e-10	-1.476107e+01	-4.435955e+01
1.390000e-06	-2.081893e-06	-6.406355e-10	-1.445818e+01	-4.383154e+01
1.400000e-06	-2.038145e-06	-6.261593e-10	-1.415436e+01	-4.329861e+01
1.410000e-06	-1.994321e-06	-6.110700e-10	-1.385001e+01	-4.276057e+01
1.420000e-06	-1.950462e-06	-5.985549e-10	-1.354543e+01	-4.221721e+01
1.430000e-06	-1.906543e-06	-5.902453e-10	-1.324042e+01	-4.166829e+01
1.440000e-06	-1.862527e-06	-5.822766e-10	-1.293474e+01	-4.111352e+01
1.450000e-06	-1.818336e-06	-5.761412e-10	-1.262784e+01	-4.055260e+01
1.460000e-06	-1.774001e-06	-5.709607e-10	-1.231995e+01	-3.998516e+01
1.470000e-06	-1.729505e-06	-5.631976e-10	-1.201094e+01	-3.941084e+01
1.480000e-06	-1.684907e-06	-5.525338e-10	-1.170122e+01	-3.882923e+01
1.490000e-06	-1.640131e-06	-5.406949e-10	-1.139026e+01	-3.823987e+01
1.500000e-06	-1.595138e-06	-5.295094e-10	-1.107780e+01	-3.764230e+01
1.510000e-06	-1.550026e-06	-5.205842e-10	-1.076450e+01	-3.703602e+01
1.520000e-06	-1.504732e-06	-5.114702e-10	-1.044995e+01	-3.642050e+01
1.530000e-06	-1.459372e-06	-5.020683e-10	-1.013494e+01	-3.579519e+01
1.540000e-06	-1.414013e-06	-4.929613e-10	-9.819934e+00	-3.515953e+01
1.550000e-06	-1.368553e-06	-4.826459e-10	-9.504228e+00	-3.451293e+01
1.560000e-06	-1.323008e-06	-4.693383e-10	-9.187931e+00	-3.385479e+01
1.570000e-06	-1.277339e-06	-4.557315e-10	-8.870766e+00	-3.318449e+01
1.580000e-06	-1.231545e-06	-4.417366e-10	-8.552745e+00	-3.250142e+01
1.590000e-06	-1.185737e-06	-4.259824e-10	-8.234618e+00	-3.180496e+01
1.600000e-06	-1.139888e-06	-4.104542e-10	-7.916207e+00	-3.109448e+01
1.610000e-06	-1.093985e-06	-3.980913e-10	-7.597426e+00	-3.036937e+01
1.620000e-06	-1.047934e-06	-3.858650e-10	-7.277613e+00	-2.962902e+01
1.630000e-06	-1.001782e-06	-3.726922e-10	-6.957103e+00	-2.887284e+01
1.640000e-06	-9.556075e-07	-3.597761e-10	-6.636432e+00	-2.810025e+01
1.650000e-06	-9.093233e-07	-3.480535e-10	-6.315001e+00	-2.731071e+01
1.660000e-06	-8.630067e-07	-3.367476e-10	-5.993345e+00	-2.650369e+01
1.670000e-06	-8.165989e-07	-3.243595e-10	-5.671056e+00	-2.567871e+01
1.680000e-06	-7.700652e-07	-3.112182e-10	-5.347892e+00	-2.483530e+01
1.690000e-06	-7.235760e-07	-2.971983e-10	-5.025037e+00	-2.397306e+01
1.700000e-06	-6.770513e-07	-2.815989e-10	-4.701936e+00	-2.309163e+01
1.710000e-06	-6.304525e-07	-2.665877e-10	-4.378320e+00	-2.219069e+01
1.720000e-06	-5.838296e-07	-2.521384e-10	-4.054537e+00	-2.126997e+01
1.730000e-06	-5.371128e-07	-2.395340e-10	-3.730101e+00	-2.032929e+01
1.740000e-06	-4.903333e-07	-2.267400e-10	-3.405230e+00	-1.936850e+01
1.750000e-06	-4.435463e-07	-2.101452e-10	-3.080307e+00	-1.838752e+01
1.760000e-06	-3.967763e-07	-1.927087e-10	-2.755503e+00	-1.738636e+01
1.770000e-06	-3.499130e-07	-1.760551e-10	-2.430050e+00	-1.636507e+01
1.780000e-06	-3.029079e-07	-1.597771e-10	-2.103612e+00	-1.532379e+01
1.790000e-06	-2.559575e-07	-1.441198e-10	-1.777554e+00	-1.426273e+01
1.800000e-06	-2.090709e-07	-1.302229e-10	-1.451940e+00	-1.318219e+01
1.810000e-06	-1.621729e-07	-1.173282e-10	-1.126247e+00	-1.208253e+01
1.820000e-06	-1.152658e-07	-1.029655e-10	-8.004894e-01	-1.096419e+01
1.830000e-06	-6.833113e-08	-8.582178e-11	-4.745410e-01	-9.827690e+00
1.840000e-06	-2.139862e-08	-6.697315e-11	-1.486076e-01	-8.673631e+00
1.850000e-06	2.555892e-08	-4.732691e-11	1.774997e-01	-7.502687e+00
1.860000e-06	7.252583e-08	-3.046466e-11	5.036720e-01	-6.315604e+00
1.870000e-06	1.194104e-07	-1.246769e-11	8.292722e-01	-5.113205e+00
1.880000e-06	1.662540e-07	4.984522e-12	1.154589e+00	-3.896381e+00
1.890000e-06	2.131863e-07	2.025269e-11	1.480520e+00	-2.666092e+00
1.900000e-06	2.601466e-07	3.590202e-11	1.806647e+00	-1.423359e+00
1.910000e-06	3.069348e-07	5.260203e-11	2.131578e+00	-1.692674e-01
1.920000e-06	3.536436e-07	7.018885e-11	2.455958e+00	1.095044e+00
1.930000e-06	4.004299e-07	8.900342e-11	2.780876e+00	2.368385e+00
1.940000e-06	4.472403e-07	1.087678e-10	3.105961e+00	3.649517e+00
1.950000e-06	4.939570e-07	1.285601e-10	3.430396e+00	4.937163e+00
1.960000e-06	5.405499e-07	1.473663e-10	3.753970e+00	6.230008e+00
1.970000e-06	5.870369e-07	1.642292e-10	4.076810e+00	7.526709e+00
1.980000e-06	6.335045e-07	1.805775e-10	4.399515e+00	8.825898e+00
1.990000e-06	6.799465e-07	1.964509e-10	4.722042e+00	1.012619e+01
2.000000e-06	7.263230e-07	2.117858e-10	5.044114e+00	1.142620e+01
2.010000e-06	7.727239e-07	2.296762e-10	5.366356e+00	1.272451e+01
2.020000e-06	8.190772e-07	2.486559e-10	5.688266e+00	1.401975e+01
2.030000e-06	8.654100e-07	2.700367e-10	6.010035e+00	1.531051e+01
2.040000e-06	9.116676e-07	2.921871e-10	6.331281e+00	1.659543e+01
2.050000e-06	9.577681e-07	3.103914e-10	6.651437e+00	1.787316e+01
2.060000e-06	1.003769e-06	3.270206e-10	6.970900e+00	1.914238e+01
2.070000e-06	1.049742e-06	3.429689e-10	7.290169e+00	2.040180e+01
2.080000e-06	1.095721e-06	3.594336e-10	7.609479e+00	2.165019e+01
2.090000e-06	1.141639e-06	3.773717e-10	7.928370e+00	2.288635e+01
2.100000e-06	1.187453e-06	3.983081e-10	8.246533e+00	2.410913e+01
2.110000e-06	1.233103e-06	4.175188e-10	8.563566e+00	2.531745e+01
2.120000e-06	1.278631e-06	4.345196e-10	8.879739e+00	2.651028e+01
2.130000e-06	1.324143e-06	4.502892e-10	9.195808e+00	2.768667e+01
2.140000e-06	1.369614e-06	4.650631e-10	9.511593e+00	2.884572e+01
2.150000e-06	1.415018e-06	4.782519e-10	9.826912e+00	2.998663e+01
2.160000e-06	1.460290e-06	4.920235e-10	1.014131e+01	3.110865e+01
2.170000e-06	1.505400e-06	5.084104e-10	1.045459e+01	3.221112e+01
2.180000e-06	1.550435e-06	5.258542e-10	1.076735e+01	3.329348e+01
2.190000e-06	1.595351e-06	5.437914e-10	1.107928e+01	3.435522e+01
2.200000e-06	1.640151e-06	5.606025e-10	1.139040e+01	3.539593e+01
2.210000e-06	1.684824e-06	5.736578e-10	1.170064e+01	3.641527e+01
2.220000e-06	1.729274e-06	5.832504e-10	1.200934e+01	3.741301e+01
2.230000e-06	1.773537e-06	5.910719e-10	1.231672e+01	3.838897e+01
2.240000e-06	1.817725e-06	6.022798e-10	1.262360e+01	3.934306e+01
2.250000e-06	1.861872e-06	6.181805e-10	1.293019e+01	4.027529e+01
2.260000e-06	1.905963e-06	6.370572e-10	1.323639e+01	4.118571e+01
2.270000e-06	1.949942e-06	6.543703e-10	1.354181e+01	4.207447e+01
2.280000e-06	1.993793e-06	6.657847e-10	1.384634e+01	4.294177e+01
2.290000e-06	2.037554e-06	6.753947e-10	1.415025e+01	4.378789e+01
2.300000e-06	2.081207e-06	6.829792e-10	1.445341e+01	4.461317e+01
2.310000e-06	2.124789e-06	6.876295e-10	1.475607e+01	4.541799e+01
2.320000e-06	2.168281e-06	6.950463e-10	1.505812e+01	4.620280e+01
2.330000e-06	2.211688e-06	7.094424e-10	1.535957e+01	4.696809e+01
2.340000e-06	2.255083e-06	7.261130e-10	1.566093e+01	4.771439e+01
2.350000e-06	2.298375e-06	7.405802e-10	1.596158e+01	4.844228e+01
2.360000e-06	2.341466e-06	7.517853e-10	1.626084e+01	4.915234e+01
2.370000e-06	2.384263e-06	7.589657e-10	1.655805e+01	4.984521e+01
2.380000e-06	2.426758e-06	7.624037e-10	1.685317e+01	5.052152e+01
2.390000e-06	2.468942e-06	7.672854e-10	1.714613e+01	5.118192e+01
2.400000e-06	2.510838e-06	7.744577e-10	1.743708e+01	5.182708e+01
2.410000e-06	2.552474e-06	7.838327e-10	1.772623e+01	5.245767e+01
2.420000e-06	2.593725e-06	7.959165e-10	1.801271e+01	5.307434e+01
2.430000e-06	2.634641e-06	8.082057e-10	1.829686e+01	5.367774e+01
2.440000e-06	2.675337e-06	8.188119e-10	1.857948e+01	5.426852e+01
2.450000e-06	2.715824e-06	8.276993e-10	1.886065e+01	5.484729e+01
2.460000e-06	2.756057e-06	8.334264e-10	1.914006e+01	5.541466e+01
2.470000e-06	2.796068e-06	8.373714e-10	1.941792e+01	5.597119e+01
2.480000e-06	2.835943e-06	8.411552e-10	1.969485e+01	5.651743e+01
2.490000e-06	2.875732e-06	8.444025e-10	1.997117e+01	5.705388e+01
2.500000e-06	2.915371e-06	8.499282e-10	2.024645e+01	5.758102e+01
2.510000e-06	2.954847e-06	8.598486e-10	2.052060e+01	5.809928e+01
2.520000e-06	2.994176e-06	8.714518e-10	2.079373e+01	5.860907e+01
2.530000e-06	3.033329e-06	8.809972e-10	2.106564e+01	5.911072e+01
2.540000e-06	3.072298e-06	8.885110e-10	2.133626e+01	5.960457e+01
2.550000e-06	3.111050e-06	8.931985e-10	2.160539e+01	6.009087e+01
2.560000e-06	3.149516e-06	8.930450e-10	2.187252e+01	6.056985e+01
2.570000e-06	3.187783e-06	8.936276e-10	2.213828e+01	6.104169e+01
2.580000e-06	3.225932e-06	9.011431e-10	2.240321e+01	6.150655e+01
2.590000e-06	3.263848e-06	9.132976e-10	2.266653e+01	6.196452e+01
2.600000e-06	3.301540e-06	9.256275e-10	2.292829e+01	6.241566e+01
2.610000e-06	3.339010e-06	9.357330e-10	2.318851e+01	6.286002e+01
2.620000e-06	3.376216e-06	9.441519e-10	2.344690e+01	6.329758e+01
2.630000e-06	3.413161e-06	9.493884e-10	2.370346e+01	6.372831e+01
2.640000e-06	3.449784e-06	9.507555e-10	2.395780e+01	6.415214e+01
2.650000e-06	3.486115e-06	9.513516e-10	2.421011e+01	6.456900e+01
2.660000e-06	3.522255e-06	9.566763e-10	2.446109e+01	6.497876e+01
2.670000e-06	3.558202e-06	9.646121e-10	2.471074e+01	6.538131e+01
2.680000e-06	3.593983e-06	9.712882e-10	2.495922e+01	6.577650e+01
2.690000e-06	3.629659e-06	9.778768e-10	2.520699e+01	6.616418e+01
2.700000e-06	3.665223e-06	9.822717e-10	2.545397e+01	6.654421e+01
2.710000e-06	3.700629e-06	9.861211e-10	2.569985e+01	6.691641e+01
2.720000e-06	3.735842e-06	9.891981e-10	2.594440e+01	6.728065e+01
2.730000e-06	3.770826e-06	9.908005e-10	2.618735e+01	6.763675e+01
2.740000e-06	3.805471e-06	9.939114e-10	2.642795e+01	6.798459e+01
2.750000e-06	3.839537e-06	9.984835e-10	2.666453e+01	6.832403e+01
2.760000e-06	3.873054e-06	1.004785e-09	2.689730e+01	6.865496e+01
2.770000e-06	3.906177e-06	1.011463e-09	2.712733e+01	6.897729e+01
2.780000e-06	3.938871e-06	1.016556e-09	2.735438e+01	6.929093e+01
2.790000e-06	3.971160e-06	1.019799e-09	2.757862e+01	6.959585e+01
2.800000e-06	4.003126e-06	1.021387e-09	2.780061e+01	6.989201e+01
2.810000e-06	4.034918e-06	1.021760e-09	2.802140e+01	7.017942e+01
2.820000e-06	4.066607e-06	1.022697e-09	2.824147e+01	7.045811e+01
2.830000e-06	4.098151e-06	1.026214e-09	2.846054e+01	7.072815e+01
2.840000e-06	4.129506e-06	1.031982e-09	2.867829e+01	7.098962e+01
2.850000e-06	4.160555e-06	1.037546e-09	2.889391e+01	7.124266e+01
2.860000e-06	4.191250e-06	1.043654e-09	2.910708e+01	7.148742e+01
2.870000e-06	4.221646e-06	1.048918e-09	2.931817e+01	7.172407e+01
2.880000e-06	4.251752e-06	1.050340e-09	2.952725e+01	7.195285e+01
2.890000e-06	4.281539e-06	1.048851e-09	2.973411e+01	7.217399e+01
2.900000e-06	4.311052e-06	1.046748e-09	2.993908e+01	7.238776e+01
2.910000e-06	4.340325e-06	1.047246e-09	3.014237e+01	7.259447e+01
