# Temperatura_=_9.87
# Concentracion g/m^3_=_1620.0
# C_Vs_to_Am_M_A/Vsm_=_65563218390.804596
# pendiente_HvsI_1/m_=_3716.3
# ordenada_HvsI_A/m_=_1297.0
# frecuencia_Hz_=_135109.53047982245

Tiempo_(s)	Campo_(V.s)	Magnetizacion_(V.s)	Campo_(kA/m)	Magnetizacion_(A/m)
0.000000e+00	-5.488159e-06	-1.225833e-09	-3.835951e+01	-8.001660e+01
1.000000e-08	-5.488323e-06	-1.223945e-09	-3.836066e+01	-8.001158e+01
2.000000e-08	-5.488347e-06	-1.223447e-09	-3.836083e+01	-8.000470e+01
3.000000e-08	-5.488003e-06	-1.224584e-09	-3.835842e+01	-7.999573e+01
4.000000e-08	-5.487157e-06	-1.225534e-09	-3.835251e+01	-7.998441e+01
5.000000e-08	-5.485802e-06	-1.223197e-09	-3.834304e+01	-7.997051e+01
6.000000e-08	-5.483896e-06	-1.216308e-09	-3.832972e+01	-7.995377e+01
7.000000e-08	-5.481376e-06	-1.212333e-09	-3.831210e+01	-7.993395e+01
8.000000e-08	-5.478273e-06	-1.231031e-09	-3.829041e+01	-7.991083e+01
9.000000e-08	-5.474672e-06	-1.264768e-09	-3.826524e+01	-7.988417e+01
1.000000e-07	-5.470638e-06	-1.247512e-09	-3.823705e+01	-7.985377e+01
1.100000e-07	-5.466330e-06	-1.172176e-09	-3.820694e+01	-7.981943e+01
1.200000e-07	-5.461891e-06	-1.168759e-09	-3.817591e+01	-7.978096e+01
1.300000e-07	-5.457237e-06	-1.265301e-09	-3.814338e+01	-7.973820e+01
1.400000e-07	-5.452076e-06	-1.266201e-09	-3.810731e+01	-7.969102e+01
1.500000e-07	-5.446442e-06	-1.177328e-09	-3.806793e+01	-7.963928e+01
1.600000e-07	-5.440596e-06	-1.155874e-09	-3.802707e+01	-7.958289e+01
1.700000e-07	-5.434407e-06	-1.246526e-09	-3.798381e+01	-7.952177e+01
1.800000e-07	-5.427687e-06	-1.272216e-09	-3.793684e+01	-7.945587e+01
1.900000e-07	-5.420592e-06	-1.166510e-09	-3.788725e+01	-7.938516e+01
2.000000e-07	-5.413299e-06	-1.161064e-09	-3.783628e+01	-7.930963e+01
2.100000e-07	-5.405737e-06	-1.230302e-09	-3.778342e+01	-7.922930e+01
2.200000e-07	-5.397843e-06	-1.277887e-09	-3.772825e+01	-7.914422e+01
2.300000e-07	-5.389651e-06	-1.197411e-09	-3.767099e+01	-7.905444e+01
2.400000e-07	-5.381136e-06	-1.166846e-09	-3.761147e+01	-7.896005e+01
2.500000e-07	-5.372053e-06	-1.190527e-09	-3.754799e+01	-7.886114e+01
2.600000e-07	-5.362160e-06	-1.219039e-09	-3.747884e+01	-7.875784e+01
2.700000e-07	-5.351604e-06	-1.180716e-09	-3.740506e+01	-7.865028e+01
2.800000e-07	-5.340636e-06	-1.165363e-09	-3.732840e+01	-7.853860e+01
2.900000e-07	-5.329187e-06	-1.187899e-09	-3.724837e+01	-7.842297e+01
3.000000e-07	-5.317354e-06	-1.196886e-09	-3.716567e+01	-7.830354e+01
3.100000e-07	-5.305247e-06	-1.161908e-09	-3.708105e+01	-7.818048e+01
3.200000e-07	-5.292674e-06	-1.137698e-09	-3.699317e+01	-7.805398e+01
3.300000e-07	-5.279611e-06	-1.164698e-09	-3.690186e+01	-7.792421e+01
3.400000e-07	-5.266209e-06	-1.173506e-09	-3.680819e+01	-7.779133e+01
3.500000e-07	-5.252494e-06	-1.150842e-09	-3.671233e+01	-7.765553e+01
3.600000e-07	-5.238379e-06	-1.131908e-09	-3.661368e+01	-7.751695e+01
3.700000e-07	-5.223834e-06	-1.182222e-09	-3.651201e+01	-7.737576e+01
3.800000e-07	-5.208923e-06	-1.173405e-09	-3.640779e+01	-7.723210e+01
3.900000e-07	-5.193330e-06	-1.130740e-09	-3.629880e+01	-7.708608e+01
4.000000e-07	-5.177003e-06	-1.143075e-09	-3.618469e+01	-7.693784e+01
4.100000e-07	-5.160408e-06	-1.198595e-09	-3.606869e+01	-7.678745e+01
4.200000e-07	-5.143466e-06	-1.140837e-09	-3.595028e+01	-7.663501e+01
4.300000e-07	-5.126155e-06	-1.113459e-09	-3.582928e+01	-7.648057e+01
4.400000e-07	-5.108631e-06	-1.179991e-09	-3.570680e+01	-7.632416e+01
4.500000e-07	-5.090787e-06	-1.184505e-09	-3.558208e+01	-7.616580e+01
4.600000e-07	-5.072446e-06	-1.089081e-09	-3.545389e+01	-7.600549e+01
4.700000e-07	-5.053622e-06	-1.128692e-09	-3.532231e+01	-7.584321e+01
4.800000e-07	-5.034483e-06	-1.193175e-09	-3.518854e+01	-7.567890e+01
4.900000e-07	-5.015042e-06	-1.129054e-09	-3.505266e+01	-7.551250e+01
5.000000e-07	-4.995340e-06	-1.090840e-09	-3.491495e+01	-7.534391e+01
5.100000e-07	-4.975487e-06	-1.162757e-09	-3.477619e+01	-7.517304e+01
5.200000e-07	-4.955404e-06	-1.135009e-09	-3.463582e+01	-7.499976e+01
5.300000e-07	-4.935003e-06	-1.083883e-09	-3.449323e+01	-7.482393e+01
5.400000e-07	-4.914285e-06	-1.141763e-09	-3.434842e+01	-7.464539e+01
5.500000e-07	-4.893224e-06	-1.152049e-09	-3.420121e+01	-7.446397e+01
5.600000e-07	-4.871704e-06	-1.075969e-09	-3.405079e+01	-7.427950e+01
5.700000e-07	-4.849830e-06	-1.107555e-09	-3.389791e+01	-7.409180e+01
5.800000e-07	-4.827740e-06	-1.155727e-09	-3.374351e+01	-7.390066e+01
5.900000e-07	-4.805327e-06	-1.092114e-09	-3.358686e+01	-7.370590e+01
6.000000e-07	-4.782523e-06	-1.076042e-09	-3.342746e+01	-7.350733e+01
6.100000e-07	-4.759334e-06	-1.126674e-09	-3.326539e+01	-7.330474e+01
6.200000e-07	-4.735831e-06	-1.101241e-09	-3.310111e+01	-7.309794e+01
6.300000e-07	-4.712098e-06	-1.068826e-09	-3.293523e+01	-7.288676e+01
6.400000e-07	-4.688194e-06	-1.109172e-09	-3.276815e+01	-7.267101e+01
6.500000e-07	-4.664075e-06	-1.100901e-09	-3.259958e+01	-7.245053e+01
6.600000e-07	-4.639574e-06	-1.068154e-09	-3.242832e+01	-7.222518e+01
6.700000e-07	-4.614608e-06	-1.082290e-09	-3.225382e+01	-7.199480e+01
6.800000e-07	-4.589167e-06	-1.086509e-09	-3.207600e+01	-7.175929e+01
6.900000e-07	-4.563231e-06	-1.056447e-09	-3.189473e+01	-7.151855e+01
7.000000e-07	-4.536736e-06	-1.067910e-09	-3.170954e+01	-7.127247e+01
7.100000e-07	-4.509648e-06	-1.071037e-09	-3.152020e+01	-7.102102e+01
7.200000e-07	-4.482090e-06	-1.054391e-09	-3.132759e+01	-7.076413e+01
7.300000e-07	-4.454328e-06	-1.056367e-09	-3.113355e+01	-7.050179e+01
7.400000e-07	-4.426539e-06	-1.064324e-09	-3.093931e+01	-7.023401e+01
7.500000e-07	-4.398644e-06	-1.040788e-09	-3.074434e+01	-6.996079e+01
7.600000e-07	-4.370529e-06	-1.042215e-09	-3.054783e+01	-6.968220e+01
7.700000e-07	-4.342114e-06	-1.048392e-09	-3.034923e+01	-6.939828e+01
7.800000e-07	-4.313357e-06	-1.034476e-09	-3.014823e+01	-6.910912e+01
7.900000e-07	-4.284250e-06	-1.025843e-09	-2.994478e+01	-6.881482e+01
8.000000e-07	-4.254830e-06	-1.032909e-09	-2.973915e+01	-6.851550e+01
8.100000e-07	-4.225086e-06	-1.013696e-09	-2.953126e+01	-6.821130e+01
8.200000e-07	-4.195067e-06	-9.982415e-10	-2.932144e+01	-6.790235e+01
8.300000e-07	-4.164841e-06	-1.004817e-09	-2.911017e+01	-6.758882e+01
8.400000e-07	-4.134346e-06	-1.001548e-09	-2.889703e+01	-6.727088e+01
8.500000e-07	-4.103431e-06	-9.850076e-10	-2.868095e+01	-6.694869e+01
8.600000e-07	-4.072199e-06	-9.891267e-10	-2.846265e+01	-6.662243e+01
8.700000e-07	-4.040834e-06	-9.928306e-10	-2.824343e+01	-6.629229e+01
8.800000e-07	-4.009316e-06	-9.769927e-10	-2.802313e+01	-6.595845e+01
8.900000e-07	-3.977634e-06	-9.712382e-10	-2.780169e+01	-6.562108e+01
9.000000e-07	-3.945757e-06	-9.703722e-10	-2.757889e+01	-6.528036e+01
9.100000e-07	-3.913609e-06	-9.564258e-10	-2.735419e+01	-6.493646e+01
9.200000e-07	-3.881230e-06	-9.426244e-10	-2.712787e+01	-6.458952e+01
9.300000e-07	-3.848553e-06	-9.477085e-10	-2.689948e+01	-6.423970e+01
9.400000e-07	-3.815483e-06	-9.429909e-10	-2.666834e+01	-6.388712e+01
9.500000e-07	-3.781961e-06	-9.288713e-10	-2.643403e+01	-6.353189e+01
9.600000e-07	-3.747922e-06	-9.251719e-10	-2.619612e+01	-6.317413e+01
9.700000e-07	-3.713400e-06	-9.238705e-10	-2.595483e+01	-6.281391e+01
9.800000e-07	-3.678422e-06	-9.094195e-10	-2.571035e+01	-6.245128e+01
9.900000e-07	-3.643121e-06	-9.036562e-10	-2.546361e+01	-6.208630e+01
1.000000e-06	-3.607551e-06	-9.026022e-10	-2.521500e+01	-6.171897e+01
1.010000e-06	-3.571832e-06	-8.976667e-10	-2.496534e+01	-6.134930e+01
1.020000e-06	-3.536080e-06	-8.900061e-10	-2.471544e+01	-6.097727e+01
1.030000e-06	-3.500252e-06	-8.894458e-10	-2.446502e+01	-6.060284e+01
1.040000e-06	-3.464267e-06	-8.817664e-10	-2.421351e+01	-6.022593e+01
1.050000e-06	-3.428077e-06	-8.730601e-10	-2.396056e+01	-5.984647e+01
1.060000e-06	-3.391656e-06	-8.670937e-10	-2.370599e+01	-5.946436e+01
1.070000e-06	-3.354980e-06	-8.610224e-10	-2.344964e+01	-5.907948e+01
1.080000e-06	-3.318005e-06	-8.509756e-10	-2.319121e+01	-5.869169e+01
1.090000e-06	-3.280714e-06	-8.470869e-10	-2.293057e+01	-5.830084e+01
1.100000e-06	-3.243200e-06	-8.424828e-10	-2.266836e+01	-5.790678e+01
1.110000e-06	-3.205483e-06	-8.333958e-10	-2.240474e+01	-5.750934e+01
1.120000e-06	-3.167551e-06	-8.246496e-10	-2.213961e+01	-5.710832e+01
1.130000e-06	-3.129433e-06	-8.175094e-10	-2.187319e+01	-5.670355e+01
1.140000e-06	-3.091111e-06	-8.073641e-10	-2.160533e+01	-5.629484e+01
1.150000e-06	-3.052597e-06	-7.982637e-10	-2.133614e+01	-5.588200e+01
1.160000e-06	-3.013837e-06	-7.931933e-10	-2.106523e+01	-5.546483e+01
1.170000e-06	-2.974784e-06	-7.887220e-10	-2.079226e+01	-5.504315e+01
1.180000e-06	-2.935525e-06	-7.838033e-10	-2.051786e+01	-5.461677e+01
1.190000e-06	-2.896104e-06	-7.787452e-10	-2.024233e+01	-5.418551e+01
1.200000e-06	-2.856476e-06	-7.709734e-10	-1.996536e+01	-5.374922e+01
1.210000e-06	-2.816697e-06	-7.606230e-10	-1.968732e+01	-5.330771e+01
1.220000e-06	-2.776827e-06	-7.536671e-10	-1.940864e+01	-5.286086e+01
1.230000e-06	-2.736861e-06	-7.466540e-10	-1.912931e+01	-5.240852e+01
1.240000e-06	-2.696832e-06	-7.387542e-10	-1.884952e+01	-5.195056e+01
1.250000e-06	-2.656703e-06	-7.314957e-10	-1.856904e+01	-5.148689e+01
1.260000e-06	-2.616375e-06	-7.262774e-10	-1.828717e+01	-5.101741e+01
1.270000e-06	-2.575747e-06	-7.180279e-10	-1.800320e+01	-5.054204e+01
1.280000e-06	-2.534860e-06	-7.107848e-10	-1.771742e+01	-5.006070e+01
1.290000e-06	-2.493739e-06	-7.010943e-10	-1.743000e+01	-4.957336e+01
1.300000e-06	-2.452357e-06	-6.909880e-10	-1.714076e+01	-4.907996e+01
1.310000e-06	-2.410741e-06	-6.800132e-10	-1.684988e+01	-4.858049e+01
1.320000e-06	-2.368838e-06	-6.723446e-10	-1.655700e+01	-4.807492e+01
1.330000e-06	-2.326532e-06	-6.652112e-10	-1.626130e+01	-4.756324e+01
1.340000e-06	-2.283845e-06	-6.601134e-10	-1.596295e+01	-4.704546e+01
1.350000e-06	-2.240852e-06	-6.548371e-10	-1.566245e+01	-4.652156e+01
1.360000e-06	-2.197571e-06	-6.489496e-10	-1.535993e+01	-4.599155e+01
1.370000e-06	-2.154200e-06	-6.411994e-10	-1.505679e+01	-4.545544e+01
1.380000e-06	-2.110783e-06	-6.320164e-10	-1.475333e+01	-4.491322e+01
1.390000e-06	-2.067196e-06	-6.195365e-10	-1.444868e+01	-4.436489e+01
1.400000e-06	-2.023497e-06	-6.073295e-10	-1.414324e+01	-4.381042e+01
1.410000e-06	-1.979716e-06	-5.987573e-10	-1.383723e+01	-4.324978e+01
1.420000e-06	-1.935858e-06	-5.925837e-10	-1.353069e+01	-4.268294e+01
1.430000e-06	-1.891972e-06	-5.867922e-10	-1.322395e+01	-4.210982e+01
1.440000e-06	-1.848048e-06	-5.800373e-10	-1.291694e+01	-4.153035e+01
1.450000e-06	-1.804075e-06	-5.717485e-10	-1.260959e+01	-4.094442e+01
1.460000e-06	-1.760018e-06	-5.615569e-10	-1.230165e+01	-4.035189e+01
1.470000e-06	-1.715822e-06	-5.512535e-10	-1.199275e+01	-3.975262e+01
1.480000e-06	-1.671447e-06	-5.414319e-10	-1.168259e+01	-3.914640e+01
1.490000e-06	-1.626915e-06	-5.325309e-10	-1.137133e+01	-3.853302e+01
1.500000e-06	-1.582325e-06	-5.243898e-10	-1.105967e+01	-3.791224e+01
1.510000e-06	-1.537697e-06	-5.180670e-10	-1.074774e+01	-3.728375e+01
1.520000e-06	-1.492918e-06	-5.093987e-10	-1.043476e+01	-3.664725e+01
1.530000e-06	-1.448013e-06	-4.981479e-10	-1.012089e+01	-3.600238e+01
1.540000e-06	-1.403002e-06	-4.842834e-10	-9.806287e+00	-3.534877e+01
1.550000e-06	-1.357842e-06	-4.706348e-10	-9.490640e+00	-3.468598e+01
1.560000e-06	-1.312571e-06	-4.568305e-10	-9.174222e+00	-3.401357e+01
1.570000e-06	-1.267263e-06	-4.465035e-10	-8.857538e+00	-3.333108e+01
1.580000e-06	-1.221886e-06	-4.409605e-10	-8.540378e+00	-3.263798e+01
1.590000e-06	-1.176373e-06	-4.351641e-10	-8.222266e+00	-3.193376e+01
1.600000e-06	-1.130738e-06	-4.277442e-10	-7.903298e+00	-3.121788e+01
1.610000e-06	-1.084980e-06	-4.172814e-10	-7.583470e+00	-3.048975e+01
1.620000e-06	-1.039130e-06	-4.011215e-10	-7.263006e+00	-2.974881e+01
1.630000e-06	-9.932054e-07	-3.823898e-10	-6.942014e+00	-2.899447e+01
1.640000e-06	-9.472415e-07	-3.667241e-10	-6.620749e+00	-2.822614e+01
1.650000e-06	-9.012002e-07	-3.565178e-10	-6.298943e+00	-2.744323e+01
1.660000e-06	-8.551051e-07	-3.478258e-10	-5.976761e+00	-2.664516e+01
1.670000e-06	-8.089669e-07	-3.401704e-10	-5.654278e+00	-2.583136e+01
1.680000e-06	-7.627944e-07	-3.312708e-10	-5.331555e+00	-2.500127e+01
1.690000e-06	-7.167033e-07	-3.198865e-10	-5.009401e+00	-2.415439e+01
1.700000e-06	-6.705807e-07	-3.065646e-10	-4.687027e+00	-2.329019e+01
1.710000e-06	-6.243206e-07	-2.908302e-10	-4.363692e+00	-2.240824e+01
1.720000e-06	-5.779794e-07	-2.749439e-10	-4.039789e+00	-2.150810e+01
1.730000e-06	-5.316394e-07	-2.625461e-10	-3.715896e+00	-2.058940e+01
1.740000e-06	-4.852407e-07	-2.520786e-10	-3.391592e+00	-1.965183e+01
1.750000e-06	-4.388458e-07	-2.401043e-10	-3.067315e+00	-1.869512e+01
1.760000e-06	-3.924896e-07	-2.250675e-10	-2.743308e+00	-1.771909e+01
1.770000e-06	-3.459246e-07	-2.092645e-10	-2.417841e+00	-1.672360e+01
1.780000e-06	-2.993217e-07	-1.931828e-10	-2.092110e+00	-1.570860e+01
1.790000e-06	-2.528086e-07	-1.772148e-10	-1.767007e+00	-1.467411e+01
1.800000e-06	-2.062656e-07	-1.629470e-10	-1.441694e+00	-1.362023e+01
1.810000e-06	-1.597111e-07	-1.499942e-10	-1.116301e+00	-1.254716e+01
1.820000e-06	-1.131874e-07	-1.373611e-10	-7.911241e-01	-1.145515e+01
1.830000e-06	-6.667145e-08	-1.217822e-10	-4.660004e-01	-1.034456e+01
1.840000e-06	-2.019067e-08	-1.043927e-10	-1.411227e-01	-9.215851e+00
1.850000e-06	2.629039e-08	-8.686765e-11	1.837568e-01	-8.069541e+00
1.860000e-06	7.281428e-08	-6.901283e-11	5.089358e-01	-6.906256e+00
1.870000e-06	1.192530e-07	-4.864388e-11	8.335190e-01	-5.726703e+00
1.880000e-06	1.657068e-07	-2.765309e-11	1.158208e+00	-4.531675e+00
1.890000e-06	2.122772e-07	-1.071226e-11	1.483712e+00	-3.322047e+00
1.900000e-06	2.588086e-07	2.962605e-12	1.808944e+00	-2.098776e+00
1.910000e-06	3.052302e-07	1.709337e-11	2.133408e+00	-8.628919e-01
1.920000e-06	3.516076e-07	3.440862e-11	2.457563e+00	3.845014e-01
1.930000e-06	3.979782e-07	5.476737e-11	2.781670e+00	1.642234e+00
1.940000e-06	4.443829e-07	7.522574e-11	3.106017e+00	2.909075e+00
1.950000e-06	4.907982e-07	9.479673e-11	3.430436e+00	4.183738e+00
1.960000e-06	5.371588e-07	1.120527e-10	3.754474e+00	5.464887e+00
1.970000e-06	5.834475e-07	1.274325e-10	4.078009e+00	6.751146e+00
1.980000e-06	6.296334e-07	1.443922e-10	4.400826e+00	8.041103e+00
1.990000e-06	6.757536e-07	1.605065e-10	4.723183e+00	9.333319e+00
2.000000e-06	7.218231e-07	1.758523e-10	5.045186e+00	1.062634e+01
2.010000e-06	7.678627e-07	1.951267e-10	5.366980e+00	1.191869e+01
2.020000e-06	8.139236e-07	2.137176e-10	5.688923e+00	1.320890e+01
2.030000e-06	8.599146e-07	2.340756e-10	6.010377e+00	1.449551e+01
2.040000e-06	9.058005e-07	2.570252e-10	6.331097e+00	1.577706e+01
2.050000e-06	9.516632e-07	2.769200e-10	6.651654e+00	1.705211e+01
2.060000e-06	9.975090e-07	2.946695e-10	6.972094e+00	1.831928e+01
2.070000e-06	1.043291e-06	3.103063e-10	7.292085e+00	1.957718e+01
2.080000e-06	1.088959e-06	3.247067e-10	7.611286e+00	2.082451e+01
2.090000e-06	1.134511e-06	3.401105e-10	7.929671e+00	2.205998e+01
2.100000e-06	1.180015e-06	3.594562e-10	8.247719e+00	2.328238e+01
2.110000e-06	1.225414e-06	3.787472e-10	8.565037e+00	2.449058e+01
2.120000e-06	1.270637e-06	3.967075e-10	8.881124e+00	2.568348e+01
2.130000e-06	1.315806e-06	4.125709e-10	9.196831e+00	2.686008e+01
2.140000e-06	1.360895e-06	4.252624e-10	9.511984e+00	2.801945e+01
2.150000e-06	1.405828e-06	4.376842e-10	9.826039e+00	2.916076e+01
2.160000e-06	1.450673e-06	4.516270e-10	1.013948e+01	3.028324e+01
2.170000e-06	1.495460e-06	4.670493e-10	1.045252e+01	3.138623e+01
2.180000e-06	1.540182e-06	4.820510e-10	1.076511e+01	3.246913e+01
2.190000e-06	1.584735e-06	4.971063e-10	1.107651e+01	3.353147e+01
2.200000e-06	1.629153e-06	5.107689e-10	1.138697e+01	3.457285e+01
2.210000e-06	1.673483e-06	5.210446e-10	1.169681e+01	3.559295e+01
2.220000e-06	1.717681e-06	5.316712e-10	1.200574e+01	3.659157e+01
2.230000e-06	1.761789e-06	5.435544e-10	1.231403e+01	3.756856e+01
2.240000e-06	1.805850e-06	5.570084e-10	1.262199e+01	3.852390e+01
2.250000e-06	1.849837e-06	5.720228e-10	1.292944e+01	3.945760e+01
2.260000e-06	1.893743e-06	5.863898e-10	1.323632e+01	4.036980e+01
2.270000e-06	1.937608e-06	6.001654e-10	1.354292e+01	4.126068e+01
2.280000e-06	1.981425e-06	6.117392e-10	1.384918e+01	4.213051e+01
2.290000e-06	2.025174e-06	6.221908e-10	1.415497e+01	4.297962e+01
2.300000e-06	2.068862e-06	6.339831e-10	1.446032e+01	4.380839e+01
2.310000e-06	2.112478e-06	6.458225e-10	1.476518e+01	4.461726e+01
2.320000e-06	2.155910e-06	6.565510e-10	1.506874e+01	4.540674e+01
2.330000e-06	2.199093e-06	6.678173e-10	1.537057e+01	4.617734e+01
2.340000e-06	2.242026e-06	6.801647e-10	1.567065e+01	4.692964e+01
2.350000e-06	2.284703e-06	6.928870e-10	1.596894e+01	4.766425e+01
2.360000e-06	2.327158e-06	7.032550e-10	1.626568e+01	4.838177e+01
2.370000e-06	2.369323e-06	7.124955e-10	1.656039e+01	4.908285e+01
2.380000e-06	2.411174e-06	7.219642e-10	1.685291e+01	4.976814e+01
2.390000e-06	2.452779e-06	7.319491e-10	1.714371e+01	5.043830e+01
2.400000e-06	2.494080e-06	7.410200e-10	1.743238e+01	5.109398e+01
2.410000e-06	2.535058e-06	7.498936e-10	1.771880e+01	5.173581e+01
2.420000e-06	2.575824e-06	7.600028e-10	1.800374e+01	5.236445e+01
2.430000e-06	2.616365e-06	7.708696e-10	1.828709e+01	5.298051e+01
2.440000e-06	2.656734e-06	7.809054e-10	1.856925e+01	5.358458e+01
2.450000e-06	2.697004e-06	7.884946e-10	1.885072e+01	5.417723e+01
2.460000e-06	2.737095e-06	7.947963e-10	1.913094e+01	5.475902e+01
2.470000e-06	2.777038e-06	8.014800e-10	1.941012e+01	5.533044e+01
2.480000e-06	2.816842e-06	8.101406e-10	1.968833e+01	5.589199e+01
2.490000e-06	2.856502e-06	8.197619e-10	1.996553e+01	5.644409e+01
2.500000e-06	2.896032e-06	8.300530e-10	2.024183e+01	5.698715e+01
2.510000e-06	2.935421e-06	8.408304e-10	2.051714e+01	5.752154e+01
2.520000e-06	2.974582e-06	8.493312e-10	2.079085e+01	5.804757e+01
2.530000e-06	3.013438e-06	8.566166e-10	2.106244e+01	5.856554e+01
2.540000e-06	3.052037e-06	8.652162e-10	2.133223e+01	5.907569e+01
2.550000e-06	3.090427e-06	8.733719e-10	2.160056e+01	5.957822e+01
2.560000e-06	3.128623e-06	8.781930e-10	2.186752e+01	6.007330e+01
2.570000e-06	3.166722e-06	8.820099e-10	2.213382e+01	6.056108e+01
2.580000e-06	3.204671e-06	8.887004e-10	2.239906e+01	6.104164e+01
2.590000e-06	3.242345e-06	8.982470e-10	2.266239e+01	6.151508e+01
2.600000e-06	3.279750e-06	9.080941e-10	2.292383e+01	6.198141e+01
2.610000e-06	3.316977e-06	9.168480e-10	2.318403e+01	6.244068e+01
2.620000e-06	3.353983e-06	9.235902e-10	2.344268e+01	6.289286e+01
2.630000e-06	3.390626e-06	9.270322e-10	2.369880e+01	6.333795e+01
2.640000e-06	3.427072e-06	9.307378e-10	2.395353e+01	6.377590e+01
2.650000e-06	3.463393e-06	9.373372e-10	2.420740e+01	6.420667e+01
2.660000e-06	3.499520e-06	9.452771e-10	2.445991e+01	6.463019e+01
2.670000e-06	3.535466e-06	9.515319e-10	2.471115e+01	6.504641e+01
2.680000e-06	3.571276e-06	9.573254e-10	2.496145e+01	6.545526e+01
2.690000e-06	3.606967e-06	9.615909e-10	2.521091e+01	6.585668e+01
2.700000e-06	3.642500e-06	9.623606e-10	2.545927e+01	6.625062e+01
2.710000e-06	3.677729e-06	9.651328e-10	2.570551e+01	6.663701e+01
2.720000e-06	3.712550e-06	9.702270e-10	2.594888e+01	6.701583e+01
2.730000e-06	3.747006e-06	9.760948e-10	2.618972e+01	6.738704e+01
2.740000e-06	3.781088e-06	9.834125e-10	2.642793e+01	6.775063e+01
2.750000e-06	3.814659e-06	9.901514e-10	2.666258e+01	6.810660e+01
2.760000e-06	3.847737e-06	9.940627e-10	2.689377e+01	6.845498e+01
2.770000e-06	3.880443e-06	9.958538e-10	2.712237e+01	6.879579e+01
2.780000e-06	3.912864e-06	9.984991e-10	2.734898e+01	6.912910e+01
2.790000e-06	3.945110e-06	1.002821e-09	2.757436e+01	6.945497e+01
2.800000e-06	3.977155e-06	1.006908e-09	2.779835e+01	6.977352e+01
2.810000e-06	4.008991e-06	1.010272e-09	2.802086e+01	7.008485e+01
2.820000e-06	4.040654e-06	1.013908e-09	2.824217e+01	7.038909e+01
2.830000e-06	4.072081e-06	1.017150e-09	2.846183e+01	7.068639e+01
2.840000e-06	4.103167e-06	1.020007e-09	2.867910e+01	7.097693e+01
2.850000e-06	4.133993e-06	1.022670e-09	2.889457e+01	7.126088e+01
2.860000e-06	4.164527e-06	1.025666e-09	2.910798e+01	7.153843e+01
2.870000e-06	4.194701e-06	1.030019e-09	2.931888e+01	7.180980e+01
2.880000e-06	4.224652e-06	1.035061e-09	2.952822e+01	7.207519e+01
2.890000e-06	4.254374e-06	1.039007e-09	2.973597e+01	7.233482e+01
2.900000e-06	4.283783e-06	1.041916e-09	2.994152e+01	7.258892e+01
2.910000e-06	4.312839e-06	1.045377e-09	3.014461e+01	7.283772e+01
