# Temperatura_=_-0.5
# Concentracion g/m^3_=_1620.0
# C_Vs_to_Am_M_A/Vsm_=_65563218390.804596
# pendiente_HvsI_1/m_=_3716.3
# ordenada_HvsI_A/m_=_1297.0
# frecuencia_Hz_=_135097.29898212582

Tiempo_(s)	Campo_(V.s)	Magnetizacion_(V.s)	Campo_(kA/m)	Magnetizacion_(A/m)
0.000000e+00	-5.521744e-06	-1.309529e-09	-3.836842e+01	-8.486103e+01
1.000000e-08	-5.521981e-06	-1.307225e-09	-3.837006e+01	-8.483976e+01
2.000000e-08	-5.521964e-06	-1.303644e-09	-3.836995e+01	-8.481865e+01
3.000000e-08	-5.521625e-06	-1.301695e-09	-3.836759e+01	-8.479759e+01
4.000000e-08	-5.520862e-06	-1.300949e-09	-3.836229e+01	-8.477644e+01
5.000000e-08	-5.519525e-06	-1.299816e-09	-3.835300e+01	-8.475507e+01
6.000000e-08	-5.517569e-06	-1.300102e-09	-3.833941e+01	-8.473329e+01
7.000000e-08	-5.515044e-06	-1.309210e-09	-3.832186e+01	-8.471090e+01
8.000000e-08	-5.512068e-06	-1.301101e-09	-3.830118e+01	-8.468770e+01
9.000000e-08	-5.508592e-06	-1.263211e-09	-3.827703e+01	-8.466345e+01
1.000000e-07	-5.504691e-06	-1.269466e-09	-3.824992e+01	-8.463791e+01
1.100000e-07	-5.500388e-06	-1.331212e-09	-3.822003e+01	-8.461080e+01
1.200000e-07	-5.495799e-06	-1.308392e-09	-3.818813e+01	-8.458188e+01
1.300000e-07	-5.491136e-06	-1.272630e-09	-3.815573e+01	-8.455084e+01
1.400000e-07	-5.486170e-06	-1.253341e-09	-3.812123e+01	-8.451741e+01
1.500000e-07	-5.480712e-06	-1.316510e-09	-3.808330e+01	-8.448130e+01
1.600000e-07	-5.474837e-06	-1.307136e-09	-3.804248e+01	-8.444221e+01
1.700000e-07	-5.468685e-06	-1.264346e-09	-3.799973e+01	-8.439986e+01
1.800000e-07	-5.462102e-06	-1.283159e-09	-3.795399e+01	-8.435397e+01
1.900000e-07	-5.454954e-06	-1.316215e-09	-3.790432e+01	-8.430425e+01
2.000000e-07	-5.447524e-06	-1.303051e-09	-3.785269e+01	-8.425045e+01
2.100000e-07	-5.439939e-06	-1.256517e-09	-3.779999e+01	-8.419230e+01
2.200000e-07	-5.432096e-06	-1.290773e-09	-3.774549e+01	-8.412956e+01
2.300000e-07	-5.424003e-06	-1.314488e-09	-3.768925e+01	-8.406202e+01
2.400000e-07	-5.415462e-06	-1.313790e-09	-3.762991e+01	-8.398946e+01
2.500000e-07	-5.406293e-06	-1.275400e-09	-3.756619e+01	-8.391171e+01
2.600000e-07	-5.396313e-06	-1.293393e-09	-3.749685e+01	-8.382860e+01
2.700000e-07	-5.385595e-06	-1.277890e-09	-3.742237e+01	-8.374001e+01
2.800000e-07	-5.374446e-06	-1.255937e-09	-3.734490e+01	-8.364581e+01
2.900000e-07	-5.362916e-06	-1.236463e-09	-3.726478e+01	-8.354593e+01
3.000000e-07	-5.351052e-06	-1.263153e-09	-3.718235e+01	-8.344030e+01
3.100000e-07	-5.338831e-06	-1.255984e-09	-3.709743e+01	-8.332891e+01
3.200000e-07	-5.326182e-06	-1.246887e-09	-3.700953e+01	-8.321175e+01
3.300000e-07	-5.313071e-06	-1.242737e-09	-3.691843e+01	-8.308885e+01
3.400000e-07	-5.299599e-06	-1.251134e-09	-3.682482e+01	-8.296028e+01
3.500000e-07	-5.285787e-06	-1.241132e-09	-3.672884e+01	-8.282610e+01
3.600000e-07	-5.271555e-06	-1.224584e-09	-3.662995e+01	-8.268644e+01
3.700000e-07	-5.256776e-06	-1.217936e-09	-3.652726e+01	-8.254143e+01
3.800000e-07	-5.241533e-06	-1.242965e-09	-3.642134e+01	-8.239123e+01
3.900000e-07	-5.225758e-06	-1.252852e-09	-3.631172e+01	-8.223604e+01
4.000000e-07	-5.209382e-06	-1.207362e-09	-3.619794e+01	-8.207604e+01
4.100000e-07	-5.192626e-06	-1.198137e-09	-3.608150e+01	-8.191147e+01
4.200000e-07	-5.175609e-06	-1.241795e-09	-3.596326e+01	-8.174256e+01
4.300000e-07	-5.158253e-06	-1.236868e-09	-3.584266e+01	-8.156958e+01
4.400000e-07	-5.140530e-06	-1.179181e-09	-3.571951e+01	-8.139279e+01
4.500000e-07	-5.122465e-06	-1.211325e-09	-3.559398e+01	-8.121245e+01
4.600000e-07	-5.103994e-06	-1.236620e-09	-3.546563e+01	-8.102887e+01
4.700000e-07	-5.085163e-06	-1.189620e-09	-3.533479e+01	-8.084231e+01
4.800000e-07	-5.066022e-06	-1.172876e-09	-3.520178e+01	-8.065307e+01
4.900000e-07	-5.046656e-06	-1.233017e-09	-3.506722e+01	-8.046144e+01
5.000000e-07	-5.027092e-06	-1.210470e-09	-3.493128e+01	-8.026768e+01
5.100000e-07	-5.007252e-06	-1.177796e-09	-3.479342e+01	-8.007208e+01
5.200000e-07	-4.987155e-06	-1.207641e-09	-3.465377e+01	-7.987489e+01
5.300000e-07	-4.966709e-06	-1.216660e-09	-3.451170e+01	-7.967636e+01
5.400000e-07	-4.945779e-06	-1.169013e-09	-3.436626e+01	-7.947672e+01
5.500000e-07	-4.924481e-06	-1.192786e-09	-3.421827e+01	-7.927619e+01
5.600000e-07	-4.902956e-06	-1.209388e-09	-3.406870e+01	-7.907496e+01
5.700000e-07	-4.881181e-06	-1.173738e-09	-3.391740e+01	-7.887321e+01
5.800000e-07	-4.858990e-06	-1.171109e-09	-3.376320e+01	-7.867108e+01
5.900000e-07	-4.836378e-06	-1.206929e-09	-3.360608e+01	-7.846869e+01
6.000000e-07	-4.813445e-06	-1.181429e-09	-3.344673e+01	-7.826614e+01
6.100000e-07	-4.790167e-06	-1.167418e-09	-3.328498e+01	-7.806350e+01
6.200000e-07	-4.766582e-06	-1.192043e-09	-3.312109e+01	-7.786081e+01
6.300000e-07	-4.742834e-06	-1.185128e-09	-3.295608e+01	-7.765808e+01
6.400000e-07	-4.718885e-06	-1.164390e-09	-3.278966e+01	-7.745529e+01
6.500000e-07	-4.694677e-06	-1.179640e-09	-3.262146e+01	-7.725238e+01
6.600000e-07	-4.670025e-06	-1.179188e-09	-3.245016e+01	-7.704930e+01
6.700000e-07	-4.644806e-06	-1.154043e-09	-3.227492e+01	-7.684592e+01
6.800000e-07	-4.619090e-06	-1.157646e-09	-3.209623e+01	-7.664211e+01
6.900000e-07	-4.592848e-06	-1.164361e-09	-3.191389e+01	-7.643773e+01
7.000000e-07	-4.566110e-06	-1.154877e-09	-3.172810e+01	-7.623258e+01
7.100000e-07	-4.538917e-06	-1.152408e-09	-3.153914e+01	-7.602645e+01
7.200000e-07	-4.511435e-06	-1.155879e-09	-3.134818e+01	-7.581912e+01
7.300000e-07	-4.483774e-06	-1.143461e-09	-3.115597e+01	-7.561034e+01
7.400000e-07	-4.455956e-06	-1.143396e-09	-3.096268e+01	-7.539985e+01
7.500000e-07	-4.427996e-06	-1.141313e-09	-3.076839e+01	-7.518736e+01
7.600000e-07	-4.399789e-06	-1.133269e-09	-3.057240e+01	-7.497258e+01
7.700000e-07	-4.371245e-06	-1.123279e-09	-3.037405e+01	-7.475521e+01
7.800000e-07	-4.342319e-06	-1.119881e-09	-3.017306e+01	-7.453494e+01
7.900000e-07	-4.313100e-06	-1.105932e-09	-2.997003e+01	-7.431146e+01
8.000000e-07	-4.283635e-06	-1.099317e-09	-2.976528e+01	-7.408445e+01
8.100000e-07	-4.253875e-06	-1.096714e-09	-2.955850e+01	-7.385360e+01
8.200000e-07	-4.223773e-06	-1.091655e-09	-2.934933e+01	-7.361859e+01
8.300000e-07	-4.193318e-06	-1.081923e-09	-2.913771e+01	-7.337913e+01
8.400000e-07	-4.162545e-06	-1.082323e-09	-2.892388e+01	-7.313493e+01
8.500000e-07	-4.131505e-06	-1.075156e-09	-2.870819e+01	-7.288569e+01
8.600000e-07	-4.100237e-06	-1.067145e-09	-2.849093e+01	-7.263115e+01
8.700000e-07	-4.068762e-06	-1.062540e-09	-2.827222e+01	-7.237106e+01
8.800000e-07	-4.037123e-06	-1.062172e-09	-2.805237e+01	-7.210518e+01
8.900000e-07	-4.005318e-06	-1.055065e-09	-2.783137e+01	-7.183331e+01
9.000000e-07	-3.973314e-06	-1.051285e-09	-2.760899e+01	-7.155524e+01
9.100000e-07	-3.941128e-06	-1.045874e-09	-2.738534e+01	-7.127082e+01
9.200000e-07	-3.908620e-06	-1.035198e-09	-2.715945e+01	-7.097991e+01
9.300000e-07	-3.875632e-06	-1.026304e-09	-2.693024e+01	-7.068237e+01
9.400000e-07	-3.842167e-06	-1.025895e-09	-2.669770e+01	-7.037812e+01
9.500000e-07	-3.808154e-06	-1.024047e-09	-2.646136e+01	-7.006711e+01
9.600000e-07	-3.773679e-06	-1.018866e-09	-2.622181e+01	-6.974927e+01
9.700000e-07	-3.738882e-06	-1.012206e-09	-2.598001e+01	-6.942462e+01
9.800000e-07	-3.703856e-06	-1.002007e-09	-2.573663e+01	-6.909316e+01
9.900000e-07	-3.668585e-06	-9.921344e-10	-2.549155e+01	-6.875493e+01
1.000000e-06	-3.633028e-06	-9.856941e-10	-2.524448e+01	-6.841000e+01
1.010000e-06	-3.597312e-06	-9.837015e-10	-2.499630e+01	-6.805846e+01
1.020000e-06	-3.561509e-06	-9.821137e-10	-2.474752e+01	-6.770042e+01
1.030000e-06	-3.525544e-06	-9.826393e-10	-2.449761e+01	-6.733602e+01
1.040000e-06	-3.489315e-06	-9.789798e-10	-2.424587e+01	-6.696540e+01
1.050000e-06	-3.452832e-06	-9.757793e-10	-2.399237e+01	-6.658873e+01
1.060000e-06	-3.416099e-06	-9.663766e-10	-2.373712e+01	-6.620620e+01
1.070000e-06	-3.379086e-06	-9.561253e-10	-2.347993e+01	-6.581801e+01
1.080000e-06	-3.341819e-06	-9.463394e-10	-2.322098e+01	-6.542436e+01
1.090000e-06	-3.304291e-06	-9.420095e-10	-2.296021e+01	-6.502547e+01
1.100000e-06	-3.266503e-06	-9.362803e-10	-2.269764e+01	-6.462156e+01
1.110000e-06	-3.228576e-06	-9.314861e-10	-2.243410e+01	-6.421284e+01
1.120000e-06	-3.190449e-06	-9.276605e-10	-2.216917e+01	-6.379955e+01
1.130000e-06	-3.151987e-06	-9.240512e-10	-2.190191e+01	-6.338189e+01
1.140000e-06	-3.113307e-06	-9.145706e-10	-2.163314e+01	-6.296009e+01
1.150000e-06	-3.074396e-06	-9.064187e-10	-2.136277e+01	-6.253435e+01
1.160000e-06	-3.035330e-06	-9.016297e-10	-2.109131e+01	-6.210485e+01
1.170000e-06	-2.996157e-06	-8.978883e-10	-2.081911e+01	-6.167179e+01
1.180000e-06	-2.956792e-06	-8.905185e-10	-2.054558e+01	-6.123532e+01
1.190000e-06	-2.917257e-06	-8.862802e-10	-2.027086e+01	-6.079559e+01
1.200000e-06	-2.877583e-06	-8.803865e-10	-1.999519e+01	-6.035272e+01
1.210000e-06	-2.837832e-06	-8.720723e-10	-1.971897e+01	-5.990681e+01
1.220000e-06	-2.797946e-06	-8.639889e-10	-1.944182e+01	-5.945794e+01
1.230000e-06	-2.757854e-06	-8.570510e-10	-1.916324e+01	-5.900616e+01
1.240000e-06	-2.717557e-06	-8.480195e-10	-1.888323e+01	-5.855148e+01
1.250000e-06	-2.677087e-06	-8.399912e-10	-1.860202e+01	-5.809390e+01
1.260000e-06	-2.636418e-06	-8.356448e-10	-1.831942e+01	-5.763337e+01
1.270000e-06	-2.595500e-06	-8.280777e-10	-1.803511e+01	-5.716983e+01
1.280000e-06	-2.554347e-06	-8.204699e-10	-1.774915e+01	-5.670316e+01
1.290000e-06	-2.512886e-06	-8.149031e-10	-1.746105e+01	-5.623324e+01
1.300000e-06	-2.471081e-06	-8.077901e-10	-1.717057e+01	-5.575988e+01
1.310000e-06	-2.429041e-06	-7.953195e-10	-1.687845e+01	-5.528289e+01
1.320000e-06	-2.386710e-06	-7.855104e-10	-1.658430e+01	-5.480201e+01
1.330000e-06	-2.344064e-06	-7.793208e-10	-1.628797e+01	-5.431699e+01
1.340000e-06	-2.301177e-06	-7.731982e-10	-1.598997e+01	-5.382751e+01
1.350000e-06	-2.258054e-06	-7.672231e-10	-1.569032e+01	-5.333325e+01
1.360000e-06	-2.214708e-06	-7.627874e-10	-1.538913e+01	-5.283382e+01
1.370000e-06	-2.171192e-06	-7.550461e-10	-1.508675e+01	-5.232885e+01
1.380000e-06	-2.127634e-06	-7.445066e-10	-1.478409e+01	-5.181790e+01
1.390000e-06	-2.084016e-06	-7.312966e-10	-1.448100e+01	-5.130052e+01
1.400000e-06	-2.040270e-06	-7.167996e-10	-1.417703e+01	-5.077624e+01
1.410000e-06	-1.996455e-06	-7.034436e-10	-1.387258e+01	-5.024456e+01
1.420000e-06	-1.952581e-06	-6.965153e-10	-1.356771e+01	-4.970497e+01
1.430000e-06	-1.908587e-06	-6.928173e-10	-1.326201e+01	-4.915693e+01
1.440000e-06	-1.864489e-06	-6.861821e-10	-1.295560e+01	-4.859988e+01
1.450000e-06	-1.820278e-06	-6.750797e-10	-1.264840e+01	-4.803326e+01
1.460000e-06	-1.775873e-06	-6.615216e-10	-1.233984e+01	-4.745650e+01
1.470000e-06	-1.731328e-06	-6.456725e-10	-1.203031e+01	-4.686900e+01
1.480000e-06	-1.686707e-06	-6.304356e-10	-1.172026e+01	-4.627019e+01
1.490000e-06	-1.642001e-06	-6.197391e-10	-1.140962e+01	-4.565945e+01
1.500000e-06	-1.597170e-06	-6.146986e-10	-1.109810e+01	-4.503621e+01
1.510000e-06	-1.552134e-06	-6.113742e-10	-1.078516e+01	-4.439986e+01
1.520000e-06	-1.506968e-06	-6.047060e-10	-1.047132e+01	-4.374982e+01
1.530000e-06	-1.461744e-06	-5.919533e-10	-1.015708e+01	-4.308551e+01
1.540000e-06	-1.416417e-06	-5.792468e-10	-9.842121e+00	-4.240636e+01
1.550000e-06	-1.370960e-06	-5.674578e-10	-9.526262e+00	-4.171182e+01
1.560000e-06	-1.325423e-06	-5.537149e-10	-9.209840e+00	-4.100134e+01
1.570000e-06	-1.279830e-06	-5.410056e-10	-8.893034e+00	-4.027441e+01
1.580000e-06	-1.234141e-06	-5.317867e-10	-8.575561e+00	-3.953052e+01
1.590000e-06	-1.188386e-06	-5.199642e-10	-8.257622e+00	-3.876921e+01
1.600000e-06	-1.142554e-06	-5.056617e-10	-7.939159e+00	-3.799001e+01
1.610000e-06	-1.096615e-06	-4.928984e-10	-7.619948e+00	-3.719252e+01
1.620000e-06	-1.050567e-06	-4.776121e-10	-7.299972e+00	-3.637633e+01
1.630000e-06	-1.004414e-06	-4.610707e-10	-6.979279e+00	-3.554109e+01
1.640000e-06	-9.581923e-07	-4.471497e-10	-6.658100e+00	-3.468649e+01
1.650000e-06	-9.119538e-07	-4.343559e-10	-6.336806e+00	-3.381222e+01
1.660000e-06	-8.656851e-07	-4.207152e-10	-6.015304e+00	-3.291806e+01
1.670000e-06	-8.193726e-07	-4.088700e-10	-5.693496e+00	-3.200378e+01
1.680000e-06	-7.730596e-07	-3.965022e-10	-5.371686e+00	-3.106923e+01
1.690000e-06	-7.266820e-07	-3.820087e-10	-5.049426e+00	-3.011428e+01
1.700000e-06	-6.801839e-07	-3.656492e-10	-4.726329e+00	-2.913887e+01
1.710000e-06	-6.336337e-07	-3.487865e-10	-4.402870e+00	-2.814295e+01
1.720000e-06	-5.870427e-07	-3.312742e-10	-4.079128e+00	-2.712656e+01
1.730000e-06	-5.404404e-07	-3.151400e-10	-3.755307e+00	-2.608974e+01
1.740000e-06	-4.938458e-07	-3.004001e-10	-3.431539e+00	-2.503263e+01
1.750000e-06	-4.471598e-07	-2.872864e-10	-3.107137e+00	-2.395538e+01
1.760000e-06	-4.004151e-07	-2.739726e-10	-2.782327e+00	-2.285820e+01
1.770000e-06	-3.536711e-07	-2.589563e-10	-2.457521e+00	-2.174135e+01
1.780000e-06	-3.069547e-07	-2.415920e-10	-2.132907e+00	-2.060516e+01
1.790000e-06	-2.601412e-07	-2.240639e-10	-1.807619e+00	-1.944998e+01
1.800000e-06	-2.132484e-07	-2.079290e-10	-1.481779e+00	-1.827623e+01
1.810000e-06	-1.663961e-07	-1.915979e-10	-1.156221e+00	-1.708437e+01
1.820000e-06	-1.195627e-07	-1.750841e-10	-8.307937e-01	-1.587490e+01
1.830000e-06	-7.279961e-08	-1.587210e-10	-5.058557e-01	-1.464840e+01
1.840000e-06	-2.599927e-08	-1.425170e-10	-1.806587e-01	-1.340545e+01
1.850000e-06	2.092874e-08	-1.272083e-10	1.454255e-01	-1.214672e+01
1.860000e-06	6.789117e-08	-1.119333e-10	4.717489e-01	-1.087290e+01
1.870000e-06	1.148138e-07	-9.276984e-11	7.977960e-01	-9.584734e+00
1.880000e-06	1.616945e-07	-7.273602e-11	1.123551e+00	-8.282994e+00
1.890000e-06	2.086504e-07	-5.528896e-11	1.449829e+00	-6.968503e+00
1.900000e-06	2.555580e-07	-3.901169e-11	1.775772e+00	-5.642120e+00
1.910000e-06	3.024075e-07	-2.373888e-11	2.101310e+00	-4.304737e+00
1.920000e-06	3.493235e-07	-6.678580e-12	2.427311e+00	-2.957280e+00
1.930000e-06	3.961490e-07	1.355275e-11	2.752683e+00	-1.600707e+00
1.940000e-06	4.428913e-07	3.306472e-11	3.077476e+00	-2.360024e-01
1.950000e-06	4.895564e-07	5.197914e-11	3.401734e+00	1.135823e+00
1.960000e-06	5.361390e-07	7.080032e-11	3.725418e+00	2.513737e+00
1.970000e-06	5.826421e-07	8.956370e-11	4.048550e+00	3.896687e+00
1.980000e-06	6.291819e-07	1.082940e-10	4.371937e+00	5.283603e+00
1.990000e-06	6.757188e-07	1.259889e-10	4.695303e+00	6.673404e+00
2.000000e-06	7.220780e-07	1.434008e-10	5.017435e+00	8.064997e+00
2.010000e-06	7.682908e-07	1.644163e-10	5.338549e+00	9.457283e+00
2.020000e-06	8.145421e-07	1.844980e-10	5.659931e+00	1.084916e+01
2.030000e-06	8.609015e-07	2.054011e-10	5.982064e+00	1.223953e+01
2.040000e-06	9.070791e-07	2.284299e-10	6.302934e+00	1.362728e+01
2.050000e-06	9.530993e-07	2.486114e-10	6.622710e+00	1.501134e+01
2.060000e-06	9.991258e-07	2.673624e-10	6.942530e+00	1.639061e+01
2.070000e-06	1.045148e-06	2.851271e-10	7.262319e+00	1.776404e+01
2.080000e-06	1.091088e-06	3.035345e-10	7.581538e+00	1.913056e+01
2.090000e-06	1.136891e-06	3.229881e-10	7.899808e+00	2.048916e+01
2.100000e-06	1.182608e-06	3.459337e-10	8.217475e+00	2.183883e+01
2.110000e-06	1.228276e-06	3.694860e-10	8.534802e+00	2.317858e+01
2.120000e-06	1.273894e-06	3.899247e-10	8.851785e+00	2.450748e+01
2.130000e-06	1.319386e-06	4.076404e-10	9.167893e+00	2.582460e+01
2.140000e-06	1.364799e-06	4.256408e-10	9.483449e+00	2.712906e+01
2.150000e-06	1.410151e-06	4.433835e-10	9.798585e+00	2.842003e+01
2.160000e-06	1.455391e-06	4.594206e-10	1.011294e+01	2.969670e+01
2.170000e-06	1.500462e-06	4.766665e-10	1.042612e+01	3.095831e+01
2.180000e-06	1.545377e-06	4.937295e-10	1.073821e+01	3.220415e+01
2.190000e-06	1.590265e-06	5.103373e-10	1.105012e+01	3.343355e+01
2.200000e-06	1.635049e-06	5.296419e-10	1.136131e+01	3.464590e+01
2.210000e-06	1.679709e-06	5.482188e-10	1.167163e+01	3.584061e+01
2.220000e-06	1.724288e-06	5.635445e-10	1.198140e+01	3.701718e+01
2.230000e-06	1.768678e-06	5.775531e-10	1.228984e+01	3.817514e+01
2.240000e-06	1.812854e-06	5.936178e-10	1.259680e+01	3.931405e+01
2.250000e-06	1.856909e-06	6.099288e-10	1.290292e+01	4.043357e+01
2.260000e-06	1.900884e-06	6.271927e-10	1.320849e+01	4.153337e+01
2.270000e-06	1.944831e-06	6.437443e-10	1.351386e+01	4.261319e+01
2.280000e-06	1.988740e-06	6.553058e-10	1.381897e+01	4.367283e+01
2.290000e-06	2.032552e-06	6.675004e-10	1.412340e+01	4.471212e+01
2.300000e-06	2.076252e-06	6.818286e-10	1.442705e+01	4.573094e+01
2.310000e-06	2.119878e-06	6.994786e-10	1.473020e+01	4.672924e+01
2.320000e-06	2.163469e-06	7.150157e-10	1.503309e+01	4.770699e+01
2.330000e-06	2.206971e-06	7.294875e-10	1.533537e+01	4.866423e+01
2.340000e-06	2.250273e-06	7.433081e-10	1.563626e+01	4.960102e+01
2.350000e-06	2.293381e-06	7.540165e-10	1.593580e+01	5.051748e+01
2.360000e-06	2.336266e-06	7.630000e-10	1.623379e+01	5.141375e+01
2.370000e-06	2.378906e-06	7.731740e-10	1.653008e+01	5.229002e+01
2.380000e-06	2.421333e-06	7.845330e-10	1.682489e+01	5.314650e+01
2.390000e-06	2.463414e-06	7.987303e-10	1.711729e+01	5.398346e+01
2.400000e-06	2.505120e-06	8.116791e-10	1.740709e+01	5.480116e+01
2.410000e-06	2.546499e-06	8.240707e-10	1.769461e+01	5.559992e+01
2.420000e-06	2.587570e-06	8.364188e-10	1.798000e+01	5.638006e+01
2.430000e-06	2.628411e-06	8.450779e-10	1.826379e+01	5.714192e+01
2.440000e-06	2.668984e-06	8.518898e-10	1.854571e+01	5.788588e+01
2.450000e-06	2.709374e-06	8.564448e-10	1.882637e+01	5.861230e+01
2.460000e-06	2.749647e-06	8.643845e-10	1.910621e+01	5.932159e+01
2.470000e-06	2.789702e-06	8.764603e-10	1.938454e+01	6.001414e+01
2.480000e-06	2.829591e-06	8.882581e-10	1.966171e+01	6.069035e+01
2.490000e-06	2.869357e-06	8.974365e-10	1.993803e+01	6.135064e+01
2.500000e-06	2.909001e-06	9.051022e-10	2.021350e+01	6.199542e+01
2.510000e-06	2.948527e-06	9.132807e-10	2.048815e+01	6.262509e+01
2.520000e-06	2.987871e-06	9.211850e-10	2.076153e+01	6.324007e+01
2.530000e-06	3.027025e-06	9.271177e-10	2.103360e+01	6.384075e+01
2.540000e-06	3.066000e-06	9.357745e-10	2.130442e+01	6.442753e+01
2.550000e-06	3.104726e-06	9.432067e-10	2.157351e+01	6.500079e+01
2.560000e-06	3.143199e-06	9.510482e-10	2.184085e+01	6.556092e+01
2.570000e-06	3.181450e-06	9.582750e-10	2.210664e+01	6.610828e+01
2.580000e-06	3.219532e-06	9.673971e-10	2.237125e+01	6.664321e+01
2.590000e-06	3.257398e-06	9.789064e-10	2.263437e+01	6.716606e+01
2.600000e-06	3.295026e-06	9.876549e-10	2.289583e+01	6.767716e+01
2.610000e-06	3.332449e-06	9.921203e-10	2.315587e+01	6.817682e+01
2.620000e-06	3.369664e-06	9.967089e-10	2.341446e+01	6.866534e+01
2.630000e-06	3.406641e-06	1.003802e-09	2.367140e+01	6.914299e+01
2.640000e-06	3.443277e-06	1.009280e-09	2.392597e+01	6.961005e+01
2.650000e-06	3.479600e-06	1.016902e-09	2.417837e+01	7.006677e+01
2.660000e-06	3.515752e-06	1.027972e-09	2.442957e+01	7.051340e+01
2.670000e-06	3.551752e-06	1.037304e-09	2.467972e+01	7.095015e+01
2.680000e-06	3.587597e-06	1.043591e-09	2.492880e+01	7.137724e+01
2.690000e-06	3.623347e-06	1.049802e-09	2.517721e+01	7.179488e+01
2.700000e-06	3.658942e-06	1.052792e-09	2.542454e+01	7.220325e+01
2.710000e-06	3.694347e-06	1.057025e-09	2.567056e+01	7.260255e+01
2.720000e-06	3.729578e-06	1.064147e-09	2.591536e+01	7.299292e+01
2.730000e-06	3.764512e-06	1.071387e-09	2.615811e+01	7.337456e+01
2.740000e-06	3.799083e-06	1.076455e-09	2.639832e+01	7.374760e+01
2.750000e-06	3.833238e-06	1.083646e-09	2.663566e+01	7.411219e+01
2.760000e-06	3.866893e-06	1.090782e-09	2.686951e+01	7.446850e+01
2.770000e-06	3.900030e-06	1.096626e-09	2.709977e+01	7.481664e+01
2.780000e-06	3.932723e-06	1.099675e-09	2.732694e+01	7.515677e+01
2.790000e-06	3.965056e-06	1.102251e-09	2.755161e+01	7.548902e+01
2.800000e-06	3.997123e-06	1.105203e-09	2.777443e+01	7.581353e+01
2.810000e-06	4.029045e-06	1.108648e-09	2.799624e+01	7.613042e+01
2.820000e-06	4.060811e-06	1.116289e-09	2.821697e+01	7.643985e+01
2.830000e-06	4.092402e-06	1.125049e-09	2.843649e+01	7.674193e+01
2.840000e-06	4.123762e-06	1.133703e-09	2.865439e+01	7.703681e+01
2.850000e-06	4.154855e-06	1.138424e-09	2.887044e+01	7.732462e+01
2.860000e-06	4.185715e-06	1.139340e-09	2.908488e+01	7.760552e+01
2.870000e-06	4.216224e-06	1.138477e-09	2.929687e+01	7.787963e+01
2.880000e-06	4.246273e-06	1.138263e-09	2.950567e+01	7.814712e+01
2.890000e-06	4.275966e-06	1.141733e-09	2.971200e+01	7.840812e+01
2.900000e-06	4.305471e-06	1.149844e-09	2.991702e+01	7.866278e+01
