# Temperatura_=_-0.4
# Concentracion g/m^3_=_1620.0
# C_Vs_to_Am_M_A/Vsm_=_65563218390.804596
# pendiente_HvsI_1/m_=_3716.3
# ordenada_HvsI_A/m_=_1297.0
# frecuencia_Hz_=_135095.3520863887

Tiempo_(s)	Campo_(V.s)	Magnetizacion_(V.s)	Campo_(kA/m)	Magnetizacion_(A/m)
0.000000e+00	-5.511164e-06	-1.413493e-09	-3.837869e+01	-9.237386e+01
1.000000e-08	-5.511495e-06	-1.409449e-09	-3.838099e+01	-9.233108e+01
2.000000e-08	-5.511561e-06	-1.405829e-09	-3.838145e+01	-9.228450e+01
3.000000e-08	-5.511258e-06	-1.406206e-09	-3.837934e+01	-9.223407e+01
4.000000e-08	-5.510481e-06	-1.410545e-09	-3.837393e+01	-9.217975e+01
5.000000e-08	-5.509167e-06	-1.412962e-09	-3.836478e+01	-9.212152e+01
6.000000e-08	-5.507245e-06	-1.409099e-09	-3.835139e+01	-9.205936e+01
7.000000e-08	-5.504677e-06	-1.394908e-09	-3.833351e+01	-9.199325e+01
8.000000e-08	-5.501587e-06	-1.407626e-09	-3.831200e+01	-9.192321e+01
9.000000e-08	-5.498084e-06	-1.451930e-09	-3.828760e+01	-9.184926e+01
1.000000e-07	-5.494107e-06	-1.476296e-09	-3.825990e+01	-9.177143e+01
1.100000e-07	-5.489715e-06	-1.425546e-09	-3.822932e+01	-9.168975e+01
1.200000e-07	-5.485205e-06	-1.326209e-09	-3.819791e+01	-9.160429e+01
1.300000e-07	-5.480609e-06	-1.377043e-09	-3.816591e+01	-9.151512e+01
1.400000e-07	-5.475642e-06	-1.431916e-09	-3.813132e+01	-9.142230e+01
1.500000e-07	-5.470128e-06	-1.399664e-09	-3.809292e+01	-9.132593e+01
1.600000e-07	-5.464247e-06	-1.359421e-09	-3.805196e+01	-9.122610e+01
1.700000e-07	-5.458108e-06	-1.387907e-09	-3.800921e+01	-9.112293e+01
1.800000e-07	-5.451456e-06	-1.487107e-09	-3.796289e+01	-9.101652e+01
1.900000e-07	-5.444284e-06	-1.414475e-09	-3.791295e+01	-9.090699e+01
2.000000e-07	-5.436883e-06	-1.355358e-09	-3.786141e+01	-9.079447e+01
2.100000e-07	-5.429238e-06	-1.328872e-09	-3.780817e+01	-9.067909e+01
2.200000e-07	-5.421246e-06	-1.399488e-09	-3.775252e+01	-9.056097e+01
2.300000e-07	-5.412969e-06	-1.374137e-09	-3.769488e+01	-9.044024e+01
2.400000e-07	-5.404366e-06	-1.353812e-09	-3.763496e+01	-9.031703e+01
2.500000e-07	-5.395190e-06	-1.329303e-09	-3.757107e+01	-9.019147e+01
2.600000e-07	-5.385311e-06	-1.359136e-09	-3.750227e+01	-9.006367e+01
2.700000e-07	-5.374783e-06	-1.339789e-09	-3.742896e+01	-8.993376e+01
2.800000e-07	-5.363648e-06	-1.324063e-09	-3.735141e+01	-8.980183e+01
2.900000e-07	-5.352064e-06	-1.321251e-09	-3.727074e+01	-8.966799e+01
3.000000e-07	-5.340206e-06	-1.327483e-09	-3.718817e+01	-8.953231e+01
3.100000e-07	-5.327960e-06	-1.332416e-09	-3.710289e+01	-8.939489e+01
3.200000e-07	-5.315380e-06	-1.305093e-09	-3.701529e+01	-8.925577e+01
3.300000e-07	-5.302371e-06	-1.317111e-09	-3.692469e+01	-8.911501e+01
3.400000e-07	-5.288934e-06	-1.310994e-09	-3.683112e+01	-8.897264e+01
3.500000e-07	-5.275215e-06	-1.322302e-09	-3.673558e+01	-8.882867e+01
3.600000e-07	-5.260931e-06	-1.291272e-09	-3.663611e+01	-8.868311e+01
3.700000e-07	-5.246069e-06	-1.307231e-09	-3.653262e+01	-8.853594e+01
3.800000e-07	-5.230736e-06	-1.306364e-09	-3.642584e+01	-8.838712e+01
3.900000e-07	-5.214926e-06	-1.306800e-09	-3.631574e+01	-8.823660e+01
4.000000e-07	-5.198627e-06	-1.282079e-09	-3.620224e+01	-8.808433e+01
4.100000e-07	-5.181992e-06	-1.311738e-09	-3.608639e+01	-8.793020e+01
4.200000e-07	-5.165119e-06	-1.296426e-09	-3.596889e+01	-8.777412e+01
4.300000e-07	-5.147944e-06	-1.279129e-09	-3.584929e+01	-8.761598e+01
4.400000e-07	-5.130466e-06	-1.275639e-09	-3.572758e+01	-8.745564e+01
4.500000e-07	-5.112646e-06	-1.311533e-09	-3.560348e+01	-8.729295e+01
4.600000e-07	-5.094255e-06	-1.270652e-09	-3.547541e+01	-8.712777e+01
4.700000e-07	-5.075354e-06	-1.260388e-09	-3.534379e+01	-8.695992e+01
4.800000e-07	-5.056185e-06	-1.282337e-09	-3.521030e+01	-8.678922e+01
4.900000e-07	-5.036764e-06	-1.293956e-09	-3.507506e+01	-8.661550e+01
5.000000e-07	-5.017154e-06	-1.256550e-09	-3.493850e+01	-8.643855e+01
5.100000e-07	-4.997375e-06	-1.268848e-09	-3.480076e+01	-8.625819e+01
5.200000e-07	-4.977337e-06	-1.263714e-09	-3.466122e+01	-8.607421e+01
5.300000e-07	-4.956939e-06	-1.239514e-09	-3.451917e+01	-8.588643e+01
5.400000e-07	-4.936138e-06	-1.246045e-09	-3.437432e+01	-8.569464e+01
5.500000e-07	-4.914964e-06	-1.269664e-09	-3.422686e+01	-8.549866e+01
5.600000e-07	-4.893431e-06	-1.238150e-09	-3.407691e+01	-8.529829e+01
5.700000e-07	-4.871564e-06	-1.226518e-09	-3.392463e+01	-8.509337e+01
5.800000e-07	-4.849406e-06	-1.255425e-09	-3.377033e+01	-8.488372e+01
5.900000e-07	-4.826878e-06	-1.244240e-09	-3.361345e+01	-8.466918e+01
6.000000e-07	-4.803918e-06	-1.220547e-09	-3.345356e+01	-8.444961e+01
6.100000e-07	-4.780737e-06	-1.232749e-09	-3.329214e+01	-8.422489e+01
6.200000e-07	-4.757345e-06	-1.235016e-09	-3.312924e+01	-8.399489e+01
6.300000e-07	-4.733675e-06	-1.204421e-09	-3.296441e+01	-8.375952e+01
6.400000e-07	-4.709785e-06	-1.215929e-09	-3.279804e+01	-8.351870e+01
6.500000e-07	-4.685543e-06	-1.222393e-09	-3.262922e+01	-8.327238e+01
6.600000e-07	-4.660900e-06	-1.211364e-09	-3.245761e+01	-8.302050e+01
6.700000e-07	-4.635671e-06	-1.206546e-09	-3.228192e+01	-8.276306e+01
6.800000e-07	-4.609787e-06	-1.222091e-09	-3.210167e+01	-8.250006e+01
6.900000e-07	-4.583434e-06	-1.200486e-09	-3.191815e+01	-8.223150e+01
7.000000e-07	-4.556657e-06	-1.198483e-09	-3.173168e+01	-8.195744e+01
7.100000e-07	-4.529509e-06	-1.196308e-09	-3.154263e+01	-8.167792e+01
7.200000e-07	-4.502062e-06	-1.184709e-09	-3.135150e+01	-8.139304e+01
7.300000e-07	-4.474403e-06	-1.170404e-09	-3.115888e+01	-8.110289e+01
7.400000e-07	-4.446621e-06	-1.186183e-09	-3.096542e+01	-8.080757e+01
7.500000e-07	-4.418690e-06	-1.177606e-09	-3.077091e+01	-8.050722e+01
7.600000e-07	-4.390528e-06	-1.173098e-09	-3.057479e+01	-8.020198e+01
7.700000e-07	-4.362047e-06	-1.170666e-09	-3.037646e+01	-7.989201e+01
7.800000e-07	-4.333179e-06	-1.162747e-09	-3.017543e+01	-7.957746e+01
7.900000e-07	-4.303948e-06	-1.143563e-09	-2.997186e+01	-7.925852e+01
8.000000e-07	-4.274448e-06	-1.146242e-09	-2.976643e+01	-7.893537e+01
8.100000e-07	-4.244630e-06	-1.137664e-09	-2.955879e+01	-7.860818e+01
8.200000e-07	-4.214509e-06	-1.122011e-09	-2.934903e+01	-7.827716e+01
8.300000e-07	-4.184204e-06	-1.118252e-09	-2.913799e+01	-7.794248e+01
8.400000e-07	-4.153579e-06	-1.120448e-09	-2.892473e+01	-7.760433e+01
8.500000e-07	-4.122616e-06	-1.107766e-09	-2.870911e+01	-7.726290e+01
8.600000e-07	-4.091402e-06	-1.100435e-09	-2.849174e+01	-7.691837e+01
8.700000e-07	-4.059981e-06	-1.103358e-09	-2.827293e+01	-7.657089e+01
8.800000e-07	-4.028407e-06	-1.093919e-09	-2.805305e+01	-7.622064e+01
8.900000e-07	-3.996669e-06	-1.083175e-09	-2.783203e+01	-7.586775e+01
9.000000e-07	-3.964715e-06	-1.079051e-09	-2.760951e+01	-7.551236e+01
9.100000e-07	-3.932406e-06	-1.071321e-09	-2.738452e+01	-7.515459e+01
9.200000e-07	-3.899763e-06	-1.058029e-09	-2.715720e+01	-7.479453e+01
9.300000e-07	-3.866836e-06	-1.057515e-09	-2.692790e+01	-7.443228e+01
9.400000e-07	-3.833474e-06	-1.056984e-09	-2.669558e+01	-7.406790e+01
9.500000e-07	-3.799435e-06	-1.049887e-09	-2.645854e+01	-7.370143e+01
9.600000e-07	-3.764818e-06	-1.040656e-09	-2.621747e+01	-7.333290e+01
9.700000e-07	-3.729976e-06	-1.041579e-09	-2.597484e+01	-7.296231e+01
9.800000e-07	-3.694886e-06	-1.030241e-09	-2.573047e+01	-7.258965e+01
9.900000e-07	-3.659492e-06	-1.024834e-09	-2.548400e+01	-7.221488e+01
1.000000e-06	-3.623966e-06	-1.020861e-09	-2.523660e+01	-7.183794e+01
1.010000e-06	-3.588349e-06	-1.020230e-09	-2.498857e+01	-7.145877e+01
1.020000e-06	-3.552670e-06	-1.013146e-09	-2.474011e+01	-7.107726e+01
1.030000e-06	-3.516829e-06	-1.011416e-09	-2.449052e+01	-7.069330e+01
1.040000e-06	-3.480721e-06	-1.003869e-09	-2.423907e+01	-7.030677e+01
1.050000e-06	-3.444315e-06	-9.985468e-10	-2.398555e+01	-6.991752e+01
1.060000e-06	-3.407649e-06	-9.908483e-10	-2.373022e+01	-6.952539e+01
1.070000e-06	-3.370748e-06	-9.855260e-10	-2.347324e+01	-6.913020e+01
1.080000e-06	-3.333517e-06	-9.770881e-10	-2.321397e+01	-6.873179e+01
1.090000e-06	-3.296073e-06	-9.740012e-10	-2.295322e+01	-6.832995e+01
1.100000e-06	-3.258443e-06	-9.692322e-10	-2.269117e+01	-6.792449e+01
1.110000e-06	-3.220569e-06	-9.622627e-10	-2.242742e+01	-6.751520e+01
1.120000e-06	-3.182471e-06	-9.530639e-10	-2.216211e+01	-6.710189e+01
1.130000e-06	-3.144188e-06	-9.454594e-10	-2.189552e+01	-6.668433e+01
1.140000e-06	-3.105749e-06	-9.361852e-10	-2.162784e+01	-6.626232e+01
1.150000e-06	-3.067068e-06	-9.274145e-10	-2.135847e+01	-6.583566e+01
1.160000e-06	-3.028074e-06	-9.239150e-10	-2.108692e+01	-6.540414e+01
1.170000e-06	-2.988837e-06	-9.215915e-10	-2.081369e+01	-6.496756e+01
1.180000e-06	-2.949496e-06	-9.166192e-10	-2.053972e+01	-6.452574e+01
1.190000e-06	-2.910109e-06	-9.105148e-10	-2.026544e+01	-6.407848e+01
1.200000e-06	-2.870563e-06	-9.031941e-10	-1.999005e+01	-6.362562e+01
1.210000e-06	-2.830826e-06	-8.908289e-10	-1.971333e+01	-6.316698e+01
1.220000e-06	-2.790976e-06	-8.810067e-10	-1.943582e+01	-6.270241e+01
1.230000e-06	-2.750999e-06	-8.736021e-10	-1.915743e+01	-6.223176e+01
1.240000e-06	-2.710835e-06	-8.688774e-10	-1.887773e+01	-6.175491e+01
1.250000e-06	-2.670374e-06	-8.621705e-10	-1.859597e+01	-6.127171e+01
1.260000e-06	-2.629616e-06	-8.590693e-10	-1.831214e+01	-6.078207e+01
1.270000e-06	-2.588727e-06	-8.526284e-10	-1.802740e+01	-6.028586e+01
1.280000e-06	-2.547669e-06	-8.444151e-10	-1.774148e+01	-5.978301e+01
1.290000e-06	-2.506314e-06	-8.352356e-10	-1.745349e+01	-5.927341e+01
1.300000e-06	-2.464527e-06	-8.277852e-10	-1.716250e+01	-5.875698e+01
1.310000e-06	-2.422285e-06	-8.163988e-10	-1.686832e+01	-5.823365e+01
1.320000e-06	-2.379788e-06	-8.070887e-10	-1.657239e+01	-5.770334e+01
1.330000e-06	-2.337133e-06	-7.978988e-10	-1.627534e+01	-5.716597e+01
1.340000e-06	-2.294242e-06	-7.884108e-10	-1.597666e+01	-5.662148e+01
1.350000e-06	-2.251120e-06	-7.773662e-10	-1.567637e+01	-5.606978e+01
1.360000e-06	-2.207800e-06	-7.679530e-10	-1.537469e+01	-5.551080e+01
1.370000e-06	-2.164314e-06	-7.595782e-10	-1.507186e+01	-5.494444e+01
1.380000e-06	-2.120758e-06	-7.505771e-10	-1.476855e+01	-5.437060e+01
1.390000e-06	-2.077195e-06	-7.419858e-10	-1.446519e+01	-5.378917e+01
1.400000e-06	-2.033555e-06	-7.347038e-10	-1.416129e+01	-5.320003e+01
1.410000e-06	-1.989777e-06	-7.246001e-10	-1.385643e+01	-5.260304e+01
1.420000e-06	-1.945948e-06	-7.144095e-10	-1.355121e+01	-5.199804e+01
1.430000e-06	-1.902077e-06	-7.033719e-10	-1.324570e+01	-5.138484e+01
1.440000e-06	-1.858132e-06	-6.926495e-10	-1.293967e+01	-5.076324e+01
1.450000e-06	-1.814061e-06	-6.820420e-10	-1.263277e+01	-5.013302e+01
1.460000e-06	-1.769902e-06	-6.759817e-10	-1.232526e+01	-4.949392e+01
1.470000e-06	-1.725616e-06	-6.701901e-10	-1.201686e+01	-4.884567e+01
1.480000e-06	-1.681083e-06	-6.633006e-10	-1.170674e+01	-4.818795e+01
1.490000e-06	-1.636378e-06	-6.561926e-10	-1.139542e+01	-4.752044e+01
1.500000e-06	-1.591562e-06	-6.471623e-10	-1.108333e+01	-4.684278e+01
1.510000e-06	-1.546628e-06	-6.372719e-10	-1.077042e+01	-4.615456e+01
1.520000e-06	-1.501639e-06	-6.254333e-10	-1.045712e+01	-4.545538e+01
1.530000e-06	-1.456509e-06	-6.150171e-10	-1.014285e+01	-4.474479e+01
1.540000e-06	-1.411222e-06	-6.035396e-10	-9.827480e+00	-4.402232e+01
1.550000e-06	-1.365894e-06	-5.918534e-10	-9.511823e+00	-4.328746e+01
1.560000e-06	-1.320464e-06	-5.806055e-10	-9.195457e+00	-4.253972e+01
1.570000e-06	-1.274951e-06	-5.687235e-10	-8.878512e+00	-4.177854e+01
1.580000e-06	-1.229349e-06	-5.581207e-10	-8.560954e+00	-4.100337e+01
1.590000e-06	-1.183664e-06	-5.467065e-10	-8.242810e+00	-4.021365e+01
1.600000e-06	-1.137929e-06	-5.336266e-10	-7.924320e+00	-3.940879e+01
1.610000e-06	-1.092147e-06	-5.199410e-10	-7.605500e+00	-3.858821e+01
1.620000e-06	-1.046296e-06	-5.066943e-10	-7.286207e+00	-3.775132e+01
1.630000e-06	-1.000329e-06	-4.961611e-10	-6.966100e+00	-3.689752e+01
1.640000e-06	-9.543022e-07	-4.843254e-10	-6.645577e+00	-3.602624e+01
1.650000e-06	-9.082111e-07	-4.727592e-10	-6.324607e+00	-3.513690e+01
1.660000e-06	-8.620683e-07	-4.596528e-10	-6.003278e+00	-3.422894e+01
1.670000e-06	-8.158784e-07	-4.434838e-10	-5.681620e+00	-3.330182e+01
1.680000e-06	-7.695898e-07	-4.243639e-10	-5.359275e+00	-3.235504e+01
1.690000e-06	-7.232572e-07	-4.088112e-10	-5.036624e+00	-3.138809e+01
1.700000e-06	-6.769483e-07	-3.938274e-10	-4.714138e+00	-3.040054e+01
1.710000e-06	-6.305611e-07	-3.789074e-10	-4.391106e+00	-2.939197e+01
1.720000e-06	-5.840691e-07	-3.628459e-10	-4.067345e+00	-2.836203e+01
1.730000e-06	-5.374974e-07	-3.464355e-10	-3.743029e+00	-2.731038e+01
1.740000e-06	-4.908183e-07	-3.304432e-10	-3.417965e+00	-2.623678e+01
1.750000e-06	-4.441449e-07	-3.131666e-10	-3.092940e+00	-2.514102e+01
1.760000e-06	-3.974625e-07	-2.956468e-10	-2.767853e+00	-2.402296e+01
1.770000e-06	-3.507795e-07	-2.789721e-10	-2.442761e+00	-2.288252e+01
1.780000e-06	-3.040693e-07	-2.619628e-10	-2.117480e+00	-2.171970e+01
1.790000e-06	-2.573473e-07	-2.451177e-10	-1.792117e+00	-2.053457e+01
1.800000e-06	-2.107249e-07	-2.279725e-10	-1.467448e+00	-1.932726e+01
1.810000e-06	-1.640473e-07	-2.095748e-10	-1.142394e+00	-1.809799e+01
1.820000e-06	-1.174183e-07	-1.911146e-10	-8.176786e-01	-1.684707e+01
1.830000e-06	-7.082445e-08	-1.725640e-10	-4.932079e-01	-1.557487e+01
1.840000e-06	-2.415006e-08	-1.524598e-10	-1.681764e-01	-1.428184e+01
1.850000e-06	2.254089e-08	-1.320638e-10	1.569704e-01	-1.296852e+01
1.860000e-06	6.931722e-08	-1.145897e-10	4.827118e-01	-1.163554e+01
1.870000e-06	1.160390e-07	-9.626944e-11	8.080736e-01	-1.028358e+01
1.880000e-06	1.627218e-07	-7.854303e-11	1.133163e+00	-8.913426e+00
1.890000e-06	2.094280e-07	-6.284859e-11	1.458416e+00	-7.525918e+00
1.900000e-06	2.561551e-07	-4.626388e-11	1.783815e+00	-6.121980e+00
1.910000e-06	3.029067e-07	-2.674621e-11	2.109384e+00	-4.702604e+00
1.920000e-06	3.496757e-07	-5.159348e-12	2.435074e+00	-3.268846e+00
1.930000e-06	3.964650e-07	1.793532e-11	2.760906e+00	-1.821825e+00
1.940000e-06	4.431255e-07	4.019588e-11	3.085841e+00	-3.627172e-01
1.950000e-06	4.897255e-07	5.969736e-11	3.410355e+00	1.107248e+00
1.960000e-06	5.362343e-07	7.765759e-11	3.734233e+00	2.586795e+00
1.970000e-06	5.826423e-07	9.570813e-11	4.057409e+00	4.074605e+00
1.980000e-06	6.289909e-07	1.141974e-10	4.380172e+00	5.569324e+00
1.990000e-06	6.752784e-07	1.331574e-10	4.702509e+00	7.069569e+00
2.000000e-06	7.215324e-07	1.526489e-10	5.024613e+00	8.573933e+00
2.010000e-06	7.677962e-07	1.759027e-10	5.346785e+00	1.008099e+01
2.020000e-06	8.140065e-07	1.975673e-10	5.668585e+00	1.158930e+01
2.030000e-06	8.600901e-07	2.197382e-10	5.989503e+00	1.309744e+01
2.040000e-06	9.061241e-07	2.449437e-10	6.310074e+00	1.460395e+01
2.050000e-06	9.520848e-07	2.678234e-10	6.630136e+00	1.610742e+01
2.060000e-06	9.979814e-07	2.888014e-10	6.949750e+00	1.760644e+01
2.070000e-06	1.043794e-06	3.069875e-10	7.268782e+00	1.909960e+01
2.080000e-06	1.089537e-06	3.246438e-10	7.587323e+00	2.058556e+01
2.090000e-06	1.135208e-06	3.429604e-10	7.905372e+00	2.206297e+01
2.100000e-06	1.180817e-06	3.661288e-10	8.222979e+00	2.353055e+01
2.110000e-06	1.226362e-06	3.912450e-10	8.540146e+00	2.498706e+01
2.120000e-06	1.271752e-06	4.132789e-10	8.856239e+00	2.643129e+01
2.130000e-06	1.317071e-06	4.335884e-10	9.171832e+00	2.786211e+01
2.140000e-06	1.362430e-06	4.509409e-10	9.487698e+00	2.927843e+01
2.150000e-06	1.407695e-06	4.675779e-10	9.802915e+00	3.067923e+01
2.160000e-06	1.452781e-06	4.839035e-10	1.011689e+01	3.206355e+01
2.170000e-06	1.497803e-06	5.024410e-10	1.043041e+01	3.343050e+01
2.180000e-06	1.542653e-06	5.229966e-10	1.074274e+01	3.477926e+01
2.190000e-06	1.587340e-06	5.441086e-10	1.105393e+01	3.610907e+01
2.200000e-06	1.631912e-06	5.660017e-10	1.136432e+01	3.741927e+01
2.210000e-06	1.676329e-06	5.849992e-10	1.167363e+01	3.870925e+01
2.220000e-06	1.720614e-06	6.006828e-10	1.198202e+01	3.997847e+01
2.230000e-06	1.764785e-06	6.133127e-10	1.228962e+01	4.122649e+01
2.240000e-06	1.808870e-06	6.263489e-10	1.259662e+01	4.245292e+01
2.250000e-06	1.852843e-06	6.404018e-10	1.290284e+01	4.365745e+01
2.260000e-06	1.896761e-06	6.584349e-10	1.320868e+01	4.483983e+01
2.270000e-06	1.940594e-06	6.782723e-10	1.351392e+01	4.599990e+01
2.280000e-06	1.984388e-06	6.956724e-10	1.381889e+01	4.713754e+01
2.290000e-06	2.028156e-06	7.106173e-10	1.412369e+01	4.825271e+01
2.300000e-06	2.071837e-06	7.231172e-10	1.442787e+01	4.934542e+01
2.310000e-06	2.115443e-06	7.315153e-10	1.473154e+01	5.041576e+01
2.320000e-06	2.158987e-06	7.417709e-10	1.503477e+01	5.146383e+01
2.330000e-06	2.202437e-06	7.574766e-10	1.533735e+01	5.248982e+01
2.340000e-06	2.245744e-06	7.754809e-10	1.563893e+01	5.349395e+01
2.350000e-06	2.288819e-06	7.927953e-10	1.593889e+01	5.447648e+01
2.360000e-06	2.331680e-06	8.089451e-10	1.623737e+01	5.543770e+01
2.370000e-06	2.374408e-06	8.220064e-10	1.653492e+01	5.637796e+01
2.380000e-06	2.416930e-06	8.304949e-10	1.683104e+01	5.729760e+01
2.390000e-06	2.459125e-06	8.398127e-10	1.712487e+01	5.819702e+01
2.400000e-06	2.500870e-06	8.495092e-10	1.741557e+01	5.907662e+01
2.410000e-06	2.542327e-06	8.621397e-10	1.770428e+01	5.993683e+01
2.420000e-06	2.583584e-06	8.767203e-10	1.799158e+01	6.077808e+01
2.430000e-06	2.624416e-06	8.900066e-10	1.827593e+01	6.160082e+01
2.440000e-06	2.664954e-06	9.020000e-10	1.855823e+01	6.240549e+01
2.450000e-06	2.705354e-06	9.125201e-10	1.883956e+01	6.319256e+01
2.460000e-06	2.745515e-06	9.226912e-10	1.911924e+01	6.396246e+01
2.470000e-06	2.785454e-06	9.329949e-10	1.939737e+01	6.471565e+01
2.480000e-06	2.825235e-06	9.411335e-10	1.967440e+01	6.545256e+01
2.490000e-06	2.864927e-06	9.472303e-10	1.995080e+01	6.617364e+01
2.500000e-06	2.904528e-06	9.552304e-10	2.022657e+01	6.687929e+01
2.510000e-06	2.944014e-06	9.682638e-10	2.050155e+01	6.756992e+01
2.520000e-06	2.983333e-06	9.821163e-10	2.077536e+01	6.824594e+01
2.530000e-06	3.022452e-06	9.946756e-10	2.104777e+01	6.890771e+01
2.540000e-06	3.061335e-06	1.006410e-09	2.131855e+01	6.955559e+01
2.550000e-06	3.099961e-06	1.016664e-09	2.158753e+01	7.018992e+01
2.560000e-06	3.138336e-06	1.022621e-09	2.185477e+01	7.081103e+01
2.570000e-06	3.176424e-06	1.026408e-09	2.212001e+01	7.141923e+01
2.580000e-06	3.214304e-06	1.033286e-09	2.238379e+01	7.201480e+01
2.590000e-06	3.252077e-06	1.045149e-09	2.264684e+01	7.259801e+01
2.600000e-06	3.289700e-06	1.058422e-09	2.290884e+01	7.316911e+01
2.610000e-06	3.327083e-06	1.068557e-09	2.316917e+01	7.372834e+01
2.620000e-06	3.364230e-06	1.076101e-09	2.342785e+01	7.427591e+01
2.630000e-06	3.401067e-06	1.083002e-09	2.368438e+01	7.481204e+01
2.640000e-06	3.437653e-06	1.087944e-09	2.393916e+01	7.533691e+01
2.650000e-06	3.473998e-06	1.092703e-09	2.419225e+01	7.585069e+01
2.660000e-06	3.510049e-06	1.102336e-09	2.444331e+01	7.635355e+01
2.670000e-06	3.545941e-06	1.112296e-09	2.469325e+01	7.684565e+01
2.680000e-06	3.581722e-06	1.120577e-09	2.494242e+01	7.732714e+01
2.690000e-06	3.617394e-06	1.126511e-09	2.519084e+01	7.779814e+01
2.700000e-06	3.652906e-06	1.128416e-09	2.543813e+01	7.825879e+01
2.710000e-06	3.688202e-06	1.129556e-09	2.568393e+01	7.870923e+01
2.720000e-06	3.723312e-06	1.135335e-09	2.592843e+01	7.914956e+01
2.730000e-06	3.758115e-06	1.141758e-09	2.617079e+01	7.957992e+01
2.740000e-06	3.792531e-06	1.145879e-09	2.641045e+01	8.000041e+01
2.750000e-06	3.826580e-06	1.150118e-09	2.664757e+01	8.041117e+01
2.760000e-06	3.860078e-06	1.154987e-09	2.688084e+01	8.081229e+01
2.770000e-06	3.892946e-06	1.159811e-09	2.710973e+01	8.120392e+01
2.780000e-06	3.925428e-06	1.163636e-09	2.733593e+01	8.158616e+01
2.790000e-06	3.957668e-06	1.168826e-09	2.756044e+01	8.195914e+01
2.800000e-06	3.989641e-06	1.172008e-09	2.778309e+01	8.232298e+01
2.810000e-06	4.021373e-06	1.173648e-09	2.800407e+01	8.267783e+01
2.820000e-06	4.052984e-06	1.174723e-09	2.822420e+01	8.302380e+01
2.830000e-06	4.084485e-06	1.177505e-09	2.844357e+01	8.336104e+01
2.840000e-06	4.115716e-06	1.184191e-09	2.866106e+01	8.368969e+01
2.850000e-06	4.146724e-06	1.189969e-09	2.887699e+01	8.400990e+01
2.860000e-06	4.177428e-06	1.194958e-09	2.909081e+01	8.432180e+01
2.870000e-06	4.207696e-06	1.198977e-09	2.930159e+01	8.462555e+01
2.880000e-06	4.237653e-06	1.200504e-09	2.951020e+01	8.492131e+01
2.890000e-06	4.267391e-06	1.199945e-09	2.971729e+01	8.520922e+01
2.900000e-06	4.296927e-06	1.199448e-09	2.992298e+01	8.548945e+01
