# Temperatura_=_-0.4
# Concentracion g/m^3_=_1620.0
# C_Vs_to_Am_M_A/Vsm_=_65563218390.804596
# pendiente_HvsI_1/m_=_3716.3
# ordenada_HvsI_A/m_=_1297.0
# frecuencia_Hz_=_135093.2875135388

Tiempo_(s)	Campo_(V.s)	Magnetizacion_(V.s)	Campo_(kA/m)	Magnetizacion_(A/m)
0.000000e+00	-5.523539e-06	-1.496643e-09	-3.838681e+01	-9.651235e+01
1.000000e-08	-5.523672e-06	-1.494899e-09	-3.838774e+01	-9.647220e+01
2.000000e-08	-5.523472e-06	-1.495235e-09	-3.838635e+01	-9.642854e+01
3.000000e-08	-5.522770e-06	-1.496052e-09	-3.838147e+01	-9.638132e+01
4.000000e-08	-5.521558e-06	-1.494756e-09	-3.837305e+01	-9.633050e+01
5.000000e-08	-5.519850e-06	-1.491712e-09	-3.836118e+01	-9.627606e+01
6.000000e-08	-5.517485e-06	-1.483757e-09	-3.834474e+01	-9.621797e+01
7.000000e-08	-5.514484e-06	-1.496590e-09	-3.832388e+01	-9.615624e+01
8.000000e-08	-5.511068e-06	-1.525486e-09	-3.830014e+01	-9.609088e+01
9.000000e-08	-5.507190e-06	-1.523293e-09	-3.827319e+01	-9.602189e+01
1.000000e-07	-5.502835e-06	-1.482057e-09	-3.824293e+01	-9.594931e+01
1.100000e-07	-5.498297e-06	-1.510250e-09	-3.821139e+01	-9.587318e+01
1.200000e-07	-5.493633e-06	-1.487285e-09	-3.817898e+01	-9.579355e+01
1.300000e-07	-5.488656e-06	-1.505155e-09	-3.814439e+01	-9.571049e+01
1.400000e-07	-5.483238e-06	-1.464146e-09	-3.810674e+01	-9.562407e+01
1.500000e-07	-5.477490e-06	-1.513608e-09	-3.806679e+01	-9.553437e+01
1.600000e-07	-5.471326e-06	-1.524931e-09	-3.802395e+01	-9.544147e+01
1.700000e-07	-5.464702e-06	-1.497405e-09	-3.797791e+01	-9.534548e+01
1.800000e-07	-5.457641e-06	-1.459999e-09	-3.792884e+01	-9.524650e+01
1.900000e-07	-5.450129e-06	-1.445038e-09	-3.787664e+01	-9.514462e+01
2.000000e-07	-5.442454e-06	-1.476591e-09	-3.782330e+01	-9.503997e+01
2.100000e-07	-5.434610e-06	-1.468609e-09	-3.776879e+01	-9.493264e+01
2.200000e-07	-5.426510e-06	-1.478759e-09	-3.771250e+01	-9.482276e+01
2.300000e-07	-5.418103e-06	-1.444379e-09	-3.765407e+01	-9.471043e+01
2.400000e-07	-5.409033e-06	-1.457427e-09	-3.759104e+01	-9.459574e+01
2.500000e-07	-5.399183e-06	-1.412653e-09	-3.752258e+01	-9.447882e+01
2.600000e-07	-5.388722e-06	-1.421703e-09	-3.744988e+01	-9.435974e+01
2.700000e-07	-5.377708e-06	-1.406945e-09	-3.737334e+01	-9.423861e+01
2.800000e-07	-5.366320e-06	-1.436082e-09	-3.729419e+01	-9.411549e+01
2.900000e-07	-5.354609e-06	-1.410936e-09	-3.721280e+01	-9.399046e+01
3.000000e-07	-5.342573e-06	-1.423010e-09	-3.712916e+01	-9.386357e+01
3.100000e-07	-5.330136e-06	-1.405914e-09	-3.704273e+01	-9.373488e+01
3.200000e-07	-5.317242e-06	-1.418869e-09	-3.695312e+01	-9.360441e+01
3.300000e-07	-5.303948e-06	-1.396205e-09	-3.686073e+01	-9.347218e+01
3.400000e-07	-5.290287e-06	-1.386293e-09	-3.676579e+01	-9.333821e+01
3.500000e-07	-5.276184e-06	-1.390415e-09	-3.666778e+01	-9.320247e+01
3.600000e-07	-5.261705e-06	-1.416784e-09	-3.656715e+01	-9.306494e+01
3.700000e-07	-5.246571e-06	-1.395370e-09	-3.646198e+01	-9.292559e+01
3.800000e-07	-5.230927e-06	-1.383683e-09	-3.635326e+01	-9.278436e+01
3.900000e-07	-5.214891e-06	-1.402526e-09	-3.624181e+01	-9.264118e+01
4.000000e-07	-5.198313e-06	-1.385062e-09	-3.612660e+01	-9.249597e+01
4.100000e-07	-5.181470e-06	-1.360465e-09	-3.600955e+01	-9.234863e+01
4.200000e-07	-5.164316e-06	-1.382550e-09	-3.589033e+01	-9.219904e+01
4.300000e-07	-5.146849e-06	-1.402272e-09	-3.576894e+01	-9.204710e+01
4.400000e-07	-5.129044e-06	-1.347124e-09	-3.564520e+01	-9.189266e+01
4.500000e-07	-5.110854e-06	-1.364087e-09	-3.551879e+01	-9.173559e+01
4.600000e-07	-5.092193e-06	-1.391852e-09	-3.538910e+01	-9.157573e+01
4.700000e-07	-5.073074e-06	-1.364120e-09	-3.525623e+01	-9.141293e+01
4.800000e-07	-5.053669e-06	-1.334365e-09	-3.512137e+01	-9.124702e+01
4.900000e-07	-5.034094e-06	-1.392922e-09	-3.498533e+01	-9.107785e+01
5.000000e-07	-5.014346e-06	-1.360172e-09	-3.484809e+01	-9.090524e+01
5.100000e-07	-4.994323e-06	-1.315601e-09	-3.470894e+01	-9.072903e+01
5.200000e-07	-4.973952e-06	-1.346095e-09	-3.456736e+01	-9.054906e+01
5.300000e-07	-4.953222e-06	-1.376388e-09	-3.442329e+01	-9.036515e+01
5.400000e-07	-4.932029e-06	-1.313547e-09	-3.427601e+01	-9.017716e+01
5.500000e-07	-4.910524e-06	-1.333896e-09	-3.412656e+01	-8.998492e+01
5.600000e-07	-4.888791e-06	-1.367614e-09	-3.397552e+01	-8.978831e+01
5.700000e-07	-4.866753e-06	-1.329781e-09	-3.382237e+01	-8.958719e+01
5.800000e-07	-4.844287e-06	-1.304863e-09	-3.366623e+01	-8.938142e+01
5.900000e-07	-4.821478e-06	-1.347285e-09	-3.350772e+01	-8.917091e+01
6.000000e-07	-4.798349e-06	-1.321829e-09	-3.334698e+01	-8.895556e+01
6.100000e-07	-4.774913e-06	-1.298014e-09	-3.318411e+01	-8.873527e+01
6.200000e-07	-4.751277e-06	-1.328397e-09	-3.301984e+01	-8.850999e+01
6.300000e-07	-4.727427e-06	-1.333055e-09	-3.285410e+01	-8.827966e+01
6.400000e-07	-4.703306e-06	-1.300671e-09	-3.268646e+01	-8.804423e+01
6.500000e-07	-4.678772e-06	-1.311695e-09	-3.251596e+01	-8.780368e+01
6.600000e-07	-4.653824e-06	-1.309515e-09	-3.234258e+01	-8.755802e+01
6.700000e-07	-4.628282e-06	-1.279255e-09	-3.216507e+01	-8.730723e+01
6.800000e-07	-4.602059e-06	-1.284448e-09	-3.198283e+01	-8.705135e+01
6.900000e-07	-4.575305e-06	-1.293802e-09	-3.179689e+01	-8.679041e+01
7.000000e-07	-4.548177e-06	-1.281735e-09	-3.160836e+01	-8.652447e+01
7.100000e-07	-4.520748e-06	-1.277171e-09	-3.141774e+01	-8.625357e+01
7.200000e-07	-4.493112e-06	-1.288292e-09	-3.122568e+01	-8.597781e+01
7.300000e-07	-4.465407e-06	-1.272834e-09	-3.103314e+01	-8.569725e+01
7.400000e-07	-4.437593e-06	-1.261971e-09	-3.083984e+01	-8.541200e+01
7.500000e-07	-4.409554e-06	-1.254097e-09	-3.064498e+01	-8.512215e+01
7.600000e-07	-4.381110e-06	-1.248071e-09	-3.044730e+01	-8.482780e+01
7.700000e-07	-4.352265e-06	-1.237354e-09	-3.024684e+01	-8.452908e+01
7.800000e-07	-4.323165e-06	-1.244748e-09	-3.004461e+01	-8.422608e+01
7.900000e-07	-4.293768e-06	-1.240279e-09	-2.984030e+01	-8.391893e+01
8.000000e-07	-4.264061e-06	-1.235340e-09	-2.963385e+01	-8.360773e+01
8.100000e-07	-4.234011e-06	-1.223702e-09	-2.942501e+01	-8.329260e+01
8.200000e-07	-4.203690e-06	-1.217213e-09	-2.921429e+01	-8.297363e+01
8.300000e-07	-4.173086e-06	-1.198016e-09	-2.900160e+01	-8.265092e+01
8.400000e-07	-4.142127e-06	-1.192416e-09	-2.878645e+01	-8.232457e+01
8.500000e-07	-4.110887e-06	-1.190617e-09	-2.856934e+01	-8.199466e+01
8.600000e-07	-4.079447e-06	-1.192076e-09	-2.835084e+01	-8.166125e+01
8.700000e-07	-4.047855e-06	-1.185494e-09	-2.813129e+01	-8.132442e+01
8.800000e-07	-4.016085e-06	-1.187463e-09	-2.791050e+01	-8.098419e+01
8.900000e-07	-3.984200e-06	-1.178680e-09	-2.768891e+01	-8.064061e+01
9.000000e-07	-3.952028e-06	-1.162571e-09	-2.746532e+01	-8.029369e+01
9.100000e-07	-3.919402e-06	-1.150913e-09	-2.723858e+01	-7.994345e+01
9.200000e-07	-3.886442e-06	-1.145662e-09	-2.700952e+01	-7.958986e+01
9.300000e-07	-3.853133e-06	-1.136126e-09	-2.677803e+01	-7.923291e+01
9.400000e-07	-3.819270e-06	-1.131767e-09	-2.654269e+01	-7.887255e+01
9.500000e-07	-3.784873e-06	-1.133617e-09	-2.630364e+01	-7.850872e+01
9.600000e-07	-3.750093e-06	-1.126430e-09	-2.606194e+01	-7.814136e+01
9.700000e-07	-3.714974e-06	-1.115962e-09	-2.581787e+01	-7.777038e+01
9.800000e-07	-3.679634e-06	-1.112158e-09	-2.557227e+01	-7.739568e+01
9.900000e-07	-3.644140e-06	-1.107350e-09	-2.532560e+01	-7.701717e+01
1.000000e-06	-3.608501e-06	-1.094265e-09	-2.507792e+01	-7.663471e+01
1.010000e-06	-3.572705e-06	-1.090768e-09	-2.482915e+01	-7.624818e+01
1.020000e-06	-3.536711e-06	-1.087942e-09	-2.457900e+01	-7.585744e+01
1.030000e-06	-3.500544e-06	-1.082299e-09	-2.432765e+01	-7.546235e+01
1.040000e-06	-3.464228e-06	-1.076344e-09	-2.407527e+01	-7.506276e+01
1.050000e-06	-3.427643e-06	-1.077100e-09	-2.382101e+01	-7.465853e+01
1.060000e-06	-3.390685e-06	-1.069570e-09	-2.356417e+01	-7.424949e+01
1.070000e-06	-3.353408e-06	-1.062508e-09	-2.330510e+01	-7.383549e+01
1.080000e-06	-3.315915e-06	-1.057672e-09	-2.304454e+01	-7.341639e+01
1.090000e-06	-3.278298e-06	-1.049794e-09	-2.278311e+01	-7.299203e+01
1.100000e-06	-3.240451e-06	-1.035895e-09	-2.252009e+01	-7.256227e+01
1.110000e-06	-3.202390e-06	-1.031787e-09	-2.225558e+01	-7.212698e+01
1.120000e-06	-3.164147e-06	-1.026484e-09	-2.198980e+01	-7.168602e+01
1.130000e-06	-3.125528e-06	-1.021089e-09	-2.172141e+01	-7.123927e+01
1.140000e-06	-3.086574e-06	-1.013307e-09	-2.145070e+01	-7.078662e+01
1.150000e-06	-3.047498e-06	-1.008537e-09	-2.117913e+01	-7.032797e+01
1.160000e-06	-3.008357e-06	-9.997067e-10	-2.090711e+01	-6.986323e+01
1.170000e-06	-2.969112e-06	-9.910972e-10	-2.063437e+01	-6.939232e+01
1.180000e-06	-2.929682e-06	-9.845038e-10	-2.036034e+01	-6.891516e+01
1.190000e-06	-2.890111e-06	-9.791482e-10	-2.008534e+01	-6.843171e+01
1.200000e-06	-2.850454e-06	-9.710855e-10	-1.980974e+01	-6.794192e+01
1.210000e-06	-2.810613e-06	-9.637554e-10	-1.953286e+01	-6.744576e+01
1.220000e-06	-2.770552e-06	-9.543688e-10	-1.925444e+01	-6.694319e+01
1.230000e-06	-2.730342e-06	-9.428485e-10	-1.897499e+01	-6.643420e+01
1.240000e-06	-2.689958e-06	-9.319421e-10	-1.869434e+01	-6.591878e+01
1.250000e-06	-2.649422e-06	-9.245188e-10	-1.841263e+01	-6.539694e+01
1.260000e-06	-2.608689e-06	-9.193041e-10	-1.812955e+01	-6.486865e+01
1.270000e-06	-2.567620e-06	-9.132692e-10	-1.784413e+01	-6.433394e+01
1.280000e-06	-2.526237e-06	-9.066652e-10	-1.755653e+01	-6.379280e+01
1.290000e-06	-2.484567e-06	-8.964844e-10	-1.726694e+01	-6.324524e+01
1.300000e-06	-2.442512e-06	-8.837796e-10	-1.697467e+01	-6.269124e+01
1.310000e-06	-2.400076e-06	-8.716765e-10	-1.667976e+01	-6.213079e+01
1.320000e-06	-2.357344e-06	-8.631851e-10	-1.638278e+01	-6.156388e+01
1.330000e-06	-2.314315e-06	-8.562729e-10	-1.608374e+01	-6.099047e+01
1.340000e-06	-2.271134e-06	-8.495239e-10	-1.578365e+01	-6.041051e+01
1.350000e-06	-2.227844e-06	-8.407407e-10	-1.548280e+01	-5.982393e+01
1.360000e-06	-2.184465e-06	-8.325862e-10	-1.518132e+01	-5.923064e+01
1.370000e-06	-2.140968e-06	-8.207869e-10	-1.487904e+01	-5.863055e+01
1.380000e-06	-2.097322e-06	-8.088563e-10	-1.457571e+01	-5.802350e+01
1.390000e-06	-2.053636e-06	-7.973512e-10	-1.427211e+01	-5.740934e+01
1.400000e-06	-2.009916e-06	-7.873803e-10	-1.396827e+01	-5.678788e+01
1.410000e-06	-1.966056e-06	-7.773706e-10	-1.366345e+01	-5.615890e+01
1.420000e-06	-1.922066e-06	-7.697892e-10	-1.335774e+01	-5.552214e+01
1.430000e-06	-1.878063e-06	-7.600682e-10	-1.305193e+01	-5.487731e+01
1.440000e-06	-1.833975e-06	-7.509586e-10	-1.274553e+01	-5.422409e+01
1.450000e-06	-1.789657e-06	-7.385644e-10	-1.243754e+01	-5.356213e+01
1.460000e-06	-1.745231e-06	-7.276055e-10	-1.212879e+01	-5.289103e+01
1.470000e-06	-1.700788e-06	-7.155038e-10	-1.181992e+01	-5.221036e+01
1.480000e-06	-1.656210e-06	-7.046321e-10	-1.151013e+01	-5.151966e+01
1.490000e-06	-1.611455e-06	-6.951197e-10	-1.119910e+01	-5.081844e+01
1.500000e-06	-1.566553e-06	-6.858403e-10	-1.088704e+01	-5.010617e+01
1.510000e-06	-1.521520e-06	-6.745489e-10	-1.057408e+01	-4.938228e+01
1.520000e-06	-1.476318e-06	-6.607693e-10	-1.025994e+01	-4.864620e+01
1.530000e-06	-1.430997e-06	-6.472809e-10	-9.944965e+00	-4.789732e+01
1.540000e-06	-1.385625e-06	-6.365410e-10	-9.629644e+00	-4.713499e+01
1.550000e-06	-1.340198e-06	-6.231421e-10	-9.313943e+00	-4.635856e+01
1.560000e-06	-1.294663e-06	-6.113746e-10	-8.997492e+00	-4.556738e+01
1.570000e-06	-1.248954e-06	-6.019966e-10	-8.679826e+00	-4.476074e+01
1.580000e-06	-1.203138e-06	-5.891167e-10	-8.361424e+00	-4.393798e+01
1.590000e-06	-1.157327e-06	-5.747183e-10	-8.043048e+00	-4.309840e+01
1.600000e-06	-1.111448e-06	-5.590125e-10	-7.724203e+00	-4.224131e+01
1.610000e-06	-1.065478e-06	-5.432122e-10	-7.404727e+00	-4.136604e+01
1.620000e-06	-1.019463e-06	-5.259239e-10	-7.084942e+00	-4.047191e+01
1.630000e-06	-9.733548e-07	-5.139295e-10	-6.764502e+00	-3.955828e+01
1.640000e-06	-9.272077e-07	-5.060137e-10	-6.443795e+00	-3.862453e+01
1.650000e-06	-8.809435e-07	-4.969168e-10	-6.122274e+00	-3.767005e+01
1.660000e-06	-8.345339e-07	-4.830737e-10	-5.799741e+00	-3.669429e+01
1.670000e-06	-7.881629e-07	-4.666621e-10	-5.477478e+00	-3.569673e+01
1.680000e-06	-7.417131e-07	-4.466624e-10	-5.154667e+00	-3.467688e+01
1.690000e-06	-6.951983e-07	-4.275905e-10	-4.831404e+00	-3.363434e+01
1.700000e-06	-6.487266e-07	-4.107899e-10	-4.508441e+00	-3.256871e+01
1.710000e-06	-6.021999e-07	-3.958913e-10	-4.185095e+00	-3.147970e+01
1.720000e-06	-5.555543e-07	-3.790089e-10	-3.860923e+00	-3.036706e+01
1.730000e-06	-5.087447e-07	-3.618729e-10	-3.535612e+00	-2.923061e+01
1.740000e-06	-4.619010e-07	-3.424778e-10	-3.210063e+00	-2.807025e+01
1.750000e-06	-4.150645e-07	-3.228060e-10	-2.884565e+00	-2.688594e+01
1.760000e-06	-3.682664e-07	-3.047264e-10	-2.559333e+00	-2.567773e+01
1.770000e-06	-3.215308e-07	-2.893572e-10	-2.234535e+00	-2.444576e+01
1.780000e-06	-2.746838e-07	-2.736873e-10	-1.908964e+00	-2.319023e+01
1.790000e-06	-2.277176e-07	-2.581363e-10	-1.582564e+00	-2.191144e+01
1.800000e-06	-1.808154e-07	-2.408125e-10	-1.256609e+00	-2.060977e+01
1.810000e-06	-1.339810e-07	-2.179649e-10	-9.311248e-01	-1.928568e+01
1.820000e-06	-8.715872e-08	-1.962015e-10	-6.057250e-01	-1.793972e+01
1.830000e-06	-4.037732e-08	-1.733980e-10	-2.806094e-01	-1.657252e+01
1.840000e-06	6.436443e-09	-1.557326e-10	4.473120e-02	-1.518480e+01
1.850000e-06	5.328854e-08	-1.431309e-10	3.703382e-01	-1.377735e+01
1.860000e-06	1.000752e-07	-1.281551e-10	6.954906e-01	-1.235104e+01
1.870000e-06	1.469600e-07	-1.081559e-10	1.021325e+00	-1.090682e+01
1.880000e-06	1.939573e-07	-8.435565e-11	1.347941e+00	-9.445702e+00
1.890000e-06	2.408616e-07	-5.951068e-11	1.673910e+00	-7.968777e+00
1.900000e-06	2.877087e-07	-3.408418e-11	1.999483e+00	-6.477187e+00
1.910000e-06	3.345050e-07	-1.362683e-11	2.324702e+00	-4.972137e+00
1.920000e-06	3.811977e-07	4.473909e-12	2.649201e+00	-3.454883e+00
1.930000e-06	4.278264e-07	2.028858e-11	2.973256e+00	-1.926728e+00
1.940000e-06	4.744663e-07	3.798188e-11	3.297388e+00	-3.890151e-01
1.950000e-06	5.211040e-07	5.818900e-11	3.621505e+00	1.156877e+00
1.960000e-06	5.676540e-07	8.080208e-11	3.945012e+00	2.709543e+00
1.970000e-06	6.141103e-07	1.082107e-10	4.267869e+00	4.267553e+00
1.980000e-06	6.605828e-07	1.338118e-10	4.590837e+00	5.829465e+00
1.990000e-06	7.070733e-07	1.541990e-10	4.913932e+00	7.393827e+00
2.000000e-06	7.534893e-07	1.724569e-10	5.236508e+00	8.959185e+00
2.010000e-06	7.997720e-07	1.881241e-10	5.558157e+00	1.052409e+01
2.020000e-06	8.459392e-07	2.044536e-10	5.879004e+00	1.208711e+01
2.030000e-06	8.920707e-07	2.254669e-10	6.199604e+00	1.364681e+01
2.040000e-06	9.382215e-07	2.497346e-10	6.520337e+00	1.520181e+01
2.050000e-06	9.843246e-07	2.765945e-10	6.840739e+00	1.675073e+01
2.060000e-06	1.030290e-06	3.042048e-10	7.160183e+00	1.829225e+01
2.070000e-06	1.076129e-06	3.291196e-10	7.478752e+00	1.982508e+01
2.080000e-06	1.121916e-06	3.484092e-10	7.796956e+00	2.134796e+01
2.090000e-06	1.167668e-06	3.667052e-10	8.114919e+00	2.285971e+01
2.100000e-06	1.213349e-06	3.840403e-10	8.432387e+00	2.435917e+01
2.110000e-06	1.258923e-06	4.019922e-10	8.749110e+00	2.584528e+01
2.120000e-06	1.304453e-06	4.198869e-10	9.065527e+00	2.731701e+01
2.130000e-06	1.349964e-06	4.416769e-10	9.381817e+00	2.877340e+01
2.140000e-06	1.395321e-06	4.661951e-10	9.697030e+00	3.021355e+01
2.150000e-06	1.440539e-06	4.883546e-10	1.001128e+01	3.163665e+01
2.160000e-06	1.485696e-06	5.076326e-10	1.032511e+01	3.304195e+01
2.170000e-06	1.530742e-06	5.248099e-10	1.063816e+01	3.442875e+01
2.180000e-06	1.575674e-06	5.402118e-10	1.095043e+01	3.579645e+01
2.190000e-06	1.620460e-06	5.555883e-10	1.126167e+01	3.714449e+01
2.200000e-06	1.665103e-06	5.722430e-10	1.157193e+01	3.847242e+01
2.210000e-06	1.709723e-06	5.908492e-10	1.188202e+01	3.977983e+01
2.220000e-06	1.754203e-06	6.098976e-10	1.219114e+01	4.106637e+01
2.230000e-06	1.798431e-06	6.296086e-10	1.249852e+01	4.233179e+01
2.240000e-06	1.842490e-06	6.487883e-10	1.280471e+01	4.357586e+01
2.250000e-06	1.886487e-06	6.647097e-10	1.311048e+01	4.479845e+01
2.260000e-06	1.930409e-06	6.792402e-10	1.341572e+01	4.599947e+01
2.270000e-06	1.974178e-06	6.920612e-10	1.371990e+01	4.717888e+01
2.280000e-06	2.017875e-06	7.066190e-10	1.402358e+01	4.833670e+01
2.290000e-06	2.061564e-06	7.222764e-10	1.432721e+01	4.947300e+01
2.300000e-06	2.105274e-06	7.376270e-10	1.463098e+01	5.058789e+01
2.310000e-06	2.148873e-06	7.530410e-10	1.493397e+01	5.168151e+01
2.320000e-06	2.192280e-06	7.690896e-10	1.523564e+01	5.275406e+01
2.330000e-06	2.235634e-06	7.860181e-10	1.553693e+01	5.380577e+01
2.340000e-06	2.278895e-06	8.019301e-10	1.583758e+01	5.483687e+01
2.350000e-06	2.321866e-06	8.148290e-10	1.613622e+01	5.584764e+01
2.360000e-06	2.364553e-06	8.269231e-10	1.643288e+01	5.683839e+01
2.370000e-06	2.407079e-06	8.392654e-10	1.672842e+01	5.780942e+01
2.380000e-06	2.449349e-06	8.537334e-10	1.702219e+01	5.876107e+01
2.390000e-06	2.491288e-06	8.694410e-10	1.731365e+01	5.969368e+01
2.400000e-06	2.533015e-06	8.837590e-10	1.760364e+01	6.060759e+01
2.410000e-06	2.574494e-06	8.976158e-10	1.789191e+01	6.150316e+01
2.420000e-06	2.615653e-06	9.118143e-10	1.817794e+01	6.238074e+01
2.430000e-06	2.656434e-06	9.258245e-10	1.846136e+01	6.324069e+01
2.440000e-06	2.696801e-06	9.358946e-10	1.874189e+01	6.408336e+01
2.450000e-06	2.736979e-06	9.443433e-10	1.902112e+01	6.490909e+01
2.460000e-06	2.777099e-06	9.544692e-10	1.929994e+01	6.571823e+01
2.470000e-06	2.817112e-06	9.665405e-10	1.957802e+01	6.651110e+01
2.480000e-06	2.856937e-06	9.781701e-10	1.985479e+01	6.728804e+01
2.490000e-06	2.896576e-06	9.895533e-10	2.013027e+01	6.804934e+01
2.500000e-06	2.936051e-06	1.001530e-09	2.040461e+01	6.879532e+01
2.510000e-06	2.975382e-06	1.012789e-09	2.067794e+01	6.952627e+01
2.520000e-06	3.014631e-06	1.021940e-09	2.095071e+01	7.024245e+01
2.530000e-06	3.053672e-06	1.029993e-09	2.122204e+01	7.094415e+01
2.540000e-06	3.092454e-06	1.039565e-09	2.149156e+01	7.163161e+01
2.550000e-06	3.131005e-06	1.049791e-09	2.175948e+01	7.230508e+01
2.560000e-06	3.169250e-06	1.058344e-09	2.202527e+01	7.296479e+01
2.570000e-06	3.207276e-06	1.067471e-09	2.228953e+01	7.361097e+01
2.580000e-06	3.245186e-06	1.078907e-09	2.255300e+01	7.424382e+01
2.590000e-06	3.282956e-06	1.089703e-09	2.281548e+01	7.486357e+01
2.600000e-06	3.320560e-06	1.098235e-09	2.307682e+01	7.547039e+01
2.610000e-06	3.357922e-06	1.104724e-09	2.333648e+01	7.606450e+01
2.620000e-06	3.395046e-06	1.111661e-09	2.359448e+01	7.664608e+01
2.630000e-06	3.431909e-06	1.118211e-09	2.385066e+01	7.721530e+01
2.640000e-06	3.468475e-06	1.123938e-09	2.410478e+01	7.777235e+01
2.650000e-06	3.504771e-06	1.133067e-09	2.435702e+01	7.831741e+01
2.660000e-06	3.540817e-06	1.144081e-09	2.460754e+01	7.885066e+01
2.670000e-06	3.576740e-06	1.152888e-09	2.485719e+01	7.937227e+01
2.680000e-06	3.612528e-06	1.158990e-09	2.510590e+01	7.988242e+01
2.690000e-06	3.648119e-06	1.163246e-09	2.535325e+01	8.038129e+01
2.700000e-06	3.683540e-06	1.168185e-09	2.559941e+01	8.086906e+01
2.710000e-06	3.718773e-06	1.175620e-09	2.584427e+01	8.134591e+01
2.720000e-06	3.753749e-06	1.184820e-09	2.608734e+01	8.181204e+01
2.730000e-06	3.788432e-06	1.193004e-09	2.632838e+01	8.226762e+01
2.740000e-06	3.822713e-06	1.198543e-09	2.656662e+01	8.271286e+01
2.750000e-06	3.856479e-06	1.203427e-09	2.680129e+01	8.314794e+01
2.760000e-06	3.889713e-06	1.207272e-09	2.703225e+01	8.357307e+01
2.770000e-06	3.922412e-06	1.210099e-09	2.725950e+01	8.398846e+01
2.780000e-06	3.954733e-06	1.216017e-09	2.748412e+01	8.439429e+01
2.790000e-06	3.986815e-06	1.223733e-09	2.770708e+01	8.479078e+01
2.800000e-06	4.018709e-06	1.230376e-09	2.792873e+01	8.517814e+01
2.810000e-06	4.050424e-06	1.234452e-09	2.814914e+01	8.555658e+01
2.820000e-06	4.081977e-06	1.236806e-09	2.836842e+01	8.592629e+01
2.830000e-06	4.113397e-06	1.239611e-09	2.858678e+01	8.628750e+01
2.840000e-06	4.144610e-06	1.243442e-09	2.880370e+01	8.664041e+01
2.850000e-06	4.175572e-06	1.249819e-09	2.901888e+01	8.698521e+01
2.860000e-06	4.206256e-06	1.256257e-09	2.923212e+01	8.732211e+01
2.870000e-06	4.236578e-06	1.260233e-09	2.944285e+01	8.765130e+01
2.880000e-06	4.266552e-06	1.261300e-09	2.965116e+01	8.797298e+01
2.890000e-06	4.296202e-06	1.261978e-09	2.985722e+01	8.828732e+01
2.900000e-06	4.325539e-06	1.266555e-09	3.006110e+01	8.859451e+01
