# Temperatura_=_-0.3
# Concentracion g/m^3_=_1620.0
# C_Vs_to_Am_M_A/Vsm_=_65563218390.804596
# pendiente_HvsI_1/m_=_3716.3
# ordenada_HvsI_A/m_=_1297.0
# frecuencia_Hz_=_135104.51257688215

Tiempo_(s)	Campo_(V.s)	Magnetizacion_(V.s)	Campo_(kA/m)	Magnetizacion_(A/m)
0.000000e+00	-5.503272e-06	-1.510224e-09	-3.836510e+01	-9.728119e+01
1.000000e-08	-5.503565e-06	-1.510384e-09	-3.836714e+01	-9.724593e+01
2.000000e-08	-5.503659e-06	-1.506820e-09	-3.836780e+01	-9.720774e+01
3.000000e-08	-5.503428e-06	-1.501787e-09	-3.836619e+01	-9.716665e+01
4.000000e-08	-5.502704e-06	-1.496935e-09	-3.836114e+01	-9.712267e+01
5.000000e-08	-5.501338e-06	-1.493771e-09	-3.835161e+01	-9.707584e+01
6.000000e-08	-5.499336e-06	-1.498707e-09	-3.833766e+01	-9.702616e+01
7.000000e-08	-5.496819e-06	-1.509270e-09	-3.832012e+01	-9.697364e+01
8.000000e-08	-5.493860e-06	-1.529004e-09	-3.829949e+01	-9.691828e+01
9.000000e-08	-5.490512e-06	-1.513986e-09	-3.827614e+01	-9.686007e+01
1.000000e-07	-5.486739e-06	-1.445735e-09	-3.824984e+01	-9.679900e+01
1.100000e-07	-5.482504e-06	-1.400892e-09	-3.822032e+01	-9.673505e+01
1.200000e-07	-5.478033e-06	-1.507620e-09	-3.818915e+01	-9.666818e+01
1.300000e-07	-5.473330e-06	-1.553126e-09	-3.815637e+01	-9.659839e+01
1.400000e-07	-5.468254e-06	-1.513474e-09	-3.812098e+01	-9.652561e+01
1.500000e-07	-5.462831e-06	-1.397348e-09	-3.808317e+01	-9.644983e+01
1.600000e-07	-5.457090e-06	-1.481017e-09	-3.804315e+01	-9.637100e+01
1.700000e-07	-5.450989e-06	-1.550299e-09	-3.800062e+01	-9.628907e+01
1.800000e-07	-5.444379e-06	-1.506367e-09	-3.795454e+01	-9.620399e+01
1.900000e-07	-5.437368e-06	-1.408224e-09	-3.790566e+01	-9.611572e+01
2.000000e-07	-5.430133e-06	-1.440595e-09	-3.785523e+01	-9.602420e+01
2.100000e-07	-5.422626e-06	-1.536064e-09	-3.780289e+01	-9.592939e+01
2.200000e-07	-5.414739e-06	-1.519907e-09	-3.774791e+01	-9.583123e+01
2.300000e-07	-5.406509e-06	-1.452278e-09	-3.769054e+01	-9.572968e+01
2.400000e-07	-5.397874e-06	-1.420629e-09	-3.763033e+01	-9.562468e+01
2.500000e-07	-5.388612e-06	-1.482091e-09	-3.756577e+01	-9.551618e+01
2.600000e-07	-5.378716e-06	-1.463584e-09	-3.749678e+01	-9.540414e+01
2.700000e-07	-5.368298e-06	-1.446980e-09	-3.742415e+01	-9.528851e+01
2.800000e-07	-5.357382e-06	-1.420402e-09	-3.734806e+01	-9.516925e+01
2.900000e-07	-5.346004e-06	-1.467454e-09	-3.726874e+01	-9.504632e+01
3.000000e-07	-5.334233e-06	-1.440689e-09	-3.718667e+01	-9.491967e+01
3.100000e-07	-5.322138e-06	-1.424649e-09	-3.710236e+01	-9.478928e+01
3.200000e-07	-5.309644e-06	-1.404537e-09	-3.701525e+01	-9.465510e+01
3.300000e-07	-5.296689e-06	-1.462513e-09	-3.692495e+01	-9.451711e+01
3.400000e-07	-5.283392e-06	-1.441814e-09	-3.683224e+01	-9.437528e+01
3.500000e-07	-5.269627e-06	-1.410470e-09	-3.673629e+01	-9.422958e+01
3.600000e-07	-5.255355e-06	-1.403154e-09	-3.663679e+01	-9.407998e+01
3.700000e-07	-5.240678e-06	-1.454925e-09	-3.653447e+01	-9.392646e+01
3.800000e-07	-5.225594e-06	-1.418212e-09	-3.642932e+01	-9.376900e+01
3.900000e-07	-5.210031e-06	-1.399720e-09	-3.632082e+01	-9.360757e+01
4.000000e-07	-5.193965e-06	-1.433542e-09	-3.620882e+01	-9.344216e+01
4.100000e-07	-5.177601e-06	-1.436567e-09	-3.609474e+01	-9.327274e+01
4.200000e-07	-5.160879e-06	-1.387363e-09	-3.597816e+01	-9.309930e+01
4.300000e-07	-5.143757e-06	-1.416272e-09	-3.585880e+01	-9.292181e+01
4.400000e-07	-5.126406e-06	-1.459657e-09	-3.573784e+01	-9.274026e+01
4.500000e-07	-5.108698e-06	-1.384472e-09	-3.561440e+01	-9.255461e+01
4.600000e-07	-5.090398e-06	-1.357135e-09	-3.548682e+01	-9.236484e+01
4.700000e-07	-5.071637e-06	-1.416955e-09	-3.535603e+01	-9.217093e+01
4.800000e-07	-5.052658e-06	-1.415196e-09	-3.522372e+01	-9.197285e+01
4.900000e-07	-5.033408e-06	-1.348747e-09	-3.508953e+01	-9.177057e+01
5.000000e-07	-5.013861e-06	-1.399978e-09	-3.495326e+01	-9.156406e+01
5.100000e-07	-4.994095e-06	-1.410805e-09	-3.481546e+01	-9.135327e+01
5.200000e-07	-4.974004e-06	-1.353304e-09	-3.467540e+01	-9.113816e+01
5.300000e-07	-4.953468e-06	-1.359028e-09	-3.453224e+01	-9.091871e+01
5.400000e-07	-4.932668e-06	-1.412490e-09	-3.438724e+01	-9.069485e+01
5.500000e-07	-4.911586e-06	-1.335735e-09	-3.424027e+01	-9.046654e+01
5.600000e-07	-4.890151e-06	-1.314793e-09	-3.409084e+01	-9.023373e+01
5.700000e-07	-4.868433e-06	-1.375001e-09	-3.393943e+01	-8.999637e+01
5.800000e-07	-4.846384e-06	-1.369145e-09	-3.378572e+01	-8.975439e+01
5.900000e-07	-4.823933e-06	-1.309170e-09	-3.362920e+01	-8.950773e+01
6.000000e-07	-4.801118e-06	-1.355405e-09	-3.347015e+01	-8.925634e+01
6.100000e-07	-4.778031e-06	-1.361805e-09	-3.330921e+01	-8.900016e+01
6.200000e-07	-4.754719e-06	-1.313500e-09	-3.314669e+01	-8.873910e+01
6.300000e-07	-4.731150e-06	-1.315443e-09	-3.298238e+01	-8.847312e+01
6.400000e-07	-4.707277e-06	-1.345322e-09	-3.281596e+01	-8.820213e+01
6.500000e-07	-4.683065e-06	-1.307883e-09	-3.264717e+01	-8.792609e+01
6.600000e-07	-4.658452e-06	-1.303406e-09	-3.247558e+01	-8.764491e+01
6.700000e-07	-4.633372e-06	-1.324095e-09	-3.230074e+01	-8.735854e+01
6.800000e-07	-4.607759e-06	-1.303796e-09	-3.212219e+01	-8.706692e+01
6.900000e-07	-4.581614e-06	-1.287032e-09	-3.193992e+01	-8.676997e+01
7.000000e-07	-4.555027e-06	-1.308439e-09	-3.175458e+01	-8.646765e+01
7.100000e-07	-4.528154e-06	-1.296884e-09	-3.156723e+01	-8.615990e+01
7.200000e-07	-4.500913e-06	-1.270959e-09	-3.137733e+01	-8.584667e+01
7.300000e-07	-4.473357e-06	-1.283157e-09	-3.118523e+01	-8.552791e+01
7.400000e-07	-4.445635e-06	-1.282360e-09	-3.099197e+01	-8.520358e+01
7.500000e-07	-4.417723e-06	-1.259291e-09	-3.079738e+01	-8.487365e+01
7.600000e-07	-4.389577e-06	-1.254718e-09	-3.060117e+01	-8.453808e+01
7.700000e-07	-4.361132e-06	-1.261310e-09	-3.040287e+01	-8.419686e+01
7.800000e-07	-4.332351e-06	-1.240200e-09	-3.020223e+01	-8.384996e+01
7.900000e-07	-4.303211e-06	-1.237645e-09	-2.999909e+01	-8.349737e+01
8.000000e-07	-4.273809e-06	-1.240482e-09	-2.979411e+01	-8.313909e+01
8.100000e-07	-4.244233e-06	-1.226905e-09	-2.958793e+01	-8.277513e+01
8.200000e-07	-4.214354e-06	-1.206275e-09	-2.937963e+01	-8.240548e+01
8.300000e-07	-4.184039e-06	-1.213591e-09	-2.916829e+01	-8.203017e+01
8.400000e-07	-4.153388e-06	-1.199508e-09	-2.895462e+01	-8.164922e+01
8.500000e-07	-4.122503e-06	-1.187317e-09	-2.873931e+01	-8.126266e+01
8.600000e-07	-4.091339e-06	-1.190072e-09	-2.852205e+01	-8.087053e+01
8.700000e-07	-4.059973e-06	-1.194516e-09	-2.830339e+01	-8.047287e+01
8.800000e-07	-4.028471e-06	-1.174426e-09	-2.808378e+01	-8.006972e+01
8.900000e-07	-3.996784e-06	-1.174378e-09	-2.786288e+01	-7.966115e+01
9.000000e-07	-3.964887e-06	-1.171149e-09	-2.764052e+01	-7.924721e+01
9.100000e-07	-3.932744e-06	-1.152553e-09	-2.741644e+01	-7.882797e+01
9.200000e-07	-3.900209e-06	-1.141086e-09	-2.718963e+01	-7.840349e+01
9.300000e-07	-3.867218e-06	-1.145634e-09	-2.695963e+01	-7.797385e+01
9.400000e-07	-3.833738e-06	-1.131867e-09	-2.672623e+01	-7.753911e+01
9.500000e-07	-3.799805e-06	-1.118373e-09	-2.648968e+01	-7.709937e+01
9.600000e-07	-3.765586e-06	-1.119403e-09	-2.625112e+01	-7.665468e+01
9.700000e-07	-3.731003e-06	-1.115134e-09	-2.601004e+01	-7.620514e+01
9.800000e-07	-3.696025e-06	-1.101314e-09	-2.576619e+01	-7.575083e+01
9.900000e-07	-3.660784e-06	-1.102040e-09	-2.552051e+01	-7.529182e+01
1.000000e-06	-3.625363e-06	-1.103439e-09	-2.527358e+01	-7.482818e+01
1.010000e-06	-3.589777e-06	-1.090177e-09	-2.502550e+01	-7.436001e+01
1.020000e-06	-3.554032e-06	-1.083318e-09	-2.477631e+01	-7.388737e+01
1.030000e-06	-3.518135e-06	-1.078711e-09	-2.452606e+01	-7.341033e+01
1.040000e-06	-3.482039e-06	-1.065749e-09	-2.427443e+01	-7.292897e+01
1.050000e-06	-3.445683e-06	-1.056029e-09	-2.402098e+01	-7.244335e+01
1.060000e-06	-3.409109e-06	-1.057852e-09	-2.376601e+01	-7.195352e+01
1.070000e-06	-3.372304e-06	-1.048271e-09	-2.350943e+01	-7.145955e+01
1.080000e-06	-3.335175e-06	-1.036228e-09	-2.325059e+01	-7.096148e+01
1.090000e-06	-3.297726e-06	-1.030305e-09	-2.298952e+01	-7.045936e+01
1.100000e-06	-3.260098e-06	-1.025290e-09	-2.272720e+01	-6.995322e+01
1.110000e-06	-3.222329e-06	-1.009256e-09	-2.246390e+01	-6.944310e+01
1.120000e-06	-3.184327e-06	-1.003570e-09	-2.219898e+01	-6.892903e+01
1.130000e-06	-3.146132e-06	-9.989454e-10	-2.193271e+01	-6.841101e+01
1.140000e-06	-3.107739e-06	-9.878051e-10	-2.166506e+01	-6.788906e+01
1.150000e-06	-3.069137e-06	-9.737881e-10	-2.139595e+01	-6.736319e+01
1.160000e-06	-3.030270e-06	-9.686674e-10	-2.112500e+01	-6.683338e+01
1.170000e-06	-2.991160e-06	-9.595745e-10	-2.085235e+01	-6.629964e+01
1.180000e-06	-2.951985e-06	-9.500437e-10	-2.057925e+01	-6.576192e+01
1.190000e-06	-2.912725e-06	-9.436958e-10	-2.030555e+01	-6.522022e+01
1.200000e-06	-2.873263e-06	-9.382733e-10	-2.003045e+01	-6.467448e+01
1.210000e-06	-2.833641e-06	-9.271004e-10	-1.975423e+01	-6.412467e+01
1.220000e-06	-2.793882e-06	-9.189461e-10	-1.947706e+01	-6.357073e+01
1.230000e-06	-2.753956e-06	-9.092113e-10	-1.919872e+01	-6.301260e+01
1.240000e-06	-2.713857e-06	-8.952629e-10	-1.891918e+01	-6.245020e+01
1.250000e-06	-2.673579e-06	-8.843187e-10	-1.863839e+01	-6.188346e+01
1.260000e-06	-2.632999e-06	-8.790600e-10	-1.835549e+01	-6.131229e+01
1.270000e-06	-2.592098e-06	-8.705139e-10	-1.807036e+01	-6.073658e+01
1.280000e-06	-2.550947e-06	-8.612198e-10	-1.778348e+01	-6.015623e+01
1.290000e-06	-2.509497e-06	-8.546275e-10	-1.749452e+01	-5.957112e+01
1.300000e-06	-2.467851e-06	-8.467821e-10	-1.720420e+01	-5.898111e+01
1.310000e-06	-2.426065e-06	-8.347785e-10	-1.691289e+01	-5.838608e+01
1.320000e-06	-2.383981e-06	-8.229247e-10	-1.661951e+01	-5.778587e+01
1.330000e-06	-2.341477e-06	-8.136773e-10	-1.632320e+01	-5.718031e+01
1.340000e-06	-2.298674e-06	-8.029439e-10	-1.602481e+01	-5.656925e+01
1.350000e-06	-2.255730e-06	-7.927845e-10	-1.572543e+01	-5.595248e+01
1.360000e-06	-2.212664e-06	-7.801879e-10	-1.542520e+01	-5.532981e+01
1.370000e-06	-2.169397e-06	-7.686506e-10	-1.512357e+01	-5.470103e+01
1.380000e-06	-2.125968e-06	-7.559986e-10	-1.482081e+01	-5.406593e+01
1.390000e-06	-2.082464e-06	-7.444591e-10	-1.451753e+01	-5.342426e+01
1.400000e-06	-2.038864e-06	-7.323866e-10	-1.421358e+01	-5.277578e+01
1.410000e-06	-1.995152e-06	-7.231593e-10	-1.390885e+01	-5.212021e+01
1.420000e-06	-1.951397e-06	-7.120789e-10	-1.360382e+01	-5.145729e+01
1.430000e-06	-1.907618e-06	-7.017251e-10	-1.329862e+01	-5.078672e+01
1.440000e-06	-1.863715e-06	-6.896059e-10	-1.299257e+01	-5.010820e+01
1.450000e-06	-1.819703e-06	-6.770604e-10	-1.268574e+01	-4.942140e+01
1.460000e-06	-1.775565e-06	-6.637349e-10	-1.237804e+01	-4.872598e+01
1.470000e-06	-1.731229e-06	-6.518497e-10	-1.206896e+01	-4.802161e+01
1.480000e-06	-1.686743e-06	-6.384255e-10	-1.175884e+01	-4.730792e+01
1.490000e-06	-1.642125e-06	-6.267305e-10	-1.144779e+01	-4.658453e+01
1.500000e-06	-1.597372e-06	-6.164824e-10	-1.113580e+01	-4.585104e+01
1.510000e-06	-1.552528e-06	-6.094211e-10	-1.082318e+01	-4.510707e+01
1.520000e-06	-1.507535e-06	-6.003592e-10	-1.050952e+01	-4.435219e+01
1.530000e-06	-1.462393e-06	-5.859279e-10	-1.019482e+01	-4.358598e+01
1.540000e-06	-1.417168e-06	-5.707746e-10	-9.879540e+00	-4.280801e+01
1.550000e-06	-1.371839e-06	-5.565044e-10	-9.563538e+00	-4.201784e+01
1.560000e-06	-1.326426e-06	-5.432054e-10	-9.246944e+00	-4.121502e+01
1.570000e-06	-1.280989e-06	-5.304620e-10	-8.930191e+00	-4.039909e+01
1.580000e-06	-1.235504e-06	-5.205076e-10	-8.613100e+00	-3.956961e+01
1.590000e-06	-1.189883e-06	-5.097573e-10	-8.295060e+00	-3.872611e+01
1.600000e-06	-1.144154e-06	-4.987334e-10	-7.976271e+00	-3.786815e+01
1.610000e-06	-1.098389e-06	-4.861322e-10	-7.657225e+00	-3.699526e+01
1.620000e-06	-1.052578e-06	-4.715459e-10	-7.337866e+00	-3.610700e+01
1.630000e-06	-1.006715e-06	-4.541035e-10	-7.018137e+00	-3.520294e+01
1.640000e-06	-9.607306e-07	-4.394158e-10	-6.697566e+00	-3.428265e+01
1.650000e-06	-9.146867e-07	-4.280629e-10	-6.376579e+00	-3.334572e+01
1.660000e-06	-8.686163e-07	-4.172797e-10	-6.055407e+00	-3.239176e+01
1.670000e-06	-8.223916e-07	-4.055890e-10	-5.733160e+00	-3.142038e+01
1.680000e-06	-7.760990e-07	-3.927717e-10	-5.410439e+00	-3.043125e+01
1.690000e-06	-7.298590e-07	-3.774179e-10	-5.088085e+00	-2.942403e+01
1.700000e-06	-6.836331e-07	-3.603674e-10	-4.765829e+00	-2.839845e+01
1.710000e-06	-6.373667e-07	-3.426269e-10	-4.443291e+00	-2.735422e+01
1.720000e-06	-5.909540e-07	-3.262775e-10	-4.119732e+00	-2.629114e+01
1.730000e-06	-5.444573e-07	-3.090658e-10	-3.795589e+00	-2.520902e+01
1.740000e-06	-4.979446e-07	-2.919243e-10	-3.471334e+00	-2.410771e+01
1.750000e-06	-4.514169e-07	-2.752596e-10	-3.146974e+00	-2.298712e+01
1.760000e-06	-4.049068e-07	-2.587874e-10	-2.822737e+00	-2.184720e+01
1.770000e-06	-3.582716e-07	-2.406494e-10	-2.497628e+00	-2.068795e+01
1.780000e-06	-3.115932e-07	-2.215191e-10	-2.172218e+00	-1.950944e+01
1.790000e-06	-2.649700e-07	-2.040188e-10	-1.847192e+00	-1.831176e+01
1.800000e-06	-2.183583e-07	-1.882131e-10	-1.522247e+00	-1.709511e+01
1.810000e-06	-1.717543e-07	-1.730013e-10	-1.197355e+00	-1.585969e+01
1.820000e-06	-1.250920e-07	-1.566168e-10	-8.720573e-01	-1.460581e+01
1.830000e-06	-7.838275e-08	-1.375160e-10	-5.464317e-01	-1.333381e+01
1.840000e-06	-3.169479e-08	-1.159792e-10	-2.209547e-01	-1.204411e+01
1.850000e-06	1.498447e-08	-9.417728e-11	1.044616e-01	-1.073720e+01
1.860000e-06	6.172674e-08	-7.270199e-11	4.303172e-01	-9.413611e+00
1.870000e-06	1.085383e-07	-5.244464e-11	7.566558e-01	-8.073954e+00
1.880000e-06	1.553199e-07	-3.396948e-11	1.082785e+00	-6.718899e+00
1.890000e-06	2.020396e-07	-2.082245e-11	1.408484e+00	-5.349178e+00
1.900000e-06	2.487164e-07	-7.861530e-12	1.733883e+00	-3.965585e+00
1.910000e-06	2.953622e-07	9.185672e-12	2.059066e+00	-2.568970e+00
1.920000e-06	3.419631e-07	3.067252e-11	2.383936e+00	-1.160243e+00
1.930000e-06	3.885209e-07	5.673981e-11	2.708506e+00	2.596331e-01
1.940000e-06	4.350108e-07	8.343872e-11	3.032602e+00	1.689643e+00
1.950000e-06	4.813659e-07	1.073630e-10	3.355759e+00	3.128724e+00
1.960000e-06	5.277203e-07	1.263247e-10	3.678910e+00	4.575767e+00
1.970000e-06	5.741346e-07	1.433010e-10	4.002479e+00	6.029625e+00
1.980000e-06	6.205109e-07	1.614079e-10	4.325784e+00	7.489112e+00
1.990000e-06	6.668282e-07	1.791620e-10	4.648676e+00	8.953010e+00
2.000000e-06	7.130682e-07	1.954482e-10	4.971031e+00	1.042007e+01
2.010000e-06	7.591830e-07	2.160406e-10	5.292512e+00	1.188904e+01
2.020000e-06	8.052351e-07	2.372253e-10	5.613556e+00	1.335862e+01
2.030000e-06	8.513017e-07	2.583873e-10	5.934701e+00	1.482751e+01
2.040000e-06	8.973156e-07	2.829311e-10	6.255479e+00	1.629442e+01
2.050000e-06	9.432775e-07	3.041860e-10	6.575895e+00	1.775805e+01
2.060000e-06	9.892306e-07	3.231588e-10	6.896248e+00	1.921708e+01
2.070000e-06	1.035064e-06	3.424963e-10	7.215769e+00	2.067024e+01
2.080000e-06	1.080837e-06	3.619241e-10	7.534863e+00	2.211624e+01
2.090000e-06	1.126607e-06	3.805579e-10	7.853943e+00	2.355385e+01
2.100000e-06	1.172307e-06	4.012092e-10	8.172535e+00	2.498183e+01
2.110000e-06	1.217910e-06	4.228725e-10	8.490445e+00	2.639899e+01
2.120000e-06	1.263332e-06	4.437311e-10	8.807096e+00	2.780417e+01
2.130000e-06	1.308673e-06	4.637770e-10	9.123185e+00	2.919627e+01
2.140000e-06	1.354001e-06	4.838958e-10	9.439183e+00	3.057422e+01
2.150000e-06	1.399210e-06	5.015964e-10	9.754349e+00	3.193699e+01
2.160000e-06	1.444315e-06	5.157937e-10	1.006879e+01	3.328364e+01
2.170000e-06	1.489345e-06	5.308330e-10	1.038271e+01	3.461326e+01
2.180000e-06	1.534193e-06	5.490979e-10	1.069536e+01	3.592501e+01
2.190000e-06	1.578854e-06	5.688730e-10	1.100671e+01	3.721813e+01
2.200000e-06	1.623462e-06	5.883768e-10	1.131768e+01	3.849189e+01
2.210000e-06	1.668004e-06	6.045624e-10	1.162820e+01	3.974567e+01
2.220000e-06	1.712399e-06	6.175248e-10	1.193769e+01	4.097891e+01
2.230000e-06	1.756626e-06	6.284424e-10	1.224601e+01	4.219110e+01
2.240000e-06	1.800737e-06	6.399556e-10	1.255353e+01	4.338184e+01
2.250000e-06	1.844760e-06	6.540938e-10	1.286042e+01	4.455078e+01
2.260000e-06	1.888638e-06	6.727695e-10	1.316631e+01	4.569765e+01
2.270000e-06	1.932412e-06	6.934715e-10	1.347147e+01	4.682225e+01
2.280000e-06	1.976132e-06	7.108707e-10	1.377626e+01	4.792446e+01
2.290000e-06	2.019792e-06	7.254595e-10	1.408062e+01	4.900421e+01
2.300000e-06	2.063398e-06	7.378841e-10	1.438462e+01	5.006152e+01
2.310000e-06	2.106962e-06	7.475174e-10	1.468832e+01	5.109648e+01
2.320000e-06	2.150468e-06	7.569003e-10	1.499162e+01	5.210922e+01
2.330000e-06	2.193913e-06	7.706507e-10	1.529448e+01	5.309995e+01
2.340000e-06	2.237284e-06	7.875313e-10	1.559683e+01	5.406892e+01
2.350000e-06	2.280429e-06	8.031739e-10	1.589761e+01	5.501646e+01
2.360000e-06	2.323334e-06	8.152593e-10	1.619672e+01	5.594291e+01
2.370000e-06	2.366022e-06	8.251728e-10	1.649431e+01	5.684870e+01
2.380000e-06	2.408440e-06	8.343255e-10	1.679002e+01	5.773426e+01
2.390000e-06	2.450589e-06	8.463767e-10	1.708385e+01	5.860009e+01
2.400000e-06	2.492384e-06	8.585515e-10	1.737522e+01	5.944671e+01
2.410000e-06	2.533740e-06	8.700572e-10	1.766352e+01	6.027464e+01
2.420000e-06	2.574685e-06	8.828911e-10	1.794897e+01	6.108447e+01
2.430000e-06	2.615391e-06	8.961706e-10	1.823274e+01	6.187677e+01
2.440000e-06	2.655935e-06	9.090522e-10	1.851538e+01	6.265215e+01
2.450000e-06	2.696281e-06	9.209683e-10	1.879665e+01	6.341121e+01
2.460000e-06	2.736423e-06	9.324212e-10	1.907649e+01	6.415455e+01
2.470000e-06	2.776396e-06	9.436109e-10	1.935516e+01	6.488278e+01
2.480000e-06	2.816209e-06	9.533077e-10	1.963271e+01	6.559652e+01
2.490000e-06	2.855873e-06	9.601717e-10	1.990922e+01	6.629635e+01
2.500000e-06	2.895460e-06	9.661942e-10	2.018519e+01	6.698286e+01
2.510000e-06	2.934942e-06	9.745302e-10	2.046043e+01	6.765661e+01
2.520000e-06	2.974252e-06	9.848378e-10	2.073448e+01	6.831815e+01
2.530000e-06	3.013322e-06	9.960673e-10	2.100685e+01	6.896800e+01
2.540000e-06	3.052096e-06	1.008450e-09	2.127715e+01	6.960667e+01
2.550000e-06	3.090664e-06	1.020042e-09	2.154603e+01	7.023463e+01
2.560000e-06	3.129103e-06	1.027624e-09	2.181399e+01	7.085232e+01
2.570000e-06	3.167273e-06	1.033957e-09	2.208009e+01	7.146015e+01
2.580000e-06	3.205188e-06	1.042778e-09	2.234441e+01	7.205852e+01
2.590000e-06	3.242934e-06	1.053809e-09	2.260755e+01	7.264776e+01
2.600000e-06	3.280551e-06	1.065746e-09	2.286979e+01	7.322819e+01
2.610000e-06	3.318006e-06	1.074794e-09	2.313090e+01	7.380010e+01
2.620000e-06	3.355161e-06	1.081351e-09	2.338992e+01	7.436373e+01
2.630000e-06	3.392023e-06	1.089121e-09	2.364690e+01	7.491930e+01
2.640000e-06	3.428597e-06	1.096494e-09	2.390186e+01	7.546700e+01
2.650000e-06	3.464888e-06	1.102592e-09	2.415486e+01	7.600698e+01
2.660000e-06	3.500948e-06	1.111441e-09	2.440625e+01	7.653936e+01
2.670000e-06	3.536848e-06	1.122215e-09	2.465652e+01	7.706423e+01
2.680000e-06	3.572619e-06	1.130797e-09	2.490589e+01	7.758168e+01
2.690000e-06	3.608274e-06	1.137380e-09	2.515445e+01	7.809173e+01
2.700000e-06	3.643802e-06	1.141706e-09	2.540213e+01	7.859442e+01
2.710000e-06	3.679140e-06	1.145437e-09	2.564848e+01	7.908975e+01
2.720000e-06	3.714297e-06	1.151941e-09	2.589358e+01	7.957770e+01
2.730000e-06	3.749235e-06	1.160434e-09	2.613714e+01	8.005824e+01
2.740000e-06	3.783697e-06	1.168850e-09	2.637738e+01	8.053132e+01
2.750000e-06	3.817616e-06	1.175606e-09	2.661385e+01	8.099690e+01
2.760000e-06	3.851055e-06	1.181672e-09	2.684696e+01	8.145491e+01
2.770000e-06	3.883980e-06	1.187547e-09	2.707649e+01	8.190528e+01
2.780000e-06	3.916535e-06	1.193220e-09	2.730344e+01	8.234795e+01
2.790000e-06	3.948795e-06	1.200344e-09	2.752834e+01	8.278285e+01
2.800000e-06	3.980826e-06	1.206876e-09	2.775163e+01	8.320991e+01
2.810000e-06	4.012710e-06	1.211338e-09	2.797391e+01	8.362906e+01
2.820000e-06	4.044430e-06	1.215037e-09	2.819504e+01	8.404026e+01
2.830000e-06	4.075979e-06	1.220516e-09	2.841497e+01	8.444344e+01
2.840000e-06	4.107251e-06	1.227758e-09	2.863298e+01	8.483856e+01
2.850000e-06	4.138237e-06	1.233242e-09	2.884900e+01	8.522561e+01
2.860000e-06	4.168960e-06	1.238007e-09	2.906317e+01	8.560456e+01
2.870000e-06	4.199380e-06	1.243082e-09	2.927524e+01	8.597540e+01
2.880000e-06	4.229520e-06	1.247610e-09	2.948536e+01	8.633815e+01
2.890000e-06	4.259320e-06	1.251116e-09	2.969311e+01	8.669283e+01
2.900000e-06	4.288815e-06	1.253537e-09	2.989873e+01	8.703947e+01
