# Temperatura_=_-0.36
# Concentracion g/m^3_=_1620.0
# C_Vs_to_Am_M_A/Vsm_=_65563218390.804596
# pendiente_HvsI_1/m_=_3716.3
# ordenada_HvsI_A/m_=_1297.0
# frecuencia_Hz_=_135090.5959149228

Tiempo_(s)	Campo_(V.s)	Magnetizacion_(V.s)	Campo_(kA/m)	Magnetizacion_(A/m)
0.000000e+00	-5.513817e-06	-1.719294e-09	-3.838691e+01	-1.106569e+02
1.000000e-08	-5.514044e-06	-1.715358e-09	-3.838849e+01	-1.106106e+02
2.000000e-08	-5.514043e-06	-1.714457e-09	-3.838848e+01	-1.105608e+02
3.000000e-08	-5.513711e-06	-1.715433e-09	-3.838617e+01	-1.105076e+02
4.000000e-08	-5.512940e-06	-1.717472e-09	-3.838080e+01	-1.104511e+02
5.000000e-08	-5.511662e-06	-1.718752e-09	-3.837191e+01	-1.103914e+02
6.000000e-08	-5.509711e-06	-1.715176e-09	-3.835832e+01	-1.103287e+02
7.000000e-08	-5.507150e-06	-1.706613e-09	-3.834049e+01	-1.102631e+02
8.000000e-08	-5.504086e-06	-1.711076e-09	-3.831916e+01	-1.101947e+02
9.000000e-08	-5.500481e-06	-1.719679e-09	-3.829406e+01	-1.101236e+02
1.000000e-07	-5.496444e-06	-1.740100e-09	-3.826596e+01	-1.100499e+02
1.100000e-07	-5.492097e-06	-1.771095e-09	-3.823570e+01	-1.099737e+02
1.200000e-07	-5.487490e-06	-1.670458e-09	-3.820363e+01	-1.098951e+02
1.300000e-07	-5.482764e-06	-1.674365e-09	-3.817072e+01	-1.098141e+02
1.400000e-07	-5.477719e-06	-1.687493e-09	-3.813560e+01	-1.097309e+02
1.500000e-07	-5.472166e-06	-1.733564e-09	-3.809694e+01	-1.096454e+02
1.600000e-07	-5.466294e-06	-1.713344e-09	-3.805606e+01	-1.095577e+02
1.700000e-07	-5.460166e-06	-1.665865e-09	-3.801339e+01	-1.094678e+02
1.800000e-07	-5.453605e-06	-1.727605e-09	-3.796772e+01	-1.093757e+02
1.900000e-07	-5.446450e-06	-1.687577e-09	-3.791791e+01	-1.092813e+02
2.000000e-07	-5.438934e-06	-1.686825e-09	-3.786558e+01	-1.091847e+02
2.100000e-07	-5.431189e-06	-1.633402e-09	-3.781166e+01	-1.090859e+02
2.200000e-07	-5.423112e-06	-1.694783e-09	-3.775543e+01	-1.089846e+02
2.300000e-07	-5.414720e-06	-1.659487e-09	-3.769700e+01	-1.088810e+02
2.400000e-07	-5.406109e-06	-1.670453e-09	-3.763705e+01	-1.087748e+02
2.500000e-07	-5.396926e-06	-1.614769e-09	-3.757312e+01	-1.086660e+02
2.600000e-07	-5.386865e-06	-1.636574e-09	-3.750308e+01	-1.085546e+02
2.700000e-07	-5.376173e-06	-1.627943e-09	-3.742864e+01	-1.084402e+02
2.800000e-07	-5.365136e-06	-1.648706e-09	-3.735180e+01	-1.083229e+02
2.900000e-07	-5.353726e-06	-1.625400e-09	-3.727236e+01	-1.082025e+02
3.000000e-07	-5.341835e-06	-1.610381e-09	-3.718958e+01	-1.080788e+02
3.100000e-07	-5.329539e-06	-1.622664e-09	-3.710398e+01	-1.079517e+02
3.200000e-07	-5.316837e-06	-1.625193e-09	-3.701555e+01	-1.078211e+02
3.300000e-07	-5.303678e-06	-1.608511e-09	-3.692393e+01	-1.076867e+02
3.400000e-07	-5.290222e-06	-1.578340e-09	-3.683025e+01	-1.075484e+02
3.500000e-07	-5.276479e-06	-1.620689e-09	-3.673458e+01	-1.074060e+02
3.600000e-07	-5.262314e-06	-1.611905e-09	-3.663596e+01	-1.072594e+02
3.700000e-07	-5.247671e-06	-1.588295e-09	-3.653402e+01	-1.071084e+02
3.800000e-07	-5.232537e-06	-1.577372e-09	-3.642865e+01	-1.069529e+02
3.900000e-07	-5.216826e-06	-1.611488e-09	-3.631928e+01	-1.067927e+02
4.000000e-07	-5.200492e-06	-1.558789e-09	-3.620556e+01	-1.066277e+02
4.100000e-07	-5.183809e-06	-1.568942e-09	-3.608941e+01	-1.064576e+02
4.200000e-07	-5.166916e-06	-1.600354e-09	-3.597181e+01	-1.062825e+02
4.300000e-07	-5.149649e-06	-1.597311e-09	-3.585159e+01	-1.061022e+02
4.400000e-07	-5.132038e-06	-1.524454e-09	-3.572898e+01	-1.059166e+02
4.500000e-07	-5.114146e-06	-1.582175e-09	-3.560442e+01	-1.057255e+02
4.600000e-07	-5.095865e-06	-1.585176e-09	-3.547715e+01	-1.055290e+02
4.700000e-07	-5.077024e-06	-1.535938e-09	-3.534598e+01	-1.053269e+02
4.800000e-07	-5.057794e-06	-1.525913e-09	-3.521210e+01	-1.051193e+02
4.900000e-07	-5.038335e-06	-1.599004e-09	-3.507663e+01	-1.049060e+02
5.000000e-07	-5.018635e-06	-1.543138e-09	-3.493948e+01	-1.046870e+02
5.100000e-07	-4.998758e-06	-1.517314e-09	-3.480109e+01	-1.044623e+02
5.200000e-07	-4.978626e-06	-1.554584e-09	-3.466094e+01	-1.042320e+02
5.300000e-07	-4.958150e-06	-1.552921e-09	-3.451839e+01	-1.039960e+02
5.400000e-07	-4.937278e-06	-1.490913e-09	-3.437307e+01	-1.037545e+02
5.500000e-07	-4.916158e-06	-1.534635e-09	-3.422604e+01	-1.035073e+02
5.600000e-07	-4.894712e-06	-1.552614e-09	-3.407673e+01	-1.032545e+02
5.700000e-07	-4.872866e-06	-1.504695e-09	-3.392465e+01	-1.029964e+02
5.800000e-07	-4.850710e-06	-1.505472e-09	-3.377039e+01	-1.027327e+02
5.900000e-07	-4.828106e-06	-1.540365e-09	-3.361303e+01	-1.024638e+02
6.000000e-07	-4.805073e-06	-1.502924e-09	-3.345267e+01	-1.021896e+02
6.100000e-07	-4.781824e-06	-1.484643e-09	-3.329082e+01	-1.019102e+02
6.200000e-07	-4.758296e-06	-1.520552e-09	-3.312701e+01	-1.016258e+02
6.300000e-07	-4.734566e-06	-1.505402e-09	-3.296181e+01	-1.013363e+02
6.400000e-07	-4.710692e-06	-1.485040e-09	-3.279560e+01	-1.010420e+02
6.500000e-07	-4.686540e-06	-1.498432e-09	-3.262745e+01	-1.007428e+02
6.600000e-07	-4.661950e-06	-1.502308e-09	-3.245625e+01	-1.004389e+02
6.700000e-07	-4.636733e-06	-1.469886e-09	-3.228070e+01	-1.001304e+02
6.800000e-07	-4.611009e-06	-1.480283e-09	-3.210160e+01	-9.981722e+01
6.900000e-07	-4.584784e-06	-1.476167e-09	-3.191903e+01	-9.949956e+01
7.000000e-07	-4.557968e-06	-1.465731e-09	-3.173234e+01	-9.917744e+01
7.100000e-07	-4.530757e-06	-1.453981e-09	-3.154290e+01	-9.885091e+01
7.200000e-07	-4.503379e-06	-1.465117e-09	-3.135229e+01	-9.852000e+01
7.300000e-07	-4.475820e-06	-1.446110e-09	-3.116043e+01	-9.818474e+01
7.400000e-07	-4.448085e-06	-1.442959e-09	-3.096734e+01	-9.784514e+01
7.500000e-07	-4.420122e-06	-1.432606e-09	-3.077266e+01	-9.750120e+01
7.600000e-07	-4.391826e-06	-1.433089e-09	-3.057567e+01	-9.715291e+01
7.700000e-07	-4.363176e-06	-1.418753e-09	-3.037621e+01	-9.680023e+01
7.800000e-07	-4.334170e-06	-1.418148e-09	-3.017427e+01	-9.644313e+01
7.900000e-07	-4.304860e-06	-1.406333e-09	-2.997021e+01	-9.608155e+01
8.000000e-07	-4.275277e-06	-1.404961e-09	-2.976426e+01	-9.571542e+01
8.100000e-07	-4.245440e-06	-1.393142e-09	-2.955654e+01	-9.534467e+01
8.200000e-07	-4.215331e-06	-1.386337e-09	-2.934692e+01	-9.496920e+01
8.300000e-07	-4.184915e-06	-1.371994e-09	-2.913516e+01	-9.458891e+01
8.400000e-07	-4.154233e-06	-1.368435e-09	-2.892156e+01	-9.420367e+01
8.500000e-07	-4.123271e-06	-1.365186e-09	-2.870600e+01	-9.381338e+01
8.600000e-07	-4.091962e-06	-1.360201e-09	-2.848803e+01	-9.341790e+01
8.700000e-07	-4.060457e-06	-1.349825e-09	-2.826869e+01	-9.301709e+01
8.800000e-07	-4.028850e-06	-1.345397e-09	-2.804865e+01	-9.261081e+01
8.900000e-07	-3.997096e-06	-1.338512e-09	-2.782758e+01	-9.219891e+01
9.000000e-07	-3.965155e-06	-1.324262e-09	-2.760520e+01	-9.178125e+01
9.100000e-07	-3.932897e-06	-1.316478e-09	-2.738063e+01	-9.135768e+01
9.200000e-07	-3.900282e-06	-1.308393e-09	-2.715357e+01	-9.092806e+01
9.300000e-07	-3.867150e-06	-1.299046e-09	-2.692290e+01	-9.049224e+01
9.400000e-07	-3.833578e-06	-1.292420e-09	-2.668917e+01	-9.005009e+01
9.500000e-07	-3.799701e-06	-1.295452e-09	-2.645333e+01	-8.960147e+01
9.600000e-07	-3.765369e-06	-1.286647e-09	-2.621430e+01	-8.914628e+01
9.700000e-07	-3.730608e-06	-1.279585e-09	-2.597230e+01	-8.868439e+01
9.800000e-07	-3.695450e-06	-1.270017e-09	-2.572753e+01	-8.821571e+01
9.900000e-07	-3.660003e-06	-1.264349e-09	-2.548075e+01	-8.774015e+01
1.000000e-06	-3.624400e-06	-1.249380e-09	-2.523289e+01	-8.725765e+01
1.010000e-06	-3.588693e-06	-1.246384e-09	-2.498430e+01	-8.676815e+01
1.020000e-06	-3.552884e-06	-1.239919e-09	-2.473499e+01	-8.627160e+01
1.030000e-06	-3.516919e-06	-1.233005e-09	-2.448461e+01	-8.576800e+01
1.040000e-06	-3.480799e-06	-1.222823e-09	-2.423314e+01	-8.525732e+01
1.050000e-06	-3.444499e-06	-1.223593e-09	-2.398042e+01	-8.473959e+01
1.060000e-06	-3.407898e-06	-1.211589e-09	-2.372561e+01	-8.421483e+01
1.070000e-06	-3.371012e-06	-1.200282e-09	-2.346881e+01	-8.368310e+01
1.080000e-06	-3.333832e-06	-1.189199e-09	-2.320996e+01	-8.314446e+01
1.090000e-06	-3.296351e-06	-1.183604e-09	-2.294903e+01	-8.259899e+01
1.100000e-06	-3.258758e-06	-1.172200e-09	-2.268731e+01	-8.204678e+01
1.110000e-06	-3.220922e-06	-1.167392e-09	-2.242389e+01	-8.148797e+01
1.120000e-06	-3.182862e-06	-1.161036e-09	-2.215892e+01	-8.092265e+01
1.130000e-06	-3.144586e-06	-1.151879e-09	-2.189244e+01	-8.035099e+01
1.140000e-06	-3.105999e-06	-1.140049e-09	-2.162380e+01	-7.977312e+01
1.150000e-06	-3.067221e-06	-1.131940e-09	-2.135383e+01	-7.918919e+01
1.160000e-06	-3.028173e-06	-1.121385e-09	-2.108199e+01	-7.859937e+01
1.170000e-06	-2.988902e-06	-1.109745e-09	-2.080858e+01	-7.800383e+01
1.180000e-06	-2.949507e-06	-1.102212e-09	-2.053432e+01	-7.740272e+01
1.190000e-06	-2.910004e-06	-1.094357e-09	-2.025930e+01	-7.679622e+01
1.200000e-06	-2.870412e-06	-1.083679e-09	-1.998366e+01	-7.618447e+01
1.210000e-06	-2.830641e-06	-1.072908e-09	-1.970678e+01	-7.556764e+01
1.220000e-06	-2.790736e-06	-1.064085e-09	-1.942896e+01	-7.494587e+01
1.230000e-06	-2.750750e-06	-1.050914e-09	-1.915058e+01	-7.431928e+01
1.240000e-06	-2.710530e-06	-1.041379e-09	-1.887057e+01	-7.368798e+01
1.250000e-06	-2.670140e-06	-1.032278e-09	-1.858938e+01	-7.305209e+01
1.260000e-06	-2.629551e-06	-1.028503e-09	-1.830680e+01	-7.241166e+01
1.270000e-06	-2.588665e-06	-1.021078e-09	-1.802215e+01	-7.176675e+01
1.280000e-06	-2.547444e-06	-1.012719e-09	-1.773518e+01	-7.111739e+01
1.290000e-06	-2.505954e-06	-1.001269e-09	-1.744632e+01	-7.046357e+01
1.300000e-06	-2.464199e-06	-9.887185e-10	-1.715562e+01	-6.980526e+01
1.310000e-06	-2.422052e-06	-9.737877e-10	-1.686220e+01	-6.914238e+01
1.320000e-06	-2.379541e-06	-9.624545e-10	-1.656624e+01	-6.847484e+01
1.330000e-06	-2.336785e-06	-9.513109e-10	-1.626858e+01	-6.780250e+01
1.340000e-06	-2.293893e-06	-9.431363e-10	-1.596997e+01	-6.712518e+01
1.350000e-06	-2.250739e-06	-9.352924e-10	-1.566953e+01	-6.644267e+01
1.360000e-06	-2.207357e-06	-9.270236e-10	-1.536750e+01	-6.575471e+01
1.370000e-06	-2.163924e-06	-9.123631e-10	-1.506513e+01	-6.506101e+01
1.380000e-06	-2.120329e-06	-8.992338e-10	-1.476162e+01	-6.436123e+01
1.390000e-06	-2.076620e-06	-8.825876e-10	-1.445732e+01	-6.365500e+01
1.400000e-06	-2.032912e-06	-8.687410e-10	-1.415303e+01	-6.294191e+01
1.410000e-06	-1.989098e-06	-8.568331e-10	-1.384800e+01	-6.222152e+01
1.420000e-06	-1.945175e-06	-8.474037e-10	-1.354221e+01	-6.149332e+01
1.430000e-06	-1.901175e-06	-8.373270e-10	-1.323588e+01	-6.075679e+01
1.440000e-06	-1.857163e-06	-8.280761e-10	-1.292947e+01	-6.001139e+01
1.450000e-06	-1.813096e-06	-8.176253e-10	-1.262268e+01	-5.925651e+01
1.460000e-06	-1.768890e-06	-8.045762e-10	-1.231492e+01	-5.849155e+01
1.470000e-06	-1.724559e-06	-7.887557e-10	-1.200629e+01	-5.771586e+01
1.480000e-06	-1.680099e-06	-7.724823e-10	-1.169676e+01	-5.692877e+01
1.490000e-06	-1.635483e-06	-7.600529e-10	-1.138615e+01	-5.612960e+01
1.500000e-06	-1.590704e-06	-7.495283e-10	-1.107440e+01	-5.531763e+01
1.510000e-06	-1.545770e-06	-7.387643e-10	-1.076157e+01	-5.449217e+01
1.520000e-06	-1.500747e-06	-7.247417e-10	-1.044812e+01	-5.365247e+01
1.530000e-06	-1.455636e-06	-7.084747e-10	-1.013406e+01	-5.279783e+01
1.540000e-06	-1.410364e-06	-6.941034e-10	-9.818884e+00	-5.192749e+01
1.550000e-06	-1.365016e-06	-6.825854e-10	-9.503174e+00	-5.104074e+01
1.560000e-06	-1.319621e-06	-6.729893e-10	-9.187135e+00	-5.013687e+01
1.570000e-06	-1.274094e-06	-6.643651e-10	-8.870179e+00	-4.921517e+01
1.580000e-06	-1.228467e-06	-6.513948e-10	-8.552527e+00	-4.827495e+01
1.590000e-06	-1.182764e-06	-6.350163e-10	-8.234342e+00	-4.731554e+01
1.600000e-06	-1.136974e-06	-6.155551e-10	-7.915555e+00	-4.633632e+01
1.610000e-06	-1.091083e-06	-5.973772e-10	-7.596063e+00	-4.533667e+01
1.620000e-06	-1.045072e-06	-5.783769e-10	-7.275736e+00	-4.431602e+01
1.630000e-06	-9.990340e-07	-5.628998e-10	-6.955223e+00	-4.327383e+01
1.640000e-06	-9.530088e-07	-5.491157e-10	-6.634798e+00	-4.220962e+01
1.650000e-06	-9.068870e-07	-5.358058e-10	-6.313701e+00	-4.112293e+01
1.660000e-06	-8.607222e-07	-5.188982e-10	-5.992304e+00	-4.001337e+01
1.670000e-06	-8.145532e-07	-5.007167e-10	-5.670878e+00	-3.888061e+01
1.680000e-06	-7.682727e-07	-4.812069e-10	-5.348675e+00	-3.772434e+01
1.690000e-06	-7.219470e-07	-4.631847e-10	-5.026158e+00	-3.654435e+01
1.700000e-06	-6.755489e-07	-4.457082e-10	-4.703137e+00	-3.534047e+01
1.710000e-06	-6.291292e-07	-4.281814e-10	-4.379965e+00	-3.411260e+01
1.720000e-06	-5.827459e-07	-4.082137e-10	-4.057047e+00	-3.286069e+01
1.730000e-06	-5.362963e-07	-3.894575e-10	-3.733667e+00	-3.158477e+01
1.740000e-06	-4.897238e-07	-3.716903e-10	-3.409432e+00	-3.028495e+01
1.750000e-06	-4.431213e-07	-3.527634e-10	-3.084988e+00	-2.896138e+01
1.760000e-06	-3.965405e-07	-3.340751e-10	-2.760694e+00	-2.761429e+01
1.770000e-06	-3.498850e-07	-3.149944e-10	-2.435882e+00	-2.624400e+01
1.780000e-06	-3.031681e-07	-2.928790e-10	-2.110641e+00	-2.485086e+01
1.790000e-06	-2.564493e-07	-2.705340e-10	-1.785387e+00	-2.343531e+01
1.800000e-06	-2.096129e-07	-2.517214e-10	-1.459315e+00	-2.199786e+01
1.810000e-06	-1.627393e-07	-2.317361e-10	-1.132983e+00	-2.053908e+01
1.820000e-06	-1.160178e-07	-2.102076e-10	-8.077099e-01	-1.905960e+01
1.830000e-06	-6.925977e-08	-1.884795e-10	-4.821830e-01	-1.756012e+01
1.840000e-06	-2.254297e-08	-1.677538e-10	-1.569430e-01	-1.604139e+01
1.850000e-06	2.416462e-08	-1.470864e-10	1.682329e-01	-1.450422e+01
1.860000e-06	7.099567e-08	-1.274592e-10	4.942682e-01	-1.294949e+01
1.870000e-06	1.177714e-07	-1.049336e-10	8.199183e-01	-1.137810e+01
1.880000e-06	1.645209e-07	-8.177492e-11	1.145386e+00	-9.791024e+00
1.890000e-06	2.112389e-07	-6.157786e-11	1.470635e+00	-8.189280e+00
1.900000e-06	2.579233e-07	-4.276879e-11	1.795648e+00	-6.573918e+00
1.910000e-06	3.045883e-07	-2.393383e-11	2.120528e+00	-4.946029e+00
1.920000e-06	3.512969e-07	-1.788303e-12	2.445711e+00	-3.306740e+00
1.930000e-06	3.980347e-07	2.246484e-11	2.771097e+00	-1.657207e+00
1.940000e-06	4.446460e-07	4.537551e-11	3.095602e+00	1.387871e-03
1.950000e-06	4.912317e-07	6.984427e-11	3.419930e+00	1.667839e+00
1.960000e-06	5.377876e-07	9.443960e-11	3.744050e+00	3.340922e+00
1.970000e-06	5.842799e-07	1.182517e-10	4.067727e+00	5.019401e+00
1.980000e-06	6.307108e-07	1.412860e-10	4.390976e+00	6.702026e+00
1.990000e-06	6.770888e-07	1.628187e-10	4.713857e+00	8.387545e+00
2.000000e-06	7.234486e-07	1.832063e-10	5.036612e+00	1.007470e+01
2.010000e-06	7.697664e-07	2.069242e-10	5.359074e+00	1.176223e+01
2.020000e-06	8.159634e-07	2.296180e-10	5.680695e+00	1.344890e+01
2.030000e-06	8.620782e-07	2.541877e-10	6.001744e+00	1.513346e+01
2.040000e-06	9.081117e-07	2.811722e-10	6.322227e+00	1.681468e+01
2.050000e-06	9.540968e-07	3.061486e-10	6.642373e+00	1.849135e+01
2.060000e-06	1.000108e-06	3.295983e-10	6.962699e+00	2.016229e+01
2.070000e-06	1.046004e-06	3.503123e-10	7.282228e+00	2.182631e+01
2.080000e-06	1.091854e-06	3.710898e-10	7.601431e+00	2.348228e+01
2.090000e-06	1.137714e-06	3.927924e-10	7.920708e+00	2.512908e+01
2.100000e-06	1.183415e-06	4.180640e-10	8.238876e+00	2.676562e+01
2.110000e-06	1.228978e-06	4.453221e-10	8.556085e+00	2.839086e+01
2.120000e-06	1.274442e-06	4.702947e-10	8.872597e+00	3.000378e+01
2.130000e-06	1.319737e-06	4.926963e-10	9.187940e+00	3.160341e+01
2.140000e-06	1.364996e-06	5.140307e-10	9.503033e+00	3.318880e+01
2.150000e-06	1.410305e-06	5.338725e-10	9.818470e+00	3.475907e+01
2.160000e-06	1.455447e-06	5.547616e-10	1.013275e+01	3.631336e+01
2.170000e-06	1.500509e-06	5.758949e-10	1.044647e+01	3.785086e+01
2.180000e-06	1.545476e-06	5.957105e-10	1.075953e+01	3.937082e+01
2.190000e-06	1.590254e-06	6.153311e-10	1.107127e+01	4.087252e+01
2.200000e-06	1.634935e-06	6.387216e-10	1.138234e+01	4.235530e+01
2.210000e-06	1.679494e-06	6.581508e-10	1.169255e+01	4.381853e+01
2.220000e-06	1.723966e-06	6.745389e-10	1.200216e+01	4.526164e+01
2.230000e-06	1.768302e-06	6.918976e-10	1.231083e+01	4.668412e+01
2.240000e-06	1.812492e-06	7.104499e-10	1.261848e+01	4.808550e+01
2.250000e-06	1.856562e-06	7.298928e-10	1.292529e+01	4.946534e+01
2.260000e-06	1.900567e-06	7.506823e-10	1.323165e+01	5.082329e+01
2.270000e-06	1.944444e-06	7.717201e-10	1.353712e+01	5.215901e+01
2.280000e-06	1.988200e-06	7.904274e-10	1.384175e+01	5.347223e+01
2.290000e-06	2.031928e-06	8.065579e-10	1.414618e+01	5.476271e+01
2.300000e-06	2.075637e-06	8.235660e-10	1.445047e+01	5.603028e+01
2.310000e-06	2.119268e-06	8.408852e-10	1.475424e+01	5.727479e+01
2.320000e-06	2.162756e-06	8.590258e-10	1.505699e+01	5.849616e+01
2.330000e-06	2.206158e-06	8.792625e-10	1.535916e+01	5.969433e+01
2.340000e-06	2.249451e-06	8.970585e-10	1.566056e+01	6.086931e+01
2.350000e-06	2.292552e-06	9.123855e-10	1.596063e+01	6.202111e+01
2.360000e-06	2.335473e-06	9.248898e-10	1.625944e+01	6.314982e+01
2.370000e-06	2.378181e-06	9.376519e-10	1.655677e+01	6.425556e+01
2.380000e-06	2.420650e-06	9.504200e-10	1.685244e+01	6.533846e+01
2.390000e-06	2.462746e-06	9.659832e-10	1.714551e+01	6.639871e+01
2.400000e-06	2.504502e-06	9.815007e-10	1.743621e+01	6.743653e+01
2.410000e-06	2.545911e-06	9.965580e-10	1.772450e+01	6.845216e+01
2.420000e-06	2.586847e-06	1.010527e-09	1.800950e+01	6.944589e+01
2.430000e-06	2.627494e-06	1.023166e-09	1.829248e+01	7.041802e+01
2.440000e-06	2.667916e-06	1.035384e-09	1.857390e+01	7.136887e+01
2.450000e-06	2.708219e-06	1.046317e-09	1.885448e+01	7.229880e+01
2.460000e-06	2.748419e-06	1.055596e-09	1.913435e+01	7.320819e+01
2.470000e-06	2.788423e-06	1.067489e-09	1.941286e+01	7.409742e+01
2.480000e-06	2.828241e-06	1.080895e-09	1.969007e+01	7.496692e+01
2.490000e-06	2.867979e-06	1.093200e-09	1.996672e+01	7.581710e+01
2.500000e-06	2.907637e-06	1.105872e-09	2.024282e+01	7.664841e+01
2.510000e-06	2.947101e-06	1.118798e-09	2.051757e+01	7.746129e+01
2.520000e-06	2.986391e-06	1.129165e-09	2.079110e+01	7.825620e+01
2.530000e-06	3.025499e-06	1.138268e-09	2.106337e+01	7.903362e+01
2.540000e-06	3.064367e-06	1.149672e-09	2.133397e+01	7.979401e+01
2.550000e-06	3.102958e-06	1.162055e-09	2.160263e+01	8.053783e+01
2.560000e-06	3.141330e-06	1.171431e-09	2.186978e+01	8.126558e+01
2.570000e-06	3.179478e-06	1.179891e-09	2.213536e+01	8.197771e+01
2.580000e-06	3.217425e-06	1.191378e-09	2.239955e+01	8.267470e+01
2.590000e-06	3.255254e-06	1.203768e-09	2.266291e+01	8.335701e+01
2.600000e-06	3.292875e-06	1.214284e-09	2.292483e+01	8.402510e+01
2.610000e-06	3.330160e-06	1.221453e-09	2.318440e+01	8.467942e+01
2.620000e-06	3.367102e-06	1.228640e-09	2.344159e+01	8.532041e+01
2.630000e-06	3.403836e-06	1.239033e-09	2.369733e+01	8.594849e+01
2.640000e-06	3.440431e-06	1.249515e-09	2.395210e+01	8.656409e+01
2.650000e-06	3.476789e-06	1.258878e-09	2.420523e+01	8.716761e+01
2.660000e-06	3.512879e-06	1.269858e-09	2.445648e+01	8.775943e+01
2.670000e-06	3.548786e-06	1.277385e-09	2.470647e+01	8.833993e+01
2.680000e-06	3.584566e-06	1.282680e-09	2.495556e+01	8.890946e+01
2.690000e-06	3.620217e-06	1.288643e-09	2.520377e+01	8.946836e+01
2.700000e-06	3.655785e-06	1.294527e-09	2.545139e+01	9.001695e+01
2.710000e-06	3.691199e-06	1.301210e-09	2.569794e+01	9.055554e+01
2.720000e-06	3.726273e-06	1.311378e-09	2.594212e+01	9.108440e+01
2.730000e-06	3.761081e-06	1.321886e-09	2.618445e+01	9.160381e+01
2.740000e-06	3.795618e-06	1.331148e-09	2.642489e+01	9.211400e+01
2.750000e-06	3.829600e-06	1.339086e-09	2.666148e+01	9.261522e+01
2.760000e-06	3.863042e-06	1.345106e-09	2.689430e+01	9.310765e+01
2.770000e-06	3.896074e-06	1.348754e-09	2.712426e+01	9.359151e+01
2.780000e-06	3.928706e-06	1.352102e-09	2.735145e+01	9.406695e+01
2.790000e-06	3.960892e-06	1.358352e-09	2.757553e+01	9.453414e+01
2.800000e-06	3.992775e-06	1.366564e-09	2.779750e+01	9.499322e+01
2.810000e-06	4.024512e-06	1.374093e-09	2.801845e+01	9.544431e+01
2.820000e-06	4.056146e-06	1.381203e-09	2.823868e+01	9.588753e+01
2.830000e-06	4.087625e-06	1.388851e-09	2.845783e+01	9.632297e+01
2.840000e-06	4.118910e-06	1.394456e-09	2.867564e+01	9.675071e+01
2.850000e-06	4.149971e-06	1.397656e-09	2.889188e+01	9.717082e+01
2.860000e-06	4.180679e-06	1.400352e-09	2.910567e+01	9.758338e+01
2.870000e-06	4.211006e-06	1.404706e-09	2.931681e+01	9.798843e+01
2.880000e-06	4.241053e-06	1.409876e-09	2.952599e+01	9.838603e+01
2.890000e-06	4.270899e-06	1.417106e-09	2.973378e+01	9.877620e+01
2.900000e-06	4.300433e-06	1.425231e-09	2.993939e+01	9.915898e+01
