# Temperatura_=_-0.34
# Concentracion g/m^3_=_1620.0
# C_Vs_to_Am_M_A/Vsm_=_65563218390.804596
# pendiente_HvsI_1/m_=_3716.3
# ordenada_HvsI_A/m_=_1297.0
# frecuencia_Hz_=_135092.5594886687

Tiempo_(s)	Campo_(V.s)	Magnetizacion_(V.s)	Campo_(kA/m)	Magnetizacion_(A/m)
0.000000e+00	-5.519970e-06	-1.758242e-09	-3.837460e+01	-1.123855e+02
1.000000e-08	-5.520278e-06	-1.758704e-09	-3.837674e+01	-1.123070e+02
2.000000e-08	-5.520347e-06	-1.758924e-09	-3.837722e+01	-1.122257e+02
3.000000e-08	-5.519985e-06	-1.758753e-09	-3.837471e+01	-1.121417e+02
4.000000e-08	-5.519131e-06	-1.759545e-09	-3.836877e+01	-1.120555e+02
5.000000e-08	-5.517748e-06	-1.758122e-09	-3.835915e+01	-1.119672e+02
6.000000e-08	-5.515765e-06	-1.756031e-09	-3.834537e+01	-1.118772e+02
7.000000e-08	-5.513292e-06	-1.752425e-09	-3.832818e+01	-1.117858e+02
8.000000e-08	-5.510337e-06	-1.755332e-09	-3.830763e+01	-1.116931e+02
9.000000e-08	-5.506770e-06	-1.768913e-09	-3.828284e+01	-1.115995e+02
1.000000e-07	-5.502791e-06	-1.792520e-09	-3.825517e+01	-1.115051e+02
1.100000e-07	-5.498497e-06	-1.788858e-09	-3.822532e+01	-1.114102e+02
1.200000e-07	-5.493977e-06	-1.722398e-09	-3.819390e+01	-1.113150e+02
1.300000e-07	-5.489359e-06	-1.740799e-09	-3.816180e+01	-1.112196e+02
1.400000e-07	-5.484388e-06	-1.756854e-09	-3.812724e+01	-1.111243e+02
1.500000e-07	-5.478954e-06	-1.768758e-09	-3.808946e+01	-1.110290e+02
1.600000e-07	-5.473101e-06	-1.734961e-09	-3.804877e+01	-1.109340e+02
1.700000e-07	-5.466885e-06	-1.739287e-09	-3.800556e+01	-1.108393e+02
1.800000e-07	-5.460243e-06	-1.788930e-09	-3.795939e+01	-1.107449e+02
1.900000e-07	-5.453135e-06	-1.740279e-09	-3.790997e+01	-1.106508e+02
2.000000e-07	-5.445709e-06	-1.703668e-09	-3.785834e+01	-1.105571e+02
2.100000e-07	-5.438013e-06	-1.663206e-09	-3.780484e+01	-1.104636e+02
2.200000e-07	-5.430034e-06	-1.725047e-09	-3.774937e+01	-1.103703e+02
2.300000e-07	-5.421805e-06	-1.712143e-09	-3.769216e+01	-1.102770e+02
2.400000e-07	-5.413184e-06	-1.719301e-09	-3.763223e+01	-1.101837e+02
2.500000e-07	-5.404068e-06	-1.680098e-09	-3.756885e+01	-1.100900e+02
2.600000e-07	-5.394242e-06	-1.686327e-09	-3.750055e+01	-1.099959e+02
2.700000e-07	-5.383658e-06	-1.670048e-09	-3.742697e+01	-1.099010e+02
2.800000e-07	-5.372614e-06	-1.675644e-09	-3.735019e+01	-1.098051e+02
2.900000e-07	-5.361207e-06	-1.658379e-09	-3.727089e+01	-1.097078e+02
3.000000e-07	-5.349426e-06	-1.656931e-09	-3.718899e+01	-1.096090e+02
3.100000e-07	-5.337235e-06	-1.666277e-09	-3.710424e+01	-1.095081e+02
3.200000e-07	-5.324611e-06	-1.667656e-09	-3.701647e+01	-1.094049e+02
3.300000e-07	-5.311556e-06	-1.656162e-09	-3.692572e+01	-1.092989e+02
3.400000e-07	-5.298167e-06	-1.640456e-09	-3.683264e+01	-1.091898e+02
3.500000e-07	-5.284476e-06	-1.661821e-09	-3.673746e+01	-1.090772e+02
3.600000e-07	-5.270470e-06	-1.647133e-09	-3.664009e+01	-1.089606e+02
3.700000e-07	-5.255987e-06	-1.638702e-09	-3.653940e+01	-1.088396e+02
3.800000e-07	-5.240992e-06	-1.636961e-09	-3.643516e+01	-1.087138e+02
3.900000e-07	-5.225363e-06	-1.648298e-09	-3.632651e+01	-1.085828e+02
4.000000e-07	-5.209127e-06	-1.613240e-09	-3.621363e+01	-1.084461e+02
4.100000e-07	-5.192654e-06	-1.625551e-09	-3.609912e+01	-1.083034e+02
4.200000e-07	-5.175914e-06	-1.638863e-09	-3.598274e+01	-1.081542e+02
4.300000e-07	-5.158664e-06	-1.631821e-09	-3.586282e+01	-1.079982e+02
4.400000e-07	-5.141041e-06	-1.599810e-09	-3.574031e+01	-1.078351e+02
4.500000e-07	-5.123183e-06	-1.631787e-09	-3.561615e+01	-1.076644e+02
4.600000e-07	-5.104815e-06	-1.609578e-09	-3.548846e+01	-1.074859e+02
4.700000e-07	-5.085960e-06	-1.579693e-09	-3.535738e+01	-1.072993e+02
4.800000e-07	-5.066830e-06	-1.576927e-09	-3.522439e+01	-1.071043e+02
4.900000e-07	-5.047451e-06	-1.607530e-09	-3.508967e+01	-1.069007e+02
5.000000e-07	-5.027838e-06	-1.573770e-09	-3.495332e+01	-1.066884e+02
5.100000e-07	-5.007993e-06	-1.574646e-09	-3.481536e+01	-1.064672e+02
5.200000e-07	-4.987831e-06	-1.586123e-09	-3.467519e+01	-1.062370e+02
5.300000e-07	-4.967340e-06	-1.577198e-09	-3.453274e+01	-1.059978e+02
5.400000e-07	-4.946527e-06	-1.553957e-09	-3.438805e+01	-1.057494e+02
5.500000e-07	-4.925350e-06	-1.574922e-09	-3.424083e+01	-1.054920e+02
5.600000e-07	-4.903863e-06	-1.560735e-09	-3.409145e+01	-1.052255e+02
5.700000e-07	-4.881976e-06	-1.539137e-09	-3.393929e+01	-1.049501e+02
5.800000e-07	-4.859725e-06	-1.548843e-09	-3.378460e+01	-1.046659e+02
5.900000e-07	-4.837226e-06	-1.556309e-09	-3.362819e+01	-1.043731e+02
6.000000e-07	-4.814313e-06	-1.535392e-09	-3.346890e+01	-1.040719e+02
6.100000e-07	-4.791047e-06	-1.540551e-09	-3.330716e+01	-1.037625e+02
6.200000e-07	-4.767536e-06	-1.552058e-09	-3.314371e+01	-1.034453e+02
6.300000e-07	-4.743777e-06	-1.531160e-09	-3.297854e+01	-1.031204e+02
6.400000e-07	-4.719852e-06	-1.525235e-09	-3.281221e+01	-1.027883e+02
6.500000e-07	-4.695694e-06	-1.528106e-09	-3.264427e+01	-1.024492e+02
6.600000e-07	-4.671097e-06	-1.518577e-09	-3.247327e+01	-1.021036e+02
6.700000e-07	-4.645968e-06	-1.506445e-09	-3.229857e+01	-1.017519e+02
6.800000e-07	-4.620229e-06	-1.517990e-09	-3.211964e+01	-1.013944e+02
6.900000e-07	-4.593949e-06	-1.506117e-09	-3.193694e+01	-1.010316e+02
7.000000e-07	-4.567201e-06	-1.500401e-09	-3.175099e+01	-1.006639e+02
7.100000e-07	-4.540029e-06	-1.495997e-09	-3.156209e+01	-1.002916e+02
7.200000e-07	-4.512575e-06	-1.491552e-09	-3.137123e+01	-9.991515e+01
7.300000e-07	-4.484928e-06	-1.474166e-09	-3.117903e+01	-9.953502e+01
7.400000e-07	-4.457064e-06	-1.479082e-09	-3.098533e+01	-9.915153e+01
7.500000e-07	-4.428993e-06	-1.470287e-09	-3.079018e+01	-9.876506e+01
7.600000e-07	-4.400742e-06	-1.464668e-09	-3.059377e+01	-9.837596e+01
7.700000e-07	-4.372235e-06	-1.456918e-09	-3.039560e+01	-9.798453e+01
7.800000e-07	-4.343407e-06	-1.454606e-09	-3.019519e+01	-9.759107e+01
7.900000e-07	-4.314262e-06	-1.437600e-09	-2.999257e+01	-9.719584e+01
8.000000e-07	-4.284802e-06	-1.434452e-09	-2.978776e+01	-9.679905e+01
8.100000e-07	-4.255025e-06	-1.425253e-09	-2.958076e+01	-9.640091e+01
8.200000e-07	-4.224941e-06	-1.414479e-09	-2.937161e+01	-9.600155e+01
8.300000e-07	-4.194530e-06	-1.404611e-09	-2.916020e+01	-9.560109e+01
8.400000e-07	-4.163839e-06	-1.407149e-09	-2.894684e+01	-9.519958e+01
8.500000e-07	-4.132859e-06	-1.401767e-09	-2.873146e+01	-9.479705e+01
8.600000e-07	-4.101611e-06	-1.395035e-09	-2.851423e+01	-9.439347e+01
8.700000e-07	-4.070146e-06	-1.389797e-09	-2.829549e+01	-9.398879e+01
8.800000e-07	-4.038505e-06	-1.382961e-09	-2.807552e+01	-9.358289e+01
8.900000e-07	-4.006697e-06	-1.372091e-09	-2.785439e+01	-9.317562e+01
9.000000e-07	-3.974697e-06	-1.364167e-09	-2.763193e+01	-9.276679e+01
9.100000e-07	-3.942389e-06	-1.356896e-09	-2.740733e+01	-9.235617e+01
9.200000e-07	-3.909704e-06	-1.346134e-09	-2.718010e+01	-9.194348e+01
9.300000e-07	-3.876735e-06	-1.341419e-09	-2.695090e+01	-9.152842e+01
9.400000e-07	-3.843346e-06	-1.339963e-09	-2.671878e+01	-9.111066e+01
9.500000e-07	-3.809427e-06	-1.336436e-09	-2.648298e+01	-9.068984e+01
9.600000e-07	-3.775078e-06	-1.326071e-09	-2.624419e+01	-9.026555e+01
9.700000e-07	-3.740369e-06	-1.318401e-09	-2.600289e+01	-8.983740e+01
9.800000e-07	-3.705355e-06	-1.304971e-09	-2.575947e+01	-8.940495e+01
9.900000e-07	-3.670063e-06	-1.294347e-09	-2.551413e+01	-8.896776e+01
1.000000e-06	-3.634559e-06	-1.284981e-09	-2.526730e+01	-8.852538e+01
1.010000e-06	-3.598932e-06	-1.283888e-09	-2.501962e+01	-8.807736e+01
1.020000e-06	-3.563202e-06	-1.277709e-09	-2.477123e+01	-8.762324e+01
1.030000e-06	-3.527275e-06	-1.274644e-09	-2.452147e+01	-8.716257e+01
1.040000e-06	-3.491148e-06	-1.265478e-09	-2.427031e+01	-8.669493e+01
1.050000e-06	-3.454801e-06	-1.258776e-09	-2.401764e+01	-8.621987e+01
1.060000e-06	-3.418182e-06	-1.245823e-09	-2.376306e+01	-8.573699e+01
1.070000e-06	-3.381300e-06	-1.233079e-09	-2.350666e+01	-8.524590e+01
1.080000e-06	-3.344171e-06	-1.216933e-09	-2.324854e+01	-8.474625e+01
1.090000e-06	-3.306804e-06	-1.207219e-09	-2.298877e+01	-8.423770e+01
1.100000e-06	-3.269169e-06	-1.198472e-09	-2.272713e+01	-8.371995e+01
1.110000e-06	-3.231224e-06	-1.193843e-09	-2.246334e+01	-8.319274e+01
1.120000e-06	-3.193074e-06	-1.187203e-09	-2.219812e+01	-8.265584e+01
1.130000e-06	-3.154783e-06	-1.180785e-09	-2.193192e+01	-8.210907e+01
1.140000e-06	-3.116322e-06	-1.172791e-09	-2.166454e+01	-8.155227e+01
1.150000e-06	-3.077612e-06	-1.163400e-09	-2.139543e+01	-8.098534e+01
1.160000e-06	-3.038650e-06	-1.150688e-09	-2.112457e+01	-8.040822e+01
1.170000e-06	-2.999531e-06	-1.138585e-09	-2.085262e+01	-7.982088e+01
1.180000e-06	-2.960237e-06	-1.126151e-09	-2.057944e+01	-7.922335e+01
1.190000e-06	-2.920787e-06	-1.115029e-09	-2.030519e+01	-7.861569e+01
1.200000e-06	-2.881184e-06	-1.106269e-09	-2.002987e+01	-7.799800e+01
1.210000e-06	-2.841419e-06	-1.099170e-09	-1.975343e+01	-7.737041e+01
1.220000e-06	-2.801529e-06	-1.090897e-09	-1.947612e+01	-7.673310e+01
1.230000e-06	-2.761505e-06	-1.079303e-09	-1.919787e+01	-7.608628e+01
1.240000e-06	-2.721247e-06	-1.069138e-09	-1.891800e+01	-7.543016e+01
1.250000e-06	-2.680771e-06	-1.058259e-09	-1.863661e+01	-7.476501e+01
1.260000e-06	-2.640127e-06	-1.050221e-09	-1.835405e+01	-7.409110e+01
1.270000e-06	-2.599242e-06	-1.039266e-09	-1.806982e+01	-7.340872e+01
1.280000e-06	-2.558033e-06	-1.029169e-09	-1.778334e+01	-7.271818e+01
1.290000e-06	-2.516538e-06	-1.019463e-09	-1.749487e+01	-7.201978e+01
1.300000e-06	-2.474796e-06	-1.010079e-09	-1.720468e+01	-7.131382e+01
1.310000e-06	-2.432733e-06	-9.966154e-10	-1.691226e+01	-7.060062e+01
1.320000e-06	-2.390321e-06	-9.834410e-10	-1.661741e+01	-6.988046e+01
1.330000e-06	-2.347685e-06	-9.713702e-10	-1.632101e+01	-6.915361e+01
1.340000e-06	-2.304765e-06	-9.612539e-10	-1.602263e+01	-6.842034e+01
1.350000e-06	-2.261527e-06	-9.504132e-10	-1.572204e+01	-6.768087e+01
1.360000e-06	-2.218137e-06	-9.405443e-10	-1.542040e+01	-6.693540e+01
1.370000e-06	-2.174670e-06	-9.271902e-10	-1.511821e+01	-6.618409e+01
1.380000e-06	-2.131121e-06	-9.156920e-10	-1.481546e+01	-6.542706e+01
1.390000e-06	-2.087460e-06	-9.028488e-10	-1.451194e+01	-6.466437e+01
1.400000e-06	-2.043733e-06	-8.889000e-10	-1.420795e+01	-6.389607e+01
1.410000e-06	-1.999930e-06	-8.755840e-10	-1.390343e+01	-6.312212e+01
1.420000e-06	-1.956016e-06	-8.664988e-10	-1.359815e+01	-6.234243e+01
1.430000e-06	-1.912069e-06	-8.560117e-10	-1.329262e+01	-6.155687e+01
1.440000e-06	-1.868023e-06	-8.454452e-10	-1.298642e+01	-6.076523e+01
1.450000e-06	-1.823805e-06	-8.344415e-10	-1.267901e+01	-5.996725e+01
1.460000e-06	-1.779449e-06	-8.225608e-10	-1.237065e+01	-5.916260e+01
1.470000e-06	-1.735025e-06	-8.096081e-10	-1.206182e+01	-5.835091e+01
1.480000e-06	-1.690475e-06	-7.965286e-10	-1.175211e+01	-5.753171e+01
1.490000e-06	-1.645763e-06	-7.836922e-10	-1.144127e+01	-5.670449e+01
1.500000e-06	-1.600926e-06	-7.725934e-10	-1.112957e+01	-5.586870e+01
1.510000e-06	-1.555937e-06	-7.627151e-10	-1.081681e+01	-5.502369e+01
1.520000e-06	-1.510787e-06	-7.488491e-10	-1.050293e+01	-5.416880e+01
1.530000e-06	-1.465553e-06	-7.330408e-10	-1.018846e+01	-5.330330e+01
1.540000e-06	-1.420264e-06	-7.201780e-10	-9.873613e+00	-5.242641e+01
1.550000e-06	-1.374824e-06	-7.079745e-10	-9.557721e+00	-5.153731e+01
1.560000e-06	-1.329322e-06	-6.921461e-10	-9.241393e+00	-5.063516e+01
1.570000e-06	-1.283782e-06	-6.761159e-10	-8.924797e+00	-4.971908e+01
1.580000e-06	-1.238143e-06	-6.604904e-10	-8.607518e+00	-4.878816e+01
1.590000e-06	-1.192355e-06	-6.437276e-10	-8.289201e+00	-4.784148e+01
1.600000e-06	-1.146434e-06	-6.252667e-10	-7.969965e+00	-4.687813e+01
1.610000e-06	-1.100512e-06	-6.076753e-10	-7.650713e+00	-4.589716e+01
1.620000e-06	-1.054574e-06	-5.911971e-10	-7.331358e+00	-4.489765e+01
1.630000e-06	-1.008581e-06	-5.773774e-10	-7.011616e+00	-4.387868e+01
1.640000e-06	-9.624495e-07	-5.638173e-10	-6.690909e+00	-4.283937e+01
1.650000e-06	-9.161318e-07	-5.495383e-10	-6.368910e+00	-4.177886e+01
1.660000e-06	-8.698424e-07	-5.314228e-10	-6.047109e+00	-4.069630e+01
1.670000e-06	-8.235756e-07	-5.119675e-10	-5.725463e+00	-3.959093e+01
1.680000e-06	-7.772007e-07	-4.924840e-10	-5.403067e+00	-3.846201e+01
1.690000e-06	-7.307782e-07	-4.734624e-10	-5.080340e+00	-3.730885e+01
1.700000e-06	-6.842202e-07	-4.553870e-10	-4.756670e+00	-3.613086e+01
1.710000e-06	-6.376487e-07	-4.389025e-10	-4.432907e+00	-3.492749e+01
1.720000e-06	-5.911119e-07	-4.201876e-10	-4.109385e+00	-3.369829e+01
1.730000e-06	-5.445745e-07	-4.031117e-10	-3.785859e+00	-3.244288e+01
1.740000e-06	-4.980423e-07	-3.853149e-10	-3.462370e+00	-3.116097e+01
1.750000e-06	-4.514307e-07	-3.648650e-10	-3.138327e+00	-2.985237e+01
1.760000e-06	-4.046929e-07	-3.434836e-10	-2.813408e+00	-2.851698e+01
1.770000e-06	-3.579206e-07	-3.230486e-10	-2.488249e+00	-2.715480e+01
1.780000e-06	-3.112125e-07	-3.025551e-10	-2.163537e+00	-2.576594e+01
1.790000e-06	-2.644304e-07	-2.825527e-10	-1.838309e+00	-2.435061e+01
1.800000e-06	-2.175763e-07	-2.648121e-10	-1.512582e+00	-2.290913e+01
1.810000e-06	-1.708479e-07	-2.446948e-10	-1.187728e+00	-2.144192e+01
1.820000e-06	-1.242203e-07	-2.215276e-10	-8.635745e-01	-1.994951e+01
1.830000e-06	-7.748969e-08	-1.968788e-10	-5.387051e-01	-1.843254e+01
1.840000e-06	-3.072225e-08	-1.725179e-10	-2.135798e-01	-1.689175e+01
1.850000e-06	1.606734e-08	-1.500594e-10	1.116995e-01	-1.532797e+01
1.860000e-06	6.294664e-08	-1.319443e-10	4.376024e-01	-1.374215e+01
1.870000e-06	1.097901e-07	-1.129394e-10	7.632563e-01	-1.213533e+01
1.880000e-06	1.566478e-07	-9.282071e-11	1.089009e+00	-1.050861e+01
1.890000e-06	2.034923e-07	-7.395302e-11	1.414670e+00	-8.863221e+00
1.900000e-06	2.503007e-07	-5.326942e-11	1.740080e+00	-7.200440e+00
1.910000e-06	2.971566e-07	-2.912600e-11	2.065820e+00	-5.521633e+00
1.920000e-06	3.439093e-07	-3.267172e-12	2.390843e+00	-3.828226e+00
1.930000e-06	3.906397e-07	2.363593e-11	2.715711e+00	-2.121708e+00
1.940000e-06	4.373826e-07	4.762795e-11	3.040666e+00	-4.036210e-01
1.950000e-06	4.840237e-07	6.705252e-11	3.364913e+00	1.324450e+00
1.960000e-06	5.305117e-07	8.448923e-11	3.688095e+00	3.060882e+00
1.970000e-06	5.769408e-07	1.027482e-10	4.010869e+00	4.804022e+00
1.980000e-06	6.233262e-07	1.256212e-10	4.333338e+00	6.552197e+00
1.990000e-06	6.696426e-07	1.531537e-10	4.655328e+00	8.303721e+00
2.000000e-06	7.159826e-07	1.813352e-10	4.977482e+00	1.005690e+01
2.010000e-06	7.622997e-07	2.103760e-10	5.299476e+00	1.181006e+01
2.020000e-06	8.086156e-07	2.346319e-10	5.621462e+00	1.356150e+01
2.030000e-06	8.548772e-07	2.560795e-10	5.943071e+00	1.530959e+01
2.040000e-06	9.010322e-07	2.774930e-10	6.263938e+00	1.705268e+01
2.050000e-06	9.471244e-07	2.977209e-10	6.584370e+00	1.878919e+01
2.060000e-06	9.932208e-07	3.198841e-10	6.904830e+00	2.051755e+01
2.070000e-06	1.039218e-06	3.441968e-10	7.224600e+00	2.223626e+01
2.080000e-06	1.085072e-06	3.706034e-10	7.543378e+00	2.394386e+01
2.090000e-06	1.130868e-06	3.958300e-10	7.861747e+00	2.563897e+01
2.100000e-06	1.176597e-06	4.218088e-10	8.179653e+00	2.732024e+01
2.110000e-06	1.222326e-06	4.464839e-10	8.497556e+00	2.898642e+01
2.120000e-06	1.267980e-06	4.672500e-10	8.814946e+00	3.063631e+01
2.130000e-06	1.313450e-06	4.853579e-10	9.131048e+00	3.226881e+01
2.140000e-06	1.358810e-06	5.042668e-10	9.446394e+00	3.388288e+01
2.150000e-06	1.404041e-06	5.245760e-10	9.760833e+00	3.547756e+01
2.160000e-06	1.449215e-06	5.460192e-10	1.007488e+01	3.705198e+01
2.170000e-06	1.494389e-06	5.691392e-10	1.038893e+01	3.860537e+01
2.180000e-06	1.539377e-06	5.922007e-10	1.070169e+01	4.013702e+01
2.190000e-06	1.584280e-06	6.150925e-10	1.101385e+01	4.164631e+01
2.200000e-06	1.629078e-06	6.383384e-10	1.132528e+01	4.313270e+01
2.210000e-06	1.673660e-06	6.577860e-10	1.163522e+01	4.459576e+01
2.220000e-06	1.718185e-06	6.737023e-10	1.194475e+01	4.603512e+01
2.230000e-06	1.762559e-06	6.896255e-10	1.225324e+01	4.745048e+01
2.240000e-06	1.806749e-06	7.083980e-10	1.256044e+01	4.884163e+01
2.250000e-06	1.850804e-06	7.303467e-10	1.286671e+01	5.020844e+01
2.260000e-06	1.894720e-06	7.551242e-10	1.317201e+01	5.155084e+01
2.270000e-06	1.938603e-06	7.777761e-10	1.347709e+01	5.286883e+01
2.280000e-06	1.982404e-06	7.956787e-10	1.378159e+01	5.416247e+01
2.290000e-06	2.026138e-06	8.118121e-10	1.408563e+01	5.543189e+01
2.300000e-06	2.069856e-06	8.271695e-10	1.438956e+01	5.667727e+01
2.310000e-06	2.113499e-06	8.417241e-10	1.469296e+01	5.789882e+01
2.320000e-06	2.157123e-06	8.578444e-10	1.499623e+01	5.909683e+01
2.330000e-06	2.200700e-06	8.772296e-10	1.529918e+01	6.027161e+01
2.340000e-06	2.244073e-06	8.967033e-10	1.560070e+01	6.142351e+01
2.350000e-06	2.287311e-06	9.144351e-10	1.590129e+01	6.255291e+01
2.360000e-06	2.330374e-06	9.303211e-10	1.620066e+01	6.366022e+01
2.370000e-06	2.373058e-06	9.449526e-10	1.649740e+01	6.474588e+01
2.380000e-06	2.415438e-06	9.579568e-10	1.679202e+01	6.581033e+01
2.390000e-06	2.457524e-06	9.741709e-10	1.708460e+01	6.685403e+01
2.400000e-06	2.499355e-06	9.920685e-10	1.737541e+01	6.787747e+01
2.410000e-06	2.540883e-06	1.008201e-09	1.766411e+01	6.888111e+01
2.420000e-06	2.582078e-06	1.022997e-09	1.795050e+01	6.986545e+01
2.430000e-06	2.623085e-06	1.037475e-09	1.823558e+01	7.083096e+01
2.440000e-06	2.663832e-06	1.049490e-09	1.851885e+01	7.177812e+01
2.450000e-06	2.704277e-06	1.058937e-09	1.880002e+01	7.270739e+01
2.460000e-06	2.744410e-06	1.068797e-09	1.907902e+01	7.361924e+01
2.470000e-06	2.784351e-06	1.080965e-09	1.935669e+01	7.451411e+01
2.480000e-06	2.824222e-06	1.095650e-09	1.963387e+01	7.539244e+01
2.490000e-06	2.863995e-06	1.110491e-09	1.991037e+01	7.625465e+01
2.500000e-06	2.903649e-06	1.124368e-09	2.018605e+01	7.710113e+01
2.510000e-06	2.943192e-06	1.138667e-09	2.046095e+01	7.793226e+01
2.520000e-06	2.982672e-06	1.152759e-09	2.073541e+01	7.874842e+01
2.530000e-06	3.021974e-06	1.164327e-09	2.100864e+01	7.954995e+01
2.540000e-06	3.060933e-06	1.173195e-09	2.127948e+01	8.033717e+01
2.550000e-06	3.099712e-06	1.181413e-09	2.154907e+01	8.111038e+01
2.560000e-06	3.138289e-06	1.188930e-09	2.181725e+01	8.186989e+01
2.570000e-06	3.176515e-06	1.196710e-09	2.208300e+01	8.261595e+01
2.580000e-06	3.214481e-06	1.207503e-09	2.234694e+01	8.334881e+01
2.590000e-06	3.252260e-06	1.220539e-09	2.260958e+01	8.406871e+01
2.600000e-06	3.289934e-06	1.233234e-09	2.287149e+01	8.477586e+01
2.610000e-06	3.327456e-06	1.243112e-09	2.313234e+01	8.547046e+01
2.620000e-06	3.364680e-06	1.250983e-09	2.339111e+01	8.615270e+01
2.630000e-06	3.401637e-06	1.257744e-09	2.364804e+01	8.682276e+01
2.640000e-06	3.438302e-06	1.262153e-09	2.390293e+01	8.748079e+01
2.650000e-06	3.474621e-06	1.267764e-09	2.415542e+01	8.812695e+01
2.660000e-06	3.510763e-06	1.278018e-09	2.440668e+01	8.876139e+01
2.670000e-06	3.546768e-06	1.287550e-09	2.465698e+01	8.938423e+01
2.680000e-06	3.582594e-06	1.296228e-09	2.490605e+01	8.999560e+01
2.690000e-06	3.618355e-06	1.304791e-09	2.515465e+01	9.059564e+01
2.700000e-06	3.653999e-06	1.311411e-09	2.540245e+01	9.118447e+01
2.710000e-06	3.689497e-06	1.317547e-09	2.564923e+01	9.176219e+01
2.720000e-06	3.724821e-06	1.325926e-09	2.589480e+01	9.232894e+01
2.730000e-06	3.759863e-06	1.334905e-09	2.613841e+01	9.288483e+01
2.740000e-06	3.794390e-06	1.344044e-09	2.637844e+01	9.342998e+01
2.750000e-06	3.828388e-06	1.351060e-09	2.661479e+01	9.396450e+01
2.760000e-06	3.861994e-06	1.356868e-09	2.684842e+01	9.448854e+01
2.770000e-06	3.895136e-06	1.364228e-09	2.707883e+01	9.500220e+01
2.780000e-06	3.927824e-06	1.371559e-09	2.730607e+01	9.550562e+01
2.790000e-06	3.960082e-06	1.379457e-09	2.753033e+01	9.599894e+01
2.800000e-06	3.992068e-06	1.387353e-09	2.775269e+01	9.648229e+01
2.810000e-06	4.023888e-06	1.395858e-09	2.797390e+01	9.695582e+01
2.820000e-06	4.055559e-06	1.402128e-09	2.819408e+01	9.741967e+01
2.830000e-06	4.087129e-06	1.407867e-09	2.841355e+01	9.787400e+01
2.840000e-06	4.118515e-06	1.413990e-09	2.863175e+01	9.831897e+01
2.850000e-06	4.149606e-06	1.416821e-09	2.884789e+01	9.875473e+01
2.860000e-06	4.180431e-06	1.421052e-09	2.906218e+01	9.918146e+01
2.870000e-06	4.210918e-06	1.426319e-09	2.927412e+01	9.959931e+01
2.880000e-06	4.241002e-06	1.432388e-09	2.948327e+01	1.000085e+02
2.890000e-06	4.270848e-06	1.437319e-09	2.969076e+01	1.004091e+02
2.900000e-06	4.300385e-06	1.441253e-09	2.989610e+01	1.008014e+02
