# Temperatura_=_-3.3
# Concentracion g/m^3_=_1620.0
# C_Vs_to_Am_M_A/Vsm_=_65563218390.804596
# pendiente_HvsI_1/m_=_3716.3
# ordenada_HvsI_A/m_=_1297.0
# frecuencia_Hz_=_135100.67570243968

Tiempo_(s)	Campo_(V.s)	Magnetizacion_(V.s)	Campo_(kA/m)	Magnetizacion_(A/m)
0.000000e+00	-5.514036e-06	-1.011605e-09	-3.837454e+01	-6.550367e+01
1.000000e-08	-5.514099e-06	-1.008272e-09	-3.837499e+01	-6.545421e+01
2.000000e-08	-5.513889e-06	-1.005623e-09	-3.837352e+01	-6.540165e+01
3.000000e-08	-5.513272e-06	-1.003078e-09	-3.836923e+01	-6.534600e+01
4.000000e-08	-5.512173e-06	-1.002485e-09	-3.836158e+01	-6.528726e+01
5.000000e-08	-5.510557e-06	-1.004975e-09	-3.835033e+01	-6.522545e+01
6.000000e-08	-5.508331e-06	-1.012175e-09	-3.833484e+01	-6.516061e+01
7.000000e-08	-5.505502e-06	-1.029397e-09	-3.831516e+01	-6.509279e+01
8.000000e-08	-5.502161e-06	-1.001788e-09	-3.829190e+01	-6.502206e+01
9.000000e-08	-5.498456e-06	-9.344752e-10	-3.826612e+01	-6.494852e+01
1.000000e-07	-5.494397e-06	-9.709075e-10	-3.823787e+01	-6.487224e+01
1.100000e-07	-5.489979e-06	-1.081660e-09	-3.820712e+01	-6.479336e+01
1.200000e-07	-5.485221e-06	-1.053275e-09	-3.817401e+01	-6.471199e+01
1.300000e-07	-5.480117e-06	-9.569251e-10	-3.813849e+01	-6.462826e+01
1.400000e-07	-5.474706e-06	-9.459270e-10	-3.810083e+01	-6.454231e+01
1.500000e-07	-5.468864e-06	-1.071510e-09	-3.806017e+01	-6.445431e+01
1.600000e-07	-5.462591e-06	-1.051937e-09	-3.801652e+01	-6.436439e+01
1.700000e-07	-5.455985e-06	-9.390486e-10	-3.797055e+01	-6.427273e+01
1.800000e-07	-5.449052e-06	-9.412170e-10	-3.792230e+01	-6.417949e+01
1.900000e-07	-5.441742e-06	-1.036418e-09	-3.787142e+01	-6.408483e+01
2.000000e-07	-5.434081e-06	-1.041986e-09	-3.781810e+01	-6.398891e+01
2.100000e-07	-5.426245e-06	-9.520652e-10	-3.776357e+01	-6.389189e+01
2.200000e-07	-5.418215e-06	-9.340071e-10	-3.770769e+01	-6.379394e+01
2.300000e-07	-5.409744e-06	-9.677932e-10	-3.764874e+01	-6.369520e+01
2.400000e-07	-5.400684e-06	-9.770048e-10	-3.758568e+01	-6.359582e+01
2.500000e-07	-5.391069e-06	-9.282265e-10	-3.751877e+01	-6.349594e+01
2.600000e-07	-5.380823e-06	-9.312857e-10	-3.744746e+01	-6.339567e+01
2.700000e-07	-5.369891e-06	-9.450997e-10	-3.737138e+01	-6.329514e+01
2.800000e-07	-5.358504e-06	-9.501023e-10	-3.729214e+01	-6.319444e+01
2.900000e-07	-5.346842e-06	-9.189899e-10	-3.721097e+01	-6.309367e+01
3.000000e-07	-5.334803e-06	-9.244737e-10	-3.712719e+01	-6.299290e+01
3.100000e-07	-5.322306e-06	-9.320134e-10	-3.704022e+01	-6.289219e+01
3.200000e-07	-5.309445e-06	-9.457414e-10	-3.695071e+01	-6.279158e+01
3.300000e-07	-5.296149e-06	-9.188394e-10	-3.685818e+01	-6.269110e+01
3.400000e-07	-5.282417e-06	-9.064636e-10	-3.676261e+01	-6.259077e+01
3.500000e-07	-5.268344e-06	-9.314112e-10	-3.666467e+01	-6.249058e+01
3.600000e-07	-5.253837e-06	-9.387799e-10	-3.656371e+01	-6.239050e+01
3.700000e-07	-5.238837e-06	-8.968353e-10	-3.645932e+01	-6.229052e+01
3.800000e-07	-5.223277e-06	-9.125567e-10	-3.635103e+01	-6.219056e+01
3.900000e-07	-5.207224e-06	-9.517307e-10	-3.623931e+01	-6.209058e+01
4.000000e-07	-5.190727e-06	-8.990680e-10	-3.612450e+01	-6.199049e+01
4.100000e-07	-5.173829e-06	-8.765229e-10	-3.600690e+01	-6.189020e+01
4.200000e-07	-5.156693e-06	-9.536541e-10	-3.588765e+01	-6.178960e+01
4.300000e-07	-5.139220e-06	-9.433191e-10	-3.576604e+01	-6.168859e+01
4.400000e-07	-5.121264e-06	-8.480751e-10	-3.564108e+01	-6.158703e+01
4.500000e-07	-5.102951e-06	-9.028251e-10	-3.551363e+01	-6.148480e+01
4.600000e-07	-5.084362e-06	-9.640341e-10	-3.538426e+01	-6.138176e+01
4.700000e-07	-5.065385e-06	-8.734610e-10	-3.525219e+01	-6.127776e+01
4.800000e-07	-5.046054e-06	-8.532115e-10	-3.511766e+01	-6.117265e+01
4.900000e-07	-5.026512e-06	-9.522202e-10	-3.498166e+01	-6.106629e+01
5.000000e-07	-5.006736e-06	-9.056423e-10	-3.484403e+01	-6.095851e+01
5.100000e-07	-4.986672e-06	-8.429157e-10	-3.470440e+01	-6.084918e+01
5.200000e-07	-4.966279e-06	-9.217607e-10	-3.456247e+01	-6.073812e+01
5.300000e-07	-4.945514e-06	-9.225884e-10	-3.441796e+01	-6.062521e+01
5.400000e-07	-4.924357e-06	-8.239605e-10	-3.427071e+01	-6.051029e+01
5.500000e-07	-4.902827e-06	-8.795565e-10	-3.412088e+01	-6.039322e+01
5.600000e-07	-4.880964e-06	-9.370726e-10	-3.396873e+01	-6.027388e+01
5.700000e-07	-4.858758e-06	-8.553236e-10	-3.381418e+01	-6.015213e+01
5.800000e-07	-4.836281e-06	-8.474175e-10	-3.365776e+01	-6.002786e+01
5.900000e-07	-4.813541e-06	-9.218616e-10	-3.349950e+01	-5.990097e+01
6.000000e-07	-4.790377e-06	-8.741513e-10	-3.333830e+01	-5.977135e+01
6.100000e-07	-4.766863e-06	-8.356886e-10	-3.317465e+01	-5.963892e+01
6.200000e-07	-4.743235e-06	-8.929784e-10	-3.301021e+01	-5.950361e+01
6.300000e-07	-4.719432e-06	-8.874693e-10	-3.284456e+01	-5.936533e+01
6.400000e-07	-4.695223e-06	-8.419418e-10	-3.267608e+01	-5.922405e+01
6.500000e-07	-4.670546e-06	-8.743308e-10	-3.250434e+01	-5.907971e+01
6.600000e-07	-4.645500e-06	-8.824782e-10	-3.233003e+01	-5.893227e+01
6.700000e-07	-4.619998e-06	-8.394713e-10	-3.215256e+01	-5.878173e+01
6.800000e-07	-4.593927e-06	-8.493750e-10	-3.197111e+01	-5.862806e+01
6.900000e-07	-4.567390e-06	-8.706076e-10	-3.178643e+01	-5.847126e+01
7.000000e-07	-4.540465e-06	-8.460912e-10	-3.159905e+01	-5.831133e+01
7.100000e-07	-4.513174e-06	-8.431008e-10	-3.140912e+01	-5.814829e+01
7.200000e-07	-4.485669e-06	-8.635218e-10	-3.121770e+01	-5.798215e+01
7.300000e-07	-4.457962e-06	-8.480481e-10	-3.102487e+01	-5.781295e+01
7.400000e-07	-4.430024e-06	-8.342599e-10	-3.083044e+01	-5.764071e+01
7.500000e-07	-4.401824e-06	-8.412270e-10	-3.063419e+01	-5.746546e+01
7.600000e-07	-4.373300e-06	-8.377295e-10	-3.043567e+01	-5.728726e+01
7.700000e-07	-4.344556e-06	-8.281765e-10	-3.023563e+01	-5.710613e+01
7.800000e-07	-4.315515e-06	-8.363256e-10	-3.003353e+01	-5.692213e+01
7.900000e-07	-4.286145e-06	-8.340870e-10	-2.982912e+01	-5.673530e+01
8.000000e-07	-4.256514e-06	-8.217655e-10	-2.962291e+01	-5.654567e+01
8.100000e-07	-4.226584e-06	-8.177477e-10	-2.941461e+01	-5.635329e+01
8.200000e-07	-4.196358e-06	-8.169068e-10	-2.920426e+01	-5.615821e+01
8.300000e-07	-4.165807e-06	-8.034391e-10	-2.899164e+01	-5.596044e+01
8.400000e-07	-4.134908e-06	-8.026905e-10	-2.877660e+01	-5.576003e+01
8.500000e-07	-4.103740e-06	-8.091687e-10	-2.855969e+01	-5.555700e+01
8.600000e-07	-4.072362e-06	-8.036664e-10	-2.834132e+01	-5.535137e+01
8.700000e-07	-4.040864e-06	-7.933390e-10	-2.812211e+01	-5.514316e+01
8.800000e-07	-4.009233e-06	-7.971573e-10	-2.790198e+01	-5.493237e+01
8.900000e-07	-3.977361e-06	-7.897548e-10	-2.768017e+01	-5.471901e+01
9.000000e-07	-3.945239e-06	-7.745763e-10	-2.745661e+01	-5.450307e+01
9.100000e-07	-3.912891e-06	-7.736460e-10	-2.723149e+01	-5.428453e+01
9.200000e-07	-3.880117e-06	-7.747896e-10	-2.700341e+01	-5.406339e+01
9.300000e-07	-3.846810e-06	-7.656367e-10	-2.677161e+01	-5.383962e+01
9.400000e-07	-3.813109e-06	-7.650283e-10	-2.653706e+01	-5.361318e+01
9.500000e-07	-3.778960e-06	-7.705861e-10	-2.629941e+01	-5.338403e+01
9.600000e-07	-3.744307e-06	-7.612427e-10	-2.605825e+01	-5.315214e+01
9.700000e-07	-3.709279e-06	-7.496303e-10	-2.581447e+01	-5.291744e+01
9.800000e-07	-3.674023e-06	-7.504294e-10	-2.556910e+01	-5.267990e+01
9.900000e-07	-3.638557e-06	-7.457311e-10	-2.532228e+01	-5.243944e+01
1.000000e-06	-3.602916e-06	-7.380843e-10	-2.507424e+01	-5.219602e+01
1.010000e-06	-3.567157e-06	-7.440891e-10	-2.482538e+01	-5.194955e+01
1.020000e-06	-3.531279e-06	-7.490373e-10	-2.457569e+01	-5.169998e+01
1.030000e-06	-3.495198e-06	-7.404696e-10	-2.432459e+01	-5.144724e+01
1.040000e-06	-3.458867e-06	-7.322086e-10	-2.407174e+01	-5.119125e+01
1.050000e-06	-3.422312e-06	-7.314120e-10	-2.381734e+01	-5.093195e+01
1.060000e-06	-3.385435e-06	-7.210843e-10	-2.356070e+01	-5.066927e+01
1.070000e-06	-3.348327e-06	-7.123722e-10	-2.330245e+01	-5.040313e+01
1.080000e-06	-3.311020e-06	-7.137880e-10	-2.304281e+01	-5.013348e+01
1.090000e-06	-3.273445e-06	-7.153519e-10	-2.278131e+01	-4.986025e+01
1.100000e-06	-3.235662e-06	-7.104477e-10	-2.251836e+01	-4.958338e+01
1.110000e-06	-3.197597e-06	-7.099594e-10	-2.225345e+01	-4.930279e+01
1.120000e-06	-3.159297e-06	-7.078116e-10	-2.198691e+01	-4.901845e+01
1.130000e-06	-3.120754e-06	-6.981446e-10	-2.171867e+01	-4.873030e+01
1.140000e-06	-3.081982e-06	-6.894439e-10	-2.144884e+01	-4.843828e+01
1.150000e-06	-3.043096e-06	-6.867746e-10	-2.117821e+01	-4.814234e+01
1.160000e-06	-3.003995e-06	-6.810315e-10	-2.090609e+01	-4.784245e+01
1.170000e-06	-2.964638e-06	-6.761628e-10	-2.063219e+01	-4.753855e+01
1.180000e-06	-2.925150e-06	-6.746668e-10	-2.035738e+01	-4.723062e+01
1.190000e-06	-2.885602e-06	-6.720252e-10	-2.008214e+01	-4.691860e+01
1.200000e-06	-2.845895e-06	-6.641438e-10	-1.980580e+01	-4.660245e+01
1.210000e-06	-2.805974e-06	-6.587322e-10	-1.952798e+01	-4.628215e+01
1.220000e-06	-2.765961e-06	-6.533915e-10	-1.924951e+01	-4.595764e+01
1.230000e-06	-2.725886e-06	-6.443628e-10	-1.897061e+01	-4.562888e+01
1.240000e-06	-2.685647e-06	-6.382167e-10	-1.869057e+01	-4.529583e+01
1.250000e-06	-2.645150e-06	-6.360347e-10	-1.840873e+01	-4.495843e+01
1.260000e-06	-2.604399e-06	-6.348543e-10	-1.812513e+01	-4.461663e+01
1.270000e-06	-2.563297e-06	-6.326740e-10	-1.783909e+01	-4.427036e+01
1.280000e-06	-2.521862e-06	-6.317694e-10	-1.755072e+01	-4.391955e+01
1.290000e-06	-2.480277e-06	-6.272527e-10	-1.726132e+01	-4.356413e+01
1.300000e-06	-2.438465e-06	-6.174407e-10	-1.697032e+01	-4.320399e+01
1.310000e-06	-2.396305e-06	-6.059429e-10	-1.667692e+01	-4.283904e+01
1.320000e-06	-2.353828e-06	-5.976314e-10	-1.638130e+01	-4.246917e+01
1.330000e-06	-2.311153e-06	-5.908458e-10	-1.608431e+01	-4.209423e+01
1.340000e-06	-2.268242e-06	-5.862387e-10	-1.578567e+01	-4.171410e+01
1.350000e-06	-2.225015e-06	-5.833377e-10	-1.548484e+01	-4.132859e+01
1.360000e-06	-2.181578e-06	-5.801690e-10	-1.518254e+01	-4.093755e+01
1.370000e-06	-2.138065e-06	-5.749086e-10	-1.487972e+01	-4.054078e+01
1.380000e-06	-2.094506e-06	-5.661184e-10	-1.457657e+01	-4.013806e+01
1.390000e-06	-2.050860e-06	-5.534733e-10	-1.427282e+01	-3.972917e+01
1.400000e-06	-2.007135e-06	-5.426521e-10	-1.396852e+01	-3.931385e+01
1.410000e-06	-1.963346e-06	-5.361569e-10	-1.366377e+01	-3.889185e+01
1.420000e-06	-1.919467e-06	-5.336027e-10	-1.335840e+01	-3.846288e+01
1.430000e-06	-1.875424e-06	-5.308432e-10	-1.305188e+01	-3.802663e+01
1.440000e-06	-1.831303e-06	-5.265084e-10	-1.274482e+01	-3.758279e+01
1.450000e-06	-1.787146e-06	-5.213129e-10	-1.243752e+01	-3.713103e+01
1.460000e-06	-1.742890e-06	-5.133488e-10	-1.212952e+01	-3.667099e+01
1.470000e-06	-1.698515e-06	-5.033666e-10	-1.182070e+01	-3.620231e+01
1.480000e-06	-1.653987e-06	-4.961254e-10	-1.151080e+01	-3.572461e+01
1.490000e-06	-1.609359e-06	-4.908886e-10	-1.120022e+01	-3.523750e+01
1.500000e-06	-1.564592e-06	-4.854309e-10	-1.088867e+01	-3.474059e+01
1.510000e-06	-1.519673e-06	-4.791105e-10	-1.057606e+01	-3.423347e+01
1.520000e-06	-1.474631e-06	-4.713638e-10	-1.026259e+01	-3.371573e+01
1.530000e-06	-1.429379e-06	-4.620481e-10	-9.947664e+00	-3.318696e+01
1.540000e-06	-1.383952e-06	-4.528329e-10	-9.631517e+00	-3.264673e+01
1.550000e-06	-1.338519e-06	-4.440297e-10	-9.315333e+00	-3.209464e+01
1.560000e-06	-1.293018e-06	-4.365847e-10	-8.998667e+00	-3.153028e+01
1.570000e-06	-1.247368e-06	-4.301973e-10	-8.680973e+00	-3.095324e+01
1.580000e-06	-1.201678e-06	-4.208786e-10	-8.362997e+00	-3.036313e+01
1.590000e-06	-1.155923e-06	-4.121935e-10	-8.044566e+00	-2.975957e+01
1.600000e-06	-1.110057e-06	-4.047549e-10	-7.725364e+00	-2.914219e+01
1.610000e-06	-1.064124e-06	-3.944815e-10	-7.405697e+00	-2.851064e+01
1.620000e-06	-1.018086e-06	-3.831917e-10	-7.085300e+00	-2.786459e+01
1.630000e-06	-9.719717e-07	-3.742487e-10	-6.764369e+00	-2.720374e+01
1.640000e-06	-9.258549e-07	-3.650560e-10	-6.443422e+00	-2.652780e+01
1.650000e-06	-8.796872e-07	-3.539123e-10	-6.122122e+00	-2.583653e+01
1.660000e-06	-8.333848e-07	-3.412414e-10	-5.799883e+00	-2.512969e+01
1.670000e-06	-7.869716e-07	-3.285582e-10	-5.476874e+00	-2.440711e+01
1.680000e-06	-7.406121e-07	-3.147364e-10	-5.154238e+00	-2.366863e+01
1.690000e-06	-6.942805e-07	-3.022558e-10	-4.831796e+00	-2.291412e+01
1.700000e-06	-6.479010e-07	-2.918558e-10	-4.509021e+00	-2.214351e+01
1.710000e-06	-6.014613e-07	-2.808110e-10	-4.185828e+00	-2.135676e+01
1.720000e-06	-5.549039e-07	-2.695664e-10	-3.861815e+00	-2.055386e+01
1.730000e-06	-5.083030e-07	-2.581917e-10	-3.537499e+00	-1.973487e+01
1.740000e-06	-4.616412e-07	-2.458621e-10	-3.212759e+00	-1.889987e+01
1.750000e-06	-4.149263e-07	-2.327375e-10	-2.887650e+00	-1.804899e+01
1.760000e-06	-3.682047e-07	-2.191569e-10	-2.562495e+00	-1.718240e+01
1.770000e-06	-3.213992e-07	-2.058898e-10	-2.236756e+00	-1.630032e+01
1.780000e-06	-2.745362e-07	-1.934692e-10	-1.910616e+00	-1.540301e+01
1.790000e-06	-2.276903e-07	-1.836242e-10	-1.584595e+00	-1.449079e+01
1.800000e-06	-1.809059e-07	-1.733366e-10	-1.259002e+00	-1.356399e+01
1.810000e-06	-1.341472e-07	-1.592256e-10	-9.335879e-01	-1.262302e+01
1.820000e-06	-8.729422e-08	-1.421090e-10	-6.075180e-01	-1.166829e+01
1.830000e-06	-4.047432e-08	-1.245410e-10	-2.816782e-01	-1.070030e+01
1.840000e-06	6.280922e-09	-1.081575e-10	4.371164e-02	-9.719536e+00
1.850000e-06	5.306100e-08	-9.398413e-11	3.692743e-01	-8.726558e+00
1.860000e-06	9.984626e-08	-8.118421e-11	6.948730e-01	-7.721945e+00
1.870000e-06	1.465776e-07	-6.791316e-11	1.020097e+00	-6.706310e+00
1.880000e-06	1.932456e-07	-5.637076e-11	1.344879e+00	-5.680299e+00
1.890000e-06	2.399466e-07	-4.434669e-11	1.669891e+00	-4.644584e+00
1.900000e-06	2.866928e-07	-3.007346e-11	1.995218e+00	-3.599863e+00
1.910000e-06	3.333964e-07	-1.479528e-11	2.320249e+00	-2.546856e+00
1.920000e-06	3.799631e-07	1.792352e-12	2.644327e+00	-1.486307e+00
1.930000e-06	4.264594e-07	1.835175e-11	2.967915e+00	-4.189735e-01
1.940000e-06	4.730966e-07	3.481411e-11	3.292483e+00	6.543699e-01
1.950000e-06	5.197995e-07	5.015103e-11	3.617508e+00	1.732937e+00
1.960000e-06	5.662603e-07	6.435937e-11	3.940849e+00	2.815931e+00
1.970000e-06	6.126690e-07	7.776615e-11	4.263827e+00	3.902550e+00
1.980000e-06	6.591264e-07	9.011704e-11	4.587144e+00	4.991987e+00
1.990000e-06	7.055254e-07	1.029564e-10	4.910055e+00	6.083432e+00
2.000000e-06	7.518151e-07	1.176949e-10	5.232204e+00	7.176079e+00
2.010000e-06	7.979994e-07	1.315722e-10	5.553621e+00	8.269123e+00
2.020000e-06	8.441466e-07	1.467839e-10	5.874779e+00	9.361765e+00
2.030000e-06	8.902906e-07	1.657531e-10	6.195915e+00	1.045322e+01
2.040000e-06	9.364306e-07	1.829280e-10	6.517023e+00	1.154269e+01
2.050000e-06	9.825234e-07	1.963305e-10	6.837803e+00	1.262943e+01
2.060000e-06	1.028553e-06	2.090565e-10	7.158143e+00	1.371267e+01
2.070000e-06	1.074458e-06	2.220789e-10	7.477618e+00	1.479167e+01
2.080000e-06	1.120267e-06	2.346839e-10	7.796422e+00	1.586572e+01
2.090000e-06	1.165988e-06	2.515298e-10	8.114613e+00	1.693411e+01
2.100000e-06	1.211607e-06	2.699673e-10	8.432096e+00	1.799615e+01
2.110000e-06	1.257126e-06	2.890245e-10	8.748879e+00	1.905118e+01
2.120000e-06	1.302557e-06	3.051797e-10	9.065058e+00	2.009857e+01
2.130000e-06	1.347956e-06	3.191739e-10	9.381007e+00	2.113769e+01
2.140000e-06	1.393248e-06	3.313035e-10	9.696215e+00	2.216795e+01
2.150000e-06	1.438410e-06	3.409584e-10	1.001051e+01	2.318878e+01
2.160000e-06	1.483462e-06	3.533090e-10	1.032405e+01	2.419963e+01
2.170000e-06	1.528430e-06	3.687731e-10	1.063700e+01	2.519998e+01
2.180000e-06	1.573240e-06	3.856280e-10	1.094885e+01	2.618933e+01
2.190000e-06	1.617847e-06	4.029799e-10	1.125930e+01	2.716721e+01
2.200000e-06	1.662365e-06	4.181868e-10	1.156911e+01	2.813318e+01
2.210000e-06	1.706832e-06	4.286956e-10	1.187858e+01	2.908681e+01
2.220000e-06	1.751223e-06	4.351895e-10	1.218751e+01	3.002771e+01
2.230000e-06	1.795439e-06	4.436245e-10	1.249523e+01	3.095550e+01
2.240000e-06	1.839499e-06	4.560104e-10	1.280187e+01	3.186984e+01
2.250000e-06	1.883483e-06	4.708614e-10	1.310797e+01	3.277041e+01
2.260000e-06	1.927388e-06	4.879671e-10	1.341352e+01	3.365691e+01
2.270000e-06	1.971222e-06	5.044319e-10	1.371858e+01	3.452905e+01
2.280000e-06	2.014984e-06	5.182123e-10	1.402314e+01	3.538660e+01
2.290000e-06	2.058658e-06	5.291257e-10	1.432709e+01	3.622933e+01
2.300000e-06	2.102294e-06	5.385340e-10	1.463077e+01	3.705702e+01
2.310000e-06	2.145884e-06	5.474945e-10	1.493413e+01	3.786950e+01
2.320000e-06	2.189343e-06	5.585192e-10	1.523658e+01	3.866662e+01
2.330000e-06	2.232671e-06	5.714041e-10	1.553812e+01	3.944822e+01
2.340000e-06	2.275861e-06	5.839419e-10	1.583870e+01	4.021421e+01
2.350000e-06	2.318877e-06	5.948640e-10	1.613806e+01	4.096448e+01
2.360000e-06	2.361647e-06	6.051680e-10	1.643572e+01	4.169896e+01
2.370000e-06	2.404155e-06	6.139232e-10	1.673155e+01	4.241761e+01
2.380000e-06	2.446346e-06	6.226187e-10	1.702517e+01	4.312040e+01
2.390000e-06	2.488179e-06	6.319746e-10	1.731630e+01	4.380731e+01
2.400000e-06	2.529707e-06	6.416626e-10	1.760532e+01	4.447836e+01
2.410000e-06	2.570909e-06	6.506429e-10	1.789206e+01	4.513359e+01
2.420000e-06	2.611866e-06	6.607382e-10	1.817710e+01	4.577305e+01
2.430000e-06	2.652504e-06	6.718552e-10	1.845992e+01	4.639682e+01
2.440000e-06	2.692726e-06	6.810852e-10	1.873983e+01	4.700498e+01
2.450000e-06	2.732836e-06	6.894408e-10	1.901898e+01	4.759766e+01
2.460000e-06	2.772924e-06	6.973335e-10	1.929797e+01	4.817499e+01
2.470000e-06	2.812843e-06	7.046613e-10	1.957578e+01	4.873712e+01
2.480000e-06	2.852649e-06	7.102683e-10	1.985281e+01	4.928423e+01
2.490000e-06	2.892310e-06	7.162264e-10	2.012883e+01	4.981650e+01
2.500000e-06	2.931803e-06	7.242127e-10	2.040368e+01	5.033416e+01
2.510000e-06	2.971179e-06	7.323168e-10	2.067771e+01	5.083741e+01
2.520000e-06	3.010365e-06	7.399502e-10	2.095042e+01	5.132651e+01
2.530000e-06	3.049290e-06	7.481458e-10	2.122132e+01	5.180172e+01
2.540000e-06	3.088025e-06	7.560148e-10	2.149089e+01	5.226331e+01
2.550000e-06	3.126551e-06	7.612071e-10	2.175901e+01	5.271157e+01
2.560000e-06	3.164846e-06	7.631989e-10	2.202552e+01	5.314681e+01
2.570000e-06	3.202967e-06	7.675197e-10	2.229083e+01	5.356933e+01
2.580000e-06	3.240954e-06	7.762703e-10	2.255520e+01	5.397948e+01
2.590000e-06	3.278697e-06	7.851136e-10	2.281786e+01	5.437757e+01
2.600000e-06	3.316118e-06	7.917887e-10	2.307829e+01	5.476397e+01
2.610000e-06	3.353287e-06	7.967724e-10	2.333697e+01	5.513902e+01
2.620000e-06	3.390236e-06	8.032250e-10	2.359411e+01	5.550309e+01
2.630000e-06	3.426996e-06	8.079489e-10	2.384994e+01	5.585654e+01
2.640000e-06	3.463501e-06	8.103404e-10	2.410399e+01	5.619973e+01
2.650000e-06	3.499693e-06	8.154185e-10	2.435587e+01	5.653304e+01
2.660000e-06	3.535624e-06	8.229368e-10	2.460593e+01	5.685683e+01
2.670000e-06	3.571473e-06	8.293848e-10	2.485541e+01	5.717148e+01
2.680000e-06	3.607245e-06	8.344766e-10	2.510437e+01	5.747734e+01
2.690000e-06	3.642859e-06	8.371343e-10	2.535222e+01	5.777479e+01
2.700000e-06	3.678338e-06	8.397044e-10	2.559913e+01	5.806416e+01
2.710000e-06	3.713622e-06	8.428949e-10	2.584469e+01	5.834581e+01
2.720000e-06	3.748669e-06	8.459326e-10	2.608860e+01	5.862007e+01
2.730000e-06	3.783379e-06	8.509295e-10	2.633016e+01	5.888727e+01
2.740000e-06	3.817560e-06	8.571800e-10	2.656804e+01	5.914772e+01
2.750000e-06	3.851137e-06	8.622746e-10	2.680172e+01	5.940172e+01
2.760000e-06	3.884221e-06	8.658649e-10	2.703196e+01	5.964954e+01
2.770000e-06	3.916977e-06	8.684633e-10	2.725993e+01	5.989147e+01
2.780000e-06	3.949392e-06	8.706273e-10	2.748552e+01	6.012774e+01
2.790000e-06	3.981487e-06	8.720312e-10	2.770888e+01	6.035859e+01
2.800000e-06	4.013358e-06	8.727562e-10	2.793069e+01	6.058424e+01
2.810000e-06	4.045046e-06	8.738240e-10	2.815122e+01	6.080488e+01
2.820000e-06	4.076625e-06	8.762826e-10	2.837098e+01	6.102068e+01
2.830000e-06	4.108081e-06	8.806742e-10	2.858990e+01	6.123180e+01
2.840000e-06	4.139249e-06	8.851745e-10	2.880681e+01	6.143837e+01
2.850000e-06	4.170102e-06	8.892821e-10	2.902153e+01	6.164052e+01
2.860000e-06	4.200722e-06	8.907233e-10	2.923463e+01	6.183833e+01
2.870000e-06	4.231014e-06	8.901565e-10	2.944545e+01	6.203189e+01
2.880000e-06	4.260872e-06	8.888561e-10	2.965324e+01	6.222124e+01
2.890000e-06	4.290423e-06	8.883495e-10	2.985890e+01	6.240644e+01
2.900000e-06	4.319749e-06	8.907653e-10	3.006299e+01	6.258751e+01
