# Temperatura_=_-0.7
# Concentracion g/m^3_=_1620.0
# C_Vs_to_Am_M_A/Vsm_=_65563218390.804596
# pendiente_HvsI_1/m_=_3716.3
# ordenada_HvsI_A/m_=_1297.0
# frecuencia_Hz_=_135096.0655107299

Tiempo_(s)	Campo_(V.s)	Magnetizacion_(V.s)	Campo_(kA/m)	Magnetizacion_(A/m)
0.000000e+00	-5.512156e-06	-1.269190e-09	-3.836693e+01	-8.425505e+01
1.000000e-08	-5.512269e-06	-1.263919e-09	-3.836771e+01	-8.422105e+01
2.000000e-08	-5.512078e-06	-1.262542e-09	-3.836639e+01	-8.418765e+01
3.000000e-08	-5.511487e-06	-1.262110e-09	-3.836227e+01	-8.415476e+01
4.000000e-08	-5.510412e-06	-1.263285e-09	-3.835479e+01	-8.412224e+01
5.000000e-08	-5.508814e-06	-1.265102e-09	-3.834367e+01	-8.408997e+01
6.000000e-08	-5.506574e-06	-1.262784e-09	-3.832808e+01	-8.405777e+01
7.000000e-08	-5.503668e-06	-1.269471e-09	-3.830785e+01	-8.402546e+01
8.000000e-08	-5.500240e-06	-1.285024e-09	-3.828399e+01	-8.399282e+01
9.000000e-08	-5.496400e-06	-1.270326e-09	-3.825726e+01	-8.395965e+01
1.000000e-07	-5.492236e-06	-1.269669e-09	-3.822827e+01	-8.392570e+01
1.100000e-07	-5.487811e-06	-1.271844e-09	-3.819747e+01	-8.389072e+01
1.200000e-07	-5.483162e-06	-1.259409e-09	-3.816512e+01	-8.385445e+01
1.300000e-07	-5.478226e-06	-1.252174e-09	-3.813076e+01	-8.381662e+01
1.400000e-07	-5.472889e-06	-1.247099e-09	-3.809361e+01	-8.377697e+01
1.500000e-07	-5.467140e-06	-1.269096e-09	-3.805360e+01	-8.373522e+01
1.600000e-07	-5.461047e-06	-1.276011e-09	-3.801119e+01	-8.369110e+01
1.700000e-07	-5.454489e-06	-1.242727e-09	-3.796554e+01	-8.364434e+01
1.800000e-07	-5.447504e-06	-1.254850e-09	-3.791692e+01	-8.359467e+01
1.900000e-07	-5.440167e-06	-1.267008e-09	-3.786586e+01	-8.354184e+01
2.000000e-07	-5.432477e-06	-1.299534e-09	-3.781233e+01	-8.348561e+01
2.100000e-07	-5.424540e-06	-1.277375e-09	-3.775709e+01	-8.342575e+01
2.200000e-07	-5.416477e-06	-1.285090e-09	-3.770096e+01	-8.336203e+01
2.300000e-07	-5.408129e-06	-1.284144e-09	-3.764285e+01	-8.329427e+01
2.400000e-07	-5.399198e-06	-1.280482e-09	-3.758069e+01	-8.322228e+01
2.500000e-07	-5.389543e-06	-1.261110e-09	-3.751349e+01	-8.314591e+01
2.600000e-07	-5.379198e-06	-1.264940e-09	-3.744149e+01	-8.306501e+01
2.700000e-07	-5.368351e-06	-1.260622e-09	-3.736598e+01	-8.297949e+01
2.800000e-07	-5.357109e-06	-1.251044e-09	-3.728773e+01	-8.288923e+01
2.900000e-07	-5.345503e-06	-1.243014e-09	-3.720695e+01	-8.279420e+01
3.000000e-07	-5.333545e-06	-1.226432e-09	-3.712372e+01	-8.269433e+01
3.100000e-07	-5.321138e-06	-1.226287e-09	-3.703736e+01	-8.258962e+01
3.200000e-07	-5.308197e-06	-1.224110e-09	-3.694729e+01	-8.248009e+01
3.300000e-07	-5.294884e-06	-1.237928e-09	-3.685462e+01	-8.236576e+01
3.400000e-07	-5.281270e-06	-1.213655e-09	-3.675987e+01	-8.224669e+01
3.500000e-07	-5.267224e-06	-1.229784e-09	-3.666210e+01	-8.212297e+01
3.600000e-07	-5.252781e-06	-1.232804e-09	-3.656157e+01	-8.199470e+01
3.700000e-07	-5.237807e-06	-1.225481e-09	-3.645734e+01	-8.186200e+01
3.800000e-07	-5.222237e-06	-1.204583e-09	-3.634897e+01	-8.172501e+01
3.900000e-07	-5.206128e-06	-1.229570e-09	-3.623684e+01	-8.158390e+01
4.000000e-07	-5.189578e-06	-1.218931e-09	-3.612165e+01	-8.143883e+01
4.100000e-07	-5.172708e-06	-1.205819e-09	-3.600423e+01	-8.129000e+01
4.200000e-07	-5.155502e-06	-1.220767e-09	-3.588447e+01	-8.113760e+01
4.300000e-07	-5.138065e-06	-1.231308e-09	-3.576310e+01	-8.098184e+01
4.400000e-07	-5.120313e-06	-1.187217e-09	-3.563954e+01	-8.082292e+01
4.500000e-07	-5.102147e-06	-1.195665e-09	-3.551309e+01	-8.066107e+01
4.600000e-07	-5.083505e-06	-1.220752e-09	-3.538334e+01	-8.049649e+01
4.700000e-07	-5.064459e-06	-1.193951e-09	-3.525077e+01	-8.032939e+01
4.800000e-07	-5.045138e-06	-1.176096e-09	-3.511629e+01	-8.016000e+01
4.900000e-07	-5.025583e-06	-1.218384e-09	-3.498017e+01	-7.998851e+01
5.000000e-07	-5.005826e-06	-1.199589e-09	-3.484266e+01	-7.981511e+01
5.100000e-07	-4.985809e-06	-1.157612e-09	-3.470333e+01	-7.963999e+01
5.200000e-07	-4.965479e-06	-1.186972e-09	-3.456183e+01	-7.946331e+01
5.300000e-07	-4.944775e-06	-1.199741e-09	-3.441772e+01	-7.928523e+01
5.400000e-07	-4.923690e-06	-1.150237e-09	-3.427096e+01	-7.910589e+01
5.500000e-07	-4.902282e-06	-1.163164e-09	-3.412195e+01	-7.892540e+01
5.600000e-07	-4.880540e-06	-1.202097e-09	-3.397062e+01	-7.874386e+01
5.700000e-07	-4.858484e-06	-1.164544e-09	-3.381710e+01	-7.856136e+01
5.800000e-07	-4.836054e-06	-1.148178e-09	-3.366097e+01	-7.837794e+01
5.900000e-07	-4.813233e-06	-1.184754e-09	-3.350213e+01	-7.819364e+01
6.000000e-07	-4.790092e-06	-1.170946e-09	-3.334106e+01	-7.800847e+01
6.100000e-07	-4.766693e-06	-1.138777e-09	-3.317819e+01	-7.782242e+01
6.200000e-07	-4.743084e-06	-1.170069e-09	-3.301386e+01	-7.763543e+01
6.300000e-07	-4.719219e-06	-1.170995e-09	-3.284775e+01	-7.744747e+01
6.400000e-07	-4.695165e-06	-1.140191e-09	-3.268032e+01	-7.725843e+01
6.500000e-07	-4.670778e-06	-1.149605e-09	-3.251058e+01	-7.706823e+01
6.600000e-07	-4.645910e-06	-1.168348e-09	-3.233749e+01	-7.687671e+01
6.700000e-07	-4.620573e-06	-1.140447e-09	-3.216114e+01	-7.668375e+01
6.800000e-07	-4.594650e-06	-1.140835e-09	-3.198070e+01	-7.648918e+01
6.900000e-07	-4.568101e-06	-1.154589e-09	-3.179590e+01	-7.629280e+01
7.000000e-07	-4.541021e-06	-1.141823e-09	-3.160742e+01	-7.609443e+01
7.100000e-07	-4.513584e-06	-1.127111e-09	-3.141645e+01	-7.589385e+01
7.200000e-07	-4.485936e-06	-1.140012e-09	-3.122400e+01	-7.569083e+01
7.300000e-07	-4.458130e-06	-1.128499e-09	-3.103047e+01	-7.548514e+01
7.400000e-07	-4.430184e-06	-1.110786e-09	-3.083595e+01	-7.527654e+01
7.500000e-07	-4.402027e-06	-1.113578e-09	-3.063996e+01	-7.506479e+01
7.600000e-07	-4.373560e-06	-1.120516e-09	-3.044182e+01	-7.484962e+01
7.700000e-07	-4.344837e-06	-1.109629e-09	-3.024189e+01	-7.463080e+01
7.800000e-07	-4.315795e-06	-1.110706e-09	-3.003975e+01	-7.440806e+01
7.900000e-07	-4.286414e-06	-1.110497e-09	-2.983525e+01	-7.418116e+01
8.000000e-07	-4.256775e-06	-1.095800e-09	-2.962895e+01	-7.394987e+01
8.100000e-07	-4.226792e-06	-1.082141e-09	-2.942025e+01	-7.371394e+01
8.200000e-07	-4.196544e-06	-1.080233e-09	-2.920971e+01	-7.347315e+01
8.300000e-07	-4.166038e-06	-1.073072e-09	-2.899738e+01	-7.322729e+01
8.400000e-07	-4.135159e-06	-1.065898e-09	-2.878245e+01	-7.297615e+01
8.500000e-07	-4.104008e-06	-1.070109e-09	-2.856563e+01	-7.271956e+01
8.600000e-07	-4.072688e-06	-1.068806e-09	-2.834762e+01	-7.245735e+01
8.700000e-07	-4.041167e-06	-1.060435e-09	-2.812823e+01	-7.218936e+01
8.800000e-07	-4.009469e-06	-1.058917e-09	-2.790760e+01	-7.191545e+01
8.900000e-07	-3.977582e-06	-1.056724e-09	-2.768565e+01	-7.163552e+01
9.000000e-07	-3.945428e-06	-1.040786e-09	-2.746184e+01	-7.134947e+01
9.100000e-07	-3.913018e-06	-1.034620e-09	-2.723625e+01	-7.105723e+01
9.200000e-07	-3.880201e-06	-1.032503e-09	-2.700783e+01	-7.075873e+01
9.300000e-07	-3.846972e-06	-1.024105e-09	-2.677655e+01	-7.045396e+01
9.400000e-07	-3.813293e-06	-1.015061e-09	-2.654213e+01	-7.014289e+01
9.500000e-07	-3.779061e-06	-1.016758e-09	-2.630386e+01	-6.982554e+01
9.600000e-07	-3.744420e-06	-1.009801e-09	-2.606274e+01	-6.950192e+01
9.700000e-07	-3.709444e-06	-1.001244e-09	-2.581930e+01	-6.917209e+01
9.800000e-07	-3.674224e-06	-9.989947e-10	-2.557415e+01	-6.883611e+01
9.900000e-07	-3.638806e-06	-9.961311e-10	-2.532762e+01	-6.849406e+01
1.000000e-06	-3.603182e-06	-9.842177e-10	-2.507967e+01	-6.814603e+01
1.010000e-06	-3.567441e-06	-9.829646e-10	-2.483090e+01	-6.779214e+01
1.020000e-06	-3.531565e-06	-9.833625e-10	-2.458118e+01	-6.743249e+01
1.030000e-06	-3.495515e-06	-9.763009e-10	-2.433026e+01	-6.706723e+01
1.040000e-06	-3.459252e-06	-9.703955e-10	-2.407785e+01	-6.669649e+01
1.050000e-06	-3.422728e-06	-9.698138e-10	-2.382363e+01	-6.632043e+01
1.060000e-06	-3.385916e-06	-9.600211e-10	-2.356740e+01	-6.593919e+01
1.070000e-06	-3.348761e-06	-9.482957e-10	-2.330879e+01	-6.555293e+01
1.080000e-06	-3.311353e-06	-9.439887e-10	-2.304841e+01	-6.516181e+01
1.090000e-06	-3.273683e-06	-9.411338e-10	-2.278621e+01	-6.476598e+01
1.100000e-06	-3.235776e-06	-9.338255e-10	-2.252237e+01	-6.436559e+01
1.110000e-06	-3.197789e-06	-9.297964e-10	-2.225796e+01	-6.396080e+01
1.120000e-06	-3.159594e-06	-9.248478e-10	-2.199210e+01	-6.355175e+01
1.130000e-06	-3.121231e-06	-9.133249e-10	-2.172508e+01	-6.313857e+01
1.140000e-06	-3.082713e-06	-9.037878e-10	-2.145698e+01	-6.272138e+01
1.150000e-06	-3.043977e-06	-8.983111e-10	-2.118736e+01	-6.230029e+01
1.160000e-06	-3.005037e-06	-8.924077e-10	-2.091633e+01	-6.187540e+01
1.170000e-06	-2.965849e-06	-8.858835e-10	-2.064356e+01	-6.144679e+01
1.180000e-06	-2.926441e-06	-8.829528e-10	-2.036926e+01	-6.101453e+01
1.190000e-06	-2.886844e-06	-8.769777e-10	-2.009365e+01	-6.057867e+01
1.200000e-06	-2.847140e-06	-8.679240e-10	-1.981729e+01	-6.013922e+01
1.210000e-06	-2.807306e-06	-8.600516e-10	-1.954003e+01	-5.969621e+01
1.220000e-06	-2.767345e-06	-8.536268e-10	-1.926189e+01	-5.924960e+01
1.230000e-06	-2.727291e-06	-8.431288e-10	-1.898310e+01	-5.879938e+01
1.240000e-06	-2.687042e-06	-8.355488e-10	-1.870295e+01	-5.834548e+01
1.250000e-06	-2.646451e-06	-8.304052e-10	-1.842041e+01	-5.788782e+01
1.260000e-06	-2.605568e-06	-8.245068e-10	-1.813585e+01	-5.742630e+01
1.270000e-06	-2.564494e-06	-8.168269e-10	-1.784996e+01	-5.696079e+01
1.280000e-06	-2.523258e-06	-8.120461e-10	-1.756294e+01	-5.649114e+01
1.290000e-06	-2.481784e-06	-8.046825e-10	-1.727426e+01	-5.601717e+01
1.300000e-06	-2.439926e-06	-7.928568e-10	-1.698292e+01	-5.553869e+01
1.310000e-06	-2.397701e-06	-7.805509e-10	-1.668901e+01	-5.505548e+01
1.320000e-06	-2.355126e-06	-7.716637e-10	-1.639267e+01	-5.456730e+01
1.330000e-06	-2.312389e-06	-7.622175e-10	-1.609520e+01	-5.407387e+01
1.340000e-06	-2.269501e-06	-7.535096e-10	-1.579668e+01	-5.357492e+01
1.350000e-06	-2.226266e-06	-7.464439e-10	-1.549575e+01	-5.307014e+01
1.360000e-06	-2.182816e-06	-7.393585e-10	-1.519332e+01	-5.255921e+01
1.370000e-06	-2.139280e-06	-7.325877e-10	-1.489029e+01	-5.204178e+01
1.380000e-06	-2.095639e-06	-7.254642e-10	-1.458653e+01	-5.151749e+01
1.390000e-06	-2.051926e-06	-7.148018e-10	-1.428227e+01	-5.098597e+01
1.400000e-06	-2.008166e-06	-7.048981e-10	-1.397768e+01	-5.044682e+01
1.410000e-06	-1.964298e-06	-6.971657e-10	-1.367234e+01	-4.989964e+01
1.420000e-06	-1.920374e-06	-6.888852e-10	-1.336662e+01	-4.934401e+01
1.430000e-06	-1.876359e-06	-6.797556e-10	-1.306025e+01	-4.877951e+01
1.440000e-06	-1.832199e-06	-6.712620e-10	-1.275288e+01	-4.820569e+01
1.450000e-06	-1.787925e-06	-6.621033e-10	-1.244471e+01	-4.762211e+01
1.460000e-06	-1.743528e-06	-6.514327e-10	-1.213569e+01	-4.702831e+01
1.470000e-06	-1.699030e-06	-6.406008e-10	-1.182597e+01	-4.642385e+01
1.480000e-06	-1.654408e-06	-6.289905e-10	-1.151537e+01	-4.580825e+01
1.490000e-06	-1.609627e-06	-6.195576e-10	-1.120368e+01	-4.518106e+01
1.500000e-06	-1.564702e-06	-6.104937e-10	-1.089099e+01	-4.454180e+01
1.510000e-06	-1.519647e-06	-6.006075e-10	-1.057739e+01	-4.389003e+01
1.520000e-06	-1.474441e-06	-5.894574e-10	-1.026273e+01	-4.322528e+01
1.530000e-06	-1.429184e-06	-5.779317e-10	-9.947725e+00	-4.254710e+01
1.540000e-06	-1.383898e-06	-5.649822e-10	-9.632516e+00	-4.185504e+01
1.550000e-06	-1.338470e-06	-5.502351e-10	-9.316314e+00	-4.114866e+01
1.560000e-06	-1.292924e-06	-5.361202e-10	-8.999293e+00	-4.042754e+01
1.570000e-06	-1.247278e-06	-5.263644e-10	-8.681581e+00	-3.969125e+01
1.580000e-06	-1.201618e-06	-5.173174e-10	-8.363767e+00	-3.893939e+01
1.590000e-06	-1.155950e-06	-5.087244e-10	-8.045900e+00	-3.817158e+01
1.600000e-06	-1.110225e-06	-4.997188e-10	-7.727634e+00	-3.738744e+01
1.610000e-06	-1.064399e-06	-4.859169e-10	-7.408667e+00	-3.658663e+01
1.620000e-06	-1.018447e-06	-4.698228e-10	-7.088820e+00	-3.576880e+01
1.630000e-06	-9.723832e-07	-4.562354e-10	-6.768197e+00	-3.493366e+01
1.640000e-06	-9.262143e-07	-4.435796e-10	-6.446842e+00	-3.408092e+01
1.650000e-06	-8.800093e-07	-4.309577e-10	-6.125236e+00	-3.321032e+01
1.660000e-06	-8.337510e-07	-4.193248e-10	-5.803258e+00	-3.232164e+01
1.670000e-06	-7.874621e-07	-4.076355e-10	-5.481068e+00	-3.141466e+01
1.680000e-06	-7.411326e-07	-3.947612e-10	-5.158595e+00	-3.048922e+01
1.690000e-06	-6.947370e-07	-3.814079e-10	-4.835662e+00	-2.954520e+01
1.700000e-06	-6.482934e-07	-3.669546e-10	-4.512396e+00	-2.858247e+01
1.710000e-06	-6.017593e-07	-3.512477e-10	-4.188498e+00	-2.760099e+01
1.720000e-06	-5.551617e-07	-3.350587e-10	-3.864159e+00	-2.660072e+01
1.730000e-06	-5.086119e-07	-3.195855e-10	-3.540153e+00	-2.558168e+01
1.740000e-06	-4.620572e-07	-3.030547e-10	-3.216113e+00	-2.454391e+01
1.750000e-06	-4.154838e-07	-2.865311e-10	-2.891943e+00	-2.348752e+01
1.760000e-06	-3.688835e-07	-2.718301e-10	-2.567584e+00	-2.241263e+01
1.770000e-06	-3.222483e-07	-2.566545e-10	-2.242984e+00	-2.131943e+01
1.780000e-06	-2.755501e-07	-2.418940e-10	-1.917945e+00	-2.020815e+01
1.790000e-06	-2.287640e-07	-2.287043e-10	-1.592294e+00	-1.907905e+01
1.800000e-06	-1.819962e-07	-2.145996e-10	-1.266770e+00	-1.793245e+01
1.810000e-06	-1.352446e-07	-1.977829e-10	-9.413596e-01	-1.676871e+01
1.820000e-06	-8.850329e-08	-1.797112e-10	-6.160202e-01	-1.558825e+01
1.830000e-06	-4.171385e-08	-1.603638e-10	-2.903460e-01	-1.439151e+01
1.840000e-06	5.032069e-09	-1.416048e-10	3.502532e-02	-1.317901e+01
1.850000e-06	5.175232e-08	-1.250458e-10	3.602179e-01	-1.195128e+01
1.860000e-06	9.852222e-08	-1.080130e-10	6.857562e-01	-1.070892e+01
1.870000e-06	1.452361e-07	-8.945502e-11	1.010905e+00	-9.452565e+00
1.880000e-06	1.919156e-07	-7.343581e-11	1.335813e+00	-8.182899e+00
1.890000e-06	2.386264e-07	-5.911228e-11	1.660941e+00	-6.900643e+00
1.900000e-06	2.853966e-07	-4.384740e-11	1.986481e+00	-5.606559e+00
1.910000e-06	3.321791e-07	-2.499636e-11	2.312106e+00	-4.301451e+00
1.920000e-06	3.788297e-07	-2.960444e-12	2.636814e+00	-2.986157e+00
1.930000e-06	4.253932e-07	1.917095e-11	2.960916e+00	-1.661552e+00
1.940000e-06	4.720109e-07	3.883030e-11	3.285395e+00	-3.285420e-01
1.950000e-06	5.185792e-07	5.882079e-11	3.609530e+00	1.011937e+00
1.960000e-06	5.650619e-07	7.601328e-11	3.933069e+00	2.358920e+00
1.970000e-06	6.114560e-07	9.376838e-11	4.255991e+00	3.711421e+00
1.980000e-06	6.577503e-07	1.104750e-10	4.578219e+00	5.068429e+00
1.990000e-06	7.040192e-07	1.229812e-10	4.900271e+00	6.428919e+00
2.000000e-06	7.502535e-07	1.405555e-10	5.222080e+00	7.791848e+00
2.010000e-06	7.965278e-07	1.588665e-10	5.544169e+00	9.156165e+00
2.020000e-06	8.427433e-07	1.802409e-10	5.865849e+00	1.052081e+01
2.030000e-06	8.887990e-07	2.045512e-10	6.186416e+00	1.188472e+01
2.040000e-06	9.348156e-07	2.282814e-10	6.506710e+00	1.324682e+01
2.050000e-06	9.807810e-07	2.480578e-10	6.826649e+00	1.460607e+01
2.060000e-06	1.026701e-06	2.647748e-10	7.146270e+00	1.596141e+01
2.070000e-06	1.072595e-06	2.790631e-10	7.465716e+00	1.731179e+01
2.080000e-06	1.118438e-06	2.931952e-10	7.784799e+00	1.865620e+01
2.090000e-06	1.164268e-06	3.123911e-10	8.103799e+00	1.999361e+01
2.100000e-06	1.209995e-06	3.354442e-10	8.422077e+00	2.132306e+01
2.110000e-06	1.255547e-06	3.583286e-10	8.739139e+00	2.264357e+01
2.120000e-06	1.301001e-06	3.789384e-10	9.055516e+00	2.395423e+01
2.130000e-06	1.346323e-06	3.978105e-10	9.370976e+00	2.525412e+01
2.140000e-06	1.391524e-06	4.135455e-10	9.685593e+00	2.654239e+01
2.150000e-06	1.436591e-06	4.266845e-10	9.999278e+00	2.781820e+01
2.160000e-06	1.481567e-06	4.420067e-10	1.031233e+01	2.908079e+01
2.170000e-06	1.526474e-06	4.590481e-10	1.062490e+01	3.032939e+01
2.180000e-06	1.571338e-06	4.783399e-10	1.093718e+01	3.156332e+01
2.190000e-06	1.616081e-06	4.969311e-10	1.124861e+01	3.278192e+01
2.200000e-06	1.660567e-06	5.130360e-10	1.155825e+01	3.398459e+01
2.210000e-06	1.704943e-06	5.280411e-10	1.186712e+01	3.517078e+01
2.220000e-06	1.749206e-06	5.405340e-10	1.217521e+01	3.633998e+01
2.230000e-06	1.793343e-06	5.550295e-10	1.248242e+01	3.749173e+01
2.240000e-06	1.837393e-06	5.704862e-10	1.278903e+01	3.862564e+01
2.250000e-06	1.881322e-06	5.882140e-10	1.309479e+01	3.974135e+01
2.260000e-06	1.925210e-06	6.063925e-10	1.340027e+01	4.083857e+01
2.270000e-06	1.969090e-06	6.215504e-10	1.370569e+01	4.191703e+01
2.280000e-06	2.012889e-06	6.332527e-10	1.401056e+01	4.297655e+01
2.290000e-06	2.056638e-06	6.447225e-10	1.431507e+01	4.401697e+01
2.300000e-06	2.100360e-06	6.563693e-10	1.461939e+01	4.503818e+01
2.310000e-06	2.144017e-06	6.692881e-10	1.492326e+01	4.604013e+01
2.320000e-06	2.187590e-06	6.841311e-10	1.522655e+01	4.702279e+01
2.330000e-06	2.231068e-06	6.991002e-10	1.552917e+01	4.798619e+01
2.340000e-06	2.274384e-06	7.126218e-10	1.583067e+01	4.893039e+01
2.350000e-06	2.317426e-06	7.251105e-10	1.613026e+01	4.985549e+01
2.360000e-06	2.360139e-06	7.372718e-10	1.642756e+01	5.076164e+01
2.370000e-06	2.402570e-06	7.473021e-10	1.672290e+01	5.164898e+01
2.380000e-06	2.444735e-06	7.565091e-10	1.701639e+01	5.251772e+01
2.390000e-06	2.486533e-06	7.672390e-10	1.730732e+01	5.336807e+01
2.400000e-06	2.527899e-06	7.792859e-10	1.759524e+01	5.420028e+01
2.410000e-06	2.568967e-06	7.921251e-10	1.788109e+01	5.501461e+01
2.420000e-06	2.609817e-06	8.056557e-10	1.816543e+01	5.581134e+01
2.430000e-06	2.650388e-06	8.179462e-10	1.844782e+01	5.659077e+01
2.440000e-06	2.690678e-06	8.289712e-10	1.872825e+01	5.735319e+01
2.450000e-06	2.730782e-06	8.399553e-10	1.900739e+01	5.809893e+01
2.460000e-06	2.770753e-06	8.503484e-10	1.928561e+01	5.882830e+01
2.470000e-06	2.810612e-06	8.596367e-10	1.956304e+01	5.954162e+01
2.480000e-06	2.850380e-06	8.670126e-10	1.983985e+01	6.023923e+01
2.490000e-06	2.890045e-06	8.752850e-10	2.011593e+01	6.092145e+01
2.500000e-06	2.929584e-06	8.846846e-10	2.039114e+01	6.158859e+01
2.510000e-06	2.968958e-06	8.949406e-10	2.066520e+01	6.224098e+01
2.520000e-06	3.008116e-06	9.068423e-10	2.093776e+01	6.287893e+01
2.530000e-06	3.047020e-06	9.168009e-10	2.120855e+01	6.350273e+01
2.540000e-06	3.085685e-06	9.262371e-10	2.147767e+01	6.411269e+01
2.550000e-06	3.124173e-06	9.347311e-10	2.174556e+01	6.470909e+01
2.560000e-06	3.162446e-06	9.407364e-10	2.201196e+01	6.529220e+01
2.570000e-06	3.200468e-06	9.471561e-10	2.227661e+01	6.586228e+01
2.580000e-06	3.238308e-06	9.565709e-10	2.253999e+01	6.641959e+01
2.590000e-06	3.276012e-06	9.663984e-10	2.280242e+01	6.696437e+01
2.600000e-06	3.313601e-06	9.751194e-10	2.306406e+01	6.749684e+01
2.610000e-06	3.350926e-06	9.814660e-10	2.332386e+01	6.801723e+01
2.620000e-06	3.387963e-06	9.889880e-10	2.358165e+01	6.852574e+01
2.630000e-06	3.424711e-06	9.980709e-10	2.383743e+01	6.902257e+01
2.640000e-06	3.461169e-06	1.005336e-09	2.409119e+01	6.950791e+01
2.650000e-06	3.497420e-06	1.013951e-09	2.434352e+01	6.998193e+01
2.660000e-06	3.533458e-06	1.020161e-09	2.459435e+01	7.044482e+01
2.670000e-06	3.569323e-06	1.023395e-09	2.484399e+01	7.089673e+01
2.680000e-06	3.605046e-06	1.026193e-09	2.509264e+01	7.133783e+01
2.690000e-06	3.640649e-06	1.028944e-09	2.534045e+01	7.176828e+01
2.700000e-06	3.676160e-06	1.032940e-09	2.558763e+01	7.218823e+01
2.710000e-06	3.711517e-06	1.040372e-09	2.583372e+01	7.259784e+01
2.720000e-06	3.746482e-06	1.050218e-09	2.607710e+01	7.299726e+01
2.730000e-06	3.781068e-06	1.057685e-09	2.631783e+01	7.338664e+01
2.740000e-06	3.815219e-06	1.061760e-09	2.655553e+01	7.376614e+01
2.750000e-06	3.848853e-06	1.064318e-09	2.678964e+01	7.413592e+01
2.760000e-06	3.881964e-06	1.068162e-09	2.702010e+01	7.449615e+01
2.770000e-06	3.914523e-06	1.072190e-09	2.724673e+01	7.484699e+01
2.780000e-06	3.946739e-06	1.077577e-09	2.747097e+01	7.518861e+01
2.790000e-06	3.978795e-06	1.083554e-09	2.769409e+01	7.552121e+01
2.800000e-06	4.010673e-06	1.088111e-09	2.791597e+01	7.584496e+01
2.810000e-06	4.042374e-06	1.091580e-09	2.813663e+01	7.616006e+01
2.820000e-06	4.073963e-06	1.095508e-09	2.835650e+01	7.646671e+01
2.830000e-06	4.105379e-06	1.101557e-09	2.857517e+01	7.676513e+01
2.840000e-06	4.136566e-06	1.107303e-09	2.879224e+01	7.705551e+01
2.850000e-06	4.167411e-06	1.109432e-09	2.900693e+01	7.733809e+01
2.860000e-06	4.197827e-06	1.110534e-09	2.921864e+01	7.761310e+01
2.870000e-06	4.227934e-06	1.113904e-09	2.942820e+01	7.788075e+01
2.880000e-06	4.257830e-06	1.117625e-09	2.963629e+01	7.814130e+01
2.890000e-06	4.287489e-06	1.119307e-09	2.984273e+01	7.839498e+01
2.900000e-06	4.316892e-06	1.120864e-09	3.004739e+01	7.864203e+01
