# Temperatura_=_-0.4
# Concentracion g/m^3_=_1620.0
# C_Vs_to_Am_M_A/Vsm_=_65563218390.804596
# pendiente_HvsI_1/m_=_3716.3
# ordenada_HvsI_A/m_=_1297.0
# frecuencia_Hz_=_135087.54954082335

Tiempo_(s)	Campo_(V.s)	Magnetizacion_(V.s)	Campo_(kA/m)	Magnetizacion_(A/m)
0.000000e+00	-5.522135e-06	-1.722014e-09	-3.837970e+01	-1.113363e+02
1.000000e-08	-5.522513e-06	-1.719222e-09	-3.838233e+01	-1.112726e+02
2.000000e-08	-5.522582e-06	-1.716160e-09	-3.838281e+01	-1.112054e+02
3.000000e-08	-5.522263e-06	-1.714712e-09	-3.838059e+01	-1.111351e+02
4.000000e-08	-5.521525e-06	-1.712172e-09	-3.837546e+01	-1.110617e+02
5.000000e-08	-5.520242e-06	-1.710455e-09	-3.836655e+01	-1.109853e+02
6.000000e-08	-5.518244e-06	-1.712383e-09	-3.835266e+01	-1.109062e+02
7.000000e-08	-5.515653e-06	-1.715317e-09	-3.833465e+01	-1.108243e+02
8.000000e-08	-5.512672e-06	-1.724039e-09	-3.831393e+01	-1.107400e+02
9.000000e-08	-5.509246e-06	-1.730760e-09	-3.829013e+01	-1.106533e+02
1.000000e-07	-5.505319e-06	-1.714293e-09	-3.826283e+01	-1.105642e+02
1.100000e-07	-5.501010e-06	-1.675304e-09	-3.823288e+01	-1.104731e+02
1.200000e-07	-5.496566e-06	-1.690723e-09	-3.820200e+01	-1.103798e+02
1.300000e-07	-5.491908e-06	-1.691215e-09	-3.816962e+01	-1.102846e+02
1.400000e-07	-5.486863e-06	-1.744695e-09	-3.813456e+01	-1.101875e+02
1.500000e-07	-5.481410e-06	-1.692923e-09	-3.809666e+01	-1.100886e+02
1.600000e-07	-5.475638e-06	-1.708964e-09	-3.805655e+01	-1.099879e+02
1.700000e-07	-5.469555e-06	-1.718765e-09	-3.801426e+01	-1.098855e+02
1.800000e-07	-5.462989e-06	-1.717132e-09	-3.796863e+01	-1.097814e+02
1.900000e-07	-5.455866e-06	-1.652192e-09	-3.791913e+01	-1.096756e+02
2.000000e-07	-5.448439e-06	-1.611723e-09	-3.786751e+01	-1.095681e+02
2.100000e-07	-5.440823e-06	-1.677611e-09	-3.781457e+01	-1.094588e+02
2.200000e-07	-5.432929e-06	-1.703136e-09	-3.775971e+01	-1.093478e+02
2.300000e-07	-5.424681e-06	-1.685150e-09	-3.770238e+01	-1.092349e+02
2.400000e-07	-5.416027e-06	-1.619211e-09	-3.764223e+01	-1.091202e+02
2.500000e-07	-5.406903e-06	-1.637867e-09	-3.757882e+01	-1.090034e+02
2.600000e-07	-5.397018e-06	-1.614949e-09	-3.751012e+01	-1.088844e+02
2.700000e-07	-5.386448e-06	-1.635251e-09	-3.743666e+01	-1.087632e+02
2.800000e-07	-5.375428e-06	-1.628013e-09	-3.736007e+01	-1.086396e+02
2.900000e-07	-5.363959e-06	-1.650859e-09	-3.728035e+01	-1.085135e+02
3.000000e-07	-5.352062e-06	-1.616329e-09	-3.719767e+01	-1.083845e+02
3.100000e-07	-5.339876e-06	-1.628991e-09	-3.711298e+01	-1.082527e+02
3.200000e-07	-5.327289e-06	-1.620838e-09	-3.702549e+01	-1.081177e+02
3.300000e-07	-5.314178e-06	-1.626535e-09	-3.693437e+01	-1.079794e+02
3.400000e-07	-5.300750e-06	-1.599605e-09	-3.684104e+01	-1.078375e+02
3.500000e-07	-5.287087e-06	-1.610933e-09	-3.674609e+01	-1.076918e+02
3.600000e-07	-5.272892e-06	-1.606396e-09	-3.664742e+01	-1.075421e+02
3.700000e-07	-5.258192e-06	-1.607321e-09	-3.654526e+01	-1.073882e+02
3.800000e-07	-5.243127e-06	-1.593903e-09	-3.644056e+01	-1.072298e+02
3.900000e-07	-5.227595e-06	-1.600873e-09	-3.633261e+01	-1.070667e+02
4.000000e-07	-5.211507e-06	-1.589680e-09	-3.622079e+01	-1.068986e+02
4.100000e-07	-5.194846e-06	-1.579276e-09	-3.610500e+01	-1.067253e+02
4.200000e-07	-5.177977e-06	-1.592260e-09	-3.598775e+01	-1.065466e+02
4.300000e-07	-5.160793e-06	-1.586565e-09	-3.586832e+01	-1.063623e+02
4.400000e-07	-5.143185e-06	-1.575565e-09	-3.574594e+01	-1.061722e+02
4.500000e-07	-5.125341e-06	-1.565600e-09	-3.562192e+01	-1.059761e+02
4.600000e-07	-5.107089e-06	-1.579872e-09	-3.549507e+01	-1.057738e+02
4.700000e-07	-5.088305e-06	-1.552734e-09	-3.536452e+01	-1.055651e+02
4.800000e-07	-5.069131e-06	-1.558245e-09	-3.523125e+01	-1.053499e+02
4.900000e-07	-5.049696e-06	-1.567457e-09	-3.509618e+01	-1.051281e+02
5.000000e-07	-5.030037e-06	-1.568006e-09	-3.495955e+01	-1.048995e+02
5.100000e-07	-5.010223e-06	-1.528998e-09	-3.482183e+01	-1.046641e+02
5.200000e-07	-4.990225e-06	-1.546677e-09	-3.468285e+01	-1.044219e+02
5.300000e-07	-4.969861e-06	-1.544084e-09	-3.454131e+01	-1.041726e+02
5.400000e-07	-4.949152e-06	-1.530500e-09	-3.439738e+01	-1.039164e+02
5.500000e-07	-4.928087e-06	-1.514183e-09	-3.425098e+01	-1.036532e+02
5.600000e-07	-4.906604e-06	-1.532431e-09	-3.410167e+01	-1.033830e+02
5.700000e-07	-4.884660e-06	-1.512955e-09	-3.394915e+01	-1.031059e+02
5.800000e-07	-4.862386e-06	-1.513993e-09	-3.379434e+01	-1.028220e+02
5.900000e-07	-4.839818e-06	-1.516158e-09	-3.363750e+01	-1.025312e+02
6.000000e-07	-4.817002e-06	-1.511850e-09	-3.347892e+01	-1.022338e+02
6.100000e-07	-4.793932e-06	-1.497473e-09	-3.331858e+01	-1.019299e+02
6.200000e-07	-4.770505e-06	-1.515057e-09	-3.315576e+01	-1.016195e+02
6.300000e-07	-4.746852e-06	-1.507787e-09	-3.299137e+01	-1.013028e+02
6.400000e-07	-4.722983e-06	-1.494756e-09	-3.282547e+01	-1.009801e+02
6.500000e-07	-4.698764e-06	-1.495167e-09	-3.265715e+01	-1.006514e+02
6.600000e-07	-4.674059e-06	-1.491483e-09	-3.248544e+01	-1.003171e+02
6.700000e-07	-4.648868e-06	-1.472194e-09	-3.231036e+01	-9.997720e+01
6.800000e-07	-4.623260e-06	-1.472637e-09	-3.213238e+01	-9.963204e+01
6.900000e-07	-4.597141e-06	-1.477703e-09	-3.195085e+01	-9.928179e+01
7.000000e-07	-4.570454e-06	-1.466571e-09	-3.176537e+01	-9.892670e+01
7.100000e-07	-4.543443e-06	-1.463342e-09	-3.157764e+01	-9.856696e+01
7.200000e-07	-4.516153e-06	-1.456968e-09	-3.138797e+01	-9.820281e+01
7.300000e-07	-4.488640e-06	-1.445741e-09	-3.119675e+01	-9.783445e+01
7.400000e-07	-4.460904e-06	-1.436509e-09	-3.100398e+01	-9.746210e+01
7.500000e-07	-4.432885e-06	-1.438786e-09	-3.080925e+01	-9.708596e+01
7.600000e-07	-4.404626e-06	-1.425770e-09	-3.061284e+01	-9.670622e+01
7.700000e-07	-4.376018e-06	-1.423856e-09	-3.041401e+01	-9.632306e+01
7.800000e-07	-4.347035e-06	-1.419259e-09	-3.021258e+01	-9.593664e+01
7.900000e-07	-4.317817e-06	-1.414434e-09	-3.000950e+01	-9.554712e+01
8.000000e-07	-4.288372e-06	-1.399937e-09	-2.980485e+01	-9.515462e+01
8.100000e-07	-4.258666e-06	-1.397308e-09	-2.959840e+01	-9.475927e+01
8.200000e-07	-4.228599e-06	-1.381783e-09	-2.938943e+01	-9.436115e+01
8.300000e-07	-4.198167e-06	-1.372235e-09	-2.917792e+01	-9.396034e+01
8.400000e-07	-4.167427e-06	-1.363021e-09	-2.896427e+01	-9.355689e+01
8.500000e-07	-4.136352e-06	-1.362002e-09	-2.874830e+01	-9.315083e+01
8.600000e-07	-4.105024e-06	-1.350851e-09	-2.853056e+01	-9.274217e+01
8.700000e-07	-4.073569e-06	-1.347673e-09	-2.831194e+01	-9.233089e+01
8.800000e-07	-4.042029e-06	-1.340055e-09	-2.809274e+01	-9.191697e+01
8.900000e-07	-4.010283e-06	-1.334249e-09	-2.787209e+01	-9.150033e+01
9.000000e-07	-3.978317e-06	-1.320947e-09	-2.764993e+01	-9.108090e+01
9.100000e-07	-3.946111e-06	-1.312132e-09	-2.742609e+01	-9.065859e+01
9.200000e-07	-3.913504e-06	-1.301553e-09	-2.719947e+01	-9.023327e+01
9.300000e-07	-3.880413e-06	-1.293039e-09	-2.696948e+01	-8.980480e+01
9.400000e-07	-3.846896e-06	-1.286053e-09	-2.673653e+01	-8.937304e+01
9.500000e-07	-3.812951e-06	-1.282193e-09	-2.650061e+01	-8.893781e+01
9.600000e-07	-3.778582e-06	-1.276565e-09	-2.626173e+01	-8.849894e+01
9.700000e-07	-3.743778e-06	-1.267762e-09	-2.601985e+01	-8.805623e+01
9.800000e-07	-3.708660e-06	-1.259586e-09	-2.577577e+01	-8.760948e+01
9.900000e-07	-3.673299e-06	-1.253095e-09	-2.553000e+01	-8.715848e+01
1.000000e-06	-3.637764e-06	-1.248517e-09	-2.528303e+01	-8.670302e+01
1.010000e-06	-3.602160e-06	-1.242541e-09	-2.503558e+01	-8.624289e+01
1.020000e-06	-3.566390e-06	-1.238764e-09	-2.478697e+01	-8.577786e+01
1.030000e-06	-3.530478e-06	-1.230167e-09	-2.453737e+01	-8.530773e+01
1.040000e-06	-3.494400e-06	-1.222239e-09	-2.428663e+01	-8.483227e+01
1.050000e-06	-3.458017e-06	-1.213183e-09	-2.403376e+01	-8.435130e+01
1.060000e-06	-3.421315e-06	-1.207594e-09	-2.377868e+01	-8.386459e+01
1.070000e-06	-3.384351e-06	-1.198150e-09	-2.352177e+01	-8.337198e+01
1.080000e-06	-3.347104e-06	-1.192160e-09	-2.326290e+01	-8.287328e+01
1.090000e-06	-3.309653e-06	-1.185535e-09	-2.300261e+01	-8.236833e+01
1.100000e-06	-3.272028e-06	-1.182442e-09	-2.274110e+01	-8.185697e+01
1.110000e-06	-3.234180e-06	-1.173157e-09	-2.247805e+01	-8.133907e+01
1.120000e-06	-3.196182e-06	-1.164673e-09	-2.221396e+01	-8.081451e+01
1.130000e-06	-3.157899e-06	-1.152063e-09	-2.194789e+01	-8.028320e+01
1.140000e-06	-3.119268e-06	-1.142307e-09	-2.167940e+01	-7.974503e+01
1.150000e-06	-3.080366e-06	-1.131338e-09	-2.140903e+01	-7.919995e+01
1.160000e-06	-3.041269e-06	-1.124882e-09	-2.113730e+01	-7.864789e+01
1.170000e-06	-3.002077e-06	-1.118281e-09	-2.086491e+01	-7.808884e+01
1.180000e-06	-2.962755e-06	-1.112020e-09	-2.059161e+01	-7.752275e+01
1.190000e-06	-2.923297e-06	-1.103718e-09	-2.031737e+01	-7.694964e+01
1.200000e-06	-2.883717e-06	-1.094773e-09	-2.004228e+01	-7.636950e+01
1.210000e-06	-2.844023e-06	-1.082821e-09	-1.976640e+01	-7.578236e+01
1.220000e-06	-2.804158e-06	-1.073716e-09	-1.948934e+01	-7.518824e+01
1.230000e-06	-2.764136e-06	-1.063623e-09	-1.921118e+01	-7.458720e+01
1.240000e-06	-2.723975e-06	-1.052740e-09	-1.893205e+01	-7.397926e+01
1.250000e-06	-2.683623e-06	-1.045581e-09	-1.865160e+01	-7.336448e+01
1.260000e-06	-2.642961e-06	-1.040376e-09	-1.836899e+01	-7.274291e+01
1.270000e-06	-2.602018e-06	-1.033268e-09	-1.808443e+01	-7.211460e+01
1.280000e-06	-2.560862e-06	-1.024640e-09	-1.779839e+01	-7.147959e+01
1.290000e-06	-2.519367e-06	-1.016663e-09	-1.751000e+01	-7.083792e+01
1.300000e-06	-2.477509e-06	-1.006592e-09	-1.721907e+01	-7.018961e+01
1.310000e-06	-2.435359e-06	-9.927890e-10	-1.692612e+01	-6.953468e+01
1.320000e-06	-2.392953e-06	-9.795699e-10	-1.663140e+01	-6.887313e+01
1.330000e-06	-2.350313e-06	-9.686548e-10	-1.633504e+01	-6.820493e+01
1.340000e-06	-2.307449e-06	-9.557357e-10	-1.603714e+01	-6.753005e+01
1.350000e-06	-2.264398e-06	-9.457317e-10	-1.573792e+01	-6.684842e+01
1.360000e-06	-2.221184e-06	-9.352971e-10	-1.543758e+01	-6.615994e+01
1.370000e-06	-2.177779e-06	-9.252023e-10	-1.513591e+01	-6.546450e+01
1.380000e-06	-2.134255e-06	-9.128213e-10	-1.483341e+01	-6.476194e+01
1.390000e-06	-2.090675e-06	-9.017458e-10	-1.453052e+01	-6.405207e+01
1.400000e-06	-2.047014e-06	-8.875494e-10	-1.422707e+01	-6.333468e+01
1.410000e-06	-2.003214e-06	-8.739514e-10	-1.392265e+01	-6.260950e+01
1.420000e-06	-1.959347e-06	-8.620068e-10	-1.361777e+01	-6.187624e+01
1.430000e-06	-1.915469e-06	-8.515464e-10	-1.331281e+01	-6.113457e+01
1.440000e-06	-1.871401e-06	-8.384567e-10	-1.300653e+01	-6.038412e+01
1.450000e-06	-1.827167e-06	-8.274115e-10	-1.269910e+01	-5.962449e+01
1.460000e-06	-1.782919e-06	-8.145721e-10	-1.239156e+01	-5.885522e+01
1.470000e-06	-1.738536e-06	-8.009164e-10	-1.208310e+01	-5.807583e+01
1.480000e-06	-1.693980e-06	-7.869767e-10	-1.177343e+01	-5.728581e+01
1.490000e-06	-1.649282e-06	-7.757392e-10	-1.146277e+01	-5.648461e+01
1.500000e-06	-1.604379e-06	-7.641139e-10	-1.115069e+01	-5.567163e+01
1.510000e-06	-1.559368e-06	-7.530169e-10	-1.083785e+01	-5.484627e+01
1.520000e-06	-1.514270e-06	-7.417425e-10	-1.052441e+01	-5.400789e+01
1.530000e-06	-1.469038e-06	-7.277717e-10	-1.021004e+01	-5.315582e+01
1.540000e-06	-1.423716e-06	-7.137535e-10	-9.895052e+00	-5.228937e+01
1.550000e-06	-1.378373e-06	-7.004663e-10	-9.579911e+00	-5.140786e+01
1.560000e-06	-1.332988e-06	-6.848242e-10	-9.264475e+00	-5.051055e+01
1.570000e-06	-1.287487e-06	-6.682427e-10	-8.948236e+00	-4.959675e+01
1.580000e-06	-1.241879e-06	-6.540924e-10	-8.631255e+00	-4.866571e+01
1.590000e-06	-1.196226e-06	-6.393682e-10	-8.313955e+00	-4.771671e+01
1.600000e-06	-1.150490e-06	-6.235781e-10	-7.996085e+00	-4.674905e+01
1.610000e-06	-1.104585e-06	-6.086528e-10	-7.677036e+00	-4.576201e+01
1.620000e-06	-1.058596e-06	-5.950140e-10	-7.357407e+00	-4.475491e+01
1.630000e-06	-1.012553e-06	-5.789346e-10	-7.037402e+00	-4.372708e+01
1.640000e-06	-9.664302e-07	-5.630633e-10	-6.716842e+00	-4.267788e+01
1.650000e-06	-9.201790e-07	-5.474356e-10	-6.395388e+00	-4.160671e+01
1.660000e-06	-8.738506e-07	-5.297844e-10	-6.073399e+00	-4.051299e+01
1.670000e-06	-8.275724e-07	-5.103534e-10	-5.751758e+00	-3.939619e+01
1.680000e-06	-7.812045e-07	-4.928755e-10	-5.429494e+00	-3.825585e+01
1.690000e-06	-7.347711e-07	-4.764937e-10	-5.106774e+00	-3.709154e+01
1.700000e-06	-6.883435e-07	-4.607894e-10	-4.784096e+00	-3.590288e+01
1.710000e-06	-6.418905e-07	-4.423495e-10	-4.461239e+00	-3.468956e+01
1.720000e-06	-5.954117e-07	-4.220621e-10	-4.138205e+00	-3.345135e+01
1.730000e-06	-5.488551e-07	-4.004949e-10	-3.814629e+00	-3.218807e+01
1.740000e-06	-5.022283e-07	-3.808492e-10	-3.490565e+00	-3.089961e+01
1.750000e-06	-4.555187e-07	-3.619295e-10	-3.165927e+00	-2.958596e+01
1.760000e-06	-4.087612e-07	-3.441765e-10	-2.840955e+00	-2.824714e+01
1.770000e-06	-3.620154e-07	-3.285799e-10	-2.516064e+00	-2.688330e+01
1.780000e-06	-3.151604e-07	-3.105280e-10	-2.190414e+00	-2.549464e+01
1.790000e-06	-2.683281e-07	-2.892428e-10	-1.864923e+00	-2.408146e+01
1.800000e-06	-2.216122e-07	-2.663872e-10	-1.540240e+00	-2.264411e+01
1.810000e-06	-1.748546e-07	-2.434246e-10	-1.215267e+00	-2.118306e+01
1.820000e-06	-1.280182e-07	-2.206581e-10	-8.897468e-01	-1.969885e+01
1.830000e-06	-8.116156e-08	-1.974002e-10	-5.640856e-01	-1.819208e+01
1.840000e-06	-3.431166e-08	-1.762462e-10	-2.384714e-01	-1.666345e+01
1.850000e-06	1.251674e-08	-1.576251e-10	8.699328e-02	-1.511374e+01
1.860000e-06	5.932964e-08	-1.376118e-10	4.123503e-01	-1.354380e+01
1.870000e-06	1.061868e-07	-1.136491e-10	7.380147e-01	-1.195454e+01
1.880000e-06	1.530152e-07	-8.825687e-11	1.063480e+00	-1.034695e+01
1.890000e-06	1.998354e-07	-6.427528e-11	1.388887e+00	-8.722096e+00
1.900000e-06	2.466181e-07	-4.180443e-11	1.714034e+00	-7.081084e+00
1.910000e-06	2.933917e-07	-2.164345e-11	2.039118e+00	-5.425089e+00
1.920000e-06	3.402250e-07	-8.759082e-13	2.364617e+00	-3.755339e+00
1.930000e-06	3.869483e-07	2.361903e-11	2.689351e+00	-2.073104e+00
1.940000e-06	4.336005e-07	4.929723e-11	3.013591e+00	-3.797013e-01
1.950000e-06	4.802669e-07	7.447379e-11	3.337931e+00	1.323518e+00
1.960000e-06	5.269071e-07	9.982219e-11	3.662087e+00	3.035170e+00
1.970000e-06	5.734193e-07	1.240563e-10	3.985354e+00	4.753848e+00
1.980000e-06	6.197918e-07	1.482723e-10	4.307650e+00	6.478122e+00
1.990000e-06	6.661818e-07	1.721689e-10	4.630068e+00	8.206551e+00
2.000000e-06	7.125717e-07	1.927476e-10	4.952485e+00	9.937684e+00
2.010000e-06	7.588931e-07	2.131283e-10	5.274426e+00	1.167007e+01
2.020000e-06	8.051896e-07	2.338670e-10	5.596194e+00	1.340226e+01
2.030000e-06	8.514542e-07	2.573966e-10	5.917740e+00	1.513282e+01
2.040000e-06	8.976684e-07	2.849167e-10	6.238936e+00	1.686033e+01
2.050000e-06	9.438332e-07	3.130067e-10	6.559789e+00	1.858337e+01
2.060000e-06	9.899431e-07	3.393791e-10	6.880260e+00	2.030058e+01
2.070000e-06	1.035982e-06	3.640502e-10	7.200234e+00	2.201061e+01
2.080000e-06	1.081920e-06	3.874486e-10	7.519517e+00	2.371215e+01
2.090000e-06	1.127750e-06	4.094765e-10	7.838038e+00	2.540391e+01
2.100000e-06	1.173464e-06	4.316238e-10	8.155762e+00	2.708469e+01
2.110000e-06	1.219125e-06	4.504860e-10	8.473112e+00	2.875329e+01
2.120000e-06	1.264711e-06	4.716483e-10	8.789943e+00	3.040860e+01
2.130000e-06	1.310232e-06	4.948322e-10	9.106320e+00	3.204952e+01
2.140000e-06	1.355631e-06	5.212375e-10	9.421849e+00	3.367505e+01
2.150000e-06	1.400921e-06	5.443383e-10	9.736621e+00	3.528422e+01
2.160000e-06	1.446125e-06	5.651010e-10	1.005079e+01	3.687613e+01
2.170000e-06	1.491234e-06	5.857627e-10	1.036431e+01	3.844995e+01
2.180000e-06	1.536276e-06	6.050418e-10	1.067736e+01	4.000490e+01
2.190000e-06	1.581169e-06	6.243134e-10	1.098938e+01	4.154028e+01
2.200000e-06	1.625928e-06	6.455835e-10	1.130046e+01	4.305543e+01
2.210000e-06	1.670578e-06	6.696255e-10	1.161078e+01	4.454978e+01
2.220000e-06	1.715048e-06	6.923809e-10	1.191985e+01	4.602280e+01
2.230000e-06	1.759352e-06	7.115748e-10	1.222777e+01	4.747405e+01
2.240000e-06	1.803496e-06	7.306795e-10	1.253458e+01	4.890313e+01
2.250000e-06	1.847541e-06	7.473551e-10	1.284070e+01	5.030972e+01
2.260000e-06	1.891600e-06	7.631891e-10	1.314691e+01	5.169353e+01
2.270000e-06	1.935581e-06	7.826055e-10	1.345259e+01	5.305436e+01
2.280000e-06	1.979388e-06	8.038074e-10	1.375706e+01	5.439204e+01
2.290000e-06	2.023119e-06	8.256376e-10	1.406099e+01	5.570648e+01
2.300000e-06	2.066826e-06	8.449814e-10	1.436477e+01	5.699761e+01
2.310000e-06	2.110445e-06	8.611251e-10	1.466792e+01	5.826543e+01
2.320000e-06	2.154009e-06	8.727404e-10	1.497070e+01	5.950998e+01
2.330000e-06	2.197449e-06	8.852969e-10	1.527262e+01	6.073133e+01
2.340000e-06	2.240787e-06	9.005364e-10	1.557382e+01	6.192961e+01
2.350000e-06	2.284021e-06	9.191828e-10	1.587430e+01	6.310497e+01
2.360000e-06	2.327012e-06	9.391531e-10	1.617310e+01	6.425760e+01
2.370000e-06	2.369867e-06	9.603840e-10	1.647095e+01	6.538772e+01
2.380000e-06	2.412579e-06	9.769010e-10	1.676780e+01	6.649558e+01
2.390000e-06	2.455065e-06	9.901810e-10	1.706308e+01	6.758145e+01
2.400000e-06	2.497144e-06	1.002980e-09	1.735554e+01	6.864562e+01
2.410000e-06	2.538716e-06	1.011109e-09	1.764447e+01	6.968840e+01
2.420000e-06	2.579942e-06	1.022849e-09	1.793100e+01	7.071012e+01
2.430000e-06	2.620982e-06	1.037386e-09	1.821624e+01	7.171112e+01
2.440000e-06	2.661828e-06	1.049199e-09	1.850012e+01	7.269174e+01
2.450000e-06	2.702350e-06	1.061991e-09	1.878176e+01	7.365235e+01
2.460000e-06	2.742539e-06	1.075675e-09	1.906108e+01	7.459331e+01
2.470000e-06	2.782490e-06	1.091447e-09	1.933874e+01	7.551499e+01
2.480000e-06	2.822287e-06	1.103378e-09	1.961534e+01	7.641775e+01
2.490000e-06	2.861999e-06	1.111743e-09	1.989134e+01	7.730197e+01
2.500000e-06	2.901636e-06	1.120281e-09	2.016682e+01	7.816802e+01
2.510000e-06	2.941128e-06	1.133144e-09	2.044130e+01	7.901625e+01
2.520000e-06	2.980513e-06	1.146470e-09	2.071503e+01	7.984704e+01
2.530000e-06	3.019741e-06	1.158711e-09	2.098767e+01	8.066073e+01
2.540000e-06	3.058694e-06	1.170591e-09	2.125840e+01	8.145768e+01
2.550000e-06	3.097449e-06	1.182572e-09	2.152776e+01	8.223823e+01
2.560000e-06	3.136077e-06	1.191599e-09	2.179623e+01	8.300272e+01
2.570000e-06	3.174431e-06	1.198363e-09	2.206279e+01	8.375146e+01
2.580000e-06	3.212516e-06	1.209473e-09	2.232749e+01	8.448477e+01
2.590000e-06	3.250378e-06	1.222593e-09	2.259063e+01	8.520298e+01
2.600000e-06	3.288018e-06	1.234581e-09	2.285224e+01	8.590637e+01
2.610000e-06	3.325531e-06	1.246064e-09	2.311296e+01	8.659523e+01
2.620000e-06	3.362886e-06	1.253402e-09	2.337258e+01	8.726985e+01
2.630000e-06	3.399902e-06	1.260184e-09	2.362985e+01	8.793050e+01
2.640000e-06	3.436530e-06	1.265562e-09	2.388443e+01	8.857744e+01
2.650000e-06	3.472932e-06	1.271430e-09	2.413742e+01	8.921094e+01
2.660000e-06	3.509141e-06	1.282763e-09	2.438908e+01	8.983123e+01
2.670000e-06	3.545123e-06	1.294779e-09	2.463916e+01	9.043855e+01
2.680000e-06	3.580966e-06	1.306987e-09	2.488828e+01	9.103314e+01
2.690000e-06	3.616669e-06	1.314273e-09	2.513642e+01	9.161523e+01
2.700000e-06	3.652225e-06	1.316669e-09	2.538354e+01	9.218504e+01
2.710000e-06	3.687659e-06	1.319098e-09	2.562981e+01	9.274277e+01
2.720000e-06	3.722892e-06	1.325686e-09	2.587468e+01	9.328864e+01
2.730000e-06	3.757865e-06	1.334691e-09	2.611775e+01	9.382285e+01
2.740000e-06	3.792551e-06	1.346079e-09	2.635882e+01	9.434560e+01
2.750000e-06	3.826848e-06	1.356487e-09	2.659719e+01	9.485708e+01
2.760000e-06	3.860595e-06	1.363645e-09	2.683174e+01	9.535749e+01
2.770000e-06	3.893819e-06	1.366500e-09	2.706265e+01	9.584702e+01
2.780000e-06	3.926538e-06	1.370998e-09	2.729005e+01	9.632584e+01
2.790000e-06	3.958852e-06	1.378315e-09	2.751464e+01	9.679415e+01
2.800000e-06	3.990874e-06	1.385777e-09	2.773720e+01	9.725212e+01
2.810000e-06	4.022657e-06	1.392662e-09	2.795810e+01	9.769993e+01
2.820000e-06	4.054333e-06	1.399021e-09	2.817825e+01	9.813776e+01
2.830000e-06	4.085905e-06	1.405680e-09	2.839768e+01	9.856579e+01
2.840000e-06	4.117316e-06	1.413282e-09	2.861599e+01	9.898418e+01
2.850000e-06	4.148479e-06	1.418063e-09	2.883258e+01	9.939311e+01
2.860000e-06	4.179318e-06	1.421388e-09	2.904691e+01	9.979275e+01
2.870000e-06	4.209797e-06	1.425950e-09	2.925875e+01	1.001833e+02
2.880000e-06	4.239943e-06	1.433560e-09	2.946827e+01	1.005648e+02
2.890000e-06	4.269781e-06	1.441140e-09	2.967565e+01	1.009376e+02
2.900000e-06	4.299344e-06	1.444391e-09	2.988111e+01	1.013018e+02
