# Temperatura_=_-0.3
# Concentracion g/m^3_=_1620.0
# C_Vs_to_Am_M_A/Vsm_=_65563218390.804596
# pendiente_HvsI_1/m_=_3716.3
# ordenada_HvsI_A/m_=_1297.0
# frecuencia_Hz_=_135104.27773791895

Tiempo_(s)	Campo_(V.s)	Magnetizacion_(V.s)	Campo_(kA/m)	Magnetizacion_(A/m)
0.000000e+00	-5.486994e-06	-1.456981e-09	-3.836391e+01	-9.469834e+01
1.000000e-08	-5.487234e-06	-1.453550e-09	-3.836559e+01	-9.467745e+01
2.000000e-08	-5.487237e-06	-1.449961e-09	-3.836561e+01	-9.465615e+01
3.000000e-08	-5.486942e-06	-1.449317e-09	-3.836355e+01	-9.463442e+01
4.000000e-08	-5.486113e-06	-1.451205e-09	-3.835775e+01	-9.461220e+01
5.000000e-08	-5.484746e-06	-1.454113e-09	-3.834819e+01	-9.458943e+01
6.000000e-08	-5.482876e-06	-1.464904e-09	-3.833512e+01	-9.456600e+01
7.000000e-08	-5.480404e-06	-1.481808e-09	-3.831783e+01	-9.454179e+01
8.000000e-08	-5.477398e-06	-1.483674e-09	-3.829682e+01	-9.451665e+01
9.000000e-08	-5.473931e-06	-1.421699e-09	-3.827258e+01	-9.449041e+01
1.000000e-07	-5.470068e-06	-1.363472e-09	-3.824557e+01	-9.446289e+01
1.100000e-07	-5.465837e-06	-1.420995e-09	-3.821598e+01	-9.443388e+01
1.200000e-07	-5.461303e-06	-1.502528e-09	-3.818428e+01	-9.440315e+01
1.300000e-07	-5.456591e-06	-1.489356e-09	-3.815134e+01	-9.437046e+01
1.400000e-07	-5.451543e-06	-1.402690e-09	-3.811604e+01	-9.433557e+01
1.500000e-07	-5.446079e-06	-1.413687e-09	-3.807784e+01	-9.429821e+01
1.600000e-07	-5.440250e-06	-1.513848e-09	-3.803709e+01	-9.425810e+01
1.700000e-07	-5.434033e-06	-1.484965e-09	-3.799362e+01	-9.421497e+01
1.800000e-07	-5.427356e-06	-1.409926e-09	-3.794693e+01	-9.416853e+01
1.900000e-07	-5.420266e-06	-1.381419e-09	-3.789736e+01	-9.411849e+01
2.000000e-07	-5.412884e-06	-1.486098e-09	-3.784575e+01	-9.406458e+01
2.100000e-07	-5.405258e-06	-1.500448e-09	-3.779243e+01	-9.400650e+01
2.200000e-07	-5.397407e-06	-1.463489e-09	-3.773753e+01	-9.394398e+01
2.300000e-07	-5.389306e-06	-1.413759e-09	-3.768090e+01	-9.387675e+01
2.400000e-07	-5.380754e-06	-1.450090e-09	-3.762110e+01	-9.380454e+01
2.500000e-07	-5.371511e-06	-1.452887e-09	-3.755648e+01	-9.372710e+01
2.600000e-07	-5.361607e-06	-1.425593e-09	-3.748723e+01	-9.364420e+01
2.700000e-07	-5.351157e-06	-1.412455e-09	-3.741417e+01	-9.355561e+01
2.800000e-07	-5.340255e-06	-1.427099e-09	-3.733794e+01	-9.346112e+01
2.900000e-07	-5.328853e-06	-1.423955e-09	-3.725822e+01	-9.336054e+01
3.000000e-07	-5.317074e-06	-1.388069e-09	-3.717587e+01	-9.325370e+01
3.100000e-07	-5.305014e-06	-1.394818e-09	-3.709154e+01	-9.314046e+01
3.200000e-07	-5.292585e-06	-1.405266e-09	-3.700464e+01	-9.302067e+01
3.300000e-07	-5.279645e-06	-1.416667e-09	-3.691417e+01	-9.289423e+01
3.400000e-07	-5.266227e-06	-1.377711e-09	-3.682035e+01	-9.276106e+01
3.500000e-07	-5.252493e-06	-1.387786e-09	-3.672433e+01	-9.262109e+01
3.600000e-07	-5.238396e-06	-1.394243e-09	-3.662577e+01	-9.247427e+01
3.700000e-07	-5.223950e-06	-1.400946e-09	-3.652476e+01	-9.232059e+01
3.800000e-07	-5.209069e-06	-1.374481e-09	-3.642072e+01	-9.216004e+01
3.900000e-07	-5.193494e-06	-1.403468e-09	-3.631182e+01	-9.199265e+01
4.000000e-07	-5.177332e-06	-1.395655e-09	-3.619882e+01	-9.181846e+01
4.100000e-07	-5.160902e-06	-1.368896e-09	-3.608394e+01	-9.163753e+01
4.200000e-07	-5.144102e-06	-1.365548e-09	-3.596648e+01	-9.144994e+01
4.300000e-07	-5.126937e-06	-1.411298e-09	-3.584647e+01	-9.125579e+01
4.400000e-07	-5.109521e-06	-1.377595e-09	-3.572470e+01	-9.105519e+01
4.500000e-07	-5.091630e-06	-1.343172e-09	-3.559961e+01	-9.084826e+01
4.600000e-07	-5.073305e-06	-1.365114e-09	-3.547148e+01	-9.063515e+01
4.700000e-07	-5.054729e-06	-1.386639e-09	-3.534161e+01	-9.041601e+01
4.800000e-07	-5.035880e-06	-1.344138e-09	-3.520982e+01	-9.019099e+01
4.900000e-07	-5.016670e-06	-1.346649e-09	-3.507551e+01	-8.996027e+01
5.000000e-07	-4.997075e-06	-1.366139e-09	-3.493850e+01	-8.972402e+01
5.100000e-07	-4.977296e-06	-1.343950e-09	-3.480021e+01	-8.948242e+01
5.200000e-07	-4.957341e-06	-1.330771e-09	-3.466069e+01	-8.923564e+01
5.300000e-07	-4.937008e-06	-1.355709e-09	-3.451852e+01	-8.898387e+01
5.400000e-07	-4.916314e-06	-1.332115e-09	-3.437383e+01	-8.872728e+01
5.500000e-07	-4.895305e-06	-1.299507e-09	-3.422694e+01	-8.846607e+01
5.600000e-07	-4.873936e-06	-1.329112e-09	-3.407754e+01	-8.820039e+01
5.700000e-07	-4.852240e-06	-1.341834e-09	-3.392584e+01	-8.793041e+01
5.800000e-07	-4.830192e-06	-1.311769e-09	-3.377169e+01	-8.765631e+01
5.900000e-07	-4.807763e-06	-1.308901e-09	-3.361487e+01	-8.737822e+01
6.000000e-07	-4.784966e-06	-1.322539e-09	-3.345548e+01	-8.709629e+01
6.100000e-07	-4.761866e-06	-1.295533e-09	-3.329397e+01	-8.681066e+01
6.200000e-07	-4.738524e-06	-1.287574e-09	-3.313077e+01	-8.652145e+01
6.300000e-07	-4.714922e-06	-1.295126e-09	-3.296574e+01	-8.622876e+01
6.400000e-07	-4.691077e-06	-1.290003e-09	-3.279903e+01	-8.593270e+01
6.500000e-07	-4.666971e-06	-1.277468e-09	-3.263048e+01	-8.563334e+01
6.600000e-07	-4.642545e-06	-1.287896e-09	-3.245970e+01	-8.533076e+01
6.700000e-07	-4.617747e-06	-1.274562e-09	-3.228632e+01	-8.502501e+01
6.800000e-07	-4.592408e-06	-1.265645e-09	-3.210915e+01	-8.471615e+01
6.900000e-07	-4.566477e-06	-1.263310e-09	-3.192785e+01	-8.440419e+01
7.000000e-07	-4.539971e-06	-1.260788e-09	-3.174253e+01	-8.408916e+01
7.100000e-07	-4.512957e-06	-1.245642e-09	-3.155365e+01	-8.377106e+01
7.200000e-07	-4.485588e-06	-1.249052e-09	-3.136229e+01	-8.344989e+01
7.300000e-07	-4.458000e-06	-1.241760e-09	-3.116940e+01	-8.312562e+01
7.400000e-07	-4.430312e-06	-1.233582e-09	-3.097581e+01	-8.279823e+01
7.500000e-07	-4.402492e-06	-1.226130e-09	-3.078130e+01	-8.246768e+01
7.600000e-07	-4.374409e-06	-1.222067e-09	-3.058495e+01	-8.213391e+01
7.700000e-07	-4.345995e-06	-1.212362e-09	-3.038628e+01	-8.179687e+01
7.800000e-07	-4.317264e-06	-1.210769e-09	-3.018540e+01	-8.145650e+01
7.900000e-07	-4.288200e-06	-1.203020e-09	-2.998219e+01	-8.111272e+01
8.000000e-07	-4.258806e-06	-1.189972e-09	-2.977668e+01	-8.076545e+01
8.100000e-07	-4.229129e-06	-1.180134e-09	-2.956918e+01	-8.041462e+01
8.200000e-07	-4.199215e-06	-1.175161e-09	-2.936003e+01	-8.006014e+01
8.300000e-07	-4.169010e-06	-1.163874e-09	-2.914884e+01	-7.970193e+01
8.400000e-07	-4.138458e-06	-1.156302e-09	-2.893523e+01	-7.933989e+01
8.500000e-07	-4.107632e-06	-1.157819e-09	-2.871970e+01	-7.897393e+01
8.600000e-07	-4.076554e-06	-1.156468e-09	-2.850241e+01	-7.860398e+01
8.700000e-07	-4.045247e-06	-1.151433e-09	-2.828352e+01	-7.822993e+01
8.800000e-07	-4.013780e-06	-1.145507e-09	-2.806351e+01	-7.785171e+01
8.900000e-07	-3.982110e-06	-1.140779e-09	-2.784208e+01	-7.746924e+01
9.000000e-07	-3.950241e-06	-1.127023e-09	-2.761925e+01	-7.708243e+01
9.100000e-07	-3.918070e-06	-1.117897e-09	-2.739432e+01	-7.669121e+01
9.200000e-07	-3.885548e-06	-1.112005e-09	-2.716694e+01	-7.629553e+01
9.300000e-07	-3.852805e-06	-1.106539e-09	-2.693801e+01	-7.589530e+01
9.400000e-07	-3.819666e-06	-1.097910e-09	-2.670630e+01	-7.549047e+01
9.500000e-07	-3.786007e-06	-1.096083e-09	-2.647097e+01	-7.508100e+01
9.600000e-07	-3.751857e-06	-1.091011e-09	-2.623220e+01	-7.466683e+01
9.700000e-07	-3.717217e-06	-1.083209e-09	-2.599000e+01	-7.424794e+01
9.800000e-07	-3.682205e-06	-1.074256e-09	-2.574521e+01	-7.382427e+01
9.900000e-07	-3.646924e-06	-1.071029e-09	-2.549853e+01	-7.339581e+01
1.000000e-06	-3.611417e-06	-1.060450e-09	-2.525027e+01	-7.296254e+01
1.010000e-06	-3.575754e-06	-1.052342e-09	-2.500092e+01	-7.252444e+01
1.020000e-06	-3.540035e-06	-1.046893e-09	-2.475118e+01	-7.208150e+01
1.030000e-06	-3.504232e-06	-1.043750e-09	-2.450085e+01	-7.163372e+01
1.040000e-06	-3.468284e-06	-1.036261e-09	-2.424952e+01	-7.118111e+01
1.050000e-06	-3.432165e-06	-1.034152e-09	-2.399697e+01	-7.072365e+01
1.060000e-06	-3.395784e-06	-1.029576e-09	-2.374261e+01	-7.026138e+01
1.070000e-06	-3.359035e-06	-1.021782e-09	-2.348567e+01	-6.979429e+01
1.080000e-06	-3.322003e-06	-1.012183e-09	-2.322675e+01	-6.932242e+01
1.090000e-06	-3.284781e-06	-1.003835e-09	-2.296650e+01	-6.884576e+01
1.100000e-06	-3.247288e-06	-9.935727e-10	-2.270435e+01	-6.836435e+01
1.110000e-06	-3.209525e-06	-9.829858e-10	-2.244033e+01	-6.787820e+01
1.120000e-06	-3.171578e-06	-9.746042e-10	-2.217501e+01	-6.738734e+01
1.130000e-06	-3.133464e-06	-9.670779e-10	-2.190852e+01	-6.689178e+01
1.140000e-06	-3.095194e-06	-9.588487e-10	-2.164094e+01	-6.639155e+01
1.150000e-06	-3.056688e-06	-9.513446e-10	-2.137172e+01	-6.588666e+01
1.160000e-06	-3.017967e-06	-9.456596e-10	-2.110099e+01	-6.537713e+01
1.170000e-06	-2.979059e-06	-9.397523e-10	-2.082895e+01	-6.486296e+01
1.180000e-06	-2.939949e-06	-9.321977e-10	-2.055551e+01	-6.434417e+01
1.190000e-06	-2.900605e-06	-9.226991e-10	-2.028042e+01	-6.382075e+01
1.200000e-06	-2.861051e-06	-9.154942e-10	-2.000387e+01	-6.329271e+01
1.210000e-06	-2.821376e-06	-9.047907e-10	-1.972647e+01	-6.276002e+01
1.220000e-06	-2.781589e-06	-8.929157e-10	-1.944829e+01	-6.222267e+01
1.230000e-06	-2.741754e-06	-8.808288e-10	-1.916977e+01	-6.168064e+01
1.240000e-06	-2.701821e-06	-8.707046e-10	-1.889057e+01	-6.113389e+01
1.250000e-06	-2.661652e-06	-8.601134e-10	-1.860971e+01	-6.058238e+01
1.260000e-06	-2.621272e-06	-8.528209e-10	-1.832738e+01	-6.002605e+01
1.270000e-06	-2.580771e-06	-8.449793e-10	-1.804421e+01	-5.946484e+01
1.280000e-06	-2.540034e-06	-8.387993e-10	-1.775938e+01	-5.889866e+01
1.290000e-06	-2.498957e-06	-8.317723e-10	-1.747218e+01	-5.832745e+01
1.300000e-06	-2.457474e-06	-8.236360e-10	-1.718214e+01	-5.775108e+01
1.310000e-06	-2.415684e-06	-8.129695e-10	-1.688996e+01	-5.716946e+01
1.320000e-06	-2.373688e-06	-8.021486e-10	-1.659633e+01	-5.658245e+01
1.330000e-06	-2.331443e-06	-7.930646e-10	-1.630096e+01	-5.598992e+01
1.340000e-06	-2.288874e-06	-7.855285e-10	-1.600333e+01	-5.539170e+01
1.350000e-06	-2.246011e-06	-7.789672e-10	-1.570364e+01	-5.478763e+01
1.360000e-06	-2.202964e-06	-7.757192e-10	-1.540266e+01	-5.417753e+01
1.370000e-06	-2.159739e-06	-7.693077e-10	-1.510044e+01	-5.356118e+01
1.380000e-06	-2.116363e-06	-7.597520e-10	-1.479717e+01	-5.293838e+01
1.390000e-06	-2.072830e-06	-7.470581e-10	-1.449279e+01	-5.230890e+01
1.400000e-06	-2.029190e-06	-7.323955e-10	-1.418767e+01	-5.167247e+01
1.410000e-06	-1.985530e-06	-7.179089e-10	-1.388241e+01	-5.102885e+01
1.420000e-06	-1.941831e-06	-7.060807e-10	-1.357687e+01	-5.037774e+01
1.430000e-06	-1.898041e-06	-6.989214e-10	-1.327070e+01	-4.971885e+01
1.440000e-06	-1.854112e-06	-6.920866e-10	-1.296356e+01	-4.905187e+01
1.450000e-06	-1.810117e-06	-6.840287e-10	-1.265596e+01	-4.837646e+01
1.460000e-06	-1.766092e-06	-6.755342e-10	-1.234815e+01	-4.769229e+01
1.470000e-06	-1.721931e-06	-6.649846e-10	-1.203938e+01	-4.699899e+01
1.480000e-06	-1.677664e-06	-6.508089e-10	-1.172988e+01	-4.629619e+01
1.490000e-06	-1.633299e-06	-6.374990e-10	-1.141969e+01	-4.558351e+01
1.500000e-06	-1.588744e-06	-6.270337e-10	-1.110817e+01	-4.486054e+01
1.510000e-06	-1.543970e-06	-6.186635e-10	-1.079511e+01	-4.412688e+01
1.520000e-06	-1.499036e-06	-6.087398e-10	-1.048095e+01	-4.338209e+01
1.530000e-06	-1.454053e-06	-5.972720e-10	-1.016643e+01	-4.262577e+01
1.540000e-06	-1.409049e-06	-5.857825e-10	-9.851777e+00	-4.185745e+01
1.550000e-06	-1.363974e-06	-5.733938e-10	-9.536622e+00	-4.107672e+01
1.560000e-06	-1.318731e-06	-5.574229e-10	-9.220290e+00	-4.028310e+01
1.570000e-06	-1.273388e-06	-5.424133e-10	-8.903265e+00	-3.947617e+01
1.580000e-06	-1.227997e-06	-5.290630e-10	-8.585898e+00	-3.865546e+01
1.590000e-06	-1.182498e-06	-5.159386e-10	-8.267780e+00	-3.782052e+01
1.600000e-06	-1.136899e-06	-5.036236e-10	-7.948958e+00	-3.697092e+01
1.610000e-06	-1.091241e-06	-4.914247e-10	-7.629725e+00	-3.610622e+01
1.620000e-06	-1.045525e-06	-4.773737e-10	-7.310093e+00	-3.522598e+01
1.630000e-06	-9.996113e-07	-4.624804e-10	-6.989073e+00	-3.432980e+01
1.640000e-06	-9.536187e-07	-4.484870e-10	-6.667502e+00	-3.341726e+01
1.650000e-06	-9.077104e-07	-4.368252e-10	-6.346521e+00	-3.248799e+01
1.660000e-06	-8.617872e-07	-4.254084e-10	-6.025435e+00	-3.154162e+01
1.670000e-06	-8.157547e-07	-4.125044e-10	-5.703586e+00	-3.057782e+01
1.680000e-06	-7.696141e-07	-3.981870e-10	-5.380980e+00	-2.959626e+01
1.690000e-06	-7.234113e-07	-3.832931e-10	-5.057940e+00	-2.859666e+01
1.700000e-06	-6.772098e-07	-3.670875e-10	-4.734909e+00	-2.757876e+01
1.710000e-06	-6.310562e-07	-3.514077e-10	-4.412212e+00	-2.654236e+01
1.720000e-06	-5.848691e-07	-3.352628e-10	-4.089282e+00	-2.548727e+01
1.730000e-06	-5.385678e-07	-3.185314e-10	-3.765553e+00	-2.441336e+01
1.740000e-06	-4.921766e-07	-3.025760e-10	-3.441196e+00	-2.332052e+01
1.750000e-06	-4.457340e-07	-2.861427e-10	-3.116478e+00	-2.220872e+01
1.760000e-06	-3.993010e-07	-2.695696e-10	-2.791829e+00	-2.107795e+01
1.770000e-06	-3.528338e-07	-2.531216e-10	-2.466940e+00	-1.992827e+01
1.780000e-06	-3.062606e-07	-2.355466e-10	-2.141310e+00	-1.875977e+01
1.790000e-06	-2.596498e-07	-2.178199e-10	-1.815417e+00	-1.757263e+01
1.800000e-06	-2.130983e-07	-2.028935e-10	-1.489938e+00	-1.636707e+01
1.810000e-06	-1.666068e-07	-1.875736e-10	-1.164880e+00	-1.514335e+01
1.820000e-06	-1.200936e-07	-1.692920e-10	-8.396694e-01	-1.390181e+01
1.830000e-06	-7.349894e-08	-1.500507e-10	-5.138892e-01	-1.264286e+01
1.840000e-06	-2.686609e-08	-1.313005e-10	-1.878421e-01	-1.136695e+01
1.850000e-06	1.967265e-08	-1.124939e-10	1.375471e-01	-1.007460e+01
1.860000e-06	6.611039e-08	-9.489138e-11	4.622300e-01	-8.766393e+00
1.870000e-06	1.125768e-07	-7.558554e-11	7.871136e-01	-7.442966e+00
1.880000e-06	1.591135e-07	-5.524658e-11	1.112488e+00	-6.105021e+00
1.890000e-06	2.056707e-07	-3.601209e-11	1.438006e+00	-4.753320e+00
1.900000e-06	2.521831e-07	-1.843710e-11	1.763212e+00	-3.388678e+00
1.910000e-06	2.986509e-07	-2.064510e-12	2.088105e+00	-2.011968e+00
1.920000e-06	3.451427e-07	1.429912e-11	2.413166e+00	-6.241143e-01
1.930000e-06	3.916224e-07	3.394589e-11	2.738142e+00	7.739079e-01
1.940000e-06	4.380421e-07	5.578362e-11	3.062699e+00	2.181076e+00
1.950000e-06	4.844106e-07	7.687271e-11	3.386897e+00	3.596325e+00
1.960000e-06	5.306706e-07	9.565846e-11	3.710338e+00	5.018547e+00
1.970000e-06	5.768884e-07	1.132839e-10	4.033482e+00	6.446600e+00
1.980000e-06	6.230861e-07	1.324053e-10	4.356487e+00	7.879309e+00
1.990000e-06	6.692198e-07	1.507769e-10	4.679044e+00	9.315472e+00
2.000000e-06	7.153569e-07	1.673849e-10	5.001625e+00	1.075386e+01
2.010000e-06	7.614188e-07	1.874807e-10	5.323680e+00	1.219324e+01
2.020000e-06	8.074222e-07	2.085785e-10	5.645327e+00	1.363234e+01
2.030000e-06	8.534385e-07	2.313951e-10	5.967063e+00	1.506992e+01
2.040000e-06	8.993976e-07	2.573532e-10	6.288400e+00	1.650468e+01
2.050000e-06	9.453083e-07	2.801431e-10	6.609397e+00	1.793539e+01
2.060000e-06	9.912711e-07	3.006945e-10	6.930759e+00	1.936077e+01
2.070000e-06	1.037109e-06	3.201222e-10	7.251246e+00	2.077960e+01
2.080000e-06	1.082712e-06	3.380603e-10	7.570092e+00	2.219064e+01
2.090000e-06	1.128265e-06	3.546529e-10	7.888593e+00	2.359270e+01
2.100000e-06	1.173760e-06	3.744785e-10	8.206685e+00	2.498462e+01
2.110000e-06	1.219200e-06	3.954477e-10	8.524388e+00	2.636525e+01
2.120000e-06	1.264596e-06	4.168409e-10	8.841792e+00	2.773352e+01
2.130000e-06	1.309825e-06	4.375201e-10	9.158020e+00	2.908835e+01
2.140000e-06	1.354910e-06	4.563832e-10	9.473247e+00	3.042877e+01
2.150000e-06	1.399933e-06	4.727998e-10	9.788040e+00	3.175381e+01
2.160000e-06	1.444833e-06	4.872221e-10	1.010197e+01	3.306258e+01
2.170000e-06	1.489630e-06	5.027808e-10	1.041518e+01	3.435426e+01
2.180000e-06	1.534323e-06	5.200864e-10	1.072767e+01	3.562807e+01
2.190000e-06	1.578817e-06	5.387141e-10	1.103876e+01	3.688331e+01
2.200000e-06	1.623168e-06	5.575580e-10	1.134885e+01	3.811933e+01
2.210000e-06	1.667447e-06	5.748153e-10	1.165844e+01	3.933557e+01
2.220000e-06	1.711652e-06	5.889231e-10	1.196751e+01	4.053153e+01
2.230000e-06	1.755730e-06	6.003164e-10	1.227569e+01	4.170679e+01
2.240000e-06	1.799720e-06	6.130877e-10	1.258327e+01	4.286098e+01
2.250000e-06	1.843646e-06	6.272509e-10	1.289039e+01	4.399382e+01
2.260000e-06	1.887488e-06	6.428516e-10	1.319692e+01	4.510510e+01
2.270000e-06	1.931292e-06	6.599549e-10	1.350319e+01	4.619467e+01
2.280000e-06	1.975024e-06	6.772664e-10	1.380895e+01	4.726246e+01
2.290000e-06	2.018684e-06	6.929293e-10	1.411421e+01	4.830847e+01
2.300000e-06	2.062297e-06	7.047592e-10	1.441915e+01	4.933274e+01
2.310000e-06	2.105822e-06	7.139394e-10	1.472347e+01	5.033540e+01
2.320000e-06	2.149279e-06	7.238196e-10	1.502731e+01	5.131663e+01
2.330000e-06	2.192666e-06	7.375841e-10	1.533066e+01	5.227666e+01
2.340000e-06	2.235904e-06	7.540642e-10	1.563297e+01	5.321578e+01
2.350000e-06	2.278918e-06	7.719757e-10	1.593372e+01	5.413432e+01
2.360000e-06	2.321584e-06	7.884413e-10	1.623203e+01	5.503266e+01
2.370000e-06	2.363843e-06	8.022703e-10	1.652749e+01	5.591122e+01
2.380000e-06	2.405777e-06	8.126065e-10	1.682069e+01	5.677047e+01
2.390000e-06	2.447458e-06	8.209971e-10	1.711211e+01	5.761088e+01
2.400000e-06	2.488800e-06	8.291698e-10	1.740117e+01	5.843297e+01
2.410000e-06	2.529846e-06	8.398019e-10	1.768815e+01	5.923728e+01
2.420000e-06	2.570666e-06	8.526098e-10	1.797356e+01	6.002436e+01
2.430000e-06	2.611139e-06	8.674134e-10	1.825653e+01	6.079478e+01
2.440000e-06	2.651385e-06	8.822242e-10	1.853792e+01	6.154911e+01
2.450000e-06	2.691520e-06	8.936402e-10	1.881854e+01	6.228793e+01
2.460000e-06	2.731530e-06	9.028345e-10	1.909829e+01	6.301182e+01
2.470000e-06	2.771410e-06	9.091166e-10	1.937712e+01	6.372136e+01
2.480000e-06	2.811129e-06	9.143388e-10	1.965482e+01	6.441710e+01
2.490000e-06	2.850748e-06	9.204492e-10	1.993183e+01	6.509960e+01
2.500000e-06	2.890257e-06	9.319805e-10	2.020807e+01	6.576940e+01
2.510000e-06	2.929546e-06	9.474247e-10	2.048277e+01	6.642702e+01
2.520000e-06	2.968634e-06	9.624675e-10	2.075606e+01	6.707295e+01
2.530000e-06	3.007506e-06	9.745625e-10	2.102785e+01	6.770767e+01
2.540000e-06	3.046190e-06	9.819877e-10	2.129832e+01	6.833162e+01
2.550000e-06	3.084778e-06	9.877337e-10	2.156812e+01	6.894522e+01
2.560000e-06	3.123167e-06	9.927448e-10	2.183653e+01	6.954885e+01
2.570000e-06	3.161270e-06	1.000097e-09	2.210294e+01	7.014289e+01
2.580000e-06	3.199064e-06	1.012378e-09	2.236719e+01	7.072764e+01
2.590000e-06	3.236704e-06	1.026495e-09	2.263036e+01	7.130341e+01
2.600000e-06	3.274241e-06	1.038551e-09	2.289281e+01	7.187047e+01
2.610000e-06	3.311539e-06	1.045865e-09	2.315358e+01	7.242903e+01
2.620000e-06	3.348619e-06	1.049600e-09	2.341284e+01	7.297931e+01
2.630000e-06	3.385422e-06	1.053543e-09	2.367016e+01	7.352146e+01
2.640000e-06	3.421920e-06	1.059613e-09	2.392535e+01	7.405564e+01
2.650000e-06	3.458171e-06	1.069001e-09	2.417881e+01	7.458195e+01
2.660000e-06	3.494163e-06	1.081206e-09	2.443045e+01	7.510049e+01
2.670000e-06	3.530004e-06	1.092560e-09	2.468104e+01	7.561132e+01
2.680000e-06	3.565762e-06	1.101017e-09	2.493106e+01	7.611448e+01
2.690000e-06	3.601388e-06	1.106010e-09	2.518015e+01	7.660999e+01
2.700000e-06	3.636807e-06	1.107688e-09	2.542779e+01	7.709785e+01
2.710000e-06	3.671994e-06	1.111147e-09	2.567381e+01	7.757807e+01
2.720000e-06	3.707011e-06	1.116756e-09	2.591865e+01	7.805062e+01
2.730000e-06	3.741750e-06	1.122799e-09	2.616153e+01	7.851547e+01
2.740000e-06	3.775923e-06	1.130630e-09	2.640046e+01	7.897258e+01
2.750000e-06	3.809550e-06	1.140014e-09	2.663557e+01	7.942191e+01
2.760000e-06	3.842769e-06	1.147874e-09	2.686783e+01	7.986341e+01
2.770000e-06	3.875541e-06	1.152338e-09	2.709697e+01	8.029705e+01
2.780000e-06	3.907921e-06	1.153743e-09	2.732337e+01	8.072277e+01
2.790000e-06	3.940038e-06	1.156341e-09	2.754792e+01	8.114055e+01
2.800000e-06	3.971961e-06	1.160561e-09	2.777111e+01	8.155035e+01
2.810000e-06	4.003705e-06	1.167055e-09	2.799306e+01	8.195216e+01
2.820000e-06	4.035277e-06	1.176285e-09	2.821381e+01	8.234595e+01
2.830000e-06	4.066666e-06	1.184748e-09	2.843328e+01	8.273174e+01
2.840000e-06	4.097828e-06	1.193039e-09	2.865115e+01	8.310954e+01
2.850000e-06	4.128689e-06	1.199041e-09	2.886693e+01	8.347936e+01
2.860000e-06	4.159234e-06	1.200569e-09	2.908049e+01	8.384126e+01
2.870000e-06	4.189534e-06	1.203903e-09	2.929234e+01	8.419528e+01
2.880000e-06	4.219621e-06	1.207491e-09	2.950271e+01	8.454150e+01
2.890000e-06	4.249420e-06	1.209359e-09	2.971105e+01	8.488000e+01
2.900000e-06	4.278920e-06	1.212649e-09	2.991731e+01	8.521089e+01
