# Temperatura_=_13.3
# Concentracion g/m^3_=_1620.0
# C_Vs_to_Am_M_A/Vsm_=_65563218390.804596
# pendiente_HvsI_1/m_=_3716.3
# ordenada_HvsI_A/m_=_1297.0
# frecuencia_Hz_=_135107.7574833593

Tiempo_(s)	Campo_(V.s)	Magnetizacion_(V.s)	Campo_(kA/m)	Magnetizacion_(A/m)
0.000000e+00	-5.527450e-06	-1.130665e-09	-3.837060e+01	-7.355799e+01
1.000000e-08	-5.527565e-06	-1.127546e-09	-3.837140e+01	-7.352934e+01
2.000000e-08	-5.527357e-06	-1.124439e-09	-3.836996e+01	-7.349944e+01
3.000000e-08	-5.526760e-06	-1.123761e-09	-3.836581e+01	-7.346820e+01
4.000000e-08	-5.525652e-06	-1.124011e-09	-3.835812e+01	-7.343552e+01
5.000000e-08	-5.523972e-06	-1.123671e-09	-3.834646e+01	-7.340129e+01
6.000000e-08	-5.521683e-06	-1.125506e-09	-3.833057e+01	-7.336539e+01
7.000000e-08	-5.518812e-06	-1.139428e-09	-3.831064e+01	-7.332769e+01
8.000000e-08	-5.515501e-06	-1.122802e-09	-3.828765e+01	-7.328806e+01
9.000000e-08	-5.511735e-06	-1.073322e-09	-3.826151e+01	-7.324637e+01
1.000000e-07	-5.507538e-06	-1.090549e-09	-3.823238e+01	-7.320249e+01
1.100000e-07	-5.503022e-06	-1.162358e-09	-3.820103e+01	-7.315628e+01
1.200000e-07	-5.498303e-06	-1.141324e-09	-3.816827e+01	-7.310761e+01
1.300000e-07	-5.493401e-06	-1.079389e-09	-3.813424e+01	-7.305635e+01
1.400000e-07	-5.488095e-06	-1.066491e-09	-3.809741e+01	-7.300239e+01
1.500000e-07	-5.482374e-06	-1.169830e-09	-3.805770e+01	-7.294559e+01
1.600000e-07	-5.476328e-06	-1.156112e-09	-3.801573e+01	-7.288587e+01
1.700000e-07	-5.469853e-06	-1.084295e-09	-3.797078e+01	-7.282311e+01
1.800000e-07	-5.462818e-06	-1.061096e-09	-3.792194e+01	-7.275722e+01
1.900000e-07	-5.455433e-06	-1.132160e-09	-3.787067e+01	-7.268812e+01
2.000000e-07	-5.447850e-06	-1.143605e-09	-3.781804e+01	-7.261575e+01
2.100000e-07	-5.439988e-06	-1.093715e-09	-3.776346e+01	-7.254005e+01
2.200000e-07	-5.431857e-06	-1.073758e-09	-3.770701e+01	-7.246096e+01
2.300000e-07	-5.423366e-06	-1.100042e-09	-3.764807e+01	-7.237846e+01
2.400000e-07	-5.414331e-06	-1.114296e-09	-3.758535e+01	-7.229253e+01
2.500000e-07	-5.404633e-06	-1.078565e-09	-3.751803e+01	-7.220314e+01
2.600000e-07	-5.394180e-06	-1.076344e-09	-3.744547e+01	-7.211030e+01
2.700000e-07	-5.383139e-06	-1.089067e-09	-3.736882e+01	-7.201402e+01
2.800000e-07	-5.371753e-06	-1.104102e-09	-3.728978e+01	-7.191432e+01
2.900000e-07	-5.360016e-06	-1.075359e-09	-3.720831e+01	-7.181123e+01
3.000000e-07	-5.347875e-06	-1.082312e-09	-3.712403e+01	-7.170478e+01
3.100000e-07	-5.335316e-06	-1.083440e-09	-3.703684e+01	-7.159501e+01
3.200000e-07	-5.322425e-06	-1.105324e-09	-3.694735e+01	-7.148198e+01
3.300000e-07	-5.309194e-06	-1.072195e-09	-3.685551e+01	-7.136573e+01
3.400000e-07	-5.295563e-06	-1.064256e-09	-3.676088e+01	-7.124631e+01
3.500000e-07	-5.281458e-06	-1.075919e-09	-3.666297e+01	-7.112380e+01
3.600000e-07	-5.266858e-06	-1.094050e-09	-3.656162e+01	-7.099823e+01
3.700000e-07	-5.251708e-06	-1.059027e-09	-3.645645e+01	-7.086968e+01
3.800000e-07	-5.236030e-06	-1.079070e-09	-3.634762e+01	-7.073819e+01
3.900000e-07	-5.219838e-06	-1.100832e-09	-3.623521e+01	-7.060382e+01
4.000000e-07	-5.203251e-06	-1.065325e-09	-3.612007e+01	-7.046660e+01
4.100000e-07	-5.186414e-06	-1.043552e-09	-3.600319e+01	-7.032659e+01
4.200000e-07	-5.169277e-06	-1.103296e-09	-3.588423e+01	-7.018382e+01
4.300000e-07	-5.151844e-06	-1.089835e-09	-3.576321e+01	-7.003831e+01
4.400000e-07	-5.134029e-06	-1.020118e-09	-3.563954e+01	-6.989009e+01
4.500000e-07	-5.115715e-06	-1.054691e-09	-3.551241e+01	-6.973917e+01
4.600000e-07	-5.096965e-06	-1.096478e-09	-3.538225e+01	-6.958555e+01
4.700000e-07	-5.077936e-06	-1.032744e-09	-3.525015e+01	-6.942922e+01
4.800000e-07	-5.058665e-06	-1.018126e-09	-3.511638e+01	-6.927018e+01
4.900000e-07	-5.039189e-06	-1.081869e-09	-3.498118e+01	-6.910839e+01
5.000000e-07	-5.019489e-06	-1.041800e-09	-3.484442e+01	-6.894384e+01
5.100000e-07	-4.999479e-06	-9.970673e-10	-3.470552e+01	-6.877647e+01
5.200000e-07	-4.979138e-06	-1.053148e-09	-3.456432e+01	-6.860624e+01
5.300000e-07	-4.958453e-06	-1.056272e-09	-3.442073e+01	-6.843310e+01
5.400000e-07	-4.937381e-06	-9.841150e-10	-3.427444e+01	-6.825699e+01
5.500000e-07	-4.915964e-06	-1.022624e-09	-3.412577e+01	-6.807785e+01
5.600000e-07	-4.894145e-06	-1.059511e-09	-3.397431e+01	-6.789561e+01
5.700000e-07	-4.871874e-06	-1.002153e-09	-3.381971e+01	-6.771019e+01
5.800000e-07	-4.849346e-06	-9.880668e-10	-3.366332e+01	-6.752153e+01
5.900000e-07	-4.826523e-06	-1.038347e-09	-3.350489e+01	-6.732956e+01
6.000000e-07	-4.803364e-06	-1.003109e-09	-3.334413e+01	-6.713419e+01
6.100000e-07	-4.780011e-06	-9.790755e-10	-3.318201e+01	-6.693537e+01
6.200000e-07	-4.756486e-06	-1.017279e-09	-3.301870e+01	-6.673303e+01
6.300000e-07	-4.732715e-06	-1.016173e-09	-3.285369e+01	-6.652711e+01
6.400000e-07	-4.708548e-06	-9.777692e-10	-3.268593e+01	-6.631756e+01
6.500000e-07	-4.683963e-06	-9.963985e-10	-3.251527e+01	-6.610432e+01
6.600000e-07	-4.658851e-06	-9.972381e-10	-3.234094e+01	-6.588735e+01
6.700000e-07	-4.633113e-06	-9.672242e-10	-3.216227e+01	-6.566664e+01
6.800000e-07	-4.606876e-06	-9.690193e-10	-3.198013e+01	-6.544215e+01
6.900000e-07	-4.580217e-06	-9.871307e-10	-3.179508e+01	-6.521387e+01
7.000000e-07	-4.553145e-06	-9.681570e-10	-3.160715e+01	-6.498181e+01
7.100000e-07	-4.525784e-06	-9.622887e-10	-3.141721e+01	-6.474598e+01
7.200000e-07	-4.498272e-06	-9.740643e-10	-3.122623e+01	-6.450639e+01
7.300000e-07	-4.470570e-06	-9.639753e-10	-3.103393e+01	-6.426308e+01
7.400000e-07	-4.442650e-06	-9.458545e-10	-3.084011e+01	-6.401610e+01
7.500000e-07	-4.414474e-06	-9.466528e-10	-3.064452e+01	-6.376550e+01
7.600000e-07	-4.385977e-06	-9.457028e-10	-3.044670e+01	-6.351134e+01
7.700000e-07	-4.357131e-06	-9.353290e-10	-3.024645e+01	-6.325369e+01
7.800000e-07	-4.327953e-06	-9.353516e-10	-3.004390e+01	-6.299264e+01
7.900000e-07	-4.298517e-06	-9.337790e-10	-2.983956e+01	-6.272827e+01
8.000000e-07	-4.268835e-06	-9.229704e-10	-2.963352e+01	-6.246068e+01
8.100000e-07	-4.238834e-06	-9.158901e-10	-2.942525e+01	-6.218996e+01
8.200000e-07	-4.208501e-06	-9.166763e-10	-2.921469e+01	-6.191622e+01
8.300000e-07	-4.177794e-06	-9.048432e-10	-2.900152e+01	-6.163955e+01
8.400000e-07	-4.146824e-06	-9.001019e-10	-2.878654e+01	-6.136006e+01
8.500000e-07	-4.115703e-06	-9.030314e-10	-2.857050e+01	-6.107785e+01
8.600000e-07	-4.084264e-06	-8.998745e-10	-2.835226e+01	-6.079301e+01
8.700000e-07	-4.052599e-06	-8.882663e-10	-2.813244e+01	-6.050564e+01
8.800000e-07	-4.020906e-06	-8.895217e-10	-2.791243e+01	-6.021582e+01
8.900000e-07	-3.989062e-06	-8.821686e-10	-2.769138e+01	-5.992362e+01
9.000000e-07	-3.956896e-06	-8.697233e-10	-2.746809e+01	-5.962912e+01
9.100000e-07	-3.924288e-06	-8.659772e-10	-2.724173e+01	-5.933235e+01
9.200000e-07	-3.891254e-06	-8.677982e-10	-2.701242e+01	-5.903337e+01
9.300000e-07	-3.857814e-06	-8.603543e-10	-2.678028e+01	-5.873221e+01
9.400000e-07	-3.823797e-06	-8.597341e-10	-2.654414e+01	-5.842886e+01
9.500000e-07	-3.789259e-06	-8.612726e-10	-2.630438e+01	-5.812334e+01
9.600000e-07	-3.754345e-06	-8.544560e-10	-2.606202e+01	-5.781561e+01
9.700000e-07	-3.719157e-06	-8.423024e-10	-2.581775e+01	-5.750565e+01
9.800000e-07	-3.683832e-06	-8.400160e-10	-2.557253e+01	-5.719339e+01
9.900000e-07	-3.648390e-06	-8.351307e-10	-2.532649e+01	-5.687877e+01
1.000000e-06	-3.612809e-06	-8.284044e-10	-2.507950e+01	-5.656169e+01
1.010000e-06	-3.577005e-06	-8.296523e-10	-2.483095e+01	-5.624205e+01
1.020000e-06	-3.540998e-06	-8.305048e-10	-2.458100e+01	-5.591973e+01
1.030000e-06	-3.504883e-06	-8.223267e-10	-2.433029e+01	-5.559459e+01
1.040000e-06	-3.468535e-06	-8.180012e-10	-2.407797e+01	-5.526648e+01
1.050000e-06	-3.431853e-06	-8.164902e-10	-2.382333e+01	-5.493523e+01
1.060000e-06	-3.394892e-06	-8.060974e-10	-2.356675e+01	-5.460067e+01
1.070000e-06	-3.357727e-06	-7.957166e-10	-2.330876e+01	-5.426261e+01
1.080000e-06	-3.320340e-06	-7.912561e-10	-2.304922e+01	-5.392087e+01
1.090000e-06	-3.282646e-06	-7.850080e-10	-2.278756e+01	-5.357524e+01
1.100000e-06	-3.244672e-06	-7.757546e-10	-2.252395e+01	-5.322552e+01
1.110000e-06	-3.206484e-06	-7.719286e-10	-2.225886e+01	-5.287151e+01
1.120000e-06	-3.168131e-06	-7.664377e-10	-2.199262e+01	-5.251299e+01
1.130000e-06	-3.129571e-06	-7.590442e-10	-2.172494e+01	-5.214977e+01
1.140000e-06	-3.090772e-06	-7.530517e-10	-2.145561e+01	-5.178165e+01
1.150000e-06	-3.051815e-06	-7.503198e-10	-2.118517e+01	-5.140844e+01
1.160000e-06	-3.012642e-06	-7.420149e-10	-2.091324e+01	-5.102996e+01
1.170000e-06	-2.973288e-06	-7.337470e-10	-2.064005e+01	-5.064602e+01
1.180000e-06	-2.933859e-06	-7.282442e-10	-2.036635e+01	-5.025648e+01
1.190000e-06	-2.894367e-06	-7.228965e-10	-2.009219e+01	-4.986118e+01
1.200000e-06	-2.854762e-06	-7.149138e-10	-1.981727e+01	-4.945999e+01
1.210000e-06	-2.814983e-06	-7.101107e-10	-1.954113e+01	-4.905280e+01
1.220000e-06	-2.775026e-06	-7.038831e-10	-1.926375e+01	-4.863951e+01
1.230000e-06	-2.734808e-06	-6.937700e-10	-1.898456e+01	-4.822003e+01
1.240000e-06	-2.694364e-06	-6.814284e-10	-1.870381e+01	-4.779430e+01
1.250000e-06	-2.653634e-06	-6.729628e-10	-1.842107e+01	-4.736228e+01
1.260000e-06	-2.612621e-06	-6.638475e-10	-1.813637e+01	-4.692394e+01
1.270000e-06	-2.571479e-06	-6.559089e-10	-1.785077e+01	-4.647927e+01
1.280000e-06	-2.530058e-06	-6.508366e-10	-1.756322e+01	-4.602828e+01
1.290000e-06	-2.488259e-06	-6.454384e-10	-1.727307e+01	-4.557099e+01
1.300000e-06	-2.446109e-06	-6.366234e-10	-1.698047e+01	-4.510744e+01
1.310000e-06	-2.403671e-06	-6.267882e-10	-1.668587e+01	-4.463767e+01
1.320000e-06	-2.361031e-06	-6.184207e-10	-1.638987e+01	-4.416174e+01
1.330000e-06	-2.318162e-06	-6.108132e-10	-1.609228e+01	-4.367972e+01
1.340000e-06	-2.275068e-06	-6.051396e-10	-1.579313e+01	-4.319168e+01
1.350000e-06	-2.231798e-06	-6.001609e-10	-1.549275e+01	-4.269769e+01
1.360000e-06	-2.188356e-06	-5.931492e-10	-1.519119e+01	-4.219784e+01
1.370000e-06	-2.144843e-06	-5.848359e-10	-1.488913e+01	-4.169217e+01
1.380000e-06	-2.101283e-06	-5.769721e-10	-1.458674e+01	-4.118077e+01
1.390000e-06	-2.057611e-06	-5.670765e-10	-1.428358e+01	-4.066368e+01
1.400000e-06	-2.013809e-06	-5.579817e-10	-1.397951e+01	-4.014094e+01
1.410000e-06	-1.969898e-06	-5.519066e-10	-1.367469e+01	-3.961257e+01
1.420000e-06	-1.925950e-06	-5.467218e-10	-1.336962e+01	-3.907858e+01
1.430000e-06	-1.881926e-06	-5.394166e-10	-1.306400e+01	-3.853895e+01
1.440000e-06	-1.837797e-06	-5.315696e-10	-1.275767e+01	-3.799362e+01
1.450000e-06	-1.793573e-06	-5.226611e-10	-1.245067e+01	-3.744252e+01
1.460000e-06	-1.749184e-06	-5.143765e-10	-1.214253e+01	-3.688555e+01
1.470000e-06	-1.704622e-06	-5.055400e-10	-1.183319e+01	-3.632256e+01
1.480000e-06	-1.659927e-06	-4.965348e-10	-1.152293e+01	-3.575337e+01
1.490000e-06	-1.615141e-06	-4.884247e-10	-1.121203e+01	-3.517777e+01
1.500000e-06	-1.570189e-06	-4.823964e-10	-1.089998e+01	-3.459551e+01
1.510000e-06	-1.525082e-06	-4.749896e-10	-1.058685e+01	-3.400629e+01
1.520000e-06	-1.479839e-06	-4.649484e-10	-1.027279e+01	-3.340977e+01
1.530000e-06	-1.434452e-06	-4.548116e-10	-9.957720e+00	-3.280559e+01
1.540000e-06	-1.388951e-06	-4.466832e-10	-9.641860e+00	-3.219333e+01
1.550000e-06	-1.343348e-06	-4.358063e-10	-9.325288e+00	-3.157253e+01
1.560000e-06	-1.297725e-06	-4.243431e-10	-9.008581e+00	-3.094271e+01
1.570000e-06	-1.252054e-06	-4.136632e-10	-8.691543e+00	-3.030334e+01
1.580000e-06	-1.206340e-06	-4.012778e-10	-8.374206e+00	-2.965387e+01
1.590000e-06	-1.160623e-06	-3.891808e-10	-8.056843e+00	-2.899370e+01
1.600000e-06	-1.114833e-06	-3.801533e-10	-7.738979e+00	-2.832224e+01
1.610000e-06	-1.068882e-06	-3.720999e-10	-7.419997e+00	-2.763885e+01
1.620000e-06	-1.022795e-06	-3.629172e-10	-7.100066e+00	-2.694288e+01
1.630000e-06	-9.765988e-07	-3.528422e-10	-6.779380e+00	-2.623366e+01
1.640000e-06	-9.302825e-07	-3.419781e-10	-6.457860e+00	-2.551054e+01
1.650000e-06	-8.839593e-07	-3.310260e-10	-6.136293e+00	-2.477285e+01
1.660000e-06	-8.376349e-07	-3.197936e-10	-5.814717e+00	-2.401991e+01
1.670000e-06	-7.912361e-07	-3.077597e-10	-5.492625e+00	-2.325109e+01
1.680000e-06	-7.448053e-07	-2.964359e-10	-5.170310e+00	-2.246574e+01
1.690000e-06	-6.983264e-07	-2.852344e-10	-4.847661e+00	-2.166327e+01
1.700000e-06	-6.518273e-07	-2.719627e-10	-4.524872e+00	-2.084309e+01
1.710000e-06	-6.052344e-07	-2.585091e-10	-4.201433e+00	-2.000465e+01
1.720000e-06	-5.584876e-07	-2.444954e-10	-3.876925e+00	-1.914748e+01
1.730000e-06	-5.116820e-07	-2.303904e-10	-3.552008e+00	-1.827112e+01
1.740000e-06	-4.647997e-07	-2.158558e-10	-3.226559e+00	-1.737518e+01
1.750000e-06	-4.179527e-07	-2.012463e-10	-2.901355e+00	-1.645935e+01
1.760000e-06	-3.711631e-07	-1.863317e-10	-2.576550e+00	-1.552337e+01
1.770000e-06	-3.243020e-07	-1.707268e-10	-2.251248e+00	-1.456705e+01
1.780000e-06	-2.774173e-07	-1.545325e-10	-1.925783e+00	-1.359029e+01
1.790000e-06	-2.305921e-07	-1.389744e-10	-1.600730e+00	-1.259309e+01
1.800000e-06	-1.837988e-07	-1.230953e-10	-1.275900e+00	-1.157550e+01
1.810000e-06	-1.369395e-07	-1.082773e-10	-9.506104e-01	-1.053769e+01
1.820000e-06	-8.999287e-08	-9.454025e-11	-6.247150e-01	-9.479925e+00
1.830000e-06	-4.307381e-08	-7.951011e-11	-2.990110e-01	-8.402544e+00
1.840000e-06	3.829488e-09	-6.370663e-11	2.658364e-02	-7.306000e+00
1.850000e-06	5.080156e-08	-4.908510e-11	3.526557e-01	-6.190839e+00
1.860000e-06	9.775264e-08	-3.269402e-11	6.785820e-01	-5.057706e+00
1.870000e-06	1.447123e-07	-1.451858e-11	1.004568e+00	-3.907342e+00
1.880000e-06	1.916290e-07	2.688744e-12	1.330255e+00	-2.740584e+00
1.890000e-06	2.384745e-07	1.872482e-11	1.655449e+00	-1.558361e+00
1.900000e-06	2.853407e-07	3.398318e-11	1.980786e+00	-3.616918e-01
1.910000e-06	3.322159e-07	4.927937e-11	2.306186e+00	8.483184e-01
1.920000e-06	3.790545e-07	6.698241e-11	2.631331e+00	2.070484e+00
1.930000e-06	4.258615e-07	8.642872e-11	2.956257e+00	3.303544e+00
1.940000e-06	4.726614e-07	1.046753e-10	3.281134e+00	4.546166e+00
1.950000e-06	5.193736e-07	1.230117e-10	3.605402e+00	5.796955e+00
1.960000e-06	5.660390e-07	1.406194e-10	3.929345e+00	7.054462e+00
1.970000e-06	6.126476e-07	1.566211e-10	4.252894e+00	8.317187e+00
1.980000e-06	6.592175e-07	1.710718e-10	4.576174e+00	9.583589e+00
1.990000e-06	7.057886e-07	1.847250e-10	4.899463e+00	1.085210e+01
2.000000e-06	7.522862e-07	2.022585e-10	5.222241e+00	1.212112e+01
2.010000e-06	7.986165e-07	2.215589e-10	5.543858e+00	1.338904e+01
2.020000e-06	8.448402e-07	2.409040e-10	5.864735e+00	1.465425e+01
2.030000e-06	8.910955e-07	2.605966e-10	6.185831e+00	1.591514e+01
2.040000e-06	9.373548e-07	2.778462e-10	6.506955e+00	1.717011e+01
2.050000e-06	9.834647e-07	2.936725e-10	6.827042e+00	1.841759e+01
2.060000e-06	1.029456e-06	3.092278e-10	7.146304e+00	1.965603e+01
2.070000e-06	1.075458e-06	3.255456e-10	7.465642e+00	2.088394e+01
2.080000e-06	1.121350e-06	3.419204e-10	7.784216e+00	2.209986e+01
2.090000e-06	1.167179e-06	3.590791e-10	8.102358e+00	2.330239e+01
2.100000e-06	1.212939e-06	3.751560e-10	8.420016e+00	2.449021e+01
2.110000e-06	1.258503e-06	3.899782e-10	8.736310e+00	2.566205e+01
2.120000e-06	1.304006e-06	4.044672e-10	9.052186e+00	2.681674e+01
2.130000e-06	1.349439e-06	4.194685e-10	9.367572e+00	2.795318e+01
2.140000e-06	1.394782e-06	4.341372e-10	9.682337e+00	2.907037e+01
2.150000e-06	1.440073e-06	4.471821e-10	9.996740e+00	3.016738e+01
2.160000e-06	1.485295e-06	4.591234e-10	1.031066e+01	3.124342e+01
2.170000e-06	1.530338e-06	4.716710e-10	1.062335e+01	3.229778e+01
2.180000e-06	1.575237e-06	4.855276e-10	1.093502e+01	3.332983e+01
2.190000e-06	1.620134e-06	5.003592e-10	1.124669e+01	3.433909e+01
2.200000e-06	1.664883e-06	5.137091e-10	1.155733e+01	3.532516e+01
2.210000e-06	1.709439e-06	5.257546e-10	1.186663e+01	3.628775e+01
2.220000e-06	1.753858e-06	5.369048e-10	1.217498e+01	3.722668e+01
2.230000e-06	1.798164e-06	5.469476e-10	1.248254e+01	3.814187e+01
2.240000e-06	1.842400e-06	5.562115e-10	1.278962e+01	3.903333e+01
2.250000e-06	1.886531e-06	5.669461e-10	1.309597e+01	3.990118e+01
2.260000e-06	1.930499e-06	5.805716e-10	1.340119e+01	4.074564e+01
2.270000e-06	1.974309e-06	5.939453e-10	1.370532e+01	4.156701e+01
2.280000e-06	2.018033e-06	6.067691e-10	1.400884e+01	4.236567e+01
2.290000e-06	2.061724e-06	6.190486e-10	1.431213e+01	4.314208e+01
2.300000e-06	2.105362e-06	6.288815e-10	1.461506e+01	4.389678e+01
2.310000e-06	2.148951e-06	6.361521e-10	1.491765e+01	4.463036e+01
2.320000e-06	2.192471e-06	6.455107e-10	1.521976e+01	4.534348e+01
2.330000e-06	2.235917e-06	6.569004e-10	1.552135e+01	4.603685e+01
2.340000e-06	2.279251e-06	6.680736e-10	1.582217e+01	4.671122e+01
2.350000e-06	2.322377e-06	6.787119e-10	1.612154e+01	4.736736e+01
2.360000e-06	2.365353e-06	6.885076e-10	1.641987e+01	4.800610e+01
2.370000e-06	2.408076e-06	6.959660e-10	1.671645e+01	4.862826e+01
2.380000e-06	2.450462e-06	7.036658e-10	1.701068e+01	4.923468e+01
2.390000e-06	2.492616e-06	7.132722e-10	1.730331e+01	4.982621e+01
2.400000e-06	2.534423e-06	7.236966e-10	1.759353e+01	5.040369e+01
2.410000e-06	2.575868e-06	7.352704e-10	1.788123e+01	5.096795e+01
2.420000e-06	2.617063e-06	7.473494e-10	1.816720e+01	5.151980e+01
2.430000e-06	2.657942e-06	7.586693e-10	1.845097e+01	5.206004e+01
2.440000e-06	2.698548e-06	7.669128e-10	1.873286e+01	5.258941e+01
2.450000e-06	2.739026e-06	7.731263e-10	1.901384e+01	5.310865e+01
2.460000e-06	2.779279e-06	7.805371e-10	1.929328e+01	5.361844e+01
2.470000e-06	2.819245e-06	7.869837e-10	1.957071e+01	5.411941e+01
2.480000e-06	2.859043e-06	7.932847e-10	1.984698e+01	5.461215e+01
2.490000e-06	2.898765e-06	8.010889e-10	2.012272e+01	5.509720e+01
2.500000e-06	2.938330e-06	8.124024e-10	2.039738e+01	5.557505e+01
2.510000e-06	2.977712e-06	8.249044e-10	2.067076e+01	5.604611e+01
2.520000e-06	3.017009e-06	8.342372e-10	2.094355e+01	5.651075e+01
2.530000e-06	3.056131e-06	8.407659e-10	2.121514e+01	5.696929e+01
2.540000e-06	3.095027e-06	8.461213e-10	2.148514e+01	5.742198e+01
2.550000e-06	3.133694e-06	8.491286e-10	2.175356e+01	5.786901e+01
2.560000e-06	3.172105e-06	8.511252e-10	2.202021e+01	5.831052e+01
2.570000e-06	3.210301e-06	8.580042e-10	2.228535e+01	5.874660e+01
2.580000e-06	3.248236e-06	8.697793e-10	2.254869e+01	5.917729e+01
2.590000e-06	3.285931e-06	8.821080e-10	2.281036e+01	5.960255e+01
2.600000e-06	3.323470e-06	8.928026e-10	2.307096e+01	6.002234e+01
2.610000e-06	3.360805e-06	9.009138e-10	2.333013e+01	6.043656e+01
2.620000e-06	3.397852e-06	9.044189e-10	2.358730e+01	6.084506e+01
2.630000e-06	3.434601e-06	9.052904e-10	2.384241e+01	6.124767e+01
2.640000e-06	3.471087e-06	9.079384e-10	2.409569e+01	6.164419e+01
2.650000e-06	3.507354e-06	9.147330e-10	2.434744e+01	6.203441e+01
2.660000e-06	3.543432e-06	9.221445e-10	2.459790e+01	6.241806e+01
2.670000e-06	3.579281e-06	9.297579e-10	2.484675e+01	6.279491e+01
2.680000e-06	3.614933e-06	9.386875e-10	2.509424e+01	6.316469e+01
2.690000e-06	3.650517e-06	9.435465e-10	2.534126e+01	6.352713e+01
2.700000e-06	3.685985e-06	9.445746e-10	2.558747e+01	6.388196e+01
2.710000e-06	3.721266e-06	9.470509e-10	2.583238e+01	6.422893e+01
2.720000e-06	3.756343e-06	9.499902e-10	2.607588e+01	6.456779e+01
2.730000e-06	3.791091e-06	9.524656e-10	2.631710e+01	6.489831e+01
2.740000e-06	3.825460e-06	9.543273e-10	2.655568e+01	6.522027e+01
2.750000e-06	3.859376e-06	9.574672e-10	2.679112e+01	6.553349e+01
2.760000e-06	3.892763e-06	9.623860e-10	2.702289e+01	6.583779e+01
2.770000e-06	3.925761e-06	9.672176e-10	2.725195e+01	6.613306e+01
2.780000e-06	3.958386e-06	9.716204e-10	2.747843e+01	6.641918e+01
2.790000e-06	3.990558e-06	9.733631e-10	2.770177e+01	6.669608e+01
2.800000e-06	4.022448e-06	9.746877e-10	2.792314e+01	6.696373e+01
2.810000e-06	4.054197e-06	9.774293e-10	2.814354e+01	6.722213e+01
2.820000e-06	4.085802e-06	9.797143e-10	2.836293e+01	6.747132e+01
2.830000e-06	4.117244e-06	9.822953e-10	2.858120e+01	6.771138e+01
2.840000e-06	4.148474e-06	9.854189e-10	2.879799e+01	6.794241e+01
2.850000e-06	4.179378e-06	9.880116e-10	2.901252e+01	6.816456e+01
2.860000e-06	4.209970e-06	9.898633e-10	2.922488e+01	6.837802e+01
2.870000e-06	4.240259e-06	9.915430e-10	2.943514e+01	6.858299e+01
2.880000e-06	4.270212e-06	9.907896e-10	2.964307e+01	6.877973e+01
2.890000e-06	4.299917e-06	9.886042e-10	2.984928e+01	6.896851e+01
2.900000e-06	4.329361e-06	9.886118e-10	3.005368e+01	6.914963e+01
2.910000e-06	4.358475e-06	9.926023e-10	3.025578e+01	6.932340e+01
