# Temperatura_=_12.8
# Concentracion g/m^3_=_1620.0
# C_Vs_to_Am_M_A/Vsm_=_65563218390.804596
# pendiente_HvsI_1/m_=_3716.3
# ordenada_HvsI_A/m_=_1297.0
# frecuencia_Hz_=_135108.9888640137

Tiempo_(s)	Campo_(V.s)	Magnetizacion_(V.s)	Campo_(kA/m)	Magnetizacion_(A/m)
0.000000e+00	-5.516578e-06	-1.201107e-09	-3.836235e+01	-7.743872e+01
1.000000e-08	-5.516645e-06	-1.199677e-09	-3.836281e+01	-7.744597e+01
2.000000e-08	-5.516437e-06	-1.198626e-09	-3.836136e+01	-7.745292e+01
3.000000e-08	-5.515933e-06	-1.198086e-09	-3.835786e+01	-7.745926e+01
4.000000e-08	-5.514883e-06	-1.195090e-09	-3.835056e+01	-7.746468e+01
5.000000e-08	-5.513177e-06	-1.189296e-09	-3.833870e+01	-7.746883e+01
6.000000e-08	-5.510947e-06	-1.179686e-09	-3.832319e+01	-7.747136e+01
7.000000e-08	-5.508117e-06	-1.182382e-09	-3.830351e+01	-7.747193e+01
8.000000e-08	-5.504727e-06	-1.211770e-09	-3.827993e+01	-7.747017e+01
9.000000e-08	-5.500870e-06	-1.237489e-09	-3.825311e+01	-7.746573e+01
1.000000e-07	-5.496568e-06	-1.190280e-09	-3.822320e+01	-7.745825e+01
1.100000e-07	-5.492035e-06	-1.134913e-09	-3.819167e+01	-7.744739e+01
1.200000e-07	-5.487411e-06	-1.167022e-09	-3.815951e+01	-7.743280e+01
1.300000e-07	-5.482483e-06	-1.223208e-09	-3.812525e+01	-7.741417e+01
1.400000e-07	-5.477051e-06	-1.189754e-09	-3.808747e+01	-7.739118e+01
1.500000e-07	-5.471292e-06	-1.148167e-09	-3.804743e+01	-7.736353e+01
1.600000e-07	-5.465233e-06	-1.175358e-09	-3.800529e+01	-7.733096e+01
1.700000e-07	-5.458639e-06	-1.252301e-09	-3.795944e+01	-7.729320e+01
1.800000e-07	-5.451569e-06	-1.193092e-09	-3.791027e+01	-7.725004e+01
1.900000e-07	-5.444267e-06	-1.138693e-09	-3.785949e+01	-7.720127e+01
2.000000e-07	-5.436795e-06	-1.140600e-09	-3.780754e+01	-7.714672e+01
2.100000e-07	-5.429038e-06	-1.210583e-09	-3.775359e+01	-7.708623e+01
2.200000e-07	-5.420943e-06	-1.194470e-09	-3.769730e+01	-7.701968e+01
2.300000e-07	-5.412508e-06	-1.157874e-09	-3.763864e+01	-7.694699e+01
2.400000e-07	-5.403493e-06	-1.155988e-09	-3.757595e+01	-7.686809e+01
2.500000e-07	-5.393678e-06	-1.177521e-09	-3.750770e+01	-7.678294e+01
2.600000e-07	-5.383192e-06	-1.159624e-09	-3.743478e+01	-7.669155e+01
2.700000e-07	-5.372305e-06	-1.127192e-09	-3.735907e+01	-7.659393e+01
2.800000e-07	-5.361004e-06	-1.146728e-09	-3.728049e+01	-7.649014e+01
2.900000e-07	-5.349271e-06	-1.166447e-09	-3.719889e+01	-7.638025e+01
3.000000e-07	-5.337229e-06	-1.161827e-09	-3.711515e+01	-7.626436e+01
3.100000e-07	-5.324725e-06	-1.111105e-09	-3.702820e+01	-7.614258e+01
3.200000e-07	-5.311678e-06	-1.128482e-09	-3.693747e+01	-7.601508e+01
3.300000e-07	-5.298315e-06	-1.145528e-09	-3.684455e+01	-7.588199e+01
3.400000e-07	-5.284686e-06	-1.142393e-09	-3.674976e+01	-7.574352e+01
3.500000e-07	-5.270583e-06	-1.090524e-09	-3.665170e+01	-7.559984e+01
3.600000e-07	-5.255886e-06	-1.128483e-09	-3.654949e+01	-7.545116e+01
3.700000e-07	-5.240667e-06	-1.150222e-09	-3.644366e+01	-7.529771e+01
3.800000e-07	-5.224794e-06	-1.120904e-09	-3.633327e+01	-7.513970e+01
3.900000e-07	-5.208309e-06	-1.088031e-09	-3.621864e+01	-7.497737e+01
4.000000e-07	-5.191600e-06	-1.137678e-09	-3.610244e+01	-7.481094e+01
4.100000e-07	-5.174693e-06	-1.122252e-09	-3.598487e+01	-7.464065e+01
4.200000e-07	-5.157363e-06	-1.081066e-09	-3.586436e+01	-7.446673e+01
4.300000e-07	-5.139721e-06	-1.113061e-09	-3.574168e+01	-7.428940e+01
4.400000e-07	-5.121880e-06	-1.156249e-09	-3.561761e+01	-7.410890e+01
4.500000e-07	-5.103601e-06	-1.092413e-09	-3.549050e+01	-7.392544e+01
4.600000e-07	-5.084855e-06	-1.074207e-09	-3.536014e+01	-7.373922e+01
4.700000e-07	-5.065810e-06	-1.126357e-09	-3.522770e+01	-7.355043e+01
4.800000e-07	-5.046466e-06	-1.109237e-09	-3.509318e+01	-7.335926e+01
4.900000e-07	-5.026844e-06	-1.066853e-09	-3.495673e+01	-7.316588e+01
5.000000e-07	-5.007107e-06	-1.108114e-09	-3.481948e+01	-7.297044e+01
5.100000e-07	-4.987137e-06	-1.110084e-09	-3.468061e+01	-7.277308e+01
5.200000e-07	-4.966735e-06	-1.056237e-09	-3.453873e+01	-7.257392e+01
5.300000e-07	-4.945904e-06	-1.090348e-09	-3.439387e+01	-7.237306e+01
5.400000e-07	-4.924750e-06	-1.120754e-09	-3.424677e+01	-7.217059e+01
5.500000e-07	-4.903287e-06	-1.059087e-09	-3.409751e+01	-7.196658e+01
5.600000e-07	-4.881550e-06	-1.048116e-09	-3.394635e+01	-7.176109e+01
5.700000e-07	-4.859510e-06	-1.104438e-09	-3.379308e+01	-7.155414e+01
5.800000e-07	-4.837019e-06	-1.072745e-09	-3.363669e+01	-7.134575e+01
5.900000e-07	-4.814068e-06	-1.043063e-09	-3.347708e+01	-7.113594e+01
6.000000e-07	-4.790830e-06	-1.082309e-09	-3.331549e+01	-7.092467e+01
6.100000e-07	-4.767448e-06	-1.081821e-09	-3.315289e+01	-7.071193e+01
6.200000e-07	-4.743835e-06	-1.038974e-09	-3.298868e+01	-7.049766e+01
6.300000e-07	-4.719956e-06	-1.069845e-09	-3.282263e+01	-7.028181e+01
6.400000e-07	-4.695850e-06	-1.078816e-09	-3.265499e+01	-7.006431e+01
6.500000e-07	-4.671298e-06	-1.043141e-09	-3.248426e+01	-6.984508e+01
6.600000e-07	-4.646235e-06	-1.044703e-09	-3.230997e+01	-6.962403e+01
6.700000e-07	-4.620637e-06	-1.063309e-09	-3.213196e+01	-6.940106e+01
6.800000e-07	-4.594368e-06	-1.027643e-09	-3.194929e+01	-6.917606e+01
6.900000e-07	-4.567620e-06	-1.026177e-09	-3.176328e+01	-6.894891e+01
7.000000e-07	-4.540527e-06	-1.044573e-09	-3.157487e+01	-6.871950e+01
7.100000e-07	-4.513101e-06	-1.025371e-09	-3.138416e+01	-6.848770e+01
7.200000e-07	-4.485500e-06	-1.008395e-09	-3.119222e+01	-6.825339e+01
7.300000e-07	-4.457794e-06	-1.032019e-09	-3.099955e+01	-6.801643e+01
7.400000e-07	-4.429910e-06	-1.019617e-09	-3.080564e+01	-6.777670e+01
7.500000e-07	-4.401787e-06	-9.977449e-10	-3.061008e+01	-6.753406e+01
7.600000e-07	-4.373390e-06	-1.008868e-09	-3.041260e+01	-6.728839e+01
7.700000e-07	-4.344595e-06	-1.007630e-09	-3.021236e+01	-6.703956e+01
7.800000e-07	-4.315430e-06	-9.861743e-10	-3.000955e+01	-6.678743e+01
7.900000e-07	-4.286016e-06	-9.943697e-10	-2.980500e+01	-6.653190e+01
8.000000e-07	-4.256324e-06	-9.963986e-10	-2.959852e+01	-6.627284e+01
8.100000e-07	-4.226320e-06	-9.671030e-10	-2.938988e+01	-6.601012e+01
8.200000e-07	-4.195996e-06	-9.598443e-10	-2.917900e+01	-6.574366e+01
8.300000e-07	-4.165387e-06	-9.679307e-10	-2.896615e+01	-6.547333e+01
8.400000e-07	-4.134533e-06	-9.532777e-10	-2.875159e+01	-6.519903e+01
8.500000e-07	-4.103431e-06	-9.428028e-10	-2.853531e+01	-6.492068e+01
8.600000e-07	-4.072065e-06	-9.551186e-10	-2.831719e+01	-6.463817e+01
8.700000e-07	-4.040477e-06	-9.450003e-10	-2.809752e+01	-6.435144e+01
8.800000e-07	-4.008761e-06	-9.289809e-10	-2.787697e+01	-6.406038e+01
8.900000e-07	-3.976893e-06	-9.298208e-10	-2.765536e+01	-6.376495e+01
9.000000e-07	-3.944745e-06	-9.251533e-10	-2.743180e+01	-6.346505e+01
9.100000e-07	-3.912286e-06	-9.042362e-10	-2.720608e+01	-6.316064e+01
9.200000e-07	-3.879450e-06	-9.051919e-10	-2.697774e+01	-6.285166e+01
9.300000e-07	-3.846121e-06	-9.093142e-10	-2.674597e+01	-6.253806e+01
9.400000e-07	-3.812394e-06	-8.976800e-10	-2.651143e+01	-6.221979e+01
9.500000e-07	-3.778254e-06	-8.901505e-10	-2.627402e+01	-6.189681e+01
9.600000e-07	-3.743684e-06	-8.946529e-10	-2.603362e+01	-6.156910e+01
9.700000e-07	-3.708719e-06	-8.806242e-10	-2.579047e+01	-6.123661e+01
9.800000e-07	-3.673428e-06	-8.694129e-10	-2.554506e+01	-6.089934e+01
9.900000e-07	-3.637947e-06	-8.717640e-10	-2.529832e+01	-6.055726e+01
1.000000e-06	-3.602285e-06	-8.700140e-10	-2.505033e+01	-6.021036e+01
1.010000e-06	-3.566491e-06	-8.579410e-10	-2.480142e+01	-5.985864e+01
1.020000e-06	-3.530615e-06	-8.581915e-10	-2.455194e+01	-5.950210e+01
1.030000e-06	-3.494566e-06	-8.575535e-10	-2.430125e+01	-5.914075e+01
1.040000e-06	-3.458183e-06	-8.478844e-10	-2.404825e+01	-5.877459e+01
1.050000e-06	-3.421511e-06	-8.412153e-10	-2.379322e+01	-5.840364e+01
1.060000e-06	-3.384632e-06	-8.395868e-10	-2.353677e+01	-5.802794e+01
1.070000e-06	-3.347493e-06	-8.283980e-10	-2.327851e+01	-5.764751e+01
1.080000e-06	-3.310077e-06	-8.181645e-10	-2.301831e+01	-5.726238e+01
1.090000e-06	-3.272438e-06	-8.154878e-10	-2.275657e+01	-5.687261e+01
1.100000e-06	-3.234545e-06	-8.070402e-10	-2.249306e+01	-5.647824e+01
1.110000e-06	-3.196401e-06	-8.001346e-10	-2.222781e+01	-5.607932e+01
1.120000e-06	-3.158090e-06	-8.010542e-10	-2.196139e+01	-5.567592e+01
1.130000e-06	-3.119615e-06	-7.999759e-10	-2.169384e+01	-5.526809e+01
1.140000e-06	-3.080877e-06	-7.878312e-10	-2.142446e+01	-5.485592e+01
1.150000e-06	-3.041907e-06	-7.792445e-10	-2.115346e+01	-5.443948e+01
1.160000e-06	-3.002793e-06	-7.720990e-10	-2.088146e+01	-5.401884e+01
1.170000e-06	-2.963471e-06	-7.614170e-10	-2.060801e+01	-5.359409e+01
1.180000e-06	-2.924032e-06	-7.558532e-10	-2.033375e+01	-5.316531e+01
1.190000e-06	-2.884569e-06	-7.557768e-10	-2.005932e+01	-5.273260e+01
1.200000e-06	-2.844963e-06	-7.507069e-10	-1.978390e+01	-5.229603e+01
1.210000e-06	-2.805144e-06	-7.449562e-10	-1.950700e+01	-5.185569e+01
1.220000e-06	-2.765140e-06	-7.396222e-10	-1.922881e+01	-5.141168e+01
1.230000e-06	-2.724937e-06	-7.303971e-10	-1.894925e+01	-5.096407e+01
1.240000e-06	-2.684600e-06	-7.167890e-10	-1.866874e+01	-5.051294e+01
1.250000e-06	-2.644158e-06	-7.107861e-10	-1.838751e+01	-5.005835e+01
1.260000e-06	-2.603440e-06	-7.071264e-10	-1.810435e+01	-4.960038e+01
1.270000e-06	-2.562382e-06	-7.021119e-10	-1.781883e+01	-4.913907e+01
1.280000e-06	-2.521085e-06	-6.974473e-10	-1.753165e+01	-4.867447e+01
1.290000e-06	-2.479501e-06	-6.915391e-10	-1.724248e+01	-4.820661e+01
1.300000e-06	-2.437474e-06	-6.808933e-10	-1.695022e+01	-4.773549e+01
1.310000e-06	-2.395075e-06	-6.697341e-10	-1.665538e+01	-4.726111e+01
1.320000e-06	-2.352380e-06	-6.598697e-10	-1.635848e+01	-4.678344e+01
1.330000e-06	-2.309448e-06	-6.507110e-10	-1.605993e+01	-4.630244e+01
1.340000e-06	-2.266331e-06	-6.438571e-10	-1.576009e+01	-4.581803e+01
1.350000e-06	-2.223054e-06	-6.419383e-10	-1.545914e+01	-4.533013e+01
1.360000e-06	-2.179632e-06	-6.395663e-10	-1.515719e+01	-4.483860e+01
1.370000e-06	-2.136100e-06	-6.328530e-10	-1.485446e+01	-4.434329e+01
1.380000e-06	-2.092475e-06	-6.236660e-10	-1.455110e+01	-4.384402e+01
1.390000e-06	-2.048735e-06	-6.107781e-10	-1.424693e+01	-4.334058e+01
1.400000e-06	-2.004927e-06	-5.952089e-10	-1.394228e+01	-4.283271e+01
1.410000e-06	-1.961080e-06	-5.835145e-10	-1.363737e+01	-4.232013e+01
1.420000e-06	-1.917181e-06	-5.777376e-10	-1.333210e+01	-4.180253e+01
1.430000e-06	-1.873135e-06	-5.726063e-10	-1.302580e+01	-4.127955e+01
1.440000e-06	-1.828946e-06	-5.667400e-10	-1.271851e+01	-4.075081e+01
1.450000e-06	-1.784736e-06	-5.594736e-10	-1.241107e+01	-4.021588e+01
1.460000e-06	-1.740445e-06	-5.503170e-10	-1.210308e+01	-3.967430e+01
1.470000e-06	-1.695916e-06	-5.376073e-10	-1.179342e+01	-3.912559e+01
1.480000e-06	-1.651238e-06	-5.240571e-10	-1.148273e+01	-3.856921e+01
1.490000e-06	-1.606457e-06	-5.125049e-10	-1.117132e+01	-3.800461e+01
1.500000e-06	-1.561512e-06	-5.037089e-10	-1.085877e+01	-3.743120e+01
1.510000e-06	-1.516447e-06	-4.953566e-10	-1.054539e+01	-3.684838e+01
1.520000e-06	-1.471285e-06	-4.885299e-10	-1.023133e+01	-3.625551e+01
1.530000e-06	-1.426046e-06	-4.822651e-10	-9.916743e+00	-3.565191e+01
1.540000e-06	-1.380735e-06	-4.749750e-10	-9.601649e+00	-3.503693e+01
1.550000e-06	-1.335304e-06	-4.653717e-10	-9.285719e+00	-3.440987e+01
1.560000e-06	-1.289775e-06	-4.538293e-10	-8.969111e+00	-3.377002e+01
1.570000e-06	-1.244136e-06	-4.405919e-10	-8.651739e+00	-3.311667e+01
1.580000e-06	-1.198343e-06	-4.260568e-10	-8.333290e+00	-3.244912e+01
1.590000e-06	-1.152475e-06	-4.118180e-10	-8.014327e+00	-3.176665e+01
1.600000e-06	-1.106551e-06	-4.000496e-10	-7.694969e+00	-3.106857e+01
1.610000e-06	-1.060543e-06	-3.888528e-10	-7.375025e+00	-3.035419e+01
1.620000e-06	-1.014489e-06	-3.765268e-10	-7.054765e+00	-2.962283e+01
1.630000e-06	-9.683918e-07	-3.635304e-10	-6.734208e+00	-2.887386e+01
1.640000e-06	-9.222236e-07	-3.503406e-10	-6.413153e+00	-2.810665e+01
1.650000e-06	-8.760373e-07	-3.375830e-10	-6.091973e+00	-2.732062e+01
1.660000e-06	-8.298344e-07	-3.258792e-10	-5.770678e+00	-2.651524e+01
1.670000e-06	-7.836146e-07	-3.141156e-10	-5.449264e+00	-2.568999e+01
1.680000e-06	-7.373334e-07	-3.020427e-10	-5.127425e+00	-2.484444e+01
1.690000e-06	-6.909885e-07	-2.891428e-10	-4.805142e+00	-2.397820e+01
1.700000e-06	-6.446060e-07	-2.753459e-10	-4.482597e+00	-2.309092e+01
1.710000e-06	-5.981288e-07	-2.608002e-10	-4.159394e+00	-2.218236e+01
1.720000e-06	-5.515156e-07	-2.458462e-10	-3.835246e+00	-2.125230e+01
1.730000e-06	-5.048539e-07	-2.316563e-10	-3.510760e+00	-2.030062e+01
1.740000e-06	-4.582232e-07	-2.171355e-10	-3.186489e+00	-1.932729e+01
1.750000e-06	-4.115885e-07	-2.026989e-10	-2.862191e+00	-1.833231e+01
1.760000e-06	-3.649297e-07	-1.889428e-10	-2.537725e+00	-1.731582e+01
1.770000e-06	-3.182486e-07	-1.746312e-10	-2.213104e+00	-1.627800e+01
1.780000e-06	-2.715222e-07	-1.589664e-10	-1.888168e+00	-1.521915e+01
1.790000e-06	-2.246986e-07	-1.453824e-10	-1.562557e+00	-1.413962e+01
1.800000e-06	-1.778440e-07	-1.325334e-10	-1.236729e+00	-1.303987e+01
1.810000e-06	-1.310064e-07	-1.171515e-10	-9.110200e-01	-1.192046e+01
1.820000e-06	-8.414600e-08	-1.003910e-10	-5.851522e-01	-1.078199e+01
1.830000e-06	-3.734794e-08	-8.426602e-11	-2.597180e-01	-9.625204e+00
1.840000e-06	9.414143e-09	-6.762967e-11	6.546606e-02	-8.450879e+00
1.850000e-06	5.623676e-08	-5.168262e-11	3.910710e-01	-7.259897e+00
1.860000e-06	1.030583e-07	-3.643438e-11	7.166684e-01	-6.053212e+00
1.870000e-06	1.498421e-07	-2.056586e-11	1.042004e+00	-4.831849e+00
1.880000e-06	1.966131e-07	-4.026782e-12	1.367250e+00	-3.596905e+00
1.890000e-06	2.433970e-07	1.130011e-11	1.692585e+00	-2.349540e+00
1.900000e-06	2.901159e-07	2.609918e-11	2.017469e+00	-1.090973e+00
1.910000e-06	3.368704e-07	4.335129e-11	2.342601e+00	1.775233e-01
1.920000e-06	3.836583e-07	6.355596e-11	2.667964e+00	1.454629e+00
1.930000e-06	4.304011e-07	8.370359e-11	2.993014e+00	2.738984e+00
1.940000e-06	4.770675e-07	1.018595e-10	3.317533e+00	4.029192e+00
1.950000e-06	5.235435e-07	1.183794e-10	3.640727e+00	5.323833e+00
1.960000e-06	5.699626e-07	1.337121e-10	3.963527e+00	6.621463e+00
1.970000e-06	6.163866e-07	1.501951e-10	4.286360e+00	7.920628e+00
1.980000e-06	6.628294e-07	1.680412e-10	4.609323e+00	9.219870e+00
1.990000e-06	7.092395e-07	1.848961e-10	4.932059e+00	1.051773e+01
2.000000e-06	7.555873e-07	2.040082e-10	5.254362e+00	1.181276e+01
2.010000e-06	8.019293e-07	2.235616e-10	5.576626e+00	1.310354e+01
2.020000e-06	8.482186e-07	2.429161e-10	5.898522e+00	1.438865e+01
2.030000e-06	8.944549e-07	2.648251e-10	6.220050e+00	1.566672e+01
2.040000e-06	9.406279e-07	2.850491e-10	6.541137e+00	1.693641e+01
2.050000e-06	9.867360e-07	3.028199e-10	6.861773e+00	1.819645e+01
2.060000e-06	1.032792e-06	3.189362e-10	7.182045e+00	1.944557e+01
2.070000e-06	1.078767e-06	3.332875e-10	7.501756e+00	2.068261e+01
2.080000e-06	1.124612e-06	3.495073e-10	7.820564e+00	2.190644e+01
2.090000e-06	1.170307e-06	3.682110e-10	8.138326e+00	2.311600e+01
2.100000e-06	1.215947e-06	3.874124e-10	8.455711e+00	2.431031e+01
2.110000e-06	1.261552e-06	4.058882e-10	8.772847e+00	2.548846e+01
2.120000e-06	1.307044e-06	4.234711e-10	9.089197e+00	2.664961e+01
2.130000e-06	1.352502e-06	4.404301e-10	9.405317e+00	2.779301e+01
2.140000e-06	1.397911e-06	4.542824e-10	9.721090e+00	2.891800e+01
2.150000e-06	1.443162e-06	4.661673e-10	1.003576e+01	3.002397e+01
2.160000e-06	1.488354e-06	4.786399e-10	1.035003e+01	3.111043e+01
2.170000e-06	1.533409e-06	4.930692e-10	1.066334e+01	3.217696e+01
2.180000e-06	1.578306e-06	5.083080e-10	1.097556e+01	3.322321e+01
2.190000e-06	1.623146e-06	5.270937e-10	1.128738e+01	3.424893e+01
2.200000e-06	1.667855e-06	5.462245e-10	1.159828e+01	3.525394e+01
2.210000e-06	1.712412e-06	5.612846e-10	1.190813e+01	3.623815e+01
2.220000e-06	1.756779e-06	5.709630e-10	1.221666e+01	3.720153e+01
2.230000e-06	1.801006e-06	5.795925e-10	1.252421e+01	3.814413e+01
2.240000e-06	1.845119e-06	5.894743e-10	1.283098e+01	3.906606e+01
2.250000e-06	1.889142e-06	6.020886e-10	1.313711e+01	3.996750e+01
2.260000e-06	1.933088e-06	6.173244e-10	1.344271e+01	4.084869e+01
2.270000e-06	1.976919e-06	6.328393e-10	1.374752e+01	4.170991e+01
2.280000e-06	2.020697e-06	6.469598e-10	1.405195e+01	4.255152e+01
2.290000e-06	2.064457e-06	6.610402e-10	1.435626e+01	4.337389e+01
2.300000e-06	2.108190e-06	6.716660e-10	1.466038e+01	4.417744e+01
2.310000e-06	2.151882e-06	6.788686e-10	1.496421e+01	4.496262e+01
2.320000e-06	2.195504e-06	6.869229e-10	1.526756e+01	4.572993e+01
2.330000e-06	2.239027e-06	6.956321e-10	1.557022e+01	4.647986e+01
2.340000e-06	2.282396e-06	7.055826e-10	1.587181e+01	4.721292e+01
2.350000e-06	2.325485e-06	7.149064e-10	1.617145e+01	4.792965e+01
2.360000e-06	2.368235e-06	7.246317e-10	1.646873e+01	4.863058e+01
2.370000e-06	2.410741e-06	7.336798e-10	1.676432e+01	4.931625e+01
2.380000e-06	2.452900e-06	7.453791e-10	1.705749e+01	4.998717e+01
2.390000e-06	2.494684e-06	7.554725e-10	1.734806e+01	5.064388e+01
2.400000e-06	2.536197e-06	7.601381e-10	1.763675e+01	5.128688e+01
2.410000e-06	2.577384e-06	7.652369e-10	1.792316e+01	5.191664e+01
2.420000e-06	2.618179e-06	7.722057e-10	1.820685e+01	5.253366e+01
2.430000e-06	2.658667e-06	7.813063e-10	1.848840e+01	5.313836e+01
2.440000e-06	2.698976e-06	7.892403e-10	1.876871e+01	5.373117e+01
2.450000e-06	2.739162e-06	7.979720e-10	1.904817e+01	5.431248e+01
2.460000e-06	2.779262e-06	8.081861e-10	1.932702e+01	5.488265e+01
2.470000e-06	2.819225e-06	8.150059e-10	1.960492e+01	5.544201e+01
2.480000e-06	2.859049e-06	8.190086e-10	1.988186e+01	5.599086e+01
2.490000e-06	2.898756e-06	8.237075e-10	2.015798e+01	5.652947e+01
2.500000e-06	2.938305e-06	8.316240e-10	2.043301e+01	5.705808e+01
2.510000e-06	2.977701e-06	8.413140e-10	2.070697e+01	5.757688e+01
2.520000e-06	3.016866e-06	8.511464e-10	2.097932e+01	5.808607e+01
2.530000e-06	3.055800e-06	8.594217e-10	2.125007e+01	5.858578e+01
2.540000e-06	3.094631e-06	8.689925e-10	2.152010e+01	5.907613e+01
2.550000e-06	3.133241e-06	8.764485e-10	2.178859e+01	5.955723e+01
2.560000e-06	3.171543e-06	8.775633e-10	2.205495e+01	6.002915e+01
2.570000e-06	3.209618e-06	8.797175e-10	2.231972e+01	6.049194e+01
2.580000e-06	3.247441e-06	8.860714e-10	2.258274e+01	6.094565e+01
2.590000e-06	3.285089e-06	8.956995e-10	2.284455e+01	6.139030e+01
2.600000e-06	3.322590e-06	9.053685e-10	2.310533e+01	6.182589e+01
2.610000e-06	3.359808e-06	9.149492e-10	2.336414e+01	6.225245e+01
2.620000e-06	3.396812e-06	9.233419e-10	2.362147e+01	6.266997e+01
2.630000e-06	3.433591e-06	9.267578e-10	2.387723e+01	6.307846e+01
2.640000e-06	3.470032e-06	9.267707e-10	2.413064e+01	6.347791e+01
2.650000e-06	3.506223e-06	9.278548e-10	2.438232e+01	6.386834e+01
2.660000e-06	3.542298e-06	9.324389e-10	2.463318e+01	6.424976e+01
2.670000e-06	3.578262e-06	9.396465e-10	2.488328e+01	6.462220e+01
2.680000e-06	3.614069e-06	9.481301e-10	2.513227e+01	6.498569e+01
2.690000e-06	3.649738e-06	9.528293e-10	2.538032e+01	6.534028e+01
2.700000e-06	3.685251e-06	9.580008e-10	2.562728e+01	6.568606e+01
2.710000e-06	3.720572e-06	9.647298e-10	2.587290e+01	6.602310e+01
2.720000e-06	3.755605e-06	9.684910e-10	2.611652e+01	6.635151e+01
2.730000e-06	3.790200e-06	9.704506e-10	2.635710e+01	6.667142e+01
2.740000e-06	3.824267e-06	9.733460e-10	2.659400e+01	6.698298e+01
2.750000e-06	3.857875e-06	9.773537e-10	2.682771e+01	6.728635e+01
2.760000e-06	3.891096e-06	9.816768e-10	2.705872e+01	6.758174e+01
2.770000e-06	3.923850e-06	9.862129e-10	2.728649e+01	6.786935e+01
2.780000e-06	3.956201e-06	9.922315e-10	2.751147e+01	6.814941e+01
2.790000e-06	3.988265e-06	9.975299e-10	2.773444e+01	6.842218e+01
2.800000e-06	4.020127e-06	1.001456e-09	2.795601e+01	6.868792e+01
2.810000e-06	4.051885e-06	1.004515e-09	2.817685e+01	6.894691e+01
2.820000e-06	4.083506e-06	1.007196e-09	2.839675e+01	6.919947e+01
2.830000e-06	4.114910e-06	1.011003e-09	2.861513e+01	6.944588e+01
2.840000e-06	4.146061e-06	1.015277e-09	2.883176e+01	6.968648e+01
2.850000e-06	4.176849e-06	1.018791e-09	2.904585e+01	6.992159e+01
2.860000e-06	4.207275e-06	1.022363e-09	2.925744e+01	7.015153e+01
2.870000e-06	4.237426e-06	1.025381e-09	2.946711e+01	7.037664e+01
2.880000e-06	4.267312e-06	1.026140e-09	2.967494e+01	7.059724e+01
2.890000e-06	4.296933e-06	1.025946e-09	2.988092e+01	7.081365e+01
2.900000e-06	4.326260e-06	1.027931e-09	3.008486e+01	7.102619e+01
2.910000e-06	4.355309e-06	1.033469e-09	3.028687e+01	7.123516e+01
