# Temperatura_=_-0.3
# Concentracion g/m^3_=_1620.0
# C_Vs_to_Am_M_A/Vsm_=_65563218390.804596
# pendiente_HvsI_1/m_=_3716.3
# ordenada_HvsI_A/m_=_1297.0
# frecuencia_Hz_=_135101.18313623065

Tiempo_(s)	Campo_(V.s)	Magnetizacion_(V.s)	Campo_(kA/m)	Magnetizacion_(A/m)
0.000000e+00	-5.505947e-06	-1.563545e-09	-3.837068e+01	-1.003129e+02
1.000000e-08	-5.506219e-06	-1.562518e-09	-3.837257e+01	-1.002774e+02
2.000000e-08	-5.506197e-06	-1.560931e-09	-3.837242e+01	-1.002396e+02
3.000000e-08	-5.505787e-06	-1.559478e-09	-3.836957e+01	-1.001995e+02
4.000000e-08	-5.504902e-06	-1.558294e-09	-3.836340e+01	-1.001573e+02
5.000000e-08	-5.503518e-06	-1.555463e-09	-3.835375e+01	-1.001130e+02
6.000000e-08	-5.501628e-06	-1.551305e-09	-3.834058e+01	-1.000666e+02
7.000000e-08	-5.499147e-06	-1.553432e-09	-3.832329e+01	-1.000183e+02
8.000000e-08	-5.496071e-06	-1.586358e-09	-3.830185e+01	-9.996803e+01
9.000000e-08	-5.492502e-06	-1.582633e-09	-3.827698e+01	-9.991590e+01
1.000000e-07	-5.488515e-06	-1.509422e-09	-3.824920e+01	-9.986191e+01
1.100000e-07	-5.484188e-06	-1.499067e-09	-3.821904e+01	-9.980608e+01
1.200000e-07	-5.479609e-06	-1.568422e-09	-3.818713e+01	-9.974842e+01
1.300000e-07	-5.474785e-06	-1.595245e-09	-3.815352e+01	-9.968893e+01
1.400000e-07	-5.469640e-06	-1.544544e-09	-3.811766e+01	-9.962759e+01
1.500000e-07	-5.464074e-06	-1.485021e-09	-3.807887e+01	-9.956437e+01
1.600000e-07	-5.458171e-06	-1.582057e-09	-3.803773e+01	-9.949924e+01
1.700000e-07	-5.451962e-06	-1.574999e-09	-3.799446e+01	-9.943214e+01
1.800000e-07	-5.445342e-06	-1.537229e-09	-3.794832e+01	-9.936300e+01
1.900000e-07	-5.438236e-06	-1.459963e-09	-3.789880e+01	-9.929177e+01
2.000000e-07	-5.430763e-06	-1.532481e-09	-3.784673e+01	-9.921834e+01
2.100000e-07	-5.423084e-06	-1.549633e-09	-3.779321e+01	-9.914263e+01
2.200000e-07	-5.415221e-06	-1.534777e-09	-3.773841e+01	-9.906453e+01
2.300000e-07	-5.407066e-06	-1.486526e-09	-3.768159e+01	-9.898392e+01
2.400000e-07	-5.398505e-06	-1.497243e-09	-3.762192e+01	-9.890068e+01
2.500000e-07	-5.389318e-06	-1.499554e-09	-3.755789e+01	-9.881468e+01
2.600000e-07	-5.379376e-06	-1.481413e-09	-3.748862e+01	-9.872576e+01
2.700000e-07	-5.368746e-06	-1.489742e-09	-3.741453e+01	-9.863379e+01
2.800000e-07	-5.357622e-06	-1.485175e-09	-3.733701e+01	-9.853861e+01
2.900000e-07	-5.346171e-06	-1.493782e-09	-3.725721e+01	-9.844006e+01
3.000000e-07	-5.334377e-06	-1.465142e-09	-3.717501e+01	-9.833798e+01
3.100000e-07	-5.322232e-06	-1.487104e-09	-3.709038e+01	-9.823221e+01
3.200000e-07	-5.309676e-06	-1.459367e-09	-3.700288e+01	-9.812257e+01
3.300000e-07	-5.296696e-06	-1.482324e-09	-3.691242e+01	-9.800889e+01
3.400000e-07	-5.283360e-06	-1.451968e-09	-3.681948e+01	-9.789102e+01
3.500000e-07	-5.269588e-06	-1.468854e-09	-3.672351e+01	-9.776878e+01
3.600000e-07	-5.255289e-06	-1.455937e-09	-3.662386e+01	-9.764200e+01
3.700000e-07	-5.240579e-06	-1.480862e-09	-3.652134e+01	-9.751054e+01
3.800000e-07	-5.225339e-06	-1.439186e-09	-3.641514e+01	-9.737422e+01
3.900000e-07	-5.209519e-06	-1.461116e-09	-3.630489e+01	-9.723291e+01
4.000000e-07	-5.193260e-06	-1.464177e-09	-3.619158e+01	-9.708646e+01
4.100000e-07	-5.176728e-06	-1.447466e-09	-3.607637e+01	-9.693472e+01
4.200000e-07	-5.159860e-06	-1.412075e-09	-3.595882e+01	-9.677758e+01
4.300000e-07	-5.142681e-06	-1.462460e-09	-3.583910e+01	-9.661491e+01
4.400000e-07	-5.125249e-06	-1.459702e-09	-3.571761e+01	-9.644661e+01
4.500000e-07	-5.107389e-06	-1.415414e-09	-3.559315e+01	-9.627258e+01
4.600000e-07	-5.088998e-06	-1.424323e-09	-3.546498e+01	-9.609272e+01
4.700000e-07	-5.070100e-06	-1.467574e-09	-3.533328e+01	-9.590696e+01
4.800000e-07	-5.050872e-06	-1.424271e-09	-3.519928e+01	-9.571524e+01
4.900000e-07	-5.031426e-06	-1.399863e-09	-3.506377e+01	-9.551749e+01
5.000000e-07	-5.011791e-06	-1.435891e-09	-3.492693e+01	-9.531369e+01
5.100000e-07	-4.991944e-06	-1.420625e-09	-3.478862e+01	-9.510380e+01
5.200000e-07	-4.971851e-06	-1.388651e-09	-3.464859e+01	-9.488781e+01
5.300000e-07	-4.951483e-06	-1.422867e-09	-3.450665e+01	-9.466570e+01
5.400000e-07	-4.930708e-06	-1.433487e-09	-3.436187e+01	-9.443748e+01
5.500000e-07	-4.909534e-06	-1.380009e-09	-3.421431e+01	-9.420318e+01
5.600000e-07	-4.888029e-06	-1.394195e-09	-3.406444e+01	-9.396281e+01
5.700000e-07	-4.866236e-06	-1.417568e-09	-3.391257e+01	-9.371641e+01
5.800000e-07	-4.844032e-06	-1.386481e-09	-3.375783e+01	-9.346403e+01
5.900000e-07	-4.821344e-06	-1.366154e-09	-3.359971e+01	-9.320573e+01
6.000000e-07	-4.798389e-06	-1.402940e-09	-3.343974e+01	-9.294157e+01
6.100000e-07	-4.775234e-06	-1.383727e-09	-3.327838e+01	-9.267161e+01
6.200000e-07	-4.751821e-06	-1.368548e-09	-3.311521e+01	-9.239595e+01
6.300000e-07	-4.728180e-06	-1.379220e-09	-3.295046e+01	-9.211464e+01
6.400000e-07	-4.704326e-06	-1.383846e-09	-3.278422e+01	-9.182779e+01
6.500000e-07	-4.680153e-06	-1.352729e-09	-3.261576e+01	-9.153548e+01
6.600000e-07	-4.655604e-06	-1.362315e-09	-3.244468e+01	-9.123781e+01
6.700000e-07	-4.630602e-06	-1.357634e-09	-3.227044e+01	-9.093486e+01
6.800000e-07	-4.605051e-06	-1.344467e-09	-3.209238e+01	-9.062673e+01
6.900000e-07	-4.578806e-06	-1.331440e-09	-3.190948e+01	-9.031350e+01
7.000000e-07	-4.552003e-06	-1.337538e-09	-3.172269e+01	-8.999529e+01
7.100000e-07	-4.524881e-06	-1.322357e-09	-3.153368e+01	-8.967215e+01
7.200000e-07	-4.497458e-06	-1.319040e-09	-3.134257e+01	-8.934420e+01
7.300000e-07	-4.469827e-06	-1.312444e-09	-3.115001e+01	-8.901150e+01
7.400000e-07	-4.442094e-06	-1.305828e-09	-3.095674e+01	-8.867412e+01
7.500000e-07	-4.414163e-06	-1.293746e-09	-3.076209e+01	-8.833215e+01
7.600000e-07	-4.385944e-06	-1.291085e-09	-3.056544e+01	-8.798564e+01
7.700000e-07	-4.357477e-06	-1.281954e-09	-3.036705e+01	-8.763465e+01
7.800000e-07	-4.328688e-06	-1.275672e-09	-3.016642e+01	-8.727923e+01
7.900000e-07	-4.299525e-06	-1.270745e-09	-2.996319e+01	-8.691942e+01
8.000000e-07	-4.270097e-06	-1.264337e-09	-2.975810e+01	-8.655526e+01
8.100000e-07	-4.240464e-06	-1.255387e-09	-2.955159e+01	-8.618677e+01
8.200000e-07	-4.210526e-06	-1.246664e-09	-2.934296e+01	-8.581397e+01
8.300000e-07	-4.180253e-06	-1.240432e-09	-2.913198e+01	-8.543687e+01
8.400000e-07	-4.149623e-06	-1.228204e-09	-2.891852e+01	-8.505547e+01
8.500000e-07	-4.118681e-06	-1.223695e-09	-2.870289e+01	-8.466978e+01
8.600000e-07	-4.087511e-06	-1.219916e-09	-2.848567e+01	-8.427977e+01
8.700000e-07	-4.056133e-06	-1.217819e-09	-2.826699e+01	-8.388544e+01
8.800000e-07	-4.024584e-06	-1.208070e-09	-2.804713e+01	-8.348675e+01
8.900000e-07	-3.992845e-06	-1.205574e-09	-2.782595e+01	-8.308368e+01
9.000000e-07	-3.960847e-06	-1.191791e-09	-2.760296e+01	-8.267620e+01
9.100000e-07	-3.928628e-06	-1.179439e-09	-2.737842e+01	-8.226425e+01
9.200000e-07	-3.896085e-06	-1.168381e-09	-2.715163e+01	-8.184781e+01
9.300000e-07	-3.863056e-06	-1.165788e-09	-2.692145e+01	-8.142683e+01
9.400000e-07	-3.829644e-06	-1.155930e-09	-2.668861e+01	-8.100126e+01
9.500000e-07	-3.795765e-06	-1.155921e-09	-2.645250e+01	-8.057105e+01
9.600000e-07	-3.761398e-06	-1.153684e-09	-2.621300e+01	-8.013615e+01
9.700000e-07	-3.726693e-06	-1.148589e-09	-2.597114e+01	-7.969653e+01
9.800000e-07	-3.691733e-06	-1.135262e-09	-2.572751e+01	-7.925212e+01
9.900000e-07	-3.656532e-06	-1.130626e-09	-2.548219e+01	-7.880290e+01
1.000000e-06	-3.621081e-06	-1.120569e-09	-2.523514e+01	-7.834882e+01
1.010000e-06	-3.585476e-06	-1.111414e-09	-2.498701e+01	-7.788984e+01
1.020000e-06	-3.549723e-06	-1.103812e-09	-2.473785e+01	-7.742593e+01
1.030000e-06	-3.513794e-06	-1.101360e-09	-2.448746e+01	-7.695707e+01
1.040000e-06	-3.477657e-06	-1.095425e-09	-2.423562e+01	-7.648323e+01
1.050000e-06	-3.441241e-06	-1.093007e-09	-2.398184e+01	-7.600440e+01
1.060000e-06	-3.404590e-06	-1.090338e-09	-2.372642e+01	-7.552057e+01
1.070000e-06	-3.367700e-06	-1.082263e-09	-2.346934e+01	-7.503172e+01
1.080000e-06	-3.330553e-06	-1.068371e-09	-2.321047e+01	-7.453788e+01
1.090000e-06	-3.293197e-06	-1.059024e-09	-2.295013e+01	-7.403903e+01
1.100000e-06	-3.255626e-06	-1.053085e-09	-2.268830e+01	-7.353521e+01
1.110000e-06	-3.217865e-06	-1.044274e-09	-2.242515e+01	-7.302642e+01
1.120000e-06	-3.179856e-06	-1.038500e-09	-2.216026e+01	-7.251269e+01
1.130000e-06	-3.141552e-06	-1.033656e-09	-2.189333e+01	-7.199406e+01
1.140000e-06	-3.103008e-06	-1.027927e-09	-2.162471e+01	-7.147054e+01
1.150000e-06	-3.064285e-06	-1.018594e-09	-2.135486e+01	-7.094219e+01
1.160000e-06	-3.025381e-06	-1.013585e-09	-2.108374e+01	-7.040903e+01
1.170000e-06	-2.986241e-06	-1.006588e-09	-2.081097e+01	-6.987110e+01
1.180000e-06	-2.946901e-06	-9.979317e-10	-2.053681e+01	-6.932845e+01
1.190000e-06	-2.907463e-06	-9.869373e-10	-2.026197e+01	-6.878110e+01
1.200000e-06	-2.867938e-06	-9.803931e-10	-1.998652e+01	-6.822910e+01
1.210000e-06	-2.828264e-06	-9.722710e-10	-1.971004e+01	-6.767246e+01
1.220000e-06	-2.788477e-06	-9.652890e-10	-1.943276e+01	-6.711121e+01
1.230000e-06	-2.748524e-06	-9.562799e-10	-1.915433e+01	-6.654537e+01
1.240000e-06	-2.708356e-06	-9.487266e-10	-1.887440e+01	-6.597494e+01
1.250000e-06	-2.667961e-06	-9.376194e-10	-1.859289e+01	-6.539991e+01
1.260000e-06	-2.627303e-06	-9.305392e-10	-1.830955e+01	-6.482026e+01
1.270000e-06	-2.586341e-06	-9.228016e-10	-1.802408e+01	-6.423597e+01
1.280000e-06	-2.545119e-06	-9.159775e-10	-1.773681e+01	-6.364698e+01
1.290000e-06	-2.503634e-06	-9.091497e-10	-1.744771e+01	-6.305323e+01
1.300000e-06	-2.461911e-06	-9.040515e-10	-1.715694e+01	-6.245463e+01
1.310000e-06	-2.419865e-06	-8.939853e-10	-1.686392e+01	-6.185108e+01
1.320000e-06	-2.377406e-06	-8.802429e-10	-1.656803e+01	-6.124246e+01
1.330000e-06	-2.334657e-06	-8.640845e-10	-1.627011e+01	-6.062861e+01
1.340000e-06	-2.291725e-06	-8.491144e-10	-1.597092e+01	-6.000936e+01
1.350000e-06	-2.248722e-06	-8.362040e-10	-1.567124e+01	-5.938451e+01
1.360000e-06	-2.205558e-06	-8.284522e-10	-1.537043e+01	-5.875384e+01
1.370000e-06	-2.162206e-06	-8.256094e-10	-1.506831e+01	-5.811710e+01
1.380000e-06	-2.118730e-06	-8.223218e-10	-1.476532e+01	-5.747401e+01
1.390000e-06	-2.075099e-06	-8.128040e-10	-1.446127e+01	-5.682428e+01
1.400000e-06	-2.031381e-06	-7.985478e-10	-1.415660e+01	-5.616757e+01
1.410000e-06	-1.987647e-06	-7.811774e-10	-1.385182e+01	-5.550352e+01
1.420000e-06	-1.943826e-06	-7.635328e-10	-1.354643e+01	-5.483176e+01
1.430000e-06	-1.899890e-06	-7.503122e-10	-1.324024e+01	-5.415188e+01
1.440000e-06	-1.855901e-06	-7.409546e-10	-1.293369e+01	-5.346344e+01
1.450000e-06	-1.811848e-06	-7.364874e-10	-1.262668e+01	-5.276599e+01
1.460000e-06	-1.767643e-06	-7.317786e-10	-1.231862e+01	-5.205905e+01
1.470000e-06	-1.723325e-06	-7.260899e-10	-1.200977e+01	-5.134213e+01
1.480000e-06	-1.678855e-06	-7.139764e-10	-1.169986e+01	-5.061469e+01
1.490000e-06	-1.634240e-06	-6.986607e-10	-1.138894e+01	-4.987623e+01
1.500000e-06	-1.589589e-06	-6.818931e-10	-1.107777e+01	-4.912617e+01
1.510000e-06	-1.544863e-06	-6.669789e-10	-1.076608e+01	-4.836397e+01
1.520000e-06	-1.499926e-06	-6.514231e-10	-1.045291e+01	-4.758905e+01
1.530000e-06	-1.454777e-06	-6.392565e-10	-1.013827e+01	-4.680084e+01
1.540000e-06	-1.409513e-06	-6.331047e-10	-9.822829e+00	-4.599875e+01
1.550000e-06	-1.364118e-06	-6.305550e-10	-9.506475e+00	-4.518221e+01
1.560000e-06	-1.318632e-06	-6.217298e-10	-9.189481e+00	-4.435063e+01
1.570000e-06	-1.273118e-06	-6.089341e-10	-8.872299e+00	-4.350344e+01
1.580000e-06	-1.227529e-06	-5.914346e-10	-8.554590e+00	-4.264008e+01
1.590000e-06	-1.181849e-06	-5.694648e-10	-8.236249e+00	-4.176000e+01
1.600000e-06	-1.136098e-06	-5.490051e-10	-7.917410e+00	-4.086267e+01
1.610000e-06	-1.090283e-06	-5.359400e-10	-7.598130e+00	-3.994756e+01
1.620000e-06	-1.044403e-06	-5.238199e-10	-7.278391e+00	-3.901419e+01
1.630000e-06	-9.984736e-07	-5.119479e-10	-6.958315e+00	-3.806210e+01
1.640000e-06	-9.525179e-07	-5.018898e-10	-6.638052e+00	-3.709084e+01
1.650000e-06	-9.064617e-07	-4.889109e-10	-6.317088e+00	-3.610002e+01
1.660000e-06	-8.603427e-07	-4.717394e-10	-5.995687e+00	-3.508927e+01
1.670000e-06	-8.141988e-07	-4.529250e-10	-5.674113e+00	-3.405828e+01
1.680000e-06	-7.679747e-07	-4.339557e-10	-5.351979e+00	-3.300676e+01
1.690000e-06	-7.216281e-07	-4.159889e-10	-5.028991e+00	-3.193449e+01
1.700000e-06	-6.752801e-07	-4.031801e-10	-4.705995e+00	-3.084126e+01
1.710000e-06	-6.289803e-07	-3.909456e-10	-4.383334e+00	-2.972696e+01
1.720000e-06	-5.826542e-07	-3.758490e-10	-4.060489e+00	-2.859150e+01
1.730000e-06	-5.362613e-07	-3.571713e-10	-3.737179e+00	-2.743486e+01
1.740000e-06	-4.898192e-07	-3.361754e-10	-3.413526e+00	-2.625707e+01
1.750000e-06	-4.433428e-07	-3.149798e-10	-3.089635e+00	-2.505823e+01
1.760000e-06	-3.967923e-07	-2.963437e-10	-2.765226e+00	-2.383848e+01
1.770000e-06	-3.502755e-07	-2.794925e-10	-2.441053e+00	-2.259805e+01
1.780000e-06	-3.037880e-07	-2.632582e-10	-2.117084e+00	-2.133720e+01
1.790000e-06	-2.572029e-07	-2.480210e-10	-1.792435e+00	-2.005628e+01
1.800000e-06	-2.105699e-07	-2.336203e-10	-1.467451e+00	-1.875569e+01
1.810000e-06	-1.638904e-07	-2.148731e-10	-1.142144e+00	-1.743588e+01
1.820000e-06	-1.171838e-07	-1.944052e-10	-8.166482e-01	-1.609738e+01
1.830000e-06	-7.051681e-08	-1.727930e-10	-4.914283e-01	-1.474077e+01
1.840000e-06	-2.383717e-08	-1.514549e-10	-1.661201e-01	-1.336669e+01
1.850000e-06	2.286962e-08	-1.326898e-10	1.593773e-01	-1.197585e+01
1.860000e-06	6.951783e-08	-1.171872e-10	4.844664e-01	-1.056900e+01
1.870000e-06	1.161016e-07	-9.972550e-11	8.091063e-01	-9.146938e+00
1.880000e-06	1.627400e-07	-7.999707e-11	1.134127e+00	-7.710532e+00
1.890000e-06	2.094093e-07	-6.042455e-11	1.459363e+00	-6.260688e+00
1.900000e-06	2.560854e-07	-4.097588e-11	1.784647e+00	-4.798357e+00
1.910000e-06	3.027096e-07	-2.120109e-11	2.109569e+00	-3.324534e+00
1.920000e-06	3.493619e-07	4.113654e-13	2.434686e+00	-1.840252e+00
1.930000e-06	3.961218e-07	2.378820e-11	2.760554e+00	-3.465813e-01
1.940000e-06	4.427784e-07	4.767215e-11	3.085702e+00	1.155380e+00
1.950000e-06	4.893012e-07	7.112713e-11	3.409917e+00	2.664503e+00
1.960000e-06	5.358159e-07	9.239034e-11	3.734075e+00	4.179636e+00
1.970000e-06	5.823090e-07	1.116725e-10	4.058084e+00	5.699609e+00
1.980000e-06	6.286355e-07	1.308286e-10	4.380931e+00	7.223236e+00
1.990000e-06	6.748261e-07	1.503444e-10	4.702831e+00	8.749320e+00
2.000000e-06	7.210660e-07	1.707747e-10	5.025074e+00	1.027666e+01
2.010000e-06	7.672563e-07	1.933768e-10	5.346973e+00	1.180404e+01
2.020000e-06	8.133819e-07	2.168046e-10	5.668419e+00	1.333026e+01
2.030000e-06	8.594876e-07	2.410319e-10	5.989728e+00	1.485413e+01
2.040000e-06	9.054862e-07	2.673454e-10	6.310290e+00	1.637445e+01
2.050000e-06	9.514728e-07	2.902410e-10	6.630768e+00	1.789005e+01
2.060000e-06	9.973858e-07	3.101593e-10	6.950734e+00	1.939978e+01
2.070000e-06	1.043195e-06	3.280303e-10	7.269974e+00	2.090249e+01
2.080000e-06	1.089003e-06	3.455598e-10	7.589211e+00	2.239709e+01
2.090000e-06	1.134708e-06	3.650997e-10	7.907723e+00	2.388250e+01
2.100000e-06	1.180287e-06	3.891961e-10	8.225366e+00	2.535767e+01
2.110000e-06	1.225855e-06	4.141717e-10	8.542928e+00	2.682159e+01
2.120000e-06	1.271382e-06	4.369604e-10	8.860201e+00	2.827328e+01
2.130000e-06	1.316817e-06	4.563714e-10	9.176833e+00	2.971183e+01
2.140000e-06	1.362124e-06	4.736534e-10	9.492578e+00	3.113634e+01
2.150000e-06	1.407335e-06	4.887758e-10	9.807648e+00	3.254598e+01
2.160000e-06	1.452407e-06	5.041308e-10	1.012176e+01	3.393996e+01
2.170000e-06	1.497289e-06	5.228948e-10	1.043454e+01	3.531752e+01
2.180000e-06	1.542075e-06	5.444173e-10	1.074665e+01	3.667800e+01
2.190000e-06	1.586781e-06	5.664142e-10	1.105820e+01	3.802073e+01
2.200000e-06	1.631364e-06	5.869520e-10	1.136890e+01	3.934516e+01
2.210000e-06	1.675830e-06	6.041462e-10	1.167878e+01	4.065073e+01
2.220000e-06	1.720171e-06	6.185973e-10	1.198779e+01	4.193698e+01
2.230000e-06	1.764363e-06	6.336566e-10	1.229576e+01	4.320349e+01
2.240000e-06	1.808467e-06	6.514628e-10	1.260312e+01	4.444989e+01
2.250000e-06	1.852513e-06	6.707496e-10	1.291007e+01	4.567586e+01
2.260000e-06	1.896488e-06	6.887768e-10	1.321653e+01	4.688115e+01
2.270000e-06	1.940435e-06	7.053665e-10	1.352280e+01	4.806554e+01
2.280000e-06	1.984231e-06	7.210878e-10	1.382801e+01	4.922889e+01
2.290000e-06	2.027874e-06	7.364995e-10	1.413216e+01	5.037107e+01
2.300000e-06	2.071480e-06	7.512281e-10	1.443604e+01	5.149204e+01
2.310000e-06	2.114980e-06	7.640582e-10	1.473920e+01	5.259178e+01
2.320000e-06	2.158367e-06	7.768296e-10	1.504155e+01	5.367032e+01
2.330000e-06	2.201650e-06	7.927313e-10	1.534320e+01	5.472774e+01
2.340000e-06	2.244829e-06	8.104175e-10	1.564410e+01	5.576415e+01
2.350000e-06	2.287848e-06	8.272210e-10	1.594390e+01	5.677971e+01
2.360000e-06	2.330616e-06	8.399571e-10	1.624195e+01	5.777460e+01
2.370000e-06	2.373122e-06	8.503542e-10	1.653817e+01	5.874904e+01
2.380000e-06	2.415354e-06	8.601914e-10	1.683248e+01	5.970329e+01
2.390000e-06	2.457370e-06	8.724033e-10	1.712529e+01	6.063763e+01
2.400000e-06	2.499126e-06	8.856308e-10	1.741629e+01	6.155237e+01
2.410000e-06	2.540528e-06	8.992196e-10	1.770482e+01	6.244784e+01
2.420000e-06	2.581613e-06	9.133667e-10	1.799114e+01	6.332437e+01
2.430000e-06	2.622401e-06	9.267418e-10	1.827539e+01	6.418235e+01
2.440000e-06	2.662930e-06	9.385453e-10	1.855783e+01	6.502216e+01
2.450000e-06	2.703238e-06	9.487534e-10	1.883874e+01	6.584419e+01
2.460000e-06	2.743333e-06	9.579548e-10	1.911815e+01	6.664884e+01
2.470000e-06	2.783215e-06	9.672332e-10	1.939609e+01	6.743653e+01
2.480000e-06	2.822965e-06	9.768491e-10	1.967311e+01	6.820768e+01
2.490000e-06	2.862634e-06	9.858348e-10	1.994956e+01	6.896271e+01
2.500000e-06	2.902165e-06	9.951412e-10	2.022505e+01	6.970203e+01
2.510000e-06	2.941520e-06	1.007611e-09	2.049931e+01	7.042608e+01
2.520000e-06	2.980708e-06	1.021081e-09	2.077241e+01	7.113527e+01
2.530000e-06	3.019744e-06	1.032442e-09	2.104445e+01	7.183002e+01
2.540000e-06	3.058505e-06	1.043845e-09	2.131458e+01	7.251073e+01
2.550000e-06	3.096985e-06	1.054747e-09	2.158274e+01	7.317780e+01
2.560000e-06	3.135322e-06	1.061577e-09	2.184991e+01	7.383162e+01
2.570000e-06	3.173479e-06	1.066854e-09	2.211582e+01	7.447258e+01
2.580000e-06	3.211475e-06	1.074817e-09	2.238062e+01	7.510104e+01
2.590000e-06	3.249232e-06	1.085950e-09	2.264374e+01	7.571736e+01
2.600000e-06	3.286725e-06	1.097698e-09	2.290503e+01	7.632188e+01
2.610000e-06	3.324061e-06	1.106482e-09	2.316522e+01	7.691494e+01
2.620000e-06	3.361127e-06	1.115119e-09	2.342353e+01	7.749685e+01
2.630000e-06	3.397945e-06	1.125512e-09	2.368012e+01	7.806791e+01
2.640000e-06	3.434544e-06	1.134689e-09	2.393517e+01	7.862840e+01
2.650000e-06	3.470900e-06	1.142707e-09	2.418853e+01	7.917861e+01
2.660000e-06	3.507039e-06	1.152437e-09	2.444039e+01	7.971878e+01
2.670000e-06	3.542941e-06	1.161040e-09	2.469059e+01	8.024915e+01
2.680000e-06	3.578654e-06	1.167061e-09	2.493947e+01	8.076996e+01
2.690000e-06	3.614221e-06	1.171904e-09	2.518733e+01	8.128142e+01
2.700000e-06	3.649675e-06	1.176213e-09	2.543441e+01	8.178372e+01
2.710000e-06	3.685006e-06	1.183785e-09	2.568063e+01	8.227706e+01
2.720000e-06	3.720080e-06	1.194938e-09	2.592506e+01	8.276160e+01
2.730000e-06	3.754748e-06	1.204426e-09	2.616666e+01	8.323750e+01
2.740000e-06	3.789041e-06	1.212261e-09	2.640565e+01	8.370492e+01
2.750000e-06	3.822966e-06	1.218656e-09	2.664207e+01	8.416400e+01
2.760000e-06	3.856396e-06	1.222832e-09	2.687504e+01	8.461486e+01
2.770000e-06	3.889356e-06	1.224880e-09	2.710473e+01	8.505762e+01
2.780000e-06	3.921935e-06	1.228108e-09	2.733177e+01	8.549239e+01
2.790000e-06	3.954223e-06	1.234447e-09	2.755679e+01	8.591928e+01
2.800000e-06	3.986295e-06	1.240653e-09	2.778030e+01	8.633839e+01
2.810000e-06	4.018132e-06	1.246266e-09	2.800217e+01	8.674980e+01
2.820000e-06	4.049792e-06	1.252672e-09	2.822281e+01	8.715359e+01
2.830000e-06	4.081281e-06	1.259666e-09	2.844225e+01	8.754986e+01
2.840000e-06	4.112487e-06	1.266129e-09	2.865972e+01	8.793868e+01
2.850000e-06	4.143412e-06	1.270210e-09	2.887524e+01	8.832012e+01
2.860000e-06	4.174047e-06	1.273647e-09	2.908873e+01	8.869426e+01
2.870000e-06	4.204310e-06	1.277684e-09	2.929964e+01	8.906116e+01
2.880000e-06	4.234332e-06	1.281220e-09	2.950886e+01	8.942090e+01
2.890000e-06	4.264159e-06	1.284417e-09	2.971672e+01	8.977354e+01
2.900000e-06	4.293649e-06	1.287632e-09	2.992224e+01	9.011916e+01
