# Temperatura_=_-0.4
# Concentracion g/m^3_=_1620.0
# C_Vs_to_Am_M_A/Vsm_=_65563218390.804596
# pendiente_HvsI_1/m_=_3716.3
# ordenada_HvsI_A/m_=_1297.0
# frecuencia_Hz_=_135088.93761865934

Tiempo_(s)	Campo_(V.s)	Magnetizacion_(V.s)	Campo_(kA/m)	Magnetizacion_(A/m)
0.000000e+00	-5.509889e-06	-1.749309e-09	-3.838154e+01	-1.108417e+02
1.000000e-08	-5.510256e-06	-1.744970e-09	-3.838409e+01	-1.107811e+02
2.000000e-08	-5.510321e-06	-1.739500e-09	-3.838454e+01	-1.107160e+02
3.000000e-08	-5.509926e-06	-1.738858e-09	-3.838179e+01	-1.106466e+02
4.000000e-08	-5.509073e-06	-1.739555e-09	-3.837585e+01	-1.105731e+02
5.000000e-08	-5.507801e-06	-1.740509e-09	-3.836699e+01	-1.104954e+02
6.000000e-08	-5.505860e-06	-1.741618e-09	-3.835347e+01	-1.104138e+02
7.000000e-08	-5.503249e-06	-1.740602e-09	-3.833528e+01	-1.103284e+02
8.000000e-08	-5.500228e-06	-1.741012e-09	-3.831424e+01	-1.102393e+02
9.000000e-08	-5.496913e-06	-1.739597e-09	-3.829115e+01	-1.101466e+02
1.000000e-07	-5.493167e-06	-1.743152e-09	-3.826505e+01	-1.100506e+02
1.100000e-07	-5.488961e-06	-1.786113e-09	-3.823575e+01	-1.099512e+02
1.200000e-07	-5.484468e-06	-1.753273e-09	-3.820446e+01	-1.098488e+02
1.300000e-07	-5.479702e-06	-1.705453e-09	-3.817126e+01	-1.097433e+02
1.400000e-07	-5.474599e-06	-1.706407e-09	-3.813571e+01	-1.096350e+02
1.500000e-07	-5.469105e-06	-1.740565e-09	-3.809744e+01	-1.095240e+02
1.600000e-07	-5.463199e-06	-1.768843e-09	-3.805629e+01	-1.094103e+02
1.700000e-07	-5.457000e-06	-1.729970e-09	-3.801312e+01	-1.092941e+02
1.800000e-07	-5.450525e-06	-1.721242e-09	-3.796801e+01	-1.091756e+02
1.900000e-07	-5.443515e-06	-1.711235e-09	-3.791918e+01	-1.090547e+02
2.000000e-07	-5.436122e-06	-1.692921e-09	-3.786768e+01	-1.089315e+02
2.100000e-07	-5.428601e-06	-1.661780e-09	-3.781529e+01	-1.088062e+02
2.200000e-07	-5.420774e-06	-1.655773e-09	-3.776077e+01	-1.086788e+02
2.300000e-07	-5.412552e-06	-1.667842e-09	-3.770350e+01	-1.085494e+02
2.400000e-07	-5.403956e-06	-1.676421e-09	-3.764361e+01	-1.084179e+02
2.500000e-07	-5.394931e-06	-1.649904e-09	-3.758074e+01	-1.082843e+02
2.600000e-07	-5.385187e-06	-1.625690e-09	-3.751287e+01	-1.081488e+02
2.700000e-07	-5.374617e-06	-1.621045e-09	-3.743924e+01	-1.080112e+02
2.800000e-07	-5.363505e-06	-1.624421e-09	-3.736183e+01	-1.078715e+02
2.900000e-07	-5.352012e-06	-1.617205e-09	-3.728178e+01	-1.077297e+02
3.000000e-07	-5.340169e-06	-1.602014e-09	-3.719928e+01	-1.075857e+02
3.100000e-07	-5.327976e-06	-1.610994e-09	-3.711434e+01	-1.074394e+02
3.200000e-07	-5.315462e-06	-1.626742e-09	-3.702717e+01	-1.072907e+02
3.300000e-07	-5.302566e-06	-1.614670e-09	-3.693734e+01	-1.071395e+02
3.400000e-07	-5.289213e-06	-1.583327e-09	-3.684432e+01	-1.069856e+02
3.500000e-07	-5.275522e-06	-1.588484e-09	-3.674895e+01	-1.068290e+02
3.600000e-07	-5.261519e-06	-1.600504e-09	-3.665141e+01	-1.066695e+02
3.700000e-07	-5.246910e-06	-1.579851e-09	-3.654964e+01	-1.065069e+02
3.800000e-07	-5.231702e-06	-1.565040e-09	-3.644370e+01	-1.063409e+02
3.900000e-07	-5.216088e-06	-1.591763e-09	-3.633494e+01	-1.061715e+02
4.000000e-07	-5.199985e-06	-1.575803e-09	-3.622276e+01	-1.059985e+02
4.100000e-07	-5.183351e-06	-1.551809e-09	-3.610690e+01	-1.058216e+02
4.200000e-07	-5.166505e-06	-1.581710e-09	-3.598954e+01	-1.056406e+02
4.300000e-07	-5.149432e-06	-1.600059e-09	-3.587062e+01	-1.054554e+02
4.400000e-07	-5.131870e-06	-1.545792e-09	-3.574828e+01	-1.052657e+02
4.500000e-07	-5.114040e-06	-1.544269e-09	-3.562408e+01	-1.050713e+02
4.600000e-07	-5.095899e-06	-1.584424e-09	-3.549771e+01	-1.048720e+02
4.700000e-07	-5.077234e-06	-1.552640e-09	-3.536769e+01	-1.046676e+02
4.800000e-07	-5.058128e-06	-1.515185e-09	-3.523460e+01	-1.044579e+02
4.900000e-07	-5.038745e-06	-1.560482e-09	-3.509958e+01	-1.042427e+02
5.000000e-07	-5.019225e-06	-1.567720e-09	-3.496360e+01	-1.040220e+02
5.100000e-07	-4.999548e-06	-1.513539e-09	-3.482653e+01	-1.037953e+02
5.200000e-07	-4.979611e-06	-1.526166e-09	-3.468765e+01	-1.035628e+02
5.300000e-07	-4.959239e-06	-1.553656e-09	-3.454574e+01	-1.033241e+02
5.400000e-07	-4.938430e-06	-1.508762e-09	-3.440079e+01	-1.030791e+02
5.500000e-07	-4.917260e-06	-1.497890e-09	-3.425332e+01	-1.028279e+02
5.600000e-07	-4.895766e-06	-1.538781e-09	-3.410359e+01	-1.025701e+02
5.700000e-07	-4.874011e-06	-1.516782e-09	-3.395205e+01	-1.023059e+02
5.800000e-07	-4.851950e-06	-1.485920e-09	-3.379837e+01	-1.020351e+02
5.900000e-07	-4.829443e-06	-1.513981e-09	-3.364159e+01	-1.017576e+02
6.000000e-07	-4.806421e-06	-1.514816e-09	-3.348122e+01	-1.014735e+02
6.100000e-07	-4.783148e-06	-1.478862e-09	-3.331910e+01	-1.011827e+02
6.200000e-07	-4.759780e-06	-1.494104e-09	-3.315632e+01	-1.008853e+02
6.300000e-07	-4.736265e-06	-1.507089e-09	-3.299252e+01	-1.005813e+02
6.400000e-07	-4.712466e-06	-1.478175e-09	-3.282674e+01	-1.002707e+02
6.500000e-07	-4.688241e-06	-1.472716e-09	-3.265798e+01	-9.995354e+01
6.600000e-07	-4.663610e-06	-1.488304e-09	-3.248641e+01	-9.962997e+01
6.700000e-07	-4.638482e-06	-1.466992e-09	-3.231137e+01	-9.930005e+01
6.800000e-07	-4.612908e-06	-1.449411e-09	-3.213322e+01	-9.896388e+01
6.900000e-07	-4.586807e-06	-1.455870e-09	-3.195140e+01	-9.862157e+01
7.000000e-07	-4.560106e-06	-1.446770e-09	-3.176541e+01	-9.827324e+01
7.100000e-07	-4.532991e-06	-1.427747e-09	-3.157653e+01	-9.791903e+01
7.200000e-07	-4.505604e-06	-1.432075e-09	-3.138575e+01	-9.755907e+01
7.300000e-07	-4.478101e-06	-1.432932e-09	-3.119417e+01	-9.719350e+01
7.400000e-07	-4.450470e-06	-1.420173e-09	-3.100169e+01	-9.682248e+01
7.500000e-07	-4.422589e-06	-1.412800e-09	-3.080747e+01	-9.644614e+01
7.600000e-07	-4.394378e-06	-1.408877e-09	-3.061096e+01	-9.606465e+01
7.700000e-07	-4.365834e-06	-1.394707e-09	-3.041212e+01	-9.567813e+01
7.800000e-07	-4.336967e-06	-1.384273e-09	-3.021104e+01	-9.528674e+01
7.900000e-07	-4.307865e-06	-1.380552e-09	-3.000831e+01	-9.489061e+01
8.000000e-07	-4.278469e-06	-1.372328e-09	-2.980354e+01	-9.448986e+01
8.100000e-07	-4.248783e-06	-1.363666e-09	-2.959675e+01	-9.408463e+01
8.200000e-07	-4.218893e-06	-1.358453e-09	-2.938854e+01	-9.367503e+01
8.300000e-07	-4.188691e-06	-1.347754e-09	-2.917816e+01	-9.326115e+01
8.400000e-07	-4.158102e-06	-1.334606e-09	-2.896507e+01	-9.284309e+01
8.500000e-07	-4.127175e-06	-1.330590e-09	-2.874964e+01	-9.242093e+01
8.600000e-07	-4.096042e-06	-1.327041e-09	-2.853276e+01	-9.199472e+01
8.700000e-07	-4.064707e-06	-1.319007e-09	-2.831449e+01	-9.156452e+01
8.800000e-07	-4.033165e-06	-1.313543e-09	-2.809477e+01	-9.113037e+01
8.900000e-07	-4.001485e-06	-1.309341e-09	-2.787409e+01	-9.069229e+01
9.000000e-07	-3.969620e-06	-1.295489e-09	-2.765212e+01	-9.025029e+01
9.100000e-07	-3.937461e-06	-1.281608e-09	-2.742810e+01	-8.980437e+01
9.200000e-07	-3.904875e-06	-1.276458e-09	-2.720111e+01	-8.935449e+01
9.300000e-07	-3.871938e-06	-1.270458e-09	-2.697168e+01	-8.890063e+01
9.400000e-07	-3.838676e-06	-1.265202e-09	-2.673997e+01	-8.844275e+01
9.500000e-07	-3.804870e-06	-1.265936e-09	-2.650448e+01	-8.798080e+01
9.600000e-07	-3.770495e-06	-1.260017e-09	-2.626503e+01	-8.751469e+01
9.700000e-07	-3.735747e-06	-1.244838e-09	-2.602298e+01	-8.704436e+01
9.800000e-07	-3.700707e-06	-1.232106e-09	-2.577889e+01	-8.656972e+01
9.900000e-07	-3.665379e-06	-1.223259e-09	-2.553280e+01	-8.609069e+01
1.000000e-06	-3.629894e-06	-1.212164e-09	-2.528561e+01	-8.560717e+01
1.010000e-06	-3.594311e-06	-1.209142e-09	-2.503774e+01	-8.511905e+01
1.020000e-06	-3.558614e-06	-1.212054e-09	-2.478908e+01	-8.462624e+01
1.030000e-06	-3.522805e-06	-1.210281e-09	-2.453964e+01	-8.412864e+01
1.040000e-06	-3.486830e-06	-1.201993e-09	-2.428904e+01	-8.362614e+01
1.050000e-06	-3.450557e-06	-1.196882e-09	-2.403636e+01	-8.311864e+01
1.060000e-06	-3.413990e-06	-1.186861e-09	-2.378164e+01	-8.260606e+01
1.070000e-06	-3.377213e-06	-1.170601e-09	-2.352545e+01	-8.208830e+01
1.080000e-06	-3.340279e-06	-1.158113e-09	-2.326817e+01	-8.156529e+01
1.090000e-06	-3.303027e-06	-1.152315e-09	-2.300868e+01	-8.103693e+01
1.100000e-06	-3.265418e-06	-1.147308e-09	-2.274669e+01	-8.050317e+01
1.110000e-06	-3.227603e-06	-1.141868e-09	-2.248328e+01	-7.996396e+01
1.120000e-06	-3.189584e-06	-1.138515e-09	-2.221844e+01	-7.941924e+01
1.130000e-06	-3.151399e-06	-1.129275e-09	-2.195244e+01	-7.886897e+01
1.140000e-06	-3.113005e-06	-1.117151e-09	-2.168500e+01	-7.831314e+01
1.150000e-06	-3.074320e-06	-1.106979e-09	-2.141551e+01	-7.775172e+01
1.160000e-06	-3.035381e-06	-1.097331e-09	-2.114427e+01	-7.718471e+01
1.170000e-06	-2.996314e-06	-1.088743e-09	-2.087213e+01	-7.661212e+01
1.180000e-06	-2.957091e-06	-1.083175e-09	-2.059891e+01	-7.603396e+01
1.190000e-06	-2.917676e-06	-1.076493e-09	-2.032434e+01	-7.545025e+01
1.200000e-06	-2.878137e-06	-1.065649e-09	-2.004892e+01	-7.486102e+01
1.210000e-06	-2.838438e-06	-1.053833e-09	-1.977238e+01	-7.426630e+01
1.220000e-06	-2.798569e-06	-1.044640e-09	-1.949465e+01	-7.366614e+01
1.230000e-06	-2.758609e-06	-1.034794e-09	-1.921630e+01	-7.306058e+01
1.240000e-06	-2.718460e-06	-1.027824e-09	-1.893662e+01	-7.244965e+01
1.250000e-06	-2.678165e-06	-1.023753e-09	-1.865593e+01	-7.183341e+01
1.260000e-06	-2.637722e-06	-1.017692e-09	-1.837420e+01	-7.121187e+01
1.270000e-06	-2.596994e-06	-1.006555e-09	-1.809049e+01	-7.058508e+01
1.280000e-06	-2.556077e-06	-9.940055e-10	-1.780547e+01	-6.995305e+01
1.290000e-06	-2.514764e-06	-9.813549e-10	-1.751769e+01	-6.931578e+01
1.300000e-06	-2.473019e-06	-9.688569e-10	-1.722689e+01	-6.867328e+01
1.310000e-06	-2.431025e-06	-9.583178e-10	-1.693437e+01	-6.802552e+01
1.320000e-06	-2.388768e-06	-9.508750e-10	-1.664000e+01	-6.737245e+01
1.330000e-06	-2.346205e-06	-9.447045e-10	-1.634352e+01	-6.671401e+01
1.340000e-06	-2.303342e-06	-9.350598e-10	-1.604493e+01	-6.605011e+01
1.350000e-06	-2.260244e-06	-9.243232e-10	-1.574471e+01	-6.538062e+01
1.360000e-06	-2.216953e-06	-9.119640e-10	-1.544316e+01	-6.470540e+01
1.370000e-06	-2.173552e-06	-8.989569e-10	-1.514082e+01	-6.402427e+01
1.380000e-06	-2.130074e-06	-8.851958e-10	-1.483796e+01	-6.333702e+01
1.390000e-06	-2.086509e-06	-8.736413e-10	-1.453449e+01	-6.264339e+01
1.400000e-06	-2.042875e-06	-8.579762e-10	-1.423053e+01	-6.194311e+01
1.410000e-06	-1.999187e-06	-8.454856e-10	-1.392621e+01	-6.123584e+01
1.420000e-06	-1.955443e-06	-8.395510e-10	-1.362149e+01	-6.052124e+01
1.430000e-06	-1.911605e-06	-8.325942e-10	-1.331612e+01	-5.979889e+01
1.440000e-06	-1.867694e-06	-8.233295e-10	-1.301024e+01	-5.906836e+01
1.450000e-06	-1.823692e-06	-8.092362e-10	-1.270372e+01	-5.832918e+01
1.460000e-06	-1.779511e-06	-7.926835e-10	-1.239596e+01	-5.758082e+01
1.470000e-06	-1.735186e-06	-7.749915e-10	-1.208719e+01	-5.682274e+01
1.480000e-06	-1.690850e-06	-7.610610e-10	-1.177835e+01	-5.605435e+01
1.490000e-06	-1.646281e-06	-7.515854e-10	-1.146789e+01	-5.527503e+01
1.500000e-06	-1.601534e-06	-7.425981e-10	-1.115618e+01	-5.448414e+01
1.510000e-06	-1.556710e-06	-7.311964e-10	-1.084394e+01	-5.368099e+01
1.520000e-06	-1.511681e-06	-7.184631e-10	-1.053027e+01	-5.286487e+01
1.530000e-06	-1.466568e-06	-7.006800e-10	-1.021602e+01	-5.203508e+01
1.540000e-06	-1.421379e-06	-6.836985e-10	-9.901238e+00	-5.119085e+01
1.550000e-06	-1.376211e-06	-6.692436e-10	-9.586601e+00	-5.033144e+01
1.560000e-06	-1.330961e-06	-6.531631e-10	-9.271390e+00	-4.945607e+01
1.570000e-06	-1.285466e-06	-6.374144e-10	-8.954474e+00	-4.856398e+01
1.580000e-06	-1.239934e-06	-6.244754e-10	-8.637301e+00	-4.765439e+01
1.590000e-06	-1.194400e-06	-6.123757e-10	-8.320111e+00	-4.672655e+01
1.600000e-06	-1.148734e-06	-5.995886e-10	-8.002008e+00	-4.577968e+01
1.610000e-06	-1.102974e-06	-5.817524e-10	-7.683249e+00	-4.481305e+01
1.620000e-06	-1.057135e-06	-5.606287e-10	-7.363934e+00	-4.382595e+01
1.630000e-06	-1.011216e-06	-5.392504e-10	-7.044064e+00	-4.281768e+01
1.640000e-06	-9.651698e-07	-5.216581e-10	-6.723311e+00	-4.178757e+01
1.650000e-06	-9.190119e-07	-5.101168e-10	-6.401778e+00	-4.073501e+01
1.660000e-06	-8.728919e-07	-4.985245e-10	-6.080509e+00	-3.965941e+01
1.670000e-06	-8.266929e-07	-4.864543e-10	-5.758690e+00	-3.856024e+01
1.680000e-06	-7.804121e-07	-4.708654e-10	-5.436301e+00	-3.743702e+01
1.690000e-06	-7.340957e-07	-4.510217e-10	-5.113664e+00	-3.628934e+01
1.700000e-06	-6.877018e-07	-4.291283e-10	-4.790487e+00	-3.511683e+01
1.710000e-06	-6.412430e-07	-4.070681e-10	-4.466858e+00	-3.391919e+01
1.720000e-06	-5.947392e-07	-3.866995e-10	-4.142916e+00	-3.269621e+01
1.730000e-06	-5.482687e-07	-3.714740e-10	-3.819205e+00	-3.144774e+01
1.740000e-06	-5.016973e-07	-3.593391e-10	-3.494791e+00	-3.017371e+01
1.750000e-06	-4.550023e-07	-3.456599e-10	-3.169517e+00	-2.887412e+01
1.760000e-06	-4.083472e-07	-3.278223e-10	-2.844520e+00	-2.754907e+01
1.770000e-06	-3.617210e-07	-3.066508e-10	-2.519725e+00	-2.619873e+01
1.780000e-06	-3.150951e-07	-2.817430e-10	-2.194933e+00	-2.482336e+01
1.790000e-06	-2.684782e-07	-2.568213e-10	-1.870202e+00	-2.342331e+01
1.800000e-06	-2.217051e-07	-2.363521e-10	-1.544384e+00	-2.199900e+01
1.810000e-06	-1.747881e-07	-2.186225e-10	-1.217563e+00	-2.055096e+01
1.820000e-06	-1.279102e-07	-2.007393e-10	-8.910140e-01	-1.907978e+01
1.830000e-06	-8.110091e-08	-1.835526e-10	-5.649437e-01	-1.758616e+01
1.840000e-06	-3.438246e-08	-1.631406e-10	-2.395061e-01	-1.607085e+01
1.850000e-06	1.223157e-08	-1.417458e-10	8.520434e-02	-1.453471e+01
1.860000e-06	5.889641e-08	-1.199774e-10	4.102686e-01	-1.297865e+01
1.870000e-06	1.056292e-07	-9.537354e-11	7.358066e-01	-1.140367e+01
1.880000e-06	1.523540e-07	-7.131664e-11	1.061288e+00	-9.810839e+00
1.890000e-06	1.990571e-07	-4.930716e-11	1.386619e+00	-8.201280e+00
1.900000e-06	2.457683e-07	-2.872370e-11	1.712006e+00	-6.576183e+00
1.910000e-06	2.924499e-07	-9.496503e-12	2.037188e+00	-4.936793e+00
1.920000e-06	3.390168e-07	1.183566e-11	2.361569e+00	-3.284405e+00
1.930000e-06	3.855267e-07	3.576493e-11	2.685554e+00	-1.620358e+00
1.940000e-06	4.320913e-07	5.965776e-11	3.009920e+00	5.396989e-02
1.950000e-06	4.786811e-07	8.417008e-11	3.334462e+00	1.737169e+00
1.960000e-06	5.252262e-07	1.079967e-10	3.658692e+00	3.427801e+00
1.970000e-06	5.716307e-07	1.293206e-10	3.981943e+00	5.124409e+00
1.980000e-06	6.179602e-07	1.503502e-10	4.304671e+00	6.825521e+00
1.990000e-06	6.643297e-07	1.724672e-10	4.627678e+00	8.529658e+00
2.000000e-06	7.105511e-07	1.933139e-10	4.949654e+00	1.023534e+01
2.010000e-06	7.566195e-07	2.181181e-10	5.270563e+00	1.194109e+01
2.020000e-06	8.027345e-07	2.428686e-10	5.591797e+00	1.364544e+01
2.030000e-06	8.489026e-07	2.687509e-10	5.913401e+00	1.534695e+01
2.040000e-06	8.950167e-07	2.962839e-10	6.234629e+00	1.704419e+01
2.050000e-06	9.411003e-07	3.204182e-10	6.555645e+00	1.873576e+01
2.060000e-06	9.870426e-07	3.421391e-10	6.875676e+00	2.042031e+01
2.070000e-06	1.032854e-06	3.626364e-10	7.194798e+00	2.209649e+01
2.080000e-06	1.078611e-06	3.846446e-10	7.513536e+00	2.376303e+01
2.090000e-06	1.124292e-06	4.086856e-10	7.831748e+00	2.541870e+01
2.100000e-06	1.169983e-06	4.357733e-10	8.150025e+00	2.706232e+01
2.110000e-06	1.215611e-06	4.630270e-10	8.467868e+00	2.869274e+01
2.120000e-06	1.261053e-06	4.877930e-10	8.784414e+00	3.030890e+01
2.130000e-06	1.306423e-06	5.090530e-10	9.100463e+00	3.190980e+01
2.140000e-06	1.351777e-06	5.271704e-10	9.416389e+00	3.349448e+01
2.150000e-06	1.397018e-06	5.458813e-10	9.731539e+00	3.506205e+01
2.160000e-06	1.442118e-06	5.647005e-10	1.004570e+01	3.661171e+01
2.170000e-06	1.487128e-06	5.856670e-10	1.035924e+01	3.814269e+01
2.180000e-06	1.532047e-06	6.106793e-10	1.067214e+01	3.965433e+01
2.190000e-06	1.576835e-06	6.359540e-10	1.098413e+01	4.114599e+01
2.200000e-06	1.621519e-06	6.596553e-10	1.129540e+01	4.261713e+01
2.210000e-06	1.666116e-06	6.801031e-10	1.160606e+01	4.406727e+01
2.220000e-06	1.710572e-06	6.968577e-10	1.191574e+01	4.549599e+01
2.230000e-06	1.754837e-06	7.117832e-10	1.222409e+01	4.690294e+01
2.240000e-06	1.798958e-06	7.281026e-10	1.253143e+01	4.828783e+01
2.250000e-06	1.842919e-06	7.471686e-10	1.283766e+01	4.965042e+01
2.260000e-06	1.886810e-06	7.681312e-10	1.314340e+01	5.099055e+01
2.270000e-06	1.930643e-06	7.888684e-10	1.344874e+01	5.230809e+01
2.280000e-06	1.974338e-06	8.084934e-10	1.375311e+01	5.360298e+01
2.290000e-06	2.017969e-06	8.261079e-10	1.405704e+01	5.487520e+01
2.300000e-06	2.061629e-06	8.417809e-10	1.436117e+01	5.612480e+01
2.310000e-06	2.105219e-06	8.561820e-10	1.466482e+01	5.735183e+01
2.320000e-06	2.148724e-06	8.704326e-10	1.496787e+01	5.855642e+01
2.330000e-06	2.192224e-06	8.867683e-10	1.527089e+01	5.973871e+01
2.340000e-06	2.235599e-06	9.038982e-10	1.557304e+01	6.089890e+01
2.350000e-06	2.278707e-06	9.183003e-10	1.587333e+01	6.203719e+01
2.360000e-06	2.321530e-06	9.301974e-10	1.617163e+01	6.315382e+01
2.370000e-06	2.364154e-06	9.419847e-10	1.646854e+01	6.424907e+01
2.380000e-06	2.406519e-06	9.548160e-10	1.676366e+01	6.532322e+01
2.390000e-06	2.448602e-06	9.704519e-10	1.705681e+01	6.637656e+01
2.400000e-06	2.490418e-06	9.869476e-10	1.734809e+01	6.740942e+01
2.410000e-06	2.531938e-06	1.002744e-09	1.763732e+01	6.842212e+01
2.420000e-06	2.573135e-06	1.016401e-09	1.792429e+01	6.941500e+01
2.430000e-06	2.613994e-06	1.030233e-09	1.820892e+01	7.038840e+01
2.440000e-06	2.654613e-06	1.043576e-09	1.849187e+01	7.134267e+01
2.450000e-06	2.694962e-06	1.053052e-09	1.877293e+01	7.227816e+01
2.460000e-06	2.735081e-06	1.062134e-09	1.905240e+01	7.319520e+01
2.470000e-06	2.775023e-06	1.073177e-09	1.933063e+01	7.409416e+01
2.480000e-06	2.814837e-06	1.085525e-09	1.960798e+01	7.497537e+01
2.490000e-06	2.854549e-06	1.097454e-09	1.988461e+01	7.583917e+01
2.500000e-06	2.894096e-06	1.109537e-09	2.016009e+01	7.668589e+01
2.510000e-06	2.933486e-06	1.122431e-09	2.043447e+01	7.751586e+01
2.520000e-06	2.972715e-06	1.132965e-09	2.070775e+01	7.832941e+01
2.530000e-06	3.011884e-06	1.140975e-09	2.098060e+01	7.912683e+01
2.540000e-06	3.050887e-06	1.148720e-09	2.125229e+01	7.990843e+01
2.550000e-06	3.089574e-06	1.157538e-09	2.152177e+01	8.067451e+01
2.560000e-06	3.128039e-06	1.166334e-09	2.178972e+01	8.142536e+01
2.570000e-06	3.166235e-06	1.174850e-09	2.205579e+01	8.216125e+01
2.580000e-06	3.204128e-06	1.185079e-09	2.231975e+01	8.288245e+01
2.590000e-06	3.241850e-06	1.197828e-09	2.258252e+01	8.358922e+01
2.600000e-06	3.279410e-06	1.210726e-09	2.284416e+01	8.428183e+01
2.610000e-06	3.316759e-06	1.221139e-09	2.310433e+01	8.496051e+01
2.620000e-06	3.353913e-06	1.229972e-09	2.336314e+01	8.562551e+01
2.630000e-06	3.390782e-06	1.238182e-09	2.361997e+01	8.627706e+01
2.640000e-06	3.427376e-06	1.244566e-09	2.387488e+01	8.691541e+01
2.650000e-06	3.463685e-06	1.251041e-09	2.412781e+01	8.754076e+01
2.660000e-06	3.499769e-06	1.260857e-09	2.437917e+01	8.815335e+01
2.670000e-06	3.535733e-06	1.273441e-09	2.462969e+01	8.875340e+01
2.680000e-06	3.571488e-06	1.285239e-09	2.487875e+01	8.934112e+01
2.690000e-06	3.607121e-06	1.295347e-09	2.512697e+01	8.991672e+01
2.700000e-06	3.642703e-06	1.302115e-09	2.537483e+01	9.048042e+01
2.710000e-06	3.678145e-06	1.305403e-09	2.562172e+01	9.103243e+01
2.720000e-06	3.713348e-06	1.310721e-09	2.586695e+01	9.157296e+01
2.730000e-06	3.748353e-06	1.316873e-09	2.611079e+01	9.210222e+01
2.740000e-06	3.783020e-06	1.326115e-09	2.635228e+01	9.262041e+01
2.750000e-06	3.817149e-06	1.333044e-09	2.659001e+01	9.312776e+01
2.760000e-06	3.850843e-06	1.341106e-09	2.682472e+01	9.362447e+01
2.770000e-06	3.884034e-06	1.346991e-09	2.705594e+01	9.411074e+01
2.780000e-06	3.916683e-06	1.350289e-09	2.728337e+01	9.458679e+01
2.790000e-06	3.948960e-06	1.356538e-09	2.750820e+01	9.505283e+01
2.800000e-06	3.980958e-06	1.364672e-09	2.773110e+01	9.550906e+01
2.810000e-06	4.012753e-06	1.374011e-09	2.795258e+01	9.595570e+01
2.820000e-06	4.044387e-06	1.380659e-09	2.817294e+01	9.639295e+01
2.830000e-06	4.075841e-06	1.384729e-09	2.839205e+01	9.682102e+01
2.840000e-06	4.107182e-06	1.389201e-09	2.861037e+01	9.724011e+01
2.850000e-06	4.138283e-06	1.393246e-09	2.882702e+01	9.765044e+01
2.860000e-06	4.168994e-06	1.395706e-09	2.904095e+01	9.805219e+01
2.870000e-06	4.199378e-06	1.401325e-09	2.925260e+01	9.844556e+01
2.880000e-06	4.229399e-06	1.407934e-09	2.946172e+01	9.883077e+01
2.890000e-06	4.259130e-06	1.413614e-09	2.966883e+01	9.920798e+01
2.900000e-06	4.288650e-06	1.415936e-09	2.987446e+01	9.957740e+01
