# Temperatura_=_-0.38
# Concentracion g/m^3_=_1620.0
# C_Vs_to_Am_M_A/Vsm_=_65563218390.804596
# pendiente_HvsI_1/m_=_3716.3
# ordenada_HvsI_A/m_=_1297.0
# frecuencia_Hz_=_135087.1183603401

Tiempo_(s)	Campo_(V.s)	Magnetizacion_(V.s)	Campo_(kA/m)	Magnetizacion_(A/m)
0.000000e+00	-5.521440e-06	-1.700343e-09	-3.837478e+01	-1.097827e+02
1.000000e-08	-5.521638e-06	-1.698977e-09	-3.837615e+01	-1.097372e+02
2.000000e-08	-5.521663e-06	-1.696358e-09	-3.837632e+01	-1.096872e+02
3.000000e-08	-5.521328e-06	-1.695912e-09	-3.837400e+01	-1.096325e+02
4.000000e-08	-5.520448e-06	-1.694367e-09	-3.836788e+01	-1.095731e+02
5.000000e-08	-5.519096e-06	-1.690898e-09	-3.835848e+01	-1.095092e+02
6.000000e-08	-5.517247e-06	-1.688364e-09	-3.834563e+01	-1.094407e+02
7.000000e-08	-5.514860e-06	-1.692979e-09	-3.832904e+01	-1.093677e+02
8.000000e-08	-5.511869e-06	-1.714201e-09	-3.830825e+01	-1.092902e+02
9.000000e-08	-5.508276e-06	-1.693098e-09	-3.828329e+01	-1.092084e+02
1.000000e-07	-5.504254e-06	-1.641235e-09	-3.825533e+01	-1.091223e+02
1.100000e-07	-5.499932e-06	-1.687591e-09	-3.822529e+01	-1.090320e+02
1.200000e-07	-5.495362e-06	-1.724434e-09	-3.819353e+01	-1.089376e+02
1.300000e-07	-5.490563e-06	-1.705509e-09	-3.816018e+01	-1.088393e+02
1.400000e-07	-5.485390e-06	-1.619436e-09	-3.812422e+01	-1.087372e+02
1.500000e-07	-5.479840e-06	-1.636185e-09	-3.808565e+01	-1.086314e+02
1.600000e-07	-5.473933e-06	-1.732560e-09	-3.804459e+01	-1.085222e+02
1.700000e-07	-5.467627e-06	-1.712244e-09	-3.800077e+01	-1.084096e+02
1.800000e-07	-5.460888e-06	-1.664824e-09	-3.795393e+01	-1.082938e+02
1.900000e-07	-5.453695e-06	-1.626926e-09	-3.790394e+01	-1.081749e+02
2.000000e-07	-5.446194e-06	-1.677739e-09	-3.785181e+01	-1.080532e+02
2.100000e-07	-5.438430e-06	-1.649505e-09	-3.779784e+01	-1.079287e+02
2.200000e-07	-5.430476e-06	-1.644758e-09	-3.774256e+01	-1.078017e+02
2.300000e-07	-5.422327e-06	-1.614539e-09	-3.768592e+01	-1.076722e+02
2.400000e-07	-5.413743e-06	-1.644104e-09	-3.762626e+01	-1.075404e+02
2.500000e-07	-5.404515e-06	-1.612859e-09	-3.756213e+01	-1.074064e+02
2.600000e-07	-5.394573e-06	-1.599758e-09	-3.749303e+01	-1.072704e+02
2.700000e-07	-5.384001e-06	-1.576628e-09	-3.741956e+01	-1.071324e+02
2.800000e-07	-5.372904e-06	-1.582667e-09	-3.734243e+01	-1.069925e+02
2.900000e-07	-5.361395e-06	-1.587033e-09	-3.726244e+01	-1.068508e+02
3.000000e-07	-5.349536e-06	-1.578636e-09	-3.718002e+01	-1.067074e+02
3.100000e-07	-5.337237e-06	-1.575766e-09	-3.709454e+01	-1.065623e+02
3.200000e-07	-5.324551e-06	-1.574156e-09	-3.700637e+01	-1.064154e+02
3.300000e-07	-5.311482e-06	-1.591760e-09	-3.691553e+01	-1.062668e+02
3.400000e-07	-5.298030e-06	-1.552037e-09	-3.682204e+01	-1.061166e+02
3.500000e-07	-5.284218e-06	-1.543232e-09	-3.672605e+01	-1.059646e+02
3.600000e-07	-5.270063e-06	-1.556185e-09	-3.662767e+01	-1.058107e+02
3.700000e-07	-5.255518e-06	-1.567489e-09	-3.652658e+01	-1.056550e+02
3.800000e-07	-5.240281e-06	-1.528888e-09	-3.642068e+01	-1.054973e+02
3.900000e-07	-5.224331e-06	-1.566068e-09	-3.630982e+01	-1.053374e+02
4.000000e-07	-5.208016e-06	-1.572192e-09	-3.619643e+01	-1.051754e+02
4.100000e-07	-5.191401e-06	-1.528630e-09	-3.608096e+01	-1.050110e+02
4.200000e-07	-5.174304e-06	-1.522521e-09	-3.596213e+01	-1.048440e+02
4.300000e-07	-5.156910e-06	-1.594267e-09	-3.584124e+01	-1.046744e+02
4.400000e-07	-5.139344e-06	-1.539411e-09	-3.571916e+01	-1.045018e+02
4.500000e-07	-5.121362e-06	-1.494012e-09	-3.559418e+01	-1.043262e+02
4.600000e-07	-5.102969e-06	-1.548262e-09	-3.546635e+01	-1.041473e+02
4.700000e-07	-5.084170e-06	-1.572950e-09	-3.533569e+01	-1.039650e+02
4.800000e-07	-5.064933e-06	-1.483298e-09	-3.520199e+01	-1.037789e+02
4.900000e-07	-5.045414e-06	-1.520128e-09	-3.506632e+01	-1.035890e+02
5.000000e-07	-5.025746e-06	-1.570475e-09	-3.492963e+01	-1.033949e+02
5.100000e-07	-5.005862e-06	-1.506643e-09	-3.479143e+01	-1.031965e+02
5.200000e-07	-4.985701e-06	-1.478979e-09	-3.465131e+01	-1.029936e+02
5.300000e-07	-4.965235e-06	-1.558495e-09	-3.450907e+01	-1.027859e+02
5.400000e-07	-4.944350e-06	-1.519815e-09	-3.436392e+01	-1.025733e+02
5.500000e-07	-4.923099e-06	-1.462930e-09	-3.421622e+01	-1.023556e+02
5.600000e-07	-4.901529e-06	-1.522665e-09	-3.406631e+01	-1.021326e+02
5.700000e-07	-4.879710e-06	-1.538194e-09	-3.391466e+01	-1.019041e+02
5.800000e-07	-4.857451e-06	-1.466816e-09	-3.375996e+01	-1.016700e+02
5.900000e-07	-4.834854e-06	-1.488017e-09	-3.360290e+01	-1.014302e+02
6.000000e-07	-4.812019e-06	-1.526668e-09	-3.344420e+01	-1.011845e+02
6.100000e-07	-4.788744e-06	-1.471953e-09	-3.328243e+01	-1.009329e+02
6.200000e-07	-4.765202e-06	-1.464803e-09	-3.311881e+01	-1.006752e+02
6.300000e-07	-4.741506e-06	-1.505343e-09	-3.295413e+01	-1.004113e+02
6.400000e-07	-4.717585e-06	-1.485009e-09	-3.278787e+01	-1.001413e+02
6.500000e-07	-4.693298e-06	-1.455919e-09	-3.261907e+01	-9.986508e+01
6.600000e-07	-4.668669e-06	-1.487848e-09	-3.244790e+01	-9.958262e+01
6.700000e-07	-4.643622e-06	-1.471624e-09	-3.227382e+01	-9.929391e+01
6.800000e-07	-4.617871e-06	-1.441771e-09	-3.209485e+01	-9.899897e+01
6.900000e-07	-4.591557e-06	-1.448604e-09	-3.191196e+01	-9.869783e+01
7.000000e-07	-4.564823e-06	-1.461472e-09	-3.172616e+01	-9.839052e+01
7.100000e-07	-4.537617e-06	-1.433747e-09	-3.153707e+01	-9.807711e+01
7.200000e-07	-4.510155e-06	-1.438124e-09	-3.134620e+01	-9.775766e+01
7.300000e-07	-4.482576e-06	-1.443549e-09	-3.115453e+01	-9.743225e+01
7.400000e-07	-4.454777e-06	-1.433880e-09	-3.096132e+01	-9.710096e+01
7.500000e-07	-4.426716e-06	-1.417047e-09	-3.076629e+01	-9.676388e+01
7.600000e-07	-4.398463e-06	-1.423015e-09	-3.056993e+01	-9.642111e+01
7.700000e-07	-4.369934e-06	-1.409611e-09	-3.037164e+01	-9.607275e+01
7.800000e-07	-4.341005e-06	-1.399903e-09	-3.017059e+01	-9.571891e+01
7.900000e-07	-4.311793e-06	-1.397159e-09	-2.996756e+01	-9.535969e+01
8.000000e-07	-4.282289e-06	-1.394137e-09	-2.976250e+01	-9.499520e+01
8.100000e-07	-4.252399e-06	-1.376307e-09	-2.955476e+01	-9.462554e+01
8.200000e-07	-4.222182e-06	-1.374269e-09	-2.934475e+01	-9.425079e+01
8.300000e-07	-4.191707e-06	-1.369713e-09	-2.913294e+01	-9.387106e+01
8.400000e-07	-4.160941e-06	-1.354544e-09	-2.891911e+01	-9.348643e+01
8.500000e-07	-4.129946e-06	-1.346223e-09	-2.870369e+01	-9.309697e+01
8.600000e-07	-4.098842e-06	-1.349334e-09	-2.848752e+01	-9.270275e+01
8.700000e-07	-4.067531e-06	-1.341302e-09	-2.826991e+01	-9.230382e+01
8.800000e-07	-4.035966e-06	-1.330740e-09	-2.805052e+01	-9.190023e+01
8.900000e-07	-4.004232e-06	-1.329957e-09	-2.782997e+01	-9.149200e+01
9.000000e-07	-3.972337e-06	-1.317509e-09	-2.760829e+01	-9.107916e+01
9.100000e-07	-3.940157e-06	-1.303119e-09	-2.738464e+01	-9.066172e+01
9.200000e-07	-3.907615e-06	-1.301412e-09	-2.715847e+01	-9.023967e+01
9.300000e-07	-3.874699e-06	-1.300448e-09	-2.692969e+01	-8.981298e+01
9.400000e-07	-3.841309e-06	-1.286844e-09	-2.669763e+01	-8.938163e+01
9.500000e-07	-3.807359e-06	-1.283818e-09	-2.646167e+01	-8.894557e+01
9.600000e-07	-3.773001e-06	-1.280929e-09	-2.622288e+01	-8.850475e+01
9.700000e-07	-3.738239e-06	-1.268288e-09	-2.598128e+01	-8.805911e+01
9.800000e-07	-3.703112e-06	-1.252644e-09	-2.573714e+01	-8.760856e+01
9.900000e-07	-3.667784e-06	-1.253398e-09	-2.549161e+01	-8.715303e+01
1.000000e-06	-3.632270e-06	-1.245226e-09	-2.524478e+01	-8.669243e+01
1.010000e-06	-3.596580e-06	-1.238642e-09	-2.499673e+01	-8.622664e+01
1.020000e-06	-3.560756e-06	-1.238576e-09	-2.474775e+01	-8.575559e+01
1.030000e-06	-3.524760e-06	-1.237761e-09	-2.449757e+01	-8.527914e+01
1.040000e-06	-3.488568e-06	-1.221337e-09	-2.424603e+01	-8.479721e+01
1.050000e-06	-3.452113e-06	-1.214574e-09	-2.399266e+01	-8.430968e+01
1.060000e-06	-3.415350e-06	-1.208969e-09	-2.373716e+01	-8.381644e+01
1.070000e-06	-3.378370e-06	-1.197557e-09	-2.348014e+01	-8.331738e+01
1.080000e-06	-3.341092e-06	-1.186201e-09	-2.322105e+01	-8.281240e+01
1.090000e-06	-3.303521e-06	-1.185747e-09	-2.295993e+01	-8.230141e+01
1.100000e-06	-3.265779e-06	-1.177696e-09	-2.269762e+01	-8.178431e+01
1.110000e-06	-3.227853e-06	-1.166694e-09	-2.243402e+01	-8.126100e+01
1.120000e-06	-3.189686e-06	-1.160428e-09	-2.216876e+01	-8.073143e+01
1.130000e-06	-3.151390e-06	-1.155740e-09	-2.190260e+01	-8.019550e+01
1.140000e-06	-3.112949e-06	-1.143696e-09	-2.163543e+01	-7.965316e+01
1.150000e-06	-3.074192e-06	-1.132967e-09	-2.136606e+01	-7.910436e+01
1.160000e-06	-3.035185e-06	-1.127726e-09	-2.109495e+01	-7.854905e+01
1.170000e-06	-2.996031e-06	-1.118626e-09	-2.082283e+01	-7.798719e+01
1.180000e-06	-2.956698e-06	-1.107234e-09	-2.054946e+01	-7.741875e+01
1.190000e-06	-2.917204e-06	-1.099976e-09	-2.027498e+01	-7.684372e+01
1.200000e-06	-2.877602e-06	-1.091930e-09	-1.999974e+01	-7.626208e+01
1.210000e-06	-2.837846e-06	-1.080927e-09	-1.972342e+01	-7.567382e+01
1.220000e-06	-2.797926e-06	-1.074928e-09	-1.944597e+01	-7.507893e+01
1.230000e-06	-2.757818e-06	-1.065692e-09	-1.916722e+01	-7.447743e+01
1.240000e-06	-2.717516e-06	-1.053082e-09	-1.888711e+01	-7.386931e+01
1.250000e-06	-2.677027e-06	-1.043355e-09	-1.860571e+01	-7.325457e+01
1.260000e-06	-2.636372e-06	-1.038294e-09	-1.832315e+01	-7.263321e+01
1.270000e-06	-2.595435e-06	-1.026952e-09	-1.803863e+01	-7.200523e+01
1.280000e-06	-2.554092e-06	-1.016632e-09	-1.775129e+01	-7.137061e+01
1.290000e-06	-2.512446e-06	-1.007202e-09	-1.746185e+01	-7.072935e+01
1.300000e-06	-2.470485e-06	-9.976958e-10	-1.717021e+01	-7.008140e+01
1.310000e-06	-2.428236e-06	-9.844918e-10	-1.687657e+01	-6.942672e+01
1.320000e-06	-2.385812e-06	-9.737588e-10	-1.658172e+01	-6.876526e+01
1.330000e-06	-2.343181e-06	-9.608699e-10	-1.628543e+01	-6.809693e+01
1.340000e-06	-2.300246e-06	-9.475617e-10	-1.598703e+01	-6.742164e+01
1.350000e-06	-2.257052e-06	-9.374267e-10	-1.568682e+01	-6.673927e+01
1.360000e-06	-2.213699e-06	-9.286328e-10	-1.538552e+01	-6.604967e+01
1.370000e-06	-2.170229e-06	-9.161411e-10	-1.508339e+01	-6.535267e+01
1.380000e-06	-2.126636e-06	-9.042220e-10	-1.478041e+01	-6.464807e+01
1.390000e-06	-2.082957e-06	-8.910597e-10	-1.447684e+01	-6.393564e+01
1.400000e-06	-2.039240e-06	-8.779162e-10	-1.417300e+01	-6.321512e+01
1.410000e-06	-1.995419e-06	-8.634909e-10	-1.386844e+01	-6.248621e+01
1.420000e-06	-1.951487e-06	-8.508875e-10	-1.356310e+01	-6.174859e+01
1.430000e-06	-1.907463e-06	-8.398232e-10	-1.325713e+01	-6.100190e+01
1.440000e-06	-1.863361e-06	-8.275896e-10	-1.295062e+01	-6.024574e+01
1.450000e-06	-1.819269e-06	-8.153476e-10	-1.264417e+01	-5.947969e+01
1.460000e-06	-1.775043e-06	-8.055353e-10	-1.233679e+01	-5.870329e+01
1.470000e-06	-1.730553e-06	-7.931522e-10	-1.202758e+01	-5.791605e+01
1.480000e-06	-1.685914e-06	-7.782769e-10	-1.171734e+01	-5.711744e+01
1.490000e-06	-1.641238e-06	-7.648658e-10	-1.140683e+01	-5.630691e+01
1.500000e-06	-1.596510e-06	-7.531505e-10	-1.109597e+01	-5.548388e+01
1.510000e-06	-1.551624e-06	-7.427462e-10	-1.078400e+01	-5.464777e+01
1.520000e-06	-1.506522e-06	-7.310686e-10	-1.047054e+01	-5.379793e+01
1.530000e-06	-1.461228e-06	-7.175855e-10	-1.015574e+01	-5.293373e+01
1.540000e-06	-1.415914e-06	-7.035798e-10	-9.840802e+00	-5.205451e+01
1.550000e-06	-1.370531e-06	-6.895989e-10	-9.525378e+00	-5.115961e+01
1.560000e-06	-1.325020e-06	-6.726516e-10	-9.209073e+00	-5.024834e+01
1.570000e-06	-1.279519e-06	-6.582627e-10	-8.892837e+00	-4.932003e+01
1.580000e-06	-1.233922e-06	-6.446986e-10	-8.575926e+00	-4.837401e+01
1.590000e-06	-1.188186e-06	-6.288823e-10	-8.258057e+00	-4.740959e+01
1.600000e-06	-1.142390e-06	-6.131443e-10	-7.939770e+00	-4.642613e+01
1.610000e-06	-1.096527e-06	-6.008825e-10	-7.621015e+00	-4.542297e+01
1.620000e-06	-1.050524e-06	-5.853382e-10	-7.301287e+00	-4.439949e+01
1.630000e-06	-1.004405e-06	-5.686790e-10	-6.980752e+00	-4.335510e+01
1.640000e-06	-9.583440e-07	-5.529456e-10	-6.660624e+00	-4.228922e+01
1.650000e-06	-9.122757e-07	-5.372176e-10	-6.340443e+00	-4.120133e+01
1.660000e-06	-8.660182e-07	-5.193796e-10	-6.018947e+00	-4.009092e+01
1.670000e-06	-8.196753e-07	-5.006796e-10	-5.696857e+00	-3.895757e+01
1.680000e-06	-7.733092e-07	-4.839885e-10	-5.374606e+00	-3.780087e+01
1.690000e-06	-7.268934e-07	-4.671576e-10	-5.052010e+00	-3.662047e+01
1.700000e-06	-6.804515e-07	-4.475968e-10	-4.729232e+00	-3.541611e+01
1.710000e-06	-6.339333e-07	-4.276841e-10	-4.405925e+00	-3.418755e+01
1.720000e-06	-5.873974e-07	-4.081987e-10	-4.082493e+00	-3.293463e+01
1.730000e-06	-5.408157e-07	-3.910050e-10	-3.758744e+00	-3.165728e+01
1.740000e-06	-4.941551e-07	-3.729568e-10	-3.434447e+00	-3.035548e+01
1.750000e-06	-4.474584e-07	-3.528948e-10	-3.109898e+00	-2.902928e+01
1.760000e-06	-4.006741e-07	-3.319569e-10	-2.784741e+00	-2.767882e+01
1.770000e-06	-3.538185e-07	-3.109407e-10	-2.459088e+00	-2.630431e+01
1.780000e-06	-3.069198e-07	-2.891291e-10	-2.133135e+00	-2.490604e+01
1.790000e-06	-2.599990e-07	-2.683987e-10	-1.807029e+00	-2.348438e+01
1.800000e-06	-2.131306e-07	-2.516574e-10	-1.481287e+00	-2.203977e+01
1.810000e-06	-1.663555e-07	-2.352434e-10	-1.156194e+00	-2.057274e+01
1.820000e-06	-1.196230e-07	-2.154135e-10	-8.313967e-01	-1.908390e+01
1.830000e-06	-7.289723e-08	-1.931221e-10	-5.066459e-01	-1.757391e+01
1.840000e-06	-2.614095e-08	-1.724091e-10	-1.816832e-01	-1.604354e+01
1.850000e-06	2.066983e-08	-1.511467e-10	1.436582e-01	-1.449360e+01
1.860000e-06	6.741626e-08	-1.309055e-10	4.685524e-01	-1.292500e+01
1.870000e-06	1.141519e-07	-1.091701e-10	7.933714e-01	-1.133868e+01
1.880000e-06	1.610170e-07	-8.758379e-11	1.119090e+00	-9.735670e+00
1.890000e-06	2.078074e-07	-6.705074e-11	1.444290e+00	-8.117047e+00
1.900000e-06	2.544978e-07	-4.673593e-11	1.768795e+00	-6.483944e+00
1.910000e-06	3.012715e-07	-2.546938e-11	2.093879e+00	-4.837542e+00
1.920000e-06	3.480975e-07	-1.738555e-12	2.419326e+00	-3.179069e+00
1.930000e-06	3.948440e-07	2.380527e-11	2.744220e+00	-1.509789e+00
1.940000e-06	4.414943e-07	4.950260e-11	3.068446e+00	1.689964e-01
1.950000e-06	4.881286e-07	7.226966e-11	3.392562e+00	1.855960e+00
1.960000e-06	5.347371e-07	9.465027e-11	3.716497e+00	3.549750e+00
1.970000e-06	5.813229e-07	1.162990e-10	4.040275e+00	5.248998e+00
1.980000e-06	6.278537e-07	1.369947e-10	4.363670e+00	6.952321e+00
1.990000e-06	6.743557e-07	1.582052e-10	4.686865e+00	8.658333e+00
2.000000e-06	7.208031e-07	1.784194e-10	5.009681e+00	1.036565e+01
2.010000e-06	7.670745e-07	2.046967e-10	5.331274e+00	1.207288e+01
2.020000e-06	8.133351e-07	2.310857e-10	5.652792e+00	1.377865e+01
2.030000e-06	8.596831e-07	2.566588e-10	5.974917e+00	1.548161e+01
2.040000e-06	9.059016e-07	2.831786e-10	6.296142e+00	1.718042e+01
2.050000e-06	9.519996e-07	3.077543e-10	6.616529e+00	1.887376e+01
2.060000e-06	9.980666e-07	3.302726e-10	6.936701e+00	2.056036e+01
2.070000e-06	1.044032e-06	3.504532e-10	7.256169e+00	2.223895e+01
2.080000e-06	1.089925e-06	3.712716e-10	7.575129e+00	2.390834e+01
2.090000e-06	1.135772e-06	3.941044e-10	7.893770e+00	2.556734e+01
2.100000e-06	1.181482e-06	4.215741e-10	8.211464e+00	2.721483e+01
2.110000e-06	1.227122e-06	4.501171e-10	8.528667e+00	2.884974e+01
2.120000e-06	1.272706e-06	4.761565e-10	8.845484e+00	3.047102e+01
2.130000e-06	1.318119e-06	4.979543e-10	9.161113e+00	3.207771e+01
2.140000e-06	1.363423e-06	5.170603e-10	9.475981e+00	3.366888e+01
2.150000e-06	1.408679e-06	5.348074e-10	9.790514e+00	3.524366e+01
2.160000e-06	1.453727e-06	5.520022e-10	1.010360e+01	3.680123e+01
2.170000e-06	1.498674e-06	5.721460e-10	1.041600e+01	3.834085e+01
2.180000e-06	1.543649e-06	5.975236e-10	1.072858e+01	3.986180e+01
2.190000e-06	1.588443e-06	6.218000e-10	1.103990e+01	4.136346e+01
2.200000e-06	1.633082e-06	6.469302e-10	1.135014e+01	4.284523e+01
2.210000e-06	1.677628e-06	6.658253e-10	1.165975e+01	4.430658e+01
2.220000e-06	1.722096e-06	6.783562e-10	1.196881e+01	4.574705e+01
2.230000e-06	1.766418e-06	6.912602e-10	1.227685e+01	4.716622e+01
2.240000e-06	1.810650e-06	7.078577e-10	1.258427e+01	4.856371e+01
2.250000e-06	1.854824e-06	7.287895e-10	1.289128e+01	4.993923e+01
2.260000e-06	1.898801e-06	7.513785e-10	1.319693e+01	5.129249e+01
2.270000e-06	1.942734e-06	7.750940e-10	1.350227e+01	5.262329e+01
2.280000e-06	1.986609e-06	7.934784e-10	1.380721e+01	5.393145e+01
2.290000e-06	2.030385e-06	8.068046e-10	1.411146e+01	5.521685e+01
2.300000e-06	2.074141e-06	8.190313e-10	1.441557e+01	5.647941e+01
2.310000e-06	2.117834e-06	8.324192e-10	1.471924e+01	5.771907e+01
2.320000e-06	2.161446e-06	8.477064e-10	1.502235e+01	5.893583e+01
2.330000e-06	2.204924e-06	8.662819e-10	1.532452e+01	6.012971e+01
2.340000e-06	2.248310e-06	8.854046e-10	1.562607e+01	6.130078e+01
2.350000e-06	2.291549e-06	9.007557e-10	1.592658e+01	6.244912e+01
2.360000e-06	2.334626e-06	9.142601e-10	1.622598e+01	6.357484e+01
2.370000e-06	2.377463e-06	9.285629e-10	1.652370e+01	6.467809e+01
2.380000e-06	2.419939e-06	9.407779e-10	1.681891e+01	6.575903e+01
2.390000e-06	2.462155e-06	9.553821e-10	1.711232e+01	6.681786e+01
2.400000e-06	2.504083e-06	9.696775e-10	1.740373e+01	6.785477e+01
2.410000e-06	2.545763e-06	9.832396e-10	1.769341e+01	6.887000e+01
2.420000e-06	2.587173e-06	9.963700e-10	1.798121e+01	6.986379e+01
2.430000e-06	2.628151e-06	1.009971e-09	1.826601e+01	7.083639e+01
2.440000e-06	2.668748e-06	1.023692e-09	1.854817e+01	7.178808e+01
2.450000e-06	2.709139e-06	1.035265e-09	1.882889e+01	7.271914e+01
2.460000e-06	2.749356e-06	1.046249e-09	1.910840e+01	7.362987e+01
2.470000e-06	2.789383e-06	1.057215e-09	1.938660e+01	7.452057e+01
2.480000e-06	2.829253e-06	1.067530e-09	1.966370e+01	7.539156e+01
2.490000e-06	2.869026e-06	1.078125e-09	1.994013e+01	7.624316e+01
2.500000e-06	2.908652e-06	1.091552e-09	2.021553e+01	7.707571e+01
2.510000e-06	2.948094e-06	1.105586e-09	2.048966e+01	7.788955e+01
2.520000e-06	2.987384e-06	1.117932e-09	2.076273e+01	7.868502e+01
2.530000e-06	3.026438e-06	1.129403e-09	2.103416e+01	7.946248e+01
2.540000e-06	3.065363e-06	1.139712e-09	2.130470e+01	8.022229e+01
2.550000e-06	3.104103e-06	1.147914e-09	2.157394e+01	8.096481e+01
2.560000e-06	3.142530e-06	1.156173e-09	2.184102e+01	8.169042e+01
2.570000e-06	3.180720e-06	1.166202e-09	2.210644e+01	8.239948e+01
2.580000e-06	3.218726e-06	1.177536e-09	2.237060e+01	8.309239e+01
2.590000e-06	3.256573e-06	1.191979e-09	2.263363e+01	8.376952e+01
2.600000e-06	3.294186e-06	1.204200e-09	2.289505e+01	8.443126e+01
2.610000e-06	3.331542e-06	1.210025e-09	2.315468e+01	8.507801e+01
2.620000e-06	3.368720e-06	1.213923e-09	2.341307e+01	8.571015e+01
2.630000e-06	3.405718e-06	1.219602e-09	2.367021e+01	8.632809e+01
2.640000e-06	3.442446e-06	1.227906e-09	2.392548e+01	8.693221e+01
2.650000e-06	3.478926e-06	1.239527e-09	2.417902e+01	8.752293e+01
2.660000e-06	3.515197e-06	1.256688e-09	2.443111e+01	8.810063e+01
2.670000e-06	3.551249e-06	1.270195e-09	2.468167e+01	8.866572e+01
2.680000e-06	3.587090e-06	1.278944e-09	2.493077e+01	8.921858e+01
2.690000e-06	3.622759e-06	1.282756e-09	2.517868e+01	8.975962e+01
2.700000e-06	3.658343e-06	1.285685e-09	2.542599e+01	9.028922e+01
2.710000e-06	3.693810e-06	1.290372e-09	2.567249e+01	9.080777e+01
2.720000e-06	3.729051e-06	1.299005e-09	2.591743e+01	9.131565e+01
2.730000e-06	3.764053e-06	1.310150e-09	2.616069e+01	9.181323e+01
2.740000e-06	3.798659e-06	1.321512e-09	2.640121e+01	9.230088e+01
2.750000e-06	3.832695e-06	1.332142e-09	2.663776e+01	9.277895e+01
2.760000e-06	3.866317e-06	1.338883e-09	2.687144e+01	9.324779e+01
2.770000e-06	3.899544e-06	1.341319e-09	2.710237e+01	9.370773e+01
2.780000e-06	3.932245e-06	1.343361e-09	2.732965e+01	9.415909e+01
2.790000e-06	3.964560e-06	1.347457e-09	2.755424e+01	9.460219e+01
2.800000e-06	3.996621e-06	1.353190e-09	2.777707e+01	9.503732e+01
2.810000e-06	4.028490e-06	1.361821e-09	2.799856e+01	9.546475e+01
2.820000e-06	4.060232e-06	1.372964e-09	2.821918e+01	9.588474e+01
2.830000e-06	4.091810e-06	1.381802e-09	2.843865e+01	9.629754e+01
2.840000e-06	4.123120e-06	1.387422e-09	2.865625e+01	9.670338e+01
2.850000e-06	4.154195e-06	1.389435e-09	2.887223e+01	9.710246e+01
2.860000e-06	4.184978e-06	1.390233e-09	2.908618e+01	9.749497e+01
2.870000e-06	4.215423e-06	1.391775e-09	2.929778e+01	9.788107e+01
2.880000e-06	4.245597e-06	1.393171e-09	2.950749e+01	9.826092e+01
2.890000e-06	4.275384e-06	1.398957e-09	2.971451e+01	9.863464e+01
2.900000e-06	4.304952e-06	1.406216e-09	2.992001e+01	9.900235e+01
