# Temperatura_=_9.7
# Concentracion g/m^3_=_1620.0
# C_Vs_to_Am_M_A/Vsm_=_65563218390.804596
# pendiente_HvsI_1/m_=_3716.3
# ordenada_HvsI_A/m_=_1297.0
# frecuencia_Hz_=_135108.445308313

Tiempo_(s)	Campo_(V.s)	Magnetizacion_(V.s)	Campo_(kA/m)	Magnetizacion_(A/m)
0.000000e+00	-5.511677e-06	-1.228595e-09	-3.835939e+01	-7.849653e+01
1.000000e-08	-5.511884e-06	-1.227932e-09	-3.836084e+01	-7.849270e+01
2.000000e-08	-5.511922e-06	-1.225977e-09	-3.836110e+01	-7.848741e+01
3.000000e-08	-5.511679e-06	-1.223300e-09	-3.835941e+01	-7.848056e+01
4.000000e-08	-5.510986e-06	-1.219536e-09	-3.835458e+01	-7.847206e+01
5.000000e-08	-5.509780e-06	-1.215663e-09	-3.834619e+01	-7.846179e+01
6.000000e-08	-5.507919e-06	-1.216322e-09	-3.833324e+01	-7.844964e+01
7.000000e-08	-5.505359e-06	-1.222570e-09	-3.831542e+01	-7.843548e+01
8.000000e-08	-5.502247e-06	-1.208429e-09	-3.829376e+01	-7.841918e+01
9.000000e-08	-5.498694e-06	-1.168623e-09	-3.826904e+01	-7.840060e+01
1.000000e-07	-5.494740e-06	-1.208518e-09	-3.824152e+01	-7.837961e+01
1.100000e-07	-5.490501e-06	-1.304219e-09	-3.821202e+01	-7.835605e+01
1.200000e-07	-5.485946e-06	-1.268252e-09	-3.818031e+01	-7.832980e+01
1.300000e-07	-5.481129e-06	-1.142925e-09	-3.814679e+01	-7.830069e+01
1.400000e-07	-5.476079e-06	-1.157183e-09	-3.811165e+01	-7.826860e+01
1.500000e-07	-5.470597e-06	-1.251085e-09	-3.807349e+01	-7.823339e+01
1.600000e-07	-5.464657e-06	-1.258974e-09	-3.803215e+01	-7.819491e+01
1.700000e-07	-5.458432e-06	-1.122978e-09	-3.798883e+01	-7.815304e+01
1.800000e-07	-5.451875e-06	-1.146999e-09	-3.794319e+01	-7.810765e+01
1.900000e-07	-5.444736e-06	-1.247539e-09	-3.789351e+01	-7.805862e+01
2.000000e-07	-5.437192e-06	-1.259145e-09	-3.784101e+01	-7.800585e+01
2.100000e-07	-5.429551e-06	-1.163728e-09	-3.778782e+01	-7.794922e+01
2.200000e-07	-5.421757e-06	-1.149642e-09	-3.773358e+01	-7.788865e+01
2.300000e-07	-5.413611e-06	-1.205553e-09	-3.767689e+01	-7.782405e+01
2.400000e-07	-5.405116e-06	-1.209520e-09	-3.761777e+01	-7.775535e+01
2.500000e-07	-5.396178e-06	-1.161998e-09	-3.755556e+01	-7.768248e+01
2.600000e-07	-5.386383e-06	-1.144794e-09	-3.748739e+01	-7.760538e+01
2.700000e-07	-5.375770e-06	-1.187013e-09	-3.741353e+01	-7.752402e+01
2.800000e-07	-5.364739e-06	-1.179738e-09	-3.733675e+01	-7.743836e+01
2.900000e-07	-5.353315e-06	-1.152208e-09	-3.725725e+01	-7.734838e+01
3.000000e-07	-5.341450e-06	-1.137912e-09	-3.717467e+01	-7.725407e+01
3.100000e-07	-5.329186e-06	-1.178029e-09	-3.708932e+01	-7.715542e+01
3.200000e-07	-5.316534e-06	-1.164009e-09	-3.700126e+01	-7.705244e+01
3.300000e-07	-5.303468e-06	-1.137506e-09	-3.691033e+01	-7.694514e+01
3.400000e-07	-5.289974e-06	-1.115603e-09	-3.681641e+01	-7.683356e+01
3.500000e-07	-5.276184e-06	-1.160459e-09	-3.672044e+01	-7.671771e+01
3.600000e-07	-5.262010e-06	-1.148026e-09	-3.662180e+01	-7.659765e+01
3.700000e-07	-5.247296e-06	-1.119759e-09	-3.651939e+01	-7.647342e+01
3.800000e-07	-5.232176e-06	-1.130570e-09	-3.641416e+01	-7.634506e+01
3.900000e-07	-5.216535e-06	-1.179424e-09	-3.630531e+01	-7.621263e+01
4.000000e-07	-5.200189e-06	-1.123427e-09	-3.619154e+01	-7.607620e+01
4.100000e-07	-5.183366e-06	-1.102049e-09	-3.607446e+01	-7.593581e+01
4.200000e-07	-5.166349e-06	-1.172841e-09	-3.595603e+01	-7.579154e+01
4.300000e-07	-5.149088e-06	-1.170211e-09	-3.583590e+01	-7.564344e+01
4.400000e-07	-5.131422e-06	-1.078555e-09	-3.571295e+01	-7.549159e+01
4.500000e-07	-5.113441e-06	-1.123251e-09	-3.558781e+01	-7.533604e+01
4.600000e-07	-5.095189e-06	-1.195657e-09	-3.546078e+01	-7.517686e+01
4.700000e-07	-5.076484e-06	-1.107462e-09	-3.533060e+01	-7.501411e+01
4.800000e-07	-5.057320e-06	-1.070659e-09	-3.519723e+01	-7.484783e+01
4.900000e-07	-5.037896e-06	-1.159174e-09	-3.506204e+01	-7.467809e+01
5.000000e-07	-5.018266e-06	-1.137552e-09	-3.492542e+01	-7.450493e+01
5.100000e-07	-4.998385e-06	-1.060194e-09	-3.478706e+01	-7.432839e+01
5.200000e-07	-4.978254e-06	-1.131929e-09	-3.464695e+01	-7.414852e+01
5.300000e-07	-4.957751e-06	-1.147325e-09	-3.450426e+01	-7.396534e+01
5.400000e-07	-4.936839e-06	-1.057547e-09	-3.435872e+01	-7.377889e+01
5.500000e-07	-4.915666e-06	-1.089181e-09	-3.421136e+01	-7.358917e+01
5.600000e-07	-4.894128e-06	-1.162603e-09	-3.406146e+01	-7.339621e+01
5.700000e-07	-4.872129e-06	-1.077288e-09	-3.390836e+01	-7.320002e+01
5.800000e-07	-4.849888e-06	-1.055185e-09	-3.375357e+01	-7.300059e+01
5.900000e-07	-4.827433e-06	-1.126308e-09	-3.359729e+01	-7.279792e+01
6.000000e-07	-4.804528e-06	-1.095689e-09	-3.343788e+01	-7.259200e+01
6.100000e-07	-4.781272e-06	-1.041589e-09	-3.327602e+01	-7.238281e+01
6.200000e-07	-4.757823e-06	-1.105652e-09	-3.311282e+01	-7.217034e+01
6.300000e-07	-4.734104e-06	-1.106212e-09	-3.294775e+01	-7.195455e+01
6.400000e-07	-4.710139e-06	-1.054408e-09	-3.278096e+01	-7.173541e+01
6.500000e-07	-4.685891e-06	-1.077652e-09	-3.261221e+01	-7.151290e+01
6.600000e-07	-4.661218e-06	-1.095433e-09	-3.244049e+01	-7.128696e+01
6.700000e-07	-4.636150e-06	-1.041851e-09	-3.226603e+01	-7.105757e+01
6.800000e-07	-4.610727e-06	-1.048108e-09	-3.208909e+01	-7.082467e+01
6.900000e-07	-4.584699e-06	-1.073505e-09	-3.190795e+01	-7.058821e+01
7.000000e-07	-4.557956e-06	-1.049595e-09	-3.172182e+01	-7.034816e+01
7.100000e-07	-4.530750e-06	-1.046822e-09	-3.153248e+01	-7.010446e+01
7.200000e-07	-4.503316e-06	-1.072923e-09	-3.134154e+01	-6.985706e+01
7.300000e-07	-4.475703e-06	-1.050295e-09	-3.114937e+01	-6.960592e+01
7.400000e-07	-4.447914e-06	-1.030363e-09	-3.095597e+01	-6.935098e+01
7.500000e-07	-4.419933e-06	-1.040563e-09	-3.076123e+01	-6.909221e+01
7.600000e-07	-4.391749e-06	-1.028111e-09	-3.056507e+01	-6.882954e+01
7.700000e-07	-4.363303e-06	-1.013678e-09	-3.036710e+01	-6.856295e+01
7.800000e-07	-4.334528e-06	-1.024569e-09	-3.016684e+01	-6.829240e+01
7.900000e-07	-4.305419e-06	-1.019163e-09	-2.996425e+01	-6.801783e+01
8.000000e-07	-4.275914e-06	-9.976060e-10	-2.975890e+01	-6.773923e+01
8.100000e-07	-4.246100e-06	-1.001071e-09	-2.955141e+01	-6.745656e+01
8.200000e-07	-4.216016e-06	-9.945339e-10	-2.934204e+01	-6.716979e+01
8.300000e-07	-4.185566e-06	-9.733948e-10	-2.913011e+01	-6.687890e+01
8.400000e-07	-4.154835e-06	-9.713353e-10	-2.891624e+01	-6.658386e+01
8.500000e-07	-4.123834e-06	-9.825270e-10	-2.870048e+01	-6.628468e+01
8.600000e-07	-4.092536e-06	-9.676450e-10	-2.848266e+01	-6.598132e+01
8.700000e-07	-4.061046e-06	-9.598374e-10	-2.826350e+01	-6.567379e+01
8.800000e-07	-4.029426e-06	-9.640000e-10	-2.804343e+01	-6.536209e+01
8.900000e-07	-3.997640e-06	-9.567711e-10	-2.782221e+01	-6.504620e+01
9.000000e-07	-3.965652e-06	-9.400117e-10	-2.759958e+01	-6.472614e+01
9.100000e-07	-3.933436e-06	-9.431236e-10	-2.737537e+01	-6.440191e+01
9.200000e-07	-3.900880e-06	-9.376000e-10	-2.714880e+01	-6.407352e+01
9.300000e-07	-3.867957e-06	-9.226192e-10	-2.691966e+01	-6.374099e+01
9.400000e-07	-3.834675e-06	-9.206975e-10	-2.668803e+01	-6.340432e+01
9.500000e-07	-3.800918e-06	-9.246077e-10	-2.645309e+01	-6.306355e+01
9.600000e-07	-3.766600e-06	-9.106962e-10	-2.621425e+01	-6.271869e+01
9.700000e-07	-3.731863e-06	-9.012077e-10	-2.597250e+01	-6.236976e+01
9.800000e-07	-3.696817e-06	-8.991467e-10	-2.572859e+01	-6.201678e+01
9.900000e-07	-3.661457e-06	-8.904201e-10	-2.548250e+01	-6.165978e+01
1.000000e-06	-3.625887e-06	-8.798750e-10	-2.523494e+01	-6.129880e+01
1.010000e-06	-3.590172e-06	-8.823348e-10	-2.498637e+01	-6.093384e+01
1.020000e-06	-3.554323e-06	-8.818000e-10	-2.473688e+01	-6.056496e+01
1.030000e-06	-3.518370e-06	-8.735709e-10	-2.448666e+01	-6.019216e+01
1.040000e-06	-3.482242e-06	-8.688171e-10	-2.423522e+01	-5.981548e+01
1.050000e-06	-3.445826e-06	-8.653256e-10	-2.398178e+01	-5.943494e+01
1.060000e-06	-3.409111e-06	-8.544024e-10	-2.372625e+01	-5.905058e+01
1.070000e-06	-3.372170e-06	-8.433873e-10	-2.346915e+01	-5.866242e+01
1.080000e-06	-3.334984e-06	-8.369056e-10	-2.321035e+01	-5.827048e+01
1.090000e-06	-3.297556e-06	-8.275440e-10	-2.294987e+01	-5.787480e+01
1.100000e-06	-3.259914e-06	-8.226194e-10	-2.268789e+01	-5.747538e+01
1.110000e-06	-3.222021e-06	-8.213979e-10	-2.242417e+01	-5.707225e+01
1.120000e-06	-3.183941e-06	-8.179611e-10	-2.215915e+01	-5.666543e+01
1.130000e-06	-3.145724e-06	-8.097686e-10	-2.189317e+01	-5.625494e+01
1.140000e-06	-3.107283e-06	-8.045454e-10	-2.162563e+01	-5.584079e+01
1.150000e-06	-3.068515e-06	-7.967932e-10	-2.135582e+01	-5.542298e+01
1.160000e-06	-3.029488e-06	-7.871641e-10	-2.108420e+01	-5.500153e+01
1.170000e-06	-2.990297e-06	-7.761463e-10	-2.081145e+01	-5.457644e+01
1.180000e-06	-2.950964e-06	-7.667564e-10	-2.053771e+01	-5.414771e+01
1.190000e-06	-2.911496e-06	-7.585180e-10	-2.026302e+01	-5.371533e+01
1.200000e-06	-2.871911e-06	-7.552299e-10	-1.998752e+01	-5.327930e+01
1.210000e-06	-2.832164e-06	-7.522550e-10	-1.971090e+01	-5.283959e+01
1.220000e-06	-2.792226e-06	-7.474709e-10	-1.943294e+01	-5.239620e+01
1.230000e-06	-2.752218e-06	-7.398477e-10	-1.915450e+01	-5.194908e+01
1.240000e-06	-2.712105e-06	-7.307574e-10	-1.887533e+01	-5.149820e+01
1.250000e-06	-2.671690e-06	-7.200481e-10	-1.859405e+01	-5.104353e+01
1.260000e-06	-2.631041e-06	-7.129472e-10	-1.831115e+01	-5.058501e+01
1.270000e-06	-2.590215e-06	-7.050925e-10	-1.802701e+01	-5.012258e+01
1.280000e-06	-2.549140e-06	-6.979114e-10	-1.774115e+01	-4.965617e+01
1.290000e-06	-2.507781e-06	-6.933515e-10	-1.745330e+01	-4.918570e+01
1.300000e-06	-2.466146e-06	-6.882993e-10	-1.716354e+01	-4.871108e+01
1.310000e-06	-2.424270e-06	-6.781734e-10	-1.687209e+01	-4.823221e+01
1.320000e-06	-2.382063e-06	-6.662808e-10	-1.657834e+01	-4.774896e+01
1.330000e-06	-2.339523e-06	-6.570503e-10	-1.628229e+01	-4.726122e+01
1.340000e-06	-2.296710e-06	-6.495231e-10	-1.598432e+01	-4.676882e+01
1.350000e-06	-2.253665e-06	-6.434426e-10	-1.568474e+01	-4.627162e+01
1.360000e-06	-2.210386e-06	-6.369594e-10	-1.538353e+01	-4.576944e+01
1.370000e-06	-2.166949e-06	-6.272268e-10	-1.508123e+01	-4.526209e+01
1.380000e-06	-2.123422e-06	-6.149523e-10	-1.477829e+01	-4.474934e+01
1.390000e-06	-2.079799e-06	-6.032404e-10	-1.447469e+01	-4.423099e+01
1.400000e-06	-2.036100e-06	-5.923474e-10	-1.417056e+01	-4.370678e+01
1.410000e-06	-1.992266e-06	-5.830077e-10	-1.386549e+01	-4.317644e+01
1.420000e-06	-1.948371e-06	-5.754774e-10	-1.356000e+01	-4.263970e+01
1.430000e-06	-1.904415e-06	-5.702368e-10	-1.325408e+01	-4.209625e+01
1.440000e-06	-1.860353e-06	-5.637711e-10	-1.294742e+01	-4.154577e+01
1.450000e-06	-1.816152e-06	-5.557878e-10	-1.263980e+01	-4.098791e+01
1.460000e-06	-1.771791e-06	-5.442873e-10	-1.233106e+01	-4.042233e+01
1.470000e-06	-1.727350e-06	-5.319246e-10	-1.202177e+01	-3.984865e+01
1.480000e-06	-1.682883e-06	-5.197143e-10	-1.171229e+01	-3.926646e+01
1.490000e-06	-1.638274e-06	-5.092718e-10	-1.140183e+01	-3.867537e+01
1.500000e-06	-1.593482e-06	-5.010896e-10	-1.109009e+01	-3.807494e+01
1.510000e-06	-1.548615e-06	-4.949621e-10	-1.077783e+01	-3.746473e+01
1.520000e-06	-1.503650e-06	-4.877988e-10	-1.046489e+01	-3.684428e+01
1.530000e-06	-1.458484e-06	-4.781470e-10	-1.015055e+01	-3.621314e+01
1.540000e-06	-1.413138e-06	-4.658169e-10	-9.834959e+00	-3.557083e+01
1.550000e-06	-1.367747e-06	-4.526464e-10	-9.519051e+00	-3.491687e+01
1.560000e-06	-1.322348e-06	-4.379092e-10	-9.203088e+00	-3.425076e+01
1.570000e-06	-1.276885e-06	-4.241273e-10	-8.886685e+00	-3.357202e+01
1.580000e-06	-1.231323e-06	-4.115625e-10	-8.569589e+00	-3.288015e+01
1.590000e-06	-1.185633e-06	-3.983561e-10	-8.251599e+00	-3.217466e+01
1.600000e-06	-1.139767e-06	-3.872116e-10	-7.932393e+00	-3.145508e+01
1.610000e-06	-1.093818e-06	-3.779082e-10	-7.612597e+00	-3.072092e+01
1.620000e-06	-1.047805e-06	-3.670541e-10	-7.292367e+00	-2.997172e+01
1.630000e-06	-1.001701e-06	-3.561795e-10	-6.971501e+00	-2.920702e+01
1.640000e-06	-9.555737e-07	-3.458489e-10	-6.650467e+00	-2.842640e+01
1.650000e-06	-9.094016e-07	-3.341896e-10	-6.329125e+00	-2.762944e+01
1.660000e-06	-8.631394e-07	-3.214305e-10	-6.007156e+00	-2.681575e+01
1.670000e-06	-8.168360e-07	-3.079796e-10	-5.684900e+00	-2.598498e+01
1.680000e-06	-7.705297e-07	-2.942901e-10	-5.362624e+00	-2.513679e+01
1.690000e-06	-7.241019e-07	-2.821301e-10	-5.039503e+00	-2.427089e+01
1.700000e-06	-6.776558e-07	-2.732823e-10	-4.716253e+00	-2.338703e+01
1.710000e-06	-6.312561e-07	-2.641304e-10	-4.393328e+00	-2.248499e+01
1.720000e-06	-5.848127e-07	-2.521264e-10	-4.070097e+00	-2.156460e+01
1.730000e-06	-5.383172e-07	-2.371900e-10	-3.746505e+00	-2.062574e+01
1.740000e-06	-4.917733e-07	-2.213798e-10	-3.422574e+00	-1.966834e+01
1.750000e-06	-4.451424e-07	-2.058893e-10	-3.098039e+00	-1.869237e+01
1.760000e-06	-3.984055e-07	-1.904455e-10	-2.772767e+00	-1.769788e+01
1.770000e-06	-3.516919e-07	-1.755152e-10	-2.447656e+00	-1.668496e+01
1.780000e-06	-3.049572e-07	-1.622853e-10	-2.122398e+00	-1.565375e+01
1.790000e-06	-2.581647e-07	-1.501417e-10	-1.796739e+00	-1.460448e+01
1.800000e-06	-2.113786e-07	-1.385798e-10	-1.471123e+00	-1.353742e+01
1.810000e-06	-1.646015e-07	-1.236593e-10	-1.145570e+00	-1.245291e+01
1.820000e-06	-1.178470e-07	-1.066482e-10	-8.201753e-01	-1.135135e+01
1.830000e-06	-7.118838e-08	-8.984350e-11	-4.954469e-01	-1.023320e+01
1.840000e-06	-2.458150e-08	-7.288434e-11	-1.710789e-01	-9.099002e+00
1.850000e-06	2.204857e-08	-5.565205e-11	1.534505e-01	-7.949341e+00
1.860000e-06	6.872189e-08	-3.929646e-11	4.782809e-01	-6.784874e+00
1.870000e-06	1.154795e-07	-2.142353e-11	8.036979e-01	-5.606316e+00
1.880000e-06	1.622240e-07	-2.272046e-12	1.129024e+00	-4.414444e+00
1.890000e-06	2.089614e-07	1.507395e-11	1.454300e+00	-3.210088e+00
1.900000e-06	2.557599e-07	3.040520e-11	1.780002e+00	-1.994136e+00
1.910000e-06	3.025788e-07	4.548235e-11	2.105846e+00	-7.675261e-01
1.920000e-06	3.493115e-07	6.203725e-11	2.431089e+00	4.687543e-01
1.930000e-06	3.960098e-07	7.916487e-11	2.756093e+00	1.713673e+00
1.940000e-06	4.426826e-07	9.766575e-11	3.080920e+00	2.966156e+00
1.950000e-06	4.892622e-07	1.181866e-10	3.405098e+00	4.225093e+00
1.960000e-06	5.358675e-07	1.380057e-10	3.729455e+00	5.489339e+00
1.970000e-06	5.824060e-07	1.561088e-10	4.053348e+00	6.757723e+00
1.980000e-06	6.288400e-07	1.743184e-10	4.376512e+00	8.029050e+00
1.990000e-06	6.752653e-07	1.907162e-10	4.699617e+00	9.302105e+00
2.000000e-06	7.216055e-07	2.051305e-10	5.022128e+00	1.057566e+01
2.010000e-06	7.678882e-07	2.226764e-10	5.344240e+00	1.184848e+01
2.020000e-06	8.141191e-07	2.405573e-10	5.665992e+00	1.311933e+01
2.030000e-06	8.602790e-07	2.588107e-10	5.987249e+00	1.438698e+01
2.040000e-06	9.063949e-07	2.804705e-10	6.308200e+00	1.565018e+01
2.050000e-06	9.524412e-07	3.007725e-10	6.628666e+00	1.690774e+01
2.060000e-06	9.984773e-07	3.192751e-10	6.949062e+00	1.815846e+01
2.070000e-06	1.044438e-06	3.362591e-10	7.268933e+00	1.940115e+01
2.080000e-06	1.090300e-06	3.515265e-10	7.588118e+00	2.063469e+01
2.090000e-06	1.136135e-06	3.661538e-10	7.907113e+00	2.185796e+01
2.100000e-06	1.181905e-06	3.833045e-10	8.225655e+00	2.306989e+01
2.110000e-06	1.227563e-06	4.000587e-10	8.543421e+00	2.426945e+01
2.120000e-06	1.273071e-06	4.154789e-10	8.860138e+00	2.545566e+01
2.130000e-06	1.318448e-06	4.300301e-10	9.175949e+00	2.662758e+01
2.140000e-06	1.363745e-06	4.447737e-10	9.491199e+00	2.778435e+01
2.150000e-06	1.408971e-06	4.592273e-10	9.805955e+00	2.892513e+01
2.160000e-06	1.454106e-06	4.735061e-10	1.012008e+01	3.004916e+01
2.170000e-06	1.499063e-06	4.891064e-10	1.043297e+01	3.115574e+01
2.180000e-06	1.543909e-06	5.051838e-10	1.074508e+01	3.224425e+01
2.190000e-06	1.588690e-06	5.213786e-10	1.105674e+01	3.331410e+01
2.200000e-06	1.633327e-06	5.377970e-10	1.136740e+01	3.436479e+01
2.210000e-06	1.677897e-06	5.515588e-10	1.167759e+01	3.539589e+01
2.220000e-06	1.722377e-06	5.605101e-10	1.198716e+01	3.640702e+01
2.230000e-06	1.766655e-06	5.687222e-10	1.229532e+01	3.739788e+01
2.240000e-06	1.810822e-06	5.796738e-10	1.260270e+01	3.836824e+01
2.250000e-06	1.854931e-06	5.945834e-10	1.290969e+01	3.931792e+01
2.260000e-06	1.898934e-06	6.109227e-10	1.321593e+01	4.024683e+01
2.270000e-06	1.942866e-06	6.256037e-10	1.352168e+01	4.115490e+01
2.280000e-06	1.986736e-06	6.363976e-10	1.382700e+01	4.204217e+01
2.290000e-06	2.030567e-06	6.440595e-10	1.413206e+01	4.290871e+01
2.300000e-06	2.074353e-06	6.507282e-10	1.443679e+01	4.375465e+01
2.310000e-06	2.118015e-06	6.577774e-10	1.474066e+01	4.458017e+01
2.320000e-06	2.161575e-06	6.679044e-10	1.504383e+01	4.538550e+01
2.330000e-06	2.205078e-06	6.809714e-10	1.534659e+01	4.617093e+01
2.340000e-06	2.248422e-06	6.943473e-10	1.564825e+01	4.693678e+01
2.350000e-06	2.291501e-06	7.052730e-10	1.594807e+01	4.768339e+01
2.360000e-06	2.334287e-06	7.134932e-10	1.624584e+01	4.841118e+01
2.370000e-06	2.376803e-06	7.209166e-10	1.654174e+01	4.912056e+01
2.380000e-06	2.419091e-06	7.281510e-10	1.683605e+01	4.981199e+01
2.390000e-06	2.461100e-06	7.369298e-10	1.712842e+01	5.048594e+01
2.400000e-06	2.502730e-06	7.460564e-10	1.741815e+01	5.114290e+01
2.410000e-06	2.543965e-06	7.561506e-10	1.770513e+01	5.178338e+01
2.420000e-06	2.584937e-06	7.661250e-10	1.799028e+01	5.240790e+01
2.430000e-06	2.625773e-06	7.750305e-10	1.827449e+01	5.301699e+01
2.440000e-06	2.666356e-06	7.831164e-10	1.855693e+01	5.361117e+01
2.450000e-06	2.706584e-06	7.879380e-10	1.883690e+01	5.419097e+01
2.460000e-06	2.746672e-06	7.940798e-10	1.911590e+01	5.475692e+01
2.470000e-06	2.786691e-06	8.018779e-10	1.939442e+01	5.530954e+01
2.480000e-06	2.826509e-06	8.090796e-10	1.967154e+01	5.584933e+01
2.490000e-06	2.866178e-06	8.161304e-10	1.994762e+01	5.637680e+01
2.500000e-06	2.905845e-06	8.252620e-10	2.022369e+01	5.689242e+01
2.510000e-06	2.945426e-06	8.360027e-10	2.049916e+01	5.739667e+01
2.520000e-06	2.984730e-06	8.438260e-10	2.077271e+01	5.788998e+01
2.530000e-06	3.023776e-06	8.502183e-10	2.104445e+01	5.837280e+01
2.540000e-06	3.062696e-06	8.566511e-10	2.131532e+01	5.884553e+01
2.550000e-06	3.101427e-06	8.627746e-10	2.158487e+01	5.930854e+01
2.560000e-06	3.139817e-06	8.683221e-10	2.185206e+01	5.976221e+01
2.570000e-06	3.177959e-06	8.747402e-10	2.211751e+01	6.020688e+01
2.580000e-06	3.215910e-06	8.844514e-10	2.238164e+01	6.064285e+01
2.590000e-06	3.253675e-06	8.953766e-10	2.264447e+01	6.107043e+01
2.600000e-06	3.291288e-06	9.035318e-10	2.290624e+01	6.148987e+01
2.610000e-06	3.328675e-06	9.077768e-10	2.316644e+01	6.190143e+01
2.620000e-06	3.365837e-06	9.102975e-10	2.342508e+01	6.230534e+01
2.630000e-06	3.402725e-06	9.144606e-10	2.368181e+01	6.270179e+01
2.640000e-06	3.439270e-06	9.197046e-10	2.393615e+01	6.309097e+01
2.650000e-06	3.475562e-06	9.246904e-10	2.418873e+01	6.347305e+01
2.660000e-06	3.511742e-06	9.336927e-10	2.444053e+01	6.384817e+01
2.670000e-06	3.547808e-06	9.439155e-10	2.469153e+01	6.421648e+01
2.680000e-06	3.583699e-06	9.512940e-10	2.494132e+01	6.457808e+01
2.690000e-06	3.619427e-06	9.561780e-10	2.518998e+01	6.493308e+01
2.700000e-06	3.655000e-06	9.564939e-10	2.543756e+01	6.528159e+01
2.710000e-06	3.690435e-06	9.584450e-10	2.568417e+01	6.562368e+01
2.720000e-06	3.725597e-06	9.627022e-10	2.592888e+01	6.595944e+01
2.730000e-06	3.760433e-06	9.672617e-10	2.617133e+01	6.628893e+01
2.740000e-06	3.794847e-06	9.700745e-10	2.641084e+01	6.661223e+01
2.750000e-06	3.828712e-06	9.737881e-10	2.664653e+01	6.692941e+01
2.760000e-06	3.862114e-06	9.792250e-10	2.687900e+01	6.724052e+01
2.770000e-06	3.895104e-06	9.836545e-10	2.710860e+01	6.754563e+01
2.780000e-06	3.927742e-06	9.875959e-10	2.733575e+01	6.784481e+01
2.790000e-06	3.960002e-06	9.915457e-10	2.756027e+01	6.813811e+01
2.800000e-06	3.991993e-06	9.943064e-10	2.778291e+01	6.842562e+01
2.810000e-06	4.023842e-06	9.986150e-10	2.800457e+01	6.870739e+01
2.820000e-06	4.055520e-06	1.004216e-09	2.822504e+01	6.898352e+01
2.830000e-06	4.087047e-06	1.008684e-09	2.844445e+01	6.925408e+01
2.840000e-06	4.118362e-06	1.011890e-09	2.866240e+01	6.951915e+01
2.850000e-06	4.149433e-06	1.013626e-09	2.887864e+01	6.977884e+01
2.860000e-06	4.180218e-06	1.015623e-09	2.909289e+01	7.003322e+01
2.870000e-06	4.210638e-06	1.017543e-09	2.930461e+01	7.028242e+01
2.880000e-06	4.240718e-06	1.020853e-09	2.951395e+01	7.052652e+01
2.890000e-06	4.270512e-06	1.023706e-09	2.972131e+01	7.076565e+01
2.900000e-06	4.300081e-06	1.026195e-09	2.992710e+01	7.099991e+01
2.910000e-06	4.329395e-06	1.029419e-09	3.013112e+01	7.122943e+01
