# Temperatura_=_10.8
# Concentracion g/m^3_=_1620.0
# C_Vs_to_Am_M_A/Vsm_=_65563218390.804596
# pendiente_HvsI_1/m_=_3716.3
# ordenada_HvsI_A/m_=_1297.0
# frecuencia_Hz_=_135110.1691590563

Tiempo_(s)	Campo_(V.s)	Magnetizacion_(V.s)	Campo_(kA/m)	Magnetizacion_(A/m)
0.000000e+00	-5.531787e-06	-1.235106e-09	-3.837094e+01	-8.120616e+01
1.000000e-08	-5.532033e-06	-1.231349e-09	-3.837265e+01	-8.117386e+01
2.000000e-08	-5.532076e-06	-1.228556e-09	-3.837294e+01	-8.114006e+01
3.000000e-08	-5.531723e-06	-1.228164e-09	-3.837050e+01	-8.110472e+01
4.000000e-08	-5.530817e-06	-1.227745e-09	-3.836421e+01	-8.106779e+01
5.000000e-08	-5.529333e-06	-1.228075e-09	-3.835392e+01	-8.102920e+01
6.000000e-08	-5.527252e-06	-1.231966e-09	-3.833949e+01	-8.098887e+01
7.000000e-08	-5.524661e-06	-1.243241e-09	-3.832151e+01	-8.094671e+01
8.000000e-08	-5.521585e-06	-1.246415e-09	-3.830018e+01	-8.090263e+01
9.000000e-08	-5.518036e-06	-1.201362e-09	-3.827556e+01	-8.085649e+01
1.000000e-07	-5.514095e-06	-1.175474e-09	-3.824822e+01	-8.080820e+01
1.100000e-07	-5.509822e-06	-1.254123e-09	-3.821858e+01	-8.075761e+01
1.200000e-07	-5.505163e-06	-1.301206e-09	-3.818626e+01	-8.070459e+01
1.300000e-07	-5.500225e-06	-1.196674e-09	-3.815201e+01	-8.064900e+01
1.400000e-07	-5.495114e-06	-1.151372e-09	-3.811656e+01	-8.059071e+01
1.500000e-07	-5.489696e-06	-1.208266e-09	-3.807898e+01	-8.052956e+01
1.600000e-07	-5.483832e-06	-1.307497e-09	-3.803830e+01	-8.046542e+01
1.700000e-07	-5.477538e-06	-1.214332e-09	-3.799464e+01	-8.039814e+01
1.800000e-07	-5.470862e-06	-1.146120e-09	-3.794834e+01	-8.032758e+01
1.900000e-07	-5.463753e-06	-1.194879e-09	-3.789903e+01	-8.025360e+01
2.000000e-07	-5.456267e-06	-1.262602e-09	-3.784710e+01	-8.017608e+01
2.100000e-07	-5.448526e-06	-1.222296e-09	-3.779341e+01	-8.009488e+01
2.200000e-07	-5.440532e-06	-1.171819e-09	-3.773795e+01	-8.000989e+01
2.300000e-07	-5.432239e-06	-1.209404e-09	-3.768044e+01	-7.992099e+01
2.400000e-07	-5.423502e-06	-1.243287e-09	-3.761983e+01	-7.982809e+01
2.500000e-07	-5.414219e-06	-1.223259e-09	-3.755544e+01	-7.973109e+01
2.600000e-07	-5.404285e-06	-1.171388e-09	-3.748653e+01	-7.962991e+01
2.700000e-07	-5.393637e-06	-1.200738e-09	-3.741267e+01	-7.952447e+01
2.800000e-07	-5.382494e-06	-1.214550e-09	-3.733538e+01	-7.941472e+01
2.900000e-07	-5.370953e-06	-1.217604e-09	-3.725533e+01	-7.930059e+01
3.000000e-07	-5.359072e-06	-1.181195e-09	-3.717292e+01	-7.918206e+01
3.100000e-07	-5.346851e-06	-1.198613e-09	-3.708814e+01	-7.905910e+01
3.200000e-07	-5.334190e-06	-1.205219e-09	-3.700032e+01	-7.893168e+01
3.300000e-07	-5.321072e-06	-1.207302e-09	-3.690933e+01	-7.879981e+01
3.400000e-07	-5.307490e-06	-1.158135e-09	-3.681512e+01	-7.866347e+01
3.500000e-07	-5.293557e-06	-1.174086e-09	-3.671847e+01	-7.852270e+01
3.600000e-07	-5.279204e-06	-1.195941e-09	-3.661892e+01	-7.837751e+01
3.700000e-07	-5.264322e-06	-1.184030e-09	-3.651568e+01	-7.822794e+01
3.800000e-07	-5.248990e-06	-1.156316e-09	-3.640933e+01	-7.807402e+01
3.900000e-07	-5.233198e-06	-1.210745e-09	-3.629979e+01	-7.791581e+01
4.000000e-07	-5.216842e-06	-1.194393e-09	-3.618634e+01	-7.775336e+01
4.100000e-07	-5.200048e-06	-1.129867e-09	-3.606985e+01	-7.758674e+01
4.200000e-07	-5.182998e-06	-1.167674e-09	-3.595159e+01	-7.741602e+01
4.300000e-07	-5.165667e-06	-1.223698e-09	-3.583137e+01	-7.724126e+01
4.400000e-07	-5.147990e-06	-1.139040e-09	-3.570876e+01	-7.706254e+01
4.500000e-07	-5.129905e-06	-1.105048e-09	-3.558331e+01	-7.687995e+01
4.600000e-07	-5.111397e-06	-1.207241e-09	-3.545493e+01	-7.669357e+01
4.700000e-07	-5.092546e-06	-1.179302e-09	-3.532417e+01	-7.650347e+01
4.800000e-07	-5.073388e-06	-1.094438e-09	-3.519128e+01	-7.630976e+01
4.900000e-07	-5.053974e-06	-1.162775e-09	-3.505662e+01	-7.611250e+01
5.000000e-07	-5.034335e-06	-1.208578e-09	-3.492040e+01	-7.591179e+01
5.100000e-07	-5.014430e-06	-1.100206e-09	-3.478232e+01	-7.570770e+01
5.200000e-07	-4.994259e-06	-1.119232e-09	-3.464241e+01	-7.550033e+01
5.300000e-07	-4.973768e-06	-1.189152e-09	-3.450028e+01	-7.528974e+01
5.400000e-07	-4.952897e-06	-1.109558e-09	-3.435550e+01	-7.507601e+01
5.500000e-07	-4.931666e-06	-1.061691e-09	-3.420824e+01	-7.485921e+01
5.600000e-07	-4.910122e-06	-1.167191e-09	-3.405879e+01	-7.463941e+01
5.700000e-07	-4.888210e-06	-1.144574e-09	-3.390680e+01	-7.441668e+01
5.800000e-07	-4.865895e-06	-1.076599e-09	-3.375202e+01	-7.419106e+01
5.900000e-07	-4.843258e-06	-1.135518e-09	-3.359499e+01	-7.396262e+01
6.000000e-07	-4.820280e-06	-1.159981e-09	-3.343562e+01	-7.373141e+01
6.100000e-07	-4.796999e-06	-1.072638e-09	-3.327412e+01	-7.349746e+01
6.200000e-07	-4.773500e-06	-1.093953e-09	-3.311113e+01	-7.326081e+01
6.300000e-07	-4.749751e-06	-1.133993e-09	-3.294639e+01	-7.302150e+01
6.400000e-07	-4.725725e-06	-1.084754e-09	-3.277974e+01	-7.277954e+01
6.500000e-07	-4.701415e-06	-1.076812e-09	-3.261111e+01	-7.253497e+01
6.600000e-07	-4.676708e-06	-1.125626e-09	-3.243973e+01	-7.228780e+01
6.700000e-07	-4.651436e-06	-1.089863e-09	-3.226444e+01	-7.203804e+01
6.800000e-07	-4.625554e-06	-1.063889e-09	-3.208491e+01	-7.178569e+01
6.900000e-07	-4.599028e-06	-1.095316e-09	-3.190091e+01	-7.153075e+01
7.000000e-07	-4.572007e-06	-1.083954e-09	-3.171348e+01	-7.127322e+01
7.100000e-07	-4.544694e-06	-1.054050e-09	-3.152402e+01	-7.101308e+01
7.200000e-07	-4.517158e-06	-1.077991e-09	-3.133302e+01	-7.075033e+01
7.300000e-07	-4.489491e-06	-1.082597e-09	-3.114111e+01	-7.048493e+01
7.400000e-07	-4.461690e-06	-1.050175e-09	-3.094827e+01	-7.021687e+01
7.500000e-07	-4.433657e-06	-1.049200e-09	-3.075382e+01	-6.994612e+01
7.600000e-07	-4.405357e-06	-1.049306e-09	-3.055752e+01	-6.967264e+01
7.700000e-07	-4.376751e-06	-1.030518e-09	-3.035910e+01	-6.939640e+01
7.800000e-07	-4.347772e-06	-1.031106e-09	-3.015809e+01	-6.911736e+01
7.900000e-07	-4.318458e-06	-1.044633e-09	-2.995475e+01	-6.883547e+01
8.000000e-07	-4.288907e-06	-1.026845e-09	-2.974977e+01	-6.855069e+01
8.100000e-07	-4.259140e-06	-1.017036e-09	-2.954329e+01	-6.826297e+01
8.200000e-07	-4.229068e-06	-1.018724e-09	-2.933470e+01	-6.797225e+01
8.300000e-07	-4.198607e-06	-1.005457e-09	-2.912341e+01	-6.767848e+01
8.400000e-07	-4.167763e-06	-9.850828e-10	-2.890946e+01	-6.738161e+01
8.500000e-07	-4.136634e-06	-9.936265e-10	-2.869354e+01	-6.708156e+01
8.600000e-07	-4.105344e-06	-9.910526e-10	-2.847650e+01	-6.677829e+01
8.700000e-07	-4.073874e-06	-9.801723e-10	-2.825821e+01	-6.647172e+01
8.800000e-07	-4.042214e-06	-9.803566e-10	-2.803860e+01	-6.616179e+01
8.900000e-07	-4.010388e-06	-9.859428e-10	-2.781784e+01	-6.584844e+01
9.000000e-07	-3.978301e-06	-9.656938e-10	-2.759527e+01	-6.553160e+01
9.100000e-07	-3.945916e-06	-9.561705e-10	-2.737063e+01	-6.521121e+01
9.200000e-07	-3.913137e-06	-9.558945e-10	-2.714326e+01	-6.488719e+01
9.300000e-07	-3.879950e-06	-9.422832e-10	-2.691306e+01	-6.455947e+01
9.400000e-07	-3.846382e-06	-9.288420e-10	-2.668022e+01	-6.422800e+01
9.500000e-07	-3.812304e-06	-9.364149e-10	-2.644384e+01	-6.389271e+01
9.600000e-07	-3.777729e-06	-9.340179e-10	-2.620401e+01	-6.355353e+01
9.700000e-07	-3.742764e-06	-9.205334e-10	-2.596148e+01	-6.321040e+01
9.800000e-07	-3.707532e-06	-9.202896e-10	-2.571709e+01	-6.286326e+01
9.900000e-07	-3.672116e-06	-9.208258e-10	-2.547144e+01	-6.251206e+01
1.000000e-06	-3.636525e-06	-9.061124e-10	-2.522456e+01	-6.215674e+01
1.010000e-06	-3.600834e-06	-8.985748e-10	-2.497699e+01	-6.179724e+01
1.020000e-06	-3.565052e-06	-9.015791e-10	-2.472879e+01	-6.143353e+01
1.030000e-06	-3.529054e-06	-8.951905e-10	-2.447909e+01	-6.106555e+01
1.040000e-06	-3.492807e-06	-8.873758e-10	-2.422767e+01	-6.069328e+01
1.050000e-06	-3.456321e-06	-8.874969e-10	-2.397458e+01	-6.031667e+01
1.060000e-06	-3.419558e-06	-8.819602e-10	-2.371958e+01	-5.993571e+01
1.070000e-06	-3.382461e-06	-8.664762e-10	-2.346226e+01	-5.955036e+01
1.080000e-06	-3.345077e-06	-8.618539e-10	-2.320295e+01	-5.916061e+01
1.090000e-06	-3.307489e-06	-8.595950e-10	-2.294222e+01	-5.876645e+01
1.100000e-06	-3.269688e-06	-8.529887e-10	-2.268001e+01	-5.836788e+01
1.110000e-06	-3.231699e-06	-8.465618e-10	-2.241651e+01	-5.796490e+01
1.120000e-06	-3.193439e-06	-8.451890e-10	-2.215111e+01	-5.755751e+01
1.130000e-06	-3.154903e-06	-8.355973e-10	-2.188381e+01	-5.714572e+01
1.140000e-06	-3.116246e-06	-8.255800e-10	-2.161567e+01	-5.672956e+01
1.150000e-06	-3.077438e-06	-8.189050e-10	-2.134648e+01	-5.630905e+01
1.160000e-06	-3.038361e-06	-8.125082e-10	-2.107543e+01	-5.588421e+01
1.170000e-06	-2.999019e-06	-8.056324e-10	-2.080253e+01	-5.545508e+01
1.180000e-06	-2.959569e-06	-8.047285e-10	-2.052889e+01	-5.502170e+01
1.190000e-06	-2.920030e-06	-8.010537e-10	-2.025463e+01	-5.458409e+01
1.200000e-06	-2.880351e-06	-7.917818e-10	-1.997940e+01	-5.414231e+01
1.210000e-06	-2.840518e-06	-7.798178e-10	-1.970310e+01	-5.369638e+01
1.220000e-06	-2.800560e-06	-7.714276e-10	-1.942593e+01	-5.324636e+01
1.230000e-06	-2.760481e-06	-7.619028e-10	-1.914793e+01	-5.279228e+01
1.240000e-06	-2.720229e-06	-7.532413e-10	-1.886872e+01	-5.233417e+01
1.250000e-06	-2.679793e-06	-7.461270e-10	-1.858824e+01	-5.187207e+01
1.260000e-06	-2.639017e-06	-7.415361e-10	-1.830540e+01	-5.140599e+01
1.270000e-06	-2.597865e-06	-7.343806e-10	-1.801995e+01	-5.093597e+01
1.280000e-06	-2.556517e-06	-7.288872e-10	-1.773314e+01	-5.046200e+01
1.290000e-06	-2.514887e-06	-7.239328e-10	-1.744438e+01	-4.998408e+01
1.300000e-06	-2.472891e-06	-7.154897e-10	-1.715307e+01	-4.950220e+01
1.310000e-06	-2.430608e-06	-7.038458e-10	-1.685978e+01	-4.901633e+01
1.320000e-06	-2.388023e-06	-6.926325e-10	-1.656439e+01	-4.852643e+01
1.330000e-06	-2.345140e-06	-6.845225e-10	-1.626694e+01	-4.803243e+01
1.340000e-06	-2.302027e-06	-6.742311e-10	-1.596789e+01	-4.753424e+01
1.350000e-06	-2.258800e-06	-6.667055e-10	-1.566804e+01	-4.703178e+01
1.360000e-06	-2.215436e-06	-6.605269e-10	-1.536725e+01	-4.652490e+01
1.370000e-06	-2.171886e-06	-6.534702e-10	-1.506517e+01	-4.601347e+01
1.380000e-06	-2.128248e-06	-6.452539e-10	-1.476248e+01	-4.549730e+01
1.390000e-06	-2.084563e-06	-6.348297e-10	-1.445946e+01	-4.497621e+01
1.400000e-06	-2.040832e-06	-6.224080e-10	-1.415612e+01	-4.444995e+01
1.410000e-06	-1.997042e-06	-6.098210e-10	-1.385237e+01	-4.391828e+01
1.420000e-06	-1.953164e-06	-5.990174e-10	-1.354802e+01	-4.338090e+01
1.430000e-06	-1.909179e-06	-5.921797e-10	-1.324292e+01	-4.283752e+01
1.440000e-06	-1.865111e-06	-5.850508e-10	-1.293724e+01	-4.228777e+01
1.450000e-06	-1.820954e-06	-5.809364e-10	-1.263095e+01	-4.173130e+01
1.460000e-06	-1.776645e-06	-5.746103e-10	-1.232360e+01	-4.116771e+01
1.470000e-06	-1.732158e-06	-5.663924e-10	-1.201502e+01	-4.059655e+01
1.480000e-06	-1.687510e-06	-5.556744e-10	-1.170532e+01	-4.001738e+01
1.490000e-06	-1.642701e-06	-5.455730e-10	-1.139451e+01	-3.942972e+01
1.500000e-06	-1.597683e-06	-5.370219e-10	-1.108224e+01	-3.883306e+01
1.510000e-06	-1.552589e-06	-5.291045e-10	-1.076945e+01	-3.822687e+01
1.520000e-06	-1.507407e-06	-5.215268e-10	-1.045605e+01	-3.761061e+01
1.530000e-06	-1.462054e-06	-5.120736e-10	-1.014146e+01	-3.698370e+01
1.540000e-06	-1.416628e-06	-5.011619e-10	-9.826366e+00	-3.634556e+01
1.550000e-06	-1.371150e-06	-4.902895e-10	-9.510908e+00	-3.569560e+01
1.560000e-06	-1.325622e-06	-4.777729e-10	-9.195108e+00	-3.503321e+01
1.570000e-06	-1.279975e-06	-4.663618e-10	-8.878476e+00	-3.435779e+01
1.580000e-06	-1.234206e-06	-4.551034e-10	-8.561000e+00	-3.366872e+01
1.590000e-06	-1.188402e-06	-4.433135e-10	-8.243290e+00	-3.296539e+01
1.600000e-06	-1.142559e-06	-4.325775e-10	-7.925296e+00	-3.224720e+01
1.610000e-06	-1.096595e-06	-4.227206e-10	-7.606471e+00	-3.151355e+01
1.620000e-06	-1.050542e-06	-4.108165e-10	-7.287029e+00	-3.076387e+01
1.630000e-06	-1.004469e-06	-3.963996e-10	-6.967444e+00	-2.999759e+01
1.640000e-06	-9.582923e-07	-3.822933e-10	-6.647143e+00	-2.921419e+01
1.650000e-06	-9.119689e-07	-3.679159e-10	-6.325823e+00	-2.841314e+01
1.660000e-06	-8.656428e-07	-3.549141e-10	-6.004484e+00	-2.759397e+01
1.670000e-06	-8.192773e-07	-3.427364e-10	-5.682873e+00	-2.675626e+01
1.680000e-06	-7.728364e-07	-3.324644e-10	-5.360738e+00	-2.589959e+01
1.690000e-06	-7.263927e-07	-3.223199e-10	-5.038583e+00	-2.502362e+01
1.700000e-06	-6.799041e-07	-3.115227e-10	-4.716118e+00	-2.412806e+01
1.710000e-06	-6.333246e-07	-2.990558e-10	-4.393022e+00	-2.321265e+01
1.720000e-06	-5.866949e-07	-2.836518e-10	-4.069577e+00	-2.227720e+01
1.730000e-06	-5.400036e-07	-2.675188e-10	-3.745706e+00	-2.132159e+01
1.740000e-06	-4.931951e-07	-2.512630e-10	-3.421021e+00	-2.034577e+01
1.750000e-06	-4.463664e-07	-2.346926e-10	-3.096197e+00	-1.934972e+01
1.760000e-06	-3.995019e-07	-2.187651e-10	-2.771124e+00	-1.833354e+01
1.770000e-06	-3.525810e-07	-2.023920e-10	-2.445659e+00	-1.729736e+01
1.780000e-06	-3.056557e-07	-1.868232e-10	-2.120164e+00	-1.624141e+01
1.790000e-06	-2.587254e-07	-1.732182e-10	-1.794634e+00	-1.516599e+01
1.800000e-06	-2.117711e-07	-1.610658e-10	-1.468939e+00	-1.407146e+01
1.810000e-06	-1.647506e-07	-1.462183e-10	-1.142783e+00	-1.295827e+01
1.820000e-06	-1.177184e-07	-1.291037e-10	-8.165472e-01	-1.182696e+01
1.830000e-06	-7.075692e-08	-1.105626e-10	-4.908016e-01	-1.067811e+01
1.840000e-06	-2.385687e-08	-9.108313e-11	-1.654819e-01	-9.512408e+00
1.850000e-06	2.300654e-08	-7.238512e-11	1.595836e-01	-8.330588e+00
1.860000e-06	6.991889e-08	-5.653485e-11	4.849886e-01	-7.133471e+00
1.870000e-06	1.168271e-07	-4.161420e-11	8.103648e-01	-5.921938e+00
1.880000e-06	1.636843e-07	-2.689387e-11	1.135388e+00	-4.696938e+00
1.890000e-06	2.106036e-07	-1.257883e-11	1.460840e+00	-3.459478e+00
1.900000e-06	2.575136e-07	2.937733e-12	1.786229e+00	-2.210624e+00
1.910000e-06	3.043564e-07	2.047108e-11	2.111151e+00	-9.514933e-01
1.920000e-06	3.512413e-07	4.001225e-11	2.436367e+00	3.167495e-01
1.930000e-06	3.981481e-07	6.113802e-11	2.761733e+00	1.592897e+00
1.940000e-06	4.450531e-07	8.133133e-11	3.087087e+00	2.875704e+00
1.950000e-06	4.918840e-07	9.956650e-11	3.411927e+00	4.163895e+00
1.960000e-06	5.385583e-07	1.171296e-10	3.735680e+00	5.456170e+00
1.970000e-06	5.851386e-07	1.341030e-10	4.058782e+00	6.751207e+00
1.980000e-06	6.317075e-07	1.517348e-10	4.381805e+00	8.047675e+00
1.990000e-06	6.782735e-07	1.686946e-10	4.704808e+00	9.344233e+00
2.000000e-06	7.247409e-07	1.850603e-10	5.027126e+00	1.063954e+01
2.010000e-06	7.711332e-07	2.041128e-10	5.348924e+00	1.193227e+01
2.020000e-06	8.174718e-07	2.238904e-10	5.670349e+00	1.322110e+01
2.030000e-06	8.638111e-07	2.444592e-10	5.991779e+00	1.450472e+01
2.040000e-06	9.101000e-07	2.663655e-10	6.312859e+00	1.578187e+01
2.050000e-06	9.563076e-07	2.858809e-10	6.633376e+00	1.705130e+01
2.060000e-06	1.002518e-06	3.038168e-10	6.953910e+00	1.831180e+01
2.070000e-06	1.048577e-06	3.208844e-10	7.273395e+00	1.956221e+01
2.080000e-06	1.094511e-06	3.369236e-10	7.592020e+00	2.080141e+01
2.090000e-06	1.140485e-06	3.509230e-10	7.910914e+00	2.202834e+01
2.100000e-06	1.186355e-06	3.671929e-10	8.229085e+00	2.324199e+01
2.110000e-06	1.232015e-06	3.858306e-10	8.545804e+00	2.444143e+01
2.120000e-06	1.277557e-06	4.049046e-10	8.861707e+00	2.562576e+01
2.130000e-06	1.323012e-06	4.216621e-10	9.176999e+00	2.679418e+01
2.140000e-06	1.368411e-06	4.378596e-10	9.491907e+00	2.794594e+01
2.150000e-06	1.413775e-06	4.532219e-10	9.806574e+00	2.908038e+01
2.160000e-06	1.459146e-06	4.668391e-10	1.012129e+01	3.019690e+01
2.170000e-06	1.504389e-06	4.814650e-10	1.043511e+01	3.129498e+01
2.180000e-06	1.549385e-06	4.980415e-10	1.074723e+01	3.237418e+01
2.190000e-06	1.594282e-06	5.144185e-10	1.105865e+01	3.343413e+01
2.200000e-06	1.639108e-06	5.288996e-10	1.136958e+01	3.447453e+01
2.210000e-06	1.683837e-06	5.418458e-10	1.167985e+01	3.549517e+01
2.220000e-06	1.728403e-06	5.527230e-10	1.198898e+01	3.649590e+01
2.230000e-06	1.772712e-06	5.635746e-10	1.229632e+01	3.747665e+01
2.240000e-06	1.816936e-06	5.777014e-10	1.260308e+01	3.843740e+01
2.250000e-06	1.861104e-06	5.939289e-10	1.290945e+01	3.937822e+01
2.260000e-06	1.905135e-06	6.093309e-10	1.321486e+01	4.029922e+01
2.270000e-06	1.949093e-06	6.233345e-10	1.351978e+01	4.120058e+01
2.280000e-06	1.992967e-06	6.358609e-10	1.382411e+01	4.208254e+01
2.290000e-06	2.036713e-06	6.448393e-10	1.412755e+01	4.294538e+01
2.300000e-06	2.080394e-06	6.517234e-10	1.443054e+01	4.378943e+01
2.310000e-06	2.124071e-06	6.600484e-10	1.473350e+01	4.461506e+01
2.320000e-06	2.167681e-06	6.695862e-10	1.503600e+01	4.542267e+01
2.330000e-06	2.211175e-06	6.834129e-10	1.533770e+01	4.621270e+01
2.340000e-06	2.254563e-06	6.989974e-10	1.563865e+01	4.698562e+01
2.350000e-06	2.297847e-06	7.126518e-10	1.593889e+01	4.774191e+01
2.360000e-06	2.340978e-06	7.228712e-10	1.623807e+01	4.848208e+01
2.370000e-06	2.383893e-06	7.305302e-10	1.653574e+01	4.920664e+01
2.380000e-06	2.426551e-06	7.369173e-10	1.683164e+01	4.991610e+01
2.390000e-06	2.468958e-06	7.439758e-10	1.712579e+01	5.061100e+01
2.400000e-06	2.511028e-06	7.518215e-10	1.741761e+01	5.129185e+01
2.410000e-06	2.552727e-06	7.602133e-10	1.770685e+01	5.195917e+01
2.420000e-06	2.594101e-06	7.707855e-10	1.799384e+01	5.261346e+01
2.430000e-06	2.635175e-06	7.827588e-10	1.827875e+01	5.325521e+01
2.440000e-06	2.675922e-06	7.928625e-10	1.856139e+01	5.388489e+01
2.450000e-06	2.716461e-06	8.005939e-10	1.884259e+01	5.450296e+01
2.460000e-06	2.756803e-06	8.071087e-10	1.912242e+01	5.510983e+01
2.470000e-06	2.796901e-06	8.144210e-10	1.940056e+01	5.570593e+01
2.480000e-06	2.836835e-06	8.224468e-10	1.967755e+01	5.629162e+01
2.490000e-06	2.876599e-06	8.304708e-10	1.995338e+01	5.686725e+01
2.500000e-06	2.916247e-06	8.398947e-10	2.022839e+01	5.743313e+01
2.510000e-06	2.955796e-06	8.498521e-10	2.050272e+01	5.798956e+01
2.520000e-06	2.995263e-06	8.591053e-10	2.077648e+01	5.853680e+01
2.530000e-06	3.034542e-06	8.674345e-10	2.104894e+01	5.907505e+01
2.540000e-06	3.073567e-06	8.759701e-10	2.131963e+01	5.960453e+01
2.550000e-06	3.112358e-06	8.849763e-10	2.158870e+01	6.012540e+01
2.560000e-06	3.150884e-06	8.925224e-10	2.185593e+01	6.063779e+01
2.570000e-06	3.189211e-06	8.977980e-10	2.212179e+01	6.114182e+01
2.580000e-06	3.227357e-06	9.034561e-10	2.238639e+01	6.163756e+01
2.590000e-06	3.265288e-06	9.112961e-10	2.264950e+01	6.212509e+01
2.600000e-06	3.302988e-06	9.200810e-10	2.291100e+01	6.260443e+01
2.610000e-06	3.340488e-06	9.283581e-10	2.317112e+01	6.307562e+01
2.620000e-06	3.377756e-06	9.359391e-10	2.342963e+01	6.353865e+01
2.630000e-06	3.414720e-06	9.420683e-10	2.368602e+01	6.399352e+01
2.640000e-06	3.451412e-06	9.463873e-10	2.394053e+01	6.444021e+01
2.650000e-06	3.487848e-06	9.505071e-10	2.419327e+01	6.487869e+01
2.660000e-06	3.524014e-06	9.590772e-10	2.444413e+01	6.530893e+01
2.670000e-06	3.559949e-06	9.668011e-10	2.469340e+01	6.573089e+01
2.680000e-06	3.595721e-06	9.720733e-10	2.494152e+01	6.614453e+01
2.690000e-06	3.631378e-06	9.773436e-10	2.518886e+01	6.654984e+01
2.700000e-06	3.666949e-06	9.811148e-10	2.543560e+01	6.694676e+01
2.710000e-06	3.702435e-06	9.843838e-10	2.568174e+01	6.733530e+01
2.720000e-06	3.737726e-06	9.887395e-10	2.592653e+01	6.771544e+01
2.730000e-06	3.772691e-06	9.945418e-10	2.616907e+01	6.808718e+01
2.740000e-06	3.807310e-06	1.000228e-09	2.640920e+01	6.845054e+01
2.750000e-06	3.841602e-06	1.005842e-09	2.664707e+01	6.880555e+01
2.760000e-06	3.875393e-06	1.011059e-09	2.688145e+01	6.915226e+01
2.770000e-06	3.908580e-06	1.014706e-09	2.711165e+01	6.949074e+01
2.780000e-06	3.941309e-06	1.017083e-09	2.733868e+01	6.982107e+01
2.790000e-06	3.973653e-06	1.019760e-09	2.756303e+01	7.014337e+01
2.800000e-06	4.005756e-06	1.022235e-09	2.778571e+01	7.045774e+01
2.810000e-06	4.037643e-06	1.024663e-09	2.800689e+01	7.076435e+01
2.820000e-06	4.069285e-06	1.027349e-09	2.822637e+01	7.106334e+01
2.830000e-06	4.100784e-06	1.031491e-09	2.844487e+01	7.135491e+01
2.840000e-06	4.132152e-06	1.036712e-09	2.866245e+01	7.163924e+01
2.850000e-06	4.163310e-06	1.042403e-09	2.887858e+01	7.191657e+01
2.860000e-06	4.194207e-06	1.047565e-09	2.909289e+01	7.218710e+01
2.870000e-06	4.224739e-06	1.051986e-09	2.930467e+01	7.245110e+01
2.880000e-06	4.254916e-06	1.055018e-09	2.951400e+01	7.270881e+01
2.890000e-06	4.284799e-06	1.055068e-09	2.972127e+01	7.296050e+01
2.900000e-06	4.314368e-06	1.054278e-09	2.992638e+01	7.320644e+01
2.910000e-06	4.343626e-06	1.057264e-09	3.012933e+01	7.344691e+01
