# Temperatura_=_-35.55
# Concentracion g/m^3_=_1620.0
# C_Vs_to_Am_M_A/Vsm_=_65563218390.804596
# pendiente_HvsI_1/m_=_3716.3
# ordenada_HvsI_A/m_=_1297.0
# frecuencia_Hz_=_135104.1709962919

Tiempo_(s)	Campo_(V.s)	Magnetizacion_(V.s)	Campo_(kA/m)	Magnetizacion_(A/m)
0.000000e+00	-5.514838e-06	-7.664534e-10	-3.836538e+01	-4.961740e+01
1.000000e-08	-5.515071e-06	-7.673712e-10	-3.836700e+01	-4.967553e+01
2.000000e-08	-5.514933e-06	-7.626276e-10	-3.836604e+01	-4.973216e+01
3.000000e-08	-5.514332e-06	-7.564324e-10	-3.836186e+01	-4.978702e+01
4.000000e-08	-5.513152e-06	-7.523224e-10	-3.835365e+01	-4.983985e+01
5.000000e-08	-5.511416e-06	-7.576847e-10	-3.834158e+01	-4.989039e+01
6.000000e-08	-5.509249e-06	-7.771960e-10	-3.832650e+01	-4.993840e+01
7.000000e-08	-5.506599e-06	-8.006451e-10	-3.830806e+01	-4.998366e+01
8.000000e-08	-5.503401e-06	-7.801490e-10	-3.828582e+01	-5.002594e+01
9.000000e-08	-5.499732e-06	-7.074406e-10	-3.826029e+01	-5.006504e+01
1.000000e-07	-5.495661e-06	-6.794790e-10	-3.823197e+01	-5.010079e+01
1.100000e-07	-5.491292e-06	-7.731840e-10	-3.820158e+01	-5.013302e+01
1.200000e-07	-5.486666e-06	-8.320987e-10	-3.816939e+01	-5.016159e+01
1.300000e-07	-5.481678e-06	-7.734784e-10	-3.813470e+01	-5.018638e+01
1.400000e-07	-5.476404e-06	-7.138999e-10	-3.809801e+01	-5.020730e+01
1.500000e-07	-5.470815e-06	-7.716369e-10	-3.805912e+01	-5.022427e+01
1.600000e-07	-5.464756e-06	-8.420115e-10	-3.801697e+01	-5.023724e+01
1.700000e-07	-5.458273e-06	-7.753474e-10	-3.797187e+01	-5.024619e+01
1.800000e-07	-5.451442e-06	-6.887115e-10	-3.792435e+01	-5.025111e+01
1.900000e-07	-5.444283e-06	-7.183861e-10	-3.787455e+01	-5.025203e+01
2.000000e-07	-5.436844e-06	-7.981894e-10	-3.782279e+01	-5.024899e+01
2.100000e-07	-5.429102e-06	-8.028850e-10	-3.776893e+01	-5.024207e+01
2.200000e-07	-5.421029e-06	-7.566293e-10	-3.771277e+01	-5.023137e+01
2.300000e-07	-5.412625e-06	-7.534574e-10	-3.765431e+01	-5.021698e+01
2.400000e-07	-5.403729e-06	-7.801562e-10	-3.759242e+01	-5.019906e+01
2.500000e-07	-5.394212e-06	-7.680692e-10	-3.752621e+01	-5.017775e+01
2.600000e-07	-5.384071e-06	-7.350941e-10	-3.745567e+01	-5.015323e+01
2.700000e-07	-5.373354e-06	-7.332017e-10	-3.738111e+01	-5.012568e+01
2.800000e-07	-5.362099e-06	-7.471529e-10	-3.730281e+01	-5.009532e+01
2.900000e-07	-5.350435e-06	-7.385327e-10	-3.722167e+01	-5.006235e+01
3.000000e-07	-5.338452e-06	-7.210404e-10	-3.713831e+01	-5.002700e+01
3.100000e-07	-5.326072e-06	-7.241169e-10	-3.705218e+01	-4.998952e+01
3.200000e-07	-5.313270e-06	-7.473340e-10	-3.696312e+01	-4.995013e+01
3.300000e-07	-5.300077e-06	-7.414028e-10	-3.687134e+01	-4.990910e+01
3.400000e-07	-5.286462e-06	-7.112376e-10	-3.677662e+01	-4.986668e+01
3.500000e-07	-5.272350e-06	-7.097755e-10	-3.667845e+01	-4.982311e+01
3.600000e-07	-5.257802e-06	-7.303478e-10	-3.657725e+01	-4.977864e+01
3.700000e-07	-5.242909e-06	-7.178846e-10	-3.647363e+01	-4.973352e+01
3.800000e-07	-5.227515e-06	-7.100488e-10	-3.636654e+01	-4.968800e+01
3.900000e-07	-5.211621e-06	-7.398479e-10	-3.625597e+01	-4.964231e+01
4.000000e-07	-5.195326e-06	-7.281440e-10	-3.614261e+01	-4.959667e+01
4.100000e-07	-5.178604e-06	-6.945862e-10	-3.602628e+01	-4.955129e+01
4.200000e-07	-5.161522e-06	-7.291577e-10	-3.590745e+01	-4.950638e+01
4.300000e-07	-5.144143e-06	-7.601187e-10	-3.578654e+01	-4.946213e+01
4.400000e-07	-5.126527e-06	-7.029290e-10	-3.566400e+01	-4.941870e+01
4.500000e-07	-5.108556e-06	-6.854934e-10	-3.553898e+01	-4.937626e+01
4.600000e-07	-5.090019e-06	-7.464426e-10	-3.541002e+01	-4.933493e+01
4.700000e-07	-5.071099e-06	-7.349346e-10	-3.527840e+01	-4.929483e+01
4.800000e-07	-5.051985e-06	-6.923052e-10	-3.514543e+01	-4.925608e+01
4.900000e-07	-5.032643e-06	-7.318185e-10	-3.501087e+01	-4.921873e+01
5.000000e-07	-5.013023e-06	-7.479277e-10	-3.487438e+01	-4.918286e+01
5.100000e-07	-4.993031e-06	-6.941675e-10	-3.473530e+01	-4.914849e+01
5.200000e-07	-4.972692e-06	-7.162741e-10	-3.459380e+01	-4.911565e+01
5.300000e-07	-4.952054e-06	-7.547050e-10	-3.445023e+01	-4.908433e+01
5.400000e-07	-4.931091e-06	-7.028807e-10	-3.430440e+01	-4.905450e+01
5.500000e-07	-4.909766e-06	-6.863959e-10	-3.415604e+01	-4.902612e+01
5.600000e-07	-4.888071e-06	-7.463735e-10	-3.400511e+01	-4.899912e+01
5.700000e-07	-4.866090e-06	-7.367487e-10	-3.385220e+01	-4.897342e+01
5.800000e-07	-4.843780e-06	-7.011467e-10	-3.369699e+01	-4.894892e+01
5.900000e-07	-4.821134e-06	-7.365351e-10	-3.353945e+01	-4.892550e+01
6.000000e-07	-4.798179e-06	-7.433241e-10	-3.337976e+01	-4.890302e+01
6.100000e-07	-4.774914e-06	-7.027875e-10	-3.321791e+01	-4.888133e+01
6.200000e-07	-4.751421e-06	-7.187862e-10	-3.305447e+01	-4.886028e+01
6.300000e-07	-4.727683e-06	-7.436420e-10	-3.288934e+01	-4.883967e+01
6.400000e-07	-4.703620e-06	-7.212536e-10	-3.272193e+01	-4.881934e+01
6.500000e-07	-4.679193e-06	-7.221355e-10	-3.255200e+01	-4.879907e+01
6.600000e-07	-4.654303e-06	-7.413720e-10	-3.237885e+01	-4.877868e+01
6.700000e-07	-4.628841e-06	-7.223049e-10	-3.220172e+01	-4.875793e+01
6.800000e-07	-4.602830e-06	-7.095829e-10	-3.202076e+01	-4.873663e+01
6.900000e-07	-4.576263e-06	-7.263919e-10	-3.183594e+01	-4.871456e+01
7.000000e-07	-4.549251e-06	-7.221603e-10	-3.164802e+01	-4.869149e+01
7.100000e-07	-4.521986e-06	-7.113017e-10	-3.145835e+01	-4.866719e+01
7.200000e-07	-4.494493e-06	-7.251551e-10	-3.126709e+01	-4.864147e+01
7.300000e-07	-4.466793e-06	-7.312225e-10	-3.107439e+01	-4.861409e+01
7.400000e-07	-4.438913e-06	-7.193077e-10	-3.088043e+01	-4.858484e+01
7.500000e-07	-4.410802e-06	-7.194350e-10	-3.068487e+01	-4.855352e+01
7.600000e-07	-4.382428e-06	-7.220454e-10	-3.048748e+01	-4.851993e+01
7.700000e-07	-4.353763e-06	-7.175795e-10	-3.028806e+01	-4.848387e+01
7.800000e-07	-4.324793e-06	-7.188876e-10	-3.008653e+01	-4.844516e+01
7.900000e-07	-4.295541e-06	-7.214440e-10	-2.988303e+01	-4.840361e+01
8.000000e-07	-4.265986e-06	-7.111238e-10	-2.967742e+01	-4.835908e+01
8.100000e-07	-4.236099e-06	-7.045076e-10	-2.946951e+01	-4.831139e+01
8.200000e-07	-4.205848e-06	-7.077297e-10	-2.925906e+01	-4.826041e+01
8.300000e-07	-4.175271e-06	-7.027799e-10	-2.904634e+01	-4.820602e+01
8.400000e-07	-4.144480e-06	-6.960686e-10	-2.883214e+01	-4.814808e+01
8.500000e-07	-4.113468e-06	-7.025037e-10	-2.861639e+01	-4.808649e+01
8.600000e-07	-4.082278e-06	-7.056013e-10	-2.839941e+01	-4.802117e+01
8.700000e-07	-4.050847e-06	-6.997712e-10	-2.818075e+01	-4.795203e+01
8.800000e-07	-4.019179e-06	-6.997897e-10	-2.796045e+01	-4.787900e+01
8.900000e-07	-3.987327e-06	-7.004457e-10	-2.773886e+01	-4.780204e+01
9.000000e-07	-3.955175e-06	-6.906124e-10	-2.751518e+01	-4.772109e+01
9.100000e-07	-3.922703e-06	-6.856629e-10	-2.728929e+01	-4.763614e+01
9.200000e-07	-3.889886e-06	-6.883620e-10	-2.706099e+01	-4.754717e+01
9.300000e-07	-3.856580e-06	-6.834885e-10	-2.682928e+01	-4.745416e+01
9.400000e-07	-3.822776e-06	-6.780417e-10	-2.659412e+01	-4.735713e+01
9.500000e-07	-3.788697e-06	-6.821328e-10	-2.635704e+01	-4.725609e+01
9.600000e-07	-3.754324e-06	-6.821470e-10	-2.611791e+01	-4.715107e+01
9.700000e-07	-3.719514e-06	-6.751198e-10	-2.587575e+01	-4.704209e+01
9.800000e-07	-3.684325e-06	-6.750517e-10	-2.563095e+01	-4.692921e+01
9.900000e-07	-3.648857e-06	-6.760506e-10	-2.538420e+01	-4.681248e+01
1.000000e-06	-3.613248e-06	-6.704157e-10	-2.513649e+01	-4.669194e+01
1.010000e-06	-3.577571e-06	-6.693714e-10	-2.488829e+01	-4.656766e+01
1.020000e-06	-3.541764e-06	-6.737332e-10	-2.463919e+01	-4.643970e+01
1.030000e-06	-3.505805e-06	-6.715434e-10	-2.438903e+01	-4.630815e+01
1.040000e-06	-3.469587e-06	-6.689434e-10	-2.413707e+01	-4.617306e+01
1.050000e-06	-3.433101e-06	-6.729611e-10	-2.388324e+01	-4.603451e+01
1.060000e-06	-3.396336e-06	-6.738811e-10	-2.362748e+01	-4.589259e+01
1.070000e-06	-3.359186e-06	-6.692723e-10	-2.336904e+01	-4.574736e+01
1.080000e-06	-3.321756e-06	-6.680153e-10	-2.310865e+01	-4.559890e+01
1.090000e-06	-3.284149e-06	-6.666956e-10	-2.284702e+01	-4.544729e+01
1.100000e-06	-3.246335e-06	-6.615707e-10	-2.258396e+01	-4.529258e+01
1.110000e-06	-3.208367e-06	-6.577252e-10	-2.231983e+01	-4.513487e+01
1.120000e-06	-3.170183e-06	-6.592184e-10	-2.205419e+01	-4.497419e+01
1.130000e-06	-3.131770e-06	-6.610478e-10	-2.178696e+01	-4.481062e+01
1.140000e-06	-3.093148e-06	-6.603960e-10	-2.151827e+01	-4.464420e+01
1.150000e-06	-3.054261e-06	-6.609024e-10	-2.124775e+01	-4.447498e+01
1.160000e-06	-3.015201e-06	-6.600017e-10	-2.097601e+01	-4.430300e+01
1.170000e-06	-2.975996e-06	-6.567406e-10	-2.070327e+01	-4.412828e+01
1.180000e-06	-2.936649e-06	-6.551095e-10	-2.042955e+01	-4.395086e+01
1.190000e-06	-2.897109e-06	-6.533654e-10	-2.015448e+01	-4.377074e+01
1.200000e-06	-2.857437e-06	-6.498968e-10	-1.987849e+01	-4.358792e+01
1.210000e-06	-2.817684e-06	-6.461830e-10	-1.960194e+01	-4.340240e+01
1.220000e-06	-2.777790e-06	-6.420983e-10	-1.932440e+01	-4.321416e+01
1.230000e-06	-2.737800e-06	-6.353770e-10	-1.904620e+01	-4.302317e+01
1.240000e-06	-2.697521e-06	-6.316843e-10	-1.876600e+01	-4.282939e+01
1.250000e-06	-2.656935e-06	-6.342251e-10	-1.848365e+01	-4.263276e+01
1.260000e-06	-2.616181e-06	-6.343986e-10	-1.820013e+01	-4.243322e+01
1.270000e-06	-2.575141e-06	-6.303562e-10	-1.791463e+01	-4.223070e+01
1.280000e-06	-2.533772e-06	-6.258043e-10	-1.762683e+01	-4.202510e+01
1.290000e-06	-2.492113e-06	-6.207200e-10	-1.733702e+01	-4.181632e+01
1.300000e-06	-2.450186e-06	-6.146765e-10	-1.704535e+01	-4.160424e+01
1.310000e-06	-2.407965e-06	-6.096480e-10	-1.675162e+01	-4.138873e+01
1.320000e-06	-2.365376e-06	-6.079034e-10	-1.645534e+01	-4.116966e+01
1.330000e-06	-2.322484e-06	-6.061757e-10	-1.615695e+01	-4.094687e+01
1.340000e-06	-2.279432e-06	-6.033851e-10	-1.585745e+01	-4.072018e+01
1.350000e-06	-2.236210e-06	-6.015839e-10	-1.555676e+01	-4.048943e+01
1.360000e-06	-2.192809e-06	-5.978987e-10	-1.525484e+01	-4.025441e+01
1.370000e-06	-2.149291e-06	-5.917806e-10	-1.495209e+01	-4.001492e+01
1.380000e-06	-2.105699e-06	-5.853135e-10	-1.464883e+01	-3.977074e+01
1.390000e-06	-2.062069e-06	-5.793556e-10	-1.434531e+01	-3.952165e+01
1.400000e-06	-2.018388e-06	-5.728014e-10	-1.404143e+01	-3.926740e+01
1.410000e-06	-1.974577e-06	-5.669361e-10	-1.373665e+01	-3.900775e+01
1.420000e-06	-1.930679e-06	-5.626566e-10	-1.343126e+01	-3.874243e+01
1.430000e-06	-1.886731e-06	-5.592827e-10	-1.312553e+01	-3.847117e+01
1.440000e-06	-1.842694e-06	-5.552116e-10	-1.281917e+01	-3.819370e+01
1.450000e-06	-1.798529e-06	-5.499439e-10	-1.251192e+01	-3.790974e+01
1.460000e-06	-1.754228e-06	-5.446110e-10	-1.220374e+01	-3.761897e+01
1.470000e-06	-1.709842e-06	-5.382612e-10	-1.189496e+01	-3.732112e+01
1.480000e-06	-1.665376e-06	-5.313136e-10	-1.158561e+01	-3.701588e+01
1.490000e-06	-1.620742e-06	-5.259574e-10	-1.127510e+01	-3.670293e+01
1.500000e-06	-1.575892e-06	-5.208326e-10	-1.096310e+01	-3.638197e+01
1.510000e-06	-1.530914e-06	-5.135713e-10	-1.065019e+01	-3.605268e+01
1.520000e-06	-1.485832e-06	-5.064092e-10	-1.033657e+01	-3.571475e+01
1.530000e-06	-1.440610e-06	-5.007197e-10	-1.002197e+01	-3.536788e+01
1.540000e-06	-1.395347e-06	-4.962782e-10	-9.707090e+00	-3.501174e+01
1.550000e-06	-1.350067e-06	-4.916567e-10	-9.392089e+00	-3.464603e+01
1.560000e-06	-1.304687e-06	-4.858966e-10	-9.076389e+00	-3.427045e+01
1.570000e-06	-1.259189e-06	-4.792816e-10	-8.759871e+00	-3.388470e+01
1.580000e-06	-1.213549e-06	-4.710839e-10	-8.442363e+00	-3.348849e+01
1.590000e-06	-1.167795e-06	-4.620540e-10	-8.124066e+00	-3.308154e+01
1.600000e-06	-1.121982e-06	-4.538296e-10	-7.805357e+00	-3.266358e+01
1.610000e-06	-1.076056e-06	-4.449409e-10	-7.485860e+00	-3.223436e+01
1.620000e-06	-1.030075e-06	-4.348557e-10	-7.165982e+00	-3.179362e+01
1.630000e-06	-9.840333e-07	-4.278903e-10	-6.845679e+00	-3.134113e+01
1.640000e-06	-9.378290e-07	-4.236322e-10	-6.524247e+00	-3.087668e+01
1.650000e-06	-8.916018e-07	-4.183287e-10	-6.202656e+00	-3.040007e+01
1.660000e-06	-8.454222e-07	-4.121761e-10	-5.881395e+00	-2.991111e+01
1.670000e-06	-7.991726e-07	-4.053711e-10	-5.559648e+00	-2.940965e+01
1.680000e-06	-7.528042e-07	-3.979176e-10	-5.237075e+00	-2.889555e+01
1.690000e-06	-7.063899e-07	-3.897513e-10	-4.914182e+00	-2.836868e+01
1.700000e-06	-6.599322e-07	-3.809809e-10	-4.590987e+00	-2.782894e+01
1.710000e-06	-6.134238e-07	-3.703274e-10	-4.267440e+00	-2.727628e+01
1.720000e-06	-5.668818e-07	-3.594002e-10	-3.943658e+00	-2.671063e+01
1.730000e-06	-5.203565e-07	-3.499140e-10	-3.619993e+00	-2.613197e+01
1.740000e-06	-4.738345e-07	-3.412453e-10	-3.296351e+00	-2.554031e+01
1.750000e-06	-4.272306e-07	-3.349638e-10	-2.972139e+00	-2.493567e+01
1.760000e-06	-3.805502e-07	-3.295734e-10	-2.647395e+00	-2.431812e+01
1.770000e-06	-3.337653e-07	-3.216098e-10	-2.321924e+00	-2.368772e+01
1.780000e-06	-2.869566e-07	-3.102227e-10	-1.996287e+00	-2.304460e+01
1.790000e-06	-2.401762e-07	-2.981434e-10	-1.670847e+00	-2.238889e+01
1.800000e-06	-1.933612e-07	-2.872956e-10	-1.345167e+00	-2.172076e+01
1.810000e-06	-1.465826e-07	-2.760707e-10	-1.019739e+00	-2.104039e+01
1.820000e-06	-9.985369e-08	-2.653165e-10	-6.946577e-01	-2.034800e+01
1.830000e-06	-5.311550e-08	-2.555529e-10	-3.695116e-01	-1.964385e+01
1.840000e-06	-6.411669e-09	-2.462571e-10	-4.460441e-02	-1.892820e+01
1.850000e-06	4.032794e-08	-2.376373e-10	2.805516e-01	-1.820135e+01
1.860000e-06	8.719029e-08	-2.279585e-10	6.065616e-01	-1.746362e+01
1.870000e-06	1.340481e-07	-2.162085e-10	9.325400e-01	-1.671536e+01
1.880000e-06	1.808499e-07	-2.045370e-10	1.258129e+00	-1.595693e+01
1.890000e-06	2.276553e-07	-1.949534e-10	1.583743e+00	-1.518872e+01
1.900000e-06	2.744395e-07	-1.858490e-10	1.909208e+00	-1.441115e+01
1.910000e-06	3.211704e-07	-1.760841e-10	2.234304e+00	-1.362464e+01
1.920000e-06	3.678664e-07	-1.649889e-10	2.559156e+00	-1.282965e+01
1.930000e-06	4.145108e-07	-1.527251e-10	2.883650e+00	-1.202664e+01
1.940000e-06	4.610784e-07	-1.414292e-10	3.207610e+00	-1.121609e+01
1.950000e-06	5.076178e-07	-1.306505e-10	3.531373e+00	-1.039850e+01
1.960000e-06	5.540997e-07	-1.200332e-10	3.854736e+00	-9.574379e+00
1.970000e-06	6.005430e-07	-1.089012e-10	4.177831e+00	-8.744242e+00
1.980000e-06	6.470217e-07	-9.713431e-11	4.501171e+00	-7.908623e+00
1.990000e-06	6.934709e-07	-8.665419e-11	4.824308e+00	-7.068059e+00
2.000000e-06	7.398648e-07	-7.528310e-11	5.147058e+00	-6.223096e+00
2.010000e-06	7.861415e-07	-6.323584e-11	5.468994e+00	-5.374285e+00
2.020000e-06	8.322972e-07	-5.127189e-11	5.790088e+00	-4.522181e+00
2.030000e-06	8.783739e-07	-3.814862e-11	6.110632e+00	-3.667342e+00
2.040000e-06	9.244008e-07	-2.475913e-11	6.430830e+00	-2.810327e+00
2.050000e-06	9.704135e-07	-1.298163e-11	6.750929e+00	-1.951694e+00
2.060000e-06	1.016320e-06	-2.158192e-12	7.070289e+00	-1.092001e+00
2.070000e-06	1.062151e-06	9.075408e-12	7.389125e+00	-2.318018e-01
2.080000e-06	1.107935e-06	1.853338e-11	7.707636e+00	6.283523e-01
2.090000e-06	1.153644e-06	3.013425e-11	8.025620e+00	1.487916e+00
2.100000e-06	1.199307e-06	4.437730e-11	8.343285e+00	2.346349e+00
2.110000e-06	1.244901e-06	6.019924e-11	8.660474e+00	3.203118e+00
2.120000e-06	1.290397e-06	7.513420e-11	8.976973e+00	4.057701e+00
2.130000e-06	1.335831e-06	8.785263e-11	9.293052e+00	4.909579e+00
2.140000e-06	1.381138e-06	9.886896e-11	9.608242e+00	5.758248e+00
2.150000e-06	1.426334e-06	1.084408e-10	9.922655e+00	6.603212e+00
2.160000e-06	1.471555e-06	1.187608e-10	1.023725e+01	7.443986e+00
2.170000e-06	1.516688e-06	1.305854e-10	1.055123e+01	8.280096e+00
2.180000e-06	1.561632e-06	1.446848e-10	1.086390e+01	9.111082e+00
2.190000e-06	1.606423e-06	1.595559e-10	1.117549e+01	9.936495e+00
2.200000e-06	1.651078e-06	1.730140e-10	1.148614e+01	1.075590e+01
2.210000e-06	1.695590e-06	1.837883e-10	1.179581e+01	1.156888e+01
2.220000e-06	1.739973e-06	1.927270e-10	1.210456e+01	1.237501e+01
2.230000e-06	1.784254e-06	2.016027e-10	1.241262e+01	1.317391e+01
2.240000e-06	1.828445e-06	2.121460e-10	1.272005e+01	1.396520e+01
2.250000e-06	1.872477e-06	2.242642e-10	1.302636e+01	1.474852e+01
2.260000e-06	1.916349e-06	2.370714e-10	1.333157e+01	1.552350e+01
2.270000e-06	1.960143e-06	2.487355e-10	1.363623e+01	1.628981e+01
2.280000e-06	2.003844e-06	2.586199e-10	1.394026e+01	1.704713e+01
2.290000e-06	2.047486e-06	2.674369e-10	1.424386e+01	1.779516e+01
2.300000e-06	2.091061e-06	2.782733e-10	1.454700e+01	1.853360e+01
2.310000e-06	2.134550e-06	2.901436e-10	1.484954e+01	1.926217e+01
2.320000e-06	2.177984e-06	3.029270e-10	1.515171e+01	1.998062e+01
2.330000e-06	2.221387e-06	3.153024e-10	1.545365e+01	2.068870e+01
2.340000e-06	2.264674e-06	3.249813e-10	1.575478e+01	2.138617e+01
2.350000e-06	2.307744e-06	3.322557e-10	1.605441e+01	2.207282e+01
2.360000e-06	2.350557e-06	3.387910e-10	1.635225e+01	2.274846e+01
2.370000e-06	2.393074e-06	3.461539e-10	1.664803e+01	2.341289e+01
2.380000e-06	2.435266e-06	3.546987e-10	1.694155e+01	2.406596e+01
2.390000e-06	2.477212e-06	3.633070e-10	1.723336e+01	2.470750e+01
2.400000e-06	2.519054e-06	3.726216e-10	1.752444e+01	2.533739e+01
2.410000e-06	2.560522e-06	3.830188e-10	1.781292e+01	2.595550e+01
2.420000e-06	2.601580e-06	3.925749e-10	1.809856e+01	2.656174e+01
2.430000e-06	2.642422e-06	3.993584e-10	1.838268e+01	2.715602e+01
2.440000e-06	2.682966e-06	4.037008e-10	1.866474e+01	2.773826e+01
2.450000e-06	2.723269e-06	4.079870e-10	1.894512e+01	2.830842e+01
2.460000e-06	2.763387e-06	4.131826e-10	1.922421e+01	2.886647e+01
2.470000e-06	2.803321e-06	4.200642e-10	1.950202e+01	2.941238e+01
2.480000e-06	2.843145e-06	4.280609e-10	1.977906e+01	2.994615e+01
2.490000e-06	2.882845e-06	4.370111e-10	2.005525e+01	3.046781e+01
2.500000e-06	2.922345e-06	4.447221e-10	2.033004e+01	3.097739e+01
2.510000e-06	2.961694e-06	4.517344e-10	2.060378e+01	3.147494e+01
2.520000e-06	3.000880e-06	4.591824e-10	2.087639e+01	3.196053e+01
2.530000e-06	3.039876e-06	4.657934e-10	2.114768e+01	3.243425e+01
2.540000e-06	3.078711e-06	4.715375e-10	2.141784e+01	3.289621e+01
2.550000e-06	3.117293e-06	4.772882e-10	2.168624e+01	3.334651e+01
2.560000e-06	3.155619e-06	4.818391e-10	2.195287e+01	3.378530e+01
2.570000e-06	3.193751e-06	4.861041e-10	2.221815e+01	3.421274e+01
2.580000e-06	3.231680e-06	4.928229e-10	2.248201e+01	3.462898e+01
2.590000e-06	3.269392e-06	5.004006e-10	2.274436e+01	3.503422e+01
2.600000e-06	3.306902e-06	5.059586e-10	2.300531e+01	3.542865e+01
2.610000e-06	3.344155e-06	5.109364e-10	2.326447e+01	3.581249e+01
2.620000e-06	3.381150e-06	5.174256e-10	2.352183e+01	3.618595e+01
2.630000e-06	3.417907e-06	5.238210e-10	2.377754e+01	3.654927e+01
2.640000e-06	3.454411e-06	5.286677e-10	2.403150e+01	3.690271e+01
2.650000e-06	3.490769e-06	5.342975e-10	2.428443e+01	3.724652e+01
2.660000e-06	3.526940e-06	5.392271e-10	2.453606e+01	3.758095e+01
2.670000e-06	3.562858e-06	5.414861e-10	2.478593e+01	3.790630e+01
2.680000e-06	3.598567e-06	5.440778e-10	2.503435e+01	3.822283e+01
2.690000e-06	3.634138e-06	5.463669e-10	2.528181e+01	3.853084e+01
2.700000e-06	3.669558e-06	5.491571e-10	2.552822e+01	3.883061e+01
2.710000e-06	3.704820e-06	5.549958e-10	2.577352e+01	3.912243e+01
2.720000e-06	3.739869e-06	5.617602e-10	2.601735e+01	3.940659e+01
2.730000e-06	3.774485e-06	5.682844e-10	2.625817e+01	3.968339e+01
2.740000e-06	3.808740e-06	5.740821e-10	2.649647e+01	3.995312e+01
2.750000e-06	3.842634e-06	5.770297e-10	2.673226e+01	4.021607e+01
2.760000e-06	3.876037e-06	5.775846e-10	2.696464e+01	4.047251e+01
2.770000e-06	3.908956e-06	5.783836e-10	2.719365e+01	4.072272e+01
2.780000e-06	3.941497e-06	5.802328e-10	2.742003e+01	4.096697e+01
2.790000e-06	3.973765e-06	5.842746e-10	2.764451e+01	4.120552e+01
2.800000e-06	4.005751e-06	5.911764e-10	2.786703e+01	4.143862e+01
2.810000e-06	4.037502e-06	5.974101e-10	2.808791e+01	4.166651e+01
2.820000e-06	4.069054e-06	6.012790e-10	2.830741e+01	4.188941e+01
2.830000e-06	4.100466e-06	6.043313e-10	2.852594e+01	4.210753e+01
2.840000e-06	4.131693e-06	6.075679e-10	2.874318e+01	4.232108e+01
2.850000e-06	4.162598e-06	6.094386e-10	2.895818e+01	4.253023e+01
2.860000e-06	4.193181e-06	6.103903e-10	2.917093e+01	4.273516e+01
2.870000e-06	4.223503e-06	6.129531e-10	2.938188e+01	4.293602e+01
2.880000e-06	4.253497e-06	6.159085e-10	2.959054e+01	4.313293e+01
2.890000e-06	4.283193e-06	6.169917e-10	2.979712e+01	4.332602e+01
2.900000e-06	4.312618e-06	6.185348e-10	3.000183e+01	4.351538e+01
