# Temperatura_=_-0.33
# Concentracion g/m^3_=_1620.0
# C_Vs_to_Am_M_A/Vsm_=_65563218390.804596
# pendiente_HvsI_1/m_=_3716.3
# ordenada_HvsI_A/m_=_1297.0
# frecuencia_Hz_=_135088.26011362748

Tiempo_(s)	Campo_(V.s)	Magnetizacion_(V.s)	Campo_(kA/m)	Magnetizacion_(A/m)
0.000000e+00	-5.515815e-06	-1.767420e-09	-3.837906e+01	-1.125389e+02
1.000000e-08	-5.516007e-06	-1.763617e-09	-3.838040e+01	-1.125030e+02
2.000000e-08	-5.515891e-06	-1.761015e-09	-3.837960e+01	-1.124631e+02
3.000000e-08	-5.515343e-06	-1.761949e-09	-3.837578e+01	-1.124191e+02
4.000000e-08	-5.514347e-06	-1.762580e-09	-3.836885e+01	-1.123710e+02
5.000000e-08	-5.512741e-06	-1.760641e-09	-3.835767e+01	-1.123188e+02
6.000000e-08	-5.510510e-06	-1.752211e-09	-3.834215e+01	-1.122626e+02
7.000000e-08	-5.507768e-06	-1.747331e-09	-3.832307e+01	-1.122023e+02
8.000000e-08	-5.504488e-06	-1.806496e-09	-3.830025e+01	-1.121381e+02
9.000000e-08	-5.500722e-06	-1.832359e-09	-3.827405e+01	-1.120699e+02
1.000000e-07	-5.496519e-06	-1.732886e-09	-3.824480e+01	-1.119978e+02
1.100000e-07	-5.492173e-06	-1.660170e-09	-3.821456e+01	-1.119218e+02
1.200000e-07	-5.487761e-06	-1.757928e-09	-3.818386e+01	-1.118421e+02
1.300000e-07	-5.482897e-06	-1.809694e-09	-3.815002e+01	-1.117587e+02
1.400000e-07	-5.477559e-06	-1.740619e-09	-3.811288e+01	-1.116716e+02
1.500000e-07	-5.471931e-06	-1.653191e-09	-3.807372e+01	-1.115810e+02
1.600000e-07	-5.466043e-06	-1.793414e-09	-3.803275e+01	-1.114869e+02
1.700000e-07	-5.459624e-06	-1.813307e-09	-3.798809e+01	-1.113894e+02
1.800000e-07	-5.452652e-06	-1.744002e-09	-3.793958e+01	-1.112886e+02
1.900000e-07	-5.445481e-06	-1.626580e-09	-3.788968e+01	-1.111846e+02
2.000000e-07	-5.438123e-06	-1.707055e-09	-3.783848e+01	-1.110775e+02
2.100000e-07	-5.430407e-06	-1.727309e-09	-3.778480e+01	-1.109673e+02
2.200000e-07	-5.422381e-06	-1.701525e-09	-3.772895e+01	-1.108541e+02
2.300000e-07	-5.414054e-06	-1.637211e-09	-3.767101e+01	-1.107381e+02
2.400000e-07	-5.405285e-06	-1.654389e-09	-3.760999e+01	-1.106193e+02
2.500000e-07	-5.395782e-06	-1.665432e-09	-3.754387e+01	-1.104977e+02
2.600000e-07	-5.385545e-06	-1.644461e-09	-3.747264e+01	-1.103735e+02
2.700000e-07	-5.374811e-06	-1.643286e-09	-3.739796e+01	-1.102466e+02
2.800000e-07	-5.363555e-06	-1.627647e-09	-3.731964e+01	-1.101172e+02
2.900000e-07	-5.351897e-06	-1.641102e-09	-3.723852e+01	-1.099852e+02
3.000000e-07	-5.339959e-06	-1.619178e-09	-3.715546e+01	-1.098507e+02
3.100000e-07	-5.327677e-06	-1.639547e-09	-3.707000e+01	-1.097136e+02
3.200000e-07	-5.314817e-06	-1.582865e-09	-3.698052e+01	-1.095740e+02
3.300000e-07	-5.301490e-06	-1.638445e-09	-3.688779e+01	-1.094319e+02
3.400000e-07	-5.287919e-06	-1.617091e-09	-3.679336e+01	-1.092872e+02
3.500000e-07	-5.274057e-06	-1.616587e-09	-3.669691e+01	-1.091398e+02
3.600000e-07	-5.259730e-06	-1.590667e-09	-3.659722e+01	-1.089897e+02
3.700000e-07	-5.244999e-06	-1.650409e-09	-3.649473e+01	-1.088368e+02
3.800000e-07	-5.229651e-06	-1.577604e-09	-3.638793e+01	-1.086811e+02
3.900000e-07	-5.213589e-06	-1.583815e-09	-3.627617e+01	-1.085223e+02
4.000000e-07	-5.197187e-06	-1.627659e-09	-3.616205e+01	-1.083604e+02
4.100000e-07	-5.180497e-06	-1.614692e-09	-3.604592e+01	-1.081951e+02
4.200000e-07	-5.163434e-06	-1.530711e-09	-3.592719e+01	-1.080265e+02
4.300000e-07	-5.146095e-06	-1.613404e-09	-3.580655e+01	-1.078542e+02
4.400000e-07	-5.128447e-06	-1.641512e-09	-3.568375e+01	-1.076782e+02
4.500000e-07	-5.110364e-06	-1.544400e-09	-3.555793e+01	-1.074981e+02
4.600000e-07	-5.091847e-06	-1.543168e-09	-3.542909e+01	-1.073138e+02
4.700000e-07	-5.072886e-06	-1.643230e-09	-3.529716e+01	-1.071252e+02
4.800000e-07	-5.053491e-06	-1.568675e-09	-3.516221e+01	-1.069319e+02
4.900000e-07	-5.033832e-06	-1.508556e-09	-3.502543e+01	-1.067338e+02
5.000000e-07	-5.014062e-06	-1.598355e-09	-3.488786e+01	-1.065305e+02
5.100000e-07	-4.994108e-06	-1.581286e-09	-3.474902e+01	-1.063220e+02
5.200000e-07	-4.973881e-06	-1.492348e-09	-3.460828e+01	-1.061080e+02
5.300000e-07	-4.953304e-06	-1.564864e-09	-3.446511e+01	-1.058882e+02
5.400000e-07	-4.932349e-06	-1.608465e-09	-3.431931e+01	-1.056625e+02
5.500000e-07	-4.911034e-06	-1.495366e-09	-3.417100e+01	-1.054305e+02
5.600000e-07	-4.889357e-06	-1.518891e-09	-3.402017e+01	-1.051922e+02
5.700000e-07	-4.867284e-06	-1.593385e-09	-3.386658e+01	-1.049473e+02
5.800000e-07	-4.844950e-06	-1.525918e-09	-3.371118e+01	-1.046956e+02
5.900000e-07	-4.822300e-06	-1.481940e-09	-3.355359e+01	-1.044370e+02
6.000000e-07	-4.799307e-06	-1.571123e-09	-3.339360e+01	-1.041712e+02
6.100000e-07	-4.775977e-06	-1.537171e-09	-3.323127e+01	-1.038982e+02
6.200000e-07	-4.752395e-06	-1.485696e-09	-3.306718e+01	-1.036179e+02
6.300000e-07	-4.728703e-06	-1.526550e-09	-3.290233e+01	-1.033300e+02
6.400000e-07	-4.704722e-06	-1.539736e-09	-3.273547e+01	-1.030346e+02
6.500000e-07	-4.680350e-06	-1.468651e-09	-3.256589e+01	-1.027315e+02
6.600000e-07	-4.655495e-06	-1.497239e-09	-3.239295e+01	-1.024206e+02
6.700000e-07	-4.630126e-06	-1.513212e-09	-3.221644e+01	-1.021021e+02
6.800000e-07	-4.604141e-06	-1.476880e-09	-3.203563e+01	-1.017758e+02
6.900000e-07	-4.577556e-06	-1.465785e-09	-3.185066e+01	-1.014417e+02
7.000000e-07	-4.550612e-06	-1.501198e-09	-3.166318e+01	-1.011000e+02
7.100000e-07	-4.523279e-06	-1.464366e-09	-3.147299e+01	-1.007505e+02
7.200000e-07	-4.495634e-06	-1.448179e-09	-3.128064e+01	-1.003934e+02
7.300000e-07	-4.467902e-06	-1.463469e-09	-3.108768e+01	-1.000288e+02
7.400000e-07	-4.440067e-06	-1.457520e-09	-3.089401e+01	-9.965678e+01
7.500000e-07	-4.412048e-06	-1.431526e-09	-3.069905e+01	-9.927741e+01
7.600000e-07	-4.383720e-06	-1.446137e-09	-3.050194e+01	-9.889083e+01
7.700000e-07	-4.354989e-06	-1.443047e-09	-3.030203e+01	-9.849720e+01
7.800000e-07	-4.325934e-06	-1.421433e-09	-3.009987e+01	-9.809664e+01
7.900000e-07	-4.296576e-06	-1.420750e-09	-2.989559e+01	-9.768934e+01
8.000000e-07	-4.266919e-06	-1.418761e-09	-2.968924e+01	-9.727544e+01
8.100000e-07	-4.237032e-06	-1.391957e-09	-2.948128e+01	-9.685513e+01
8.200000e-07	-4.206878e-06	-1.381090e-09	-2.927148e+01	-9.642858e+01
8.300000e-07	-4.176425e-06	-1.391039e-09	-2.905959e+01	-9.599596e+01
8.400000e-07	-4.145712e-06	-1.376224e-09	-2.884588e+01	-9.555745e+01
8.500000e-07	-4.114654e-06	-1.366737e-09	-2.862978e+01	-9.511323e+01
8.600000e-07	-4.083327e-06	-1.370841e-09	-2.841181e+01	-9.466347e+01
8.700000e-07	-4.051839e-06	-1.366426e-09	-2.819271e+01	-9.420834e+01
8.800000e-07	-4.020121e-06	-1.345053e-09	-2.797202e+01	-9.374799e+01
8.900000e-07	-3.988272e-06	-1.347875e-09	-2.775041e+01	-9.328258e+01
9.000000e-07	-3.956235e-06	-1.336365e-09	-2.752750e+01	-9.281225e+01
9.100000e-07	-3.923930e-06	-1.318568e-09	-2.730272e+01	-9.233712e+01
9.200000e-07	-3.891265e-06	-1.311093e-09	-2.707544e+01	-9.185732e+01
9.300000e-07	-3.858224e-06	-1.320517e-09	-2.684554e+01	-9.137295e+01
9.400000e-07	-3.824763e-06	-1.304139e-09	-2.661272e+01	-9.088409e+01
9.500000e-07	-3.790756e-06	-1.296800e-09	-2.637610e+01	-9.039082e+01
9.600000e-07	-3.756302e-06	-1.294748e-09	-2.613637e+01	-8.989320e+01
9.700000e-07	-3.721356e-06	-1.285263e-09	-2.589321e+01	-8.939128e+01
9.800000e-07	-3.685979e-06	-1.261024e-09	-2.564706e+01	-8.888508e+01
9.900000e-07	-3.650396e-06	-1.259822e-09	-2.539947e+01	-8.837461e+01
1.000000e-06	-3.614722e-06	-1.254906e-09	-2.515125e+01	-8.785986e+01
1.010000e-06	-3.578961e-06	-1.244482e-09	-2.490243e+01	-8.734083e+01
1.020000e-06	-3.543133e-06	-1.239183e-09	-2.465313e+01	-8.681748e+01
1.030000e-06	-3.507216e-06	-1.240862e-09	-2.440322e+01	-8.628976e+01
1.040000e-06	-3.470989e-06	-1.226858e-09	-2.415115e+01	-8.575761e+01
1.050000e-06	-3.434456e-06	-1.217725e-09	-2.389696e+01	-8.522097e+01
1.060000e-06	-3.397669e-06	-1.213560e-09	-2.364100e+01	-8.467974e+01
1.070000e-06	-3.360539e-06	-1.202373e-09	-2.338265e+01	-8.413385e+01
1.080000e-06	-3.323165e-06	-1.188856e-09	-2.312260e+01	-8.358318e+01
1.090000e-06	-3.285612e-06	-1.184553e-09	-2.286130e+01	-8.302764e+01
1.100000e-06	-3.247822e-06	-1.178867e-09	-2.259836e+01	-8.246712e+01
1.110000e-06	-3.209805e-06	-1.164671e-09	-2.233384e+01	-8.190149e+01
1.120000e-06	-3.171519e-06	-1.157201e-09	-2.206744e+01	-8.133065e+01
1.130000e-06	-3.133132e-06	-1.149883e-09	-2.180035e+01	-8.075447e+01
1.140000e-06	-3.094601e-06	-1.137926e-09	-2.153225e+01	-8.017284e+01
1.150000e-06	-3.055689e-06	-1.124235e-09	-2.126149e+01	-7.958563e+01
1.160000e-06	-3.016611e-06	-1.120177e-09	-2.098959e+01	-7.899274e+01
1.170000e-06	-2.977364e-06	-1.110928e-09	-2.071651e+01	-7.839404e+01
1.180000e-06	-2.937953e-06	-1.100898e-09	-2.044229e+01	-7.778943e+01
1.190000e-06	-2.898375e-06	-1.091914e-09	-2.016691e+01	-7.717881e+01
1.200000e-06	-2.858646e-06	-1.084806e-09	-1.989047e+01	-7.656207e+01
1.210000e-06	-2.818879e-06	-1.069971e-09	-1.961377e+01	-7.593912e+01
1.220000e-06	-2.778944e-06	-1.059613e-09	-1.933590e+01	-7.530987e+01
1.230000e-06	-2.738829e-06	-1.048824e-09	-1.905679e+01	-7.467423e+01
1.240000e-06	-2.698534e-06	-1.039349e-09	-1.877641e+01	-7.403212e+01
1.250000e-06	-2.658080e-06	-1.029099e-09	-1.849493e+01	-7.338348e+01
1.260000e-06	-2.617369e-06	-1.023807e-09	-1.821166e+01	-7.272822e+01
1.270000e-06	-2.576245e-06	-1.014928e-09	-1.792552e+01	-7.206628e+01
1.280000e-06	-2.534847e-06	-1.007103e-09	-1.763747e+01	-7.139759e+01
1.290000e-06	-2.493206e-06	-9.965612e-10	-1.734774e+01	-7.072208e+01
1.300000e-06	-2.451323e-06	-9.852934e-10	-1.705632e+01	-7.003968e+01
1.310000e-06	-2.409180e-06	-9.689058e-10	-1.676308e+01	-6.935033e+01
1.320000e-06	-2.366662e-06	-9.549061e-10	-1.646725e+01	-6.865393e+01
1.330000e-06	-2.323836e-06	-9.426953e-10	-1.616926e+01	-6.795041e+01
1.340000e-06	-2.280868e-06	-9.346591e-10	-1.587029e+01	-6.723968e+01
1.350000e-06	-2.237713e-06	-9.258750e-10	-1.557002e+01	-6.652164e+01
1.360000e-06	-2.194308e-06	-9.174849e-10	-1.526800e+01	-6.579617e+01
1.370000e-06	-2.150770e-06	-9.070146e-10	-1.496506e+01	-6.506314e+01
1.380000e-06	-2.107162e-06	-8.917424e-10	-1.466164e+01	-6.432240e+01
1.390000e-06	-2.063460e-06	-8.735834e-10	-1.435757e+01	-6.357381e+01
1.400000e-06	-2.019691e-06	-8.559935e-10	-1.405302e+01	-6.281716e+01
1.410000e-06	-1.975900e-06	-8.401030e-10	-1.374832e+01	-6.205225e+01
1.420000e-06	-1.932057e-06	-8.256253e-10	-1.344326e+01	-6.127886e+01
1.430000e-06	-1.888094e-06	-8.151343e-10	-1.313737e+01	-6.049672e+01
1.440000e-06	-1.843933e-06	-8.050212e-10	-1.283009e+01	-5.970556e+01
1.450000e-06	-1.799638e-06	-7.938105e-10	-1.252189e+01	-5.890508e+01
1.460000e-06	-1.755295e-06	-7.789145e-10	-1.221335e+01	-5.809492e+01
1.470000e-06	-1.710899e-06	-7.645677e-10	-1.190444e+01	-5.727473e+01
1.480000e-06	-1.666288e-06	-7.493069e-10	-1.159404e+01	-5.644412e+01
1.490000e-06	-1.621524e-06	-7.357010e-10	-1.128257e+01	-5.560265e+01
1.500000e-06	-1.576781e-06	-7.220696e-10	-1.097125e+01	-5.474988e+01
1.510000e-06	-1.531932e-06	-7.099044e-10	-1.065919e+01	-5.388534e+01
1.520000e-06	-1.486819e-06	-6.948318e-10	-1.034530e+01	-5.300851e+01
1.530000e-06	-1.441601e-06	-6.813412e-10	-1.003066e+01	-5.211886e+01
1.540000e-06	-1.396365e-06	-6.707782e-10	-9.715915e+00	-5.121585e+01
1.550000e-06	-1.350973e-06	-6.620738e-10	-9.400078e+00	-5.029890e+01
1.560000e-06	-1.305502e-06	-6.492701e-10	-9.083687e+00	-4.936742e+01
1.570000e-06	-1.259955e-06	-6.355330e-10	-8.766773e+00	-4.842081e+01
1.580000e-06	-1.214272e-06	-6.170657e-10	-8.448913e+00	-4.745845e+01
1.590000e-06	-1.168541e-06	-5.996653e-10	-8.130715e+00	-4.647970e+01
1.600000e-06	-1.122818e-06	-5.816956e-10	-7.812570e+00	-4.548395e+01
1.610000e-06	-1.076916e-06	-5.675235e-10	-7.493183e+00	-4.447056e+01
1.620000e-06	-1.030957e-06	-5.497357e-10	-7.173404e+00	-4.343891e+01
1.630000e-06	-9.849660e-07	-5.337178e-10	-6.853398e+00	-4.238838e+01
1.640000e-06	-9.388317e-07	-5.189029e-10	-6.532395e+00	-4.131837e+01
1.650000e-06	-8.926005e-07	-5.036652e-10	-6.210718e+00	-4.022829e+01
1.660000e-06	-8.464044e-07	-4.896758e-10	-5.889286e+00	-3.911758e+01
1.670000e-06	-8.002680e-07	-4.772616e-10	-5.568268e+00	-3.798571e+01
1.680000e-06	-7.539872e-07	-4.648030e-10	-5.246246e+00	-3.683219e+01
1.690000e-06	-7.076421e-07	-4.478610e-10	-4.923777e+00	-3.565654e+01
1.700000e-06	-6.612670e-07	-4.286152e-10	-4.601099e+00	-3.445837e+01
1.710000e-06	-6.147897e-07	-4.073430e-10	-4.277709e+00	-3.323730e+01
1.720000e-06	-5.682966e-07	-3.872442e-10	-3.954210e+00	-3.199302e+01
1.730000e-06	-5.218534e-07	-3.682560e-10	-3.631058e+00	-3.072527e+01
1.740000e-06	-4.753359e-07	-3.531942e-10	-3.307389e+00	-2.943387e+01
1.750000e-06	-4.286234e-07	-3.375765e-10	-2.982364e+00	-2.811868e+01
1.760000e-06	-3.818947e-07	-3.217055e-10	-2.657225e+00	-2.677966e+01
1.770000e-06	-3.352263e-07	-3.022102e-10	-2.332506e+00	-2.541682e+01
1.780000e-06	-2.884940e-07	-2.803022e-10	-2.007343e+00	-2.403025e+01
1.790000e-06	-2.417761e-07	-2.583751e-10	-1.682279e+00	-2.262014e+01
1.800000e-06	-1.949781e-07	-2.375846e-10	-1.356658e+00	-2.118672e+01
1.810000e-06	-1.480794e-07	-2.153389e-10	-1.030337e+00	-1.973036e+01
1.820000e-06	-1.012472e-07	-1.939283e-10	-7.044784e-01	-1.825145e+01
1.830000e-06	-5.451389e-08	-1.747514e-10	-3.793079e-01	-1.675051e+01
1.840000e-06	-7.833662e-09	-1.567023e-10	-5.450666e-02	-1.522813e+01
1.850000e-06	3.885682e-08	-1.355526e-10	2.703659e-01	-1.368498e+01
1.860000e-06	8.558927e-08	-1.148542e-10	5.955305e-01	-1.212181e+01
1.870000e-06	1.323933e-07	-8.941205e-11	9.211931e-01	-1.053947e+01
1.880000e-06	1.791604e-07	-6.576487e-11	1.246599e+00	-8.938863e+00
1.890000e-06	2.258672e-07	-4.380704e-11	1.571585e+00	-7.320986e+00
1.900000e-06	2.725779e-07	-2.455575e-11	1.896598e+00	-5.686902e+00
1.910000e-06	3.193259e-07	-3.885397e-12	2.221871e+00	-4.037745e+00
1.920000e-06	3.661003e-07	1.811120e-11	2.547327e+00	-2.374712e+00
1.930000e-06	4.127842e-07	4.450714e-11	2.872154e+00	-6.990624e-01
1.940000e-06	4.594093e-07	7.041551e-11	3.196572e+00	9.878891e-01
1.950000e-06	5.060295e-07	9.243170e-11	3.520955e+00	2.684779e+00
1.960000e-06	5.525742e-07	1.149391e-10	3.844814e+00	4.390199e+00
1.970000e-06	5.989537e-07	1.362561e-10	4.167522e+00	6.102702e+00
1.980000e-06	6.452422e-07	1.588120e-10	4.489598e+00	7.820810e+00
1.990000e-06	6.915286e-07	1.792600e-10	4.811659e+00	9.543020e+00
2.000000e-06	7.377644e-07	2.003086e-10	5.133368e+00	1.126781e+01
2.010000e-06	7.839516e-07	2.263580e-10	5.454739e+00	1.299364e+01
2.020000e-06	8.301165e-07	2.530250e-10	5.775954e+00	1.471898e+01
2.030000e-06	8.762824e-07	2.785971e-10	6.097176e+00	1.644229e+01
2.040000e-06	9.223839e-07	3.066847e-10	6.417951e+00	1.816203e+01
2.050000e-06	9.683769e-07	3.329615e-10	6.737970e+00	1.987671e+01
2.060000e-06	1.014289e-06	3.581678e-10	7.057427e+00	2.158481e+01
2.070000e-06	1.060114e-06	3.779561e-10	7.376275e+00	2.328489e+01
2.080000e-06	1.105867e-06	3.969340e-10	7.694629e+00	2.497551e+01
2.090000e-06	1.151577e-06	4.176370e-10	8.012677e+00	2.665528e+01
2.100000e-06	1.197251e-06	4.440854e-10	8.330478e+00	2.832286e+01
2.110000e-06	1.242843e-06	4.706090e-10	8.647708e+00	2.997697e+01
2.120000e-06	1.288355e-06	4.973243e-10	8.964380e+00	3.161636e+01
2.130000e-06	1.333815e-06	5.216447e-10	9.280694e+00	3.323986e+01
2.140000e-06	1.379130e-06	5.415085e-10	9.595993e+00	3.484637e+01
2.150000e-06	1.424298e-06	5.582484e-10	9.910272e+00	3.643484e+01
2.160000e-06	1.469389e-06	5.760923e-10	1.022402e+01	3.800430e+01
2.170000e-06	1.514350e-06	5.965350e-10	1.053685e+01	3.955386e+01
2.180000e-06	1.559124e-06	6.180251e-10	1.084839e+01	4.108270e+01
2.190000e-06	1.603737e-06	6.408894e-10	1.115881e+01	4.259008e+01
2.200000e-06	1.648315e-06	6.654450e-10	1.146898e+01	4.407532e+01
2.210000e-06	1.692817e-06	6.862968e-10	1.177862e+01	4.553786e+01
2.220000e-06	1.737177e-06	7.030587e-10	1.208728e+01	4.697718e+01
2.230000e-06	1.781437e-06	7.188932e-10	1.239524e+01	4.839285e+01
2.240000e-06	1.825544e-06	7.358238e-10	1.270215e+01	4.978453e+01
2.250000e-06	1.869560e-06	7.553757e-10	1.300841e+01	5.115195e+01
2.260000e-06	1.913465e-06	7.750465e-10	1.331390e+01	5.249490e+01
2.270000e-06	1.957287e-06	7.938274e-10	1.361881e+01	5.381326e+01
2.280000e-06	2.001139e-06	8.115036e-10	1.392393e+01	5.510698e+01
2.290000e-06	2.044939e-06	8.282573e-10	1.422869e+01	5.637606e+01
2.300000e-06	2.088638e-06	8.430274e-10	1.453275e+01	5.762058e+01
2.310000e-06	2.132241e-06	8.573210e-10	1.483614e+01	5.884066e+01
2.320000e-06	2.175696e-06	8.737033e-10	1.513850e+01	6.003651e+01
2.330000e-06	2.219056e-06	8.928604e-10	1.544020e+01	6.120835e+01
2.340000e-06	2.262324e-06	9.100124e-10	1.574126e+01	6.235648e+01
2.350000e-06	2.305413e-06	9.246489e-10	1.604107e+01	6.348122e+01
2.360000e-06	2.348252e-06	9.383215e-10	1.633915e+01	6.458295e+01
2.370000e-06	2.390783e-06	9.519831e-10	1.663508e+01	6.566207e+01
2.380000e-06	2.432997e-06	9.640825e-10	1.692881e+01	6.671902e+01
2.390000e-06	2.474847e-06	9.793517e-10	1.721999e+01	6.775424e+01
2.400000e-06	2.516409e-06	9.944888e-10	1.750919e+01	6.876823e+01
2.410000e-06	2.557765e-06	1.009067e-09	1.779694e+01	6.976147e+01
2.420000e-06	2.598819e-06	1.022181e-09	1.808260e+01	7.073448e+01
2.430000e-06	2.639539e-06	1.035007e-09	1.836592e+01	7.168777e+01
2.440000e-06	2.679959e-06	1.047641e-09	1.864717e+01	7.262186e+01
2.450000e-06	2.720140e-06	1.058558e-09	1.892675e+01	7.353728e+01
2.460000e-06	2.760227e-06	1.069500e-09	1.920567e+01	7.443453e+01
2.470000e-06	2.800235e-06	1.080208e-09	1.948405e+01	7.531415e+01
2.480000e-06	2.840094e-06	1.090010e-09	1.976139e+01	7.617662e+01
2.490000e-06	2.879820e-06	1.100293e-09	2.003780e+01	7.702244e+01
2.500000e-06	2.919427e-06	1.112784e-09	2.031339e+01	7.785210e+01
2.510000e-06	2.958960e-06	1.127778e-09	2.058845e+01	7.866606e+01
2.520000e-06	2.998391e-06	1.141836e-09	2.086282e+01	7.946476e+01
2.530000e-06	3.037549e-06	1.153079e-09	2.113528e+01	8.024863e+01
2.540000e-06	3.076364e-06	1.162898e-09	2.140536e+01	8.101808e+01
2.550000e-06	3.114872e-06	1.170689e-09	2.167329e+01	8.177350e+01
2.560000e-06	3.153161e-06	1.176037e-09	2.193971e+01	8.251524e+01
2.570000e-06	3.191325e-06	1.182116e-09	2.220526e+01	8.324367e+01
2.580000e-06	3.229263e-06	1.193472e-09	2.246923e+01	8.395909e+01
2.590000e-06	3.267002e-06	1.207169e-09	2.273182e+01	8.466182e+01
2.600000e-06	3.304627e-06	1.220551e-09	2.299361e+01	8.535212e+01
2.610000e-06	3.342008e-06	1.231858e-09	2.325371e+01	8.603026e+01
2.620000e-06	3.379137e-06	1.241993e-09	2.351205e+01	8.669649e+01
2.630000e-06	3.415943e-06	1.250499e-09	2.376815e+01	8.735101e+01
2.640000e-06	3.452522e-06	1.257495e-09	2.402266e+01	8.799403e+01
2.650000e-06	3.488942e-06	1.267627e-09	2.427608e+01	8.862575e+01
2.660000e-06	3.525018e-06	1.280089e-09	2.452709e+01	8.924633e+01
2.670000e-06	3.560883e-06	1.290187e-09	2.477664e+01	8.985592e+01
2.680000e-06	3.596669e-06	1.298998e-09	2.502564e+01	9.045468e+01
2.690000e-06	3.632365e-06	1.305030e-09	2.527401e+01	9.104274e+01
2.700000e-06	3.667899e-06	1.310277e-09	2.552125e+01	9.162023e+01
2.710000e-06	3.703214e-06	1.318435e-09	2.576698e+01	9.218726e+01
2.720000e-06	3.738311e-06	1.328082e-09	2.601118e+01	9.274393e+01
2.730000e-06	3.773041e-06	1.336604e-09	2.625284e+01	9.329037e+01
2.740000e-06	3.807333e-06	1.344739e-09	2.649144e+01	9.382666e+01
2.750000e-06	3.841126e-06	1.349982e-09	2.672657e+01	9.435291e+01
2.760000e-06	3.874456e-06	1.355116e-09	2.695848e+01	9.486921e+01
2.770000e-06	3.907364e-06	1.358552e-09	2.718746e+01	9.537566e+01
2.780000e-06	3.939938e-06	1.361017e-09	2.741411e+01	9.587235e+01
2.790000e-06	3.972227e-06	1.366893e-09	2.763877e+01	9.635938e+01
2.800000e-06	4.004223e-06	1.375291e-09	2.786140e+01	9.683685e+01
2.810000e-06	4.036076e-06	1.383819e-09	2.808303e+01	9.730487e+01
2.820000e-06	4.067734e-06	1.393198e-09	2.830331e+01	9.776352e+01
2.830000e-06	4.099186e-06	1.401467e-09	2.852215e+01	9.821292e+01
2.840000e-06	4.130347e-06	1.406523e-09	2.873897e+01	9.865318e+01
2.850000e-06	4.161221e-06	1.409170e-09	2.895379e+01	9.908442e+01
2.860000e-06	4.191891e-06	1.410992e-09	2.916719e+01	9.950674e+01
2.870000e-06	4.222196e-06	1.414666e-09	2.937806e+01	9.992026e+01
2.880000e-06	4.252126e-06	1.418066e-09	2.958631e+01	1.003251e+02
2.890000e-06	4.281825e-06	1.422666e-09	2.979296e+01	1.007214e+02
2.900000e-06	4.311294e-06	1.430005e-09	2.999800e+01	1.011093e+02
