# Temperatura_=_15.1
# Concentracion g/m^3_=_1620.0
# C_Vs_to_Am_M_A/Vsm_=_65563218390.804596
# pendiente_HvsI_1/m_=_3716.3
# ordenada_HvsI_A/m_=_1297.0
# frecuencia_Hz_=_135094.56905505384

Tiempo_(s)	Campo_(V.s)	Magnetizacion_(V.s)	Campo_(kA/m)	Magnetizacion_(A/m)
0.000000e+00	-5.534525e-06	-1.557871e-09	-3.837674e+01	-1.039648e+02
1.000000e-08	-5.534632e-06	-1.551881e-09	-3.837749e+01	-1.039546e+02
2.000000e-08	-5.534433e-06	-1.550819e-09	-3.837610e+01	-1.039468e+02
3.000000e-08	-5.533769e-06	-1.553101e-09	-3.837150e+01	-1.039414e+02
4.000000e-08	-5.532573e-06	-1.555655e-09	-3.836320e+01	-1.039379e+02
5.000000e-08	-5.530812e-06	-1.558928e-09	-3.835099e+01	-1.039360e+02
6.000000e-08	-5.528596e-06	-1.571090e-09	-3.833563e+01	-1.039353e+02
7.000000e-08	-5.525879e-06	-1.580110e-09	-3.831679e+01	-1.039355e+02
8.000000e-08	-5.522517e-06	-1.544064e-09	-3.829348e+01	-1.039359e+02
9.000000e-08	-5.518625e-06	-1.511689e-09	-3.826649e+01	-1.039362e+02
1.000000e-07	-5.514441e-06	-1.585645e-09	-3.823748e+01	-1.039359e+02
1.100000e-07	-5.510012e-06	-1.594598e-09	-3.820677e+01	-1.039345e+02
1.200000e-07	-5.505352e-06	-1.523036e-09	-3.817446e+01	-1.039313e+02
1.300000e-07	-5.500402e-06	-1.493356e-09	-3.814013e+01	-1.039259e+02
1.400000e-07	-5.494991e-06	-1.570531e-09	-3.810261e+01	-1.039178e+02
1.500000e-07	-5.489081e-06	-1.628568e-09	-3.806163e+01	-1.039064e+02
1.600000e-07	-5.482778e-06	-1.516499e-09	-3.801792e+01	-1.038912e+02
1.700000e-07	-5.476212e-06	-1.482369e-09	-3.797240e+01	-1.038716e+02
1.800000e-07	-5.469266e-06	-1.562788e-09	-3.792423e+01	-1.038472e+02
1.900000e-07	-5.461910e-06	-1.606959e-09	-3.787323e+01	-1.038176e+02
2.000000e-07	-5.454312e-06	-1.542900e-09	-3.782054e+01	-1.037822e+02
2.100000e-07	-5.446504e-06	-1.526726e-09	-3.776640e+01	-1.037407e+02
2.200000e-07	-5.438377e-06	-1.590713e-09	-3.771005e+01	-1.036927e+02
2.300000e-07	-5.429817e-06	-1.603290e-09	-3.765069e+01	-1.036378e+02
2.400000e-07	-5.420762e-06	-1.548203e-09	-3.758790e+01	-1.035757e+02
2.500000e-07	-5.411139e-06	-1.529680e-09	-3.752118e+01	-1.035063e+02
2.600000e-07	-5.400725e-06	-1.580111e-09	-3.744896e+01	-1.034293e+02
2.700000e-07	-5.389715e-06	-1.594724e-09	-3.737262e+01	-1.033444e+02
2.800000e-07	-5.378415e-06	-1.563738e-09	-3.729426e+01	-1.032517e+02
2.900000e-07	-5.366633e-06	-1.533818e-09	-3.721257e+01	-1.031510e+02
3.000000e-07	-5.354419e-06	-1.553165e-09	-3.712787e+01	-1.030422e+02
3.100000e-07	-5.341869e-06	-1.571248e-09	-3.704085e+01	-1.029255e+02
3.200000e-07	-5.328870e-06	-1.550796e-09	-3.695072e+01	-1.028009e+02
3.300000e-07	-5.315430e-06	-1.519512e-09	-3.685752e+01	-1.026685e+02
3.400000e-07	-5.301591e-06	-1.552980e-09	-3.676156e+01	-1.025284e+02
3.500000e-07	-5.287443e-06	-1.584989e-09	-3.666346e+01	-1.023809e+02
3.600000e-07	-5.272876e-06	-1.529879e-09	-3.656245e+01	-1.022261e+02
3.700000e-07	-5.257727e-06	-1.506591e-09	-3.645741e+01	-1.020643e+02
3.800000e-07	-5.242166e-06	-1.566221e-09	-3.634951e+01	-1.018958e+02
3.900000e-07	-5.226101e-06	-1.547860e-09	-3.623811e+01	-1.017209e+02
4.000000e-07	-5.209489e-06	-1.472166e-09	-3.612292e+01	-1.015399e+02
4.100000e-07	-5.192610e-06	-1.528988e-09	-3.600588e+01	-1.013533e+02
4.200000e-07	-5.175517e-06	-1.582101e-09	-3.588736e+01	-1.011613e+02
4.300000e-07	-5.157994e-06	-1.478193e-09	-3.576586e+01	-1.009643e+02
4.400000e-07	-5.140091e-06	-1.466237e-09	-3.564171e+01	-1.007628e+02
4.500000e-07	-5.121851e-06	-1.574901e-09	-3.551524e+01	-1.005571e+02
4.600000e-07	-5.103106e-06	-1.521575e-09	-3.538526e+01	-1.003475e+02
4.700000e-07	-5.084015e-06	-1.433272e-09	-3.525288e+01	-1.001345e+02
4.800000e-07	-5.064659e-06	-1.525672e-09	-3.511866e+01	-9.991843e+01
4.900000e-07	-5.045039e-06	-1.545978e-09	-3.498262e+01	-9.969961e+01
5.000000e-07	-5.025212e-06	-1.438675e-09	-3.484514e+01	-9.947839e+01
5.100000e-07	-5.005093e-06	-1.485876e-09	-3.470563e+01	-9.925508e+01
5.200000e-07	-4.984651e-06	-1.553215e-09	-3.456388e+01	-9.902997e+01
5.300000e-07	-4.963898e-06	-1.450181e-09	-3.441998e+01	-9.880331e+01
5.400000e-07	-4.942744e-06	-1.435022e-09	-3.427330e+01	-9.857535e+01
5.500000e-07	-4.921237e-06	-1.536229e-09	-3.412417e+01	-9.834630e+01
5.600000e-07	-4.899385e-06	-1.481355e-09	-3.397264e+01	-9.811632e+01
5.700000e-07	-4.877178e-06	-1.413118e-09	-3.381866e+01	-9.788557e+01
5.800000e-07	-4.854637e-06	-1.493395e-09	-3.366236e+01	-9.765416e+01
5.900000e-07	-4.831749e-06	-1.498176e-09	-3.350365e+01	-9.742216e+01
6.000000e-07	-4.808562e-06	-1.417952e-09	-3.334287e+01	-9.718964e+01
6.100000e-07	-4.785148e-06	-1.455360e-09	-3.318052e+01	-9.695661e+01
6.200000e-07	-4.761529e-06	-1.486633e-09	-3.301674e+01	-9.672307e+01
6.300000e-07	-4.737639e-06	-1.427760e-09	-3.285108e+01	-9.648898e+01
6.400000e-07	-4.713418e-06	-1.430560e-09	-3.268314e+01	-9.625426e+01
6.500000e-07	-4.688795e-06	-1.466875e-09	-3.251240e+01	-9.601885e+01
6.600000e-07	-4.663693e-06	-1.434181e-09	-3.233834e+01	-9.578262e+01
6.700000e-07	-4.638041e-06	-1.424384e-09	-3.216047e+01	-9.554545e+01
6.800000e-07	-4.611810e-06	-1.450969e-09	-3.197858e+01	-9.530718e+01
6.900000e-07	-4.585042e-06	-1.431186e-09	-3.179297e+01	-9.506766e+01
7.000000e-07	-4.557942e-06	-1.411073e-09	-3.160505e+01	-9.482671e+01
7.100000e-07	-4.530642e-06	-1.424853e-09	-3.141576e+01	-9.458415e+01
7.200000e-07	-4.503099e-06	-1.413900e-09	-3.122477e+01	-9.433978e+01
7.300000e-07	-4.475310e-06	-1.396442e-09	-3.103208e+01	-9.409341e+01
7.400000e-07	-4.447288e-06	-1.408067e-09	-3.083777e+01	-9.384486e+01
7.500000e-07	-4.418996e-06	-1.405763e-09	-3.064159e+01	-9.359392e+01
7.600000e-07	-4.390439e-06	-1.391014e-09	-3.044358e+01	-9.334040e+01
7.700000e-07	-4.361570e-06	-1.396903e-09	-3.024340e+01	-9.308413e+01
7.800000e-07	-4.332381e-06	-1.395660e-09	-3.004100e+01	-9.282493e+01
7.900000e-07	-4.302862e-06	-1.376571e-09	-2.983631e+01	-9.256265e+01
8.000000e-07	-4.273037e-06	-1.375491e-09	-2.962951e+01	-9.229711e+01
8.100000e-07	-4.242920e-06	-1.376783e-09	-2.942067e+01	-9.202821e+01
8.200000e-07	-4.212535e-06	-1.356694e-09	-2.920998e+01	-9.175580e+01
8.300000e-07	-4.181964e-06	-1.347224e-09	-2.899800e+01	-9.147979e+01
8.400000e-07	-4.151074e-06	-1.359813e-09	-2.878381e+01	-9.120010e+01
8.500000e-07	-4.119795e-06	-1.355975e-09	-2.856692e+01	-9.091663e+01
8.600000e-07	-4.088314e-06	-1.342403e-09	-2.834863e+01	-9.062935e+01
8.700000e-07	-4.056749e-06	-1.343042e-09	-2.812975e+01	-9.033821e+01
8.800000e-07	-4.024962e-06	-1.338391e-09	-2.790934e+01	-9.004319e+01
8.900000e-07	-3.992956e-06	-1.318510e-09	-2.768741e+01	-8.974429e+01
9.000000e-07	-3.960664e-06	-1.314667e-09	-2.746349e+01	-8.944150e+01
9.100000e-07	-3.927948e-06	-1.317381e-09	-2.723664e+01	-8.913485e+01
9.200000e-07	-3.894826e-06	-1.304700e-09	-2.700697e+01	-8.882438e+01
9.300000e-07	-3.861338e-06	-1.297727e-09	-2.677476e+01	-8.851011e+01
9.400000e-07	-3.827484e-06	-1.304752e-09	-2.654001e+01	-8.819210e+01
9.500000e-07	-3.793141e-06	-1.297775e-09	-2.630188e+01	-8.787041e+01
9.600000e-07	-3.758436e-06	-1.283365e-09	-2.606123e+01	-8.754509e+01
9.700000e-07	-3.723450e-06	-1.283393e-09	-2.581863e+01	-8.721621e+01
9.800000e-07	-3.688139e-06	-1.281197e-09	-2.557379e+01	-8.688382e+01
9.900000e-07	-3.652593e-06	-1.267657e-09	-2.532731e+01	-8.654798e+01
1.000000e-06	-3.616876e-06	-1.262139e-09	-2.507964e+01	-8.620875e+01
1.010000e-06	-3.580996e-06	-1.263076e-09	-2.483085e+01	-8.586618e+01
1.020000e-06	-3.544931e-06	-1.254365e-09	-2.458078e+01	-8.552031e+01
1.030000e-06	-3.508650e-06	-1.247015e-09	-2.432920e+01	-8.517117e+01
1.040000e-06	-3.472113e-06	-1.246386e-09	-2.407585e+01	-8.481878e+01
1.050000e-06	-3.435287e-06	-1.237395e-09	-2.382049e+01	-8.446316e+01
1.060000e-06	-3.398211e-06	-1.225028e-09	-2.356341e+01	-8.410429e+01
1.070000e-06	-3.360864e-06	-1.221778e-09	-2.330444e+01	-8.374216e+01
1.080000e-06	-3.323291e-06	-1.218639e-09	-2.304391e+01	-8.337673e+01
1.090000e-06	-3.285575e-06	-1.213815e-09	-2.278238e+01	-8.300795e+01
1.100000e-06	-3.247673e-06	-1.214344e-09	-2.251956e+01	-8.263576e+01
1.110000e-06	-3.209560e-06	-1.210626e-09	-2.225529e+01	-8.226008e+01
1.120000e-06	-3.171174e-06	-1.196496e-09	-2.198912e+01	-8.188079e+01
1.130000e-06	-3.132613e-06	-1.184211e-09	-2.172174e+01	-8.149780e+01
1.140000e-06	-3.093875e-06	-1.179110e-09	-2.145312e+01	-8.111097e+01
1.150000e-06	-3.054853e-06	-1.177801e-09	-2.118254e+01	-8.072016e+01
1.160000e-06	-3.015647e-06	-1.174802e-09	-2.091068e+01	-8.032521e+01
1.170000e-06	-2.976241e-06	-1.171446e-09	-2.063744e+01	-7.992594e+01
1.180000e-06	-2.936633e-06	-1.165627e-09	-2.036280e+01	-7.952218e+01
1.190000e-06	-2.896922e-06	-1.154652e-09	-2.008744e+01	-7.911373e+01
1.200000e-06	-2.857143e-06	-1.142333e-09	-1.981161e+01	-7.870039e+01
1.210000e-06	-2.817236e-06	-1.131305e-09	-1.953489e+01	-7.828196e+01
1.220000e-06	-2.777157e-06	-1.123174e-09	-1.925698e+01	-7.785821e+01
1.230000e-06	-2.736920e-06	-1.121210e-09	-1.897797e+01	-7.742892e+01
1.240000e-06	-2.696360e-06	-1.121847e-09	-1.869673e+01	-7.699388e+01
1.250000e-06	-2.655455e-06	-1.118601e-09	-1.841309e+01	-7.655284e+01
1.260000e-06	-2.614343e-06	-1.111282e-09	-1.812802e+01	-7.610558e+01
1.270000e-06	-2.573045e-06	-1.100275e-09	-1.784165e+01	-7.565187e+01
1.280000e-06	-2.531640e-06	-1.088304e-09	-1.755455e+01	-7.519148e+01
1.290000e-06	-2.489990e-06	-1.078351e-09	-1.726575e+01	-7.472416e+01
1.300000e-06	-2.447893e-06	-1.070152e-09	-1.697384e+01	-7.424971e+01
1.310000e-06	-2.405432e-06	-1.065410e-09	-1.667942e+01	-7.376787e+01
1.320000e-06	-2.362726e-06	-1.061339e-09	-1.638329e+01	-7.327841e+01
1.330000e-06	-2.319760e-06	-1.051216e-09	-1.608536e+01	-7.278112e+01
1.340000e-06	-2.276541e-06	-1.040876e-09	-1.578568e+01	-7.227574e+01
1.350000e-06	-2.233189e-06	-1.034529e-09	-1.548507e+01	-7.176205e+01
1.360000e-06	-2.189726e-06	-1.027053e-09	-1.518370e+01	-7.123981e+01
1.370000e-06	-2.146151e-06	-1.017139e-09	-1.488155e+01	-7.070877e+01
1.380000e-06	-2.102463e-06	-1.007172e-09	-1.457861e+01	-7.016868e+01
1.390000e-06	-2.058712e-06	-9.993188e-10	-1.427524e+01	-6.961928e+01
1.400000e-06	-2.014821e-06	-9.931040e-10	-1.397090e+01	-6.906029e+01
1.410000e-06	-1.970822e-06	-9.850549e-10	-1.366580e+01	-6.849144e+01
1.420000e-06	-1.926793e-06	-9.717060e-10	-1.336050e+01	-6.791241e+01
1.430000e-06	-1.882637e-06	-9.574623e-10	-1.305432e+01	-6.732290e+01
1.440000e-06	-1.838378e-06	-9.448742e-10	-1.274743e+01	-6.672255e+01
1.450000e-06	-1.794028e-06	-9.370877e-10	-1.243990e+01	-6.611101e+01
1.460000e-06	-1.749513e-06	-9.306605e-10	-1.213124e+01	-6.548788e+01
1.470000e-06	-1.704886e-06	-9.224526e-10	-1.182179e+01	-6.485274e+01
1.480000e-06	-1.660202e-06	-9.120986e-10	-1.151194e+01	-6.420515e+01
1.490000e-06	-1.615315e-06	-8.980985e-10	-1.120069e+01	-6.354460e+01
1.500000e-06	-1.570223e-06	-8.816479e-10	-1.088802e+01	-6.287059e+01
1.510000e-06	-1.525005e-06	-8.644949e-10	-1.057448e+01	-6.218255e+01
1.520000e-06	-1.479661e-06	-8.507932e-10	-1.026006e+01	-6.147988e+01
1.530000e-06	-1.434210e-06	-8.408763e-10	-9.944904e+00	-6.076195e+01
1.540000e-06	-1.388673e-06	-8.342623e-10	-9.629147e+00	-6.002808e+01
1.550000e-06	-1.343102e-06	-8.283006e-10	-9.313156e+00	-5.927754e+01
1.560000e-06	-1.297514e-06	-8.231205e-10	-8.997041e+00	-5.850958e+01
1.570000e-06	-1.251847e-06	-8.166487e-10	-8.680388e+00	-5.772339e+01
1.580000e-06	-1.206018e-06	-8.031528e-10	-8.362603e+00	-5.691814e+01
1.590000e-06	-1.160056e-06	-7.842283e-10	-8.043903e+00	-5.609295e+01
1.600000e-06	-1.113988e-06	-7.663616e-10	-7.724461e+00	-5.524690e+01
1.610000e-06	-1.067834e-06	-7.510787e-10	-7.404427e+00	-5.437906e+01
1.620000e-06	-1.021680e-06	-7.403436e-10	-7.084396e+00	-5.348846e+01
1.630000e-06	-9.754344e-07	-7.323386e-10	-6.763723e+00	-5.257409e+01
1.640000e-06	-9.290818e-07	-7.208718e-10	-6.442311e+00	-5.163497e+01
1.650000e-06	-8.827360e-07	-7.055085e-10	-6.120946e+00	-5.067004e+01
1.660000e-06	-8.362983e-07	-6.868597e-10	-5.798944e+00	-4.967830e+01
1.670000e-06	-7.897615e-07	-6.646908e-10	-5.476256e+00	-4.865870e+01
1.680000e-06	-7.432217e-07	-6.446599e-10	-5.153546e+00	-4.761023e+01
1.690000e-06	-6.965914e-07	-6.269034e-10	-4.830208e+00	-4.653186e+01
1.700000e-06	-6.498778e-07	-6.102833e-10	-4.506293e+00	-4.542262e+01
1.710000e-06	-6.030727e-07	-5.935564e-10	-4.181744e+00	-4.428154e+01
1.720000e-06	-5.563263e-07	-5.764162e-10	-3.857601e+00	-4.310770e+01
1.730000e-06	-5.096283e-07	-5.571239e-10	-3.533795e+00	-4.190022e+01
1.740000e-06	-4.629078e-07	-5.358802e-10	-3.209832e+00	-4.065830e+01
1.750000e-06	-4.162199e-07	-5.146985e-10	-2.886095e+00	-3.938118e+01
1.760000e-06	-3.694922e-07	-4.928123e-10	-2.562082e+00	-3.806817e+01
1.770000e-06	-3.226821e-07	-4.722087e-10	-2.237498e+00	-3.671868e+01
1.780000e-06	-2.757954e-07	-4.528795e-10	-1.912382e+00	-3.533220e+01
1.790000e-06	-2.288365e-07	-4.338789e-10	-1.586767e+00	-3.390832e+01
1.800000e-06	-1.818246e-07	-4.138137e-10	-1.260783e+00	-3.244675e+01
1.810000e-06	-1.348333e-07	-3.932704e-10	-9.349429e-01	-3.094728e+01
1.820000e-06	-8.786041e-08	-3.709252e-10	-6.092296e-01	-2.940986e+01
1.830000e-06	-4.091322e-08	-3.468167e-10	-2.836948e-01	-2.783453e+01
1.840000e-06	5.993965e-09	-3.243023e-10	4.156253e-02	-2.622150e+01
1.850000e-06	5.285220e-08	-3.031610e-10	3.664805e-01	-2.457109e+01
1.860000e-06	9.979702e-08	-2.801516e-10	6.919988e-01	-2.288378e+01
1.870000e-06	1.467945e-07	-2.570816e-10	1.017882e+00	-2.116017e+01
1.880000e-06	1.937599e-07	-2.354865e-10	1.343543e+00	-1.940103e+01
1.890000e-06	2.407244e-07	-2.123004e-10	1.669198e+00	-1.760727e+01
1.900000e-06	2.876197e-07	-1.845729e-10	1.994373e+00	-1.577995e+01
1.910000e-06	3.344483e-07	-1.553661e-10	2.319085e+00	-1.392028e+01
1.920000e-06	3.813031e-07	-1.258048e-10	2.643980e+00	-1.202961e+01
1.930000e-06	4.281851e-07	-9.817616e-11	2.969062e+00	-1.010944e+01
1.940000e-06	4.750342e-07	-7.091036e-11	3.293917e+00	-8.161402e+00
1.950000e-06	5.218420e-07	-4.379203e-11	3.618485e+00	-6.187274e+00
1.960000e-06	5.685828e-07	-1.901189e-11	3.942589e+00	-4.188956e+00
1.970000e-06	6.151914e-07	6.353096e-12	4.265775e+00	-2.168471e+00
1.980000e-06	6.617181e-07	3.359804e-11	4.588395e+00	-1.279579e-01
1.990000e-06	7.082121e-07	6.402108e-11	4.910787e+00	1.930340e+00
2.000000e-06	7.547339e-07	9.699786e-11	5.233372e+00	4.004082e+00
2.010000e-06	8.011848e-07	1.290881e-10	5.555465e+00	6.090841e+00
2.020000e-06	8.474974e-07	1.601808e-10	5.876600e+00	8.188115e+00
2.030000e-06	8.938130e-07	1.897606e-10	6.197756e+00	1.029334e+01
2.040000e-06	9.400814e-07	2.169705e-10	6.518583e+00	1.240390e+01
2.050000e-06	9.862053e-07	2.441791e-10	6.838409e+00	1.451714e+01
2.060000e-06	1.032263e-06	2.736242e-10	7.157776e+00	1.663038e+01
2.070000e-06	1.078338e-06	3.056753e-10	7.477260e+00	1.874092e+01
2.080000e-06	1.124259e-06	3.363503e-10	7.795684e+00	2.084609e+01
2.090000e-06	1.170045e-06	3.671211e-10	8.113167e+00	2.294318e+01
2.100000e-06	1.215781e-06	3.996145e-10	8.430302e+00	2.502957e+01
2.110000e-06	1.261485e-06	4.308399e-10	8.747219e+00	2.710263e+01
2.120000e-06	1.307154e-06	4.619392e-10	9.063887e+00	2.915982e+01
2.130000e-06	1.352753e-06	4.913488e-10	9.380076e+00	3.119865e+01
2.140000e-06	1.398223e-06	5.145869e-10	9.695363e+00	3.321671e+01
2.150000e-06	1.443531e-06	5.372912e-10	1.000954e+01	3.521168e+01
2.160000e-06	1.488791e-06	5.634931e-10	1.032337e+01	3.718133e+01
2.170000e-06	1.533989e-06	5.913613e-10	1.063678e+01	3.912358e+01
2.180000e-06	1.579025e-06	6.196960e-10	1.094906e+01	4.103643e+01
2.190000e-06	1.623896e-06	6.487506e-10	1.126020e+01	4.291802e+01
2.200000e-06	1.668657e-06	6.754516e-10	1.157057e+01	4.476664e+01
2.210000e-06	1.713317e-06	6.986909e-10	1.188025e+01	4.658071e+01
2.220000e-06	1.757850e-06	7.221691e-10	1.218904e+01	4.835879e+01
2.230000e-06	1.802221e-06	7.451048e-10	1.249671e+01	5.009963e+01
2.240000e-06	1.846427e-06	7.666977e-10	1.280324e+01	5.180209e+01
2.250000e-06	1.890540e-06	7.881141e-10	1.310912e+01	5.346522e+01
2.260000e-06	1.934549e-06	8.110495e-10	1.341428e+01	5.508822e+01
2.270000e-06	1.978440e-06	8.348176e-10	1.371863e+01	5.667044e+01
2.280000e-06	2.022269e-06	8.559704e-10	1.402254e+01	5.821140e+01
2.290000e-06	2.066059e-06	8.738261e-10	1.432618e+01	5.971078e+01
2.300000e-06	2.109799e-06	8.918828e-10	1.462948e+01	6.116840e+01
2.310000e-06	2.153441e-06	9.097816e-10	1.493209e+01	6.258422e+01
2.320000e-06	2.197006e-06	9.270664e-10	1.523418e+01	6.395837e+01
2.330000e-06	2.240502e-06	9.463649e-10	1.553578e+01	6.529110e+01
2.340000e-06	2.283909e-06	9.675016e-10	1.583677e+01	6.658278e+01
2.350000e-06	2.327115e-06	9.881566e-10	1.613636e+01	6.783393e+01
2.360000e-06	2.370113e-06	1.005856e-09	1.643451e+01	6.904515e+01
2.370000e-06	2.412785e-06	1.018434e-09	1.673040e+01	7.021717e+01
2.380000e-06	2.455064e-06	1.026329e-09	1.702357e+01	7.135081e+01
2.390000e-06	2.497131e-06	1.036315e-09	1.731527e+01	7.244696e+01
2.400000e-06	2.538803e-06	1.050781e-09	1.760422e+01	7.350660e+01
2.410000e-06	2.580159e-06	1.069251e-09	1.789099e+01	7.453077e+01
2.420000e-06	2.621425e-06	1.088737e-09	1.817712e+01	7.552057e+01
2.430000e-06	2.662461e-06	1.104088e-09	1.846167e+01	7.647712e+01
2.440000e-06	2.703207e-06	1.116925e-09	1.874420e+01	7.740161e+01
2.450000e-06	2.743601e-06	1.128311e-09	1.902430e+01	7.829523e+01
2.460000e-06	2.783709e-06	1.137820e-09	1.930241e+01	7.915919e+01
2.470000e-06	2.823695e-06	1.146781e-09	1.957967e+01	7.999469e+01
2.480000e-06	2.863624e-06	1.151686e-09	1.985655e+01	8.080295e+01
2.490000e-06	2.903413e-06	1.158824e-09	2.013244e+01	8.158516e+01
2.500000e-06	2.942996e-06	1.170157e-09	2.040692e+01	8.234248e+01
2.510000e-06	2.982439e-06	1.185575e-09	2.068042e+01	8.307606e+01
2.520000e-06	3.021722e-06	1.201320e-09	2.095281e+01	8.378701e+01
2.530000e-06	3.060832e-06	1.213871e-09	2.122400e+01	8.447638e+01
2.540000e-06	3.099656e-06	1.224176e-09	2.149321e+01	8.514519e+01
2.550000e-06	3.138218e-06	1.229003e-09	2.176060e+01	8.579441e+01
2.560000e-06	3.176704e-06	1.231720e-09	2.202747e+01	8.642494e+01
2.570000e-06	3.215033e-06	1.235739e-09	2.229324e+01	8.703764e+01
2.580000e-06	3.253108e-06	1.243198e-09	2.255726e+01	8.763330e+01
2.590000e-06	3.290919e-06	1.253804e-09	2.281944e+01	8.821264e+01
2.600000e-06	3.328523e-06	1.265782e-09	2.308018e+01	8.877634e+01
2.610000e-06	3.365893e-06	1.280203e-09	2.333931e+01	8.932500e+01
2.620000e-06	3.402944e-06	1.291712e-09	2.359623e+01	8.985917e+01
2.630000e-06	3.439787e-06	1.297339e-09	2.385170e+01	9.037933e+01
2.640000e-06	3.476433e-06	1.299404e-09	2.410581e+01	9.088592e+01
2.650000e-06	3.512809e-06	1.300514e-09	2.435804e+01	9.137931e+01
2.660000e-06	3.548891e-06	1.306904e-09	2.460823e+01	9.185983e+01
2.670000e-06	3.584753e-06	1.313980e-09	2.485690e+01	9.232776e+01
2.680000e-06	3.620528e-06	1.321985e-09	2.510497e+01	9.278335e+01
2.690000e-06	3.656215e-06	1.331511e-09	2.535243e+01	9.322678e+01
2.700000e-06	3.691772e-06	1.340692e-09	2.559898e+01	9.365825e+01
2.710000e-06	3.727148e-06	1.346258e-09	2.584427e+01	9.407788e+01
2.720000e-06	3.762183e-06	1.350990e-09	2.608721e+01	9.448579e+01
2.730000e-06	3.796920e-06	1.356701e-09	2.632808e+01	9.488209e+01
2.740000e-06	3.831333e-06	1.361624e-09	2.656671e+01	9.526688e+01
2.750000e-06	3.865195e-06	1.364780e-09	2.680150e+01	9.564022e+01
2.760000e-06	3.898566e-06	1.368948e-09	2.703290e+01	9.600221e+01
2.770000e-06	3.931533e-06	1.374053e-09	2.726150e+01	9.635292e+01
2.780000e-06	3.964129e-06	1.379137e-09	2.748752e+01	9.669244e+01
2.790000e-06	3.996376e-06	1.385447e-09	2.771112e+01	9.702088e+01
2.800000e-06	4.028363e-06	1.391493e-09	2.793292e+01	9.733834e+01
2.810000e-06	4.060221e-06	1.395524e-09	2.815383e+01	9.764495e+01
2.820000e-06	4.091937e-06	1.400397e-09	2.837374e+01	9.794086e+01
2.830000e-06	4.123395e-06	1.406296e-09	2.859188e+01	9.822624e+01
2.840000e-06	4.154576e-06	1.410894e-09	2.880809e+01	9.850128e+01
2.850000e-06	4.185531e-06	1.413786e-09	2.902273e+01	9.876620e+01
2.860000e-06	4.216191e-06	1.416088e-09	2.923533e+01	9.902123e+01
2.870000e-06	4.246487e-06	1.419065e-09	2.944541e+01	9.926665e+01
2.880000e-06	4.276451e-06	1.421034e-09	2.965318e+01	9.950274e+01
2.890000e-06	4.306203e-06	1.424923e-09	2.985948e+01	9.972981e+01
2.900000e-06	4.335706e-06	1.428311e-09	3.006405e+01	9.994820e+01
