# Temperatura_=_14.52
# Concentracion g/m^3_=_1620.0
# C_Vs_to_Am_M_A/Vsm_=_65563218390.804596
# pendiente_HvsI_1/m_=_3716.3
# ordenada_HvsI_A/m_=_1297.0
# frecuencia_Hz_=_135092.46553193606

Tiempo_(s)	Campo_(V.s)	Magnetizacion_(V.s)	Campo_(kA/m)	Magnetizacion_(A/m)
0.000000e+00	-5.533205e-06	-1.630939e-09	-3.837494e+01	-1.060049e+02
1.000000e-08	-5.533377e-06	-1.628596e-09	-3.837614e+01	-1.059751e+02
2.000000e-08	-5.533290e-06	-1.628122e-09	-3.837553e+01	-1.059473e+02
3.000000e-08	-5.532834e-06	-1.628656e-09	-3.837237e+01	-1.059212e+02
4.000000e-08	-5.531890e-06	-1.626860e-09	-3.836582e+01	-1.058966e+02
5.000000e-08	-5.530396e-06	-1.617659e-09	-3.835546e+01	-1.058731e+02
6.000000e-08	-5.528231e-06	-1.600745e-09	-3.834044e+01	-1.058505e+02
7.000000e-08	-5.525418e-06	-1.587516e-09	-3.832094e+01	-1.058283e+02
8.000000e-08	-5.522092e-06	-1.618448e-09	-3.829787e+01	-1.058063e+02
9.000000e-08	-5.518349e-06	-1.687735e-09	-3.827191e+01	-1.057839e+02
1.000000e-07	-5.514248e-06	-1.697196e-09	-3.824347e+01	-1.057607e+02
1.100000e-07	-5.509822e-06	-1.599383e-09	-3.821277e+01	-1.057364e+02
1.200000e-07	-5.505154e-06	-1.542687e-09	-3.818040e+01	-1.057105e+02
1.300000e-07	-5.500304e-06	-1.574395e-09	-3.814676e+01	-1.056824e+02
1.400000e-07	-5.495109e-06	-1.654561e-09	-3.811073e+01	-1.056517e+02
1.500000e-07	-5.489411e-06	-1.603431e-09	-3.807122e+01	-1.056180e+02
1.600000e-07	-5.483409e-06	-1.560473e-09	-3.802959e+01	-1.055808e+02
1.700000e-07	-5.477053e-06	-1.595091e-09	-3.798551e+01	-1.055397e+02
1.800000e-07	-5.470158e-06	-1.675012e-09	-3.793769e+01	-1.054942e+02
1.900000e-07	-5.462814e-06	-1.635033e-09	-3.788675e+01	-1.054439e+02
2.000000e-07	-5.455211e-06	-1.555875e-09	-3.783403e+01	-1.053884e+02
2.100000e-07	-5.447459e-06	-1.569626e-09	-3.778026e+01	-1.053274e+02
2.200000e-07	-5.439459e-06	-1.637769e-09	-3.772478e+01	-1.052605e+02
2.300000e-07	-5.431174e-06	-1.649463e-09	-3.766732e+01	-1.051874e+02
2.400000e-07	-5.422479e-06	-1.588212e-09	-3.760702e+01	-1.051078e+02
2.500000e-07	-5.413026e-06	-1.595083e-09	-3.754145e+01	-1.050215e+02
2.600000e-07	-5.402746e-06	-1.612952e-09	-3.747016e+01	-1.049283e+02
2.700000e-07	-5.391928e-06	-1.617623e-09	-3.739513e+01	-1.048281e+02
2.800000e-07	-5.380696e-06	-1.579430e-09	-3.731723e+01	-1.047206e+02
2.900000e-07	-5.369003e-06	-1.600611e-09	-3.723614e+01	-1.046059e+02
3.000000e-07	-5.356952e-06	-1.608107e-09	-3.715256e+01	-1.044838e+02
3.100000e-07	-5.344614e-06	-1.602675e-09	-3.706699e+01	-1.043543e+02
3.200000e-07	-5.331887e-06	-1.569406e-09	-3.697872e+01	-1.042176e+02
3.300000e-07	-5.318665e-06	-1.591498e-09	-3.688702e+01	-1.040736e+02
3.400000e-07	-5.305095e-06	-1.596880e-09	-3.679291e+01	-1.039225e+02
3.500000e-07	-5.291164e-06	-1.585472e-09	-3.669630e+01	-1.037644e+02
3.600000e-07	-5.276670e-06	-1.564212e-09	-3.659577e+01	-1.035995e+02
3.700000e-07	-5.261692e-06	-1.585554e-09	-3.649190e+01	-1.034280e+02
3.800000e-07	-5.246307e-06	-1.574687e-09	-3.638519e+01	-1.032501e+02
3.900000e-07	-5.230411e-06	-1.557082e-09	-3.627495e+01	-1.030660e+02
4.000000e-07	-5.214005e-06	-1.561953e-09	-3.616117e+01	-1.028761e+02
4.100000e-07	-5.197155e-06	-1.575584e-09	-3.604430e+01	-1.026807e+02
4.200000e-07	-5.179950e-06	-1.553342e-09	-3.592498e+01	-1.024799e+02
4.300000e-07	-5.162500e-06	-1.540508e-09	-3.580396e+01	-1.022743e+02
4.400000e-07	-5.144836e-06	-1.563975e-09	-3.568145e+01	-1.020640e+02
4.500000e-07	-5.126718e-06	-1.556791e-09	-3.555579e+01	-1.018495e+02
4.600000e-07	-5.108066e-06	-1.532495e-09	-3.542644e+01	-1.016310e+02
4.700000e-07	-5.089060e-06	-1.526353e-09	-3.529462e+01	-1.014089e+02
4.800000e-07	-5.069720e-06	-1.540391e-09	-3.516049e+01	-1.011836e+02
4.900000e-07	-5.050158e-06	-1.528591e-09	-3.502482e+01	-1.009553e+02
5.000000e-07	-5.030435e-06	-1.536128e-09	-3.488803e+01	-1.007243e+02
5.100000e-07	-5.010425e-06	-1.534406e-09	-3.474926e+01	-1.004910e+02
5.200000e-07	-4.990087e-06	-1.518628e-09	-3.460820e+01	-1.002555e+02
5.300000e-07	-4.969369e-06	-1.509917e-09	-3.446452e+01	-1.000183e+02
5.400000e-07	-4.948331e-06	-1.530865e-09	-3.431862e+01	-9.977943e+01
5.500000e-07	-4.926959e-06	-1.513678e-09	-3.417039e+01	-9.953920e+01
5.600000e-07	-4.905215e-06	-1.493772e-09	-3.401959e+01	-9.929777e+01
5.700000e-07	-4.883246e-06	-1.494597e-09	-3.386722e+01	-9.905532e+01
5.800000e-07	-4.860928e-06	-1.504978e-09	-3.371244e+01	-9.881197e+01
5.900000e-07	-4.838219e-06	-1.492500e-09	-3.355494e+01	-9.856784e+01
6.000000e-07	-4.815157e-06	-1.495556e-09	-3.339500e+01	-9.832303e+01
6.100000e-07	-4.791756e-06	-1.494180e-09	-3.323271e+01	-9.807757e+01
6.200000e-07	-4.768158e-06	-1.486100e-09	-3.306904e+01	-9.783151e+01
6.300000e-07	-4.744384e-06	-1.475806e-09	-3.290416e+01	-9.758485e+01
6.400000e-07	-4.720331e-06	-1.479301e-09	-3.273734e+01	-9.733758e+01
6.500000e-07	-4.695873e-06	-1.472922e-09	-3.256772e+01	-9.708965e+01
6.600000e-07	-4.671005e-06	-1.471021e-09	-3.239525e+01	-9.684100e+01
6.700000e-07	-4.645654e-06	-1.473879e-09	-3.221943e+01	-9.659154e+01
6.800000e-07	-4.619638e-06	-1.469768e-09	-3.203900e+01	-9.634117e+01
6.900000e-07	-4.593110e-06	-1.457472e-09	-3.185502e+01	-9.608976e+01
7.000000e-07	-4.566138e-06	-1.451935e-09	-3.166795e+01	-9.583719e+01
7.100000e-07	-4.538744e-06	-1.447332e-09	-3.147797e+01	-9.558329e+01
7.200000e-07	-4.511122e-06	-1.438881e-09	-3.128640e+01	-9.532792e+01
7.300000e-07	-4.483318e-06	-1.438527e-09	-3.109356e+01	-9.507089e+01
7.400000e-07	-4.455361e-06	-1.440306e-09	-3.089967e+01	-9.481204e+01
7.500000e-07	-4.427187e-06	-1.434108e-09	-3.070427e+01	-9.455118e+01
7.600000e-07	-4.398743e-06	-1.422296e-09	-3.050701e+01	-9.428812e+01
7.700000e-07	-4.369929e-06	-1.418731e-09	-3.030717e+01	-9.402268e+01
7.800000e-07	-4.340770e-06	-1.409488e-09	-3.010494e+01	-9.375468e+01
7.900000e-07	-4.311367e-06	-1.404158e-09	-2.990102e+01	-9.348393e+01
8.000000e-07	-4.281621e-06	-1.404030e-09	-2.969472e+01	-9.321026e+01
8.100000e-07	-4.251494e-06	-1.403094e-09	-2.948577e+01	-9.293349e+01
8.200000e-07	-4.221069e-06	-1.390656e-09	-2.927477e+01	-9.265347e+01
8.300000e-07	-4.190425e-06	-1.385394e-09	-2.906224e+01	-9.237004e+01
8.400000e-07	-4.159547e-06	-1.377372e-09	-2.884809e+01	-9.208304e+01
8.500000e-07	-4.128382e-06	-1.367501e-09	-2.863195e+01	-9.179236e+01
8.600000e-07	-4.097008e-06	-1.356162e-09	-2.841435e+01	-9.149785e+01
8.700000e-07	-4.065440e-06	-1.352024e-09	-2.819542e+01	-9.119941e+01
8.800000e-07	-4.033677e-06	-1.343300e-09	-2.797513e+01	-9.089693e+01
8.900000e-07	-4.001718e-06	-1.341144e-09	-2.775348e+01	-9.059033e+01
9.000000e-07	-3.969601e-06	-1.340052e-09	-2.753074e+01	-9.027952e+01
9.100000e-07	-3.937229e-06	-1.336811e-09	-2.730623e+01	-8.996444e+01
9.200000e-07	-3.904396e-06	-1.329667e-09	-2.707852e+01	-8.964503e+01
9.300000e-07	-3.871131e-06	-1.328107e-09	-2.684781e+01	-8.932123e+01
9.400000e-07	-3.837458e-06	-1.322230e-09	-2.661427e+01	-8.899301e+01
9.500000e-07	-3.803267e-06	-1.311167e-09	-2.637715e+01	-8.866035e+01
9.600000e-07	-3.768649e-06	-1.304508e-09	-2.613706e+01	-8.832321e+01
9.700000e-07	-3.733714e-06	-1.298592e-09	-2.589477e+01	-8.798157e+01
9.800000e-07	-3.698482e-06	-1.288068e-09	-2.565042e+01	-8.763544e+01
9.900000e-07	-3.663053e-06	-1.280287e-09	-2.540471e+01	-8.728480e+01
1.000000e-06	-3.627410e-06	-1.274895e-09	-2.515751e+01	-8.692964e+01
1.010000e-06	-3.591564e-06	-1.268143e-09	-2.490890e+01	-8.656998e+01
1.020000e-06	-3.555631e-06	-1.262538e-09	-2.465969e+01	-8.620580e+01
1.030000e-06	-3.519562e-06	-1.259520e-09	-2.440954e+01	-8.583711e+01
1.040000e-06	-3.483173e-06	-1.254480e-09	-2.415717e+01	-8.546391e+01
1.050000e-06	-3.446501e-06	-1.245614e-09	-2.390283e+01	-8.508620e+01
1.060000e-06	-3.409573e-06	-1.239486e-09	-2.364672e+01	-8.470398e+01
1.070000e-06	-3.372318e-06	-1.231263e-09	-2.338835e+01	-8.431723e+01
1.080000e-06	-3.334814e-06	-1.223732e-09	-2.312824e+01	-8.392595e+01
1.090000e-06	-3.297138e-06	-1.217135e-09	-2.286695e+01	-8.353012e+01
1.100000e-06	-3.259241e-06	-1.213682e-09	-2.260412e+01	-8.312972e+01
1.110000e-06	-3.221151e-06	-1.206187e-09	-2.233994e+01	-8.272474e+01
1.120000e-06	-3.182889e-06	-1.201169e-09	-2.207458e+01	-8.231513e+01
1.130000e-06	-3.144382e-06	-1.197367e-09	-2.180752e+01	-8.190087e+01
1.140000e-06	-3.105563e-06	-1.189585e-09	-2.153829e+01	-8.148190e+01
1.150000e-06	-3.066514e-06	-1.179355e-09	-2.126747e+01	-8.105820e+01
1.160000e-06	-3.027403e-06	-1.170187e-09	-2.099622e+01	-8.062969e+01
1.170000e-06	-2.988093e-06	-1.158898e-09	-2.072359e+01	-8.019632e+01
1.180000e-06	-2.948534e-06	-1.151004e-09	-2.044924e+01	-7.975803e+01
1.190000e-06	-2.908880e-06	-1.148863e-09	-2.017422e+01	-7.931475e+01
1.200000e-06	-2.869138e-06	-1.148723e-09	-1.989859e+01	-7.886639e+01
1.210000e-06	-2.829276e-06	-1.143373e-09	-1.962214e+01	-7.841288e+01
1.220000e-06	-2.789225e-06	-1.138826e-09	-1.934437e+01	-7.795413e+01
1.230000e-06	-2.748968e-06	-1.133858e-09	-1.906517e+01	-7.749005e+01
1.240000e-06	-2.708513e-06	-1.125010e-09	-1.878460e+01	-7.702053e+01
1.250000e-06	-2.667957e-06	-1.113076e-09	-1.850333e+01	-7.654547e+01
1.260000e-06	-2.627209e-06	-1.102863e-09	-1.822072e+01	-7.606475e+01
1.270000e-06	-2.586209e-06	-1.094245e-09	-1.793638e+01	-7.557827e+01
1.280000e-06	-2.544984e-06	-1.086140e-09	-1.765046e+01	-7.508589e+01
1.290000e-06	-2.503291e-06	-1.080096e-09	-1.736130e+01	-7.458748e+01
1.300000e-06	-2.461196e-06	-1.074786e-09	-1.706936e+01	-7.408289e+01
1.310000e-06	-2.418763e-06	-1.066690e-09	-1.677507e+01	-7.357198e+01
1.320000e-06	-2.375951e-06	-1.056235e-09	-1.647815e+01	-7.305458e+01
1.330000e-06	-2.332948e-06	-1.045133e-09	-1.617991e+01	-7.253051e+01
1.340000e-06	-2.289816e-06	-1.034451e-09	-1.588077e+01	-7.199959e+01
1.350000e-06	-2.246564e-06	-1.026152e-09	-1.558080e+01	-7.146162e+01
1.360000e-06	-2.203161e-06	-1.020368e-09	-1.527978e+01	-7.091637e+01
1.370000e-06	-2.159555e-06	-1.014023e-09	-1.497736e+01	-7.036361e+01
1.380000e-06	-2.115835e-06	-1.004934e-09	-1.467415e+01	-6.980307e+01
1.390000e-06	-2.072058e-06	-9.972612e-10	-1.437053e+01	-6.923449e+01
1.400000e-06	-2.028260e-06	-9.895414e-10	-1.406678e+01	-6.865755e+01
1.410000e-06	-1.984380e-06	-9.813397e-10	-1.376245e+01	-6.807193e+01
1.420000e-06	-1.940345e-06	-9.721785e-10	-1.345705e+01	-6.747727e+01
1.430000e-06	-1.896287e-06	-9.627128e-10	-1.315149e+01	-6.687319e+01
1.440000e-06	-1.852150e-06	-9.507856e-10	-1.284539e+01	-6.625927e+01
1.450000e-06	-1.807760e-06	-9.381589e-10	-1.253752e+01	-6.563506e+01
1.460000e-06	-1.763267e-06	-9.242237e-10	-1.222895e+01	-6.500007e+01
1.470000e-06	-1.718647e-06	-9.096428e-10	-1.191949e+01	-6.435379e+01
1.480000e-06	-1.673930e-06	-8.961975e-10	-1.160936e+01	-6.369566e+01
1.490000e-06	-1.629125e-06	-8.852855e-10	-1.129862e+01	-6.302508e+01
1.500000e-06	-1.584119e-06	-8.730304e-10	-1.098648e+01	-6.234142e+01
1.510000e-06	-1.538944e-06	-8.602097e-10	-1.067318e+01	-6.164402e+01
1.520000e-06	-1.493623e-06	-8.466305e-10	-1.035886e+01	-6.093214e+01
1.530000e-06	-1.448314e-06	-8.307596e-10	-1.004463e+01	-6.020506e+01
1.540000e-06	-1.402966e-06	-8.130410e-10	-9.730121e+00	-5.946197e+01
1.550000e-06	-1.357496e-06	-7.958144e-10	-9.414765e+00	-5.870205e+01
1.560000e-06	-1.311949e-06	-7.807418e-10	-9.098882e+00	-5.792444e+01
1.570000e-06	-1.266293e-06	-7.680871e-10	-8.782240e+00	-5.712826e+01
1.580000e-06	-1.220511e-06	-7.561793e-10	-8.464724e+00	-5.631257e+01
1.590000e-06	-1.174645e-06	-7.452856e-10	-8.146621e+00	-5.547641e+01
1.600000e-06	-1.128666e-06	-7.341753e-10	-7.827743e+00	-5.461883e+01
1.610000e-06	-1.082591e-06	-7.210916e-10	-7.508190e+00	-5.373882e+01
1.620000e-06	-1.036482e-06	-7.061814e-10	-7.188408e+00	-5.283536e+01
1.630000e-06	-9.902454e-07	-6.914709e-10	-6.867739e+00	-5.190744e+01
1.640000e-06	-9.438869e-07	-6.771583e-10	-6.546225e+00	-5.095403e+01
1.650000e-06	-8.975009e-07	-6.612180e-10	-6.224520e+00	-4.997409e+01
1.660000e-06	-8.510472e-07	-6.448980e-10	-5.902345e+00	-4.896662e+01
1.670000e-06	-8.045486e-07	-6.284563e-10	-5.579859e+00	-4.793059e+01
1.680000e-06	-7.580218e-07	-6.125089e-10	-5.257178e+00	-4.686502e+01
1.690000e-06	-7.114541e-07	-5.933522e-10	-4.934213e+00	-4.576894e+01
1.700000e-06	-6.647918e-07	-5.726766e-10	-4.610592e+00	-4.464144e+01
1.710000e-06	-6.180165e-07	-5.542178e-10	-4.286186e+00	-4.348161e+01
1.720000e-06	-5.712392e-07	-5.383679e-10	-3.961768e+00	-4.228863e+01
1.730000e-06	-5.244906e-07	-5.214919e-10	-3.637548e+00	-4.106170e+01
1.740000e-06	-4.776992e-07	-5.029738e-10	-3.313031e+00	-3.980012e+01
1.750000e-06	-4.308712e-07	-4.835374e-10	-2.988260e+00	-3.850324e+01
1.760000e-06	-3.839811e-07	-4.626880e-10	-2.663059e+00	-3.717049e+01
1.770000e-06	-3.371002e-07	-4.395198e-10	-2.337922e+00	-3.580140e+01
1.780000e-06	-2.902200e-07	-4.167160e-10	-2.012789e+00	-3.439557e+01
1.790000e-06	-2.433324e-07	-3.939799e-10	-1.687605e+00	-3.295273e+01
1.800000e-06	-1.965050e-07	-3.727691e-10	-1.362839e+00	-3.147269e+01
1.810000e-06	-1.494842e-07	-3.538009e-10	-1.036731e+00	-2.995539e+01
1.820000e-06	-1.023785e-07	-3.358693e-10	-7.100351e-01	-2.840088e+01
1.830000e-06	-5.544762e-08	-3.173409e-10	-3.845510e-01	-2.680934e+01
1.840000e-06	-8.599665e-09	-2.976652e-10	-5.964205e-02	-2.518106e+01
1.850000e-06	3.826010e-08	-2.777713e-10	2.653488e-01	-2.351647e+01
1.860000e-06	8.519078e-08	-2.548326e-10	5.908314e-01	-2.181614e+01
1.870000e-06	1.321709e-07	-2.280937e-10	9.166572e-01	-2.008076e+01
1.880000e-06	1.791349e-07	-2.001694e-10	1.242371e+00	-1.831116e+01
1.890000e-06	2.260793e-07	-1.738332e-10	1.567948e+00	-1.650832e+01
1.900000e-06	2.730023e-07	-1.486334e-10	1.893378e+00	-1.467332e+01
1.910000e-06	3.198666e-07	-1.242872e-10	2.218400e+00	-1.280742e+01
1.920000e-06	3.666848e-07	-9.986034e-11	2.543103e+00	-1.091197e+01
1.930000e-06	4.135216e-07	-7.396763e-11	2.867934e+00	-8.988469e+00
1.940000e-06	4.603106e-07	-4.505787e-11	3.192435e+00	-7.038534e+00
1.950000e-06	5.069864e-07	-1.407150e-11	3.516149e+00	-5.063901e+00
1.960000e-06	5.536451e-07	1.710290e-11	3.839746e+00	-3.066419e+00
1.970000e-06	6.003061e-07	4.599181e-11	4.163358e+00	-1.048044e+00
1.980000e-06	6.468654e-07	7.303047e-11	4.486265e+00	9.891709e-01
1.990000e-06	6.933788e-07	9.930986e-11	4.808853e+00	3.043081e+00
2.000000e-06	7.398577e-07	1.264479e-10	5.131203e+00	5.111459e+00
2.010000e-06	7.862222e-07	1.539876e-10	5.452758e+00	7.192006e+00
2.020000e-06	8.325813e-07	1.821273e-10	5.774277e+00	9.282360e+00
2.030000e-06	8.789478e-07	2.103423e-10	6.095847e+00	1.138011e+01
2.040000e-06	9.253125e-07	2.382187e-10	6.417405e+00	1.348279e+01
2.050000e-06	9.715314e-07	2.682204e-10	6.737951e+00	1.558793e+01
2.060000e-06	1.017642e-06	3.009629e-10	7.057744e+00	1.769301e+01
2.070000e-06	1.063706e-06	3.352335e-10	7.377216e+00	1.979553e+01
2.080000e-06	1.109680e-06	3.673899e-10	7.696066e+00	2.189297e+01
2.090000e-06	1.155604e-06	3.964576e-10	8.014567e+00	2.398284e+01
2.100000e-06	1.201421e-06	4.239334e-10	8.332323e+00	2.606269e+01
2.110000e-06	1.247143e-06	4.511401e-10	8.649424e+00	2.813007e+01
2.120000e-06	1.292789e-06	4.806688e-10	8.966000e+00	3.018262e+01
2.130000e-06	1.338364e-06	5.105209e-10	9.282080e+00	3.221802e+01
2.140000e-06	1.383830e-06	5.380906e-10	9.597401e+00	3.423401e+01
2.150000e-06	1.429200e-06	5.650699e-10	9.912065e+00	3.622845e+01
2.160000e-06	1.474434e-06	5.926047e-10	1.022578e+01	3.819925e+01
2.170000e-06	1.519651e-06	6.193026e-10	1.053938e+01	4.014443e+01
2.180000e-06	1.564801e-06	6.454619e-10	1.085251e+01	4.206212e+01
2.190000e-06	1.609772e-06	6.723530e-10	1.116440e+01	4.395057e+01
2.200000e-06	1.654666e-06	6.995869e-10	1.147575e+01	4.580813e+01
2.210000e-06	1.699397e-06	7.249745e-10	1.178598e+01	4.763331e+01
2.220000e-06	1.743933e-06	7.498256e-10	1.209486e+01	4.942470e+01
2.230000e-06	1.788279e-06	7.747438e-10	1.240242e+01	5.118107e+01
2.240000e-06	1.832472e-06	7.967581e-10	1.270891e+01	5.290130e+01
2.250000e-06	1.876593e-06	8.200601e-10	1.301491e+01	5.458441e+01
2.260000e-06	1.920661e-06	8.439203e-10	1.332054e+01	5.622958e+01
2.270000e-06	1.964646e-06	8.665635e-10	1.362559e+01	5.783611e+01
2.280000e-06	2.008529e-06	8.888281e-10	1.392993e+01	5.940343e+01
2.290000e-06	2.052358e-06	9.069456e-10	1.423390e+01	6.093114e+01
2.300000e-06	2.096165e-06	9.252001e-10	1.453773e+01	6.241894e+01
2.310000e-06	2.139900e-06	9.423907e-10	1.484105e+01	6.386668e+01
2.320000e-06	2.183558e-06	9.614393e-10	1.514383e+01	6.527433e+01
2.330000e-06	2.227119e-06	9.810134e-10	1.544594e+01	6.664199e+01
2.340000e-06	2.270559e-06	1.001073e-09	1.574722e+01	6.796986e+01
2.350000e-06	2.313840e-06	1.022887e-09	1.604739e+01	6.925826e+01
2.360000e-06	2.356867e-06	1.042940e-09	1.634580e+01	7.050762e+01
2.370000e-06	2.399624e-06	1.059311e-09	1.664233e+01	7.171846e+01
2.380000e-06	2.442101e-06	1.073499e-09	1.693693e+01	7.289138e+01
2.390000e-06	2.484257e-06	1.087457e-09	1.722930e+01	7.402707e+01
2.400000e-06	2.526054e-06	1.101057e-09	1.751918e+01	7.512629e+01
2.410000e-06	2.567533e-06	1.115179e-09	1.780685e+01	7.618988e+01
2.420000e-06	2.608718e-06	1.128782e-09	1.809248e+01	7.721870e+01
2.430000e-06	2.649584e-06	1.141329e-09	1.837590e+01	7.821369e+01
2.440000e-06	2.690154e-06	1.153610e-09	1.865727e+01	7.917581e+01
2.450000e-06	2.730496e-06	1.169044e-09	1.893706e+01	8.010606e+01
2.460000e-06	2.770716e-06	1.184665e-09	1.921600e+01	8.100547e+01
2.470000e-06	2.810833e-06	1.198820e-09	1.949423e+01	8.187506e+01
2.480000e-06	2.850809e-06	1.207957e-09	1.977148e+01	8.271588e+01
2.490000e-06	2.890658e-06	1.214898e-09	2.004784e+01	8.352897e+01
2.500000e-06	2.930353e-06	1.223244e-09	2.032314e+01	8.431536e+01
2.510000e-06	2.969912e-06	1.233334e-09	2.059750e+01	8.507609e+01
2.520000e-06	3.009300e-06	1.244808e-09	2.087068e+01	8.581215e+01
2.530000e-06	3.048470e-06	1.256329e-09	2.114233e+01	8.652452e+01
2.540000e-06	3.087472e-06	1.266631e-09	2.141283e+01	8.721417e+01
2.550000e-06	3.126096e-06	1.275107e-09	2.168070e+01	8.788199e+01
2.560000e-06	3.164468e-06	1.280763e-09	2.194683e+01	8.852890e+01
2.570000e-06	3.202761e-06	1.287598e-09	2.221240e+01	8.915572e+01
2.580000e-06	3.240834e-06	1.296157e-09	2.247646e+01	8.976326e+01
2.590000e-06	3.278731e-06	1.305674e-09	2.273928e+01	9.035229e+01
2.600000e-06	3.316392e-06	1.313611e-09	2.300048e+01	9.092353e+01
2.610000e-06	3.353819e-06	1.320105e-09	2.326004e+01	9.147766e+01
2.620000e-06	3.391049e-06	1.325520e-09	2.351825e+01	9.201531e+01
2.630000e-06	3.428003e-06	1.329535e-09	2.377454e+01	9.253706e+01
2.640000e-06	3.464628e-06	1.335258e-09	2.402855e+01	9.304348e+01
2.650000e-06	3.500954e-06	1.343467e-09	2.428049e+01	9.353507e+01
2.660000e-06	3.537045e-06	1.352829e-09	2.453080e+01	9.401229e+01
2.670000e-06	3.572997e-06	1.362758e-09	2.478013e+01	9.447559e+01
2.680000e-06	3.608881e-06	1.372067e-09	2.502900e+01	9.492537e+01
2.690000e-06	3.644626e-06	1.377485e-09	2.527691e+01	9.536200e+01
2.700000e-06	3.680239e-06	1.381295e-09	2.552390e+01	9.578582e+01
2.710000e-06	3.715722e-06	1.385891e-09	2.576999e+01	9.619716e+01
2.720000e-06	3.750921e-06	1.392007e-09	2.601410e+01	9.659631e+01
2.730000e-06	3.785771e-06	1.399612e-09	2.625580e+01	9.698356e+01
2.740000e-06	3.820232e-06	1.406563e-09	2.649480e+01	9.735917e+01
2.750000e-06	3.854240e-06	1.411201e-09	2.673066e+01	9.772340e+01
2.760000e-06	3.887664e-06	1.414213e-09	2.696247e+01	9.807650e+01
2.770000e-06	3.920591e-06	1.418322e-09	2.719083e+01	9.841871e+01
2.780000e-06	3.953254e-06	1.426671e-09	2.741737e+01	9.875028e+01
2.790000e-06	3.985613e-06	1.436191e-09	2.764179e+01	9.907144e+01
2.800000e-06	4.017610e-06	1.444623e-09	2.786370e+01	9.938245e+01
2.810000e-06	4.049384e-06	1.448957e-09	2.808406e+01	9.968354e+01
2.820000e-06	4.081082e-06	1.451643e-09	2.830390e+01	9.997497e+01
2.830000e-06	4.112667e-06	1.453801e-09	2.852296e+01	1.002570e+02
2.840000e-06	4.143966e-06	1.455582e-09	2.874002e+01	1.005299e+02
2.850000e-06	4.174959e-06	1.457586e-09	2.895498e+01	1.007940e+02
2.860000e-06	4.205700e-06	1.461458e-09	2.916818e+01	1.010495e+02
2.870000e-06	4.236159e-06	1.470110e-09	2.937942e+01	1.012967e+02
2.880000e-06	4.266297e-06	1.478443e-09	2.958844e+01	1.015360e+02
2.890000e-06	4.296074e-06	1.484427e-09	2.979495e+01	1.017676e+02
2.900000e-06	4.325573e-06	1.486930e-09	2.999955e+01	1.019919e+02
