# Temperatura_=_14.4
# Concentracion g/m^3_=_1620.0
# C_Vs_to_Am_M_A/Vsm_=_65563218390.804596
# pendiente_HvsI_1/m_=_3716.3
# ordenada_HvsI_A/m_=_1297.0
# frecuencia_Hz_=_135094.77468786752

Tiempo_(s)	Campo_(V.s)	Magnetizacion_(V.s)	Campo_(kA/m)	Magnetizacion_(A/m)
0.000000e+00	-5.526186e-06	-1.600462e-09	-3.838206e+01	-1.057008e+02
1.000000e-08	-5.526260e-06	-1.598642e-09	-3.838258e+01	-1.056574e+02
2.000000e-08	-5.526024e-06	-1.598501e-09	-3.838094e+01	-1.056138e+02
3.000000e-08	-5.525430e-06	-1.599792e-09	-3.837681e+01	-1.055701e+02
4.000000e-08	-5.524318e-06	-1.601484e-09	-3.836908e+01	-1.055258e+02
5.000000e-08	-5.522687e-06	-1.597977e-09	-3.835775e+01	-1.054809e+02
6.000000e-08	-5.520552e-06	-1.587616e-09	-3.834292e+01	-1.054352e+02
7.000000e-08	-5.517867e-06	-1.583180e-09	-3.832428e+01	-1.053883e+02
8.000000e-08	-5.514681e-06	-1.594945e-09	-3.830215e+01	-1.053401e+02
9.000000e-08	-5.510934e-06	-1.638387e-09	-3.827613e+01	-1.052902e+02
1.000000e-07	-5.506737e-06	-1.663077e-09	-3.824697e+01	-1.052385e+02
1.100000e-07	-5.502248e-06	-1.590343e-09	-3.821580e+01	-1.051847e+02
1.200000e-07	-5.497593e-06	-1.497613e-09	-3.818347e+01	-1.051284e+02
1.300000e-07	-5.492732e-06	-1.562184e-09	-3.814970e+01	-1.050696e+02
1.400000e-07	-5.487446e-06	-1.635813e-09	-3.811299e+01	-1.050078e+02
1.500000e-07	-5.481696e-06	-1.626705e-09	-3.807306e+01	-1.049428e+02
1.600000e-07	-5.475560e-06	-1.513285e-09	-3.803044e+01	-1.048745e+02
1.700000e-07	-5.469079e-06	-1.558492e-09	-3.798543e+01	-1.048025e+02
1.800000e-07	-5.462208e-06	-1.635234e-09	-3.793770e+01	-1.047267e+02
1.900000e-07	-5.454901e-06	-1.622638e-09	-3.788695e+01	-1.046468e+02
2.000000e-07	-5.447346e-06	-1.525549e-09	-3.783448e+01	-1.045626e+02
2.100000e-07	-5.439599e-06	-1.548902e-09	-3.778067e+01	-1.044741e+02
2.200000e-07	-5.431500e-06	-1.632694e-09	-3.772442e+01	-1.043810e+02
2.300000e-07	-5.423093e-06	-1.638354e-09	-3.766602e+01	-1.042832e+02
2.400000e-07	-5.414204e-06	-1.575000e-09	-3.760429e+01	-1.041806e+02
2.500000e-07	-5.404646e-06	-1.560586e-09	-3.753790e+01	-1.040731e+02
2.600000e-07	-5.394373e-06	-1.610402e-09	-3.746655e+01	-1.039607e+02
2.700000e-07	-5.383451e-06	-1.595037e-09	-3.739069e+01	-1.038433e+02
2.800000e-07	-5.372148e-06	-1.567690e-09	-3.731219e+01	-1.037209e+02
2.900000e-07	-5.360450e-06	-1.556141e-09	-3.723094e+01	-1.035935e+02
3.000000e-07	-5.348334e-06	-1.597998e-09	-3.714679e+01	-1.034610e+02
3.100000e-07	-5.335863e-06	-1.579749e-09	-3.706017e+01	-1.033237e+02
3.200000e-07	-5.322929e-06	-1.569183e-09	-3.697034e+01	-1.031815e+02
3.300000e-07	-5.309492e-06	-1.546111e-09	-3.687702e+01	-1.030345e+02
3.400000e-07	-5.295739e-06	-1.586389e-09	-3.678149e+01	-1.028828e+02
3.500000e-07	-5.281770e-06	-1.573931e-09	-3.668447e+01	-1.027266e+02
3.600000e-07	-5.267334e-06	-1.560441e-09	-3.658421e+01	-1.025659e+02
3.700000e-07	-5.252462e-06	-1.545541e-09	-3.648091e+01	-1.024009e+02
3.800000e-07	-5.237188e-06	-1.580190e-09	-3.637483e+01	-1.022317e+02
3.900000e-07	-5.221250e-06	-1.544218e-09	-3.626413e+01	-1.020586e+02
4.000000e-07	-5.204756e-06	-1.524014e-09	-3.614957e+01	-1.018816e+02
4.100000e-07	-5.187875e-06	-1.556095e-09	-3.603232e+01	-1.017010e+02
4.200000e-07	-5.170708e-06	-1.565220e-09	-3.591309e+01	-1.015169e+02
4.300000e-07	-5.153256e-06	-1.505761e-09	-3.579188e+01	-1.013295e+02
4.400000e-07	-5.135547e-06	-1.529529e-09	-3.566888e+01	-1.011389e+02
4.500000e-07	-5.117469e-06	-1.582840e-09	-3.554332e+01	-1.009453e+02
4.600000e-07	-5.098902e-06	-1.523939e-09	-3.541436e+01	-1.007489e+02
4.700000e-07	-5.079936e-06	-1.479466e-09	-3.528263e+01	-1.005498e+02
4.800000e-07	-5.060593e-06	-1.545878e-09	-3.514829e+01	-1.003482e+02
4.900000e-07	-5.040935e-06	-1.546667e-09	-3.501175e+01	-1.001442e+02
5.000000e-07	-5.021085e-06	-1.476365e-09	-3.487388e+01	-9.993798e+01
5.100000e-07	-5.001046e-06	-1.514077e-09	-3.473471e+01	-9.972955e+01
5.200000e-07	-4.980733e-06	-1.542259e-09	-3.459362e+01	-9.951905e+01
5.300000e-07	-4.960073e-06	-1.482501e-09	-3.445013e+01	-9.930658e+01
5.400000e-07	-4.938999e-06	-1.487114e-09	-3.430376e+01	-9.909220e+01
5.500000e-07	-4.917546e-06	-1.546451e-09	-3.415475e+01	-9.887596e+01
5.600000e-07	-4.895758e-06	-1.485894e-09	-3.400343e+01	-9.865791e+01
5.700000e-07	-4.873670e-06	-1.452652e-09	-3.385002e+01	-9.843808e+01
5.800000e-07	-4.851269e-06	-1.505938e-09	-3.369443e+01	-9.821648e+01
5.900000e-07	-4.828518e-06	-1.499710e-09	-3.353642e+01	-9.799311e+01
6.000000e-07	-4.805377e-06	-1.442724e-09	-3.337569e+01	-9.776797e+01
6.100000e-07	-4.781947e-06	-1.482655e-09	-3.321295e+01	-9.754102e+01
6.200000e-07	-4.758273e-06	-1.494004e-09	-3.304853e+01	-9.731224e+01
6.300000e-07	-4.734327e-06	-1.452398e-09	-3.288221e+01	-9.708159e+01
6.400000e-07	-4.710120e-06	-1.454517e-09	-3.271408e+01	-9.684900e+01
6.500000e-07	-4.685576e-06	-1.479534e-09	-3.254361e+01	-9.661442e+01
6.600000e-07	-4.660642e-06	-1.443697e-09	-3.237044e+01	-9.637779e+01
6.700000e-07	-4.635268e-06	-1.440536e-09	-3.219420e+01	-9.613902e+01
6.800000e-07	-4.609286e-06	-1.458648e-09	-3.201374e+01	-9.589806e+01
6.900000e-07	-4.582723e-06	-1.443670e-09	-3.182925e+01	-9.565481e+01
7.000000e-07	-4.555790e-06	-1.425977e-09	-3.164218e+01	-9.540921e+01
7.100000e-07	-4.528565e-06	-1.441644e-09	-3.145309e+01	-9.516117e+01
7.200000e-07	-4.501034e-06	-1.432108e-09	-3.126188e+01	-9.491061e+01
7.300000e-07	-4.473228e-06	-1.420057e-09	-3.106875e+01	-9.465746e+01
7.400000e-07	-4.445261e-06	-1.427582e-09	-3.087451e+01	-9.440165e+01
7.500000e-07	-4.417067e-06	-1.424272e-09	-3.067868e+01	-9.414311e+01
7.600000e-07	-4.388540e-06	-1.407387e-09	-3.048055e+01	-9.388177e+01
7.700000e-07	-4.359764e-06	-1.407822e-09	-3.028069e+01	-9.361758e+01
7.800000e-07	-4.330656e-06	-1.407066e-09	-3.007852e+01	-9.335047e+01
7.900000e-07	-4.301214e-06	-1.393019e-09	-2.987403e+01	-9.308041e+01
8.000000e-07	-4.271488e-06	-1.393901e-09	-2.966757e+01	-9.280735e+01
8.100000e-07	-4.241453e-06	-1.392500e-09	-2.945896e+01	-9.253126e+01
8.200000e-07	-4.211195e-06	-1.377407e-09	-2.924880e+01	-9.225210e+01
8.300000e-07	-4.180674e-06	-1.367753e-09	-2.903682e+01	-9.196985e+01
8.400000e-07	-4.149754e-06	-1.374931e-09	-2.882207e+01	-9.168449e+01
8.500000e-07	-4.118464e-06	-1.366373e-09	-2.860475e+01	-9.139601e+01
8.600000e-07	-4.087015e-06	-1.356001e-09	-2.838632e+01	-9.110439e+01
8.700000e-07	-4.055447e-06	-1.349861e-09	-2.816706e+01	-9.080963e+01
8.800000e-07	-4.023717e-06	-1.344199e-09	-2.794668e+01	-9.051172e+01
8.900000e-07	-3.991785e-06	-1.328340e-09	-2.772489e+01	-9.021065e+01
9.000000e-07	-3.959595e-06	-1.328082e-09	-2.750132e+01	-8.990643e+01
9.100000e-07	-3.927055e-06	-1.327109e-09	-2.727531e+01	-8.959903e+01
9.200000e-07	-3.894163e-06	-1.322178e-09	-2.704686e+01	-8.928846e+01
9.300000e-07	-3.860919e-06	-1.317420e-09	-2.681596e+01	-8.897471e+01
9.400000e-07	-3.827261e-06	-1.319996e-09	-2.658219e+01	-8.865776e+01
9.500000e-07	-3.793229e-06	-1.308325e-09	-2.634583e+01	-8.833759e+01
9.600000e-07	-3.758663e-06	-1.297381e-09	-2.610575e+01	-8.801417e+01
9.700000e-07	-3.723607e-06	-1.292437e-09	-2.586227e+01	-8.768747e+01
9.800000e-07	-3.688379e-06	-1.287442e-09	-2.561759e+01	-8.735746e+01
9.900000e-07	-3.652908e-06	-1.273757e-09	-2.537123e+01	-8.702408e+01
1.000000e-06	-3.617126e-06	-1.268043e-09	-2.512271e+01	-8.668728e+01
1.010000e-06	-3.581212e-06	-1.266662e-09	-2.487327e+01	-8.634698e+01
1.020000e-06	-3.545266e-06	-1.260078e-09	-2.462360e+01	-8.600311e+01
1.030000e-06	-3.509130e-06	-1.253506e-09	-2.437262e+01	-8.565559e+01
1.040000e-06	-3.472730e-06	-1.251886e-09	-2.411981e+01	-8.530431e+01
1.050000e-06	-3.436065e-06	-1.244867e-09	-2.386515e+01	-8.494918e+01
1.060000e-06	-3.399120e-06	-1.234618e-09	-2.360855e+01	-8.459007e+01
1.070000e-06	-3.361989e-06	-1.231068e-09	-2.335066e+01	-8.422686e+01
1.080000e-06	-3.324604e-06	-1.227680e-09	-2.309100e+01	-8.385941e+01
1.090000e-06	-3.286978e-06	-1.219897e-09	-2.282967e+01	-8.348758e+01
1.100000e-06	-3.249113e-06	-1.212056e-09	-2.256667e+01	-8.311122e+01
1.110000e-06	-3.211019e-06	-1.205370e-09	-2.230210e+01	-8.273018e+01
1.120000e-06	-3.172762e-06	-1.195003e-09	-2.203638e+01	-8.234429e+01
1.130000e-06	-3.134267e-06	-1.190130e-09	-2.176901e+01	-8.195338e+01
1.140000e-06	-3.095573e-06	-1.187728e-09	-2.150026e+01	-8.155729e+01
1.150000e-06	-3.056607e-06	-1.184256e-09	-2.122963e+01	-8.115585e+01
1.160000e-06	-3.017463e-06	-1.176768e-09	-2.095775e+01	-8.074888e+01
1.170000e-06	-2.978160e-06	-1.171904e-09	-2.068477e+01	-8.033620e+01
1.180000e-06	-2.938557e-06	-1.163845e-09	-2.040972e+01	-7.991766e+01
1.190000e-06	-2.898828e-06	-1.155687e-09	-2.013377e+01	-7.949306e+01
1.200000e-06	-2.859067e-06	-1.145692e-09	-1.985762e+01	-7.906225e+01
1.210000e-06	-2.819188e-06	-1.137855e-09	-1.958063e+01	-7.862507e+01
1.220000e-06	-2.779154e-06	-1.129063e-09	-1.930258e+01	-7.818134e+01
1.230000e-06	-2.738957e-06	-1.125198e-09	-1.902339e+01	-7.773092e+01
1.240000e-06	-2.698559e-06	-1.122528e-09	-1.874281e+01	-7.727366e+01
1.250000e-06	-2.657920e-06	-1.117267e-09	-1.846055e+01	-7.680941e+01
1.260000e-06	-2.617030e-06	-1.107227e-09	-1.817655e+01	-7.633803e+01
1.270000e-06	-2.575967e-06	-1.096569e-09	-1.789134e+01	-7.585939e+01
1.280000e-06	-2.534704e-06	-1.084897e-09	-1.760476e+01	-7.537335e+01
1.290000e-06	-2.493149e-06	-1.073015e-09	-1.731614e+01	-7.487978e+01
1.300000e-06	-2.451230e-06	-1.062051e-09	-1.702499e+01	-7.437857e+01
1.310000e-06	-2.409007e-06	-1.053922e-09	-1.673173e+01	-7.386958e+01
1.320000e-06	-2.366574e-06	-1.046528e-09	-1.643701e+01	-7.335270e+01
1.330000e-06	-2.323900e-06	-1.039109e-09	-1.614062e+01	-7.282779e+01
1.340000e-06	-2.280945e-06	-1.030306e-09	-1.584228e+01	-7.229473e+01
1.350000e-06	-2.237683e-06	-1.022658e-09	-1.554180e+01	-7.175337e+01
1.360000e-06	-2.194174e-06	-1.014374e-09	-1.523961e+01	-7.120358e+01
1.370000e-06	-2.150573e-06	-1.006527e-09	-1.493678e+01	-7.064520e+01
1.380000e-06	-2.106920e-06	-9.986652e-10	-1.463359e+01	-7.007806e+01
1.390000e-06	-2.063162e-06	-9.871654e-10	-1.432967e+01	-6.950197e+01
1.400000e-06	-2.019256e-06	-9.755758e-10	-1.402472e+01	-6.891673e+01
1.410000e-06	-1.975300e-06	-9.651738e-10	-1.371942e+01	-6.832211e+01
1.420000e-06	-1.931277e-06	-9.549478e-10	-1.341366e+01	-6.771786e+01
1.430000e-06	-1.887157e-06	-9.450517e-10	-1.310723e+01	-6.710370e+01
1.440000e-06	-1.842960e-06	-9.371430e-10	-1.280026e+01	-6.647933e+01
1.450000e-06	-1.798653e-06	-9.286731e-10	-1.249252e+01	-6.584439e+01
1.460000e-06	-1.754261e-06	-9.182192e-10	-1.218420e+01	-6.519851e+01
1.470000e-06	-1.709744e-06	-9.048934e-10	-1.187501e+01	-6.454128e+01
1.480000e-06	-1.665058e-06	-8.911943e-10	-1.156464e+01	-6.387224e+01
1.490000e-06	-1.620206e-06	-8.744044e-10	-1.125312e+01	-6.319090e+01
1.500000e-06	-1.575157e-06	-8.573805e-10	-1.094024e+01	-6.249671e+01
1.510000e-06	-1.530012e-06	-8.444873e-10	-1.062668e+01	-6.178909e+01
1.520000e-06	-1.484843e-06	-8.375315e-10	-1.031296e+01	-6.106741e+01
1.530000e-06	-1.439565e-06	-8.298196e-10	-9.998479e+00	-6.033100e+01
1.540000e-06	-1.394192e-06	-8.207890e-10	-9.683341e+00	-5.957915e+01
1.550000e-06	-1.348683e-06	-8.062614e-10	-9.367264e+00	-5.881109e+01
1.560000e-06	-1.303013e-06	-7.897072e-10	-9.050061e+00	-5.802602e+01
1.570000e-06	-1.257244e-06	-7.725412e-10	-8.732176e+00	-5.722310e+01
1.580000e-06	-1.211471e-06	-7.566043e-10	-8.414257e+00	-5.640144e+01
1.590000e-06	-1.165611e-06	-7.414828e-10	-8.095737e+00	-5.556013e+01
1.600000e-06	-1.119700e-06	-7.291916e-10	-7.776865e+00	-5.469822e+01
1.610000e-06	-1.073678e-06	-7.194441e-10	-7.457219e+00	-5.381473e+01
1.620000e-06	-1.027477e-06	-7.105997e-10	-7.136332e+00	-5.290867e+01
1.630000e-06	-9.812565e-07	-7.013033e-10	-6.815305e+00	-5.197901e+01
1.640000e-06	-9.349989e-07	-6.885979e-10	-6.494023e+00	-5.102472e+01
1.650000e-06	-8.888134e-07	-6.719186e-10	-6.173243e+00	-5.004478e+01
1.660000e-06	-8.425909e-07	-6.534694e-10	-5.852205e+00	-4.903813e+01
1.670000e-06	-7.962613e-07	-6.342853e-10	-5.530423e+00	-4.800375e+01
1.680000e-06	-7.498325e-07	-6.155627e-10	-5.207953e+00	-4.694063e+01
1.690000e-06	-7.033372e-07	-5.989464e-10	-4.885020e+00	-4.584777e+01
1.700000e-06	-6.568794e-07	-5.811375e-10	-4.562348e+00	-4.472421e+01
1.710000e-06	-6.103979e-07	-5.641888e-10	-4.239511e+00	-4.356901e+01
1.720000e-06	-5.637837e-07	-5.464892e-10	-3.915753e+00	-4.238129e+01
1.730000e-06	-5.170082e-07	-5.287217e-10	-3.590874e+00	-4.116024e+01
1.740000e-06	-4.702313e-07	-5.107582e-10	-3.265986e+00	-3.990507e+01
1.750000e-06	-4.234187e-07	-4.912582e-10	-2.940849e+00	-3.861510e+01
1.760000e-06	-3.766372e-07	-4.701481e-10	-2.615929e+00	-3.728970e+01
1.770000e-06	-3.299655e-07	-4.486647e-10	-2.291772e+00	-3.592836e+01
1.780000e-06	-2.832046e-07	-4.272055e-10	-1.966994e+00	-3.453061e+01
1.790000e-06	-2.363525e-07	-4.075151e-10	-1.641583e+00	-3.309614e+01
1.800000e-06	-1.895107e-07	-3.895990e-10	-1.316244e+00	-3.162471e+01
1.810000e-06	-1.426195e-07	-3.709890e-10	-9.905623e-01	-3.011620e+01
1.820000e-06	-9.574766e-08	-3.503959e-10	-6.650142e-01	-2.857062e+01
1.830000e-06	-4.895146e-08	-3.300071e-10	-3.399918e-01	-2.698808e+01
1.840000e-06	-2.093196e-09	-3.082858e-10	-1.453827e-02	-2.536886e+01
1.850000e-06	4.489960e-08	-2.852941e-10	3.118496e-01	-2.371334e+01
1.860000e-06	9.184107e-08	-2.625428e-10	6.378811e-01	-2.202204e+01
1.870000e-06	1.386776e-07	-2.390795e-10	9.631836e-01	-2.029562e+01
1.880000e-06	1.856162e-07	-2.140902e-10	1.289195e+00	-1.853489e+01
1.890000e-06	2.325920e-07	-1.897133e-10	1.615465e+00	-1.674078e+01
1.900000e-06	2.794415e-07	-1.634207e-10	1.940858e+00	-1.491437e+01
1.910000e-06	3.262271e-07	-1.344104e-10	2.265806e+00	-1.305689e+01
1.920000e-06	3.729947e-07	-1.056067e-10	2.590631e+00	-1.116967e+01
1.930000e-06	4.197232e-07	-7.783732e-11	2.915183e+00	-9.254212e+00
1.940000e-06	4.664754e-07	-5.148541e-11	3.239899e+00	-7.312115e+00
1.950000e-06	5.130754e-07	-2.676598e-11	3.563559e+00	-5.345115e+00
1.960000e-06	5.595319e-07	-3.451085e-12	3.886222e+00	-3.355062e+00
1.970000e-06	6.060300e-07	1.997036e-11	4.209174e+00	-1.343915e+00
1.980000e-06	6.524727e-07	4.590078e-11	4.531742e+00	6.862633e-01
1.990000e-06	6.988477e-07	7.620244e-11	4.853838e+00	2.733318e+00
2.000000e-06	7.452537e-07	1.094178e-10	5.176151e+00	4.795007e+00
2.010000e-06	7.916640e-07	1.417197e-10	5.498493e+00	6.869014e+00
2.020000e-06	8.379367e-07	1.702250e-10	5.819879e+00	8.952956e+00
2.030000e-06	8.841280e-07	1.963162e-10	6.140701e+00	1.104440e+01
2.040000e-06	9.302595e-07	2.212654e-10	6.461106e+00	1.314086e+01
2.050000e-06	9.762436e-07	2.468850e-10	6.780488e+00	1.523982e+01
2.060000e-06	1.022177e-06	2.757700e-10	7.099518e+00	1.733876e+01
2.070000e-06	1.068062e-06	3.108658e-10	7.418212e+00	1.943513e+01
2.080000e-06	1.113905e-06	3.458201e-10	7.736613e+00	2.152639e+01
2.090000e-06	1.159733e-06	3.805782e-10	8.054914e+00	2.361002e+01
2.100000e-06	1.205494e-06	4.109299e-10	8.372745e+00	2.568351e+01
2.110000e-06	1.251121e-06	4.367818e-10	8.689645e+00	2.774442e+01
2.120000e-06	1.296616e-06	4.632490e-10	9.005634e+00	2.979033e+01
2.130000e-06	1.342079e-06	4.920388e-10	9.321393e+00	3.181890e+01
2.140000e-06	1.387531e-06	5.191344e-10	9.637082e+00	3.382785e+01
2.150000e-06	1.432917e-06	5.451012e-10	9.952309e+00	3.581499e+01
2.160000e-06	1.478053e-06	5.720921e-10	1.026580e+01	3.777821e+01
2.170000e-06	1.522985e-06	5.986288e-10	1.057788e+01	3.971552e+01
2.180000e-06	1.567875e-06	6.249017e-10	1.088966e+01	4.162501e+01
2.190000e-06	1.612738e-06	6.520033e-10	1.120126e+01	4.350491e+01
2.200000e-06	1.657506e-06	6.816466e-10	1.151219e+01	4.535356e+01
2.210000e-06	1.702129e-06	7.097695e-10	1.182212e+01	4.716944e+01
2.220000e-06	1.746570e-06	7.355513e-10	1.213078e+01	4.895115e+01
2.230000e-06	1.790829e-06	7.579602e-10	1.243818e+01	5.069743e+01
2.240000e-06	1.834997e-06	7.761595e-10	1.274495e+01	5.240717e+01
2.250000e-06	1.879093e-06	7.917672e-10	1.305122e+01	5.407939e+01
2.260000e-06	1.923077e-06	8.104014e-10	1.335671e+01	5.571325e+01
2.270000e-06	1.966967e-06	8.336529e-10	1.366155e+01	5.730808e+01
2.280000e-06	2.010822e-06	8.601874e-10	1.396614e+01	5.886333e+01
2.290000e-06	2.054629e-06	8.836761e-10	1.427040e+01	6.037858e+01
2.300000e-06	2.098392e-06	9.033364e-10	1.457435e+01	6.185358e+01
2.310000e-06	2.142146e-06	9.184435e-10	1.487825e+01	6.328819e+01
2.320000e-06	2.185820e-06	9.338799e-10	1.518159e+01	6.468242e+01
2.330000e-06	2.229304e-06	9.523213e-10	1.548361e+01	6.603639e+01
2.340000e-06	2.272650e-06	9.717036e-10	1.578466e+01	6.735035e+01
2.350000e-06	2.315870e-06	9.924036e-10	1.608485e+01	6.862467e+01
2.360000e-06	2.358797e-06	1.010534e-09	1.638300e+01	6.985982e+01
2.370000e-06	2.401327e-06	1.026339e-09	1.667839e+01	7.105637e+01
2.380000e-06	2.443596e-06	1.040144e-09	1.697196e+01	7.221498e+01
2.390000e-06	2.485595e-06	1.055126e-09	1.726367e+01	7.333640e+01
2.400000e-06	2.527298e-06	1.070912e-09	1.755332e+01	7.442146e+01
2.410000e-06	2.568664e-06	1.086194e-09	1.784062e+01	7.547105e+01
2.420000e-06	2.609608e-06	1.100570e-09	1.812500e+01	7.648612e+01
2.430000e-06	2.650285e-06	1.112132e-09	1.840752e+01	7.746769e+01
2.440000e-06	2.690828e-06	1.122456e-09	1.868911e+01	7.841679e+01
2.450000e-06	2.731277e-06	1.132076e-09	1.897005e+01	7.933450e+01
2.460000e-06	2.771484e-06	1.142419e-09	1.924931e+01	8.022192e+01
2.470000e-06	2.811435e-06	1.153046e-09	1.952679e+01	8.108018e+01
2.480000e-06	2.851308e-06	1.163583e-09	1.980373e+01	8.191040e+01
2.490000e-06	2.891109e-06	1.176420e-09	2.008016e+01	8.271371e+01
2.500000e-06	2.930749e-06	1.188061e-09	2.035548e+01	8.349122e+01
2.510000e-06	2.970244e-06	1.197497e-09	2.062979e+01	8.424405e+01
2.520000e-06	3.009576e-06	1.206801e-09	2.090297e+01	8.497328e+01
2.530000e-06	3.048716e-06	1.214700e-09	2.117482e+01	8.567997e+01
2.540000e-06	3.087632e-06	1.223080e-09	2.144511e+01	8.636516e+01
2.550000e-06	3.126287e-06	1.230521e-09	2.171359e+01	8.702984e+01
2.560000e-06	3.164662e-06	1.238399e-09	2.198012e+01	8.767496e+01
2.570000e-06	3.202818e-06	1.248604e-09	2.224513e+01	8.830144e+01
2.580000e-06	3.240792e-06	1.258850e-09	2.250888e+01	8.891014e+01
2.590000e-06	3.278534e-06	1.268690e-09	2.277102e+01	8.950189e+01
2.600000e-06	3.316152e-06	1.276544e-09	2.303230e+01	9.007744e+01
2.610000e-06	3.353608e-06	1.283238e-09	2.329244e+01	9.063753e+01
2.620000e-06	3.390708e-06	1.290124e-09	2.355012e+01	9.118281e+01
2.630000e-06	3.427443e-06	1.298453e-09	2.380527e+01	9.171390e+01
2.640000e-06	3.463941e-06	1.309637e-09	2.405876e+01	9.223136e+01
2.650000e-06	3.500210e-06	1.319018e-09	2.431067e+01	9.273571e+01
2.660000e-06	3.536254e-06	1.324169e-09	2.456101e+01	9.322742e+01
2.670000e-06	3.572203e-06	1.327506e-09	2.481069e+01	9.370691e+01
2.680000e-06	3.608083e-06	1.332421e-09	2.505990e+01	9.417456e+01
2.690000e-06	3.643805e-06	1.339762e-09	2.530801e+01	9.463069e+01
2.700000e-06	3.679397e-06	1.348436e-09	2.555520e+01	9.507562e+01
2.710000e-06	3.714859e-06	1.357886e-09	2.580151e+01	9.550960e+01
2.720000e-06	3.749995e-06	1.367271e-09	2.604554e+01	9.593287e+01
2.730000e-06	3.784732e-06	1.375223e-09	2.628681e+01	9.634562e+01
2.740000e-06	3.819033e-06	1.380656e-09	2.652505e+01	9.674804e+01
2.750000e-06	3.852840e-06	1.382776e-09	2.675986e+01	9.714029e+01
2.760000e-06	3.886063e-06	1.384564e-09	2.699060e+01	9.752249e+01
2.770000e-06	3.918758e-06	1.389256e-09	2.721769e+01	9.789479e+01
2.780000e-06	3.951170e-06	1.396774e-09	2.744280e+01	9.825728e+01
2.790000e-06	3.983333e-06	1.406078e-09	2.766619e+01	9.861008e+01
2.800000e-06	4.015317e-06	1.415720e-09	2.788833e+01	9.895328e+01
2.810000e-06	4.047171e-06	1.423322e-09	2.810958e+01	9.928699e+01
2.820000e-06	4.078883e-06	1.429990e-09	2.832984e+01	9.961129e+01
2.830000e-06	4.110473e-06	1.436881e-09	2.854924e+01	9.992630e+01
2.840000e-06	4.141846e-06	1.441194e-09	2.876714e+01	1.002321e+02
2.850000e-06	4.172841e-06	1.442943e-09	2.898242e+01	1.005288e+02
2.860000e-06	4.203459e-06	1.444487e-09	2.919507e+01	1.008166e+02
2.870000e-06	4.233767e-06	1.449106e-09	2.940558e+01	1.010955e+02
2.880000e-06	4.263820e-06	1.454208e-09	2.961431e+01	1.013657e+02
2.890000e-06	4.293652e-06	1.461139e-09	2.982151e+01	1.016274e+02
2.900000e-06	4.323203e-06	1.467695e-09	3.002676e+01	1.018806e+02
