# Temperatura_=_4.83
# Concentracion g/m^3_=_1620.0
# C_Vs_to_Am_M_A/Vsm_=_65563218390.804596
# pendiente_HvsI_1/m_=_3716.3
# ordenada_HvsI_A/m_=_1297.0
# frecuencia_Hz_=_135100.14404359678

Tiempo_(s)	Campo_(V.s)	Magnetizacion_(V.s)	Campo_(kA/m)	Magnetizacion_(A/m)
0.000000e+00	-5.539771e-06	-1.452130e-09	-3.836583e+01	-9.544213e+01
1.000000e-08	-5.539972e-06	-1.448326e-09	-3.836722e+01	-9.545954e+01
2.000000e-08	-5.539914e-06	-1.447351e-09	-3.836682e+01	-9.547820e+01
3.000000e-08	-5.539590e-06	-1.448929e-09	-3.836457e+01	-9.549773e+01
4.000000e-08	-5.538839e-06	-1.449665e-09	-3.835937e+01	-9.551770e+01
5.000000e-08	-5.537635e-06	-1.449000e-09	-3.835103e+01	-9.553767e+01
6.000000e-08	-5.535821e-06	-1.450247e-09	-3.833847e+01	-9.555718e+01
7.000000e-08	-5.533307e-06	-1.458203e-09	-3.832106e+01	-9.557575e+01
8.000000e-08	-5.530229e-06	-1.472227e-09	-3.829974e+01	-9.559288e+01
9.000000e-08	-5.526664e-06	-1.455739e-09	-3.827505e+01	-9.560808e+01
1.000000e-07	-5.522675e-06	-1.418826e-09	-3.824743e+01	-9.562083e+01
1.100000e-07	-5.518338e-06	-1.411335e-09	-3.821739e+01	-9.563063e+01
1.200000e-07	-5.513763e-06	-1.478550e-09	-3.818571e+01	-9.563699e+01
1.300000e-07	-5.508873e-06	-1.458468e-09	-3.815184e+01	-9.563942e+01
1.400000e-07	-5.503647e-06	-1.426902e-09	-3.811565e+01	-9.563743e+01
1.500000e-07	-5.498184e-06	-1.409141e-09	-3.807781e+01	-9.563058e+01
1.600000e-07	-5.492427e-06	-1.474752e-09	-3.803794e+01	-9.561843e+01
1.700000e-07	-5.486154e-06	-1.465367e-09	-3.799450e+01	-9.560057e+01
1.800000e-07	-5.479402e-06	-1.404388e-09	-3.794774e+01	-9.557663e+01
1.900000e-07	-5.472355e-06	-1.414591e-09	-3.789893e+01	-9.554628e+01
2.000000e-07	-5.464942e-06	-1.443553e-09	-3.784759e+01	-9.550920e+01
2.100000e-07	-5.457151e-06	-1.460481e-09	-3.779364e+01	-9.546513e+01
2.200000e-07	-5.449116e-06	-1.422948e-09	-3.773799e+01	-9.541386e+01
2.300000e-07	-5.440850e-06	-1.444845e-09	-3.768074e+01	-9.535521e+01
2.400000e-07	-5.432233e-06	-1.440072e-09	-3.762107e+01	-9.528904e+01
2.500000e-07	-5.423011e-06	-1.441344e-09	-3.755720e+01	-9.521529e+01
2.600000e-07	-5.413059e-06	-1.416135e-09	-3.748828e+01	-9.513390e+01
2.700000e-07	-5.402523e-06	-1.437132e-09	-3.741531e+01	-9.504491e+01
2.800000e-07	-5.391440e-06	-1.427303e-09	-3.733855e+01	-9.494836e+01
2.900000e-07	-5.379924e-06	-1.437674e-09	-3.725880e+01	-9.484437e+01
3.000000e-07	-5.368057e-06	-1.422354e-09	-3.717662e+01	-9.473309e+01
3.100000e-07	-5.355759e-06	-1.423834e-09	-3.709145e+01	-9.461472e+01
3.200000e-07	-5.343013e-06	-1.414544e-09	-3.700317e+01	-9.448950e+01
3.300000e-07	-5.329854e-06	-1.438632e-09	-3.691204e+01	-9.435771e+01
3.400000e-07	-5.316315e-06	-1.435323e-09	-3.681827e+01	-9.421966e+01
3.500000e-07	-5.302404e-06	-1.421408e-09	-3.672193e+01	-9.407570e+01
3.600000e-07	-5.288125e-06	-1.427809e-09	-3.662305e+01	-9.392620e+01
3.700000e-07	-5.273447e-06	-1.429466e-09	-3.652139e+01	-9.377156e+01
3.800000e-07	-5.258209e-06	-1.398371e-09	-3.641586e+01	-9.361221e+01
3.900000e-07	-5.242410e-06	-1.404087e-09	-3.630644e+01	-9.344859e+01
4.000000e-07	-5.226144e-06	-1.440534e-09	-3.619380e+01	-9.328113e+01
4.100000e-07	-5.209465e-06	-1.403658e-09	-3.607828e+01	-9.311030e+01
4.200000e-07	-5.192409e-06	-1.387317e-09	-3.596016e+01	-9.293656e+01
4.300000e-07	-5.175026e-06	-1.437204e-09	-3.583978e+01	-9.276037e+01
4.400000e-07	-5.157369e-06	-1.437626e-09	-3.571749e+01	-9.258217e+01
4.500000e-07	-5.139308e-06	-1.356075e-09	-3.559241e+01	-9.240241e+01
4.600000e-07	-5.120910e-06	-1.393285e-09	-3.546499e+01	-9.222151e+01
4.700000e-07	-5.102158e-06	-1.438913e-09	-3.533513e+01	-9.203988e+01
4.800000e-07	-5.083037e-06	-1.384129e-09	-3.520271e+01	-9.185789e+01
4.900000e-07	-5.063644e-06	-1.357446e-09	-3.506839e+01	-9.167590e+01
5.000000e-07	-5.043976e-06	-1.434839e-09	-3.493219e+01	-9.149424e+01
5.100000e-07	-5.023985e-06	-1.397460e-09	-3.479374e+01	-9.131320e+01
5.200000e-07	-5.003621e-06	-1.345601e-09	-3.465271e+01	-9.113304e+01
5.300000e-07	-4.983008e-06	-1.398366e-09	-3.450995e+01	-9.095396e+01
5.400000e-07	-4.962149e-06	-1.420396e-09	-3.436549e+01	-9.077616e+01
5.500000e-07	-4.940913e-06	-1.343435e-09	-3.421842e+01	-9.059977e+01
5.600000e-07	-4.919285e-06	-1.373679e-09	-3.406864e+01	-9.042488e+01
5.700000e-07	-4.897255e-06	-1.416046e-09	-3.391606e+01	-9.025156e+01
5.800000e-07	-4.874866e-06	-1.358680e-09	-3.376101e+01	-9.007981e+01
5.900000e-07	-4.852154e-06	-1.339902e-09	-3.360371e+01	-8.990962e+01
6.000000e-07	-4.829144e-06	-1.399637e-09	-3.344436e+01	-8.974090e+01
6.100000e-07	-4.805907e-06	-1.366100e-09	-3.328343e+01	-8.957356e+01
6.200000e-07	-4.782384e-06	-1.324407e-09	-3.312052e+01	-8.940745e+01
6.300000e-07	-4.758584e-06	-1.367045e-09	-3.295570e+01	-8.924240e+01
6.400000e-07	-4.734552e-06	-1.371517e-09	-3.278926e+01	-8.907820e+01
6.500000e-07	-4.710125e-06	-1.325500e-09	-3.262009e+01	-8.891460e+01
6.600000e-07	-4.685269e-06	-1.342340e-09	-3.244795e+01	-8.875135e+01
6.700000e-07	-4.659998e-06	-1.360791e-09	-3.227294e+01	-8.858816e+01
6.800000e-07	-4.634165e-06	-1.320494e-09	-3.209403e+01	-8.842472e+01
6.900000e-07	-4.607746e-06	-1.317955e-09	-3.191106e+01	-8.826071e+01
7.000000e-07	-4.580890e-06	-1.342714e-09	-3.172507e+01	-8.809580e+01
7.100000e-07	-4.553675e-06	-1.326042e-09	-3.153659e+01	-8.792964e+01
7.200000e-07	-4.526186e-06	-1.307132e-09	-3.134621e+01	-8.776190e+01
7.300000e-07	-4.498514e-06	-1.328693e-09	-3.115457e+01	-8.759224e+01
7.400000e-07	-4.470695e-06	-1.320375e-09	-3.096192e+01	-8.742030e+01
7.500000e-07	-4.442658e-06	-1.302143e-09	-3.076774e+01	-8.724576e+01
7.600000e-07	-4.414292e-06	-1.304510e-09	-3.057129e+01	-8.706830e+01
7.700000e-07	-4.385575e-06	-1.308052e-09	-3.037241e+01	-8.688761e+01
7.800000e-07	-4.356600e-06	-1.289124e-09	-3.017174e+01	-8.670340e+01
7.900000e-07	-4.327349e-06	-1.292823e-09	-2.996917e+01	-8.651541e+01
8.000000e-07	-4.297710e-06	-1.292901e-09	-2.976390e+01	-8.632338e+01
8.100000e-07	-4.267699e-06	-1.278054e-09	-2.955606e+01	-8.612711e+01
8.200000e-07	-4.237367e-06	-1.264942e-09	-2.934599e+01	-8.592639e+01
8.300000e-07	-4.206742e-06	-1.270183e-09	-2.913390e+01	-8.572106e+01
8.400000e-07	-4.175850e-06	-1.259490e-09	-2.891996e+01	-8.551099e+01
8.500000e-07	-4.144785e-06	-1.255090e-09	-2.870481e+01	-8.529606e+01
8.600000e-07	-4.113511e-06	-1.261442e-09	-2.848822e+01	-8.507620e+01
8.700000e-07	-4.081989e-06	-1.258954e-09	-2.826992e+01	-8.485137e+01
8.800000e-07	-4.050281e-06	-1.240756e-09	-2.805032e+01	-8.462155e+01
8.900000e-07	-4.018411e-06	-1.237354e-09	-2.782961e+01	-8.438676e+01
9.000000e-07	-3.986254e-06	-1.234676e-09	-2.760691e+01	-8.414703e+01
9.100000e-07	-3.953759e-06	-1.226350e-09	-2.738186e+01	-8.390243e+01
9.200000e-07	-3.920860e-06	-1.228124e-09	-2.715401e+01	-8.365306e+01
9.300000e-07	-3.887608e-06	-1.235512e-09	-2.692373e+01	-8.339903e+01
9.400000e-07	-3.854001e-06	-1.229144e-09	-2.669098e+01	-8.314046e+01
9.500000e-07	-3.819886e-06	-1.221545e-09	-2.645472e+01	-8.287752e+01
9.600000e-07	-3.785415e-06	-1.222146e-09	-2.621598e+01	-8.261037e+01
9.700000e-07	-3.750561e-06	-1.212510e-09	-2.597460e+01	-8.233918e+01
9.800000e-07	-3.715339e-06	-1.197895e-09	-2.573067e+01	-8.206414e+01
9.900000e-07	-3.679907e-06	-1.192824e-09	-2.548529e+01	-8.178544e+01
1.000000e-06	-3.644249e-06	-1.189957e-09	-2.523834e+01	-8.150328e+01
1.010000e-06	-3.608418e-06	-1.178613e-09	-2.499019e+01	-8.121783e+01
1.020000e-06	-3.572479e-06	-1.178798e-09	-2.474129e+01	-8.092929e+01
1.030000e-06	-3.536392e-06	-1.182111e-09	-2.449137e+01	-8.063785e+01
1.040000e-06	-3.500043e-06	-1.180140e-09	-2.423964e+01	-8.034366e+01
1.050000e-06	-3.463424e-06	-1.174949e-09	-2.398603e+01	-8.004689e+01
1.060000e-06	-3.426535e-06	-1.176084e-09	-2.373056e+01	-7.974767e+01
1.070000e-06	-3.389415e-06	-1.168858e-09	-2.347348e+01	-7.944614e+01
1.080000e-06	-3.352061e-06	-1.160529e-09	-2.321478e+01	-7.914239e+01
1.090000e-06	-3.314443e-06	-1.154717e-09	-2.295426e+01	-7.883650e+01
1.100000e-06	-3.276558e-06	-1.150690e-09	-2.269189e+01	-7.852854e+01
1.110000e-06	-3.238442e-06	-1.141750e-09	-2.242791e+01	-7.821853e+01
1.120000e-06	-3.200123e-06	-1.138676e-09	-2.216254e+01	-7.790649e+01
1.130000e-06	-3.161592e-06	-1.136241e-09	-2.189568e+01	-7.759239e+01
1.140000e-06	-3.122879e-06	-1.130174e-09	-2.162758e+01	-7.727618e+01
1.150000e-06	-3.083894e-06	-1.123297e-09	-2.135759e+01	-7.695780e+01
1.160000e-06	-3.044694e-06	-1.121239e-09	-2.108610e+01	-7.663714e+01
1.170000e-06	-3.005332e-06	-1.112309e-09	-2.081351e+01	-7.631407e+01
1.180000e-06	-2.965837e-06	-1.101075e-09	-2.053998e+01	-7.598845e+01
1.190000e-06	-2.926234e-06	-1.094801e-09	-2.026571e+01	-7.566008e+01
1.200000e-06	-2.886481e-06	-1.090740e-09	-1.999040e+01	-7.532878e+01
1.210000e-06	-2.846598e-06	-1.086367e-09	-1.971419e+01	-7.499431e+01
1.220000e-06	-2.806545e-06	-1.085919e-09	-1.943680e+01	-7.465644e+01
1.230000e-06	-2.766338e-06	-1.086562e-09	-1.915835e+01	-7.431488e+01
1.240000e-06	-2.725994e-06	-1.081061e-09	-1.887894e+01	-7.396937e+01
1.250000e-06	-2.685424e-06	-1.073036e-09	-1.859797e+01	-7.361960e+01
1.260000e-06	-2.644593e-06	-1.065939e-09	-1.831520e+01	-7.326525e+01
1.270000e-06	-2.603519e-06	-1.057066e-09	-1.803074e+01	-7.290601e+01
1.280000e-06	-2.562190e-06	-1.047241e-09	-1.774451e+01	-7.254154e+01
1.290000e-06	-2.520583e-06	-1.040153e-09	-1.745636e+01	-7.217148e+01
1.300000e-06	-2.478687e-06	-1.034454e-09	-1.716621e+01	-7.179550e+01
1.310000e-06	-2.436468e-06	-1.026549e-09	-1.687382e+01	-7.141323e+01
1.320000e-06	-2.393902e-06	-1.018621e-09	-1.657903e+01	-7.102431e+01
1.330000e-06	-2.351134e-06	-1.012681e-09	-1.628284e+01	-7.062837e+01
1.340000e-06	-2.308190e-06	-1.004496e-09	-1.598543e+01	-7.022505e+01
1.350000e-06	-2.264920e-06	-9.994983e-10	-1.568576e+01	-6.981397e+01
1.360000e-06	-2.221445e-06	-9.965816e-10	-1.538468e+01	-6.939478e+01
1.370000e-06	-2.177859e-06	-9.920188e-10	-1.508282e+01	-6.896708e+01
1.380000e-06	-2.134188e-06	-9.794630e-10	-1.478037e+01	-6.853052e+01
1.390000e-06	-2.090467e-06	-9.669359e-10	-1.447759e+01	-6.808471e+01
1.400000e-06	-2.046618e-06	-9.558738e-10	-1.417391e+01	-6.762929e+01
1.410000e-06	-2.002645e-06	-9.473320e-10	-1.386937e+01	-6.716388e+01
1.420000e-06	-1.958548e-06	-9.397020e-10	-1.356397e+01	-6.668808e+01
1.430000e-06	-1.914370e-06	-9.333222e-10	-1.325802e+01	-6.620152e+01
1.440000e-06	-1.870119e-06	-9.264450e-10	-1.295156e+01	-6.570380e+01
1.450000e-06	-1.825776e-06	-9.182098e-10	-1.264446e+01	-6.519453e+01
1.460000e-06	-1.781327e-06	-9.062029e-10	-1.233662e+01	-6.467329e+01
1.470000e-06	-1.736675e-06	-8.933582e-10	-1.202739e+01	-6.413966e+01
1.480000e-06	-1.691886e-06	-8.788665e-10	-1.171720e+01	-6.359321e+01
1.490000e-06	-1.646997e-06	-8.651679e-10	-1.140632e+01	-6.303348e+01
1.500000e-06	-1.601964e-06	-8.520854e-10	-1.109444e+01	-6.246001e+01
1.510000e-06	-1.556751e-06	-8.421140e-10	-1.078132e+01	-6.187232e+01
1.520000e-06	-1.511433e-06	-8.358931e-10	-1.046747e+01	-6.126989e+01
1.530000e-06	-1.466037e-06	-8.308942e-10	-1.015308e+01	-6.065221e+01
1.540000e-06	-1.420528e-06	-8.228811e-10	-9.837904e+00	-6.001871e+01
1.550000e-06	-1.374952e-06	-8.107019e-10	-9.522264e+00	-5.936882e+01
1.560000e-06	-1.329330e-06	-7.980946e-10	-9.206309e+00	-5.870193e+01
1.570000e-06	-1.283679e-06	-7.843547e-10	-8.890154e+00	-5.801741e+01
1.580000e-06	-1.237935e-06	-7.691076e-10	-8.573348e+00	-5.731462e+01
1.590000e-06	-1.192058e-06	-7.545081e-10	-8.255626e+00	-5.659285e+01
1.600000e-06	-1.146080e-06	-7.406291e-10	-7.937205e+00	-5.585141e+01
1.610000e-06	-1.100056e-06	-7.312442e-10	-7.618467e+00	-5.508955e+01
1.620000e-06	-1.053949e-06	-7.286390e-10	-7.299153e+00	-5.430652e+01
1.630000e-06	-1.007672e-06	-7.258690e-10	-6.978655e+00	-5.350153e+01
1.640000e-06	-9.613059e-07	-7.190352e-10	-6.657548e+00	-5.267378e+01
1.650000e-06	-9.149003e-07	-7.053033e-10	-6.336165e+00	-5.182245e+01
1.660000e-06	-8.685014e-07	-6.865298e-10	-6.014828e+00	-5.094671e+01
1.670000e-06	-8.220521e-07	-6.657827e-10	-5.693143e+00	-5.004572e+01
1.680000e-06	-7.754648e-07	-6.492529e-10	-5.370501e+00	-4.911863e+01
1.690000e-06	-7.288386e-07	-6.364463e-10	-5.047591e+00	-4.816460e+01
1.700000e-06	-6.820819e-07	-6.247505e-10	-4.723776e+00	-4.718277e+01
1.710000e-06	-6.352162e-07	-6.117236e-10	-4.399206e+00	-4.617231e+01
1.720000e-06	-5.884374e-07	-5.989360e-10	-4.075239e+00	-4.513242e+01
1.730000e-06	-5.416483e-07	-5.816273e-10	-3.751199e+00	-4.406229e+01
1.740000e-06	-4.947833e-07	-5.603489e-10	-3.426635e+00	-4.296117e+01
1.750000e-06	-4.479351e-07	-5.385759e-10	-3.102186e+00	-4.182833e+01
1.760000e-06	-4.010592e-07	-5.192091e-10	-2.777546e+00	-4.066308e+01
1.770000e-06	-3.541173e-07	-5.023089e-10	-2.452448e+00	-3.946479e+01
1.780000e-06	-3.071596e-07	-4.872677e-10	-2.127242e+00	-3.823290e+01
1.790000e-06	-2.601354e-07	-4.728904e-10	-1.801574e+00	-3.696690e+01
1.800000e-06	-2.131013e-07	-4.563795e-10	-1.475838e+00	-3.566634e+01
1.810000e-06	-1.660678e-07	-4.362246e-10	-1.150106e+00	-3.433089e+01
1.820000e-06	-1.189206e-07	-4.156920e-10	-8.235877e-01	-3.296026e+01
1.830000e-06	-7.175239e-08	-3.963154e-10	-4.969230e-01	-3.155430e+01
1.840000e-06	-2.465699e-08	-3.771126e-10	-1.707626e-01	-3.011293e+01
1.850000e-06	2.235964e-08	-3.590358e-10	1.548522e-01	-2.863618e+01
1.860000e-06	6.934404e-08	-3.405625e-10	4.802439e-01	-2.712419e+01
1.870000e-06	1.163216e-07	-3.207242e-10	8.055879e-01	-2.557724e+01
1.880000e-06	1.633216e-07	-2.996809e-10	1.131088e+00	-2.399570e+01
1.890000e-06	2.104078e-07	-2.763246e-10	1.457185e+00	-2.238008e+01
1.900000e-06	2.574522e-07	-2.501312e-10	1.782992e+00	-2.073100e+01
1.910000e-06	3.044192e-07	-2.237149e-10	2.108263e+00	-1.904924e+01
1.920000e-06	3.513802e-07	-1.979201e-10	2.433493e+00	-1.733569e+01
1.930000e-06	3.982374e-07	-1.727533e-10	2.758003e+00	-1.559136e+01
1.940000e-06	4.450016e-07	-1.486025e-10	3.081870e+00	-1.381740e+01
1.950000e-06	4.918246e-07	-1.250066e-10	3.406143e+00	-1.201511e+01
1.960000e-06	5.385975e-07	-1.008318e-10	3.730070e+00	-1.018588e+01
1.970000e-06	5.852370e-07	-7.532918e-11	4.053074e+00	-8.331251e+00
1.980000e-06	6.319076e-07	-4.703797e-11	4.376292e+00	-6.452866e+00
1.990000e-06	6.785092e-07	-1.772856e-11	4.699033e+00	-4.552490e+00
2.000000e-06	7.250407e-07	1.375600e-11	5.021288e+00	-2.631996e+00
2.010000e-06	7.715673e-07	4.646018e-11	5.343509e+00	-6.933602e-01
2.020000e-06	8.180714e-07	7.558115e-11	5.665574e+00	1.261349e+00
2.030000e-06	8.646051e-07	9.999100e-11	5.987844e+00	3.229976e+00
2.040000e-06	9.110498e-07	1.243849e-10	6.309498e+00	5.210287e+00
2.050000e-06	9.573513e-07	1.499347e-10	6.630161e+00	7.199978e+00
2.060000e-06	1.003497e-06	1.773042e-10	6.949742e+00	9.196690e+00
2.070000e-06	1.049544e-06	2.080096e-10	7.268642e+00	1.119801e+01
2.080000e-06	1.095587e-06	2.397063e-10	7.587518e+00	1.320150e+01
2.090000e-06	1.141573e-06	2.701872e-10	7.905990e+00	1.520469e+01
2.100000e-06	1.187464e-06	3.013574e-10	8.223811e+00	1.720508e+01
2.110000e-06	1.233263e-06	3.318392e-10	8.540998e+00	1.920019e+01
2.120000e-06	1.278975e-06	3.595826e-10	8.857576e+00	2.118754e+01
2.130000e-06	1.324538e-06	3.869188e-10	9.173120e+00	2.316468e+01
2.140000e-06	1.370012e-06	4.129552e-10	9.488056e+00	2.512917e+01
2.150000e-06	1.415442e-06	4.359284e-10	9.802682e+00	2.707863e+01
2.160000e-06	1.460765e-06	4.603789e-10	1.011657e+01	2.901073e+01
2.170000e-06	1.506060e-06	4.878360e-10	1.043026e+01	3.092322e+01
2.180000e-06	1.551336e-06	5.162178e-10	1.074382e+01	3.281391e+01
2.190000e-06	1.596418e-06	5.435160e-10	1.105603e+01	3.468069e+01
2.200000e-06	1.641324e-06	5.688869e-10	1.136703e+01	3.652158e+01
2.210000e-06	1.686135e-06	5.944242e-10	1.167737e+01	3.833465e+01
2.220000e-06	1.730766e-06	6.190515e-10	1.198646e+01	4.011814e+01
2.230000e-06	1.775287e-06	6.413625e-10	1.229480e+01	4.187036e+01
2.240000e-06	1.819679e-06	6.619365e-10	1.260223e+01	4.358978e+01
2.250000e-06	1.863865e-06	6.814041e-10	1.290825e+01	4.527499e+01
2.260000e-06	1.907989e-06	7.008911e-10	1.321382e+01	4.692470e+01
2.270000e-06	1.952018e-06	7.225603e-10	1.351875e+01	4.853778e+01
2.280000e-06	1.995947e-06	7.458033e-10	1.382298e+01	5.011324e+01
2.290000e-06	2.039861e-06	7.680481e-10	1.412711e+01	5.165022e+01
2.300000e-06	2.083636e-06	7.873320e-10	1.443027e+01	5.314801e+01
2.310000e-06	2.127357e-06	8.037154e-10	1.473307e+01	5.460605e+01
2.320000e-06	2.171087e-06	8.189928e-10	1.503592e+01	5.602392e+01
2.330000e-06	2.214680e-06	8.360783e-10	1.533782e+01	5.740133e+01
2.340000e-06	2.258032e-06	8.545374e-10	1.563806e+01	5.873815e+01
2.350000e-06	2.301206e-06	8.743600e-10	1.593706e+01	6.003436e+01
2.360000e-06	2.344219e-06	8.939084e-10	1.623495e+01	6.129009e+01
2.370000e-06	2.387110e-06	9.110366e-10	1.653199e+01	6.250559e+01
2.380000e-06	2.429837e-06	9.245148e-10	1.682790e+01	6.368122e+01
2.390000e-06	2.472215e-06	9.366194e-10	1.712139e+01	6.481745e+01
2.400000e-06	2.514254e-06	9.509940e-10	1.741253e+01	6.591486e+01
2.410000e-06	2.555947e-06	9.657473e-10	1.770127e+01	6.697415e+01
2.420000e-06	2.597292e-06	9.805161e-10	1.798761e+01	6.799606e+01
2.430000e-06	2.638324e-06	9.946636e-10	1.827178e+01	6.898147e+01
2.440000e-06	2.679160e-06	1.005065e-09	1.855459e+01	6.993127e+01
2.450000e-06	2.719838e-06	1.013041e-09	1.883631e+01	7.084647e+01
2.460000e-06	2.760330e-06	1.021665e-09	1.911673e+01	7.172810e+01
2.470000e-06	2.800641e-06	1.032071e-09	1.939591e+01	7.257724e+01
2.480000e-06	2.840659e-06	1.042778e-09	1.967306e+01	7.339502e+01
2.490000e-06	2.880484e-06	1.053494e-09	1.994886e+01	7.418260e+01
2.500000e-06	2.920245e-06	1.066368e-09	2.022423e+01	7.494113e+01
2.510000e-06	2.959870e-06	1.079668e-09	2.049866e+01	7.567181e+01
2.520000e-06	2.999373e-06	1.091305e-09	2.077224e+01	7.637582e+01
2.530000e-06	3.038660e-06	1.100466e-09	2.104432e+01	7.705435e+01
2.540000e-06	3.077739e-06	1.108181e-09	2.131496e+01	7.770856e+01
2.550000e-06	3.116683e-06	1.114902e-09	2.158467e+01	7.833960e+01
2.560000e-06	3.155410e-06	1.120512e-09	2.185287e+01	7.894862e+01
2.570000e-06	3.193886e-06	1.127273e-09	2.211934e+01	7.953670e+01
2.580000e-06	3.232070e-06	1.135994e-09	2.238378e+01	8.010491e+01
2.590000e-06	3.269990e-06	1.145145e-09	2.264640e+01	8.065429e+01
2.600000e-06	3.307667e-06	1.154110e-09	2.290733e+01	8.118580e+01
2.610000e-06	3.345176e-06	1.163171e-09	2.316710e+01	8.170040e+01
2.620000e-06	3.382531e-06	1.172932e-09	2.342580e+01	8.219898e+01
2.630000e-06	3.419619e-06	1.182489e-09	2.368266e+01	8.268236e+01
2.640000e-06	3.456450e-06	1.190896e-09	2.393773e+01	8.315134e+01
2.650000e-06	3.493010e-06	1.197109e-09	2.419093e+01	8.360666e+01
2.660000e-06	3.529324e-06	1.201509e-09	2.444242e+01	8.404899e+01
2.670000e-06	3.565450e-06	1.206417e-09	2.469262e+01	8.447897e+01
2.680000e-06	3.601387e-06	1.213853e-09	2.494149e+01	8.489718e+01
2.690000e-06	3.637213e-06	1.223248e-09	2.518961e+01	8.530414e+01
2.700000e-06	3.672923e-06	1.232382e-09	2.543692e+01	8.570032e+01
2.710000e-06	3.708457e-06	1.240994e-09	2.568301e+01	8.608617e+01
2.720000e-06	3.743791e-06	1.249185e-09	2.592772e+01	8.646208e+01
2.730000e-06	3.778876e-06	1.255799e-09	2.617070e+01	8.682838e+01
2.740000e-06	3.813603e-06	1.259582e-09	2.641121e+01	8.718538e+01
2.750000e-06	3.847846e-06	1.261345e-09	2.664836e+01	8.753337e+01
2.760000e-06	3.881589e-06	1.262604e-09	2.688205e+01	8.787256e+01
2.770000e-06	3.914861e-06	1.266222e-09	2.711247e+01	8.820319e+01
2.780000e-06	3.947673e-06	1.274185e-09	2.733971e+01	8.852542e+01
2.790000e-06	3.980145e-06	1.285646e-09	2.756460e+01	8.883943e+01
2.800000e-06	4.012346e-06	1.297384e-09	2.778761e+01	8.914534e+01
2.810000e-06	4.044277e-06	1.305280e-09	2.800874e+01	8.944330e+01
2.820000e-06	4.076030e-06	1.307799e-09	2.822865e+01	8.973340e+01
2.830000e-06	4.107676e-06	1.307184e-09	2.844782e+01	9.001576e+01
2.840000e-06	4.139151e-06	1.305829e-09	2.866579e+01	9.029045e+01
2.850000e-06	4.170352e-06	1.304875e-09	2.888188e+01	9.055758e+01
2.860000e-06	4.201220e-06	1.305649e-09	2.909566e+01	9.081723e+01
2.870000e-06	4.231724e-06	1.311257e-09	2.930691e+01	9.106948e+01
2.880000e-06	4.261948e-06	1.320689e-09	2.951623e+01	9.131441e+01
2.890000e-06	4.291899e-06	1.328504e-09	2.972366e+01	9.155211e+01
2.900000e-06	4.321552e-06	1.332167e-09	2.992902e+01	9.178266e+01
