# Temperatura_=_-25.4
# Concentracion g/m^3_=_1620.0
# C_Vs_to_Am_M_A/Vsm_=_65563218390.804596
# pendiente_HvsI_1/m_=_3716.3
# ordenada_HvsI_A/m_=_1297.0
# frecuencia_Hz_=_135107.6132017458

Tiempo_(s)	Campo_(V.s)	Magnetizacion_(V.s)	Campo_(kA/m)	Magnetizacion_(A/m)
0.000000e+00	-5.523666e-06	-8.079653e-10	-3.836150e+01	-5.225906e+01
1.000000e-08	-5.523858e-06	-8.021543e-10	-3.836283e+01	-5.227716e+01
2.000000e-08	-5.523853e-06	-7.982176e-10	-3.836280e+01	-5.229844e+01
3.000000e-08	-5.523487e-06	-7.984677e-10	-3.836025e+01	-5.232256e+01
4.000000e-08	-5.522590e-06	-7.999241e-10	-3.835403e+01	-5.234913e+01
5.000000e-08	-5.521025e-06	-7.973273e-10	-3.834316e+01	-5.237777e+01
6.000000e-08	-5.518806e-06	-7.853389e-10	-3.832775e+01	-5.240808e+01
7.000000e-08	-5.516062e-06	-7.646771e-10	-3.830869e+01	-5.243965e+01
8.000000e-08	-5.512836e-06	-8.024399e-10	-3.828628e+01	-5.247204e+01
9.000000e-08	-5.509122e-06	-9.030366e-10	-3.826049e+01	-5.250485e+01
1.000000e-07	-5.504911e-06	-8.944974e-10	-3.823125e+01	-5.253765e+01
1.100000e-07	-5.500447e-06	-7.287537e-10	-3.820025e+01	-5.257002e+01
1.200000e-07	-5.495962e-06	-6.971957e-10	-3.816910e+01	-5.260156e+01
1.300000e-07	-5.491137e-06	-7.999193e-10	-3.813559e+01	-5.263189e+01
1.400000e-07	-5.485792e-06	-8.844525e-10	-3.809847e+01	-5.266062e+01
1.500000e-07	-5.480086e-06	-7.561072e-10	-3.805884e+01	-5.268740e+01
1.600000e-07	-5.474079e-06	-7.112806e-10	-3.801712e+01	-5.271192e+01
1.700000e-07	-5.467717e-06	-8.357965e-10	-3.797294e+01	-5.273386e+01
1.800000e-07	-5.460907e-06	-9.009471e-10	-3.792564e+01	-5.275296e+01
1.900000e-07	-5.453695e-06	-7.928019e-10	-3.787555e+01	-5.276899e+01
2.000000e-07	-5.446156e-06	-6.998265e-10	-3.782320e+01	-5.278175e+01
2.100000e-07	-5.438331e-06	-7.840655e-10	-3.776886e+01	-5.279109e+01
2.200000e-07	-5.430218e-06	-8.544219e-10	-3.771251e+01	-5.279688e+01
2.300000e-07	-5.421880e-06	-8.253517e-10	-3.765460e+01	-5.279904e+01
2.400000e-07	-5.413157e-06	-7.464469e-10	-3.759402e+01	-5.279754e+01
2.500000e-07	-5.403627e-06	-7.911789e-10	-3.752784e+01	-5.279239e+01
2.600000e-07	-5.393359e-06	-8.188045e-10	-3.745653e+01	-5.278364e+01
2.700000e-07	-5.382605e-06	-8.024083e-10	-3.738184e+01	-5.277137e+01
2.800000e-07	-5.371357e-06	-7.572292e-10	-3.730372e+01	-5.275573e+01
2.900000e-07	-5.359738e-06	-8.073038e-10	-3.722303e+01	-5.273687e+01
3.000000e-07	-5.347868e-06	-8.313581e-10	-3.714059e+01	-5.271501e+01
3.100000e-07	-5.335585e-06	-7.989205e-10	-3.705529e+01	-5.269040e+01
3.200000e-07	-5.322762e-06	-7.500780e-10	-3.696624e+01	-5.266331e+01
3.300000e-07	-5.309563e-06	-8.044358e-10	-3.687457e+01	-5.263406e+01
3.400000e-07	-5.296049e-06	-8.396133e-10	-3.678071e+01	-5.260297e+01
3.500000e-07	-5.282051e-06	-7.914247e-10	-3.668350e+01	-5.257042e+01
3.600000e-07	-5.267523e-06	-7.738949e-10	-3.658260e+01	-5.253678e+01
3.700000e-07	-5.252652e-06	-8.424134e-10	-3.647932e+01	-5.250245e+01
3.800000e-07	-5.237350e-06	-8.225472e-10	-3.637305e+01	-5.246784e+01
3.900000e-07	-5.221337e-06	-7.526950e-10	-3.626185e+01	-5.243336e+01
4.000000e-07	-5.204876e-06	-8.088215e-10	-3.614753e+01	-5.239945e+01
4.100000e-07	-5.188167e-06	-8.487484e-10	-3.603148e+01	-5.236653e+01
4.200000e-07	-5.171051e-06	-7.611446e-10	-3.591261e+01	-5.233500e+01
4.300000e-07	-5.153582e-06	-7.586522e-10	-3.579129e+01	-5.230529e+01
4.400000e-07	-5.135870e-06	-8.762757e-10	-3.566828e+01	-5.227779e+01
4.500000e-07	-5.117831e-06	-8.199139e-10	-3.554300e+01	-5.225289e+01
4.600000e-07	-5.099314e-06	-7.375298e-10	-3.541440e+01	-5.223094e+01
4.700000e-07	-5.080399e-06	-8.156094e-10	-3.528304e+01	-5.221228e+01
4.800000e-07	-5.061175e-06	-8.444380e-10	-3.514953e+01	-5.219722e+01
4.900000e-07	-5.041667e-06	-7.395575e-10	-3.501405e+01	-5.218605e+01
5.000000e-07	-5.021987e-06	-7.930820e-10	-3.487737e+01	-5.217901e+01
5.100000e-07	-5.002101e-06	-8.577634e-10	-3.473927e+01	-5.217632e+01
5.200000e-07	-4.981861e-06	-7.655649e-10	-3.459870e+01	-5.217816e+01
5.300000e-07	-4.961223e-06	-7.552733e-10	-3.445537e+01	-5.218466e+01
5.400000e-07	-4.940293e-06	-8.769074e-10	-3.431001e+01	-5.219593e+01
5.500000e-07	-4.919017e-06	-8.183783e-10	-3.416225e+01	-5.221202e+01
5.600000e-07	-4.897297e-06	-7.393412e-10	-3.401141e+01	-5.223297e+01
5.700000e-07	-4.875302e-06	-8.257332e-10	-3.385865e+01	-5.225874e+01
5.800000e-07	-4.853028e-06	-8.512041e-10	-3.370397e+01	-5.228928e+01
5.900000e-07	-4.830362e-06	-7.639547e-10	-3.354655e+01	-5.232449e+01
6.000000e-07	-4.807356e-06	-8.064092e-10	-3.338677e+01	-5.236424e+01
6.100000e-07	-4.783986e-06	-8.536523e-10	-3.322447e+01	-5.240836e+01
6.200000e-07	-4.760322e-06	-7.843486e-10	-3.306013e+01	-5.245664e+01
6.300000e-07	-4.736513e-06	-7.810229e-10	-3.289477e+01	-5.250885e+01
6.400000e-07	-4.712527e-06	-8.417596e-10	-3.272819e+01	-5.256472e+01
6.500000e-07	-4.688079e-06	-8.080453e-10	-3.255840e+01	-5.262397e+01
6.600000e-07	-4.663191e-06	-7.872872e-10	-3.238555e+01	-5.268629e+01
6.700000e-07	-4.637870e-06	-8.400116e-10	-3.220971e+01	-5.275133e+01
6.800000e-07	-4.611817e-06	-8.271719e-10	-3.202877e+01	-5.281876e+01
6.900000e-07	-4.585182e-06	-7.874721e-10	-3.184379e+01	-5.288823e+01
7.000000e-07	-4.558140e-06	-8.190856e-10	-3.165599e+01	-5.295935e+01
7.100000e-07	-4.530828e-06	-8.324727e-10	-3.146631e+01	-5.303176e+01
7.200000e-07	-4.503334e-06	-7.963992e-10	-3.127536e+01	-5.310509e+01
7.300000e-07	-4.475617e-06	-8.112593e-10	-3.108287e+01	-5.317896e+01
7.400000e-07	-4.447687e-06	-8.336220e-10	-3.088889e+01	-5.325302e+01
7.500000e-07	-4.419493e-06	-8.134653e-10	-3.069309e+01	-5.332690e+01
7.600000e-07	-4.391062e-06	-8.057850e-10	-3.049564e+01	-5.340027e+01
7.700000e-07	-4.362328e-06	-8.276886e-10	-3.029608e+01	-5.347279e+01
7.800000e-07	-4.333262e-06	-8.124897e-10	-3.009422e+01	-5.354415e+01
7.900000e-07	-4.303862e-06	-8.055823e-10	-2.989004e+01	-5.361408e+01
8.000000e-07	-4.274162e-06	-8.240719e-10	-2.968377e+01	-5.368229e+01
8.100000e-07	-4.244241e-06	-8.181716e-10	-2.947598e+01	-5.374856e+01
8.200000e-07	-4.214020e-06	-7.930641e-10	-2.926609e+01	-5.381267e+01
8.300000e-07	-4.183503e-06	-8.079649e-10	-2.905416e+01	-5.387443e+01
8.400000e-07	-4.152616e-06	-8.158968e-10	-2.883965e+01	-5.393368e+01
8.500000e-07	-4.121425e-06	-8.023481e-10	-2.862303e+01	-5.399029e+01
8.600000e-07	-4.090065e-06	-8.046848e-10	-2.840524e+01	-5.404416e+01
8.700000e-07	-4.058510e-06	-8.150164e-10	-2.818609e+01	-5.409523e+01
8.800000e-07	-4.026817e-06	-7.942219e-10	-2.796598e+01	-5.414345e+01
8.900000e-07	-3.994967e-06	-7.880831e-10	-2.774479e+01	-5.418880e+01
9.000000e-07	-3.962929e-06	-8.012936e-10	-2.752228e+01	-5.423129e+01
9.100000e-07	-3.930677e-06	-7.941415e-10	-2.729829e+01	-5.427098e+01
9.200000e-07	-3.898015e-06	-7.873734e-10	-2.707146e+01	-5.430790e+01
9.300000e-07	-3.864826e-06	-8.058582e-10	-2.684097e+01	-5.434215e+01
9.400000e-07	-3.831186e-06	-8.089871e-10	-2.660733e+01	-5.437382e+01
9.500000e-07	-3.797018e-06	-7.938474e-10	-2.637004e+01	-5.440304e+01
9.600000e-07	-3.762331e-06	-7.983083e-10	-2.612915e+01	-5.442994e+01
9.700000e-07	-3.727278e-06	-8.039479e-10	-2.588570e+01	-5.445465e+01
9.800000e-07	-3.691964e-06	-7.890759e-10	-2.564045e+01	-5.447734e+01
9.900000e-07	-3.656473e-06	-7.845615e-10	-2.539397e+01	-5.449815e+01
1.000000e-06	-3.620845e-06	-7.954294e-10	-2.514653e+01	-5.451726e+01
1.010000e-06	-3.585105e-06	-7.898610e-10	-2.489832e+01	-5.453483e+01
1.020000e-06	-3.549242e-06	-7.858057e-10	-2.464925e+01	-5.455102e+01
1.030000e-06	-3.513231e-06	-7.968737e-10	-2.439916e+01	-5.456598e+01
1.040000e-06	-3.476989e-06	-8.009931e-10	-2.414746e+01	-5.457986e+01
1.050000e-06	-3.440439e-06	-7.911863e-10	-2.389363e+01	-5.459280e+01
1.060000e-06	-3.403648e-06	-7.956350e-10	-2.363811e+01	-5.460493e+01
1.070000e-06	-3.366567e-06	-7.986034e-10	-2.338059e+01	-5.461637e+01
1.080000e-06	-3.329163e-06	-7.913906e-10	-2.312082e+01	-5.462720e+01
1.090000e-06	-3.291517e-06	-7.906573e-10	-2.285937e+01	-5.463751e+01
1.100000e-06	-3.253675e-06	-7.987831e-10	-2.259656e+01	-5.464737e+01
1.110000e-06	-3.215651e-06	-7.940504e-10	-2.233248e+01	-5.465680e+01
1.120000e-06	-3.177469e-06	-7.920698e-10	-2.206731e+01	-5.466584e+01
1.130000e-06	-3.139116e-06	-7.993145e-10	-2.180096e+01	-5.467447e+01
1.140000e-06	-3.100454e-06	-8.017372e-10	-2.153245e+01	-5.468269e+01
1.150000e-06	-3.061504e-06	-7.983163e-10	-2.126195e+01	-5.469044e+01
1.160000e-06	-3.022448e-06	-8.022939e-10	-2.099070e+01	-5.469766e+01
1.170000e-06	-2.983254e-06	-8.029224e-10	-2.071850e+01	-5.470427e+01
1.180000e-06	-2.943820e-06	-7.985004e-10	-2.044464e+01	-5.471015e+01
1.190000e-06	-2.904230e-06	-7.999036e-10	-2.016969e+01	-5.471518e+01
1.200000e-06	-2.864558e-06	-8.044535e-10	-1.989417e+01	-5.471921e+01
1.210000e-06	-2.824786e-06	-8.008608e-10	-1.961795e+01	-5.472208e+01
1.220000e-06	-2.784872e-06	-7.988038e-10	-1.934076e+01	-5.472362e+01
1.230000e-06	-2.744841e-06	-8.040209e-10	-1.906274e+01	-5.472362e+01
1.240000e-06	-2.704592e-06	-8.057869e-10	-1.878322e+01	-5.472187e+01
1.250000e-06	-2.664046e-06	-8.022848e-10	-1.850163e+01	-5.471817e+01
1.260000e-06	-2.623237e-06	-8.018634e-10	-1.821821e+01	-5.471227e+01
1.270000e-06	-2.582172e-06	-8.011247e-10	-1.793302e+01	-5.470394e+01
1.280000e-06	-2.540891e-06	-7.943743e-10	-1.764632e+01	-5.469293e+01
1.290000e-06	-2.499250e-06	-7.921586e-10	-1.735713e+01	-5.467899e+01
1.300000e-06	-2.457252e-06	-7.934227e-10	-1.706545e+01	-5.466186e+01
1.310000e-06	-2.415070e-06	-7.927281e-10	-1.677251e+01	-5.464128e+01
1.320000e-06	-2.372637e-06	-7.911512e-10	-1.647781e+01	-5.461698e+01
1.330000e-06	-2.329862e-06	-7.925834e-10	-1.618074e+01	-5.458869e+01
1.340000e-06	-2.286727e-06	-7.915304e-10	-1.588117e+01	-5.455614e+01
1.350000e-06	-2.243412e-06	-7.920401e-10	-1.558035e+01	-5.451907e+01
1.360000e-06	-2.200006e-06	-7.931322e-10	-1.527889e+01	-5.447719e+01
1.370000e-06	-2.156453e-06	-7.906516e-10	-1.497642e+01	-5.443024e+01
1.380000e-06	-2.112791e-06	-7.849615e-10	-1.467320e+01	-5.437794e+01
1.390000e-06	-2.069058e-06	-7.832739e-10	-1.436947e+01	-5.432001e+01
1.400000e-06	-2.025291e-06	-7.831932e-10	-1.406551e+01	-5.425617e+01
1.410000e-06	-1.981469e-06	-7.810471e-10	-1.376118e+01	-5.418613e+01
1.420000e-06	-1.937566e-06	-7.778203e-10	-1.345627e+01	-5.410959e+01
1.430000e-06	-1.893491e-06	-7.782554e-10	-1.315017e+01	-5.402627e+01
1.440000e-06	-1.849289e-06	-7.762230e-10	-1.284319e+01	-5.393585e+01
1.450000e-06	-1.805085e-06	-7.706005e-10	-1.253620e+01	-5.383801e+01
1.460000e-06	-1.760754e-06	-7.654388e-10	-1.222832e+01	-5.373242e+01
1.470000e-06	-1.716257e-06	-7.613887e-10	-1.191929e+01	-5.361873e+01
1.480000e-06	-1.671568e-06	-7.567618e-10	-1.160893e+01	-5.349658e+01
1.490000e-06	-1.626689e-06	-7.514220e-10	-1.129725e+01	-5.336559e+01
1.500000e-06	-1.581742e-06	-7.454190e-10	-1.098509e+01	-5.322534e+01
1.510000e-06	-1.536675e-06	-7.393258e-10	-1.067211e+01	-5.307542e+01
1.520000e-06	-1.491551e-06	-7.351392e-10	-1.035872e+01	-5.291537e+01
1.530000e-06	-1.446338e-06	-7.330013e-10	-1.004472e+01	-5.274471e+01
1.540000e-06	-1.400976e-06	-7.292706e-10	-9.729690e+00	-5.256293e+01
1.550000e-06	-1.355510e-06	-7.222179e-10	-9.413929e+00	-5.236948e+01
1.560000e-06	-1.309970e-06	-7.158681e-10	-9.097659e+00	-5.216380e+01
1.570000e-06	-1.264402e-06	-7.104160e-10	-8.781187e+00	-5.194529e+01
1.580000e-06	-1.218753e-06	-7.056316e-10	-8.464161e+00	-5.171329e+01
1.590000e-06	-1.172953e-06	-6.997078e-10	-8.146083e+00	-5.146714e+01
1.600000e-06	-1.127055e-06	-6.931098e-10	-7.827324e+00	-5.120613e+01
1.610000e-06	-1.081066e-06	-6.884847e-10	-7.507934e+00	-5.092952e+01
1.620000e-06	-1.034955e-06	-6.874449e-10	-7.187692e+00	-5.063653e+01
1.630000e-06	-9.888331e-07	-6.859964e-10	-6.867381e+00	-5.032637e+01
1.640000e-06	-9.426357e-07	-6.829209e-10	-6.546544e+00	-4.999819e+01
1.650000e-06	-8.963079e-07	-6.782677e-10	-6.224800e+00	-4.965114e+01
1.660000e-06	-8.499307e-07	-6.718116e-10	-5.902713e+00	-4.928433e+01
1.670000e-06	-8.035233e-07	-6.626441e-10	-5.580417e+00	-4.889684e+01
1.680000e-06	-7.571518e-07	-6.560175e-10	-5.258370e+00	-4.848777e+01
1.690000e-06	-7.107516e-07	-6.506136e-10	-4.936124e+00	-4.805616e+01
1.700000e-06	-6.642758e-07	-6.432160e-10	-4.613352e+00	-4.760107e+01
1.710000e-06	-6.178121e-07	-6.374497e-10	-4.290665e+00	-4.712155e+01
1.720000e-06	-5.713114e-07	-6.326385e-10	-3.967720e+00	-4.661666e+01
1.730000e-06	-5.246463e-07	-6.247144e-10	-3.643634e+00	-4.608544e+01
1.740000e-06	-4.778577e-07	-6.141824e-10	-3.318691e+00	-4.552697e+01
1.750000e-06	-4.310850e-07	-6.029837e-10	-2.993858e+00	-4.494034e+01
1.760000e-06	-3.843425e-07	-5.917997e-10	-2.669233e+00	-4.432467e+01
1.770000e-06	-3.375840e-07	-5.815993e-10	-2.344499e+00	-4.367911e+01
1.780000e-06	-2.907622e-07	-5.732925e-10	-2.019324e+00	-4.300285e+01
1.790000e-06	-2.438839e-07	-5.639244e-10	-1.693758e+00	-4.229513e+01
1.800000e-06	-1.969373e-07	-5.529579e-10	-1.367716e+00	-4.155525e+01
1.810000e-06	-1.500009e-07	-5.431574e-10	-1.041747e+00	-4.078255e+01
1.820000e-06	-1.030669e-07	-5.331888e-10	-7.157932e-01	-3.997646e+01
1.830000e-06	-5.610180e-08	-5.215808e-10	-3.896233e-01	-3.913647e+01
1.840000e-06	-9.160142e-09	-5.100386e-10	-6.361659e-02	-3.826217e+01
1.850000e-06	3.773289e-08	-4.984418e-10	2.620525e-01	-3.735322e+01
1.860000e-06	8.458163e-08	-4.859623e-10	5.874139e-01	-3.640936e+01
1.870000e-06	1.313786e-07	-4.720193e-10	9.124157e-01	-3.543047e+01
1.880000e-06	1.781907e-07	-4.567382e-10	1.237523e+00	-3.441650e+01
1.890000e-06	2.250445e-07	-4.418728e-10	1.562920e+00	-3.336752e+01
1.900000e-06	2.718580e-07	-4.259493e-10	1.888036e+00	-3.228371e+01
1.910000e-06	3.186585e-07	-4.083682e-10	2.213062e+00	-3.116535e+01
1.920000e-06	3.654374e-07	-3.898023e-10	2.537939e+00	-3.001286e+01
1.930000e-06	4.122270e-07	-3.729499e-10	2.862889e+00	-2.882677e+01
1.940000e-06	4.590384e-07	-3.570268e-10	3.187991e+00	-2.760772e+01
1.950000e-06	5.057510e-07	-3.405445e-10	3.512408e+00	-2.635649e+01
1.960000e-06	5.523647e-07	-3.249072e-10	3.836137e+00	-2.507397e+01
1.970000e-06	5.989109e-07	-3.090484e-10	4.159397e+00	-2.376117e+01
1.980000e-06	6.454243e-07	-2.916944e-10	4.482429e+00	-2.241920e+01
1.990000e-06	6.919312e-07	-2.711742e-10	4.805417e+00	-2.104932e+01
2.000000e-06	7.383531e-07	-2.468822e-10	5.127814e+00	-1.965287e+01
2.010000e-06	7.847008e-07	-2.230405e-10	5.449696e+00	-1.823131e+01
2.020000e-06	8.309451e-07	-2.025765e-10	5.770859e+00	-1.678620e+01
2.030000e-06	8.771020e-07	-1.848393e-10	6.091416e+00	-1.531920e+01
2.040000e-06	9.232334e-07	-1.679397e-10	6.411796e+00	-1.383206e+01
2.050000e-06	9.693318e-07	-1.501643e-10	6.731946e+00	-1.232660e+01
2.060000e-06	1.015387e-06	-1.292852e-10	7.051793e+00	-1.080472e+01
2.070000e-06	1.061378e-06	-1.052513e-10	7.371201e+00	-9.268413e+00
2.080000e-06	1.107280e-06	-8.018751e-11	7.689987e+00	-7.719698e+00
2.090000e-06	1.153105e-06	-5.540788e-11	8.008237e+00	-6.160663e+00
2.100000e-06	1.198892e-06	-3.164131e-11	8.326229e+00	-4.593431e+00
2.110000e-06	1.244600e-06	-8.910634e-12	8.643669e+00	-3.020162e+00
2.120000e-06	1.290262e-06	1.262695e-11	8.960785e+00	-1.443035e+00
2.130000e-06	1.335928e-06	3.314878e-11	9.277931e+00	1.357569e-01
2.140000e-06	1.381428e-06	5.326195e-11	9.593930e+00	1.714017e+00
2.150000e-06	1.426759e-06	7.227137e-11	9.908749e+00	3.289556e+00
2.160000e-06	1.472020e-06	9.207339e-11	1.022308e+01	4.860200e+00
2.170000e-06	1.517157e-06	1.150194e-10	1.053655e+01	6.423802e+00
2.180000e-06	1.562136e-06	1.392221e-10	1.084893e+01	7.978250e+00
2.190000e-06	1.606977e-06	1.630754e-10	1.116035e+01	9.521475e+00
2.200000e-06	1.651739e-06	1.863774e-10	1.147122e+01	1.105146e+01
2.210000e-06	1.696372e-06	2.074671e-10	1.178119e+01	1.256626e+01
2.220000e-06	1.740816e-06	2.282032e-10	1.208986e+01	1.406397e+01
2.230000e-06	1.785092e-06	2.483358e-10	1.239735e+01	1.554280e+01
2.240000e-06	1.829266e-06	2.668174e-10	1.270414e+01	1.700102e+01
2.250000e-06	1.873352e-06	2.846482e-10	1.301031e+01	1.843698e+01
2.260000e-06	1.917347e-06	3.027683e-10	1.331585e+01	1.984916e+01
2.270000e-06	1.961252e-06	3.216665e-10	1.362077e+01	2.123609e+01
2.280000e-06	2.005057e-06	3.388655e-10	1.392499e+01	2.259646e+01
2.290000e-06	2.048838e-06	3.553382e-10	1.422904e+01	2.392901e+01
2.300000e-06	2.092565e-06	3.717444e-10	1.453273e+01	2.523263e+01
2.310000e-06	2.136221e-06	3.879467e-10	1.483591e+01	2.650632e+01
2.320000e-06	2.179834e-06	4.047493e-10	1.513880e+01	2.774916e+01
2.330000e-06	2.223376e-06	4.225374e-10	1.544120e+01	2.896038e+01
2.340000e-06	2.266758e-06	4.391840e-10	1.574249e+01	3.013930e+01
2.350000e-06	2.309925e-06	4.530215e-10	1.604228e+01	3.128537e+01
2.360000e-06	2.352898e-06	4.664667e-10	1.634072e+01	3.239815e+01
2.370000e-06	2.395614e-06	4.789739e-10	1.663738e+01	3.347728e+01
2.380000e-06	2.437987e-06	4.918872e-10	1.693166e+01	3.452255e+01
2.390000e-06	2.480082e-06	5.086933e-10	1.722400e+01	3.553382e+01
2.400000e-06	2.521932e-06	5.245406e-10	1.751465e+01	3.651107e+01
2.410000e-06	2.563513e-06	5.389099e-10	1.780343e+01	3.745437e+01
2.420000e-06	2.604744e-06	5.492110e-10	1.808978e+01	3.836386e+01
2.430000e-06	2.645622e-06	5.562750e-10	1.837367e+01	3.923981e+01
2.440000e-06	2.686231e-06	5.604898e-10	1.865570e+01	4.008253e+01
2.450000e-06	2.726552e-06	5.670764e-10	1.893572e+01	4.089243e+01
2.460000e-06	2.766657e-06	5.789536e-10	1.921425e+01	4.166997e+01
2.470000e-06	2.806679e-06	5.919810e-10	1.949220e+01	4.241570e+01
2.480000e-06	2.846590e-06	6.050986e-10	1.976938e+01	4.313019e+01
2.490000e-06	2.886342e-06	6.166277e-10	2.004546e+01	4.381410e+01
2.500000e-06	2.925978e-06	6.264307e-10	2.032073e+01	4.446812e+01
2.510000e-06	2.965532e-06	6.317631e-10	2.059543e+01	4.509298e+01
2.520000e-06	3.004924e-06	6.363461e-10	2.086900e+01	4.568943e+01
2.530000e-06	3.044078e-06	6.417143e-10	2.114092e+01	4.625828e+01
2.540000e-06	3.083050e-06	6.485755e-10	2.141158e+01	4.680033e+01
2.550000e-06	3.121737e-06	6.578793e-10	2.168026e+01	4.731642e+01
2.560000e-06	3.160082e-06	6.674751e-10	2.194656e+01	4.780740e+01
2.570000e-06	3.198280e-06	6.770317e-10	2.221184e+01	4.827412e+01
2.580000e-06	3.236303e-06	6.854527e-10	2.247591e+01	4.871743e+01
2.590000e-06	3.274023e-06	6.910779e-10	2.273787e+01	4.913820e+01
2.600000e-06	3.311591e-06	6.950982e-10	2.299879e+01	4.953727e+01
2.610000e-06	3.348928e-06	6.982563e-10	2.325809e+01	4.991548e+01
2.620000e-06	3.385980e-06	7.035843e-10	2.351541e+01	5.027368e+01
2.630000e-06	3.422819e-06	7.102796e-10	2.377125e+01	5.061267e+01
2.640000e-06	3.459353e-06	7.178050e-10	2.402498e+01	5.093325e+01
2.650000e-06	3.495622e-06	7.238749e-10	2.427686e+01	5.123623e+01
2.660000e-06	3.531697e-06	7.282244e-10	2.452740e+01	5.152235e+01
2.670000e-06	3.567624e-06	7.318332e-10	2.477692e+01	5.179236e+01
2.680000e-06	3.603428e-06	7.345680e-10	2.502557e+01	5.204698e+01
2.690000e-06	3.639136e-06	7.379797e-10	2.527356e+01	5.228690e+01
2.700000e-06	3.674728e-06	7.426174e-10	2.552074e+01	5.251281e+01
2.710000e-06	3.710135e-06	7.482123e-10	2.576665e+01	5.272535e+01
2.720000e-06	3.745284e-06	7.560878e-10	2.601076e+01	5.292514e+01
2.730000e-06	3.780096e-06	7.632116e-10	2.625252e+01	5.311279e+01
2.740000e-06	3.814499e-06	7.682326e-10	2.649144e+01	5.328888e+01
2.750000e-06	3.848436e-06	7.710847e-10	2.672714e+01	5.345395e+01
2.760000e-06	3.881871e-06	7.703492e-10	2.695934e+01	5.360855e+01
2.770000e-06	3.914858e-06	7.688612e-10	2.718843e+01	5.375318e+01
2.780000e-06	3.947407e-06	7.711562e-10	2.741449e+01	5.388833e+01
2.790000e-06	3.979576e-06	7.804936e-10	2.763789e+01	5.401447e+01
2.800000e-06	4.011538e-06	7.919024e-10	2.785987e+01	5.413205e+01
2.810000e-06	4.043362e-06	7.996423e-10	2.808089e+01	5.424151e+01
2.820000e-06	4.075090e-06	8.029096e-10	2.830123e+01	5.434324e+01
2.830000e-06	4.106679e-06	8.027877e-10	2.852062e+01	5.443766e+01
2.840000e-06	4.137993e-06	7.993538e-10	2.873809e+01	5.452514e+01
2.850000e-06	4.168997e-06	7.928342e-10	2.895341e+01	5.460603e+01
2.860000e-06	4.199694e-06	7.878098e-10	2.916660e+01	5.468070e+01
2.870000e-06	4.230050e-06	7.903639e-10	2.937742e+01	5.474946e+01
2.880000e-06	4.260068e-06	7.959993e-10	2.958590e+01	5.481264e+01
2.890000e-06	4.289828e-06	8.020341e-10	2.979258e+01	5.487054e+01
2.900000e-06	4.319355e-06	8.059315e-10	2.999764e+01	5.492346e+01
