# Temperatura_=_7.9
# Concentracion g/m^3_=_1620.0
# C_Vs_to_Am_M_A/Vsm_=_65563218390.804596
# pendiente_HvsI_1/m_=_3716.3
# ordenada_HvsI_A/m_=_1297.0
# frecuencia_Hz_=_135099.70034713115

Tiempo_(s)	Campo_(V.s)	Magnetizacion_(V.s)	Campo_(kA/m)	Magnetizacion_(A/m)
0.000000e+00	-5.523458e-06	-1.565570e-09	-3.837081e+01	-1.032070e+02
1.000000e-08	-5.523555e-06	-1.560255e-09	-3.837149e+01	-1.031667e+02
2.000000e-08	-5.523234e-06	-1.559957e-09	-3.836926e+01	-1.031262e+02
3.000000e-08	-5.522496e-06	-1.562336e-09	-3.836413e+01	-1.030854e+02
4.000000e-08	-5.521384e-06	-1.564912e-09	-3.835641e+01	-1.030440e+02
5.000000e-08	-5.519638e-06	-1.563703e-09	-3.834427e+01	-1.030017e+02
6.000000e-08	-5.517269e-06	-1.562334e-09	-3.832782e+01	-1.029583e+02
7.000000e-08	-5.514453e-06	-1.577593e-09	-3.830825e+01	-1.029134e+02
8.000000e-08	-5.511205e-06	-1.608065e-09	-3.828570e+01	-1.028666e+02
9.000000e-08	-5.507484e-06	-1.579143e-09	-3.825984e+01	-1.028176e+02
1.000000e-07	-5.503295e-06	-1.518276e-09	-3.823074e+01	-1.027661e+02
1.100000e-07	-5.498920e-06	-1.543489e-09	-3.820035e+01	-1.027117e+02
1.200000e-07	-5.494287e-06	-1.566552e-09	-3.816816e+01	-1.026541e+02
1.300000e-07	-5.489246e-06	-1.576270e-09	-3.813314e+01	-1.025928e+02
1.400000e-07	-5.483899e-06	-1.541696e-09	-3.809600e+01	-1.025277e+02
1.500000e-07	-5.478218e-06	-1.567116e-09	-3.805653e+01	-1.024583e+02
1.600000e-07	-5.472052e-06	-1.605776e-09	-3.801370e+01	-1.023844e+02
1.700000e-07	-5.465398e-06	-1.555581e-09	-3.796747e+01	-1.023057e+02
1.800000e-07	-5.458405e-06	-1.522792e-09	-3.791889e+01	-1.022220e+02
1.900000e-07	-5.451141e-06	-1.521834e-09	-3.786843e+01	-1.021331e+02
2.000000e-07	-5.443548e-06	-1.591252e-09	-3.781569e+01	-1.020388e+02
2.100000e-07	-5.435645e-06	-1.607499e-09	-3.776079e+01	-1.019388e+02
2.200000e-07	-5.427520e-06	-1.607577e-09	-3.770434e+01	-1.018333e+02
2.300000e-07	-5.419042e-06	-1.580409e-09	-3.764545e+01	-1.017220e+02
2.400000e-07	-5.409943e-06	-1.583162e-09	-3.758224e+01	-1.016049e+02
2.500000e-07	-5.400145e-06	-1.564679e-09	-3.751417e+01	-1.014820e+02
2.600000e-07	-5.389816e-06	-1.567518e-09	-3.744242e+01	-1.013534e+02
2.700000e-07	-5.378938e-06	-1.570167e-09	-3.736685e+01	-1.012192e+02
2.800000e-07	-5.367524e-06	-1.583055e-09	-3.728756e+01	-1.010794e+02
2.900000e-07	-5.355763e-06	-1.575975e-09	-3.720586e+01	-1.009343e+02
3.000000e-07	-5.343622e-06	-1.560394e-09	-3.712151e+01	-1.007839e+02
3.100000e-07	-5.331016e-06	-1.561606e-09	-3.703394e+01	-1.006286e+02
3.200000e-07	-5.318069e-06	-1.568060e-09	-3.694400e+01	-1.004685e+02
3.300000e-07	-5.304818e-06	-1.567905e-09	-3.685195e+01	-1.003040e+02
3.400000e-07	-5.291082e-06	-1.544944e-09	-3.675652e+01	-1.001352e+02
3.500000e-07	-5.276806e-06	-1.561859e-09	-3.665735e+01	-9.996250e+01
3.600000e-07	-5.262107e-06	-1.586907e-09	-3.655524e+01	-9.978620e+01
3.700000e-07	-5.246963e-06	-1.561600e-09	-3.645003e+01	-9.960663e+01
3.800000e-07	-5.231155e-06	-1.525326e-09	-3.634022e+01	-9.942409e+01
3.900000e-07	-5.214833e-06	-1.557788e-09	-3.622683e+01	-9.923891e+01
4.000000e-07	-5.198280e-06	-1.553229e-09	-3.611184e+01	-9.905142e+01
4.100000e-07	-5.181404e-06	-1.511859e-09	-3.599461e+01	-9.886192e+01
4.200000e-07	-5.164132e-06	-1.532251e-09	-3.587462e+01	-9.867072e+01
4.300000e-07	-5.146556e-06	-1.586140e-09	-3.575252e+01	-9.847809e+01
4.400000e-07	-5.128660e-06	-1.527910e-09	-3.562820e+01	-9.828430e+01
4.500000e-07	-5.110409e-06	-1.499821e-09	-3.550141e+01	-9.808961e+01
4.600000e-07	-5.091813e-06	-1.547276e-09	-3.537222e+01	-9.789422e+01
4.700000e-07	-5.072810e-06	-1.539108e-09	-3.524022e+01	-9.769832e+01
4.800000e-07	-5.053452e-06	-1.474015e-09	-3.510574e+01	-9.750209e+01
4.900000e-07	-5.033872e-06	-1.516161e-09	-3.496972e+01	-9.730565e+01
5.000000e-07	-5.014090e-06	-1.539367e-09	-3.483229e+01	-9.710909e+01
5.100000e-07	-4.993972e-06	-1.485253e-09	-3.469253e+01	-9.691248e+01
5.200000e-07	-4.973505e-06	-1.491692e-09	-3.455036e+01	-9.671586e+01
5.300000e-07	-4.952736e-06	-1.543681e-09	-3.440608e+01	-9.651921e+01
5.400000e-07	-4.931625e-06	-1.488813e-09	-3.425942e+01	-9.632251e+01
5.500000e-07	-4.910148e-06	-1.456456e-09	-3.411022e+01	-9.612567e+01
5.600000e-07	-4.888311e-06	-1.508581e-09	-3.395852e+01	-9.592860e+01
5.700000e-07	-4.866156e-06	-1.500060e-09	-3.380461e+01	-9.573117e+01
5.800000e-07	-4.843718e-06	-1.449085e-09	-3.364874e+01	-9.553321e+01
5.900000e-07	-4.820953e-06	-1.477717e-09	-3.349060e+01	-9.533456e+01
6.000000e-07	-4.797767e-06	-1.487737e-09	-3.332952e+01	-9.513499e+01
6.100000e-07	-4.774247e-06	-1.440115e-09	-3.316613e+01	-9.493429e+01
6.200000e-07	-4.750566e-06	-1.446138e-09	-3.300162e+01	-9.473222e+01
6.300000e-07	-4.726733e-06	-1.476579e-09	-3.283606e+01	-9.452853e+01
6.400000e-07	-4.702598e-06	-1.455765e-09	-3.266839e+01	-9.432295e+01
6.500000e-07	-4.678000e-06	-1.442459e-09	-3.249752e+01	-9.411522e+01
6.600000e-07	-4.652915e-06	-1.465964e-09	-3.232325e+01	-9.390508e+01
6.700000e-07	-4.627348e-06	-1.449495e-09	-3.214565e+01	-9.369226e+01
6.800000e-07	-4.601240e-06	-1.428062e-09	-3.196428e+01	-9.347650e+01
6.900000e-07	-4.574553e-06	-1.434531e-09	-3.177888e+01	-9.325757e+01
7.000000e-07	-4.547380e-06	-1.437419e-09	-3.159011e+01	-9.303522e+01
7.100000e-07	-4.519959e-06	-1.418887e-09	-3.139962e+01	-9.280925e+01
7.200000e-07	-4.492419e-06	-1.425980e-09	-3.120831e+01	-9.257945e+01
7.300000e-07	-4.464742e-06	-1.429919e-09	-3.101604e+01	-9.234566e+01
7.400000e-07	-4.436851e-06	-1.416984e-09	-3.082228e+01	-9.210772e+01
7.500000e-07	-4.408686e-06	-1.403375e-09	-3.062662e+01	-9.186552e+01
7.600000e-07	-4.380158e-06	-1.405508e-09	-3.042844e+01	-9.161896e+01
7.700000e-07	-4.351264e-06	-1.398701e-09	-3.022772e+01	-9.136797e+01
7.800000e-07	-4.322097e-06	-1.394560e-09	-3.002510e+01	-9.111253e+01
7.900000e-07	-4.292618e-06	-1.392484e-09	-2.982031e+01	-9.085263e+01
8.000000e-07	-4.262840e-06	-1.387736e-09	-2.961345e+01	-9.058829e+01
8.100000e-07	-4.232740e-06	-1.371273e-09	-2.940434e+01	-9.031958e+01
8.200000e-07	-4.202386e-06	-1.366141e-09	-2.919348e+01	-9.004658e+01
8.300000e-07	-4.171805e-06	-1.362601e-09	-2.898104e+01	-8.976940e+01
8.400000e-07	-4.140855e-06	-1.360613e-09	-2.876603e+01	-8.948818e+01
8.500000e-07	-4.109572e-06	-1.363924e-09	-2.854871e+01	-8.920308e+01
8.600000e-07	-4.078125e-06	-1.364638e-09	-2.833026e+01	-8.891428e+01
8.700000e-07	-4.046568e-06	-1.350996e-09	-2.811103e+01	-8.862197e+01
8.800000e-07	-4.014833e-06	-1.337341e-09	-2.789057e+01	-8.832638e+01
8.900000e-07	-3.982908e-06	-1.328924e-09	-2.766880e+01	-8.802772e+01
9.000000e-07	-3.950787e-06	-1.317135e-09	-2.744565e+01	-8.772622e+01
9.100000e-07	-3.918275e-06	-1.313106e-09	-2.721979e+01	-8.742211e+01
9.200000e-07	-3.885328e-06	-1.319191e-09	-2.699091e+01	-8.711563e+01
9.300000e-07	-3.851993e-06	-1.320931e-09	-2.675934e+01	-8.680700e+01
9.400000e-07	-3.818121e-06	-1.314763e-09	-2.652404e+01	-8.649643e+01
9.500000e-07	-3.783759e-06	-1.312628e-09	-2.628533e+01	-8.618414e+01
9.600000e-07	-3.749039e-06	-1.304436e-09	-2.604413e+01	-8.587031e+01
9.700000e-07	-3.713955e-06	-1.291415e-09	-2.580041e+01	-8.555511e+01
9.800000e-07	-3.678629e-06	-1.282820e-09	-2.555501e+01	-8.523869e+01
9.900000e-07	-3.643116e-06	-1.279437e-09	-2.530830e+01	-8.492115e+01
1.000000e-06	-3.607440e-06	-1.266979e-09	-2.506046e+01	-8.460261e+01
1.010000e-06	-3.571665e-06	-1.260734e-09	-2.481194e+01	-8.428310e+01
1.020000e-06	-3.535769e-06	-1.261433e-09	-2.456257e+01	-8.396266e+01
1.030000e-06	-3.499675e-06	-1.261477e-09	-2.431183e+01	-8.364127e+01
1.040000e-06	-3.463321e-06	-1.254692e-09	-2.405928e+01	-8.331889e+01
1.050000e-06	-3.426704e-06	-1.251885e-09	-2.380491e+01	-8.299544e+01
1.060000e-06	-3.389761e-06	-1.244488e-09	-2.354827e+01	-8.267079e+01
1.070000e-06	-3.352513e-06	-1.233303e-09	-2.328951e+01	-8.234479e+01
1.080000e-06	-3.315059e-06	-1.223729e-09	-2.302933e+01	-8.201723e+01
1.090000e-06	-3.277394e-06	-1.217962e-09	-2.276767e+01	-8.168790e+01
1.100000e-06	-3.239533e-06	-1.209474e-09	-2.250465e+01	-8.135653e+01
1.110000e-06	-3.201490e-06	-1.202395e-09	-2.224038e+01	-8.102282e+01
1.120000e-06	-3.163167e-06	-1.196746e-09	-2.197415e+01	-8.068645e+01
1.130000e-06	-3.124595e-06	-1.190682e-09	-2.170620e+01	-8.034707e+01
1.140000e-06	-3.085927e-06	-1.183070e-09	-2.143757e+01	-8.000430e+01
1.150000e-06	-3.047092e-06	-1.179851e-09	-2.116779e+01	-7.965776e+01
1.160000e-06	-3.007923e-06	-1.174256e-09	-2.089569e+01	-7.930702e+01
1.170000e-06	-2.968502e-06	-1.165058e-09	-2.062184e+01	-7.895168e+01
1.180000e-06	-2.929014e-06	-1.158835e-09	-2.034751e+01	-7.859129e+01
1.190000e-06	-2.889424e-06	-1.156249e-09	-2.007249e+01	-7.822543e+01
1.200000e-06	-2.849635e-06	-1.150069e-09	-1.979608e+01	-7.785366e+01
1.210000e-06	-2.809711e-06	-1.141763e-09	-1.951873e+01	-7.747555e+01
1.220000e-06	-2.769697e-06	-1.138337e-09	-1.924076e+01	-7.709066e+01
1.230000e-06	-2.729601e-06	-1.132792e-09	-1.896222e+01	-7.669860e+01
1.240000e-06	-2.689340e-06	-1.127112e-09	-1.868253e+01	-7.629896e+01
1.250000e-06	-2.648778e-06	-1.122931e-09	-1.840075e+01	-7.589136e+01
1.260000e-06	-2.607877e-06	-1.114692e-09	-1.811661e+01	-7.547544e+01
1.270000e-06	-2.566663e-06	-1.102351e-09	-1.783031e+01	-7.505086e+01
1.280000e-06	-2.525248e-06	-1.089911e-09	-1.754260e+01	-7.461731e+01
1.290000e-06	-2.483577e-06	-1.081148e-09	-1.725312e+01	-7.417451e+01
1.300000e-06	-2.441457e-06	-1.077337e-09	-1.696052e+01	-7.372220e+01
1.310000e-06	-2.399003e-06	-1.071973e-09	-1.666559e+01	-7.326015e+01
1.320000e-06	-2.356320e-06	-1.063876e-09	-1.636908e+01	-7.278817e+01
1.330000e-06	-2.313408e-06	-1.049252e-09	-1.607097e+01	-7.230607e+01
1.340000e-06	-2.270247e-06	-1.037579e-09	-1.577114e+01	-7.181373e+01
1.350000e-06	-2.226890e-06	-1.030844e-09	-1.546994e+01	-7.131101e+01
1.360000e-06	-2.183419e-06	-1.029286e-09	-1.516795e+01	-7.079782e+01
1.370000e-06	-2.139811e-06	-1.023632e-09	-1.486502e+01	-7.027410e+01
1.380000e-06	-2.096131e-06	-1.015115e-09	-1.456157e+01	-6.973976e+01
1.390000e-06	-2.052418e-06	-1.004000e-09	-1.425791e+01	-6.919479e+01
1.400000e-06	-2.008662e-06	-9.926050e-10	-1.395394e+01	-6.863912e+01
1.410000e-06	-1.964821e-06	-9.800906e-10	-1.364938e+01	-6.807275e+01
1.420000e-06	-1.920903e-06	-9.668776e-10	-1.334429e+01	-6.749563e+01
1.430000e-06	-1.876902e-06	-9.573504e-10	-1.303862e+01	-6.690773e+01
1.440000e-06	-1.832786e-06	-9.506159e-10	-1.273215e+01	-6.630900e+01
1.450000e-06	-1.788577e-06	-9.437805e-10	-1.242503e+01	-6.569938e+01
1.460000e-06	-1.744170e-06	-9.379854e-10	-1.211655e+01	-6.507879e+01
1.470000e-06	-1.699534e-06	-9.285429e-10	-1.180646e+01	-6.444711e+01
1.480000e-06	-1.654743e-06	-9.145139e-10	-1.149531e+01	-6.380419e+01
1.490000e-06	-1.609821e-06	-8.949413e-10	-1.118324e+01	-6.314987e+01
1.500000e-06	-1.564834e-06	-8.761880e-10	-1.087072e+01	-6.248390e+01
1.510000e-06	-1.519774e-06	-8.639941e-10	-1.055769e+01	-6.180603e+01
1.520000e-06	-1.474633e-06	-8.548912e-10	-1.024410e+01	-6.111592e+01
1.530000e-06	-1.429340e-06	-8.487604e-10	-9.929457e+00	-6.041319e+01
1.540000e-06	-1.383872e-06	-8.418108e-10	-9.613597e+00	-5.969741e+01
1.550000e-06	-1.338348e-06	-8.332218e-10	-9.297347e+00	-5.896808e+01
1.560000e-06	-1.292804e-06	-8.217695e-10	-8.980955e+00	-5.822463e+01
1.570000e-06	-1.247171e-06	-8.084731e-10	-8.663952e+00	-5.746643e+01
1.580000e-06	-1.201424e-06	-7.934462e-10	-8.346151e+00	-5.669280e+01
1.590000e-06	-1.155617e-06	-7.776642e-10	-8.027937e+00	-5.590297e+01
1.600000e-06	-1.109756e-06	-7.615301e-10	-7.709344e+00	-5.509612e+01
1.610000e-06	-1.063831e-06	-7.487906e-10	-7.390307e+00	-5.427138e+01
1.620000e-06	-1.017774e-06	-7.397012e-10	-7.070355e+00	-5.342780e+01
1.630000e-06	-9.715995e-07	-7.334568e-10	-6.749587e+00	-5.256438e+01
1.640000e-06	-9.253680e-07	-7.243860e-10	-6.428422e+00	-5.168009e+01
1.650000e-06	-8.791639e-07	-7.113229e-10	-6.107448e+00	-5.077383e+01
1.660000e-06	-8.329449e-07	-6.944609e-10	-5.786370e+00	-4.984448e+01
1.670000e-06	-7.866473e-07	-6.748809e-10	-5.464746e+00	-4.889089e+01
1.680000e-06	-7.402988e-07	-6.546082e-10	-5.142769e+00	-4.791188e+01
1.690000e-06	-6.938594e-07	-6.345232e-10	-4.820160e+00	-4.690625e+01
1.700000e-06	-6.473245e-07	-6.149404e-10	-4.496887e+00	-4.587282e+01
1.710000e-06	-6.007995e-07	-6.011339e-10	-4.173683e+00	-4.481040e+01
1.720000e-06	-5.542820e-07	-5.881835e-10	-3.850532e+00	-4.371782e+01
1.730000e-06	-5.076741e-07	-5.717276e-10	-3.526753e+00	-4.259392e+01
1.740000e-06	-4.610384e-07	-5.530569e-10	-3.202780e+00	-4.143761e+01
1.750000e-06	-4.143629e-07	-5.311413e-10	-2.878530e+00	-4.024784e+01
1.760000e-06	-3.675876e-07	-5.076098e-10	-2.553588e+00	-3.902360e+01
1.770000e-06	-3.207454e-07	-4.869187e-10	-2.228181e+00	-3.776397e+01
1.780000e-06	-2.738971e-07	-4.690414e-10	-1.902731e+00	-3.646811e+01
1.790000e-06	-2.270862e-07	-4.517391e-10	-1.577541e+00	-3.513528e+01
1.800000e-06	-1.802625e-07	-4.349398e-10	-1.252262e+00	-3.376485e+01
1.810000e-06	-1.334861e-07	-4.170107e-10	-9.273120e-01	-3.235627e+01
1.820000e-06	-8.673069e-08	-3.955015e-10	-6.025079e-01	-3.090917e+01
1.830000e-06	-3.988423e-08	-3.721768e-10	-2.770710e-01	-2.942326e+01
1.840000e-06	6.945498e-09	-3.509215e-10	4.824956e-02	-2.789842e+01
1.850000e-06	5.381315e-08	-3.298125e-10	3.738337e-01	-2.633469e+01
1.860000e-06	1.007535e-07	-3.078887e-10	6.999226e-01	-2.473223e+01
1.870000e-06	1.476510e-07	-2.859832e-10	1.025714e+00	-2.309139e+01
1.880000e-06	1.944646e-07	-2.636778e-10	1.350923e+00	-2.141267e+01
1.890000e-06	2.413085e-07	-2.390547e-10	1.676342e+00	-1.969674e+01
1.900000e-06	2.881570e-07	-2.122443e-10	2.001793e+00	-1.794445e+01
1.910000e-06	3.349685e-07	-1.827297e-10	2.326987e+00	-1.615681e+01
1.920000e-06	3.817655e-07	-1.534691e-10	2.652080e+00	-1.433500e+01
1.930000e-06	4.284864e-07	-1.275630e-10	2.976644e+00	-1.248037e+01
1.940000e-06	4.751570e-07	-1.035741e-10	3.300860e+00	-1.059442e+01
1.950000e-06	5.218019e-07	-7.953719e-11	3.624896e+00	-8.678829e+00
1.960000e-06	5.683587e-07	-5.472355e-11	3.948321e+00	-6.735424e+00
1.970000e-06	6.148885e-07	-2.772225e-11	4.271558e+00	-4.766176e+00
1.980000e-06	6.613687e-07	1.089559e-12	4.594450e+00	-2.773193e+00
1.990000e-06	7.077359e-07	3.264822e-11	4.916558e+00	-7.587143e-01
2.000000e-06	7.541070e-07	6.559482e-11	5.238692e+00	1.274903e+00
2.010000e-06	8.004482e-07	9.629130e-11	5.560619e+00	3.325195e+00
2.020000e-06	8.466842e-07	1.245566e-10	5.881815e+00	5.389601e+00
2.030000e-06	8.928794e-07	1.521694e-10	6.202728e+00	7.465480e+00
2.040000e-06	9.390162e-07	1.791748e-10	6.523235e+00	9.550122e+00
2.050000e-06	9.850444e-07	2.078456e-10	6.842988e+00	1.164076e+01
2.060000e-06	1.030989e-06	2.383641e-10	7.162156e+00	1.373460e+01
2.070000e-06	1.076836e-06	2.688956e-10	7.480655e+00	1.582881e+01
2.080000e-06	1.122639e-06	2.972189e-10	7.798838e+00	1.792055e+01
2.090000e-06	1.168444e-06	3.259797e-10	8.117044e+00	2.000700e+01
2.100000e-06	1.214197e-06	3.558117e-10	8.434885e+00	2.208534e+01
2.110000e-06	1.259814e-06	3.854663e-10	8.751778e+00	2.415280e+01
2.120000e-06	1.305322e-06	4.156370e-10	9.067919e+00	2.620667e+01
2.130000e-06	1.350795e-06	4.442716e-10	9.383811e+00	2.824429e+01
2.140000e-06	1.396194e-06	4.700128e-10	9.699195e+00	3.026309e+01
2.150000e-06	1.441470e-06	4.940181e-10	1.001372e+01	3.226058e+01
2.160000e-06	1.486609e-06	5.201252e-10	1.032730e+01	3.423441e+01
2.170000e-06	1.531632e-06	5.472006e-10	1.064007e+01	3.618229e+01
2.180000e-06	1.576535e-06	5.751791e-10	1.095201e+01	3.810212e+01
2.190000e-06	1.621354e-06	6.042442e-10	1.126336e+01	3.999188e+01
2.200000e-06	1.666030e-06	6.336282e-10	1.157371e+01	4.184975e+01
2.210000e-06	1.710531e-06	6.600102e-10	1.188286e+01	4.367402e+01
2.220000e-06	1.754986e-06	6.814921e-10	1.219168e+01	4.546317e+01
2.230000e-06	1.799328e-06	7.010358e-10	1.249972e+01	4.721582e+01
2.240000e-06	1.843451e-06	7.202731e-10	1.280624e+01	4.893077e+01
2.250000e-06	1.887436e-06	7.428724e-10	1.311179e+01	5.060699e+01
2.260000e-06	1.931394e-06	7.671054e-10	1.341717e+01	5.224362e+01
2.270000e-06	1.975302e-06	7.925930e-10	1.372219e+01	5.383997e+01
2.280000e-06	2.019121e-06	8.173024e-10	1.402660e+01	5.539552e+01
2.290000e-06	2.062851e-06	8.372125e-10	1.433039e+01	5.690992e+01
2.300000e-06	2.106507e-06	8.541159e-10	1.463366e+01	5.838297e+01
2.310000e-06	2.150121e-06	8.699164e-10	1.493664e+01	5.981464e+01
2.320000e-06	2.193632e-06	8.861632e-10	1.523890e+01	6.120505e+01
2.330000e-06	2.237001e-06	9.048555e-10	1.554019e+01	6.255446e+01
2.340000e-06	2.280238e-06	9.251011e-10	1.584054e+01	6.386327e+01
2.350000e-06	2.323292e-06	9.459533e-10	1.613964e+01	6.513199e+01
2.360000e-06	2.366115e-06	9.638931e-10	1.643713e+01	6.636127e+01
2.370000e-06	2.408726e-06	9.786044e-10	1.673313e+01	6.755186e+01
2.380000e-06	2.451127e-06	9.922954e-10	1.702769e+01	6.870461e+01
2.390000e-06	2.493114e-06	1.006063e-09	1.731937e+01	6.982044e+01
2.400000e-06	2.534701e-06	1.023363e-09	1.760827e+01	7.090037e+01
2.410000e-06	2.575926e-06	1.042044e-09	1.789465e+01	7.194546e+01
2.420000e-06	2.616822e-06	1.057614e-09	1.817875e+01	7.295682e+01
2.430000e-06	2.657545e-06	1.070119e-09	1.846165e+01	7.393563e+01
2.440000e-06	2.698069e-06	1.082227e-09	1.874317e+01	7.488308e+01
2.450000e-06	2.738364e-06	1.092330e-09	1.902309e+01	7.580035e+01
2.460000e-06	2.778459e-06	1.102388e-09	1.930163e+01	7.668868e+01
2.470000e-06	2.818464e-06	1.114282e-09	1.957954e+01	7.754927e+01
2.480000e-06	2.858337e-06	1.126936e-09	1.985653e+01	7.838332e+01
2.490000e-06	2.898021e-06	1.140409e-09	2.013221e+01	7.919201e+01
2.500000e-06	2.937534e-06	1.153946e-09	2.040671e+01	7.997647e+01
2.510000e-06	2.976877e-06	1.165827e-09	2.068001e+01	8.073782e+01
2.520000e-06	3.016154e-06	1.175950e-09	2.095287e+01	8.147713e+01
2.530000e-06	3.055285e-06	1.185252e-09	2.122470e+01	8.219540e+01
2.540000e-06	3.094123e-06	1.194911e-09	2.149451e+01	8.289360e+01
2.550000e-06	3.132749e-06	1.203344e-09	2.176284e+01	8.357262e+01
2.560000e-06	3.171124e-06	1.210880e-09	2.202942e+01	8.423331e+01
2.570000e-06	3.209250e-06	1.219285e-09	2.229428e+01	8.487643e+01
2.580000e-06	3.247157e-06	1.227784e-09	2.255761e+01	8.550269e+01
2.590000e-06	3.284862e-06	1.236289e-09	2.281955e+01	8.611274e+01
2.600000e-06	3.322451e-06	1.246394e-09	2.308068e+01	8.670714e+01
2.610000e-06	3.359829e-06	1.256840e-09	2.334034e+01	8.728641e+01
2.620000e-06	3.396904e-06	1.266148e-09	2.359789e+01	8.785099e+01
2.630000e-06	3.433733e-06	1.275772e-09	2.385374e+01	8.840127e+01
2.640000e-06	3.470347e-06	1.284419e-09	2.410809e+01	8.893759e+01
2.650000e-06	3.506659e-06	1.289135e-09	2.436035e+01	8.946022e+01
2.660000e-06	3.542781e-06	1.294754e-09	2.461128e+01	8.996939e+01
2.670000e-06	3.578739e-06	1.303367e-09	2.486108e+01	9.046529e+01
2.680000e-06	3.614471e-06	1.311249e-09	2.510930e+01	9.094807e+01
2.690000e-06	3.650013e-06	1.318441e-09	2.535621e+01	9.141785e+01
2.700000e-06	3.685390e-06	1.326205e-09	2.560197e+01	9.187471e+01
2.710000e-06	3.720601e-06	1.334129e-09	2.584658e+01	9.231873e+01
2.720000e-06	3.755639e-06	1.341551e-09	2.608998e+01	9.274996e+01
2.730000e-06	3.790306e-06	1.350014e-09	2.633081e+01	9.316844e+01
2.740000e-06	3.824497e-06	1.358181e-09	2.656833e+01	9.357423e+01
2.750000e-06	3.858314e-06	1.361444e-09	2.680326e+01	9.396736e+01
2.760000e-06	3.891708e-06	1.363170e-09	2.703524e+01	9.434788e+01
2.770000e-06	3.924554e-06	1.365474e-09	2.726341e+01	9.471587e+01
2.780000e-06	3.956934e-06	1.369323e-09	2.748835e+01	9.507139e+01
2.790000e-06	3.989093e-06	1.377995e-09	2.771176e+01	9.541456e+01
2.800000e-06	4.021054e-06	1.388141e-09	2.793379e+01	9.574550e+01
2.810000e-06	4.052822e-06	1.396270e-09	2.815448e+01	9.606435e+01
2.820000e-06	4.084474e-06	1.403486e-09	2.837436e+01	9.637131e+01
2.830000e-06	4.115950e-06	1.408283e-09	2.859302e+01	9.666657e+01
2.840000e-06	4.147095e-06	1.408983e-09	2.880938e+01	9.695039e+01
2.850000e-06	4.177918e-06	1.406458e-09	2.902350e+01	9.722304e+01
2.860000e-06	4.208451e-06	1.404912e-09	2.923562e+01	9.748483e+01
2.870000e-06	4.238628e-06	1.408473e-09	2.944525e+01	9.773610e+01
2.880000e-06	4.268486e-06	1.414416e-09	2.965267e+01	9.797723e+01
2.890000e-06	4.298121e-06	1.420503e-09	2.985854e+01	9.820860e+01
2.900000e-06	4.327476e-06	1.423708e-09	3.006247e+01	9.843066e+01
