# Temperatura_=_-11.01
# Concentracion g/m^3_=_1620.0
# C_Vs_to_Am_M_A/Vsm_=_65563218390.804596
# pendiente_HvsI_1/m_=_3716.3
# ordenada_HvsI_A/m_=_1297.0
# frecuencia_Hz_=_135105.8754294422

Tiempo_(s)	Campo_(V.s)	Magnetizacion_(V.s)	Campo_(kA/m)	Magnetizacion_(A/m)
0.000000e+00	-5.532212e-06	-1.127087e-09	-3.836226e+01	-7.354643e+01
1.000000e-08	-5.532474e-06	-1.124062e-09	-3.836408e+01	-7.352244e+01
2.000000e-08	-5.532522e-06	-1.122924e-09	-3.836441e+01	-7.349964e+01
3.000000e-08	-5.532294e-06	-1.123957e-09	-3.836283e+01	-7.347763e+01
4.000000e-08	-5.531608e-06	-1.127310e-09	-3.835807e+01	-7.345602e+01
5.000000e-08	-5.530309e-06	-1.129653e-09	-3.834907e+01	-7.343438e+01
6.000000e-08	-5.528435e-06	-1.123779e-09	-3.833607e+01	-7.341228e+01
7.000000e-08	-5.525999e-06	-1.109954e-09	-3.831918e+01	-7.338928e+01
8.000000e-08	-5.523001e-06	-1.101850e-09	-3.829839e+01	-7.336492e+01
9.000000e-08	-5.519601e-06	-1.125375e-09	-3.827481e+01	-7.333877e+01
1.000000e-07	-5.515767e-06	-1.170227e-09	-3.824822e+01	-7.331038e+01
1.100000e-07	-5.511470e-06	-1.159467e-09	-3.821843e+01	-7.327931e+01
1.200000e-07	-5.506934e-06	-1.081874e-09	-3.818697e+01	-7.324517e+01
1.300000e-07	-5.502224e-06	-1.047453e-09	-3.815432e+01	-7.320754e+01
1.400000e-07	-5.497156e-06	-1.114844e-09	-3.811917e+01	-7.316606e+01
1.500000e-07	-5.491632e-06	-1.166780e-09	-3.808087e+01	-7.312039e+01
1.600000e-07	-5.485769e-06	-1.111905e-09	-3.804021e+01	-7.307022e+01
1.700000e-07	-5.479637e-06	-1.049268e-09	-3.799769e+01	-7.301528e+01
1.800000e-07	-5.473093e-06	-1.091188e-09	-3.795231e+01	-7.295532e+01
1.900000e-07	-5.466055e-06	-1.155093e-09	-3.790351e+01	-7.289017e+01
2.000000e-07	-5.458584e-06	-1.119107e-09	-3.785170e+01	-7.281966e+01
2.100000e-07	-5.450821e-06	-1.060478e-09	-3.779787e+01	-7.274371e+01
2.200000e-07	-5.442819e-06	-1.084352e-09	-3.774238e+01	-7.266225e+01
2.300000e-07	-5.434559e-06	-1.139753e-09	-3.768510e+01	-7.257528e+01
2.400000e-07	-5.425946e-06	-1.121501e-09	-3.762538e+01	-7.248284e+01
2.500000e-07	-5.416781e-06	-1.074005e-09	-3.756183e+01	-7.238502e+01
2.600000e-07	-5.406914e-06	-1.074652e-09	-3.749341e+01	-7.228196e+01
2.700000e-07	-5.396397e-06	-1.105368e-09	-3.742048e+01	-7.217385e+01
2.800000e-07	-5.385340e-06	-1.104074e-09	-3.734380e+01	-7.206091e+01
2.900000e-07	-5.373758e-06	-1.076362e-09	-3.726349e+01	-7.194342e+01
3.000000e-07	-5.361839e-06	-1.070951e-09	-3.718084e+01	-7.182169e+01
3.100000e-07	-5.349663e-06	-1.088208e-09	-3.709641e+01	-7.169606e+01
3.200000e-07	-5.337105e-06	-1.086186e-09	-3.700932e+01	-7.156691e+01
3.300000e-07	-5.324082e-06	-1.059325e-09	-3.691902e+01	-7.143466e+01
3.400000e-07	-5.310608e-06	-1.063584e-09	-3.682558e+01	-7.129974e+01
3.500000e-07	-5.296803e-06	-1.097763e-09	-3.672986e+01	-7.116260e+01
3.600000e-07	-5.282554e-06	-1.091270e-09	-3.663105e+01	-7.102372e+01
3.700000e-07	-5.267725e-06	-1.060653e-09	-3.652822e+01	-7.088356e+01
3.800000e-07	-5.252399e-06	-1.068413e-09	-3.642194e+01	-7.074263e+01
3.900000e-07	-5.236671e-06	-1.076613e-09	-3.631288e+01	-7.060140e+01
4.000000e-07	-5.220431e-06	-1.050855e-09	-3.620027e+01	-7.046036e+01
4.100000e-07	-5.203754e-06	-1.058593e-09	-3.608462e+01	-7.031998e+01
4.200000e-07	-5.186792e-06	-1.092281e-09	-3.596700e+01	-7.018072e+01
4.300000e-07	-5.169451e-06	-1.063247e-09	-3.584675e+01	-7.004302e+01
4.400000e-07	-5.151792e-06	-1.035799e-09	-3.572430e+01	-6.990730e+01
4.500000e-07	-5.133864e-06	-1.080623e-09	-3.559998e+01	-6.977394e+01
4.600000e-07	-5.115570e-06	-1.087548e-09	-3.547312e+01	-6.964331e+01
4.700000e-07	-5.096829e-06	-1.030668e-09	-3.534317e+01	-6.951573e+01
4.800000e-07	-5.077697e-06	-1.044901e-09	-3.521050e+01	-6.939149e+01
4.900000e-07	-5.058266e-06	-1.084176e-09	-3.507576e+01	-6.927083e+01
5.000000e-07	-5.038626e-06	-1.046285e-09	-3.493957e+01	-6.915396e+01
5.100000e-07	-5.018789e-06	-1.030392e-09	-3.480201e+01	-6.904103e+01
5.200000e-07	-4.998678e-06	-1.073108e-09	-3.466255e+01	-6.893216e+01
5.300000e-07	-4.978218e-06	-1.051052e-09	-3.452068e+01	-6.882742e+01
5.400000e-07	-4.957323e-06	-1.017425e-09	-3.437579e+01	-6.872682e+01
5.500000e-07	-4.936049e-06	-1.063506e-09	-3.422826e+01	-6.863035e+01
5.600000e-07	-4.914460e-06	-1.076000e-09	-3.407856e+01	-6.853794e+01
5.700000e-07	-4.892543e-06	-1.021918e-09	-3.392658e+01	-6.844946e+01
5.800000e-07	-4.870269e-06	-1.027587e-09	-3.377212e+01	-6.836477e+01
5.900000e-07	-4.847588e-06	-1.054679e-09	-3.361485e+01	-6.828367e+01
6.000000e-07	-4.824541e-06	-1.020448e-09	-3.345503e+01	-6.820593e+01
6.100000e-07	-4.801227e-06	-1.008209e-09	-3.329336e+01	-6.813127e+01
6.200000e-07	-4.777696e-06	-1.038492e-09	-3.313019e+01	-6.805942e+01
6.300000e-07	-4.753974e-06	-1.027966e-09	-3.296569e+01	-6.799003e+01
6.400000e-07	-4.730048e-06	-1.010807e-09	-3.279978e+01	-6.792276e+01
6.500000e-07	-4.705821e-06	-1.030673e-09	-3.263178e+01	-6.785726e+01
6.600000e-07	-4.681133e-06	-1.028567e-09	-3.246059e+01	-6.779313e+01
6.700000e-07	-4.655876e-06	-1.009606e-09	-3.228545e+01	-6.772998e+01
6.800000e-07	-4.630113e-06	-1.017988e-09	-3.210680e+01	-6.766743e+01
6.900000e-07	-4.603843e-06	-1.019181e-09	-3.192463e+01	-6.760508e+01
7.000000e-07	-4.577047e-06	-1.002250e-09	-3.173882e+01	-6.754252e+01
7.100000e-07	-4.549810e-06	-1.008959e-09	-3.154995e+01	-6.747938e+01
7.200000e-07	-4.522350e-06	-1.020960e-09	-3.135953e+01	-6.741529e+01
7.300000e-07	-4.494725e-06	-1.013864e-09	-3.116797e+01	-6.734988e+01
7.400000e-07	-4.466913e-06	-1.012774e-09	-3.097511e+01	-6.728281e+01
7.500000e-07	-4.438937e-06	-1.018449e-09	-3.078112e+01	-6.721377e+01
7.600000e-07	-4.410653e-06	-1.009631e-09	-3.058498e+01	-6.714248e+01
7.700000e-07	-4.381995e-06	-1.003531e-09	-3.038626e+01	-6.706866e+01
7.800000e-07	-4.353005e-06	-1.004602e-09	-3.018524e+01	-6.699210e+01
7.900000e-07	-4.323710e-06	-9.976813e-10	-2.998209e+01	-6.691259e+01
8.000000e-07	-4.294119e-06	-9.924146e-10	-2.977690e+01	-6.682997e+01
8.100000e-07	-4.264284e-06	-9.967223e-10	-2.957001e+01	-6.674411e+01
8.200000e-07	-4.234187e-06	-9.917483e-10	-2.936131e+01	-6.665492e+01
8.300000e-07	-4.203748e-06	-9.816257e-10	-2.915023e+01	-6.656236e+01
8.400000e-07	-4.173052e-06	-9.838703e-10	-2.893738e+01	-6.646639e+01
8.500000e-07	-4.142099e-06	-9.880975e-10	-2.872274e+01	-6.636703e+01
8.600000e-07	-4.110848e-06	-9.796588e-10	-2.850603e+01	-6.626433e+01
8.700000e-07	-4.079379e-06	-9.724515e-10	-2.828782e+01	-6.615837e+01
8.800000e-07	-4.047710e-06	-9.700672e-10	-2.806821e+01	-6.604927e+01
8.900000e-07	-4.015837e-06	-9.609555e-10	-2.784719e+01	-6.593714e+01
9.000000e-07	-3.983802e-06	-9.532676e-10	-2.762505e+01	-6.582217e+01
9.100000e-07	-3.951505e-06	-9.579017e-10	-2.740110e+01	-6.570453e+01
9.200000e-07	-3.918800e-06	-9.597168e-10	-2.717431e+01	-6.558441e+01
9.300000e-07	-3.885696e-06	-9.559533e-10	-2.694475e+01	-6.546204e+01
9.400000e-07	-3.852184e-06	-9.599400e-10	-2.671237e+01	-6.533764e+01
9.500000e-07	-3.818197e-06	-9.634626e-10	-2.647669e+01	-6.521144e+01
9.600000e-07	-3.783746e-06	-9.561432e-10	-2.623780e+01	-6.508368e+01
9.700000e-07	-3.748888e-06	-9.485629e-10	-2.599608e+01	-6.495459e+01
9.800000e-07	-3.713711e-06	-9.462909e-10	-2.575215e+01	-6.482440e+01
9.900000e-07	-3.678308e-06	-9.382000e-10	-2.550665e+01	-6.469333e+01
1.000000e-06	-3.642721e-06	-9.297824e-10	-2.525988e+01	-6.456160e+01
1.010000e-06	-3.606974e-06	-9.315711e-10	-2.501200e+01	-6.442939e+01
1.020000e-06	-3.571086e-06	-9.342833e-10	-2.476314e+01	-6.429688e+01
1.030000e-06	-3.535077e-06	-9.313550e-10	-2.451344e+01	-6.416423e+01
1.040000e-06	-3.498857e-06	-9.317028e-10	-2.426228e+01	-6.403155e+01
1.050000e-06	-3.462386e-06	-9.321796e-10	-2.400937e+01	-6.389897e+01
1.060000e-06	-3.425594e-06	-9.257165e-10	-2.375425e+01	-6.376654e+01
1.070000e-06	-3.388489e-06	-9.186059e-10	-2.349695e+01	-6.363432e+01
1.080000e-06	-3.351242e-06	-9.175151e-10	-2.323866e+01	-6.350231e+01
1.090000e-06	-3.313822e-06	-9.147033e-10	-2.297918e+01	-6.337049e+01
1.100000e-06	-3.276156e-06	-9.100353e-10	-2.271800e+01	-6.323881e+01
1.110000e-06	-3.238242e-06	-9.093269e-10	-2.245508e+01	-6.310719e+01
1.120000e-06	-3.200046e-06	-9.074489e-10	-2.219022e+01	-6.297549e+01
1.130000e-06	-3.161613e-06	-9.017405e-10	-2.192371e+01	-6.284359e+01
1.140000e-06	-3.122972e-06	-8.994070e-10	-2.165576e+01	-6.271128e+01
1.150000e-06	-3.084134e-06	-9.009928e-10	-2.138645e+01	-6.257836e+01
1.160000e-06	-3.045061e-06	-8.996695e-10	-2.111550e+01	-6.244459e+01
1.170000e-06	-3.005742e-06	-8.953317e-10	-2.084285e+01	-6.230972e+01
1.180000e-06	-2.966294e-06	-8.918180e-10	-2.056930e+01	-6.217344e+01
1.190000e-06	-2.926747e-06	-8.889280e-10	-2.029507e+01	-6.203545e+01
1.200000e-06	-2.887106e-06	-8.893052e-10	-2.002018e+01	-6.189544e+01
1.210000e-06	-2.847325e-06	-8.920100e-10	-1.974433e+01	-6.175305e+01
1.220000e-06	-2.807372e-06	-8.936230e-10	-1.946728e+01	-6.160794e+01
1.230000e-06	-2.767281e-06	-8.905226e-10	-1.918928e+01	-6.145975e+01
1.240000e-06	-2.727071e-06	-8.888878e-10	-1.891045e+01	-6.130810e+01
1.250000e-06	-2.686681e-06	-8.887259e-10	-1.863037e+01	-6.115264e+01
1.260000e-06	-2.646018e-06	-8.848341e-10	-1.834840e+01	-6.099298e+01
1.270000e-06	-2.604941e-06	-8.812246e-10	-1.806356e+01	-6.082877e+01
1.280000e-06	-2.563538e-06	-8.780967e-10	-1.777646e+01	-6.065964e+01
1.290000e-06	-2.521932e-06	-8.728314e-10	-1.748795e+01	-6.048524e+01
1.300000e-06	-2.480065e-06	-8.657347e-10	-1.719763e+01	-6.030522e+01
1.310000e-06	-2.437917e-06	-8.601428e-10	-1.690536e+01	-6.011924e+01
1.320000e-06	-2.395487e-06	-8.566548e-10	-1.661113e+01	-5.992699e+01
1.330000e-06	-2.352828e-06	-8.553581e-10	-1.631532e+01	-5.972816e+01
1.340000e-06	-2.309964e-06	-8.548209e-10	-1.601809e+01	-5.952246e+01
1.350000e-06	-2.266821e-06	-8.567419e-10	-1.571892e+01	-5.930960e+01
1.360000e-06	-2.223412e-06	-8.578950e-10	-1.541790e+01	-5.908932e+01
1.370000e-06	-2.179845e-06	-8.553103e-10	-1.511579e+01	-5.886136e+01
1.380000e-06	-2.136200e-06	-8.471433e-10	-1.481315e+01	-5.862550e+01
1.390000e-06	-2.092493e-06	-8.346976e-10	-1.451007e+01	-5.838149e+01
1.400000e-06	-2.048696e-06	-8.247755e-10	-1.420636e+01	-5.812913e+01
1.410000e-06	-2.004835e-06	-8.219191e-10	-1.390222e+01	-5.786820e+01
1.420000e-06	-1.960894e-06	-8.218572e-10	-1.359751e+01	-5.759849e+01
1.430000e-06	-1.916827e-06	-8.194539e-10	-1.329194e+01	-5.731980e+01
1.440000e-06	-1.872658e-06	-8.160964e-10	-1.298565e+01	-5.703193e+01
1.450000e-06	-1.828358e-06	-8.113128e-10	-1.267847e+01	-5.673466e+01
1.460000e-06	-1.783912e-06	-8.029236e-10	-1.237026e+01	-5.642779e+01
1.470000e-06	-1.739368e-06	-7.933732e-10	-1.206138e+01	-5.611107e+01
1.480000e-06	-1.694700e-06	-7.843917e-10	-1.175163e+01	-5.578427e+01
1.490000e-06	-1.649913e-06	-7.759935e-10	-1.144107e+01	-5.544712e+01
1.500000e-06	-1.605000e-06	-7.675256e-10	-1.112962e+01	-5.509934e+01
1.510000e-06	-1.559977e-06	-7.600951e-10	-1.081742e+01	-5.474062e+01
1.520000e-06	-1.514884e-06	-7.548829e-10	-1.050472e+01	-5.437061e+01
1.530000e-06	-1.469652e-06	-7.508101e-10	-1.019108e+01	-5.398895e+01
1.540000e-06	-1.424275e-06	-7.450009e-10	-9.876413e+00	-5.359523e+01
1.550000e-06	-1.378778e-06	-7.356785e-10	-9.560924e+00	-5.318899e+01
1.560000e-06	-1.333160e-06	-7.252062e-10	-9.244587e+00	-5.276975e+01
1.570000e-06	-1.287535e-06	-7.161513e-10	-8.928211e+00	-5.233698e+01
1.580000e-06	-1.241897e-06	-7.081170e-10	-8.611739e+00	-5.189010e+01
1.590000e-06	-1.196099e-06	-6.989351e-10	-8.294162e+00	-5.142850e+01
1.600000e-06	-1.150196e-06	-6.896334e-10	-7.975853e+00	-5.095152e+01
1.610000e-06	-1.104271e-06	-6.814384e-10	-7.657396e+00	-5.045843e+01
1.620000e-06	-1.058202e-06	-6.728832e-10	-7.337937e+00	-4.994849e+01
1.630000e-06	-1.012032e-06	-6.659003e-10	-7.017775e+00	-4.942090e+01
1.640000e-06	-9.658833e-07	-6.609329e-10	-6.697767e+00	-4.887483e+01
1.650000e-06	-9.197123e-07	-6.522735e-10	-6.377602e+00	-4.830941e+01
1.660000e-06	-8.734566e-07	-6.412564e-10	-6.056849e+00	-4.772371e+01
1.670000e-06	-8.271468e-07	-6.305775e-10	-5.735721e+00	-4.711682e+01
1.680000e-06	-7.807628e-07	-6.189439e-10	-5.414078e+00	-4.648776e+01
1.690000e-06	-7.341957e-07	-6.051737e-10	-5.091166e+00	-4.583555e+01
1.700000e-06	-6.875579e-07	-5.910696e-10	-4.767763e+00	-4.515919e+01
1.710000e-06	-6.409272e-07	-5.787190e-10	-4.444410e+00	-4.445768e+01
1.720000e-06	-5.942733e-07	-5.697330e-10	-4.120896e+00	-4.373001e+01
1.730000e-06	-5.475903e-07	-5.620969e-10	-3.797180e+00	-4.297518e+01
1.740000e-06	-5.008433e-07	-5.526641e-10	-3.473020e+00	-4.219221e+01
1.750000e-06	-4.540148e-07	-5.404639e-10	-3.148295e+00	-4.138013e+01
1.760000e-06	-4.071669e-07	-5.255644e-10	-2.823436e+00	-4.053801e+01
1.770000e-06	-3.602355e-07	-5.106251e-10	-2.497997e+00	-3.966495e+01
1.780000e-06	-3.132671e-07	-4.965796e-10	-2.172302e+00	-3.876010e+01
1.790000e-06	-2.663310e-07	-4.833855e-10	-1.846831e+00	-3.782268e+01
1.800000e-06	-2.193864e-07	-4.693970e-10	-1.521301e+00	-3.685196e+01
1.810000e-06	-1.724515e-07	-4.557281e-10	-1.195838e+00	-3.584727e+01
1.820000e-06	-1.255463e-07	-4.425441e-10	-8.705814e-01	-3.480805e+01
1.830000e-06	-7.866694e-08	-4.303777e-10	-5.455036e-01	-3.373381e+01
1.840000e-06	-3.175058e-08	-4.208913e-10	-2.201694e-01	-3.262415e+01
1.850000e-06	1.518639e-08	-4.094792e-10	1.053077e-01	-3.147879e+01
1.860000e-06	6.213757e-08	-3.935228e-10	4.308833e-01	-3.029754e+01
1.870000e-06	1.091347e-07	-3.741457e-10	7.567774e-01	-2.908036e+01
1.880000e-06	1.560762e-07	-3.544137e-10	1.082286e+00	-2.782728e+01
1.890000e-06	2.028898e-07	-3.360802e-10	1.406907e+00	-2.653850e+01
1.900000e-06	2.497102e-07	-3.183858e-10	1.731576e+00	-2.521431e+01
1.910000e-06	2.966072e-07	-2.996602e-10	2.056777e+00	-2.385517e+01
1.920000e-06	3.435606e-07	-2.810929e-10	2.382368e+00	-2.246165e+01
1.930000e-06	3.905063e-07	-2.624822e-10	2.707905e+00	-2.103445e+01
1.940000e-06	4.373267e-07	-2.434000e-10	3.032574e+00	-1.957441e+01
1.950000e-06	4.840198e-07	-2.217119e-10	3.356360e+00	-1.808253e+01
1.960000e-06	5.306758e-07	-1.978452e-10	3.679889e+00	-1.655989e+01
1.970000e-06	5.773501e-07	-1.755538e-10	4.003544e+00	-1.500775e+01
1.980000e-06	6.240412e-07	-1.558425e-10	4.327316e+00	-1.342746e+01
1.990000e-06	6.706187e-07	-1.377150e-10	4.650301e+00	-1.182052e+01
2.000000e-06	7.171246e-07	-1.166291e-10	4.972789e+00	-1.018854e+01
2.010000e-06	7.636647e-07	-9.071421e-11	5.295514e+00	-8.533210e+00
2.020000e-06	8.101216e-07	-6.361818e-11	5.617662e+00	-6.856367e+00
2.030000e-06	8.565165e-07	-3.902368e-11	5.939380e+00	-5.159921e+00
2.040000e-06	9.028923e-07	-1.833286e-11	6.260966e+00	-3.445871e+00
2.050000e-06	9.491267e-07	3.374920e-14	6.581571e+00	-1.716300e+00
2.060000e-06	9.952526e-07	2.062071e-11	6.901424e+00	2.664324e-02
2.070000e-06	1.041310e-06	4.473213e-11	7.220799e+00	1.780751e+00
2.080000e-06	1.087286e-06	7.082565e-11	7.539613e+00	3.543765e+00
2.090000e-06	1.133208e-06	9.853674e-11	7.858052e+00	5.313391e+00
2.100000e-06	1.179018e-06	1.275833e-10	8.175718e+00	7.087307e+00
2.110000e-06	1.224745e-06	1.538965e-10	8.492801e+00	8.863173e+00
2.120000e-06	1.270442e-06	1.773207e-10	8.809685e+00	1.063865e+01
2.130000e-06	1.316070e-06	1.997942e-10	9.126080e+00	1.241139e+01
2.140000e-06	1.361615e-06	2.199956e-10	9.441908e+00	1.417909e+01
2.150000e-06	1.407079e-06	2.374622e-10	9.757168e+00	1.593945e+01
2.160000e-06	1.452423e-06	2.569055e-10	1.007160e+01	1.769022e+01
2.170000e-06	1.497625e-06	2.815089e-10	1.038505e+01	1.942920e+01
2.180000e-06	1.542733e-06	3.092558e-10	1.069784e+01	2.115424e+01
2.190000e-06	1.587766e-06	3.372035e-10	1.101011e+01	2.286326e+01
2.200000e-06	1.632701e-06	3.643155e-10	1.132171e+01	2.455427e+01
2.210000e-06	1.677528e-06	3.889202e-10	1.163256e+01	2.622535e+01
2.220000e-06	1.722152e-06	4.099940e-10	1.194199e+01	2.787468e+01
2.230000e-06	1.766610e-06	4.279144e-10	1.225028e+01	2.950053e+01
2.240000e-06	1.810957e-06	4.442039e-10	1.255780e+01	3.110128e+01
2.250000e-06	1.855201e-06	4.637248e-10	1.286460e+01	3.267542e+01
2.260000e-06	1.899375e-06	4.878816e-10	1.317092e+01	3.422155e+01
2.270000e-06	1.943363e-06	5.124803e-10	1.347595e+01	3.573839e+01
2.280000e-06	1.987169e-06	5.351962e-10	1.377972e+01	3.722478e+01
2.290000e-06	2.030962e-06	5.559246e-10	1.408339e+01	3.867968e+01
2.300000e-06	2.074754e-06	5.744469e-10	1.438706e+01	4.010218e+01
2.310000e-06	2.118511e-06	5.918068e-10	1.469049e+01	4.149146e+01
2.320000e-06	2.162219e-06	6.092586e-10	1.499357e+01	4.284686e+01
2.330000e-06	2.205792e-06	6.271252e-10	1.529572e+01	4.416783e+01
2.340000e-06	2.249328e-06	6.457564e-10	1.559762e+01	4.545391e+01
2.350000e-06	2.292820e-06	6.649999e-10	1.589920e+01	4.670479e+01
2.360000e-06	2.336072e-06	6.838358e-10	1.619913e+01	4.792025e+01
2.370000e-06	2.379020e-06	7.006352e-10	1.649694e+01	4.910018e+01
2.380000e-06	2.421666e-06	7.144927e-10	1.679266e+01	5.024457e+01
2.390000e-06	2.464007e-06	7.264111e-10	1.708627e+01	5.135350e+01
2.400000e-06	2.506015e-06	7.398454e-10	1.737757e+01	5.242717e+01
2.410000e-06	2.547703e-06	7.560719e-10	1.766665e+01	5.346582e+01
2.420000e-06	2.589097e-06	7.726306e-10	1.795369e+01	5.446980e+01
2.430000e-06	2.630198e-06	7.866167e-10	1.823869e+01	5.543952e+01
2.440000e-06	2.671010e-06	7.975579e-10	1.852171e+01	5.637546e+01
2.450000e-06	2.711582e-06	8.069877e-10	1.880304e+01	5.727815e+01
2.460000e-06	2.751970e-06	8.156421e-10	1.908311e+01	5.814818e+01
2.470000e-06	2.792177e-06	8.243154e-10	1.936192e+01	5.898618e+01
2.480000e-06	2.832185e-06	8.331799e-10	1.963934e+01	5.979282e+01
2.490000e-06	2.872004e-06	8.430446e-10	1.991547e+01	6.056880e+01
2.500000e-06	2.911714e-06	8.543847e-10	2.019083e+01	6.131484e+01
2.510000e-06	2.951358e-06	8.642134e-10	2.046573e+01	6.203171e+01
2.520000e-06	2.990816e-06	8.736074e-10	2.073935e+01	6.272015e+01
2.530000e-06	3.030081e-06	8.807475e-10	2.101162e+01	6.338094e+01
2.540000e-06	3.069210e-06	8.852707e-10	2.128296e+01	6.401487e+01
2.550000e-06	3.108077e-06	8.909894e-10	2.155248e+01	6.462270e+01
2.560000e-06	3.146643e-06	8.966937e-10	2.181990e+01	6.520521e+01
2.570000e-06	3.184966e-06	9.037140e-10	2.208565e+01	6.576316e+01
2.580000e-06	3.223121e-06	9.131536e-10	2.235023e+01	6.629733e+01
2.590000e-06	3.261082e-06	9.232227e-10	2.261346e+01	6.680844e+01
2.600000e-06	3.298790e-06	9.315794e-10	2.287495e+01	6.729724e+01
2.610000e-06	3.336276e-06	9.383872e-10	2.313488e+01	6.776443e+01
2.620000e-06	3.373513e-06	9.441530e-10	2.339310e+01	6.821072e+01
2.630000e-06	3.410501e-06	9.495868e-10	2.364958e+01	6.863678e+01
2.640000e-06	3.447275e-06	9.549870e-10	2.390459e+01	6.904327e+01
2.650000e-06	3.483787e-06	9.616790e-10	2.415778e+01	6.943084e+01
2.660000e-06	3.520016e-06	9.686113e-10	2.440900e+01	6.980011e+01
2.670000e-06	3.556057e-06	9.754661e-10	2.465892e+01	7.015170e+01
2.680000e-06	3.591916e-06	9.820867e-10	2.490758e+01	7.048617e+01
2.690000e-06	3.627634e-06	9.875234e-10	2.515526e+01	7.080413e+01
2.700000e-06	3.663299e-06	9.935232e-10	2.540257e+01	7.110611e+01
2.710000e-06	3.698859e-06	1.000127e-09	2.564916e+01	7.139267e+01
2.720000e-06	3.734218e-06	1.005022e-09	2.589435e+01	7.166435e+01
2.730000e-06	3.769253e-06	1.009551e-09	2.613730e+01	7.192166e+01
2.740000e-06	3.803867e-06	1.014485e-09	2.637732e+01	7.216512e+01
2.750000e-06	3.838034e-06	1.020122e-09	2.661425e+01	7.239524e+01
2.760000e-06	3.871681e-06	1.022441e-09	2.684757e+01	7.261252e+01
2.770000e-06	3.904777e-06	1.022634e-09	2.707707e+01	7.281746e+01
2.780000e-06	3.937513e-06	1.025228e-09	2.730407e+01	7.301055e+01
2.790000e-06	3.970053e-06	1.029893e-09	2.752972e+01	7.319228e+01
2.800000e-06	4.002302e-06	1.035717e-09	2.775334e+01	7.336313e+01
2.810000e-06	4.034252e-06	1.041143e-09	2.797489e+01	7.352359e+01
2.820000e-06	4.066019e-06	1.046151e-09	2.819518e+01	7.367415e+01
2.830000e-06	4.097636e-06	1.049304e-09	2.841442e+01	7.381529e+01
2.840000e-06	4.129122e-06	1.049687e-09	2.863275e+01	7.394749e+01
2.850000e-06	4.160382e-06	1.048655e-09	2.884952e+01	7.407123e+01
2.860000e-06	4.191323e-06	1.047584e-09	2.906408e+01	7.418699e+01
2.870000e-06	4.221877e-06	1.046114e-09	2.927595e+01	7.429524e+01
2.880000e-06	4.252090e-06	1.046886e-09	2.948546e+01	7.439645e+01
2.890000e-06	4.281990e-06	1.050280e-09	2.969279e+01	7.449108e+01
2.900000e-06	4.311587e-06	1.054722e-09	2.989803e+01	7.457960e+01
