# Temperatura_=_-7.31
# Concentracion g/m^3_=_1620.0
# C_Vs_to_Am_M_A/Vsm_=_65563218390.804596
# pendiente_HvsI_1/m_=_3716.3
# ordenada_HvsI_A/m_=_1297.0
# frecuencia_Hz_=_135099.64339561094

Tiempo_(s)	Campo_(V.s)	Magnetizacion_(V.s)	Campo_(kA/m)	Magnetizacion_(A/m)
0.000000e+00	-5.533080e-06	-1.251700e-09	-3.837958e+01	-8.134204e+01
1.000000e-08	-5.533348e-06	-1.246855e-09	-3.838144e+01	-8.129672e+01
2.000000e-08	-5.533303e-06	-1.242630e-09	-3.838113e+01	-8.125460e+01
3.000000e-08	-5.532956e-06	-1.240616e-09	-3.837873e+01	-8.121556e+01
4.000000e-08	-5.532258e-06	-1.237869e-09	-3.837388e+01	-8.117944e+01
5.000000e-08	-5.531002e-06	-1.235540e-09	-3.836517e+01	-8.114604e+01
6.000000e-08	-5.529025e-06	-1.229064e-09	-3.835145e+01	-8.111514e+01
7.000000e-08	-5.526479e-06	-1.229621e-09	-3.833380e+01	-8.108649e+01
8.000000e-08	-5.523519e-06	-1.247596e-09	-3.831327e+01	-8.105980e+01
9.000000e-08	-5.520015e-06	-1.262657e-09	-3.828896e+01	-8.103477e+01
1.000000e-07	-5.516018e-06	-1.241442e-09	-3.826124e+01	-8.101108e+01
1.100000e-07	-5.511706e-06	-1.202226e-09	-3.823133e+01	-8.098837e+01
1.200000e-07	-5.507159e-06	-1.197369e-09	-3.819979e+01	-8.096629e+01
1.300000e-07	-5.502397e-06	-1.208986e-09	-3.816676e+01	-8.094448e+01
1.400000e-07	-5.497280e-06	-1.227220e-09	-3.813126e+01	-8.092256e+01
1.500000e-07	-5.491774e-06	-1.220928e-09	-3.809307e+01	-8.090015e+01
1.600000e-07	-5.485938e-06	-1.228975e-09	-3.805259e+01	-8.087689e+01
1.700000e-07	-5.479695e-06	-1.238011e-09	-3.800929e+01	-8.085239e+01
1.800000e-07	-5.472969e-06	-1.232132e-09	-3.796263e+01	-8.082631e+01
1.900000e-07	-5.465840e-06	-1.217884e-09	-3.791318e+01	-8.079830e+01
2.000000e-07	-5.458523e-06	-1.184020e-09	-3.786243e+01	-8.076802e+01
2.100000e-07	-5.450967e-06	-1.203293e-09	-3.781002e+01	-8.073516e+01
2.200000e-07	-5.443049e-06	-1.232890e-09	-3.775510e+01	-8.069944e+01
2.300000e-07	-5.434957e-06	-1.260035e-09	-3.769896e+01	-8.066058e+01
2.400000e-07	-5.426396e-06	-1.226194e-09	-3.763958e+01	-8.061835e+01
2.500000e-07	-5.417080e-06	-1.203728e-09	-3.757497e+01	-8.057253e+01
2.600000e-07	-5.407057e-06	-1.204553e-09	-3.750544e+01	-8.052295e+01
2.700000e-07	-5.396438e-06	-1.212269e-09	-3.743178e+01	-8.046946e+01
2.800000e-07	-5.385362e-06	-1.202211e-09	-3.735495e+01	-8.041193e+01
2.900000e-07	-5.373959e-06	-1.209801e-09	-3.727586e+01	-8.035029e+01
3.000000e-07	-5.362227e-06	-1.223053e-09	-3.719448e+01	-8.028449e+01
3.100000e-07	-5.350025e-06	-1.217060e-09	-3.710985e+01	-8.021449e+01
3.200000e-07	-5.337380e-06	-1.201952e-09	-3.702214e+01	-8.014033e+01
3.300000e-07	-5.324342e-06	-1.205008e-09	-3.693170e+01	-8.006203e+01
3.400000e-07	-5.310979e-06	-1.214501e-09	-3.683900e+01	-7.997966e+01
3.500000e-07	-5.297134e-06	-1.205375e-09	-3.674297e+01	-7.989334e+01
3.600000e-07	-5.282714e-06	-1.209361e-09	-3.664295e+01	-7.980318e+01
3.700000e-07	-5.267907e-06	-1.218958e-09	-3.654024e+01	-7.970934e+01
3.800000e-07	-5.252691e-06	-1.213807e-09	-3.643470e+01	-7.961197e+01
3.900000e-07	-5.236938e-06	-1.198208e-09	-3.632543e+01	-7.951127e+01
4.000000e-07	-5.220664e-06	-1.202549e-09	-3.621255e+01	-7.940744e+01
4.100000e-07	-5.204015e-06	-1.194475e-09	-3.609706e+01	-7.930069e+01
4.200000e-07	-5.187117e-06	-1.187550e-09	-3.597985e+01	-7.919125e+01
4.300000e-07	-5.169827e-06	-1.197592e-09	-3.585992e+01	-7.907935e+01
4.400000e-07	-5.152140e-06	-1.212119e-09	-3.573724e+01	-7.896522e+01
4.500000e-07	-5.134113e-06	-1.192297e-09	-3.561220e+01	-7.884909e+01
4.600000e-07	-5.115613e-06	-1.189584e-09	-3.548387e+01	-7.873119e+01
4.700000e-07	-5.096733e-06	-1.196697e-09	-3.535292e+01	-7.861174e+01
4.800000e-07	-5.077633e-06	-1.188527e-09	-3.522043e+01	-7.849097e+01
4.900000e-07	-5.058295e-06	-1.173922e-09	-3.508629e+01	-7.836907e+01
5.000000e-07	-5.038717e-06	-1.191578e-09	-3.495049e+01	-7.824624e+01
5.100000e-07	-5.018853e-06	-1.188798e-09	-3.481270e+01	-7.812264e+01
5.200000e-07	-4.998654e-06	-1.173933e-09	-3.467260e+01	-7.799844e+01
5.300000e-07	-4.978155e-06	-1.180493e-09	-3.453041e+01	-7.787377e+01
5.400000e-07	-4.957367e-06	-1.191627e-09	-3.438622e+01	-7.774875e+01
5.500000e-07	-4.936191e-06	-1.167537e-09	-3.423933e+01	-7.762347e+01
5.600000e-07	-4.914605e-06	-1.163032e-09	-3.408960e+01	-7.749800e+01
5.700000e-07	-4.892614e-06	-1.178096e-09	-3.393707e+01	-7.737241e+01
5.800000e-07	-4.870262e-06	-1.172534e-09	-3.378202e+01	-7.724670e+01
5.900000e-07	-4.847561e-06	-1.160667e-09	-3.362456e+01	-7.712089e+01
6.000000e-07	-4.824486e-06	-1.169595e-09	-3.346450e+01	-7.699495e+01
6.100000e-07	-4.801157e-06	-1.164597e-09	-3.330268e+01	-7.686886e+01
6.200000e-07	-4.777649e-06	-1.148633e-09	-3.313962e+01	-7.674255e+01
6.300000e-07	-4.753949e-06	-1.153195e-09	-3.297523e+01	-7.661594e+01
6.400000e-07	-4.729989e-06	-1.161113e-09	-3.280904e+01	-7.648894e+01
6.500000e-07	-4.705632e-06	-1.153801e-09	-3.264008e+01	-7.636144e+01
6.600000e-07	-4.680780e-06	-1.152369e-09	-3.246770e+01	-7.623331e+01
6.700000e-07	-4.655422e-06	-1.161276e-09	-3.229181e+01	-7.610444e+01
6.800000e-07	-4.629484e-06	-1.152771e-09	-3.211190e+01	-7.597466e+01
6.900000e-07	-4.603014e-06	-1.141709e-09	-3.192828e+01	-7.584383e+01
7.000000e-07	-4.576143e-06	-1.141572e-09	-3.174190e+01	-7.571180e+01
7.100000e-07	-4.548911e-06	-1.142113e-09	-3.155301e+01	-7.557841e+01
7.200000e-07	-4.521434e-06	-1.135737e-09	-3.136241e+01	-7.544352e+01
7.300000e-07	-4.493791e-06	-1.143148e-09	-3.117068e+01	-7.530696e+01
7.400000e-07	-4.465897e-06	-1.146654e-09	-3.097719e+01	-7.516859e+01
7.500000e-07	-4.437796e-06	-1.140353e-09	-3.078227e+01	-7.502828e+01
7.600000e-07	-4.409506e-06	-1.131931e-09	-3.058604e+01	-7.488590e+01
7.700000e-07	-4.380874e-06	-1.132247e-09	-3.038744e+01	-7.474132e+01
7.800000e-07	-4.351878e-06	-1.126439e-09	-3.018631e+01	-7.459444e+01
7.900000e-07	-4.322556e-06	-1.123427e-09	-2.998292e+01	-7.444518e+01
8.000000e-07	-4.292994e-06	-1.122822e-09	-2.977787e+01	-7.429346e+01
8.100000e-07	-4.263137e-06	-1.118222e-09	-2.957077e+01	-7.413921e+01
8.200000e-07	-4.232984e-06	-1.107535e-09	-2.936161e+01	-7.398240e+01
8.300000e-07	-4.202571e-06	-1.105069e-09	-2.915066e+01	-7.382300e+01
8.400000e-07	-4.171826e-06	-1.102081e-09	-2.893740e+01	-7.366099e+01
8.500000e-07	-4.140709e-06	-1.098105e-09	-2.872156e+01	-7.349640e+01
8.600000e-07	-4.109361e-06	-1.098185e-09	-2.850412e+01	-7.332924e+01
8.700000e-07	-4.077923e-06	-1.099193e-09	-2.828605e+01	-7.315956e+01
8.800000e-07	-4.046320e-06	-1.091062e-09	-2.806684e+01	-7.298740e+01
8.900000e-07	-4.014528e-06	-1.083275e-09	-2.784632e+01	-7.281284e+01
9.000000e-07	-3.982569e-06	-1.078631e-09	-2.762464e+01	-7.263596e+01
9.100000e-07	-3.950327e-06	-1.073056e-09	-2.740100e+01	-7.245684e+01
9.200000e-07	-3.917577e-06	-1.071451e-09	-2.717383e+01	-7.227559e+01
9.300000e-07	-3.884403e-06	-1.075603e-09	-2.694373e+01	-7.209230e+01
9.400000e-07	-3.850827e-06	-1.075781e-09	-2.671083e+01	-7.190709e+01
9.500000e-07	-3.816754e-06	-1.070337e-09	-2.647449e+01	-7.172006e+01
9.600000e-07	-3.782309e-06	-1.067372e-09	-2.623556e+01	-7.153133e+01
9.700000e-07	-3.747439e-06	-1.062425e-09	-2.599369e+01	-7.134100e+01
9.800000e-07	-3.712168e-06	-1.053999e-09	-2.574903e+01	-7.114916e+01
9.900000e-07	-3.676681e-06	-1.047280e-09	-2.550289e+01	-7.095592e+01
1.000000e-06	-3.641095e-06	-1.043550e-09	-2.525605e+01	-7.076136e+01
1.010000e-06	-3.605395e-06	-1.037371e-09	-2.500841e+01	-7.056554e+01
1.020000e-06	-3.569531e-06	-1.034857e-09	-2.475965e+01	-7.036854e+01
1.030000e-06	-3.533587e-06	-1.035041e-09	-2.451033e+01	-7.017038e+01
1.040000e-06	-3.497447e-06	-1.035006e-09	-2.425965e+01	-6.997109e+01
1.050000e-06	-3.460948e-06	-1.029291e-09	-2.400648e+01	-6.977069e+01
1.060000e-06	-3.424178e-06	-1.025006e-09	-2.375143e+01	-6.956916e+01
1.070000e-06	-3.387153e-06	-1.021188e-09	-2.349461e+01	-6.936646e+01
1.080000e-06	-3.349859e-06	-1.016089e-09	-2.323592e+01	-6.916255e+01
1.090000e-06	-3.312316e-06	-1.010479e-09	-2.297551e+01	-6.895733e+01
1.100000e-06	-3.274510e-06	-1.007620e-09	-2.271327e+01	-6.875073e+01
1.110000e-06	-3.236558e-06	-1.001823e-09	-2.245002e+01	-6.854261e+01
1.120000e-06	-3.198411e-06	-9.963203e-10	-2.218542e+01	-6.833284e+01
1.130000e-06	-3.159956e-06	-9.912191e-10	-2.191868e+01	-6.812125e+01
1.140000e-06	-3.121239e-06	-9.862291e-10	-2.165012e+01	-6.790767e+01
1.150000e-06	-3.082299e-06	-9.798487e-10	-2.138002e+01	-6.769189e+01
1.160000e-06	-3.043178e-06	-9.756349e-10	-2.110866e+01	-6.747369e+01
1.170000e-06	-3.003905e-06	-9.707078e-10	-2.083625e+01	-6.725285e+01
1.180000e-06	-2.964459e-06	-9.640989e-10	-2.056263e+01	-6.702911e+01
1.190000e-06	-2.924854e-06	-9.614909e-10	-2.028792e+01	-6.680222e+01
1.200000e-06	-2.885151e-06	-9.595429e-10	-2.001253e+01	-6.657191e+01
1.210000e-06	-2.845313e-06	-9.539672e-10	-1.973619e+01	-6.633790e+01
1.220000e-06	-2.805371e-06	-9.467763e-10	-1.945914e+01	-6.609991e+01
1.230000e-06	-2.765276e-06	-9.445264e-10	-1.918102e+01	-6.585764e+01
1.240000e-06	-2.724953e-06	-9.439710e-10	-1.890133e+01	-6.561082e+01
1.250000e-06	-2.684390e-06	-9.417756e-10	-1.861997e+01	-6.535915e+01
1.260000e-06	-2.643539e-06	-9.407685e-10	-1.833661e+01	-6.510234e+01
1.270000e-06	-2.602470e-06	-9.384247e-10	-1.805174e+01	-6.484012e+01
1.280000e-06	-2.561124e-06	-9.307037e-10	-1.776494e+01	-6.457219e+01
1.290000e-06	-2.519442e-06	-9.210320e-10	-1.747582e+01	-6.429829e+01
1.300000e-06	-2.477515e-06	-9.131305e-10	-1.718501e+01	-6.401816e+01
1.310000e-06	-2.435364e-06	-9.092525e-10	-1.689263e+01	-6.373153e+01
1.320000e-06	-2.392779e-06	-9.057303e-10	-1.659724e+01	-6.343817e+01
1.330000e-06	-2.349803e-06	-9.030531e-10	-1.629914e+01	-6.313782e+01
1.340000e-06	-2.306728e-06	-8.978209e-10	-1.600035e+01	-6.283027e+01
1.350000e-06	-2.263551e-06	-8.914412e-10	-1.570087e+01	-6.251530e+01
1.360000e-06	-2.220182e-06	-8.892708e-10	-1.540004e+01	-6.219268e+01
1.370000e-06	-2.176647e-06	-8.847725e-10	-1.509806e+01	-6.186223e+01
1.380000e-06	-2.133019e-06	-8.777794e-10	-1.479545e+01	-6.152373e+01
1.390000e-06	-2.089326e-06	-8.712390e-10	-1.449238e+01	-6.117700e+01
1.400000e-06	-2.045553e-06	-8.656457e-10	-1.418874e+01	-6.082184e+01
1.410000e-06	-2.001662e-06	-8.602747e-10	-1.388431e+01	-6.045806e+01
1.420000e-06	-1.957684e-06	-8.526728e-10	-1.357925e+01	-6.008548e+01
1.430000e-06	-1.913678e-06	-8.456268e-10	-1.327401e+01	-5.970388e+01
1.440000e-06	-1.869589e-06	-8.368972e-10	-1.296819e+01	-5.931307e+01
1.450000e-06	-1.825405e-06	-8.264583e-10	-1.266172e+01	-5.891283e+01
1.460000e-06	-1.781125e-06	-8.169858e-10	-1.235457e+01	-5.850292e+01
1.470000e-06	-1.736632e-06	-8.106336e-10	-1.204595e+01	-5.808310e+01
1.480000e-06	-1.692038e-06	-8.050290e-10	-1.173663e+01	-5.765310e+01
1.490000e-06	-1.647376e-06	-7.963546e-10	-1.142684e+01	-5.721263e+01
1.500000e-06	-1.602466e-06	-7.849857e-10	-1.111532e+01	-5.676136e+01
1.510000e-06	-1.557370e-06	-7.723631e-10	-1.080252e+01	-5.629895e+01
1.520000e-06	-1.512233e-06	-7.616068e-10	-1.048944e+01	-5.582502e+01
1.530000e-06	-1.466958e-06	-7.547309e-10	-1.017539e+01	-5.533915e+01
1.540000e-06	-1.421541e-06	-7.503264e-10	-9.860360e+00	-5.484088e+01
1.550000e-06	-1.376087e-06	-7.462040e-10	-9.545069e+00	-5.432973e+01
1.560000e-06	-1.330552e-06	-7.393792e-10	-9.229225e+00	-5.380514e+01
1.570000e-06	-1.284926e-06	-7.322932e-10	-8.912742e+00	-5.326656e+01
1.580000e-06	-1.239236e-06	-7.223284e-10	-8.595823e+00	-5.271336e+01
1.590000e-06	-1.193485e-06	-7.105761e-10	-8.278477e+00	-5.214487e+01
1.600000e-06	-1.147669e-06	-6.983114e-10	-7.960678e+00	-5.156039e+01
1.610000e-06	-1.101773e-06	-6.888688e-10	-7.642324e+00	-5.095917e+01
1.620000e-06	-1.055738e-06	-6.815537e-10	-7.323008e+00	-5.034041e+01
1.630000e-06	-1.009633e-06	-6.752817e-10	-7.003204e+00	-4.970330e+01
1.640000e-06	-9.635234e-07	-6.696515e-10	-6.683371e+00	-4.904697e+01
1.650000e-06	-9.172932e-07	-6.612062e-10	-6.362701e+00	-4.837052e+01
1.660000e-06	-8.708212e-07	-6.488321e-10	-6.040353e+00	-4.767302e+01
1.670000e-06	-8.242571e-07	-6.330637e-10	-5.717367e+00	-4.695354e+01
1.680000e-06	-7.777493e-07	-6.179560e-10	-5.394770e+00	-4.621108e+01
1.690000e-06	-7.312769e-07	-6.038176e-10	-5.072420e+00	-4.544469e+01
1.700000e-06	-6.847514e-07	-5.885351e-10	-4.749701e+00	-4.465335e+01
1.710000e-06	-6.381476e-07	-5.732347e-10	-4.426439e+00	-4.383609e+01
1.720000e-06	-5.914923e-07	-5.622973e-10	-4.102819e+00	-4.299192e+01
1.730000e-06	-5.448318e-07	-5.531297e-10	-3.779164e+00	-4.211986e+01
1.740000e-06	-4.981018e-07	-5.415592e-10	-3.455027e+00	-4.121896e+01
1.750000e-06	-4.511896e-07	-5.270474e-10	-3.129626e+00	-4.028830e+01
1.760000e-06	-4.043074e-07	-5.097095e-10	-2.804433e+00	-3.932700e+01
1.770000e-06	-3.574996e-07	-4.912898e-10	-2.479756e+00	-3.833422e+01
1.780000e-06	-3.106984e-07	-4.757429e-10	-2.155124e+00	-3.730917e+01
1.790000e-06	-2.638896e-07	-4.607951e-10	-1.830441e+00	-3.625112e+01
1.800000e-06	-2.169516e-07	-4.466660e-10	-1.504860e+00	-3.515944e+01
1.810000e-06	-1.700443e-07	-4.348721e-10	-1.179493e+00	-3.403353e+01
1.820000e-06	-1.232049e-07	-4.228778e-10	-8.545972e-01	-3.287293e+01
1.830000e-06	-7.628613e-08	-4.059505e-10	-5.291501e-01	-3.167722e+01
1.840000e-06	-2.942199e-08	-3.876689e-10	-2.040823e-01	-3.044613e+01
1.850000e-06	1.755305e-08	-3.706600e-10	1.217548e-01	-2.917947e+01
1.860000e-06	6.459439e-08	-3.537602e-10	4.480517e-01	-2.787718e+01
1.870000e-06	1.115554e-07	-3.356934e-10	7.737912e-01	-2.653929e+01
1.880000e-06	1.584318e-07	-3.177030e-10	1.098944e+00	-2.516600e+01
1.890000e-06	2.052396e-07	-2.991381e-10	1.423621e+00	-2.375760e+01
1.900000e-06	2.520540e-07	-2.783502e-10	1.748344e+00	-2.231452e+01
1.910000e-06	2.987907e-07	-2.542366e-10	2.072528e+00	-2.083735e+01
1.920000e-06	3.455878e-07	-2.298698e-10	2.397131e+00	-1.932679e+01
1.930000e-06	3.925156e-07	-2.083986e-10	2.722640e+00	-1.778368e+01
1.940000e-06	4.394057e-07	-1.899864e-10	3.047888e+00	-1.620899e+01
1.950000e-06	4.861872e-07	-1.710472e-10	3.372383e+00	-1.460386e+01
1.960000e-06	5.329074e-07	-1.481906e-10	3.696452e+00	-1.296952e+01
1.970000e-06	5.795457e-07	-1.240356e-10	4.019953e+00	-1.130736e+01
1.980000e-06	6.261061e-07	-1.020970e-10	4.342914e+00	-9.618871e+00
1.990000e-06	6.726721e-07	-8.026508e-11	4.665914e+00	-7.905690e+00
2.000000e-06	7.191966e-07	-5.470346e-11	4.988626e+00	-6.169556e+00
2.010000e-06	7.656355e-07	-2.805109e-11	5.310744e+00	-4.412319e+00
2.020000e-06	8.120294e-07	-1.608523e-12	5.632550e+00	-2.635928e+00
2.030000e-06	8.583966e-07	2.407033e-11	5.954171e+00	-8.424291e-01
2.040000e-06	9.046867e-07	4.885688e-11	6.275257e+00	9.660513e-01
2.050000e-06	9.509394e-07	7.365355e-11	6.596084e+00	2.787311e+00
2.060000e-06	9.970862e-07	9.848975e-11	6.916176e+00	4.619084e+00
2.070000e-06	1.043049e-06	1.240975e-10	7.234990e+00	6.459051e+00
2.080000e-06	1.088921e-06	1.515539e-10	7.553180e+00	8.304850e+00
2.090000e-06	1.134773e-06	1.780206e-10	7.871222e+00	1.015409e+01
2.100000e-06	1.180656e-06	2.048930e-10	8.189484e+00	1.200435e+01
2.110000e-06	1.226421e-06	2.336911e-10	8.506933e+00	1.385323e+01
2.120000e-06	1.272075e-06	2.622616e-10	8.823601e+00	1.569830e+01
2.130000e-06	1.317656e-06	2.879510e-10	9.139774e+00	1.753716e+01
2.140000e-06	1.363153e-06	3.100560e-10	9.455360e+00	1.936744e+01
2.150000e-06	1.408579e-06	3.304264e-10	9.770448e+00	2.118681e+01
2.160000e-06	1.453901e-06	3.531810e-10	1.008482e+01	2.299300e+01
2.170000e-06	1.499136e-06	3.784194e-10	1.039859e+01	2.478377e+01
2.180000e-06	1.544294e-06	4.048122e-10	1.071182e+01	2.655697e+01
2.190000e-06	1.589378e-06	4.312730e-10	1.102454e+01	2.831055e+01
2.200000e-06	1.634329e-06	4.560520e-10	1.133634e+01	3.004252e+01
2.210000e-06	1.679168e-06	4.798944e-10	1.164736e+01	3.175099e+01
2.220000e-06	1.723882e-06	5.033323e-10	1.195751e+01	3.343420e+01
2.230000e-06	1.768336e-06	5.260033e-10	1.226586e+01	3.509049e+01
2.240000e-06	1.812637e-06	5.467223e-10	1.257315e+01	3.671830e+01
2.250000e-06	1.856898e-06	5.669107e-10	1.288017e+01	3.831622e+01
2.260000e-06	1.901033e-06	5.866301e-10	1.318630e+01	3.988296e+01
2.270000e-06	1.945026e-06	6.068841e-10	1.349145e+01	4.141736e+01
2.280000e-06	1.988920e-06	6.280690e-10	1.379592e+01	4.291838e+01
2.290000e-06	2.032751e-06	6.480279e-10	1.409995e+01	4.438513e+01
2.300000e-06	2.076495e-06	6.672801e-10	1.440338e+01	4.581686e+01
2.310000e-06	2.120162e-06	6.867919e-10	1.470627e+01	4.721294e+01
2.320000e-06	2.163807e-06	7.057063e-10	1.500900e+01	4.857287e+01
2.330000e-06	2.207374e-06	7.219142e-10	1.531120e+01	4.989630e+01
2.340000e-06	2.250840e-06	7.362819e-10	1.561269e+01	5.118300e+01
2.350000e-06	2.294162e-06	7.522025e-10	1.591320e+01	5.243283e+01
2.360000e-06	2.337263e-06	7.690789e-10	1.621216e+01	5.364583e+01
2.370000e-06	2.380100e-06	7.864453e-10	1.650930e+01	5.482209e+01
2.380000e-06	2.422713e-06	8.026825e-10	1.680488e+01	5.596186e+01
2.390000e-06	2.465018e-06	8.163189e-10	1.709832e+01	5.706546e+01
2.400000e-06	2.506997e-06	8.295131e-10	1.738950e+01	5.813330e+01
2.410000e-06	2.548752e-06	8.424774e-10	1.767913e+01	5.916590e+01
2.420000e-06	2.590136e-06	8.535938e-10	1.796619e+01	6.016383e+01
2.430000e-06	2.631190e-06	8.630906e-10	1.825095e+01	6.112776e+01
2.440000e-06	2.672044e-06	8.740756e-10	1.853433e+01	6.205839e+01
2.450000e-06	2.712594e-06	8.861198e-10	1.881560e+01	6.295650e+01
2.460000e-06	2.752891e-06	8.977696e-10	1.909512e+01	6.382291e+01
2.470000e-06	2.793047e-06	9.098484e-10	1.937366e+01	6.465846e+01
2.480000e-06	2.833053e-06	9.206082e-10	1.965116e+01	6.546404e+01
2.490000e-06	2.872917e-06	9.285174e-10	1.992766e+01	6.624056e+01
2.500000e-06	2.912639e-06	9.358023e-10	2.020319e+01	6.698892e+01
2.510000e-06	2.952221e-06	9.454138e-10	2.047775e+01	6.771005e+01
2.520000e-06	2.991628e-06	9.585534e-10	2.075109e+01	6.840488e+01
2.530000e-06	3.030834e-06	9.720677e-10	2.102304e+01	6.907433e+01
2.540000e-06	3.069874e-06	9.835460e-10	2.129383e+01	6.971930e+01
2.550000e-06	3.108709e-06	9.931186e-10	2.156321e+01	7.034068e+01
2.560000e-06	3.147364e-06	9.991828e-10	2.183134e+01	7.093933e+01
2.570000e-06	3.185760e-06	1.004328e-09	2.209767e+01	7.151610e+01
2.580000e-06	3.223868e-06	1.011331e-09	2.236200e+01	7.207179e+01
2.590000e-06	3.261800e-06	1.020100e-09	2.262511e+01	7.260718e+01
2.600000e-06	3.299472e-06	1.030599e-09	2.288642e+01	7.312301e+01
2.610000e-06	3.337010e-06	1.041361e-09	2.314679e+01	7.361998e+01
2.620000e-06	3.374384e-06	1.051575e-09	2.340603e+01	7.409877e+01
2.630000e-06	3.411379e-06	1.059585e-09	2.366265e+01	7.455999e+01
2.640000e-06	3.448065e-06	1.065857e-09	2.391711e+01	7.500424e+01
2.650000e-06	3.484543e-06	1.071464e-09	2.417014e+01	7.543206e+01
2.660000e-06	3.520781e-06	1.074947e-09	2.442150e+01	7.584397e+01
2.670000e-06	3.556818e-06	1.079029e-09	2.467147e+01	7.624045e+01
2.680000e-06	3.592692e-06	1.086353e-09	2.492030e+01	7.662194e+01
2.690000e-06	3.628420e-06	1.094950e-09	2.516813e+01	7.698886e+01
2.700000e-06	3.664014e-06	1.103067e-09	2.541502e+01	7.734158e+01
2.710000e-06	3.699501e-06	1.109638e-09	2.566117e+01	7.768046e+01
2.720000e-06	3.734810e-06	1.115492e-09	2.590609e+01	7.800584e+01
2.730000e-06	3.769802e-06	1.120543e-09	2.614880e+01	7.831803e+01
2.740000e-06	3.804411e-06	1.123032e-09	2.638887e+01	7.861734e+01
2.750000e-06	3.838587e-06	1.125043e-09	2.662593e+01	7.890403e+01
2.760000e-06	3.872313e-06	1.126730e-09	2.685986e+01	7.917839e+01
2.770000e-06	3.905592e-06	1.129879e-09	2.709070e+01	7.944069e+01
2.780000e-06	3.938482e-06	1.135309e-09	2.731883e+01	7.969119e+01
2.790000e-06	3.970985e-06	1.142321e-09	2.754429e+01	7.993014e+01
2.800000e-06	4.003125e-06	1.148498e-09	2.776723e+01	8.015782e+01
2.810000e-06	4.034981e-06	1.151010e-09	2.798819e+01	8.037449e+01
2.820000e-06	4.066661e-06	1.151723e-09	2.820794e+01	8.058042e+01
2.830000e-06	4.098248e-06	1.153938e-09	2.842703e+01	8.077591e+01
2.840000e-06	4.129701e-06	1.157248e-09	2.864521e+01	8.096123e+01
2.850000e-06	4.160856e-06	1.158183e-09	2.886131e+01	8.113670e+01
2.860000e-06	4.191656e-06	1.156416e-09	2.907495e+01	8.130263e+01
2.870000e-06	4.222134e-06	1.155658e-09	2.928635e+01	8.145935e+01
2.880000e-06	4.252305e-06	1.158377e-09	2.949563e+01	8.160719e+01
2.890000e-06	4.282200e-06	1.161427e-09	2.970300e+01	8.174652e+01
2.900000e-06	4.311826e-06	1.164071e-09	2.990849e+01	8.187768e+01
