# Temperatura_=_0.58
# Concentracion g/m^3_=_1620.0
# C_Vs_to_Am_M_A/Vsm_=_65563218390.804596
# pendiente_HvsI_1/m_=_3716.3
# ordenada_HvsI_A/m_=_1297.0
# frecuencia_Hz_=_135101.1453991234

Tiempo_(s)	Campo_(V.s)	Magnetizacion_(V.s)	Campo_(kA/m)	Magnetizacion_(A/m)
0.000000e+00	-5.520723e-06	-1.337921e-09	-3.836709e+01	-8.753474e+01
1.000000e-08	-5.520952e-06	-1.333945e-09	-3.836868e+01	-8.753421e+01
2.000000e-08	-5.520950e-06	-1.331148e-09	-3.836867e+01	-8.753594e+01
3.000000e-08	-5.520649e-06	-1.330938e-09	-3.836657e+01	-8.753960e+01
4.000000e-08	-5.520063e-06	-1.332607e-09	-3.836250e+01	-8.754485e+01
5.000000e-08	-5.519004e-06	-1.332662e-09	-3.835514e+01	-8.755129e+01
6.000000e-08	-5.517281e-06	-1.322248e-09	-3.834317e+01	-8.755849e+01
7.000000e-08	-5.514983e-06	-1.296942e-09	-3.832720e+01	-8.756602e+01
8.000000e-08	-5.512125e-06	-1.287875e-09	-3.830733e+01	-8.757340e+01
9.000000e-08	-5.508739e-06	-1.371462e-09	-3.828380e+01	-8.758015e+01
1.000000e-07	-5.504824e-06	-1.462751e-09	-3.825659e+01	-8.758576e+01
1.100000e-07	-5.500466e-06	-1.367499e-09	-3.822631e+01	-8.758974e+01
1.200000e-07	-5.495984e-06	-1.213108e-09	-3.819516e+01	-8.759157e+01
1.300000e-07	-5.491423e-06	-1.215742e-09	-3.816346e+01	-8.759075e+01
1.400000e-07	-5.486500e-06	-1.367138e-09	-3.812925e+01	-8.758677e+01
1.500000e-07	-5.481074e-06	-1.379983e-09	-3.809154e+01	-8.757917e+01
1.600000e-07	-5.475263e-06	-1.236307e-09	-3.805116e+01	-8.756746e+01
1.700000e-07	-5.469126e-06	-1.252294e-09	-3.800851e+01	-8.755121e+01
1.800000e-07	-5.462490e-06	-1.379527e-09	-3.796239e+01	-8.753001e+01
1.900000e-07	-5.455423e-06	-1.425150e-09	-3.791328e+01	-8.750347e+01
2.000000e-07	-5.448091e-06	-1.262938e-09	-3.786232e+01	-8.747124e+01
2.100000e-07	-5.440485e-06	-1.218625e-09	-3.780946e+01	-8.743302e+01
2.200000e-07	-5.432606e-06	-1.312713e-09	-3.775470e+01	-8.738855e+01
2.300000e-07	-5.424462e-06	-1.407219e-09	-3.769811e+01	-8.733761e+01
2.400000e-07	-5.416088e-06	-1.337096e-09	-3.763991e+01	-8.728004e+01
2.500000e-07	-5.407291e-06	-1.286928e-09	-3.757877e+01	-8.721572e+01
2.600000e-07	-5.397602e-06	-1.321587e-09	-3.751144e+01	-8.714458e+01
2.700000e-07	-5.387104e-06	-1.352333e-09	-3.743848e+01	-8.706660e+01
2.800000e-07	-5.376114e-06	-1.300551e-09	-3.736210e+01	-8.698184e+01
2.900000e-07	-5.364676e-06	-1.269599e-09	-3.728261e+01	-8.689038e+01
3.000000e-07	-5.352894e-06	-1.325226e-09	-3.720074e+01	-8.679237e+01
3.100000e-07	-5.340774e-06	-1.345764e-09	-3.711650e+01	-8.668799e+01
3.200000e-07	-5.328163e-06	-1.301668e-09	-3.702886e+01	-8.657749e+01
3.300000e-07	-5.315064e-06	-1.267327e-09	-3.693783e+01	-8.646115e+01
3.400000e-07	-5.301740e-06	-1.333450e-09	-3.684523e+01	-8.633930e+01
3.500000e-07	-5.288154e-06	-1.328271e-09	-3.675081e+01	-8.621231e+01
3.600000e-07	-5.274120e-06	-1.280500e-09	-3.665328e+01	-8.608057e+01
3.700000e-07	-5.259701e-06	-1.281331e-09	-3.655308e+01	-8.594452e+01
3.800000e-07	-5.244917e-06	-1.337854e-09	-3.645033e+01	-8.580462e+01
3.900000e-07	-5.229472e-06	-1.286107e-09	-3.634299e+01	-8.566133e+01
4.000000e-07	-5.213288e-06	-1.267337e-09	-3.623052e+01	-8.551516e+01
4.100000e-07	-5.196643e-06	-1.320460e-09	-3.611484e+01	-8.536660e+01
4.200000e-07	-5.179744e-06	-1.315853e-09	-3.599740e+01	-8.521616e+01
4.300000e-07	-5.162563e-06	-1.229606e-09	-3.587800e+01	-8.506436e+01
4.400000e-07	-5.145098e-06	-1.287535e-09	-3.575662e+01	-8.491170e+01
4.500000e-07	-5.127352e-06	-1.348340e-09	-3.563330e+01	-8.475865e+01
4.600000e-07	-5.109045e-06	-1.276192e-09	-3.550607e+01	-8.460572e+01
4.700000e-07	-5.090165e-06	-1.235196e-09	-3.537486e+01	-8.445333e+01
4.800000e-07	-5.070982e-06	-1.314529e-09	-3.524155e+01	-8.430193e+01
4.900000e-07	-5.051508e-06	-1.286479e-09	-3.510621e+01	-8.415192e+01
5.000000e-07	-5.031735e-06	-1.234716e-09	-3.496879e+01	-8.400365e+01
5.100000e-07	-5.011807e-06	-1.297227e-09	-3.483030e+01	-8.385745e+01
5.200000e-07	-4.991730e-06	-1.305499e-09	-3.469077e+01	-8.371362e+01
5.300000e-07	-4.971275e-06	-1.223257e-09	-3.454861e+01	-8.357239e+01
5.400000e-07	-4.950467e-06	-1.267783e-09	-3.440400e+01	-8.343395e+01
5.500000e-07	-4.929391e-06	-1.330076e-09	-3.425754e+01	-8.329846e+01
5.600000e-07	-4.907917e-06	-1.248945e-09	-3.410830e+01	-8.316601e+01
5.700000e-07	-4.886110e-06	-1.220414e-09	-3.395675e+01	-8.303666e+01
5.800000e-07	-4.863973e-06	-1.292032e-09	-3.380291e+01	-8.291041e+01
5.900000e-07	-4.841451e-06	-1.271574e-09	-3.364638e+01	-8.278720e+01
6.000000e-07	-4.818564e-06	-1.221726e-09	-3.348733e+01	-8.266693e+01
6.100000e-07	-4.795328e-06	-1.269421e-09	-3.332584e+01	-8.254947e+01
6.200000e-07	-4.771812e-06	-1.268886e-09	-3.316242e+01	-8.243463e+01
6.300000e-07	-4.748042e-06	-1.215982e-09	-3.299723e+01	-8.232216e+01
6.400000e-07	-4.724086e-06	-1.231910e-09	-3.283074e+01	-8.221181e+01
6.500000e-07	-4.699857e-06	-1.258561e-09	-3.266236e+01	-8.210327e+01
6.600000e-07	-4.675204e-06	-1.215318e-09	-3.249103e+01	-8.199619e+01
6.700000e-07	-4.650173e-06	-1.224113e-09	-3.231707e+01	-8.189021e+01
6.800000e-07	-4.624715e-06	-1.252699e-09	-3.214015e+01	-8.178494e+01
6.900000e-07	-4.598674e-06	-1.227750e-09	-3.195917e+01	-8.167996e+01
7.000000e-07	-4.572019e-06	-1.205212e-09	-3.177393e+01	-8.157485e+01
7.100000e-07	-4.544962e-06	-1.234057e-09	-3.158589e+01	-8.146917e+01
7.200000e-07	-4.517594e-06	-1.217024e-09	-3.139569e+01	-8.136249e+01
7.300000e-07	-4.489924e-06	-1.192837e-09	-3.120340e+01	-8.125435e+01
7.400000e-07	-4.462083e-06	-1.211771e-09	-3.100991e+01	-8.114433e+01
7.500000e-07	-4.434104e-06	-1.222760e-09	-3.081546e+01	-8.103198e+01
7.600000e-07	-4.405919e-06	-1.197088e-09	-3.061959e+01	-8.091690e+01
7.700000e-07	-4.377490e-06	-1.203147e-09	-3.042202e+01	-8.079869e+01
7.800000e-07	-4.348803e-06	-1.207134e-09	-3.022265e+01	-8.067696e+01
7.900000e-07	-4.319732e-06	-1.185885e-09	-3.002062e+01	-8.055136e+01
8.000000e-07	-4.290308e-06	-1.182644e-09	-2.981613e+01	-8.042157e+01
8.100000e-07	-4.260598e-06	-1.196984e-09	-2.960966e+01	-8.028730e+01
8.200000e-07	-4.230570e-06	-1.177212e-09	-2.940098e+01	-8.014828e+01
8.300000e-07	-4.200236e-06	-1.162809e-09	-2.919017e+01	-8.000429e+01
8.400000e-07	-4.169592e-06	-1.177793e-09	-2.897720e+01	-7.985515e+01
8.500000e-07	-4.138611e-06	-1.174029e-09	-2.876189e+01	-7.970071e+01
8.600000e-07	-4.107266e-06	-1.159404e-09	-2.854406e+01	-7.954084e+01
8.700000e-07	-4.075683e-06	-1.168462e-09	-2.832457e+01	-7.937549e+01
8.800000e-07	-4.044026e-06	-1.170048e-09	-2.810456e+01	-7.920463e+01
8.900000e-07	-4.012250e-06	-1.149560e-09	-2.788373e+01	-7.902825e+01
9.000000e-07	-3.980254e-06	-1.150570e-09	-2.766137e+01	-7.884640e+01
9.100000e-07	-3.947992e-06	-1.154708e-09	-2.743716e+01	-7.865916e+01
9.200000e-07	-3.915465e-06	-1.140945e-09	-2.721111e+01	-7.846663e+01
9.300000e-07	-3.882641e-06	-1.136591e-09	-2.698299e+01	-7.826896e+01
9.400000e-07	-3.849396e-06	-1.151703e-09	-2.675195e+01	-7.806631e+01
9.500000e-07	-3.815656e-06	-1.144993e-09	-2.651747e+01	-7.785887e+01
9.600000e-07	-3.781468e-06	-1.137269e-09	-2.627988e+01	-7.764686e+01
9.700000e-07	-3.746901e-06	-1.141650e-09	-2.603964e+01	-7.743050e+01
9.800000e-07	-3.711963e-06	-1.136214e-09	-2.579684e+01	-7.721004e+01
9.900000e-07	-3.676698e-06	-1.116175e-09	-2.555176e+01	-7.698572e+01
1.000000e-06	-3.641159e-06	-1.116694e-09	-2.530478e+01	-7.675781e+01
1.010000e-06	-3.605437e-06	-1.118586e-09	-2.505652e+01	-7.652656e+01
1.020000e-06	-3.569582e-06	-1.109443e-09	-2.480734e+01	-7.629222e+01
1.030000e-06	-3.533570e-06	-1.106142e-09	-2.455707e+01	-7.605504e+01
1.040000e-06	-3.497398e-06	-1.115003e-09	-2.430569e+01	-7.581527e+01
1.050000e-06	-3.460990e-06	-1.108361e-09	-2.405266e+01	-7.557312e+01
1.060000e-06	-3.424252e-06	-1.100619e-09	-2.379735e+01	-7.532879e+01
1.070000e-06	-3.387235e-06	-1.103071e-09	-2.354009e+01	-7.508248e+01
1.080000e-06	-3.350052e-06	-1.101404e-09	-2.328168e+01	-7.483435e+01
1.090000e-06	-3.312664e-06	-1.091882e-09	-2.302185e+01	-7.458453e+01
1.100000e-06	-3.275017e-06	-1.092662e-09	-2.276022e+01	-7.433312e+01
1.110000e-06	-3.237144e-06	-1.093430e-09	-2.249702e+01	-7.408020e+01
1.120000e-06	-3.199017e-06	-1.083786e-09	-2.223204e+01	-7.382582e+01
1.130000e-06	-3.160650e-06	-1.077797e-09	-2.196541e+01	-7.356999e+01
1.140000e-06	-3.122094e-06	-1.077071e-09	-2.169746e+01	-7.331268e+01
1.150000e-06	-3.083307e-06	-1.070461e-09	-2.142790e+01	-7.305384e+01
1.160000e-06	-3.044235e-06	-1.064231e-09	-2.115636e+01	-7.279338e+01
1.170000e-06	-3.004980e-06	-1.064424e-09	-2.088356e+01	-7.253117e+01
1.180000e-06	-2.965561e-06	-1.058883e-09	-2.060961e+01	-7.226706e+01
1.190000e-06	-2.925929e-06	-1.054253e-09	-2.033418e+01	-7.200085e+01
1.200000e-06	-2.886198e-06	-1.052781e-09	-2.005806e+01	-7.173233e+01
1.210000e-06	-2.846387e-06	-1.049335e-09	-1.978139e+01	-7.146125e+01
1.220000e-06	-2.806450e-06	-1.041538e-09	-1.950384e+01	-7.118734e+01
1.230000e-06	-2.766368e-06	-1.039814e-09	-1.922529e+01	-7.091030e+01
1.240000e-06	-2.726111e-06	-1.037619e-09	-1.894552e+01	-7.062980e+01
1.250000e-06	-2.685719e-06	-1.030251e-09	-1.866480e+01	-7.034552e+01
1.260000e-06	-2.645172e-06	-1.024893e-09	-1.838302e+01	-7.005709e+01
1.270000e-06	-2.604391e-06	-1.022434e-09	-1.809960e+01	-6.976414e+01
1.280000e-06	-2.563377e-06	-1.014809e-09	-1.781457e+01	-6.946630e+01
1.290000e-06	-2.522193e-06	-1.006367e-09	-1.752835e+01	-6.916316e+01
1.300000e-06	-2.480681e-06	-1.002135e-09	-1.723986e+01	-6.885434e+01
1.310000e-06	-2.438793e-06	-9.989910e-10	-1.694875e+01	-6.853943e+01
1.320000e-06	-2.396568e-06	-9.932820e-10	-1.665530e+01	-6.821804e+01
1.330000e-06	-2.353964e-06	-9.889734e-10	-1.635923e+01	-6.788975e+01
1.340000e-06	-2.311090e-06	-9.809502e-10	-1.606126e+01	-6.755416e+01
1.350000e-06	-2.267960e-06	-9.728383e-10	-1.576153e+01	-6.721089e+01
1.360000e-06	-2.224594e-06	-9.685361e-10	-1.546015e+01	-6.685953e+01
1.370000e-06	-2.181078e-06	-9.674942e-10	-1.515773e+01	-6.649970e+01
1.380000e-06	-2.137443e-06	-9.632984e-10	-1.485448e+01	-6.613102e+01
1.390000e-06	-2.093681e-06	-9.563429e-10	-1.455035e+01	-6.575312e+01
1.400000e-06	-2.049837e-06	-9.485640e-10	-1.424565e+01	-6.536563e+01
1.410000e-06	-2.005945e-06	-9.390476e-10	-1.394061e+01	-6.496817e+01
1.420000e-06	-1.961971e-06	-9.274195e-10	-1.363501e+01	-6.456041e+01
1.430000e-06	-1.917927e-06	-9.167535e-10	-1.332892e+01	-6.414198e+01
1.440000e-06	-1.873870e-06	-9.098396e-10	-1.302274e+01	-6.371254e+01
1.450000e-06	-1.829774e-06	-9.042808e-10	-1.271628e+01	-6.327173e+01
1.460000e-06	-1.785558e-06	-8.984733e-10	-1.240900e+01	-6.281920e+01
1.470000e-06	-1.741190e-06	-8.912164e-10	-1.210066e+01	-6.235461e+01
1.480000e-06	-1.696697e-06	-8.830869e-10	-1.179145e+01	-6.187758e+01
1.490000e-06	-1.652071e-06	-8.726071e-10	-1.148131e+01	-6.138775e+01
1.500000e-06	-1.607326e-06	-8.574785e-10	-1.117035e+01	-6.088476e+01
1.510000e-06	-1.562443e-06	-8.408562e-10	-1.085843e+01	-6.036819e+01
1.520000e-06	-1.517401e-06	-8.274495e-10	-1.054540e+01	-5.983765e+01
1.530000e-06	-1.472195e-06	-8.184975e-10	-1.023124e+01	-5.929270e+01
1.540000e-06	-1.426929e-06	-8.129625e-10	-9.916653e+00	-5.873291e+01
1.550000e-06	-1.381603e-06	-8.074408e-10	-9.601654e+00	-5.815781e+01
1.560000e-06	-1.336165e-06	-8.007324e-10	-9.285876e+00	-5.756688e+01
1.570000e-06	-1.290630e-06	-7.927095e-10	-8.969426e+00	-5.695963e+01
1.580000e-06	-1.245026e-06	-7.816451e-10	-8.652495e+00	-5.633549e+01
1.590000e-06	-1.199362e-06	-7.644953e-10	-8.335144e+00	-5.569388e+01
1.600000e-06	-1.153561e-06	-7.486466e-10	-8.016844e+00	-5.503420e+01
1.610000e-06	-1.107639e-06	-7.376069e-10	-7.697702e+00	-5.435580e+01
1.620000e-06	-1.061619e-06	-7.306412e-10	-7.377880e+00	-5.365802e+01
1.630000e-06	-1.015456e-06	-7.275882e-10	-7.057063e+00	-5.294014e+01
1.640000e-06	-9.692339e-07	-7.245721e-10	-6.735835e+00	-5.220144e+01
1.650000e-06	-9.229888e-07	-7.134191e-10	-6.414448e+00	-5.144118e+01
1.660000e-06	-8.766810e-07	-6.977257e-10	-6.092625e+00	-5.065856e+01
1.670000e-06	-8.303401e-07	-6.786391e-10	-5.770572e+00	-4.985278e+01
1.680000e-06	-7.839251e-07	-6.607679e-10	-5.448005e+00	-4.902304e+01
1.690000e-06	-7.375022e-07	-6.474715e-10	-5.125382e+00	-4.816849e+01
1.700000e-06	-6.910778e-07	-6.361343e-10	-4.802748e+00	-4.728831e+01
1.710000e-06	-6.445223e-07	-6.241925e-10	-4.479204e+00	-4.638165e+01
1.720000e-06	-5.978865e-07	-6.122904e-10	-4.155101e+00	-4.544767e+01
1.730000e-06	-5.512526e-07	-5.992695e-10	-3.831012e+00	-4.448554e+01
1.740000e-06	-5.045601e-07	-5.803692e-10	-3.506515e+00	-4.349444e+01
1.750000e-06	-4.578324e-07	-5.630273e-10	-3.181774e+00	-4.247359e+01
1.760000e-06	-4.111597e-07	-5.493016e-10	-2.857416e+00	-4.142223e+01
1.770000e-06	-3.645265e-07	-5.349824e-10	-2.533332e+00	-4.033962e+01
1.780000e-06	-3.178696e-07	-5.191327e-10	-2.209082e+00	-3.922510e+01
1.790000e-06	-2.711293e-07	-5.044144e-10	-1.884253e+00	-3.807803e+01
1.800000e-06	-2.243400e-07	-4.896286e-10	-1.559084e+00	-3.689785e+01
1.810000e-06	-1.775636e-07	-4.727055e-10	-1.234005e+00	-3.568407e+01
1.820000e-06	-1.307700e-07	-4.548402e-10	-9.088053e-01	-3.443626e+01
1.830000e-06	-8.389935e-08	-4.382549e-10	-5.830711e-01	-3.315410e+01
1.840000e-06	-3.701251e-08	-4.216287e-10	-2.572240e-01	-3.183734e+01
1.850000e-06	9.801182e-09	-4.032973e-10	6.811477e-02	-3.048584e+01
1.860000e-06	5.659951e-08	-3.817311e-10	3.933467e-01	-2.909956e+01
1.870000e-06	1.034144e-07	-3.594022e-10	7.186937e-01	-2.767857e+01
1.880000e-06	1.502544e-07	-3.374107e-10	1.044215e+00	-2.622305e+01
1.890000e-06	1.970153e-07	-3.173951e-10	1.369187e+00	-2.473333e+01
1.900000e-06	2.437152e-07	-2.958981e-10	1.693735e+00	-2.320984e+01
1.910000e-06	2.904808e-07	-2.736789e-10	2.018740e+00	-2.165314e+01
1.920000e-06	3.372810e-07	-2.521898e-10	2.343985e+00	-2.006393e+01
1.930000e-06	3.840916e-07	-2.282823e-10	2.669302e+00	-1.844303e+01
1.940000e-06	4.307836e-07	-2.031354e-10	2.993795e+00	-1.679141e+01
1.950000e-06	4.774230e-07	-1.771685e-10	3.317922e+00	-1.511016e+01
1.960000e-06	5.240333e-07	-1.533850e-10	3.641848e+00	-1.340052e+01
1.970000e-06	5.705282e-07	-1.296023e-10	3.964971e+00	-1.166383e+01
1.980000e-06	6.169625e-07	-1.050568e-10	4.287673e+00	-9.901582e+00
1.990000e-06	6.634177e-07	-8.313505e-11	4.610520e+00	-8.115384e+00
2.000000e-06	7.098494e-07	-5.854101e-11	4.933204e+00	-6.306960e+00
2.010000e-06	7.561969e-07	-2.776046e-11	5.255303e+00	-4.478145e+00
2.020000e-06	8.025231e-07	6.639377e-12	5.577254e+00	-2.630882e+00
2.030000e-06	8.488089e-07	3.652771e-11	5.898924e+00	-7.672081e-01
2.040000e-06	8.950461e-07	6.247974e-11	6.220256e+00	1.110748e+00
2.050000e-06	9.412107e-07	8.724105e-11	6.541084e+00	3.000779e+00
2.060000e-06	9.873554e-07	1.121720e-10	6.861773e+00	4.900609e+00
2.070000e-06	1.033460e-06	1.383609e-10	7.182181e+00	6.807899e+00
2.080000e-06	1.079425e-06	1.654493e-10	7.501622e+00	8.720266e+00
2.090000e-06	1.125276e-06	1.930096e-10	7.820273e+00	1.063529e+01
2.100000e-06	1.171066e-06	2.213661e-10	8.138494e+00	1.255051e+01
2.110000e-06	1.216844e-06	2.507405e-10	8.456637e+00	1.446349e+01
2.120000e-06	1.262502e-06	2.790445e-10	8.773943e+00	1.637174e+01
2.130000e-06	1.307982e-06	3.075311e-10	9.090019e+00	1.827283e+01
2.140000e-06	1.353398e-06	3.328685e-10	9.405641e+00	2.016432e+01
2.150000e-06	1.398749e-06	3.548049e-10	9.720813e+00	2.204383e+01
2.160000e-06	1.444003e-06	3.781633e-10	1.003532e+01	2.390900e+01
2.170000e-06	1.489123e-06	4.054728e-10	1.034888e+01	2.575755e+01
2.180000e-06	1.534097e-06	4.330398e-10	1.066143e+01	2.758726e+01
2.190000e-06	1.578903e-06	4.582622e-10	1.097282e+01	2.939599e+01
2.200000e-06	1.623648e-06	4.820861e-10	1.128379e+01	3.118170e+01
2.210000e-06	1.668344e-06	5.060405e-10	1.159440e+01	3.294244e+01
2.220000e-06	1.712867e-06	5.303163e-10	1.190382e+01	3.467637e+01
2.230000e-06	1.757232e-06	5.568967e-10	1.221215e+01	3.638175e+01
2.240000e-06	1.801462e-06	5.817743e-10	1.251953e+01	3.805700e+01
2.250000e-06	1.845638e-06	6.025482e-10	1.282654e+01	3.970064e+01
2.260000e-06	1.889776e-06	6.211460e-10	1.313328e+01	4.131132e+01
2.270000e-06	1.933813e-06	6.398169e-10	1.343932e+01	4.288785e+01
2.280000e-06	1.977772e-06	6.591574e-10	1.374482e+01	4.442917e+01
2.290000e-06	2.021704e-06	6.793395e-10	1.405013e+01	4.593435e+01
2.300000e-06	2.065572e-06	6.993290e-10	1.435500e+01	4.740262e+01
2.310000e-06	2.109332e-06	7.177447e-10	1.465912e+01	4.883335e+01
2.320000e-06	2.153020e-06	7.354049e-10	1.496273e+01	5.022605e+01
2.330000e-06	2.196623e-06	7.541381e-10	1.526576e+01	5.158037e+01
2.340000e-06	2.240148e-06	7.723653e-10	1.556825e+01	5.289611e+01
2.350000e-06	2.283562e-06	7.902956e-10	1.586995e+01	5.417318e+01
2.360000e-06	2.326715e-06	8.070737e-10	1.616986e+01	5.541166e+01
2.370000e-06	2.369606e-06	8.221969e-10	1.646793e+01	5.661170e+01
2.380000e-06	2.412202e-06	8.373130e-10	1.676396e+01	5.777361e+01
2.390000e-06	2.454406e-06	8.515296e-10	1.705726e+01	5.889780e+01
2.400000e-06	2.496150e-06	8.667690e-10	1.734737e+01	5.998479e+01
2.410000e-06	2.537530e-06	8.826015e-10	1.763494e+01	6.103517e+01
2.420000e-06	2.578678e-06	8.980668e-10	1.792091e+01	6.204964e+01
2.430000e-06	2.619499e-06	9.101205e-10	1.820460e+01	6.302898e+01
2.440000e-06	2.660070e-06	9.191147e-10	1.848655e+01	6.397403e+01
2.450000e-06	2.700569e-06	9.278560e-10	1.876801e+01	6.488570e+01
2.460000e-06	2.740985e-06	9.366900e-10	1.904888e+01	6.576495e+01
2.470000e-06	2.781201e-06	9.465351e-10	1.932837e+01	6.661278e+01
2.480000e-06	2.821220e-06	9.592190e-10	1.960649e+01	6.743021e+01
2.490000e-06	2.861119e-06	9.717543e-10	1.988377e+01	6.821832e+01
2.500000e-06	2.900872e-06	9.839767e-10	2.016004e+01	6.897816e+01
2.510000e-06	2.940463e-06	9.949554e-10	2.043518e+01	6.971084e+01
2.520000e-06	2.979878e-06	1.002512e-09	2.070910e+01	7.041741e+01
2.530000e-06	3.019037e-06	1.007874e-09	2.098124e+01	7.109898e+01
2.540000e-06	3.058027e-06	1.013954e-09	2.125221e+01	7.175658e+01
2.550000e-06	3.096801e-06	1.023333e-09	2.152168e+01	7.239126e+01
2.560000e-06	3.135290e-06	1.034269e-09	2.178916e+01	7.300403e+01
2.570000e-06	3.173560e-06	1.045017e-09	2.205513e+01	7.359586e+01
2.580000e-06	3.211621e-06	1.055064e-09	2.231964e+01	7.416771e+01
2.590000e-06	3.249549e-06	1.063349e-09	2.258323e+01	7.472047e+01
2.600000e-06	3.287279e-06	1.069768e-09	2.284544e+01	7.525499e+01
2.610000e-06	3.324780e-06	1.075726e-09	2.310605e+01	7.577209e+01
2.620000e-06	3.362126e-06	1.082339e-09	2.336560e+01	7.627253e+01
2.630000e-06	3.399191e-06	1.090176e-09	2.362319e+01	7.675701e+01
2.640000e-06	3.435873e-06	1.100212e-09	2.387811e+01	7.722621e+01
2.650000e-06	3.472296e-06	1.111838e-09	2.413124e+01	7.768073e+01
2.660000e-06	3.508555e-06	1.120308e-09	2.438322e+01	7.812113e+01
2.670000e-06	3.544665e-06	1.124987e-09	2.463418e+01	7.854793e+01
2.680000e-06	3.580656e-06	1.129008e-09	2.488430e+01	7.896159e+01
2.690000e-06	3.616561e-06	1.133793e-09	2.513383e+01	7.936254e+01
2.700000e-06	3.652351e-06	1.140162e-09	2.538256e+01	7.975115e+01
2.710000e-06	3.687965e-06	1.148419e-09	2.563006e+01	8.012778e+01
2.720000e-06	3.723269e-06	1.156239e-09	2.587541e+01	8.049272e+01
2.730000e-06	3.758249e-06	1.163261e-09	2.611851e+01	8.084626e+01
2.740000e-06	3.792821e-06	1.169817e-09	2.635877e+01	8.118863e+01
2.750000e-06	3.826946e-06	1.175651e-09	2.659593e+01	8.152007e+01
2.760000e-06	3.860562e-06	1.177924e-09	2.682955e+01	8.184077e+01
2.770000e-06	3.893546e-06	1.179340e-09	2.705878e+01	8.215092e+01
2.780000e-06	3.926040e-06	1.181758e-09	2.728460e+01	8.245069e+01
2.790000e-06	3.958294e-06	1.186137e-09	2.750876e+01	8.274025e+01
2.800000e-06	3.990437e-06	1.195028e-09	2.773214e+01	8.301975e+01
2.810000e-06	4.022438e-06	1.204129e-09	2.795453e+01	8.328935e+01
2.820000e-06	4.054309e-06	1.207942e-09	2.817603e+01	8.354921e+01
2.830000e-06	4.086020e-06	1.209501e-09	2.839640e+01	8.379948e+01
2.840000e-06	4.117568e-06	1.211499e-09	2.861565e+01	8.404034e+01
2.850000e-06	4.148799e-06	1.212338e-09	2.883270e+01	8.427195e+01
2.860000e-06	4.179558e-06	1.211725e-09	2.904646e+01	8.449450e+01
2.870000e-06	4.209903e-06	1.212707e-09	2.925735e+01	8.470819e+01
2.880000e-06	4.240065e-06	1.217217e-09	2.946696e+01	8.491323e+01
2.890000e-06	4.270049e-06	1.221392e-09	2.967534e+01	8.510984e+01
2.900000e-06	4.299669e-06	1.225432e-09	2.988119e+01	8.529824e+01
