# Temperatura_=_12.1
# Concentracion g/m^3_=_1620.0
# C_Vs_to_Am_M_A/Vsm_=_65563218390.804596
# pendiente_HvsI_1/m_=_3716.3
# ordenada_HvsI_A/m_=_1297.0
# frecuencia_Hz_=_135095.39741682462

Tiempo_(s)	Campo_(V.s)	Magnetizacion_(V.s)	Campo_(kA/m)	Magnetizacion_(A/m)
0.000000e+00	-5.517536e-06	-1.683697e-09	-3.837279e+01	-1.100025e+02
1.000000e-08	-5.517774e-06	-1.681765e-09	-3.837445e+01	-1.099818e+02
2.000000e-08	-5.517725e-06	-1.682532e-09	-3.837410e+01	-1.099616e+02
3.000000e-08	-5.517273e-06	-1.683085e-09	-3.837096e+01	-1.099416e+02
4.000000e-08	-5.516391e-06	-1.681632e-09	-3.836482e+01	-1.099215e+02
5.000000e-08	-5.514977e-06	-1.673835e-09	-3.835499e+01	-1.099012e+02
6.000000e-08	-5.512981e-06	-1.665604e-09	-3.834111e+01	-1.098802e+02
7.000000e-08	-5.510375e-06	-1.671760e-09	-3.832298e+01	-1.098584e+02
8.000000e-08	-5.507204e-06	-1.696104e-09	-3.830094e+01	-1.098354e+02
9.000000e-08	-5.503603e-06	-1.718080e-09	-3.827589e+01	-1.098109e+02
1.000000e-07	-5.499554e-06	-1.684977e-09	-3.824773e+01	-1.097845e+02
1.100000e-07	-5.495191e-06	-1.629238e-09	-3.821738e+01	-1.097558e+02
1.200000e-07	-5.490728e-06	-1.614349e-09	-3.818635e+01	-1.097245e+02
1.300000e-07	-5.485966e-06	-1.692986e-09	-3.815323e+01	-1.096902e+02
1.400000e-07	-5.480717e-06	-1.683537e-09	-3.811673e+01	-1.096526e+02
1.500000e-07	-5.475116e-06	-1.660407e-09	-3.807777e+01	-1.096112e+02
1.600000e-07	-5.469210e-06	-1.638286e-09	-3.803670e+01	-1.095658e+02
1.700000e-07	-5.462950e-06	-1.704001e-09	-3.799316e+01	-1.095159e+02
1.800000e-07	-5.456215e-06	-1.691824e-09	-3.794632e+01	-1.094612e+02
1.900000e-07	-5.449066e-06	-1.636250e-09	-3.789660e+01	-1.094014e+02
2.000000e-07	-5.441651e-06	-1.618758e-09	-3.784503e+01	-1.093362e+02
2.100000e-07	-5.433962e-06	-1.673990e-09	-3.779156e+01	-1.092654e+02
2.200000e-07	-5.426068e-06	-1.711616e-09	-3.773665e+01	-1.091885e+02
2.300000e-07	-5.417894e-06	-1.677634e-09	-3.767981e+01	-1.091055e+02
2.400000e-07	-5.409162e-06	-1.655264e-09	-3.761908e+01	-1.090161e+02
2.500000e-07	-5.399679e-06	-1.648624e-09	-3.755313e+01	-1.089201e+02
2.600000e-07	-5.389601e-06	-1.671991e-09	-3.748304e+01	-1.088174e+02
2.700000e-07	-5.379122e-06	-1.641564e-09	-3.741016e+01	-1.087078e+02
2.800000e-07	-5.368133e-06	-1.648966e-09	-3.733373e+01	-1.085913e+02
2.900000e-07	-5.356613e-06	-1.650434e-09	-3.725362e+01	-1.084678e+02
3.000000e-07	-5.344771e-06	-1.670076e-09	-3.717126e+01	-1.083373e+02
3.100000e-07	-5.332585e-06	-1.630941e-09	-3.708651e+01	-1.081998e+02
3.200000e-07	-5.319886e-06	-1.637181e-09	-3.699819e+01	-1.080553e+02
3.300000e-07	-5.306693e-06	-1.639691e-09	-3.690644e+01	-1.079040e+02
3.400000e-07	-5.293161e-06	-1.665187e-09	-3.681233e+01	-1.077459e+02
3.500000e-07	-5.279250e-06	-1.635169e-09	-3.671558e+01	-1.075811e+02
3.600000e-07	-5.264901e-06	-1.641498e-09	-3.661579e+01	-1.074099e+02
3.700000e-07	-5.250039e-06	-1.648217e-09	-3.651243e+01	-1.072324e+02
3.800000e-07	-5.234656e-06	-1.648223e-09	-3.640545e+01	-1.070489e+02
3.900000e-07	-5.218786e-06	-1.607384e-09	-3.629507e+01	-1.068595e+02
4.000000e-07	-5.202440e-06	-1.616054e-09	-3.618139e+01	-1.066645e+02
4.100000e-07	-5.185801e-06	-1.633793e-09	-3.606567e+01	-1.064642e+02
4.200000e-07	-5.168800e-06	-1.609933e-09	-3.594743e+01	-1.062588e+02
4.300000e-07	-5.151410e-06	-1.603015e-09	-3.582649e+01	-1.060488e+02
4.400000e-07	-5.133785e-06	-1.637519e-09	-3.570392e+01	-1.058343e+02
4.500000e-07	-5.115763e-06	-1.625642e-09	-3.557858e+01	-1.056157e+02
4.600000e-07	-5.097303e-06	-1.569096e-09	-3.545020e+01	-1.053933e+02
4.700000e-07	-5.078502e-06	-1.592564e-09	-3.531944e+01	-1.051675e+02
4.800000e-07	-5.059372e-06	-1.612672e-09	-3.518639e+01	-1.049384e+02
4.900000e-07	-5.039897e-06	-1.575464e-09	-3.505096e+01	-1.047065e+02
5.000000e-07	-5.020166e-06	-1.565010e-09	-3.491373e+01	-1.044720e+02
5.100000e-07	-5.000270e-06	-1.611162e-09	-3.477536e+01	-1.042352e+02
5.200000e-07	-4.980107e-06	-1.578328e-09	-3.463514e+01	-1.039964e+02
5.300000e-07	-4.959594e-06	-1.558781e-09	-3.449247e+01	-1.037559e+02
5.400000e-07	-4.938764e-06	-1.593387e-09	-3.434761e+01	-1.035139e+02
5.500000e-07	-4.917538e-06	-1.585235e-09	-3.419999e+01	-1.032706e+02
5.600000e-07	-4.895870e-06	-1.526462e-09	-3.404929e+01	-1.030262e+02
5.700000e-07	-4.873949e-06	-1.564336e-09	-3.389684e+01	-1.027810e+02
5.800000e-07	-4.851716e-06	-1.586926e-09	-3.374221e+01	-1.025350e+02
5.900000e-07	-4.829012e-06	-1.545038e-09	-3.358432e+01	-1.022885e+02
6.000000e-07	-4.805917e-06	-1.539836e-09	-3.342370e+01	-1.020414e+02
6.100000e-07	-4.782578e-06	-1.576196e-09	-3.326138e+01	-1.017940e+02
6.200000e-07	-4.759043e-06	-1.535155e-09	-3.309770e+01	-1.015463e+02
6.300000e-07	-4.735261e-06	-1.518864e-09	-3.293230e+01	-1.012983e+02
6.400000e-07	-4.711216e-06	-1.551248e-09	-3.276507e+01	-1.010501e+02
6.500000e-07	-4.686859e-06	-1.540215e-09	-3.259569e+01	-1.008016e+02
6.600000e-07	-4.662110e-06	-1.510679e-09	-3.242356e+01	-1.005528e+02
6.700000e-07	-4.636934e-06	-1.537501e-09	-3.224847e+01	-1.003037e+02
6.800000e-07	-4.611200e-06	-1.531304e-09	-3.206950e+01	-1.000541e+02
6.900000e-07	-4.584895e-06	-1.496507e-09	-3.188655e+01	-9.980408e+01
7.000000e-07	-4.558241e-06	-1.506674e-09	-3.170118e+01	-9.955342e+01
7.100000e-07	-4.531189e-06	-1.517675e-09	-3.151304e+01	-9.930201e+01
7.200000e-07	-4.503721e-06	-1.490865e-09	-3.132201e+01	-9.904973e+01
7.300000e-07	-4.476034e-06	-1.493684e-09	-3.112946e+01	-9.879640e+01
7.400000e-07	-4.448167e-06	-1.510136e-09	-3.093565e+01	-9.854186e+01
7.500000e-07	-4.420105e-06	-1.484731e-09	-3.074049e+01	-9.828594e+01
7.600000e-07	-4.391782e-06	-1.471497e-09	-3.054351e+01	-9.802844e+01
7.700000e-07	-4.363125e-06	-1.481821e-09	-3.034421e+01	-9.776918e+01
7.800000e-07	-4.334169e-06	-1.473413e-09	-3.014283e+01	-9.750794e+01
7.900000e-07	-4.304901e-06	-1.455069e-09	-2.993928e+01	-9.724454e+01
8.000000e-07	-4.275320e-06	-1.463068e-09	-2.973355e+01	-9.697876e+01
8.100000e-07	-4.245494e-06	-1.452603e-09	-2.952612e+01	-9.671041e+01
8.200000e-07	-4.215332e-06	-1.433145e-09	-2.931636e+01	-9.643927e+01
8.300000e-07	-4.184880e-06	-1.430844e-09	-2.910457e+01	-9.616516e+01
8.400000e-07	-4.154153e-06	-1.435242e-09	-2.889088e+01	-9.588787e+01
8.500000e-07	-4.123147e-06	-1.418435e-09	-2.867523e+01	-9.560722e+01
8.600000e-07	-4.091858e-06	-1.417528e-09	-2.845763e+01	-9.532302e+01
8.700000e-07	-4.060383e-06	-1.417294e-09	-2.823873e+01	-9.503509e+01
8.800000e-07	-4.028794e-06	-1.401759e-09	-2.801904e+01	-9.474327e+01
8.900000e-07	-3.996976e-06	-1.384618e-09	-2.779776e+01	-9.444739e+01
9.000000e-07	-3.964883e-06	-1.385784e-09	-2.757456e+01	-9.414731e+01
9.100000e-07	-3.932572e-06	-1.374422e-09	-2.734984e+01	-9.384289e+01
9.200000e-07	-3.900022e-06	-1.364346e-09	-2.712347e+01	-9.353398e+01
9.300000e-07	-3.867085e-06	-1.368645e-09	-2.689440e+01	-9.322048e+01
9.400000e-07	-3.833689e-06	-1.370322e-09	-2.666214e+01	-9.290226e+01
9.500000e-07	-3.799691e-06	-1.355452e-09	-2.642570e+01	-9.257924e+01
9.600000e-07	-3.765230e-06	-1.351588e-09	-2.618603e+01	-9.225131e+01
9.700000e-07	-3.730467e-06	-1.348734e-09	-2.594426e+01	-9.191839e+01
9.800000e-07	-3.695322e-06	-1.333462e-09	-2.569984e+01	-9.158041e+01
9.900000e-07	-3.659877e-06	-1.321581e-09	-2.545333e+01	-9.123730e+01
1.000000e-06	-3.624285e-06	-1.319276e-09	-2.520580e+01	-9.088900e+01
1.010000e-06	-3.588555e-06	-1.311301e-09	-2.495731e+01	-9.053547e+01
1.020000e-06	-3.552704e-06	-1.303560e-09	-2.470798e+01	-9.017667e+01
1.030000e-06	-3.516726e-06	-1.308504e-09	-2.445776e+01	-8.981254e+01
1.040000e-06	-3.480528e-06	-1.309012e-09	-2.420602e+01	-8.944306e+01
1.050000e-06	-3.444091e-06	-1.300677e-09	-2.395261e+01	-8.906821e+01
1.060000e-06	-3.407402e-06	-1.292129e-09	-2.369745e+01	-8.868795e+01
1.070000e-06	-3.370378e-06	-1.283679e-09	-2.343996e+01	-8.830227e+01
1.080000e-06	-3.333055e-06	-1.267504e-09	-2.318039e+01	-8.791114e+01
1.090000e-06	-3.295609e-06	-1.258097e-09	-2.291996e+01	-8.751455e+01
1.100000e-06	-3.257946e-06	-1.253420e-09	-2.265802e+01	-8.711248e+01
1.110000e-06	-3.220026e-06	-1.246344e-09	-2.239431e+01	-8.670492e+01
1.120000e-06	-3.181908e-06	-1.239474e-09	-2.212921e+01	-8.629184e+01
1.130000e-06	-3.143517e-06	-1.242155e-09	-2.186221e+01	-8.587323e+01
1.140000e-06	-3.104915e-06	-1.236607e-09	-2.159374e+01	-8.544907e+01
1.150000e-06	-3.066127e-06	-1.226971e-09	-2.132399e+01	-8.501933e+01
1.160000e-06	-3.027071e-06	-1.218989e-09	-2.105236e+01	-8.458399e+01
1.170000e-06	-2.987806e-06	-1.210913e-09	-2.077928e+01	-8.414302e+01
1.180000e-06	-2.948418e-06	-1.199709e-09	-2.050536e+01	-8.369638e+01
1.190000e-06	-2.908915e-06	-1.196041e-09	-2.023062e+01	-8.324403e+01
1.200000e-06	-2.869262e-06	-1.193740e-09	-1.995485e+01	-8.278593e+01
1.210000e-06	-2.829460e-06	-1.186932e-09	-1.967804e+01	-8.232202e+01
1.220000e-06	-2.789506e-06	-1.177628e-09	-1.940017e+01	-8.185226e+01
1.230000e-06	-2.749404e-06	-1.172277e-09	-1.912127e+01	-8.137657e+01
1.240000e-06	-2.709150e-06	-1.165325e-09	-1.884131e+01	-8.089488e+01
1.250000e-06	-2.668702e-06	-1.157175e-09	-1.856001e+01	-8.040710e+01
1.260000e-06	-2.628041e-06	-1.151301e-09	-1.827723e+01	-7.991316e+01
1.270000e-06	-2.587070e-06	-1.144128e-09	-1.799228e+01	-7.941293e+01
1.280000e-06	-2.545815e-06	-1.133124e-09	-1.770537e+01	-7.890631e+01
1.290000e-06	-2.504381e-06	-1.123929e-09	-1.741721e+01	-7.839317e+01
1.300000e-06	-2.462644e-06	-1.116113e-09	-1.712694e+01	-7.787338e+01
1.310000e-06	-2.420580e-06	-1.107963e-09	-1.683440e+01	-7.734678e+01
1.320000e-06	-2.378245e-06	-1.099617e-09	-1.653997e+01	-7.681319e+01
1.330000e-06	-2.335558e-06	-1.091501e-09	-1.624310e+01	-7.627244e+01
1.340000e-06	-2.292680e-06	-1.081945e-09	-1.594490e+01	-7.572433e+01
1.350000e-06	-2.249711e-06	-1.073568e-09	-1.564606e+01	-7.516862e+01
1.360000e-06	-2.206536e-06	-1.068798e-09	-1.534579e+01	-7.460508e+01
1.370000e-06	-2.163134e-06	-1.061759e-09	-1.504394e+01	-7.403345e+01
1.380000e-06	-2.119541e-06	-1.050976e-09	-1.474076e+01	-7.345344e+01
1.390000e-06	-2.075809e-06	-1.036608e-09	-1.443662e+01	-7.286474e+01
1.400000e-06	-2.031967e-06	-1.023072e-09	-1.413171e+01	-7.226702e+01
1.410000e-06	-1.988067e-06	-1.009038e-09	-1.382640e+01	-7.165992e+01
1.420000e-06	-1.944096e-06	-9.974743e-10	-1.352060e+01	-7.104305e+01
1.430000e-06	-1.900123e-06	-9.885143e-10	-1.321478e+01	-7.041600e+01
1.440000e-06	-1.856086e-06	-9.805555e-10	-1.290851e+01	-6.977831e+01
1.450000e-06	-1.811901e-06	-9.711756e-10	-1.260122e+01	-6.912952e+01
1.460000e-06	-1.767612e-06	-9.603029e-10	-1.229320e+01	-6.846912e+01
1.470000e-06	-1.723187e-06	-9.444120e-10	-1.198424e+01	-6.779656e+01
1.480000e-06	-1.678586e-06	-9.278058e-10	-1.167405e+01	-6.711129e+01
1.490000e-06	-1.633824e-06	-9.093939e-10	-1.136275e+01	-6.641270e+01
1.500000e-06	-1.588987e-06	-8.908728e-10	-1.105092e+01	-6.570016e+01
1.510000e-06	-1.544030e-06	-8.747860e-10	-1.073826e+01	-6.497299e+01
1.520000e-06	-1.498912e-06	-8.634406e-10	-1.042448e+01	-6.423052e+01
1.530000e-06	-1.453680e-06	-8.529845e-10	-1.010990e+01	-6.347200e+01
1.540000e-06	-1.408446e-06	-8.419664e-10	-9.795317e+00	-6.269668e+01
1.550000e-06	-1.363142e-06	-8.281619e-10	-9.480242e+00	-6.190378e+01
1.560000e-06	-1.317623e-06	-8.130015e-10	-9.163671e+00	-6.109250e+01
1.570000e-06	-1.272029e-06	-7.961819e-10	-8.846578e+00	-6.026199e+01
1.580000e-06	-1.226410e-06	-7.799199e-10	-8.529308e+00	-5.941141e+01
1.590000e-06	-1.180675e-06	-7.654938e-10	-8.211234e+00	-5.853988e+01
1.600000e-06	-1.134847e-06	-7.518710e-10	-7.892519e+00	-5.764651e+01
1.610000e-06	-1.088897e-06	-7.405680e-10	-7.572951e+00	-5.673041e+01
1.620000e-06	-1.042949e-06	-7.308823e-10	-7.253396e+00	-5.579066e+01
1.630000e-06	-9.969305e-07	-7.220815e-10	-6.933349e+00	-5.482636e+01
1.640000e-06	-9.507217e-07	-7.115210e-10	-6.611981e+00	-5.383660e+01
1.650000e-06	-9.045341e-07	-6.963620e-10	-6.290760e+00	-5.282047e+01
1.660000e-06	-8.582575e-07	-6.778110e-10	-5.968920e+00	-5.177707e+01
1.670000e-06	-8.118733e-07	-6.587306e-10	-5.646333e+00	-5.070553e+01
1.680000e-06	-7.655263e-07	-6.377486e-10	-5.324003e+00	-4.960499e+01
1.690000e-06	-7.191197e-07	-6.185861e-10	-5.001259e+00	-4.847462e+01
1.700000e-06	-6.725951e-07	-5.986469e-10	-4.677695e+00	-4.731363e+01
1.710000e-06	-6.260615e-07	-5.818735e-10	-4.354068e+00	-4.612125e+01
1.720000e-06	-5.795441e-07	-5.676787e-10	-4.030553e+00	-4.489676e+01
1.730000e-06	-5.329812e-07	-5.508861e-10	-3.706722e+00	-4.363952e+01
1.740000e-06	-4.863526e-07	-5.297551e-10	-3.382435e+00	-4.234892e+01
1.750000e-06	-4.396348e-07	-5.062514e-10	-3.057527e+00	-4.102440e+01
1.760000e-06	-3.928655e-07	-4.821244e-10	-2.732260e+00	-3.966551e+01
1.770000e-06	-3.461640e-07	-4.601457e-10	-2.407466e+00	-3.827185e+01
1.780000e-06	-2.994714e-07	-4.419117e-10	-2.082732e+00	-3.684309e+01
1.790000e-06	-2.527080e-07	-4.236820e-10	-1.757508e+00	-3.537901e+01
1.800000e-06	-2.059008e-07	-4.039222e-10	-1.431977e+00	-3.387946e+01
1.810000e-06	-1.590285e-07	-3.843958e-10	-1.105995e+00	-3.234442e+01
1.820000e-06	-1.122530e-07	-3.631734e-10	-7.806856e-01	-3.077392e+01
1.830000e-06	-6.549005e-08	-3.412373e-10	-4.554634e-01	-2.916815e+01
1.840000e-06	-1.865751e-08	-3.197619e-10	-1.297573e-01	-2.752735e+01
1.850000e-06	2.816294e-08	-2.988501e-10	1.958647e-01	-2.585191e+01
1.860000e-06	7.500086e-08	-2.773237e-10	5.216083e-01	-2.414233e+01
1.870000e-06	1.217973e-07	-2.527977e-10	8.470631e-01	-2.239921e+01
1.880000e-06	1.686023e-07	-2.266484e-10	1.172578e+00	-2.062327e+01
1.890000e-06	2.154193e-07	-2.013489e-10	1.498176e+00	-1.881535e+01
1.900000e-06	2.622352e-07	-1.783348e-10	1.823767e+00	-1.697641e+01
1.910000e-06	3.090822e-07	-1.543766e-10	2.149573e+00	-1.510751e+01
1.920000e-06	3.558409e-07	-1.280771e-10	2.474766e+00	-1.320984e+01
1.930000e-06	4.025449e-07	-9.968716e-11	2.799578e+00	-1.128470e+01
1.940000e-06	4.492019e-07	-7.262368e-11	3.124063e+00	-9.333484e+00
1.950000e-06	4.957515e-07	-4.597675e-11	3.447801e+00	-7.357708e+00
1.960000e-06	5.422618e-07	-1.999287e-11	3.771267e+00	-5.358981e+00
1.970000e-06	5.888304e-07	6.190631e-12	4.095136e+00	-3.339012e+00
1.980000e-06	6.353676e-07	3.464659e-11	4.418789e+00	-1.299598e+00
1.990000e-06	6.817767e-07	6.406404e-11	4.741550e+00	7.573774e-01
2.000000e-06	7.281268e-07	9.389585e-11	5.063901e+00	2.829953e+00
2.010000e-06	7.743996e-07	1.255000e-10	5.385714e+00	4.916097e+00
2.020000e-06	8.206241e-07	1.570837e-10	5.707192e+00	7.013714e+00
2.030000e-06	8.668507e-07	1.874516e-10	6.028684e+00	9.120651e+00
2.040000e-06	9.130206e-07	2.156126e-10	6.349781e+00	1.123471e+01
2.050000e-06	9.591118e-07	2.429722e-10	6.670331e+00	1.335366e+01
2.060000e-06	1.005104e-06	2.710636e-10	6.990191e+00	1.547523e+01
2.070000e-06	1.051067e-06	3.006509e-10	7.309851e+00	1.759713e+01
2.080000e-06	1.097005e-06	3.323190e-10	7.629337e+00	1.971707e+01
2.090000e-06	1.142863e-06	3.637977e-10	7.948262e+00	2.183276e+01
2.100000e-06	1.188601e-06	3.964890e-10	8.266362e+00	2.394190e+01
2.110000e-06	1.234194e-06	4.290979e-10	8.583444e+00	2.604223e+01
2.120000e-06	1.279727e-06	4.593542e-10	8.900110e+00	2.813150e+01
2.130000e-06	1.325199e-06	4.882052e-10	9.216355e+00	3.020750e+01
2.140000e-06	1.370519e-06	5.148761e-10	9.531543e+00	3.226808e+01
2.150000e-06	1.415649e-06	5.387790e-10	9.845407e+00	3.431113e+01
2.160000e-06	1.460680e-06	5.639278e-10	1.015858e+01	3.633461e+01
2.170000e-06	1.505668e-06	5.906369e-10	1.047147e+01	3.833654e+01
2.180000e-06	1.550612e-06	6.184703e-10	1.078404e+01	4.031503e+01
2.190000e-06	1.595491e-06	6.486660e-10	1.109616e+01	4.226828e+01
2.200000e-06	1.640288e-06	6.801225e-10	1.140770e+01	4.419455e+01
2.210000e-06	1.684881e-06	7.084314e-10	1.171783e+01	4.609224e+01
2.220000e-06	1.729273e-06	7.321535e-10	1.202657e+01	4.795983e+01
2.230000e-06	1.773488e-06	7.535811e-10	1.233407e+01	4.979590e+01
2.240000e-06	1.817591e-06	7.743923e-10	1.264079e+01	5.159915e+01
2.250000e-06	1.861635e-06	7.947706e-10	1.294711e+01	5.336841e+01
2.260000e-06	1.905593e-06	8.175527e-10	1.325282e+01	5.510261e+01
2.270000e-06	1.949537e-06	8.426637e-10	1.355844e+01	5.680079e+01
2.280000e-06	1.993412e-06	8.677111e-10	1.386358e+01	5.846213e+01
2.290000e-06	2.037176e-06	8.906588e-10	1.416794e+01	6.008592e+01
2.300000e-06	2.080880e-06	9.116614e-10	1.447189e+01	6.167156e+01
2.310000e-06	2.124556e-06	9.316090e-10	1.477564e+01	6.321860e+01
2.320000e-06	2.168139e-06	9.490909e-10	1.507875e+01	6.472668e+01
2.330000e-06	2.211521e-06	9.659947e-10	1.538046e+01	6.619555e+01
2.340000e-06	2.254654e-06	9.847930e-10	1.568044e+01	6.762510e+01
2.350000e-06	2.297656e-06	1.005147e-09	1.597950e+01	6.901530e+01
2.360000e-06	2.340479e-06	1.026121e-09	1.627732e+01	7.036625e+01
2.370000e-06	2.383071e-06	1.045550e-09	1.657353e+01	7.167813e+01
2.380000e-06	2.425407e-06	1.060530e-09	1.686797e+01	7.295122e+01
2.390000e-06	2.467352e-06	1.073383e-09	1.715968e+01	7.418590e+01
2.400000e-06	2.509043e-06	1.087285e-09	1.744963e+01	7.538261e+01
2.410000e-06	2.550492e-06	1.101974e-09	1.773790e+01	7.654191e+01
2.420000e-06	2.591585e-06	1.116955e-09	1.802369e+01	7.766439e+01
2.430000e-06	2.632273e-06	1.130909e-09	1.830666e+01	7.875072e+01
2.440000e-06	2.672674e-06	1.143353e-09	1.858764e+01	7.980164e+01
2.450000e-06	2.713043e-06	1.155285e-09	1.886839e+01	8.081793e+01
2.460000e-06	2.753283e-06	1.166195e-09	1.914824e+01	8.180042e+01
2.470000e-06	2.793282e-06	1.175937e-09	1.942643e+01	8.274998e+01
2.480000e-06	2.833128e-06	1.184354e-09	1.970355e+01	8.366751e+01
2.490000e-06	2.872840e-06	1.195576e-09	1.997973e+01	8.455395e+01
2.500000e-06	2.912423e-06	1.210168e-09	2.025502e+01	8.541023e+01
2.510000e-06	2.951922e-06	1.223798e-09	2.052972e+01	8.623732e+01
2.520000e-06	2.991267e-06	1.235421e-09	2.080335e+01	8.703620e+01
2.530000e-06	3.030393e-06	1.244470e-09	2.107547e+01	8.780784e+01
2.540000e-06	3.069390e-06	1.251979e-09	2.134668e+01	8.855322e+01
2.550000e-06	3.108258e-06	1.260206e-09	2.161699e+01	8.927330e+01
2.560000e-06	3.146838e-06	1.269163e-09	2.188530e+01	8.996904e+01
2.570000e-06	3.185053e-06	1.277967e-09	2.215108e+01	9.064139e+01
2.580000e-06	3.223030e-06	1.286290e-09	2.241520e+01	9.129127e+01
2.590000e-06	3.260801e-06	1.296100e-09	2.267788e+01	9.191958e+01
2.600000e-06	3.298369e-06	1.306300e-09	2.293916e+01	9.252720e+01
2.610000e-06	3.335796e-06	1.315639e-09	2.319945e+01	9.311499e+01
2.620000e-06	3.373002e-06	1.323991e-09	2.345820e+01	9.368376e+01
2.630000e-06	3.409887e-06	1.331554e-09	2.371473e+01	9.423432e+01
2.640000e-06	3.446459e-06	1.341040e-09	2.396908e+01	9.476742e+01
2.650000e-06	3.482814e-06	1.350125e-09	2.422191e+01	9.528379e+01
2.660000e-06	3.519004e-06	1.356206e-09	2.447361e+01	9.578414e+01
2.670000e-06	3.555022e-06	1.361613e-09	2.472410e+01	9.626914e+01
2.680000e-06	3.590849e-06	1.369575e-09	2.497327e+01	9.673940e+01
2.690000e-06	3.626501e-06	1.378211e-09	2.522121e+01	9.719555e+01
2.700000e-06	3.662001e-06	1.386543e-09	2.546810e+01	9.763815e+01
2.710000e-06	3.697347e-06	1.395512e-09	2.571393e+01	9.806773e+01
2.720000e-06	3.732514e-06	1.404130e-09	2.595850e+01	9.848483e+01
2.730000e-06	3.767289e-06	1.411458e-09	2.620036e+01	9.888992e+01
2.740000e-06	3.801707e-06	1.417622e-09	2.643972e+01	9.928345e+01
2.750000e-06	3.835828e-06	1.423318e-09	2.667702e+01	9.966588e+01
2.760000e-06	3.869419e-06	1.427114e-09	2.691064e+01	1.000376e+02
2.770000e-06	3.902489e-06	1.431043e-09	2.714062e+01	1.003990e+02
2.780000e-06	3.935109e-06	1.437767e-09	2.736749e+01	1.007505e+02
2.790000e-06	3.967410e-06	1.446141e-09	2.759213e+01	1.010924e+02
2.800000e-06	3.999494e-06	1.455876e-09	2.781526e+01	1.014250e+02
2.810000e-06	4.031325e-06	1.466303e-09	2.803664e+01	1.017487e+02
2.820000e-06	4.062940e-06	1.474265e-09	2.825652e+01	1.020638e+02
2.830000e-06	4.094385e-06	1.478563e-09	2.847521e+01	1.023706e+02
2.840000e-06	4.125609e-06	1.481500e-09	2.869236e+01	1.026694e+02
2.850000e-06	4.156625e-06	1.482898e-09	2.890807e+01	1.029603e+02
2.860000e-06	4.187382e-06	1.483247e-09	2.912197e+01	1.032438e+02
2.870000e-06	4.217766e-06	1.485983e-09	2.933328e+01	1.035200e+02
2.880000e-06	4.247802e-06	1.491729e-09	2.954217e+01	1.037893e+02
2.890000e-06	4.277542e-06	1.498953e-09	2.974901e+01	1.040518e+02
2.900000e-06	4.306992e-06	1.505950e-09	2.995383e+01	1.043077e+02
