# Temperatura_=_13.48
# Concentracion g/m^3_=_1620.0
# C_Vs_to_Am_M_A/Vsm_=_65563218390.804596
# pendiente_HvsI_1/m_=_3716.3
# ordenada_HvsI_A/m_=_1297.0
# frecuencia_Hz_=_135094.10459092166

Tiempo_(s)	Campo_(V.s)	Magnetizacion_(V.s)	Campo_(kA/m)	Magnetizacion_(A/m)
0.000000e+00	-5.527011e-06	-1.713375e-09	-3.837706e+01	-1.120019e+02
1.000000e-08	-5.527187e-06	-1.710085e-09	-3.837828e+01	-1.119914e+02
2.000000e-08	-5.527173e-06	-1.708113e-09	-3.837819e+01	-1.119789e+02
3.000000e-08	-5.526811e-06	-1.709791e-09	-3.837568e+01	-1.119641e+02
4.000000e-08	-5.526086e-06	-1.712580e-09	-3.837064e+01	-1.119466e+02
5.000000e-08	-5.524891e-06	-1.714237e-09	-3.836234e+01	-1.119261e+02
6.000000e-08	-5.522989e-06	-1.711393e-09	-3.834913e+01	-1.119022e+02
7.000000e-08	-5.520516e-06	-1.712127e-09	-3.833197e+01	-1.118743e+02
8.000000e-08	-5.517588e-06	-1.706911e-09	-3.831163e+01	-1.118422e+02
9.000000e-08	-5.514061e-06	-1.701966e-09	-3.828714e+01	-1.118054e+02
1.000000e-07	-5.510068e-06	-1.730145e-09	-3.825941e+01	-1.117636e+02
1.100000e-07	-5.505825e-06	-1.748445e-09	-3.822996e+01	-1.117162e+02
1.200000e-07	-5.501287e-06	-1.673257e-09	-3.819844e+01	-1.116630e+02
1.300000e-07	-5.496493e-06	-1.656594e-09	-3.816516e+01	-1.116036e+02
1.400000e-07	-5.491396e-06	-1.673259e-09	-3.812977e+01	-1.115377e+02
1.500000e-07	-5.485912e-06	-1.759066e-09	-3.809169e+01	-1.114649e+02
1.600000e-07	-5.480009e-06	-1.712570e-09	-3.805070e+01	-1.113850e+02
1.700000e-07	-5.473647e-06	-1.656454e-09	-3.800652e+01	-1.112977e+02
1.800000e-07	-5.466840e-06	-1.678122e-09	-3.795926e+01	-1.112029e+02
1.900000e-07	-5.459653e-06	-1.723119e-09	-3.790936e+01	-1.111002e+02
2.000000e-07	-5.452247e-06	-1.704782e-09	-3.785793e+01	-1.109897e+02
2.100000e-07	-5.444519e-06	-1.642702e-09	-3.780427e+01	-1.108711e+02
2.200000e-07	-5.436522e-06	-1.690975e-09	-3.774875e+01	-1.107446e+02
2.300000e-07	-5.428437e-06	-1.733349e-09	-3.769261e+01	-1.106100e+02
2.400000e-07	-5.419952e-06	-1.734462e-09	-3.763369e+01	-1.104673e+02
2.500000e-07	-5.410792e-06	-1.666400e-09	-3.757009e+01	-1.103168e+02
2.600000e-07	-5.400928e-06	-1.680669e-09	-3.750160e+01	-1.101585e+02
2.700000e-07	-5.390489e-06	-1.690058e-09	-3.742911e+01	-1.099925e+02
2.800000e-07	-5.379560e-06	-1.708073e-09	-3.735323e+01	-1.098191e+02
2.900000e-07	-5.368073e-06	-1.661452e-09	-3.727347e+01	-1.096385e+02
3.000000e-07	-5.356140e-06	-1.669288e-09	-3.719061e+01	-1.094511e+02
3.100000e-07	-5.343847e-06	-1.684443e-09	-3.710525e+01	-1.092571e+02
3.200000e-07	-5.331211e-06	-1.699806e-09	-3.701751e+01	-1.090569e+02
3.300000e-07	-5.318165e-06	-1.657085e-09	-3.692693e+01	-1.088508e+02
3.400000e-07	-5.304765e-06	-1.654830e-09	-3.683388e+01	-1.086394e+02
3.500000e-07	-5.290975e-06	-1.680092e-09	-3.673813e+01	-1.084229e+02
3.600000e-07	-5.276713e-06	-1.680701e-09	-3.663911e+01	-1.082019e+02
3.700000e-07	-5.261961e-06	-1.646886e-09	-3.653667e+01	-1.079767e+02
3.800000e-07	-5.246772e-06	-1.662118e-09	-3.643121e+01	-1.077479e+02
3.900000e-07	-5.231143e-06	-1.670233e-09	-3.632268e+01	-1.075159e+02
4.000000e-07	-5.214942e-06	-1.627434e-09	-3.621019e+01	-1.072812e+02
4.100000e-07	-5.198288e-06	-1.625913e-09	-3.609456e+01	-1.070441e+02
4.200000e-07	-5.181340e-06	-1.664856e-09	-3.597688e+01	-1.068053e+02
4.300000e-07	-5.164089e-06	-1.643134e-09	-3.585709e+01	-1.065649e+02
4.400000e-07	-5.146484e-06	-1.597635e-09	-3.573485e+01	-1.063235e+02
4.500000e-07	-5.128513e-06	-1.653748e-09	-3.561007e+01	-1.060815e+02
4.600000e-07	-5.110140e-06	-1.655329e-09	-3.548250e+01	-1.058392e+02
4.700000e-07	-5.091340e-06	-1.593540e-09	-3.535196e+01	-1.055968e+02
4.800000e-07	-5.072125e-06	-1.594935e-09	-3.521854e+01	-1.053547e+02
4.900000e-07	-5.052651e-06	-1.652910e-09	-3.508332e+01	-1.051132e+02
5.000000e-07	-5.032969e-06	-1.594018e-09	-3.494666e+01	-1.048723e+02
5.100000e-07	-5.013051e-06	-1.579893e-09	-3.480836e+01	-1.046324e+02
5.200000e-07	-4.992868e-06	-1.629601e-09	-3.466821e+01	-1.043935e+02
5.300000e-07	-4.972354e-06	-1.614283e-09	-3.452577e+01	-1.041556e+02
5.400000e-07	-4.951481e-06	-1.552538e-09	-3.438084e+01	-1.039188e+02
5.500000e-07	-4.930217e-06	-1.605548e-09	-3.423320e+01	-1.036831e+02
5.600000e-07	-4.908587e-06	-1.617672e-09	-3.408300e+01	-1.034485e+02
5.700000e-07	-4.886684e-06	-1.564993e-09	-3.393092e+01	-1.032147e+02
5.800000e-07	-4.864487e-06	-1.572279e-09	-3.377679e+01	-1.029818e+02
5.900000e-07	-4.841879e-06	-1.615710e-09	-3.361981e+01	-1.027494e+02
6.000000e-07	-4.818883e-06	-1.568671e-09	-3.346014e+01	-1.025174e+02
6.100000e-07	-4.795536e-06	-1.552613e-09	-3.329803e+01	-1.022855e+02
6.200000e-07	-4.771932e-06	-1.578659e-09	-3.313413e+01	-1.020534e+02
6.300000e-07	-4.748129e-06	-1.559927e-09	-3.296886e+01	-1.018208e+02
6.400000e-07	-4.724145e-06	-1.537239e-09	-3.280232e+01	-1.015873e+02
6.500000e-07	-4.699939e-06	-1.562046e-09	-3.263425e+01	-1.013526e+02
6.600000e-07	-4.675244e-06	-1.557571e-09	-3.246278e+01	-1.011163e+02
6.700000e-07	-4.649956e-06	-1.537679e-09	-3.228719e+01	-1.008781e+02
6.800000e-07	-4.624166e-06	-1.551964e-09	-3.210811e+01	-1.006374e+02
6.900000e-07	-4.597867e-06	-1.545530e-09	-3.192551e+01	-1.003939e+02
7.000000e-07	-4.571104e-06	-1.521056e-09	-3.173967e+01	-1.001472e+02
7.100000e-07	-4.543929e-06	-1.521404e-09	-3.155099e+01	-9.989691e+01
7.200000e-07	-4.516387e-06	-1.526190e-09	-3.135974e+01	-9.964261e+01
7.300000e-07	-4.488596e-06	-1.508855e-09	-3.116678e+01	-9.938393e+01
7.400000e-07	-4.460665e-06	-1.512916e-09	-3.097284e+01	-9.912051e+01
7.500000e-07	-4.432614e-06	-1.512604e-09	-3.077806e+01	-9.885202e+01
7.600000e-07	-4.404348e-06	-1.499388e-09	-3.058179e+01	-9.857814e+01
7.700000e-07	-4.375824e-06	-1.489356e-09	-3.038374e+01	-9.829858e+01
7.800000e-07	-4.346994e-06	-1.492451e-09	-3.018356e+01	-9.801310e+01
7.900000e-07	-4.317830e-06	-1.470978e-09	-2.998106e+01	-9.772146e+01
8.000000e-07	-4.288285e-06	-1.463355e-09	-2.977591e+01	-9.742350e+01
8.100000e-07	-4.258371e-06	-1.463826e-09	-2.956820e+01	-9.711904e+01
8.200000e-07	-4.228179e-06	-1.455345e-09	-2.935856e+01	-9.680800e+01
8.300000e-07	-4.197776e-06	-1.435237e-09	-2.914745e+01	-9.649029e+01
8.400000e-07	-4.167102e-06	-1.439935e-09	-2.893447e+01	-9.616589e+01
8.500000e-07	-4.136146e-06	-1.439534e-09	-2.871953e+01	-9.583479e+01
8.600000e-07	-4.104894e-06	-1.429811e-09	-2.850253e+01	-9.549704e+01
8.700000e-07	-4.073364e-06	-1.421503e-09	-2.828359e+01	-9.515273e+01
8.800000e-07	-4.041720e-06	-1.421057e-09	-2.806387e+01	-9.480197e+01
8.900000e-07	-4.009870e-06	-1.403869e-09	-2.784272e+01	-9.444492e+01
9.000000e-07	-3.977769e-06	-1.391920e-09	-2.761982e+01	-9.408174e+01
9.100000e-07	-3.945464e-06	-1.391079e-09	-2.739551e+01	-9.371266e+01
9.200000e-07	-3.912930e-06	-1.386736e-09	-2.716961e+01	-9.333791e+01
9.300000e-07	-3.880031e-06	-1.377583e-09	-2.694118e+01	-9.295775e+01
9.400000e-07	-3.846757e-06	-1.379115e-09	-2.671014e+01	-9.257246e+01
9.500000e-07	-3.812959e-06	-1.378198e-09	-2.647546e+01	-9.218232e+01
9.600000e-07	-3.778658e-06	-1.363908e-09	-2.623729e+01	-9.178764e+01
9.700000e-07	-3.744003e-06	-1.353742e-09	-2.599666e+01	-9.138875e+01
9.800000e-07	-3.708823e-06	-1.349783e-09	-2.575239e+01	-9.098594e+01
9.900000e-07	-3.673328e-06	-1.339751e-09	-2.550593e+01	-9.057953e+01
1.000000e-06	-3.637644e-06	-1.326519e-09	-2.525815e+01	-9.016985e+01
1.010000e-06	-3.601816e-06	-1.324916e-09	-2.500938e+01	-8.975718e+01
1.020000e-06	-3.565957e-06	-1.321424e-09	-2.476039e+01	-8.934181e+01
1.030000e-06	-3.529989e-06	-1.314054e-09	-2.451065e+01	-8.892403e+01
1.040000e-06	-3.493810e-06	-1.307783e-09	-2.425944e+01	-8.850409e+01
1.050000e-06	-3.457438e-06	-1.305749e-09	-2.400689e+01	-8.808221e+01
1.060000e-06	-3.420776e-06	-1.294577e-09	-2.375232e+01	-8.765862e+01
1.070000e-06	-3.383747e-06	-1.288794e-09	-2.349521e+01	-8.723347e+01
1.080000e-06	-3.346396e-06	-1.284768e-09	-2.323586e+01	-8.680693e+01
1.090000e-06	-3.308747e-06	-1.276689e-09	-2.297444e+01	-8.637912e+01
1.100000e-06	-3.270840e-06	-1.263249e-09	-2.271123e+01	-8.595010e+01
1.110000e-06	-3.232696e-06	-1.258561e-09	-2.244637e+01	-8.551994e+01
1.120000e-06	-3.194437e-06	-1.249955e-09	-2.218072e+01	-8.508863e+01
1.130000e-06	-3.156004e-06	-1.239677e-09	-2.191386e+01	-8.465617e+01
1.140000e-06	-3.117401e-06	-1.233227e-09	-2.164582e+01	-8.422248e+01
1.150000e-06	-3.078586e-06	-1.230303e-09	-2.137631e+01	-8.378746e+01
1.160000e-06	-3.039475e-06	-1.220918e-09	-2.110474e+01	-8.335098e+01
1.170000e-06	-3.000218e-06	-1.211857e-09	-2.083215e+01	-8.291288e+01
1.180000e-06	-2.960803e-06	-1.203711e-09	-2.055848e+01	-8.247294e+01
1.190000e-06	-2.921235e-06	-1.198206e-09	-2.028373e+01	-8.203092e+01
1.200000e-06	-2.881499e-06	-1.192377e-09	-2.000782e+01	-8.158657e+01
1.210000e-06	-2.841614e-06	-1.186105e-09	-1.973088e+01	-8.113958e+01
1.220000e-06	-2.801593e-06	-1.177048e-09	-1.945299e+01	-8.068962e+01
1.230000e-06	-2.761479e-06	-1.168407e-09	-1.917446e+01	-8.023636e+01
1.240000e-06	-2.721243e-06	-1.163086e-09	-1.889508e+01	-7.977941e+01
1.250000e-06	-2.680736e-06	-1.156899e-09	-1.861381e+01	-7.931839e+01
1.260000e-06	-2.639998e-06	-1.151251e-09	-1.833095e+01	-7.885288e+01
1.270000e-06	-2.598994e-06	-1.144608e-09	-1.804624e+01	-7.838247e+01
1.280000e-06	-2.557766e-06	-1.135811e-09	-1.775997e+01	-7.790671e+01
1.290000e-06	-2.516313e-06	-1.124373e-09	-1.747214e+01	-7.742515e+01
1.300000e-06	-2.474589e-06	-1.112308e-09	-1.718243e+01	-7.693734e+01
1.310000e-06	-2.432581e-06	-1.100514e-09	-1.689074e+01	-7.644282e+01
1.320000e-06	-2.390157e-06	-1.090658e-09	-1.659617e+01	-7.594111e+01
1.330000e-06	-2.347354e-06	-1.082344e-09	-1.629896e+01	-7.543176e+01
1.340000e-06	-2.304366e-06	-1.075953e-09	-1.600047e+01	-7.491427e+01
1.350000e-06	-2.261149e-06	-1.071910e-09	-1.570039e+01	-7.438819e+01
1.360000e-06	-2.217705e-06	-1.067572e-09	-1.539874e+01	-7.385304e+01
1.370000e-06	-2.174131e-06	-1.057383e-09	-1.509618e+01	-7.330834e+01
1.380000e-06	-2.130456e-06	-1.045025e-09	-1.479292e+01	-7.275363e+01
1.390000e-06	-2.086731e-06	-1.030069e-09	-1.448931e+01	-7.218845e+01
1.400000e-06	-2.042903e-06	-1.015824e-09	-1.418499e+01	-7.161231e+01
1.410000e-06	-1.998943e-06	-1.000933e-09	-1.387975e+01	-7.102475e+01
1.420000e-06	-1.954929e-06	-9.873608e-10	-1.357414e+01	-7.042532e+01
1.430000e-06	-1.910923e-06	-9.751613e-10	-1.326858e+01	-6.981353e+01
1.440000e-06	-1.866834e-06	-9.682746e-10	-1.296245e+01	-6.918892e+01
1.450000e-06	-1.822572e-06	-9.601936e-10	-1.265512e+01	-6.855101e+01
1.460000e-06	-1.778236e-06	-9.499027e-10	-1.234727e+01	-6.789932e+01
1.470000e-06	-1.733829e-06	-9.364996e-10	-1.203892e+01	-6.723338e+01
1.480000e-06	-1.689204e-06	-9.233619e-10	-1.172906e+01	-6.655267e+01
1.490000e-06	-1.644411e-06	-9.110707e-10	-1.141804e+01	-6.585670e+01
1.500000e-06	-1.599487e-06	-8.964412e-10	-1.110611e+01	-6.514494e+01
1.510000e-06	-1.554480e-06	-8.803528e-10	-1.079361e+01	-6.441687e+01
1.520000e-06	-1.509382e-06	-8.661250e-10	-1.048047e+01	-6.367194e+01
1.530000e-06	-1.464091e-06	-8.528432e-10	-1.016598e+01	-6.290959e+01
1.540000e-06	-1.418701e-06	-8.424360e-10	-9.850814e+00	-6.212923e+01
1.550000e-06	-1.373247e-06	-8.338207e-10	-9.535206e+00	-6.133026e+01
1.560000e-06	-1.327691e-06	-8.257960e-10	-9.218886e+00	-6.051206e+01
1.570000e-06	-1.282040e-06	-8.185096e-10	-8.901904e+00	-5.967399e+01
1.580000e-06	-1.236244e-06	-8.088359e-10	-8.583915e+00	-5.881538e+01
1.590000e-06	-1.190441e-06	-7.929347e-10	-8.265885e+00	-5.793556e+01
1.600000e-06	-1.144589e-06	-7.733822e-10	-7.947505e+00	-5.703383e+01
1.610000e-06	-1.098570e-06	-7.547161e-10	-7.627969e+00	-5.610946e+01
1.620000e-06	-1.052462e-06	-7.373789e-10	-7.307822e+00	-5.516172e+01
1.630000e-06	-1.006326e-06	-7.259648e-10	-6.987474e+00	-5.418986e+01
1.640000e-06	-9.601738e-07	-7.192130e-10	-6.667012e+00	-5.319311e+01
1.650000e-06	-9.139010e-07	-7.088657e-10	-6.345715e+00	-5.217071e+01
1.660000e-06	-8.675920e-07	-6.912702e-10	-6.024166e+00	-5.112187e+01
1.670000e-06	-8.212871e-07	-6.716753e-10	-5.702645e+00	-5.004583e+01
1.680000e-06	-7.749290e-07	-6.506659e-10	-5.380756e+00	-4.894180e+01
1.690000e-06	-7.284540e-07	-6.297401e-10	-5.058055e+00	-4.780902e+01
1.700000e-06	-6.819059e-07	-6.102829e-10	-4.734846e+00	-4.664674e+01
1.710000e-06	-6.353752e-07	-5.935716e-10	-4.411758e+00	-4.545423e+01
1.720000e-06	-5.887787e-07	-5.785352e-10	-4.088213e+00	-4.423078e+01
1.730000e-06	-5.421325e-07	-5.646358e-10	-3.764323e+00	-4.297571e+01
1.740000e-06	-4.954714e-07	-5.465977e-10	-3.440329e+00	-4.168839e+01
1.750000e-06	-4.487986e-07	-5.257749e-10	-3.116255e+00	-4.036823e+01
1.760000e-06	-4.022120e-07	-5.041149e-10	-2.792778e+00	-3.901469e+01
1.770000e-06	-3.555418e-07	-4.827221e-10	-2.468721e+00	-3.762729e+01
1.780000e-06	-3.087050e-07	-4.627017e-10	-2.143508e+00	-3.620562e+01
1.790000e-06	-2.618246e-07	-4.430413e-10	-1.817991e+00	-3.474935e+01
1.800000e-06	-2.150180e-07	-4.244004e-10	-1.492988e+00	-3.325821e+01
1.810000e-06	-1.682087e-07	-4.051994e-10	-1.167965e+00	-3.173204e+01
1.820000e-06	-1.213191e-07	-3.827684e-10	-8.423848e-01	-3.017076e+01
1.830000e-06	-7.443914e-08	-3.598224e-10	-5.168716e-01	-2.857439e+01
1.840000e-06	-2.751746e-08	-3.367756e-10	-1.910688e-01	-2.694305e+01
1.850000e-06	1.938874e-08	-3.131317e-10	1.346266e-01	-2.527700e+01
1.860000e-06	6.623082e-08	-2.901784e-10	4.598768e-01	-2.357658e+01
1.870000e-06	1.130465e-07	-2.668835e-10	7.849437e-01	-2.184226e+01
1.880000e-06	1.598972e-07	-2.427626e-10	1.110254e+00	-2.007463e+01
1.890000e-06	2.067993e-07	-2.177860e-10	1.435921e+00	-1.827442e+01
1.900000e-06	2.536946e-07	-1.920958e-10	1.761540e+00	-1.644247e+01
1.910000e-06	3.004772e-07	-1.628145e-10	2.086377e+00	-1.457976e+01
1.920000e-06	3.471716e-07	-1.316377e-10	2.410602e+00	-1.268737e+01
1.930000e-06	3.939067e-07	-1.020305e-10	2.735110e+00	-1.076655e+01
1.940000e-06	4.406808e-07	-7.479490e-11	3.059888e+00	-8.818632e+00
1.950000e-06	4.874775e-07	-4.849982e-11	3.384823e+00	-6.845106e+00
1.960000e-06	5.342030e-07	-2.402842e-11	3.709263e+00	-4.847562e+00
1.970000e-06	5.807893e-07	5.759894e-13	4.032738e+00	-2.827709e+00
1.980000e-06	6.273139e-07	2.690267e-11	4.355784e+00	-7.873699e-01
1.990000e-06	6.737946e-07	5.601592e-11	4.678524e+00	1.271532e+00
2.000000e-06	7.201884e-07	9.082489e-11	5.000662e+00	3.346974e+00
2.010000e-06	7.665211e-07	1.262560e-10	5.322376e+00	5.436843e+00
2.020000e-06	8.128203e-07	1.586883e-10	5.643856e+00	7.538946e+00
2.030000e-06	8.591078e-07	1.890464e-10	5.965256e+00	9.651016e+00
2.040000e-06	9.053985e-07	2.171006e-10	6.286677e+00	1.177072e+01
2.050000e-06	9.516264e-07	2.434492e-10	6.607662e+00	1.389568e+01
2.060000e-06	9.977450e-07	2.713507e-10	6.927889e+00	1.602346e+01
2.070000e-06	1.043778e-06	3.020584e-10	7.247522e+00	1.815161e+01
2.080000e-06	1.089767e-06	3.344240e-10	7.566851e+00	2.027766e+01
2.090000e-06	1.135655e-06	3.663118e-10	7.885475e+00	2.239910e+01
2.100000e-06	1.181436e-06	3.980515e-10	8.203354e+00	2.451347e+01
2.110000e-06	1.227211e-06	4.299483e-10	8.521197e+00	2.661829e+01
2.120000e-06	1.272947e-06	4.604540e-10	8.838767e+00	2.871111e+01
2.130000e-06	1.318548e-06	4.902449e-10	9.155397e+00	3.078954e+01
2.140000e-06	1.364011e-06	5.172098e-10	9.471073e+00	3.285122e+01
2.150000e-06	1.409288e-06	5.419295e-10	9.785456e+00	3.489384e+01
2.160000e-06	1.454450e-06	5.669740e-10	1.009904e+01	3.691520e+01
2.170000e-06	1.499567e-06	5.935911e-10	1.041231e+01	3.891315e+01
2.180000e-06	1.544605e-06	6.225790e-10	1.072504e+01	4.088563e+01
2.190000e-06	1.589609e-06	6.528581e-10	1.103752e+01	4.283070e+01
2.200000e-06	1.634503e-06	6.810494e-10	1.134925e+01	4.474651e+01
2.210000e-06	1.679161e-06	7.064037e-10	1.165934e+01	4.663134e+01
2.220000e-06	1.723669e-06	7.301724e-10	1.196838e+01	4.848359e+01
2.230000e-06	1.768085e-06	7.540725e-10	1.227678e+01	5.030177e+01
2.240000e-06	1.812422e-06	7.789897e-10	1.258464e+01	5.208456e+01
2.250000e-06	1.856662e-06	8.023454e-10	1.289182e+01	5.383075e+01
2.260000e-06	1.900719e-06	8.235088e-10	1.319773e+01	5.553929e+01
2.270000e-06	1.944707e-06	8.435734e-10	1.350316e+01	5.720924e+01
2.280000e-06	1.988692e-06	8.637933e-10	1.380858e+01	5.883986e+01
2.290000e-06	2.032599e-06	8.838771e-10	1.411345e+01	6.043050e+01
2.300000e-06	2.076385e-06	9.040869e-10	1.441748e+01	6.198070e+01
2.310000e-06	2.120095e-06	9.248245e-10	1.472098e+01	6.349011e+01
2.320000e-06	2.163709e-06	9.453546e-10	1.502382e+01	6.495854e+01
2.330000e-06	2.207213e-06	9.642649e-10	1.532589e+01	6.638593e+01
2.340000e-06	2.250604e-06	9.822603e-10	1.562717e+01	6.777235e+01
2.350000e-06	2.293769e-06	1.002197e-09	1.592690e+01	6.911801e+01
2.360000e-06	2.336700e-06	1.021363e-09	1.622498e+01	7.042324e+01
2.370000e-06	2.379432e-06	1.037526e-09	1.652170e+01	7.168847e+01
2.380000e-06	2.421951e-06	1.051497e-09	1.681693e+01	7.291425e+01
2.390000e-06	2.464187e-06	1.064588e-09	1.711020e+01	7.410125e+01
2.400000e-06	2.506041e-06	1.079175e-09	1.740082e+01	7.525020e+01
2.410000e-06	2.547550e-06	1.094815e-09	1.768903e+01	7.636193e+01
2.420000e-06	2.588774e-06	1.111500e-09	1.797527e+01	7.743735e+01
2.430000e-06	2.629737e-06	1.127541e-09	1.825970e+01	7.847744e+01
2.440000e-06	2.670505e-06	1.139892e-09	1.854278e+01	7.948324e+01
2.450000e-06	2.711011e-06	1.151235e-09	1.882403e+01	8.045581e+01
2.460000e-06	2.751287e-06	1.163527e-09	1.910369e+01	8.139629e+01
2.470000e-06	2.791456e-06	1.175891e-09	1.938261e+01	8.230583e+01
2.480000e-06	2.831464e-06	1.187289e-09	1.966040e+01	8.318561e+01
2.490000e-06	2.871260e-06	1.196686e-09	1.993673e+01	8.403681e+01
2.500000e-06	2.910946e-06	1.208811e-09	2.021229e+01	8.486063e+01
2.510000e-06	2.950533e-06	1.221177e-09	2.048717e+01	8.565827e+01
2.520000e-06	2.989927e-06	1.232068e-09	2.076070e+01	8.643090e+01
2.530000e-06	3.029096e-06	1.243257e-09	2.103267e+01	8.717969e+01
2.540000e-06	3.068111e-06	1.253094e-09	2.130357e+01	8.790578e+01
2.550000e-06	3.106932e-06	1.262915e-09	2.157313e+01	8.861029e+01
2.560000e-06	3.145439e-06	1.272052e-09	2.184050e+01	8.929428e+01
2.570000e-06	3.183701e-06	1.280392e-09	2.210618e+01	8.995880e+01
2.580000e-06	3.221797e-06	1.288947e-09	2.237070e+01	9.060483e+01
2.590000e-06	3.259705e-06	1.298543e-09	2.263392e+01	9.123333e+01
2.600000e-06	3.297422e-06	1.308872e-09	2.289581e+01	9.184518e+01
2.610000e-06	3.334966e-06	1.319817e-09	2.315649e+01	9.244123e+01
2.620000e-06	3.372217e-06	1.331040e-09	2.341514e+01	9.302226e+01
2.630000e-06	3.409094e-06	1.341100e-09	2.367121e+01	9.358900e+01
2.640000e-06	3.445711e-06	1.351268e-09	2.392546e+01	9.414213e+01
2.650000e-06	3.482170e-06	1.360507e-09	2.417861e+01	9.468228e+01
2.660000e-06	3.518419e-06	1.368798e-09	2.443031e+01	9.520999e+01
2.670000e-06	3.554498e-06	1.376942e-09	2.468082e+01	9.572580e+01
2.680000e-06	3.590465e-06	1.385617e-09	2.493056e+01	9.623016e+01
2.690000e-06	3.626321e-06	1.396152e-09	2.517953e+01	9.672348e+01
2.700000e-06	3.662046e-06	1.406146e-09	2.542759e+01	9.720613e+01
2.710000e-06	3.697560e-06	1.415433e-09	2.567418e+01	9.767844e+01
2.720000e-06	3.732816e-06	1.424601e-09	2.591898e+01	9.814067e+01
2.730000e-06	3.767763e-06	1.433389e-09	2.616164e+01	9.859307e+01
2.740000e-06	3.802265e-06	1.442093e-09	2.640120e+01	9.903586e+01
2.750000e-06	3.836303e-06	1.450348e-09	2.663755e+01	9.946922e+01
2.760000e-06	3.869974e-06	1.456708e-09	2.687135e+01	9.989329e+01
2.770000e-06	3.903210e-06	1.461118e-09	2.710212e+01	1.003082e+02
2.780000e-06	3.935982e-06	1.465582e-09	2.732968e+01	1.007141e+02
2.790000e-06	3.968344e-06	1.471947e-09	2.755438e+01	1.011110e+02
2.800000e-06	4.000420e-06	1.480914e-09	2.777711e+01	1.014991e+02
2.810000e-06	4.032394e-06	1.489119e-09	2.799911e+01	1.018783e+02
2.820000e-06	4.064239e-06	1.494756e-09	2.822024e+01	1.022489e+02
2.830000e-06	4.095870e-06	1.499703e-09	2.843986e+01	1.026108e+02
2.840000e-06	4.127209e-06	1.503071e-09	2.865747e+01	1.029641e+02
2.850000e-06	4.158230e-06	1.507164e-09	2.887287e+01	1.033089e+02
2.860000e-06	4.188982e-06	1.511216e-09	2.908640e+01	1.036452e+02
2.870000e-06	4.219417e-06	1.514781e-09	2.929772e+01	1.039731e+02
2.880000e-06	4.249559e-06	1.519542e-09	2.950701e+01	1.042928e+02
2.890000e-06	4.279373e-06	1.523488e-09	2.971403e+01	1.046042e+02
2.900000e-06	4.308889e-06	1.527665e-09	2.991897e+01	1.049075e+02
