# Temperatura_=_1.19
# Concentracion g/m^3_=_1620.0
# C_Vs_to_Am_M_A/Vsm_=_65563218390.804596
# pendiente_HvsI_1/m_=_3716.3
# ordenada_HvsI_A/m_=_1297.0
# frecuencia_Hz_=_135099.56666863203

Tiempo_(s)	Campo_(V.s)	Magnetizacion_(V.s)	Campo_(kA/m)	Magnetizacion_(A/m)
0.000000e+00	-5.525316e-06	-1.403784e-09	-3.837353e+01	-9.145102e+01
1.000000e-08	-5.525336e-06	-1.397072e-09	-3.837367e+01	-9.144336e+01
2.000000e-08	-5.525117e-06	-1.395218e-09	-3.837215e+01	-9.143767e+01
3.000000e-08	-5.524489e-06	-1.397801e-09	-3.836779e+01	-9.143362e+01
4.000000e-08	-5.523422e-06	-1.399889e-09	-3.836038e+01	-9.143085e+01
5.000000e-08	-5.521897e-06	-1.395682e-09	-3.834979e+01	-9.142896e+01
6.000000e-08	-5.519670e-06	-1.383668e-09	-3.833432e+01	-9.142755e+01
7.000000e-08	-5.516737e-06	-1.381728e-09	-3.831395e+01	-9.142617e+01
8.000000e-08	-5.513278e-06	-1.419221e-09	-3.828993e+01	-9.142440e+01
9.000000e-08	-5.509365e-06	-1.453481e-09	-3.826275e+01	-9.142176e+01
1.000000e-07	-5.505089e-06	-1.440214e-09	-3.823305e+01	-9.141780e+01
1.100000e-07	-5.500527e-06	-1.361939e-09	-3.820137e+01	-9.141204e+01
1.200000e-07	-5.495799e-06	-1.309927e-09	-3.816853e+01	-9.140403e+01
1.300000e-07	-5.490847e-06	-1.370977e-09	-3.813414e+01	-9.139331e+01
1.400000e-07	-5.485469e-06	-1.424018e-09	-3.809679e+01	-9.137944e+01
1.500000e-07	-5.479678e-06	-1.391585e-09	-3.805657e+01	-9.136198e+01
1.600000e-07	-5.473471e-06	-1.332496e-09	-3.801347e+01	-9.134052e+01
1.700000e-07	-5.466849e-06	-1.340798e-09	-3.796748e+01	-9.131468e+01
1.800000e-07	-5.459793e-06	-1.417501e-09	-3.791847e+01	-9.128410e+01
1.900000e-07	-5.452347e-06	-1.390194e-09	-3.786676e+01	-9.124844e+01
2.000000e-07	-5.444673e-06	-1.354404e-09	-3.781346e+01	-9.120742e+01
2.100000e-07	-5.436789e-06	-1.359123e-09	-3.775871e+01	-9.116077e+01
2.200000e-07	-5.428725e-06	-1.425823e-09	-3.770270e+01	-9.110828e+01
2.300000e-07	-5.420334e-06	-1.409749e-09	-3.764443e+01	-9.104975e+01
2.400000e-07	-5.411362e-06	-1.364562e-09	-3.758212e+01	-9.098506e+01
2.500000e-07	-5.401793e-06	-1.352948e-09	-3.751566e+01	-9.091411e+01
2.600000e-07	-5.391558e-06	-1.400041e-09	-3.744458e+01	-9.083683e+01
2.700000e-07	-5.380659e-06	-1.413401e-09	-3.736888e+01	-9.075324e+01
2.800000e-07	-5.369252e-06	-1.388146e-09	-3.728966e+01	-9.066335e+01
2.900000e-07	-5.357430e-06	-1.377697e-09	-3.720756e+01	-9.056724e+01
3.000000e-07	-5.345264e-06	-1.388279e-09	-3.712306e+01	-9.046503e+01
3.100000e-07	-5.332726e-06	-1.388796e-09	-3.703598e+01	-9.035687e+01
3.200000e-07	-5.319746e-06	-1.352207e-09	-3.694584e+01	-9.024296e+01
3.300000e-07	-5.306328e-06	-1.363414e-09	-3.685265e+01	-9.012352e+01
3.400000e-07	-5.292591e-06	-1.383817e-09	-3.675725e+01	-8.999882e+01
3.500000e-07	-5.278453e-06	-1.401471e-09	-3.665906e+01	-8.986913e+01
3.600000e-07	-5.263899e-06	-1.372502e-09	-3.655798e+01	-8.973477e+01
3.700000e-07	-5.248908e-06	-1.371071e-09	-3.645387e+01	-8.959608e+01
3.800000e-07	-5.233320e-06	-1.360184e-09	-3.634561e+01	-8.945340e+01
3.900000e-07	-5.217226e-06	-1.355369e-09	-3.623383e+01	-8.930709e+01
4.000000e-07	-5.200694e-06	-1.348607e-09	-3.611902e+01	-8.915754e+01
4.100000e-07	-5.183789e-06	-1.371618e-09	-3.600161e+01	-8.900511e+01
4.200000e-07	-5.166557e-06	-1.360753e-09	-3.588193e+01	-8.885019e+01
4.300000e-07	-5.149027e-06	-1.347349e-09	-3.576019e+01	-8.869315e+01
4.400000e-07	-5.131204e-06	-1.353635e-09	-3.563641e+01	-8.853435e+01
4.500000e-07	-5.112949e-06	-1.371313e-09	-3.550963e+01	-8.837417e+01
4.600000e-07	-5.094291e-06	-1.338918e-09	-3.538004e+01	-8.821293e+01
4.700000e-07	-5.075240e-06	-1.328431e-09	-3.524774e+01	-8.805095e+01
4.800000e-07	-5.055779e-06	-1.346976e-09	-3.511258e+01	-8.788854e+01
4.900000e-07	-5.036054e-06	-1.347446e-09	-3.497559e+01	-8.772598e+01
5.000000e-07	-5.016147e-06	-1.323675e-09	-3.483734e+01	-8.756350e+01
5.100000e-07	-4.996044e-06	-1.335501e-09	-3.469772e+01	-8.740132e+01
5.200000e-07	-4.975623e-06	-1.339363e-09	-3.455589e+01	-8.723962e+01
5.300000e-07	-4.954834e-06	-1.318446e-09	-3.441151e+01	-8.707856e+01
5.400000e-07	-4.933684e-06	-1.323343e-09	-3.426462e+01	-8.691824e+01
5.500000e-07	-4.912207e-06	-1.341583e-09	-3.411547e+01	-8.675875e+01
5.600000e-07	-4.890397e-06	-1.321350e-09	-3.396400e+01	-8.660012e+01
5.700000e-07	-4.868250e-06	-1.305533e-09	-3.381019e+01	-8.644236e+01
5.800000e-07	-4.845743e-06	-1.323865e-09	-3.365387e+01	-8.628543e+01
5.900000e-07	-4.822828e-06	-1.318902e-09	-3.349472e+01	-8.612927e+01
6.000000e-07	-4.799620e-06	-1.302558e-09	-3.333355e+01	-8.597377e+01
6.100000e-07	-4.776114e-06	-1.307761e-09	-3.317029e+01	-8.581880e+01
6.200000e-07	-4.752309e-06	-1.310241e-09	-3.300497e+01	-8.566420e+01
6.300000e-07	-4.728331e-06	-1.290444e-09	-3.283844e+01	-8.550977e+01
6.400000e-07	-4.704141e-06	-1.291682e-09	-3.267044e+01	-8.535530e+01
6.500000e-07	-4.679584e-06	-1.290533e-09	-3.249989e+01	-8.520054e+01
6.600000e-07	-4.654550e-06	-1.284449e-09	-3.232603e+01	-8.504523e+01
6.700000e-07	-4.629041e-06	-1.285523e-09	-3.214887e+01	-8.488910e+01
6.800000e-07	-4.602924e-06	-1.290877e-09	-3.196748e+01	-8.473185e+01
6.900000e-07	-4.576276e-06	-1.274453e-09	-3.178241e+01	-8.457318e+01
7.000000e-07	-4.549229e-06	-1.274315e-09	-3.159457e+01	-8.441280e+01
7.100000e-07	-4.521767e-06	-1.273080e-09	-3.140385e+01	-8.425038e+01
7.200000e-07	-4.494093e-06	-1.260244e-09	-3.121165e+01	-8.408562e+01
7.300000e-07	-4.466266e-06	-1.250695e-09	-3.101839e+01	-8.391823e+01
7.400000e-07	-4.438237e-06	-1.259754e-09	-3.082372e+01	-8.374790e+01
7.500000e-07	-4.409963e-06	-1.252091e-09	-3.062736e+01	-8.357435e+01
7.600000e-07	-4.381378e-06	-1.249072e-09	-3.042884e+01	-8.339731e+01
7.700000e-07	-4.352435e-06	-1.252118e-09	-3.022783e+01	-8.321652e+01
7.800000e-07	-4.323122e-06	-1.242167e-09	-3.002425e+01	-8.303176e+01
7.900000e-07	-4.293559e-06	-1.227861e-09	-2.981893e+01	-8.284282e+01
8.000000e-07	-4.263837e-06	-1.232013e-09	-2.961251e+01	-8.264950e+01
8.100000e-07	-4.233844e-06	-1.224316e-09	-2.940421e+01	-8.245164e+01
8.200000e-07	-4.203503e-06	-1.206524e-09	-2.919349e+01	-8.224911e+01
8.300000e-07	-4.172834e-06	-1.206038e-09	-2.898049e+01	-8.204180e+01
8.400000e-07	-4.141817e-06	-1.212562e-09	-2.876508e+01	-8.182962e+01
8.500000e-07	-4.110473e-06	-1.204965e-09	-2.854740e+01	-8.161254e+01
8.600000e-07	-4.078961e-06	-1.198737e-09	-2.832854e+01	-8.139052e+01
8.700000e-07	-4.047303e-06	-1.199251e-09	-2.810867e+01	-8.116357e+01
8.800000e-07	-4.015443e-06	-1.191750e-09	-2.788740e+01	-8.093173e+01
8.900000e-07	-3.983438e-06	-1.183806e-09	-2.766513e+01	-8.069505e+01
9.000000e-07	-3.951275e-06	-1.181936e-09	-2.744176e+01	-8.045361e+01
9.100000e-07	-3.918795e-06	-1.179242e-09	-2.721619e+01	-8.020753e+01
9.200000e-07	-3.885956e-06	-1.167843e-09	-2.698811e+01	-7.995694e+01
9.300000e-07	-3.852732e-06	-1.166648e-09	-2.675737e+01	-7.970197e+01
9.400000e-07	-3.819040e-06	-1.166679e-09	-2.652338e+01	-7.944279e+01
9.500000e-07	-3.784866e-06	-1.162193e-09	-2.628604e+01	-7.917958e+01
9.600000e-07	-3.750253e-06	-1.156955e-09	-2.604565e+01	-7.891253e+01
9.700000e-07	-3.715248e-06	-1.157154e-09	-2.580254e+01	-7.864183e+01
9.800000e-07	-3.679909e-06	-1.148241e-09	-2.555711e+01	-7.836769e+01
9.900000e-07	-3.644305e-06	-1.137702e-09	-2.530984e+01	-7.809031e+01
1.000000e-06	-3.608511e-06	-1.130793e-09	-2.506125e+01	-7.780989e+01
1.010000e-06	-3.572634e-06	-1.128873e-09	-2.481208e+01	-7.752664e+01
1.020000e-06	-3.536674e-06	-1.123080e-09	-2.456234e+01	-7.724076e+01
1.030000e-06	-3.500495e-06	-1.121691e-09	-2.431107e+01	-7.695242e+01
1.040000e-06	-3.464066e-06	-1.119926e-09	-2.405807e+01	-7.666181e+01
1.050000e-06	-3.427405e-06	-1.115256e-09	-2.380346e+01	-7.636909e+01
1.060000e-06	-3.390373e-06	-1.109801e-09	-2.354627e+01	-7.607440e+01
1.070000e-06	-3.353102e-06	-1.107408e-09	-2.328742e+01	-7.577787e+01
1.080000e-06	-3.315635e-06	-1.099478e-09	-2.302721e+01	-7.547961e+01
1.090000e-06	-3.277889e-06	-1.091384e-09	-2.276507e+01	-7.517972e+01
1.100000e-06	-3.239986e-06	-1.087033e-09	-2.250183e+01	-7.487825e+01
1.110000e-06	-3.201873e-06	-1.082724e-09	-2.223713e+01	-7.457524e+01
1.120000e-06	-3.163532e-06	-1.076178e-09	-2.197085e+01	-7.427073e+01
1.130000e-06	-3.124862e-06	-1.071475e-09	-2.170229e+01	-7.396469e+01
1.140000e-06	-3.085965e-06	-1.068066e-09	-2.143215e+01	-7.365710e+01
1.150000e-06	-3.046987e-06	-1.062903e-09	-2.116144e+01	-7.334791e+01
1.160000e-06	-3.007807e-06	-1.057452e-09	-2.088934e+01	-7.303703e+01
1.170000e-06	-2.968429e-06	-1.051168e-09	-2.061585e+01	-7.272436e+01
1.180000e-06	-2.928867e-06	-1.047006e-09	-2.034109e+01	-7.240977e+01
1.190000e-06	-2.889128e-06	-1.045133e-09	-2.006510e+01	-7.209311e+01
1.200000e-06	-2.849267e-06	-1.042305e-09	-1.978827e+01	-7.177421e+01
1.210000e-06	-2.809269e-06	-1.035475e-09	-1.951048e+01	-7.145287e+01
1.220000e-06	-2.769097e-06	-1.029761e-09	-1.923148e+01	-7.112889e+01
1.230000e-06	-2.728802e-06	-1.024977e-09	-1.895164e+01	-7.080203e+01
1.240000e-06	-2.688369e-06	-1.021624e-09	-1.867082e+01	-7.047206e+01
1.250000e-06	-2.647760e-06	-1.015934e-09	-1.838879e+01	-7.013870e+01
1.260000e-06	-2.606888e-06	-1.011956e-09	-1.810494e+01	-6.980169e+01
1.270000e-06	-2.565828e-06	-1.006476e-09	-1.781977e+01	-6.946073e+01
1.280000e-06	-2.524572e-06	-9.985904e-10	-1.753325e+01	-6.911554e+01
1.290000e-06	-2.482892e-06	-9.891423e-10	-1.724378e+01	-6.876579e+01
1.300000e-06	-2.440862e-06	-9.816544e-10	-1.695188e+01	-6.841118e+01
1.310000e-06	-2.398595e-06	-9.750462e-10	-1.665833e+01	-6.805137e+01
1.320000e-06	-2.355996e-06	-9.704919e-10	-1.636248e+01	-6.768605e+01
1.330000e-06	-2.313055e-06	-9.651617e-10	-1.606426e+01	-6.731486e+01
1.340000e-06	-2.269909e-06	-9.590451e-10	-1.576460e+01	-6.693746e+01
1.350000e-06	-2.226643e-06	-9.533680e-10	-1.546412e+01	-6.655350e+01
1.360000e-06	-2.183206e-06	-9.494513e-10	-1.516245e+01	-6.616261e+01
1.370000e-06	-2.139617e-06	-9.441278e-10	-1.485973e+01	-6.576445e+01
1.380000e-06	-2.095901e-06	-9.368893e-10	-1.455611e+01	-6.535862e+01
1.390000e-06	-2.052073e-06	-9.270676e-10	-1.425172e+01	-6.494476e+01
1.400000e-06	-2.008176e-06	-9.172902e-10	-1.394686e+01	-6.452247e+01
1.410000e-06	-1.964241e-06	-9.073401e-10	-1.364173e+01	-6.409136e+01
1.420000e-06	-1.920232e-06	-8.969441e-10	-1.333608e+01	-6.365101e+01
1.430000e-06	-1.876113e-06	-8.876548e-10	-1.302968e+01	-6.320100e+01
1.440000e-06	-1.831919e-06	-8.796942e-10	-1.272275e+01	-6.274090e+01
1.450000e-06	-1.787636e-06	-8.735220e-10	-1.241520e+01	-6.227025e+01
1.460000e-06	-1.743269e-06	-8.677333e-10	-1.210707e+01	-6.178858e+01
1.470000e-06	-1.698749e-06	-8.605368e-10	-1.179788e+01	-6.129541e+01
1.480000e-06	-1.654011e-06	-8.505795e-10	-1.148717e+01	-6.079023e+01
1.490000e-06	-1.609137e-06	-8.372728e-10	-1.117552e+01	-6.027250e+01
1.500000e-06	-1.564056e-06	-8.201891e-10	-1.086243e+01	-5.974168e+01
1.510000e-06	-1.518862e-06	-8.056121e-10	-1.054855e+01	-5.919719e+01
1.520000e-06	-1.473638e-06	-7.956329e-10	-1.023447e+01	-5.863842e+01
1.530000e-06	-1.428288e-06	-7.896097e-10	-9.919514e+00	-5.806474e+01
1.540000e-06	-1.382868e-06	-7.833001e-10	-9.604072e+00	-5.747549e+01
1.550000e-06	-1.337394e-06	-7.742132e-10	-9.288253e+00	-5.686999e+01
1.560000e-06	-1.291852e-06	-7.645984e-10	-8.971959e+00	-5.624753e+01
1.570000e-06	-1.246244e-06	-7.526784e-10	-8.655211e+00	-5.560736e+01
1.580000e-06	-1.200516e-06	-7.387066e-10	-8.337628e+00	-5.494871e+01
1.590000e-06	-1.154660e-06	-7.268513e-10	-8.019157e+00	-5.427080e+01
1.600000e-06	-1.108723e-06	-7.174211e-10	-7.700123e+00	-5.357280e+01
1.610000e-06	-1.062662e-06	-7.103921e-10	-7.380231e+00	-5.285388e+01
1.620000e-06	-1.016513e-06	-7.047878e-10	-7.059725e+00	-5.211317e+01
1.630000e-06	-9.703263e-07	-6.993827e-10	-6.738954e+00	-5.134980e+01
1.640000e-06	-9.241116e-07	-6.874591e-10	-6.417991e+00	-5.056288e+01
1.650000e-06	-8.778700e-07	-6.718019e-10	-6.096841e+00	-4.975151e+01
1.660000e-06	-8.315396e-07	-6.561107e-10	-5.775075e+00	-4.891479e+01
1.670000e-06	-7.850740e-07	-6.404622e-10	-5.452369e+00	-4.805182e+01
1.680000e-06	-7.385745e-07	-6.263099e-10	-5.129428e+00	-4.716169e+01
1.690000e-06	-6.920922e-07	-6.133741e-10	-4.806607e+00	-4.624352e+01
1.700000e-06	-6.455584e-07	-6.010184e-10	-4.483428e+00	-4.529644e+01
1.710000e-06	-5.990211e-07	-5.881437e-10	-4.160224e+00	-4.431959e+01
1.720000e-06	-5.524389e-07	-5.725076e-10	-3.836709e+00	-4.331215e+01
1.730000e-06	-5.057607e-07	-5.548441e-10	-3.512528e+00	-4.227335e+01
1.740000e-06	-4.589998e-07	-5.365342e-10	-3.187771e+00	-4.120243e+01
1.750000e-06	-4.121946e-07	-5.187720e-10	-2.862707e+00	-4.009871e+01
1.760000e-06	-3.653398e-07	-5.011558e-10	-2.537299e+00	-3.896156e+01
1.770000e-06	-3.184100e-07	-4.836014e-10	-2.211369e+00	-3.779039e+01
1.780000e-06	-2.714986e-07	-4.679463e-10	-1.885568e+00	-3.658472e+01
1.790000e-06	-2.246365e-07	-4.531335e-10	-1.560109e+00	-3.534411e+01
1.800000e-06	-1.777076e-07	-4.394535e-10	-1.234186e+00	-3.406824e+01
1.810000e-06	-1.306672e-07	-4.242480e-10	-9.074884e-01	-3.275685e+01
1.820000e-06	-8.370810e-08	-4.050498e-10	-5.813560e-01	-3.140979e+01
1.830000e-06	-3.683659e-08	-3.830961e-10	-2.558315e-01	-3.002703e+01
1.840000e-06	9.992263e-09	-3.597599e-10	6.939665e-02	-2.860860e+01
1.850000e-06	5.684201e-08	-3.362027e-10	3.947700e-01	-2.715470e+01
1.860000e-06	1.037245e-07	-3.150195e-10	7.203709e-01	-2.566561e+01
1.870000e-06	1.505280e-07	-2.956676e-10	1.045423e+00	-2.414174e+01
1.880000e-06	1.973708e-07	-2.780492e-10	1.370748e+00	-2.258362e+01
1.890000e-06	2.442204e-07	-2.584243e-10	1.696120e+00	-2.099191e+01
1.900000e-06	2.910136e-07	-2.339850e-10	2.021100e+00	-1.936739e+01
1.910000e-06	3.378290e-07	-2.055777e-10	2.346235e+00	-1.771097e+01
1.920000e-06	3.846470e-07	-1.739633e-10	2.671388e+00	-1.602368e+01
1.930000e-06	4.314057e-07	-1.446992e-10	2.996129e+00	-1.430669e+01
1.940000e-06	4.781307e-07	-1.188404e-10	3.320636e+00	-1.256128e+01
1.950000e-06	5.247779e-07	-9.686232e-11	3.644603e+00	-1.078885e+01
1.960000e-06	5.713001e-07	-7.748520e-11	3.967701e+00	-8.990926e+00
1.970000e-06	6.177688e-07	-5.726746e-11	4.290428e+00	-7.169139e+00
1.980000e-06	6.642463e-07	-3.437496e-11	4.613216e+00	-5.325226e+00
1.990000e-06	7.106922e-07	-6.846466e-12	4.935785e+00	-3.461028e+00
2.000000e-06	7.570454e-07	2.711782e-11	5.257710e+00	-1.578479e+00
2.010000e-06	8.033690e-07	6.155228e-11	5.579429e+00	3.204034e-01
2.020000e-06	8.496692e-07	9.154315e-11	5.900985e+00	2.233520e+00
2.030000e-06	8.958954e-07	1.161272e-10	6.222028e+00	4.158704e+00
2.040000e-06	9.420587e-07	1.391276e-10	6.542634e+00	6.093729e+00
2.050000e-06	9.882313e-07	1.626099e-10	6.863304e+00	8.036318e+00
2.060000e-06	1.034368e-06	1.887732e-10	7.183725e+00	9.984154e+00
2.070000e-06	1.080347e-06	2.182140e-10	7.503053e+00	1.193489e+01
2.080000e-06	1.126230e-06	2.462555e-10	7.821713e+00	1.388616e+01
2.090000e-06	1.172080e-06	2.762119e-10	8.140143e+00	1.583559e+01
2.100000e-06	1.217799e-06	3.082375e-10	8.457659e+00	1.778081e+01
2.110000e-06	1.263442e-06	3.382596e-10	8.774651e+00	1.971947e+01
2.120000e-06	1.309074e-06	3.675929e-10	9.091567e+00	2.164923e+01
2.130000e-06	1.354618e-06	3.960792e-10	9.407877e+00	2.356780e+01
2.140000e-06	1.400041e-06	4.201848e-10	9.723336e+00	2.547293e+01
2.150000e-06	1.445337e-06	4.423982e-10	1.003792e+01	2.736243e+01
2.160000e-06	1.490507e-06	4.650412e-10	1.035163e+01	2.923416e+01
2.170000e-06	1.535594e-06	4.894746e-10	1.066476e+01	3.108609e+01
2.180000e-06	1.580607e-06	5.156073e-10	1.097737e+01	3.291623e+01
2.190000e-06	1.625439e-06	5.431437e-10	1.128874e+01	3.472272e+01
2.200000e-06	1.670145e-06	5.712034e-10	1.159922e+01	3.650378e+01
2.210000e-06	1.714731e-06	5.983235e-10	1.190888e+01	3.825773e+01
2.220000e-06	1.759123e-06	6.234040e-10	1.221717e+01	3.998303e+01
2.230000e-06	1.803337e-06	6.450291e-10	1.252425e+01	4.167823e+01
2.240000e-06	1.847457e-06	6.633314e-10	1.283066e+01	4.334201e+01
2.250000e-06	1.891569e-06	6.805787e-10	1.313702e+01	4.497318e+01
2.260000e-06	1.935635e-06	6.998764e-10	1.344306e+01	4.657068e+01
2.270000e-06	1.979623e-06	7.222923e-10	1.374856e+01	4.813356e+01
2.280000e-06	2.023501e-06	7.454413e-10	1.405329e+01	4.966102e+01
2.290000e-06	2.067325e-06	7.665590e-10	1.435765e+01	5.115238e+01
2.300000e-06	2.111140e-06	7.863768e-10	1.466195e+01	5.260711e+01
2.310000e-06	2.154876e-06	8.055409e-10	1.496570e+01	5.402476e+01
2.320000e-06	2.198482e-06	8.226157e-10	1.526854e+01	5.540507e+01
2.330000e-06	2.241846e-06	8.403596e-10	1.556971e+01	5.674784e+01
2.340000e-06	2.284949e-06	8.590053e-10	1.586906e+01	5.805302e+01
2.350000e-06	2.327915e-06	8.768911e-10	1.616746e+01	5.932068e+01
2.360000e-06	2.370673e-06	8.937338e-10	1.646441e+01	6.055098e+01
2.370000e-06	2.413120e-06	9.093099e-10	1.675921e+01	6.174418e+01
2.380000e-06	2.455207e-06	9.231835e-10	1.705151e+01	6.290064e+01
2.390000e-06	2.496982e-06	9.371093e-10	1.734164e+01	6.402083e+01
2.400000e-06	2.538388e-06	9.516071e-10	1.762921e+01	6.510527e+01
2.410000e-06	2.579432e-06	9.649587e-10	1.791426e+01	6.615456e+01
2.420000e-06	2.620290e-06	9.764665e-10	1.819802e+01	6.716940e+01
2.430000e-06	2.660963e-06	9.885142e-10	1.848049e+01	6.815050e+01
2.440000e-06	2.701376e-06	1.001879e-09	1.876116e+01	6.909865e+01
2.450000e-06	2.741576e-06	1.014179e-09	1.904035e+01	7.001468e+01
2.460000e-06	2.781669e-06	1.026307e-09	1.931879e+01	7.089945e+01
2.470000e-06	2.821673e-06	1.037400e-09	1.959663e+01	7.175386e+01
2.480000e-06	2.861597e-06	1.047662e-09	1.987390e+01	7.257882e+01
2.490000e-06	2.901388e-06	1.059245e-09	2.015025e+01	7.337525e+01
2.500000e-06	2.940958e-06	1.069850e-09	2.042507e+01	7.414409e+01
2.510000e-06	2.980292e-06	1.078753e-09	2.069824e+01	7.488627e+01
2.520000e-06	3.019492e-06	1.087782e-09	2.097049e+01	7.560272e+01
2.530000e-06	3.058601e-06	1.096624e-09	2.124210e+01	7.629436e+01
2.540000e-06	3.097447e-06	1.105547e-09	2.151189e+01	7.696208e+01
2.550000e-06	3.136017e-06	1.114569e-09	2.177976e+01	7.760677e+01
2.560000e-06	3.174460e-06	1.124362e-09	2.204675e+01	7.822928e+01
2.570000e-06	3.212707e-06	1.134597e-09	2.231237e+01	7.883044e+01
2.580000e-06	3.250685e-06	1.145063e-09	2.257613e+01	7.941105e+01
2.590000e-06	3.288401e-06	1.154222e-09	2.283807e+01	7.997187e+01
2.600000e-06	3.325849e-06	1.160327e-09	2.309815e+01	8.051363e+01
2.610000e-06	3.363087e-06	1.165327e-09	2.335677e+01	8.103703e+01
2.620000e-06	3.400150e-06	1.171902e-09	2.361417e+01	8.154271e+01
2.630000e-06	3.436911e-06	1.181917e-09	2.386948e+01	8.203129e+01
2.640000e-06	3.473358e-06	1.193822e-09	2.412260e+01	8.250336e+01
2.650000e-06	3.509599e-06	1.203055e-09	2.437430e+01	8.295947e+01
2.660000e-06	3.545716e-06	1.209885e-09	2.462513e+01	8.340011e+01
2.670000e-06	3.581718e-06	1.215388e-09	2.487517e+01	8.382578e+01
2.680000e-06	3.617600e-06	1.219226e-09	2.512437e+01	8.423690e+01
2.690000e-06	3.653389e-06	1.224015e-09	2.537293e+01	8.463391e+01
2.700000e-06	3.689044e-06	1.230672e-09	2.562055e+01	8.501718e+01
2.710000e-06	3.724381e-06	1.238541e-09	2.586597e+01	8.538708e+01
2.720000e-06	3.759403e-06	1.248579e-09	2.610920e+01	8.574396e+01
2.730000e-06	3.794150e-06	1.257856e-09	2.635052e+01	8.608813e+01
2.740000e-06	3.828448e-06	1.263864e-09	2.658872e+01	8.641990e+01
2.750000e-06	3.862084e-06	1.265899e-09	2.682232e+01	8.673956e+01
2.760000e-06	3.895173e-06	1.267110e-09	2.705213e+01	8.704739e+01
2.770000e-06	3.927950e-06	1.269562e-09	2.727976e+01	8.734367e+01
2.780000e-06	3.960373e-06	1.274301e-09	2.750494e+01	8.762867e+01
2.790000e-06	3.992532e-06	1.282469e-09	2.772829e+01	8.790264e+01
2.800000e-06	4.024537e-06	1.290191e-09	2.795056e+01	8.816585e+01
2.810000e-06	4.056398e-06	1.294001e-09	2.817184e+01	8.841856e+01
2.820000e-06	4.088164e-06	1.295643e-09	2.839245e+01	8.866105e+01
2.830000e-06	4.119697e-06	1.296922e-09	2.861145e+01	8.889357e+01
2.840000e-06	4.150842e-06	1.297453e-09	2.882776e+01	8.911641e+01
2.850000e-06	4.181600e-06	1.297357e-09	2.904137e+01	8.932984e+01
2.860000e-06	4.211999e-06	1.300119e-09	2.925250e+01	8.953415e+01
2.870000e-06	4.242122e-06	1.307551e-09	2.946170e+01	8.972962e+01
2.880000e-06	4.272056e-06	1.313568e-09	2.966959e+01	8.991657e+01
2.890000e-06	4.301842e-06	1.315175e-09	2.987645e+01	9.009529e+01
2.900000e-06	4.331377e-06	1.312245e-09	3.008158e+01	9.026609e+01
