# Temperatura_=_10.7
# Concentracion g/m^3_=_1620.0
# C_Vs_to_Am_M_A/Vsm_=_65563218390.804596
# pendiente_HvsI_1/m_=_3716.3
# ordenada_HvsI_A/m_=_1297.0
# frecuencia_Hz_=_135097.80422040276

Tiempo_(s)	Campo_(V.s)	Magnetizacion_(V.s)	Campo_(kA/m)	Magnetizacion_(A/m)
0.000000e+00	-5.524910e-06	-1.650756e-09	-3.837583e+01	-1.080652e+02
1.000000e-08	-5.525143e-06	-1.648099e-09	-3.837745e+01	-1.080363e+02
2.000000e-08	-5.525143e-06	-1.645583e-09	-3.837746e+01	-1.080058e+02
3.000000e-08	-5.524791e-06	-1.645953e-09	-3.837501e+01	-1.079735e+02
4.000000e-08	-5.523936e-06	-1.648629e-09	-3.836907e+01	-1.079391e+02
5.000000e-08	-5.522528e-06	-1.646070e-09	-3.835929e+01	-1.079024e+02
6.000000e-08	-5.520475e-06	-1.631548e-09	-3.834503e+01	-1.078632e+02
7.000000e-08	-5.517789e-06	-1.612712e-09	-3.832637e+01	-1.078211e+02
8.000000e-08	-5.514560e-06	-1.628546e-09	-3.830394e+01	-1.077759e+02
9.000000e-08	-5.510891e-06	-1.717599e-09	-3.827846e+01	-1.077275e+02
1.000000e-07	-5.506813e-06	-1.756947e-09	-3.825013e+01	-1.076754e+02
1.100000e-07	-5.502323e-06	-1.626841e-09	-3.821895e+01	-1.076195e+02
1.200000e-07	-5.497642e-06	-1.537509e-09	-3.818644e+01	-1.075596e+02
1.300000e-07	-5.492759e-06	-1.600499e-09	-3.815251e+01	-1.074954e+02
1.400000e-07	-5.487451e-06	-1.713684e-09	-3.811565e+01	-1.074266e+02
1.500000e-07	-5.481740e-06	-1.657786e-09	-3.807597e+01	-1.073532e+02
1.600000e-07	-5.475773e-06	-1.546883e-09	-3.803453e+01	-1.072749e+02
1.700000e-07	-5.469478e-06	-1.614516e-09	-3.799081e+01	-1.071916e+02
1.800000e-07	-5.462680e-06	-1.708288e-09	-3.794359e+01	-1.071032e+02
1.900000e-07	-5.455460e-06	-1.684623e-09	-3.789344e+01	-1.070096e+02
2.000000e-07	-5.447926e-06	-1.566323e-09	-3.784111e+01	-1.069106e+02
2.100000e-07	-5.440194e-06	-1.608097e-09	-3.778740e+01	-1.068063e+02
2.200000e-07	-5.432271e-06	-1.705324e-09	-3.773237e+01	-1.066966e+02
2.300000e-07	-5.424104e-06	-1.718521e-09	-3.767564e+01	-1.065815e+02
2.400000e-07	-5.415585e-06	-1.623481e-09	-3.761646e+01	-1.064611e+02
2.500000e-07	-5.406233e-06	-1.613317e-09	-3.755151e+01	-1.063355e+02
2.600000e-07	-5.396014e-06	-1.653084e-09	-3.748053e+01	-1.062046e+02
2.700000e-07	-5.385388e-06	-1.657494e-09	-3.740672e+01	-1.060688e+02
2.800000e-07	-5.374363e-06	-1.613805e-09	-3.733014e+01	-1.059280e+02
2.900000e-07	-5.362871e-06	-1.614822e-09	-3.725032e+01	-1.057824e+02
3.000000e-07	-5.350953e-06	-1.649468e-09	-3.716753e+01	-1.056323e+02
3.100000e-07	-5.338673e-06	-1.633437e-09	-3.708224e+01	-1.054778e+02
3.200000e-07	-5.325986e-06	-1.591229e-09	-3.699411e+01	-1.053191e+02
3.300000e-07	-5.312792e-06	-1.588505e-09	-3.690247e+01	-1.051566e+02
3.400000e-07	-5.299252e-06	-1.637049e-09	-3.680842e+01	-1.049903e+02
3.500000e-07	-5.285346e-06	-1.619384e-09	-3.671183e+01	-1.048206e+02
3.600000e-07	-5.270927e-06	-1.587651e-09	-3.661168e+01	-1.046476e+02
3.700000e-07	-5.255988e-06	-1.607046e-09	-3.650791e+01	-1.044718e+02
3.800000e-07	-5.240588e-06	-1.622104e-09	-3.640094e+01	-1.042932e+02
3.900000e-07	-5.224674e-06	-1.558782e-09	-3.629040e+01	-1.041122e+02
4.000000e-07	-5.208304e-06	-1.567674e-09	-3.617670e+01	-1.039289e+02
4.100000e-07	-5.191650e-06	-1.624436e-09	-3.606102e+01	-1.037436e+02
4.200000e-07	-5.174653e-06	-1.594000e-09	-3.594296e+01	-1.035566e+02
4.300000e-07	-5.157333e-06	-1.535001e-09	-3.582265e+01	-1.033679e+02
4.400000e-07	-5.139770e-06	-1.609527e-09	-3.570066e+01	-1.031778e+02
4.500000e-07	-5.121851e-06	-1.624461e-09	-3.557620e+01	-1.029865e+02
4.600000e-07	-5.103395e-06	-1.534729e-09	-3.544800e+01	-1.027940e+02
4.700000e-07	-5.084440e-06	-1.534154e-09	-3.531635e+01	-1.026005e+02
4.800000e-07	-5.065226e-06	-1.609083e-09	-3.518289e+01	-1.024060e+02
4.900000e-07	-5.045743e-06	-1.554059e-09	-3.504755e+01	-1.022107e+02
5.000000e-07	-5.026000e-06	-1.524408e-09	-3.491042e+01	-1.020145e+02
5.100000e-07	-5.006091e-06	-1.587546e-09	-3.477214e+01	-1.018175e+02
5.200000e-07	-4.985855e-06	-1.563665e-09	-3.463158e+01	-1.016196e+02
5.300000e-07	-4.965199e-06	-1.493103e-09	-3.448810e+01	-1.014209e+02
5.400000e-07	-4.944260e-06	-1.555892e-09	-3.434266e+01	-1.012212e+02
5.500000e-07	-4.923029e-06	-1.577873e-09	-3.419519e+01	-1.010205e+02
5.600000e-07	-4.901434e-06	-1.492218e-09	-3.404519e+01	-1.008186e+02
5.700000e-07	-4.879523e-06	-1.499721e-09	-3.389300e+01	-1.006154e+02
5.800000e-07	-4.857261e-06	-1.557996e-09	-3.373837e+01	-1.004108e+02
5.900000e-07	-4.834628e-06	-1.507261e-09	-3.358116e+01	-1.002046e+02
6.000000e-07	-4.811619e-06	-1.478752e-09	-3.342134e+01	-9.999665e+01
6.100000e-07	-4.788254e-06	-1.530960e-09	-3.325905e+01	-9.978674e+01
6.200000e-07	-4.764665e-06	-1.510814e-09	-3.309520e+01	-9.957467e+01
6.300000e-07	-4.740924e-06	-1.472005e-09	-3.293030e+01	-9.936026e+01
6.400000e-07	-4.717003e-06	-1.504305e-09	-3.276414e+01	-9.914329e+01
6.500000e-07	-4.692795e-06	-1.507466e-09	-3.259599e+01	-9.892357e+01
6.600000e-07	-4.668050e-06	-1.464346e-09	-3.242411e+01	-9.870089e+01
6.700000e-07	-4.642653e-06	-1.481321e-09	-3.224771e+01	-9.847506e+01
6.800000e-07	-4.616699e-06	-1.489721e-09	-3.206743e+01	-9.824590e+01
6.900000e-07	-4.590214e-06	-1.457482e-09	-3.188347e+01	-9.801323e+01
7.000000e-07	-4.563255e-06	-1.456368e-09	-3.169621e+01	-9.777689e+01
7.100000e-07	-4.536012e-06	-1.479591e-09	-3.150698e+01	-9.753674e+01
7.200000e-07	-4.508542e-06	-1.456942e-09	-3.131618e+01	-9.729264e+01
7.300000e-07	-4.480877e-06	-1.448616e-09	-3.112402e+01	-9.704450e+01
7.400000e-07	-4.453065e-06	-1.460931e-09	-3.093084e+01	-9.679221e+01
7.500000e-07	-4.425038e-06	-1.449894e-09	-3.073616e+01	-9.653571e+01
7.600000e-07	-4.396707e-06	-1.428475e-09	-3.053937e+01	-9.627496e+01
7.700000e-07	-4.368022e-06	-1.436176e-09	-3.034013e+01	-9.600993e+01
7.800000e-07	-4.338995e-06	-1.428203e-09	-3.013851e+01	-9.574063e+01
7.900000e-07	-4.309675e-06	-1.415743e-09	-2.993485e+01	-9.546707e+01
8.000000e-07	-4.280121e-06	-1.424141e-09	-2.972958e+01	-9.518930e+01
8.100000e-07	-4.250303e-06	-1.427638e-09	-2.952246e+01	-9.490739e+01
8.200000e-07	-4.220188e-06	-1.405877e-09	-2.931328e+01	-9.462141e+01
8.300000e-07	-4.189704e-06	-1.401787e-09	-2.910154e+01	-9.433147e+01
8.400000e-07	-4.158919e-06	-1.406312e-09	-2.888771e+01	-9.403769e+01
8.500000e-07	-4.127884e-06	-1.393374e-09	-2.867214e+01	-9.374021e+01
8.600000e-07	-4.096618e-06	-1.384099e-09	-2.845496e+01	-9.343916e+01
8.700000e-07	-4.065180e-06	-1.388024e-09	-2.823660e+01	-9.313471e+01
8.800000e-07	-4.033549e-06	-1.378464e-09	-2.801689e+01	-9.282701e+01
8.900000e-07	-4.001815e-06	-1.364738e-09	-2.779647e+01	-9.251623e+01
9.000000e-07	-3.969930e-06	-1.367237e-09	-2.757500e+01	-9.220254e+01
9.100000e-07	-3.937639e-06	-1.363573e-09	-2.735071e+01	-9.188610e+01
9.200000e-07	-3.904851e-06	-1.352795e-09	-2.712296e+01	-9.156707e+01
9.300000e-07	-3.871667e-06	-1.355214e-09	-2.689247e+01	-9.124561e+01
9.400000e-07	-3.838126e-06	-1.358166e-09	-2.665949e+01	-9.092185e+01
9.500000e-07	-3.804135e-06	-1.340273e-09	-2.642339e+01	-9.059594e+01
9.600000e-07	-3.769684e-06	-1.329689e-09	-2.618410e+01	-9.026798e+01
9.700000e-07	-3.734858e-06	-1.329368e-09	-2.594219e+01	-8.993807e+01
9.800000e-07	-3.699686e-06	-1.321846e-09	-2.569789e+01	-8.960628e+01
9.900000e-07	-3.664205e-06	-1.311816e-09	-2.545144e+01	-8.927268e+01
1.000000e-06	-3.628561e-06	-1.316536e-09	-2.520386e+01	-8.893728e+01
1.010000e-06	-3.592860e-06	-1.315193e-09	-2.495588e+01	-8.860010e+01
1.020000e-06	-3.557036e-06	-1.308047e-09	-2.470705e+01	-8.826111e+01
1.030000e-06	-3.520996e-06	-1.305304e-09	-2.445672e+01	-8.792026e+01
1.040000e-06	-3.484812e-06	-1.304316e-09	-2.420538e+01	-8.757747e+01
1.050000e-06	-3.448379e-06	-1.289688e-09	-2.395232e+01	-8.723265e+01
1.060000e-06	-3.411618e-06	-1.278575e-09	-2.369698e+01	-8.688565e+01
1.070000e-06	-3.374578e-06	-1.275607e-09	-2.343970e+01	-8.653631e+01
1.080000e-06	-3.337246e-06	-1.269820e-09	-2.318039e+01	-8.618445e+01
1.090000e-06	-3.299667e-06	-1.260897e-09	-2.291937e+01	-8.582987e+01
1.100000e-06	-3.261877e-06	-1.259863e-09	-2.265689e+01	-8.547232e+01
1.110000e-06	-3.223868e-06	-1.254731e-09	-2.239288e+01	-8.511154e+01
1.120000e-06	-3.185629e-06	-1.244735e-09	-2.212727e+01	-8.474727e+01
1.130000e-06	-3.147152e-06	-1.238977e-09	-2.186001e+01	-8.437921e+01
1.140000e-06	-3.108471e-06	-1.234033e-09	-2.159133e+01	-8.400705e+01
1.150000e-06	-3.069580e-06	-1.223762e-09	-2.132120e+01	-8.363047e+01
1.160000e-06	-3.030467e-06	-1.215313e-09	-2.104952e+01	-8.324914e+01
1.170000e-06	-2.991222e-06	-1.209689e-09	-2.077693e+01	-8.286273e+01
1.180000e-06	-2.951827e-06	-1.200807e-09	-2.050329e+01	-8.247090e+01
1.190000e-06	-2.912283e-06	-1.195035e-09	-2.022862e+01	-8.207331e+01
1.200000e-06	-2.872618e-06	-1.191848e-09	-1.995311e+01	-8.166962e+01
1.210000e-06	-2.832866e-06	-1.185070e-09	-1.967699e+01	-8.125950e+01
1.220000e-06	-2.792982e-06	-1.175543e-09	-1.939995e+01	-8.084261e+01
1.230000e-06	-2.752904e-06	-1.170847e-09	-1.912158e+01	-8.041865e+01
1.240000e-06	-2.712637e-06	-1.164681e-09	-1.884189e+01	-7.998731e+01
1.250000e-06	-2.672063e-06	-1.153604e-09	-1.856006e+01	-7.954830e+01
1.260000e-06	-2.631291e-06	-1.144464e-09	-1.827686e+01	-7.910134e+01
1.270000e-06	-2.590361e-06	-1.137911e-09	-1.799256e+01	-7.864617e+01
1.280000e-06	-2.548975e-06	-1.128707e-09	-1.770509e+01	-7.818255e+01
1.290000e-06	-2.507278e-06	-1.119631e-09	-1.741546e+01	-7.771026e+01
1.300000e-06	-2.465468e-06	-1.110202e-09	-1.712506e+01	-7.722908e+01
1.310000e-06	-2.423341e-06	-1.101078e-09	-1.683244e+01	-7.673883e+01
1.320000e-06	-2.380872e-06	-1.091171e-09	-1.653745e+01	-7.623934e+01
1.330000e-06	-2.338124e-06	-1.082462e-09	-1.624053e+01	-7.573045e+01
1.340000e-06	-2.295086e-06	-1.073978e-09	-1.594158e+01	-7.521200e+01
1.350000e-06	-2.251879e-06	-1.067641e-09	-1.564147e+01	-7.468389e+01
1.360000e-06	-2.208519e-06	-1.061264e-09	-1.534030e+01	-7.414597e+01
1.370000e-06	-2.164981e-06	-1.052712e-09	-1.503788e+01	-7.359813e+01
1.380000e-06	-2.121307e-06	-1.040145e-09	-1.473453e+01	-7.304027e+01
1.390000e-06	-2.077563e-06	-1.027145e-09	-1.443068e+01	-7.247228e+01
1.400000e-06	-2.033851e-06	-1.015160e-09	-1.412706e+01	-7.189403e+01
1.410000e-06	-1.990135e-06	-1.007337e-09	-1.382341e+01	-7.130540e+01
1.420000e-06	-1.946279e-06	-1.000341e-09	-1.351879e+01	-7.070627e+01
1.430000e-06	-1.902291e-06	-9.939501e-10	-1.321325e+01	-7.009648e+01
1.440000e-06	-1.858164e-06	-9.874428e-10	-1.290674e+01	-6.947587e+01
1.450000e-06	-1.813968e-06	-9.778171e-10	-1.259976e+01	-6.884424e+01
1.460000e-06	-1.769626e-06	-9.644759e-10	-1.229176e+01	-6.820138e+01
1.470000e-06	-1.725020e-06	-9.483462e-10	-1.198193e+01	-6.754702e+01
1.480000e-06	-1.680370e-06	-9.336802e-10	-1.167180e+01	-6.688089e+01
1.490000e-06	-1.635738e-06	-9.205798e-10	-1.136178e+01	-6.620265e+01
1.500000e-06	-1.590925e-06	-9.060960e-10	-1.105051e+01	-6.551193e+01
1.510000e-06	-1.545888e-06	-8.943069e-10	-1.073769e+01	-6.480832e+01
1.520000e-06	-1.500713e-06	-8.864522e-10	-1.042390e+01	-6.409134e+01
1.530000e-06	-1.455466e-06	-8.771884e-10	-1.010962e+01	-6.336049e+01
1.540000e-06	-1.410153e-06	-8.674425e-10	-9.794873e+00	-6.261519e+01
1.550000e-06	-1.364687e-06	-8.555962e-10	-9.479069e+00	-6.185482e+01
1.560000e-06	-1.319169e-06	-8.419023e-10	-9.162902e+00	-6.107870e+01
1.570000e-06	-1.273631e-06	-8.277109e-10	-8.846595e+00	-6.028611e+01
1.580000e-06	-1.227995e-06	-8.133121e-10	-8.529611e+00	-5.947625e+01
1.590000e-06	-1.182120e-06	-7.990938e-10	-8.210962e+00	-5.864831e+01
1.600000e-06	-1.136166e-06	-7.875848e-10	-7.891767e+00	-5.780140e+01
1.610000e-06	-1.090234e-06	-7.787020e-10	-7.572727e+00	-5.693459e+01
1.620000e-06	-1.044205e-06	-7.725194e-10	-7.253011e+00	-5.604691e+01
1.630000e-06	-9.981671e-07	-7.662631e-10	-6.933234e+00	-5.513736e+01
1.640000e-06	-9.519719e-07	-7.560485e-10	-6.612364e+00	-5.420489e+01
1.650000e-06	-9.056572e-07	-7.374406e-10	-6.290664e+00	-5.324846e+01
1.660000e-06	-8.593728e-07	-7.147815e-10	-5.969174e+00	-5.226697e+01
1.670000e-06	-8.130632e-07	-6.927119e-10	-5.647509e+00	-5.125933e+01
1.680000e-06	-7.666440e-07	-6.726997e-10	-5.325083e+00	-5.022443e+01
1.690000e-06	-7.201623e-07	-6.551209e-10	-5.002223e+00	-4.916119e+01
1.700000e-06	-6.736501e-07	-6.402394e-10	-4.679150e+00	-4.806851e+01
1.710000e-06	-6.270491e-07	-6.259008e-10	-4.355462e+00	-4.694534e+01
1.720000e-06	-5.804264e-07	-6.108237e-10	-4.031622e+00	-4.579063e+01
1.730000e-06	-5.337831e-07	-5.920746e-10	-3.707639e+00	-4.460340e+01
1.740000e-06	-4.871067e-07	-5.698688e-10	-3.383426e+00	-4.338270e+01
1.750000e-06	-4.403601e-07	-5.466511e-10	-3.058726e+00	-4.212765e+01
1.760000e-06	-3.935658e-07	-5.229148e-10	-2.733694e+00	-4.083743e+01
1.770000e-06	-3.467477e-07	-5.017394e-10	-2.408498e+00	-3.951129e+01
1.780000e-06	-2.998385e-07	-4.847177e-10	-2.082668e+00	-3.814860e+01
1.790000e-06	-2.528865e-07	-4.678727e-10	-1.756541e+00	-3.674879e+01
1.800000e-06	-2.059883e-07	-4.475306e-10	-1.430788e+00	-3.531142e+01
1.810000e-06	-1.591445e-07	-4.253445e-10	-1.105412e+00	-3.383615e+01
1.820000e-06	-1.122553e-07	-4.024030e-10	-7.797217e-01	-3.232276e+01
1.830000e-06	-6.537760e-08	-3.790425e-10	-4.541105e-01	-3.077117e+01
1.840000e-06	-1.854302e-08	-3.550698e-10	-1.287992e-01	-2.918143e+01
1.850000e-06	2.834595e-08	-3.338795e-10	1.968900e-01	-2.755372e+01
1.860000e-06	7.519881e-08	-3.152133e-10	5.223283e-01	-2.588836e+01
1.870000e-06	1.220487e-07	-2.956640e-10	8.477461e-01	-2.418585e+01
1.880000e-06	1.690037e-07	-2.714483e-10	1.173894e+00	-2.244680e+01
1.890000e-06	2.159111e-07	-2.424586e-10	1.499711e+00	-2.067200e+01
1.900000e-06	2.627487e-07	-2.123415e-10	1.825043e+00	-1.886238e+01
1.910000e-06	3.095401e-07	-1.834545e-10	2.150055e+00	-1.701902e+01
1.920000e-06	3.562443e-07	-1.574382e-10	2.474461e+00	-1.514316e+01
1.930000e-06	4.029459e-07	-1.354819e-10	2.798849e+00	-1.323618e+01
1.940000e-06	4.496393e-07	-1.131731e-10	3.123179e+00	-1.129961e+01
1.950000e-06	4.962827e-07	-8.605712e-11	3.447163e+00	-9.335117e+00
1.960000e-06	5.428354e-07	-5.579317e-11	3.770516e+00	-7.344501e+00
1.970000e-06	5.893781e-07	-2.487960e-11	4.093800e+00	-5.329692e+00
1.980000e-06	6.359480e-07	6.927364e-12	4.417273e+00	-3.292737e+00
1.990000e-06	6.824439e-07	3.816922e-11	4.740232e+00	-1.235795e+00
2.000000e-06	7.288149e-07	6.815266e-11	5.062323e+00	8.388732e-01
2.010000e-06	7.750568e-07	9.616284e-11	5.383517e+00	2.928917e+00
2.020000e-06	8.213244e-07	1.233534e-10	5.704891e+00	5.031905e+00
2.030000e-06	8.676713e-07	1.510170e-10	6.026815e+00	7.145336e+00
2.040000e-06	9.139164e-07	1.774365e-10	6.348032e+00	9.266653e+00
2.050000e-06	9.600075e-07	2.047003e-10	6.668179e+00	1.139326e+01
2.060000e-06	1.006067e-06	2.364144e-10	6.988107e+00	1.352252e+01
2.070000e-06	1.052131e-06	2.715981e-10	7.308066e+00	1.565178e+01
2.080000e-06	1.098032e-06	3.063194e-10	7.626894e+00	1.777839e+01
2.090000e-06	1.143775e-06	3.381173e-10	7.944619e+00	1.989970e+01
2.100000e-06	1.189539e-06	3.674082e-10	8.262498e+00	2.201310e+01
2.110000e-06	1.235338e-06	3.950953e-10	8.580613e+00	2.411598e+01
2.120000e-06	1.281067e-06	4.223380e-10	8.898245e+00	2.620580e+01
2.130000e-06	1.326650e-06	4.494098e-10	9.214868e+00	2.828010e+01
2.140000e-06	1.372117e-06	4.768496e-10	9.530677e+00	3.033644e+01
2.150000e-06	1.417492e-06	5.056448e-10	9.845854e+00	3.237251e+01
2.160000e-06	1.462743e-06	5.349010e-10	1.016016e+01	3.438607e+01
2.170000e-06	1.507861e-06	5.637881e-10	1.047355e+01	3.637498e+01
2.180000e-06	1.552911e-06	5.903074e-10	1.078646e+01	3.833725e+01
2.190000e-06	1.597891e-06	6.157485e-10	1.109890e+01	4.027095e+01
2.200000e-06	1.642704e-06	6.398035e-10	1.141016e+01	4.217434e+01
2.210000e-06	1.687379e-06	6.627480e-10	1.172048e+01	4.404577e+01
2.220000e-06	1.731950e-06	6.878493e-10	1.203007e+01	4.588376e+01
2.230000e-06	1.776304e-06	7.144584e-10	1.233815e+01	4.768695e+01
2.240000e-06	1.820503e-06	7.389065e-10	1.264515e+01	4.945415e+01
2.250000e-06	1.864583e-06	7.612665e-10	1.295133e+01	5.118430e+01
2.260000e-06	1.908524e-06	7.833690e-10	1.325654e+01	5.287651e+01
2.270000e-06	1.952431e-06	8.054941e-10	1.356152e+01	5.453003e+01
2.280000e-06	1.996283e-06	8.285669e-10	1.386611e+01	5.614427e+01
2.290000e-06	2.040034e-06	8.506053e-10	1.417001e+01	5.771877e+01
2.300000e-06	2.083739e-06	8.697101e-10	1.447358e+01	5.925324e+01
2.310000e-06	2.127377e-06	8.885599e-10	1.477669e+01	6.074751e+01
2.320000e-06	2.170963e-06	9.079797e-10	1.507943e+01	6.220156e+01
2.330000e-06	2.214484e-06	9.261925e-10	1.538173e+01	6.361550e+01
2.340000e-06	2.257881e-06	9.431023e-10	1.568316e+01	6.498956e+01
2.350000e-06	2.301099e-06	9.609736e-10	1.598335e+01	6.632409e+01
2.360000e-06	2.344032e-06	9.816283e-10	1.628157e+01	6.761955e+01
2.370000e-06	2.386741e-06	1.002112e-09	1.657822e+01	6.887651e+01
2.380000e-06	2.429197e-06	1.018971e-09	1.687312e+01	7.009562e+01
2.390000e-06	2.471255e-06	1.033354e-09	1.716525e+01	7.127762e+01
2.400000e-06	2.512897e-06	1.046998e-09	1.745450e+01	7.242334e+01
2.410000e-06	2.554160e-06	1.060655e-09	1.774111e+01	7.353364e+01
2.420000e-06	2.595194e-06	1.074313e-09	1.802613e+01	7.460948e+01
2.430000e-06	2.635982e-06	1.086837e-09	1.830944e+01	7.565185e+01
2.440000e-06	2.676482e-06	1.099249e-09	1.859075e+01	7.666175e+01
2.450000e-06	2.716818e-06	1.113173e-09	1.887092e+01	7.764025e+01
2.460000e-06	2.756956e-06	1.127975e-09	1.914972e+01	7.858842e+01
2.470000e-06	2.796873e-06	1.142042e-09	1.942699e+01	7.950734e+01
2.480000e-06	2.836682e-06	1.154888e-09	1.970350e+01	8.039810e+01
2.490000e-06	2.876438e-06	1.166336e-09	1.997964e+01	8.126177e+01
2.500000e-06	2.916089e-06	1.177744e-09	2.025505e+01	8.209943e+01
2.510000e-06	2.955628e-06	1.189168e-09	2.052969e+01	8.291213e+01
2.520000e-06	2.995014e-06	1.200477e-09	2.080327e+01	8.370087e+01
2.530000e-06	3.034250e-06	1.211036e-09	2.107579e+01	8.446666e+01
2.540000e-06	3.073331e-06	1.221532e-09	2.134725e+01	8.521046e+01
2.550000e-06	3.112144e-06	1.234157e-09	2.161684e+01	8.593317e+01
2.560000e-06	3.150680e-06	1.247287e-09	2.188451e+01	8.663567e+01
2.570000e-06	3.188936e-06	1.258564e-09	2.215024e+01	8.731878e+01
2.580000e-06	3.226926e-06	1.267865e-09	2.241411e+01	8.798328e+01
2.590000e-06	3.264793e-06	1.277798e-09	2.267714e+01	8.862990e+01
2.600000e-06	3.302500e-06	1.287046e-09	2.293905e+01	8.925931e+01
2.610000e-06	3.339947e-06	1.295183e-09	2.319915e+01	8.987213e+01
2.620000e-06	3.377141e-06	1.303582e-09	2.345751e+01	9.046895e+01
2.630000e-06	3.414035e-06	1.313213e-09	2.371377e+01	9.105029e+01
2.640000e-06	3.450690e-06	1.323765e-09	2.396837e+01	9.161662e+01
2.650000e-06	3.487158e-06	1.333621e-09	2.422168e+01	9.216838e+01
2.660000e-06	3.523354e-06	1.342021e-09	2.447310e+01	9.270595e+01
2.670000e-06	3.559312e-06	1.347843e-09	2.472286e+01	9.322969e+01
2.680000e-06	3.595122e-06	1.352973e-09	2.497160e+01	9.373992e+01
2.690000e-06	3.630822e-06	1.359614e-09	2.521957e+01	9.423690e+01
2.700000e-06	3.666414e-06	1.366751e-09	2.546678e+01	9.472089e+01
2.710000e-06	3.701892e-06	1.373608e-09	2.571321e+01	9.519212e+01
2.720000e-06	3.737109e-06	1.380990e-09	2.595783e+01	9.565078e+01
2.730000e-06	3.771951e-06	1.386945e-09	2.619984e+01	9.609707e+01
2.740000e-06	3.806479e-06	1.390464e-09	2.643967e+01	9.653115e+01
2.750000e-06	3.840463e-06	1.393714e-09	2.667572e+01	9.695319e+01
2.760000e-06	3.873902e-06	1.398402e-09	2.690799e+01	9.736333e+01
2.770000e-06	3.906980e-06	1.403398e-09	2.713775e+01	9.776174e+01
2.780000e-06	3.939621e-06	1.408928e-09	2.736447e+01	9.814856e+01
2.790000e-06	3.971915e-06	1.417418e-09	2.758878e+01	9.852396e+01
2.800000e-06	4.003944e-06	1.425412e-09	2.781126e+01	9.888809e+01
2.810000e-06	4.035768e-06	1.429037e-09	2.803231e+01	9.924112e+01
2.820000e-06	4.067465e-06	1.430957e-09	2.825247e+01	9.958325e+01
2.830000e-06	4.098999e-06	1.432936e-09	2.847150e+01	9.991466e+01
2.840000e-06	4.130352e-06	1.434774e-09	2.868929e+01	1.002356e+02
2.850000e-06	4.161456e-06	1.438763e-09	2.890533e+01	1.005462e+02
2.860000e-06	4.192173e-06	1.443550e-09	2.911869e+01	1.008468e+02
2.870000e-06	4.222562e-06	1.449804e-09	2.932977e+01	1.011376e+02
2.880000e-06	4.252674e-06	1.454977e-09	2.953893e+01	1.014188e+02
2.890000e-06	4.282429e-06	1.457566e-09	2.974561e+01	1.016909e+02
2.900000e-06	4.311904e-06	1.459274e-09	2.995033e+01	1.019539e+02
