# Temperatura_=_-20.82
# Concentracion g/m^3_=_1620.0
# C_Vs_to_Am_M_A/Vsm_=_65563218390.804596
# pendiente_HvsI_1/m_=_3716.3
# ordenada_HvsI_A/m_=_1297.0
# frecuencia_Hz_=_135105.79472573395

Tiempo_(s)	Campo_(V.s)	Magnetizacion_(V.s)	Campo_(kA/m)	Magnetizacion_(A/m)
0.000000e+00	-5.521342e-06	-8.376215e-10	-3.836995e+01	-5.528996e+01
1.000000e-08	-5.521579e-06	-8.349184e-10	-3.837159e+01	-5.528085e+01
2.000000e-08	-5.521454e-06	-8.326467e-10	-3.837072e+01	-5.527319e+01
3.000000e-08	-5.520890e-06	-8.323772e-10	-3.836680e+01	-5.526672e+01
4.000000e-08	-5.519858e-06	-8.311835e-10	-3.835964e+01	-5.526118e+01
5.000000e-08	-5.518250e-06	-8.265297e-10	-3.834846e+01	-5.525628e+01
6.000000e-08	-5.516047e-06	-8.178525e-10	-3.833315e+01	-5.525172e+01
7.000000e-08	-5.513369e-06	-8.164109e-10	-3.831454e+01	-5.524720e+01
8.000000e-08	-5.510269e-06	-8.507034e-10	-3.829300e+01	-5.524241e+01
9.000000e-08	-5.506696e-06	-8.871883e-10	-3.826817e+01	-5.523704e+01
1.000000e-07	-5.502675e-06	-8.426676e-10	-3.824022e+01	-5.523078e+01
1.100000e-07	-5.498310e-06	-7.608802e-10	-3.820989e+01	-5.522334e+01
1.200000e-07	-5.493678e-06	-7.757929e-10	-3.817770e+01	-5.521442e+01
1.300000e-07	-5.488771e-06	-8.315989e-10	-3.814360e+01	-5.520373e+01
1.400000e-07	-5.483550e-06	-8.673739e-10	-3.810732e+01	-5.519103e+01
1.500000e-07	-5.477990e-06	-7.966466e-10	-3.806868e+01	-5.517607e+01
1.600000e-07	-5.471983e-06	-7.820177e-10	-3.802693e+01	-5.515862e+01
1.700000e-07	-5.465517e-06	-8.311490e-10	-3.798200e+01	-5.513851e+01
1.800000e-07	-5.458666e-06	-8.556997e-10	-3.793439e+01	-5.511556e+01
1.900000e-07	-5.451504e-06	-8.362505e-10	-3.788462e+01	-5.508965e+01
2.000000e-07	-5.444143e-06	-7.867767e-10	-3.783346e+01	-5.506068e+01
2.100000e-07	-5.436518e-06	-8.282210e-10	-3.778047e+01	-5.502859e+01
2.200000e-07	-5.428508e-06	-8.514618e-10	-3.772481e+01	-5.499336e+01
2.300000e-07	-5.420181e-06	-8.437500e-10	-3.766694e+01	-5.495500e+01
2.400000e-07	-5.411384e-06	-7.844051e-10	-3.760580e+01	-5.491357e+01
2.500000e-07	-5.401850e-06	-7.971496e-10	-3.753955e+01	-5.486917e+01
2.600000e-07	-5.391645e-06	-8.207213e-10	-3.746863e+01	-5.482192e+01
2.700000e-07	-5.380873e-06	-8.342600e-10	-3.739377e+01	-5.477201e+01
2.800000e-07	-5.369663e-06	-7.993066e-10	-3.731587e+01	-5.471963e+01
2.900000e-07	-5.358112e-06	-8.080944e-10	-3.723560e+01	-5.466504e+01
3.000000e-07	-5.346270e-06	-8.240681e-10	-3.715330e+01	-5.460851e+01
3.100000e-07	-5.333998e-06	-8.134343e-10	-3.706802e+01	-5.455036e+01
3.200000e-07	-5.321226e-06	-7.886519e-10	-3.697927e+01	-5.449093e+01
3.300000e-07	-5.308103e-06	-8.104782e-10	-3.688807e+01	-5.443058e+01
3.400000e-07	-5.294567e-06	-8.374707e-10	-3.679400e+01	-5.436970e+01
3.500000e-07	-5.280462e-06	-8.165471e-10	-3.669598e+01	-5.430870e+01
3.600000e-07	-5.265879e-06	-8.137592e-10	-3.659464e+01	-5.424801e+01
3.700000e-07	-5.250987e-06	-8.238816e-10	-3.649115e+01	-5.418805e+01
3.800000e-07	-5.235557e-06	-8.093425e-10	-3.638392e+01	-5.412927e+01
3.900000e-07	-5.219575e-06	-7.939106e-10	-3.627285e+01	-5.407210e+01
4.000000e-07	-5.203192e-06	-8.317013e-10	-3.615900e+01	-5.401700e+01
4.100000e-07	-5.186446e-06	-8.255343e-10	-3.604262e+01	-5.396438e+01
4.200000e-07	-5.169448e-06	-7.972834e-10	-3.592450e+01	-5.391468e+01
4.300000e-07	-5.152148e-06	-8.137376e-10	-3.580428e+01	-5.386829e+01
4.400000e-07	-5.134558e-06	-8.460568e-10	-3.568203e+01	-5.382561e+01
4.500000e-07	-5.116538e-06	-8.001766e-10	-3.555681e+01	-5.378699e+01
4.600000e-07	-5.098023e-06	-7.950565e-10	-3.542814e+01	-5.375277e+01
4.700000e-07	-5.079111e-06	-8.261384e-10	-3.529671e+01	-5.372326e+01
4.800000e-07	-5.059828e-06	-8.147748e-10	-3.516270e+01	-5.369870e+01
4.900000e-07	-5.040364e-06	-7.843331e-10	-3.502745e+01	-5.367935e+01
5.000000e-07	-5.020797e-06	-8.268818e-10	-3.489146e+01	-5.366539e+01
5.100000e-07	-5.000910e-06	-8.237666e-10	-3.475326e+01	-5.365696e+01
5.200000e-07	-4.980614e-06	-7.914753e-10	-3.461222e+01	-5.365417e+01
5.300000e-07	-4.960009e-06	-8.142421e-10	-3.446902e+01	-5.365709e+01
5.400000e-07	-4.939061e-06	-8.421404e-10	-3.432345e+01	-5.366571e+01
5.500000e-07	-4.917622e-06	-7.945976e-10	-3.417446e+01	-5.368002e+01
5.600000e-07	-4.895818e-06	-7.870786e-10	-3.402294e+01	-5.369993e+01
5.700000e-07	-4.873795e-06	-8.169476e-10	-3.386989e+01	-5.372532e+01
5.800000e-07	-4.851403e-06	-8.060061e-10	-3.371428e+01	-5.375602e+01
5.900000e-07	-4.828613e-06	-7.963374e-10	-3.355590e+01	-5.379183e+01
6.000000e-07	-4.805634e-06	-8.294771e-10	-3.339622e+01	-5.383250e+01
6.100000e-07	-4.782420e-06	-8.246594e-10	-3.323489e+01	-5.387774e+01
6.200000e-07	-4.758925e-06	-7.992197e-10	-3.307161e+01	-5.392723e+01
6.300000e-07	-4.735250e-06	-8.124234e-10	-3.290709e+01	-5.398062e+01
6.400000e-07	-4.711276e-06	-8.160336e-10	-3.274048e+01	-5.403755e+01
6.500000e-07	-4.686833e-06	-7.970776e-10	-3.257062e+01	-5.409759e+01
6.600000e-07	-4.661911e-06	-8.083311e-10	-3.239743e+01	-5.416035e+01
6.700000e-07	-4.636535e-06	-8.340132e-10	-3.222108e+01	-5.422537e+01
6.800000e-07	-4.610630e-06	-8.227740e-10	-3.204105e+01	-5.429222e+01
6.900000e-07	-4.584247e-06	-8.175545e-10	-3.185771e+01	-5.436044e+01
7.000000e-07	-4.557461e-06	-8.275885e-10	-3.167156e+01	-5.442959e+01
7.100000e-07	-4.530336e-06	-8.228882e-10	-3.148306e+01	-5.449921e+01
7.200000e-07	-4.502984e-06	-8.051211e-10	-3.129298e+01	-5.456887e+01
7.300000e-07	-4.475407e-06	-8.133224e-10	-3.110134e+01	-5.463813e+01
7.400000e-07	-4.447617e-06	-8.175576e-10	-3.090822e+01	-5.470659e+01
7.500000e-07	-4.419592e-06	-8.159965e-10	-3.071346e+01	-5.477385e+01
7.600000e-07	-4.391238e-06	-8.191867e-10	-3.051642e+01	-5.483955e+01
7.700000e-07	-4.362578e-06	-8.311690e-10	-3.031725e+01	-5.490335e+01
7.800000e-07	-4.333617e-06	-8.243640e-10	-3.011598e+01	-5.496494e+01
7.900000e-07	-4.304374e-06	-8.227113e-10	-2.991276e+01	-5.502405e+01
8.000000e-07	-4.274856e-06	-8.235631e-10	-2.970764e+01	-5.508044e+01
8.100000e-07	-4.245041e-06	-8.188809e-10	-2.950044e+01	-5.513390e+01
8.200000e-07	-4.214911e-06	-8.103664e-10	-2.929105e+01	-5.518428e+01
8.300000e-07	-4.184423e-06	-8.198829e-10	-2.907918e+01	-5.523145e+01
8.400000e-07	-4.153655e-06	-8.264007e-10	-2.886536e+01	-5.527532e+01
8.500000e-07	-4.122632e-06	-8.282821e-10	-2.864977e+01	-5.531587e+01
8.600000e-07	-4.091373e-06	-8.331485e-10	-2.843254e+01	-5.535308e+01
8.700000e-07	-4.059966e-06	-8.351657e-10	-2.821428e+01	-5.538698e+01
8.800000e-07	-4.028397e-06	-8.247208e-10	-2.799489e+01	-5.541766e+01
8.900000e-07	-3.996610e-06	-8.200538e-10	-2.777400e+01	-5.544521e+01
9.000000e-07	-3.964540e-06	-8.216927e-10	-2.755113e+01	-5.546979e+01
9.100000e-07	-3.932069e-06	-8.200322e-10	-2.732547e+01	-5.549155e+01
9.200000e-07	-3.899144e-06	-8.219016e-10	-2.709666e+01	-5.551070e+01
9.300000e-07	-3.865885e-06	-8.295759e-10	-2.686553e+01	-5.552745e+01
9.400000e-07	-3.832234e-06	-8.319077e-10	-2.663168e+01	-5.554205e+01
9.500000e-07	-3.798117e-06	-8.287521e-10	-2.639459e+01	-5.555475e+01
9.600000e-07	-3.763593e-06	-8.311318e-10	-2.615466e+01	-5.556582e+01
9.700000e-07	-3.728673e-06	-8.293115e-10	-2.591199e+01	-5.557553e+01
9.800000e-07	-3.693534e-06	-8.242145e-10	-2.566780e+01	-5.558416e+01
9.900000e-07	-3.658238e-06	-8.210807e-10	-2.542251e+01	-5.559199e+01
1.000000e-06	-3.622675e-06	-8.230799e-10	-2.517537e+01	-5.559930e+01
1.010000e-06	-3.586924e-06	-8.218414e-10	-2.492693e+01	-5.560633e+01
1.020000e-06	-3.551053e-06	-8.240312e-10	-2.467764e+01	-5.561335e+01
1.030000e-06	-3.515032e-06	-8.272458e-10	-2.442732e+01	-5.562059e+01
1.040000e-06	-3.478771e-06	-8.289664e-10	-2.417533e+01	-5.562824e+01
1.050000e-06	-3.442243e-06	-8.251411e-10	-2.392148e+01	-5.563651e+01
1.060000e-06	-3.405445e-06	-8.237773e-10	-2.366576e+01	-5.564554e+01
1.070000e-06	-3.368397e-06	-8.202435e-10	-2.340830e+01	-5.565547e+01
1.080000e-06	-3.331113e-06	-8.172892e-10	-2.314919e+01	-5.566640e+01
1.090000e-06	-3.293604e-06	-8.164967e-10	-2.288853e+01	-5.567837e+01
1.100000e-06	-3.255888e-06	-8.211313e-10	-2.262643e+01	-5.569141e+01
1.110000e-06	-3.217888e-06	-8.207626e-10	-2.236235e+01	-5.570552e+01
1.120000e-06	-3.179676e-06	-8.181992e-10	-2.209680e+01	-5.572064e+01
1.130000e-06	-3.141301e-06	-8.164092e-10	-2.183012e+01	-5.573668e+01
1.140000e-06	-3.102683e-06	-8.155393e-10	-2.156175e+01	-5.575351e+01
1.150000e-06	-3.063879e-06	-8.142912e-10	-2.129208e+01	-5.577097e+01
1.160000e-06	-3.024923e-06	-8.160242e-10	-2.102136e+01	-5.578885e+01
1.170000e-06	-2.985744e-06	-8.169367e-10	-2.074909e+01	-5.580692e+01
1.180000e-06	-2.946351e-06	-8.173593e-10	-2.047534e+01	-5.582490e+01
1.190000e-06	-2.906797e-06	-8.208792e-10	-2.020046e+01	-5.584250e+01
1.200000e-06	-2.867151e-06	-8.252099e-10	-1.992494e+01	-5.585939e+01
1.210000e-06	-2.827389e-06	-8.239190e-10	-1.964863e+01	-5.587521e+01
1.220000e-06	-2.787447e-06	-8.196395e-10	-1.937105e+01	-5.588957e+01
1.230000e-06	-2.747367e-06	-8.199915e-10	-1.909252e+01	-5.590210e+01
1.240000e-06	-2.707116e-06	-8.218727e-10	-1.881280e+01	-5.591236e+01
1.250000e-06	-2.666622e-06	-8.218924e-10	-1.853139e+01	-5.591993e+01
1.260000e-06	-2.625891e-06	-8.218085e-10	-1.824833e+01	-5.592438e+01
1.270000e-06	-2.584910e-06	-8.224214e-10	-1.796354e+01	-5.592527e+01
1.280000e-06	-2.543726e-06	-8.178282e-10	-1.767734e+01	-5.592214e+01
1.290000e-06	-2.502224e-06	-8.136003e-10	-1.738892e+01	-5.591456e+01
1.300000e-06	-2.460344e-06	-8.116166e-10	-1.709788e+01	-5.590208e+01
1.310000e-06	-2.418107e-06	-8.106778e-10	-1.680436e+01	-5.588428e+01
1.320000e-06	-2.375470e-06	-8.094926e-10	-1.650806e+01	-5.586072e+01
1.330000e-06	-2.332526e-06	-8.099021e-10	-1.620963e+01	-5.583101e+01
1.340000e-06	-2.289428e-06	-8.087773e-10	-1.591012e+01	-5.579473e+01
1.350000e-06	-2.246223e-06	-8.092039e-10	-1.560987e+01	-5.575151e+01
1.360000e-06	-2.202879e-06	-8.110873e-10	-1.530866e+01	-5.570099e+01
1.370000e-06	-2.159436e-06	-8.115701e-10	-1.500676e+01	-5.564281e+01
1.380000e-06	-2.115907e-06	-8.094605e-10	-1.470426e+01	-5.557664e+01
1.390000e-06	-2.072290e-06	-8.080739e-10	-1.440114e+01	-5.550218e+01
1.400000e-06	-2.028615e-06	-8.050091e-10	-1.409763e+01	-5.541913e+01
1.410000e-06	-1.984881e-06	-7.993781e-10	-1.379371e+01	-5.532722e+01
1.420000e-06	-1.941071e-06	-7.933760e-10	-1.348925e+01	-5.522618e+01
1.430000e-06	-1.897174e-06	-7.928272e-10	-1.318420e+01	-5.511577e+01
1.440000e-06	-1.853129e-06	-7.952146e-10	-1.287812e+01	-5.499575e+01
1.450000e-06	-1.808930e-06	-7.955489e-10	-1.257095e+01	-5.486589e+01
1.460000e-06	-1.764547e-06	-7.935127e-10	-1.226252e+01	-5.472599e+01
1.470000e-06	-1.719972e-06	-7.893090e-10	-1.195275e+01	-5.457581e+01
1.480000e-06	-1.675233e-06	-7.827041e-10	-1.164184e+01	-5.441515e+01
1.490000e-06	-1.630407e-06	-7.755076e-10	-1.133033e+01	-5.424378e+01
1.500000e-06	-1.585518e-06	-7.692904e-10	-1.101838e+01	-5.406148e+01
1.510000e-06	-1.540575e-06	-7.658026e-10	-1.070605e+01	-5.386801e+01
1.520000e-06	-1.495615e-06	-7.655878e-10	-1.039361e+01	-5.366310e+01
1.530000e-06	-1.450480e-06	-7.645921e-10	-1.007995e+01	-5.344650e+01
1.540000e-06	-1.405237e-06	-7.598715e-10	-9.765534e+00	-5.321789e+01
1.550000e-06	-1.359911e-06	-7.533243e-10	-9.450548e+00	-5.297696e+01
1.560000e-06	-1.314384e-06	-7.468676e-10	-9.134163e+00	-5.272336e+01
1.570000e-06	-1.268814e-06	-7.409271e-10	-8.817481e+00	-5.245669e+01
1.580000e-06	-1.223197e-06	-7.362319e-10	-8.500472e+00	-5.217653e+01
1.590000e-06	-1.177454e-06	-7.314261e-10	-8.182586e+00	-5.188242e+01
1.600000e-06	-1.131673e-06	-7.278488e-10	-7.864435e+00	-5.157385e+01
1.610000e-06	-1.085789e-06	-7.253815e-10	-7.545567e+00	-5.125028e+01
1.620000e-06	-1.039761e-06	-7.220435e-10	-7.225705e+00	-5.091112e+01
1.630000e-06	-9.936729e-07	-7.173686e-10	-6.905419e+00	-5.055573e+01
1.640000e-06	-9.474783e-07	-7.125590e-10	-6.584394e+00	-5.018344e+01
1.650000e-06	-9.011848e-07	-7.049476e-10	-6.262683e+00	-4.979352e+01
1.660000e-06	-8.548772e-07	-6.958878e-10	-5.940873e+00	-4.938521e+01
1.670000e-06	-8.085622e-07	-6.867212e-10	-5.619013e+00	-4.895771e+01
1.680000e-06	-7.622954e-07	-6.789533e-10	-5.297486e+00	-4.851017e+01
1.690000e-06	-7.160488e-07	-6.715274e-10	-4.976101e+00	-4.804173e+01
1.700000e-06	-6.696752e-07	-6.643380e-10	-4.653833e+00	-4.755148e+01
1.710000e-06	-6.231987e-07	-6.585236e-10	-4.330849e+00	-4.703849e+01
1.720000e-06	-5.766886e-07	-6.535037e-10	-4.007633e+00	-4.650181e+01
1.730000e-06	-5.301069e-07	-6.461577e-10	-3.683918e+00	-4.594048e+01
1.740000e-06	-4.834815e-07	-6.361210e-10	-3.359900e+00	-4.535353e+01
1.750000e-06	-4.368599e-07	-6.240214e-10	-3.035909e+00	-4.474000e+01
1.760000e-06	-3.902233e-07	-6.107462e-10	-2.711813e+00	-4.409892e+01
1.770000e-06	-3.435812e-07	-5.976745e-10	-2.387679e+00	-4.342935e+01
1.780000e-06	-2.968484e-07	-5.864042e-10	-2.062915e+00	-4.273036e+01
1.790000e-06	-2.500455e-07	-5.771832e-10	-1.737663e+00	-4.200107e+01
1.800000e-06	-2.032943e-07	-5.690907e-10	-1.412771e+00	-4.124063e+01
1.810000e-06	-1.565447e-07	-5.604191e-10	-1.087890e+00	-4.044823e+01
1.820000e-06	-1.097665e-07	-5.498466e-10	-7.628099e-01	-3.962314e+01
1.830000e-06	-6.293848e-08	-5.368897e-10	-4.373839e-01	-3.876467e+01
1.840000e-06	-1.606118e-08	-5.225859e-10	-1.116153e-01	-3.787224e+01
1.850000e-06	3.074072e-08	-5.086828e-10	2.136292e-01	-3.694532e+01
1.860000e-06	7.746752e-08	-4.949884e-10	5.383518e-01	-3.598350e+01
1.870000e-06	1.242362e-07	-4.805785e-10	8.633656e-01	-3.498644e+01
1.880000e-06	1.710278e-07	-4.654267e-10	1.188538e+00	-3.395394e+01
1.890000e-06	2.177809e-07	-4.504302e-10	1.513444e+00	-3.288588e+01
1.900000e-06	2.645526e-07	-4.335978e-10	1.838479e+00	-3.178228e+01
1.910000e-06	3.113739e-07	-4.146714e-10	2.163858e+00	-3.064329e+01
1.920000e-06	3.581748e-07	-3.954722e-10	2.489096e+00	-2.946917e+01
1.930000e-06	4.048821e-07	-3.772741e-10	2.813682e+00	-2.826033e+01
1.940000e-06	4.515651e-07	-3.596909e-10	3.138101e+00	-2.701730e+01
1.950000e-06	4.983025e-07	-3.412808e-10	3.462897e+00	-2.574075e+01
1.960000e-06	5.450373e-07	-3.230407e-10	3.787675e+00	-2.443150e+01
1.970000e-06	5.916020e-07	-3.075551e-10	4.111272e+00	-2.309051e+01
1.980000e-06	6.380462e-07	-2.913568e-10	4.434030e+00	-2.171886e+01
1.990000e-06	6.844712e-07	-2.707528e-10	4.756656e+00	-2.031777e+01
2.000000e-06	7.307609e-07	-2.453585e-10	5.078341e+00	-1.888861e+01
2.010000e-06	7.769987e-07	-2.187548e-10	5.399665e+00	-1.743285e+01
2.020000e-06	8.231865e-07	-1.949025e-10	5.720642e+00	-1.595212e+01
2.030000e-06	8.693671e-07	-1.759299e-10	6.041569e+00	-1.444813e+01
2.040000e-06	9.156059e-07	-1.597540e-10	6.362900e+00	-1.292272e+01
2.050000e-06	9.617874e-07	-1.423295e-10	6.683834e+00	-1.137784e+01
2.060000e-06	1.007882e-06	-1.221149e-10	7.004166e+00	-9.815513e+00
2.070000e-06	1.053884e-06	-9.821381e-11	7.323851e+00	-8.237869e+00
2.080000e-06	1.099752e-06	-7.307303e-11	7.642602e+00	-6.647102e+00
2.090000e-06	1.145501e-06	-4.951360e-11	7.960530e+00	-5.045475e+00
2.100000e-06	1.191211e-06	-2.618369e-11	8.278188e+00	-3.435304e+00
2.110000e-06	1.236874e-06	-3.248623e-12	8.595520e+00	-1.818949e+00
2.120000e-06	1.282399e-06	1.840480e-11	8.911885e+00	-1.988007e-01
2.130000e-06	1.327795e-06	3.839148e-11	9.227364e+00	1.422731e+00
2.140000e-06	1.373125e-06	5.704857e-11	9.542380e+00	3.043230e+00
2.150000e-06	1.418382e-06	7.607595e-11	9.856887e+00	4.660283e+00
2.160000e-06	1.463598e-06	9.616948e-11	1.017111e+01	6.271495e+00
2.170000e-06	1.508736e-06	1.179159e-10	1.048479e+01	7.874501e+00
2.180000e-06	1.553676e-06	1.417262e-10	1.079710e+01	9.466976e+00
2.190000e-06	1.598498e-06	1.665161e-10	1.110858e+01	1.104665e+01
2.200000e-06	1.643247e-06	1.905348e-10	1.141956e+01	1.261130e+01
2.210000e-06	1.687856e-06	2.125693e-10	1.172956e+01	1.415881e+01
2.220000e-06	1.732330e-06	2.322543e-10	1.203863e+01	1.568712e+01
2.230000e-06	1.776644e-06	2.507279e-10	1.234659e+01	1.719428e+01
2.240000e-06	1.820769e-06	2.684091e-10	1.265323e+01	1.867841e+01
2.250000e-06	1.864745e-06	2.858050e-10	1.295883e+01	2.013778e+01
2.260000e-06	1.908634e-06	3.046616e-10	1.326384e+01	2.157076e+01
2.270000e-06	1.952478e-06	3.234934e-10	1.356853e+01	2.297584e+01
2.280000e-06	1.996265e-06	3.419693e-10	1.387282e+01	2.435163e+01
2.290000e-06	2.040020e-06	3.602020e-10	1.417689e+01	2.569688e+01
2.300000e-06	2.083731e-06	3.767898e-10	1.448065e+01	2.701049e+01
2.310000e-06	2.127324e-06	3.926871e-10	1.478360e+01	2.829146e+01
2.320000e-06	2.170822e-06	4.086392e-10	1.508588e+01	2.953897e+01
2.330000e-06	2.214279e-06	4.266393e-10	1.538788e+01	3.075230e+01
2.340000e-06	2.257625e-06	4.450532e-10	1.568911e+01	3.193090e+01
2.350000e-06	2.300732e-06	4.624749e-10	1.598868e+01	3.307434e+01
2.360000e-06	2.343649e-06	4.790658e-10	1.628692e+01	3.418232e+01
2.370000e-06	2.386320e-06	4.943601e-10	1.658346e+01	3.525469e+01
2.380000e-06	2.428685e-06	5.076325e-10	1.687787e+01	3.629139e+01
2.390000e-06	2.470894e-06	5.202308e-10	1.717120e+01	3.729253e+01
2.400000e-06	2.512888e-06	5.342637e-10	1.746304e+01	3.825828e+01
2.410000e-06	2.554503e-06	5.485638e-10	1.775223e+01	3.918897e+01
2.420000e-06	2.595733e-06	5.615341e-10	1.803876e+01	4.008501e+01
2.430000e-06	2.636612e-06	5.727463e-10	1.832284e+01	4.094689e+01
2.440000e-06	2.677242e-06	5.817487e-10	1.860519e+01	4.177521e+01
2.450000e-06	2.717714e-06	5.901692e-10	1.888645e+01	4.257065e+01
2.460000e-06	2.757940e-06	6.006655e-10	1.916600e+01	4.333394e+01
2.470000e-06	2.797895e-06	6.113110e-10	1.944366e+01	4.406589e+01
2.480000e-06	2.837661e-06	6.204982e-10	1.972001e+01	4.476736e+01
2.490000e-06	2.877307e-06	6.302459e-10	1.999552e+01	4.543926e+01
2.500000e-06	2.916865e-06	6.404724e-10	2.027042e+01	4.608252e+01
2.510000e-06	2.956303e-06	6.487929e-10	2.054449e+01	4.669811e+01
2.520000e-06	2.995618e-06	6.552057e-10	2.081771e+01	4.728703e+01
2.530000e-06	3.034859e-06	6.615468e-10	2.109041e+01	4.785026e+01
2.540000e-06	3.073874e-06	6.682805e-10	2.136154e+01	4.838883e+01
2.550000e-06	3.112561e-06	6.752845e-10	2.163039e+01	4.890373e+01
2.560000e-06	3.150986e-06	6.824929e-10	2.189743e+01	4.939596e+01
2.570000e-06	3.189140e-06	6.904267e-10	2.216257e+01	4.986650e+01
2.580000e-06	3.227098e-06	6.981831e-10	2.242636e+01	5.031630e+01
2.590000e-06	3.264878e-06	7.043768e-10	2.268890e+01	5.074630e+01
2.600000e-06	3.302454e-06	7.092969e-10	2.295003e+01	5.115740e+01
2.610000e-06	3.339820e-06	7.138251e-10	2.320970e+01	5.155046e+01
2.620000e-06	3.377055e-06	7.184211e-10	2.346847e+01	5.192632e+01
2.630000e-06	3.414083e-06	7.236123e-10	2.372579e+01	5.228576e+01
2.640000e-06	3.450781e-06	7.298880e-10	2.398081e+01	5.262953e+01
2.650000e-06	3.487153e-06	7.357467e-10	2.423358e+01	5.295834e+01
2.660000e-06	3.523215e-06	7.410924e-10	2.448419e+01	5.327284e+01
2.670000e-06	3.559133e-06	7.464395e-10	2.473380e+01	5.357363e+01
2.680000e-06	3.594944e-06	7.513207e-10	2.498266e+01	5.386130e+01
2.690000e-06	3.630591e-06	7.553699e-10	2.523039e+01	5.413637e+01
2.700000e-06	3.666122e-06	7.593320e-10	2.547730e+01	5.439931e+01
2.710000e-06	3.701510e-06	7.650490e-10	2.572323e+01	5.465056e+01
2.720000e-06	3.736649e-06	7.692202e-10	2.596742e+01	5.489053e+01
2.730000e-06	3.771495e-06	7.731996e-10	2.620958e+01	5.511958e+01
2.740000e-06	3.805943e-06	7.780752e-10	2.644898e+01	5.533804e+01
2.750000e-06	3.839958e-06	7.815364e-10	2.668536e+01	5.554621e+01
2.760000e-06	3.873536e-06	7.839073e-10	2.691870e+01	5.574436e+01
2.770000e-06	3.906674e-06	7.871527e-10	2.714899e+01	5.593274e+01
2.780000e-06	3.939306e-06	7.914958e-10	2.737576e+01	5.611157e+01
2.790000e-06	3.971521e-06	7.941874e-10	2.759964e+01	5.628105e+01
2.800000e-06	4.003495e-06	7.980260e-10	2.782184e+01	5.644139e+01
2.810000e-06	4.035316e-06	8.011920e-10	2.804298e+01	5.659275e+01
2.820000e-06	4.067044e-06	8.029982e-10	2.826347e+01	5.673531e+01
2.830000e-06	4.098555e-06	8.051703e-10	2.848245e+01	5.686924e+01
2.840000e-06	4.129821e-06	8.064168e-10	2.869973e+01	5.699470e+01
2.850000e-06	4.160790e-06	8.048398e-10	2.891495e+01	5.711184e+01
2.860000e-06	4.191377e-06	8.020877e-10	2.912750e+01	5.722085e+01
2.870000e-06	4.221684e-06	8.032678e-10	2.933812e+01	5.732187e+01
2.880000e-06	4.251745e-06	8.066557e-10	2.954702e+01	5.741510e+01
2.890000e-06	4.281514e-06	8.084671e-10	2.975390e+01	5.750070e+01
2.900000e-06	4.310994e-06	8.103404e-10	2.995877e+01	5.757888e+01
