# Temperatura_=_-5.09
# Concentracion g/m^3_=_1620.0
# C_Vs_to_Am_M_A/Vsm_=_65563218390.804596
# pendiente_HvsI_1/m_=_3716.3
# ordenada_HvsI_A/m_=_1297.0
# frecuencia_Hz_=_135101.25366919476

Tiempo_(s)	Campo_(V.s)	Magnetizacion_(V.s)	Campo_(kA/m)	Magnetizacion_(A/m)
0.000000e+00	-5.540345e-06	-1.317172e-09	-3.836993e+01	-8.677501e+01
1.000000e-08	-5.540459e-06	-1.314897e-09	-3.837072e+01	-8.672992e+01
2.000000e-08	-5.540314e-06	-1.315445e-09	-3.836971e+01	-8.668377e+01
3.000000e-08	-5.539720e-06	-1.316803e-09	-3.836560e+01	-8.663643e+01
4.000000e-08	-5.538547e-06	-1.317292e-09	-3.835748e+01	-8.658773e+01
5.000000e-08	-5.536802e-06	-1.315179e-09	-3.834539e+01	-8.653755e+01
6.000000e-08	-5.534543e-06	-1.314422e-09	-3.832974e+01	-8.648573e+01
7.000000e-08	-5.531672e-06	-1.320684e-09	-3.830986e+01	-8.643214e+01
8.000000e-08	-5.528250e-06	-1.343886e-09	-3.828616e+01	-8.637665e+01
9.000000e-08	-5.524357e-06	-1.329783e-09	-3.825920e+01	-8.631915e+01
1.000000e-07	-5.520126e-06	-1.301812e-09	-3.822990e+01	-8.625950e+01
1.100000e-07	-5.515725e-06	-1.293695e-09	-3.819942e+01	-8.619762e+01
1.200000e-07	-5.511032e-06	-1.308127e-09	-3.816692e+01	-8.613342e+01
1.300000e-07	-5.505978e-06	-1.289567e-09	-3.813192e+01	-8.606681e+01
1.400000e-07	-5.500550e-06	-1.296175e-09	-3.809432e+01	-8.599772e+01
1.500000e-07	-5.494749e-06	-1.291136e-09	-3.805415e+01	-8.592612e+01
1.600000e-07	-5.488579e-06	-1.334421e-09	-3.801142e+01	-8.585197e+01
1.700000e-07	-5.481927e-06	-1.297178e-09	-3.796535e+01	-8.577525e+01
1.800000e-07	-5.474848e-06	-1.298149e-09	-3.791632e+01	-8.569596e+01
1.900000e-07	-5.467529e-06	-1.275031e-09	-3.786564e+01	-8.561412e+01
2.000000e-07	-5.460005e-06	-1.293345e-09	-3.781353e+01	-8.552974e+01
2.100000e-07	-5.452181e-06	-1.285695e-09	-3.775934e+01	-8.544289e+01
2.200000e-07	-5.444068e-06	-1.292374e-09	-3.770316e+01	-8.535362e+01
2.300000e-07	-5.435642e-06	-1.287964e-09	-3.764480e+01	-8.526201e+01
2.400000e-07	-5.426636e-06	-1.269662e-09	-3.758243e+01	-8.516814e+01
2.500000e-07	-5.416915e-06	-1.268380e-09	-3.751510e+01	-8.507213e+01
2.600000e-07	-5.406562e-06	-1.265011e-09	-3.744341e+01	-8.497409e+01
2.700000e-07	-5.395574e-06	-1.281760e-09	-3.736731e+01	-8.487413e+01
2.800000e-07	-5.384050e-06	-1.265160e-09	-3.728750e+01	-8.477239e+01
2.900000e-07	-5.372229e-06	-1.280050e-09	-3.720563e+01	-8.466902e+01
3.000000e-07	-5.360125e-06	-1.268313e-09	-3.712181e+01	-8.456416e+01
3.100000e-07	-5.347582e-06	-1.290153e-09	-3.703493e+01	-8.445795e+01
3.200000e-07	-5.334573e-06	-1.265847e-09	-3.694484e+01	-8.435055e+01
3.300000e-07	-5.321229e-06	-1.290354e-09	-3.685243e+01	-8.424211e+01
3.400000e-07	-5.307480e-06	-1.267795e-09	-3.675721e+01	-8.413278e+01
3.500000e-07	-5.293329e-06	-1.282354e-09	-3.665920e+01	-8.402270e+01
3.600000e-07	-5.278739e-06	-1.272616e-09	-3.655816e+01	-8.391202e+01
3.700000e-07	-5.263621e-06	-1.287071e-09	-3.645346e+01	-8.380086e+01
3.800000e-07	-5.247898e-06	-1.263232e-09	-3.634457e+01	-8.368934e+01
3.900000e-07	-5.231719e-06	-1.281129e-09	-3.623252e+01	-8.357759e+01
4.000000e-07	-5.215255e-06	-1.270400e-09	-3.611850e+01	-8.346570e+01
4.100000e-07	-5.198299e-06	-1.252332e-09	-3.600107e+01	-8.335376e+01
4.200000e-07	-5.180974e-06	-1.249447e-09	-3.588109e+01	-8.324185e+01
4.300000e-07	-5.163423e-06	-1.275544e-09	-3.575953e+01	-8.313001e+01
4.400000e-07	-5.145544e-06	-1.250151e-09	-3.563571e+01	-8.301830e+01
4.500000e-07	-5.127301e-06	-1.235898e-09	-3.550937e+01	-8.290673e+01
4.600000e-07	-5.108597e-06	-1.266023e-09	-3.537984e+01	-8.279532e+01
4.700000e-07	-5.089469e-06	-1.257481e-09	-3.524736e+01	-8.268405e+01
4.800000e-07	-5.070017e-06	-1.219509e-09	-3.511265e+01	-8.257289e+01
4.900000e-07	-5.050341e-06	-1.241458e-09	-3.497638e+01	-8.246181e+01
5.000000e-07	-5.030531e-06	-1.266296e-09	-3.483919e+01	-8.235074e+01
5.100000e-07	-5.010467e-06	-1.223381e-09	-3.470023e+01	-8.223959e+01
5.200000e-07	-4.990018e-06	-1.227462e-09	-3.455861e+01	-8.212829e+01
5.300000e-07	-4.969180e-06	-1.260042e-09	-3.441430e+01	-8.201672e+01
5.400000e-07	-4.948003e-06	-1.236383e-09	-3.426763e+01	-8.190476e+01
5.500000e-07	-4.926481e-06	-1.206305e-09	-3.411858e+01	-8.179227e+01
5.600000e-07	-4.904607e-06	-1.245093e-09	-3.396709e+01	-8.167912e+01
5.700000e-07	-4.882394e-06	-1.231190e-09	-3.381326e+01	-8.156516e+01
5.800000e-07	-4.859830e-06	-1.200470e-09	-3.365699e+01	-8.145022e+01
5.900000e-07	-4.836881e-06	-1.217839e-09	-3.349806e+01	-8.133414e+01
6.000000e-07	-4.813577e-06	-1.237715e-09	-3.333666e+01	-8.121675e+01
6.100000e-07	-4.789992e-06	-1.196962e-09	-3.317332e+01	-8.109789e+01
6.200000e-07	-4.766199e-06	-1.201115e-09	-3.300854e+01	-8.097739e+01
6.300000e-07	-4.742194e-06	-1.214941e-09	-3.284229e+01	-8.085508e+01
6.400000e-07	-4.717909e-06	-1.201858e-09	-3.267411e+01	-8.073080e+01
6.500000e-07	-4.693186e-06	-1.187544e-09	-3.250289e+01	-8.060440e+01
6.600000e-07	-4.667939e-06	-1.212440e-09	-3.232804e+01	-8.047572e+01
6.700000e-07	-4.642202e-06	-1.207678e-09	-3.214979e+01	-8.034464e+01
6.800000e-07	-4.615917e-06	-1.197832e-09	-3.196775e+01	-8.021101e+01
6.900000e-07	-4.589135e-06	-1.198354e-09	-3.178228e+01	-8.007473e+01
7.000000e-07	-4.561917e-06	-1.202196e-09	-3.159378e+01	-7.993570e+01
7.100000e-07	-4.534410e-06	-1.185328e-09	-3.140328e+01	-7.979381e+01
7.200000e-07	-4.506798e-06	-1.182539e-09	-3.121205e+01	-7.964902e+01
7.300000e-07	-4.478994e-06	-1.184208e-09	-3.101949e+01	-7.950124e+01
7.400000e-07	-4.450931e-06	-1.180955e-09	-3.082514e+01	-7.935045e+01
7.500000e-07	-4.422608e-06	-1.171508e-09	-3.062899e+01	-7.919662e+01
7.600000e-07	-4.394025e-06	-1.169354e-09	-3.043103e+01	-7.903974e+01
7.700000e-07	-4.365154e-06	-1.167824e-09	-3.023109e+01	-7.887981e+01
7.800000e-07	-4.335907e-06	-1.159530e-09	-3.002853e+01	-7.871686e+01
7.900000e-07	-4.306331e-06	-1.155142e-09	-2.982370e+01	-7.855092e+01
8.000000e-07	-4.276504e-06	-1.155847e-09	-2.961713e+01	-7.838204e+01
8.100000e-07	-4.246357e-06	-1.153724e-09	-2.940835e+01	-7.821028e+01
8.200000e-07	-4.215897e-06	-1.144138e-09	-2.919740e+01	-7.803572e+01
8.300000e-07	-4.185167e-06	-1.142188e-09	-2.898458e+01	-7.785844e+01
8.400000e-07	-4.154171e-06	-1.136082e-09	-2.876991e+01	-7.767853e+01
8.500000e-07	-4.122967e-06	-1.135527e-09	-2.855381e+01	-7.749608e+01
8.600000e-07	-4.091521e-06	-1.133437e-09	-2.833602e+01	-7.731120e+01
8.700000e-07	-4.059864e-06	-1.132603e-09	-2.811678e+01	-7.712399e+01
8.800000e-07	-4.028020e-06	-1.123728e-09	-2.789625e+01	-7.693455e+01
8.900000e-07	-3.995891e-06	-1.122684e-09	-2.767374e+01	-7.674299e+01
9.000000e-07	-3.963530e-06	-1.116139e-09	-2.744962e+01	-7.654940e+01
9.100000e-07	-3.930904e-06	-1.113355e-09	-2.722366e+01	-7.635388e+01
9.200000e-07	-3.897891e-06	-1.110116e-09	-2.699503e+01	-7.615652e+01
9.300000e-07	-3.864439e-06	-1.111367e-09	-2.676336e+01	-7.595740e+01
9.400000e-07	-3.830446e-06	-1.106203e-09	-2.652794e+01	-7.575658e+01
9.500000e-07	-3.795994e-06	-1.108208e-09	-2.628934e+01	-7.555411e+01
9.600000e-07	-3.761200e-06	-1.105583e-09	-2.604837e+01	-7.535004e+01
9.700000e-07	-3.725981e-06	-1.099746e-09	-2.580446e+01	-7.514439e+01
9.800000e-07	-3.690435e-06	-1.090112e-09	-2.555828e+01	-7.493717e+01
9.900000e-07	-3.654773e-06	-1.086350e-09	-2.531131e+01	-7.472837e+01
1.000000e-06	-3.619026e-06	-1.079596e-09	-2.506374e+01	-7.451798e+01
1.010000e-06	-3.583132e-06	-1.077525e-09	-2.481515e+01	-7.430593e+01
1.020000e-06	-3.547096e-06	-1.078835e-09	-2.456558e+01	-7.409218e+01
1.030000e-06	-3.510840e-06	-1.078405e-09	-2.431449e+01	-7.387665e+01
1.040000e-06	-3.474279e-06	-1.071029e-09	-2.406129e+01	-7.365922e+01
1.050000e-06	-3.437492e-06	-1.063030e-09	-2.380652e+01	-7.343980e+01
1.060000e-06	-3.400421e-06	-1.059049e-09	-2.354978e+01	-7.321824e+01
1.070000e-06	-3.363054e-06	-1.054417e-09	-2.329099e+01	-7.299439e+01
1.080000e-06	-3.325496e-06	-1.050822e-09	-2.303088e+01	-7.276810e+01
1.090000e-06	-3.287766e-06	-1.050627e-09	-2.276958e+01	-7.253918e+01
1.100000e-06	-3.249804e-06	-1.050829e-09	-2.250667e+01	-7.230744e+01
1.110000e-06	-3.211550e-06	-1.044980e-09	-2.224175e+01	-7.207269e+01
1.120000e-06	-3.173016e-06	-1.040825e-09	-2.197487e+01	-7.183472e+01
1.130000e-06	-3.134181e-06	-1.035648e-09	-2.170592e+01	-7.159330e+01
1.140000e-06	-3.095165e-06	-1.031706e-09	-2.143571e+01	-7.134823e+01
1.150000e-06	-3.055991e-06	-1.029809e-09	-2.116441e+01	-7.109928e+01
1.160000e-06	-3.016686e-06	-1.029901e-09	-2.089220e+01	-7.084621e+01
1.170000e-06	-2.977215e-06	-1.022971e-09	-2.061885e+01	-7.058882e+01
1.180000e-06	-2.937585e-06	-1.019719e-09	-2.034438e+01	-7.032687e+01
1.190000e-06	-2.897901e-06	-1.016972e-09	-2.006956e+01	-7.006016e+01
1.200000e-06	-2.858051e-06	-1.012657e-09	-1.979357e+01	-6.978846e+01
1.210000e-06	-2.818094e-06	-1.003886e-09	-1.951685e+01	-6.951159e+01
1.220000e-06	-2.777946e-06	-1.000398e-09	-1.923880e+01	-6.922934e+01
1.230000e-06	-2.737525e-06	-9.974400e-10	-1.895886e+01	-6.894153e+01
1.240000e-06	-2.696948e-06	-9.934699e-10	-1.867785e+01	-6.864799e+01
1.250000e-06	-2.656193e-06	-9.882269e-10	-1.839560e+01	-6.834856e+01
1.260000e-06	-2.615188e-06	-9.851055e-10	-1.811161e+01	-6.804308e+01
1.270000e-06	-2.573844e-06	-9.800124e-10	-1.782528e+01	-6.773144e+01
1.280000e-06	-2.532113e-06	-9.747620e-10	-1.753627e+01	-6.741348e+01
1.290000e-06	-2.490071e-06	-9.681412e-10	-1.724511e+01	-6.708912e+01
1.300000e-06	-2.447782e-06	-9.615302e-10	-1.695223e+01	-6.675823e+01
1.310000e-06	-2.405220e-06	-9.531376e-10	-1.665747e+01	-6.642073e+01
1.320000e-06	-2.362417e-06	-9.464924e-10	-1.636103e+01	-6.607653e+01
1.330000e-06	-2.319506e-06	-9.398035e-10	-1.606385e+01	-6.572555e+01
1.340000e-06	-2.276378e-06	-9.325491e-10	-1.576517e+01	-6.536771e+01
1.350000e-06	-2.232971e-06	-9.276440e-10	-1.546455e+01	-6.500294e+01
1.360000e-06	-2.189381e-06	-9.239293e-10	-1.516267e+01	-6.463117e+01
1.370000e-06	-2.145674e-06	-9.171059e-10	-1.485997e+01	-6.425230e+01
1.380000e-06	-2.101913e-06	-9.062089e-10	-1.455690e+01	-6.386626e+01
1.390000e-06	-2.058085e-06	-8.965738e-10	-1.425336e+01	-6.347294e+01
1.400000e-06	-2.014191e-06	-8.900141e-10	-1.394938e+01	-6.307224e+01
1.410000e-06	-1.970238e-06	-8.815924e-10	-1.364498e+01	-6.266401e+01
1.420000e-06	-1.926220e-06	-8.720723e-10	-1.334013e+01	-6.224812e+01
1.430000e-06	-1.882043e-06	-8.675057e-10	-1.303418e+01	-6.182439e+01
1.440000e-06	-1.837719e-06	-8.622660e-10	-1.272721e+01	-6.139261e+01
1.450000e-06	-1.793338e-06	-8.550256e-10	-1.241985e+01	-6.095255e+01
1.460000e-06	-1.748854e-06	-8.474875e-10	-1.211178e+01	-6.050394e+01
1.470000e-06	-1.704206e-06	-8.403352e-10	-1.180256e+01	-6.004647e+01
1.480000e-06	-1.659381e-06	-8.286238e-10	-1.149212e+01	-5.957979e+01
1.490000e-06	-1.614380e-06	-8.156159e-10	-1.118047e+01	-5.910351e+01
1.500000e-06	-1.569189e-06	-8.019205e-10	-1.086749e+01	-5.861720e+01
1.510000e-06	-1.523907e-06	-7.890430e-10	-1.055389e+01	-5.812035e+01
1.520000e-06	-1.478615e-06	-7.790101e-10	-1.024022e+01	-5.761245e+01
1.530000e-06	-1.433237e-06	-7.736664e-10	-9.925954e+00	-5.709290e+01
1.540000e-06	-1.387726e-06	-7.679993e-10	-9.610767e+00	-5.656106e+01
1.550000e-06	-1.342037e-06	-7.631792e-10	-9.294344e+00	-5.601624e+01
1.560000e-06	-1.296334e-06	-7.564223e-10	-8.977821e+00	-5.545770e+01
1.570000e-06	-1.250616e-06	-7.477251e-10	-8.661200e+00	-5.488466e+01
1.580000e-06	-1.204787e-06	-7.348879e-10	-8.343808e+00	-5.429626e+01
1.590000e-06	-1.158880e-06	-7.229211e-10	-8.025877e+00	-5.369163e+01
1.600000e-06	-1.112897e-06	-7.149372e-10	-7.707425e+00	-5.306983e+01
1.610000e-06	-1.066814e-06	-7.107186e-10	-7.388273e+00	-5.242989e+01
1.620000e-06	-1.020621e-06	-7.087663e-10	-7.068363e+00	-5.177080e+01
1.630000e-06	-9.742596e-07	-7.067290e-10	-6.747282e+00	-5.109152e+01
1.640000e-06	-9.278173e-07	-6.980222e-10	-6.425643e+00	-5.039098e+01
1.650000e-06	-8.814610e-07	-6.819139e-10	-6.104601e+00	-4.966810e+01
1.660000e-06	-8.350755e-07	-6.650236e-10	-5.783356e+00	-4.892177e+01
1.670000e-06	-7.886058e-07	-6.494141e-10	-5.461527e+00	-4.815086e+01
1.680000e-06	-7.420522e-07	-6.369624e-10	-5.139118e+00	-4.735428e+01
1.690000e-06	-6.954471e-07	-6.265747e-10	-4.816352e+00	-4.653089e+01
1.700000e-06	-6.487917e-07	-6.164320e-10	-4.493238e+00	-4.567961e+01
1.710000e-06	-6.021070e-07	-6.056942e-10	-4.169921e+00	-4.479936e+01
1.720000e-06	-5.553676e-07	-5.928209e-10	-3.846225e+00	-4.388908e+01
1.730000e-06	-5.085303e-07	-5.757837e-10	-3.521851e+00	-4.294777e+01
1.740000e-06	-4.615771e-07	-5.584605e-10	-3.196674e+00	-4.197445e+01
1.750000e-06	-4.146140e-07	-5.414543e-10	-2.871429e+00	-4.096822e+01
1.760000e-06	-3.677280e-07	-5.238630e-10	-2.546718e+00	-3.992823e+01
1.770000e-06	-3.208035e-07	-5.070020e-10	-2.221740e+00	-3.885370e+01
1.780000e-06	-2.737670e-07	-4.921762e-10	-1.895986e+00	-3.774392e+01
1.790000e-06	-2.266871e-07	-4.786031e-10	-1.569933e+00	-3.659829e+01
1.800000e-06	-1.795914e-07	-4.652877e-10	-1.243769e+00	-3.541629e+01
1.810000e-06	-1.324371e-07	-4.491309e-10	-9.171992e-01	-3.419750e+01
1.820000e-06	-8.531617e-08	-4.310741e-10	-5.908613e-01	-3.294161e+01
1.830000e-06	-3.826043e-08	-4.105944e-10	-2.649745e-01	-3.164843e+01
1.840000e-06	8.781572e-09	-3.895176e-10	6.081720e-02	-3.031789e+01
1.850000e-06	5.585935e-08	-3.691300e-10	3.868566e-01	-2.895002e+01
1.860000e-06	1.029423e-07	-3.498703e-10	7.129316e-01	-2.754501e+01
1.870000e-06	1.499686e-07	-3.318318e-10	1.038615e+00	-2.610318e+01
1.880000e-06	1.969909e-07	-3.147315e-10	1.364270e+00	-2.462496e+01
1.890000e-06	2.440007e-07	-2.951622e-10	1.689839e+00	-2.311095e+01
1.900000e-06	2.910624e-07	-2.716214e-10	2.015767e+00	-2.156185e+01
1.910000e-06	3.382239e-07	-2.465049e-10	2.342386e+00	-1.997852e+01
1.920000e-06	3.852429e-07	-2.207950e-10	2.668018e+00	-1.836197e+01
1.930000e-06	4.321421e-07	-1.966614e-10	2.992821e+00	-1.671332e+01
1.940000e-06	4.790651e-07	-1.744435e-10	3.317789e+00	-1.503383e+01
1.950000e-06	5.259595e-07	-1.536253e-10	3.642558e+00	-1.332491e+01
1.960000e-06	5.727125e-07	-1.323240e-10	3.966348e+00	-1.158805e+01
1.970000e-06	6.193356e-07	-1.085226e-10	4.289239e+00	-9.824908e+00
1.980000e-06	6.659193e-07	-8.454525e-11	4.611857e+00	-8.037230e+00
1.990000e-06	7.124605e-07	-5.810249e-11	4.934180e+00	-6.226876e+00
2.000000e-06	7.589579e-07	-2.816327e-11	5.256200e+00	-4.395806e+00
2.010000e-06	8.053254e-07	-6.816595e-13	5.577320e+00	-2.546072e+00
2.020000e-06	8.516980e-07	2.357999e-11	5.898476e+00	-6.798090e-01
2.030000e-06	8.981504e-07	4.663231e-11	6.220184e+00	1.200773e+00
2.040000e-06	9.445511e-07	7.053630e-11	6.541534e+00	3.093400e+00
2.050000e-06	9.908110e-07	9.544755e-11	6.861910e+00	4.995744e+00
2.060000e-06	1.036970e-06	1.209927e-10	7.181583e+00	6.905432e+00
2.070000e-06	1.083040e-06	1.485337e-10	7.500645e+00	8.820061e+00
2.080000e-06	1.129046e-06	1.767879e-10	7.819261e+00	1.073720e+01
2.090000e-06	1.175002e-06	2.053699e-10	8.137530e+00	1.265442e+01
2.100000e-06	1.220819e-06	2.353812e-10	8.454838e+00	1.456927e+01
2.110000e-06	1.266521e-06	2.650301e-10	8.771352e+00	1.647934e+01
2.120000e-06	1.312158e-06	2.940378e-10	9.087413e+00	1.838222e+01
2.130000e-06	1.357741e-06	3.202847e-10	9.403103e+00	2.027553e+01
2.140000e-06	1.403228e-06	3.441804e-10	9.718124e+00	2.215696e+01
2.150000e-06	1.448595e-06	3.679156e-10	1.003232e+01	2.402423e+01
2.160000e-06	1.493906e-06	3.928024e-10	1.034612e+01	2.587514e+01
2.170000e-06	1.539148e-06	4.191234e-10	1.065944e+01	2.770754e+01
2.180000e-06	1.584316e-06	4.457228e-10	1.097226e+01	2.951938e+01
2.190000e-06	1.629362e-06	4.721815e-10	1.128422e+01	3.130871e+01
2.200000e-06	1.674201e-06	4.979465e-10	1.159476e+01	3.307365e+01
2.210000e-06	1.718846e-06	5.216526e-10	1.190395e+01	3.481244e+01
2.220000e-06	1.763292e-06	5.438901e-10	1.221177e+01	3.652344e+01
2.230000e-06	1.807673e-06	5.647986e-10	1.251913e+01	3.820511e+01
2.240000e-06	1.851983e-06	5.851075e-10	1.282600e+01	3.985603e+01
2.250000e-06	1.896116e-06	6.056795e-10	1.313164e+01	4.147491e+01
2.260000e-06	1.940138e-06	6.272135e-10	1.343652e+01	4.306059e+01
2.270000e-06	1.984111e-06	6.494251e-10	1.374106e+01	4.461203e+01
2.280000e-06	2.028035e-06	6.693937e-10	1.404526e+01	4.612833e+01
2.290000e-06	2.071845e-06	6.869763e-10	1.434866e+01	4.760871e+01
2.300000e-06	2.115537e-06	7.049162e-10	1.465126e+01	4.905252e+01
2.310000e-06	2.159241e-06	7.233643e-10	1.495393e+01	5.045926e+01
2.320000e-06	2.202930e-06	7.407970e-10	1.525650e+01	5.182852e+01
2.330000e-06	2.246483e-06	7.590648e-10	1.555812e+01	5.316005e+01
2.340000e-06	2.289912e-06	7.789361e-10	1.585890e+01	5.445370e+01
2.350000e-06	2.333183e-06	7.983702e-10	1.615857e+01	5.570945e+01
2.360000e-06	2.376245e-06	8.152373e-10	1.645680e+01	5.692737e+01
2.370000e-06	2.419086e-06	8.278564e-10	1.675350e+01	5.810766e+01
2.380000e-06	2.461673e-06	8.393063e-10	1.704844e+01	5.925061e+01
2.390000e-06	2.503925e-06	8.516919e-10	1.734105e+01	6.035661e+01
2.400000e-06	2.545761e-06	8.653258e-10	1.763079e+01	6.142615e+01
2.410000e-06	2.587247e-06	8.809234e-10	1.791810e+01	6.245977e+01
2.420000e-06	2.628456e-06	8.962625e-10	1.820350e+01	6.345811e+01
2.430000e-06	2.669396e-06	9.108844e-10	1.848703e+01	6.442188e+01
2.440000e-06	2.710058e-06	9.231908e-10	1.876863e+01	6.535183e+01
2.450000e-06	2.750442e-06	9.334079e-10	1.904832e+01	6.624880e+01
2.460000e-06	2.790633e-06	9.432245e-10	1.932666e+01	6.711363e+01
2.470000e-06	2.830660e-06	9.535149e-10	1.960388e+01	6.794724e+01
2.480000e-06	2.870577e-06	9.623410e-10	1.988032e+01	6.875055e+01
2.490000e-06	2.910375e-06	9.720021e-10	2.015594e+01	6.952452e+01
2.500000e-06	2.950012e-06	9.821007e-10	2.043045e+01	7.027013e+01
2.510000e-06	2.989555e-06	9.925854e-10	2.070430e+01	7.098837e+01
2.520000e-06	3.028963e-06	1.003458e-09	2.097723e+01	7.168023e+01
2.530000e-06	3.068137e-06	1.011783e-09	2.124853e+01	7.234670e+01
2.540000e-06	3.107098e-06	1.020168e-09	2.151836e+01	7.298876e+01
2.550000e-06	3.145811e-06	1.027619e-09	2.178646e+01	7.360738e+01
2.560000e-06	3.184213e-06	1.034538e-09	2.205242e+01	7.420354e+01
2.570000e-06	3.222390e-06	1.043636e-09	2.231682e+01	7.477815e+01
2.580000e-06	3.260355e-06	1.052050e-09	2.257975e+01	7.533213e+01
2.590000e-06	3.298105e-06	1.059810e-09	2.284118e+01	7.586637e+01
2.600000e-06	3.335714e-06	1.069064e-09	2.310165e+01	7.638172e+01
2.610000e-06	3.373161e-06	1.078667e-09	2.336099e+01	7.687899e+01
2.620000e-06	3.410399e-06	1.086349e-09	2.361888e+01	7.735898e+01
2.630000e-06	3.447426e-06	1.094089e-09	2.387532e+01	7.782244e+01
2.640000e-06	3.484098e-06	1.102293e-09	2.412929e+01	7.827007e+01
2.650000e-06	3.520434e-06	1.107155e-09	2.438094e+01	7.870254e+01
2.660000e-06	3.556547e-06	1.110417e-09	2.463104e+01	7.912050e+01
2.670000e-06	3.592464e-06	1.114901e-09	2.487978e+01	7.952453e+01
2.680000e-06	3.628209e-06	1.120468e-09	2.512734e+01	7.991519e+01
2.690000e-06	3.663829e-06	1.127137e-09	2.537403e+01	8.029301e+01
2.700000e-06	3.699367e-06	1.135080e-09	2.562014e+01	8.065847e+01
2.710000e-06	3.734683e-06	1.142994e-09	2.586473e+01	8.101202e+01
2.720000e-06	3.769745e-06	1.148461e-09	2.610755e+01	8.135408e+01
2.730000e-06	3.804564e-06	1.152189e-09	2.634870e+01	8.168502e+01
2.740000e-06	3.838997e-06	1.156785e-09	2.658716e+01	8.200520e+01
2.750000e-06	3.872888e-06	1.159327e-09	2.682187e+01	8.231496e+01
2.760000e-06	3.906268e-06	1.162934e-09	2.705305e+01	8.261459e+01
2.770000e-06	3.939213e-06	1.168856e-09	2.728121e+01	8.290437e+01
2.780000e-06	3.971711e-06	1.176554e-09	2.750628e+01	8.318456e+01
2.790000e-06	4.003869e-06	1.184737e-09	2.772899e+01	8.345539e+01
2.800000e-06	4.035791e-06	1.190221e-09	2.795007e+01	8.371708e+01
2.810000e-06	4.067528e-06	1.191145e-09	2.816986e+01	8.396985e+01
2.820000e-06	4.099110e-06	1.191105e-09	2.838859e+01	8.421387e+01
2.830000e-06	4.130544e-06	1.192650e-09	2.860628e+01	8.444934e+01
2.840000e-06	4.161720e-06	1.194734e-09	2.882219e+01	8.467642e+01
2.850000e-06	4.192605e-06	1.196552e-09	2.903609e+01	8.489529e+01
2.860000e-06	4.223262e-06	1.199879e-09	2.924841e+01	8.510609e+01
2.870000e-06	4.253615e-06	1.205874e-09	2.945861e+01	8.530897e+01
2.880000e-06	4.283591e-06	1.210203e-09	2.966621e+01	8.550410e+01
2.890000e-06	4.313265e-06	1.212103e-09	2.987172e+01	8.569161e+01
2.900000e-06	4.342701e-06	1.210817e-09	3.007559e+01	8.587165e+01
