# Temperatura_=_-10.0
# Concentracion g/m^3_=_1620.0
# C_Vs_to_Am_M_A/Vsm_=_65563218390.804596
# pendiente_HvsI_1/m_=_3716.3
# ordenada_HvsI_A/m_=_1297.0
# frecuencia_Hz_=_135104.60257557212

Tiempo_(s)	Campo_(V.s)	Magnetizacion_(V.s)	Campo_(kA/m)	Magnetizacion_(A/m)
0.000000e+00	-5.528753e-06	-1.151248e-09	-3.838308e+01	-7.512924e+01
1.000000e-08	-5.528970e-06	-1.148620e-09	-3.838459e+01	-7.513166e+01
2.000000e-08	-5.528925e-06	-1.147952e-09	-3.838427e+01	-7.513336e+01
3.000000e-08	-5.528553e-06	-1.149839e-09	-3.838169e+01	-7.513394e+01
4.000000e-08	-5.527672e-06	-1.155609e-09	-3.837557e+01	-7.513302e+01
5.000000e-08	-5.526183e-06	-1.164089e-09	-3.836524e+01	-7.513022e+01
6.000000e-08	-5.524076e-06	-1.163531e-09	-3.835061e+01	-7.512513e+01
7.000000e-08	-5.521401e-06	-1.138505e-09	-3.833204e+01	-7.511739e+01
8.000000e-08	-5.518255e-06	-1.097639e-09	-3.831020e+01	-7.510662e+01
9.000000e-08	-5.514636e-06	-1.121953e-09	-3.828507e+01	-7.509248e+01
1.000000e-07	-5.510548e-06	-1.215102e-09	-3.825669e+01	-7.507462e+01
1.100000e-07	-5.506011e-06	-1.245387e-09	-3.822520e+01	-7.505274e+01
1.200000e-07	-5.501263e-06	-1.095121e-09	-3.819223e+01	-7.502654e+01
1.300000e-07	-5.496468e-06	-1.040872e-09	-3.815894e+01	-7.499578e+01
1.400000e-07	-5.491341e-06	-1.153475e-09	-3.812335e+01	-7.496021e+01
1.500000e-07	-5.485671e-06	-1.245573e-09	-3.808399e+01	-7.491965e+01
1.600000e-07	-5.479607e-06	-1.132527e-09	-3.804189e+01	-7.487395e+01
1.700000e-07	-5.473245e-06	-1.030111e-09	-3.799772e+01	-7.482297e+01
1.800000e-07	-5.466481e-06	-1.144680e-09	-3.795076e+01	-7.476663e+01
1.900000e-07	-5.459263e-06	-1.231702e-09	-3.790065e+01	-7.470490e+01
2.000000e-07	-5.451714e-06	-1.153670e-09	-3.784824e+01	-7.463778e+01
2.100000e-07	-5.443938e-06	-1.058678e-09	-3.779426e+01	-7.456530e+01
2.200000e-07	-5.435911e-06	-1.133506e-09	-3.773853e+01	-7.448754e+01
2.300000e-07	-5.427539e-06	-1.199551e-09	-3.768040e+01	-7.440464e+01
2.400000e-07	-5.418812e-06	-1.157156e-09	-3.761982e+01	-7.431674e+01
2.500000e-07	-5.409614e-06	-1.085509e-09	-3.755596e+01	-7.422405e+01
2.600000e-07	-5.399642e-06	-1.122092e-09	-3.748673e+01	-7.412681e+01
2.700000e-07	-5.389007e-06	-1.155011e-09	-3.741290e+01	-7.402529e+01
2.800000e-07	-5.377891e-06	-1.137841e-09	-3.733573e+01	-7.391979e+01
2.900000e-07	-5.366307e-06	-1.097778e-09	-3.725531e+01	-7.381063e+01
3.000000e-07	-5.354333e-06	-1.124605e-09	-3.717218e+01	-7.369818e+01
3.100000e-07	-5.341973e-06	-1.150058e-09	-3.708637e+01	-7.358282e+01
3.200000e-07	-5.329225e-06	-1.125371e-09	-3.699787e+01	-7.346495e+01
3.300000e-07	-5.316064e-06	-1.085290e-09	-3.690649e+01	-7.334498e+01
3.400000e-07	-5.302450e-06	-1.108880e-09	-3.681199e+01	-7.322333e+01
3.500000e-07	-5.288400e-06	-1.145111e-09	-3.671444e+01	-7.310044e+01
3.600000e-07	-5.273996e-06	-1.115560e-09	-3.661444e+01	-7.297674e+01
3.700000e-07	-5.259114e-06	-1.092784e-09	-3.651112e+01	-7.285267e+01
3.800000e-07	-5.243724e-06	-1.132815e-09	-3.640428e+01	-7.272866e+01
3.900000e-07	-5.227881e-06	-1.133678e-09	-3.629429e+01	-7.260513e+01
4.000000e-07	-5.211539e-06	-1.067590e-09	-3.618084e+01	-7.248248e+01
4.100000e-07	-5.194768e-06	-1.100487e-09	-3.606441e+01	-7.236111e+01
4.200000e-07	-5.177694e-06	-1.158641e-09	-3.594587e+01	-7.224138e+01
4.300000e-07	-5.160285e-06	-1.094955e-09	-3.582501e+01	-7.212364e+01
4.400000e-07	-5.142433e-06	-1.045640e-09	-3.570107e+01	-7.200821e+01
4.500000e-07	-5.124289e-06	-1.142839e-09	-3.557511e+01	-7.189538e+01
4.600000e-07	-5.105834e-06	-1.145096e-09	-3.544699e+01	-7.178540e+01
4.700000e-07	-5.086871e-06	-1.047887e-09	-3.531534e+01	-7.167849e+01
4.800000e-07	-5.067535e-06	-1.078602e-09	-3.518110e+01	-7.157485e+01
4.900000e-07	-5.048012e-06	-1.152261e-09	-3.504556e+01	-7.147461e+01
5.000000e-07	-5.028262e-06	-1.078159e-09	-3.490844e+01	-7.137789e+01
5.100000e-07	-5.008309e-06	-1.059654e-09	-3.476992e+01	-7.128476e+01
5.200000e-07	-4.988132e-06	-1.127837e-09	-3.462984e+01	-7.119523e+01
5.300000e-07	-4.967519e-06	-1.085193e-09	-3.448674e+01	-7.110931e+01
5.400000e-07	-4.946509e-06	-1.025527e-09	-3.434088e+01	-7.102695e+01
5.500000e-07	-4.925204e-06	-1.107614e-09	-3.419297e+01	-7.094805e+01
5.600000e-07	-4.903579e-06	-1.120263e-09	-3.404284e+01	-7.087249e+01
5.700000e-07	-4.881661e-06	-1.039507e-09	-3.389067e+01	-7.080012e+01
5.800000e-07	-4.859428e-06	-1.067842e-09	-3.373632e+01	-7.073074e+01
5.900000e-07	-4.836832e-06	-1.121079e-09	-3.357945e+01	-7.066412e+01
6.000000e-07	-4.813772e-06	-1.061560e-09	-3.341936e+01	-7.060003e+01
6.100000e-07	-4.790378e-06	-1.046161e-09	-3.325695e+01	-7.053818e+01
6.200000e-07	-4.766771e-06	-1.095638e-09	-3.309306e+01	-7.047827e+01
6.300000e-07	-4.742956e-06	-1.072934e-09	-3.292772e+01	-7.042000e+01
6.400000e-07	-4.718935e-06	-1.044291e-09	-3.276096e+01	-7.036303e+01
6.500000e-07	-4.694565e-06	-1.075332e-09	-3.259177e+01	-7.030701e+01
6.600000e-07	-4.669770e-06	-1.076346e-09	-3.241964e+01	-7.025161e+01
6.700000e-07	-4.644505e-06	-1.052075e-09	-3.224423e+01	-7.019645e+01
6.800000e-07	-4.618660e-06	-1.066104e-09	-3.206481e+01	-7.014119e+01
6.900000e-07	-4.592265e-06	-1.069848e-09	-3.188156e+01	-7.008548e+01
7.000000e-07	-4.565423e-06	-1.054183e-09	-3.169521e+01	-7.002896e+01
7.100000e-07	-4.538145e-06	-1.057680e-09	-3.150584e+01	-6.997130e+01
7.200000e-07	-4.510553e-06	-1.064985e-09	-3.131428e+01	-6.991217e+01
7.300000e-07	-4.482821e-06	-1.053059e-09	-3.112175e+01	-6.985126e+01
7.400000e-07	-4.454956e-06	-1.052725e-09	-3.092830e+01	-6.978828e+01
7.500000e-07	-4.426922e-06	-1.051560e-09	-3.073368e+01	-6.972296e+01
7.600000e-07	-4.398591e-06	-1.047097e-09	-3.053699e+01	-6.965505e+01
7.700000e-07	-4.369866e-06	-1.047580e-09	-3.033757e+01	-6.958431e+01
7.800000e-07	-4.340823e-06	-1.049902e-09	-3.013593e+01	-6.951055e+01
7.900000e-07	-4.311463e-06	-1.041164e-09	-2.993211e+01	-6.943360e+01
8.000000e-07	-4.281834e-06	-1.044248e-09	-2.972641e+01	-6.935331e+01
8.100000e-07	-4.251940e-06	-1.045254e-09	-2.951887e+01	-6.926957e+01
8.200000e-07	-4.221773e-06	-1.030539e-09	-2.930944e+01	-6.918227e+01
8.300000e-07	-4.191300e-06	-1.016710e-09	-2.909788e+01	-6.909136e+01
8.400000e-07	-4.160523e-06	-1.021461e-09	-2.888421e+01	-6.899680e+01
8.500000e-07	-4.129450e-06	-1.021905e-09	-2.866849e+01	-6.889858e+01
8.600000e-07	-4.098096e-06	-1.018013e-09	-2.845082e+01	-6.879673e+01
8.700000e-07	-4.066579e-06	-1.021756e-09	-2.823201e+01	-6.869127e+01
8.800000e-07	-4.034872e-06	-1.024242e-09	-2.801189e+01	-6.858228e+01
8.900000e-07	-4.002939e-06	-1.012714e-09	-2.779020e+01	-6.846983e+01
9.000000e-07	-3.970809e-06	-1.006678e-09	-2.756714e+01	-6.835401e+01
9.100000e-07	-3.938367e-06	-1.008239e-09	-2.734191e+01	-6.823496e+01
9.200000e-07	-3.905500e-06	-1.000703e-09	-2.711373e+01	-6.811279e+01
9.300000e-07	-3.872312e-06	-9.940309e-10	-2.688332e+01	-6.798763e+01
9.400000e-07	-3.838789e-06	-9.997870e-10	-2.665059e+01	-6.785965e+01
9.500000e-07	-3.804753e-06	-1.001898e-09	-2.641430e+01	-6.772899e+01
9.600000e-07	-3.770230e-06	-9.929299e-10	-2.617462e+01	-6.759580e+01
9.700000e-07	-3.735298e-06	-9.898217e-10	-2.593211e+01	-6.746023e+01
9.800000e-07	-3.699987e-06	-9.887374e-10	-2.568697e+01	-6.732244e+01
9.900000e-07	-3.664424e-06	-9.812725e-10	-2.544007e+01	-6.718257e+01
1.000000e-06	-3.628721e-06	-9.745358e-10	-2.519221e+01	-6.704077e+01
1.010000e-06	-3.592897e-06	-9.774546e-10	-2.494350e+01	-6.689715e+01
1.020000e-06	-3.556929e-06	-9.754589e-10	-2.469379e+01	-6.675183e+01
1.030000e-06	-3.520876e-06	-9.699243e-10	-2.444350e+01	-6.660493e+01
1.040000e-06	-3.484697e-06	-9.692742e-10	-2.419233e+01	-6.645652e+01
1.050000e-06	-3.448241e-06	-9.678694e-10	-2.393923e+01	-6.630668e+01
1.060000e-06	-3.411467e-06	-9.571799e-10	-2.368393e+01	-6.615545e+01
1.070000e-06	-3.374396e-06	-9.499054e-10	-2.342657e+01	-6.600289e+01
1.080000e-06	-3.337022e-06	-9.461477e-10	-2.316710e+01	-6.584899e+01
1.090000e-06	-3.299397e-06	-9.426740e-10	-2.290589e+01	-6.569377e+01
1.100000e-06	-3.261565e-06	-9.398808e-10	-2.264325e+01	-6.553720e+01
1.110000e-06	-3.223509e-06	-9.403597e-10	-2.237904e+01	-6.537923e+01
1.120000e-06	-3.185181e-06	-9.355479e-10	-2.211295e+01	-6.521981e+01
1.130000e-06	-3.146618e-06	-9.261286e-10	-2.184523e+01	-6.505886e+01
1.140000e-06	-3.107852e-06	-9.202176e-10	-2.157610e+01	-6.489627e+01
1.150000e-06	-3.068876e-06	-9.182139e-10	-2.130551e+01	-6.473195e+01
1.160000e-06	-3.029699e-06	-9.140691e-10	-2.103353e+01	-6.456577e+01
1.170000e-06	-2.990353e-06	-9.132261e-10	-2.076037e+01	-6.439758e+01
1.180000e-06	-2.950881e-06	-9.168417e-10	-2.048633e+01	-6.422722e+01
1.190000e-06	-2.911279e-06	-9.207302e-10	-2.021140e+01	-6.405455e+01
1.200000e-06	-2.871517e-06	-9.187201e-10	-1.993536e+01	-6.387937e+01
1.210000e-06	-2.831625e-06	-9.132896e-10	-1.965841e+01	-6.370152e+01
1.220000e-06	-2.791654e-06	-9.060944e-10	-1.938091e+01	-6.352079e+01
1.230000e-06	-2.751557e-06	-8.994422e-10	-1.910254e+01	-6.333701e+01
1.240000e-06	-2.711242e-06	-8.977466e-10	-1.882265e+01	-6.314998e+01
1.250000e-06	-2.670666e-06	-8.976370e-10	-1.854096e+01	-6.295948e+01
1.260000e-06	-2.629876e-06	-8.965689e-10	-1.825778e+01	-6.276534e+01
1.270000e-06	-2.588784e-06	-8.924955e-10	-1.797250e+01	-6.256734e+01
1.280000e-06	-2.547336e-06	-8.882936e-10	-1.768474e+01	-6.236528e+01
1.290000e-06	-2.505646e-06	-8.831018e-10	-1.739531e+01	-6.215897e+01
1.300000e-06	-2.463682e-06	-8.760232e-10	-1.710398e+01	-6.194821e+01
1.310000e-06	-2.421436e-06	-8.701787e-10	-1.681069e+01	-6.173280e+01
1.320000e-06	-2.378916e-06	-8.699997e-10	-1.651550e+01	-6.151255e+01
1.330000e-06	-2.336049e-06	-8.691591e-10	-1.621790e+01	-6.128726e+01
1.340000e-06	-2.292870e-06	-8.656667e-10	-1.591813e+01	-6.105674e+01
1.350000e-06	-2.249566e-06	-8.643760e-10	-1.561750e+01	-6.082079e+01
1.360000e-06	-2.206191e-06	-8.645507e-10	-1.531636e+01	-6.057921e+01
1.370000e-06	-2.162639e-06	-8.596562e-10	-1.501401e+01	-6.033179e+01
1.380000e-06	-2.118973e-06	-8.546064e-10	-1.471086e+01	-6.007833e+01
1.390000e-06	-2.075243e-06	-8.496957e-10	-1.440726e+01	-5.981861e+01
1.400000e-06	-2.031411e-06	-8.441653e-10	-1.410296e+01	-5.955240e+01
1.410000e-06	-1.987529e-06	-8.402111e-10	-1.379831e+01	-5.927947e+01
1.420000e-06	-1.943629e-06	-8.360528e-10	-1.349354e+01	-5.899955e+01
1.430000e-06	-1.899604e-06	-8.296130e-10	-1.318790e+01	-5.871237e+01
1.440000e-06	-1.855398e-06	-8.248618e-10	-1.288100e+01	-5.841764e+01
1.450000e-06	-1.811067e-06	-8.214032e-10	-1.257324e+01	-5.811503e+01
1.460000e-06	-1.766664e-06	-8.169299e-10	-1.226497e+01	-5.780422e+01
1.470000e-06	-1.722151e-06	-8.094545e-10	-1.195594e+01	-5.748483e+01
1.480000e-06	-1.677513e-06	-8.015519e-10	-1.164605e+01	-5.715645e+01
1.490000e-06	-1.632725e-06	-7.945593e-10	-1.133511e+01	-5.681865e+01
1.500000e-06	-1.587741e-06	-7.853991e-10	-1.102281e+01	-5.647097e+01
1.510000e-06	-1.542705e-06	-7.750394e-10	-1.071015e+01	-5.611288e+01
1.520000e-06	-1.497601e-06	-7.664947e-10	-1.039702e+01	-5.574385e+01
1.530000e-06	-1.452255e-06	-7.581141e-10	-1.008221e+01	-5.536329e+01
1.540000e-06	-1.406766e-06	-7.495829e-10	-9.766402e+00	-5.497058e+01
1.550000e-06	-1.361208e-06	-7.408578e-10	-9.450119e+00	-5.456503e+01
1.560000e-06	-1.315536e-06	-7.294337e-10	-9.133039e+00	-5.414593e+01
1.570000e-06	-1.269807e-06	-7.209250e-10	-8.815568e+00	-5.371255e+01
1.580000e-06	-1.224069e-06	-7.159884e-10	-8.498037e+00	-5.326407e+01
1.590000e-06	-1.178324e-06	-7.111057e-10	-8.180451e+00	-5.279966e+01
1.600000e-06	-1.132438e-06	-7.051902e-10	-7.861891e+00	-5.231846e+01
1.610000e-06	-1.086419e-06	-6.984036e-10	-7.542407e+00	-5.181956e+01
1.620000e-06	-1.040366e-06	-6.916130e-10	-7.222688e+00	-5.130201e+01
1.630000e-06	-9.942321e-07	-6.867293e-10	-6.902405e+00	-5.076484e+01
1.640000e-06	-9.480377e-07	-6.816520e-10	-6.581702e+00	-5.020707e+01
1.650000e-06	-9.017647e-07	-6.716174e-10	-6.260455e+00	-4.962767e+01
1.660000e-06	-8.554478e-07	-6.602063e-10	-5.938902e+00	-4.902563e+01
1.670000e-06	-8.091511e-07	-6.499312e-10	-5.617489e+00	-4.839988e+01
1.680000e-06	-7.627838e-07	-6.383656e-10	-5.295587e+00	-4.774940e+01
1.690000e-06	-7.163681e-07	-6.261448e-10	-4.973348e+00	-4.707314e+01
1.700000e-06	-6.699347e-07	-6.135413e-10	-4.650986e+00	-4.637005e+01
1.710000e-06	-6.233562e-07	-6.038969e-10	-4.327618e+00	-4.563913e+01
1.720000e-06	-5.766689e-07	-5.942091e-10	-4.003494e+00	-4.487937e+01
1.730000e-06	-5.299994e-07	-5.820096e-10	-3.679493e+00	-4.408981e+01
1.740000e-06	-4.833811e-07	-5.684518e-10	-3.355848e+00	-4.326952e+01
1.750000e-06	-4.367093e-07	-5.520958e-10	-3.031832e+00	-4.241760e+01
1.760000e-06	-3.899265e-07	-5.346813e-10	-2.707044e+00	-4.153323e+01
1.770000e-06	-3.431400e-07	-5.185467e-10	-2.382231e+00	-4.061564e+01
1.780000e-06	-2.963494e-07	-5.068878e-10	-2.057390e+00	-3.966413e+01
1.790000e-06	-2.495545e-07	-4.986161e-10	-1.732519e+00	-3.867805e+01
1.800000e-06	-2.027429e-07	-4.879528e-10	-1.407532e+00	-3.765687e+01
1.810000e-06	-1.559196e-07	-4.728956e-10	-1.082464e+00	-3.660013e+01
1.820000e-06	-1.090732e-07	-4.546506e-10	-7.572348e-01	-3.550746e+01
1.830000e-06	-6.219065e-08	-4.351949e-10	-4.317554e-01	-3.437861e+01
1.840000e-06	-1.533628e-08	-4.167584e-10	-1.064713e-01	-3.321342e+01
1.850000e-06	3.158271e-08	-4.005805e-10	2.192613e-01	-3.201185e+01
1.860000e-06	7.857789e-08	-3.868779e-10	5.455229e-01	-3.077398e+01
1.870000e-06	1.255360e-07	-3.729794e-10	8.715271e-01	-2.949999e+01
1.880000e-06	1.723675e-07	-3.576132e-10	1.196652e+00	-2.819020e+01
1.890000e-06	2.192843e-07	-3.397240e-10	1.522370e+00	-2.684507e+01
1.900000e-06	2.662669e-07	-3.180280e-10	1.848544e+00	-2.546515e+01
1.910000e-06	3.130885e-07	-2.947362e-10	2.173601e+00	-2.405114e+01
1.920000e-06	3.599338e-07	-2.730974e-10	2.498822e+00	-2.260387e+01
1.930000e-06	4.067787e-07	-2.538335e-10	2.824040e+00	-2.112428e+01
1.940000e-06	4.534743e-07	-2.349624e-10	3.148222e+00	-1.961346e+01
1.950000e-06	5.001226e-07	-2.157386e-10	3.472075e+00	-1.807260e+01
1.960000e-06	5.467634e-07	-1.965916e-10	3.795877e+00	-1.650301e+01
1.970000e-06	5.933422e-07	-1.768390e-10	4.119247e+00	-1.490613e+01
1.980000e-06	6.398948e-07	-1.562800e-10	4.442436e+00	-1.328349e+01
1.990000e-06	6.863965e-07	-1.347858e-10	4.765272e+00	-1.163675e+01
2.000000e-06	7.328407e-07	-1.105755e-10	5.087708e+00	-9.967638e+00
2.010000e-06	7.792697e-07	-8.487972e-11	5.410039e+00	-8.277998e+00
2.020000e-06	8.256388e-07	-5.882624e-11	5.731954e+00	-6.569743e+00
2.030000e-06	8.719658e-07	-3.295638e-11	6.053577e+00	-4.844864e+00
2.040000e-06	9.182557e-07	-8.958990e-12	6.374942e+00	-3.105422e+00
2.050000e-06	9.645162e-07	1.379877e-11	6.696104e+00	-1.353533e+00
2.060000e-06	1.010704e-06	3.703146e-11	7.016758e+00	4.086407e-01
2.070000e-06	1.056713e-06	6.057308e-11	7.336177e+00	2.178895e+00
2.080000e-06	1.102589e-06	8.356002e-11	7.654664e+00	3.954999e+00
2.090000e-06	1.148421e-06	1.073874e-10	7.972856e+00	5.734704e+00
2.100000e-06	1.194179e-06	1.334049e-10	8.290525e+00	7.515751e+00
2.110000e-06	1.239821e-06	1.608503e-10	8.607390e+00	9.295886e+00
2.120000e-06	1.285356e-06	1.878541e-10	8.923517e+00	1.107286e+01
2.130000e-06	1.330848e-06	2.129097e-10	9.239342e+00	1.284447e+01
2.140000e-06	1.376288e-06	2.359053e-10	9.554809e+00	1.460850e+01
2.150000e-06	1.421660e-06	2.579523e-10	9.869803e+00	1.636281e+01
2.160000e-06	1.467002e-06	2.801755e-10	1.018458e+01	1.810532e+01
2.170000e-06	1.512175e-06	3.040766e-10	1.049820e+01	1.983396e+01
2.180000e-06	1.557159e-06	3.280242e-10	1.081049e+01	2.154677e+01
2.190000e-06	1.602045e-06	3.532657e-10	1.112211e+01	2.324186e+01
2.200000e-06	1.646768e-06	3.771256e-10	1.143260e+01	2.491740e+01
2.210000e-06	1.691365e-06	3.983897e-10	1.174221e+01	2.657166e+01
2.220000e-06	1.735907e-06	4.192845e-10	1.205144e+01	2.820302e+01
2.230000e-06	1.780355e-06	4.404200e-10	1.236002e+01	2.980992e+01
2.240000e-06	1.824634e-06	4.623110e-10	1.266743e+01	3.139094e+01
2.250000e-06	1.868713e-06	4.837937e-10	1.297344e+01	3.294475e+01
2.260000e-06	1.912744e-06	5.057097e-10	1.327913e+01	3.447012e+01
2.270000e-06	1.956735e-06	5.260063e-10	1.358453e+01	3.596596e+01
2.280000e-06	2.000651e-06	5.442818e-10	1.388941e+01	3.743127e+01
2.290000e-06	2.044524e-06	5.607689e-10	1.419400e+01	3.886516e+01
2.300000e-06	2.088341e-06	5.777844e-10	1.449820e+01	4.026688e+01
2.310000e-06	2.132069e-06	5.969285e-10	1.480177e+01	4.163576e+01
2.320000e-06	2.175660e-06	6.186851e-10	1.510441e+01	4.297127e+01
2.330000e-06	2.219129e-06	6.410083e-10	1.540619e+01	4.427297e+01
2.340000e-06	2.262426e-06	6.619341e-10	1.570677e+01	4.554053e+01
2.350000e-06	2.305535e-06	6.804965e-10	1.600606e+01	4.677373e+01
2.360000e-06	2.348442e-06	6.961272e-10	1.630394e+01	4.797245e+01
2.370000e-06	2.391086e-06	7.099268e-10	1.659999e+01	4.913664e+01
2.380000e-06	2.433494e-06	7.229689e-10	1.689441e+01	5.026639e+01
2.390000e-06	2.475614e-06	7.357804e-10	1.718682e+01	5.136182e+01
2.400000e-06	2.517297e-06	7.494026e-10	1.747620e+01	5.242318e+01
2.410000e-06	2.558666e-06	7.634916e-10	1.776340e+01	5.345076e+01
2.420000e-06	2.599896e-06	7.781037e-10	1.804964e+01	5.444493e+01
2.430000e-06	2.640933e-06	7.914686e-10	1.833454e+01	5.540612e+01
2.440000e-06	2.681771e-06	8.033889e-10	1.861806e+01	5.633483e+01
2.450000e-06	2.722309e-06	8.145254e-10	1.889949e+01	5.723160e+01
2.460000e-06	2.762555e-06	8.261410e-10	1.917889e+01	5.809702e+01
2.470000e-06	2.802632e-06	8.372242e-10	1.945713e+01	5.893170e+01
2.480000e-06	2.842515e-06	8.452225e-10	1.973401e+01	5.973632e+01
2.490000e-06	2.882260e-06	8.538657e-10	2.000994e+01	6.051155e+01
2.500000e-06	2.921917e-06	8.636623e-10	2.028525e+01	6.125811e+01
2.510000e-06	2.961447e-06	8.736213e-10	2.055969e+01	6.197673e+01
2.520000e-06	3.000767e-06	8.831067e-10	2.083267e+01	6.266814e+01
2.530000e-06	3.039926e-06	8.915217e-10	2.110453e+01	6.333310e+01
2.540000e-06	3.078931e-06	9.000729e-10	2.137531e+01	6.397235e+01
2.550000e-06	3.117668e-06	9.089908e-10	2.164425e+01	6.458664e+01
2.560000e-06	3.156177e-06	9.170786e-10	2.191159e+01	6.517673e+01
2.570000e-06	3.194512e-06	9.257215e-10	2.217773e+01	6.574335e+01
2.580000e-06	3.232649e-06	9.350016e-10	2.244250e+01	6.628724e+01
2.590000e-06	3.270495e-06	9.428394e-10	2.270524e+01	6.680911e+01
2.600000e-06	3.308105e-06	9.484547e-10	2.296634e+01	6.730967e+01
2.610000e-06	3.345541e-06	9.547613e-10	2.322625e+01	6.778961e+01
2.620000e-06	3.382753e-06	9.617146e-10	2.348459e+01	6.824960e+01
2.630000e-06	3.419708e-06	9.690452e-10	2.374115e+01	6.869030e+01
2.640000e-06	3.456416e-06	9.776211e-10	2.399599e+01	6.911234e+01
2.650000e-06	3.492873e-06	9.857613e-10	2.424909e+01	6.951634e+01
2.660000e-06	3.529061e-06	9.915891e-10	2.450032e+01	6.990291e+01
2.670000e-06	3.565030e-06	9.962090e-10	2.475003e+01	7.027262e+01
2.680000e-06	3.600835e-06	9.998114e-10	2.499861e+01	7.062603e+01
2.690000e-06	3.636562e-06	1.003015e-09	2.524664e+01	7.096369e+01
2.700000e-06	3.672131e-06	1.005682e-09	2.549358e+01	7.128612e+01
2.710000e-06	3.707442e-06	1.007815e-09	2.573872e+01	7.159385e+01
2.720000e-06	3.742516e-06	1.012002e-09	2.598222e+01	7.188736e+01
2.730000e-06	3.777364e-06	1.017524e-09	2.622415e+01	7.216714e+01
2.740000e-06	3.811871e-06	1.023162e-09	2.646371e+01	7.243365e+01
2.750000e-06	3.845852e-06	1.027439e-09	2.669963e+01	7.268736e+01
2.760000e-06	3.879284e-06	1.029249e-09	2.693173e+01	7.292871e+01
2.770000e-06	3.912310e-06	1.030011e-09	2.716101e+01	7.315813e+01
2.780000e-06	3.944966e-06	1.033013e-09	2.738772e+01	7.337606e+01
2.790000e-06	3.977255e-06	1.039619e-09	2.761188e+01	7.358290e+01
2.800000e-06	4.009259e-06	1.045831e-09	2.783407e+01	7.377908e+01
2.810000e-06	4.041123e-06	1.048877e-09	2.805529e+01	7.396499e+01
2.820000e-06	4.072888e-06	1.051193e-09	2.827581e+01	7.414104e+01
2.830000e-06	4.104438e-06	1.054308e-09	2.849485e+01	7.430760e+01
2.840000e-06	4.135726e-06	1.058233e-09	2.871207e+01	7.446508e+01
2.850000e-06	4.166794e-06	1.062440e-09	2.892775e+01	7.461383e+01
2.860000e-06	4.197577e-06	1.064056e-09	2.914146e+01	7.475424e+01
2.870000e-06	4.227955e-06	1.066963e-09	2.935236e+01	7.488668e+01
2.880000e-06	4.258004e-06	1.068089e-09	2.956097e+01	7.501149e+01
2.890000e-06	4.287800e-06	1.066662e-09	2.976783e+01	7.512903e+01
2.900000e-06	4.317353e-06	1.066177e-09	2.997300e+01	7.523964e+01
