# Temperatura_=_15.49
# Concentracion g/m^3_=_1620.0
# C_Vs_to_Am_M_A/Vsm_=_65563218390.804596
# pendiente_HvsI_1/m_=_3716.3
# ordenada_HvsI_A/m_=_1297.0
# frecuencia_Hz_=_135092.33524117075

Tiempo_(s)	Campo_(V.s)	Magnetizacion_(V.s)	Campo_(kA/m)	Magnetizacion_(A/m)
0.000000e+00	-5.536457e-06	-1.550726e-09	-3.837733e+01	-1.003252e+02
1.000000e-08	-5.536502e-06	-1.549175e-09	-3.837765e+01	-1.002779e+02
2.000000e-08	-5.536359e-06	-1.550306e-09	-3.837665e+01	-1.002302e+02
3.000000e-08	-5.535959e-06	-1.552462e-09	-3.837388e+01	-1.001819e+02
4.000000e-08	-5.535099e-06	-1.555352e-09	-3.836792e+01	-1.001328e+02
5.000000e-08	-5.533636e-06	-1.553271e-09	-3.835778e+01	-1.000826e+02
6.000000e-08	-5.531477e-06	-1.546526e-09	-3.834282e+01	-1.000311e+02
7.000000e-08	-5.528720e-06	-1.516647e-09	-3.832370e+01	-9.997798e+01
8.000000e-08	-5.525445e-06	-1.512665e-09	-3.830100e+01	-9.992302e+01
9.000000e-08	-5.521659e-06	-1.591259e-09	-3.827476e+01	-9.986596e+01
1.000000e-07	-5.517473e-06	-1.662005e-09	-3.824574e+01	-9.980653e+01
1.100000e-07	-5.513110e-06	-1.559705e-09	-3.821550e+01	-9.974448e+01
1.200000e-07	-5.508626e-06	-1.431006e-09	-3.818442e+01	-9.967957e+01
1.300000e-07	-5.503832e-06	-1.466772e-09	-3.815119e+01	-9.961155e+01
1.400000e-07	-5.498624e-06	-1.609647e-09	-3.811508e+01	-9.954022e+01
1.500000e-07	-5.492969e-06	-1.565637e-09	-3.807588e+01	-9.946537e+01
1.600000e-07	-5.486922e-06	-1.463459e-09	-3.803397e+01	-9.938682e+01
1.700000e-07	-5.480446e-06	-1.462750e-09	-3.798908e+01	-9.930440e+01
1.800000e-07	-5.473536e-06	-1.603877e-09	-3.794118e+01	-9.921798e+01
1.900000e-07	-5.466131e-06	-1.569720e-09	-3.788985e+01	-9.912745e+01
2.000000e-07	-5.458389e-06	-1.464404e-09	-3.783618e+01	-9.903272e+01
2.100000e-07	-5.450486e-06	-1.442255e-09	-3.778140e+01	-9.893373e+01
2.200000e-07	-5.442402e-06	-1.546774e-09	-3.772537e+01	-9.883044e+01
2.300000e-07	-5.434118e-06	-1.569408e-09	-3.766794e+01	-9.872285e+01
2.400000e-07	-5.425498e-06	-1.499749e-09	-3.760820e+01	-9.861097e+01
2.500000e-07	-5.416086e-06	-1.464585e-09	-3.754295e+01	-9.849485e+01
2.600000e-07	-5.405867e-06	-1.492616e-09	-3.747212e+01	-9.837456e+01
2.700000e-07	-5.395179e-06	-1.519705e-09	-3.739803e+01	-9.825020e+01
2.800000e-07	-5.384018e-06	-1.483699e-09	-3.732066e+01	-9.812188e+01
2.900000e-07	-5.372325e-06	-1.476256e-09	-3.723961e+01	-9.798975e+01
3.000000e-07	-5.360252e-06	-1.485132e-09	-3.715592e+01	-9.785396e+01
3.100000e-07	-5.347902e-06	-1.531604e-09	-3.707032e+01	-9.771468e+01
3.200000e-07	-5.335028e-06	-1.477956e-09	-3.698108e+01	-9.757210e+01
3.300000e-07	-5.321677e-06	-1.462632e-09	-3.688853e+01	-9.742642e+01
3.400000e-07	-5.308087e-06	-1.479521e-09	-3.679433e+01	-9.727784e+01
3.500000e-07	-5.294142e-06	-1.516894e-09	-3.669766e+01	-9.712658e+01
3.600000e-07	-5.279694e-06	-1.451985e-09	-3.659752e+01	-9.697286e+01
3.700000e-07	-5.264938e-06	-1.462751e-09	-3.649523e+01	-9.681689e+01
3.800000e-07	-5.249693e-06	-1.488951e-09	-3.638956e+01	-9.665887e+01
3.900000e-07	-5.233745e-06	-1.463252e-09	-3.627901e+01	-9.649902e+01
4.000000e-07	-5.217145e-06	-1.428806e-09	-3.616394e+01	-9.633753e+01
4.100000e-07	-5.200239e-06	-1.503065e-09	-3.604676e+01	-9.617459e+01
4.200000e-07	-5.183108e-06	-1.490543e-09	-3.592800e+01	-9.601036e+01
4.300000e-07	-5.165619e-06	-1.414391e-09	-3.580677e+01	-9.584501e+01
4.400000e-07	-5.147869e-06	-1.448256e-09	-3.568374e+01	-9.567866e+01
4.500000e-07	-5.129728e-06	-1.518389e-09	-3.555799e+01	-9.551144e+01
4.600000e-07	-5.111050e-06	-1.431810e-09	-3.542852e+01	-9.534343e+01
4.700000e-07	-5.091967e-06	-1.396765e-09	-3.529624e+01	-9.517472e+01
4.800000e-07	-5.072646e-06	-1.475739e-09	-3.516231e+01	-9.500535e+01
4.900000e-07	-5.053032e-06	-1.454226e-09	-3.502635e+01	-9.483533e+01
5.000000e-07	-5.033151e-06	-1.388659e-09	-3.488854e+01	-9.466468e+01
5.100000e-07	-5.013119e-06	-1.449881e-09	-3.474968e+01	-9.449336e+01
5.200000e-07	-4.992831e-06	-1.466034e-09	-3.460905e+01	-9.432133e+01
5.300000e-07	-4.972122e-06	-1.382649e-09	-3.446550e+01	-9.414851e+01
5.400000e-07	-4.951087e-06	-1.415663e-09	-3.431970e+01	-9.397481e+01
5.500000e-07	-4.929668e-06	-1.468924e-09	-3.417122e+01	-9.380011e+01
5.600000e-07	-4.907820e-06	-1.396782e-09	-3.401978e+01	-9.362428e+01
5.700000e-07	-4.885659e-06	-1.363937e-09	-3.386616e+01	-9.344716e+01
5.800000e-07	-4.863227e-06	-1.435888e-09	-3.371067e+01	-9.326858e+01
5.900000e-07	-4.840447e-06	-1.409328e-09	-3.355277e+01	-9.308837e+01
6.000000e-07	-4.817239e-06	-1.368122e-09	-3.339189e+01	-9.290633e+01
6.100000e-07	-4.793790e-06	-1.408619e-09	-3.322935e+01	-9.272227e+01
6.200000e-07	-4.770109e-06	-1.420609e-09	-3.306520e+01	-9.253598e+01
6.300000e-07	-4.746153e-06	-1.366067e-09	-3.289914e+01	-9.234725e+01
6.400000e-07	-4.721995e-06	-1.383441e-09	-3.273169e+01	-9.215587e+01
6.500000e-07	-4.697606e-06	-1.390840e-09	-3.256263e+01	-9.196165e+01
6.600000e-07	-4.672802e-06	-1.360705e-09	-3.239069e+01	-9.176439e+01
6.700000e-07	-4.647377e-06	-1.362224e-09	-3.221445e+01	-9.156389e+01
6.800000e-07	-4.621461e-06	-1.391152e-09	-3.203481e+01	-9.135999e+01
6.900000e-07	-4.595053e-06	-1.363120e-09	-3.185176e+01	-9.115251e+01
7.000000e-07	-4.568094e-06	-1.358335e-09	-3.166488e+01	-9.094131e+01
7.100000e-07	-4.540702e-06	-1.372227e-09	-3.147501e+01	-9.072627e+01
7.200000e-07	-4.512967e-06	-1.362107e-09	-3.128276e+01	-9.050726e+01
7.300000e-07	-4.485079e-06	-1.343960e-09	-3.108944e+01	-9.028420e+01
7.400000e-07	-4.457122e-06	-1.358367e-09	-3.089566e+01	-9.005703e+01
7.500000e-07	-4.428992e-06	-1.353237e-09	-3.070067e+01	-8.982569e+01
7.600000e-07	-4.400633e-06	-1.339317e-09	-3.050409e+01	-8.959016e+01
7.700000e-07	-4.371905e-06	-1.339763e-09	-3.030495e+01	-8.935045e+01
7.800000e-07	-4.342731e-06	-1.334898e-09	-3.010272e+01	-8.910657e+01
7.900000e-07	-4.313228e-06	-1.317953e-09	-2.989822e+01	-8.885859e+01
8.000000e-07	-4.283469e-06	-1.319995e-09	-2.969193e+01	-8.860656e+01
8.100000e-07	-4.253455e-06	-1.324519e-09	-2.948389e+01	-8.835057e+01
8.200000e-07	-4.223058e-06	-1.307659e-09	-2.927318e+01	-8.809073e+01
8.300000e-07	-4.192378e-06	-1.301557e-09	-2.906051e+01	-8.782718e+01
8.400000e-07	-4.161462e-06	-1.308397e-09	-2.884621e+01	-8.756004e+01
8.500000e-07	-4.130300e-06	-1.303477e-09	-2.863020e+01	-8.728947e+01
8.600000e-07	-4.098965e-06	-1.287753e-09	-2.841300e+01	-8.701564e+01
8.700000e-07	-4.067404e-06	-1.289053e-09	-2.819423e+01	-8.673872e+01
8.800000e-07	-4.035640e-06	-1.280423e-09	-2.797405e+01	-8.645888e+01
8.900000e-07	-4.003685e-06	-1.268325e-09	-2.775254e+01	-8.617630e+01
9.000000e-07	-3.971523e-06	-1.267032e-09	-2.752960e+01	-8.589117e+01
9.100000e-07	-3.939058e-06	-1.274578e-09	-2.730456e+01	-8.560365e+01
9.200000e-07	-3.906220e-06	-1.263033e-09	-2.707694e+01	-8.531392e+01
9.300000e-07	-3.873108e-06	-1.261957e-09	-2.684741e+01	-8.502212e+01
9.400000e-07	-3.839618e-06	-1.264196e-09	-2.661527e+01	-8.472841e+01
9.500000e-07	-3.805547e-06	-1.254258e-09	-2.637910e+01	-8.443292e+01
9.600000e-07	-3.770888e-06	-1.235672e-09	-2.613885e+01	-8.413574e+01
9.700000e-07	-3.735828e-06	-1.235455e-09	-2.589582e+01	-8.383699e+01
9.800000e-07	-3.700464e-06	-1.230406e-09	-2.565069e+01	-8.353671e+01
9.900000e-07	-3.664781e-06	-1.221321e-09	-2.540335e+01	-8.323496e+01
1.000000e-06	-3.628942e-06	-1.220430e-09	-2.515492e+01	-8.293176e+01
1.010000e-06	-3.593019e-06	-1.225746e-09	-2.490591e+01	-8.262709e+01
1.020000e-06	-3.556983e-06	-1.215457e-09	-2.465612e+01	-8.232092e+01
1.030000e-06	-3.520828e-06	-1.209212e-09	-2.440550e+01	-8.201317e+01
1.040000e-06	-3.484480e-06	-1.209279e-09	-2.415354e+01	-8.170376e+01
1.050000e-06	-3.447873e-06	-1.199693e-09	-2.389979e+01	-8.139256e+01
1.060000e-06	-3.410969e-06	-1.184456e-09	-2.364398e+01	-8.107942e+01
1.070000e-06	-3.373764e-06	-1.180353e-09	-2.338609e+01	-8.076416e+01
1.080000e-06	-3.336284e-06	-1.175986e-09	-2.312628e+01	-8.044656e+01
1.090000e-06	-3.298537e-06	-1.165887e-09	-2.286463e+01	-8.012641e+01
1.100000e-06	-3.260659e-06	-1.163217e-09	-2.260207e+01	-7.980343e+01
1.110000e-06	-3.222604e-06	-1.160629e-09	-2.233828e+01	-7.947737e+01
1.120000e-06	-3.184303e-06	-1.148641e-09	-2.207279e+01	-7.914791e+01
1.130000e-06	-3.145752e-06	-1.136844e-09	-2.180557e+01	-7.881475e+01
1.140000e-06	-3.106902e-06	-1.135163e-09	-2.153627e+01	-7.847757e+01
1.150000e-06	-3.067874e-06	-1.130723e-09	-2.126573e+01	-7.813602e+01
1.160000e-06	-3.028552e-06	-1.124386e-09	-2.099317e+01	-7.778977e+01
1.170000e-06	-2.989022e-06	-1.118805e-09	-2.071915e+01	-7.743846e+01
1.180000e-06	-2.949401e-06	-1.115437e-09	-2.044451e+01	-7.708174e+01
1.190000e-06	-2.909609e-06	-1.109198e-09	-2.016868e+01	-7.671926e+01
1.200000e-06	-2.869701e-06	-1.106154e-09	-1.989205e+01	-7.635067e+01
1.210000e-06	-2.829693e-06	-1.101429e-09	-1.961472e+01	-7.597563e+01
1.220000e-06	-2.789600e-06	-1.095586e-09	-1.933681e+01	-7.559381e+01
1.230000e-06	-2.749435e-06	-1.089131e-09	-1.905840e+01	-7.520489e+01
1.240000e-06	-2.709114e-06	-1.085537e-09	-1.877890e+01	-7.480855e+01
1.250000e-06	-2.668512e-06	-1.077198e-09	-1.849746e+01	-7.440451e+01
1.260000e-06	-2.627563e-06	-1.069080e-09	-1.821361e+01	-7.399248e+01
1.270000e-06	-2.586277e-06	-1.061418e-09	-1.792742e+01	-7.357221e+01
1.280000e-06	-2.544741e-06	-1.054202e-09	-1.763951e+01	-7.314346e+01
1.290000e-06	-2.502928e-06	-1.043730e-09	-1.734967e+01	-7.270600e+01
1.300000e-06	-2.460771e-06	-1.037733e-09	-1.705745e+01	-7.225962e+01
1.310000e-06	-2.418250e-06	-1.033502e-09	-1.676271e+01	-7.180414e+01
1.320000e-06	-2.375501e-06	-1.025548e-09	-1.646638e+01	-7.133939e+01
1.330000e-06	-2.332562e-06	-1.015368e-09	-1.616874e+01	-7.086521e+01
1.340000e-06	-2.289324e-06	-1.007418e-09	-1.586902e+01	-7.038146e+01
1.350000e-06	-2.245874e-06	-1.001809e-09	-1.556783e+01	-6.988801e+01
1.360000e-06	-2.202334e-06	-9.973172e-10	-1.526603e+01	-6.938474e+01
1.370000e-06	-2.158674e-06	-9.903444e-10	-1.496339e+01	-6.887153e+01
1.380000e-06	-2.114872e-06	-9.796210e-10	-1.465977e+01	-6.834826e+01
1.390000e-06	-2.070997e-06	-9.657241e-10	-1.435563e+01	-6.781483e+01
1.400000e-06	-2.027060e-06	-9.543958e-10	-1.405107e+01	-6.727110e+01
1.410000e-06	-1.983028e-06	-9.460089e-10	-1.374586e+01	-6.671696e+01
1.420000e-06	-1.938911e-06	-9.367761e-10	-1.344005e+01	-6.615225e+01
1.430000e-06	-1.894780e-06	-9.285848e-10	-1.313414e+01	-6.557682e+01
1.440000e-06	-1.850555e-06	-9.199265e-10	-1.282758e+01	-6.499048e+01
1.450000e-06	-1.806196e-06	-9.080817e-10	-1.252010e+01	-6.439302e+01
1.460000e-06	-1.761703e-06	-8.926410e-10	-1.221168e+01	-6.378422e+01
1.470000e-06	-1.717087e-06	-8.780202e-10	-1.190242e+01	-6.316378e+01
1.480000e-06	-1.672380e-06	-8.641014e-10	-1.159252e+01	-6.253141e+01
1.490000e-06	-1.627483e-06	-8.513616e-10	-1.128130e+01	-6.188674e+01
1.500000e-06	-1.582416e-06	-8.376571e-10	-1.096891e+01	-6.122938e+01
1.510000e-06	-1.537252e-06	-8.253323e-10	-1.065585e+01	-6.055888e+01
1.520000e-06	-1.491960e-06	-8.137991e-10	-1.034189e+01	-5.987475e+01
1.530000e-06	-1.446540e-06	-8.046014e-10	-1.002705e+01	-5.917643e+01
1.540000e-06	-1.401103e-06	-7.941347e-10	-9.712094e+00	-5.846333e+01
1.550000e-06	-1.355574e-06	-7.804475e-10	-9.396502e+00	-5.773479e+01
1.560000e-06	-1.309913e-06	-7.660295e-10	-9.079992e+00	-5.699009e+01
1.570000e-06	-1.264201e-06	-7.552233e-10	-8.763126e+00	-5.622848e+01
1.580000e-06	-1.218469e-06	-7.432792e-10	-8.446125e+00	-5.544914e+01
1.590000e-06	-1.172611e-06	-7.273850e-10	-8.128244e+00	-5.465121e+01
1.600000e-06	-1.126682e-06	-7.113013e-10	-7.809879e+00	-5.383377e+01
1.610000e-06	-1.080744e-06	-7.008094e-10	-7.491446e+00	-5.299587e+01
1.620000e-06	-1.034645e-06	-6.923520e-10	-7.171897e+00	-5.213651e+01
1.630000e-06	-9.884506e-07	-6.835076e-10	-6.851692e+00	-5.125465e+01
1.640000e-06	-9.421602e-07	-6.722819e-10	-6.530818e+00	-5.034926e+01
1.650000e-06	-8.957353e-07	-6.550974e-10	-6.209013e+00	-4.941923e+01
1.660000e-06	-8.492784e-07	-6.348192e-10	-5.886985e+00	-4.846348e+01
1.670000e-06	-8.028164e-07	-6.131983e-10	-5.564922e+00	-4.748090e+01
1.680000e-06	-7.562561e-07	-5.921293e-10	-5.242178e+00	-4.647038e+01
1.690000e-06	-7.095920e-07	-5.730362e-10	-4.918714e+00	-4.543083e+01
1.700000e-06	-6.628615e-07	-5.544889e-10	-4.594790e+00	-4.436117e+01
1.710000e-06	-6.161360e-07	-5.429120e-10	-4.270901e+00	-4.326035e+01
1.720000e-06	-5.694118e-07	-5.306711e-10	-3.947020e+00	-4.212735e+01
1.730000e-06	-5.226037e-07	-5.146360e-10	-3.622558e+00	-4.096121e+01
1.740000e-06	-4.758147e-07	-4.926756e-10	-3.298228e+00	-3.976100e+01
1.750000e-06	-4.289964e-07	-4.676093e-10	-2.973695e+00	-3.852588e+01
1.760000e-06	-3.821007e-07	-4.427252e-10	-2.648627e+00	-3.725508e+01
1.770000e-06	-3.351976e-07	-4.203822e-10	-2.323506e+00	-3.594792e+01
1.780000e-06	-2.882215e-07	-4.042585e-10	-1.997879e+00	-3.460379e+01
1.790000e-06	-2.411848e-07	-3.883847e-10	-1.671833e+00	-3.322220e+01
1.800000e-06	-1.941477e-07	-3.731950e-10	-1.345783e+00	-3.180278e+01
1.810000e-06	-1.471753e-07	-3.560696e-10	-1.020183e+00	-3.034527e+01
1.820000e-06	-1.002339e-07	-3.351611e-10	-6.947965e-01	-2.884954e+01
1.830000e-06	-5.327352e-08	-3.111206e-10	-3.692787e-01	-2.731558e+01
1.840000e-06	-6.308934e-09	-2.884895e-10	-4.373195e-02	-2.574354e+01
1.850000e-06	4.062679e-08	-2.664403e-10	2.816147e-01	-2.413370e+01
1.860000e-06	8.753620e-08	-2.447386e-10	6.067790e-01	-2.248649e+01
1.870000e-06	1.345297e-07	-2.234001e-10	9.325264e-01	-2.080250e+01
1.880000e-06	1.815114e-07	-2.026685e-10	1.258192e+00	-1.908247e+01
1.890000e-06	2.284148e-07	-1.770296e-10	1.583314e+00	-1.732729e+01
1.900000e-06	2.753596e-07	-1.496130e-10	1.908724e+00	-1.553801e+01
1.910000e-06	3.222865e-07	-1.197046e-10	2.234009e+00	-1.371582e+01
1.920000e-06	3.691642e-07	-9.034984e-11	2.558954e+00	-1.186209e+01
1.930000e-06	4.160060e-07	-6.480038e-11	2.883650e+00	-9.978318e+00
1.940000e-06	4.627284e-07	-4.124360e-11	3.207517e+00	-8.066143e+00
1.950000e-06	5.094425e-07	-1.662657e-11	3.531328e+00	-6.127355e+00
1.960000e-06	5.561552e-07	1.016841e-11	3.855128e+00	-4.163870e+00
1.970000e-06	6.027283e-07	3.784278e-11	4.177962e+00	-2.177728e+00
1.980000e-06	6.492421e-07	6.653388e-11	4.500384e+00	-1.710896e-01
1.990000e-06	6.957259e-07	9.658099e-11	4.822598e+00	1.853781e+00
2.000000e-06	7.422193e-07	1.268931e-10	5.144878e+00	3.894521e+00
2.010000e-06	7.887016e-07	1.570995e-10	5.467082e+00	5.948682e+00
2.020000e-06	8.351134e-07	1.867289e-10	5.788797e+00	8.013739e+00
2.030000e-06	8.813826e-07	2.146223e-10	6.109523e+00	1.008711e+01
2.040000e-06	9.276116e-07	2.404082e-10	6.429971e+00	1.216615e+01
2.050000e-06	9.738972e-07	2.659370e-10	6.750812e+00	1.424819e+01
2.060000e-06	1.020074e-06	2.938201e-10	7.070900e+00	1.633054e+01
2.070000e-06	1.066158e-06	3.246141e-10	7.390339e+00	1.841048e+01
2.080000e-06	1.112126e-06	3.560626e-10	7.708979e+00	2.048531e+01
2.090000e-06	1.157996e-06	3.864213e-10	8.026937e+00	2.255235e+01
2.100000e-06	1.203862e-06	4.162513e-10	8.344872e+00	2.460893e+01
2.110000e-06	1.249587e-06	4.441202e-10	8.661821e+00	2.665244e+01
2.120000e-06	1.295219e-06	4.717779e-10	8.978132e+00	2.868032e+01
2.130000e-06	1.340830e-06	4.971389e-10	9.294299e+00	3.069008e+01
2.140000e-06	1.386321e-06	5.206619e-10	9.609630e+00	3.267931e+01
2.150000e-06	1.431647e-06	5.442587e-10	9.923821e+00	3.464569e+01
2.160000e-06	1.476849e-06	5.695133e-10	1.023715e+01	3.658701e+01
2.170000e-06	1.522013e-06	5.962034e-10	1.055021e+01	3.850115e+01
2.180000e-06	1.567076e-06	6.248474e-10	1.086258e+01	4.038614e+01
2.190000e-06	1.612074e-06	6.538983e-10	1.117449e+01	4.224012e+01
2.200000e-06	1.656936e-06	6.793963e-10	1.148546e+01	4.406137e+01
2.210000e-06	1.701643e-06	7.010043e-10	1.179537e+01	4.584830e+01
2.220000e-06	1.746195e-06	7.222907e-10	1.210418e+01	4.759950e+01
2.230000e-06	1.790583e-06	7.432246e-10	1.241187e+01	4.931368e+01
2.240000e-06	1.834858e-06	7.639862e-10	1.271878e+01	5.098971e+01
2.250000e-06	1.879019e-06	7.848114e-10	1.302489e+01	5.262663e+01
2.260000e-06	1.923122e-06	8.067269e-10	1.333060e+01	5.422361e+01
2.270000e-06	1.967155e-06	8.263685e-10	1.363583e+01	5.577999e+01
2.280000e-06	2.011100e-06	8.438573e-10	1.394044e+01	5.729528e+01
2.290000e-06	2.055017e-06	8.616555e-10	1.424486e+01	5.876911e+01
2.300000e-06	2.098924e-06	8.804673e-10	1.454922e+01	6.020128e+01
2.310000e-06	2.142750e-06	9.006231e-10	1.485301e+01	6.159173e+01
2.320000e-06	2.186494e-06	9.198603e-10	1.515623e+01	6.294054e+01
2.330000e-06	2.230129e-06	9.378816e-10	1.545870e+01	6.424791e+01
2.340000e-06	2.273595e-06	9.538659e-10	1.575999e+01	6.551419e+01
2.350000e-06	2.316817e-06	9.704119e-10	1.605960e+01	6.673982e+01
2.360000e-06	2.359867e-06	9.888045e-10	1.635801e+01	6.792536e+01
2.370000e-06	2.402768e-06	1.006183e-09	1.665538e+01	6.907150e+01
2.380000e-06	2.445250e-06	1.022290e-09	1.694986e+01	7.017898e+01
2.390000e-06	2.487357e-06	1.037767e-09	1.724174e+01	7.124865e+01
2.400000e-06	2.529148e-06	1.050786e-09	1.753142e+01	7.228142e+01
2.410000e-06	2.570613e-06	1.063107e-09	1.781884e+01	7.327829e+01
2.420000e-06	2.611808e-06	1.074229e-09	1.810440e+01	7.424028e+01
2.430000e-06	2.652703e-06	1.084244e-09	1.838787e+01	7.516848e+01
2.440000e-06	2.693275e-06	1.094646e-09	1.866911e+01	7.606400e+01
2.450000e-06	2.733608e-06	1.105412e-09	1.894868e+01	7.692800e+01
2.460000e-06	2.773874e-06	1.117645e-09	1.922780e+01	7.776164e+01
2.470000e-06	2.813952e-06	1.130714e-09	1.950561e+01	7.856608e+01
2.480000e-06	2.853851e-06	1.140993e-09	1.978218e+01	7.934249e+01
2.490000e-06	2.893638e-06	1.150444e-09	2.005797e+01	8.009205e+01
2.500000e-06	2.933332e-06	1.160192e-09	2.033312e+01	8.081590e+01
2.510000e-06	2.972886e-06	1.171747e-09	2.060730e+01	8.151516e+01
2.520000e-06	3.012193e-06	1.183739e-09	2.087977e+01	8.219095e+01
2.530000e-06	3.051338e-06	1.192715e-09	2.115111e+01	8.284432e+01
2.540000e-06	3.090294e-06	1.199683e-09	2.142114e+01	8.347631e+01
2.550000e-06	3.129047e-06	1.206050e-09	2.168977e+01	8.408790e+01
2.560000e-06	3.167553e-06	1.211433e-09	2.195669e+01	8.468004e+01
2.570000e-06	3.205802e-06	1.219395e-09	2.222182e+01	8.525362e+01
2.580000e-06	3.243874e-06	1.229562e-09	2.248573e+01	8.580948e+01
2.590000e-06	3.281786e-06	1.239282e-09	2.274852e+01	8.634842e+01
2.600000e-06	3.319474e-06	1.248641e-09	2.300976e+01	8.687118e+01
2.610000e-06	3.356897e-06	1.257348e-09	2.326917e+01	8.737844e+01
2.620000e-06	3.394114e-06	1.264685e-09	2.352715e+01	8.787085e+01
2.630000e-06	3.431079e-06	1.270598e-09	2.378338e+01	8.834898e+01
2.640000e-06	3.467726e-06	1.277204e-09	2.403741e+01	8.881339e+01
2.650000e-06	3.504101e-06	1.282867e-09	2.428955e+01	8.926455e+01
2.660000e-06	3.540272e-06	1.288174e-09	2.454028e+01	8.970291e+01
2.670000e-06	3.576327e-06	1.294168e-09	2.479020e+01	9.012888e+01
2.680000e-06	3.612256e-06	1.301319e-09	2.503925e+01	9.054282e+01
2.690000e-06	3.648035e-06	1.307798e-09	2.528726e+01	9.094507e+01
2.700000e-06	3.683744e-06	1.314680e-09	2.553479e+01	9.133593e+01
2.710000e-06	3.719277e-06	1.322656e-09	2.578110e+01	9.171566e+01
2.720000e-06	3.754465e-06	1.329301e-09	2.602501e+01	9.208451e+01
2.730000e-06	3.789204e-06	1.332564e-09	2.626581e+01	9.244272e+01
2.740000e-06	3.823549e-06	1.335460e-09	2.650389e+01	9.279049e+01
2.750000e-06	3.857457e-06	1.337965e-09	2.673892e+01	9.312803e+01
2.760000e-06	3.890766e-06	1.339327e-09	2.696981e+01	9.345552e+01
2.770000e-06	3.923624e-06	1.343078e-09	2.719758e+01	9.377315e+01
2.780000e-06	3.956179e-06	1.350659e-09	2.742324e+01	9.408109e+01
2.790000e-06	3.988434e-06	1.360761e-09	2.764683e+01	9.437953e+01
2.800000e-06	4.020478e-06	1.371503e-09	2.786894e+01	9.466864e+01
2.810000e-06	4.052374e-06	1.379380e-09	2.809004e+01	9.494863e+01
2.820000e-06	4.084123e-06	1.383707e-09	2.831012e+01	9.521967e+01
2.830000e-06	4.115708e-06	1.385959e-09	2.852906e+01	9.548197e+01
2.840000e-06	4.147053e-06	1.386933e-09	2.874633e+01	9.573574e+01
2.850000e-06	4.178102e-06	1.385693e-09	2.896155e+01	9.598121e+01
2.860000e-06	4.208793e-06	1.385903e-09	2.917430e+01	9.621859e+01
2.870000e-06	4.239132e-06	1.392527e-09	2.938460e+01	9.644813e+01
2.880000e-06	4.269218e-06	1.400851e-09	2.959315e+01	9.667008e+01
2.890000e-06	4.299090e-06	1.407985e-09	2.980022e+01	9.688470e+01
2.900000e-06	4.328733e-06	1.412458e-09	3.000569e+01	9.709225e+01
