# Temperatura_=_9.9
# Concentracion g/m^3_=_1620.0
# C_Vs_to_Am_M_A/Vsm_=_65563218390.804596
# pendiente_HvsI_1/m_=_3716.3
# ordenada_HvsI_A/m_=_1297.0
# frecuencia_Hz_=_135100.0137554982

Tiempo_(s)	Campo_(V.s)	Magnetizacion_(V.s)	Campo_(kA/m)	Magnetizacion_(A/m)
0.000000e+00	-5.507861e-06	-1.617526e-09	-3.836951e+01	-1.056200e+02
1.000000e-08	-5.508040e-06	-1.613002e-09	-3.837076e+01	-1.056234e+02
2.000000e-08	-5.508064e-06	-1.610008e-09	-3.837093e+01	-1.056279e+02
3.000000e-08	-5.507795e-06	-1.610324e-09	-3.836905e+01	-1.056332e+02
4.000000e-08	-5.506991e-06	-1.612183e-09	-3.836345e+01	-1.056388e+02
5.000000e-08	-5.505633e-06	-1.611200e-09	-3.835399e+01	-1.056444e+02
6.000000e-08	-5.503827e-06	-1.603195e-09	-3.834141e+01	-1.056494e+02
7.000000e-08	-5.501505e-06	-1.601035e-09	-3.832523e+01	-1.056533e+02
8.000000e-08	-5.498562e-06	-1.626858e-09	-3.830473e+01	-1.056558e+02
9.000000e-08	-5.495037e-06	-1.667503e-09	-3.828017e+01	-1.056561e+02
1.000000e-07	-5.490994e-06	-1.631888e-09	-3.825201e+01	-1.056538e+02
1.100000e-07	-5.486693e-06	-1.547705e-09	-3.822205e+01	-1.056485e+02
1.200000e-07	-5.482287e-06	-1.536866e-09	-3.819135e+01	-1.056395e+02
1.300000e-07	-5.477531e-06	-1.624313e-09	-3.815822e+01	-1.056264e+02
1.400000e-07	-5.472326e-06	-1.647902e-09	-3.812196e+01	-1.056087e+02
1.500000e-07	-5.466780e-06	-1.584301e-09	-3.808333e+01	-1.055858e+02
1.600000e-07	-5.460960e-06	-1.552637e-09	-3.804279e+01	-1.055574e+02
1.700000e-07	-5.454774e-06	-1.613369e-09	-3.799969e+01	-1.055230e+02
1.800000e-07	-5.448082e-06	-1.614973e-09	-3.795307e+01	-1.054823e+02
1.900000e-07	-5.440944e-06	-1.557558e-09	-3.790335e+01	-1.054348e+02
2.000000e-07	-5.433495e-06	-1.543043e-09	-3.785145e+01	-1.053802e+02
2.100000e-07	-5.425797e-06	-1.617946e-09	-3.779782e+01	-1.053183e+02
2.200000e-07	-5.417898e-06	-1.658847e-09	-3.774280e+01	-1.052489e+02
2.300000e-07	-5.409758e-06	-1.614803e-09	-3.768609e+01	-1.051717e+02
2.400000e-07	-5.401192e-06	-1.569924e-09	-3.762642e+01	-1.050866e+02
2.500000e-07	-5.391990e-06	-1.576064e-09	-3.756231e+01	-1.049935e+02
2.600000e-07	-5.382000e-06	-1.603209e-09	-3.749272e+01	-1.048924e+02
2.700000e-07	-5.371421e-06	-1.595527e-09	-3.741903e+01	-1.047833e+02
2.800000e-07	-5.360400e-06	-1.585790e-09	-3.734225e+01	-1.046662e+02
2.900000e-07	-5.348929e-06	-1.584538e-09	-3.726234e+01	-1.045412e+02
3.000000e-07	-5.337125e-06	-1.588556e-09	-3.718011e+01	-1.044085e+02
3.100000e-07	-5.324939e-06	-1.558981e-09	-3.709522e+01	-1.042683e+02
3.200000e-07	-5.312307e-06	-1.551548e-09	-3.700722e+01	-1.041209e+02
3.300000e-07	-5.299317e-06	-1.564507e-09	-3.691673e+01	-1.039664e+02
3.400000e-07	-5.285969e-06	-1.586442e-09	-3.682374e+01	-1.038052e+02
3.500000e-07	-5.272137e-06	-1.567332e-09	-3.672738e+01	-1.036377e+02
3.600000e-07	-5.257846e-06	-1.573509e-09	-3.662783e+01	-1.034643e+02
3.700000e-07	-5.243204e-06	-1.589003e-09	-3.652583e+01	-1.032852e+02
3.800000e-07	-5.228094e-06	-1.566786e-09	-3.642056e+01	-1.031011e+02
3.900000e-07	-5.212274e-06	-1.525466e-09	-3.631036e+01	-1.029122e+02
4.000000e-07	-5.195960e-06	-1.552913e-09	-3.619671e+01	-1.027191e+02
4.100000e-07	-5.179391e-06	-1.575653e-09	-3.608128e+01	-1.025222e+02
4.200000e-07	-5.162397e-06	-1.531849e-09	-3.596290e+01	-1.023220e+02
4.300000e-07	-5.145060e-06	-1.525678e-09	-3.584212e+01	-1.021189e+02
4.400000e-07	-5.127482e-06	-1.578651e-09	-3.571967e+01	-1.019133e+02
4.500000e-07	-5.109530e-06	-1.551602e-09	-3.559461e+01	-1.017057e+02
4.600000e-07	-5.091183e-06	-1.490896e-09	-3.546680e+01	-1.014966e+02
4.700000e-07	-5.072408e-06	-1.526203e-09	-3.533601e+01	-1.012863e+02
4.800000e-07	-5.053329e-06	-1.557208e-09	-3.520309e+01	-1.010752e+02
4.900000e-07	-5.033965e-06	-1.504112e-09	-3.506820e+01	-1.008636e+02
5.000000e-07	-5.014284e-06	-1.499055e-09	-3.493110e+01	-1.006518e+02
5.100000e-07	-4.994400e-06	-1.544718e-09	-3.479258e+01	-1.004402e+02
5.200000e-07	-4.974222e-06	-1.513249e-09	-3.465201e+01	-1.002289e+02
5.300000e-07	-4.953718e-06	-1.483138e-09	-3.450917e+01	-1.000182e+02
5.400000e-07	-4.932882e-06	-1.522876e-09	-3.436403e+01	-9.980822e+01
5.500000e-07	-4.911653e-06	-1.516298e-09	-3.421614e+01	-9.959908e+01
5.600000e-07	-4.890012e-06	-1.465276e-09	-3.406538e+01	-9.939085e+01
5.700000e-07	-4.868151e-06	-1.494674e-09	-3.391309e+01	-9.918358e+01
5.800000e-07	-4.846043e-06	-1.524023e-09	-3.375908e+01	-9.897724e+01
5.900000e-07	-4.823455e-06	-1.479031e-09	-3.360172e+01	-9.877179e+01
6.000000e-07	-4.800540e-06	-1.464035e-09	-3.344208e+01	-9.856713e+01
6.100000e-07	-4.777386e-06	-1.498136e-09	-3.328079e+01	-9.836314e+01
6.200000e-07	-4.753883e-06	-1.475643e-09	-3.311706e+01	-9.815963e+01
6.300000e-07	-4.730156e-06	-1.451129e-09	-3.295177e+01	-9.795642e+01
6.400000e-07	-4.706280e-06	-1.476527e-09	-3.278544e+01	-9.775325e+01
6.500000e-07	-4.682144e-06	-1.478492e-09	-3.261730e+01	-9.754988e+01
6.600000e-07	-4.657550e-06	-1.449025e-09	-3.244597e+01	-9.734600e+01
6.700000e-07	-4.632398e-06	-1.461637e-09	-3.227076e+01	-9.714131e+01
6.800000e-07	-4.606757e-06	-1.471693e-09	-3.209213e+01	-9.693547e+01
6.900000e-07	-4.580506e-06	-1.446614e-09	-3.190926e+01	-9.672815e+01
7.000000e-07	-4.553709e-06	-1.436899e-09	-3.172258e+01	-9.651898e+01
7.100000e-07	-4.526589e-06	-1.447334e-09	-3.153366e+01	-9.630761e+01
7.200000e-07	-4.499162e-06	-1.433569e-09	-3.134259e+01	-9.609368e+01
7.300000e-07	-4.471478e-06	-1.420453e-09	-3.114974e+01	-9.587683e+01
7.400000e-07	-4.443699e-06	-1.426186e-09	-3.095622e+01	-9.565670e+01
7.500000e-07	-4.415789e-06	-1.422654e-09	-3.076179e+01	-9.543295e+01
7.600000e-07	-4.387545e-06	-1.409378e-09	-3.056503e+01	-9.520526e+01
7.700000e-07	-4.358977e-06	-1.409908e-09	-3.036602e+01	-9.497330e+01
7.800000e-07	-4.330107e-06	-1.406003e-09	-3.016490e+01	-9.473679e+01
7.900000e-07	-4.300905e-06	-1.391747e-09	-2.996147e+01	-9.449545e+01
8.000000e-07	-4.271415e-06	-1.387675e-09	-2.975604e+01	-9.424905e+01
8.100000e-07	-4.241680e-06	-1.384491e-09	-2.954889e+01	-9.399736e+01
8.200000e-07	-4.211671e-06	-1.371689e-09	-2.933984e+01	-9.374020e+01
8.300000e-07	-4.181373e-06	-1.365083e-09	-2.912877e+01	-9.347742e+01
8.400000e-07	-4.150712e-06	-1.366780e-09	-2.891518e+01	-9.320889e+01
8.500000e-07	-4.119685e-06	-1.358236e-09	-2.869903e+01	-9.293453e+01
8.600000e-07	-4.088488e-06	-1.352083e-09	-2.848171e+01	-9.265427e+01
8.700000e-07	-4.057101e-06	-1.351145e-09	-2.826306e+01	-9.236809e+01
8.800000e-07	-4.025501e-06	-1.342103e-09	-2.804292e+01	-9.207599e+01
8.900000e-07	-3.993771e-06	-1.328722e-09	-2.782188e+01	-9.177803e+01
9.000000e-07	-3.961844e-06	-1.326665e-09	-2.759946e+01	-9.147427e+01
9.100000e-07	-3.929663e-06	-1.322848e-09	-2.737528e+01	-9.116480e+01
9.200000e-07	-3.897187e-06	-1.316022e-09	-2.714904e+01	-9.084975e+01
9.300000e-07	-3.864296e-06	-1.313941e-09	-2.691992e+01	-9.052926e+01
9.400000e-07	-3.830879e-06	-1.311954e-09	-2.668712e+01	-9.020351e+01
9.500000e-07	-3.797007e-06	-1.300558e-09	-2.645116e+01	-8.987269e+01
9.600000e-07	-3.762708e-06	-1.293725e-09	-2.621222e+01	-8.953699e+01
9.700000e-07	-3.728065e-06	-1.291768e-09	-2.597088e+01	-8.919664e+01
9.800000e-07	-3.693155e-06	-1.283687e-09	-2.572769e+01	-8.885185e+01
9.900000e-07	-3.657882e-06	-1.272192e-09	-2.548197e+01	-8.850286e+01
1.000000e-06	-3.622363e-06	-1.266831e-09	-2.523453e+01	-8.814990e+01
1.010000e-06	-3.586701e-06	-1.259779e-09	-2.498610e+01	-8.779321e+01
1.020000e-06	-3.550867e-06	-1.252243e-09	-2.473647e+01	-8.743300e+01
1.030000e-06	-3.514905e-06	-1.250080e-09	-2.448594e+01	-8.706951e+01
1.040000e-06	-3.478819e-06	-1.251414e-09	-2.423456e+01	-8.670293e+01
1.050000e-06	-3.442509e-06	-1.245361e-09	-2.398161e+01	-8.633347e+01
1.060000e-06	-3.405861e-06	-1.238465e-09	-2.372631e+01	-8.596130e+01
1.070000e-06	-3.368866e-06	-1.235609e-09	-2.346859e+01	-8.558659e+01
1.080000e-06	-3.331604e-06	-1.226853e-09	-2.320901e+01	-8.520947e+01
1.090000e-06	-3.294126e-06	-1.216148e-09	-2.294793e+01	-8.483005e+01
1.100000e-06	-3.256400e-06	-1.210708e-09	-2.268511e+01	-8.444842e+01
1.110000e-06	-3.218441e-06	-1.207785e-09	-2.242068e+01	-8.406466e+01
1.120000e-06	-3.180326e-06	-1.202403e-09	-2.215516e+01	-8.367878e+01
1.130000e-06	-3.142057e-06	-1.200620e-09	-2.188857e+01	-8.329080e+01
1.140000e-06	-3.103589e-06	-1.199491e-09	-2.162058e+01	-8.290068e+01
1.150000e-06	-3.064892e-06	-1.194648e-09	-2.135101e+01	-8.250839e+01
1.160000e-06	-3.025995e-06	-1.188288e-09	-2.108004e+01	-8.211382e+01
1.170000e-06	-2.986928e-06	-1.181625e-09	-2.080789e+01	-8.171687e+01
1.180000e-06	-2.947619e-06	-1.171057e-09	-2.053405e+01	-8.131738e+01
1.190000e-06	-2.908098e-06	-1.162658e-09	-2.025873e+01	-8.091520e+01
1.200000e-06	-2.868495e-06	-1.157641e-09	-1.998285e+01	-8.051012e+01
1.210000e-06	-2.828775e-06	-1.152195e-09	-1.970614e+01	-8.010191e+01
1.220000e-06	-2.788951e-06	-1.145785e-09	-1.942872e+01	-7.969032e+01
1.230000e-06	-2.749016e-06	-1.142897e-09	-1.915052e+01	-7.927509e+01
1.240000e-06	-2.708820e-06	-1.140126e-09	-1.887050e+01	-7.885591e+01
1.250000e-06	-2.668362e-06	-1.134742e-09	-1.858866e+01	-7.843247e+01
1.260000e-06	-2.627780e-06	-1.127321e-09	-1.830595e+01	-7.800444e+01
1.270000e-06	-2.587044e-06	-1.118311e-09	-1.802217e+01	-7.757147e+01
1.280000e-06	-2.546050e-06	-1.107805e-09	-1.773659e+01	-7.713319e+01
1.290000e-06	-2.504746e-06	-1.097494e-09	-1.744886e+01	-7.668924e+01
1.300000e-06	-2.463103e-06	-1.089016e-09	-1.715876e+01	-7.623923e+01
1.310000e-06	-2.421120e-06	-1.082320e-09	-1.686629e+01	-7.578276e+01
1.320000e-06	-2.378852e-06	-1.074873e-09	-1.657184e+01	-7.531942e+01
1.330000e-06	-2.336344e-06	-1.066967e-09	-1.627571e+01	-7.484882e+01
1.340000e-06	-2.293530e-06	-1.058623e-09	-1.597746e+01	-7.437053e+01
1.350000e-06	-2.250498e-06	-1.050315e-09	-1.567769e+01	-7.388413e+01
1.360000e-06	-2.207333e-06	-1.041391e-09	-1.537698e+01	-7.338921e+01
1.370000e-06	-2.163932e-06	-1.033506e-09	-1.507464e+01	-7.288533e+01
1.380000e-06	-2.120333e-06	-1.025688e-09	-1.477091e+01	-7.237207e+01
1.390000e-06	-2.076660e-06	-1.016255e-09	-1.446667e+01	-7.184899e+01
1.400000e-06	-2.032940e-06	-1.005088e-09	-1.416211e+01	-7.131566e+01
1.410000e-06	-1.989133e-06	-9.908320e-10	-1.385693e+01	-7.077164e+01
1.420000e-06	-1.945231e-06	-9.750196e-10	-1.355110e+01	-7.021649e+01
1.430000e-06	-1.901282e-06	-9.613018e-10	-1.324493e+01	-6.964974e+01
1.440000e-06	-1.857293e-06	-9.531090e-10	-1.293849e+01	-6.907096e+01
1.450000e-06	-1.813179e-06	-9.468341e-10	-1.263118e+01	-6.847967e+01
1.460000e-06	-1.769002e-06	-9.389421e-10	-1.232343e+01	-6.787541e+01
1.470000e-06	-1.724725e-06	-9.285020e-10	-1.201498e+01	-6.725769e+01
1.480000e-06	-1.680270e-06	-9.164894e-10	-1.170530e+01	-6.662601e+01
1.490000e-06	-1.635669e-06	-8.986553e-10	-1.139459e+01	-6.597988e+01
1.500000e-06	-1.590807e-06	-8.778857e-10	-1.108207e+01	-6.531876e+01
1.510000e-06	-1.545818e-06	-8.598170e-10	-1.076866e+01	-6.464213e+01
1.520000e-06	-1.500865e-06	-8.473021e-10	-1.045550e+01	-6.394943e+01
1.530000e-06	-1.455829e-06	-8.401403e-10	-1.014177e+01	-6.324008e+01
1.540000e-06	-1.410697e-06	-8.350896e-10	-9.827363e+00	-6.251350e+01
1.550000e-06	-1.365446e-06	-8.273474e-10	-9.512131e+00	-6.176907e+01
1.560000e-06	-1.320047e-06	-8.155272e-10	-9.195865e+00	-6.100617e+01
1.570000e-06	-1.274517e-06	-8.006579e-10	-8.878692e+00	-6.022413e+01
1.580000e-06	-1.228889e-06	-7.838465e-10	-8.560829e+00	-5.942228e+01
1.590000e-06	-1.183249e-06	-7.647313e-10	-8.242891e+00	-5.859994e+01
1.600000e-06	-1.137622e-06	-7.484845e-10	-7.925039e+00	-5.775638e+01
1.610000e-06	-1.091953e-06	-7.379778e-10	-7.606893e+00	-5.689089e+01
1.620000e-06	-1.046141e-06	-7.316974e-10	-7.287749e+00	-5.600269e+01
1.630000e-06	-1.000179e-06	-7.271591e-10	-6.967561e+00	-5.509105e+01
1.640000e-06	-9.541686e-07	-7.198851e-10	-6.647042e+00	-5.415518e+01
1.650000e-06	-9.081689e-07	-7.072101e-10	-6.326593e+00	-5.319430e+01
1.660000e-06	-8.621068e-07	-6.895355e-10	-6.005710e+00	-5.220763e+01
1.670000e-06	-8.159997e-07	-6.691675e-10	-5.684513e+00	-5.119437e+01
1.680000e-06	-7.699079e-07	-6.502926e-10	-5.363423e+00	-5.015374e+01
1.690000e-06	-7.237234e-07	-6.350109e-10	-5.041687e+00	-4.908497e+01
1.700000e-06	-6.774738e-07	-6.202352e-10	-4.719498e+00	-4.798728e+01
1.710000e-06	-6.311332e-07	-6.075549e-10	-4.396675e+00	-4.685994e+01
1.720000e-06	-5.846906e-07	-5.952611e-10	-4.073140e+00	-4.570222e+01
1.730000e-06	-5.382437e-07	-5.784348e-10	-3.749576e+00	-4.451343e+01
1.740000e-06	-4.917801e-07	-5.553969e-10	-3.425896e+00	-4.329292e+01
1.750000e-06	-4.452054e-07	-5.333440e-10	-3.101443e+00	-4.204007e+01
1.760000e-06	-3.985337e-07	-5.115344e-10	-2.776313e+00	-4.075433e+01
1.770000e-06	-3.517893e-07	-4.897901e-10	-2.450676e+00	-3.943520e+01
1.780000e-06	-3.050256e-07	-4.730979e-10	-2.124906e+00	-3.808222e+01
1.790000e-06	-2.582987e-07	-4.585239e-10	-1.799391e+00	-3.669504e+01
1.800000e-06	-2.115504e-07	-4.429917e-10	-1.473727e+00	-3.527335e+01
1.810000e-06	-1.648332e-07	-4.262933e-10	-1.148280e+00	-3.381695e+01
1.820000e-06	-1.181123e-07	-4.066043e-10	-8.228080e-01	-3.232572e+01
1.830000e-06	-7.138087e-08	-3.833001e-10	-4.972618e-01	-3.079963e+01
1.840000e-06	-2.469883e-08	-3.582110e-10	-1.720599e-01	-2.923876e+01
1.850000e-06	2.204034e-08	-3.352452e-10	1.535400e-01	-2.764328e+01
1.860000e-06	6.889369e-08	-3.143201e-10	4.799353e-01	-2.601349e+01
1.870000e-06	1.156619e-07	-2.918903e-10	8.057376e-01	-2.434978e+01
1.880000e-06	1.623771e-07	-2.706398e-10	1.131170e+00	-2.265269e+01
1.890000e-06	2.091232e-07	-2.487686e-10	1.456819e+00	-2.092285e+01
1.900000e-06	2.558397e-07	-2.226757e-10	1.782261e+00	-1.916102e+01
1.910000e-06	3.025258e-07	-1.926251e-10	2.107491e+00	-1.736809e+01
1.920000e-06	3.491787e-07	-1.607603e-10	2.432490e+00	-1.554506e+01
1.930000e-06	3.957995e-07	-1.314035e-10	2.757265e+00	-1.369307e+01
1.940000e-06	4.423883e-07	-1.064124e-10	3.081817e+00	-1.181338e+01
1.950000e-06	4.889314e-07	-8.327604e-11	3.406052e+00	-9.907338e+00
1.960000e-06	5.353683e-07	-6.028330e-11	3.729545e+00	-7.976451e+00
1.970000e-06	5.817135e-07	-3.478009e-11	4.052401e+00	-6.022316e+00
1.980000e-06	6.280449e-07	-7.492924e-12	4.375160e+00	-4.046642e+00
1.990000e-06	6.743143e-07	2.228495e-11	4.697488e+00	-2.051242e+00
2.000000e-06	7.205377e-07	5.664026e-11	5.019494e+00	-3.802436e-02
2.010000e-06	7.666940e-07	9.166404e-11	5.341034e+00	1.991011e+00
2.020000e-06	8.128018e-07	1.230811e-10	5.662235e+00	4.033782e+00
2.030000e-06	8.589584e-07	1.515197e-10	5.983777e+00	6.088134e+00
2.040000e-06	9.050674e-07	1.781301e-10	6.304987e+00	8.151845e+00
2.050000e-06	9.511583e-07	2.037042e-10	6.626071e+00	1.022264e+01
2.060000e-06	9.972133e-07	2.310938e-10	6.946905e+00	1.229820e+01
2.070000e-06	1.043074e-06	2.627428e-10	7.266385e+00	1.437615e+01
2.080000e-06	1.088798e-06	2.967429e-10	7.584915e+00	1.645413e+01
2.090000e-06	1.134530e-06	3.280657e-10	7.903494e+00	1.852972e+01
2.100000e-06	1.180231e-06	3.573865e-10	8.221864e+00	2.060054e+01
2.110000e-06	1.225787e-06	3.870712e-10	8.539220e+00	2.266418e+01
2.120000e-06	1.271212e-06	4.160445e-10	8.855664e+00	2.471827e+01
2.130000e-06	1.316540e-06	4.436647e-10	9.171433e+00	2.676046e+01
2.140000e-06	1.361810e-06	4.711255e-10	9.486798e+00	2.878845e+01
2.150000e-06	1.407021e-06	4.995785e-10	9.801754e+00	3.079998e+01
2.160000e-06	1.452139e-06	5.291872e-10	1.011606e+01	3.279287e+01
2.170000e-06	1.497132e-06	5.589607e-10	1.042950e+01	3.476498e+01
2.180000e-06	1.541947e-06	5.862481e-10	1.074169e+01	3.671428e+01
2.190000e-06	1.586647e-06	6.152968e-10	1.105309e+01	3.863882e+01
2.200000e-06	1.631332e-06	6.433135e-10	1.136438e+01	4.053674e+01
2.210000e-06	1.675903e-06	6.675476e-10	1.167487e+01	4.240630e+01
2.220000e-06	1.720349e-06	6.913572e-10	1.198450e+01	4.424585e+01
2.230000e-06	1.764656e-06	7.148219e-10	1.229316e+01	4.605387e+01
2.240000e-06	1.808793e-06	7.395419e-10	1.260062e+01	4.782897e+01
2.250000e-06	1.852819e-06	7.638992e-10	1.290733e+01	4.956987e+01
2.260000e-06	1.896719e-06	7.873695e-10	1.321315e+01	5.127544e+01
2.270000e-06	1.940558e-06	8.069363e-10	1.351855e+01	5.294468e+01
2.280000e-06	1.984355e-06	8.250626e-10	1.382364e+01	5.457670e+01
2.290000e-06	2.028071e-06	8.433350e-10	1.412819e+01	5.617078e+01
2.300000e-06	2.071737e-06	8.621412e-10	1.443238e+01	5.772632e+01
2.310000e-06	2.115383e-06	8.824541e-10	1.473643e+01	5.924285e+01
2.320000e-06	2.158943e-06	9.037206e-10	1.503988e+01	6.072003e+01
2.330000e-06	2.202373e-06	9.257759e-10	1.534243e+01	6.215768e+01
2.340000e-06	2.245609e-06	9.465621e-10	1.564363e+01	6.355571e+01
2.350000e-06	2.288671e-06	9.653014e-10	1.594361e+01	6.491418e+01
2.360000e-06	2.331585e-06	9.803478e-10	1.624256e+01	6.623324e+01
2.370000e-06	2.374206e-06	9.928649e-10	1.653947e+01	6.751319e+01
2.380000e-06	2.416446e-06	1.007356e-09	1.683373e+01	6.875440e+01
2.390000e-06	2.458362e-06	1.021846e-09	1.712573e+01	6.995735e+01
2.400000e-06	2.499836e-06	1.037727e-09	1.741465e+01	7.112264e+01
2.410000e-06	2.541002e-06	1.054576e-09	1.770143e+01	7.225091e+01
2.420000e-06	2.582065e-06	1.071172e-09	1.798749e+01	7.334292e+01
2.430000e-06	2.622865e-06	1.084217e-09	1.827171e+01	7.439947e+01
2.440000e-06	2.663369e-06	1.093945e-09	1.855388e+01	7.542142e+01
2.450000e-06	2.703694e-06	1.103691e-09	1.883479e+01	7.640972e+01
2.460000e-06	2.743821e-06	1.113425e-09	1.911433e+01	7.736533e+01
2.470000e-06	2.783759e-06	1.125279e-09	1.939255e+01	7.828925e+01
2.480000e-06	2.823564e-06	1.137284e-09	1.966984e+01	7.918253e+01
2.490000e-06	2.863255e-06	1.149335e-09	1.994634e+01	8.004621e+01
2.500000e-06	2.902821e-06	1.161681e-09	2.022197e+01	8.088138e+01
2.510000e-06	2.942280e-06	1.173339e-09	2.049686e+01	8.168911e+01
2.520000e-06	2.981611e-06	1.183693e-09	2.077085e+01	8.247047e+01
2.530000e-06	3.020709e-06	1.193259e-09	2.104322e+01	8.322653e+01
2.540000e-06	3.059566e-06	1.202823e-09	2.131391e+01	8.395835e+01
2.550000e-06	3.098165e-06	1.212343e-09	2.158280e+01	8.466697e+01
2.560000e-06	3.136605e-06	1.220076e-09	2.185059e+01	8.535340e+01
2.570000e-06	3.174834e-06	1.226419e-09	2.211690e+01	8.601863e+01
2.580000e-06	3.212819e-06	1.232583e-09	2.238152e+01	8.666360e+01
2.590000e-06	3.250650e-06	1.241720e-09	2.264506e+01	8.728923e+01
2.600000e-06	3.288310e-06	1.252378e-09	2.290741e+01	8.789640e+01
2.610000e-06	3.325732e-06	1.263139e-09	2.316811e+01	8.848594e+01
2.620000e-06	3.362819e-06	1.274984e-09	2.342647e+01	8.905866e+01
2.630000e-06	3.399560e-06	1.286019e-09	2.368242e+01	8.961530e+01
2.640000e-06	3.436062e-06	1.295115e-09	2.393670e+01	9.015655e+01
2.650000e-06	3.472387e-06	1.303766e-09	2.418975e+01	9.068310e+01
2.660000e-06	3.508488e-06	1.311345e-09	2.444124e+01	9.119554e+01
2.670000e-06	3.544386e-06	1.318488e-09	2.469132e+01	9.169445e+01
2.680000e-06	3.580160e-06	1.326174e-09	2.494053e+01	9.218037e+01
2.690000e-06	3.615848e-06	1.334373e-09	2.518914e+01	9.265378e+01
2.700000e-06	3.651409e-06	1.343411e-09	2.543688e+01	9.311514e+01
2.710000e-06	3.686784e-06	1.354076e-09	2.568331e+01	9.356484e+01
2.720000e-06	3.721893e-06	1.364314e-09	2.592789e+01	9.400329e+01
2.730000e-06	3.756631e-06	1.371250e-09	2.616989e+01	9.443081e+01
2.740000e-06	3.790978e-06	1.376219e-09	2.640915e+01	9.484774e+01
2.750000e-06	3.824839e-06	1.379905e-09	2.664505e+01	9.525435e+01
2.760000e-06	3.858218e-06	1.382266e-09	2.687757e+01	9.565092e+01
2.770000e-06	3.891248e-06	1.386469e-09	2.710767e+01	9.603770e+01
2.780000e-06	3.923883e-06	1.393591e-09	2.733502e+01	9.641491e+01
2.790000e-06	3.956145e-06	1.401904e-09	2.755976e+01	9.678277e+01
2.800000e-06	3.988167e-06	1.411674e-09	2.778284e+01	9.714148e+01
2.810000e-06	4.019990e-06	1.420501e-09	2.800453e+01	9.749122e+01
2.820000e-06	4.051592e-06	1.425966e-09	2.822468e+01	9.783218e+01
2.830000e-06	4.083027e-06	1.429080e-09	2.844367e+01	9.816453e+01
2.840000e-06	4.114269e-06	1.431560e-09	2.866130e+01	9.848844e+01
2.850000e-06	4.145244e-06	1.434050e-09	2.887709e+01	9.880409e+01
2.860000e-06	4.175893e-06	1.437881e-09	2.909060e+01	9.911163e+01
2.870000e-06	4.206227e-06	1.444081e-09	2.930191e+01	9.941123e+01
2.880000e-06	4.236284e-06	1.450371e-09	2.951130e+01	9.970306e+01
2.890000e-06	4.266109e-06	1.452781e-09	2.971907e+01	9.998728e+01
2.900000e-06	4.295631e-06	1.453074e-09	2.992473e+01	1.002641e+02
