# Temperatura_=_15.2
# Concentracion g/m^3_=_1620.0
# C_Vs_to_Am_M_A/Vsm_=_65563218390.804596
# pendiente_HvsI_1/m_=_3716.3
# ordenada_HvsI_A/m_=_1297.0
# frecuencia_Hz_=_135092.99035688618

Tiempo_(s)	Campo_(V.s)	Magnetizacion_(V.s)	Campo_(kA/m)	Magnetizacion_(A/m)
0.000000e+00	-5.538223e-06	-1.547851e-09	-3.837001e+01	-1.038751e+02
1.000000e-08	-5.538495e-06	-1.542452e-09	-3.837190e+01	-1.038281e+02
2.000000e-08	-5.538567e-06	-1.538890e-09	-3.837239e+01	-1.037823e+02
3.000000e-08	-5.538280e-06	-1.537126e-09	-3.837041e+01	-1.037375e+02
4.000000e-08	-5.537600e-06	-1.535829e-09	-3.836570e+01	-1.036936e+02
5.000000e-08	-5.536336e-06	-1.533058e-09	-3.835694e+01	-1.036503e+02
6.000000e-08	-5.534424e-06	-1.527885e-09	-3.834369e+01	-1.036074e+02
7.000000e-08	-5.531949e-06	-1.533797e-09	-3.832655e+01	-1.035646e+02
8.000000e-08	-5.528861e-06	-1.544074e-09	-3.830515e+01	-1.035217e+02
9.000000e-08	-5.525232e-06	-1.553812e-09	-3.828001e+01	-1.034783e+02
1.000000e-07	-5.521200e-06	-1.544721e-09	-3.825207e+01	-1.034343e+02
1.100000e-07	-5.516886e-06	-1.541629e-09	-3.822218e+01	-1.033892e+02
1.200000e-07	-5.512389e-06	-1.504726e-09	-3.819103e+01	-1.033428e+02
1.300000e-07	-5.507615e-06	-1.508928e-09	-3.815795e+01	-1.032947e+02
1.400000e-07	-5.502506e-06	-1.536026e-09	-3.812256e+01	-1.032447e+02
1.500000e-07	-5.497044e-06	-1.550643e-09	-3.808471e+01	-1.031925e+02
1.600000e-07	-5.491187e-06	-1.522013e-09	-3.804414e+01	-1.031377e+02
1.700000e-07	-5.484955e-06	-1.505270e-09	-3.800096e+01	-1.030801e+02
1.800000e-07	-5.478268e-06	-1.526979e-09	-3.795463e+01	-1.030195e+02
1.900000e-07	-5.471146e-06	-1.563614e-09	-3.790529e+01	-1.029555e+02
2.000000e-07	-5.463630e-06	-1.531536e-09	-3.785321e+01	-1.028881e+02
2.100000e-07	-5.455861e-06	-1.530488e-09	-3.779939e+01	-1.028169e+02
2.200000e-07	-5.447961e-06	-1.549935e-09	-3.774466e+01	-1.027419e+02
2.300000e-07	-5.439812e-06	-1.585829e-09	-3.768820e+01	-1.026629e+02
2.400000e-07	-5.431189e-06	-1.570300e-09	-3.762846e+01	-1.025798e+02
2.500000e-07	-5.421941e-06	-1.548347e-09	-3.756438e+01	-1.024925e+02
2.600000e-07	-5.412031e-06	-1.553660e-09	-3.749572e+01	-1.024009e+02
2.700000e-07	-5.401415e-06	-1.577477e-09	-3.742217e+01	-1.023051e+02
2.800000e-07	-5.390222e-06	-1.573274e-09	-3.734463e+01	-1.022050e+02
2.900000e-07	-5.378620e-06	-1.546490e-09	-3.726425e+01	-1.021006e+02
3.000000e-07	-5.366708e-06	-1.551393e-09	-3.718172e+01	-1.019920e+02
3.100000e-07	-5.354408e-06	-1.557877e-09	-3.709650e+01	-1.018793e+02
3.200000e-07	-5.341641e-06	-1.562698e-09	-3.700805e+01	-1.017625e+02
3.300000e-07	-5.328551e-06	-1.530669e-09	-3.691736e+01	-1.016417e+02
3.400000e-07	-5.315134e-06	-1.552590e-09	-3.682441e+01	-1.015171e+02
3.500000e-07	-5.301332e-06	-1.558368e-09	-3.672878e+01	-1.013888e+02
3.600000e-07	-5.286982e-06	-1.553722e-09	-3.662936e+01	-1.012569e+02
3.700000e-07	-5.272167e-06	-1.517372e-09	-3.652672e+01	-1.011216e+02
3.800000e-07	-5.256825e-06	-1.537391e-09	-3.642043e+01	-1.009831e+02
3.900000e-07	-5.240867e-06	-1.540891e-09	-3.630986e+01	-1.008414e+02
4.000000e-07	-5.224471e-06	-1.526671e-09	-3.619627e+01	-1.006967e+02
4.100000e-07	-5.207758e-06	-1.524714e-09	-3.608048e+01	-1.005492e+02
4.200000e-07	-5.190753e-06	-1.546580e-09	-3.596267e+01	-1.003990e+02
4.300000e-07	-5.173306e-06	-1.521448e-09	-3.584179e+01	-1.002462e+02
4.400000e-07	-5.155529e-06	-1.507555e-09	-3.571863e+01	-1.000909e+02
4.500000e-07	-5.137477e-06	-1.527152e-09	-3.559356e+01	-9.993329e+01
4.600000e-07	-5.119032e-06	-1.523489e-09	-3.546576e+01	-9.977334e+01
4.700000e-07	-5.100189e-06	-1.482098e-09	-3.533522e+01	-9.961113e+01
4.800000e-07	-5.081033e-06	-1.503655e-09	-3.520250e+01	-9.944672e+01
4.900000e-07	-5.061555e-06	-1.521369e-09	-3.506755e+01	-9.928011e+01
5.000000e-07	-5.041774e-06	-1.487335e-09	-3.493051e+01	-9.911131e+01
5.100000e-07	-5.021786e-06	-1.479052e-09	-3.479202e+01	-9.894028e+01
5.200000e-07	-5.001514e-06	-1.512082e-09	-3.465157e+01	-9.876698e+01
5.300000e-07	-4.980893e-06	-1.487191e-09	-3.450871e+01	-9.859135e+01
5.400000e-07	-4.959927e-06	-1.463083e-09	-3.436345e+01	-9.841329e+01
5.500000e-07	-4.938601e-06	-1.494308e-09	-3.421570e+01	-9.823271e+01
5.600000e-07	-4.916932e-06	-1.490540e-09	-3.406557e+01	-9.804949e+01
5.700000e-07	-4.894821e-06	-1.450462e-09	-3.391239e+01	-9.786348e+01
5.800000e-07	-4.872420e-06	-1.462702e-09	-3.375719e+01	-9.767453e+01
5.900000e-07	-4.849695e-06	-1.482456e-09	-3.359974e+01	-9.748250e+01
6.000000e-07	-4.826553e-06	-1.451178e-09	-3.343941e+01	-9.728722e+01
6.100000e-07	-4.803188e-06	-1.446274e-09	-3.327753e+01	-9.708850e+01
6.200000e-07	-4.779594e-06	-1.463066e-09	-3.311406e+01	-9.688619e+01
6.300000e-07	-4.755757e-06	-1.448630e-09	-3.294892e+01	-9.668011e+01
6.400000e-07	-4.731669e-06	-1.432087e-09	-3.278203e+01	-9.647008e+01
6.500000e-07	-4.707308e-06	-1.447610e-09	-3.261325e+01	-9.625596e+01
6.600000e-07	-4.682613e-06	-1.438840e-09	-3.244216e+01	-9.603759e+01
6.700000e-07	-4.657406e-06	-1.429618e-09	-3.226752e+01	-9.581482e+01
6.800000e-07	-4.631652e-06	-1.435128e-09	-3.208909e+01	-9.558755e+01
6.900000e-07	-4.605359e-06	-1.439100e-09	-3.190693e+01	-9.535565e+01
7.000000e-07	-4.578611e-06	-1.424669e-09	-3.172161e+01	-9.511905e+01
7.100000e-07	-4.551448e-06	-1.428413e-09	-3.153342e+01	-9.487767e+01
7.200000e-07	-4.523904e-06	-1.425098e-09	-3.134259e+01	-9.463149e+01
7.300000e-07	-4.496184e-06	-1.415518e-09	-3.115054e+01	-9.438049e+01
7.400000e-07	-4.468315e-06	-1.405954e-09	-3.095745e+01	-9.412467e+01
7.500000e-07	-4.440240e-06	-1.407158e-09	-3.076295e+01	-9.386408e+01
7.600000e-07	-4.411916e-06	-1.398091e-09	-3.056671e+01	-9.359878e+01
7.700000e-07	-4.383179e-06	-1.394454e-09	-3.036762e+01	-9.332885e+01
7.800000e-07	-4.354028e-06	-1.392965e-09	-3.016565e+01	-9.305442e+01
7.900000e-07	-4.324623e-06	-1.391333e-09	-2.996193e+01	-9.277564e+01
8.000000e-07	-4.294962e-06	-1.386665e-09	-2.975643e+01	-9.249265e+01
8.100000e-07	-4.264997e-06	-1.382724e-09	-2.954883e+01	-9.220567e+01
8.200000e-07	-4.234692e-06	-1.371032e-09	-2.933886e+01	-9.191488e+01
8.300000e-07	-4.204071e-06	-1.358277e-09	-2.912672e+01	-9.162053e+01
8.400000e-07	-4.173144e-06	-1.356973e-09	-2.891245e+01	-9.132284e+01
8.500000e-07	-4.141973e-06	-1.359888e-09	-2.869649e+01	-9.102208e+01
8.600000e-07	-4.110607e-06	-1.360666e-09	-2.847918e+01	-9.071850e+01
8.700000e-07	-4.079012e-06	-1.359628e-09	-2.826028e+01	-9.041236e+01
8.800000e-07	-4.047271e-06	-1.356547e-09	-2.804037e+01	-9.010395e+01
8.900000e-07	-4.015412e-06	-1.344459e-09	-2.781965e+01	-8.979351e+01
9.000000e-07	-3.983351e-06	-1.332144e-09	-2.759752e+01	-8.948131e+01
9.100000e-07	-3.950984e-06	-1.325368e-09	-2.737327e+01	-8.916760e+01
9.200000e-07	-3.918213e-06	-1.322134e-09	-2.714623e+01	-8.885261e+01
9.300000e-07	-3.885024e-06	-1.316508e-09	-2.691629e+01	-8.853655e+01
9.400000e-07	-3.851396e-06	-1.321718e-09	-2.668330e+01	-8.821963e+01
9.500000e-07	-3.817149e-06	-1.321220e-09	-2.644604e+01	-8.790200e+01
9.600000e-07	-3.782389e-06	-1.313526e-09	-2.620521e+01	-8.758380e+01
9.700000e-07	-3.747386e-06	-1.304313e-09	-2.596270e+01	-8.726516e+01
9.800000e-07	-3.712126e-06	-1.298573e-09	-2.571842e+01	-8.694614e+01
9.900000e-07	-3.676633e-06	-1.282229e-09	-2.547251e+01	-8.662678e+01
1.000000e-06	-3.640973e-06	-1.270363e-09	-2.522545e+01	-8.630709e+01
1.010000e-06	-3.605225e-06	-1.270833e-09	-2.497778e+01	-8.598702e+01
1.020000e-06	-3.569379e-06	-1.273912e-09	-2.472943e+01	-8.566650e+01
1.030000e-06	-3.533331e-06	-1.273282e-09	-2.447968e+01	-8.534541e+01
1.040000e-06	-3.497048e-06	-1.276330e-09	-2.422831e+01	-8.502359e+01
1.050000e-06	-3.460511e-06	-1.272206e-09	-2.397517e+01	-8.470083e+01
1.060000e-06	-3.423779e-06	-1.256529e-09	-2.372069e+01	-8.437691e+01
1.070000e-06	-3.386769e-06	-1.238699e-09	-2.346427e+01	-8.405153e+01
1.080000e-06	-3.349399e-06	-1.227722e-09	-2.320536e+01	-8.372438e+01
1.090000e-06	-3.311733e-06	-1.216717e-09	-2.294441e+01	-8.339511e+01
1.100000e-06	-3.273845e-06	-1.213557e-09	-2.268191e+01	-8.306334e+01
1.110000e-06	-3.235696e-06	-1.217106e-09	-2.241761e+01	-8.272866e+01
1.120000e-06	-3.197377e-06	-1.215964e-09	-2.215212e+01	-8.239064e+01
1.130000e-06	-3.158889e-06	-1.206527e-09	-2.188547e+01	-8.204881e+01
1.140000e-06	-3.120173e-06	-1.195423e-09	-2.161724e+01	-8.170271e+01
1.150000e-06	-3.081246e-06	-1.184021e-09	-2.134754e+01	-8.135183e+01
1.160000e-06	-3.042140e-06	-1.172027e-09	-2.107661e+01	-8.099570e+01
1.170000e-06	-3.002914e-06	-1.166710e-09	-2.080484e+01	-8.063380e+01
1.180000e-06	-2.963368e-06	-1.165657e-09	-2.053086e+01	-8.026564e+01
1.190000e-06	-2.923596e-06	-1.166324e-09	-2.025531e+01	-7.989072e+01
1.200000e-06	-2.883788e-06	-1.163854e-09	-1.997951e+01	-7.950854e+01
1.210000e-06	-2.843841e-06	-1.157560e-09	-1.970275e+01	-7.911864e+01
1.220000e-06	-2.803791e-06	-1.145723e-09	-1.942527e+01	-7.872056e+01
1.230000e-06	-2.763653e-06	-1.135122e-09	-1.914719e+01	-7.831386e+01
1.240000e-06	-2.723271e-06	-1.129185e-09	-1.886741e+01	-7.789812e+01
1.250000e-06	-2.682626e-06	-1.124828e-09	-1.858581e+01	-7.747295e+01
1.260000e-06	-2.641722e-06	-1.117079e-09	-1.830242e+01	-7.703801e+01
1.270000e-06	-2.600556e-06	-1.110066e-09	-1.801721e+01	-7.659296e+01
1.280000e-06	-2.559204e-06	-1.102105e-09	-1.773072e+01	-7.613752e+01
1.290000e-06	-2.517574e-06	-1.092874e-09	-1.744230e+01	-7.567142e+01
1.300000e-06	-2.475606e-06	-1.083530e-09	-1.715154e+01	-7.519444e+01
1.310000e-06	-2.433318e-06	-1.077045e-09	-1.685856e+01	-7.470640e+01
1.320000e-06	-2.390732e-06	-1.070198e-09	-1.656351e+01	-7.420714e+01
1.330000e-06	-2.347889e-06	-1.062099e-09	-1.626669e+01	-7.369654e+01
1.340000e-06	-2.304765e-06	-1.051760e-09	-1.596791e+01	-7.317451e+01
1.350000e-06	-2.261434e-06	-1.044074e-09	-1.566771e+01	-7.264099e+01
1.360000e-06	-2.217934e-06	-1.037590e-09	-1.536633e+01	-7.209594e+01
1.370000e-06	-2.174265e-06	-1.031704e-09	-1.506378e+01	-7.153936e+01
1.380000e-06	-2.130531e-06	-1.023566e-09	-1.476078e+01	-7.097124e+01
1.390000e-06	-2.086722e-06	-1.012943e-09	-1.445726e+01	-7.039160e+01
1.400000e-06	-2.042876e-06	-1.001063e-09	-1.415349e+01	-6.980047e+01
1.410000e-06	-1.999007e-06	-9.890181e-10	-1.384955e+01	-6.919789e+01
1.420000e-06	-1.955006e-06	-9.789902e-10	-1.354471e+01	-6.858387e+01
1.430000e-06	-1.910888e-06	-9.717714e-10	-1.323905e+01	-6.795843e+01
1.440000e-06	-1.866684e-06	-9.675657e-10	-1.293279e+01	-6.732159e+01
1.450000e-06	-1.822357e-06	-9.620898e-10	-1.262568e+01	-6.667333e+01
1.460000e-06	-1.777880e-06	-9.509141e-10	-1.231754e+01	-6.601360e+01
1.470000e-06	-1.733294e-06	-9.361763e-10	-1.200864e+01	-6.534234e+01
1.480000e-06	-1.688583e-06	-9.236830e-10	-1.169887e+01	-6.465944e+01
1.490000e-06	-1.643752e-06	-9.110229e-10	-1.138827e+01	-6.396475e+01
1.500000e-06	-1.598770e-06	-8.957339e-10	-1.107662e+01	-6.325806e+01
1.510000e-06	-1.553634e-06	-8.824237e-10	-1.076391e+01	-6.253912e+01
1.520000e-06	-1.508366e-06	-8.730102e-10	-1.045029e+01	-6.180762e+01
1.530000e-06	-1.462993e-06	-8.633253e-10	-1.013593e+01	-6.106320e+01
1.540000e-06	-1.417527e-06	-8.527750e-10	-9.820937e+00	-6.030542e+01
1.550000e-06	-1.371974e-06	-8.406004e-10	-9.505335e+00	-5.953377e+01
1.560000e-06	-1.326380e-06	-8.277486e-10	-9.189446e+00	-5.874770e+01
1.570000e-06	-1.280698e-06	-8.145635e-10	-8.872955e+00	-5.794656e+01
1.580000e-06	-1.234891e-06	-8.003238e-10	-8.555591e+00	-5.712966e+01
1.590000e-06	-1.189043e-06	-7.850110e-10	-8.237947e+00	-5.629622e+01
1.600000e-06	-1.143164e-06	-7.712990e-10	-7.920087e+00	-5.544541e+01
1.610000e-06	-1.097139e-06	-7.590442e-10	-7.601215e+00	-5.457632e+01
1.620000e-06	-1.050956e-06	-7.486885e-10	-7.281250e+00	-5.368802e+01
1.630000e-06	-1.004796e-06	-7.393701e-10	-6.961443e+00	-5.277947e+01
1.640000e-06	-9.586482e-07	-7.294050e-10	-6.641723e+00	-5.184963e+01
1.650000e-06	-9.123361e-07	-7.140328e-10	-6.320862e+00	-5.089739e+01
1.660000e-06	-8.658931e-07	-6.950384e-10	-5.999096e+00	-4.992162e+01
1.670000e-06	-8.194316e-07	-6.750203e-10	-5.677200e+00	-4.892114e+01
1.680000e-06	-7.729386e-07	-6.552641e-10	-5.355086e+00	-4.789479e+01
1.690000e-06	-7.263939e-07	-6.373540e-10	-5.032614e+00	-4.684137e+01
1.700000e-06	-6.798235e-07	-6.195145e-10	-4.709964e+00	-4.575969e+01
1.710000e-06	-6.331411e-07	-6.031759e-10	-4.386539e+00	-4.464858e+01
1.720000e-06	-5.863251e-07	-5.892772e-10	-4.062188e+00	-4.350687e+01
1.730000e-06	-5.395064e-07	-5.731294e-10	-3.737817e+00	-4.233345e+01
1.740000e-06	-4.927019e-07	-5.524844e-10	-3.413546e+00	-4.112723e+01
1.750000e-06	-4.457979e-07	-5.280604e-10	-3.088585e+00	-3.988721e+01
1.760000e-06	-3.988977e-07	-5.032350e-10	-2.763650e+00	-3.861242e+01
1.770000e-06	-3.519881e-07	-4.797979e-10	-2.438650e+00	-3.730200e+01
1.780000e-06	-3.050955e-07	-4.598327e-10	-2.113768e+00	-3.595516e+01
1.790000e-06	-2.581758e-07	-4.422883e-10	-1.788698e+00	-3.457122e+01
1.800000e-06	-2.110378e-07	-4.245013e-10	-1.462115e+00	-3.314962e+01
1.810000e-06	-1.639268e-07	-4.058922e-10	-1.135720e+00	-3.168990e+01
1.820000e-06	-1.169266e-07	-3.850124e-10	-8.100926e-01	-3.019177e+01
1.830000e-06	-6.995833e-08	-3.624837e-10	-4.846865e-01	-2.865502e+01
1.840000e-06	-2.300480e-08	-3.386668e-10	-1.593823e-01	-2.707966e+01
1.850000e-06	2.399133e-08	-3.158537e-10	1.662171e-01	-2.546578e+01
1.860000e-06	7.101707e-08	-2.954219e-10	4.920217e-01	-2.381369e+01
1.870000e-06	1.180049e-07	-2.733440e-10	8.175638e-01	-2.212383e+01
1.880000e-06	1.649843e-07	-2.481036e-10	1.143047e+00	-2.039682e+01
1.890000e-06	2.119632e-07	-2.222557e-10	1.468527e+00	-1.863345e+01
1.900000e-06	2.589644e-07	-1.939695e-10	1.794162e+00	-1.683466e+01
1.910000e-06	3.060039e-07	-1.658169e-10	2.120062e+00	-1.500160e+01
1.920000e-06	3.529826e-07	-1.378827e-10	2.445540e+00	-1.313555e+01
1.930000e-06	3.999175e-07	-1.123467e-10	2.770715e+00	-1.123797e+01
1.940000e-06	4.467374e-07	-8.918953e-11	3.095093e+00	-9.310497e+00
1.950000e-06	4.934811e-07	-6.536330e-11	3.418944e+00	-7.354898e+00
1.960000e-06	5.401868e-07	-3.723055e-11	3.742531e+00	-5.373103e+00
1.970000e-06	5.868412e-07	-6.507478e-12	4.065763e+00	-3.367181e+00
1.980000e-06	6.335691e-07	2.472236e-11	4.389504e+00	-1.339334e+00
1.990000e-06	6.802607e-07	5.732889e-11	4.712994e+00	7.081153e-01
2.000000e-06	7.267589e-07	8.861186e-11	5.035143e+00	2.772734e+00
2.010000e-06	7.731769e-07	1.179881e-10	5.356737e+00	4.851989e+00
2.020000e-06	8.195278e-07	1.437563e-10	5.677866e+00	6.943263e+00
2.030000e-06	8.658121e-07	1.691719e-10	5.998534e+00	9.043865e+00
2.040000e-06	9.120894e-07	1.962349e-10	6.319153e+00	1.115105e+01
2.050000e-06	9.583135e-07	2.247832e-10	6.639404e+00	1.326201e+01
2.060000e-06	1.004525e-06	2.559650e-10	6.959564e+00	1.537395e+01
2.070000e-06	1.050685e-06	2.891167e-10	7.279376e+00	1.748402e+01
2.080000e-06	1.096780e-06	3.221400e-10	7.598731e+00	1.958940e+01
2.090000e-06	1.142742e-06	3.509738e-10	7.917163e+00	2.168726e+01
2.100000e-06	1.188583e-06	3.767425e-10	8.234764e+00	2.377483e+01
2.110000e-06	1.234330e-06	4.035939e-10	8.551704e+00	2.584939e+01
2.120000e-06	1.280013e-06	4.303537e-10	8.868210e+00	2.790825e+01
2.130000e-06	1.325645e-06	4.595242e-10	9.184356e+00	2.994883e+01
2.140000e-06	1.371146e-06	4.875918e-10	9.499596e+00	3.196863e+01
2.150000e-06	1.416607e-06	5.142958e-10	9.814564e+00	3.396524e+01
2.160000e-06	1.461994e-06	5.416978e-10	1.012901e+01	3.593637e+01
2.170000e-06	1.507321e-06	5.681424e-10	1.044304e+01	3.787988e+01
2.180000e-06	1.552520e-06	5.931366e-10	1.075619e+01	3.979374e+01
2.190000e-06	1.597482e-06	6.168236e-10	1.106770e+01	4.167606e+01
2.200000e-06	1.642353e-06	6.396850e-10	1.137858e+01	4.352512e+01
2.210000e-06	1.687118e-06	6.629924e-10	1.168872e+01	4.533934e+01
2.220000e-06	1.731731e-06	6.877192e-10	1.199781e+01	4.711733e+01
2.230000e-06	1.776214e-06	7.127651e-10	1.230600e+01	4.885784e+01
2.240000e-06	1.820537e-06	7.358393e-10	1.261308e+01	5.055981e+01
2.250000e-06	1.864727e-06	7.560186e-10	1.291924e+01	5.222233e+01
2.260000e-06	1.908808e-06	7.759434e-10	1.322464e+01	5.384469e+01
2.270000e-06	1.952865e-06	7.963538e-10	1.352987e+01	5.542631e+01
2.280000e-06	1.996862e-06	8.175591e-10	1.383470e+01	5.696682e+01
2.290000e-06	2.040705e-06	8.403686e-10	1.413844e+01	5.846600e+01
2.300000e-06	2.084446e-06	8.611282e-10	1.444149e+01	5.992376e+01
2.310000e-06	2.128136e-06	8.817598e-10	1.474419e+01	6.134020e+01
2.320000e-06	2.171807e-06	9.041207e-10	1.504675e+01	6.271556e+01
2.330000e-06	2.215418e-06	9.233685e-10	1.534890e+01	6.405019e+01
2.340000e-06	2.258880e-06	9.397120e-10	1.565001e+01	6.534461e+01
2.350000e-06	2.302150e-06	9.556415e-10	1.594979e+01	6.659943e+01
2.360000e-06	2.345206e-06	9.736811e-10	1.624810e+01	6.781538e+01
2.370000e-06	2.388012e-06	9.912123e-10	1.654466e+01	6.899328e+01
2.380000e-06	2.430537e-06	1.009435e-09	1.683929e+01	7.013407e+01
2.390000e-06	2.472814e-06	1.026277e-09	1.713219e+01	7.123872e+01
2.400000e-06	2.514887e-06	1.039939e-09	1.742368e+01	7.230829e+01
2.410000e-06	2.556525e-06	1.050814e-09	1.771216e+01	7.334391e+01
2.420000e-06	2.597847e-06	1.062872e-09	1.799845e+01	7.434672e+01
2.430000e-06	2.638974e-06	1.075372e-09	1.828339e+01	7.531790e+01
2.440000e-06	2.679755e-06	1.086527e-09	1.856592e+01	7.625868e+01
2.450000e-06	2.720326e-06	1.095761e-09	1.884701e+01	7.717024e+01
2.460000e-06	2.760766e-06	1.106569e-09	1.912719e+01	7.805382e+01
2.470000e-06	2.800971e-06	1.120990e-09	1.940573e+01	7.891060e+01
2.480000e-06	2.840885e-06	1.134447e-09	1.968227e+01	7.974177e+01
2.490000e-06	2.880659e-06	1.147258e-09	1.995783e+01	8.054848e+01
2.500000e-06	2.920369e-06	1.160529e-09	2.023295e+01	8.133184e+01
2.510000e-06	2.959996e-06	1.171815e-09	2.050749e+01	8.209292e+01
2.520000e-06	2.999465e-06	1.180144e-09	2.078094e+01	8.283274e+01
2.530000e-06	3.038754e-06	1.186109e-09	2.105314e+01	8.355227e+01
2.540000e-06	3.077858e-06	1.192443e-09	2.132407e+01	8.425239e+01
2.550000e-06	3.116738e-06	1.200459e-09	2.159344e+01	8.493397e+01
2.560000e-06	3.155426e-06	1.210493e-09	2.186148e+01	8.559777e+01
2.570000e-06	3.193858e-06	1.222223e-09	2.212774e+01	8.624451e+01
2.580000e-06	3.232046e-06	1.232949e-09	2.239231e+01	8.687481e+01
2.590000e-06	3.270041e-06	1.243822e-09	2.265555e+01	8.748927e+01
2.600000e-06	3.307768e-06	1.252757e-09	2.291694e+01	8.808838e+01
2.610000e-06	3.345309e-06	1.259519e-09	2.317703e+01	8.867258e+01
2.620000e-06	3.382616e-06	1.265066e-09	2.343550e+01	8.924227e+01
2.630000e-06	3.419567e-06	1.272634e-09	2.369150e+01	8.979776e+01
2.640000e-06	3.456282e-06	1.282896e-09	2.394587e+01	9.033932e+01
2.650000e-06	3.492781e-06	1.293578e-09	2.419875e+01	9.086717e+01
2.660000e-06	3.529008e-06	1.302387e-09	2.444973e+01	9.138148e+01
2.670000e-06	3.565051e-06	1.309987e-09	2.469945e+01	9.188239e+01
2.680000e-06	3.601008e-06	1.315388e-09	2.494857e+01	9.236999e+01
2.690000e-06	3.636812e-06	1.319673e-09	2.519663e+01	9.284436e+01
2.700000e-06	3.672463e-06	1.324514e-09	2.544362e+01	9.330554e+01
2.710000e-06	3.707954e-06	1.329546e-09	2.568951e+01	9.375357e+01
2.720000e-06	3.743176e-06	1.335953e-09	2.593354e+01	9.418847e+01
2.730000e-06	3.778110e-06	1.343574e-09	2.617557e+01	9.461026e+01
2.740000e-06	3.812720e-06	1.350259e-09	2.641535e+01	9.501896e+01
2.750000e-06	3.846884e-06	1.355877e-09	2.665205e+01	9.541459e+01
2.760000e-06	3.880626e-06	1.359558e-09	2.688582e+01	9.579718e+01
2.770000e-06	3.913897e-06	1.363284e-09	2.711632e+01	9.616681e+01
2.780000e-06	3.946724e-06	1.367234e-09	2.734376e+01	9.652353e+01
2.790000e-06	3.979193e-06	1.372648e-09	2.756872e+01	9.686746e+01
2.800000e-06	4.011368e-06	1.381817e-09	2.779163e+01	9.719871e+01
2.810000e-06	4.043297e-06	1.389160e-09	2.801284e+01	9.751745e+01
2.820000e-06	4.075031e-06	1.392857e-09	2.823270e+01	9.782387e+01
2.830000e-06	4.106544e-06	1.396465e-09	2.845103e+01	9.811818e+01
2.840000e-06	4.137853e-06	1.399057e-09	2.866795e+01	9.840066e+01
2.850000e-06	4.169013e-06	1.400504e-09	2.888383e+01	9.867159e+01
2.860000e-06	4.199830e-06	1.400840e-09	2.909733e+01	9.893131e+01
2.870000e-06	4.230306e-06	1.403082e-09	2.930848e+01	9.918017e+01
2.880000e-06	4.260462e-06	1.407847e-09	2.951741e+01	9.941856e+01
2.890000e-06	4.290304e-06	1.411870e-09	2.972415e+01	9.964692e+01
2.900000e-06	4.319917e-06	1.418321e-09	2.992932e+01	9.986569e+01
