# Temperatura_=_-13.65
# Concentracion g/m^3_=_1620.0
# C_Vs_to_Am_M_A/Vsm_=_65563218390.804596
# pendiente_HvsI_1/m_=_3716.3
# ordenada_HvsI_A/m_=_1297.0
# frecuencia_Hz_=_135107.8244854532

Tiempo_(s)	Campo_(V.s)	Magnetizacion_(V.s)	Campo_(kA/m)	Magnetizacion_(A/m)
0.000000e+00	-5.510722e-06	-9.964256e-10	-3.835882e+01	-6.544094e+01
1.000000e-08	-5.510931e-06	-9.934926e-10	-3.836028e+01	-6.541884e+01
2.000000e-08	-5.510910e-06	-9.908357e-10	-3.836013e+01	-6.539709e+01
3.000000e-08	-5.510603e-06	-9.919031e-10	-3.835799e+01	-6.537548e+01
4.000000e-08	-5.509887e-06	-9.937627e-10	-3.835301e+01	-6.535377e+01
5.000000e-08	-5.508561e-06	-9.921270e-10	-3.834378e+01	-6.533172e+01
6.000000e-08	-5.506625e-06	-9.796631e-10	-3.833030e+01	-6.530907e+01
7.000000e-08	-5.504160e-06	-9.673938e-10	-3.831315e+01	-6.528558e+01
8.000000e-08	-5.501082e-06	-9.914400e-10	-3.829172e+01	-6.526099e+01
9.000000e-08	-5.497475e-06	-1.041934e-09	-3.826661e+01	-6.523505e+01
1.000000e-07	-5.493463e-06	-1.042049e-09	-3.823868e+01	-6.520753e+01
1.100000e-07	-5.489121e-06	-9.870490e-10	-3.820846e+01	-6.517818e+01
1.200000e-07	-5.484654e-06	-9.252025e-10	-3.817737e+01	-6.514679e+01
1.300000e-07	-5.479995e-06	-9.467112e-10	-3.814494e+01	-6.511314e+01
1.400000e-07	-5.474973e-06	-9.927185e-10	-3.810998e+01	-6.507706e+01
1.500000e-07	-5.469472e-06	-1.001405e-09	-3.807169e+01	-6.503838e+01
1.600000e-07	-5.463491e-06	-9.777475e-10	-3.803006e+01	-6.499695e+01
1.700000e-07	-5.457148e-06	-9.762011e-10	-3.798590e+01	-6.495265e+01
1.800000e-07	-5.450417e-06	-1.019918e-09	-3.793905e+01	-6.490538e+01
1.900000e-07	-5.443256e-06	-1.013677e-09	-3.788921e+01	-6.485510e+01
2.000000e-07	-5.435703e-06	-9.650962e-10	-3.783663e+01	-6.480176e+01
2.100000e-07	-5.427923e-06	-9.494463e-10	-3.778248e+01	-6.474536e+01
2.200000e-07	-5.419961e-06	-1.009522e-09	-3.772705e+01	-6.468593e+01
2.300000e-07	-5.411708e-06	-1.037666e-09	-3.766961e+01	-6.462354e+01
2.400000e-07	-5.403131e-06	-1.002552e-09	-3.760990e+01	-6.455828e+01
2.500000e-07	-5.394028e-06	-9.652039e-10	-3.754654e+01	-6.449028e+01
2.600000e-07	-5.384144e-06	-9.813483e-10	-3.747775e+01	-6.441969e+01
2.700000e-07	-5.373602e-06	-9.852536e-10	-3.740436e+01	-6.434670e+01
2.800000e-07	-5.362534e-06	-9.721736e-10	-3.732732e+01	-6.427154e+01
2.900000e-07	-5.350950e-06	-9.651126e-10	-3.724669e+01	-6.419444e+01
3.000000e-07	-5.339009e-06	-9.818161e-10	-3.716357e+01	-6.411567e+01
3.100000e-07	-5.326752e-06	-9.873781e-10	-3.707825e+01	-6.403552e+01
3.200000e-07	-5.314089e-06	-9.747778e-10	-3.699011e+01	-6.395430e+01
3.300000e-07	-5.300960e-06	-9.725499e-10	-3.689872e+01	-6.387233e+01
3.400000e-07	-5.287445e-06	-9.845295e-10	-3.680465e+01	-6.378996e+01
3.500000e-07	-5.273642e-06	-9.897287e-10	-3.670856e+01	-6.370752e+01
3.600000e-07	-5.259431e-06	-9.882166e-10	-3.660964e+01	-6.362538e+01
3.700000e-07	-5.244778e-06	-9.897186e-10	-3.650765e+01	-6.354389e+01
3.800000e-07	-5.229701e-06	-9.885739e-10	-3.640270e+01	-6.346340e+01
3.900000e-07	-5.214014e-06	-9.852812e-10	-3.629351e+01	-6.338426e+01
4.000000e-07	-5.197747e-06	-9.844313e-10	-3.618027e+01	-6.330682e+01
4.100000e-07	-5.181034e-06	-9.853801e-10	-3.606394e+01	-6.323139e+01
4.200000e-07	-5.163933e-06	-9.811981e-10	-3.594491e+01	-6.315829e+01
4.300000e-07	-5.146621e-06	-9.831898e-10	-3.582440e+01	-6.308781e+01
4.400000e-07	-5.129081e-06	-9.842649e-10	-3.570231e+01	-6.302022e+01
4.500000e-07	-5.111184e-06	-9.888126e-10	-3.557774e+01	-6.295576e+01
4.600000e-07	-5.092843e-06	-9.816810e-10	-3.545006e+01	-6.289464e+01
4.700000e-07	-5.074047e-06	-9.750793e-10	-3.531923e+01	-6.283705e+01
4.800000e-07	-5.054891e-06	-9.693015e-10	-3.518589e+01	-6.278313e+01
4.900000e-07	-5.035433e-06	-9.793847e-10	-3.505045e+01	-6.273299e+01
5.000000e-07	-5.015724e-06	-9.818066e-10	-3.491326e+01	-6.268672e+01
5.100000e-07	-4.995818e-06	-9.783360e-10	-3.477470e+01	-6.264435e+01
5.200000e-07	-4.975652e-06	-9.713565e-10	-3.463433e+01	-6.260589e+01
5.300000e-07	-4.955125e-06	-9.761107e-10	-3.449144e+01	-6.257129e+01
5.400000e-07	-4.934231e-06	-9.747762e-10	-3.434600e+01	-6.254048e+01
5.500000e-07	-4.913009e-06	-9.696633e-10	-3.419829e+01	-6.251335e+01
5.600000e-07	-4.891472e-06	-9.623602e-10	-3.404837e+01	-6.248974e+01
5.700000e-07	-4.869608e-06	-9.588993e-10	-3.389618e+01	-6.246948e+01
5.800000e-07	-4.847435e-06	-9.545969e-10	-3.374184e+01	-6.245234e+01
5.900000e-07	-4.824902e-06	-9.576466e-10	-3.358499e+01	-6.243808e+01
6.000000e-07	-4.801974e-06	-9.578715e-10	-3.342539e+01	-6.242643e+01
6.100000e-07	-4.778723e-06	-9.518224e-10	-3.326355e+01	-6.241706e+01
6.200000e-07	-4.755169e-06	-9.473023e-10	-3.309960e+01	-6.240968e+01
6.300000e-07	-4.731374e-06	-9.480394e-10	-3.293397e+01	-6.240392e+01
6.400000e-07	-4.707387e-06	-9.461457e-10	-3.276700e+01	-6.239943e+01
6.500000e-07	-4.683112e-06	-9.384457e-10	-3.259803e+01	-6.239585e+01
6.600000e-07	-4.658462e-06	-9.401671e-10	-3.242644e+01	-6.239279e+01
6.700000e-07	-4.633388e-06	-9.464339e-10	-3.225191e+01	-6.238986e+01
6.800000e-07	-4.607829e-06	-9.450947e-10	-3.207400e+01	-6.238670e+01
6.900000e-07	-4.581693e-06	-9.396607e-10	-3.189207e+01	-6.238292e+01
7.000000e-07	-4.554924e-06	-9.441140e-10	-3.170574e+01	-6.237815e+01
7.100000e-07	-4.527645e-06	-9.409705e-10	-3.151586e+01	-6.237204e+01
7.200000e-07	-4.500103e-06	-9.337194e-10	-3.132414e+01	-6.236424e+01
7.300000e-07	-4.472403e-06	-9.349680e-10	-3.113133e+01	-6.235443e+01
7.400000e-07	-4.444551e-06	-9.395997e-10	-3.093746e+01	-6.234231e+01
7.500000e-07	-4.416557e-06	-9.330066e-10	-3.074260e+01	-6.232761e+01
7.600000e-07	-4.388313e-06	-9.316058e-10	-3.054600e+01	-6.231007e+01
7.700000e-07	-4.359744e-06	-9.331119e-10	-3.034714e+01	-6.228948e+01
7.800000e-07	-4.330800e-06	-9.285454e-10	-3.014567e+01	-6.226565e+01
7.900000e-07	-4.301479e-06	-9.226296e-10	-2.994157e+01	-6.223843e+01
8.000000e-07	-4.271890e-06	-9.272301e-10	-2.973561e+01	-6.220770e+01
8.100000e-07	-4.242068e-06	-9.256674e-10	-2.952802e+01	-6.217338e+01
8.200000e-07	-4.211994e-06	-9.183863e-10	-2.931869e+01	-6.213542e+01
8.300000e-07	-4.181600e-06	-9.157051e-10	-2.910712e+01	-6.209380e+01
8.400000e-07	-4.150787e-06	-9.183701e-10	-2.889264e+01	-6.204856e+01
8.500000e-07	-4.119710e-06	-9.171390e-10	-2.867632e+01	-6.199973e+01
8.600000e-07	-4.088538e-06	-9.181667e-10	-2.845934e+01	-6.194743e+01
8.700000e-07	-4.057141e-06	-9.187257e-10	-2.824079e+01	-6.189175e+01
8.800000e-07	-4.025486e-06	-9.141286e-10	-2.802045e+01	-6.183285e+01
8.900000e-07	-3.993686e-06	-9.093562e-10	-2.779910e+01	-6.177091e+01
9.000000e-07	-3.961693e-06	-9.089011e-10	-2.757640e+01	-6.170611e+01
9.100000e-07	-3.929511e-06	-9.079300e-10	-2.735239e+01	-6.163867e+01
9.200000e-07	-3.897008e-06	-9.069395e-10	-2.712614e+01	-6.156882e+01
9.300000e-07	-3.864035e-06	-9.112443e-10	-2.689663e+01	-6.149681e+01
9.400000e-07	-3.830725e-06	-9.147161e-10	-2.666476e+01	-6.142290e+01
9.500000e-07	-3.797028e-06	-9.121936e-10	-2.643021e+01	-6.134734e+01
9.600000e-07	-3.762836e-06	-9.059610e-10	-2.619220e+01	-6.127039e+01
9.700000e-07	-3.728174e-06	-9.004290e-10	-2.595093e+01	-6.119231e+01
9.800000e-07	-3.693021e-06	-8.935489e-10	-2.570624e+01	-6.111336e+01
9.900000e-07	-3.657472e-06	-8.899923e-10	-2.545879e+01	-6.103378e+01
1.000000e-06	-3.621738e-06	-8.899133e-10	-2.521005e+01	-6.095380e+01
1.010000e-06	-3.585956e-06	-8.902895e-10	-2.496099e+01	-6.087363e+01
1.020000e-06	-3.550143e-06	-8.881985e-10	-2.471170e+01	-6.079346e+01
1.030000e-06	-3.514191e-06	-8.879761e-10	-2.446145e+01	-6.071348e+01
1.040000e-06	-3.478012e-06	-8.861735e-10	-2.420961e+01	-6.063381e+01
1.050000e-06	-3.441572e-06	-8.826237e-10	-2.395596e+01	-6.055459e+01
1.060000e-06	-3.404906e-06	-8.788891e-10	-2.370074e+01	-6.047588e+01
1.070000e-06	-3.367972e-06	-8.787933e-10	-2.344365e+01	-6.039776e+01
1.080000e-06	-3.330738e-06	-8.801511e-10	-2.318447e+01	-6.032023e+01
1.090000e-06	-3.293307e-06	-8.807789e-10	-2.292393e+01	-6.024328e+01
1.100000e-06	-3.255692e-06	-8.792839e-10	-2.266209e+01	-6.016687e+01
1.110000e-06	-3.217841e-06	-8.764431e-10	-2.239862e+01	-6.009092e+01
1.120000e-06	-3.179729e-06	-8.699791e-10	-2.213334e+01	-6.001530e+01
1.130000e-06	-3.141332e-06	-8.638876e-10	-2.186607e+01	-5.993986e+01
1.140000e-06	-3.102690e-06	-8.605643e-10	-2.159708e+01	-5.986442e+01
1.150000e-06	-3.063843e-06	-8.611409e-10	-2.132668e+01	-5.978876e+01
1.160000e-06	-3.024831e-06	-8.628203e-10	-2.105512e+01	-5.971263e+01
1.170000e-06	-2.985557e-06	-8.641434e-10	-2.078175e+01	-5.963577e+01
1.180000e-06	-2.946085e-06	-8.640925e-10	-2.050699e+01	-5.955786e+01
1.190000e-06	-2.906489e-06	-8.627293e-10	-2.023138e+01	-5.947860e+01
1.200000e-06	-2.866686e-06	-8.607713e-10	-1.995431e+01	-5.939763e+01
1.210000e-06	-2.826786e-06	-8.579728e-10	-1.967658e+01	-5.931460e+01
1.220000e-06	-2.786830e-06	-8.556346e-10	-1.939846e+01	-5.922914e+01
1.230000e-06	-2.746794e-06	-8.548085e-10	-1.911978e+01	-5.914085e+01
1.240000e-06	-2.706584e-06	-8.552947e-10	-1.883989e+01	-5.904936e+01
1.250000e-06	-2.666169e-06	-8.550823e-10	-1.855857e+01	-5.895425e+01
1.260000e-06	-2.625640e-06	-8.539395e-10	-1.827646e+01	-5.885514e+01
1.270000e-06	-2.584977e-06	-8.510423e-10	-1.799341e+01	-5.875163e+01
1.280000e-06	-2.544017e-06	-8.464698e-10	-1.770829e+01	-5.864332e+01
1.290000e-06	-2.502712e-06	-8.403256e-10	-1.742078e+01	-5.852983e+01
1.300000e-06	-2.461077e-06	-8.358280e-10	-1.713097e+01	-5.841079e+01
1.310000e-06	-2.419114e-06	-8.329221e-10	-1.683888e+01	-5.828584e+01
1.320000e-06	-2.376857e-06	-8.319144e-10	-1.654473e+01	-5.815461e+01
1.330000e-06	-2.334271e-06	-8.317312e-10	-1.624830e+01	-5.801678e+01
1.340000e-06	-2.291431e-06	-8.306165e-10	-1.595010e+01	-5.787203e+01
1.350000e-06	-2.248369e-06	-8.290528e-10	-1.565036e+01	-5.772006e+01
1.360000e-06	-2.205053e-06	-8.287521e-10	-1.534885e+01	-5.756056e+01
1.370000e-06	-2.161510e-06	-8.263654e-10	-1.504576e+01	-5.739329e+01
1.380000e-06	-2.117824e-06	-8.222871e-10	-1.474167e+01	-5.721798e+01
1.390000e-06	-2.074105e-06	-8.161801e-10	-1.443735e+01	-5.703439e+01
1.400000e-06	-2.030359e-06	-8.124011e-10	-1.413285e+01	-5.684230e+01
1.410000e-06	-1.986522e-06	-8.109456e-10	-1.382771e+01	-5.664149e+01
1.420000e-06	-1.942593e-06	-8.080263e-10	-1.352193e+01	-5.643177e+01
1.430000e-06	-1.898560e-06	-8.047473e-10	-1.321542e+01	-5.621293e+01
1.440000e-06	-1.854465e-06	-8.000915e-10	-1.290849e+01	-5.598479e+01
1.450000e-06	-1.810329e-06	-7.934612e-10	-1.260127e+01	-5.574714e+01
1.460000e-06	-1.766153e-06	-7.877694e-10	-1.229377e+01	-5.549981e+01
1.470000e-06	-1.721819e-06	-7.843288e-10	-1.198517e+01	-5.524258e+01
1.480000e-06	-1.677258e-06	-7.812445e-10	-1.167499e+01	-5.497525e+01
1.490000e-06	-1.632636e-06	-7.763254e-10	-1.136439e+01	-5.469760e+01
1.500000e-06	-1.587889e-06	-7.672822e-10	-1.105292e+01	-5.440940e+01
1.510000e-06	-1.542979e-06	-7.566179e-10	-1.074031e+01	-5.411037e+01
1.520000e-06	-1.497902e-06	-7.496681e-10	-1.042654e+01	-5.380024e+01
1.530000e-06	-1.452645e-06	-7.468872e-10	-1.011151e+01	-5.347869e+01
1.540000e-06	-1.407275e-06	-7.455903e-10	-9.795702e+00	-5.314538e+01
1.550000e-06	-1.361879e-06	-7.425633e-10	-9.479712e+00	-5.279993e+01
1.560000e-06	-1.316493e-06	-7.374280e-10	-9.163794e+00	-5.244192e+01
1.570000e-06	-1.270976e-06	-7.302455e-10	-8.846964e+00	-5.207089e+01
1.580000e-06	-1.225345e-06	-7.223619e-10	-8.529338e+00	-5.168634e+01
1.590000e-06	-1.179691e-06	-7.147684e-10	-8.211548e+00	-5.128773e+01
1.600000e-06	-1.133944e-06	-7.057583e-10	-7.893115e+00	-5.087447e+01
1.610000e-06	-1.088120e-06	-6.992088e-10	-7.574146e+00	-5.044592e+01
1.620000e-06	-1.042272e-06	-6.955051e-10	-7.255003e+00	-5.000141e+01
1.630000e-06	-9.963040e-07	-6.926836e-10	-6.935034e+00	-4.954019e+01
1.640000e-06	-9.501924e-07	-6.879591e-10	-6.614063e+00	-4.906152e+01
1.650000e-06	-9.039682e-07	-6.798489e-10	-6.292307e+00	-4.856456e+01
1.660000e-06	-8.577079e-07	-6.690177e-10	-5.970300e+00	-4.804848e+01
1.670000e-06	-8.114479e-07	-6.573387e-10	-5.648295e+00	-4.751238e+01
1.680000e-06	-7.651802e-07	-6.463269e-10	-5.326237e+00	-4.695534e+01
1.690000e-06	-7.189205e-07	-6.371105e-10	-5.004234e+00	-4.637642e+01
1.700000e-06	-6.725322e-07	-6.277197e-10	-4.681336e+00	-4.577466e+01
1.710000e-06	-6.260720e-07	-6.183584e-10	-4.357938e+00	-4.514905e+01
1.720000e-06	-5.795857e-07	-6.095994e-10	-4.034358e+00	-4.449861e+01
1.730000e-06	-5.330619e-07	-6.003789e-10	-3.710517e+00	-4.382233e+01
1.740000e-06	-4.866068e-07	-5.894794e-10	-3.387154e+00	-4.311922e+01
1.750000e-06	-4.401746e-07	-5.766715e-10	-3.063951e+00	-4.238830e+01
1.760000e-06	-3.936860e-07	-5.643825e-10	-2.740354e+00	-4.162860e+01
1.770000e-06	-3.470944e-07	-5.524465e-10	-2.416041e+00	-4.083917e+01
1.780000e-06	-3.003876e-07	-5.398727e-10	-2.090927e+00	-4.001913e+01
1.790000e-06	-2.536142e-07	-5.268605e-10	-1.765348e+00	-3.916761e+01
1.800000e-06	-2.068894e-07	-5.126207e-10	-1.440108e+00	-3.828381e+01
1.810000e-06	-1.601913e-07	-4.995854e-10	-1.115054e+00	-3.736698e+01
1.820000e-06	-1.134492e-07	-4.883799e-10	-7.896931e-01	-3.641647e+01
1.830000e-06	-6.670978e-08	-4.755687e-10	-4.643509e-01	-3.543169e+01
1.840000e-06	-2.000435e-08	-4.607636e-10	-1.392455e-01	-3.441211e+01
1.850000e-06	2.673680e-08	-4.453133e-10	1.861085e-01	-3.335735e+01
1.860000e-06	7.355729e-08	-4.301268e-10	5.120148e-01	-3.226710e+01
1.870000e-06	1.203855e-07	-4.138414e-10	8.379750e-01	-3.114115e+01
1.880000e-06	1.671273e-07	-3.962953e-10	1.163333e+00	-2.997944e+01
1.890000e-06	2.137996e-07	-3.776464e-10	1.488208e+00	-2.878200e+01
1.900000e-06	2.604683e-07	-3.582451e-10	1.813058e+00	-2.754900e+01
1.910000e-06	3.071563e-07	-3.379345e-10	2.138042e+00	-2.628074e+01
1.920000e-06	3.538675e-07	-3.174185e-10	2.463188e+00	-2.497765e+01
1.930000e-06	4.005255e-07	-2.983090e-10	2.787962e+00	-2.364030e+01
1.940000e-06	4.471065e-07	-2.799223e-10	3.112202e+00	-2.226939e+01
1.950000e-06	4.936118e-07	-2.614728e-10	3.435914e+00	-2.086577e+01
1.960000e-06	5.400193e-07	-2.435747e-10	3.758946e+00	-1.943042e+01
1.970000e-06	5.863886e-07	-2.250300e-10	4.081711e+00	-1.796446e+01
1.980000e-06	6.327369e-07	-2.061046e-10	4.404331e+00	-1.646914e+01
1.990000e-06	6.790807e-07	-1.853405e-10	4.726919e+00	-1.494584e+01
2.000000e-06	7.253036e-07	-1.614927e-10	5.048665e+00	-1.339607e+01
2.010000e-06	7.714497e-07	-1.373948e-10	5.369878e+00	-1.182146e+01
2.020000e-06	8.176785e-07	-1.145025e-10	5.691665e+00	-1.022377e+01
2.030000e-06	8.638750e-07	-9.334230e-11	6.013228e+00	-8.604840e+00
2.040000e-06	9.099586e-07	-7.334495e-11	6.334005e+00	-6.966634e+00
2.050000e-06	9.559662e-07	-5.236331e-11	6.654253e+00	-5.311200e+00
2.060000e-06	1.001961e-06	-3.046226e-11	6.974412e+00	-3.640670e+00
2.070000e-06	1.047921e-06	-6.144829e-12	7.294325e+00	-1.957249e+00
2.080000e-06	1.093838e-06	1.871404e-11	7.613943e+00	-2.632065e-01
2.090000e-06	1.139720e-06	4.180784e-11	7.933322e+00	1.439137e+00
2.100000e-06	1.185531e-06	6.475951e-11	8.252202e+00	3.147418e+00
2.110000e-06	1.231198e-06	8.690136e-11	8.570075e+00	4.859246e+00
2.120000e-06	1.276680e-06	1.091577e-10	8.886662e+00	6.572209e+00
2.130000e-06	1.321964e-06	1.328513e-10	9.201878e+00	8.283893e+00
2.140000e-06	1.367100e-06	1.553046e-10	9.516058e+00	9.991887e+00
2.150000e-06	1.412272e-06	1.753188e-10	9.830489e+00	1.169380e+01
2.160000e-06	1.457412e-06	1.965808e-10	1.014470e+01	1.338726e+01
2.170000e-06	1.502421e-06	2.193437e-10	1.045800e+01	1.506996e+01
2.180000e-06	1.547360e-06	2.429260e-10	1.077080e+01	1.673961e+01
2.190000e-06	1.592250e-06	2.687665e-10	1.108327e+01	1.839402e+01
2.200000e-06	1.636995e-06	2.954110e-10	1.139473e+01	2.003104e+01
2.210000e-06	1.681543e-06	3.201175e-10	1.170482e+01	2.164862e+01
2.220000e-06	1.725963e-06	3.428715e-10	1.201401e+01	2.324479e+01
2.230000e-06	1.770281e-06	3.639906e-10	1.232251e+01	2.481769e+01
2.240000e-06	1.814487e-06	3.831078e-10	1.263021e+01	2.636557e+01
2.250000e-06	1.858593e-06	4.002220e-10	1.293722e+01	2.788678e+01
2.260000e-06	1.902635e-06	4.174000e-10	1.324379e+01	2.937978e+01
2.270000e-06	1.946601e-06	4.362748e-10	1.354983e+01	3.084319e+01
2.280000e-06	1.990546e-06	4.563480e-10	1.385572e+01	3.227572e+01
2.290000e-06	2.034439e-06	4.760417e-10	1.416125e+01	3.367624e+01
2.300000e-06	2.078254e-06	4.949587e-10	1.446623e+01	3.504373e+01
2.310000e-06	2.121936e-06	5.126083e-10	1.477029e+01	3.637731e+01
2.320000e-06	2.165441e-06	5.295690e-10	1.507312e+01	3.767626e+01
2.330000e-06	2.208829e-06	5.476684e-10	1.537513e+01	3.893995e+01
2.340000e-06	2.252054e-06	5.660049e-10	1.567601e+01	4.016792e+01
2.350000e-06	2.295033e-06	5.838042e-10	1.597518e+01	4.135982e+01
2.360000e-06	2.337813e-06	6.004757e-10	1.627296e+01	4.251543e+01
2.370000e-06	2.380356e-06	6.152247e-10	1.656909e+01	4.363466e+01
2.380000e-06	2.422521e-06	6.277576e-10	1.686259e+01	4.471753e+01
2.390000e-06	2.464331e-06	6.411423e-10	1.715362e+01	4.576418e+01
2.400000e-06	2.505902e-06	6.557637e-10	1.744298e+01	4.677486e+01
2.410000e-06	2.547356e-06	6.695017e-10	1.773154e+01	4.774989e+01
2.420000e-06	2.588499e-06	6.817548e-10	1.801793e+01	4.868974e+01
2.430000e-06	2.629262e-06	6.915044e-10	1.830166e+01	4.959491e+01
2.440000e-06	2.669810e-06	6.989290e-10	1.858391e+01	5.046601e+01
2.450000e-06	2.710169e-06	7.070893e-10	1.886484e+01	5.130372e+01
2.460000e-06	2.750347e-06	7.192213e-10	1.914451e+01	5.210877e+01
2.470000e-06	2.790381e-06	7.323831e-10	1.942318e+01	5.288195e+01
2.480000e-06	2.830320e-06	7.440608e-10	1.970118e+01	5.362411e+01
2.490000e-06	2.870135e-06	7.559469e-10	1.997832e+01	5.433612e+01
2.500000e-06	2.909807e-06	7.668877e-10	2.025447e+01	5.501889e+01
2.510000e-06	2.949375e-06	7.757119e-10	2.052989e+01	5.567335e+01
2.520000e-06	2.988729e-06	7.842582e-10	2.080383e+01	5.630045e+01
2.530000e-06	3.027756e-06	7.916524e-10	2.107549e+01	5.690115e+01
2.540000e-06	3.066482e-06	7.987916e-10	2.134505e+01	5.747641e+01
2.550000e-06	3.104989e-06	8.082703e-10	2.161309e+01	5.802718e+01
2.560000e-06	3.143379e-06	8.187260e-10	2.188031e+01	5.855440e+01
2.570000e-06	3.181561e-06	8.278186e-10	2.214609e+01	5.905901e+01
2.580000e-06	3.219541e-06	8.347783e-10	2.241046e+01	5.954192e+01
2.590000e-06	3.257338e-06	8.413500e-10	2.267355e+01	6.000400e+01
2.600000e-06	3.294880e-06	8.477447e-10	2.293487e+01	6.044612e+01
2.610000e-06	3.332221e-06	8.533135e-10	2.319480e+01	6.086909e+01
2.620000e-06	3.369304e-06	8.596466e-10	2.345292e+01	6.127372e+01
2.630000e-06	3.406135e-06	8.667438e-10	2.370929e+01	6.166075e+01
2.640000e-06	3.442798e-06	8.740110e-10	2.396450e+01	6.203089e+01
2.650000e-06	3.479212e-06	8.818055e-10	2.421796e+01	6.238484e+01
2.660000e-06	3.515371e-06	8.890133e-10	2.446966e+01	6.272322e+01
2.670000e-06	3.551409e-06	8.945811e-10	2.472051e+01	6.304663e+01
2.680000e-06	3.587365e-06	8.990849e-10	2.497079e+01	6.335565e+01
2.690000e-06	3.623188e-06	9.041195e-10	2.522015e+01	6.365078e+01
2.700000e-06	3.658838e-06	9.096855e-10	2.546830e+01	6.393252e+01
2.710000e-06	3.694274e-06	9.143922e-10	2.571496e+01	6.420132e+01
2.720000e-06	3.729467e-06	9.193799e-10	2.595993e+01	6.445761e+01
2.730000e-06	3.764277e-06	9.248969e-10	2.620224e+01	6.470176e+01
2.740000e-06	3.798603e-06	9.301243e-10	2.644117e+01	6.493416e+01
2.750000e-06	3.832545e-06	9.336617e-10	2.667743e+01	6.515512e+01
2.760000e-06	3.865964e-06	9.356577e-10	2.691006e+01	6.536498e+01
2.770000e-06	3.898827e-06	9.384637e-10	2.713881e+01	6.556402e+01
2.780000e-06	3.931367e-06	9.421895e-10	2.736531e+01	6.575252e+01
2.790000e-06	3.963635e-06	9.485486e-10	2.758992e+01	6.593075e+01
2.800000e-06	3.995661e-06	9.570624e-10	2.781284e+01	6.609897e+01
2.810000e-06	4.027512e-06	9.630804e-10	2.803455e+01	6.625741e+01
2.820000e-06	4.059154e-06	9.656914e-10	2.825480e+01	6.640632e+01
2.830000e-06	4.090600e-06	9.665097e-10	2.847369e+01	6.654594e+01
2.840000e-06	4.121847e-06	9.671616e-10	2.869119e+01	6.667650e+01
2.850000e-06	4.152815e-06	9.672586e-10	2.890675e+01	6.679824e+01
2.860000e-06	4.183485e-06	9.659226e-10	2.912024e+01	6.691139e+01
2.870000e-06	4.213828e-06	9.656823e-10	2.933145e+01	6.701619e+01
2.880000e-06	4.243869e-06	9.683893e-10	2.954056e+01	6.711290e+01
2.890000e-06	4.273612e-06	9.729886e-10	2.974759e+01	6.720176e+01
2.900000e-06	4.303088e-06	9.753967e-10	2.995277e+01	6.728303e+01
