# Temperatura_=_-7.02
# Concentracion g/m^3_=_1620.0
# C_Vs_to_Am_M_A/Vsm_=_65563218390.804596
# pendiente_HvsI_1/m_=_3716.3
# ordenada_HvsI_A/m_=_1297.0
# frecuencia_Hz_=_135104.5800232222

Tiempo_(s)	Campo_(V.s)	Magnetizacion_(V.s)	Campo_(kA/m)	Magnetizacion_(A/m)
0.000000e+00	-5.533658e-06	-1.264812e-09	-3.838389e+01	-8.205678e+01
1.000000e-08	-5.533856e-06	-1.261588e-09	-3.838526e+01	-8.200041e+01
2.000000e-08	-5.533797e-06	-1.257228e-09	-3.838485e+01	-8.194644e+01
3.000000e-08	-5.533498e-06	-1.256153e-09	-3.838278e+01	-8.189475e+01
4.000000e-08	-5.532727e-06	-1.256544e-09	-3.837743e+01	-8.184515e+01
5.000000e-08	-5.531319e-06	-1.254260e-09	-3.836766e+01	-8.179744e+01
6.000000e-08	-5.529270e-06	-1.242223e-09	-3.835345e+01	-8.175139e+01
7.000000e-08	-5.526639e-06	-1.223796e-09	-3.833520e+01	-8.170676e+01
8.000000e-08	-5.523587e-06	-1.241031e-09	-3.831403e+01	-8.166328e+01
9.000000e-08	-5.520033e-06	-1.318253e-09	-3.828938e+01	-8.162065e+01
1.000000e-07	-5.515998e-06	-1.358150e-09	-3.826139e+01	-8.157859e+01
1.100000e-07	-5.511704e-06	-1.270368e-09	-3.823160e+01	-8.153677e+01
1.200000e-07	-5.507155e-06	-1.154749e-09	-3.820005e+01	-8.149488e+01
1.300000e-07	-5.502359e-06	-1.170514e-09	-3.816678e+01	-8.145261e+01
1.400000e-07	-5.497267e-06	-1.282139e-09	-3.813146e+01	-8.140961e+01
1.500000e-07	-5.491733e-06	-1.286312e-09	-3.809308e+01	-8.136559e+01
1.600000e-07	-5.485803e-06	-1.208253e-09	-3.805195e+01	-8.132021e+01
1.700000e-07	-5.479493e-06	-1.206305e-09	-3.800817e+01	-8.127319e+01
1.800000e-07	-5.472709e-06	-1.294569e-09	-3.796112e+01	-8.122422e+01
1.900000e-07	-5.465487e-06	-1.304115e-09	-3.791103e+01	-8.117302e+01
2.000000e-07	-5.457944e-06	-1.211415e-09	-3.785870e+01	-8.111934e+01
2.100000e-07	-5.450186e-06	-1.180218e-09	-3.780489e+01	-8.106294e+01
2.200000e-07	-5.442276e-06	-1.245510e-09	-3.775003e+01	-8.100360e+01
2.300000e-07	-5.434077e-06	-1.288478e-09	-3.769315e+01	-8.094112e+01
2.400000e-07	-5.425423e-06	-1.239933e-09	-3.763312e+01	-8.087534e+01
2.500000e-07	-5.416053e-06	-1.203050e-09	-3.756813e+01	-8.080613e+01
2.600000e-07	-5.406007e-06	-1.217723e-09	-3.749845e+01	-8.073336e+01
2.700000e-07	-5.395443e-06	-1.241625e-09	-3.742517e+01	-8.065696e+01
2.800000e-07	-5.384274e-06	-1.219238e-09	-3.734770e+01	-8.057687e+01
2.900000e-07	-5.372647e-06	-1.204203e-09	-3.726704e+01	-8.049306e+01
3.000000e-07	-5.360681e-06	-1.226135e-09	-3.718404e+01	-8.040553e+01
3.100000e-07	-5.348335e-06	-1.250110e-09	-3.709841e+01	-8.031432e+01
3.200000e-07	-5.335579e-06	-1.222415e-09	-3.700993e+01	-8.021948e+01
3.300000e-07	-5.322374e-06	-1.199487e-09	-3.691833e+01	-8.012110e+01
3.400000e-07	-5.308799e-06	-1.227115e-09	-3.682417e+01	-8.001926e+01
3.500000e-07	-5.294962e-06	-1.243850e-09	-3.672819e+01	-7.991410e+01
3.600000e-07	-5.280680e-06	-1.211580e-09	-3.662912e+01	-7.980576e+01
3.700000e-07	-5.265779e-06	-1.202691e-09	-3.652576e+01	-7.969440e+01
3.800000e-07	-5.250362e-06	-1.222576e-09	-3.641882e+01	-7.958020e+01
3.900000e-07	-5.234407e-06	-1.202974e-09	-3.630815e+01	-7.946332e+01
4.000000e-07	-5.217940e-06	-1.189961e-09	-3.619393e+01	-7.934397e+01
4.100000e-07	-5.201209e-06	-1.228150e-09	-3.607787e+01	-7.922235e+01
4.200000e-07	-5.184176e-06	-1.226897e-09	-3.595973e+01	-7.909864e+01
4.300000e-07	-5.166815e-06	-1.173806e-09	-3.583930e+01	-7.897305e+01
4.400000e-07	-5.149217e-06	-1.191348e-09	-3.571723e+01	-7.884578e+01
4.500000e-07	-5.131249e-06	-1.228843e-09	-3.559260e+01	-7.871701e+01
4.600000e-07	-5.112825e-06	-1.184727e-09	-3.546481e+01	-7.858692e+01
4.700000e-07	-5.093933e-06	-1.155144e-09	-3.533376e+01	-7.845567e+01
4.800000e-07	-5.074650e-06	-1.203118e-09	-3.520001e+01	-7.832343e+01
4.900000e-07	-5.055115e-06	-1.197422e-09	-3.506450e+01	-7.819033e+01
5.000000e-07	-5.035399e-06	-1.159721e-09	-3.492775e+01	-7.805649e+01
5.100000e-07	-5.015555e-06	-1.183773e-09	-3.479009e+01	-7.792201e+01
5.200000e-07	-4.995443e-06	-1.192802e-09	-3.465059e+01	-7.778697e+01
5.300000e-07	-4.974939e-06	-1.145138e-09	-3.450837e+01	-7.765143e+01
5.400000e-07	-4.953987e-06	-1.160503e-09	-3.436304e+01	-7.751543e+01
5.500000e-07	-4.932612e-06	-1.196330e-09	-3.421477e+01	-7.737899e+01
5.600000e-07	-4.910992e-06	-1.160566e-09	-3.406481e+01	-7.724209e+01
5.700000e-07	-4.889080e-06	-1.136429e-09	-3.391281e+01	-7.710471e+01
5.800000e-07	-4.866842e-06	-1.171116e-09	-3.375856e+01	-7.696679e+01
5.900000e-07	-4.844216e-06	-1.163158e-09	-3.360162e+01	-7.682826e+01
6.000000e-07	-4.821093e-06	-1.133927e-09	-3.344123e+01	-7.668904e+01
6.100000e-07	-4.797624e-06	-1.148840e-09	-3.327843e+01	-7.654901e+01
6.200000e-07	-4.773954e-06	-1.153575e-09	-3.311425e+01	-7.640804e+01
6.300000e-07	-4.750153e-06	-1.128340e-09	-3.294915e+01	-7.626601e+01
6.400000e-07	-4.726228e-06	-1.132789e-09	-3.278319e+01	-7.612275e+01
6.500000e-07	-4.702070e-06	-1.142768e-09	-3.261563e+01	-7.597810e+01
6.600000e-07	-4.677404e-06	-1.127736e-09	-3.244454e+01	-7.583191e+01
6.700000e-07	-4.652061e-06	-1.128622e-09	-3.226874e+01	-7.568399e+01
6.800000e-07	-4.626173e-06	-1.138378e-09	-3.208917e+01	-7.553417e+01
6.900000e-07	-4.599750e-06	-1.125148e-09	-3.190589e+01	-7.538228e+01
7.000000e-07	-4.572769e-06	-1.116573e-09	-3.171874e+01	-7.522815e+01
7.100000e-07	-4.545423e-06	-1.125166e-09	-3.152905e+01	-7.507161e+01
7.200000e-07	-4.517834e-06	-1.118706e-09	-3.133769e+01	-7.491251e+01
7.300000e-07	-4.490106e-06	-1.110679e-09	-3.114535e+01	-7.475069e+01
7.400000e-07	-4.462288e-06	-1.115727e-09	-3.095239e+01	-7.458604e+01
7.500000e-07	-4.434290e-06	-1.114937e-09	-3.075819e+01	-7.441843e+01
7.600000e-07	-4.405979e-06	-1.103981e-09	-3.056181e+01	-7.424776e+01
7.700000e-07	-4.377261e-06	-1.101677e-09	-3.036261e+01	-7.407396e+01
7.800000e-07	-4.348211e-06	-1.094806e-09	-3.016111e+01	-7.389696e+01
7.900000e-07	-4.318888e-06	-1.084921e-09	-2.995771e+01	-7.371672e+01
8.000000e-07	-4.289253e-06	-1.085154e-09	-2.975215e+01	-7.353322e+01
8.100000e-07	-4.259359e-06	-1.087255e-09	-2.954479e+01	-7.334647e+01
8.200000e-07	-4.229245e-06	-1.075594e-09	-2.933591e+01	-7.315650e+01
8.300000e-07	-4.198787e-06	-1.068618e-09	-2.912464e+01	-7.296336e+01
8.400000e-07	-4.168016e-06	-1.069825e-09	-2.891119e+01	-7.276711e+01
8.500000e-07	-4.137026e-06	-1.066463e-09	-2.869624e+01	-7.256785e+01
8.600000e-07	-4.105735e-06	-1.058384e-09	-2.847919e+01	-7.236570e+01
8.700000e-07	-4.074218e-06	-1.056352e-09	-2.826057e+01	-7.216077e+01
8.800000e-07	-4.042583e-06	-1.050658e-09	-2.804114e+01	-7.195323e+01
8.900000e-07	-4.010775e-06	-1.039572e-09	-2.782050e+01	-7.174324e+01
9.000000e-07	-3.978720e-06	-1.037069e-09	-2.759815e+01	-7.153096e+01
9.100000e-07	-3.946376e-06	-1.037518e-09	-2.737380e+01	-7.131658e+01
9.200000e-07	-3.913671e-06	-1.032765e-09	-2.714694e+01	-7.110031e+01
9.300000e-07	-3.880537e-06	-1.032309e-09	-2.691711e+01	-7.088233e+01
9.400000e-07	-3.847018e-06	-1.036519e-09	-2.668461e+01	-7.066285e+01
9.500000e-07	-3.813000e-06	-1.031663e-09	-2.644865e+01	-7.044207e+01
9.600000e-07	-3.778393e-06	-1.019630e-09	-2.620860e+01	-7.022018e+01
9.700000e-07	-3.743326e-06	-1.015584e-09	-2.596536e+01	-6.999737e+01
9.800000e-07	-3.707951e-06	-1.012694e-09	-2.571998e+01	-6.977384e+01
9.900000e-07	-3.672392e-06	-1.005228e-09	-2.547333e+01	-6.954973e+01
1.000000e-06	-3.636698e-06	-1.003093e-09	-2.522574e+01	-6.932521e+01
1.010000e-06	-3.600907e-06	-1.004118e-09	-2.497748e+01	-6.910042e+01
1.020000e-06	-3.565035e-06	-9.978852e-10	-2.472865e+01	-6.887547e+01
1.030000e-06	-3.528934e-06	-9.905194e-10	-2.447824e+01	-6.865045e+01
1.040000e-06	-3.492516e-06	-9.903973e-10	-2.422563e+01	-6.842544e+01
1.050000e-06	-3.455841e-06	-9.865521e-10	-2.397123e+01	-6.820048e+01
1.060000e-06	-3.418936e-06	-9.802071e-10	-2.371525e+01	-6.797559e+01
1.070000e-06	-3.381849e-06	-9.774100e-10	-2.345799e+01	-6.775076e+01
1.080000e-06	-3.344489e-06	-9.751595e-10	-2.319885e+01	-6.752596e+01
1.090000e-06	-3.306858e-06	-9.675947e-10	-2.293782e+01	-6.730111e+01
1.100000e-06	-3.269076e-06	-9.631348e-10	-2.267575e+01	-6.707613e+01
1.110000e-06	-3.231095e-06	-9.611898e-10	-2.241230e+01	-6.685088e+01
1.120000e-06	-3.192901e-06	-9.545976e-10	-2.214737e+01	-6.662522e+01
1.130000e-06	-3.154471e-06	-9.489139e-10	-2.188080e+01	-6.639896e+01
1.140000e-06	-3.115787e-06	-9.490478e-10	-2.161247e+01	-6.617190e+01
1.150000e-06	-3.076925e-06	-9.466590e-10	-2.134290e+01	-6.594380e+01
1.160000e-06	-3.037902e-06	-9.406029e-10	-2.107222e+01	-6.571442e+01
1.170000e-06	-2.998579e-06	-9.352053e-10	-2.079946e+01	-6.548347e+01
1.180000e-06	-2.959040e-06	-9.330586e-10	-2.052521e+01	-6.525066e+01
1.190000e-06	-2.919444e-06	-9.298838e-10	-2.025055e+01	-6.501569e+01
1.200000e-06	-2.879731e-06	-9.283587e-10	-1.997508e+01	-6.477822e+01
1.210000e-06	-2.839904e-06	-9.275006e-10	-1.969883e+01	-6.453792e+01
1.220000e-06	-2.799921e-06	-9.224442e-10	-1.942148e+01	-6.429444e+01
1.230000e-06	-2.759774e-06	-9.158910e-10	-1.914301e+01	-6.404743e+01
1.240000e-06	-2.719470e-06	-9.124043e-10	-1.886344e+01	-6.379654e+01
1.250000e-06	-2.678965e-06	-9.091536e-10	-1.858248e+01	-6.354141e+01
1.260000e-06	-2.638232e-06	-9.018936e-10	-1.829994e+01	-6.328167e+01
1.270000e-06	-2.597209e-06	-8.957688e-10	-1.801538e+01	-6.301698e+01
1.280000e-06	-2.555982e-06	-8.910283e-10	-1.772942e+01	-6.274700e+01
1.290000e-06	-2.514456e-06	-8.829547e-10	-1.744137e+01	-6.247137e+01
1.300000e-06	-2.472489e-06	-8.748587e-10	-1.715027e+01	-6.218978e+01
1.310000e-06	-2.430275e-06	-8.699799e-10	-1.685746e+01	-6.190190e+01
1.320000e-06	-2.387824e-06	-8.651269e-10	-1.656300e+01	-6.160743e+01
1.330000e-06	-2.345078e-06	-8.589278e-10	-1.626649e+01	-6.130606e+01
1.340000e-06	-2.302014e-06	-8.538140e-10	-1.596778e+01	-6.099753e+01
1.350000e-06	-2.258722e-06	-8.501973e-10	-1.566749e+01	-6.068155e+01
1.360000e-06	-2.215270e-06	-8.455958e-10	-1.536609e+01	-6.035787e+01
1.370000e-06	-2.171669e-06	-8.401099e-10	-1.506365e+01	-6.002625e+01
1.380000e-06	-2.128040e-06	-8.336741e-10	-1.476102e+01	-5.968645e+01
1.390000e-06	-2.084368e-06	-8.263170e-10	-1.445810e+01	-5.933826e+01
1.400000e-06	-2.040562e-06	-8.180683e-10	-1.415424e+01	-5.898144e+01
1.410000e-06	-1.996643e-06	-8.125151e-10	-1.384960e+01	-5.861580e+01
1.420000e-06	-1.952683e-06	-8.059369e-10	-1.354467e+01	-5.824112e+01
1.430000e-06	-1.908664e-06	-7.990357e-10	-1.323933e+01	-5.785720e+01
1.440000e-06	-1.864571e-06	-7.946106e-10	-1.293349e+01	-5.746382e+01
1.450000e-06	-1.820399e-06	-7.894810e-10	-1.262709e+01	-5.706078e+01
1.460000e-06	-1.776077e-06	-7.818177e-10	-1.231965e+01	-5.664785e+01
1.470000e-06	-1.731719e-06	-7.731100e-10	-1.201196e+01	-5.622479e+01
1.480000e-06	-1.687227e-06	-7.645945e-10	-1.170335e+01	-5.579135e+01
1.490000e-06	-1.642435e-06	-7.550702e-10	-1.139265e+01	-5.534726e+01
1.500000e-06	-1.597450e-06	-7.437292e-10	-1.108062e+01	-5.489223e+01
1.510000e-06	-1.552303e-06	-7.342367e-10	-1.076746e+01	-5.442594e+01
1.520000e-06	-1.507010e-06	-7.264103e-10	-1.045329e+01	-5.394805e+01
1.530000e-06	-1.461630e-06	-7.190319e-10	-1.013851e+01	-5.345816e+01
1.540000e-06	-1.416177e-06	-7.114078e-10	-9.823227e+00	-5.295587e+01
1.550000e-06	-1.370666e-06	-7.017787e-10	-9.507540e+00	-5.244072e+01
1.560000e-06	-1.325130e-06	-6.896684e-10	-9.191686e+00	-5.191222e+01
1.570000e-06	-1.279468e-06	-6.779533e-10	-8.874950e+00	-5.136985e+01
1.580000e-06	-1.233662e-06	-6.685397e-10	-8.557225e+00	-5.081301e+01
1.590000e-06	-1.187812e-06	-6.603925e-10	-8.239188e+00	-5.024110e+01
1.600000e-06	-1.141943e-06	-6.527156e-10	-7.921017e+00	-4.965345e+01
1.610000e-06	-1.096018e-06	-6.454889e-10	-7.602463e+00	-4.904935e+01
1.620000e-06	-1.049976e-06	-6.393087e-10	-7.283097e+00	-4.842807e+01
1.630000e-06	-1.003837e-06	-6.336836e-10	-6.963057e+00	-4.778880e+01
1.640000e-06	-9.575952e-07	-6.268429e-10	-6.642302e+00	-4.713074e+01
1.650000e-06	-9.112934e-07	-6.165745e-10	-6.321132e+00	-4.645301e+01
1.660000e-06	-8.649060e-07	-6.040795e-10	-5.999369e+00	-4.575472e+01
1.670000e-06	-8.184146e-07	-5.910731e-10	-5.676884e+00	-4.503495e+01
1.680000e-06	-7.719328e-07	-5.793274e-10	-5.354466e+00	-4.429276e+01
1.690000e-06	-7.254575e-07	-5.673717e-10	-5.032092e+00	-4.352718e+01
1.700000e-06	-6.789661e-07	-5.539189e-10	-4.709608e+00	-4.273724e+01
1.710000e-06	-6.324249e-07	-5.404661e-10	-4.386777e+00	-4.192196e+01
1.720000e-06	-5.858133e-07	-5.279841e-10	-4.063459e+00	-4.108035e+01
1.730000e-06	-5.391401e-07	-5.140634e-10	-3.739713e+00	-4.021146e+01
1.740000e-06	-4.923310e-07	-4.992032e-10	-3.415024e+00	-3.931431e+01
1.750000e-06	-4.453863e-07	-4.836740e-10	-3.089396e+00	-3.838799e+01
1.760000e-06	-3.983656e-07	-4.659842e-10	-2.763239e+00	-3.743158e+01
1.770000e-06	-3.514186e-07	-4.481727e-10	-2.437594e+00	-3.644423e+01
1.780000e-06	-3.045410e-07	-4.324103e-10	-2.112431e+00	-3.542513e+01
1.790000e-06	-2.575480e-07	-4.184174e-10	-1.786466e+00	-3.437353e+01
1.800000e-06	-2.105515e-07	-4.060019e-10	-1.460478e+00	-3.328874e+01
1.810000e-06	-1.636463e-07	-3.937498e-10	-1.135123e+00	-3.217014e+01
1.820000e-06	-1.168007e-07	-3.799750e-10	-8.101813e-01	-3.101720e+01
1.830000e-06	-6.990545e-08	-3.633525e-10	-4.848950e-01	-2.982948e+01
1.840000e-06	-2.296140e-08	-3.451025e-10	-1.592704e-01	-2.860665e+01
1.850000e-06	2.393596e-08	-3.262578e-10	1.660303e-01	-2.734845e+01
1.860000e-06	7.085434e-08	-3.069864e-10	4.914769e-01	-2.605477e+01
1.870000e-06	1.177721e-07	-2.872773e-10	8.169191e-01	-2.472559e+01
1.880000e-06	1.646854e-07	-2.674362e-10	1.142331e+00	-2.336103e+01
1.890000e-06	2.116127e-07	-2.492676e-10	1.467839e+00	-2.196133e+01
1.900000e-06	2.585726e-07	-2.287263e-10	1.793573e+00	-2.052686e+01
1.910000e-06	3.054700e-07	-2.074060e-10	2.118874e+00	-1.905811e+01
1.920000e-06	3.522452e-07	-1.866318e-10	2.443328e+00	-1.755574e+01
1.930000e-06	3.990354e-07	-1.652163e-10	2.767885e+00	-1.602052e+01
1.940000e-06	4.458543e-07	-1.443556e-10	3.092641e+00	-1.445337e+01
1.950000e-06	4.926533e-07	-1.228179e-10	3.417261e+00	-1.285534e+01
1.960000e-06	5.393051e-07	-1.012359e-10	3.740857e+00	-1.122761e+01
1.970000e-06	5.859273e-07	-7.908105e-11	4.064250e+00	-9.571508e+00
1.980000e-06	6.325641e-07	-5.748393e-11	4.387743e+00	-7.888482e+00
1.990000e-06	6.791122e-07	-3.452372e-11	4.710621e+00	-6.180106e+00
2.000000e-06	7.256160e-07	-9.213802e-12	5.033192e+00	-4.448072e+00
2.010000e-06	7.720282e-07	1.804077e-11	5.355128e+00	-2.694185e+00
2.020000e-06	8.184077e-07	4.539125e-11	5.676836e+00	-9.203572e-01
2.030000e-06	8.647489e-07	7.095557e-11	5.998279e+00	8.714032e-01
2.040000e-06	9.109608e-07	9.386352e-11	6.318825e+00	2.678998e+00
2.050000e-06	9.570887e-07	1.154357e-10	6.638789e+00	4.500250e+00
2.060000e-06	1.003198e-06	1.385209e-10	6.958624e+00	6.332912e+00
2.070000e-06	1.049251e-06	1.637747e-10	7.278069e+00	8.174678e+00
2.080000e-06	1.095229e-06	1.905572e-10	7.596990e+00	1.002319e+01
2.090000e-06	1.141132e-06	2.178230e-10	7.915397e+00	1.187607e+01
2.100000e-06	1.186931e-06	2.479029e-10	8.233078e+00	1.373089e+01
2.110000e-06	1.232635e-06	2.777923e-10	8.550101e+00	1.558522e+01
2.120000e-06	1.278284e-06	3.046455e-10	8.866740e+00	1.743663e+01
2.130000e-06	1.323881e-06	3.283037e-10	9.183018e+00	1.928271e+01
2.140000e-06	1.369375e-06	3.502597e-10	9.498587e+00	2.112105e+01
2.150000e-06	1.414814e-06	3.722450e-10	9.813774e+00	2.294929e+01
2.160000e-06	1.460218e-06	3.964149e-10	1.012871e+01	2.476511e+01
2.170000e-06	1.505453e-06	4.221497e-10	1.044249e+01	2.656626e+01
2.180000e-06	1.550505e-06	4.497698e-10	1.075499e+01	2.835053e+01
2.190000e-06	1.595497e-06	4.785041e-10	1.106707e+01	3.011580e+01
2.200000e-06	1.640370e-06	5.047890e-10	1.137833e+01	3.186006e+01
2.210000e-06	1.684988e-06	5.269712e-10	1.168782e+01	3.358135e+01
2.220000e-06	1.729483e-06	5.467849e-10	1.199646e+01	3.527785e+01
2.230000e-06	1.773900e-06	5.665400e-10	1.230455e+01	3.694783e+01
2.240000e-06	1.818183e-06	5.854341e-10	1.261172e+01	3.858969e+01
2.250000e-06	1.862386e-06	6.050844e-10	1.291833e+01	4.020194e+01
2.260000e-06	1.906510e-06	6.266985e-10	1.322439e+01	4.178323e+01
2.270000e-06	1.950502e-06	6.473435e-10	1.352954e+01	4.333234e+01
2.280000e-06	1.994381e-06	6.668819e-10	1.383390e+01	4.484817e+01
2.290000e-06	2.038247e-06	6.871839e-10	1.413818e+01	4.632976e+01
2.300000e-06	2.082057e-06	7.065505e-10	1.444207e+01	4.777629e+01
2.310000e-06	2.125726e-06	7.242487e-10	1.474497e+01	4.918708e+01
2.320000e-06	2.169291e-06	7.406082e-10	1.504716e+01	5.056157e+01
2.330000e-06	2.212850e-06	7.588398e-10	1.534930e+01	5.189936e+01
2.340000e-06	2.256296e-06	7.766129e-10	1.565066e+01	5.320015e+01
2.350000e-06	2.299539e-06	7.943235e-10	1.595061e+01	5.446378e+01
2.360000e-06	2.342637e-06	8.127718e-10	1.624957e+01	5.569021e+01
2.370000e-06	2.385551e-06	8.302664e-10	1.654723e+01	5.687953e+01
2.380000e-06	2.428250e-06	8.459204e-10	1.684341e+01	5.803190e+01
2.390000e-06	2.470623e-06	8.594283e-10	1.713733e+01	5.914765e+01
2.400000e-06	2.512631e-06	8.720328e-10	1.742871e+01	6.022714e+01
2.410000e-06	2.554286e-06	8.835360e-10	1.771765e+01	6.127087e+01
2.420000e-06	2.595592e-06	8.956910e-10	1.800417e+01	6.227939e+01
2.430000e-06	2.636637e-06	9.071006e-10	1.828887e+01	6.325336e+01
2.440000e-06	2.677416e-06	9.172185e-10	1.857173e+01	6.419346e+01
2.450000e-06	2.717922e-06	9.294330e-10	1.885270e+01	6.510047e+01
2.460000e-06	2.758168e-06	9.427468e-10	1.913187e+01	6.597521e+01
2.470000e-06	2.798212e-06	9.542262e-10	1.940963e+01	6.681852e+01
2.480000e-06	2.838118e-06	9.628590e-10	1.968644e+01	6.763129e+01
2.490000e-06	2.877906e-06	9.709389e-10	1.996243e+01	6.841445e+01
2.500000e-06	2.917588e-06	9.802033e-10	2.023767e+01	6.916891e+01
2.510000e-06	2.957088e-06	9.901365e-10	2.051166e+01	6.989563e+01
2.520000e-06	2.996382e-06	1.001986e-09	2.078422e+01	7.059555e+01
2.530000e-06	3.035615e-06	1.011993e-09	2.105636e+01	7.126961e+01
2.540000e-06	3.074720e-06	1.018963e-09	2.132761e+01	7.191873e+01
2.550000e-06	3.113554e-06	1.025781e-09	2.159698e+01	7.254384e+01
2.560000e-06	3.152084e-06	1.033040e-09	2.186424e+01	7.314583e+01
2.570000e-06	3.190351e-06	1.039567e-09	2.212968e+01	7.372557e+01
2.580000e-06	3.228521e-06	1.047647e-09	2.239445e+01	7.428389e+01
2.590000e-06	3.266565e-06	1.057246e-09	2.265833e+01	7.482161e+01
2.600000e-06	3.304374e-06	1.065658e-09	2.292060e+01	7.533949e+01
2.610000e-06	3.341949e-06	1.074653e-09	2.318123e+01	7.583827e+01
2.620000e-06	3.379308e-06	1.082814e-09	2.344037e+01	7.631864e+01
2.630000e-06	3.416401e-06	1.089022e-09	2.369766e+01	7.678125e+01
2.640000e-06	3.453209e-06	1.095359e-09	2.395298e+01	7.722671e+01
2.650000e-06	3.489745e-06	1.102571e-09	2.420641e+01	7.765561e+01
2.660000e-06	3.526004e-06	1.110882e-09	2.445792e+01	7.806846e+01
2.670000e-06	3.562019e-06	1.119510e-09	2.470773e+01	7.846577e+01
2.680000e-06	3.597833e-06	1.127829e-09	2.495615e+01	7.884798e+01
2.690000e-06	3.633567e-06	1.134320e-09	2.520402e+01	7.921552e+01
2.700000e-06	3.669265e-06	1.139437e-09	2.545164e+01	7.956878e+01
2.710000e-06	3.704761e-06	1.141130e-09	2.569785e+01	7.990811e+01
2.720000e-06	3.739981e-06	1.141786e-09	2.594215e+01	8.023385e+01
2.730000e-06	3.774858e-06	1.144377e-09	2.618408e+01	8.054629e+01
2.740000e-06	3.809340e-06	1.150539e-09	2.642326e+01	8.084574e+01
2.750000e-06	3.843499e-06	1.159134e-09	2.666020e+01	8.113245e+01
2.760000e-06	3.877234e-06	1.167193e-09	2.689420e+01	8.140667e+01
2.770000e-06	3.910400e-06	1.173100e-09	2.712426e+01	8.166865e+01
2.780000e-06	3.943049e-06	1.174447e-09	2.735073e+01	8.191863e+01
2.790000e-06	3.975343e-06	1.175209e-09	2.757473e+01	8.215683e+01
2.800000e-06	4.007417e-06	1.177262e-09	2.779721e+01	8.238349e+01
2.810000e-06	4.039323e-06	1.179671e-09	2.801852e+01	8.259882e+01
2.820000e-06	4.071061e-06	1.182810e-09	2.823867e+01	8.280306e+01
2.830000e-06	4.102628e-06	1.188761e-09	2.845764e+01	8.299646e+01
2.840000e-06	4.133941e-06	1.195845e-09	2.867483e+01	8.317925e+01
2.850000e-06	4.165020e-06	1.199628e-09	2.889041e+01	8.335169e+01
2.860000e-06	4.195859e-06	1.199468e-09	2.910433e+01	8.351405e+01
2.870000e-06	4.226320e-06	1.197353e-09	2.931561e+01	8.366660e+01
2.880000e-06	4.256451e-06	1.195147e-09	2.952462e+01	8.380963e+01
2.890000e-06	4.286265e-06	1.195838e-09	2.973142e+01	8.394344e+01
2.900000e-06	4.315764e-06	1.198529e-09	2.993604e+01	8.406835e+01
