# Temperatura_=_-10.8
# Concentracion g/m^3_=_1620.0
# C_Vs_to_Am_M_A/Vsm_=_65563218390.804596
# pendiente_HvsI_1/m_=_3716.3
# ordenada_HvsI_A/m_=_1297.0
# frecuencia_Hz_=_135104.54423360428

Tiempo_(s)	Campo_(V.s)	Magnetizacion_(V.s)	Campo_(kA/m)	Magnetizacion_(A/m)
0.000000e+00	-5.524474e-06	-1.067494e-09	-3.837389e+01	-7.037114e+01
1.000000e-08	-5.524840e-06	-1.064265e-09	-3.837644e+01	-7.034558e+01
2.000000e-08	-5.524909e-06	-1.060268e-09	-3.837692e+01	-7.032053e+01
3.000000e-08	-5.524644e-06	-1.057440e-09	-3.837508e+01	-7.029578e+01
4.000000e-08	-5.523981e-06	-1.055635e-09	-3.837047e+01	-7.027113e+01
5.000000e-08	-5.522721e-06	-1.052322e-09	-3.836172e+01	-7.024637e+01
6.000000e-08	-5.520890e-06	-1.047233e-09	-3.834900e+01	-7.022126e+01
7.000000e-08	-5.518480e-06	-1.048359e-09	-3.833226e+01	-7.019557e+01
8.000000e-08	-5.515477e-06	-1.046279e-09	-3.831140e+01	-7.016904e+01
9.000000e-08	-5.512020e-06	-1.044878e-09	-3.828739e+01	-7.014142e+01
1.000000e-07	-5.508166e-06	-1.068914e-09	-3.826062e+01	-7.011245e+01
1.100000e-07	-5.503943e-06	-1.076532e-09	-3.823128e+01	-7.008189e+01
1.200000e-07	-5.499439e-06	-1.011436e-09	-3.820000e+01	-7.004948e+01
1.300000e-07	-5.494784e-06	-1.005897e-09	-3.816766e+01	-7.001500e+01
1.400000e-07	-5.489791e-06	-1.037482e-09	-3.813299e+01	-6.997820e+01
1.500000e-07	-5.484309e-06	-1.075805e-09	-3.809490e+01	-6.993888e+01
1.600000e-07	-5.478479e-06	-1.022642e-09	-3.805441e+01	-6.989683e+01
1.700000e-07	-5.472326e-06	-9.928351e-10	-3.801167e+01	-6.985188e+01
1.800000e-07	-5.465750e-06	-1.050060e-09	-3.796599e+01	-6.980389e+01
1.900000e-07	-5.458736e-06	-1.068094e-09	-3.791727e+01	-6.975270e+01
2.000000e-07	-5.451389e-06	-1.037367e-09	-3.786623e+01	-6.969823e+01
2.100000e-07	-5.443818e-06	-1.001946e-09	-3.781365e+01	-6.964040e+01
2.200000e-07	-5.435993e-06	-1.052304e-09	-3.775930e+01	-6.957917e+01
2.300000e-07	-5.427845e-06	-1.059750e-09	-3.770270e+01	-6.951451e+01
2.400000e-07	-5.419299e-06	-1.036932e-09	-3.764333e+01	-6.944647e+01
2.500000e-07	-5.410168e-06	-1.001562e-09	-3.757991e+01	-6.937507e+01
2.600000e-07	-5.400353e-06	-1.028379e-09	-3.751174e+01	-6.930042e+01
2.700000e-07	-5.389908e-06	-1.035858e-09	-3.743918e+01	-6.922263e+01
2.800000e-07	-5.378983e-06	-1.034470e-09	-3.736329e+01	-6.914184e+01
2.900000e-07	-5.367637e-06	-1.017815e-09	-3.728448e+01	-6.905825e+01
3.000000e-07	-5.355863e-06	-1.028142e-09	-3.720270e+01	-6.897205e+01
3.100000e-07	-5.343716e-06	-1.034209e-09	-3.711832e+01	-6.888349e+01
3.200000e-07	-5.331136e-06	-1.037701e-09	-3.703094e+01	-6.879282e+01
3.300000e-07	-5.318092e-06	-1.024205e-09	-3.694034e+01	-6.870034e+01
3.400000e-07	-5.304733e-06	-1.028419e-09	-3.684754e+01	-6.860634e+01
3.500000e-07	-5.291029e-06	-1.052433e-09	-3.675235e+01	-6.851114e+01
3.600000e-07	-5.276903e-06	-1.036954e-09	-3.665423e+01	-6.841508e+01
3.700000e-07	-5.262197e-06	-1.015321e-09	-3.655208e+01	-6.831850e+01
3.800000e-07	-5.246965e-06	-1.037103e-09	-3.644628e+01	-6.822175e+01
3.900000e-07	-5.231249e-06	-1.050038e-09	-3.633711e+01	-6.812518e+01
4.000000e-07	-5.214971e-06	-1.004278e-09	-3.622404e+01	-6.802914e+01
4.100000e-07	-5.198310e-06	-1.019529e-09	-3.610831e+01	-6.793396e+01
4.200000e-07	-5.181350e-06	-1.060395e-09	-3.599050e+01	-6.784000e+01
4.300000e-07	-5.164113e-06	-1.024101e-09	-3.587077e+01	-6.774755e+01
4.400000e-07	-5.146552e-06	-9.861346e-10	-3.574879e+01	-6.765692e+01
4.500000e-07	-5.128616e-06	-1.050574e-09	-3.562420e+01	-6.756840e+01
4.600000e-07	-5.110276e-06	-1.036159e-09	-3.549681e+01	-6.748225e+01
4.700000e-07	-5.091519e-06	-9.676899e-10	-3.536652e+01	-6.739868e+01
4.800000e-07	-5.072435e-06	-1.001140e-09	-3.523396e+01	-6.731789e+01
4.900000e-07	-5.053095e-06	-1.052306e-09	-3.509962e+01	-6.724006e+01
5.000000e-07	-5.033466e-06	-9.813275e-10	-3.496328e+01	-6.716532e+01
5.100000e-07	-5.013617e-06	-9.819976e-10	-3.482540e+01	-6.709375e+01
5.200000e-07	-4.993523e-06	-1.042823e-09	-3.468583e+01	-6.702541e+01
5.300000e-07	-4.973087e-06	-1.002440e-09	-3.454388e+01	-6.696031e+01
5.400000e-07	-4.952274e-06	-9.581795e-10	-3.439930e+01	-6.689844e+01
5.500000e-07	-4.931123e-06	-1.025561e-09	-3.425239e+01	-6.683973e+01
5.600000e-07	-4.909669e-06	-1.011931e-09	-3.410336e+01	-6.678407e+01
5.700000e-07	-4.887850e-06	-9.485629e-10	-3.395180e+01	-6.673133e+01
5.800000e-07	-4.865600e-06	-9.911007e-10	-3.379725e+01	-6.668131e+01
5.900000e-07	-4.842983e-06	-1.023501e-09	-3.364015e+01	-6.663382e+01
6.000000e-07	-4.820045e-06	-9.643013e-10	-3.348082e+01	-6.658859e+01
6.100000e-07	-4.796786e-06	-9.760209e-10	-3.331926e+01	-6.654536e+01
6.200000e-07	-4.773306e-06	-1.019794e-09	-3.315616e+01	-6.650381e+01
6.300000e-07	-4.749652e-06	-9.798554e-10	-3.299186e+01	-6.646360e+01
6.400000e-07	-4.725785e-06	-9.672075e-10	-3.282608e+01	-6.642439e+01
6.500000e-07	-4.701551e-06	-1.009258e-09	-3.265774e+01	-6.638580e+01
6.600000e-07	-4.676899e-06	-9.900120e-10	-3.248650e+01	-6.634745e+01
6.700000e-07	-4.651785e-06	-9.611029e-10	-3.231206e+01	-6.630895e+01
6.800000e-07	-4.626112e-06	-9.974555e-10	-3.213373e+01	-6.626989e+01
6.900000e-07	-4.599930e-06	-9.989061e-10	-3.195186e+01	-6.622987e+01
7.000000e-07	-4.573280e-06	-9.701963e-10	-3.176675e+01	-6.618850e+01
7.100000e-07	-4.546213e-06	-9.853912e-10	-3.157874e+01	-6.614539e+01
7.200000e-07	-4.518809e-06	-9.999895e-10	-3.138839e+01	-6.610016e+01
7.300000e-07	-4.491228e-06	-9.704405e-10	-3.119680e+01	-6.605246e+01
7.400000e-07	-4.463495e-06	-9.734288e-10	-3.100417e+01	-6.600194e+01
7.500000e-07	-4.435498e-06	-9.879666e-10	-3.080970e+01	-6.594828e+01
7.600000e-07	-4.407278e-06	-9.708010e-10	-3.061367e+01	-6.589121e+01
7.700000e-07	-4.378725e-06	-9.585239e-10	-3.041534e+01	-6.583047e+01
7.800000e-07	-4.349839e-06	-9.762158e-10	-3.021469e+01	-6.576583e+01
7.900000e-07	-4.320654e-06	-9.689765e-10	-3.001196e+01	-6.569711e+01
8.000000e-07	-4.291136e-06	-9.598079e-10	-2.980693e+01	-6.562415e+01
8.100000e-07	-4.261361e-06	-9.713040e-10	-2.960011e+01	-6.554685e+01
8.200000e-07	-4.231260e-06	-9.725858e-10	-2.939102e+01	-6.546514e+01
8.300000e-07	-4.200833e-06	-9.505599e-10	-2.917967e+01	-6.537900e+01
8.400000e-07	-4.170102e-06	-9.516571e-10	-2.896621e+01	-6.528843e+01
8.500000e-07	-4.139149e-06	-9.567676e-10	-2.875120e+01	-6.519349e+01
8.600000e-07	-4.108000e-06	-9.468189e-10	-2.853484e+01	-6.509428e+01
8.700000e-07	-4.076615e-06	-9.445085e-10	-2.831683e+01	-6.499093e+01
8.800000e-07	-4.045019e-06	-9.528229e-10	-2.809736e+01	-6.488361e+01
8.900000e-07	-4.013273e-06	-9.437902e-10	-2.787685e+01	-6.477253e+01
9.000000e-07	-3.981315e-06	-9.366071e-10	-2.765486e+01	-6.465792e+01
9.100000e-07	-3.949050e-06	-9.437140e-10	-2.743074e+01	-6.454005e+01
9.200000e-07	-3.916516e-06	-9.388488e-10	-2.720476e+01	-6.441922e+01
9.300000e-07	-3.883523e-06	-9.264144e-10	-2.697558e+01	-6.429573e+01
9.400000e-07	-3.849911e-06	-9.306489e-10	-2.674211e+01	-6.416992e+01
9.500000e-07	-3.815898e-06	-9.361072e-10	-2.650585e+01	-6.404213e+01
9.600000e-07	-3.781521e-06	-9.269374e-10	-2.626706e+01	-6.391272e+01
9.700000e-07	-3.746698e-06	-9.251575e-10	-2.602518e+01	-6.378205e+01
9.800000e-07	-3.711605e-06	-9.284348e-10	-2.578141e+01	-6.365047e+01
9.900000e-07	-3.676299e-06	-9.229269e-10	-2.553617e+01	-6.351835e+01
1.000000e-06	-3.640769e-06	-9.156347e-10	-2.528937e+01	-6.338602e+01
1.010000e-06	-3.605069e-06	-9.192559e-10	-2.504140e+01	-6.325382e+01
1.020000e-06	-3.569231e-06	-9.164880e-10	-2.479246e+01	-6.312206e+01
1.030000e-06	-3.533236e-06	-9.121401e-10	-2.454244e+01	-6.299104e+01
1.040000e-06	-3.497016e-06	-9.157749e-10	-2.429084e+01	-6.286101e+01
1.050000e-06	-3.460516e-06	-9.192800e-10	-2.403731e+01	-6.273222e+01
1.060000e-06	-3.423800e-06	-9.096982e-10	-2.378227e+01	-6.260487e+01
1.070000e-06	-3.386879e-06	-9.062417e-10	-2.352582e+01	-6.247912e+01
1.080000e-06	-3.349652e-06	-9.064517e-10	-2.326723e+01	-6.235510e+01
1.090000e-06	-3.312092e-06	-9.023225e-10	-2.300633e+01	-6.223290e+01
1.100000e-06	-3.274318e-06	-8.998489e-10	-2.274395e+01	-6.211256e+01
1.110000e-06	-3.236406e-06	-9.049896e-10	-2.248061e+01	-6.199408e+01
1.120000e-06	-3.198360e-06	-9.031460e-10	-2.221633e+01	-6.187742e+01
1.130000e-06	-3.160058e-06	-8.981103e-10	-2.195028e+01	-6.176248e+01
1.140000e-06	-3.121489e-06	-8.975879e-10	-2.168237e+01	-6.164913e+01
1.150000e-06	-3.082735e-06	-8.976840e-10	-2.141318e+01	-6.153719e+01
1.160000e-06	-3.043753e-06	-8.930484e-10	-2.114241e+01	-6.142644e+01
1.170000e-06	-3.004566e-06	-8.901170e-10	-2.087020e+01	-6.131661e+01
1.180000e-06	-2.965258e-06	-8.889631e-10	-2.059717e+01	-6.120739e+01
1.190000e-06	-2.925780e-06	-8.893719e-10	-2.032294e+01	-6.109844e+01
1.200000e-06	-2.886152e-06	-8.931164e-10	-2.004768e+01	-6.098939e+01
1.210000e-06	-2.846401e-06	-8.973031e-10	-1.977156e+01	-6.087982e+01
1.220000e-06	-2.806454e-06	-8.957004e-10	-1.949409e+01	-6.076930e+01
1.230000e-06	-2.766284e-06	-8.900367e-10	-1.921506e+01	-6.065735e+01
1.240000e-06	-2.725982e-06	-8.873046e-10	-1.893511e+01	-6.054350e+01
1.250000e-06	-2.685515e-06	-8.820954e-10	-1.865402e+01	-6.042724e+01
1.260000e-06	-2.644790e-06	-8.753269e-10	-1.837114e+01	-6.030805e+01
1.270000e-06	-2.603905e-06	-8.717534e-10	-1.808715e+01	-6.018540e+01
1.280000e-06	-2.562779e-06	-8.720589e-10	-1.780148e+01	-6.005875e+01
1.290000e-06	-2.521266e-06	-8.709524e-10	-1.751313e+01	-5.992758e+01
1.300000e-06	-2.479364e-06	-8.727833e-10	-1.722206e+01	-5.979133e+01
1.310000e-06	-2.437193e-06	-8.744899e-10	-1.692914e+01	-5.964948e+01
1.320000e-06	-2.394785e-06	-8.708472e-10	-1.663457e+01	-5.950151e+01
1.330000e-06	-2.352129e-06	-8.629158e-10	-1.633827e+01	-5.934690e+01
1.340000e-06	-2.309245e-06	-8.552305e-10	-1.604039e+01	-5.918515e+01
1.350000e-06	-2.266153e-06	-8.497303e-10	-1.574107e+01	-5.901576e+01
1.360000e-06	-2.222825e-06	-8.471286e-10	-1.544010e+01	-5.883829e+01
1.370000e-06	-2.179309e-06	-8.464337e-10	-1.513783e+01	-5.865226e+01
1.380000e-06	-2.135700e-06	-8.463206e-10	-1.483492e+01	-5.845727e+01
1.390000e-06	-2.091999e-06	-8.447626e-10	-1.453136e+01	-5.825289e+01
1.400000e-06	-2.048240e-06	-8.408061e-10	-1.422741e+01	-5.803874e+01
1.410000e-06	-2.004414e-06	-8.344730e-10	-1.392298e+01	-5.781445e+01
1.420000e-06	-1.960466e-06	-8.268890e-10	-1.361772e+01	-5.757967e+01
1.430000e-06	-1.916437e-06	-8.201814e-10	-1.331188e+01	-5.733408e+01
1.440000e-06	-1.872307e-06	-8.183784e-10	-1.300535e+01	-5.707736e+01
1.450000e-06	-1.828077e-06	-8.159142e-10	-1.269812e+01	-5.680921e+01
1.460000e-06	-1.783776e-06	-8.124431e-10	-1.239040e+01	-5.652935e+01
1.470000e-06	-1.739320e-06	-8.072114e-10	-1.208160e+01	-5.623750e+01
1.480000e-06	-1.694663e-06	-7.995431e-10	-1.177141e+01	-5.593339e+01
1.490000e-06	-1.649937e-06	-7.898643e-10	-1.146073e+01	-5.561676e+01
1.500000e-06	-1.605196e-06	-7.771120e-10	-1.114995e+01	-5.528735e+01
1.510000e-06	-1.560287e-06	-7.675503e-10	-1.083801e+01	-5.494487e+01
1.520000e-06	-1.515158e-06	-7.647034e-10	-1.052453e+01	-5.458907e+01
1.530000e-06	-1.469871e-06	-7.635060e-10	-1.020997e+01	-5.421964e+01
1.540000e-06	-1.424469e-06	-7.595670e-10	-9.894593e+00	-5.383630e+01
1.550000e-06	-1.378963e-06	-7.498252e-10	-9.578500e+00	-5.343871e+01
1.560000e-06	-1.333379e-06	-7.356132e-10	-9.261870e+00	-5.302653e+01
1.570000e-06	-1.287730e-06	-7.214153e-10	-8.944782e+00	-5.259941e+01
1.580000e-06	-1.242061e-06	-7.123075e-10	-8.627555e+00	-5.215694e+01
1.590000e-06	-1.196390e-06	-7.050092e-10	-8.310321e+00	-5.169869e+01
1.600000e-06	-1.150582e-06	-7.000903e-10	-7.992131e+00	-5.122422e+01
1.610000e-06	-1.104626e-06	-6.993492e-10	-7.672911e+00	-5.073301e+01
1.620000e-06	-1.058628e-06	-6.974271e-10	-7.353404e+00	-5.022456e+01
1.630000e-06	-1.012532e-06	-6.926399e-10	-7.033211e+00	-4.969828e+01
1.640000e-06	-9.662876e-07	-6.834535e-10	-6.711991e+00	-4.915357e+01
1.650000e-06	-9.199932e-07	-6.699050e-10	-6.390423e+00	-4.858980e+01
1.660000e-06	-8.737714e-07	-6.557344e-10	-6.069358e+00	-4.800629e+01
1.670000e-06	-8.274825e-07	-6.450718e-10	-5.747828e+00	-4.740233e+01
1.680000e-06	-7.810144e-07	-6.355874e-10	-5.425054e+00	-4.677717e+01
1.690000e-06	-7.345418e-07	-6.267330e-10	-5.102247e+00	-4.613005e+01
1.700000e-06	-6.880513e-07	-6.173477e-10	-4.779316e+00	-4.546016e+01
1.710000e-06	-6.415035e-07	-6.078730e-10	-4.455988e+00	-4.476670e+01
1.720000e-06	-5.949378e-07	-5.982218e-10	-4.132535e+00	-4.404883e+01
1.730000e-06	-5.483069e-07	-5.877721e-10	-3.808629e+00	-4.330571e+01
1.740000e-06	-5.016436e-07	-5.752858e-10	-3.484498e+00	-4.253648e+01
1.750000e-06	-4.549668e-07	-5.603511e-10	-3.160274e+00	-4.174031e+01
1.760000e-06	-4.082461e-07	-5.422701e-10	-2.835744e+00	-4.091635e+01
1.770000e-06	-3.614986e-07	-5.242587e-10	-2.511028e+00	-4.006378e+01
1.780000e-06	-3.147522e-07	-5.096191e-10	-2.186320e+00	-3.918180e+01
1.790000e-06	-2.679542e-07	-4.991999e-10	-1.861253e+00	-3.826966e+01
1.800000e-06	-2.211833e-07	-4.910328e-10	-1.536375e+00	-3.732662e+01
1.810000e-06	-1.744383e-07	-4.818912e-10	-1.211677e+00	-3.635202e+01
1.820000e-06	-1.275449e-07	-4.701478e-10	-8.859474e-01	-3.534522e+01
1.830000e-06	-8.063155e-08	-4.547264e-10	-5.600799e-01	-3.430567e+01
1.840000e-06	-3.375557e-08	-4.356329e-10	-2.344717e-01	-3.323290e+01
1.850000e-06	1.310049e-08	-4.140765e-10	9.099815e-02	-3.212650e+01
1.860000e-06	5.996279e-08	-3.945209e-10	4.165113e-01	-3.098617e+01
1.870000e-06	1.068419e-07	-3.780632e-10	7.421409e-01	-2.981168e+01
1.880000e-06	1.536420e-07	-3.637076e-10	1.067223e+00	-2.860294e+01
1.890000e-06	2.004270e-07	-3.519701e-10	1.392198e+00	-2.735993e+01
1.900000e-06	2.472176e-07	-3.383612e-10	1.717214e+00	-2.608277e+01
1.910000e-06	2.939920e-07	-3.187021e-10	2.042116e+00	-2.477170e+01
1.920000e-06	3.407565e-07	-2.949556e-10	2.366950e+00	-2.342709e+01
1.930000e-06	3.874121e-07	-2.713148e-10	2.691027e+00	-2.204941e+01
1.940000e-06	4.340287e-07	-2.484323e-10	3.014834e+00	-2.063928e+01
1.950000e-06	4.807478e-07	-2.264700e-10	3.339352e+00	-1.919747e+01
1.960000e-06	5.273912e-07	-2.083000e-10	3.663345e+00	-1.772486e+01
1.970000e-06	5.739387e-07	-1.916542e-10	3.986672e+00	-1.622246e+01
1.980000e-06	6.204213e-07	-1.733879e-10	4.309548e+00	-1.469144e+01
1.990000e-06	6.668707e-07	-1.533976e-10	4.632192e+00	-1.313308e+01
2.000000e-06	7.133824e-07	-1.291091e-10	4.955270e+00	-1.154879e+01
2.010000e-06	7.598979e-07	-1.013066e-10	5.278375e+00	-9.940104e+00
2.020000e-06	8.063847e-07	-7.597103e-11	5.601280e+00	-8.308681e+00
2.030000e-06	8.527434e-07	-5.309995e-11	5.923295e+00	-6.656289e+00
2.040000e-06	8.989522e-07	-3.082447e-11	6.244269e+00	-4.984801e+00
2.050000e-06	9.450496e-07	-9.195446e-12	6.564469e+00	-3.296193e+00
2.060000e-06	9.911216e-07	1.311351e-11	6.884492e+00	-1.592525e+00
2.070000e-06	1.037197e-06	3.687192e-11	7.204539e+00	1.240552e-01
2.080000e-06	1.083132e-06	6.171772e-11	7.523608e+00	1.851334e+00
2.090000e-06	1.128900e-06	8.619678e-11	7.841523e+00	3.587033e+00
2.100000e-06	1.174625e-06	1.110427e-10	8.159139e+00	5.328827e+00
2.110000e-06	1.220351e-06	1.378235e-10	8.476760e+00	7.074349e+00
2.120000e-06	1.266065e-06	1.644871e-10	8.794294e+00	8.821209e+00
2.130000e-06	1.311746e-06	1.897688e-10	9.111603e+00	1.056700e+01
2.140000e-06	1.357236e-06	2.122455e-10	9.427580e+00	1.230930e+01
2.150000e-06	1.402566e-06	2.301040e-10	9.742450e+00	1.404573e+01
2.160000e-06	1.447867e-06	2.484373e-10	1.005712e+01	1.577389e+01
2.170000e-06	1.493051e-06	2.714507e-10	1.037098e+01	1.749144e+01
2.180000e-06	1.538042e-06	2.980342e-10	1.068349e+01	1.919609e+01
2.190000e-06	1.582913e-06	3.247320e-10	1.099517e+01	2.088557e+01
2.200000e-06	1.627660e-06	3.505933e-10	1.130599e+01	2.255772e+01
2.210000e-06	1.672250e-06	3.749221e-10	1.161572e+01	2.421043e+01
2.220000e-06	1.716765e-06	3.942836e-10	1.192493e+01	2.584169e+01
2.230000e-06	1.761178e-06	4.110089e-10	1.223343e+01	2.744958e+01
2.240000e-06	1.805417e-06	4.263239e-10	1.254072e+01	2.903229e+01
2.250000e-06	1.849612e-06	4.433255e-10	1.284770e+01	3.058812e+01
2.260000e-06	1.893810e-06	4.641743e-10	1.315471e+01	3.211548e+01
2.270000e-06	1.937888e-06	4.879133e-10	1.346088e+01	3.361293e+01
2.280000e-06	1.981835e-06	5.127803e-10	1.376615e+01	3.507914e+01
2.290000e-06	2.025709e-06	5.328384e-10	1.407090e+01	3.651291e+01
2.300000e-06	2.069460e-06	5.466320e-10	1.437481e+01	3.791320e+01
2.310000e-06	2.113101e-06	5.582325e-10	1.467794e+01	3.927909e+01
2.320000e-06	2.156662e-06	5.711567e-10	1.498053e+01	4.060979e+01
2.330000e-06	2.200171e-06	5.867323e-10	1.528274e+01	4.190469e+01
2.340000e-06	2.243588e-06	6.050555e-10	1.558433e+01	4.316327e+01
2.350000e-06	2.286788e-06	6.263050e-10	1.588440e+01	4.438519e+01
2.360000e-06	2.329770e-06	6.478809e-10	1.618296e+01	4.557022e+01
2.370000e-06	2.372556e-06	6.670926e-10	1.648016e+01	4.671826e+01
2.380000e-06	2.415103e-06	6.823074e-10	1.677570e+01	4.782935e+01
2.390000e-06	2.457316e-06	6.942781e-10	1.706891e+01	4.890364e+01
2.400000e-06	2.499288e-06	7.046750e-10	1.736046e+01	4.994140e+01
2.410000e-06	2.541005e-06	7.147884e-10	1.765024e+01	5.094299e+01
2.420000e-06	2.582332e-06	7.270213e-10	1.793730e+01	5.190891e+01
2.430000e-06	2.623356e-06	7.379256e-10	1.822226e+01	5.283971e+01
2.440000e-06	2.664119e-06	7.480042e-10	1.850541e+01	5.373605e+01
2.450000e-06	2.704694e-06	7.593698e-10	1.878724e+01	5.459867e+01
2.460000e-06	2.745033e-06	7.723579e-10	1.906745e+01	5.542835e+01
2.470000e-06	2.785140e-06	7.864513e-10	1.934604e+01	5.622596e+01
2.480000e-06	2.825130e-06	7.980564e-10	1.962381e+01	5.699241e+01
2.490000e-06	2.864959e-06	8.054984e-10	1.990047e+01	5.772864e+01
2.500000e-06	2.904621e-06	8.113079e-10	2.017597e+01	5.843563e+01
2.510000e-06	2.944130e-06	8.182170e-10	2.045041e+01	5.911439e+01
2.520000e-06	2.983510e-06	8.277859e-10	2.072395e+01	5.976594e+01
2.530000e-06	3.022762e-06	8.390615e-10	2.099660e+01	6.039130e+01
2.540000e-06	3.061761e-06	8.486060e-10	2.126749e+01	6.099150e+01
2.550000e-06	3.100467e-06	8.576637e-10	2.153635e+01	6.156755e+01
2.560000e-06	3.138925e-06	8.665210e-10	2.180349e+01	6.212047e+01
2.570000e-06	3.177142e-06	8.744891e-10	2.206895e+01	6.265124e+01
2.580000e-06	3.215146e-06	8.824832e-10	2.233293e+01	6.316080e+01
2.590000e-06	3.253021e-06	8.893853e-10	2.259601e+01	6.365009e+01
2.600000e-06	3.290734e-06	8.951746e-10	2.285797e+01	6.411999e+01
2.610000e-06	3.328169e-06	9.009911e-10	2.311800e+01	6.457135e+01
2.620000e-06	3.365412e-06	9.070197e-10	2.337670e+01	6.500498e+01
2.630000e-06	3.402458e-06	9.135126e-10	2.363403e+01	6.542164e+01
2.640000e-06	3.439258e-06	9.203900e-10	2.388965e+01	6.582203e+01
2.650000e-06	3.475818e-06	9.266483e-10	2.414360e+01	6.620683e+01
2.660000e-06	3.512074e-06	9.316142e-10	2.439544e+01	6.657664e+01
2.670000e-06	3.548122e-06	9.373329e-10	2.464583e+01	6.693204e+01
2.680000e-06	3.584054e-06	9.448380e-10	2.489542e+01	6.727355e+01
2.690000e-06	3.619826e-06	9.520995e-10	2.514390e+01	6.760163e+01
2.700000e-06	3.655478e-06	9.583111e-10	2.539155e+01	6.791672e+01
2.710000e-06	3.691000e-06	9.621599e-10	2.563829e+01	6.821920e+01
2.720000e-06	3.726286e-06	9.641807e-10	2.588339e+01	6.850941e+01
2.730000e-06	3.761238e-06	9.659836e-10	2.612617e+01	6.878766e+01
2.740000e-06	3.795766e-06	9.681011e-10	2.636601e+01	6.905423e+01
2.750000e-06	3.829859e-06	9.718912e-10	2.660282e+01	6.930936e+01
2.760000e-06	3.863532e-06	9.756648e-10	2.683672e+01	6.955325e+01
2.770000e-06	3.896653e-06	9.807607e-10	2.706678e+01	6.978612e+01
2.780000e-06	3.929251e-06	9.876143e-10	2.729322e+01	7.000812e+01
2.790000e-06	3.961591e-06	9.941640e-10	2.751786e+01	7.021943e+01
2.800000e-06	3.993677e-06	9.996934e-10	2.774073e+01	7.042018e+01
2.810000e-06	4.025557e-06	1.002804e-09	2.796217e+01	7.061052e+01
2.820000e-06	4.057269e-06	1.002055e-09	2.818245e+01	7.079059e+01
2.830000e-06	4.088793e-06	1.000805e-09	2.840142e+01	7.096053e+01
2.840000e-06	4.120141e-06	1.002442e-09	2.861917e+01	7.112046e+01
2.850000e-06	4.151180e-06	1.005178e-09	2.883478e+01	7.127054e+01
2.860000e-06	4.181938e-06	1.007685e-09	2.904842e+01	7.141092e+01
2.870000e-06	4.212439e-06	1.010305e-09	2.926029e+01	7.154177e+01
2.880000e-06	4.242645e-06	1.013385e-09	2.947011e+01	7.166326e+01
2.890000e-06	4.272640e-06	1.014922e-09	2.967846e+01	7.177558e+01
2.900000e-06	4.302384e-06	1.014608e-09	2.988506e+01	7.187895e+01
