# Temperatura_=_-5.3
# Concentracion g/m^3_=_1620.0
# C_Vs_to_Am_M_A/Vsm_=_65563218390.804596
# pendiente_HvsI_1/m_=_3716.3
# ordenada_HvsI_A/m_=_1297.0
# frecuencia_Hz_=_135100.23463075023

Tiempo_(s)	Campo_(V.s)	Magnetizacion_(V.s)	Campo_(kA/m)	Magnetizacion_(A/m)
0.000000e+00	-5.520761e-06	-1.315787e-09	-3.837280e+01	-8.558789e+01
1.000000e-08	-5.520906e-06	-1.311812e-09	-3.837381e+01	-8.558042e+01
2.000000e-08	-5.520817e-06	-1.308536e-09	-3.837319e+01	-8.557428e+01
3.000000e-08	-5.520354e-06	-1.305541e-09	-3.836997e+01	-8.556913e+01
4.000000e-08	-5.519430e-06	-1.305726e-09	-3.836355e+01	-8.556466e+01
5.000000e-08	-5.518082e-06	-1.308253e-09	-3.835418e+01	-8.556049e+01
6.000000e-08	-5.516111e-06	-1.315941e-09	-3.834048e+01	-8.555627e+01
7.000000e-08	-5.513479e-06	-1.320488e-09	-3.832218e+01	-8.555160e+01
8.000000e-08	-5.510303e-06	-1.269158e-09	-3.830011e+01	-8.554610e+01
9.000000e-08	-5.506654e-06	-1.244963e-09	-3.827475e+01	-8.553939e+01
1.000000e-07	-5.502713e-06	-1.382455e-09	-3.824735e+01	-8.553106e+01
1.100000e-07	-5.498382e-06	-1.431337e-09	-3.821725e+01	-8.552073e+01
1.200000e-07	-5.493678e-06	-1.258967e-09	-3.818455e+01	-8.550803e+01
1.300000e-07	-5.488823e-06	-1.164690e-09	-3.815081e+01	-8.549259e+01
1.400000e-07	-5.483675e-06	-1.275174e-09	-3.811503e+01	-8.547406e+01
1.500000e-07	-5.478024e-06	-1.423426e-09	-3.807575e+01	-8.545211e+01
1.600000e-07	-5.471940e-06	-1.267580e-09	-3.803346e+01	-8.542643e+01
1.700000e-07	-5.465629e-06	-1.199190e-09	-3.798959e+01	-8.539674e+01
1.800000e-07	-5.458889e-06	-1.313606e-09	-3.794275e+01	-8.536279e+01
1.900000e-07	-5.451634e-06	-1.420650e-09	-3.789232e+01	-8.532436e+01
2.000000e-07	-5.444133e-06	-1.279753e-09	-3.784019e+01	-8.528125e+01
2.100000e-07	-5.436412e-06	-1.175556e-09	-3.778652e+01	-8.523331e+01
2.200000e-07	-5.428397e-06	-1.242481e-09	-3.773081e+01	-8.518042e+01
2.300000e-07	-5.420057e-06	-1.330861e-09	-3.767284e+01	-8.512249e+01
2.400000e-07	-5.411353e-06	-1.295000e-09	-3.761234e+01	-8.505949e+01
2.500000e-07	-5.402113e-06	-1.231873e-09	-3.754812e+01	-8.499140e+01
2.600000e-07	-5.392055e-06	-1.259370e-09	-3.747821e+01	-8.491825e+01
2.700000e-07	-5.381310e-06	-1.274497e-09	-3.740352e+01	-8.484012e+01
2.800000e-07	-5.370234e-06	-1.263554e-09	-3.732653e+01	-8.475709e+01
2.900000e-07	-5.358803e-06	-1.214628e-09	-3.724708e+01	-8.466931e+01
3.000000e-07	-5.346820e-06	-1.239416e-09	-3.716380e+01	-8.457695e+01
3.100000e-07	-5.334471e-06	-1.267683e-09	-3.707797e+01	-8.448020e+01
3.200000e-07	-5.321876e-06	-1.296637e-09	-3.699042e+01	-8.437929e+01
3.300000e-07	-5.308754e-06	-1.222928e-09	-3.689921e+01	-8.427448e+01
3.400000e-07	-5.295204e-06	-1.237794e-09	-3.680503e+01	-8.416603e+01
3.500000e-07	-5.281404e-06	-1.280516e-09	-3.670911e+01	-8.405424e+01
3.600000e-07	-5.267114e-06	-1.263008e-09	-3.660979e+01	-8.393941e+01
3.700000e-07	-5.252258e-06	-1.184474e-09	-3.650653e+01	-8.382187e+01
3.800000e-07	-5.237033e-06	-1.265231e-09	-3.640071e+01	-8.370195e+01
3.900000e-07	-5.221413e-06	-1.286901e-09	-3.629214e+01	-8.357997e+01
4.000000e-07	-5.205209e-06	-1.196826e-09	-3.617951e+01	-8.345626e+01
4.100000e-07	-5.188442e-06	-1.217572e-09	-3.606297e+01	-8.333116e+01
4.200000e-07	-5.171445e-06	-1.329444e-09	-3.594483e+01	-8.320500e+01
4.300000e-07	-5.154167e-06	-1.222913e-09	-3.582473e+01	-8.307808e+01
4.400000e-07	-5.136435e-06	-1.146672e-09	-3.570149e+01	-8.295069e+01
4.500000e-07	-5.118420e-06	-1.291632e-09	-3.557627e+01	-8.282314e+01
4.600000e-07	-5.100050e-06	-1.296879e-09	-3.544859e+01	-8.269567e+01
4.700000e-07	-5.081152e-06	-1.139897e-09	-3.531724e+01	-8.256852e+01
4.800000e-07	-5.061872e-06	-1.211323e-09	-3.518322e+01	-8.244192e+01
4.900000e-07	-5.042374e-06	-1.315375e-09	-3.504770e+01	-8.231604e+01
5.000000e-07	-5.022661e-06	-1.186912e-09	-3.491068e+01	-8.219105e+01
5.100000e-07	-5.002690e-06	-1.178959e-09	-3.477187e+01	-8.206708e+01
5.200000e-07	-4.982495e-06	-1.299949e-09	-3.463151e+01	-8.194421e+01
5.300000e-07	-4.961975e-06	-1.214018e-09	-3.448888e+01	-8.182253e+01
5.400000e-07	-4.940984e-06	-1.131620e-09	-3.434298e+01	-8.170204e+01
5.500000e-07	-4.919647e-06	-1.274248e-09	-3.419467e+01	-8.158276e+01
5.600000e-07	-4.897959e-06	-1.264576e-09	-3.404393e+01	-8.146466e+01
5.700000e-07	-4.875904e-06	-1.138569e-09	-3.389063e+01	-8.134766e+01
5.800000e-07	-4.853607e-06	-1.205675e-09	-3.373566e+01	-8.123167e+01
5.900000e-07	-4.830953e-06	-1.278053e-09	-3.357819e+01	-8.111658e+01
6.000000e-07	-4.807980e-06	-1.171466e-09	-3.341851e+01	-8.100222e+01
6.100000e-07	-4.784750e-06	-1.181758e-09	-3.325705e+01	-8.088842e+01
6.200000e-07	-4.761161e-06	-1.251591e-09	-3.309309e+01	-8.077499e+01
6.300000e-07	-4.737322e-06	-1.192775e-09	-3.292740e+01	-8.066170e+01
6.400000e-07	-4.713309e-06	-1.152798e-09	-3.276049e+01	-8.054832e+01
6.500000e-07	-4.688931e-06	-1.219140e-09	-3.259105e+01	-8.043461e+01
6.600000e-07	-4.664072e-06	-1.195362e-09	-3.241826e+01	-8.032029e+01
6.700000e-07	-4.638745e-06	-1.162249e-09	-3.224223e+01	-8.020511e+01
6.800000e-07	-4.612879e-06	-1.198951e-09	-3.206244e+01	-8.008879e+01
6.900000e-07	-4.586494e-06	-1.203043e-09	-3.187904e+01	-7.997105e+01
7.000000e-07	-4.559631e-06	-1.160688e-09	-3.169233e+01	-7.985162e+01
7.100000e-07	-4.532364e-06	-1.181503e-09	-3.150281e+01	-7.973023e+01
7.200000e-07	-4.504843e-06	-1.191415e-09	-3.131152e+01	-7.960662e+01
7.300000e-07	-4.477135e-06	-1.163682e-09	-3.111893e+01	-7.948053e+01
7.400000e-07	-4.449270e-06	-1.164604e-09	-3.092525e+01	-7.935174e+01
7.500000e-07	-4.421173e-06	-1.180611e-09	-3.072996e+01	-7.922002e+01
7.600000e-07	-4.392776e-06	-1.163668e-09	-3.053259e+01	-7.908516e+01
7.700000e-07	-4.364124e-06	-1.156724e-09	-3.033344e+01	-7.894697e+01
7.800000e-07	-4.335219e-06	-1.163604e-09	-3.013253e+01	-7.880531e+01
7.900000e-07	-4.305982e-06	-1.148035e-09	-2.992931e+01	-7.866002e+01
8.000000e-07	-4.276308e-06	-1.140823e-09	-2.972306e+01	-7.851099e+01
8.100000e-07	-4.246330e-06	-1.152001e-09	-2.951469e+01	-7.835812e+01
8.200000e-07	-4.216133e-06	-1.143420e-09	-2.930480e+01	-7.820136e+01
8.300000e-07	-4.185651e-06	-1.118784e-09	-2.909294e+01	-7.804065e+01
8.400000e-07	-4.154855e-06	-1.124817e-09	-2.887888e+01	-7.787597e+01
8.500000e-07	-4.123831e-06	-1.128241e-09	-2.866324e+01	-7.770735e+01
8.600000e-07	-4.092561e-06	-1.115431e-09	-2.844590e+01	-7.753479e+01
8.700000e-07	-4.061053e-06	-1.110772e-09	-2.822690e+01	-7.735836e+01
8.800000e-07	-4.029341e-06	-1.120952e-09	-2.800648e+01	-7.717813e+01
8.900000e-07	-3.997396e-06	-1.106840e-09	-2.778444e+01	-7.699418e+01
9.000000e-07	-3.965256e-06	-1.101034e-09	-2.756105e+01	-7.680662e+01
9.100000e-07	-3.932906e-06	-1.108395e-09	-2.733620e+01	-7.661558e+01
9.200000e-07	-3.900234e-06	-1.103172e-09	-2.710910e+01	-7.642117e+01
9.300000e-07	-3.867046e-06	-1.084350e-09	-2.687843e+01	-7.622356e+01
9.400000e-07	-3.833348e-06	-1.092608e-09	-2.664420e+01	-7.602288e+01
9.500000e-07	-3.799210e-06	-1.094486e-09	-2.640693e+01	-7.581929e+01
9.600000e-07	-3.764666e-06	-1.081166e-09	-2.616682e+01	-7.561294e+01
9.700000e-07	-3.729743e-06	-1.076684e-09	-2.592408e+01	-7.540398e+01
9.800000e-07	-3.694531e-06	-1.083788e-09	-2.567934e+01	-7.519257e+01
9.900000e-07	-3.659123e-06	-1.070102e-09	-2.543323e+01	-7.497884e+01
1.000000e-06	-3.623542e-06	-1.059301e-09	-2.518592e+01	-7.476293e+01
1.010000e-06	-3.587808e-06	-1.064391e-09	-2.493754e+01	-7.454497e+01
1.020000e-06	-3.551924e-06	-1.063885e-09	-2.468813e+01	-7.432504e+01
1.030000e-06	-3.515891e-06	-1.054487e-09	-2.443767e+01	-7.410326e+01
1.040000e-06	-3.479656e-06	-1.057631e-09	-2.418582e+01	-7.387969e+01
1.050000e-06	-3.443211e-06	-1.058140e-09	-2.393251e+01	-7.365439e+01
1.060000e-06	-3.406469e-06	-1.044594e-09	-2.367712e+01	-7.342739e+01
1.070000e-06	-3.369379e-06	-1.039413e-09	-2.341932e+01	-7.319871e+01
1.080000e-06	-3.332042e-06	-1.042165e-09	-2.315981e+01	-7.296834e+01
1.090000e-06	-3.294420e-06	-1.035972e-09	-2.289831e+01	-7.273624e+01
1.100000e-06	-3.256582e-06	-1.029255e-09	-2.263531e+01	-7.250236e+01
1.110000e-06	-3.218587e-06	-1.031293e-09	-2.237123e+01	-7.226663e+01
1.120000e-06	-3.180375e-06	-1.024411e-09	-2.210562e+01	-7.202894e+01
1.130000e-06	-3.141992e-06	-1.012232e-09	-2.183884e+01	-7.178918e+01
1.140000e-06	-3.103420e-06	-1.008628e-09	-2.157074e+01	-7.154719e+01
1.150000e-06	-3.064594e-06	-1.011869e-09	-2.130088e+01	-7.130283e+01
1.160000e-06	-3.025554e-06	-1.004987e-09	-2.102952e+01	-7.105590e+01
1.170000e-06	-2.986357e-06	-1.001797e-09	-2.075708e+01	-7.080622e+01
1.180000e-06	-2.947043e-06	-1.004069e-09	-2.048382e+01	-7.055356e+01
1.190000e-06	-2.907536e-06	-1.005481e-09	-2.020922e+01	-7.029770e+01
1.200000e-06	-2.867806e-06	-1.002285e-09	-1.993307e+01	-7.003841e+01
1.210000e-06	-2.827933e-06	-1.002637e-09	-1.965593e+01	-6.977544e+01
1.220000e-06	-2.787983e-06	-9.970082e-10	-1.937825e+01	-6.950853e+01
1.230000e-06	-2.747895e-06	-9.903766e-10	-1.909962e+01	-6.923742e+01
1.240000e-06	-2.707592e-06	-9.871600e-10	-1.881949e+01	-6.896185e+01
1.250000e-06	-2.667158e-06	-9.851859e-10	-1.853845e+01	-6.868155e+01
1.260000e-06	-2.626537e-06	-9.792439e-10	-1.825610e+01	-6.839625e+01
1.270000e-06	-2.585599e-06	-9.740503e-10	-1.797155e+01	-6.810569e+01
1.280000e-06	-2.544330e-06	-9.702699e-10	-1.768471e+01	-6.780960e+01
1.290000e-06	-2.502768e-06	-9.664658e-10	-1.739583e+01	-6.750772e+01
1.300000e-06	-2.460905e-06	-9.602145e-10	-1.710485e+01	-6.719980e+01
1.310000e-06	-2.418727e-06	-9.555163e-10	-1.681169e+01	-6.688559e+01
1.320000e-06	-2.376192e-06	-9.498937e-10	-1.651605e+01	-6.656484e+01
1.330000e-06	-2.333403e-06	-9.410463e-10	-1.621863e+01	-6.623731e+01
1.340000e-06	-2.290427e-06	-9.307040e-10	-1.591992e+01	-6.590278e+01
1.350000e-06	-2.247270e-06	-9.262487e-10	-1.561995e+01	-6.556100e+01
1.360000e-06	-2.203968e-06	-9.259702e-10	-1.531898e+01	-6.521177e+01
1.370000e-06	-2.160532e-06	-9.263247e-10	-1.501707e+01	-6.485485e+01
1.380000e-06	-2.116959e-06	-9.248690e-10	-1.471421e+01	-6.449002e+01
1.390000e-06	-2.073252e-06	-9.182263e-10	-1.441042e+01	-6.411708e+01
1.400000e-06	-2.029494e-06	-9.082046e-10	-1.410628e+01	-6.373579e+01
1.410000e-06	-1.985660e-06	-8.973947e-10	-1.380160e+01	-6.334593e+01
1.420000e-06	-1.941706e-06	-8.867288e-10	-1.349609e+01	-6.294726e+01
1.430000e-06	-1.897665e-06	-8.757153e-10	-1.318998e+01	-6.253956e+01
1.440000e-06	-1.853516e-06	-8.685513e-10	-1.288311e+01	-6.212255e+01
1.450000e-06	-1.809345e-06	-8.644850e-10	-1.257610e+01	-6.169598e+01
1.460000e-06	-1.765128e-06	-8.594261e-10	-1.226876e+01	-6.125956e+01
1.470000e-06	-1.720669e-06	-8.500096e-10	-1.195974e+01	-6.081299e+01
1.480000e-06	-1.676034e-06	-8.414196e-10	-1.164950e+01	-6.035592e+01
1.490000e-06	-1.631326e-06	-8.311470e-10	-1.133875e+01	-5.988801e+01
1.500000e-06	-1.586452e-06	-8.171504e-10	-1.102685e+01	-5.940888e+01
1.510000e-06	-1.541468e-06	-8.027029e-10	-1.071419e+01	-5.891810e+01
1.520000e-06	-1.496377e-06	-7.944881e-10	-1.040077e+01	-5.841523e+01
1.530000e-06	-1.451149e-06	-7.886125e-10	-1.008641e+01	-5.789978e+01
1.540000e-06	-1.405882e-06	-7.822122e-10	-9.771775e+00	-5.737123e+01
1.550000e-06	-1.360515e-06	-7.722501e-10	-9.456441e+00	-5.682902e+01
1.560000e-06	-1.315036e-06	-7.624396e-10	-9.140338e+00	-5.627255e+01
1.570000e-06	-1.269395e-06	-7.525066e-10	-8.823099e+00	-5.570117e+01
1.580000e-06	-1.223700e-06	-7.433324e-10	-8.505493e+00	-5.511421e+01
1.590000e-06	-1.178009e-06	-7.319941e-10	-8.187913e+00	-5.451093e+01
1.600000e-06	-1.132131e-06	-7.212779e-10	-7.869032e+00	-5.389059e+01
1.610000e-06	-1.086157e-06	-7.118670e-10	-7.549482e+00	-5.325239e+01
1.620000e-06	-1.040161e-06	-7.042697e-10	-7.229783e+00	-5.259549e+01
1.630000e-06	-9.940920e-07	-7.000512e-10	-6.909571e+00	-5.191902e+01
1.640000e-06	-9.479550e-07	-6.941477e-10	-6.588890e+00	-5.122210e+01
1.650000e-06	-9.017640e-07	-6.824493e-10	-6.267833e+00	-5.050379e+01
1.660000e-06	-8.555235e-07	-6.665838e-10	-5.946432e+00	-4.976317e+01
1.670000e-06	-8.092002e-07	-6.491112e-10	-5.624455e+00	-4.899928e+01
1.680000e-06	-7.628329e-07	-6.324255e-10	-5.302173e+00	-4.821113e+01
1.690000e-06	-7.164279e-07	-6.208726e-10	-4.979629e+00	-4.739778e+01
1.700000e-06	-6.699427e-07	-6.113252e-10	-4.656527e+00	-4.655823e+01
1.710000e-06	-6.233496e-07	-6.033780e-10	-4.332676e+00	-4.569152e+01
1.720000e-06	-5.767442e-07	-5.952301e-10	-4.008739e+00	-4.479671e+01
1.730000e-06	-5.301186e-07	-5.815258e-10	-3.684661e+00	-4.387288e+01
1.740000e-06	-4.833590e-07	-5.614891e-10	-3.359652e+00	-4.291911e+01
1.750000e-06	-4.366488e-07	-5.404924e-10	-3.034987e+00	-4.193457e+01
1.760000e-06	-3.899477e-07	-5.215323e-10	-2.710384e+00	-4.091842e+01
1.770000e-06	-3.431988e-07	-5.054225e-10	-2.385450e+00	-3.986992e+01
1.780000e-06	-2.964664e-07	-4.922539e-10	-2.060630e+00	-3.878837e+01
1.790000e-06	-2.497077e-07	-4.823660e-10	-1.735627e+00	-3.767314e+01
1.800000e-06	-2.028978e-07	-4.718768e-10	-1.410269e+00	-3.652368e+01
1.810000e-06	-1.559930e-07	-4.585871e-10	-1.084250e+00	-3.533952e+01
1.820000e-06	-1.091192e-07	-4.421837e-10	-7.584478e-01	-3.412030e+01
1.830000e-06	-6.230944e-08	-4.229837e-10	-4.330902e-01	-3.286574e+01
1.840000e-06	-1.550836e-08	-4.032879e-10	-1.077930e-01	-3.157566e+01
1.850000e-06	3.129058e-08	-3.851083e-10	2.174894e-01	-3.025002e+01
1.860000e-06	7.816287e-08	-3.675332e-10	5.432816e-01	-2.888887e+01
1.870000e-06	1.249443e-07	-3.497461e-10	8.684425e-01	-2.749238e+01
1.880000e-06	1.717130e-07	-3.316760e-10	1.193514e+00	-2.606086e+01
1.890000e-06	2.185376e-07	-3.138385e-10	1.518975e+00	-2.459474e+01
1.900000e-06	2.652701e-07	-2.928646e-10	1.843795e+00	-2.309459e+01
1.910000e-06	3.120407e-07	-2.691950e-10	2.168881e+00	-2.156108e+01
1.920000e-06	3.588092e-07	-2.438814e-10	2.493952e+00	-1.999505e+01
1.930000e-06	4.054969e-07	-2.197384e-10	2.818461e+00	-1.839745e+01
1.940000e-06	4.521753e-07	-1.986164e-10	3.142906e+00	-1.676937e+01
1.950000e-06	4.988604e-07	-1.774656e-10	3.467397e+00	-1.511203e+01
1.960000e-06	5.454417e-07	-1.547873e-10	3.791166e+00	-1.342675e+01
1.970000e-06	5.919119e-07	-1.307319e-10	4.114164e+00	-1.171502e+01
1.980000e-06	6.383619e-07	-1.068050e-10	4.437021e+00	-9.978397e+00
1.990000e-06	6.847648e-07	-8.197003e-11	4.759550e+00	-8.218588e+00
2.000000e-06	7.311308e-07	-5.549026e-11	5.081824e+00	-6.437386e+00
2.010000e-06	7.774507e-07	-2.893769e-11	5.403776e+00	-4.636689e+00
2.020000e-06	8.237132e-07	-3.607137e-12	5.725330e+00	-2.818483e+00
2.030000e-06	8.699853e-07	2.104669e-11	6.046951e+00	-9.848398e-01
2.040000e-06	9.161757e-07	4.591746e-11	6.368003e+00	8.620988e-01
2.050000e-06	9.623129e-07	7.184285e-11	6.688686e+00	2.720126e+00
2.060000e-06	1.008402e-06	9.755832e-11	7.009034e+00	4.586980e+00
2.070000e-06	1.054348e-06	1.228992e-10	7.328387e+00	6.460358e+00
2.080000e-06	1.100205e-06	1.466997e-10	7.647126e+00	8.337923e+00
2.090000e-06	1.145993e-06	1.706031e-10	7.965376e+00	1.021732e+01
2.100000e-06	1.191719e-06	1.972172e-10	8.283202e+00	1.209617e+01
2.110000e-06	1.237401e-06	2.247615e-10	8.600720e+00	1.397212e+01
2.120000e-06	1.283057e-06	2.529577e-10	8.918064e+00	1.584281e+01
2.130000e-06	1.328613e-06	2.817354e-10	9.234705e+00	1.770591e+01
2.140000e-06	1.374005e-06	3.071553e-10	9.550205e+00	1.955911e+01
2.150000e-06	1.419324e-06	3.304516e-10	9.865201e+00	2.140017e+01
2.160000e-06	1.464481e-06	3.550965e-10	1.017907e+01	2.322689e+01
2.170000e-06	1.509526e-06	3.811713e-10	1.049217e+01	2.503713e+01
2.180000e-06	1.554556e-06	4.083492e-10	1.080515e+01	2.682883e+01
2.190000e-06	1.599439e-06	4.346732e-10	1.111712e+01	2.860001e+01
2.200000e-06	1.644176e-06	4.594917e-10	1.142807e+01	3.034880e+01
2.210000e-06	1.688791e-06	4.841173e-10	1.173817e+01	3.207339e+01
2.220000e-06	1.733234e-06	5.077857e-10	1.204708e+01	3.377212e+01
2.230000e-06	1.777486e-06	5.310490e-10	1.235466e+01	3.544340e+01
2.240000e-06	1.821697e-06	5.532017e-10	1.266195e+01	3.708579e+01
2.250000e-06	1.865830e-06	5.736651e-10	1.296870e+01	3.869794e+01
2.260000e-06	1.909790e-06	5.945238e-10	1.327425e+01	4.027865e+01
2.270000e-06	1.953651e-06	6.159555e-10	1.357912e+01	4.182683e+01
2.280000e-06	1.997471e-06	6.362683e-10	1.388369e+01	4.334153e+01
2.290000e-06	2.041275e-06	6.543497e-10	1.418816e+01	4.482192e+01
2.300000e-06	2.085038e-06	6.714473e-10	1.449234e+01	4.626731e+01
2.310000e-06	2.128723e-06	6.889664e-10	1.479598e+01	4.767711e+01
2.320000e-06	2.172290e-06	7.082259e-10	1.509880e+01	4.905090e+01
2.330000e-06	2.215736e-06	7.286984e-10	1.540077e+01	5.038835e+01
2.340000e-06	2.259105e-06	7.490693e-10	1.570221e+01	5.168926e+01
2.350000e-06	2.302290e-06	7.685538e-10	1.600238e+01	5.295356e+01
2.360000e-06	2.345179e-06	7.861515e-10	1.630049e+01	5.418127e+01
2.370000e-06	2.387850e-06	8.008905e-10	1.659707e+01	5.537253e+01
2.380000e-06	2.430229e-06	8.127853e-10	1.689163e+01	5.652759e+01
2.390000e-06	2.472308e-06	8.262017e-10	1.718411e+01	5.764677e+01
2.400000e-06	2.514081e-06	8.424729e-10	1.747446e+01	5.873051e+01
2.410000e-06	2.555455e-06	8.569809e-10	1.776203e+01	5.977931e+01
2.420000e-06	2.596586e-06	8.697767e-10	1.804792e+01	6.079375e+01
2.430000e-06	2.637423e-06	8.810244e-10	1.833176e+01	6.177449e+01
2.440000e-06	2.677927e-06	8.903102e-10	1.861330e+01	6.272222e+01
2.450000e-06	2.718274e-06	8.997907e-10	1.889373e+01	6.363772e+01
2.460000e-06	2.758466e-06	9.124988e-10	1.917309e+01	6.452178e+01
2.470000e-06	2.798465e-06	9.253944e-10	1.945111e+01	6.537526e+01
2.480000e-06	2.838304e-06	9.361871e-10	1.972801e+01	6.619903e+01
2.490000e-06	2.878048e-06	9.463701e-10	2.000426e+01	6.699398e+01
2.500000e-06	2.917711e-06	9.563214e-10	2.027995e+01	6.776102e+01
2.510000e-06	2.957277e-06	9.655198e-10	2.055495e+01	6.850109e+01
2.520000e-06	2.996725e-06	9.737917e-10	2.082914e+01	6.921511e+01
2.530000e-06	3.035967e-06	9.828512e-10	2.110190e+01	6.990399e+01
2.540000e-06	3.074884e-06	9.919581e-10	2.137239e+01	7.056867e+01
2.550000e-06	3.113536e-06	1.000859e-09	2.164105e+01	7.121003e+01
2.560000e-06	3.151964e-06	1.009116e-09	2.190815e+01	7.182897e+01
2.570000e-06	3.190202e-06	1.017357e-09	2.217393e+01	7.242636e+01
2.580000e-06	3.228188e-06	1.025448e-09	2.243796e+01	7.300302e+01
2.590000e-06	3.265894e-06	1.032400e-09	2.270004e+01	7.355977e+01
2.600000e-06	3.303457e-06	1.037831e-09	2.296112e+01	7.409740e+01
2.610000e-06	3.340859e-06	1.043288e-09	2.322109e+01	7.461666e+01
2.620000e-06	3.378068e-06	1.050453e-09	2.347972e+01	7.511825e+01
2.630000e-06	3.414970e-06	1.059129e-09	2.373621e+01	7.560287e+01
2.640000e-06	3.451494e-06	1.067960e-09	2.399008e+01	7.607116e+01
2.650000e-06	3.487787e-06	1.077521e-09	2.424233e+01	7.652372e+01
2.660000e-06	3.523931e-06	1.085753e-09	2.449356e+01	7.696114e+01
2.670000e-06	3.559869e-06	1.090546e-09	2.474335e+01	7.738397e+01
2.680000e-06	3.595640e-06	1.093861e-09	2.499198e+01	7.779270e+01
2.690000e-06	3.631328e-06	1.097475e-09	2.524003e+01	7.818783e+01
2.700000e-06	3.666871e-06	1.101795e-09	2.548709e+01	7.856979e+01
2.710000e-06	3.702202e-06	1.107968e-09	2.573265e+01	7.893901e+01
2.720000e-06	3.737162e-06	1.116003e-09	2.597565e+01	7.929588e+01
2.730000e-06	3.771821e-06	1.123525e-09	2.621655e+01	7.964078e+01
2.740000e-06	3.806280e-06	1.129628e-09	2.645606e+01	7.997405e+01
2.750000e-06	3.840341e-06	1.133999e-09	2.669281e+01	8.029602e+01
2.760000e-06	3.873852e-06	1.135954e-09	2.692573e+01	8.060701e+01
2.770000e-06	3.906820e-06	1.137994e-09	2.715488e+01	8.090731e+01
2.780000e-06	3.939353e-06	1.143142e-09	2.738100e+01	8.119720e+01
2.790000e-06	3.971569e-06	1.151945e-09	2.760493e+01	8.147697e+01
2.800000e-06	4.003549e-06	1.162061e-09	2.782721e+01	8.174688e+01
2.810000e-06	4.035333e-06	1.168928e-09	2.804813e+01	8.200719e+01
2.820000e-06	4.067027e-06	1.172428e-09	2.826842e+01	8.225815e+01
2.830000e-06	4.098515e-06	1.174375e-09	2.848728e+01	8.250001e+01
2.840000e-06	4.129739e-06	1.176369e-09	2.870431e+01	8.273301e+01
2.850000e-06	4.160765e-06	1.177179e-09	2.891996e+01	8.295741e+01
2.860000e-06	4.191499e-06	1.178065e-09	2.913358e+01	8.317345e+01
2.870000e-06	4.221898e-06	1.181082e-09	2.934487e+01	8.338138e+01
2.880000e-06	4.251914e-06	1.185459e-09	2.955350e+01	8.358143e+01
2.890000e-06	4.281615e-06	1.189995e-09	2.975994e+01	8.377386e+01
2.900000e-06	4.311073e-06	1.192836e-09	2.996470e+01	8.395890e+01
