# Temperatura_=_-7.2
# Concentracion g/m^3_=_1620.0
# C_Vs_to_Am_M_A/Vsm_=_65563218390.804596
# pendiente_HvsI_1/m_=_3716.3
# ordenada_HvsI_A/m_=_1297.0
# frecuencia_Hz_=_135103.24099354626

Tiempo_(s)	Campo_(V.s)	Magnetizacion_(V.s)	Campo_(kA/m)	Magnetizacion_(A/m)
0.000000e+00	-5.529258e-06	-1.263571e-09	-3.837448e+01	-8.195808e+01
1.000000e-08	-5.529436e-06	-1.257969e-09	-3.837572e+01	-8.187707e+01
2.000000e-08	-5.529330e-06	-1.253496e-09	-3.837498e+01	-8.179546e+01
3.000000e-08	-5.528775e-06	-1.252747e-09	-3.837113e+01	-8.171319e+01
4.000000e-08	-5.527694e-06	-1.253064e-09	-3.836363e+01	-8.163022e+01
5.000000e-08	-5.526143e-06	-1.248417e-09	-3.835286e+01	-8.154647e+01
6.000000e-08	-5.524151e-06	-1.233558e-09	-3.833903e+01	-8.146190e+01
7.000000e-08	-5.521528e-06	-1.226808e-09	-3.832083e+01	-8.137643e+01
8.000000e-08	-5.518315e-06	-1.274930e-09	-3.829853e+01	-8.129000e+01
9.000000e-08	-5.514668e-06	-1.324302e-09	-3.827322e+01	-8.120256e+01
1.000000e-07	-5.510544e-06	-1.287413e-09	-3.824460e+01	-8.111404e+01
1.100000e-07	-5.506103e-06	-1.226897e-09	-3.821377e+01	-8.102438e+01
1.200000e-07	-5.501473e-06	-1.189110e-09	-3.818164e+01	-8.093354e+01
1.300000e-07	-5.496579e-06	-1.223165e-09	-3.814768e+01	-8.084147e+01
1.400000e-07	-5.491279e-06	-1.260771e-09	-3.811090e+01	-8.074814e+01
1.500000e-07	-5.485570e-06	-1.243296e-09	-3.807127e+01	-8.065351e+01
1.600000e-07	-5.479493e-06	-1.244918e-09	-3.802910e+01	-8.055756e+01
1.700000e-07	-5.472996e-06	-1.217529e-09	-3.798400e+01	-8.046028e+01
1.800000e-07	-5.466059e-06	-1.246430e-09	-3.793586e+01	-8.036166e+01
1.900000e-07	-5.458764e-06	-1.216404e-09	-3.788523e+01	-8.026173e+01
2.000000e-07	-5.451193e-06	-1.214771e-09	-3.783269e+01	-8.016049e+01
2.100000e-07	-5.443382e-06	-1.206824e-09	-3.777848e+01	-8.005797e+01
2.200000e-07	-5.435364e-06	-1.241879e-09	-3.772283e+01	-7.995422e+01
2.300000e-07	-5.427060e-06	-1.233283e-09	-3.766520e+01	-7.984929e+01
2.400000e-07	-5.418294e-06	-1.204245e-09	-3.760436e+01	-7.974323e+01
2.500000e-07	-5.408812e-06	-1.178868e-09	-3.753855e+01	-7.963611e+01
2.600000e-07	-5.398658e-06	-1.197604e-09	-3.746808e+01	-7.952801e+01
2.700000e-07	-5.387924e-06	-1.221766e-09	-3.739358e+01	-7.941901e+01
2.800000e-07	-5.376634e-06	-1.208439e-09	-3.731523e+01	-7.930921e+01
2.900000e-07	-5.364963e-06	-1.199928e-09	-3.723423e+01	-7.919870e+01
3.000000e-07	-5.352960e-06	-1.199805e-09	-3.715093e+01	-7.908758e+01
3.100000e-07	-5.340544e-06	-1.216582e-09	-3.706475e+01	-7.897594e+01
3.200000e-07	-5.327744e-06	-1.186358e-09	-3.697592e+01	-7.886391e+01
3.300000e-07	-5.314595e-06	-1.194766e-09	-3.688466e+01	-7.875157e+01
3.400000e-07	-5.300964e-06	-1.195280e-09	-3.679006e+01	-7.863903e+01
3.500000e-07	-5.286901e-06	-1.211209e-09	-3.669246e+01	-7.852638e+01
3.600000e-07	-5.272443e-06	-1.202565e-09	-3.659212e+01	-7.841372e+01
3.700000e-07	-5.257530e-06	-1.212758e-09	-3.648862e+01	-7.830114e+01
3.800000e-07	-5.242084e-06	-1.183073e-09	-3.638142e+01	-7.818871e+01
3.900000e-07	-5.226041e-06	-1.184609e-09	-3.627007e+01	-7.807650e+01
4.000000e-07	-5.209564e-06	-1.191406e-09	-3.615572e+01	-7.796458e+01
4.100000e-07	-5.192838e-06	-1.195026e-09	-3.603964e+01	-7.785298e+01
4.200000e-07	-5.175788e-06	-1.172734e-09	-3.592130e+01	-7.774175e+01
4.300000e-07	-5.158376e-06	-1.189936e-09	-3.580046e+01	-7.763090e+01
4.400000e-07	-5.140626e-06	-1.187007e-09	-3.567727e+01	-7.752045e+01
4.500000e-07	-5.122448e-06	-1.171991e-09	-3.555111e+01	-7.741038e+01
4.600000e-07	-5.103824e-06	-1.168519e-09	-3.542186e+01	-7.730068e+01
4.700000e-07	-5.084800e-06	-1.177099e-09	-3.528983e+01	-7.719130e+01
4.800000e-07	-5.065428e-06	-1.157175e-09	-3.515538e+01	-7.708220e+01
4.900000e-07	-5.045827e-06	-1.161630e-09	-3.501934e+01	-7.697332e+01
5.000000e-07	-5.026070e-06	-1.174442e-09	-3.488222e+01	-7.686456e+01
5.100000e-07	-5.006068e-06	-1.157384e-09	-3.474341e+01	-7.675583e+01
5.200000e-07	-4.985696e-06	-1.146807e-09	-3.460202e+01	-7.664704e+01
5.300000e-07	-4.965009e-06	-1.167475e-09	-3.445845e+01	-7.653806e+01
5.400000e-07	-4.944037e-06	-1.160699e-09	-3.431290e+01	-7.642876e+01
5.500000e-07	-4.922630e-06	-1.139562e-09	-3.416432e+01	-7.631900e+01
5.600000e-07	-4.900819e-06	-1.152972e-09	-3.401295e+01	-7.620864e+01
5.700000e-07	-4.878695e-06	-1.151448e-09	-3.385940e+01	-7.609752e+01
5.800000e-07	-4.856230e-06	-1.133354e-09	-3.370349e+01	-7.598549e+01
5.900000e-07	-4.833435e-06	-1.139748e-09	-3.354529e+01	-7.587239e+01
6.000000e-07	-4.810273e-06	-1.149700e-09	-3.338454e+01	-7.575806e+01
6.100000e-07	-4.786791e-06	-1.126056e-09	-3.322157e+01	-7.564234e+01
6.200000e-07	-4.763143e-06	-1.127061e-09	-3.305745e+01	-7.552507e+01
6.300000e-07	-4.739373e-06	-1.136827e-09	-3.289248e+01	-7.540611e+01
6.400000e-07	-4.715290e-06	-1.129373e-09	-3.272533e+01	-7.528530e+01
6.500000e-07	-4.690818e-06	-1.119168e-09	-3.255549e+01	-7.516252e+01
6.600000e-07	-4.665959e-06	-1.134782e-09	-3.238296e+01	-7.503763e+01
6.700000e-07	-4.640460e-06	-1.126252e-09	-3.220599e+01	-7.491053e+01
6.800000e-07	-4.614309e-06	-1.118034e-09	-3.202450e+01	-7.478110e+01
6.900000e-07	-4.587646e-06	-1.117443e-09	-3.183945e+01	-7.464927e+01
7.000000e-07	-4.560532e-06	-1.120931e-09	-3.165127e+01	-7.451496e+01
7.100000e-07	-4.533125e-06	-1.109943e-09	-3.146106e+01	-7.437812e+01
7.200000e-07	-4.505529e-06	-1.115137e-09	-3.126953e+01	-7.423870e+01
7.300000e-07	-4.477741e-06	-1.114482e-09	-3.107668e+01	-7.409669e+01
7.400000e-07	-4.449817e-06	-1.109475e-09	-3.088288e+01	-7.395208e+01
7.500000e-07	-4.421783e-06	-1.101151e-09	-3.068832e+01	-7.380489e+01
7.600000e-07	-4.393518e-06	-1.099373e-09	-3.049215e+01	-7.365515e+01
7.700000e-07	-4.364904e-06	-1.092140e-09	-3.029356e+01	-7.350291e+01
7.800000e-07	-4.335876e-06	-1.088196e-09	-3.009210e+01	-7.334823e+01
7.900000e-07	-4.306479e-06	-1.088046e-09	-2.988808e+01	-7.319119e+01
8.000000e-07	-4.276825e-06	-1.089156e-09	-2.968227e+01	-7.303189e+01
8.100000e-07	-4.246863e-06	-1.082602e-09	-2.947433e+01	-7.287044e+01
8.200000e-07	-4.216501e-06	-1.077133e-09	-2.926360e+01	-7.270695e+01
8.300000e-07	-4.185793e-06	-1.073675e-09	-2.905049e+01	-7.254154e+01
8.400000e-07	-4.154831e-06	-1.070669e-09	-2.883560e+01	-7.237437e+01
8.500000e-07	-4.123686e-06	-1.072435e-09	-2.861945e+01	-7.220555e+01
8.600000e-07	-4.092317e-06	-1.071480e-09	-2.840173e+01	-7.203525e+01
8.700000e-07	-4.060737e-06	-1.065755e-09	-2.818256e+01	-7.186360e+01
8.800000e-07	-4.029027e-06	-1.057015e-09	-2.796249e+01	-7.169074e+01
8.900000e-07	-3.997112e-06	-1.055931e-09	-2.774099e+01	-7.151682e+01
9.000000e-07	-3.965006e-06	-1.051436e-09	-2.751817e+01	-7.134196e+01
9.100000e-07	-3.932630e-06	-1.049146e-09	-2.729347e+01	-7.116630e+01
9.200000e-07	-3.899796e-06	-1.048136e-09	-2.706559e+01	-7.098994e+01
9.300000e-07	-3.866566e-06	-1.050121e-09	-2.683497e+01	-7.081299e+01
9.400000e-07	-3.832992e-06	-1.044241e-09	-2.660195e+01	-7.063553e+01
9.500000e-07	-3.798951e-06	-1.041608e-09	-2.636570e+01	-7.045763e+01
9.600000e-07	-3.764314e-06	-1.037154e-09	-2.612531e+01	-7.027934e+01
9.700000e-07	-3.729170e-06	-1.032839e-09	-2.588141e+01	-7.010069e+01
9.800000e-07	-3.693759e-06	-1.025887e-09	-2.563564e+01	-6.992168e+01
9.900000e-07	-3.658189e-06	-1.022799e-09	-2.538878e+01	-6.974231e+01
1.000000e-06	-3.622469e-06	-1.014319e-09	-2.514087e+01	-6.956254e+01
1.010000e-06	-3.586595e-06	-1.010902e-09	-2.489189e+01	-6.938230e+01
1.020000e-06	-3.550616e-06	-1.009366e-09	-2.464219e+01	-6.920150e+01
1.030000e-06	-3.514535e-06	-1.009359e-09	-2.439178e+01	-6.902004e+01
1.040000e-06	-3.478196e-06	-1.005567e-09	-2.413958e+01	-6.883778e+01
1.050000e-06	-3.441526e-06	-1.003365e-09	-2.388508e+01	-6.865455e+01
1.060000e-06	-3.404591e-06	-9.999896e-10	-2.362874e+01	-6.847018e+01
1.070000e-06	-3.367439e-06	-9.943941e-10	-2.337090e+01	-6.828446e+01
1.080000e-06	-3.330055e-06	-9.890141e-10	-2.311144e+01	-6.809717e+01
1.090000e-06	-3.292426e-06	-9.853131e-10	-2.285029e+01	-6.790806e+01
1.100000e-06	-3.254583e-06	-9.817191e-10	-2.258765e+01	-6.771687e+01
1.110000e-06	-3.216460e-06	-9.800370e-10	-2.232306e+01	-6.752332e+01
1.120000e-06	-3.178049e-06	-9.800062e-10	-2.205648e+01	-6.732712e+01
1.130000e-06	-3.139491e-06	-9.752593e-10	-2.178888e+01	-6.712797e+01
1.140000e-06	-3.100804e-06	-9.684632e-10	-2.152038e+01	-6.692557e+01
1.150000e-06	-3.061849e-06	-9.625106e-10	-2.125002e+01	-6.671959e+01
1.160000e-06	-3.022619e-06	-9.559386e-10	-2.097776e+01	-6.650972e+01
1.170000e-06	-2.983264e-06	-9.499053e-10	-2.070462e+01	-6.629564e+01
1.180000e-06	-2.943800e-06	-9.492827e-10	-2.043073e+01	-6.607703e+01
1.190000e-06	-2.904178e-06	-9.496133e-10	-2.015575e+01	-6.585358e+01
1.200000e-06	-2.864409e-06	-9.478431e-10	-1.987974e+01	-6.562498e+01
1.210000e-06	-2.824529e-06	-9.422567e-10	-1.960296e+01	-6.539094e+01
1.220000e-06	-2.784507e-06	-9.366348e-10	-1.932520e+01	-6.515117e+01
1.230000e-06	-2.744342e-06	-9.281680e-10	-1.904644e+01	-6.490539e+01
1.240000e-06	-2.704031e-06	-9.223431e-10	-1.876668e+01	-6.465335e+01
1.250000e-06	-2.663449e-06	-9.179565e-10	-1.848503e+01	-6.439480e+01
1.260000e-06	-2.622524e-06	-9.173846e-10	-1.820100e+01	-6.412952e+01
1.270000e-06	-2.581290e-06	-9.152414e-10	-1.791482e+01	-6.385730e+01
1.280000e-06	-2.539847e-06	-9.090455e-10	-1.762720e+01	-6.357795e+01
1.290000e-06	-2.498139e-06	-9.007330e-10	-1.733773e+01	-6.329130e+01
1.300000e-06	-2.456116e-06	-8.924041e-10	-1.704608e+01	-6.299720e+01
1.310000e-06	-2.413838e-06	-8.841350e-10	-1.675266e+01	-6.269552e+01
1.320000e-06	-2.371296e-06	-8.784332e-10	-1.645741e+01	-6.238612e+01
1.330000e-06	-2.328497e-06	-8.729307e-10	-1.616037e+01	-6.206892e+01
1.340000e-06	-2.285415e-06	-8.693781e-10	-1.586137e+01	-6.174382e+01
1.350000e-06	-2.242082e-06	-8.678326e-10	-1.556063e+01	-6.141074e+01
1.360000e-06	-2.198535e-06	-8.666913e-10	-1.525840e+01	-6.106962e+01
1.370000e-06	-2.154893e-06	-8.602299e-10	-1.495552e+01	-6.072038e+01
1.380000e-06	-2.111206e-06	-8.511724e-10	-1.465232e+01	-6.036297e+01
1.390000e-06	-2.067427e-06	-8.399221e-10	-1.434848e+01	-5.999733e+01
1.400000e-06	-2.023587e-06	-8.310914e-10	-1.404422e+01	-5.962340e+01
1.410000e-06	-1.979696e-06	-8.255823e-10	-1.373960e+01	-5.924110e+01
1.420000e-06	-1.935753e-06	-8.209346e-10	-1.343463e+01	-5.885035e+01
1.430000e-06	-1.891698e-06	-8.175226e-10	-1.312887e+01	-5.845106e+01
1.440000e-06	-1.847515e-06	-8.121935e-10	-1.282223e+01	-5.804311e+01
1.450000e-06	-1.803263e-06	-8.039296e-10	-1.251511e+01	-5.762635e+01
1.460000e-06	-1.758846e-06	-7.929400e-10	-1.220685e+01	-5.720063e+01
1.470000e-06	-1.714276e-06	-7.829143e-10	-1.189752e+01	-5.676574e+01
1.480000e-06	-1.669599e-06	-7.730231e-10	-1.158745e+01	-5.632146e+01
1.490000e-06	-1.624754e-06	-7.644230e-10	-1.127621e+01	-5.586752e+01
1.500000e-06	-1.579766e-06	-7.557609e-10	-1.096398e+01	-5.540361e+01
1.510000e-06	-1.534649e-06	-7.471143e-10	-1.065086e+01	-5.492936e+01
1.520000e-06	-1.489457e-06	-7.396471e-10	-1.033721e+01	-5.444439e+01
1.530000e-06	-1.444179e-06	-7.322510e-10	-1.002298e+01	-5.394825e+01
1.540000e-06	-1.398854e-06	-7.223241e-10	-9.708408e+00	-5.344043e+01
1.550000e-06	-1.353478e-06	-7.111950e-10	-9.393484e+00	-5.292039e+01
1.560000e-06	-1.307979e-06	-7.007471e-10	-9.077711e+00	-5.238753e+01
1.570000e-06	-1.262366e-06	-6.921977e-10	-8.761147e+00	-5.184118e+01
1.580000e-06	-1.216636e-06	-6.837494e-10	-8.443765e+00	-5.128065e+01
1.590000e-06	-1.170767e-06	-6.758103e-10	-8.125425e+00	-5.070518e+01
1.600000e-06	-1.124812e-06	-6.659663e-10	-7.806485e+00	-5.011397e+01
1.610000e-06	-1.078755e-06	-6.579881e-10	-7.486838e+00	-4.950616e+01
1.620000e-06	-1.032610e-06	-6.510903e-10	-7.166582e+00	-4.888087e+01
1.630000e-06	-9.864632e-07	-6.451666e-10	-6.846309e+00	-4.823715e+01
1.640000e-06	-9.402695e-07	-6.383461e-10	-6.525713e+00	-4.757404e+01
1.650000e-06	-8.939492e-07	-6.278275e-10	-6.204239e+00	-4.689055e+01
1.660000e-06	-8.475501e-07	-6.149863e-10	-5.882217e+00	-4.618564e+01
1.670000e-06	-8.010626e-07	-6.008764e-10	-5.559581e+00	-4.545827e+01
1.680000e-06	-7.545376e-07	-5.870787e-10	-5.236686e+00	-4.470738e+01
1.690000e-06	-7.080416e-07	-5.744368e-10	-4.913991e+00	-4.393192e+01
1.700000e-06	-6.614542e-07	-5.620534e-10	-4.590663e+00	-4.313081e+01
1.710000e-06	-6.147841e-07	-5.523741e-10	-4.266761e+00	-4.230301e+01
1.720000e-06	-5.680681e-07	-5.440166e-10	-3.942539e+00	-4.144749e+01
1.730000e-06	-5.213546e-07	-5.305314e-10	-3.618336e+00	-4.056322e+01
1.740000e-06	-4.746046e-07	-5.122559e-10	-3.293878e+00	-3.964924e+01
1.750000e-06	-4.278089e-07	-4.931544e-10	-2.969104e+00	-3.870460e+01
1.760000e-06	-3.809498e-07	-4.735746e-10	-2.643890e+00	-3.772843e+01
1.770000e-06	-3.339912e-07	-4.574821e-10	-2.317985e+00	-3.671991e+01
1.780000e-06	-2.870742e-07	-4.457692e-10	-1.992369e+00	-3.567826e+01
1.790000e-06	-2.401915e-07	-4.347379e-10	-1.666991e+00	-3.460281e+01
1.800000e-06	-1.933038e-07	-4.210883e-10	-1.341578e+00	-3.349296e+01
1.810000e-06	-1.464419e-07	-4.032029e-10	-1.016345e+00	-3.234821e+01
1.820000e-06	-9.954163e-08	-3.847496e-10	-6.908446e-01	-3.116815e+01
1.830000e-06	-5.262772e-08	-3.658241e-10	-3.652500e-01	-2.995247e+01
1.840000e-06	-5.718321e-09	-3.488654e-10	-3.968662e-02	-2.870098e+01
1.850000e-06	4.128277e-08	-3.333112e-10	2.865131e-01	-2.741361e+01
1.860000e-06	8.832364e-08	-3.181098e-10	6.129889e-01	-2.609040e+01
1.870000e-06	1.352424e-07	-3.022212e-10	9.386170e-01	-2.473153e+01
1.880000e-06	1.820439e-07	-2.846028e-10	1.263432e+00	-2.333730e+01
1.890000e-06	2.289097e-07	-2.637738e-10	1.588693e+00	-2.190815e+01
1.900000e-06	2.757947e-07	-2.409691e-10	1.914087e+00	-2.044464e+01
1.910000e-06	3.225766e-07	-2.181124e-10	2.238765e+00	-1.894747e+01
1.920000e-06	3.693651e-07	-1.967353e-10	2.563489e+00	-1.741749e+01
1.930000e-06	4.162514e-07	-1.762319e-10	2.888892e+00	-1.585567e+01
1.940000e-06	4.630921e-07	-1.555239e-10	3.213979e+00	-1.426312e+01
1.950000e-06	5.097816e-07	-1.331297e-10	3.538016e+00	-1.264106e+01
1.960000e-06	5.564020e-07	-1.107071e-10	3.861574e+00	-1.099087e+01
1.970000e-06	6.030100e-07	-8.843802e-11	4.185045e+00	-9.314022e+00
1.980000e-06	6.495935e-07	-6.643061e-11	4.508346e+00	-7.612119e+00
1.990000e-06	6.961063e-07	-4.242754e-11	4.831158e+00	-5.886873e+00
2.000000e-06	7.425434e-07	-1.591555e-11	5.153443e+00	-4.140097e+00
2.010000e-06	7.889649e-07	1.014555e-11	5.475620e+00	-2.373703e+00
2.020000e-06	8.353519e-07	3.451293e-11	5.797558e+00	-5.896897e-01
2.030000e-06	8.817504e-07	5.708823e-11	6.119576e+00	1.209863e+00
2.040000e-06	9.281340e-07	7.833703e-11	6.441490e+00	3.022808e+00
2.050000e-06	9.744169e-07	1.000333e-10	6.762705e+00	4.846936e+00
2.060000e-06	1.020531e-06	1.248526e-10	7.082747e+00	6.679987e+00
2.070000e-06	1.066469e-06	1.523538e-10	7.401573e+00	8.519664e+00
2.080000e-06	1.112363e-06	1.794211e-10	7.720084e+00	1.036364e+01
2.090000e-06	1.158225e-06	2.066935e-10	8.038381e+00	1.220957e+01
2.100000e-06	1.204068e-06	2.343334e-10	8.356546e+00	1.405510e+01
2.110000e-06	1.249801e-06	2.588606e-10	8.673942e+00	1.589789e+01
2.120000e-06	1.295411e-06	2.827620e-10	8.990484e+00	1.773561e+01
2.130000e-06	1.340965e-06	3.074219e-10	9.306642e+00	1.956594e+01
2.140000e-06	1.386374e-06	3.309868e-10	9.621794e+00	2.138662e+01
2.150000e-06	1.431725e-06	3.535486e-10	9.936545e+00	2.319543e+01
2.160000e-06	1.477042e-06	3.771572e-10	1.025105e+01	2.499020e+01
2.170000e-06	1.522179e-06	4.013493e-10	1.056431e+01	2.676884e+01
2.180000e-06	1.567133e-06	4.262966e-10	1.087631e+01	2.852931e+01
2.190000e-06	1.612010e-06	4.518494e-10	1.118777e+01	3.026969e+01
2.200000e-06	1.656832e-06	4.777654e-10	1.149884e+01	3.198811e+01
2.210000e-06	1.701437e-06	5.017064e-10	1.180841e+01	3.368283e+01
2.220000e-06	1.745832e-06	5.244094e-10	1.211653e+01	3.535220e+01
2.230000e-06	1.790085e-06	5.453213e-10	1.242365e+01	3.699467e+01
2.240000e-06	1.834254e-06	5.636275e-10	1.273019e+01	3.860883e+01
2.250000e-06	1.878352e-06	5.809415e-10	1.303625e+01	4.019336e+01
2.260000e-06	1.922334e-06	6.000236e-10	1.334150e+01	4.174709e+01
2.270000e-06	1.966276e-06	6.213029e-10	1.364646e+01	4.326894e+01
2.280000e-06	2.010172e-06	6.442677e-10	1.395111e+01	4.475797e+01
2.290000e-06	2.053985e-06	6.658118e-10	1.425518e+01	4.621337e+01
2.300000e-06	2.097779e-06	6.842107e-10	1.455913e+01	4.763446e+01
2.310000e-06	2.141558e-06	7.010713e-10	1.486296e+01	4.902065e+01
2.320000e-06	2.185224e-06	7.169521e-10	1.516602e+01	5.037152e+01
2.330000e-06	2.228697e-06	7.335960e-10	1.546774e+01	5.168672e+01
2.340000e-06	2.271985e-06	7.516469e-10	1.576817e+01	5.296605e+01
2.350000e-06	2.314993e-06	7.703886e-10	1.606665e+01	5.420941e+01
2.360000e-06	2.357799e-06	7.881728e-10	1.636373e+01	5.541680e+01
2.370000e-06	2.400474e-06	8.047374e-10	1.665991e+01	5.658833e+01
2.380000e-06	2.442797e-06	8.186645e-10	1.695364e+01	5.772421e+01
2.390000e-06	2.484751e-06	8.323384e-10	1.724481e+01	5.882473e+01
2.400000e-06	2.526382e-06	8.477256e-10	1.753374e+01	5.989027e+01
2.410000e-06	2.567702e-06	8.634656e-10	1.782052e+01	6.092128e+01
2.420000e-06	2.608842e-06	8.780131e-10	1.810604e+01	6.191830e+01
2.430000e-06	2.649815e-06	8.909615e-10	1.839040e+01	6.288190e+01
2.440000e-06	2.690501e-06	9.026733e-10	1.867277e+01	6.381275e+01
2.450000e-06	2.730939e-06	9.131244e-10	1.895342e+01	6.471153e+01
2.460000e-06	2.771234e-06	9.232241e-10	1.923308e+01	6.557898e+01
2.470000e-06	2.811312e-06	9.332212e-10	1.951123e+01	6.641587e+01
2.480000e-06	2.851192e-06	9.429140e-10	1.978801e+01	6.722301e+01
2.490000e-06	2.890948e-06	9.549509e-10	2.006393e+01	6.800121e+01
2.500000e-06	2.930564e-06	9.663106e-10	2.033887e+01	6.875132e+01
2.510000e-06	2.970058e-06	9.778179e-10	2.061297e+01	6.947418e+01
2.520000e-06	3.009366e-06	9.882519e-10	2.088578e+01	7.017065e+01
2.530000e-06	3.048451e-06	9.957838e-10	2.115704e+01	7.084155e+01
2.540000e-06	3.087366e-06	1.001648e-09	2.142712e+01	7.148775e+01
2.550000e-06	3.126167e-06	1.006689e-09	2.169641e+01	7.211007e+01
2.560000e-06	3.164713e-06	1.014066e-09	2.196393e+01	7.270931e+01
2.570000e-06	3.203001e-06	1.024585e-09	2.222965e+01	7.328628e+01
2.580000e-06	3.241086e-06	1.037931e-09	2.249397e+01	7.384174e+01
2.590000e-06	3.278892e-06	1.051055e-09	2.275636e+01	7.437643e+01
2.600000e-06	3.316489e-06	1.062322e-09	2.301729e+01	7.489109e+01
2.610000e-06	3.353839e-06	1.068555e-09	2.327651e+01	7.538639e+01
2.620000e-06	3.390959e-06	1.070456e-09	2.353413e+01	7.586300e+01
2.630000e-06	3.427870e-06	1.072231e-09	2.379030e+01	7.632153e+01
2.640000e-06	3.464488e-06	1.078502e-09	2.404444e+01	7.676260e+01
2.650000e-06	3.500823e-06	1.087428e-09	2.429662e+01	7.718675e+01
2.660000e-06	3.536965e-06	1.096762e-09	2.454745e+01	7.759454e+01
2.670000e-06	3.572961e-06	1.105955e-09	2.479728e+01	7.798645e+01
2.680000e-06	3.608820e-06	1.113258e-09	2.504614e+01	7.836297e+01
2.690000e-06	3.644561e-06	1.117238e-09	2.529420e+01	7.872454e+01
2.700000e-06	3.680131e-06	1.118643e-09	2.554106e+01	7.907158e+01
2.710000e-06	3.715526e-06	1.120896e-09	2.578671e+01	7.940449e+01
2.720000e-06	3.750687e-06	1.125267e-09	2.603074e+01	7.972365e+01
2.730000e-06	3.785423e-06	1.130978e-09	2.627182e+01	8.002941e+01
2.740000e-06	3.819702e-06	1.138256e-09	2.650972e+01	8.032212e+01
2.750000e-06	3.853621e-06	1.144676e-09	2.674513e+01	8.060208e+01
2.760000e-06	3.887120e-06	1.149858e-09	2.697762e+01	8.086962e+01
2.770000e-06	3.920129e-06	1.152757e-09	2.720671e+01	8.112503e+01
2.780000e-06	3.952640e-06	1.154424e-09	2.743234e+01	8.136860e+01
2.790000e-06	3.984825e-06	1.157165e-09	2.765572e+01	8.160063e+01
2.800000e-06	4.016856e-06	1.159697e-09	2.787802e+01	8.182137e+01
2.810000e-06	4.048688e-06	1.161266e-09	2.809894e+01	8.203113e+01
2.820000e-06	4.080327e-06	1.162503e-09	2.831852e+01	8.223017e+01
2.830000e-06	4.111758e-06	1.165545e-09	2.853666e+01	8.241876e+01
2.840000e-06	4.142955e-06	1.170042e-09	2.875318e+01	8.259720e+01
2.850000e-06	4.173959e-06	1.173610e-09	2.896836e+01	8.276576e+01
2.860000e-06	4.204690e-06	1.174841e-09	2.918163e+01	8.292473e+01
2.870000e-06	4.235056e-06	1.177797e-09	2.939238e+01	8.307440e+01
2.880000e-06	4.265095e-06	1.181861e-09	2.960086e+01	8.321506e+01
2.890000e-06	4.294822e-06	1.184433e-09	2.980718e+01	8.334702e+01
2.900000e-06	4.324258e-06	1.184081e-09	3.001147e+01	8.347058e+01
