# Temperatura_=_15.4
# Concentracion g/m^3_=_1620.0
# C_Vs_to_Am_M_A/Vsm_=_65563218390.804596
# pendiente_HvsI_1/m_=_3716.3
# ordenada_HvsI_A/m_=_1297.0
# frecuencia_Hz_=_135096.42766725534

Tiempo_(s)	Campo_(V.s)	Magnetizacion_(V.s)	Campo_(kA/m)	Magnetizacion_(A/m)
0.000000e+00	-5.545188e-06	-1.516044e-09	-3.838454e+01	-1.005682e+02
1.000000e-08	-5.545358e-06	-1.515406e-09	-3.838572e+01	-1.005671e+02
2.000000e-08	-5.545294e-06	-1.516011e-09	-3.838527e+01	-1.005666e+02
3.000000e-08	-5.544931e-06	-1.517408e-09	-3.838276e+01	-1.005664e+02
4.000000e-08	-5.544104e-06	-1.517234e-09	-3.837704e+01	-1.005661e+02
5.000000e-08	-5.542785e-06	-1.511945e-09	-3.836791e+01	-1.005653e+02
6.000000e-08	-5.540870e-06	-1.497164e-09	-3.835465e+01	-1.005636e+02
7.000000e-08	-5.538368e-06	-1.481885e-09	-3.833734e+01	-1.005607e+02
8.000000e-08	-5.535377e-06	-1.497844e-09	-3.831663e+01	-1.005561e+02
9.000000e-08	-5.531796e-06	-1.563125e-09	-3.829184e+01	-1.005494e+02
1.000000e-07	-5.527732e-06	-1.591598e-09	-3.826371e+01	-1.005402e+02
1.100000e-07	-5.523396e-06	-1.535982e-09	-3.823369e+01	-1.005281e+02
1.200000e-07	-5.518925e-06	-1.420591e-09	-3.820274e+01	-1.005126e+02
1.300000e-07	-5.514246e-06	-1.441874e-09	-3.817036e+01	-1.004935e+02
1.400000e-07	-5.509143e-06	-1.520523e-09	-3.813504e+01	-1.004703e+02
1.500000e-07	-5.503600e-06	-1.531465e-09	-3.809666e+01	-1.004427e+02
1.600000e-07	-5.497641e-06	-1.454636e-09	-3.805541e+01	-1.004103e+02
1.700000e-07	-5.491286e-06	-1.459329e-09	-3.801143e+01	-1.003729e+02
1.800000e-07	-5.484554e-06	-1.540314e-09	-3.796483e+01	-1.003302e+02
1.900000e-07	-5.477439e-06	-1.547282e-09	-3.791558e+01	-1.002820e+02
2.000000e-07	-5.469999e-06	-1.467095e-09	-3.786408e+01	-1.002279e+02
2.100000e-07	-5.462237e-06	-1.448276e-09	-3.781034e+01	-1.001680e+02
2.200000e-07	-5.454212e-06	-1.520489e-09	-3.775479e+01	-1.001020e+02
2.300000e-07	-5.446017e-06	-1.545752e-09	-3.769806e+01	-1.000298e+02
2.400000e-07	-5.437536e-06	-1.501399e-09	-3.763936e+01	-9.995142e+01
2.500000e-07	-5.428430e-06	-1.463944e-09	-3.757633e+01	-9.986679e+01
2.600000e-07	-5.418507e-06	-1.500854e-09	-3.750764e+01	-9.977594e+01
2.700000e-07	-5.407939e-06	-1.510708e-09	-3.743449e+01	-9.967892e+01
2.800000e-07	-5.396811e-06	-1.492869e-09	-3.735745e+01	-9.957582e+01
2.900000e-07	-5.385193e-06	-1.482895e-09	-3.727703e+01	-9.946675e+01
3.000000e-07	-5.373209e-06	-1.519805e-09	-3.719408e+01	-9.935187e+01
3.100000e-07	-5.360901e-06	-1.508659e-09	-3.710888e+01	-9.923136e+01
3.200000e-07	-5.348187e-06	-1.480900e-09	-3.702088e+01	-9.910543e+01
3.300000e-07	-5.335004e-06	-1.466339e-09	-3.692962e+01	-9.897430e+01
3.400000e-07	-5.321464e-06	-1.502396e-09	-3.683590e+01	-9.883824e+01
3.500000e-07	-5.307562e-06	-1.498475e-09	-3.673966e+01	-9.869750e+01
3.600000e-07	-5.293198e-06	-1.489334e-09	-3.664023e+01	-9.855238e+01
3.700000e-07	-5.278339e-06	-1.489276e-09	-3.653737e+01	-9.840316e+01
3.800000e-07	-5.263025e-06	-1.506391e-09	-3.643137e+01	-9.825014e+01
3.900000e-07	-5.247169e-06	-1.480623e-09	-3.632161e+01	-9.809364e+01
4.000000e-07	-5.230689e-06	-1.462438e-09	-3.620754e+01	-9.793394e+01
4.100000e-07	-5.213727e-06	-1.478956e-09	-3.609013e+01	-9.777135e+01
4.200000e-07	-5.196553e-06	-1.481480e-09	-3.597124e+01	-9.760616e+01
4.300000e-07	-5.179177e-06	-1.455455e-09	-3.585096e+01	-9.743865e+01
4.400000e-07	-5.161490e-06	-1.463748e-09	-3.572853e+01	-9.726909e+01
4.500000e-07	-5.143474e-06	-1.496789e-09	-3.560382e+01	-9.709772e+01
4.600000e-07	-5.124951e-06	-1.467167e-09	-3.547560e+01	-9.692478e+01
4.700000e-07	-5.105935e-06	-1.433923e-09	-3.534398e+01	-9.675048e+01
4.800000e-07	-5.086571e-06	-1.450482e-09	-3.520993e+01	-9.657499e+01
4.900000e-07	-5.066940e-06	-1.461681e-09	-3.507405e+01	-9.639849e+01
5.000000e-07	-5.047094e-06	-1.429608e-09	-3.493667e+01	-9.622110e+01
5.100000e-07	-5.027040e-06	-1.439974e-09	-3.479785e+01	-9.604293e+01
5.200000e-07	-5.006789e-06	-1.449747e-09	-3.465767e+01	-9.586406e+01
5.300000e-07	-4.986285e-06	-1.430538e-09	-3.451574e+01	-9.568453e+01
5.400000e-07	-4.965404e-06	-1.430600e-09	-3.437120e+01	-9.550438e+01
5.500000e-07	-4.944179e-06	-1.456823e-09	-3.422428e+01	-9.532358e+01
5.600000e-07	-4.922546e-06	-1.422908e-09	-3.407453e+01	-9.514212e+01
5.700000e-07	-4.900516e-06	-1.400471e-09	-3.392204e+01	-9.495992e+01
5.800000e-07	-4.878161e-06	-1.424182e-09	-3.376729e+01	-9.477692e+01
5.900000e-07	-4.855351e-06	-1.426956e-09	-3.360940e+01	-9.459299e+01
6.000000e-07	-4.832167e-06	-1.395518e-09	-3.344891e+01	-9.440801e+01
6.100000e-07	-4.808733e-06	-1.405004e-09	-3.328670e+01	-9.422184e+01
6.200000e-07	-4.785032e-06	-1.407967e-09	-3.312264e+01	-9.403432e+01
6.300000e-07	-4.761117e-06	-1.387351e-09	-3.295710e+01	-9.384528e+01
6.400000e-07	-4.737003e-06	-1.388749e-09	-3.279017e+01	-9.365452e+01
6.500000e-07	-4.712577e-06	-1.403289e-09	-3.262110e+01	-9.346186e+01
6.600000e-07	-4.687807e-06	-1.388568e-09	-3.244963e+01	-9.326710e+01
6.700000e-07	-4.662576e-06	-1.387624e-09	-3.227498e+01	-9.307004e+01
6.800000e-07	-4.636654e-06	-1.395638e-09	-3.209555e+01	-9.287048e+01
6.900000e-07	-4.610094e-06	-1.379763e-09	-3.191170e+01	-9.266824e+01
7.000000e-07	-4.583153e-06	-1.369398e-09	-3.172520e+01	-9.246312e+01
7.100000e-07	-4.555871e-06	-1.379036e-09	-3.153635e+01	-9.225494e+01
7.200000e-07	-4.528238e-06	-1.371763e-09	-3.134507e+01	-9.204354e+01
7.300000e-07	-4.500428e-06	-1.362270e-09	-3.115257e+01	-9.182877e+01
7.400000e-07	-4.472430e-06	-1.374785e-09	-3.095877e+01	-9.161048e+01
7.500000e-07	-4.444240e-06	-1.371762e-09	-3.076363e+01	-9.138855e+01
7.600000e-07	-4.415848e-06	-1.355811e-09	-3.056710e+01	-9.116289e+01
7.700000e-07	-4.387098e-06	-1.352727e-09	-3.036809e+01	-9.093341e+01
7.800000e-07	-4.358033e-06	-1.351057e-09	-3.016690e+01	-9.070005e+01
7.900000e-07	-4.328652e-06	-1.336698e-09	-2.996352e+01	-9.046276e+01
8.000000e-07	-4.298910e-06	-1.340140e-09	-2.975764e+01	-9.022152e+01
8.100000e-07	-4.268927e-06	-1.342919e-09	-2.955009e+01	-8.997634e+01
8.200000e-07	-4.238716e-06	-1.327639e-09	-2.934096e+01	-8.972723e+01
8.300000e-07	-4.208171e-06	-1.313869e-09	-2.912953e+01	-8.947423e+01
8.400000e-07	-4.177254e-06	-1.318372e-09	-2.891552e+01	-8.921740e+01
8.500000e-07	-4.146047e-06	-1.310637e-09	-2.869950e+01	-8.895682e+01
8.600000e-07	-4.114567e-06	-1.301905e-09	-2.848159e+01	-8.869257e+01
8.700000e-07	-4.082860e-06	-1.301088e-09	-2.826211e+01	-8.842475e+01
8.800000e-07	-4.051030e-06	-1.297497e-09	-2.804178e+01	-8.815348e+01
8.900000e-07	-4.019050e-06	-1.283444e-09	-2.782041e+01	-8.787888e+01
9.000000e-07	-3.986936e-06	-1.281792e-09	-2.759811e+01	-8.760109e+01
9.100000e-07	-3.954561e-06	-1.281348e-09	-2.737401e+01	-8.732022e+01
9.200000e-07	-3.921829e-06	-1.273218e-09	-2.714743e+01	-8.703643e+01
9.300000e-07	-3.888677e-06	-1.269157e-09	-2.691795e+01	-8.674983e+01
9.400000e-07	-3.855079e-06	-1.271545e-09	-2.668538e+01	-8.646056e+01
9.500000e-07	-3.821069e-06	-1.261937e-09	-2.644996e+01	-8.616874e+01
9.600000e-07	-3.786533e-06	-1.250376e-09	-2.621089e+01	-8.587448e+01
9.700000e-07	-3.751543e-06	-1.247414e-09	-2.596869e+01	-8.557788e+01
9.800000e-07	-3.716251e-06	-1.242508e-09	-2.572439e+01	-8.527903e+01
9.900000e-07	-3.680698e-06	-1.233631e-09	-2.547829e+01	-8.497801e+01
1.000000e-06	-3.644908e-06	-1.230549e-09	-2.523055e+01	-8.467486e+01
1.010000e-06	-3.608942e-06	-1.228142e-09	-2.498158e+01	-8.436962e+01
1.020000e-06	-3.572856e-06	-1.221383e-09	-2.473179e+01	-8.406229e+01
1.030000e-06	-3.536659e-06	-1.218022e-09	-2.448123e+01	-8.375288e+01
1.040000e-06	-3.500339e-06	-1.216149e-09	-2.422982e+01	-8.344134e+01
1.050000e-06	-3.463846e-06	-1.209980e-09	-2.397721e+01	-8.312762e+01
1.060000e-06	-3.427067e-06	-1.202685e-09	-2.372262e+01	-8.281165e+01
1.070000e-06	-3.389941e-06	-1.201189e-09	-2.346563e+01	-8.249330e+01
1.080000e-06	-3.352568e-06	-1.195607e-09	-2.320693e+01	-8.217246e+01
1.090000e-06	-3.314921e-06	-1.188608e-09	-2.294633e+01	-8.184897e+01
1.100000e-06	-3.276979e-06	-1.184189e-09	-2.268370e+01	-8.152265e+01
1.110000e-06	-3.238854e-06	-1.178692e-09	-2.241978e+01	-8.119332e+01
1.120000e-06	-3.200472e-06	-1.166344e-09	-2.215410e+01	-8.086075e+01
1.130000e-06	-3.161857e-06	-1.158326e-09	-2.188680e+01	-8.052472e+01
1.140000e-06	-3.123015e-06	-1.152615e-09	-2.161793e+01	-8.018496e+01
1.150000e-06	-3.083892e-06	-1.147073e-09	-2.134712e+01	-7.984123e+01
1.160000e-06	-3.044664e-06	-1.142006e-09	-2.107558e+01	-7.949323e+01
1.170000e-06	-3.005339e-06	-1.138119e-09	-2.080336e+01	-7.914069e+01
1.180000e-06	-2.965824e-06	-1.130309e-09	-2.052984e+01	-7.878332e+01
1.190000e-06	-2.926138e-06	-1.124599e-09	-2.025512e+01	-7.842080e+01
1.200000e-06	-2.886306e-06	-1.120631e-09	-1.997940e+01	-7.805284e+01
1.210000e-06	-2.846360e-06	-1.115157e-09	-1.970289e+01	-7.767913e+01
1.220000e-06	-2.806334e-06	-1.107854e-09	-1.942582e+01	-7.729938e+01
1.230000e-06	-2.766079e-06	-1.103665e-09	-1.914717e+01	-7.691328e+01
1.240000e-06	-2.725611e-06	-1.100392e-09	-1.886705e+01	-7.652053e+01
1.250000e-06	-2.684913e-06	-1.095092e-09	-1.858533e+01	-7.612086e+01
1.260000e-06	-2.644059e-06	-1.089780e-09	-1.830253e+01	-7.571398e+01
1.270000e-06	-2.603048e-06	-1.083953e-09	-1.801865e+01	-7.529963e+01
1.280000e-06	-2.561638e-06	-1.075353e-09	-1.773201e+01	-7.487753e+01
1.290000e-06	-2.519878e-06	-1.064702e-09	-1.744294e+01	-7.444745e+01
1.300000e-06	-2.477845e-06	-1.055506e-09	-1.715198e+01	-7.400914e+01
1.310000e-06	-2.435586e-06	-1.049023e-09	-1.685946e+01	-7.356238e+01
1.320000e-06	-2.393016e-06	-1.043465e-09	-1.656478e+01	-7.310695e+01
1.330000e-06	-2.350101e-06	-1.037342e-09	-1.626772e+01	-7.264265e+01
1.340000e-06	-2.306902e-06	-1.029443e-09	-1.596869e+01	-7.216926e+01
1.350000e-06	-2.263490e-06	-1.021156e-09	-1.566818e+01	-7.168660e+01
1.360000e-06	-2.219952e-06	-1.015854e-09	-1.536681e+01	-7.119448e+01
1.370000e-06	-2.176313e-06	-1.010494e-09	-1.506474e+01	-7.069272e+01
1.380000e-06	-2.132498e-06	-1.002341e-09	-1.476144e+01	-7.018112e+01
1.390000e-06	-2.088532e-06	-9.919462e-10	-1.445710e+01	-6.965950e+01
1.400000e-06	-2.044505e-06	-9.827306e-10	-1.415234e+01	-6.912766e+01
1.410000e-06	-2.000444e-06	-9.729886e-10	-1.384734e+01	-6.858541e+01
1.420000e-06	-1.956356e-06	-9.619577e-10	-1.354216e+01	-6.803251e+01
1.430000e-06	-1.912199e-06	-9.511180e-10	-1.323650e+01	-6.746875e+01
1.440000e-06	-1.867971e-06	-9.427695e-10	-1.293035e+01	-6.689388e+01
1.450000e-06	-1.823611e-06	-9.339577e-10	-1.262329e+01	-6.630761e+01
1.460000e-06	-1.779067e-06	-9.252391e-10	-1.231495e+01	-6.570965e+01
1.470000e-06	-1.734392e-06	-9.147397e-10	-1.200570e+01	-6.509967e+01
1.480000e-06	-1.689629e-06	-9.013761e-10	-1.169584e+01	-6.447731e+01
1.490000e-06	-1.644761e-06	-8.855696e-10	-1.138526e+01	-6.384218e+01
1.500000e-06	-1.599694e-06	-8.695728e-10	-1.107330e+01	-6.319384e+01
1.510000e-06	-1.554491e-06	-8.558811e-10	-1.076040e+01	-6.253181e+01
1.520000e-06	-1.509225e-06	-8.456061e-10	-1.044706e+01	-6.185558e+01
1.530000e-06	-1.463838e-06	-8.345010e-10	-1.013289e+01	-6.116458e+01
1.540000e-06	-1.418272e-06	-8.208202e-10	-9.817470e+00	-6.045821e+01
1.550000e-06	-1.372607e-06	-8.058322e-10	-9.501372e+00	-5.973583e+01
1.560000e-06	-1.326901e-06	-7.914638e-10	-9.184990e+00	-5.899672e+01
1.570000e-06	-1.281097e-06	-7.781992e-10	-8.867924e+00	-5.824015e+01
1.580000e-06	-1.235240e-06	-7.660637e-10	-8.550496e+00	-5.746533e+01
1.590000e-06	-1.189329e-06	-7.525455e-10	-8.232695e+00	-5.667143e+01
1.600000e-06	-1.143304e-06	-7.386990e-10	-7.914106e+00	-5.585758e+01
1.610000e-06	-1.097154e-06	-7.262060e-10	-7.594649e+00	-5.502289e+01
1.620000e-06	-1.050943e-06	-7.172047e-10	-7.274770e+00	-5.416641e+01
1.630000e-06	-1.004734e-06	-7.094079e-10	-6.954904e+00	-5.328717e+01
1.640000e-06	-9.583895e-07	-6.985474e-10	-6.634102e+00	-5.238419e+01
1.650000e-06	-9.119110e-07	-6.859308e-10	-6.312371e+00	-5.145645e+01
1.660000e-06	-8.654759e-07	-6.714233e-10	-5.990942e+00	-5.050295e+01
1.670000e-06	-8.190560e-07	-6.543865e-10	-5.669617e+00	-4.952265e+01
1.680000e-06	-7.725442e-07	-6.358193e-10	-5.347656e+00	-4.851453e+01
1.690000e-06	-7.258818e-07	-6.180029e-10	-5.024652e+00	-4.747758e+01
1.700000e-06	-6.791042e-07	-6.006736e-10	-4.700851e+00	-4.641081e+01
1.710000e-06	-6.322355e-07	-5.861378e-10	-4.376420e+00	-4.531323e+01
1.720000e-06	-5.853895e-07	-5.728334e-10	-4.052145e+00	-4.418393e+01
1.730000e-06	-5.385635e-07	-5.582897e-10	-3.728010e+00	-4.302201e+01
1.740000e-06	-4.917038e-07	-5.392259e-10	-3.403640e+00	-4.182663e+01
1.750000e-06	-4.448405e-07	-5.183512e-10	-3.079246e+00	-4.059701e+01
1.760000e-06	-3.979565e-07	-4.980717e-10	-2.754709e+00	-3.933244e+01
1.770000e-06	-3.510075e-07	-4.786672e-10	-2.429722e+00	-3.803229e+01
1.780000e-06	-3.039396e-07	-4.602447e-10	-2.103911e+00	-3.669603e+01
1.790000e-06	-2.568799e-07	-4.414330e-10	-1.778157e+00	-3.532319e+01
1.800000e-06	-2.098362e-07	-4.232157e-10	-1.452514e+00	-3.391344e+01
1.810000e-06	-1.627590e-07	-4.040791e-10	-1.126640e+00	-3.246654e+01
1.820000e-06	-1.157251e-07	-3.827545e-10	-8.010651e-01	-3.098238e+01
1.830000e-06	-6.871796e-08	-3.613605e-10	-4.756750e-01	-2.946095e+01
1.840000e-06	-2.164850e-08	-3.388362e-10	-1.498539e-01	-2.790240e+01
1.850000e-06	2.540493e-08	-3.171664e-10	1.758564e-01	-2.630698e+01
1.860000e-06	7.244414e-08	-2.976864e-10	5.014682e-01	-2.467511e+01
1.870000e-06	1.195099e-07	-2.765171e-10	8.272636e-01	-2.300733e+01
1.880000e-06	1.665697e-07	-2.518312e-10	1.153018e+00	-2.130433e+01
1.890000e-06	2.135730e-07	-2.250152e-10	1.478381e+00	-1.956693e+01
1.900000e-06	2.604734e-07	-1.993502e-10	1.803032e+00	-1.779612e+01
1.910000e-06	3.073794e-07	-1.740812e-10	2.127722e+00	-1.599301e+01
1.920000e-06	3.542859e-07	-1.477614e-10	2.452415e+00	-1.415886e+01
1.930000e-06	4.012449e-07	-1.215767e-10	2.777472e+00	-1.229508e+01
1.940000e-06	4.482141e-07	-9.697301e-11	3.102599e+00	-1.040319e+01
1.950000e-06	4.950781e-07	-7.123836e-11	3.426997e+00	-8.484868e+00
1.960000e-06	5.418886e-07	-4.457926e-11	3.751026e+00	-6.541901e+00
1.970000e-06	5.886365e-07	-1.923481e-11	4.074622e+00	-4.576196e+00
1.980000e-06	6.352819e-07	6.189124e-12	4.397508e+00	-2.589775e+00
1.990000e-06	6.818867e-07	3.258922e-11	4.720112e+00	-5.847592e-01
2.000000e-06	7.284698e-07	6.240569e-11	5.042566e+00	1.436634e+00
2.010000e-06	7.749675e-07	9.375143e-11	5.364430e+00	3.472106e+00
2.020000e-06	8.214679e-07	1.234472e-10	5.686312e+00	5.519281e+00
2.030000e-06	8.679560e-07	1.525063e-10	6.008109e+00	7.575725e+00
2.040000e-06	9.142703e-07	1.805182e-10	6.328703e+00	9.638949e+00
2.050000e-06	9.605009e-07	2.089078e-10	6.648717e+00	1.170643e+01
2.060000e-06	1.006768e-06	2.382992e-10	6.968984e+00	1.377561e+01
2.070000e-06	1.052954e-06	2.682583e-10	7.288690e+00	1.584392e+01
2.080000e-06	1.099011e-06	2.981004e-10	7.607504e+00	1.790880e+01
2.090000e-06	1.145014e-06	3.267096e-10	7.925942e+00	1.996767e+01
2.100000e-06	1.191003e-06	3.555722e-10	8.244285e+00	2.201801e+01
2.110000e-06	1.236867e-06	3.852187e-10	8.561762e+00	2.405731e+01
2.120000e-06	1.282576e-06	4.147233e-10	8.878163e+00	2.608312e+01
2.130000e-06	1.328217e-06	4.434785e-10	9.194101e+00	2.809303e+01
2.140000e-06	1.373846e-06	4.696331e-10	9.509950e+00	3.008471e+01
2.150000e-06	1.419372e-06	4.938525e-10	9.825085e+00	3.205592e+01
2.160000e-06	1.464753e-06	5.187747e-10	1.013922e+01	3.400450e+01
2.170000e-06	1.510041e-06	5.459295e-10	1.045271e+01	3.592839e+01
2.180000e-06	1.555254e-06	5.743398e-10	1.076568e+01	3.782563e+01
2.190000e-06	1.600342e-06	6.021130e-10	1.107778e+01	3.969439e+01
2.200000e-06	1.645149e-06	6.286277e-10	1.138795e+01	4.153295e+01
2.210000e-06	1.689800e-06	6.549927e-10	1.169703e+01	4.333972e+01
2.220000e-06	1.734377e-06	6.797687e-10	1.200560e+01	4.511325e+01
2.230000e-06	1.778856e-06	7.012065e-10	1.231348e+01	4.685223e+01
2.240000e-06	1.823243e-06	7.210822e-10	1.262073e+01	4.855547e+01
2.250000e-06	1.867449e-06	7.402090e-10	1.292673e+01	5.022194e+01
2.260000e-06	1.911553e-06	7.587024e-10	1.323203e+01	5.185075e+01
2.270000e-06	1.955659e-06	7.771957e-10	1.353734e+01	5.344116e+01
2.280000e-06	1.999701e-06	7.980147e-10	1.384220e+01	5.499255e+01
2.290000e-06	2.043676e-06	8.204677e-10	1.414660e+01	5.650447e+01
2.300000e-06	2.087592e-06	8.426061e-10	1.445059e+01	5.797658e+01
2.310000e-06	2.131429e-06	8.631075e-10	1.475404e+01	5.940869e+01
2.320000e-06	2.175190e-06	8.804178e-10	1.505696e+01	6.080074e+01
2.330000e-06	2.218824e-06	8.952245e-10	1.535900e+01	6.215280e+01
2.340000e-06	2.262406e-06	9.114050e-10	1.566068e+01	6.346504e+01
2.350000e-06	2.305938e-06	9.298954e-10	1.596202e+01	6.473777e+01
2.360000e-06	2.349243e-06	9.493635e-10	1.626178e+01	6.597137e+01
2.370000e-06	2.392298e-06	9.685168e-10	1.655981e+01	6.716636e+01
2.380000e-06	2.434946e-06	9.855220e-10	1.685502e+01	6.832331e+01
2.390000e-06	2.477238e-06	1.000024e-09	1.714778e+01	6.944290e+01
2.400000e-06	2.519258e-06	1.013534e-09	1.743865e+01	7.052587e+01
2.410000e-06	2.560951e-06	1.026742e-09	1.772725e+01	7.157304e+01
2.420000e-06	2.602270e-06	1.039331e-09	1.801326e+01	7.258527e+01
2.430000e-06	2.643170e-06	1.050059e-09	1.829638e+01	7.356348e+01
2.440000e-06	2.683798e-06	1.060554e-09	1.857761e+01	7.450862e+01
2.450000e-06	2.724307e-06	1.072933e-09	1.885802e+01	7.542168e+01
2.460000e-06	2.764665e-06	1.085883e-09	1.913738e+01	7.630367e+01
2.470000e-06	2.804800e-06	1.098094e-09	1.941521e+01	7.715561e+01
2.480000e-06	2.844864e-06	1.107703e-09	1.969254e+01	7.797853e+01
2.490000e-06	2.884860e-06	1.115429e-09	1.996939e+01	7.877346e+01
2.500000e-06	2.924700e-06	1.125588e-09	2.024517e+01	7.954144e+01
2.510000e-06	2.964356e-06	1.137687e-09	2.051967e+01	8.028348e+01
2.520000e-06	3.003850e-06	1.149655e-09	2.079306e+01	8.100057e+01
2.530000e-06	3.043107e-06	1.159869e-09	2.106480e+01	8.169368e+01
2.540000e-06	3.082105e-06	1.168407e-09	2.133475e+01	8.236377e+01
2.550000e-06	3.120888e-06	1.176989e-09	2.160321e+01	8.301175e+01
2.560000e-06	3.159469e-06	1.183960e-09	2.187028e+01	8.363850e+01
2.570000e-06	3.197875e-06	1.190864e-09	2.213612e+01	8.424486e+01
2.580000e-06	3.236096e-06	1.198813e-09	2.240069e+01	8.483165e+01
2.590000e-06	3.274105e-06	1.207289e-09	2.266380e+01	8.539962e+01
2.600000e-06	3.311923e-06	1.216056e-09	2.292558e+01	8.594951e+01
2.610000e-06	3.349619e-06	1.224717e-09	2.318651e+01	8.648199e+01
2.620000e-06	3.387034e-06	1.233896e-09	2.344551e+01	8.699771e+01
2.630000e-06	3.424108e-06	1.243457e-09	2.370214e+01	8.749727e+01
2.640000e-06	3.460901e-06	1.252417e-09	2.395682e+01	8.798124e+01
2.650000e-06	3.497444e-06	1.258920e-09	2.420978e+01	8.845015e+01
2.660000e-06	3.533807e-06	1.262479e-09	2.446149e+01	8.890448e+01
2.670000e-06	3.569981e-06	1.267256e-09	2.471189e+01	8.934469e+01
2.680000e-06	3.606034e-06	1.273410e-09	2.496145e+01	8.977122e+01
2.690000e-06	3.641946e-06	1.279377e-09	2.521004e+01	9.018446e+01
2.700000e-06	3.677660e-06	1.285959e-09	2.545726e+01	9.058479e+01
2.710000e-06	3.713203e-06	1.292984e-09	2.570329e+01	9.097256e+01
2.720000e-06	3.748513e-06	1.298891e-09	2.594772e+01	9.134811e+01
2.730000e-06	3.783492e-06	1.304668e-09	2.618984e+01	9.171176e+01
2.740000e-06	3.818069e-06	1.312331e-09	2.642919e+01	9.206382e+01
2.750000e-06	3.852166e-06	1.317908e-09	2.666522e+01	9.240458e+01
2.760000e-06	3.885754e-06	1.319735e-09	2.689771e+01	9.273433e+01
2.770000e-06	3.918875e-06	1.321712e-09	2.712698e+01	9.305336e+01
2.780000e-06	3.951605e-06	1.324720e-09	2.735355e+01	9.336196e+01
2.790000e-06	3.984019e-06	1.329391e-09	2.757792e+01	9.366039e+01
2.800000e-06	4.016179e-06	1.337318e-09	2.780053e+01	9.394896e+01
2.810000e-06	4.048172e-06	1.344453e-09	2.802200e+01	9.422794e+01
2.820000e-06	4.080040e-06	1.348111e-09	2.824259e+01	9.449762e+01
2.830000e-06	4.111729e-06	1.351713e-09	2.846195e+01	9.475830e+01
2.840000e-06	4.143224e-06	1.355412e-09	2.867996e+01	9.501029e+01
2.850000e-06	4.174465e-06	1.356621e-09	2.889621e+01	9.525389e+01
2.860000e-06	4.205311e-06	1.356465e-09	2.910973e+01	9.548941e+01
2.870000e-06	4.235789e-06	1.359816e-09	2.932070e+01	9.571716e+01
2.880000e-06	4.266018e-06	1.366250e-09	2.952995e+01	9.593748e+01
2.890000e-06	4.295984e-06	1.372775e-09	2.973738e+01	9.615068e+01
2.900000e-06	4.325671e-06	1.377783e-09	2.994288e+01	9.635709e+01
