# Temperatura_=_-2.1
# Concentracion g/m^3_=_1620.0
# C_Vs_to_Am_M_A/Vsm_=_65563218390.804596
# pendiente_HvsI_1/m_=_3716.3
# ordenada_HvsI_A/m_=_1297.0
# frecuencia_Hz_=_135099.99265599495

Tiempo_(s)	Campo_(V.s)	Magnetizacion_(V.s)	Campo_(kA/m)	Magnetizacion_(A/m)
0.000000e+00	-5.530916e-06	-1.364758e-09	-3.836195e+01	-8.863111e+01
1.000000e-08	-5.531151e-06	-1.364650e-09	-3.836359e+01	-8.858461e+01
2.000000e-08	-5.531176e-06	-1.365398e-09	-3.836376e+01	-8.853949e+01
3.000000e-08	-5.530915e-06	-1.365480e-09	-3.836195e+01	-8.849564e+01
4.000000e-08	-5.530226e-06	-1.362352e-09	-3.835717e+01	-8.845295e+01
5.000000e-08	-5.528979e-06	-1.356324e-09	-3.834852e+01	-8.841129e+01
6.000000e-08	-5.527127e-06	-1.350399e-09	-3.833567e+01	-8.837051e+01
7.000000e-08	-5.524666e-06	-1.354597e-09	-3.831861e+01	-8.833044e+01
8.000000e-08	-5.521609e-06	-1.354445e-09	-3.829740e+01	-8.829091e+01
9.000000e-08	-5.518044e-06	-1.344814e-09	-3.827268e+01	-8.825172e+01
1.000000e-07	-5.514193e-06	-1.374481e-09	-3.824597e+01	-8.821266e+01
1.100000e-07	-5.510038e-06	-1.398995e-09	-3.821715e+01	-8.817353e+01
1.200000e-07	-5.505551e-06	-1.348883e-09	-3.818603e+01	-8.813410e+01
1.300000e-07	-5.500837e-06	-1.293529e-09	-3.815333e+01	-8.809416e+01
1.400000e-07	-5.495766e-06	-1.307527e-09	-3.811816e+01	-8.805348e+01
1.500000e-07	-5.490234e-06	-1.381802e-09	-3.807979e+01	-8.801183e+01
1.600000e-07	-5.484274e-06	-1.370736e-09	-3.803845e+01	-8.796900e+01
1.700000e-07	-5.477975e-06	-1.311463e-09	-3.799477e+01	-8.792476e+01
1.800000e-07	-5.471289e-06	-1.315951e-09	-3.794839e+01	-8.787891e+01
1.900000e-07	-5.464189e-06	-1.348161e-09	-3.789915e+01	-8.783126e+01
2.000000e-07	-5.456844e-06	-1.334242e-09	-3.784820e+01	-8.778160e+01
2.100000e-07	-5.449249e-06	-1.291030e-09	-3.779552e+01	-8.772976e+01
2.200000e-07	-5.441341e-06	-1.314509e-09	-3.774067e+01	-8.767559e+01
2.300000e-07	-5.433144e-06	-1.344173e-09	-3.768382e+01	-8.761893e+01
2.400000e-07	-5.424528e-06	-1.334808e-09	-3.762406e+01	-8.755965e+01
2.500000e-07	-5.415367e-06	-1.286599e-09	-3.756052e+01	-8.749764e+01
2.600000e-07	-5.405539e-06	-1.283866e-09	-3.749236e+01	-8.743280e+01
2.700000e-07	-5.395023e-06	-1.305284e-09	-3.741942e+01	-8.736507e+01
2.800000e-07	-5.383989e-06	-1.327175e-09	-3.734288e+01	-8.729438e+01
2.900000e-07	-5.372588e-06	-1.312210e-09	-3.726381e+01	-8.722069e+01
3.000000e-07	-5.360818e-06	-1.300822e-09	-3.718217e+01	-8.714400e+01
3.100000e-07	-5.348530e-06	-1.311715e-09	-3.709695e+01	-8.706429e+01
3.200000e-07	-5.335785e-06	-1.322578e-09	-3.700855e+01	-8.698160e+01
3.300000e-07	-5.322674e-06	-1.302367e-09	-3.691761e+01	-8.689596e+01
3.400000e-07	-5.309198e-06	-1.289077e-09	-3.682414e+01	-8.680741e+01
3.500000e-07	-5.295357e-06	-1.322019e-09	-3.672814e+01	-8.671604e+01
3.600000e-07	-5.281151e-06	-1.329110e-09	-3.662961e+01	-8.662192e+01
3.700000e-07	-5.266576e-06	-1.303578e-09	-3.652852e+01	-8.652514e+01
3.800000e-07	-5.251517e-06	-1.303123e-09	-3.642407e+01	-8.642582e+01
3.900000e-07	-5.235805e-06	-1.319433e-09	-3.631509e+01	-8.632406e+01
4.000000e-07	-5.219507e-06	-1.284615e-09	-3.620205e+01	-8.621999e+01
4.100000e-07	-5.202883e-06	-1.277865e-09	-3.608675e+01	-8.611374e+01
4.200000e-07	-5.185957e-06	-1.321824e-09	-3.596935e+01	-8.600543e+01
4.300000e-07	-5.168642e-06	-1.314738e-09	-3.584925e+01	-8.589520e+01
4.400000e-07	-5.151031e-06	-1.265131e-09	-3.572711e+01	-8.578318e+01
4.500000e-07	-5.133144e-06	-1.298874e-09	-3.560305e+01	-8.566949e+01
4.600000e-07	-5.114892e-06	-1.322084e-09	-3.547645e+01	-8.555426e+01
4.700000e-07	-5.096219e-06	-1.267644e-09	-3.534693e+01	-8.543762e+01
4.800000e-07	-5.077129e-06	-1.258056e-09	-3.521453e+01	-8.531966e+01
4.900000e-07	-5.057717e-06	-1.310657e-09	-3.507989e+01	-8.520050e+01
5.000000e-07	-5.038047e-06	-1.282243e-09	-3.494346e+01	-8.508023e+01
5.100000e-07	-5.018172e-06	-1.250434e-09	-3.480561e+01	-8.495891e+01
5.200000e-07	-4.998086e-06	-1.292047e-09	-3.466630e+01	-8.483663e+01
5.300000e-07	-4.977607e-06	-1.292487e-09	-3.452426e+01	-8.471344e+01
5.400000e-07	-4.956677e-06	-1.239522e-09	-3.437908e+01	-8.458937e+01
5.500000e-07	-4.935433e-06	-1.262821e-09	-3.423174e+01	-8.446446e+01
5.600000e-07	-4.913885e-06	-1.289340e-09	-3.408228e+01	-8.433870e+01
5.700000e-07	-4.892044e-06	-1.246802e-09	-3.393080e+01	-8.421209e+01
5.800000e-07	-4.869875e-06	-1.241838e-09	-3.377703e+01	-8.408463e+01
5.900000e-07	-4.847309e-06	-1.278803e-09	-3.362051e+01	-8.395626e+01
6.000000e-07	-4.824413e-06	-1.256844e-09	-3.346171e+01	-8.382694e+01
6.100000e-07	-4.801197e-06	-1.231792e-09	-3.330069e+01	-8.369661e+01
6.200000e-07	-4.777645e-06	-1.257306e-09	-3.313734e+01	-8.356519e+01
6.300000e-07	-4.753877e-06	-1.255827e-09	-3.297248e+01	-8.343261e+01
6.400000e-07	-4.729995e-06	-1.231053e-09	-3.280684e+01	-8.329875e+01
6.500000e-07	-4.705740e-06	-1.242228e-09	-3.263861e+01	-8.316352e+01
6.600000e-07	-4.681053e-06	-1.250516e-09	-3.246738e+01	-8.302679e+01
6.700000e-07	-4.655969e-06	-1.229715e-09	-3.229340e+01	-8.288846e+01
6.800000e-07	-4.630284e-06	-1.230384e-09	-3.211525e+01	-8.274840e+01
6.900000e-07	-4.604011e-06	-1.239574e-09	-3.193302e+01	-8.260648e+01
7.000000e-07	-4.577239e-06	-1.230069e-09	-3.174734e+01	-8.246256e+01
7.100000e-07	-4.550076e-06	-1.221553e-09	-3.155894e+01	-8.231653e+01
7.200000e-07	-4.522676e-06	-1.232275e-09	-3.136889e+01	-8.216824e+01
7.300000e-07	-4.495064e-06	-1.229084e-09	-3.117738e+01	-8.201759e+01
7.400000e-07	-4.467251e-06	-1.219821e-09	-3.098447e+01	-8.186444e+01
7.500000e-07	-4.439224e-06	-1.214820e-09	-3.079008e+01	-8.170869e+01
7.600000e-07	-4.410871e-06	-1.210695e-09	-3.059342e+01	-8.155022e+01
7.700000e-07	-4.382212e-06	-1.201305e-09	-3.039465e+01	-8.138893e+01
7.800000e-07	-4.353248e-06	-1.201062e-09	-3.019375e+01	-8.122475e+01
7.900000e-07	-4.323977e-06	-1.202968e-09	-2.999073e+01	-8.105758e+01
8.000000e-07	-4.294468e-06	-1.199254e-09	-2.978606e+01	-8.088736e+01
8.100000e-07	-4.264657e-06	-1.196463e-09	-2.957930e+01	-8.071403e+01
8.200000e-07	-4.234499e-06	-1.195817e-09	-2.937012e+01	-8.053755e+01
8.300000e-07	-4.203957e-06	-1.184179e-09	-2.915828e+01	-8.035788e+01
8.400000e-07	-4.173101e-06	-1.176602e-09	-2.894427e+01	-8.017500e+01
8.500000e-07	-4.141961e-06	-1.178183e-09	-2.872828e+01	-7.998891e+01
8.600000e-07	-4.110608e-06	-1.176062e-09	-2.851083e+01	-7.979959e+01
8.700000e-07	-4.079138e-06	-1.168487e-09	-2.829255e+01	-7.960707e+01
8.800000e-07	-4.047479e-06	-1.166008e-09	-2.807297e+01	-7.941138e+01
8.900000e-07	-4.015613e-06	-1.164694e-09	-2.785195e+01	-7.921253e+01
9.000000e-07	-3.983544e-06	-1.158454e-09	-2.762952e+01	-7.901057e+01
9.100000e-07	-3.951272e-06	-1.157333e-09	-2.740568e+01	-7.880555e+01
9.200000e-07	-3.918582e-06	-1.155182e-09	-2.717895e+01	-7.859753e+01
9.300000e-07	-3.885455e-06	-1.145192e-09	-2.694918e+01	-7.838657e+01
9.400000e-07	-3.851948e-06	-1.138784e-09	-2.671678e+01	-7.817272e+01
9.500000e-07	-3.817985e-06	-1.140039e-09	-2.648122e+01	-7.795605e+01
9.600000e-07	-3.783598e-06	-1.134752e-09	-2.624271e+01	-7.773664e+01
9.700000e-07	-3.748780e-06	-1.128797e-09	-2.600122e+01	-7.751454e+01
9.800000e-07	-3.713617e-06	-1.128354e-09	-2.575733e+01	-7.728982e+01
9.900000e-07	-3.678232e-06	-1.126331e-09	-2.551190e+01	-7.706255e+01
1.000000e-06	-3.642661e-06	-1.115196e-09	-2.526518e+01	-7.683276e+01
1.010000e-06	-3.607010e-06	-1.107267e-09	-2.501791e+01	-7.660053e+01
1.020000e-06	-3.571231e-06	-1.103493e-09	-2.476975e+01	-7.636588e+01
1.030000e-06	-3.535217e-06	-1.098576e-09	-2.451996e+01	-7.612885e+01
1.040000e-06	-3.499010e-06	-1.097300e-09	-2.426883e+01	-7.588947e+01
1.050000e-06	-3.462632e-06	-1.100283e-09	-2.401652e+01	-7.564775e+01
1.060000e-06	-3.425904e-06	-1.094621e-09	-2.376178e+01	-7.540369e+01
1.070000e-06	-3.388788e-06	-1.088451e-09	-2.350434e+01	-7.515729e+01
1.080000e-06	-3.351501e-06	-1.084325e-09	-2.324572e+01	-7.490852e+01
1.090000e-06	-3.314004e-06	-1.076203e-09	-2.298565e+01	-7.465735e+01
1.100000e-06	-3.276191e-06	-1.066072e-09	-2.272338e+01	-7.440374e+01
1.110000e-06	-3.238171e-06	-1.065571e-09	-2.245967e+01	-7.414762e+01
1.120000e-06	-3.199985e-06	-1.066782e-09	-2.219482e+01	-7.388892e+01
1.130000e-06	-3.161454e-06	-1.062017e-09	-2.192757e+01	-7.362756e+01
1.140000e-06	-3.122673e-06	-1.057464e-09	-2.165859e+01	-7.336345e+01
1.150000e-06	-3.083756e-06	-1.055913e-09	-2.138867e+01	-7.309647e+01
1.160000e-06	-3.044614e-06	-1.050854e-09	-2.111718e+01	-7.282651e+01
1.170000e-06	-3.005301e-06	-1.041947e-09	-2.084451e+01	-7.255343e+01
1.180000e-06	-2.965856e-06	-1.035163e-09	-2.057092e+01	-7.227710e+01
1.190000e-06	-2.926291e-06	-1.031555e-09	-2.029651e+01	-7.199738e+01
1.200000e-06	-2.886624e-06	-1.029160e-09	-2.002138e+01	-7.171410e+01
1.210000e-06	-2.846878e-06	-1.025839e-09	-1.974570e+01	-7.142709e+01
1.220000e-06	-2.806980e-06	-1.020687e-09	-1.946897e+01	-7.113620e+01
1.230000e-06	-2.766847e-06	-1.015520e-09	-1.919061e+01	-7.084125e+01
1.240000e-06	-2.726436e-06	-1.014645e-09	-1.891032e+01	-7.054205e+01
1.250000e-06	-2.685792e-06	-1.013326e-09	-1.862843e+01	-7.023842e+01
1.260000e-06	-2.644976e-06	-1.008637e-09	-1.834533e+01	-6.993017e+01
1.270000e-06	-2.603871e-06	-1.001345e-09	-1.806023e+01	-6.961711e+01
1.280000e-06	-2.562531e-06	-9.947989e-10	-1.777350e+01	-6.929904e+01
1.290000e-06	-2.521067e-06	-9.875062e-10	-1.748591e+01	-6.897576e+01
1.300000e-06	-2.479274e-06	-9.798387e-10	-1.719603e+01	-6.864708e+01
1.310000e-06	-2.437100e-06	-9.744820e-10	-1.690352e+01	-6.831278e+01
1.320000e-06	-2.394609e-06	-9.738263e-10	-1.660880e+01	-6.797267e+01
1.330000e-06	-2.351759e-06	-9.716065e-10	-1.631160e+01	-6.762652e+01
1.340000e-06	-2.308704e-06	-9.640912e-10	-1.601297e+01	-6.727411e+01
1.350000e-06	-2.265489e-06	-9.563992e-10	-1.571324e+01	-6.691524e+01
1.360000e-06	-2.222096e-06	-9.520467e-10	-1.541226e+01	-6.654966e+01
1.370000e-06	-2.178555e-06	-9.462138e-10	-1.511027e+01	-6.617713e+01
1.380000e-06	-2.134843e-06	-9.389928e-10	-1.480708e+01	-6.579742e+01
1.390000e-06	-2.091077e-06	-9.320916e-10	-1.450353e+01	-6.541026e+01
1.400000e-06	-2.047274e-06	-9.257859e-10	-1.419972e+01	-6.501538e+01
1.410000e-06	-2.003387e-06	-9.183675e-10	-1.389532e+01	-6.461249e+01
1.420000e-06	-1.959400e-06	-9.100633e-10	-1.359023e+01	-6.420130e+01
1.430000e-06	-1.915308e-06	-9.012207e-10	-1.328441e+01	-6.378147e+01
1.440000e-06	-1.871176e-06	-8.942772e-10	-1.297831e+01	-6.335268e+01
1.450000e-06	-1.826969e-06	-8.881744e-10	-1.267170e+01	-6.291454e+01
1.460000e-06	-1.782592e-06	-8.807422e-10	-1.236391e+01	-6.246668e+01
1.470000e-06	-1.738118e-06	-8.705617e-10	-1.205544e+01	-6.200868e+01
1.480000e-06	-1.693532e-06	-8.602794e-10	-1.174619e+01	-6.154010e+01
1.490000e-06	-1.648697e-06	-8.505690e-10	-1.143522e+01	-6.106045e+01
1.500000e-06	-1.603708e-06	-8.382574e-10	-1.112318e+01	-6.056924e+01
1.510000e-06	-1.558610e-06	-8.264601e-10	-1.081039e+01	-6.006592e+01
1.520000e-06	-1.513409e-06	-8.174480e-10	-1.049687e+01	-5.954992e+01
1.530000e-06	-1.468072e-06	-8.094005e-10	-1.018242e+01	-5.902063e+01
1.540000e-06	-1.422621e-06	-8.022553e-10	-9.867176e+00	-5.847741e+01
1.550000e-06	-1.377132e-06	-7.946433e-10	-9.551668e+00	-5.791958e+01
1.560000e-06	-1.331547e-06	-7.838651e-10	-9.235496e+00	-5.734641e+01
1.570000e-06	-1.285894e-06	-7.738435e-10	-8.918853e+00	-5.675716e+01
1.580000e-06	-1.240180e-06	-7.653514e-10	-8.601781e+00	-5.615104e+01
1.590000e-06	-1.194380e-06	-7.539863e-10	-8.284117e+00	-5.552723e+01
1.600000e-06	-1.148513e-06	-7.404263e-10	-7.965989e+00	-5.488489e+01
1.610000e-06	-1.102490e-06	-7.305254e-10	-7.646774e+00	-5.422312e+01
1.620000e-06	-1.056387e-06	-7.229462e-10	-7.327007e+00	-5.354104e+01
1.630000e-06	-1.010220e-06	-7.171363e-10	-7.006798e+00	-5.283770e+01
1.640000e-06	-9.638595e-07	-7.119054e-10	-6.685246e+00	-5.211216e+01
1.650000e-06	-9.175087e-07	-7.032655e-10	-6.363761e+00	-5.136346e+01
1.660000e-06	-8.712838e-07	-6.889593e-10	-6.043149e+00	-5.059063e+01
1.670000e-06	-8.249623e-07	-6.722316e-10	-5.721868e+00	-4.979268e+01
1.680000e-06	-7.785078e-07	-6.558459e-10	-5.399663e+00	-4.896865e+01
1.690000e-06	-7.319712e-07	-6.397457e-10	-5.076889e+00	-4.811754e+01
1.700000e-06	-6.853707e-07	-6.247671e-10	-4.753672e+00	-4.723842e+01
1.710000e-06	-6.386957e-07	-6.115608e-10	-4.429939e+00	-4.633032e+01
1.720000e-06	-5.919144e-07	-6.009258e-10	-4.105468e+00	-4.539234e+01
1.730000e-06	-5.450719e-07	-5.898474e-10	-3.780572e+00	-4.442359e+01
1.740000e-06	-4.982096e-07	-5.748916e-10	-3.455539e+00	-4.342322e+01
1.750000e-06	-4.513859e-07	-5.568816e-10	-3.130773e+00	-4.239043e+01
1.760000e-06	-4.045200e-07	-5.384130e-10	-2.805716e+00	-4.132448e+01
1.770000e-06	-3.575984e-07	-5.199724e-10	-2.480272e+00	-4.022467e+01
1.780000e-06	-3.106769e-07	-5.010789e-10	-2.154828e+00	-3.909039e+01
1.790000e-06	-2.637610e-07	-4.837086e-10	-1.829423e+00	-3.792110e+01
1.800000e-06	-2.168147e-07	-4.678602e-10	-1.503808e+00	-3.671634e+01
1.810000e-06	-1.698436e-07	-4.549267e-10	-1.178020e+00	-3.547572e+01
1.820000e-06	-1.229165e-07	-4.417330e-10	-8.525385e-01	-3.419898e+01
1.830000e-06	-7.598728e-08	-4.261210e-10	-5.270412e-01	-3.288593e+01
1.840000e-06	-2.901367e-08	-4.072668e-10	-2.012363e-01	-3.153650e+01
1.850000e-06	1.796779e-08	-3.856349e-10	1.246231e-01	-3.015073e+01
1.860000e-06	6.492062e-08	-3.633327e-10	4.502838e-01	-2.872878e+01
1.870000e-06	1.119130e-07	-3.414593e-10	7.762192e-01	-2.727092e+01
1.880000e-06	1.588811e-07	-3.210917e-10	1.101986e+00	-2.577754e+01
1.890000e-06	2.056922e-07	-3.012784e-10	1.426663e+00	-2.424916e+01
1.900000e-06	2.525639e-07	-2.826899e-10	1.751761e+00	-2.268645e+01
1.910000e-06	2.995075e-07	-2.617171e-10	2.077358e+00	-2.109016e+01
1.920000e-06	3.463754e-07	-2.367935e-10	2.402430e+00	-1.946121e+01
1.930000e-06	3.932124e-07	-2.104428e-10	2.727287e+00	-1.780062e+01
1.940000e-06	4.399890e-07	-1.847798e-10	3.051726e+00	-1.610956e+01
1.950000e-06	4.867817e-07	-1.602038e-10	3.376276e+00	-1.438932e+01
1.960000e-06	5.335818e-07	-1.356763e-10	3.700877e+00	-1.264128e+01
1.970000e-06	5.802419e-07	-1.118023e-10	4.024508e+00	-1.086697e+01
1.980000e-06	6.268706e-07	-8.977659e-11	4.347921e+00	-9.068038e+00
1.990000e-06	6.735016e-07	-6.634952e-11	4.671349e+00	-7.246211e+00
2.000000e-06	7.199772e-07	-3.958012e-11	4.993700e+00	-5.403335e+00
2.010000e-06	7.663978e-07	-1.054451e-11	5.315669e+00	-3.541349e+00
2.020000e-06	8.128602e-07	1.787698e-11	5.637928e+00	-1.662276e+00
2.030000e-06	8.592647e-07	4.605441e-11	5.959786e+00	2.317796e-01
2.040000e-06	9.055955e-07	7.291669e-11	6.281132e+00	2.138644e+00
2.050000e-06	9.518476e-07	9.826304e-11	6.601933e+00	4.056083e+00
2.060000e-06	9.979541e-07	1.237843e-10	6.921724e+00	5.981809e+00
2.070000e-06	1.043931e-06	1.500974e-10	7.240615e+00	7.913494e+00
2.080000e-06	1.089869e-06	1.771445e-10	7.559240e+00	9.848780e+00
2.090000e-06	1.135766e-06	2.040603e-10	7.877574e+00	1.178529e+01
2.100000e-06	1.181597e-06	2.318159e-10	8.195457e+00	1.372062e+01
2.110000e-06	1.227321e-06	2.613548e-10	8.512596e+00	1.565240e+01
2.120000e-06	1.272940e-06	2.921718e-10	8.829002e+00	1.757824e+01
2.130000e-06	1.318422e-06	3.230833e-10	9.144461e+00	1.949580e+01
2.140000e-06	1.363795e-06	3.494919e-10	9.459167e+00	2.140274e+01
2.150000e-06	1.409118e-06	3.707486e-10	9.773523e+00	2.329679e+01
2.160000e-06	1.454362e-06	3.922397e-10	1.008733e+01	2.517572e+01
2.170000e-06	1.499503e-06	4.156280e-10	1.040042e+01	2.703738e+01
2.180000e-06	1.544560e-06	4.417054e-10	1.071293e+01	2.887967e+01
2.190000e-06	1.589561e-06	4.711059e-10	1.102506e+01	3.070059e+01
2.200000e-06	1.634398e-06	5.010244e-10	1.133604e+01	3.249822e+01
2.210000e-06	1.679048e-06	5.290608e-10	1.164573e+01	3.427073e+01
2.220000e-06	1.723551e-06	5.548882e-10	1.195440e+01	3.601642e+01
2.230000e-06	1.767956e-06	5.765941e-10	1.226239e+01	3.773366e+01
2.240000e-06	1.812244e-06	5.942290e-10	1.256957e+01	3.942098e+01
2.250000e-06	1.856417e-06	6.113187e-10	1.287595e+01	4.107699e+01
2.260000e-06	1.900493e-06	6.303871e-10	1.318166e+01	4.270046e+01
2.270000e-06	1.944491e-06	6.512304e-10	1.348683e+01	4.429026e+01
2.280000e-06	1.988474e-06	6.735709e-10	1.379189e+01	4.584540e+01
2.290000e-06	2.032371e-06	6.952175e-10	1.409635e+01	4.736502e+01
2.300000e-06	2.076156e-06	7.144024e-10	1.440004e+01	4.884840e+01
2.310000e-06	2.119867e-06	7.311685e-10	1.470321e+01	5.029493e+01
2.320000e-06	2.163449e-06	7.471820e-10	1.500550e+01	5.170414e+01
2.330000e-06	2.206932e-06	7.626856e-10	1.530709e+01	5.307569e+01
2.340000e-06	2.250340e-06	7.784568e-10	1.560816e+01	5.440938e+01
2.350000e-06	2.293596e-06	7.963883e-10	1.590818e+01	5.570509e+01
2.360000e-06	2.336666e-06	8.157031e-10	1.620692e+01	5.696287e+01
2.370000e-06	2.379560e-06	8.331320e-10	1.650443e+01	5.818283e+01
2.380000e-06	2.422232e-06	8.483632e-10	1.680040e+01	5.936523e+01
2.390000e-06	2.464591e-06	8.619477e-10	1.709419e+01	6.051042e+01
2.400000e-06	2.506652e-06	8.752985e-10	1.738592e+01	6.161882e+01
2.410000e-06	2.548247e-06	8.895955e-10	1.767442e+01	6.269098e+01
2.420000e-06	2.589416e-06	9.038594e-10	1.795997e+01	6.372749e+01
2.430000e-06	2.630304e-06	9.165031e-10	1.824356e+01	6.472905e+01
2.440000e-06	2.670932e-06	9.279518e-10	1.852535e+01	6.569641e+01
2.450000e-06	2.711403e-06	9.396713e-10	1.880606e+01	6.663038e+01
2.460000e-06	2.751719e-06	9.517490e-10	1.908568e+01	6.753182e+01
2.470000e-06	2.791827e-06	9.632479e-10	1.936387e+01	6.840163e+01
2.480000e-06	2.831773e-06	9.736714e-10	1.964094e+01	6.924075e+01
2.490000e-06	2.871652e-06	9.837407e-10	1.991753e+01	7.005017e+01
2.500000e-06	2.911394e-06	9.939708e-10	2.019318e+01	7.083085e+01
2.510000e-06	2.950985e-06	1.004291e-09	2.046778e+01	7.158382e+01
2.520000e-06	2.990452e-06	1.014329e-09	2.074152e+01	7.231007e+01
2.530000e-06	3.029738e-06	1.022956e-09	2.101400e+01	7.301062e+01
2.540000e-06	3.068890e-06	1.031520e-09	2.128556e+01	7.368648e+01
2.550000e-06	3.107880e-06	1.041585e-09	2.155599e+01	7.433863e+01
2.560000e-06	3.146535e-06	1.050464e-09	2.182410e+01	7.496805e+01
2.570000e-06	3.184842e-06	1.058312e-09	2.208979e+01	7.557569e+01
2.580000e-06	3.222937e-06	1.066709e-09	2.235401e+01	7.616248e+01
2.590000e-06	3.260825e-06	1.074604e-09	2.261680e+01	7.672932e+01
2.600000e-06	3.298480e-06	1.082186e-09	2.287797e+01	7.727706e+01
2.610000e-06	3.336020e-06	1.091176e-09	2.313835e+01	7.780654e+01
2.620000e-06	3.373325e-06	1.100178e-09	2.339709e+01	7.831854e+01
2.630000e-06	3.410376e-06	1.108182e-09	2.365407e+01	7.881380e+01
2.640000e-06	3.447216e-06	1.116298e-09	2.390959e+01	7.929303e+01
2.650000e-06	3.483753e-06	1.123938e-09	2.416301e+01	7.975690e+01
2.660000e-06	3.520004e-06	1.130041e-09	2.441444e+01	8.020603e+01
2.670000e-06	3.556036e-06	1.136323e-09	2.466436e+01	8.064098e+01
2.680000e-06	3.591938e-06	1.143418e-09	2.491337e+01	8.106230e+01
2.690000e-06	3.627708e-06	1.151012e-09	2.516147e+01	8.147049e+01
2.700000e-06	3.663321e-06	1.159053e-09	2.540848e+01	8.186599e+01
2.710000e-06	3.698766e-06	1.166668e-09	2.565432e+01	8.224922e+01
2.720000e-06	3.733945e-06	1.173586e-09	2.589832e+01	8.262057e+01
2.730000e-06	3.768813e-06	1.180346e-09	2.614016e+01	8.298038e+01
2.740000e-06	3.803374e-06	1.185670e-09	2.637987e+01	8.332898e+01
2.750000e-06	3.837574e-06	1.189226e-09	2.661709e+01	8.366664e+01
2.760000e-06	3.871378e-06	1.192690e-09	2.685155e+01	8.399365e+01
2.770000e-06	3.904755e-06	1.196940e-09	2.708305e+01	8.431022e+01
2.780000e-06	3.937706e-06	1.202117e-09	2.731159e+01	8.461659e+01
2.790000e-06	3.970249e-06	1.209619e-09	2.753730e+01	8.491296e+01
2.800000e-06	4.002459e-06	1.218352e-09	2.776071e+01	8.519952e+01
2.810000e-06	4.034444e-06	1.223738e-09	2.798256e+01	8.547645e+01
2.820000e-06	4.066212e-06	1.225602e-09	2.820290e+01	8.574390e+01
2.830000e-06	4.097791e-06	1.228101e-09	2.842192e+01	8.600205e+01
2.840000e-06	4.129192e-06	1.231565e-09	2.863972e+01	8.625105e+01
2.850000e-06	4.160318e-06	1.233583e-09	2.885560e+01	8.649106e+01
2.860000e-06	4.191150e-06	1.233212e-09	2.906945e+01	8.672223e+01
2.870000e-06	4.221708e-06	1.234306e-09	2.928140e+01	8.694471e+01
2.880000e-06	4.251957e-06	1.238083e-09	2.949121e+01	8.715866e+01
2.890000e-06	4.281878e-06	1.243469e-09	2.969873e+01	8.736424e+01
2.900000e-06	4.311509e-06	1.249257e-09	2.990426e+01	8.756162e+01
