# Temperatura_=_-8.78
# Concentracion g/m^3_=_1620.0
# C_Vs_to_Am_M_A/Vsm_=_65563218390.804596
# pendiente_HvsI_1/m_=_3716.3
# ordenada_HvsI_A/m_=_1297.0
# frecuencia_Hz_=_135103.94731690787

Tiempo_(s)	Campo_(V.s)	Magnetizacion_(V.s)	Campo_(kA/m)	Magnetizacion_(A/m)
0.000000e+00	-5.497438e-06	-1.221380e-09	-3.837033e+01	-7.919848e+01
1.000000e-08	-5.497748e-06	-1.219891e-09	-3.837250e+01	-7.917183e+01
2.000000e-08	-5.497767e-06	-1.218321e-09	-3.837263e+01	-7.914739e+01
3.000000e-08	-5.497407e-06	-1.217742e-09	-3.837012e+01	-7.912486e+01
4.000000e-08	-5.496595e-06	-1.216580e-09	-3.836445e+01	-7.910391e+01
5.000000e-08	-5.495236e-06	-1.211219e-09	-3.835496e+01	-7.908415e+01
6.000000e-08	-5.493318e-06	-1.200919e-09	-3.834158e+01	-7.906521e+01
7.000000e-08	-5.490847e-06	-1.201506e-09	-3.832433e+01	-7.904669e+01
8.000000e-08	-5.487817e-06	-1.228534e-09	-3.830318e+01	-7.902816e+01
9.000000e-08	-5.484320e-06	-1.255975e-09	-3.827878e+01	-7.900919e+01
1.000000e-07	-5.480360e-06	-1.220839e-09	-3.825113e+01	-7.898936e+01
1.100000e-07	-5.476112e-06	-1.161698e-09	-3.822149e+01	-7.896824e+01
1.200000e-07	-5.471684e-06	-1.171071e-09	-3.819058e+01	-7.894539e+01
1.300000e-07	-5.466926e-06	-1.237418e-09	-3.815737e+01	-7.892039e+01
1.400000e-07	-5.461749e-06	-1.229578e-09	-3.812123e+01	-7.889283e+01
1.500000e-07	-5.456255e-06	-1.179736e-09	-3.808289e+01	-7.886232e+01
1.600000e-07	-5.450494e-06	-1.175970e-09	-3.804268e+01	-7.882849e+01
1.700000e-07	-5.444254e-06	-1.242901e-09	-3.799913e+01	-7.879099e+01
1.800000e-07	-5.437545e-06	-1.233545e-09	-3.795230e+01	-7.874950e+01
1.900000e-07	-5.430461e-06	-1.171009e-09	-3.790285e+01	-7.870373e+01
2.000000e-07	-5.423017e-06	-1.159389e-09	-3.785090e+01	-7.865342e+01
2.100000e-07	-5.415310e-06	-1.222471e-09	-3.779711e+01	-7.859836e+01
2.200000e-07	-5.407379e-06	-1.267922e-09	-3.774175e+01	-7.853838e+01
2.300000e-07	-5.399226e-06	-1.235583e-09	-3.768485e+01	-7.847332e+01
2.400000e-07	-5.390661e-06	-1.202183e-09	-3.762506e+01	-7.840309e+01
2.500000e-07	-5.381451e-06	-1.202654e-09	-3.756078e+01	-7.832764e+01
2.600000e-07	-5.371660e-06	-1.220796e-09	-3.749245e+01	-7.824696e+01
2.700000e-07	-5.361300e-06	-1.201442e-09	-3.742013e+01	-7.816109e+01
2.800000e-07	-5.350340e-06	-1.192634e-09	-3.734364e+01	-7.807009e+01
2.900000e-07	-5.338874e-06	-1.202766e-09	-3.726361e+01	-7.797408e+01
3.000000e-07	-5.327072e-06	-1.215143e-09	-3.718124e+01	-7.787322e+01
3.100000e-07	-5.314976e-06	-1.184229e-09	-3.709681e+01	-7.776771e+01
3.200000e-07	-5.302459e-06	-1.170507e-09	-3.700944e+01	-7.765778e+01
3.300000e-07	-5.289533e-06	-1.180476e-09	-3.691923e+01	-7.754368e+01
3.400000e-07	-5.276251e-06	-1.195604e-09	-3.682652e+01	-7.742572e+01
3.500000e-07	-5.262535e-06	-1.171649e-09	-3.673079e+01	-7.730422e+01
3.600000e-07	-5.248325e-06	-1.171889e-09	-3.663161e+01	-7.717951e+01
3.700000e-07	-5.233657e-06	-1.190550e-09	-3.652923e+01	-7.705197e+01
3.800000e-07	-5.218473e-06	-1.181014e-09	-3.642325e+01	-7.692197e+01
3.900000e-07	-5.202693e-06	-1.153562e-09	-3.631311e+01	-7.678989e+01
4.000000e-07	-5.186453e-06	-1.171067e-09	-3.619976e+01	-7.665614e+01
4.100000e-07	-5.169946e-06	-1.177469e-09	-3.608454e+01	-7.652110e+01
4.200000e-07	-5.153086e-06	-1.143580e-09	-3.596687e+01	-7.638517e+01
4.300000e-07	-5.135821e-06	-1.156878e-09	-3.584636e+01	-7.624874e+01
4.400000e-07	-5.118356e-06	-1.199252e-09	-3.572446e+01	-7.611217e+01
4.500000e-07	-5.100622e-06	-1.166626e-09	-3.560068e+01	-7.597584e+01
4.600000e-07	-5.082382e-06	-1.126381e-09	-3.547338e+01	-7.584008e+01
4.700000e-07	-5.063650e-06	-1.166918e-09	-3.534264e+01	-7.570521e+01
4.800000e-07	-5.044547e-06	-1.170937e-09	-3.520930e+01	-7.557151e+01
4.900000e-07	-5.025189e-06	-1.121291e-09	-3.507419e+01	-7.543924e+01
5.000000e-07	-5.005666e-06	-1.136904e-09	-3.493793e+01	-7.530864e+01
5.100000e-07	-4.985940e-06	-1.174365e-09	-3.480025e+01	-7.517990e+01
5.200000e-07	-4.965894e-06	-1.130084e-09	-3.466033e+01	-7.505318e+01
5.300000e-07	-4.945473e-06	-1.122986e-09	-3.451780e+01	-7.492859e+01
5.400000e-07	-4.924667e-06	-1.170692e-09	-3.437258e+01	-7.480621e+01
5.500000e-07	-4.903459e-06	-1.147597e-09	-3.422455e+01	-7.468609e+01
5.600000e-07	-4.881834e-06	-1.098245e-09	-3.407362e+01	-7.456822e+01
5.700000e-07	-4.859892e-06	-1.137327e-09	-3.392047e+01	-7.445258e+01
5.800000e-07	-4.837736e-06	-1.150722e-09	-3.376583e+01	-7.433907e+01
5.900000e-07	-4.815180e-06	-1.106581e-09	-3.360839e+01	-7.422759e+01
6.000000e-07	-4.792226e-06	-1.116792e-09	-3.344819e+01	-7.411799e+01
6.100000e-07	-4.769031e-06	-1.151544e-09	-3.328629e+01	-7.401009e+01
6.200000e-07	-4.745620e-06	-1.118214e-09	-3.312289e+01	-7.390367e+01
6.300000e-07	-4.722054e-06	-1.104492e-09	-3.295840e+01	-7.379850e+01
6.400000e-07	-4.698292e-06	-1.131913e-09	-3.279255e+01	-7.369430e+01
6.500000e-07	-4.674206e-06	-1.117740e-09	-3.262444e+01	-7.359080e+01
6.600000e-07	-4.649622e-06	-1.091571e-09	-3.245285e+01	-7.348769e+01
6.700000e-07	-4.624535e-06	-1.114727e-09	-3.227775e+01	-7.338464e+01
6.800000e-07	-4.598937e-06	-1.117012e-09	-3.209909e+01	-7.328134e+01
6.900000e-07	-4.572812e-06	-1.089021e-09	-3.191674e+01	-7.317745e+01
7.000000e-07	-4.546246e-06	-1.095398e-09	-3.173132e+01	-7.307264e+01
7.100000e-07	-4.519203e-06	-1.108867e-09	-3.154257e+01	-7.296657e+01
7.200000e-07	-4.491779e-06	-1.088660e-09	-3.135116e+01	-7.285892e+01
7.300000e-07	-4.464222e-06	-1.083114e-09	-3.115882e+01	-7.274938e+01
7.400000e-07	-4.436563e-06	-1.099723e-09	-3.096577e+01	-7.263763e+01
7.500000e-07	-4.408694e-06	-1.090728e-09	-3.077125e+01	-7.252341e+01
7.600000e-07	-4.380521e-06	-1.074777e-09	-3.057461e+01	-7.240644e+01
7.700000e-07	-4.352056e-06	-1.078251e-09	-3.037594e+01	-7.228649e+01
7.800000e-07	-4.323278e-06	-1.079800e-09	-3.017508e+01	-7.216335e+01
7.900000e-07	-4.294112e-06	-1.069801e-09	-2.997151e+01	-7.203683e+01
8.000000e-07	-4.264654e-06	-1.071925e-09	-2.976590e+01	-7.190679e+01
8.100000e-07	-4.235017e-06	-1.069158e-09	-2.955905e+01	-7.177309e+01
8.200000e-07	-4.205115e-06	-1.053402e-09	-2.935034e+01	-7.163567e+01
8.300000e-07	-4.174819e-06	-1.048409e-09	-2.913888e+01	-7.149445e+01
8.400000e-07	-4.144183e-06	-1.054031e-09	-2.892505e+01	-7.134944e+01
8.500000e-07	-4.113276e-06	-1.049197e-09	-2.870933e+01	-7.120063e+01
8.600000e-07	-4.082132e-06	-1.049328e-09	-2.849196e+01	-7.104809e+01
8.700000e-07	-4.050792e-06	-1.053550e-09	-2.827321e+01	-7.089189e+01
8.800000e-07	-4.019232e-06	-1.046573e-09	-2.805293e+01	-7.073215e+01
8.900000e-07	-3.987543e-06	-1.034600e-09	-2.783176e+01	-7.056901e+01
9.000000e-07	-3.955720e-06	-1.036729e-09	-2.760964e+01	-7.040264e+01
9.100000e-07	-3.923549e-06	-1.033931e-09	-2.738510e+01	-7.023322e+01
9.200000e-07	-3.890941e-06	-1.029482e-09	-2.715751e+01	-7.006097e+01
9.300000e-07	-3.858036e-06	-1.034706e-09	-2.692784e+01	-6.988613e+01
9.400000e-07	-3.824857e-06	-1.036791e-09	-2.669626e+01	-6.970893e+01
9.500000e-07	-3.791163e-06	-1.026457e-09	-2.646109e+01	-6.952963e+01
9.600000e-07	-3.756937e-06	-1.019805e-09	-2.622220e+01	-6.934850e+01
9.700000e-07	-3.722298e-06	-1.016164e-09	-2.598043e+01	-6.916580e+01
9.800000e-07	-3.687309e-06	-1.003465e-09	-2.573622e+01	-6.898179e+01
9.900000e-07	-3.652020e-06	-9.946855e-10	-2.548992e+01	-6.879674e+01
1.000000e-06	-3.616564e-06	-9.982244e-10	-2.524244e+01	-6.861090e+01
1.010000e-06	-3.581007e-06	-9.966153e-10	-2.499427e+01	-6.842450e+01
1.020000e-06	-3.545271e-06	-9.921249e-10	-2.474484e+01	-6.823777e+01
1.030000e-06	-3.509389e-06	-9.943554e-10	-2.449440e+01	-6.805092e+01
1.040000e-06	-3.473360e-06	-9.925752e-10	-2.424293e+01	-6.786411e+01
1.050000e-06	-3.437028e-06	-9.834195e-10	-2.398934e+01	-6.767752e+01
1.060000e-06	-3.400411e-06	-9.796667e-10	-2.373376e+01	-6.749127e+01
1.070000e-06	-3.363513e-06	-9.818800e-10	-2.347623e+01	-6.730545e+01
1.080000e-06	-3.326369e-06	-9.781901e-10	-2.321698e+01	-6.712013e+01
1.090000e-06	-3.289078e-06	-9.732834e-10	-2.295670e+01	-6.693534e+01
1.100000e-06	-3.251575e-06	-9.713883e-10	-2.269494e+01	-6.675107e+01
1.110000e-06	-3.213825e-06	-9.660113e-10	-2.243146e+01	-6.656729e+01
1.120000e-06	-3.175826e-06	-9.557966e-10	-2.216624e+01	-6.638392e+01
1.130000e-06	-3.137631e-06	-9.523141e-10	-2.189964e+01	-6.620084e+01
1.140000e-06	-3.099186e-06	-9.494604e-10	-2.163131e+01	-6.601791e+01
1.150000e-06	-3.060476e-06	-9.448198e-10	-2.136113e+01	-6.583494e+01
1.160000e-06	-3.021575e-06	-9.402782e-10	-2.108961e+01	-6.565171e+01
1.170000e-06	-2.982490e-06	-9.372761e-10	-2.081681e+01	-6.546797e+01
1.180000e-06	-2.943292e-06	-9.315311e-10	-2.054322e+01	-6.528344e+01
1.190000e-06	-2.903958e-06	-9.286295e-10	-2.026868e+01	-6.509781e+01
1.200000e-06	-2.864463e-06	-9.296473e-10	-1.999302e+01	-6.491074e+01
1.210000e-06	-2.824827e-06	-9.293388e-10	-1.971637e+01	-6.472188e+01
1.220000e-06	-2.785058e-06	-9.264776e-10	-1.943880e+01	-6.453084e+01
1.230000e-06	-2.745164e-06	-9.251500e-10	-1.916036e+01	-6.433722e+01
1.240000e-06	-2.705079e-06	-9.211444e-10	-1.888057e+01	-6.414062e+01
1.250000e-06	-2.664753e-06	-9.149677e-10	-1.859911e+01	-6.394061e+01
1.260000e-06	-2.624242e-06	-9.101849e-10	-1.831636e+01	-6.373676e+01
1.270000e-06	-2.583520e-06	-9.074698e-10	-1.803213e+01	-6.352864e+01
1.280000e-06	-2.542539e-06	-9.028235e-10	-1.774610e+01	-6.331579e+01
1.290000e-06	-2.501324e-06	-8.950298e-10	-1.745843e+01	-6.309779e+01
1.300000e-06	-2.459707e-06	-8.886431e-10	-1.716796e+01	-6.287419e+01
1.310000e-06	-2.417585e-06	-8.827185e-10	-1.687396e+01	-6.264458e+01
1.320000e-06	-2.375150e-06	-8.775653e-10	-1.657778e+01	-6.240852e+01
1.330000e-06	-2.332636e-06	-8.749883e-10	-1.628104e+01	-6.216560e+01
1.340000e-06	-2.289925e-06	-8.704638e-10	-1.598294e+01	-6.191543e+01
1.350000e-06	-2.246884e-06	-8.642126e-10	-1.568252e+01	-6.165761e+01
1.360000e-06	-2.203669e-06	-8.620983e-10	-1.538089e+01	-6.139177e+01
1.370000e-06	-2.160331e-06	-8.603537e-10	-1.507841e+01	-6.111755e+01
1.380000e-06	-2.116846e-06	-8.552713e-10	-1.477490e+01	-6.083461e+01
1.390000e-06	-2.073263e-06	-8.487208e-10	-1.447070e+01	-6.054260e+01
1.400000e-06	-2.029625e-06	-8.446806e-10	-1.416612e+01	-6.024122e+01
1.410000e-06	-1.985929e-06	-8.380250e-10	-1.386114e+01	-5.993014e+01
1.420000e-06	-1.942160e-06	-8.269640e-10	-1.355565e+01	-5.960908e+01
1.430000e-06	-1.898325e-06	-8.160633e-10	-1.324970e+01	-5.927775e+01
1.440000e-06	-1.854413e-06	-8.082620e-10	-1.294320e+01	-5.893586e+01
1.450000e-06	-1.810394e-06	-7.990775e-10	-1.263596e+01	-5.858313e+01
1.460000e-06	-1.766273e-06	-7.898209e-10	-1.232801e+01	-5.821929e+01
1.470000e-06	-1.722049e-06	-7.818468e-10	-1.201934e+01	-5.784407e+01
1.480000e-06	-1.677646e-06	-7.752454e-10	-1.170943e+01	-5.745716e+01
1.490000e-06	-1.633101e-06	-7.665990e-10	-1.139851e+01	-5.705829e+01
1.500000e-06	-1.588471e-06	-7.550282e-10	-1.108701e+01	-5.664716e+01
1.510000e-06	-1.543750e-06	-7.433371e-10	-1.077487e+01	-5.622344e+01
1.520000e-06	-1.498873e-06	-7.346117e-10	-1.046165e+01	-5.578679e+01
1.530000e-06	-1.453794e-06	-7.287865e-10	-1.014701e+01	-5.533688e+01
1.540000e-06	-1.408651e-06	-7.236124e-10	-9.831931e+00	-5.487330e+01
1.550000e-06	-1.363404e-06	-7.164222e-10	-9.516121e+00	-5.439566e+01
1.560000e-06	-1.318028e-06	-7.062658e-10	-9.199408e+00	-5.390352e+01
1.570000e-06	-1.272611e-06	-6.961068e-10	-8.882410e+00	-5.339641e+01
1.580000e-06	-1.227178e-06	-6.872602e-10	-8.565302e+00	-5.287382e+01
1.590000e-06	-1.181655e-06	-6.767020e-10	-8.247566e+00	-5.233522e+01
1.600000e-06	-1.136025e-06	-6.659624e-10	-7.929088e+00	-5.178003e+01
1.610000e-06	-1.090332e-06	-6.579619e-10	-7.610165e+00	-5.120764e+01
1.620000e-06	-1.044524e-06	-6.519202e-10	-7.290439e+00	-5.061740e+01
1.630000e-06	-9.985961e-07	-6.477013e-10	-6.969877e+00	-5.000862e+01
1.640000e-06	-9.526398e-07	-6.431819e-10	-6.649117e+00	-4.938058e+01
1.650000e-06	-9.066804e-07	-6.364501e-10	-6.328335e+00	-4.873251e+01
1.660000e-06	-8.606418e-07	-6.248641e-10	-6.007001e+00	-4.806365e+01
1.670000e-06	-8.144899e-07	-6.098568e-10	-5.684876e+00	-4.737316e+01
1.680000e-06	-7.682715e-07	-5.951586e-10	-5.362286e+00	-4.666021e+01
1.690000e-06	-7.220998e-07	-5.830598e-10	-5.040022e+00	-4.592393e+01
1.700000e-06	-6.759115e-07	-5.714674e-10	-4.717643e+00	-4.516344e+01
1.710000e-06	-6.296289e-07	-5.599646e-10	-4.394606e+00	-4.437786e+01
1.720000e-06	-5.832738e-07	-5.507209e-10	-4.071062e+00	-4.356630e+01
1.730000e-06	-5.369280e-07	-5.397507e-10	-3.747584e+00	-4.272785e+01
1.740000e-06	-4.905865e-07	-5.236111e-10	-3.424135e+00	-4.186164e+01
1.750000e-06	-4.441815e-07	-5.059902e-10	-3.100243e+00	-4.096679e+01
1.760000e-06	-3.976931e-07	-4.895219e-10	-2.775769e+00	-4.004247e+01
1.770000e-06	-3.512297e-07	-4.747525e-10	-2.451470e+00	-3.908785e+01
1.780000e-06	-3.047944e-07	-4.622964e-10	-2.127366e+00	-3.810217e+01
1.790000e-06	-2.582874e-07	-4.502924e-10	-1.802762e+00	-3.708469e+01
1.800000e-06	-2.117407e-07	-4.367029e-10	-1.477881e+00	-3.603474e+01
1.810000e-06	-1.651244e-07	-4.231563e-10	-1.152515e+00	-3.495172e+01
1.820000e-06	-1.184279e-07	-4.085056e-10	-8.265885e-01	-3.383508e+01
1.830000e-06	-7.177493e-08	-3.928354e-10	-5.009657e-01	-3.268436e+01
1.840000e-06	-2.518300e-08	-3.775829e-10	-1.757692e-01	-3.149921e+01
1.850000e-06	2.146133e-08	-3.623483e-10	1.497931e-01	-3.027934e+01
1.860000e-06	6.813787e-08	-3.457856e-10	4.755802e-01	-2.902458e+01
1.870000e-06	1.147379e-07	-3.274952e-10	8.008332e-01	-2.773486e+01
1.880000e-06	1.612675e-07	-3.091243e-10	1.125595e+00	-2.641024e+01
1.890000e-06	2.078128e-07	-2.898891e-10	1.450466e+00	-2.505087e+01
1.900000e-06	2.543773e-07	-2.684544e-10	1.775471e+00	-2.365705e+01
1.910000e-06	3.009271e-07	-2.460804e-10	2.100373e+00	-2.222920e+01
1.920000e-06	3.474575e-07	-2.236820e-10	2.425141e+00	-2.076787e+01
1.930000e-06	3.939896e-07	-2.022944e-10	2.749920e+00	-1.927373e+01
1.940000e-06	4.404802e-07	-1.832796e-10	3.074409e+00	-1.774760e+01
1.950000e-06	4.868666e-07	-1.656158e-10	3.398171e+00	-1.619043e+01
1.960000e-06	5.332116e-07	-1.462696e-10	3.721644e+00	-1.460331e+01
1.970000e-06	5.795758e-07	-1.245173e-10	4.045251e+00	-1.298743e+01
1.980000e-06	6.259118e-07	-1.027490e-10	4.368661e+00	-1.134415e+01
1.990000e-06	6.721567e-07	-7.907915e-11	4.691436e+00	-9.674938e+00
2.000000e-06	7.182894e-07	-5.225307e-11	5.013427e+00	-7.981373e+00
2.010000e-06	7.643804e-07	-2.602581e-11	5.335127e+00	-6.265164e+00
2.020000e-06	8.105069e-07	-3.349039e-12	5.657076e+00	-4.528124e+00
2.030000e-06	8.565806e-07	1.866456e-11	5.978655e+00	-2.772169e+00
2.040000e-06	9.025338e-07	4.202488e-11	6.299393e+00	-9.993104e-01
2.050000e-06	9.484259e-07	6.562373e-11	6.619705e+00	7.883563e-01
2.060000e-06	9.943053e-07	9.077250e-11	6.939928e+00	2.588658e+00
2.070000e-06	1.040164e-06	1.177965e-10	7.260009e+00	4.399355e+00
2.080000e-06	1.085909e-06	1.459126e-10	7.579292e+00	6.218152e+00
2.090000e-06	1.131545e-06	1.726307e-10	7.897815e+00	8.042708e+00
2.100000e-06	1.177117e-06	1.980429e-10	8.215893e+00	9.870647e+00
2.110000e-06	1.222594e-06	2.226263e-10	8.533310e+00	1.169957e+01
2.120000e-06	1.267985e-06	2.461197e-10	8.850123e+00	1.352708e+01
2.130000e-06	1.313316e-06	2.691216e-10	9.166522e+00	1.535075e+01
2.140000e-06	1.358577e-06	2.911846e-10	9.482428e+00	1.716820e+01
2.150000e-06	1.403726e-06	3.137546e-10	9.797554e+00	1.897705e+01
2.160000e-06	1.448773e-06	3.376191e-10	1.011196e+01	2.077498e+01
2.170000e-06	1.493726e-06	3.628127e-10	1.042572e+01	2.255969e+01
2.180000e-06	1.538554e-06	3.897936e-10	1.073861e+01	2.432896e+01
2.190000e-06	1.583240e-06	4.161134e-10	1.105050e+01	2.608062e+01
2.200000e-06	1.627759e-06	4.402907e-10	1.136123e+01	2.781260e+01
2.210000e-06	1.672131e-06	4.631606e-10	1.167093e+01	2.952291e+01
2.220000e-06	1.716405e-06	4.848023e-10	1.197995e+01	3.120964e+01
2.230000e-06	1.760582e-06	5.056478e-10	1.228829e+01	3.287101e+01
2.240000e-06	1.804601e-06	5.252568e-10	1.259553e+01	3.450533e+01
2.250000e-06	1.848501e-06	5.444954e-10	1.290194e+01	3.611105e+01
2.260000e-06	1.892363e-06	5.644635e-10	1.320808e+01	3.768673e+01
2.270000e-06	1.936153e-06	5.855334e-10	1.351372e+01	3.923105e+01
2.280000e-06	1.979850e-06	6.054494e-10	1.381871e+01	4.074283e+01
2.290000e-06	2.023482e-06	6.243006e-10	1.412325e+01	4.222104e+01
2.300000e-06	2.067083e-06	6.425907e-10	1.442757e+01	4.366476e+01
2.310000e-06	2.110677e-06	6.590597e-10	1.473184e+01	4.507321e+01
2.320000e-06	2.154241e-06	6.759764e-10	1.503590e+01	4.644577e+01
2.330000e-06	2.197719e-06	6.940384e-10	1.533937e+01	4.778193e+01
2.340000e-06	2.241022e-06	7.121683e-10	1.564161e+01	4.908132e+01
2.350000e-06	2.284080e-06	7.305097e-10	1.594214e+01	5.034371e+01
2.360000e-06	2.326925e-06	7.483381e-10	1.624119e+01	5.156898e+01
2.370000e-06	2.369535e-06	7.639926e-10	1.653859e+01	5.275714e+01
2.380000e-06	2.411879e-06	7.773890e-10	1.683413e+01	5.390832e+01
2.390000e-06	2.453898e-06	7.902866e-10	1.712741e+01	5.502276e+01
2.400000e-06	2.495489e-06	8.045923e-10	1.741770e+01	5.610080e+01
2.410000e-06	2.536592e-06	8.207192e-10	1.770459e+01	5.714288e+01
2.420000e-06	2.577403e-06	8.359798e-10	1.798944e+01	5.814953e+01
2.430000e-06	2.618052e-06	8.485616e-10	1.827316e+01	5.912136e+01
2.440000e-06	2.658400e-06	8.591587e-10	1.855477e+01	6.005907e+01
2.450000e-06	2.698530e-06	8.681698e-10	1.883487e+01	6.096340e+01
2.460000e-06	2.738557e-06	8.770042e-10	1.911424e+01	6.183517e+01
2.470000e-06	2.778415e-06	8.872480e-10	1.939243e+01	6.267524e+01
2.480000e-06	2.818087e-06	8.992897e-10	1.966933e+01	6.348451e+01
2.490000e-06	2.857658e-06	9.119439e-10	1.994552e+01	6.426392e+01
2.500000e-06	2.897141e-06	9.237872e-10	2.022111e+01	6.501444e+01
2.510000e-06	2.936511e-06	9.335390e-10	2.049589e+01	6.573703e+01
2.520000e-06	2.975702e-06	9.422187e-10	2.076944e+01	6.643269e+01
2.530000e-06	3.014731e-06	9.506045e-10	2.104184e+01	6.710241e+01
2.540000e-06	3.053578e-06	9.579886e-10	2.131299e+01	6.774717e+01
2.550000e-06	3.092133e-06	9.649117e-10	2.158209e+01	6.836796e+01
2.560000e-06	3.130481e-06	9.715185e-10	2.184974e+01	6.896573e+01
2.570000e-06	3.168641e-06	9.794101e-10	2.211609e+01	6.954142e+01
2.580000e-06	3.206590e-06	9.889251e-10	2.238096e+01	7.009595e+01
2.590000e-06	3.244389e-06	9.980588e-10	2.264478e+01	7.063019e+01
2.600000e-06	3.281972e-06	1.004875e-09	2.290710e+01	7.114499e+01
2.610000e-06	3.319276e-06	1.010778e-09	2.316747e+01	7.164118e+01
2.620000e-06	3.356350e-06	1.018401e-09	2.342623e+01	7.211951e+01
2.630000e-06	3.393208e-06	1.025570e-09	2.368349e+01	7.258073e+01
2.640000e-06	3.429713e-06	1.033456e-09	2.393828e+01	7.302552e+01
2.650000e-06	3.465966e-06	1.042405e-09	2.419132e+01	7.345453e+01
2.660000e-06	3.502046e-06	1.050447e-09	2.444315e+01	7.386837e+01
2.670000e-06	3.537916e-06	1.057291e-09	2.469350e+01	7.426760e+01
2.680000e-06	3.573654e-06	1.063362e-09	2.494295e+01	7.465274e+01
2.690000e-06	3.609253e-06	1.069201e-09	2.519141e+01	7.502429e+01
2.700000e-06	3.644719e-06	1.074455e-09	2.543896e+01	7.538267e+01
2.710000e-06	3.680051e-06	1.080401e-09	2.568556e+01	7.572830e+01
2.720000e-06	3.715151e-06	1.086753e-09	2.593055e+01	7.606156e+01
2.730000e-06	3.749889e-06	1.091820e-09	2.617301e+01	7.638279e+01
2.740000e-06	3.784167e-06	1.097310e-09	2.641226e+01	7.669230e+01
2.750000e-06	3.818055e-06	1.103554e-09	2.664879e+01	7.699040e+01
2.760000e-06	3.851545e-06	1.106728e-09	2.688254e+01	7.727733e+01
2.770000e-06	3.884528e-06	1.108230e-09	2.711275e+01	7.755337e+01
2.780000e-06	3.917116e-06	1.111673e-09	2.734020e+01	7.781873e+01
2.790000e-06	3.949358e-06	1.117408e-09	2.756523e+01	7.807364e+01
2.800000e-06	3.981283e-06	1.125181e-09	2.778806e+01	7.831831e+01
2.810000e-06	4.013012e-06	1.131696e-09	2.800952e+01	7.855295e+01
2.820000e-06	4.044608e-06	1.134362e-09	2.823005e+01	7.877773e+01
2.830000e-06	4.076024e-06	1.137396e-09	2.844932e+01	7.899287e+01
2.840000e-06	4.107286e-06	1.140014e-09	2.866752e+01	7.919856e+01
2.850000e-06	4.138316e-06	1.139062e-09	2.888410e+01	7.939498e+01
2.860000e-06	4.168939e-06	1.137097e-09	2.909784e+01	7.958235e+01
2.870000e-06	4.199210e-06	1.138695e-09	2.930913e+01	7.976085e+01
2.880000e-06	4.229213e-06	1.143333e-09	2.951853e+01	7.993070e+01
2.890000e-06	4.258954e-06	1.148105e-09	2.972612e+01	8.009211e+01
2.900000e-06	4.288372e-06	1.152090e-09	2.993145e+01	8.024530e+01
