# Temperatura_=_9.4
# Concentracion g/m^3_=_1620.0
# C_Vs_to_Am_M_A/Vsm_=_65563218390.804596
# pendiente_HvsI_1/m_=_3716.3
# ordenada_HvsI_A/m_=_1297.0
# frecuencia_Hz_=_135096.93458257266

Tiempo_(s)	Campo_(V.s)	Magnetizacion_(V.s)	Campo_(kA/m)	Magnetizacion_(A/m)
0.000000e+00	-5.555408e-06	-1.591965e-09	-3.837813e+01	-1.028110e+02
1.000000e-08	-5.555483e-06	-1.585506e-09	-3.837865e+01	-1.028261e+02
2.000000e-08	-5.555251e-06	-1.580799e-09	-3.837704e+01	-1.028435e+02
3.000000e-08	-5.554605e-06	-1.578065e-09	-3.837258e+01	-1.028631e+02
4.000000e-08	-5.553440e-06	-1.576124e-09	-3.836454e+01	-1.028842e+02
5.000000e-08	-5.551735e-06	-1.573212e-09	-3.835276e+01	-1.029065e+02
6.000000e-08	-5.549424e-06	-1.581517e-09	-3.833679e+01	-1.029295e+02
7.000000e-08	-5.546468e-06	-1.583792e-09	-3.831637e+01	-1.029526e+02
8.000000e-08	-5.542974e-06	-1.571122e-09	-3.829223e+01	-1.029754e+02
9.000000e-08	-5.539096e-06	-1.575558e-09	-3.826544e+01	-1.029972e+02
1.000000e-07	-5.534870e-06	-1.610497e-09	-3.823625e+01	-1.030175e+02
1.100000e-07	-5.530306e-06	-1.567053e-09	-3.820472e+01	-1.030357e+02
1.200000e-07	-5.525495e-06	-1.535763e-09	-3.817148e+01	-1.030513e+02
1.300000e-07	-5.520396e-06	-1.520819e-09	-3.813626e+01	-1.030636e+02
1.400000e-07	-5.514924e-06	-1.596758e-09	-3.809846e+01	-1.030722e+02
1.500000e-07	-5.509070e-06	-1.574730e-09	-3.805802e+01	-1.030765e+02
1.600000e-07	-5.502853e-06	-1.520776e-09	-3.801506e+01	-1.030760e+02
1.700000e-07	-5.496282e-06	-1.531052e-09	-3.796967e+01	-1.030702e+02
1.800000e-07	-5.489303e-06	-1.571666e-09	-3.792146e+01	-1.030585e+02
1.900000e-07	-5.481934e-06	-1.580022e-09	-3.787055e+01	-1.030407e+02
2.000000e-07	-5.474253e-06	-1.528011e-09	-3.781749e+01	-1.030162e+02
2.100000e-07	-5.466315e-06	-1.563742e-09	-3.776265e+01	-1.029847e+02
2.200000e-07	-5.458054e-06	-1.580095e-09	-3.770559e+01	-1.029459e+02
2.300000e-07	-5.449454e-06	-1.588726e-09	-3.764617e+01	-1.028996e+02
2.400000e-07	-5.440449e-06	-1.533957e-09	-3.758396e+01	-1.028454e+02
2.500000e-07	-5.430709e-06	-1.550991e-09	-3.751668e+01	-1.027833e+02
2.600000e-07	-5.420202e-06	-1.557181e-09	-3.744409e+01	-1.027131e+02
2.700000e-07	-5.409210e-06	-1.577876e-09	-3.736816e+01	-1.026346e+02
2.800000e-07	-5.397801e-06	-1.548570e-09	-3.728934e+01	-1.025480e+02
2.900000e-07	-5.385965e-06	-1.559824e-09	-3.720758e+01	-1.024531e+02
3.000000e-07	-5.373753e-06	-1.563046e-09	-3.712321e+01	-1.023501e+02
3.100000e-07	-5.361155e-06	-1.573062e-09	-3.703618e+01	-1.022391e+02
3.200000e-07	-5.348113e-06	-1.542130e-09	-3.694608e+01	-1.021202e+02
3.300000e-07	-5.334616e-06	-1.533855e-09	-3.685284e+01	-1.019936e+02
3.400000e-07	-5.320751e-06	-1.555658e-09	-3.675706e+01	-1.018595e+02
3.500000e-07	-5.306484e-06	-1.555999e-09	-3.665850e+01	-1.017183e+02
3.600000e-07	-5.291779e-06	-1.532119e-09	-3.655691e+01	-1.015702e+02
3.700000e-07	-5.276572e-06	-1.538509e-09	-3.645186e+01	-1.014155e+02
3.800000e-07	-5.260766e-06	-1.561802e-09	-3.634267e+01	-1.012546e+02
3.900000e-07	-5.244458e-06	-1.530087e-09	-3.623001e+01	-1.010879e+02
4.000000e-07	-5.227764e-06	-1.521513e-09	-3.611468e+01	-1.009158e+02
4.100000e-07	-5.210749e-06	-1.555010e-09	-3.599714e+01	-1.007385e+02
4.200000e-07	-5.193456e-06	-1.550678e-09	-3.587768e+01	-1.005567e+02
4.300000e-07	-5.175800e-06	-1.493478e-09	-3.575570e+01	-1.003706e+02
4.400000e-07	-5.157720e-06	-1.524681e-09	-3.563080e+01	-1.001807e+02
4.500000e-07	-5.139281e-06	-1.541798e-09	-3.550342e+01	-9.998730e+01
4.600000e-07	-5.120443e-06	-1.504304e-09	-3.537328e+01	-9.979088e+01
4.700000e-07	-5.101254e-06	-1.490139e-09	-3.524072e+01	-9.959180e+01
4.800000e-07	-5.081846e-06	-1.543078e-09	-3.510664e+01	-9.939039e+01
4.900000e-07	-5.062236e-06	-1.508708e-09	-3.497118e+01	-9.918699e+01
5.000000e-07	-5.042404e-06	-1.487240e-09	-3.483417e+01	-9.898192e+01
5.100000e-07	-5.022307e-06	-1.518474e-09	-3.469533e+01	-9.877545e+01
5.200000e-07	-5.001868e-06	-1.519613e-09	-3.455414e+01	-9.856783e+01
5.300000e-07	-4.981020e-06	-1.466677e-09	-3.441011e+01	-9.835930e+01
5.400000e-07	-4.959826e-06	-1.500791e-09	-3.426370e+01	-9.815002e+01
5.500000e-07	-4.938301e-06	-1.513525e-09	-3.411500e+01	-9.794017e+01
5.600000e-07	-4.916438e-06	-1.474150e-09	-3.396397e+01	-9.772985e+01
5.700000e-07	-4.894237e-06	-1.472062e-09	-3.381060e+01	-9.751915e+01
5.800000e-07	-4.871656e-06	-1.509286e-09	-3.365460e+01	-9.730812e+01
5.900000e-07	-4.848663e-06	-1.479460e-09	-3.349576e+01	-9.709677e+01
6.000000e-07	-4.825338e-06	-1.465162e-09	-3.333462e+01	-9.688508e+01
6.100000e-07	-4.801764e-06	-1.485256e-09	-3.317177e+01	-9.667299e+01
6.200000e-07	-4.777971e-06	-1.470726e-09	-3.300740e+01	-9.646044e+01
6.300000e-07	-4.753925e-06	-1.447289e-09	-3.284129e+01	-9.624729e+01
6.400000e-07	-4.729568e-06	-1.464074e-09	-3.267302e+01	-9.603341e+01
6.500000e-07	-4.704876e-06	-1.463246e-09	-3.250245e+01	-9.581864e+01
6.600000e-07	-4.679735e-06	-1.442765e-09	-3.232877e+01	-9.560279e+01
6.700000e-07	-4.654053e-06	-1.455020e-09	-3.215135e+01	-9.538566e+01
6.800000e-07	-4.627758e-06	-1.454288e-09	-3.196969e+01	-9.516703e+01
6.900000e-07	-4.600915e-06	-1.436222e-09	-3.178426e+01	-9.494666e+01
7.000000e-07	-4.573674e-06	-1.436273e-09	-3.159607e+01	-9.472433e+01
7.100000e-07	-4.546095e-06	-1.446128e-09	-3.140555e+01	-9.449977e+01
7.200000e-07	-4.518288e-06	-1.429730e-09	-3.121345e+01	-9.427274e+01
7.300000e-07	-4.490366e-06	-1.431571e-09	-3.102056e+01	-9.404299e+01
7.400000e-07	-4.462268e-06	-1.434284e-09	-3.082645e+01	-9.381027e+01
7.500000e-07	-4.433894e-06	-1.422457e-09	-3.063044e+01	-9.357435e+01
7.600000e-07	-4.405261e-06	-1.405814e-09	-3.043263e+01	-9.333499e+01
7.700000e-07	-4.376321e-06	-1.411384e-09	-3.023270e+01	-9.309199e+01
7.800000e-07	-4.347034e-06	-1.399862e-09	-3.003039e+01	-9.284512e+01
7.900000e-07	-4.317432e-06	-1.395282e-09	-2.982589e+01	-9.259421e+01
8.000000e-07	-4.287557e-06	-1.398535e-09	-2.961950e+01	-9.233909e+01
8.100000e-07	-4.257427e-06	-1.396733e-09	-2.941136e+01	-9.207960e+01
8.200000e-07	-4.227001e-06	-1.372749e-09	-2.920117e+01	-9.181562e+01
8.300000e-07	-4.196197e-06	-1.366868e-09	-2.898837e+01	-9.154704e+01
8.400000e-07	-4.165091e-06	-1.361800e-09	-2.877347e+01	-9.127378e+01
8.500000e-07	-4.133703e-06	-1.352538e-09	-2.855664e+01	-9.099576e+01
8.600000e-07	-4.102078e-06	-1.345871e-09	-2.833817e+01	-9.071296e+01
8.700000e-07	-4.070352e-06	-1.347358e-09	-2.811900e+01	-9.042536e+01
8.800000e-07	-4.038478e-06	-1.337004e-09	-2.789880e+01	-9.013294e+01
8.900000e-07	-4.006388e-06	-1.328560e-09	-2.767711e+01	-8.983576e+01
9.000000e-07	-3.974031e-06	-1.326521e-09	-2.745359e+01	-8.953383e+01
9.100000e-07	-3.941418e-06	-1.319794e-09	-2.722829e+01	-8.922723e+01
9.200000e-07	-3.908374e-06	-1.305580e-09	-2.700001e+01	-8.891604e+01
9.300000e-07	-3.874780e-06	-1.302692e-09	-2.676794e+01	-8.860034e+01
9.400000e-07	-3.840606e-06	-1.302977e-09	-2.653185e+01	-8.828023e+01
9.500000e-07	-3.805926e-06	-1.293329e-09	-2.629228e+01	-8.795584e+01
9.600000e-07	-3.770915e-06	-1.286122e-09	-2.605041e+01	-8.762728e+01
9.700000e-07	-3.735592e-06	-1.281268e-09	-2.580639e+01	-8.729467e+01
9.800000e-07	-3.700070e-06	-1.273992e-09	-2.556100e+01	-8.695816e+01
9.900000e-07	-3.664447e-06	-1.263742e-09	-2.531490e+01	-8.661786e+01
1.000000e-06	-3.628671e-06	-1.264241e-09	-2.506776e+01	-8.627390e+01
1.010000e-06	-3.592780e-06	-1.262349e-09	-2.481981e+01	-8.592642e+01
1.020000e-06	-3.556719e-06	-1.258596e-09	-2.457069e+01	-8.557552e+01
1.030000e-06	-3.520355e-06	-1.254751e-09	-2.431948e+01	-8.522131e+01
1.040000e-06	-3.483765e-06	-1.252275e-09	-2.406671e+01	-8.486389e+01
1.050000e-06	-3.446981e-06	-1.239105e-09	-2.381259e+01	-8.450335e+01
1.060000e-06	-3.409884e-06	-1.230143e-09	-2.355632e+01	-8.413976e+01
1.070000e-06	-3.372475e-06	-1.223891e-09	-2.329789e+01	-8.377318e+01
1.080000e-06	-3.334839e-06	-1.220233e-09	-2.303789e+01	-8.340363e+01
1.090000e-06	-3.296976e-06	-1.215898e-09	-2.277632e+01	-8.303115e+01
1.100000e-06	-3.258839e-06	-1.215195e-09	-2.251287e+01	-8.265574e+01
1.110000e-06	-3.220456e-06	-1.207378e-09	-2.224770e+01	-8.227738e+01
1.120000e-06	-3.181922e-06	-1.197917e-09	-2.198150e+01	-8.189604e+01
1.130000e-06	-3.143186e-06	-1.188663e-09	-2.171391e+01	-8.151166e+01
1.140000e-06	-3.104149e-06	-1.183384e-09	-2.144423e+01	-8.112417e+01
1.150000e-06	-3.064911e-06	-1.175402e-09	-2.117316e+01	-8.073348e+01
1.160000e-06	-3.025602e-06	-1.171465e-09	-2.090160e+01	-8.033947e+01
1.170000e-06	-2.986126e-06	-1.166836e-09	-2.062890e+01	-7.994201e+01
1.180000e-06	-2.946437e-06	-1.164545e-09	-2.035471e+01	-7.954097e+01
1.190000e-06	-2.906599e-06	-1.162962e-09	-2.007950e+01	-7.913617e+01
1.200000e-06	-2.866644e-06	-1.160385e-09	-1.980348e+01	-7.872744e+01
1.210000e-06	-2.826604e-06	-1.153013e-09	-1.952687e+01	-7.831459e+01
1.220000e-06	-2.786427e-06	-1.143564e-09	-1.924933e+01	-7.789742e+01
1.230000e-06	-2.746047e-06	-1.137321e-09	-1.897037e+01	-7.747571e+01
1.240000e-06	-2.705345e-06	-1.129311e-09	-1.868919e+01	-7.704923e+01
1.250000e-06	-2.664369e-06	-1.122020e-09	-1.840612e+01	-7.661776e+01
1.260000e-06	-2.623162e-06	-1.115463e-09	-1.812145e+01	-7.618104e+01
1.270000e-06	-2.581590e-06	-1.107509e-09	-1.783426e+01	-7.573884e+01
1.280000e-06	-2.539682e-06	-1.096601e-09	-1.754475e+01	-7.529089e+01
1.290000e-06	-2.497465e-06	-1.085085e-09	-1.725310e+01	-7.483693e+01
1.300000e-06	-2.454895e-06	-1.076595e-09	-1.695902e+01	-7.437669e+01
1.310000e-06	-2.412105e-06	-1.071269e-09	-1.666342e+01	-7.390991e+01
1.320000e-06	-2.369162e-06	-1.065333e-09	-1.636676e+01	-7.343631e+01
1.330000e-06	-2.326007e-06	-1.057293e-09	-1.606863e+01	-7.295561e+01
1.340000e-06	-2.282631e-06	-1.047092e-09	-1.576898e+01	-7.246752e+01
1.350000e-06	-2.239034e-06	-1.038978e-09	-1.546780e+01	-7.197175e+01
1.360000e-06	-2.195323e-06	-1.027816e-09	-1.516583e+01	-7.146800e+01
1.370000e-06	-2.151525e-06	-1.017343e-09	-1.486327e+01	-7.095597e+01
1.380000e-06	-2.107641e-06	-1.006622e-09	-1.456010e+01	-7.043536e+01
1.390000e-06	-2.063741e-06	-1.000304e-09	-1.425683e+01	-6.990583e+01
1.400000e-06	-2.019760e-06	-9.934686e-10	-1.395300e+01	-6.936705e+01
1.410000e-06	-1.975727e-06	-9.857292e-10	-1.364881e+01	-6.881869e+01
1.420000e-06	-1.931650e-06	-9.741284e-10	-1.334431e+01	-6.826038e+01
1.430000e-06	-1.887435e-06	-9.631839e-10	-1.303887e+01	-6.769175e+01
1.440000e-06	-1.843069e-06	-9.492161e-10	-1.273238e+01	-6.711240e+01
1.450000e-06	-1.798582e-06	-9.356784e-10	-1.242505e+01	-6.652192e+01
1.460000e-06	-1.753898e-06	-9.228707e-10	-1.211636e+01	-6.591988e+01
1.470000e-06	-1.708998e-06	-9.122984e-10	-1.180618e+01	-6.530582e+01
1.480000e-06	-1.663990e-06	-9.021306e-10	-1.149525e+01	-6.467926e+01
1.490000e-06	-1.618879e-06	-8.911452e-10	-1.118362e+01	-6.403968e+01
1.500000e-06	-1.573654e-06	-8.788953e-10	-1.087119e+01	-6.338654e+01
1.510000e-06	-1.528332e-06	-8.672357e-10	-1.055809e+01	-6.271928e+01
1.520000e-06	-1.482917e-06	-8.546032e-10	-1.024436e+01	-6.203730e+01
1.530000e-06	-1.437367e-06	-8.410901e-10	-9.929686e+00	-6.133995e+01
1.540000e-06	-1.391696e-06	-8.262342e-10	-9.614181e+00	-6.062658e+01
1.550000e-06	-1.346008e-06	-8.108608e-10	-9.298558e+00	-5.989649e+01
1.560000e-06	-1.300243e-06	-7.973661e-10	-8.982398e+00	-5.914895e+01
1.570000e-06	-1.254400e-06	-7.841162e-10	-8.665703e+00	-5.838320e+01
1.580000e-06	-1.208505e-06	-7.728693e-10	-8.348648e+00	-5.759845e+01
1.590000e-06	-1.162526e-06	-7.623215e-10	-8.031016e+00	-5.679387e+01
1.600000e-06	-1.116424e-06	-7.514531e-10	-7.712531e+00	-5.596862e+01
1.610000e-06	-1.070176e-06	-7.390391e-10	-7.393042e+00	-5.512184e+01
1.620000e-06	-1.023843e-06	-7.287120e-10	-7.072959e+00	-5.425263e+01
1.630000e-06	-9.773583e-07	-7.183291e-10	-6.751832e+00	-5.336008e+01
1.640000e-06	-9.307642e-07	-7.047628e-10	-6.429948e+00	-5.244328e+01
1.650000e-06	-8.842075e-07	-6.893065e-10	-6.108324e+00	-5.150130e+01
1.660000e-06	-8.376808e-07	-6.750581e-10	-5.786906e+00	-5.053320e+01
1.670000e-06	-7.909708e-07	-6.588619e-10	-5.464221e+00	-4.953805e+01
1.680000e-06	-7.441699e-07	-6.432296e-10	-5.140910e+00	-4.851494e+01
1.690000e-06	-6.973557e-07	-6.272578e-10	-4.817505e+00	-4.746295e+01
1.700000e-06	-6.505230e-07	-6.120493e-10	-4.493974e+00	-4.638121e+01
1.710000e-06	-6.037277e-07	-5.971681e-10	-4.170700e+00	-4.526885e+01
1.720000e-06	-5.568891e-07	-5.813071e-10	-3.847127e+00	-4.412505e+01
1.730000e-06	-5.100051e-07	-5.630341e-10	-3.523241e+00	-4.294904e+01
1.740000e-06	-4.630586e-07	-5.446895e-10	-3.198923e+00	-4.174007e+01
1.750000e-06	-4.160546e-07	-5.238850e-10	-2.874208e+00	-4.049748e+01
1.760000e-06	-3.689432e-07	-5.003697e-10	-2.548751e+00	-3.922066e+01
1.770000e-06	-3.217645e-07	-4.790323e-10	-2.222829e+00	-3.790907e+01
1.780000e-06	-2.746047e-07	-4.627453e-10	-1.897037e+00	-3.656225e+01
1.790000e-06	-2.274686e-07	-4.472580e-10	-1.571409e+00	-3.517984e+01
1.800000e-06	-1.803060e-07	-4.304316e-10	-1.245598e+00	-3.376155e+01
1.810000e-06	-1.331178e-07	-4.133615e-10	-9.196107e-01	-3.230722e+01
1.820000e-06	-8.591361e-08	-3.947896e-10	-5.935124e-01	-3.081675e+01
1.830000e-06	-3.865195e-08	-3.733711e-10	-2.670172e-01	-2.929019e+01
1.840000e-06	8.577903e-09	-3.521495e-10	5.925827e-02	-2.772770e+01
1.850000e-06	5.578798e-08	-3.299016e-10	3.853972e-01	-2.612955e+01
1.860000e-06	1.030154e-07	-3.043557e-10	7.116561e-01	-2.449613e+01
1.870000e-06	1.501929e-07	-2.795039e-10	1.037569e+00	-2.282797e+01
1.880000e-06	1.974324e-07	-2.565469e-10	1.363912e+00	-2.112571e+01
1.890000e-06	2.447017e-07	-2.342179e-10	1.690460e+00	-1.939015e+01
1.900000e-06	2.918429e-07	-2.080991e-10	2.016123e+00	-1.762219e+01
1.910000e-06	3.388554e-07	-1.808695e-10	2.340896e+00	-1.582289e+01
1.920000e-06	3.858820e-07	-1.529929e-10	2.665768e+00	-1.399340e+01
1.930000e-06	4.328937e-07	-1.253081e-10	2.990537e+00	-1.213503e+01
1.940000e-06	4.798206e-07	-9.816183e-11	3.314719e+00	-1.024920e+01
1.950000e-06	5.267536e-07	-7.210389e-11	3.638944e+00	-8.337468e+00
1.960000e-06	5.736354e-07	-4.939280e-11	3.962815e+00	-6.401481e+00
1.970000e-06	6.204223e-07	-2.407985e-11	4.286030e+00	-4.443015e+00
1.980000e-06	6.671221e-07	3.644905e-12	4.608644e+00	-2.463943e+00
1.990000e-06	7.137247e-07	3.539322e-11	4.930586e+00	-4.662390e-01
2.000000e-06	7.602813e-07	7.015474e-11	5.252211e+00	1.548035e+00
2.010000e-06	8.068309e-07	1.010449e-10	5.573787e+00	3.576738e+00
2.020000e-06	8.533336e-07	1.287046e-10	5.895039e+00	5.617652e+00
2.030000e-06	8.998397e-07	1.520621e-10	6.216315e+00	7.668503e+00
2.040000e-06	9.463039e-07	1.738251e-10	6.537301e+00	9.726958e+00
2.050000e-06	9.926297e-07	2.004957e-10	6.857331e+00	1.179065e+01
2.060000e-06	1.038889e-06	2.350401e-10	7.176900e+00	1.385717e+01
2.070000e-06	1.085101e-06	2.758180e-10	7.496145e+00	1.592410e+01
2.080000e-06	1.131268e-06	3.126943e-10	7.815076e+00	1.798900e+01
2.090000e-06	1.177361e-06	3.446148e-10	8.133501e+00	2.004945e+01
2.100000e-06	1.223336e-06	3.717485e-10	8.451104e+00	2.210303e+01
2.110000e-06	1.269185e-06	3.927989e-10	8.767843e+00	2.414735e+01
2.120000e-06	1.314849e-06	4.159086e-10	9.083303e+00	2.618005e+01
2.130000e-06	1.360371e-06	4.438315e-10	9.397776e+00	2.819883e+01
2.140000e-06	1.405862e-06	4.744550e-10	9.712040e+00	3.020142e+01
2.150000e-06	1.451389e-06	5.068305e-10	1.002655e+01	3.218565e+01
2.160000e-06	1.496845e-06	5.403206e-10	1.034057e+01	3.414941e+01
2.170000e-06	1.542164e-06	5.725604e-10	1.065365e+01	3.609067e+01
2.180000e-06	1.587359e-06	6.017786e-10	1.096587e+01	3.800751e+01
2.190000e-06	1.632407e-06	6.259152e-10	1.127707e+01	3.989808e+01
2.200000e-06	1.677328e-06	6.469545e-10	1.158739e+01	4.176068e+01
2.210000e-06	1.722121e-06	6.672130e-10	1.189684e+01	4.359369e+01
2.220000e-06	1.766771e-06	6.897369e-10	1.220529e+01	4.539563e+01
2.230000e-06	1.811293e-06	7.156271e-10	1.251286e+01	4.716513e+01
2.240000e-06	1.855695e-06	7.444055e-10	1.281960e+01	4.890095e+01
2.250000e-06	1.899950e-06	7.731005e-10	1.312532e+01	5.060200e+01
2.260000e-06	1.944072e-06	7.988956e-10	1.343013e+01	5.226728e+01
2.270000e-06	1.988090e-06	8.204271e-10	1.373422e+01	5.389596e+01
2.280000e-06	2.032053e-06	8.384485e-10	1.403792e+01	5.548732e+01
2.290000e-06	2.075979e-06	8.534605e-10	1.434138e+01	5.704079e+01
2.300000e-06	2.119859e-06	8.681617e-10	1.464451e+01	5.855592e+01
2.310000e-06	2.163691e-06	8.853499e-10	1.494731e+01	6.003238e+01
2.320000e-06	2.207458e-06	9.065210e-10	1.524966e+01	6.146998e+01
2.330000e-06	2.251080e-06	9.308824e-10	1.555102e+01	6.286863e+01
2.340000e-06	2.294508e-06	9.551745e-10	1.585103e+01	6.422838e+01
2.350000e-06	2.337747e-06	9.773792e-10	1.614973e+01	6.554936e+01
2.360000e-06	2.380774e-06	9.950105e-10	1.644697e+01	6.683183e+01
2.370000e-06	2.423595e-06	1.007033e-09	1.674280e+01	6.807614e+01
2.380000e-06	2.466215e-06	1.016024e-09	1.703722e+01	6.928271e+01
2.390000e-06	2.508405e-06	1.027316e-09	1.732868e+01	7.045209e+01
2.400000e-06	2.550276e-06	1.042811e-09	1.761793e+01	7.158485e+01
2.410000e-06	2.591929e-06	1.061177e-09	1.790569e+01	7.268167e+01
2.420000e-06	2.633212e-06	1.075933e-09	1.819088e+01	7.374328e+01
2.430000e-06	2.674329e-06	1.087301e-09	1.847493e+01	7.477045e+01
2.440000e-06	2.715181e-06	1.098042e-09	1.875714e+01	7.576401e+01
2.450000e-06	2.755662e-06	1.108490e-09	1.903679e+01	7.672483e+01
2.460000e-06	2.795965e-06	1.119959e-09	1.931522e+01	7.765379e+01
2.470000e-06	2.836124e-06	1.131160e-09	1.959264e+01	7.855182e+01
2.480000e-06	2.876108e-06	1.141960e-09	1.986886e+01	7.941984e+01
2.490000e-06	2.915907e-06	1.154557e-09	2.014380e+01	8.025880e+01
2.500000e-06	2.955547e-06	1.166810e-09	2.041765e+01	8.106964e+01
2.510000e-06	2.995068e-06	1.177030e-09	2.069067e+01	8.185329e+01
2.520000e-06	3.034483e-06	1.184340e-09	2.096296e+01	8.261070e+01
2.530000e-06	3.073760e-06	1.190638e-09	2.123429e+01	8.334277e+01
2.540000e-06	3.112806e-06	1.198244e-09	2.150403e+01	8.405041e+01
2.550000e-06	3.151641e-06	1.206538e-09	2.177232e+01	8.473450e+01
2.560000e-06	3.190214e-06	1.217185e-09	2.203878e+01	8.539588e+01
2.570000e-06	3.228572e-06	1.229730e-09	2.230377e+01	8.603539e+01
2.580000e-06	3.266723e-06	1.241029e-09	2.256733e+01	8.665381e+01
2.590000e-06	3.304639e-06	1.250391e-09	2.282926e+01	8.725191e+01
2.600000e-06	3.342401e-06	1.258208e-09	2.309013e+01	8.783042e+01
2.610000e-06	3.379903e-06	1.264836e-09	2.334920e+01	8.839004e+01
2.620000e-06	3.417173e-06	1.271955e-09	2.360668e+01	8.893141e+01
2.630000e-06	3.454222e-06	1.279588e-09	2.386262e+01	8.945518e+01
2.640000e-06	3.490971e-06	1.288849e-09	2.411649e+01	8.996194e+01
2.650000e-06	3.527415e-06	1.297014e-09	2.436825e+01	9.045225e+01
2.660000e-06	3.563655e-06	1.304630e-09	2.461861e+01	9.092664e+01
2.670000e-06	3.599753e-06	1.311794e-09	2.486798e+01	9.138562e+01
2.680000e-06	3.635671e-06	1.318065e-09	2.511611e+01	9.182966e+01
2.690000e-06	3.671459e-06	1.325475e-09	2.536334e+01	9.225923e+01
2.700000e-06	3.707114e-06	1.332909e-09	2.560966e+01	9.267475e+01
2.710000e-06	3.742537e-06	1.339361e-09	2.585437e+01	9.307664e+01
2.720000e-06	3.777730e-06	1.344822e-09	2.609749e+01	9.346529e+01
2.730000e-06	3.812588e-06	1.349070e-09	2.633830e+01	9.384108e+01
2.740000e-06	3.846982e-06	1.354671e-09	2.657590e+01	9.420439e+01
2.750000e-06	3.880968e-06	1.360495e-09	2.681068e+01	9.455558e+01
2.760000e-06	3.914476e-06	1.366181e-09	2.704217e+01	9.489499e+01
2.770000e-06	3.947499e-06	1.374262e-09	2.727030e+01	9.522299e+01
2.780000e-06	3.980092e-06	1.384152e-09	2.749546e+01	9.553991e+01
2.790000e-06	4.012333e-06	1.393701e-09	2.771819e+01	9.584611e+01
2.800000e-06	4.044366e-06	1.398949e-09	2.793948e+01	9.614192e+01
2.810000e-06	4.076274e-06	1.398553e-09	2.815991e+01	9.642770e+01
2.820000e-06	4.108053e-06	1.398034e-09	2.837944e+01	9.670379e+01
2.830000e-06	4.139615e-06	1.402784e-09	2.859748e+01	9.697056e+01
2.840000e-06	4.170898e-06	1.409841e-09	2.881360e+01	9.722834e+01
2.850000e-06	4.201880e-06	1.414423e-09	2.902762e+01	9.747752e+01
2.860000e-06	4.232544e-06	1.417405e-09	2.923946e+01	9.771844e+01
2.870000e-06	4.262937e-06	1.423762e-09	2.944942e+01	9.795146e+01
2.880000e-06	4.293046e-06	1.430450e-09	2.965742e+01	9.817697e+01
2.890000e-06	4.322893e-06	1.436129e-09	2.986361e+01	9.839532e+01
2.900000e-06	4.352485e-06	1.437940e-09	3.006804e+01	9.860688e+01
