# Temperatura_=_15.4
# Concentracion g/m^3_=_1620.0
# C_Vs_to_Am_M_A/Vsm_=_65563218390.804596
# pendiente_HvsI_1/m_=_3716.3
# ordenada_HvsI_A/m_=_1297.0
# frecuencia_Hz_=_135094.3098408569

Tiempo_(s)	Campo_(V.s)	Magnetizacion_(V.s)	Campo_(kA/m)	Magnetizacion_(A/m)
0.000000e+00	-5.524473e-06	-1.583744e-09	-3.837044e+01	-1.025800e+02
1.000000e-08	-5.524628e-06	-1.582046e-09	-3.837151e+01	-1.025898e+02
2.000000e-08	-5.524566e-06	-1.581885e-09	-3.837108e+01	-1.026008e+02
3.000000e-08	-5.524284e-06	-1.580619e-09	-3.836913e+01	-1.026126e+02
4.000000e-08	-5.523693e-06	-1.580717e-09	-3.836502e+01	-1.026246e+02
5.000000e-08	-5.522624e-06	-1.578946e-09	-3.835760e+01	-1.026364e+02
6.000000e-08	-5.520908e-06	-1.568997e-09	-3.834568e+01	-1.026475e+02
7.000000e-08	-5.518467e-06	-1.555793e-09	-3.832872e+01	-1.026572e+02
8.000000e-08	-5.515440e-06	-1.556149e-09	-3.830770e+01	-1.026651e+02
9.000000e-08	-5.511851e-06	-1.618726e-09	-3.828277e+01	-1.026705e+02
1.000000e-07	-5.507879e-06	-1.680883e-09	-3.825519e+01	-1.026729e+02
1.100000e-07	-5.503673e-06	-1.617114e-09	-3.822597e+01	-1.026718e+02
1.200000e-07	-5.499204e-06	-1.490770e-09	-3.819493e+01	-1.026665e+02
1.300000e-07	-5.494650e-06	-1.478982e-09	-3.816330e+01	-1.026566e+02
1.400000e-07	-5.489697e-06	-1.600913e-09	-3.812890e+01	-1.026416e+02
1.500000e-07	-5.484142e-06	-1.626405e-09	-3.809032e+01	-1.026209e+02
1.600000e-07	-5.478211e-06	-1.511412e-09	-3.804913e+01	-1.025942e+02
1.700000e-07	-5.471999e-06	-1.492830e-09	-3.800598e+01	-1.025609e+02
1.800000e-07	-5.465277e-06	-1.591562e-09	-3.795929e+01	-1.025208e+02
1.900000e-07	-5.458068e-06	-1.653506e-09	-3.790922e+01	-1.024734e+02
2.000000e-07	-5.450587e-06	-1.531922e-09	-3.785726e+01	-1.024186e+02
2.100000e-07	-5.442874e-06	-1.492290e-09	-3.780369e+01	-1.023559e+02
2.200000e-07	-5.434936e-06	-1.559466e-09	-3.774855e+01	-1.022854e+02
2.300000e-07	-5.426758e-06	-1.636460e-09	-3.769176e+01	-1.022068e+02
2.400000e-07	-5.418356e-06	-1.572616e-09	-3.763340e+01	-1.021200e+02
2.500000e-07	-5.409433e-06	-1.522913e-09	-3.757142e+01	-1.020251e+02
2.600000e-07	-5.399713e-06	-1.547593e-09	-3.750391e+01	-1.019220e+02
2.700000e-07	-5.389316e-06	-1.584051e-09	-3.743170e+01	-1.018109e+02
2.800000e-07	-5.378416e-06	-1.556247e-09	-3.735600e+01	-1.016919e+02
2.900000e-07	-5.366985e-06	-1.525976e-09	-3.727660e+01	-1.015652e+02
3.000000e-07	-5.355105e-06	-1.559343e-09	-3.719408e+01	-1.014310e+02
3.100000e-07	-5.342887e-06	-1.564475e-09	-3.710922e+01	-1.012895e+02
3.200000e-07	-5.330231e-06	-1.528336e-09	-3.702132e+01	-1.011413e+02
3.300000e-07	-5.317110e-06	-1.494657e-09	-3.693019e+01	-1.009865e+02
3.400000e-07	-5.303679e-06	-1.547186e-09	-3.683690e+01	-1.008256e+02
3.500000e-07	-5.289943e-06	-1.557859e-09	-3.674150e+01	-1.006591e+02
3.600000e-07	-5.275793e-06	-1.533589e-09	-3.664322e+01	-1.004874e+02
3.700000e-07	-5.261238e-06	-1.517306e-09	-3.654213e+01	-1.003109e+02
3.800000e-07	-5.246229e-06	-1.549612e-09	-3.643789e+01	-1.001303e+02
3.900000e-07	-5.230618e-06	-1.512506e-09	-3.632946e+01	-9.994588e+01
4.000000e-07	-5.214299e-06	-1.488731e-09	-3.621611e+01	-9.975828e+01
4.100000e-07	-5.197543e-06	-1.524343e-09	-3.609973e+01	-9.956799e+01
4.200000e-07	-5.180593e-06	-1.546931e-09	-3.598201e+01	-9.937551e+01
4.300000e-07	-5.163212e-06	-1.489641e-09	-3.586129e+01	-9.918133e+01
4.400000e-07	-5.145538e-06	-1.507874e-09	-3.573853e+01	-9.898592e+01
4.500000e-07	-5.127703e-06	-1.551360e-09	-3.561465e+01	-9.878973e+01
4.600000e-07	-5.109421e-06	-1.509962e-09	-3.548768e+01	-9.859321e+01
4.700000e-07	-5.090610e-06	-1.456334e-09	-3.535702e+01	-9.839673e+01
4.800000e-07	-5.071386e-06	-1.506212e-09	-3.522351e+01	-9.820067e+01
4.900000e-07	-5.051903e-06	-1.511134e-09	-3.508818e+01	-9.800534e+01
5.000000e-07	-5.032199e-06	-1.470600e-09	-3.495133e+01	-9.781103e+01
5.100000e-07	-5.012279e-06	-1.495298e-09	-3.481297e+01	-9.761798e+01
5.200000e-07	-4.992220e-06	-1.518592e-09	-3.467366e+01	-9.742637e+01
5.300000e-07	-4.971855e-06	-1.461997e-09	-3.453221e+01	-9.723636e+01
5.400000e-07	-4.951019e-06	-1.470961e-09	-3.438749e+01	-9.704803e+01
5.500000e-07	-4.929796e-06	-1.523171e-09	-3.424009e+01	-9.686144e+01
5.600000e-07	-4.908209e-06	-1.480824e-09	-3.409015e+01	-9.667657e+01
5.700000e-07	-4.886307e-06	-1.440380e-09	-3.393804e+01	-9.649337e+01
5.800000e-07	-4.864170e-06	-1.487689e-09	-3.378428e+01	-9.631175e+01
5.900000e-07	-4.841687e-06	-1.491372e-09	-3.362812e+01	-9.613155e+01
6.000000e-07	-4.818709e-06	-1.445036e-09	-3.346853e+01	-9.595258e+01
6.100000e-07	-4.795344e-06	-1.467245e-09	-3.330625e+01	-9.577461e+01
6.200000e-07	-4.771740e-06	-1.482246e-09	-3.314230e+01	-9.559737e+01
6.300000e-07	-4.747876e-06	-1.445240e-09	-3.297656e+01	-9.542055e+01
6.400000e-07	-4.723847e-06	-1.443302e-09	-3.280966e+01	-9.524381e+01
6.500000e-07	-4.699677e-06	-1.469621e-09	-3.264179e+01	-9.506678e+01
6.600000e-07	-4.675082e-06	-1.441882e-09	-3.247096e+01	-9.488908e+01
6.700000e-07	-4.650046e-06	-1.439206e-09	-3.229708e+01	-9.471028e+01
6.800000e-07	-4.624581e-06	-1.461654e-09	-3.212020e+01	-9.452998e+01
6.900000e-07	-4.598471e-06	-1.448083e-09	-3.193885e+01	-9.434773e+01
7.000000e-07	-4.571760e-06	-1.422343e-09	-3.175333e+01	-9.416311e+01
7.100000e-07	-4.544556e-06	-1.441979e-09	-3.156439e+01	-9.397566e+01
7.200000e-07	-4.516976e-06	-1.433648e-09	-3.137283e+01	-9.378496e+01
7.300000e-07	-4.489179e-06	-1.410474e-09	-3.117976e+01	-9.359059e+01
7.400000e-07	-4.461238e-06	-1.417632e-09	-3.098570e+01	-9.339213e+01
7.500000e-07	-4.433167e-06	-1.428940e-09	-3.079073e+01	-9.318919e+01
7.600000e-07	-4.404936e-06	-1.407314e-09	-3.059465e+01	-9.298140e+01
7.700000e-07	-4.376455e-06	-1.407907e-09	-3.039683e+01	-9.276841e+01
7.800000e-07	-4.347624e-06	-1.412983e-09	-3.019659e+01	-9.254991e+01
7.900000e-07	-4.318380e-06	-1.396770e-09	-2.999347e+01	-9.232561e+01
8.000000e-07	-4.288809e-06	-1.388902e-09	-2.978809e+01	-9.209525e+01
8.100000e-07	-4.258975e-06	-1.398771e-09	-2.958087e+01	-9.185863e+01
8.200000e-07	-4.228904e-06	-1.382222e-09	-2.937201e+01	-9.161557e+01
8.300000e-07	-4.198558e-06	-1.365230e-09	-2.916125e+01	-9.136591e+01
8.400000e-07	-4.167858e-06	-1.375057e-09	-2.894802e+01	-9.110957e+01
8.500000e-07	-4.136902e-06	-1.374975e-09	-2.873301e+01	-9.084647e+01
8.600000e-07	-4.105633e-06	-1.359733e-09	-2.851583e+01	-9.057660e+01
8.700000e-07	-4.074065e-06	-1.360171e-09	-2.829658e+01	-9.029998e+01
8.800000e-07	-4.042305e-06	-1.359177e-09	-2.807599e+01	-9.001665e+01
8.900000e-07	-4.010367e-06	-1.340660e-09	-2.785416e+01	-8.972670e+01
9.000000e-07	-3.978319e-06	-1.337586e-09	-2.763157e+01	-8.943026e+01
9.100000e-07	-3.946103e-06	-1.341068e-09	-2.740781e+01	-8.912747e+01
9.200000e-07	-3.913541e-06	-1.330168e-09	-2.718165e+01	-8.881853e+01
9.300000e-07	-3.880652e-06	-1.320900e-09	-2.695322e+01	-8.850363e+01
9.400000e-07	-3.847397e-06	-1.328119e-09	-2.672224e+01	-8.818301e+01
9.500000e-07	-3.813581e-06	-1.319638e-09	-2.648738e+01	-8.785692e+01
9.600000e-07	-3.779287e-06	-1.305139e-09	-2.624918e+01	-8.752562e+01
9.700000e-07	-3.744665e-06	-1.301235e-09	-2.600872e+01	-8.718938e+01
9.800000e-07	-3.709608e-06	-1.298062e-09	-2.576523e+01	-8.684850e+01
9.900000e-07	-3.674166e-06	-1.284033e-09	-2.551906e+01	-8.650324e+01
1.000000e-06	-3.638475e-06	-1.282812e-09	-2.527117e+01	-8.615392e+01
1.010000e-06	-3.602601e-06	-1.282919e-09	-2.502200e+01	-8.580080e+01
1.020000e-06	-3.566680e-06	-1.274915e-09	-2.477251e+01	-8.544416e+01
1.030000e-06	-3.530630e-06	-1.266775e-09	-2.452213e+01	-8.508428e+01
1.040000e-06	-3.494443e-06	-1.268438e-09	-2.427079e+01	-8.472140e+01
1.050000e-06	-3.458150e-06	-1.259455e-09	-2.401871e+01	-8.435575e+01
1.060000e-06	-3.421551e-06	-1.245375e-09	-2.376451e+01	-8.398755e+01
1.070000e-06	-3.384589e-06	-1.239714e-09	-2.350779e+01	-8.361699e+01
1.080000e-06	-3.347315e-06	-1.237183e-09	-2.324890e+01	-8.324424e+01
1.090000e-06	-3.309773e-06	-1.228302e-09	-2.298815e+01	-8.286943e+01
1.100000e-06	-3.272061e-06	-1.226324e-09	-2.272623e+01	-8.249267e+01
1.110000e-06	-3.234109e-06	-1.225352e-09	-2.246263e+01	-8.211406e+01
1.120000e-06	-3.195908e-06	-1.214154e-09	-2.219730e+01	-8.173362e+01
1.130000e-06	-3.157477e-06	-1.203070e-09	-2.193038e+01	-8.135139e+01
1.140000e-06	-3.118796e-06	-1.198058e-09	-2.166172e+01	-8.096734e+01
1.150000e-06	-3.079908e-06	-1.191545e-09	-2.139162e+01	-8.058143e+01
1.160000e-06	-3.040884e-06	-1.184718e-09	-2.112058e+01	-8.019358e+01
1.170000e-06	-3.001663e-06	-1.179686e-09	-2.084817e+01	-7.980368e+01
1.180000e-06	-2.962235e-06	-1.171661e-09	-2.057432e+01	-7.941159e+01
1.190000e-06	-2.922665e-06	-1.164458e-09	-2.029948e+01	-7.901713e+01
1.200000e-06	-2.882901e-06	-1.159200e-09	-2.002330e+01	-7.862013e+01
1.210000e-06	-2.842997e-06	-1.154348e-09	-1.974614e+01	-7.822034e+01
1.220000e-06	-2.802985e-06	-1.146261e-09	-1.946824e+01	-7.781752e+01
1.230000e-06	-2.762872e-06	-1.141980e-09	-1.918964e+01	-7.741140e+01
1.240000e-06	-2.722636e-06	-1.138456e-09	-1.891017e+01	-7.700170e+01
1.250000e-06	-2.682183e-06	-1.130529e-09	-1.862920e+01	-7.658809e+01
1.260000e-06	-2.641473e-06	-1.121434e-09	-1.834645e+01	-7.617026e+01
1.270000e-06	-2.600543e-06	-1.116813e-09	-1.806217e+01	-7.574785e+01
1.280000e-06	-2.559466e-06	-1.109052e-09	-1.777687e+01	-7.532053e+01
1.290000e-06	-2.518162e-06	-1.099349e-09	-1.748999e+01	-7.488790e+01
1.300000e-06	-2.476496e-06	-1.090577e-09	-1.720060e+01	-7.444961e+01
1.310000e-06	-2.434485e-06	-1.082522e-09	-1.690881e+01	-7.400527e+01
1.320000e-06	-2.392253e-06	-1.070400e-09	-1.661548e+01	-7.355447e+01
1.330000e-06	-2.349680e-06	-1.062307e-09	-1.631979e+01	-7.309682e+01
1.340000e-06	-2.306743e-06	-1.055195e-09	-1.602157e+01	-7.263192e+01
1.350000e-06	-2.263630e-06	-1.048250e-09	-1.572213e+01	-7.215936e+01
1.360000e-06	-2.220380e-06	-1.041404e-09	-1.542173e+01	-7.167871e+01
1.370000e-06	-2.176914e-06	-1.034053e-09	-1.511984e+01	-7.118956e+01
1.380000e-06	-2.133195e-06	-1.024087e-09	-1.481618e+01	-7.069149e+01
1.390000e-06	-2.089334e-06	-1.011640e-09	-1.451155e+01	-7.018407e+01
1.400000e-06	-2.045413e-06	-9.989035e-10	-1.420649e+01	-6.966685e+01
1.410000e-06	-2.001436e-06	-9.884959e-10	-1.390105e+01	-6.913941e+01
1.420000e-06	-1.957361e-06	-9.795176e-10	-1.359492e+01	-6.860127e+01
1.430000e-06	-1.913259e-06	-9.717337e-10	-1.328862e+01	-6.805199e+01
1.440000e-06	-1.869079e-06	-9.645772e-10	-1.298176e+01	-6.749109e+01
1.450000e-06	-1.824782e-06	-9.533139e-10	-1.267409e+01	-6.691808e+01
1.460000e-06	-1.780465e-06	-9.384514e-10	-1.236629e+01	-6.633248e+01
1.470000e-06	-1.736007e-06	-9.232760e-10	-1.205750e+01	-6.573376e+01
1.480000e-06	-1.691317e-06	-9.108402e-10	-1.174711e+01	-6.512140e+01
1.490000e-06	-1.646532e-06	-8.999892e-10	-1.143605e+01	-6.449483e+01
1.500000e-06	-1.601673e-06	-8.882102e-10	-1.112448e+01	-6.385350e+01
1.510000e-06	-1.556691e-06	-8.738095e-10	-1.081205e+01	-6.319680e+01
1.520000e-06	-1.511564e-06	-8.620093e-10	-1.049863e+01	-6.252412e+01
1.530000e-06	-1.466315e-06	-8.513471e-10	-1.018435e+01	-6.183481e+01
1.540000e-06	-1.421005e-06	-8.396397e-10	-9.869645e+00	-6.112822e+01
1.550000e-06	-1.375622e-06	-8.258231e-10	-9.554438e+00	-6.040363e+01
1.560000e-06	-1.330154e-06	-8.131838e-10	-9.238633e+00	-5.966035e+01
1.570000e-06	-1.284545e-06	-8.027446e-10	-8.921858e+00	-5.889761e+01
1.580000e-06	-1.238871e-06	-7.920974e-10	-8.604626e+00	-5.811466e+01
1.590000e-06	-1.193160e-06	-7.785762e-10	-8.287141e+00	-5.731069e+01
1.600000e-06	-1.147301e-06	-7.647573e-10	-7.968620e+00	-5.648489e+01
1.610000e-06	-1.101317e-06	-7.495122e-10	-7.649242e+00	-5.563643e+01
1.620000e-06	-1.055281e-06	-7.347580e-10	-7.329497e+00	-5.476445e+01
1.630000e-06	-1.009204e-06	-7.209784e-10	-7.009468e+00	-5.386807e+01
1.640000e-06	-9.629688e-07	-7.075604e-10	-6.688337e+00	-5.294643e+01
1.650000e-06	-9.166270e-07	-6.915219e-10	-6.366468e+00	-5.199863e+01
1.660000e-06	-8.703432e-07	-6.750916e-10	-6.045002e+00	-5.102378e+01
1.670000e-06	-8.240534e-07	-6.601294e-10	-5.723494e+00	-5.002100e+01
1.680000e-06	-7.777140e-07	-6.437271e-10	-5.401643e+00	-4.898941e+01
1.690000e-06	-7.313058e-07	-6.279963e-10	-5.079312e+00	-4.792815e+01
1.700000e-06	-6.848622e-07	-6.105921e-10	-4.756737e+00	-4.683636e+01
1.710000e-06	-6.384297e-07	-5.933192e-10	-4.434238e+00	-4.571323e+01
1.720000e-06	-5.919933e-07	-5.791792e-10	-4.111712e+00	-4.455799e+01
1.730000e-06	-5.454704e-07	-5.637149e-10	-3.788586e+00	-4.336988e+01
1.740000e-06	-4.986989e-07	-5.435397e-10	-3.463732e+00	-4.214822e+01
1.750000e-06	-4.518904e-07	-5.226852e-10	-3.138622e+00	-4.089236e+01
1.760000e-06	-4.051241e-07	-5.024249e-10	-2.813805e+00	-3.960173e+01
1.770000e-06	-3.582836e-07	-4.815027e-10	-2.488472e+00	-3.827583e+01
1.780000e-06	-3.114297e-07	-4.624913e-10	-2.163047e+00	-3.691422e+01
1.790000e-06	-2.645406e-07	-4.444478e-10	-1.837377e+00	-3.551658e+01
1.800000e-06	-2.176686e-07	-4.250519e-10	-1.511826e+00	-3.408265e+01
1.810000e-06	-1.708624e-07	-4.061883e-10	-1.186731e+00	-3.261228e+01
1.820000e-06	-1.240802e-07	-3.862220e-10	-8.618041e-01	-3.110543e+01
1.830000e-06	-7.727356e-08	-3.644097e-10	-5.367065e-01	-2.956217e+01
1.840000e-06	-3.042806e-08	-3.416313e-10	-2.113393e-01	-2.798268e+01
1.850000e-06	1.648847e-08	-3.206098e-10	1.145213e-01	-2.636725e+01
1.860000e-06	6.342699e-08	-3.002942e-10	4.405346e-01	-2.471633e+01
1.870000e-06	1.104181e-07	-2.773703e-10	7.669133e-01	-2.303047e+01
1.880000e-06	1.574007e-07	-2.535279e-10	1.093232e+00	-2.131035e+01
1.890000e-06	2.042502e-07	-2.292805e-10	1.418627e+00	-1.955679e+01
1.900000e-06	2.509590e-07	-2.037008e-10	1.743045e+00	-1.777076e+01
1.910000e-06	2.975910e-07	-1.774570e-10	2.066929e+00	-1.595334e+01
1.920000e-06	3.442974e-07	-1.503667e-10	2.391331e+00	-1.410574e+01
1.930000e-06	3.910537e-07	-1.239707e-10	2.716078e+00	-1.222932e+01
1.940000e-06	4.377626e-07	-9.979438e-11	3.040497e+00	-1.032555e+01
1.950000e-06	4.844335e-07	-7.489462e-11	3.364651e+00	-8.396042e+00
1.960000e-06	5.310453e-07	-4.797823e-11	3.688395e+00	-6.442515e+00
1.970000e-06	5.776095e-07	-2.018611e-11	4.011809e+00	-4.466808e+00
1.980000e-06	6.241361e-07	8.265167e-12	4.334961e+00	-2.470864e+00
1.990000e-06	6.705699e-07	3.465481e-11	4.657469e+00	-4.567317e-01
2.000000e-06	7.169337e-07	6.513334e-11	4.979491e+00	1.573450e+00
2.010000e-06	7.632100e-07	9.710798e-11	5.300905e+00	3.617457e+00
2.020000e-06	8.094651e-07	1.257550e-10	5.622171e+00	5.672990e+00
2.030000e-06	8.557355e-07	1.534269e-10	5.943544e+00	7.737684e+00
2.040000e-06	9.019920e-07	1.802285e-10	6.264820e+00	9.809120e+00
2.050000e-06	9.481794e-07	2.100978e-10	6.585616e+00	1.188483e+01
2.060000e-06	9.942849e-07	2.424518e-10	6.905844e+00	1.396233e+01
2.070000e-06	1.040367e-06	2.769459e-10	7.225910e+00	1.603909e+01
2.080000e-06	1.086353e-06	3.105648e-10	7.545309e+00	1.811259e+01
2.090000e-06	1.132228e-06	3.423189e-10	7.863931e+00	2.018031e+01
2.100000e-06	1.178063e-06	3.687541e-10	8.182285e+00	2.223973e+01
2.110000e-06	1.223849e-06	3.942583e-10	8.500293e+00	2.428839e+01
2.120000e-06	1.269538e-06	4.214303e-10	8.817625e+00	2.632383e+01
2.130000e-06	1.315052e-06	4.504527e-10	9.133747e+00	2.834366e+01
2.140000e-06	1.360403e-06	4.790994e-10	9.448731e+00	3.034555e+01
2.150000e-06	1.405648e-06	5.070092e-10	9.762979e+00	3.232724e+01
2.160000e-06	1.450909e-06	5.360816e-10	1.007734e+01	3.428656e+01
2.170000e-06	1.496139e-06	5.617570e-10	1.039149e+01	3.622142e+01
2.180000e-06	1.541141e-06	5.861384e-10	1.070406e+01	3.812983e+01
2.190000e-06	1.586054e-06	6.132191e-10	1.101600e+01	4.000993e+01
2.200000e-06	1.630890e-06	6.409334e-10	1.132741e+01	4.185995e+01
2.210000e-06	1.675546e-06	6.680489e-10	1.163757e+01	4.367826e+01
2.220000e-06	1.720083e-06	6.943487e-10	1.194690e+01	4.546336e+01
2.230000e-06	1.764536e-06	7.201418e-10	1.225565e+01	4.721387e+01
2.240000e-06	1.808909e-06	7.421153e-10	1.256384e+01	4.892856e+01
2.250000e-06	1.853149e-06	7.614944e-10	1.287112e+01	5.060634e+01
2.260000e-06	1.897293e-06	7.806492e-10	1.317772e+01	5.224626e+01
2.270000e-06	1.941351e-06	8.002789e-10	1.348373e+01	5.384752e+01
2.280000e-06	1.985305e-06	8.222640e-10	1.378901e+01	5.540945e+01
2.290000e-06	2.029215e-06	8.438408e-10	1.409399e+01	5.693154e+01
2.300000e-06	2.073079e-06	8.650425e-10	1.439865e+01	5.841342e+01
2.310000e-06	2.116928e-06	8.843585e-10	1.470321e+01	5.985484e+01
2.320000e-06	2.160730e-06	9.028173e-10	1.500743e+01	6.125570e+01
2.330000e-06	2.204353e-06	9.199102e-10	1.531042e+01	6.261603e+01
2.340000e-06	2.247765e-06	9.371141e-10	1.561193e+01	6.393598e+01
2.350000e-06	2.291045e-06	9.549834e-10	1.591254e+01	6.521584e+01
2.360000e-06	2.334141e-06	9.733952e-10	1.621186e+01	6.645597e+01
2.370000e-06	2.376934e-06	9.901790e-10	1.650909e+01	6.765688e+01
2.380000e-06	2.419319e-06	1.004715e-09	1.680348e+01	6.881915e+01
2.390000e-06	2.461315e-06	1.018409e-09	1.709515e+01	6.994347e+01
2.400000e-06	2.502992e-06	1.033650e-09	1.738463e+01	7.103059e+01
2.410000e-06	2.544299e-06	1.048915e-09	1.767152e+01	7.208135e+01
2.420000e-06	2.585390e-06	1.062170e-09	1.795693e+01	7.309666e+01
2.430000e-06	2.626354e-06	1.071261e-09	1.824144e+01	7.407747e+01
2.440000e-06	2.667057e-06	1.080123e-09	1.852415e+01	7.502477e+01
2.450000e-06	2.707552e-06	1.090223e-09	1.880541e+01	7.593963e+01
2.460000e-06	2.747905e-06	1.102735e-09	1.908568e+01	7.682309e+01
2.470000e-06	2.788053e-06	1.117834e-09	1.936453e+01	7.767627e+01
2.480000e-06	2.828041e-06	1.131464e-09	1.964226e+01	7.850026e+01
2.490000e-06	2.867925e-06	1.142992e-09	1.991928e+01	7.929617e+01
2.500000e-06	2.907714e-06	1.153435e-09	2.019564e+01	8.006511e+01
2.510000e-06	2.947367e-06	1.161101e-09	2.047105e+01	8.080819e+01
2.520000e-06	2.986797e-06	1.167950e-09	2.074492e+01	8.152648e+01
2.530000e-06	3.025986e-06	1.176206e-09	2.101710e+01	8.222106e+01
2.540000e-06	3.064955e-06	1.185813e-09	2.128776e+01	8.289296e+01
2.550000e-06	3.103641e-06	1.198094e-09	2.155646e+01	8.354318e+01
2.560000e-06	3.142009e-06	1.209479e-09	2.182294e+01	8.417270e+01
2.570000e-06	3.180226e-06	1.219622e-09	2.208838e+01	8.478244e+01
2.580000e-06	3.218367e-06	1.227662e-09	2.235329e+01	8.537331e+01
2.590000e-06	3.256338e-06	1.233216e-09	2.261702e+01	8.594614e+01
2.600000e-06	3.294121e-06	1.238243e-09	2.287944e+01	8.650175e+01
2.610000e-06	3.331673e-06	1.244433e-09	2.314027e+01	8.704088e+01
2.620000e-06	3.368974e-06	1.252391e-09	2.339934e+01	8.756424e+01
2.630000e-06	3.406054e-06	1.262647e-09	2.365688e+01	8.807251e+01
2.640000e-06	3.442917e-06	1.273364e-09	2.391291e+01	8.856630e+01
2.650000e-06	3.479470e-06	1.282598e-09	2.416680e+01	8.904619e+01
2.660000e-06	3.515756e-06	1.288748e-09	2.441881e+01	8.951270e+01
2.670000e-06	3.551891e-06	1.293037e-09	2.466979e+01	8.996633e+01
2.680000e-06	3.587898e-06	1.297649e-09	2.491988e+01	9.040753e+01
2.690000e-06	3.623766e-06	1.304887e-09	2.516900e+01	9.083671e+01
2.700000e-06	3.659438e-06	1.313236e-09	2.541677e+01	9.125428e+01
2.710000e-06	3.694923e-06	1.321165e-09	2.566323e+01	9.166056e+01
2.720000e-06	3.730191e-06	1.329503e-09	2.590818e+01	9.205591e+01
2.730000e-06	3.765021e-06	1.338561e-09	2.615010e+01	9.244062e+01
2.740000e-06	3.799406e-06	1.345538e-09	2.638892e+01	9.281497e+01
2.750000e-06	3.833459e-06	1.350440e-09	2.662543e+01	9.317923e+01
2.760000e-06	3.867013e-06	1.353349e-09	2.685849e+01	9.353365e+01
2.770000e-06	3.900026e-06	1.356573e-09	2.708778e+01	9.387849e+01
2.780000e-06	3.932708e-06	1.362115e-09	2.731478e+01	9.421396e+01
2.790000e-06	3.965143e-06	1.369958e-09	2.754006e+01	9.454029e+01
2.800000e-06	3.997352e-06	1.378703e-09	2.776376e+01	9.485772e+01
2.810000e-06	4.029382e-06	1.386996e-09	2.798623e+01	9.516646e+01
2.820000e-06	4.061206e-06	1.393536e-09	2.820726e+01	9.546673e+01
2.830000e-06	4.092859e-06	1.398154e-09	2.842711e+01	9.575876e+01
2.840000e-06	4.124308e-06	1.403495e-09	2.864554e+01	9.604277e+01
2.850000e-06	4.155503e-06	1.407222e-09	2.886221e+01	9.631899e+01
2.860000e-06	4.186313e-06	1.406802e-09	2.907620e+01	9.658766e+01
2.870000e-06	4.216753e-06	1.407974e-09	2.928762e+01	9.684901e+01
2.880000e-06	4.246910e-06	1.414841e-09	2.949708e+01	9.710328e+01
2.890000e-06	4.276787e-06	1.421947e-09	2.970459e+01	9.735071e+01
2.900000e-06	4.306419e-06	1.428391e-09	2.991040e+01	9.759156e+01
