# Temperatura_=_-6.9
# Concentracion g/m^3_=_1620.0
# C_Vs_to_Am_M_A/Vsm_=_65563218390.804596
# pendiente_HvsI_1/m_=_3716.3
# ordenada_HvsI_A/m_=_1297.0
# frecuencia_Hz_=_135102.39085670182

Tiempo_(s)	Campo_(V.s)	Magnetizacion_(V.s)	Campo_(kA/m)	Magnetizacion_(A/m)
0.000000e+00	-5.521644e-06	-1.259866e-09	-3.837204e+01	-8.176468e+01
1.000000e-08	-5.521961e-06	-1.253476e-09	-3.837424e+01	-8.169987e+01
2.000000e-08	-5.522054e-06	-1.246872e-09	-3.837489e+01	-8.163744e+01
3.000000e-08	-5.521865e-06	-1.242721e-09	-3.837357e+01	-8.157741e+01
4.000000e-08	-5.521266e-06	-1.242314e-09	-3.836941e+01	-8.151976e+01
5.000000e-08	-5.520111e-06	-1.242094e-09	-3.836139e+01	-8.146447e+01
6.000000e-08	-5.518361e-06	-1.237419e-09	-3.834922e+01	-8.141148e+01
7.000000e-08	-5.515981e-06	-1.233669e-09	-3.833268e+01	-8.136072e+01
8.000000e-08	-5.512979e-06	-1.247400e-09	-3.831182e+01	-8.131208e+01
9.000000e-08	-5.509550e-06	-1.278841e-09	-3.828799e+01	-8.126545e+01
1.000000e-07	-5.505727e-06	-1.290193e-09	-3.826142e+01	-8.122069e+01
1.100000e-07	-5.501488e-06	-1.270139e-09	-3.823197e+01	-8.117765e+01
1.200000e-07	-5.496973e-06	-1.222216e-09	-3.820059e+01	-8.113616e+01
1.300000e-07	-5.492277e-06	-1.190294e-09	-3.816796e+01	-8.109606e+01
1.400000e-07	-5.487303e-06	-1.222912e-09	-3.813339e+01	-8.105713e+01
1.500000e-07	-5.481917e-06	-1.261807e-09	-3.809596e+01	-8.101920e+01
1.600000e-07	-5.476076e-06	-1.265515e-09	-3.805537e+01	-8.098204e+01
1.700000e-07	-5.469800e-06	-1.229262e-09	-3.801175e+01	-8.094546e+01
1.800000e-07	-5.463153e-06	-1.223837e-09	-3.796556e+01	-8.090922e+01
1.900000e-07	-5.456140e-06	-1.250116e-09	-3.791683e+01	-8.087313e+01
2.000000e-07	-5.448812e-06	-1.235622e-09	-3.786590e+01	-8.083697e+01
2.100000e-07	-5.441200e-06	-1.210745e-09	-3.781300e+01	-8.080052e+01
2.200000e-07	-5.433264e-06	-1.217330e-09	-3.775785e+01	-8.076358e+01
2.300000e-07	-5.425039e-06	-1.251829e-09	-3.770069e+01	-8.072595e+01
2.400000e-07	-5.416553e-06	-1.240183e-09	-3.764172e+01	-8.068744e+01
2.500000e-07	-5.407501e-06	-1.205864e-09	-3.757881e+01	-8.064786e+01
2.600000e-07	-5.397710e-06	-1.194862e-09	-3.751077e+01	-8.060704e+01
2.700000e-07	-5.387226e-06	-1.221572e-09	-3.743792e+01	-8.056482e+01
2.800000e-07	-5.376116e-06	-1.237291e-09	-3.736071e+01	-8.052105e+01
2.900000e-07	-5.364560e-06	-1.226746e-09	-3.728040e+01	-8.047558e+01
3.000000e-07	-5.352692e-06	-1.214436e-09	-3.719792e+01	-8.042831e+01
3.100000e-07	-5.340532e-06	-1.223799e-09	-3.711342e+01	-8.037911e+01
3.200000e-07	-5.327887e-06	-1.226455e-09	-3.702555e+01	-8.032790e+01
3.300000e-07	-5.314788e-06	-1.205435e-09	-3.693452e+01	-8.027459e+01
3.400000e-07	-5.301351e-06	-1.192740e-09	-3.684114e+01	-8.021911e+01
3.500000e-07	-5.287516e-06	-1.210061e-09	-3.674500e+01	-8.016140e+01
3.600000e-07	-5.273219e-06	-1.227231e-09	-3.664563e+01	-8.010144e+01
3.700000e-07	-5.258411e-06	-1.214973e-09	-3.654273e+01	-8.003918e+01
3.800000e-07	-5.243108e-06	-1.207134e-09	-3.643639e+01	-7.997462e+01
3.900000e-07	-5.227345e-06	-1.212905e-09	-3.632684e+01	-7.990773e+01
4.000000e-07	-5.211193e-06	-1.206849e-09	-3.621460e+01	-7.983853e+01
4.100000e-07	-5.194651e-06	-1.193624e-09	-3.609964e+01	-7.976703e+01
4.200000e-07	-5.177688e-06	-1.210882e-09	-3.598175e+01	-7.969325e+01
4.300000e-07	-5.160410e-06	-1.215389e-09	-3.586168e+01	-7.961721e+01
4.400000e-07	-5.142843e-06	-1.189190e-09	-3.573960e+01	-7.953895e+01
4.500000e-07	-5.124910e-06	-1.186891e-09	-3.561498e+01	-7.945851e+01
4.600000e-07	-5.106615e-06	-1.211371e-09	-3.548784e+01	-7.937591e+01
4.700000e-07	-5.087923e-06	-1.189704e-09	-3.535794e+01	-7.929121e+01
4.800000e-07	-5.068762e-06	-1.167640e-09	-3.522479e+01	-7.920444e+01
4.900000e-07	-5.049283e-06	-1.194610e-09	-3.508942e+01	-7.911566e+01
5.000000e-07	-5.029647e-06	-1.203397e-09	-3.495296e+01	-7.902490e+01
5.100000e-07	-5.009801e-06	-1.170147e-09	-3.481504e+01	-7.893220e+01
5.200000e-07	-4.989645e-06	-1.176992e-09	-3.467497e+01	-7.883761e+01
5.300000e-07	-4.969145e-06	-1.193863e-09	-3.453251e+01	-7.874116e+01
5.400000e-07	-4.948302e-06	-1.166999e-09	-3.438767e+01	-7.864287e+01
5.500000e-07	-4.927133e-06	-1.155936e-09	-3.424055e+01	-7.854278e+01
5.600000e-07	-4.905659e-06	-1.183849e-09	-3.409132e+01	-7.844092e+01
5.700000e-07	-4.883830e-06	-1.176745e-09	-3.393962e+01	-7.833729e+01
5.800000e-07	-4.861652e-06	-1.156744e-09	-3.378550e+01	-7.823192e+01
5.900000e-07	-4.839129e-06	-1.174327e-09	-3.362898e+01	-7.812481e+01
6.000000e-07	-4.816284e-06	-1.178901e-09	-3.347022e+01	-7.801597e+01
6.100000e-07	-4.793146e-06	-1.151521e-09	-3.330942e+01	-7.790541e+01
6.200000e-07	-4.769711e-06	-1.150024e-09	-3.314657e+01	-7.779310e+01
6.300000e-07	-4.746027e-06	-1.159932e-09	-3.298197e+01	-7.767906e+01
6.400000e-07	-4.722090e-06	-1.146271e-09	-3.281563e+01	-7.756327e+01
6.500000e-07	-4.697851e-06	-1.141115e-09	-3.264718e+01	-7.744571e+01
6.600000e-07	-4.673213e-06	-1.152717e-09	-3.247597e+01	-7.732638e+01
6.700000e-07	-4.648174e-06	-1.154120e-09	-3.230196e+01	-7.720525e+01
6.800000e-07	-4.622659e-06	-1.147853e-09	-3.212465e+01	-7.708231e+01
6.900000e-07	-4.596488e-06	-1.148731e-09	-3.194277e+01	-7.695753e+01
7.000000e-07	-4.569708e-06	-1.146666e-09	-3.175667e+01	-7.683091e+01
7.100000e-07	-4.542543e-06	-1.141301e-09	-3.156789e+01	-7.670243e+01
7.200000e-07	-4.515116e-06	-1.138145e-09	-3.137728e+01	-7.657206e+01
7.300000e-07	-4.487471e-06	-1.139182e-09	-3.118517e+01	-7.643980e+01
7.400000e-07	-4.459665e-06	-1.137678e-09	-3.099194e+01	-7.630564e+01
7.500000e-07	-4.431692e-06	-1.132908e-09	-3.079754e+01	-7.616957e+01
7.600000e-07	-4.403450e-06	-1.127144e-09	-3.060127e+01	-7.603157e+01
7.700000e-07	-4.374889e-06	-1.127833e-09	-3.040279e+01	-7.589166e+01
7.800000e-07	-4.346007e-06	-1.125827e-09	-3.020208e+01	-7.574983e+01
7.900000e-07	-4.316831e-06	-1.121427e-09	-2.999933e+01	-7.560609e+01
8.000000e-07	-4.287362e-06	-1.119847e-09	-2.979454e+01	-7.546044e+01
8.100000e-07	-4.257563e-06	-1.119506e-09	-2.958745e+01	-7.531289e+01
8.200000e-07	-4.227471e-06	-1.112038e-09	-2.937833e+01	-7.516347e+01
8.300000e-07	-4.197080e-06	-1.104565e-09	-2.916713e+01	-7.501218e+01
8.400000e-07	-4.166282e-06	-1.102154e-09	-2.895310e+01	-7.485905e+01
8.500000e-07	-4.135170e-06	-1.103196e-09	-2.873689e+01	-7.470409e+01
8.600000e-07	-4.103948e-06	-1.103735e-09	-2.851992e+01	-7.454732e+01
8.700000e-07	-4.072581e-06	-1.101538e-09	-2.830194e+01	-7.438877e+01
8.800000e-07	-4.041034e-06	-1.095211e-09	-2.808271e+01	-7.422845e+01
8.900000e-07	-4.009281e-06	-1.090105e-09	-2.786204e+01	-7.406638e+01
9.000000e-07	-3.977344e-06	-1.085643e-09	-2.764010e+01	-7.390257e+01
9.100000e-07	-3.945114e-06	-1.081930e-09	-2.741612e+01	-7.373704e+01
9.200000e-07	-3.912451e-06	-1.079730e-09	-2.718914e+01	-7.356979e+01
9.300000e-07	-3.879464e-06	-1.076355e-09	-2.695990e+01	-7.340083e+01
9.400000e-07	-3.846077e-06	-1.072790e-09	-2.672787e+01	-7.323015e+01
9.500000e-07	-3.812166e-06	-1.071840e-09	-2.649222e+01	-7.305773e+01
9.600000e-07	-3.777834e-06	-1.070249e-09	-2.625363e+01	-7.288356e+01
9.700000e-07	-3.743106e-06	-1.064464e-09	-2.601229e+01	-7.270761e+01
9.800000e-07	-3.708052e-06	-1.060075e-09	-2.576869e+01	-7.252983e+01
9.900000e-07	-3.672801e-06	-1.056783e-09	-2.552372e+01	-7.235020e+01
1.000000e-06	-3.637285e-06	-1.051995e-09	-2.527690e+01	-7.216863e+01
1.010000e-06	-3.601563e-06	-1.047459e-09	-2.502865e+01	-7.198508e+01
1.020000e-06	-3.565740e-06	-1.047422e-09	-2.477971e+01	-7.179945e+01
1.030000e-06	-3.529766e-06	-1.045403e-09	-2.452971e+01	-7.161165e+01
1.040000e-06	-3.493579e-06	-1.040363e-09	-2.427823e+01	-7.142160e+01
1.050000e-06	-3.457137e-06	-1.036375e-09	-2.402498e+01	-7.122917e+01
1.060000e-06	-3.420438e-06	-1.033692e-09	-2.376995e+01	-7.103424e+01
1.070000e-06	-3.383473e-06	-1.029380e-09	-2.351306e+01	-7.083668e+01
1.080000e-06	-3.346203e-06	-1.027242e-09	-2.325406e+01	-7.063635e+01
1.090000e-06	-3.308703e-06	-1.026149e-09	-2.299346e+01	-7.043310e+01
1.100000e-06	-3.270983e-06	-1.022375e-09	-2.273133e+01	-7.022678e+01
1.110000e-06	-3.233044e-06	-1.016358e-09	-2.246767e+01	-7.001723e+01
1.120000e-06	-3.194971e-06	-1.011802e-09	-2.220309e+01	-6.980426e+01
1.130000e-06	-3.156719e-06	-1.006782e-09	-2.193726e+01	-6.958772e+01
1.140000e-06	-3.118205e-06	-1.001467e-09	-2.166961e+01	-6.936742e+01
1.150000e-06	-3.079503e-06	-9.988949e-10	-2.140066e+01	-6.914319e+01
1.160000e-06	-3.040567e-06	-9.984783e-10	-2.113008e+01	-6.891485e+01
1.170000e-06	-3.001306e-06	-9.944410e-10	-2.085724e+01	-6.868222e+01
1.180000e-06	-2.961812e-06	-9.900480e-10	-2.058278e+01	-6.844513e+01
1.190000e-06	-2.922180e-06	-9.890956e-10	-2.030736e+01	-6.820341e+01
1.200000e-06	-2.882515e-06	-9.858811e-10	-2.003171e+01	-6.795688e+01
1.210000e-06	-2.842772e-06	-9.800128e-10	-1.975552e+01	-6.770539e+01
1.220000e-06	-2.802860e-06	-9.753812e-10	-1.947815e+01	-6.744878e+01
1.230000e-06	-2.762808e-06	-9.715835e-10	-1.919982e+01	-6.718690e+01
1.240000e-06	-2.722607e-06	-9.674997e-10	-1.892045e+01	-6.691962e+01
1.250000e-06	-2.682212e-06	-9.638271e-10	-1.863973e+01	-6.664679e+01
1.260000e-06	-2.641573e-06	-9.596984e-10	-1.835731e+01	-6.636830e+01
1.270000e-06	-2.600731e-06	-9.542275e-10	-1.807349e+01	-6.608404e+01
1.280000e-06	-2.559640e-06	-9.483403e-10	-1.778793e+01	-6.579388e+01
1.290000e-06	-2.518216e-06	-9.430833e-10	-1.750005e+01	-6.549775e+01
1.300000e-06	-2.476409e-06	-9.378152e-10	-1.720952e+01	-6.519554e+01
1.310000e-06	-2.434246e-06	-9.341995e-10	-1.691652e+01	-6.488718e+01
1.320000e-06	-2.391820e-06	-9.314652e-10	-1.662168e+01	-6.457258e+01
1.330000e-06	-2.349103e-06	-9.277095e-10	-1.632483e+01	-6.425168e+01
1.340000e-06	-2.306128e-06	-9.204584e-10	-1.602618e+01	-6.392439e+01
1.350000e-06	-2.262984e-06	-9.138649e-10	-1.572635e+01	-6.359065e+01
1.360000e-06	-2.219696e-06	-9.098657e-10	-1.542553e+01	-6.325039e+01
1.370000e-06	-2.176217e-06	-9.061141e-10	-1.512337e+01	-6.290353e+01
1.380000e-06	-2.132582e-06	-9.022835e-10	-1.482014e+01	-6.254998e+01
1.390000e-06	-2.088876e-06	-8.987087e-10	-1.451640e+01	-6.218966e+01
1.400000e-06	-2.045120e-06	-8.945249e-10	-1.421233e+01	-6.182247e+01
1.410000e-06	-2.001274e-06	-8.887137e-10	-1.390762e+01	-6.144827e+01
1.420000e-06	-1.957339e-06	-8.811286e-10	-1.360231e+01	-6.106693e+01
1.430000e-06	-1.913329e-06	-8.726329e-10	-1.329646e+01	-6.067831e+01
1.440000e-06	-1.869238e-06	-8.641541e-10	-1.299006e+01	-6.028220e+01
1.450000e-06	-1.825100e-06	-8.570741e-10	-1.268332e+01	-5.987841e+01
1.460000e-06	-1.780865e-06	-8.531883e-10	-1.237592e+01	-5.946670e+01
1.470000e-06	-1.736454e-06	-8.494009e-10	-1.206729e+01	-5.904678e+01
1.480000e-06	-1.691891e-06	-8.430061e-10	-1.175760e+01	-5.861835e+01
1.490000e-06	-1.647144e-06	-8.350335e-10	-1.144664e+01	-5.818106e+01
1.500000e-06	-1.602201e-06	-8.243795e-10	-1.113431e+01	-5.773452e+01
1.510000e-06	-1.557187e-06	-8.125114e-10	-1.082150e+01	-5.727830e+01
1.520000e-06	-1.512051e-06	-8.025068e-10	-1.050783e+01	-5.681192e+01
1.530000e-06	-1.466773e-06	-7.931830e-10	-1.019318e+01	-5.633485e+01
1.540000e-06	-1.421421e-06	-7.835158e-10	-9.878001e+00	-5.584653e+01
1.550000e-06	-1.376002e-06	-7.745822e-10	-9.562373e+00	-5.534632e+01
1.560000e-06	-1.330542e-06	-7.658950e-10	-9.246451e+00	-5.483356e+01
1.570000e-06	-1.285002e-06	-7.573085e-10	-8.929977e+00	-5.430754e+01
1.580000e-06	-1.239326e-06	-7.499531e-10	-8.612559e+00	-5.376748e+01
1.590000e-06	-1.193562e-06	-7.417560e-10	-8.294521e+00	-5.321258e+01
1.600000e-06	-1.147775e-06	-7.319418e-10	-7.976334e+00	-5.264198e+01
1.610000e-06	-1.101904e-06	-7.224044e-10	-7.657559e+00	-5.205478e+01
1.620000e-06	-1.055955e-06	-7.128509e-10	-7.338239e+00	-5.145005e+01
1.630000e-06	-1.009954e-06	-7.043096e-10	-7.018560e+00	-5.082681e+01
1.640000e-06	-9.638453e-07	-6.976899e-10	-6.698134e+00	-5.018407e+01
1.650000e-06	-9.176754e-07	-6.890231e-10	-6.377281e+00	-4.952079e+01
1.660000e-06	-8.714483e-07	-6.777570e-10	-6.056031e+00	-4.883591e+01
1.670000e-06	-8.252131e-07	-6.648688e-10	-5.734725e+00	-4.812837e+01
1.680000e-06	-7.789936e-07	-6.514540e-10	-5.413528e+00	-4.739710e+01
1.690000e-06	-7.326001e-07	-6.379671e-10	-5.091122e+00	-4.664100e+01
1.700000e-06	-6.860443e-07	-6.241658e-10	-4.767587e+00	-4.585900e+01
1.710000e-06	-6.394746e-07	-6.109220e-10	-4.443956e+00	-4.505003e+01
1.720000e-06	-5.929161e-07	-5.996106e-10	-4.120403e+00	-4.421303e+01
1.730000e-06	-5.463327e-07	-5.873909e-10	-3.796677e+00	-4.334697e+01
1.740000e-06	-4.997242e-07	-5.714803e-10	-3.472777e+00	-4.245087e+01
1.750000e-06	-4.530713e-07	-5.547016e-10	-3.148568e+00	-4.152377e+01
1.760000e-06	-4.063591e-07	-5.375738e-10	-2.823947e+00	-4.056475e+01
1.770000e-06	-3.595728e-07	-5.178217e-10	-2.498811e+00	-3.957299e+01
1.780000e-06	-3.127220e-07	-5.003901e-10	-2.173226e+00	-3.854768e+01
1.790000e-06	-2.658735e-07	-4.861657e-10	-1.847658e+00	-3.748813e+01
1.800000e-06	-2.190740e-07	-4.744611e-10	-1.522430e+00	-3.639370e+01
1.810000e-06	-1.722487e-07	-4.637161e-10	-1.197023e+00	-3.526385e+01
1.820000e-06	-1.254035e-07	-4.508125e-10	-8.714771e-01	-3.409813e+01
1.830000e-06	-7.863741e-08	-4.343765e-10	-5.464817e-01	-3.289620e+01
1.840000e-06	-3.181509e-08	-4.126348e-10	-2.210954e-01	-3.165783e+01
1.850000e-06	1.508197e-08	-3.899366e-10	1.048104e-01	-3.038288e+01
1.860000e-06	6.197172e-08	-3.680757e-10	4.306655e-01	-2.907134e+01
1.870000e-06	1.088705e-07	-3.487183e-10	7.565831e-01	-2.772335e+01
1.880000e-06	1.557686e-07	-3.318700e-10	1.082496e+00	-2.633913e+01
1.890000e-06	2.026228e-07	-3.169140e-10	1.408104e+00	-2.491907e+01
1.900000e-06	2.493576e-07	-3.007912e-10	1.732883e+00	-2.346366e+01
1.910000e-06	2.960753e-07	-2.789315e-10	2.057542e+00	-2.197354e+01
1.920000e-06	3.428734e-07	-2.533875e-10	2.382760e+00	-2.044948e+01
1.930000e-06	3.897029e-07	-2.258769e-10	2.708196e+00	-1.889239e+01
1.940000e-06	4.365109e-07	-1.992216e-10	3.033483e+00	-1.730330e+01
1.950000e-06	4.831928e-07	-1.763760e-10	3.357893e+00	-1.568337e+01
1.960000e-06	5.297570e-07	-1.568359e-10	3.681486e+00	-1.403391e+01
1.970000e-06	5.762838e-07	-1.422174e-10	4.004819e+00	-1.235633e+01
1.980000e-06	6.227535e-07	-1.250084e-10	4.327755e+00	-1.065216e+01
1.990000e-06	6.691603e-07	-1.036102e-10	4.650254e+00	-8.923067e+00
2.000000e-06	7.154670e-07	-7.481331e-11	4.972057e+00	-7.170799e+00
2.010000e-06	7.617479e-07	-4.172938e-11	5.293681e+00	-5.397221e+00
2.020000e-06	8.079903e-07	-1.144953e-11	5.615037e+00	-3.604287e+00
2.030000e-06	8.541955e-07	1.311915e-11	5.936135e+00	-1.794040e+00
2.040000e-06	9.003800e-07	3.337075e-11	6.257089e+00	3.140424e-02
2.050000e-06	9.464723e-07	5.409789e-11	6.577402e+00	1.869858e+00
2.060000e-06	9.924601e-07	7.799267e-11	6.896989e+00	3.719078e+00
2.070000e-06	1.038351e-06	1.047118e-10	7.215900e+00	5.576771e+00
2.080000e-06	1.084207e-06	1.334103e-10	7.534572e+00	7.440608e+00
2.090000e-06	1.130046e-06	1.634881e-10	7.853128e+00	9.308230e+00
2.100000e-06	1.175792e-06	1.924396e-10	8.171037e+00	1.117727e+01
2.110000e-06	1.221389e-06	2.185221e-10	8.487903e+00	1.304533e+01
2.120000e-06	1.266901e-06	2.410440e-10	8.804185e+00	1.491006e+01
2.130000e-06	1.312325e-06	2.642809e-10	9.119854e+00	1.676909e+01
2.140000e-06	1.357709e-06	2.880221e-10	9.435245e+00	1.862009e+01
2.150000e-06	1.403063e-06	3.124711e-10	9.750429e+00	2.046078e+01
2.160000e-06	1.448313e-06	3.385704e-10	1.006489e+01	2.228889e+01
2.170000e-06	1.493419e-06	3.672023e-10	1.037835e+01	2.410226e+01
2.180000e-06	1.538415e-06	3.932363e-10	1.069104e+01	2.589874e+01
2.190000e-06	1.583297e-06	4.156894e-10	1.100294e+01	2.767631e+01
2.200000e-06	1.628044e-06	4.365305e-10	1.131390e+01	2.943300e+01
2.210000e-06	1.672637e-06	4.587746e-10	1.162380e+01	3.116693e+01
2.220000e-06	1.717120e-06	4.816612e-10	1.193293e+01	3.287634e+01
2.230000e-06	1.761517e-06	5.062882e-10	1.224147e+01	3.455956e+01
2.240000e-06	1.805744e-06	5.307807e-10	1.254882e+01	3.621503e+01
2.250000e-06	1.849808e-06	5.552705e-10	1.285503e+01	3.784131e+01
2.260000e-06	1.893780e-06	5.785328e-10	1.316061e+01	3.943708e+01
2.270000e-06	1.937760e-06	5.979078e-10	1.346624e+01	4.100115e+01
2.280000e-06	1.981667e-06	6.152352e-10	1.377137e+01	4.253242e+01
2.290000e-06	2.025452e-06	6.321055e-10	1.407565e+01	4.402996e+01
2.300000e-06	2.069196e-06	6.494748e-10	1.437964e+01	4.549293e+01
2.310000e-06	2.112889e-06	6.690256e-10	1.468328e+01	4.692065e+01
2.320000e-06	2.156503e-06	6.911901e-10	1.498637e+01	4.831254e+01
2.330000e-06	2.200010e-06	7.138628e-10	1.528872e+01	4.966816e+01
2.340000e-06	2.243461e-06	7.344284e-10	1.559068e+01	5.098717e+01
2.350000e-06	2.286823e-06	7.527555e-10	1.589202e+01	5.226937e+01
2.360000e-06	2.329936e-06	7.704381e-10	1.619162e+01	5.351466e+01
2.370000e-06	2.372754e-06	7.873921e-10	1.648918e+01	5.472307e+01
2.380000e-06	2.415273e-06	8.022660e-10	1.678467e+01	5.589470e+01
2.390000e-06	2.457476e-06	8.149354e-10	1.707795e+01	5.702980e+01
2.400000e-06	2.499384e-06	8.308508e-10	1.736918e+01	5.812865e+01
2.410000e-06	2.540984e-06	8.478978e-10	1.765828e+01	5.919168e+01
2.420000e-06	2.582248e-06	8.629762e-10	1.794504e+01	6.021935e+01
2.430000e-06	2.623156e-06	8.756209e-10	1.822932e+01	6.121223e+01
2.440000e-06	2.663830e-06	8.863859e-10	1.851198e+01	6.217094e+01
2.450000e-06	2.704361e-06	8.964409e-10	1.879365e+01	6.309616e+01
2.460000e-06	2.744640e-06	9.079166e-10	1.907356e+01	6.398862e+01
2.470000e-06	2.784707e-06	9.212868e-10	1.935201e+01	6.484910e+01
2.480000e-06	2.824639e-06	9.348555e-10	1.962951e+01	6.567843e+01
2.490000e-06	2.864420e-06	9.445218e-10	1.990596e+01	6.647744e+01
2.500000e-06	2.904100e-06	9.544603e-10	2.018171e+01	6.724701e+01
2.510000e-06	2.943716e-06	9.635807e-10	2.045702e+01	6.798803e+01
2.520000e-06	2.983195e-06	9.718933e-10	2.073137e+01	6.870139e+01
2.530000e-06	3.022453e-06	9.796117e-10	2.100419e+01	6.938801e+01
2.540000e-06	3.061505e-06	9.871566e-10	2.127558e+01	7.004879e+01
2.550000e-06	3.100287e-06	9.968073e-10	2.154509e+01	7.068461e+01
2.560000e-06	3.138842e-06	1.006168e-09	2.181302e+01	7.129638e+01
2.570000e-06	3.177208e-06	1.016338e-09	2.207965e+01	7.188496e+01
2.580000e-06	3.215280e-06	1.023856e-09	2.234422e+01	7.245121e+01
2.590000e-06	3.253075e-06	1.031120e-09	2.260687e+01	7.299594e+01
2.600000e-06	3.290691e-06	1.038272e-09	2.286829e+01	7.351998e+01
2.610000e-06	3.328174e-06	1.043454e-09	2.312877e+01	7.402408e+01
2.620000e-06	3.365466e-06	1.048124e-09	2.338793e+01	7.450901e+01
2.630000e-06	3.402504e-06	1.054515e-09	2.364532e+01	7.497547e+01
2.640000e-06	3.439176e-06	1.062172e-09	2.390016e+01	7.542414e+01
2.650000e-06	3.475570e-06	1.071716e-09	2.415308e+01	7.585567e+01
2.660000e-06	3.511806e-06	1.081882e-09	2.440490e+01	7.627068e+01
2.670000e-06	3.547816e-06	1.091039e-09	2.465515e+01	7.666976e+01
2.680000e-06	3.583712e-06	1.095903e-09	2.490460e+01	7.705344e+01
2.690000e-06	3.619521e-06	1.096349e-09	2.515345e+01	7.742225e+01
2.700000e-06	3.655171e-06	1.096383e-09	2.540120e+01	7.777668e+01
2.710000e-06	3.690594e-06	1.098171e-09	2.564736e+01	7.811719e+01
2.720000e-06	3.725715e-06	1.102159e-09	2.589143e+01	7.844422e+01
2.730000e-06	3.760613e-06	1.108475e-09	2.613395e+01	7.875817e+01
2.740000e-06	3.795213e-06	1.115295e-09	2.637440e+01	7.905942e+01
2.750000e-06	3.829306e-06	1.122651e-09	2.661133e+01	7.934836e+01
2.760000e-06	3.862854e-06	1.127457e-09	2.684446e+01	7.962532e+01
2.770000e-06	3.895902e-06	1.128957e-09	2.707413e+01	7.989064e+01
2.780000e-06	3.928551e-06	1.128789e-09	2.730102e+01	8.014465e+01
2.790000e-06	3.960953e-06	1.129263e-09	2.752620e+01	8.038764e+01
2.800000e-06	3.993078e-06	1.133521e-09	2.774944e+01	8.061993e+01
2.810000e-06	4.024917e-06	1.138027e-09	2.797071e+01	8.084180e+01
2.820000e-06	4.056605e-06	1.142522e-09	2.819091e+01	8.105355e+01
2.830000e-06	4.088188e-06	1.148905e-09	2.841040e+01	8.125546e+01
2.840000e-06	4.119652e-06	1.156075e-09	2.862905e+01	8.144781e+01
2.850000e-06	4.150883e-06	1.159198e-09	2.884609e+01	8.163091e+01
2.860000e-06	4.181696e-06	1.158441e-09	2.906022e+01	8.180502e+01
2.870000e-06	4.212214e-06	1.157319e-09	2.927231e+01	8.197044e+01
2.880000e-06	4.242474e-06	1.157959e-09	2.948259e+01	8.212746e+01
2.890000e-06	4.272322e-06	1.158993e-09	2.969002e+01	8.227638e+01
2.900000e-06	4.301885e-06	1.160763e-09	2.989546e+01	8.241748e+01
