# Temperatura_=_-6.17
# Concentracion g/m^3_=_1620.0
# C_Vs_to_Am_M_A/Vsm_=_65563218390.804596
# pendiente_HvsI_1/m_=_3716.3
# ordenada_HvsI_A/m_=_1297.0
# frecuencia_Hz_=_135102.47893262826

Tiempo_(s)	Campo_(V.s)	Magnetizacion_(V.s)	Campo_(kA/m)	Magnetizacion_(A/m)
0.000000e+00	-5.527435e-06	-1.307096e-09	-3.837312e+01	-8.442787e+01
1.000000e-08	-5.527504e-06	-1.307585e-09	-3.837360e+01	-8.439830e+01
2.000000e-08	-5.527375e-06	-1.308721e-09	-3.837270e+01	-8.436834e+01
3.000000e-08	-5.526886e-06	-1.310261e-09	-3.836931e+01	-8.433781e+01
4.000000e-08	-5.525914e-06	-1.311238e-09	-3.836256e+01	-8.430654e+01
5.000000e-08	-5.524531e-06	-1.305840e-09	-3.835296e+01	-8.427434e+01
6.000000e-08	-5.522635e-06	-1.291005e-09	-3.833979e+01	-8.424105e+01
7.000000e-08	-5.520016e-06	-1.287936e-09	-3.832161e+01	-8.420647e+01
8.000000e-08	-5.516710e-06	-1.330372e-09	-3.829866e+01	-8.417045e+01
9.000000e-08	-5.512917e-06	-1.378409e-09	-3.827233e+01	-8.413282e+01
1.000000e-07	-5.508689e-06	-1.349451e-09	-3.824298e+01	-8.409340e+01
1.100000e-07	-5.504190e-06	-1.271818e-09	-3.821174e+01	-8.405205e+01
1.200000e-07	-5.499552e-06	-1.237148e-09	-3.817955e+01	-8.400863e+01
1.300000e-07	-5.494634e-06	-1.284296e-09	-3.814540e+01	-8.396301e+01
1.400000e-07	-5.489303e-06	-1.323493e-09	-3.810839e+01	-8.391507e+01
1.500000e-07	-5.483607e-06	-1.300128e-09	-3.806885e+01	-8.386471e+01
1.600000e-07	-5.477544e-06	-1.281489e-09	-3.802676e+01	-8.381185e+01
1.700000e-07	-5.471039e-06	-1.280997e-09	-3.798160e+01	-8.375640e+01
1.800000e-07	-5.464024e-06	-1.315857e-09	-3.793290e+01	-8.369832e+01
1.900000e-07	-5.456574e-06	-1.281411e-09	-3.788118e+01	-8.363757e+01
2.000000e-07	-5.448888e-06	-1.254463e-09	-3.782782e+01	-8.357412e+01
2.100000e-07	-5.441046e-06	-1.256670e-09	-3.777338e+01	-8.350798e+01
2.200000e-07	-5.432975e-06	-1.295127e-09	-3.771735e+01	-8.343916e+01
2.300000e-07	-5.424607e-06	-1.282113e-09	-3.765926e+01	-8.336767e+01
2.400000e-07	-5.415840e-06	-1.242229e-09	-3.759839e+01	-8.329357e+01
2.500000e-07	-5.406387e-06	-1.224904e-09	-3.753277e+01	-8.321691e+01
2.600000e-07	-5.396298e-06	-1.251807e-09	-3.746272e+01	-8.313777e+01
2.700000e-07	-5.385589e-06	-1.275890e-09	-3.738838e+01	-8.305622e+01
2.800000e-07	-5.374293e-06	-1.261969e-09	-3.730996e+01	-8.297237e+01
2.900000e-07	-5.362672e-06	-1.249738e-09	-3.722928e+01	-8.288630e+01
3.000000e-07	-5.350703e-06	-1.251105e-09	-3.714619e+01	-8.279814e+01
3.100000e-07	-5.338268e-06	-1.255954e-09	-3.705986e+01	-8.270799e+01
3.200000e-07	-5.325382e-06	-1.228436e-09	-3.697040e+01	-8.261599e+01
3.300000e-07	-5.312124e-06	-1.231278e-09	-3.687836e+01	-8.252224e+01
3.400000e-07	-5.298476e-06	-1.246629e-09	-3.678362e+01	-8.242688e+01
3.500000e-07	-5.284402e-06	-1.267679e-09	-3.668591e+01	-8.233002e+01
3.600000e-07	-5.269949e-06	-1.254752e-09	-3.658557e+01	-8.223179e+01
3.700000e-07	-5.255089e-06	-1.253045e-09	-3.648241e+01	-8.213229e+01
3.800000e-07	-5.239654e-06	-1.234965e-09	-3.637525e+01	-8.203165e+01
3.900000e-07	-5.223663e-06	-1.229602e-09	-3.626424e+01	-8.192995e+01
4.000000e-07	-5.207282e-06	-1.230858e-09	-3.615052e+01	-8.182729e+01
4.100000e-07	-5.190545e-06	-1.244634e-09	-3.603433e+01	-8.172375e+01
4.200000e-07	-5.173426e-06	-1.232967e-09	-3.591548e+01	-8.161940e+01
4.300000e-07	-5.155996e-06	-1.230845e-09	-3.579448e+01	-8.151431e+01
4.400000e-07	-5.138289e-06	-1.237604e-09	-3.567155e+01	-8.140850e+01
4.500000e-07	-5.120139e-06	-1.233194e-09	-3.554555e+01	-8.130203e+01
4.600000e-07	-5.101532e-06	-1.211787e-09	-3.541637e+01	-8.119489e+01
4.700000e-07	-5.082611e-06	-1.213156e-09	-3.528501e+01	-8.108710e+01
4.800000e-07	-5.063391e-06	-1.217869e-09	-3.515158e+01	-8.097865e+01
4.900000e-07	-5.043820e-06	-1.208981e-09	-3.501572e+01	-8.086952e+01
5.000000e-07	-5.024019e-06	-1.203539e-09	-3.487825e+01	-8.075966e+01
5.100000e-07	-5.004039e-06	-1.210891e-09	-3.473955e+01	-8.064902e+01
5.200000e-07	-4.983702e-06	-1.205488e-09	-3.459836e+01	-8.053755e+01
5.300000e-07	-4.962996e-06	-1.198410e-09	-3.445461e+01	-8.042517e+01
5.400000e-07	-4.941951e-06	-1.206496e-09	-3.430851e+01	-8.031180e+01
5.500000e-07	-4.920541e-06	-1.206129e-09	-3.415988e+01	-8.019735e+01
5.600000e-07	-4.898805e-06	-1.194451e-09	-3.400898e+01	-8.008172e+01
5.700000e-07	-4.876753e-06	-1.191921e-09	-3.385589e+01	-7.996482e+01
5.800000e-07	-4.854293e-06	-1.193949e-09	-3.369996e+01	-7.984652e+01
5.900000e-07	-4.831446e-06	-1.180336e-09	-3.354135e+01	-7.972673e+01
6.000000e-07	-4.808357e-06	-1.175470e-09	-3.338106e+01	-7.960533e+01
6.100000e-07	-4.784958e-06	-1.177836e-09	-3.321862e+01	-7.948221e+01
6.200000e-07	-4.761290e-06	-1.177111e-09	-3.305431e+01	-7.935726e+01
6.300000e-07	-4.737435e-06	-1.173719e-09	-3.288870e+01	-7.923040e+01
6.400000e-07	-4.713314e-06	-1.180247e-09	-3.272125e+01	-7.910150e+01
6.500000e-07	-4.688877e-06	-1.174040e-09	-3.255159e+01	-7.897050e+01
6.600000e-07	-4.663962e-06	-1.168055e-09	-3.237863e+01	-7.883730e+01
6.700000e-07	-4.638553e-06	-1.168769e-09	-3.220223e+01	-7.870184e+01
6.800000e-07	-4.612635e-06	-1.167896e-09	-3.202230e+01	-7.856405e+01
6.900000e-07	-4.586108e-06	-1.155978e-09	-3.183814e+01	-7.842388e+01
7.000000e-07	-4.559024e-06	-1.159813e-09	-3.165012e+01	-7.828130e+01
7.100000e-07	-4.531589e-06	-1.164692e-09	-3.145966e+01	-7.813628e+01
7.200000e-07	-4.504010e-06	-1.162077e-09	-3.126819e+01	-7.798882e+01
7.300000e-07	-4.476257e-06	-1.157608e-09	-3.107552e+01	-7.783891e+01
7.400000e-07	-4.448290e-06	-1.159406e-09	-3.088137e+01	-7.768657e+01
7.500000e-07	-4.420176e-06	-1.150516e-09	-3.068619e+01	-7.753183e+01
7.600000e-07	-4.391847e-06	-1.144034e-09	-3.048952e+01	-7.737473e+01
7.700000e-07	-4.363104e-06	-1.145793e-09	-3.028998e+01	-7.721533e+01
7.800000e-07	-4.333990e-06	-1.144834e-09	-3.008787e+01	-7.705370e+01
7.900000e-07	-4.304562e-06	-1.140261e-09	-2.988357e+01	-7.688989e+01
8.000000e-07	-4.274843e-06	-1.143529e-09	-2.967725e+01	-7.672401e+01
8.100000e-07	-4.244901e-06	-1.138358e-09	-2.946938e+01	-7.655613e+01
8.200000e-07	-4.214571e-06	-1.122673e-09	-2.925882e+01	-7.638637e+01
8.300000e-07	-4.183883e-06	-1.114343e-09	-2.904578e+01	-7.621481e+01
8.400000e-07	-4.152958e-06	-1.114787e-09	-2.883109e+01	-7.604156e+01
8.500000e-07	-4.121783e-06	-1.115097e-09	-2.861466e+01	-7.586673e+01
8.600000e-07	-4.090386e-06	-1.113923e-09	-2.839669e+01	-7.569041e+01
8.700000e-07	-4.058834e-06	-1.113841e-09	-2.817765e+01	-7.551271e+01
8.800000e-07	-4.027123e-06	-1.105417e-09	-2.795750e+01	-7.533373e+01
8.900000e-07	-3.995187e-06	-1.095665e-09	-2.773579e+01	-7.515354e+01
9.000000e-07	-3.962998e-06	-1.090507e-09	-2.751233e+01	-7.497223e+01
9.100000e-07	-3.930545e-06	-1.085130e-09	-2.728703e+01	-7.478987e+01
9.200000e-07	-3.897758e-06	-1.075727e-09	-2.705941e+01	-7.460652e+01
9.300000e-07	-3.864530e-06	-1.074888e-09	-2.682873e+01	-7.442220e+01
9.400000e-07	-3.830923e-06	-1.077570e-09	-2.659542e+01	-7.423697e+01
9.500000e-07	-3.796824e-06	-1.077200e-09	-2.635870e+01	-7.405082e+01
9.600000e-07	-3.762219e-06	-1.073231e-09	-2.611846e+01	-7.386375e+01
9.700000e-07	-3.727258e-06	-1.071738e-09	-2.587575e+01	-7.367573e+01
9.800000e-07	-3.691925e-06	-1.062812e-09	-2.563046e+01	-7.348673e+01
9.900000e-07	-3.656315e-06	-1.051570e-09	-2.538324e+01	-7.329668e+01
1.000000e-06	-3.620566e-06	-1.045009e-09	-2.513506e+01	-7.310551e+01
1.010000e-06	-3.584734e-06	-1.045211e-09	-2.488630e+01	-7.291311e+01
1.020000e-06	-3.548774e-06	-1.043919e-09	-2.463666e+01	-7.271936e+01
1.030000e-06	-3.512621e-06	-1.045855e-09	-2.438567e+01	-7.252413e+01
1.040000e-06	-3.476243e-06	-1.048117e-09	-2.413312e+01	-7.232727e+01
1.050000e-06	-3.439631e-06	-1.045051e-09	-2.387895e+01	-7.212861e+01
1.060000e-06	-3.402742e-06	-1.036858e-09	-2.362286e+01	-7.192796e+01
1.070000e-06	-3.365531e-06	-1.029254e-09	-2.336453e+01	-7.172512e+01
1.080000e-06	-3.328065e-06	-1.020120e-09	-2.310443e+01	-7.151989e+01
1.090000e-06	-3.290326e-06	-1.011858e-09	-2.284243e+01	-7.131204e+01
1.100000e-06	-3.252336e-06	-1.009457e-09	-2.257870e+01	-7.110135e+01
1.110000e-06	-3.214198e-06	-1.008521e-09	-2.231393e+01	-7.088757e+01
1.120000e-06	-3.175883e-06	-1.006248e-09	-2.204794e+01	-7.067047e+01
1.130000e-06	-3.137306e-06	-1.006079e-09	-2.178013e+01	-7.044981e+01
1.140000e-06	-3.098455e-06	-1.005813e-09	-2.151041e+01	-7.022534e+01
1.150000e-06	-3.059475e-06	-1.001307e-09	-2.123980e+01	-6.999683e+01
1.160000e-06	-3.020333e-06	-9.945365e-10	-2.096806e+01	-6.976403e+01
1.170000e-06	-2.980970e-06	-9.875033e-10	-2.069479e+01	-6.952671e+01
1.180000e-06	-2.941448e-06	-9.830404e-10	-2.042042e+01	-6.928466e+01
1.190000e-06	-2.901719e-06	-9.792302e-10	-2.014461e+01	-6.903766e+01
1.200000e-06	-2.861855e-06	-9.780121e-10	-1.986786e+01	-6.878550e+01
1.210000e-06	-2.821970e-06	-9.777397e-10	-1.959096e+01	-6.852799e+01
1.220000e-06	-2.781990e-06	-9.750318e-10	-1.931341e+01	-6.826496e+01
1.230000e-06	-2.741823e-06	-9.710370e-10	-1.903456e+01	-6.799623e+01
1.240000e-06	-2.701402e-06	-9.685032e-10	-1.875394e+01	-6.772167e+01
1.250000e-06	-2.660806e-06	-9.627593e-10	-1.847212e+01	-6.744112e+01
1.260000e-06	-2.620022e-06	-9.556424e-10	-1.818898e+01	-6.715448e+01
1.270000e-06	-2.578959e-06	-9.500980e-10	-1.790391e+01	-6.686164e+01
1.280000e-06	-2.537652e-06	-9.452187e-10	-1.761714e+01	-6.656249e+01
1.290000e-06	-2.496027e-06	-9.398260e-10	-1.732817e+01	-6.625696e+01
1.300000e-06	-2.454059e-06	-9.380617e-10	-1.703682e+01	-6.594499e+01
1.310000e-06	-2.411703e-06	-9.360173e-10	-1.674277e+01	-6.562649e+01
1.320000e-06	-2.369089e-06	-9.313232e-10	-1.644693e+01	-6.530143e+01
1.330000e-06	-2.326283e-06	-9.236154e-10	-1.614976e+01	-6.496975e+01
1.340000e-06	-2.283160e-06	-9.182468e-10	-1.585039e+01	-6.463141e+01
1.350000e-06	-2.239792e-06	-9.148813e-10	-1.554931e+01	-6.428634e+01
1.360000e-06	-2.196230e-06	-9.114893e-10	-1.524689e+01	-6.393451e+01
1.370000e-06	-2.152563e-06	-9.068102e-10	-1.494374e+01	-6.357585e+01
1.380000e-06	-2.108855e-06	-8.989585e-10	-1.464031e+01	-6.321029e+01
1.390000e-06	-2.065120e-06	-8.884551e-10	-1.433668e+01	-6.283774e+01
1.400000e-06	-2.021285e-06	-8.786479e-10	-1.403237e+01	-6.245811e+01
1.410000e-06	-1.977349e-06	-8.700172e-10	-1.372735e+01	-6.207126e+01
1.420000e-06	-1.933366e-06	-8.617105e-10	-1.342201e+01	-6.167705e+01
1.430000e-06	-1.889315e-06	-8.555027e-10	-1.311620e+01	-6.127529e+01
1.440000e-06	-1.845153e-06	-8.512815e-10	-1.280960e+01	-6.086578e+01
1.450000e-06	-1.800915e-06	-8.466111e-10	-1.250250e+01	-6.044826e+01
1.460000e-06	-1.756571e-06	-8.386991e-10	-1.219464e+01	-6.002245e+01
1.470000e-06	-1.712042e-06	-8.303121e-10	-1.188551e+01	-5.958802e+01
1.480000e-06	-1.667366e-06	-8.227613e-10	-1.157535e+01	-5.914460e+01
1.490000e-06	-1.622577e-06	-8.125793e-10	-1.126442e+01	-5.869176e+01
1.500000e-06	-1.577601e-06	-8.007742e-10	-1.095218e+01	-5.822903e+01
1.510000e-06	-1.532463e-06	-7.906431e-10	-1.063882e+01	-5.775589e+01
1.520000e-06	-1.487235e-06	-7.817677e-10	-1.032484e+01	-5.727176e+01
1.530000e-06	-1.441885e-06	-7.740343e-10	-1.001000e+01	-5.677603e+01
1.540000e-06	-1.396496e-06	-7.679248e-10	-9.694898e+00	-5.626801e+01
1.550000e-06	-1.351027e-06	-7.625655e-10	-9.379239e+00	-5.574697e+01
1.560000e-06	-1.305411e-06	-7.543192e-10	-9.062558e+00	-5.521213e+01
1.570000e-06	-1.259715e-06	-7.455422e-10	-8.745319e+00	-5.466267e+01
1.580000e-06	-1.213968e-06	-7.351567e-10	-8.427732e+00	-5.409769e+01
1.590000e-06	-1.168102e-06	-7.218554e-10	-8.109319e+00	-5.351629e+01
1.600000e-06	-1.122124e-06	-7.091402e-10	-7.790121e+00	-5.291749e+01
1.610000e-06	-1.076064e-06	-7.003518e-10	-7.470364e+00	-5.230030e+01
1.620000e-06	-1.029922e-06	-6.926466e-10	-7.150027e+00	-5.166369e+01
1.630000e-06	-9.837696e-07	-6.886652e-10	-6.829625e+00	-5.100659e+01
1.640000e-06	-9.375904e-07	-6.841495e-10	-6.509035e+00	-5.032793e+01
1.650000e-06	-8.913829e-07	-6.727933e-10	-6.188249e+00	-4.962661e+01
1.660000e-06	-8.451434e-07	-6.575393e-10	-5.867240e+00	-4.890152e+01
1.670000e-06	-7.988009e-07	-6.398748e-10	-5.545516e+00	-4.815155e+01
1.680000e-06	-7.523563e-07	-6.239884e-10	-5.223084e+00	-4.737561e+01
1.690000e-06	-7.058575e-07	-6.099652e-10	-4.900275e+00	-4.657259e+01
1.700000e-06	-6.593197e-07	-5.970430e-10	-4.577196e+00	-4.574143e+01
1.710000e-06	-6.126998e-07	-5.849821e-10	-4.253547e+00	-4.488110e+01
1.720000e-06	-5.659654e-07	-5.733437e-10	-3.929103e+00	-4.399057e+01
1.730000e-06	-5.192631e-07	-5.598954e-10	-3.604881e+00	-4.306890e+01
1.740000e-06	-4.726071e-07	-5.432129e-10	-3.280981e+00	-4.211517e+01
1.750000e-06	-4.258477e-07	-5.240636e-10	-2.956363e+00	-4.112855e+01
1.760000e-06	-3.790337e-07	-5.045315e-10	-2.631366e+00	-4.010825e+01
1.770000e-06	-3.322151e-07	-4.873455e-10	-2.306338e+00	-3.905356e+01
1.780000e-06	-2.853816e-07	-4.721052e-10	-1.981205e+00	-3.796389e+01
1.790000e-06	-2.385073e-07	-4.586835e-10	-1.655789e+00	-3.683870e+01
1.800000e-06	-1.916046e-07	-4.457067e-10	-1.330177e+00	-3.567756e+01
1.810000e-06	-1.447608e-07	-4.298779e-10	-1.004973e+00	-3.448016e+01
1.820000e-06	-9.794057e-08	-4.128348e-10	-6.799330e-01	-3.324628e+01
1.830000e-06	-5.097802e-08	-3.949040e-10	-3.539048e-01	-3.197583e+01
1.840000e-06	-3.953852e-09	-3.770787e-10	-2.744883e-02	-3.066883e+01
1.850000e-06	4.299768e-08	-3.622158e-10	2.985029e-01	-2.932542e+01
1.860000e-06	8.984397e-08	-3.463422e-10	6.237239e-01	-2.794588e+01
1.870000e-06	1.366915e-07	-3.285331e-10	9.489538e-01	-2.653061e+01
1.880000e-06	1.835910e-07	-3.092850e-10	1.274544e+00	-2.508014e+01
1.890000e-06	2.304997e-07	-2.882844e-10	1.600198e+00	-2.359514e+01
1.900000e-06	2.773947e-07	-2.644319e-10	1.925758e+00	-2.207639e+01
1.910000e-06	3.242659e-07	-2.393256e-10	2.251151e+00	-2.052482e+01
1.920000e-06	3.711288e-07	-2.156188e-10	2.576488e+00	-1.894149e+01
1.930000e-06	4.178886e-07	-1.951940e-10	2.901109e+00	-1.732757e+01
1.940000e-06	4.646742e-07	-1.764860e-10	3.225908e+00	-1.568435e+01
1.950000e-06	5.114050e-07	-1.572953e-10	3.550328e+00	-1.401326e+01
1.960000e-06	5.579897e-07	-1.378962e-10	3.873733e+00	-1.231582e+01
1.970000e-06	6.044950e-07	-1.160682e-10	4.196587e+00	-1.059366e+01
1.980000e-06	6.509753e-07	-9.114900e-11	4.519267e+00	-8.848535e+00
1.990000e-06	6.974921e-07	-6.315431e-11	4.842201e+00	-7.082260e+00
2.000000e-06	7.439393e-07	-3.327596e-11	5.164651e+00	-5.296755e+00
2.010000e-06	7.903234e-07	-6.065175e-12	5.486663e+00	-3.494010e+00
2.020000e-06	8.366451e-07	1.761047e-11	5.808242e+00	-1.676089e+00
2.030000e-06	8.828880e-07	3.953795e-11	6.129275e+00	1.548888e-01
2.040000e-06	9.291213e-07	6.143965e-11	6.450240e+00	1.996752e+00
2.050000e-06	9.753008e-07	8.435092e-11	6.770832e+00	3.847289e+00
2.060000e-06	1.021334e-06	1.087010e-10	7.090410e+00	5.704258e+00
2.070000e-06	1.067248e-06	1.362027e-10	7.409156e+00	7.565397e+00
2.080000e-06	1.113130e-06	1.647446e-10	7.727682e+00	9.428436e+00
2.090000e-06	1.158993e-06	1.943691e-10	8.046081e+00	1.129110e+01
2.100000e-06	1.204788e-06	2.235167e-10	8.364004e+00	1.315113e+01
2.110000e-06	1.250459e-06	2.486397e-10	8.681061e+00	1.500629e+01
2.120000e-06	1.296007e-06	2.712505e-10	8.997274e+00	1.685436e+01
2.130000e-06	1.341487e-06	2.939410e-10	9.313008e+00	1.869316e+01
2.140000e-06	1.386899e-06	3.170225e-10	9.628269e+00	2.052059e+01
2.150000e-06	1.432241e-06	3.418771e-10	9.943048e+00	2.233457e+01
2.160000e-06	1.477439e-06	3.685870e-10	1.025683e+01	2.413309e+01
2.170000e-06	1.522540e-06	3.959406e-10	1.056993e+01	2.591423e+01
2.180000e-06	1.567588e-06	4.221354e-10	1.088267e+01	2.767615e+01
2.190000e-06	1.612501e-06	4.478022e-10	1.119447e+01	2.941707e+01
2.200000e-06	1.657339e-06	4.741368e-10	1.150575e+01	3.113533e+01
2.210000e-06	1.701997e-06	4.990487e-10	1.181577e+01	3.282936e+01
2.220000e-06	1.746415e-06	5.230434e-10	1.212414e+01	3.449767e+01
2.230000e-06	1.790699e-06	5.450678e-10	1.243157e+01	3.613891e+01
2.240000e-06	1.834876e-06	5.639689e-10	1.273826e+01	3.775182e+01
2.250000e-06	1.878994e-06	5.818837e-10	1.304454e+01	3.933525e+01
2.260000e-06	1.923011e-06	6.004981e-10	1.335012e+01	4.088816e+01
2.270000e-06	1.966982e-06	6.203490e-10	1.365538e+01	4.240963e+01
2.280000e-06	2.010888e-06	6.414850e-10	1.396019e+01	4.389885e+01
2.290000e-06	2.054667e-06	6.624138e-10	1.426412e+01	4.535512e+01
2.300000e-06	2.098394e-06	6.831724e-10	1.456768e+01	4.677786e+01
2.310000e-06	2.142094e-06	7.025357e-10	1.487106e+01	4.816658e+01
2.320000e-06	2.185746e-06	7.198108e-10	1.517410e+01	4.952093e+01
2.330000e-06	2.229301e-06	7.373310e-10	1.547648e+01	5.084062e+01
2.340000e-06	2.272727e-06	7.548642e-10	1.577796e+01	5.212549e+01
2.350000e-06	2.315909e-06	7.711938e-10	1.607774e+01	5.337547e+01
2.360000e-06	2.358803e-06	7.870848e-10	1.637552e+01	5.459057e+01
2.370000e-06	2.401449e-06	8.014509e-10	1.667158e+01	5.577092e+01
2.380000e-06	2.443745e-06	8.137978e-10	1.696521e+01	5.691668e+01
2.390000e-06	2.485694e-06	8.277023e-10	1.725644e+01	5.802813e+01
2.400000e-06	2.527349e-06	8.433712e-10	1.754562e+01	5.910561e+01
2.410000e-06	2.568686e-06	8.594863e-10	1.783259e+01	6.014950e+01
2.420000e-06	2.609773e-06	8.738272e-10	1.811783e+01	6.116028e+01
2.430000e-06	2.650554e-06	8.859659e-10	1.840094e+01	6.213845e+01
2.440000e-06	2.691089e-06	8.968962e-10	1.868235e+01	6.308456e+01
2.450000e-06	2.731503e-06	9.077724e-10	1.896292e+01	6.399924e+01
2.460000e-06	2.771741e-06	9.192209e-10	1.924226e+01	6.488310e+01
2.470000e-06	2.811805e-06	9.305300e-10	1.952039e+01	6.573682e+01
2.480000e-06	2.851680e-06	9.409921e-10	1.979722e+01	6.656108e+01
2.490000e-06	2.891351e-06	9.517436e-10	2.007263e+01	6.735661e+01
2.500000e-06	2.930872e-06	9.631091e-10	2.034700e+01	6.812412e+01
2.510000e-06	2.970394e-06	9.731805e-10	2.062137e+01	6.886436e+01
2.520000e-06	3.009804e-06	9.822531e-10	2.089497e+01	6.957807e+01
2.530000e-06	3.048948e-06	9.906373e-10	2.116672e+01	7.026599e+01
2.540000e-06	3.087894e-06	9.993168e-10	2.143709e+01	7.092887e+01
2.550000e-06	3.126640e-06	1.007664e-09	2.170608e+01	7.156745e+01
2.560000e-06	3.165138e-06	1.014154e-09	2.197334e+01	7.218246e+01
2.570000e-06	3.203383e-06	1.020056e-09	2.223885e+01	7.277462e+01
2.580000e-06	3.241445e-06	1.027504e-09	2.250308e+01	7.334464e+01
2.590000e-06	3.279304e-06	1.036924e-09	2.276592e+01	7.389322e+01
2.600000e-06	3.316932e-06	1.046962e-09	2.302714e+01	7.442104e+01
2.610000e-06	3.354274e-06	1.056405e-09	2.328638e+01	7.492876e+01
2.620000e-06	3.391317e-06	1.063917e-09	2.354355e+01	7.541703e+01
2.630000e-06	3.428151e-06	1.069801e-09	2.379926e+01	7.588648e+01
2.640000e-06	3.464789e-06	1.075627e-09	2.405361e+01	7.633771e+01
2.650000e-06	3.501164e-06	1.081331e-09	2.430614e+01	7.677132e+01
2.660000e-06	3.537275e-06	1.087226e-09	2.455683e+01	7.718789e+01
2.670000e-06	3.573235e-06	1.093824e-09	2.480647e+01	7.758796e+01
2.680000e-06	3.609068e-06	1.100889e-09	2.505524e+01	7.797208e+01
2.690000e-06	3.644772e-06	1.107135e-09	2.530311e+01	7.834078e+01
2.700000e-06	3.680391e-06	1.111474e-09	2.555038e+01	7.869455e+01
2.710000e-06	3.715829e-06	1.114418e-09	2.579641e+01	7.903390e+01
2.720000e-06	3.750926e-06	1.118784e-09	2.604006e+01	7.935930e+01
2.730000e-06	3.785665e-06	1.124754e-09	2.628122e+01	7.967121e+01
2.740000e-06	3.820043e-06	1.131114e-09	2.651989e+01	7.997011e+01
2.750000e-06	3.853913e-06	1.135934e-09	2.675503e+01	8.025643e+01
2.760000e-06	3.887219e-06	1.139104e-09	2.698624e+01	8.053060e+01
2.770000e-06	3.920072e-06	1.142383e-09	2.721432e+01	8.079306e+01
2.780000e-06	3.952537e-06	1.146535e-09	2.743971e+01	8.104421e+01
2.790000e-06	3.984708e-06	1.152093e-09	2.766304e+01	8.128448e+01
2.800000e-06	4.016689e-06	1.156385e-09	2.788506e+01	8.151427e+01
2.810000e-06	4.048492e-06	1.156916e-09	2.810585e+01	8.173397e+01
2.820000e-06	4.080160e-06	1.158713e-09	2.832570e+01	8.194398e+01
2.830000e-06	4.111707e-06	1.164457e-09	2.854471e+01	8.214468e+01
2.840000e-06	4.143026e-06	1.169947e-09	2.876214e+01	8.233645e+01
2.850000e-06	4.174033e-06	1.171782e-09	2.897740e+01	8.251967e+01
2.860000e-06	4.204708e-06	1.171618e-09	2.919035e+01	8.269470e+01
2.870000e-06	4.235078e-06	1.171475e-09	2.940119e+01	8.286190e+01
2.880000e-06	4.265131e-06	1.170790e-09	2.960982e+01	8.302162e+01
2.890000e-06	4.294871e-06	1.171994e-09	2.981629e+01	8.317422e+01
2.900000e-06	4.324354e-06	1.174136e-09	3.002097e+01	8.332002e+01
