# Temperatura_=_13.16
# Concentracion g/m^3_=_1620.0
# C_Vs_to_Am_M_A/Vsm_=_65563218390.804596
# pendiente_HvsI_1/m_=_3716.3
# ordenada_HvsI_A/m_=_1297.0
# frecuencia_Hz_=_135095.737479554

Tiempo_(s)	Campo_(V.s)	Magnetizacion_(V.s)	Campo_(kA/m)	Magnetizacion_(A/m)
0.000000e+00	-5.525434e-06	-1.704803e-09	-3.838255e+01	-1.101263e+02
1.000000e-08	-5.525699e-06	-1.701462e-09	-3.838440e+01	-1.100996e+02
2.000000e-08	-5.525726e-06	-1.698615e-09	-3.838458e+01	-1.100711e+02
3.000000e-08	-5.525280e-06	-1.700861e-09	-3.838149e+01	-1.100405e+02
4.000000e-08	-5.524277e-06	-1.705116e-09	-3.837452e+01	-1.100074e+02
5.000000e-08	-5.522663e-06	-1.700934e-09	-3.836330e+01	-1.099716e+02
6.000000e-08	-5.520432e-06	-1.686326e-09	-3.834781e+01	-1.099327e+02
7.000000e-08	-5.517713e-06	-1.673391e-09	-3.832892e+01	-1.098904e+02
8.000000e-08	-5.514585e-06	-1.726148e-09	-3.830719e+01	-1.098443e+02
9.000000e-08	-5.511000e-06	-1.803224e-09	-3.828229e+01	-1.097942e+02
1.000000e-07	-5.506955e-06	-1.750542e-09	-3.825419e+01	-1.097398e+02
1.100000e-07	-5.502559e-06	-1.607556e-09	-3.822365e+01	-1.096808e+02
1.200000e-07	-5.497973e-06	-1.607240e-09	-3.819179e+01	-1.096169e+02
1.300000e-07	-5.493132e-06	-1.704040e-09	-3.815817e+01	-1.095479e+02
1.400000e-07	-5.487820e-06	-1.767396e-09	-3.812127e+01	-1.094736e+02
1.500000e-07	-5.482035e-06	-1.634276e-09	-3.808108e+01	-1.093939e+02
1.600000e-07	-5.475955e-06	-1.638160e-09	-3.803885e+01	-1.093084e+02
1.700000e-07	-5.469580e-06	-1.695988e-09	-3.799456e+01	-1.092173e+02
1.800000e-07	-5.462741e-06	-1.745782e-09	-3.794706e+01	-1.091203e+02
1.900000e-07	-5.455455e-06	-1.641977e-09	-3.789644e+01	-1.090174e+02
2.000000e-07	-5.447969e-06	-1.610473e-09	-3.784445e+01	-1.089086e+02
2.100000e-07	-5.440210e-06	-1.673535e-09	-3.779055e+01	-1.087940e+02
2.200000e-07	-5.432184e-06	-1.715072e-09	-3.773479e+01	-1.086735e+02
2.300000e-07	-5.424016e-06	-1.668897e-09	-3.767805e+01	-1.085474e+02
2.400000e-07	-5.415354e-06	-1.603447e-09	-3.761788e+01	-1.084156e+02
2.500000e-07	-5.405899e-06	-1.627768e-09	-3.755220e+01	-1.082783e+02
2.600000e-07	-5.395717e-06	-1.646039e-09	-3.748147e+01	-1.081359e+02
2.700000e-07	-5.384987e-06	-1.667168e-09	-3.740694e+01	-1.079884e+02
2.800000e-07	-5.373784e-06	-1.625223e-09	-3.732912e+01	-1.078360e+02
2.900000e-07	-5.362208e-06	-1.638671e-09	-3.724870e+01	-1.076792e+02
3.000000e-07	-5.350294e-06	-1.626345e-09	-3.716594e+01	-1.075181e+02
3.100000e-07	-5.337963e-06	-1.646581e-09	-3.708029e+01	-1.073531e+02
3.200000e-07	-5.325158e-06	-1.593945e-09	-3.699133e+01	-1.071844e+02
3.300000e-07	-5.311966e-06	-1.624228e-09	-3.689969e+01	-1.070124e+02
3.400000e-07	-5.298480e-06	-1.633592e-09	-3.680602e+01	-1.068375e+02
3.500000e-07	-5.284554e-06	-1.645346e-09	-3.670928e+01	-1.066598e+02
3.600000e-07	-5.270069e-06	-1.608073e-09	-3.660866e+01	-1.064799e+02
3.700000e-07	-5.255258e-06	-1.639694e-09	-3.650577e+01	-1.062980e+02
3.800000e-07	-5.239982e-06	-1.609713e-09	-3.639965e+01	-1.061144e+02
3.900000e-07	-5.223966e-06	-1.589938e-09	-3.628840e+01	-1.059294e+02
4.000000e-07	-5.207453e-06	-1.613733e-09	-3.617369e+01	-1.057433e+02
4.100000e-07	-5.190659e-06	-1.644287e-09	-3.605703e+01	-1.055564e+02
4.200000e-07	-5.173587e-06	-1.586537e-09	-3.593844e+01	-1.053690e+02
4.300000e-07	-5.156268e-06	-1.584149e-09	-3.581813e+01	-1.051811e+02
4.400000e-07	-5.138651e-06	-1.638740e-09	-3.569576e+01	-1.049931e+02
4.500000e-07	-5.120582e-06	-1.604173e-09	-3.557024e+01	-1.048051e+02
4.600000e-07	-5.102026e-06	-1.555860e-09	-3.544134e+01	-1.046173e+02
4.700000e-07	-5.083067e-06	-1.600497e-09	-3.530964e+01	-1.044296e+02
4.800000e-07	-5.063814e-06	-1.623296e-09	-3.517590e+01	-1.042422e+02
4.900000e-07	-5.044320e-06	-1.563366e-09	-3.504048e+01	-1.040552e+02
5.000000e-07	-5.024639e-06	-1.579883e-09	-3.490377e+01	-1.038685e+02
5.100000e-07	-5.004776e-06	-1.599474e-09	-3.476579e+01	-1.036820e+02
5.200000e-07	-4.984546e-06	-1.557081e-09	-3.462526e+01	-1.034958e+02
5.300000e-07	-4.963948e-06	-1.543476e-09	-3.448218e+01	-1.033097e+02
5.400000e-07	-4.943001e-06	-1.600107e-09	-3.433667e+01	-1.031235e+02
5.500000e-07	-4.921650e-06	-1.563957e-09	-3.418836e+01	-1.029371e+02
5.600000e-07	-4.899892e-06	-1.531652e-09	-3.403721e+01	-1.027503e+02
5.700000e-07	-4.877780e-06	-1.559677e-09	-3.388361e+01	-1.025630e+02
5.800000e-07	-4.855363e-06	-1.568693e-09	-3.372789e+01	-1.023747e+02
5.900000e-07	-4.832641e-06	-1.514002e-09	-3.357005e+01	-1.021854e+02
6.000000e-07	-4.809619e-06	-1.532231e-09	-3.341013e+01	-1.019946e+02
6.100000e-07	-4.786261e-06	-1.546164e-09	-3.324787e+01	-1.018022e+02
6.200000e-07	-4.762677e-06	-1.523819e-09	-3.308405e+01	-1.016078e+02
6.300000e-07	-4.738869e-06	-1.509161e-09	-3.291866e+01	-1.014111e+02
6.400000e-07	-4.714810e-06	-1.532450e-09	-3.275154e+01	-1.012117e+02
6.500000e-07	-4.690432e-06	-1.508289e-09	-3.258219e+01	-1.010095e+02
6.600000e-07	-4.665606e-06	-1.496383e-09	-3.240974e+01	-1.008039e+02
6.700000e-07	-4.640239e-06	-1.511454e-09	-3.223353e+01	-1.005949e+02
6.800000e-07	-4.614312e-06	-1.513006e-09	-3.205343e+01	-1.003820e+02
6.900000e-07	-4.587897e-06	-1.487051e-09	-3.186993e+01	-1.001650e+02
7.000000e-07	-4.561089e-06	-1.493751e-09	-3.168371e+01	-9.994359e+01
7.100000e-07	-4.533964e-06	-1.495568e-09	-3.149528e+01	-9.971757e+01
7.200000e-07	-4.506486e-06	-1.476150e-09	-3.130441e+01	-9.948669e+01
7.300000e-07	-4.478776e-06	-1.468477e-09	-3.111192e+01	-9.925074e+01
7.400000e-07	-4.450939e-06	-1.478087e-09	-3.091855e+01	-9.900955e+01
7.500000e-07	-4.422866e-06	-1.469867e-09	-3.072354e+01	-9.876296e+01
7.600000e-07	-4.394538e-06	-1.457005e-09	-3.052676e+01	-9.851086e+01
7.700000e-07	-4.365895e-06	-1.462383e-09	-3.032779e+01	-9.825312e+01
7.800000e-07	-4.336841e-06	-1.455786e-09	-3.012597e+01	-9.798970e+01
7.900000e-07	-4.307435e-06	-1.445462e-09	-2.992170e+01	-9.772053e+01
8.000000e-07	-4.277840e-06	-1.443179e-09	-2.971612e+01	-9.744561e+01
8.100000e-07	-4.248041e-06	-1.441283e-09	-2.950912e+01	-9.716495e+01
8.200000e-07	-4.217840e-06	-1.421038e-09	-2.929932e+01	-9.687857e+01
8.300000e-07	-4.187357e-06	-1.419498e-09	-2.908757e+01	-9.658655e+01
8.400000e-07	-4.156617e-06	-1.416541e-09	-2.887404e+01	-9.628896e+01
8.500000e-07	-4.125526e-06	-1.408906e-09	-2.865806e+01	-9.598590e+01
8.600000e-07	-4.094220e-06	-1.399548e-09	-2.844060e+01	-9.567751e+01
8.700000e-07	-4.062736e-06	-1.402586e-09	-2.822189e+01	-9.536391e+01
8.800000e-07	-4.031099e-06	-1.388570e-09	-2.800213e+01	-9.504525e+01
8.900000e-07	-3.999289e-06	-1.381205e-09	-2.778115e+01	-9.472170e+01
9.000000e-07	-3.967248e-06	-1.375820e-09	-2.755858e+01	-9.439342e+01
9.100000e-07	-3.934919e-06	-1.369784e-09	-2.733401e+01	-9.406059e+01
9.200000e-07	-3.902064e-06	-1.356711e-09	-2.710578e+01	-9.372338e+01
9.300000e-07	-3.868717e-06	-1.359367e-09	-2.687413e+01	-9.338197e+01
9.400000e-07	-3.834967e-06	-1.355044e-09	-2.663968e+01	-9.303652e+01
9.500000e-07	-3.800843e-06	-1.346923e-09	-2.640264e+01	-9.268719e+01
9.600000e-07	-3.766399e-06	-1.339472e-09	-2.616338e+01	-9.233415e+01
9.700000e-07	-3.731529e-06	-1.337795e-09	-2.592115e+01	-9.197752e+01
9.800000e-07	-3.696256e-06	-1.326049e-09	-2.567613e+01	-9.161743e+01
9.900000e-07	-3.660791e-06	-1.314947e-09	-2.542977e+01	-9.125400e+01
1.000000e-06	-3.625253e-06	-1.309014e-09	-2.518291e+01	-9.088730e+01
1.010000e-06	-3.589550e-06	-1.303542e-09	-2.493489e+01	-9.051741e+01
1.020000e-06	-3.553695e-06	-1.297042e-09	-2.468583e+01	-9.014438e+01
1.030000e-06	-3.517641e-06	-1.297671e-09	-2.443537e+01	-8.976823e+01
1.040000e-06	-3.481305e-06	-1.296945e-09	-2.418296e+01	-8.938897e+01
1.050000e-06	-3.444696e-06	-1.285081e-09	-2.392866e+01	-8.900656e+01
1.060000e-06	-3.407769e-06	-1.276867e-09	-2.367214e+01	-8.862097e+01
1.070000e-06	-3.370592e-06	-1.269982e-09	-2.341390e+01	-8.823211e+01
1.080000e-06	-3.333253e-06	-1.260419e-09	-2.315452e+01	-8.783991e+01
1.090000e-06	-3.295709e-06	-1.250473e-09	-2.289372e+01	-8.744424e+01
1.100000e-06	-3.257946e-06	-1.250564e-09	-2.263140e+01	-8.704497e+01
1.110000e-06	-3.219924e-06	-1.247285e-09	-2.236728e+01	-8.664193e+01
1.120000e-06	-3.181634e-06	-1.239663e-09	-2.210130e+01	-8.623496e+01
1.130000e-06	-3.143152e-06	-1.230539e-09	-2.183398e+01	-8.582387e+01
1.140000e-06	-3.104493e-06	-1.224234e-09	-2.156543e+01	-8.540843e+01
1.150000e-06	-3.065570e-06	-1.213045e-09	-2.129505e+01	-8.498845e+01
1.160000e-06	-3.026399e-06	-1.207259e-09	-2.102295e+01	-8.456369e+01
1.170000e-06	-2.987065e-06	-1.202571e-09	-2.074971e+01	-8.413391e+01
1.180000e-06	-2.947622e-06	-1.200324e-09	-2.047573e+01	-8.369887e+01
1.190000e-06	-2.908112e-06	-1.197593e-09	-2.020127e+01	-8.325832e+01
1.200000e-06	-2.868459e-06	-1.195260e-09	-1.992582e+01	-8.281202e+01
1.210000e-06	-2.828656e-06	-1.185653e-09	-1.964933e+01	-8.235973e+01
1.220000e-06	-2.788713e-06	-1.174234e-09	-1.937186e+01	-8.190120e+01
1.230000e-06	-2.748551e-06	-1.165119e-09	-1.909287e+01	-8.143619e+01
1.240000e-06	-2.708158e-06	-1.158920e-09	-1.881228e+01	-8.096447e+01
1.250000e-06	-2.667596e-06	-1.150885e-09	-1.853052e+01	-8.048581e+01
1.260000e-06	-2.626810e-06	-1.146460e-09	-1.824719e+01	-8.000001e+01
1.270000e-06	-2.585839e-06	-1.142624e-09	-1.796259e+01	-7.950686e+01
1.280000e-06	-2.544609e-06	-1.135877e-09	-1.767618e+01	-7.900616e+01
1.290000e-06	-2.502930e-06	-1.125617e-09	-1.738666e+01	-7.849771e+01
1.300000e-06	-2.460935e-06	-1.116261e-09	-1.709494e+01	-7.798136e+01
1.310000e-06	-2.418689e-06	-1.104069e-09	-1.680148e+01	-7.745693e+01
1.320000e-06	-2.376177e-06	-1.090988e-09	-1.650617e+01	-7.692426e+01
1.330000e-06	-2.333456e-06	-1.080853e-09	-1.620941e+01	-7.638321e+01
1.340000e-06	-2.290494e-06	-1.074003e-09	-1.591097e+01	-7.583361e+01
1.350000e-06	-2.247357e-06	-1.067332e-09	-1.561131e+01	-7.527534e+01
1.360000e-06	-2.204024e-06	-1.061813e-09	-1.531030e+01	-7.470824e+01
1.370000e-06	-2.160473e-06	-1.055730e-09	-1.500778e+01	-7.413217e+01
1.380000e-06	-2.116787e-06	-1.045208e-09	-1.470431e+01	-7.354699e+01
1.390000e-06	-2.073053e-06	-1.032102e-09	-1.440051e+01	-7.295254e+01
1.400000e-06	-2.029269e-06	-1.018417e-09	-1.409637e+01	-7.234864e+01
1.410000e-06	-1.985348e-06	-1.006511e-09	-1.379126e+01	-7.173512e+01
1.420000e-06	-1.941345e-06	-9.951313e-10	-1.348560e+01	-7.111177e+01
1.430000e-06	-1.897253e-06	-9.887257e-10	-1.317931e+01	-7.047837e+01
1.440000e-06	-1.853055e-06	-9.817784e-10	-1.287229e+01	-6.983468e+01
1.450000e-06	-1.808794e-06	-9.715423e-10	-1.256483e+01	-6.918041e+01
1.460000e-06	-1.764427e-06	-9.572392e-10	-1.225664e+01	-6.851526e+01
1.470000e-06	-1.719867e-06	-9.403586e-10	-1.194710e+01	-6.783889e+01
1.480000e-06	-1.675232e-06	-9.225060e-10	-1.163704e+01	-6.715091e+01
1.490000e-06	-1.630561e-06	-9.067702e-10	-1.132673e+01	-6.645089e+01
1.500000e-06	-1.585702e-06	-8.929565e-10	-1.101512e+01	-6.573837e+01
1.510000e-06	-1.540664e-06	-8.834276e-10	-1.070226e+01	-6.501285e+01
1.520000e-06	-1.495539e-06	-8.742357e-10	-1.038880e+01	-6.427374e+01
1.530000e-06	-1.450324e-06	-8.650786e-10	-1.007471e+01	-6.352046e+01
1.540000e-06	-1.404979e-06	-8.506345e-10	-9.759719e+00	-6.275233e+01
1.550000e-06	-1.359544e-06	-8.336185e-10	-9.444107e+00	-6.196866e+01
1.560000e-06	-1.314034e-06	-8.156588e-10	-9.127964e+00	-6.116868e+01
1.570000e-06	-1.268396e-06	-8.014362e-10	-8.810939e+00	-6.035159e+01
1.580000e-06	-1.222650e-06	-7.902990e-10	-8.493167e+00	-5.951656e+01
1.590000e-06	-1.176836e-06	-7.805622e-10	-8.174922e+00	-5.866267e+01
1.600000e-06	-1.130939e-06	-7.699958e-10	-7.856097e+00	-5.778901e+01
1.610000e-06	-1.084930e-06	-7.582479e-10	-7.536491e+00	-5.689460e+01
1.620000e-06	-1.038782e-06	-7.454279e-10	-7.215926e+00	-5.597845e+01
1.630000e-06	-9.926128e-07	-7.315425e-10	-6.895208e+00	-5.503953e+01
1.640000e-06	-9.464048e-07	-7.163063e-10	-6.574223e+00	-5.407679e+01
1.650000e-06	-9.000833e-07	-6.989622e-10	-6.252450e+00	-5.308916e+01
1.660000e-06	-8.537772e-07	-6.829262e-10	-5.930783e+00	-5.207558e+01
1.670000e-06	-8.075261e-07	-6.653724e-10	-5.609498e+00	-5.103496e+01
1.680000e-06	-7.612299e-07	-6.475079e-10	-5.287901e+00	-4.996626e+01
1.690000e-06	-7.148965e-07	-6.310078e-10	-4.966045e+00	-4.886840e+01
1.700000e-06	-6.684671e-07	-6.146732e-10	-4.643522e+00	-4.774037e+01
1.710000e-06	-6.219317e-07	-5.972583e-10	-4.320263e+00	-4.658116e+01
1.720000e-06	-5.753211e-07	-5.816139e-10	-3.996481e+00	-4.538981e+01
1.730000e-06	-5.286869e-07	-5.627880e-10	-3.672536e+00	-4.416542e+01
1.740000e-06	-4.820589e-07	-5.400624e-10	-3.348633e+00	-4.290714e+01
1.750000e-06	-4.353576e-07	-5.175424e-10	-3.024221e+00	-4.161417e+01
1.760000e-06	-3.885825e-07	-4.983439e-10	-2.699297e+00	-4.028581e+01
1.770000e-06	-3.417660e-07	-4.799710e-10	-2.374086e+00	-3.892143e+01
1.780000e-06	-2.949353e-07	-4.625773e-10	-2.048775e+00	-3.752051e+01
1.790000e-06	-2.482078e-07	-4.465272e-10	-1.724181e+00	-3.608261e+01
1.800000e-06	-2.015166e-07	-4.293373e-10	-1.399840e+00	-3.460740e+01
1.810000e-06	-1.546775e-07	-4.074420e-10	-1.074471e+00	-3.309468e+01
1.820000e-06	-1.077785e-07	-3.837599e-10	-7.486856e-01	-3.154435e+01
1.830000e-06	-6.091103e-08	-3.598745e-10	-4.231199e-01	-2.995646e+01
1.840000e-06	-1.402309e-08	-3.368121e-10	-9.741170e-02	-2.833117e+01
1.850000e-06	3.287260e-08	-3.152100e-10	2.283503e-01	-2.666879e+01
1.860000e-06	7.966921e-08	-2.937519e-10	5.534240e-01	-2.496977e+01
1.870000e-06	1.264811e-07	-2.726140e-10	8.786037e-01	-2.323469e+01
1.880000e-06	1.733390e-07	-2.500265e-10	1.204103e+00	-2.146428e+01
1.890000e-06	2.201508e-07	-2.247681e-10	1.529282e+00	-1.965941e+01
1.900000e-06	2.669582e-07	-1.957890e-10	1.854431e+00	-1.782111e+01
1.910000e-06	3.137277e-07	-1.649540e-10	2.179317e+00	-1.595052e+01
1.920000e-06	3.604286e-07	-1.356700e-10	2.503725e+00	-1.404896e+01
1.930000e-06	4.071357e-07	-1.085958e-10	2.828177e+00	-1.211784e+01
1.940000e-06	4.539286e-07	-8.378122e-11	3.153226e+00	-1.015875e+01
1.950000e-06	5.006869e-07	-6.063106e-11	3.478033e+00	-8.173376e+00
1.960000e-06	5.473183e-07	-3.535323e-11	3.801959e+00	-6.163528e+00
1.970000e-06	5.939179e-07	-6.359952e-12	4.125665e+00	-4.131137e+00
1.980000e-06	6.404170e-07	2.396805e-11	4.448671e+00	-2.078237e+00
1.990000e-06	6.868451e-07	5.543532e-11	4.771185e+00	-6.960265e-03
2.000000e-06	7.332285e-07	8.835163e-11	5.093388e+00	2.080475e+00
2.010000e-06	7.795380e-07	1.198985e-10	5.415079e+00	4.181770e+00
2.020000e-06	8.258424e-07	1.504229e-10	5.736733e+00	6.294561e+00
2.030000e-06	8.720749e-07	1.803991e-10	6.057888e+00	8.416425e+00
2.040000e-06	9.181910e-07	2.094145e-10	6.378235e+00	1.054490e+01
2.050000e-06	9.642313e-07	2.385869e-10	6.698055e+00	1.267748e+01
2.060000e-06	1.010246e-06	2.685312e-10	7.017700e+00	1.481164e+01
2.070000e-06	1.056168e-06	3.004199e-10	7.336693e+00	1.694486e+01
2.080000e-06	1.102019e-06	3.344419e-10	7.655199e+00	1.907460e+01
2.090000e-06	1.147824e-06	3.662785e-10	7.973385e+00	2.119836e+01
2.100000e-06	1.193520e-06	3.975743e-10	8.290814e+00	2.331364e+01
2.110000e-06	1.239193e-06	4.278133e-10	8.608080e+00	2.541799e+01
2.120000e-06	1.284814e-06	4.573429e-10	8.924991e+00	2.750903e+01
2.130000e-06	1.330319e-06	4.869032e-10	9.241092e+00	2.958439e+01
2.140000e-06	1.375722e-06	5.159860e-10	9.556485e+00	3.164183e+01
2.150000e-06	1.421000e-06	5.432899e-10	9.871012e+00	3.367914e+01
2.160000e-06	1.466251e-06	5.703816e-10	1.018535e+01	3.569424e+01
2.170000e-06	1.511463e-06	5.969624e-10	1.049942e+01	3.768513e+01
2.180000e-06	1.556497e-06	6.237031e-10	1.081224e+01	3.964990e+01
2.190000e-06	1.601467e-06	6.524758e-10	1.112463e+01	4.158679e+01
2.200000e-06	1.646285e-06	6.805053e-10	1.143596e+01	4.349414e+01
2.210000e-06	1.690832e-06	7.064473e-10	1.174540e+01	4.537040e+01
2.220000e-06	1.735234e-06	7.308540e-10	1.205384e+01	4.721417e+01
2.230000e-06	1.779511e-06	7.545186e-10	1.236141e+01	4.902418e+01
2.240000e-06	1.823597e-06	7.763362e-10	1.266766e+01	5.079929e+01
2.250000e-06	1.867619e-06	7.974695e-10	1.297346e+01	5.253849e+01
2.260000e-06	1.911642e-06	8.188041e-10	1.327926e+01	5.424093e+01
2.270000e-06	1.955580e-06	8.402130e-10	1.358448e+01	5.590588e+01
2.280000e-06	1.999415e-06	8.619020e-10	1.388898e+01	5.753273e+01
2.290000e-06	2.043204e-06	8.827341e-10	1.419317e+01	5.912104e+01
2.300000e-06	2.086967e-06	9.021383e-10	1.449717e+01	6.067046e+01
2.310000e-06	2.130649e-06	9.222201e-10	1.480060e+01	6.218081e+01
2.320000e-06	2.174275e-06	9.423127e-10	1.510365e+01	6.365200e+01
2.330000e-06	2.217806e-06	9.613276e-10	1.540604e+01	6.508407e+01
2.340000e-06	2.261221e-06	9.792861e-10	1.570762e+01	6.647717e+01
2.350000e-06	2.304500e-06	9.977331e-10	1.600826e+01	6.783155e+01
2.360000e-06	2.347550e-06	1.016702e-09	1.630731e+01	6.914757e+01
2.370000e-06	2.390286e-06	1.034872e-09	1.660417e+01	7.042568e+01
2.380000e-06	2.432640e-06	1.050672e-09	1.689839e+01	7.166641e+01
2.390000e-06	2.474689e-06	1.065990e-09	1.719048e+01	7.287037e+01
2.400000e-06	2.516350e-06	1.080767e-09	1.747988e+01	7.403824e+01
2.410000e-06	2.557610e-06	1.094871e-09	1.776650e+01	7.517074e+01
2.420000e-06	2.598669e-06	1.108557e-09	1.805172e+01	7.626869e+01
2.430000e-06	2.639509e-06	1.120902e-09	1.833541e+01	7.733291e+01
2.440000e-06	2.680108e-06	1.132256e-09	1.861743e+01	7.836428e+01
2.450000e-06	2.720493e-06	1.144466e-09	1.889796e+01	7.936371e+01
2.460000e-06	2.760658e-06	1.157455e-09	1.917698e+01	8.033212e+01
2.470000e-06	2.800607e-06	1.171937e-09	1.945448e+01	8.127046e+01
2.480000e-06	2.840447e-06	1.187080e-09	1.973123e+01	8.217968e+01
2.490000e-06	2.880217e-06	1.199617e-09	2.000749e+01	8.306075e+01
2.500000e-06	2.919886e-06	1.209551e-09	2.028306e+01	8.391460e+01
2.510000e-06	2.959435e-06	1.218251e-09	2.055778e+01	8.474218e+01
2.520000e-06	2.998758e-06	1.228984e-09	2.083094e+01	8.554443e+01
2.530000e-06	3.037872e-06	1.240090e-09	2.110264e+01	8.632225e+01
2.540000e-06	3.076769e-06	1.250021e-09	2.137285e+01	8.707654e+01
2.550000e-06	3.115440e-06	1.260870e-09	2.164148e+01	8.780816e+01
2.560000e-06	3.153992e-06	1.272050e-09	2.190928e+01	8.851794e+01
2.570000e-06	3.192323e-06	1.283518e-09	2.217554e+01	8.920670e+01
2.580000e-06	3.230365e-06	1.294352e-09	2.243981e+01	8.987520e+01
2.590000e-06	3.268165e-06	1.303502e-09	2.270238e+01	9.052420e+01
2.600000e-06	3.305788e-06	1.310785e-09	2.296373e+01	9.115438e+01
2.610000e-06	3.343256e-06	1.317875e-09	2.322400e+01	9.176643e+01
2.620000e-06	3.380413e-06	1.326655e-09	2.348211e+01	9.236099e+01
2.630000e-06	3.417336e-06	1.334788e-09	2.373861e+01	9.293866e+01
2.640000e-06	3.454071e-06	1.343434e-09	2.399379e+01	9.350001e+01
2.650000e-06	3.490505e-06	1.353398e-09	2.424687e+01	9.404558e+01
2.660000e-06	3.526671e-06	1.362445e-09	2.449810e+01	9.457589e+01
2.670000e-06	3.562620e-06	1.370911e-09	2.474782e+01	9.509142e+01
2.680000e-06	3.598474e-06	1.380221e-09	2.499688e+01	9.559262e+01
2.690000e-06	3.634224e-06	1.388549e-09	2.524522e+01	9.607994e+01
2.700000e-06	3.669808e-06	1.394976e-09	2.549241e+01	9.655378e+01
2.710000e-06	3.705265e-06	1.401755e-09	2.573871e+01	9.701454e+01
2.720000e-06	3.740478e-06	1.410051e-09	2.598332e+01	9.746260e+01
2.730000e-06	3.775422e-06	1.417141e-09	2.622606e+01	9.789831e+01
2.740000e-06	3.810008e-06	1.422874e-09	2.646631e+01	9.832202e+01
2.750000e-06	3.844052e-06	1.429567e-09	2.670279e+01	9.873409e+01
2.760000e-06	3.877544e-06	1.436762e-09	2.693545e+01	9.913482e+01
2.770000e-06	3.910578e-06	1.443561e-09	2.716492e+01	9.952456e+01
2.780000e-06	3.943165e-06	1.450293e-09	2.739128e+01	9.990362e+01
2.790000e-06	3.975349e-06	1.457090e-09	2.761485e+01	1.002723e+02
2.800000e-06	4.007311e-06	1.462857e-09	2.783688e+01	1.006310e+02
2.810000e-06	4.039175e-06	1.466249e-09	2.805822e+01	1.009799e+02
2.820000e-06	4.070886e-06	1.470211e-09	2.827851e+01	1.013193e+02
2.830000e-06	4.102376e-06	1.476270e-09	2.849725e+01	1.016497e+02
2.840000e-06	4.133678e-06	1.482507e-09	2.871469e+01	1.019712e+02
2.850000e-06	4.164688e-06	1.485516e-09	2.893010e+01	1.022843e+02
2.860000e-06	4.195270e-06	1.486300e-09	2.914254e+01	1.025891e+02
2.870000e-06	4.225528e-06	1.490231e-09	2.935273e+01	1.028860e+02
2.880000e-06	4.255496e-06	1.495431e-09	2.956090e+01	1.031754e+02
2.890000e-06	4.285163e-06	1.498675e-09	2.976698e+01	1.034575e+02
2.900000e-06	4.314612e-06	1.501543e-09	2.997155e+01	1.037325e+02
