# Temperatura_=_-2.7
# Concentracion g/m^3_=_1620.0
# C_Vs_to_Am_M_A/Vsm_=_65563218390.804596
# pendiente_HvsI_1/m_=_3716.3
# ordenada_HvsI_A/m_=_1297.0
# frecuencia_Hz_=_135101.00430030297

Tiempo_(s)	Campo_(V.s)	Magnetizacion_(V.s)	Campo_(kA/m)	Magnetizacion_(A/m)
0.000000e+00	-5.534459e-06	-1.339892e-09	-3.837320e+01	-8.698096e+01
1.000000e-08	-5.534653e-06	-1.336350e-09	-3.837455e+01	-8.693512e+01
2.000000e-08	-5.534699e-06	-1.334166e-09	-3.837487e+01	-8.689072e+01
3.000000e-08	-5.534449e-06	-1.333623e-09	-3.837313e+01	-8.684770e+01
4.000000e-08	-5.533718e-06	-1.333902e-09	-3.836806e+01	-8.680602e+01
5.000000e-08	-5.532472e-06	-1.333356e-09	-3.835942e+01	-8.676557e+01
6.000000e-08	-5.530656e-06	-1.332985e-09	-3.834683e+01	-8.672626e+01
7.000000e-08	-5.528301e-06	-1.328151e-09	-3.833050e+01	-8.668794e+01
8.000000e-08	-5.525379e-06	-1.315498e-09	-3.831024e+01	-8.665047e+01
9.000000e-08	-5.521891e-06	-1.322588e-09	-3.828606e+01	-8.661368e+01
1.000000e-07	-5.517965e-06	-1.367658e-09	-3.825884e+01	-8.657739e+01
1.100000e-07	-5.513666e-06	-1.379482e-09	-3.822903e+01	-8.654139e+01
1.200000e-07	-5.509081e-06	-1.310765e-09	-3.819724e+01	-8.650548e+01
1.300000e-07	-5.504288e-06	-1.266080e-09	-3.816401e+01	-8.646943e+01
1.400000e-07	-5.499273e-06	-1.315345e-09	-3.812924e+01	-8.643303e+01
1.500000e-07	-5.493861e-06	-1.369510e-09	-3.809171e+01	-8.639603e+01
1.600000e-07	-5.487985e-06	-1.335863e-09	-3.805097e+01	-8.635821e+01
1.700000e-07	-5.481767e-06	-1.288851e-09	-3.800786e+01	-8.631933e+01
1.800000e-07	-5.475152e-06	-1.325481e-09	-3.796199e+01	-8.627916e+01
1.900000e-07	-5.468061e-06	-1.364271e-09	-3.791283e+01	-8.623747e+01
2.000000e-07	-5.460612e-06	-1.324720e-09	-3.786118e+01	-8.619405e+01
2.100000e-07	-5.452841e-06	-1.272149e-09	-3.780730e+01	-8.614868e+01
2.200000e-07	-5.444831e-06	-1.291056e-09	-3.775176e+01	-8.610116e+01
2.300000e-07	-5.436623e-06	-1.329697e-09	-3.769485e+01	-8.605131e+01
2.400000e-07	-5.428133e-06	-1.317542e-09	-3.763599e+01	-8.599894e+01
2.500000e-07	-5.419168e-06	-1.279408e-09	-3.757383e+01	-8.594390e+01
2.600000e-07	-5.409467e-06	-1.284529e-09	-3.750657e+01	-8.588604e+01
2.700000e-07	-5.399033e-06	-1.312611e-09	-3.743422e+01	-8.582523e+01
2.800000e-07	-5.388060e-06	-1.315665e-09	-3.735814e+01	-8.576137e+01
2.900000e-07	-5.376623e-06	-1.292962e-09	-3.727884e+01	-8.569436e+01
3.000000e-07	-5.364754e-06	-1.288075e-09	-3.719655e+01	-8.562412e+01
3.100000e-07	-5.352485e-06	-1.308394e-09	-3.711148e+01	-8.555059e+01
3.200000e-07	-5.339798e-06	-1.314002e-09	-3.702352e+01	-8.547375e+01
3.300000e-07	-5.326652e-06	-1.292165e-09	-3.693237e+01	-8.539356e+01
3.400000e-07	-5.313084e-06	-1.288456e-09	-3.683830e+01	-8.531002e+01
3.500000e-07	-5.299262e-06	-1.316551e-09	-3.674246e+01	-8.522313e+01
3.600000e-07	-5.285018e-06	-1.314150e-09	-3.664370e+01	-8.513293e+01
3.700000e-07	-5.270278e-06	-1.288380e-09	-3.654150e+01	-8.503945e+01
3.800000e-07	-5.255126e-06	-1.297439e-09	-3.643645e+01	-8.494275e+01
3.900000e-07	-5.239435e-06	-1.307160e-09	-3.632765e+01	-8.484287e+01
4.000000e-07	-5.223156e-06	-1.276722e-09	-3.621478e+01	-8.473990e+01
4.100000e-07	-5.206499e-06	-1.275734e-09	-3.609929e+01	-8.463392e+01
4.200000e-07	-5.189553e-06	-1.307560e-09	-3.598179e+01	-8.452500e+01
4.300000e-07	-5.172317e-06	-1.289191e-09	-3.586229e+01	-8.441324e+01
4.400000e-07	-5.154777e-06	-1.257739e-09	-3.574067e+01	-8.429873e+01
4.500000e-07	-5.136893e-06	-1.293995e-09	-3.561667e+01	-8.418157e+01
4.600000e-07	-5.118652e-06	-1.304933e-09	-3.549020e+01	-8.406186e+01
4.700000e-07	-5.099919e-06	-1.255516e-09	-3.536031e+01	-8.393968e+01
4.800000e-07	-5.080718e-06	-1.255397e-09	-3.522718e+01	-8.381514e+01
4.900000e-07	-5.061224e-06	-1.289232e-09	-3.509202e+01	-8.368832e+01
5.000000e-07	-5.041526e-06	-1.258585e-09	-3.495545e+01	-8.355931e+01
5.100000e-07	-5.021587e-06	-1.242830e-09	-3.481720e+01	-8.342819e+01
5.200000e-07	-5.001371e-06	-1.277393e-09	-3.467703e+01	-8.329503e+01
5.300000e-07	-4.980794e-06	-1.265609e-09	-3.453436e+01	-8.315990e+01
5.400000e-07	-4.959915e-06	-1.234675e-09	-3.438960e+01	-8.302286e+01
5.500000e-07	-4.938717e-06	-1.264726e-09	-3.424262e+01	-8.288396e+01
5.600000e-07	-4.917091e-06	-1.272291e-09	-3.409268e+01	-8.274324e+01
5.700000e-07	-4.895077e-06	-1.230020e-09	-3.394004e+01	-8.260075e+01
5.800000e-07	-4.872700e-06	-1.234203e-09	-3.378489e+01	-8.245651e+01
5.900000e-07	-4.850061e-06	-1.258968e-09	-3.362793e+01	-8.231054e+01
6.000000e-07	-4.827095e-06	-1.235833e-09	-3.346869e+01	-8.216287e+01
6.100000e-07	-4.803786e-06	-1.227028e-09	-3.330708e+01	-8.201349e+01
6.200000e-07	-4.780252e-06	-1.247588e-09	-3.314390e+01	-8.186241e+01
6.300000e-07	-4.756506e-06	-1.232099e-09	-3.297926e+01	-8.170963e+01
6.400000e-07	-4.732515e-06	-1.212281e-09	-3.281292e+01	-8.155514e+01
6.500000e-07	-4.708178e-06	-1.225852e-09	-3.264418e+01	-8.139894e+01
6.600000e-07	-4.683489e-06	-1.225639e-09	-3.247299e+01	-8.124101e+01
6.700000e-07	-4.658381e-06	-1.211899e-09	-3.229891e+01	-8.108135e+01
6.800000e-07	-4.632696e-06	-1.221852e-09	-3.212082e+01	-8.091993e+01
6.900000e-07	-4.606473e-06	-1.221834e-09	-3.193901e+01	-8.075676e+01
7.000000e-07	-4.579851e-06	-1.205137e-09	-3.175442e+01	-8.059181e+01
7.100000e-07	-4.552839e-06	-1.205222e-09	-3.156714e+01	-8.042509e+01
7.200000e-07	-4.525453e-06	-1.209869e-09	-3.137725e+01	-8.025658e+01
7.300000e-07	-4.497759e-06	-1.198932e-09	-3.118524e+01	-8.008629e+01
7.400000e-07	-4.469842e-06	-1.198683e-09	-3.099167e+01	-7.991422e+01
7.500000e-07	-4.441756e-06	-1.205912e-09	-3.079694e+01	-7.974039e+01
7.600000e-07	-4.413434e-06	-1.199010e-09	-3.060056e+01	-7.956480e+01
7.700000e-07	-4.384759e-06	-1.191472e-09	-3.040175e+01	-7.938749e+01
7.800000e-07	-4.355827e-06	-1.191452e-09	-3.020115e+01	-7.920847e+01
7.900000e-07	-4.326666e-06	-1.180346e-09	-2.999896e+01	-7.902777e+01
8.000000e-07	-4.297123e-06	-1.169471e-09	-2.979412e+01	-7.884544e+01
8.100000e-07	-4.267245e-06	-1.169711e-09	-2.958697e+01	-7.866152e+01
8.200000e-07	-4.237071e-06	-1.164664e-09	-2.937775e+01	-7.847605e+01
8.300000e-07	-4.206617e-06	-1.154064e-09	-2.916660e+01	-7.828909e+01
8.400000e-07	-4.175851e-06	-1.157713e-09	-2.895328e+01	-7.810068e+01
8.500000e-07	-4.144765e-06	-1.164262e-09	-2.873775e+01	-7.791089e+01
8.600000e-07	-4.113464e-06	-1.159060e-09	-2.852072e+01	-7.771976e+01
8.700000e-07	-4.081958e-06	-1.152367e-09	-2.830228e+01	-7.752736e+01
8.800000e-07	-4.050279e-06	-1.145972e-09	-2.808263e+01	-7.733374e+01
8.900000e-07	-4.018472e-06	-1.133411e-09	-2.786209e+01	-7.713894e+01
9.000000e-07	-3.986421e-06	-1.125651e-09	-2.763987e+01	-7.694302e+01
9.100000e-07	-3.954031e-06	-1.129074e-09	-2.741529e+01	-7.674601e+01
9.200000e-07	-3.921271e-06	-1.129667e-09	-2.718815e+01	-7.654795e+01
9.300000e-07	-3.888141e-06	-1.126353e-09	-2.695844e+01	-7.634886e+01
9.400000e-07	-3.854619e-06	-1.128669e-09	-2.672602e+01	-7.614875e+01
9.500000e-07	-3.820665e-06	-1.129893e-09	-2.649060e+01	-7.594763e+01
9.600000e-07	-3.786261e-06	-1.121497e-09	-2.625206e+01	-7.574549e+01
9.700000e-07	-3.751390e-06	-1.114027e-09	-2.601028e+01	-7.554231e+01
9.800000e-07	-3.716160e-06	-1.110660e-09	-2.576601e+01	-7.533804e+01
9.900000e-07	-3.680718e-06	-1.101835e-09	-2.552028e+01	-7.513264e+01
1.000000e-06	-3.645110e-06	-1.090970e-09	-2.527339e+01	-7.492603e+01
1.010000e-06	-3.609332e-06	-1.089413e-09	-2.502532e+01	-7.471813e+01
1.020000e-06	-3.573446e-06	-1.089591e-09	-2.477650e+01	-7.450884e+01
1.030000e-06	-3.537399e-06	-1.086729e-09	-2.452657e+01	-7.429803e+01
1.040000e-06	-3.501162e-06	-1.086930e-09	-2.427532e+01	-7.408558e+01
1.050000e-06	-3.464752e-06	-1.086826e-09	-2.402287e+01	-7.387132e+01
1.060000e-06	-3.428051e-06	-1.077781e-09	-2.376841e+01	-7.365509e+01
1.070000e-06	-3.391055e-06	-1.068410e-09	-2.351190e+01	-7.343670e+01
1.080000e-06	-3.353866e-06	-1.063306e-09	-2.325405e+01	-7.321596e+01
1.090000e-06	-3.316416e-06	-1.056532e-09	-2.299438e+01	-7.299265e+01
1.100000e-06	-3.278619e-06	-1.050059e-09	-2.273232e+01	-7.276655e+01
1.110000e-06	-3.240562e-06	-1.048527e-09	-2.246845e+01	-7.253743e+01
1.120000e-06	-3.202311e-06	-1.044637e-09	-2.220324e+01	-7.230504e+01
1.130000e-06	-3.163890e-06	-1.037861e-09	-2.193684e+01	-7.206914e+01
1.140000e-06	-3.125173e-06	-1.032946e-09	-2.166840e+01	-7.182947e+01
1.150000e-06	-3.086174e-06	-1.028444e-09	-2.139800e+01	-7.158576e+01
1.160000e-06	-3.047060e-06	-1.020910e-09	-2.112681e+01	-7.133777e+01
1.170000e-06	-3.007843e-06	-1.013369e-09	-2.085490e+01	-7.108523e+01
1.180000e-06	-2.968463e-06	-1.010040e-09	-2.058185e+01	-7.082789e+01
1.190000e-06	-2.928902e-06	-1.009479e-09	-2.030756e+01	-7.056549e+01
1.200000e-06	-2.889184e-06	-1.008017e-09	-2.003217e+01	-7.029780e+01
1.210000e-06	-2.849330e-06	-1.002220e-09	-1.975585e+01	-7.002457e+01
1.220000e-06	-2.809388e-06	-9.930969e-10	-1.947891e+01	-6.974559e+01
1.230000e-06	-2.769260e-06	-9.849009e-10	-1.920068e+01	-6.946062e+01
1.240000e-06	-2.728916e-06	-9.813854e-10	-1.892095e+01	-6.916949e+01
1.250000e-06	-2.688316e-06	-9.795553e-10	-1.863945e+01	-6.887198e+01
1.260000e-06	-2.647454e-06	-9.773255e-10	-1.835614e+01	-6.856794e+01
1.270000e-06	-2.606408e-06	-9.737371e-10	-1.807155e+01	-6.825721e+01
1.280000e-06	-2.565021e-06	-9.676714e-10	-1.778458e+01	-6.793963e+01
1.290000e-06	-2.523268e-06	-9.586909e-10	-1.749509e+01	-6.761509e+01
1.300000e-06	-2.481294e-06	-9.488995e-10	-1.720407e+01	-6.728347e+01
1.310000e-06	-2.439133e-06	-9.407628e-10	-1.691174e+01	-6.694467e+01
1.320000e-06	-2.396710e-06	-9.339284e-10	-1.661760e+01	-6.659861e+01
1.330000e-06	-2.353980e-06	-9.292597e-10	-1.632133e+01	-6.624521e+01
1.340000e-06	-2.310993e-06	-9.280641e-10	-1.602328e+01	-6.588441e+01
1.350000e-06	-2.267802e-06	-9.273365e-10	-1.572382e+01	-6.551616e+01
1.360000e-06	-2.224401e-06	-9.243153e-10	-1.542290e+01	-6.514039e+01
1.370000e-06	-2.180795e-06	-9.180629e-10	-1.512055e+01	-6.475707e+01
1.380000e-06	-2.137114e-06	-9.090055e-10	-1.481769e+01	-6.436614e+01
1.390000e-06	-2.093371e-06	-8.963959e-10	-1.451440e+01	-6.396756e+01
1.400000e-06	-2.049533e-06	-8.851288e-10	-1.421045e+01	-6.356125e+01
1.410000e-06	-2.005648e-06	-8.796014e-10	-1.390617e+01	-6.314716e+01
1.420000e-06	-1.961678e-06	-8.754485e-10	-1.360131e+01	-6.272520e+01
1.430000e-06	-1.917566e-06	-8.699885e-10	-1.329545e+01	-6.229527e+01
1.440000e-06	-1.873362e-06	-8.660929e-10	-1.298897e+01	-6.185724e+01
1.450000e-06	-1.829092e-06	-8.609827e-10	-1.268202e+01	-6.141097e+01
1.460000e-06	-1.784662e-06	-8.517645e-10	-1.237396e+01	-6.095626e+01
1.470000e-06	-1.740081e-06	-8.396315e-10	-1.206486e+01	-6.049291e+01
1.480000e-06	-1.695446e-06	-8.282442e-10	-1.175539e+01	-6.002067e+01
1.490000e-06	-1.650640e-06	-8.162139e-10	-1.144472e+01	-5.953924e+01
1.500000e-06	-1.605610e-06	-8.028797e-10	-1.113251e+01	-5.904829e+01
1.510000e-06	-1.560503e-06	-7.916404e-10	-1.081975e+01	-5.854743e+01
1.520000e-06	-1.515263e-06	-7.830035e-10	-1.050608e+01	-5.803624e+01
1.530000e-06	-1.469913e-06	-7.762812e-10	-1.019165e+01	-5.751422e+01
1.540000e-06	-1.424524e-06	-7.700802e-10	-9.876942e+00	-5.698083e+01
1.550000e-06	-1.379074e-06	-7.634412e-10	-9.561819e+00	-5.643550e+01
1.560000e-06	-1.333555e-06	-7.549362e-10	-9.246212e+00	-5.587756e+01
1.570000e-06	-1.287936e-06	-7.456586e-10	-8.929914e+00	-5.530632e+01
1.580000e-06	-1.242152e-06	-7.355834e-10	-8.612467e+00	-5.472102e+01
1.590000e-06	-1.196264e-06	-7.238006e-10	-8.294305e+00	-5.412085e+01
1.600000e-06	-1.150320e-06	-7.114721e-10	-7.975747e+00	-5.350494e+01
1.610000e-06	-1.104302e-06	-7.022572e-10	-7.656681e+00	-5.287238e+01
1.620000e-06	-1.058280e-06	-6.954810e-10	-7.337590e+00	-5.222221e+01
1.630000e-06	-1.012169e-06	-6.903687e-10	-7.017879e+00	-5.155343e+01
1.640000e-06	-9.659384e-07	-6.862976e-10	-6.697339e+00	-5.086500e+01
1.650000e-06	-9.196629e-07	-6.786448e-10	-6.376488e+00	-5.015585e+01
1.660000e-06	-8.732769e-07	-6.661947e-10	-6.054870e+00	-4.942486e+01
1.670000e-06	-8.268358e-07	-6.511075e-10	-5.732870e+00	-4.867092e+01
1.680000e-06	-7.804073e-07	-6.328159e-10	-5.410958e+00	-4.789288e+01
1.690000e-06	-7.338232e-07	-6.147119e-10	-5.087967e+00	-4.708961e+01
1.700000e-06	-6.872000e-07	-5.983312e-10	-4.764705e+00	-4.625994e+01
1.710000e-06	-6.405779e-07	-5.832340e-10	-4.441450e+00	-4.540274e+01
1.720000e-06	-5.939175e-07	-5.700461e-10	-4.117930e+00	-4.451688e+01
1.730000e-06	-5.472381e-07	-5.577625e-10	-3.794278e+00	-4.360126e+01
1.740000e-06	-5.004056e-07	-5.438116e-10	-3.469565e+00	-4.265483e+01
1.750000e-06	-4.534994e-07	-5.278035e-10	-3.144341e+00	-4.167654e+01
1.760000e-06	-4.066686e-07	-5.111615e-10	-2.819639e+00	-4.066544e+01
1.770000e-06	-3.598238e-07	-4.924842e-10	-2.494840e+00	-3.962061e+01
1.780000e-06	-3.128094e-07	-4.737327e-10	-2.168866e+00	-3.854121e+01
1.790000e-06	-2.658222e-07	-4.567893e-10	-1.843080e+00	-3.742649e+01
1.800000e-06	-2.190104e-07	-4.418891e-10	-1.518509e+00	-3.627575e+01
1.810000e-06	-1.720844e-07	-4.282765e-10	-1.193148e+00	-3.508844e+01
1.820000e-06	-1.249353e-07	-4.134910e-10	-8.662397e-01	-3.386407e+01
1.830000e-06	-7.787789e-08	-3.974029e-10	-5.399668e-01	-3.260228e+01
1.840000e-06	-3.095628e-08	-3.807655e-10	-2.146355e-01	-3.130282e+01
1.850000e-06	1.594469e-08	-3.627362e-10	1.105526e-01	-2.996559e+01
1.860000e-06	6.281761e-08	-3.442691e-10	4.355462e-01	-2.859058e+01
1.870000e-06	1.097486e-07	-3.244723e-10	7.609425e-01	-2.717794e+01
1.880000e-06	1.566385e-07	-3.035972e-10	1.086054e+00	-2.572796e+01
1.890000e-06	2.035237e-07	-2.830611e-10	1.411132e+00	-2.424106e+01
1.900000e-06	2.504694e-07	-2.625278e-10	1.736631e+00	-2.271781e+01
1.910000e-06	2.974163e-07	-2.398651e-10	2.062137e+00	-2.115893e+01
1.920000e-06	3.443142e-07	-2.169527e-10	2.387304e+00	-1.956528e+01
1.930000e-06	3.911535e-07	-1.952872e-10	2.712065e+00	-1.793786e+01
1.940000e-06	4.380872e-07	-1.738774e-10	3.037480e+00	-1.627784e+01
1.950000e-06	4.850517e-07	-1.517110e-10	3.363108e+00	-1.458649e+01
1.960000e-06	5.318390e-07	-1.292925e-10	3.687508e+00	-1.286526e+01
1.970000e-06	5.785108e-07	-1.078034e-10	4.011107e+00	-1.111570e+01
1.980000e-06	6.251125e-07	-8.566687e-11	4.334221e+00	-9.339518e+00
1.990000e-06	6.716338e-07	-6.138143e-11	4.656777e+00	-7.538515e+00
2.000000e-06	7.180766e-07	-3.358613e-11	4.978788e+00	-5.714623e+00
2.010000e-06	7.644709e-07	-3.432500e-12	5.300463e+00	-3.869878e+00
2.020000e-06	8.108433e-07	2.554758e-11	5.621986e+00	-2.006412e+00
2.030000e-06	8.570967e-07	5.112622e-11	5.942684e+00	-1.264455e-01
2.040000e-06	9.033133e-07	7.439785e-11	6.263127e+00	1.767723e+00
2.050000e-06	9.494713e-07	9.644978e-11	6.583164e+00	3.673726e+00
2.060000e-06	9.955641e-07	1.186726e-10	6.902749e+00	5.589144e+00
2.070000e-06	1.041668e-06	1.443968e-10	7.222412e+00	7.511507e+00
2.080000e-06	1.087702e-06	1.736909e-10	7.541587e+00	9.438318e+00
2.090000e-06	1.133628e-06	2.032940e-10	7.860018e+00	1.136706e+01
2.100000e-06	1.179487e-06	2.329555e-10	8.177980e+00	1.329519e+01
2.110000e-06	1.225282e-06	2.611689e-10	8.495501e+00	1.522020e+01
2.120000e-06	1.270981e-06	2.871379e-10	8.812352e+00	1.713958e+01
2.130000e-06	1.316585e-06	3.117448e-10	9.128550e+00	1.905084e+01
2.140000e-06	1.362175e-06	3.342004e-10	9.444645e+00	2.095154e+01
2.150000e-06	1.407675e-06	3.564021e-10	9.760122e+00	2.283930e+01
2.160000e-06	1.453044e-06	3.819228e-10	1.007468e+01	2.471179e+01
2.170000e-06	1.498343e-06	4.085736e-10	1.038877e+01	2.656675e+01
2.180000e-06	1.543504e-06	4.347191e-10	1.070189e+01	2.840201e+01
2.190000e-06	1.588555e-06	4.604773e-10	1.101426e+01	3.021551e+01
2.200000e-06	1.633498e-06	4.850944e-10	1.132587e+01	3.200525e+01
2.210000e-06	1.678275e-06	5.099341e-10	1.163633e+01	3.376937e+01
2.220000e-06	1.722918e-06	5.343843e-10	1.194586e+01	3.550613e+01
2.230000e-06	1.767397e-06	5.568393e-10	1.225426e+01	3.721388e+01
2.240000e-06	1.811681e-06	5.773498e-10	1.256130e+01	3.889113e+01
2.250000e-06	1.855860e-06	5.966890e-10	1.286761e+01	4.053650e+01
2.260000e-06	1.899976e-06	6.168538e-10	1.317349e+01	4.214877e+01
2.270000e-06	1.943995e-06	6.375772e-10	1.347870e+01	4.372683e+01
2.280000e-06	1.987907e-06	6.588438e-10	1.378316e+01	4.526972e+01
2.290000e-06	2.031747e-06	6.809535e-10	1.408713e+01	4.677663e+01
2.300000e-06	2.075540e-06	7.023835e-10	1.439077e+01	4.824688e+01
2.310000e-06	2.119284e-06	7.239213e-10	1.469407e+01	4.967992e+01
2.320000e-06	2.163011e-06	7.451454e-10	1.499725e+01	5.107534e+01
2.330000e-06	2.206611e-06	7.645797e-10	1.529955e+01	5.243289e+01
2.340000e-06	2.250020e-06	7.818715e-10	1.560053e+01	5.375239e+01
2.350000e-06	2.293337e-06	7.983611e-10	1.590086e+01	5.503385e+01
2.360000e-06	2.336449e-06	8.150382e-10	1.619978e+01	5.627735e+01
2.370000e-06	2.379287e-06	8.324883e-10	1.649680e+01	5.748311e+01
2.380000e-06	2.421888e-06	8.495959e-10	1.679218e+01	5.865143e+01
2.390000e-06	2.464196e-06	8.639901e-10	1.708552e+01	5.978275e+01
2.400000e-06	2.506202e-06	8.788563e-10	1.737676e+01	6.087755e+01
2.410000e-06	2.547974e-06	8.948309e-10	1.766639e+01	6.193644e+01
2.420000e-06	2.589498e-06	9.081976e-10	1.795430e+01	6.296007e+01
2.430000e-06	2.630644e-06	9.184937e-10	1.823958e+01	6.394919e+01
2.440000e-06	2.671401e-06	9.285344e-10	1.852217e+01	6.490458e+01
2.450000e-06	2.711946e-06	9.380879e-10	1.880329e+01	6.582708e+01
2.460000e-06	2.752275e-06	9.477641e-10	1.908291e+01	6.671757e+01
2.470000e-06	2.792377e-06	9.597056e-10	1.936096e+01	6.757699e+01
2.480000e-06	2.832371e-06	9.728731e-10	1.963826e+01	6.840626e+01
2.490000e-06	2.872283e-06	9.866170e-10	1.991499e+01	6.920634e+01
2.500000e-06	2.912087e-06	1.000244e-09	2.019097e+01	6.997821e+01
2.510000e-06	2.951767e-06	1.012764e-09	2.046609e+01	7.072284e+01
2.520000e-06	2.991297e-06	1.023742e-09	2.074017e+01	7.144120e+01
2.530000e-06	3.030618e-06	1.032117e-09	2.101280e+01	7.213424e+01
2.540000e-06	3.069746e-06	1.037228e-09	2.128410e+01	7.280291e+01
2.550000e-06	3.108608e-06	1.041959e-09	2.155355e+01	7.344812e+01
2.560000e-06	3.147190e-06	1.048097e-09	2.182106e+01	7.407078e+01
2.570000e-06	3.185564e-06	1.056465e-09	2.208713e+01	7.467173e+01
2.580000e-06	3.223734e-06	1.066522e-09	2.235177e+01	7.525182e+01
2.590000e-06	3.261707e-06	1.077598e-09	2.261506e+01	7.581184e+01
2.600000e-06	3.299466e-06	1.086790e-09	2.287687e+01	7.635254e+01
2.610000e-06	3.337043e-06	1.093115e-09	2.313741e+01	7.687464e+01
2.620000e-06	3.374413e-06	1.099422e-09	2.339651e+01	7.737880e+01
2.630000e-06	3.411546e-06	1.105045e-09	2.365397e+01	7.786567e+01
2.640000e-06	3.448454e-06	1.111642e-09	2.390988e+01	7.833582e+01
2.650000e-06	3.485055e-06	1.119579e-09	2.416365e+01	7.878981e+01
2.660000e-06	3.521301e-06	1.125749e-09	2.441496e+01	7.922814e+01
2.670000e-06	3.557352e-06	1.130521e-09	2.466492e+01	7.965128e+01
2.680000e-06	3.593294e-06	1.134649e-09	2.491413e+01	8.005966e+01
2.690000e-06	3.629143e-06	1.139617e-09	2.516268e+01	8.045369e+01
2.700000e-06	3.664896e-06	1.146362e-09	2.541058e+01	8.083372e+01
2.710000e-06	3.700458e-06	1.153853e-09	2.565715e+01	8.120010e+01
2.720000e-06	3.735763e-06	1.161812e-09	2.590194e+01	8.155314e+01
2.730000e-06	3.770685e-06	1.169275e-09	2.614406e+01	8.189312e+01
2.740000e-06	3.805291e-06	1.174944e-09	2.638400e+01	8.222031e+01
2.750000e-06	3.839549e-06	1.177763e-09	2.662153e+01	8.253498e+01
2.760000e-06	3.873274e-06	1.178314e-09	2.685537e+01	8.283735e+01
2.770000e-06	3.906456e-06	1.178718e-09	2.708543e+01	8.312767e+01
2.780000e-06	3.939150e-06	1.180491e-09	2.731212e+01	8.340617e+01
2.790000e-06	3.971488e-06	1.186833e-09	2.753633e+01	8.367306e+01
2.800000e-06	4.003588e-06	1.198945e-09	2.775890e+01	8.392857e+01
2.810000e-06	4.035502e-06	1.209717e-09	2.798018e+01	8.417293e+01
2.820000e-06	4.067302e-06	1.215721e-09	2.820066e+01	8.440637e+01
2.830000e-06	4.098985e-06	1.220241e-09	2.842033e+01	8.462913e+01
2.840000e-06	4.130423e-06	1.220549e-09	2.863831e+01	8.484147e+01
2.850000e-06	4.161674e-06	1.216136e-09	2.885499e+01	8.504364e+01
2.860000e-06	4.192749e-06	1.211624e-09	2.907045e+01	8.523592e+01
2.870000e-06	4.223353e-06	1.211042e-09	2.928264e+01	8.541859e+01
2.880000e-06	4.253473e-06	1.216908e-09	2.949147e+01	8.559196e+01
2.890000e-06	4.283306e-06	1.225427e-09	2.969832e+01	8.575632e+01
2.900000e-06	4.312850e-06	1.233786e-09	2.990317e+01	8.591202e+01
