# Temperatura_=_-6.9
# Concentracion g/m^3_=_1620.0
# C_Vs_to_Am_M_A/Vsm_=_65563218390.804596
# pendiente_HvsI_1/m_=_3716.3
# ordenada_HvsI_A/m_=_1297.0
# frecuencia_Hz_=_135102.1778254118

Tiempo_(s)	Campo_(V.s)	Magnetizacion_(V.s)	Campo_(kA/m)	Magnetizacion_(A/m)
0.000000e+00	-5.531270e-06	-1.299485e-09	-3.837595e+01	-8.422037e+01
1.000000e-08	-5.531363e-06	-1.292926e-09	-3.837659e+01	-8.415445e+01
2.000000e-08	-5.531062e-06	-1.290333e-09	-3.837450e+01	-8.408754e+01
3.000000e-08	-5.530407e-06	-1.290734e-09	-3.836996e+01	-8.401956e+01
4.000000e-08	-5.529306e-06	-1.291414e-09	-3.836232e+01	-8.395040e+01
5.000000e-08	-5.527656e-06	-1.292171e-09	-3.835087e+01	-8.387996e+01
6.000000e-08	-5.525401e-06	-1.298990e-09	-3.833523e+01	-8.380817e+01
7.000000e-08	-5.522595e-06	-1.292615e-09	-3.831576e+01	-8.373493e+01
8.000000e-08	-5.519310e-06	-1.273924e-09	-3.829296e+01	-8.366018e+01
9.000000e-08	-5.515530e-06	-1.281225e-09	-3.826674e+01	-8.358385e+01
1.000000e-07	-5.511300e-06	-1.319709e-09	-3.823739e+01	-8.350590e+01
1.100000e-07	-5.506785e-06	-1.328696e-09	-3.820607e+01	-8.342629e+01
1.200000e-07	-5.502111e-06	-1.268683e-09	-3.817364e+01	-8.334498e+01
1.300000e-07	-5.497167e-06	-1.217981e-09	-3.813934e+01	-8.326196e+01
1.400000e-07	-5.491828e-06	-1.293847e-09	-3.810230e+01	-8.317722e+01
1.500000e-07	-5.486104e-06	-1.319405e-09	-3.806258e+01	-8.309077e+01
1.600000e-07	-5.480017e-06	-1.289792e-09	-3.802035e+01	-8.300263e+01
1.700000e-07	-5.473527e-06	-1.209913e-09	-3.797533e+01	-8.291282e+01
1.800000e-07	-5.466573e-06	-1.263881e-09	-3.792707e+01	-8.282140e+01
1.900000e-07	-5.459229e-06	-1.290608e-09	-3.787612e+01	-8.272841e+01
2.000000e-07	-5.451620e-06	-1.265026e-09	-3.782333e+01	-8.263391e+01
2.100000e-07	-5.443757e-06	-1.222810e-09	-3.776878e+01	-8.253798e+01
2.200000e-07	-5.435701e-06	-1.247125e-09	-3.771288e+01	-8.244071e+01
2.300000e-07	-5.427316e-06	-1.271100e-09	-3.765471e+01	-8.234217e+01
2.400000e-07	-5.418424e-06	-1.230213e-09	-3.759302e+01	-8.224246e+01
2.500000e-07	-5.408872e-06	-1.206839e-09	-3.752674e+01	-8.214169e+01
2.600000e-07	-5.398589e-06	-1.215569e-09	-3.745540e+01	-8.203996e+01
2.700000e-07	-5.387681e-06	-1.250841e-09	-3.737972e+01	-8.193738e+01
2.800000e-07	-5.376353e-06	-1.230372e-09	-3.730113e+01	-8.183405e+01
2.900000e-07	-5.364680e-06	-1.224531e-09	-3.722014e+01	-8.173009e+01
3.000000e-07	-5.352612e-06	-1.215176e-09	-3.713641e+01	-8.162560e+01
3.100000e-07	-5.340080e-06	-1.244975e-09	-3.704947e+01	-8.152069e+01
3.200000e-07	-5.327053e-06	-1.214012e-09	-3.695909e+01	-8.141546e+01
3.300000e-07	-5.313688e-06	-1.206079e-09	-3.686636e+01	-8.131001e+01
3.400000e-07	-5.300005e-06	-1.202100e-09	-3.677143e+01	-8.120442e+01
3.500000e-07	-5.285894e-06	-1.233813e-09	-3.667352e+01	-8.109877e+01
3.600000e-07	-5.271309e-06	-1.215267e-09	-3.657234e+01	-8.099313e+01
3.700000e-07	-5.256231e-06	-1.215196e-09	-3.646773e+01	-8.088756e+01
3.800000e-07	-5.240580e-06	-1.214794e-09	-3.635913e+01	-8.078212e+01
3.900000e-07	-5.224442e-06	-1.220183e-09	-3.624717e+01	-8.067683e+01
4.000000e-07	-5.207978e-06	-1.191127e-09	-3.613294e+01	-8.057173e+01
4.100000e-07	-5.191179e-06	-1.209456e-09	-3.601639e+01	-8.046682e+01
4.200000e-07	-5.174050e-06	-1.230842e-09	-3.589755e+01	-8.036209e+01
4.300000e-07	-5.156650e-06	-1.213111e-09	-3.577683e+01	-8.025753e+01
4.400000e-07	-5.138865e-06	-1.191455e-09	-3.565344e+01	-8.015311e+01
4.500000e-07	-5.120637e-06	-1.221370e-09	-3.552697e+01	-8.004878e+01
4.600000e-07	-5.101967e-06	-1.226480e-09	-3.539744e+01	-7.994447e+01
4.700000e-07	-5.082840e-06	-1.184236e-09	-3.526474e+01	-7.984012e+01
4.800000e-07	-5.063440e-06	-1.187998e-09	-3.513014e+01	-7.973564e+01
4.900000e-07	-5.043869e-06	-1.217024e-09	-3.499436e+01	-7.963092e+01
5.000000e-07	-5.024072e-06	-1.206584e-09	-3.485701e+01	-7.952586e+01
5.100000e-07	-5.004069e-06	-1.189345e-09	-3.471822e+01	-7.942032e+01
5.200000e-07	-4.983719e-06	-1.215562e-09	-3.457703e+01	-7.931419e+01
5.300000e-07	-4.962942e-06	-1.204067e-09	-3.443289e+01	-7.920732e+01
5.400000e-07	-4.941817e-06	-1.178595e-09	-3.428632e+01	-7.909956e+01
5.500000e-07	-4.920343e-06	-1.191716e-09	-3.413733e+01	-7.899076e+01
5.600000e-07	-4.898530e-06	-1.210804e-09	-3.398599e+01	-7.888076e+01
5.700000e-07	-4.876396e-06	-1.178862e-09	-3.383243e+01	-7.876941e+01
5.800000e-07	-4.853891e-06	-1.180061e-09	-3.367629e+01	-7.865653e+01
5.900000e-07	-4.831023e-06	-1.199787e-09	-3.351763e+01	-7.854198e+01
6.000000e-07	-4.807904e-06	-1.188050e-09	-3.335723e+01	-7.842560e+01
6.100000e-07	-4.784516e-06	-1.161113e-09	-3.319497e+01	-7.830722e+01
6.200000e-07	-4.760884e-06	-1.179705e-09	-3.303101e+01	-7.818671e+01
6.300000e-07	-4.736985e-06	-1.175549e-09	-3.286520e+01	-7.806391e+01
6.400000e-07	-4.712800e-06	-1.159771e-09	-3.269740e+01	-7.793870e+01
6.500000e-07	-4.688246e-06	-1.157838e-09	-3.252705e+01	-7.781094e+01
6.600000e-07	-4.663238e-06	-1.164032e-09	-3.235354e+01	-7.768052e+01
6.700000e-07	-4.637641e-06	-1.144897e-09	-3.217595e+01	-7.754735e+01
6.800000e-07	-4.611456e-06	-1.145014e-09	-3.199427e+01	-7.741132e+01
6.900000e-07	-4.584834e-06	-1.152080e-09	-3.180957e+01	-7.727236e+01
7.000000e-07	-4.557855e-06	-1.152523e-09	-3.162239e+01	-7.713040e+01
7.100000e-07	-4.530562e-06	-1.145390e-09	-3.143303e+01	-7.698540e+01
7.200000e-07	-4.502938e-06	-1.147012e-09	-3.124138e+01	-7.683733e+01
7.300000e-07	-4.475102e-06	-1.138096e-09	-3.104825e+01	-7.668615e+01
7.400000e-07	-4.447084e-06	-1.125751e-09	-3.085386e+01	-7.653187e+01
7.500000e-07	-4.418843e-06	-1.118310e-09	-3.065793e+01	-7.637449e+01
7.600000e-07	-4.390310e-06	-1.116206e-09	-3.045996e+01	-7.621404e+01
7.700000e-07	-4.361469e-06	-1.118243e-09	-3.025986e+01	-7.605055e+01
7.800000e-07	-4.332409e-06	-1.118193e-09	-3.005825e+01	-7.588408e+01
7.900000e-07	-4.303095e-06	-1.115801e-09	-2.985487e+01	-7.571469e+01
8.000000e-07	-4.273416e-06	-1.112259e-09	-2.964895e+01	-7.554245e+01
8.100000e-07	-4.243364e-06	-1.105916e-09	-2.944046e+01	-7.536744e+01
8.200000e-07	-4.213028e-06	-1.090883e-09	-2.922998e+01	-7.518975e+01
8.300000e-07	-4.182466e-06	-1.084748e-09	-2.901794e+01	-7.500949e+01
8.400000e-07	-4.151591e-06	-1.085069e-09	-2.880373e+01	-7.482675e+01
8.500000e-07	-4.120439e-06	-1.091106e-09	-2.858760e+01	-7.464165e+01
8.600000e-07	-4.089108e-06	-1.088385e-09	-2.837023e+01	-7.445430e+01
8.700000e-07	-4.057597e-06	-1.085532e-09	-2.815160e+01	-7.426482e+01
8.800000e-07	-4.025873e-06	-1.075753e-09	-2.793150e+01	-7.407331e+01
8.900000e-07	-3.993942e-06	-1.068295e-09	-2.770996e+01	-7.387989e+01
9.000000e-07	-3.961724e-06	-1.059165e-09	-2.748644e+01	-7.368466e+01
9.100000e-07	-3.929109e-06	-1.057356e-09	-2.726015e+01	-7.348772e+01
9.200000e-07	-3.896162e-06	-1.056177e-09	-2.703157e+01	-7.328918e+01
9.300000e-07	-3.862800e-06	-1.058220e-09	-2.680010e+01	-7.308912e+01
9.400000e-07	-3.828926e-06	-1.055120e-09	-2.656508e+01	-7.288761e+01
9.500000e-07	-3.794578e-06	-1.050249e-09	-2.632678e+01	-7.268473e+01
9.600000e-07	-3.759845e-06	-1.037250e-09	-2.608580e+01	-7.248053e+01
9.700000e-07	-3.724879e-06	-1.028686e-09	-2.584320e+01	-7.227505e+01
9.800000e-07	-3.689691e-06	-1.022572e-09	-2.559907e+01	-7.206833e+01
9.900000e-07	-3.654241e-06	-1.020007e-09	-2.535312e+01	-7.186038e+01
1.000000e-06	-3.618572e-06	-1.015425e-09	-2.510565e+01	-7.165120e+01
1.010000e-06	-3.582731e-06	-1.015034e-09	-2.485698e+01	-7.144078e+01
1.020000e-06	-3.546710e-06	-1.013905e-09	-2.460707e+01	-7.122910e+01
1.030000e-06	-3.510485e-06	-1.010242e-09	-2.435574e+01	-7.101611e+01
1.040000e-06	-3.474053e-06	-1.004602e-09	-2.410298e+01	-7.080175e+01
1.050000e-06	-3.437387e-06	-9.966679e-10	-2.384858e+01	-7.058595e+01
1.060000e-06	-3.400455e-06	-9.896162e-10	-2.359235e+01	-7.036863e+01
1.070000e-06	-3.363247e-06	-9.867644e-10	-2.333420e+01	-7.014969e+01
1.080000e-06	-3.325806e-06	-9.858653e-10	-2.307444e+01	-6.992902e+01
1.090000e-06	-3.288189e-06	-9.839395e-10	-2.281345e+01	-6.970650e+01
1.100000e-06	-3.250388e-06	-9.828341e-10	-2.255119e+01	-6.948200e+01
1.110000e-06	-3.212373e-06	-9.786567e-10	-2.228744e+01	-6.925537e+01
1.120000e-06	-3.174064e-06	-9.719649e-10	-2.202165e+01	-6.902646e+01
1.130000e-06	-3.135497e-06	-9.632058e-10	-2.175407e+01	-6.879513e+01
1.140000e-06	-3.096676e-06	-9.591373e-10	-2.148473e+01	-6.856120e+01
1.150000e-06	-3.057616e-06	-9.571495e-10	-2.121373e+01	-6.832451e+01
1.160000e-06	-3.018408e-06	-9.554745e-10	-2.094171e+01	-6.808489e+01
1.170000e-06	-2.979038e-06	-9.506988e-10	-2.066856e+01	-6.784216e+01
1.180000e-06	-2.939551e-06	-9.508012e-10	-2.039460e+01	-6.759616e+01
1.190000e-06	-2.899928e-06	-9.489803e-10	-2.011970e+01	-6.734672e+01
1.200000e-06	-2.860175e-06	-9.453084e-10	-1.984389e+01	-6.709365e+01
1.210000e-06	-2.820324e-06	-9.391045e-10	-1.956740e+01	-6.683679e+01
1.220000e-06	-2.780267e-06	-9.345745e-10	-1.928949e+01	-6.657597e+01
1.230000e-06	-2.740002e-06	-9.305967e-10	-1.901013e+01	-6.631103e+01
1.240000e-06	-2.699525e-06	-9.275990e-10	-1.872930e+01	-6.604180e+01
1.250000e-06	-2.658831e-06	-9.225324e-10	-1.844696e+01	-6.576812e+01
1.260000e-06	-2.617956e-06	-9.179147e-10	-1.816337e+01	-6.548985e+01
1.270000e-06	-2.576739e-06	-9.127006e-10	-1.787741e+01	-6.520682e+01
1.280000e-06	-2.535144e-06	-9.091543e-10	-1.758882e+01	-6.491890e+01
1.290000e-06	-2.493259e-06	-9.051602e-10	-1.729823e+01	-6.462592e+01
1.300000e-06	-2.451034e-06	-9.001715e-10	-1.700527e+01	-6.432776e+01
1.310000e-06	-2.408539e-06	-8.923956e-10	-1.671044e+01	-6.402425e+01
1.320000e-06	-2.365807e-06	-8.859109e-10	-1.641396e+01	-6.371526e+01
1.330000e-06	-2.322795e-06	-8.787551e-10	-1.611555e+01	-6.340063e+01
1.340000e-06	-2.279546e-06	-8.717324e-10	-1.581549e+01	-6.308021e+01
1.350000e-06	-2.236186e-06	-8.699005e-10	-1.551465e+01	-6.275384e+01
1.360000e-06	-2.192752e-06	-8.690650e-10	-1.521331e+01	-6.242135e+01
1.370000e-06	-2.149187e-06	-8.642980e-10	-1.491105e+01	-6.208256e+01
1.380000e-06	-2.105549e-06	-8.567446e-10	-1.460830e+01	-6.173727e+01
1.390000e-06	-2.061824e-06	-8.494425e-10	-1.430493e+01	-6.138529e+01
1.400000e-06	-2.017956e-06	-8.424055e-10	-1.400058e+01	-6.102639e+01
1.410000e-06	-1.973990e-06	-8.333565e-10	-1.369554e+01	-6.066031e+01
1.420000e-06	-1.929960e-06	-8.244896e-10	-1.339006e+01	-6.028681e+01
1.430000e-06	-1.885873e-06	-8.194168e-10	-1.308418e+01	-5.990558e+01
1.440000e-06	-1.841669e-06	-8.158553e-10	-1.277749e+01	-5.951631e+01
1.450000e-06	-1.797294e-06	-8.134084e-10	-1.246963e+01	-5.911865e+01
1.460000e-06	-1.752852e-06	-8.074924e-10	-1.216128e+01	-5.871222e+01
1.470000e-06	-1.708351e-06	-7.964707e-10	-1.185254e+01	-5.829661e+01
1.480000e-06	-1.663676e-06	-7.836333e-10	-1.154258e+01	-5.787139e+01
1.490000e-06	-1.618859e-06	-7.721384e-10	-1.123164e+01	-5.743606e+01
1.500000e-06	-1.573953e-06	-7.612953e-10	-1.092009e+01	-5.699010e+01
1.510000e-06	-1.528885e-06	-7.573155e-10	-1.060740e+01	-5.653297e+01
1.520000e-06	-1.483669e-06	-7.550155e-10	-1.029369e+01	-5.606406e+01
1.530000e-06	-1.438371e-06	-7.485084e-10	-9.979418e+00	-5.558274e+01
1.540000e-06	-1.392993e-06	-7.355615e-10	-9.664582e+00	-5.508833e+01
1.550000e-06	-1.347510e-06	-7.210347e-10	-9.349022e+00	-5.458013e+01
1.560000e-06	-1.301950e-06	-7.070131e-10	-9.032931e+00	-5.405738e+01
1.570000e-06	-1.256288e-06	-6.980062e-10	-8.716121e+00	-5.351930e+01
1.580000e-06	-1.210521e-06	-6.913082e-10	-8.398594e+00	-5.296506e+01
1.590000e-06	-1.164787e-06	-6.854260e-10	-8.081294e+00	-5.239382e+01
1.600000e-06	-1.118988e-06	-6.797779e-10	-7.763536e+00	-5.180469e+01
1.610000e-06	-1.073054e-06	-6.747518e-10	-7.444847e+00	-5.119676e+01
1.620000e-06	-1.027002e-06	-6.662946e-10	-7.125336e+00	-5.056910e+01
1.630000e-06	-9.809320e-07	-6.548166e-10	-6.805705e+00	-4.992077e+01
1.640000e-06	-9.346769e-07	-6.433611e-10	-6.484787e+00	-4.925079e+01
1.650000e-06	-8.881663e-07	-6.318051e-10	-6.162096e+00	-4.855820e+01
1.660000e-06	-8.417299e-07	-6.210468e-10	-5.839921e+00	-4.784200e+01
1.670000e-06	-7.953726e-07	-6.110614e-10	-5.518294e+00	-4.710122e+01
1.680000e-06	-7.489940e-07	-6.007278e-10	-5.196519e+00	-4.633489e+01
1.690000e-06	-7.024540e-07	-5.902557e-10	-4.873625e+00	-4.554204e+01
1.700000e-06	-6.558061e-07	-5.780751e-10	-4.549982e+00	-4.472173e+01
1.710000e-06	-6.092442e-07	-5.662560e-10	-4.226936e+00	-4.387303e+01
1.720000e-06	-5.626666e-07	-5.538189e-10	-3.903780e+00	-4.299507e+01
1.730000e-06	-5.159121e-07	-5.364658e-10	-3.579397e+00	-4.208697e+01
1.740000e-06	-4.689894e-07	-5.179662e-10	-3.253848e+00	-4.114795e+01
1.750000e-06	-4.220123e-07	-4.998456e-10	-2.927920e+00	-4.017722e+01
1.760000e-06	-3.750857e-07	-4.854669e-10	-2.602344e+00	-3.917410e+01
1.770000e-06	-3.281499e-07	-4.742133e-10	-2.276704e+00	-3.813795e+01
1.780000e-06	-2.812034e-07	-4.633387e-10	-1.950989e+00	-3.706819e+01
1.790000e-06	-2.342861e-07	-4.486658e-10	-1.625477e+00	-3.596433e+01
1.800000e-06	-1.873257e-07	-4.308355e-10	-1.299665e+00	-3.482596e+01
1.810000e-06	-1.403394e-07	-4.114674e-10	-9.736747e-01	-3.365275e+01
1.820000e-06	-9.339129e-08	-3.936767e-10	-6.479486e-01	-3.244447e+01
1.830000e-06	-4.639270e-08	-3.774115e-10	-3.218725e-01	-3.120098e+01
1.840000e-06	6.456618e-10	-3.643130e-10	4.479600e-03	-2.992223e+01
1.850000e-06	4.757980e-08	-3.522309e-10	3.301086e-01	-2.860831e+01
1.860000e-06	9.446816e-08	-3.378809e-10	6.554200e-01	-2.725937e+01
1.870000e-06	1.414285e-07	-3.185057e-10	9.812304e-01	-2.587571e+01
1.880000e-06	1.884290e-07	-2.958436e-10	1.307320e+00	-2.445773e+01
1.890000e-06	2.354094e-07	-2.719856e-10	1.633270e+00	-2.300593e+01
1.900000e-06	2.823933e-07	-2.484152e-10	1.959244e+00	-2.152095e+01
1.910000e-06	3.293411e-07	-2.255866e-10	2.284968e+00	-2.000352e+01
1.920000e-06	3.761845e-07	-2.050386e-10	2.609968e+00	-1.845450e+01
1.930000e-06	4.229899e-07	-1.866074e-10	2.934703e+00	-1.687485e+01
1.940000e-06	4.697555e-07	-1.653386e-10	3.259163e+00	-1.526567e+01
1.950000e-06	5.164015e-07	-1.409667e-10	3.582793e+00	-1.362815e+01
1.960000e-06	5.629953e-07	-1.169149e-10	3.906060e+00	-1.196357e+01
1.970000e-06	6.096158e-07	-9.373854e-11	4.229513e+00	-1.027335e+01
1.980000e-06	6.562483e-07	-7.111435e-11	4.553050e+00	-8.558981e+00
1.990000e-06	7.027841e-07	-4.679102e-11	4.875915e+00	-6.822056e+00
2.000000e-06	7.492556e-07	-2.059127e-11	5.198334e+00	-5.064258e+00
2.010000e-06	7.956700e-07	4.685627e-12	5.520358e+00	-3.287351e+00
2.020000e-06	8.420101e-07	2.860705e-11	5.841865e+00	-1.493174e+00
2.030000e-06	8.882273e-07	5.137220e-11	6.162519e+00	3.163622e-01
2.040000e-06	9.343526e-07	7.469365e-11	6.482537e+00	2.139288e+00
2.050000e-06	9.805355e-07	1.017801e-10	6.802954e+00	3.973579e+00
2.060000e-06	1.026648e-06	1.319920e-10	7.122881e+00	5.817164e+00
2.070000e-06	1.072656e-06	1.614712e-10	7.442084e+00	7.667934e+00
2.080000e-06	1.118599e-06	1.876979e-10	7.760835e+00	9.523751e+00
2.090000e-06	1.164463e-06	2.109037e-10	8.079042e+00	1.138246e+01
2.100000e-06	1.210232e-06	2.345920e-10	8.396591e+00	1.324188e+01
2.110000e-06	1.255935e-06	2.599095e-10	8.713675e+00	1.509984e+01
2.120000e-06	1.301546e-06	2.864839e-10	9.030126e+00	1.695418e+01
2.130000e-06	1.347060e-06	3.128992e-10	9.345900e+00	1.880274e+01
2.140000e-06	1.392527e-06	3.395285e-10	9.661349e+00	2.064338e+01
2.150000e-06	1.437909e-06	3.658415e-10	9.976207e+00	2.247401e+01
2.160000e-06	1.483149e-06	3.920977e-10	1.029009e+01	2.429256e+01
2.170000e-06	1.528239e-06	4.165213e-10	1.060292e+01	2.609701e+01
2.180000e-06	1.573219e-06	4.390390e-10	1.091499e+01	2.788541e+01
2.190000e-06	1.618085e-06	4.594990e-10	1.122627e+01	2.965586e+01
2.200000e-06	1.662844e-06	4.808435e-10	1.153681e+01	3.140651e+01
2.210000e-06	1.707435e-06	5.042728e-10	1.184618e+01	3.313563e+01
2.220000e-06	1.751781e-06	5.303619e-10	1.215385e+01	3.484152e+01
2.230000e-06	1.796027e-06	5.566078e-10	1.246083e+01	3.652260e+01
2.240000e-06	1.840268e-06	5.804531e-10	1.276777e+01	3.817737e+01
2.250000e-06	1.884374e-06	6.010550e-10	1.307378e+01	3.980442e+01
2.260000e-06	1.928301e-06	6.171943e-10	1.337855e+01	4.140244e+01
2.270000e-06	1.972162e-06	6.336570e-10	1.368286e+01	4.297024e+01
2.280000e-06	2.016019e-06	6.508690e-10	1.398714e+01	4.450671e+01
2.290000e-06	2.059847e-06	6.698165e-10	1.429121e+01	4.601085e+01
2.300000e-06	2.103607e-06	6.896180e-10	1.459482e+01	4.748177e+01
2.310000e-06	2.147295e-06	7.078139e-10	1.489793e+01	4.891870e+01
2.320000e-06	2.190893e-06	7.270235e-10	1.520041e+01	5.032097e+01
2.330000e-06	2.234409e-06	7.464760e-10	1.550232e+01	5.168800e+01
2.340000e-06	2.277765e-06	7.654935e-10	1.580313e+01	5.301934e+01
2.350000e-06	2.320916e-06	7.838943e-10	1.610251e+01	5.431465e+01
2.360000e-06	2.363851e-06	8.003516e-10	1.640039e+01	5.557366e+01
2.370000e-06	2.406517e-06	8.161641e-10	1.669641e+01	5.679623e+01
2.380000e-06	2.448910e-06	8.290209e-10	1.699054e+01	5.798232e+01
2.390000e-06	2.490953e-06	8.412663e-10	1.728223e+01	5.913196e+01
2.400000e-06	2.532561e-06	8.549263e-10	1.757091e+01	6.024529e+01
2.410000e-06	2.573899e-06	8.692085e-10	1.785771e+01	6.132254e+01
2.420000e-06	2.615002e-06	8.823481e-10	1.814288e+01	6.236401e+01
2.430000e-06	2.655751e-06	8.944907e-10	1.842560e+01	6.337008e+01
2.440000e-06	2.696256e-06	9.053494e-10	1.870662e+01	6.434122e+01
2.450000e-06	2.736658e-06	9.148493e-10	1.898693e+01	6.527793e+01
2.460000e-06	2.776909e-06	9.249717e-10	1.926619e+01	6.618081e+01
2.470000e-06	2.816888e-06	9.376226e-10	1.954356e+01	6.705051e+01
2.480000e-06	2.856701e-06	9.495091e-10	1.981978e+01	6.788772e+01
2.490000e-06	2.896426e-06	9.590491e-10	2.009540e+01	6.869319e+01
2.500000e-06	2.936036e-06	9.693191e-10	2.037021e+01	6.946770e+01
2.510000e-06	2.975519e-06	9.803137e-10	2.064414e+01	7.021207e+01
2.520000e-06	3.014843e-06	9.908390e-10	2.091698e+01	7.092716e+01
2.530000e-06	3.053996e-06	1.001210e-09	2.118862e+01	7.161383e+01
2.540000e-06	3.092925e-06	1.009534e-09	2.145871e+01	7.227300e+01
2.550000e-06	3.131628e-06	1.017747e-09	2.172723e+01	7.290557e+01
2.560000e-06	3.170109e-06	1.025806e-09	2.199421e+01	7.351246e+01
2.570000e-06	3.208323e-06	1.031415e-09	2.225934e+01	7.409461e+01
2.580000e-06	3.246288e-06	1.036774e-09	2.252274e+01	7.465295e+01
2.590000e-06	3.283996e-06	1.043438e-09	2.278436e+01	7.518841e+01
2.600000e-06	3.321519e-06	1.053559e-09	2.304469e+01	7.570190e+01
2.610000e-06	3.358902e-06	1.063743e-09	2.330406e+01	7.619435e+01
2.620000e-06	3.396051e-06	1.073047e-09	2.356180e+01	7.666665e+01
2.630000e-06	3.432918e-06	1.080062e-09	2.381758e+01	7.711969e+01
2.640000e-06	3.469530e-06	1.086260e-09	2.407159e+01	7.755432e+01
2.650000e-06	3.505889e-06	1.091951e-09	2.432385e+01	7.797140e+01
2.660000e-06	3.541975e-06	1.098594e-09	2.457422e+01	7.837174e+01
2.670000e-06	3.577850e-06	1.107553e-09	2.482312e+01	7.875613e+01
2.680000e-06	3.613627e-06	1.115825e-09	2.507134e+01	7.912533e+01
2.690000e-06	3.649324e-06	1.121119e-09	2.531900e+01	7.948009e+01
2.700000e-06	3.684859e-06	1.124491e-09	2.556555e+01	7.982111e+01
2.710000e-06	3.720151e-06	1.128957e-09	2.581040e+01	8.014906e+01
2.720000e-06	3.755215e-06	1.133917e-09	2.605368e+01	8.046458e+01
2.730000e-06	3.789995e-06	1.140322e-09	2.629498e+01	8.076828e+01
2.740000e-06	3.824351e-06	1.148332e-09	2.653334e+01	8.106075e+01
2.750000e-06	3.858219e-06	1.153329e-09	2.676832e+01	8.134252e+01
2.760000e-06	3.891586e-06	1.157298e-09	2.699982e+01	8.161410e+01
2.770000e-06	3.924464e-06	1.160195e-09	2.722793e+01	8.187598e+01
2.780000e-06	3.956973e-06	1.164672e-09	2.745348e+01	8.212860e+01
2.790000e-06	3.989178e-06	1.170040e-09	2.767691e+01	8.237237e+01
2.800000e-06	4.021150e-06	1.175575e-09	2.789874e+01	8.260769e+01
2.810000e-06	4.052962e-06	1.179498e-09	2.811945e+01	8.283491e+01
2.820000e-06	4.084560e-06	1.181676e-09	2.833867e+01	8.305436e+01
2.830000e-06	4.116015e-06	1.186486e-09	2.855690e+01	8.326632e+01
2.840000e-06	4.147378e-06	1.191368e-09	2.877450e+01	8.347109e+01
2.850000e-06	4.178439e-06	1.192629e-09	2.899000e+01	8.366889e+01
2.860000e-06	4.209149e-06	1.193270e-09	2.920307e+01	8.385996e+01
2.870000e-06	4.239553e-06	1.196031e-09	2.941402e+01	8.404450e+01
2.880000e-06	4.269563e-06	1.198989e-09	2.962223e+01	8.422268e+01
2.890000e-06	4.299255e-06	1.202573e-09	2.982822e+01	8.439466e+01
2.900000e-06	4.328690e-06	1.203271e-09	3.003244e+01	8.456057e+01
