# Temperatura_=_13.9
# Concentracion g/m^3_=_1620.0
# C_Vs_to_Am_M_A/Vsm_=_65563218390.804596
# pendiente_HvsI_1/m_=_3716.3
# ordenada_HvsI_A/m_=_1297.0
# frecuencia_Hz_=_135093.60998159758

Tiempo_(s)	Campo_(V.s)	Magnetizacion_(V.s)	Campo_(kA/m)	Magnetizacion_(A/m)
0.000000e+00	-5.527606e-06	-1.675804e-09	-3.837123e+01	-1.092378e+02
1.000000e-08	-5.527852e-06	-1.668278e-09	-3.837294e+01	-1.092145e+02
2.000000e-08	-5.527863e-06	-1.662978e-09	-3.837302e+01	-1.091928e+02
3.000000e-08	-5.527447e-06	-1.663985e-09	-3.837013e+01	-1.091725e+02
4.000000e-08	-5.526582e-06	-1.668363e-09	-3.836412e+01	-1.091531e+02
5.000000e-08	-5.525128e-06	-1.667584e-09	-3.835403e+01	-1.091344e+02
6.000000e-08	-5.522988e-06	-1.656715e-09	-3.833918e+01	-1.091158e+02
7.000000e-08	-5.520277e-06	-1.650115e-09	-3.832036e+01	-1.090970e+02
8.000000e-08	-5.517037e-06	-1.681068e-09	-3.829787e+01	-1.090774e+02
9.000000e-08	-5.513274e-06	-1.717811e-09	-3.827175e+01	-1.090567e+02
1.000000e-07	-5.509076e-06	-1.703711e-09	-3.824260e+01	-1.090343e+02
1.100000e-07	-5.504649e-06	-1.641452e-09	-3.821188e+01	-1.090097e+02
1.200000e-07	-5.500051e-06	-1.557401e-09	-3.817996e+01	-1.089825e+02
1.300000e-07	-5.495249e-06	-1.655890e-09	-3.814662e+01	-1.089521e+02
1.400000e-07	-5.490019e-06	-1.713700e-09	-3.811032e+01	-1.089182e+02
1.500000e-07	-5.484326e-06	-1.667442e-09	-3.807080e+01	-1.088802e+02
1.600000e-07	-5.478314e-06	-1.591125e-09	-3.802906e+01	-1.088376e+02
1.700000e-07	-5.471905e-06	-1.618909e-09	-3.798457e+01	-1.087902e+02
1.800000e-07	-5.465055e-06	-1.738281e-09	-3.793702e+01	-1.087375e+02
1.900000e-07	-5.457765e-06	-1.669506e-09	-3.788642e+01	-1.086790e+02
2.000000e-07	-5.450252e-06	-1.599456e-09	-3.783426e+01	-1.086146e+02
2.100000e-07	-5.442583e-06	-1.598984e-09	-3.778103e+01	-1.085438e+02
2.200000e-07	-5.434627e-06	-1.706981e-09	-3.772580e+01	-1.084665e+02
2.300000e-07	-5.426383e-06	-1.687335e-09	-3.766857e+01	-1.083823e+02
2.400000e-07	-5.417682e-06	-1.632277e-09	-3.760818e+01	-1.082911e+02
2.500000e-07	-5.408219e-06	-1.604853e-09	-3.754248e+01	-1.081928e+02
2.600000e-07	-5.397975e-06	-1.673899e-09	-3.747137e+01	-1.080872e+02
2.700000e-07	-5.387207e-06	-1.663757e-09	-3.739662e+01	-1.079742e+02
2.800000e-07	-5.376071e-06	-1.623735e-09	-3.731932e+01	-1.078539e+02
2.900000e-07	-5.364460e-06	-1.619382e-09	-3.723872e+01	-1.077263e+02
3.000000e-07	-5.352426e-06	-1.654063e-09	-3.715518e+01	-1.075913e+02
3.100000e-07	-5.340144e-06	-1.641216e-09	-3.706993e+01	-1.074491e+02
3.200000e-07	-5.327469e-06	-1.596782e-09	-3.698194e+01	-1.072999e+02
3.300000e-07	-5.314291e-06	-1.614265e-09	-3.689046e+01	-1.071436e+02
3.400000e-07	-5.300716e-06	-1.643274e-09	-3.679622e+01	-1.069807e+02
3.500000e-07	-5.286670e-06	-1.639465e-09	-3.669872e+01	-1.068112e+02
3.600000e-07	-5.272189e-06	-1.600388e-09	-3.659820e+01	-1.066353e+02
3.700000e-07	-5.257320e-06	-1.609611e-09	-3.649498e+01	-1.064534e+02
3.800000e-07	-5.241869e-06	-1.616941e-09	-3.638772e+01	-1.062658e+02
3.900000e-07	-5.225852e-06	-1.601891e-09	-3.627653e+01	-1.060726e+02
4.000000e-07	-5.209395e-06	-1.579634e-09	-3.616230e+01	-1.058743e+02
4.100000e-07	-5.192588e-06	-1.616213e-09	-3.604563e+01	-1.056711e+02
4.200000e-07	-5.175511e-06	-1.602556e-09	-3.592708e+01	-1.054634e+02
4.300000e-07	-5.158121e-06	-1.576615e-09	-3.580637e+01	-1.052514e+02
4.400000e-07	-5.140441e-06	-1.582519e-09	-3.568363e+01	-1.050355e+02
4.500000e-07	-5.122439e-06	-1.622066e-09	-3.555867e+01	-1.048160e+02
4.600000e-07	-5.103945e-06	-1.564388e-09	-3.543029e+01	-1.045932e+02
4.700000e-07	-5.084963e-06	-1.545480e-09	-3.529852e+01	-1.043673e+02
4.800000e-07	-5.065630e-06	-1.585322e-09	-3.516431e+01	-1.041387e+02
4.900000e-07	-5.046058e-06	-1.594063e-09	-3.502845e+01	-1.039077e+02
5.000000e-07	-5.026303e-06	-1.538163e-09	-3.489132e+01	-1.036743e+02
5.100000e-07	-5.006334e-06	-1.563927e-09	-3.475270e+01	-1.034390e+02
5.200000e-07	-4.986064e-06	-1.574471e-09	-3.461199e+01	-1.032019e+02
5.300000e-07	-4.965434e-06	-1.533812e-09	-3.446878e+01	-1.029631e+02
5.400000e-07	-4.944463e-06	-1.537551e-09	-3.432320e+01	-1.027229e+02
5.500000e-07	-4.923126e-06	-1.583574e-09	-3.417509e+01	-1.024813e+02
5.600000e-07	-4.901401e-06	-1.536436e-09	-3.402428e+01	-1.022384e+02
5.700000e-07	-4.879373e-06	-1.506505e-09	-3.387137e+01	-1.019944e+02
5.800000e-07	-4.857043e-06	-1.555067e-09	-3.371636e+01	-1.017493e+02
5.900000e-07	-4.834344e-06	-1.551569e-09	-3.355879e+01	-1.015031e+02
6.000000e-07	-4.811220e-06	-1.498951e-09	-3.339827e+01	-1.012559e+02
6.100000e-07	-4.787744e-06	-1.521950e-09	-3.323530e+01	-1.010075e+02
6.200000e-07	-4.764091e-06	-1.540889e-09	-3.307111e+01	-1.007581e+02
6.300000e-07	-4.740258e-06	-1.498377e-09	-3.290567e+01	-1.005076e+02
6.400000e-07	-4.716171e-06	-1.502815e-09	-3.273846e+01	-1.002558e+02
6.500000e-07	-4.691806e-06	-1.527664e-09	-3.256933e+01	-1.000028e+02
6.600000e-07	-4.667060e-06	-1.506260e-09	-3.239754e+01	-9.974832e+01
6.700000e-07	-4.641699e-06	-1.489431e-09	-3.222150e+01	-9.949238e+01
6.800000e-07	-4.615703e-06	-1.510298e-09	-3.204104e+01	-9.923483e+01
6.900000e-07	-4.589149e-06	-1.487802e-09	-3.185671e+01	-9.897554e+01
7.000000e-07	-4.562056e-06	-1.475211e-09	-3.166864e+01	-9.871439e+01
7.100000e-07	-4.534711e-06	-1.487700e-09	-3.147881e+01	-9.845124e+01
7.200000e-07	-4.507223e-06	-1.487357e-09	-3.128800e+01	-9.818596e+01
7.300000e-07	-4.479483e-06	-1.464368e-09	-3.109543e+01	-9.791841e+01
7.400000e-07	-4.451517e-06	-1.475409e-09	-3.090130e+01	-9.764847e+01
7.500000e-07	-4.423332e-06	-1.471078e-09	-3.070564e+01	-9.737601e+01
7.600000e-07	-4.394920e-06	-1.455302e-09	-3.050842e+01	-9.710090e+01
7.700000e-07	-4.366079e-06	-1.449737e-09	-3.030821e+01	-9.682303e+01
7.800000e-07	-4.336877e-06	-1.455577e-09	-3.010550e+01	-9.654228e+01
7.900000e-07	-4.307463e-06	-1.440214e-09	-2.990132e+01	-9.625856e+01
8.000000e-07	-4.277810e-06	-1.442836e-09	-2.969547e+01	-9.597177e+01
8.100000e-07	-4.247891e-06	-1.440786e-09	-2.948778e+01	-9.568183e+01
8.200000e-07	-4.217559e-06	-1.423436e-09	-2.927722e+01	-9.538867e+01
8.300000e-07	-4.186823e-06	-1.406402e-09	-2.906386e+01	-9.509223e+01
8.400000e-07	-4.155866e-06	-1.409627e-09	-2.884897e+01	-9.479244e+01
8.500000e-07	-4.124764e-06	-1.401650e-09	-2.863306e+01	-9.448927e+01
8.600000e-07	-4.093450e-06	-1.392787e-09	-2.841569e+01	-9.418267e+01
8.700000e-07	-4.061932e-06	-1.396420e-09	-2.819690e+01	-9.387262e+01
8.800000e-07	-4.030216e-06	-1.394038e-09	-2.797674e+01	-9.355910e+01
8.900000e-07	-3.998315e-06	-1.379157e-09	-2.775528e+01	-9.324209e+01
9.000000e-07	-3.966238e-06	-1.373734e-09	-2.753261e+01	-9.292158e+01
9.100000e-07	-3.933906e-06	-1.370562e-09	-2.730818e+01	-9.259756e+01
9.200000e-07	-3.901148e-06	-1.354683e-09	-2.708078e+01	-9.227004e+01
9.300000e-07	-3.867960e-06	-1.350512e-09	-2.685039e+01	-9.193900e+01
9.400000e-07	-3.834362e-06	-1.353405e-09	-2.661717e+01	-9.160445e+01
9.500000e-07	-3.800258e-06	-1.346473e-09	-2.638043e+01	-9.126639e+01
9.600000e-07	-3.765673e-06	-1.336114e-09	-2.614034e+01	-9.092480e+01
9.700000e-07	-3.730693e-06	-1.338269e-09	-2.589752e+01	-9.057967e+01
9.800000e-07	-3.695440e-06	-1.328184e-09	-2.565280e+01	-9.023101e+01
9.900000e-07	-3.659945e-06	-1.311973e-09	-2.540641e+01	-8.987878e+01
1.000000e-06	-3.624237e-06	-1.302714e-09	-2.515853e+01	-8.952296e+01
1.010000e-06	-3.588441e-06	-1.299831e-09	-2.491005e+01	-8.916352e+01
1.020000e-06	-3.552564e-06	-1.287073e-09	-2.466100e+01	-8.880041e+01
1.030000e-06	-3.516492e-06	-1.286005e-09	-2.441059e+01	-8.843359e+01
1.040000e-06	-3.480172e-06	-1.288484e-09	-2.415847e+01	-8.806300e+01
1.050000e-06	-3.443607e-06	-1.284395e-09	-2.390464e+01	-8.768857e+01
1.060000e-06	-3.406689e-06	-1.272853e-09	-2.364837e+01	-8.731023e+01
1.070000e-06	-3.369422e-06	-1.270625e-09	-2.338967e+01	-8.692789e+01
1.080000e-06	-3.331980e-06	-1.262394e-09	-2.312976e+01	-8.654145e+01
1.090000e-06	-3.294360e-06	-1.250892e-09	-2.286861e+01	-8.615082e+01
1.100000e-06	-3.256571e-06	-1.244220e-09	-2.260629e+01	-8.575588e+01
1.110000e-06	-3.218610e-06	-1.240542e-09	-2.234277e+01	-8.535652e+01
1.120000e-06	-3.180360e-06	-1.228905e-09	-2.207725e+01	-8.495262e+01
1.130000e-06	-3.141929e-06	-1.223372e-09	-2.181047e+01	-8.454404e+01
1.140000e-06	-3.103267e-06	-1.220864e-09	-2.154209e+01	-8.413065e+01
1.150000e-06	-3.064240e-06	-1.214383e-09	-2.127118e+01	-8.371231e+01
1.160000e-06	-3.025028e-06	-1.204821e-09	-2.099898e+01	-8.328890e+01
1.170000e-06	-2.985744e-06	-1.196788e-09	-2.072627e+01	-8.286025e+01
1.180000e-06	-2.946291e-06	-1.187031e-09	-2.045241e+01	-8.242624e+01
1.190000e-06	-2.906628e-06	-1.179669e-09	-2.017707e+01	-8.198673e+01
1.200000e-06	-2.866863e-06	-1.176961e-09	-1.990103e+01	-8.154156e+01
1.210000e-06	-2.827053e-06	-1.171914e-09	-1.962468e+01	-8.109061e+01
1.220000e-06	-2.787128e-06	-1.166997e-09	-1.934754e+01	-8.063374e+01
1.230000e-06	-2.747046e-06	-1.165635e-09	-1.906929e+01	-8.017081e+01
1.240000e-06	-2.706772e-06	-1.162591e-09	-1.878972e+01	-7.970169e+01
1.250000e-06	-2.666221e-06	-1.149698e-09	-1.850823e+01	-7.922626e+01
1.260000e-06	-2.625420e-06	-1.137977e-09	-1.822500e+01	-7.874438e+01
1.270000e-06	-2.584371e-06	-1.130053e-09	-1.794005e+01	-7.825594e+01
1.280000e-06	-2.543001e-06	-1.123312e-09	-1.765286e+01	-7.776082e+01
1.290000e-06	-2.501338e-06	-1.116335e-09	-1.736365e+01	-7.725889e+01
1.300000e-06	-2.459385e-06	-1.111496e-09	-1.707243e+01	-7.675004e+01
1.310000e-06	-2.417114e-06	-1.102038e-09	-1.677899e+01	-7.623414e+01
1.320000e-06	-2.374608e-06	-1.091988e-09	-1.648393e+01	-7.571107e+01
1.330000e-06	-2.331883e-06	-1.082208e-09	-1.618734e+01	-7.518069e+01
1.340000e-06	-2.288808e-06	-1.074210e-09	-1.588832e+01	-7.464286e+01
1.350000e-06	-2.245455e-06	-1.066589e-09	-1.558738e+01	-7.409745e+01
1.360000e-06	-2.201959e-06	-1.063795e-09	-1.528544e+01	-7.354429e+01
1.370000e-06	-2.158362e-06	-1.058689e-09	-1.498280e+01	-7.298320e+01
1.380000e-06	-2.114638e-06	-1.050352e-09	-1.467928e+01	-7.241399e+01
1.390000e-06	-2.070813e-06	-1.037785e-09	-1.437506e+01	-7.183646e+01
1.400000e-06	-2.026981e-06	-1.025353e-09	-1.407078e+01	-7.125037e+01
1.410000e-06	-1.983085e-06	-1.009763e-09	-1.376607e+01	-7.065545e+01
1.420000e-06	-1.939064e-06	-9.961410e-10	-1.346049e+01	-7.005141e+01
1.430000e-06	-1.894963e-06	-9.862388e-10	-1.315435e+01	-6.943795e+01
1.440000e-06	-1.850829e-06	-9.791124e-10	-1.284798e+01	-6.881469e+01
1.450000e-06	-1.806625e-06	-9.712989e-10	-1.254113e+01	-6.818126e+01
1.460000e-06	-1.762268e-06	-9.605055e-10	-1.223322e+01	-6.753721e+01
1.470000e-06	-1.717710e-06	-9.469139e-10	-1.192391e+01	-6.688208e+01
1.480000e-06	-1.673036e-06	-9.338165e-10	-1.161379e+01	-6.621535e+01
1.490000e-06	-1.628249e-06	-9.177661e-10	-1.130289e+01	-6.553646e+01
1.500000e-06	-1.583269e-06	-8.993476e-10	-1.099065e+01	-6.484480e+01
1.510000e-06	-1.538124e-06	-8.845166e-10	-1.067727e+01	-6.413972e+01
1.520000e-06	-1.492868e-06	-8.743581e-10	-1.036311e+01	-6.342053e+01
1.530000e-06	-1.447528e-06	-8.662859e-10	-1.004837e+01	-6.268647e+01
1.540000e-06	-1.402084e-06	-8.576669e-10	-9.732911e+00	-6.193676e+01
1.550000e-06	-1.356633e-06	-8.480176e-10	-9.417399e+00	-6.117055e+01
1.560000e-06	-1.311118e-06	-8.332544e-10	-9.101449e+00	-6.038698e+01
1.570000e-06	-1.265482e-06	-8.199623e-10	-8.784654e+00	-5.958511e+01
1.580000e-06	-1.219781e-06	-8.049770e-10	-8.467410e+00	-5.876400e+01
1.590000e-06	-1.173972e-06	-7.888086e-10	-8.149416e+00	-5.792265e+01
1.600000e-06	-1.128097e-06	-7.718072e-10	-7.830961e+00	-5.706005e+01
1.610000e-06	-1.082182e-06	-7.586003e-10	-7.512231e+00	-5.617513e+01
1.620000e-06	-1.036203e-06	-7.472788e-10	-7.193059e+00	-5.526685e+01
1.630000e-06	-9.901084e-07	-7.349770e-10	-6.873081e+00	-5.433411e+01
1.640000e-06	-9.439463e-07	-7.199441e-10	-6.552635e+00	-5.337582e+01
1.650000e-06	-8.976852e-07	-7.037066e-10	-6.231503e+00	-5.239090e+01
1.660000e-06	-8.513190e-07	-6.870527e-10	-5.909640e+00	-5.137826e+01
1.670000e-06	-8.049563e-07	-6.690251e-10	-5.587802e+00	-5.033683e+01
1.680000e-06	-7.585202e-07	-6.520629e-10	-5.265454e+00	-4.926554e+01
1.690000e-06	-7.120146e-07	-6.342640e-10	-4.942624e+00	-4.816338e+01
1.700000e-06	-6.655406e-07	-6.155407e-10	-4.620014e+00	-4.702935e+01
1.710000e-06	-6.189926e-07	-5.983007e-10	-4.296890e+00	-4.586252e+01
1.720000e-06	-5.723631e-07	-5.811464e-10	-3.973200e+00	-4.466199e+01
1.730000e-06	-5.256403e-07	-5.616305e-10	-3.648861e+00	-4.342694e+01
1.740000e-06	-4.788283e-07	-5.392033e-10	-3.323905e+00	-4.215660e+01
1.750000e-06	-4.319842e-07	-5.174862e-10	-2.998724e+00	-4.085029e+01
1.760000e-06	-3.851188e-07	-4.961530e-10	-2.673397e+00	-3.950742e+01
1.770000e-06	-3.382514e-07	-4.752456e-10	-2.348056e+00	-3.812748e+01
1.780000e-06	-2.913530e-07	-4.559176e-10	-2.022498e+00	-3.671009e+01
1.790000e-06	-2.444481e-07	-4.377390e-10	-1.696897e+00	-3.525493e+01
1.800000e-06	-1.975507e-07	-4.197183e-10	-1.371347e+00	-3.376184e+01
1.810000e-06	-1.507247e-07	-4.006408e-10	-1.046293e+00	-3.223075e+01
1.820000e-06	-1.038441e-07	-3.806093e-10	-7.208592e-01	-3.066174e+01
1.830000e-06	-5.683889e-08	-3.590118e-10	-3.945611e-01	-2.905500e+01
1.840000e-06	-9.790882e-09	-3.373053e-10	-6.796582e-02	-2.741085e+01
1.850000e-06	3.724187e-08	-3.163212e-10	2.585236e-01	-2.572976e+01
1.860000e-06	8.417332e-08	-2.942118e-10	5.843098e-01	-2.401234e+01
1.870000e-06	1.309680e-07	-2.699835e-10	9.091466e-01	-2.225933e+01
1.880000e-06	1.777429e-07	-2.473812e-10	1.233846e+00	-2.047160e+01
1.890000e-06	2.246475e-07	-2.234145e-10	1.559446e+00	-1.865018e+01
1.900000e-06	2.716283e-07	-1.965671e-10	1.885574e+00	-1.679623e+01
1.910000e-06	3.185426e-07	-1.682793e-10	2.211242e+00	-1.491104e+01
1.920000e-06	3.653290e-07	-1.390648e-10	2.536021e+00	-1.299604e+01
1.930000e-06	4.120453e-07	-1.111157e-10	2.860314e+00	-1.105277e+01
1.940000e-06	4.586768e-07	-8.476105e-11	3.184018e+00	-9.082919e+00
1.950000e-06	5.051410e-07	-5.916892e-11	3.506561e+00	-7.088268e+00
1.960000e-06	5.516287e-07	-3.522996e-11	3.829266e+00	-5.070720e+00
1.970000e-06	5.981897e-07	-1.086172e-11	4.152481e+00	-3.032277e+00
1.980000e-06	6.446517e-07	1.580263e-11	4.475008e+00	-9.750336e-01
1.990000e-06	6.910175e-07	4.588999e-11	4.796868e+00	1.098829e+00
2.000000e-06	7.373484e-07	7.912177e-11	5.118485e+00	3.187058e+00
2.010000e-06	7.837356e-07	1.140209e-10	5.440493e+00	5.287332e+00
2.020000e-06	8.301005e-07	1.472017e-10	5.762346e+00	7.397278e+00
2.030000e-06	8.763496e-07	1.769724e-10	6.083396e+00	9.514478e+00
2.040000e-06	9.225095e-07	2.059057e-10	6.403827e+00	1.163648e+01
2.050000e-06	9.686164e-07	2.351539e-10	6.723889e+00	1.376082e+01
2.060000e-06	1.014662e-06	2.642775e-10	7.043525e+00	1.588502e+01
2.070000e-06	1.060630e-06	2.942154e-10	7.362622e+00	1.800660e+01
2.080000e-06	1.106520e-06	3.256235e-10	7.681179e+00	2.012309e+01
2.090000e-06	1.152312e-06	3.566573e-10	7.999059e+00	2.223207e+01
2.100000e-06	1.198070e-06	3.877412e-10	8.316697e+00	2.433112e+01
2.110000e-06	1.243742e-06	4.178163e-10	8.633738e+00	2.641791e+01
2.120000e-06	1.289287e-06	4.490740e-10	8.949903e+00	2.849012e+01
2.130000e-06	1.334786e-06	4.785236e-10	9.265748e+00	3.054554e+01
2.140000e-06	1.380226e-06	5.037180e-10	9.581178e+00	3.258201e+01
2.150000e-06	1.425598e-06	5.279059e-10	9.896136e+00	3.459747e+01
2.160000e-06	1.470885e-06	5.527346e-10	1.021051e+01	3.658995e+01
2.170000e-06	1.516005e-06	5.807259e-10	1.052372e+01	3.855759e+01
2.180000e-06	1.561022e-06	6.110481e-10	1.083622e+01	4.049863e+01
2.190000e-06	1.605917e-06	6.418689e-10	1.114787e+01	4.241141e+01
2.200000e-06	1.650675e-06	6.715546e-10	1.145856e+01	4.429442e+01
2.210000e-06	1.695307e-06	6.963412e-10	1.176839e+01	4.614625e+01
2.220000e-06	1.739810e-06	7.182851e-10	1.207732e+01	4.796564e+01
2.230000e-06	1.784218e-06	7.408206e-10	1.238559e+01	4.975142e+01
2.240000e-06	1.828431e-06	7.638408e-10	1.269250e+01	5.150260e+01
2.250000e-06	1.872549e-06	7.869597e-10	1.299876e+01	5.321828e+01
2.260000e-06	1.916647e-06	8.104893e-10	1.330488e+01	5.489771e+01
2.270000e-06	1.960635e-06	8.345728e-10	1.361023e+01	5.654028e+01
2.280000e-06	2.004550e-06	8.565249e-10	1.391508e+01	5.814547e+01
2.290000e-06	2.048414e-06	8.758207e-10	1.421957e+01	5.971293e+01
2.300000e-06	2.092202e-06	8.930704e-10	1.452354e+01	6.124240e+01
2.310000e-06	2.135947e-06	9.104792e-10	1.482720e+01	6.273376e+01
2.320000e-06	2.179607e-06	9.300572e-10	1.513028e+01	6.418698e+01
2.330000e-06	2.223139e-06	9.510160e-10	1.543247e+01	6.560215e+01
2.340000e-06	2.266538e-06	9.725322e-10	1.573373e+01	6.697946e+01
2.350000e-06	2.309797e-06	9.939789e-10	1.603402e+01	6.831919e+01
2.360000e-06	2.352782e-06	1.014151e-09	1.633241e+01	6.962172e+01
2.370000e-06	2.395482e-06	1.031730e-09	1.662883e+01	7.088750e+01
2.380000e-06	2.437951e-06	1.046444e-09	1.692364e+01	7.211705e+01
2.390000e-06	2.480057e-06	1.060708e-09	1.721592e+01	7.331096e+01
2.400000e-06	2.521819e-06	1.075748e-09	1.750582e+01	7.446989e+01
2.410000e-06	2.563176e-06	1.092161e-09	1.779292e+01	7.559453e+01
2.420000e-06	2.604182e-06	1.109493e-09	1.807757e+01	7.668564e+01
2.430000e-06	2.645027e-06	1.125187e-09	1.836111e+01	7.774398e+01
2.440000e-06	2.685640e-06	1.138155e-09	1.864303e+01	7.877038e+01
2.450000e-06	2.726053e-06	1.148095e-09	1.892356e+01	7.976566e+01
2.460000e-06	2.766297e-06	1.157147e-09	1.920293e+01	8.073068e+01
2.470000e-06	2.806324e-06	1.167478e-09	1.948079e+01	8.166628e+01
2.480000e-06	2.846258e-06	1.178743e-09	1.975800e+01	8.257332e+01
2.490000e-06	2.886100e-06	1.190897e-09	2.003457e+01	8.345267e+01
2.500000e-06	2.925778e-06	1.203453e-09	2.031001e+01	8.430517e+01
2.510000e-06	2.965333e-06	1.215768e-09	2.058459e+01	8.513167e+01
2.520000e-06	3.004739e-06	1.227842e-09	2.085814e+01	8.593298e+01
2.530000e-06	3.043871e-06	1.237209e-09	2.112978e+01	8.670990e+01
2.540000e-06	3.082717e-06	1.245605e-09	2.139944e+01	8.746323e+01
2.550000e-06	3.121354e-06	1.254927e-09	2.166765e+01	8.819371e+01
2.560000e-06	3.159802e-06	1.264378e-09	2.193454e+01	8.890209e+01
2.570000e-06	3.198110e-06	1.274873e-09	2.220047e+01	8.958905e+01
2.580000e-06	3.236271e-06	1.285092e-09	2.246537e+01	9.025529e+01
2.590000e-06	3.274156e-06	1.295554e-09	2.272836e+01	9.090144e+01
2.600000e-06	3.311769e-06	1.304207e-09	2.298946e+01	9.152813e+01
2.610000e-06	3.349113e-06	1.311129e-09	2.324869e+01	9.213595e+01
2.620000e-06	3.386162e-06	1.318892e-09	2.350587e+01	9.272546e+01
2.630000e-06	3.423011e-06	1.327166e-09	2.376167e+01	9.329721e+01
2.640000e-06	3.459581e-06	1.337769e-09	2.401554e+01	9.385170e+01
2.650000e-06	3.495853e-06	1.348694e-09	2.426732e+01	9.438944e+01
2.660000e-06	3.532003e-06	1.358690e-09	2.451827e+01	9.491091e+01
2.670000e-06	3.568013e-06	1.365898e-09	2.476824e+01	9.541654e+01
2.680000e-06	3.603895e-06	1.370818e-09	2.501733e+01	9.590680e+01
2.690000e-06	3.639655e-06	1.375896e-09	2.526556e+01	9.638210e+01
2.700000e-06	3.675241e-06	1.381629e-09	2.551259e+01	9.684287e+01
2.710000e-06	3.710631e-06	1.390205e-09	2.575826e+01	9.728952e+01
2.720000e-06	3.745749e-06	1.399200e-09	2.600204e+01	9.772245e+01
2.730000e-06	3.780532e-06	1.407095e-09	2.624349e+01	9.814207e+01
2.740000e-06	3.814868e-06	1.415460e-09	2.648185e+01	9.854877e+01
2.750000e-06	3.848696e-06	1.421497e-09	2.671667e+01	9.894294e+01
2.760000e-06	3.882023e-06	1.424536e-09	2.694802e+01	9.932501e+01
2.770000e-06	3.914888e-06	1.427506e-09	2.717615e+01	9.969536e+01
2.780000e-06	3.947386e-06	1.431787e-09	2.740175e+01	1.000544e+02
2.790000e-06	3.979624e-06	1.438269e-09	2.762554e+01	1.004025e+02
2.800000e-06	4.011682e-06	1.446660e-09	2.784808e+01	1.007402e+02
2.810000e-06	4.043600e-06	1.454291e-09	2.806964e+01	1.010678e+02
2.820000e-06	4.075381e-06	1.460387e-09	2.829026e+01	1.013858e+02
2.830000e-06	4.106960e-06	1.466477e-09	2.850947e+01	1.016946e+02
2.840000e-06	4.138187e-06	1.472595e-09	2.872624e+01	1.019946e+02
2.850000e-06	4.169124e-06	1.476293e-09	2.894100e+01	1.022863e+02
2.860000e-06	4.199812e-06	1.477553e-09	2.915403e+01	1.025701e+02
2.870000e-06	4.230206e-06	1.480244e-09	2.936502e+01	1.028464e+02
2.880000e-06	4.260301e-06	1.484947e-09	2.957393e+01	1.031157e+02
2.890000e-06	4.289980e-06	1.490486e-09	2.977995e+01	1.033784e+02
2.900000e-06	4.319303e-06	1.496064e-09	2.998351e+01	1.036349e+02
