# Temperatura_=_-7.53
# Concentracion g/m^3_=_1620.0
# C_Vs_to_Am_M_A/Vsm_=_65563218390.804596
# pendiente_HvsI_1/m_=_3716.3
# ordenada_HvsI_A/m_=_1297.0
# frecuencia_Hz_=_135101.13828959622

Tiempo_(s)	Campo_(V.s)	Magnetizacion_(V.s)	Campo_(kA/m)	Magnetizacion_(A/m)
0.000000e+00	-5.526382e-06	-1.237607e-09	-3.837450e+01	-8.164669e+01
1.000000e-08	-5.526557e-06	-1.233644e-09	-3.837572e+01	-8.162007e+01
2.000000e-08	-5.526523e-06	-1.232098e-09	-3.837548e+01	-8.159478e+01
3.000000e-08	-5.526137e-06	-1.233930e-09	-3.837280e+01	-8.157050e+01
4.000000e-08	-5.525287e-06	-1.236403e-09	-3.836690e+01	-8.154687e+01
5.000000e-08	-5.523972e-06	-1.234384e-09	-3.835777e+01	-8.152354e+01
6.000000e-08	-5.522025e-06	-1.223001e-09	-3.834425e+01	-8.150013e+01
7.000000e-08	-5.519430e-06	-1.213072e-09	-3.832623e+01	-8.147626e+01
8.000000e-08	-5.516370e-06	-1.240312e-09	-3.830498e+01	-8.145153e+01
9.000000e-08	-5.512841e-06	-1.285192e-09	-3.828047e+01	-8.142555e+01
1.000000e-07	-5.508824e-06	-1.273256e-09	-3.825258e+01	-8.139794e+01
1.100000e-07	-5.504522e-06	-1.214633e-09	-3.822271e+01	-8.136830e+01
1.200000e-07	-5.500049e-06	-1.169281e-09	-3.819165e+01	-8.133627e+01
1.300000e-07	-5.495359e-06	-1.203046e-09	-3.815908e+01	-8.130148e+01
1.400000e-07	-5.490247e-06	-1.243497e-09	-3.812359e+01	-8.126358e+01
1.500000e-07	-5.484646e-06	-1.211784e-09	-3.808469e+01	-8.122225e+01
1.600000e-07	-5.478685e-06	-1.197083e-09	-3.804330e+01	-8.117718e+01
1.700000e-07	-5.472411e-06	-1.206451e-09	-3.799974e+01	-8.112810e+01
1.800000e-07	-5.465682e-06	-1.261473e-09	-3.795301e+01	-8.107475e+01
1.900000e-07	-5.458435e-06	-1.238278e-09	-3.790269e+01	-8.101692e+01
2.000000e-07	-5.450876e-06	-1.205734e-09	-3.785020e+01	-8.095442e+01
2.100000e-07	-5.443112e-06	-1.197249e-09	-3.779629e+01	-8.088708e+01
2.200000e-07	-5.435076e-06	-1.241143e-09	-3.774048e+01	-8.081481e+01
2.300000e-07	-5.426759e-06	-1.242786e-09	-3.768274e+01	-8.073750e+01
2.400000e-07	-5.418144e-06	-1.211014e-09	-3.762291e+01	-8.065512e+01
2.500000e-07	-5.408873e-06	-1.193499e-09	-3.755853e+01	-8.056766e+01
2.600000e-07	-5.398864e-06	-1.219503e-09	-3.748904e+01	-8.047514e+01
2.700000e-07	-5.388213e-06	-1.222466e-09	-3.741507e+01	-8.037762e+01
2.800000e-07	-5.377061e-06	-1.189480e-09	-3.733764e+01	-8.027520e+01
2.900000e-07	-5.365485e-06	-1.186293e-09	-3.725725e+01	-8.016802e+01
3.000000e-07	-5.353512e-06	-1.199661e-09	-3.717412e+01	-8.005622e+01
3.100000e-07	-5.341257e-06	-1.201354e-09	-3.708902e+01	-7.994001e+01
3.200000e-07	-5.328528e-06	-1.172660e-09	-3.700063e+01	-7.981959e+01
3.300000e-07	-5.315353e-06	-1.192891e-09	-3.690915e+01	-7.969522e+01
3.400000e-07	-5.301829e-06	-1.199445e-09	-3.681524e+01	-7.956715e+01
3.500000e-07	-5.287956e-06	-1.196876e-09	-3.671890e+01	-7.943566e+01
3.600000e-07	-5.273691e-06	-1.182964e-09	-3.661985e+01	-7.930106e+01
3.700000e-07	-5.258928e-06	-1.195525e-09	-3.651734e+01	-7.916366e+01
3.800000e-07	-5.243716e-06	-1.175493e-09	-3.641170e+01	-7.902376e+01
3.900000e-07	-5.228016e-06	-1.174757e-09	-3.630269e+01	-7.888170e+01
4.000000e-07	-5.211778e-06	-1.178739e-09	-3.618993e+01	-7.873781e+01
4.100000e-07	-5.195202e-06	-1.175669e-09	-3.607483e+01	-7.859239e+01
4.200000e-07	-5.178228e-06	-1.156782e-09	-3.595697e+01	-7.844578e+01
4.300000e-07	-5.160880e-06	-1.177423e-09	-3.583650e+01	-7.829828e+01
4.400000e-07	-5.143288e-06	-1.181391e-09	-3.571435e+01	-7.815018e+01
4.500000e-07	-5.125311e-06	-1.166974e-09	-3.558952e+01	-7.800179e+01
4.600000e-07	-5.106928e-06	-1.161379e-09	-3.546187e+01	-7.785335e+01
4.700000e-07	-5.088048e-06	-1.166287e-09	-3.533077e+01	-7.770512e+01
4.800000e-07	-5.068771e-06	-1.146517e-09	-3.519691e+01	-7.755732e+01
4.900000e-07	-5.049323e-06	-1.146234e-09	-3.506187e+01	-7.741015e+01
5.000000e-07	-5.029612e-06	-1.161576e-09	-3.492500e+01	-7.726380e+01
5.100000e-07	-5.009591e-06	-1.152514e-09	-3.478597e+01	-7.711840e+01
5.200000e-07	-4.989327e-06	-1.137141e-09	-3.464526e+01	-7.697407e+01
5.300000e-07	-4.968808e-06	-1.150431e-09	-3.450278e+01	-7.683092e+01
5.400000e-07	-4.947935e-06	-1.159415e-09	-3.435784e+01	-7.668900e+01
5.500000e-07	-4.926683e-06	-1.143968e-09	-3.421027e+01	-7.654834e+01
5.600000e-07	-4.905161e-06	-1.136543e-09	-3.406082e+01	-7.640896e+01
5.700000e-07	-4.883338e-06	-1.133077e-09	-3.390928e+01	-7.627083e+01
5.800000e-07	-4.861041e-06	-1.131379e-09	-3.375446e+01	-7.613391e+01
5.900000e-07	-4.838399e-06	-1.131722e-09	-3.359724e+01	-7.599811e+01
6.000000e-07	-4.815508e-06	-1.136313e-09	-3.343829e+01	-7.586334e+01
6.100000e-07	-4.792311e-06	-1.129240e-09	-3.327721e+01	-7.572949e+01
6.200000e-07	-4.768870e-06	-1.125578e-09	-3.311443e+01	-7.559641e+01
6.300000e-07	-4.745192e-06	-1.118608e-09	-3.295002e+01	-7.546394e+01
6.400000e-07	-4.721243e-06	-1.118785e-09	-3.278372e+01	-7.533192e+01
6.500000e-07	-4.696903e-06	-1.113852e-09	-3.261471e+01	-7.520015e+01
6.600000e-07	-4.672220e-06	-1.114009e-09	-3.244331e+01	-7.506845e+01
6.700000e-07	-4.647096e-06	-1.114269e-09	-3.226885e+01	-7.493662e+01
6.800000e-07	-4.621347e-06	-1.117383e-09	-3.209005e+01	-7.480445e+01
6.900000e-07	-4.595036e-06	-1.105488e-09	-3.190736e+01	-7.467173e+01
7.000000e-07	-4.568300e-06	-1.103263e-09	-3.172170e+01	-7.453826e+01
7.100000e-07	-4.541207e-06	-1.102364e-09	-3.153357e+01	-7.440384e+01
7.200000e-07	-4.513791e-06	-1.095824e-09	-3.134320e+01	-7.426827e+01
7.300000e-07	-4.486144e-06	-1.088859e-09	-3.115122e+01	-7.413137e+01
7.400000e-07	-4.458226e-06	-1.099632e-09	-3.095736e+01	-7.399296e+01
7.500000e-07	-4.430121e-06	-1.099461e-09	-3.076220e+01	-7.385289e+01
7.600000e-07	-4.401797e-06	-1.090376e-09	-3.056552e+01	-7.371101e+01
7.700000e-07	-4.373195e-06	-1.087443e-09	-3.036692e+01	-7.356719e+01
7.800000e-07	-4.344339e-06	-1.087729e-09	-3.016654e+01	-7.342131e+01
7.900000e-07	-4.315125e-06	-1.080808e-09	-2.996369e+01	-7.327330e+01
8.000000e-07	-4.285554e-06	-1.081658e-09	-2.975835e+01	-7.312308e+01
8.100000e-07	-4.255725e-06	-1.083404e-09	-2.955122e+01	-7.297060e+01
8.200000e-07	-4.225610e-06	-1.073983e-09	-2.934211e+01	-7.281582e+01
8.300000e-07	-4.195119e-06	-1.067616e-09	-2.913038e+01	-7.265874e+01
8.400000e-07	-4.164371e-06	-1.067341e-09	-2.891687e+01	-7.249937e+01
8.500000e-07	-4.133382e-06	-1.064142e-09	-2.870169e+01	-7.233773e+01
8.600000e-07	-4.102087e-06	-1.059622e-09	-2.848438e+01	-7.217388e+01
8.700000e-07	-4.070590e-06	-1.060870e-09	-2.826566e+01	-7.200787e+01
8.800000e-07	-4.038903e-06	-1.055783e-09	-2.804564e+01	-7.183978e+01
8.900000e-07	-4.007035e-06	-1.048361e-09	-2.782435e+01	-7.166971e+01
9.000000e-07	-3.975008e-06	-1.043314e-09	-2.760196e+01	-7.149776e+01
9.100000e-07	-3.942687e-06	-1.040378e-09	-2.737753e+01	-7.132404e+01
9.200000e-07	-3.909989e-06	-1.032783e-09	-2.715047e+01	-7.114866e+01
9.300000e-07	-3.876964e-06	-1.034142e-09	-2.692115e+01	-7.097177e+01
9.400000e-07	-3.843534e-06	-1.037696e-09	-2.668901e+01	-7.079347e+01
9.500000e-07	-3.809541e-06	-1.038238e-09	-2.645298e+01	-7.061389e+01
9.600000e-07	-3.775091e-06	-1.034443e-09	-2.621376e+01	-7.043317e+01
9.700000e-07	-3.740326e-06	-1.030454e-09	-2.597236e+01	-7.025141e+01
9.800000e-07	-3.705214e-06	-1.017997e-09	-2.572854e+01	-7.006872e+01
9.900000e-07	-3.669840e-06	-1.008679e-09	-2.548291e+01	-6.988521e+01
1.000000e-06	-3.634270e-06	-1.003675e-09	-2.523592e+01	-6.970096e+01
1.010000e-06	-3.598496e-06	-1.002671e-09	-2.498751e+01	-6.951604e+01
1.020000e-06	-3.562530e-06	-1.000789e-09	-2.473776e+01	-6.933051e+01
1.030000e-06	-3.526402e-06	-1.002946e-09	-2.448689e+01	-6.914441e+01
1.040000e-06	-3.490149e-06	-1.004672e-09	-2.423516e+01	-6.895774e+01
1.050000e-06	-3.453665e-06	-1.001697e-09	-2.398182e+01	-6.877052e+01
1.060000e-06	-3.416865e-06	-9.960136e-10	-2.372628e+01	-6.858271e+01
1.070000e-06	-3.379774e-06	-9.927861e-10	-2.346872e+01	-6.839427e+01
1.080000e-06	-3.342473e-06	-9.881446e-10	-2.320971e+01	-6.820512e+01
1.090000e-06	-3.304926e-06	-9.844544e-10	-2.294899e+01	-6.801517e+01
1.100000e-06	-3.267102e-06	-9.824938e-10	-2.268635e+01	-6.782430e+01
1.110000e-06	-3.229103e-06	-9.775981e-10	-2.242249e+01	-6.763238e+01
1.120000e-06	-3.190915e-06	-9.713838e-10	-2.215731e+01	-6.743923e+01
1.130000e-06	-3.152522e-06	-9.685203e-10	-2.189072e+01	-6.724468e+01
1.140000e-06	-3.113862e-06	-9.663159e-10	-2.162227e+01	-6.704852e+01
1.150000e-06	-3.075017e-06	-9.617866e-10	-2.135253e+01	-6.685052e+01
1.160000e-06	-3.036029e-06	-9.600128e-10	-2.108180e+01	-6.665045e+01
1.170000e-06	-2.996748e-06	-9.564077e-10	-2.080904e+01	-6.644805e+01
1.180000e-06	-2.957274e-06	-9.502177e-10	-2.053494e+01	-6.624303e+01
1.190000e-06	-2.917656e-06	-9.449541e-10	-2.025984e+01	-6.603513e+01
1.200000e-06	-2.877840e-06	-9.430913e-10	-1.998336e+01	-6.582405e+01
1.210000e-06	-2.837868e-06	-9.396154e-10	-1.970580e+01	-6.560949e+01
1.220000e-06	-2.797770e-06	-9.357314e-10	-1.942737e+01	-6.539114e+01
1.230000e-06	-2.757483e-06	-9.331044e-10	-1.914762e+01	-6.516869e+01
1.240000e-06	-2.717070e-06	-9.333774e-10	-1.886699e+01	-6.494182e+01
1.250000e-06	-2.676531e-06	-9.306673e-10	-1.858549e+01	-6.471023e+01
1.260000e-06	-2.635802e-06	-9.289077e-10	-1.830268e+01	-6.447360e+01
1.270000e-06	-2.594908e-06	-9.242722e-10	-1.801871e+01	-6.423163e+01
1.280000e-06	-2.553731e-06	-9.161679e-10	-1.773279e+01	-6.398401e+01
1.290000e-06	-2.512184e-06	-9.083552e-10	-1.744429e+01	-6.373045e+01
1.300000e-06	-2.470231e-06	-9.027816e-10	-1.715298e+01	-6.347067e+01
1.310000e-06	-2.427942e-06	-8.964411e-10	-1.685933e+01	-6.320437e+01
1.320000e-06	-2.385350e-06	-8.905626e-10	-1.656357e+01	-6.293129e+01
1.330000e-06	-2.342450e-06	-8.870552e-10	-1.626568e+01	-6.265117e+01
1.340000e-06	-2.299351e-06	-8.837979e-10	-1.596640e+01	-6.236374e+01
1.350000e-06	-2.256121e-06	-8.800981e-10	-1.566622e+01	-6.206878e+01
1.360000e-06	-2.212768e-06	-8.781928e-10	-1.536518e+01	-6.176603e+01
1.370000e-06	-2.169272e-06	-8.755700e-10	-1.506315e+01	-6.145527e+01
1.380000e-06	-2.125672e-06	-8.708799e-10	-1.476040e+01	-6.113626e+01
1.390000e-06	-2.081966e-06	-8.644561e-10	-1.445691e+01	-6.080880e+01
1.400000e-06	-2.038139e-06	-8.584147e-10	-1.415258e+01	-6.047265e+01
1.410000e-06	-1.994222e-06	-8.503493e-10	-1.384763e+01	-6.012759e+01
1.420000e-06	-1.950227e-06	-8.409563e-10	-1.354213e+01	-5.977340e+01
1.430000e-06	-1.906124e-06	-8.342277e-10	-1.323588e+01	-5.940986e+01
1.440000e-06	-1.861943e-06	-8.296065e-10	-1.292910e+01	-5.903672e+01
1.450000e-06	-1.817710e-06	-8.260109e-10	-1.262195e+01	-5.865374e+01
1.460000e-06	-1.773327e-06	-8.209565e-10	-1.231376e+01	-5.826065e+01
1.470000e-06	-1.728863e-06	-8.125939e-10	-1.200501e+01	-5.785719e+01
1.480000e-06	-1.684314e-06	-8.024704e-10	-1.169566e+01	-5.744306e+01
1.490000e-06	-1.639550e-06	-7.912890e-10	-1.138483e+01	-5.701793e+01
1.500000e-06	-1.594589e-06	-7.781935e-10	-1.107262e+01	-5.658146e+01
1.510000e-06	-1.549490e-06	-7.677828e-10	-1.075947e+01	-5.613330e+01
1.520000e-06	-1.504305e-06	-7.602251e-10	-1.044571e+01	-5.567302e+01
1.530000e-06	-1.459071e-06	-7.549160e-10	-1.013160e+01	-5.520021e+01
1.540000e-06	-1.413729e-06	-7.492815e-10	-9.816756e+00	-5.471440e+01
1.550000e-06	-1.368268e-06	-7.393774e-10	-9.501081e+00	-5.421508e+01
1.560000e-06	-1.322814e-06	-7.280797e-10	-9.185457e+00	-5.370172e+01
1.570000e-06	-1.277264e-06	-7.178643e-10	-8.869161e+00	-5.317375e+01
1.580000e-06	-1.231525e-06	-7.095252e-10	-8.551557e+00	-5.263054e+01
1.590000e-06	-1.185729e-06	-7.030880e-10	-8.233550e+00	-5.207145e+01
1.600000e-06	-1.139910e-06	-6.944956e-10	-7.915392e+00	-5.149578e+01
1.610000e-06	-1.093977e-06	-6.870751e-10	-7.596440e+00	-5.090282e+01
1.620000e-06	-1.047986e-06	-6.793749e-10	-7.277086e+00	-5.029180e+01
1.630000e-06	-1.001901e-06	-6.722904e-10	-6.957077e+00	-4.966193e+01
1.640000e-06	-9.556570e-07	-6.646259e-10	-6.635962e+00	-4.901238e+01
1.650000e-06	-9.093575e-07	-6.554756e-10	-6.314465e+00	-4.834231e+01
1.660000e-06	-8.630593e-07	-6.456704e-10	-5.992976e+00	-4.765085e+01
1.670000e-06	-8.167203e-07	-6.364201e-10	-5.671203e+00	-4.693709e+01
1.680000e-06	-7.703445e-07	-6.247475e-10	-5.349176e+00	-4.620014e+01
1.690000e-06	-7.239018e-07	-6.110527e-10	-5.026683e+00	-4.543908e+01
1.700000e-06	-6.773569e-07	-5.972189e-10	-4.703481e+00	-4.465299e+01
1.710000e-06	-6.307631e-07	-5.842713e-10	-4.379940e+00	-4.384096e+01
1.720000e-06	-5.840947e-07	-5.717479e-10	-4.055880e+00	-4.300208e+01
1.730000e-06	-5.373782e-07	-5.577500e-10	-3.731487e+00	-4.213546e+01
1.740000e-06	-4.906394e-07	-5.439578e-10	-3.406939e+00	-4.124024e+01
1.750000e-06	-4.438694e-07	-5.297537e-10	-3.082174e+00	-4.031557e+01
1.760000e-06	-3.971105e-07	-5.128414e-10	-2.757485e+00	-3.936066e+01
1.770000e-06	-3.503944e-07	-4.945126e-10	-2.433095e+00	-3.837475e+01
1.780000e-06	-3.036718e-07	-4.788070e-10	-2.108659e+00	-3.735714e+01
1.790000e-06	-2.567908e-07	-4.643434e-10	-1.783123e+00	-3.630718e+01
1.800000e-06	-2.098502e-07	-4.492050e-10	-1.457173e+00	-3.522431e+01
1.810000e-06	-1.630336e-07	-4.336708e-10	-1.132085e+00	-3.410803e+01
1.820000e-06	-1.162413e-07	-4.178755e-10	-8.071648e-01	-3.295790e+01
1.830000e-06	-6.940968e-08	-4.014695e-10	-4.819721e-01	-3.177361e+01
1.840000e-06	-2.255078e-08	-3.857413e-10	-1.565898e-01	-3.055492e+01
1.850000e-06	2.429401e-08	-3.710810e-10	1.686945e-01	-2.930168e+01
1.860000e-06	7.124581e-08	-3.568824e-10	4.947219e-01	-2.801387e+01
1.870000e-06	1.182373e-07	-3.408978e-10	8.210251e-01	-2.669157e+01
1.880000e-06	1.650445e-07	-3.223288e-10	1.146048e+00	-2.533496e+01
1.890000e-06	2.118041e-07	-3.012060e-10	1.470741e+00	-2.394436e+01
1.900000e-06	2.585972e-07	-2.791893e-10	1.795667e+00	-2.252020e+01
1.910000e-06	3.053997e-07	-2.559333e-10	2.120657e+00	-2.106303e+01
1.920000e-06	3.522224e-07	-2.329651e-10	2.445788e+00	-1.957353e+01
1.930000e-06	3.990163e-07	-2.109020e-10	2.770719e+00	-1.805250e+01
1.940000e-06	4.457219e-07	-1.907435e-10	3.095037e+00	-1.650086e+01
1.950000e-06	4.923657e-07	-1.714673e-10	3.418925e+00	-1.491967e+01
1.960000e-06	5.390020e-07	-1.510185e-10	3.742763e+00	-1.331009e+01
1.970000e-06	5.855882e-07	-1.299897e-10	4.066251e+00	-1.167341e+01
1.980000e-06	6.321487e-07	-1.088404e-10	4.389562e+00	-1.001104e+01
1.990000e-06	6.786680e-07	-8.343876e-11	4.712586e+00	-8.324475e+00
2.000000e-06	7.250936e-07	-5.414302e-11	5.034959e+00	-6.615345e+00
2.010000e-06	7.714357e-07	-2.544970e-11	5.356753e+00	-4.885363e+00
2.020000e-06	8.177011e-07	-1.292144e-13	5.678014e+00	-3.136339e+00
2.030000e-06	8.639058e-07	2.199751e-11	5.998853e+00	-1.370168e+00
2.040000e-06	9.101155e-07	4.244565e-11	6.319728e+00	4.111769e-01
2.050000e-06	9.562680e-07	6.247111e-11	6.640205e+00	2.205654e+00
2.060000e-06	1.002312e-06	8.569840e-11	6.959928e+00	4.011159e+00
2.070000e-06	1.048332e-06	1.131400e-10	7.279484e+00	5.825539e+00
2.080000e-06	1.094335e-06	1.430259e-10	7.598928e+00	7.646597e+00
2.090000e-06	1.140233e-06	1.725372e-10	7.917637e+00	9.472105e+00
2.100000e-06	1.186046e-06	2.005463e-10	8.235754e+00	1.129981e+01
2.110000e-06	1.231852e-06	2.268561e-10	8.553827e+00	1.312746e+01
2.120000e-06	1.277559e-06	2.516580e-10	8.871210e+00	1.495278e+01
2.130000e-06	1.323138e-06	2.749764e-10	9.187707e+00	1.677352e+01
2.140000e-06	1.368627e-06	2.962440e-10	9.503575e+00	1.858745e+01
2.150000e-06	1.413977e-06	3.167297e-10	9.818480e+00	2.039235e+01
2.160000e-06	1.459181e-06	3.396573e-10	1.013237e+01	2.218606e+01
2.170000e-06	1.504346e-06	3.645167e-10	1.044599e+01	2.396647e+01
2.180000e-06	1.549451e-06	3.911013e-10	1.075919e+01	2.573150e+01
2.190000e-06	1.594416e-06	4.179448e-10	1.107142e+01	2.747916e+01
2.200000e-06	1.639233e-06	4.433444e-10	1.138263e+01	2.920753e+01
2.210000e-06	1.683877e-06	4.668383e-10	1.169263e+01	3.091476e+01
2.220000e-06	1.728360e-06	4.897538e-10	1.200151e+01	3.259910e+01
2.230000e-06	1.772787e-06	5.126090e-10	1.231001e+01	3.425889e+01
2.240000e-06	1.817143e-06	5.342688e-10	1.261802e+01	3.589257e+01
2.250000e-06	1.861302e-06	5.552342e-10	1.292465e+01	3.749869e+01
2.260000e-06	1.905353e-06	5.757536e-10	1.323054e+01	3.907590e+01
2.270000e-06	1.949317e-06	5.958693e-10	1.353581e+01	4.062296e+01
2.280000e-06	1.993158e-06	6.155370e-10	1.384024e+01	4.213877e+01
2.290000e-06	2.036960e-06	6.344798e-10	1.414440e+01	4.362231e+01
2.300000e-06	2.080715e-06	6.529805e-10	1.444822e+01	4.507271e+01
2.310000e-06	2.124432e-06	6.720495e-10	1.475179e+01	4.648921e+01
2.320000e-06	2.168091e-06	6.908220e-10	1.505495e+01	4.787115e+01
2.330000e-06	2.211609e-06	7.087739e-10	1.535714e+01	4.921801e+01
2.340000e-06	2.255004e-06	7.276647e-10	1.565846e+01	5.052937e+01
2.350000e-06	2.298183e-06	7.463032e-10	1.595830e+01	5.180494e+01
2.360000e-06	2.341203e-06	7.622533e-10	1.625702e+01	5.304453e+01
2.370000e-06	2.384082e-06	7.766977e-10	1.655477e+01	5.424804e+01
2.380000e-06	2.426618e-06	7.915957e-10	1.685013e+01	5.541550e+01
2.390000e-06	2.468754e-06	8.061758e-10	1.714272e+01	5.654702e+01
2.400000e-06	2.510564e-06	8.211094e-10	1.743304e+01	5.764281e+01
2.410000e-06	2.552072e-06	8.374895e-10	1.772127e+01	5.870317e+01
2.420000e-06	2.593206e-06	8.516659e-10	1.800690e+01	5.972846e+01
2.430000e-06	2.634059e-06	8.630507e-10	1.829058e+01	6.071915e+01
2.440000e-06	2.674666e-06	8.728029e-10	1.857254e+01	6.167575e+01
2.450000e-06	2.715004e-06	8.809382e-10	1.885265e+01	6.259884e+01
2.460000e-06	2.755156e-06	8.886919e-10	1.913146e+01	6.348907e+01
2.470000e-06	2.795172e-06	8.987519e-10	1.940932e+01	6.434712e+01
2.480000e-06	2.835057e-06	9.108384e-10	1.968628e+01	6.517373e+01
2.490000e-06	2.874873e-06	9.221773e-10	1.996276e+01	6.596967e+01
2.500000e-06	2.914567e-06	9.343237e-10	2.023839e+01	6.673574e+01
2.510000e-06	2.954097e-06	9.451565e-10	2.051288e+01	6.747277e+01
2.520000e-06	2.993533e-06	9.528338e-10	2.078672e+01	6.818160e+01
2.530000e-06	3.032698e-06	9.593566e-10	2.105868e+01	6.886310e+01
2.540000e-06	3.071584e-06	9.673795e-10	2.132870e+01	6.951814e+01
2.550000e-06	3.110329e-06	9.762386e-10	2.159774e+01	7.014760e+01
2.560000e-06	3.148812e-06	9.851780e-10	2.186495e+01	7.075234e+01
2.570000e-06	3.187012e-06	9.941452e-10	2.213021e+01	7.133323e+01
2.580000e-06	3.225055e-06	1.001109e-09	2.239438e+01	7.189114e+01
2.590000e-06	3.262958e-06	1.007891e-09	2.265757e+01	7.242691e+01
2.600000e-06	3.300689e-06	1.016731e-09	2.291957e+01	7.294138e+01
2.610000e-06	3.338230e-06	1.026829e-09	2.318025e+01	7.343536e+01
2.620000e-06	3.375473e-06	1.035844e-09	2.343886e+01	7.390965e+01
2.630000e-06	3.412386e-06	1.043919e-09	2.369518e+01	7.436503e+01
2.640000e-06	3.449076e-06	1.049637e-09	2.394995e+01	7.480223e+01
2.650000e-06	3.485540e-06	1.053623e-09	2.420315e+01	7.522200e+01
2.660000e-06	3.521748e-06	1.054704e-09	2.445458e+01	7.562503e+01
2.670000e-06	3.557800e-06	1.058717e-09	2.470492e+01	7.601201e+01
2.680000e-06	3.593709e-06	1.064667e-09	2.495426e+01	7.638357e+01
2.690000e-06	3.629476e-06	1.072475e-09	2.520262e+01	7.674035e+01
2.700000e-06	3.665082e-06	1.081093e-09	2.544987e+01	7.708294e+01
2.710000e-06	3.700517e-06	1.088033e-09	2.569593e+01	7.741193e+01
2.720000e-06	3.735791e-06	1.094364e-09	2.594086e+01	7.772786e+01
2.730000e-06	3.770746e-06	1.098821e-09	2.618359e+01	7.803125e+01
2.740000e-06	3.805331e-06	1.101079e-09	2.642374e+01	7.832262e+01
2.750000e-06	3.839500e-06	1.102710e-09	2.666101e+01	7.860245e+01
2.760000e-06	3.873106e-06	1.103299e-09	2.689437e+01	7.887121e+01
2.770000e-06	3.906125e-06	1.104991e-09	2.712364e+01	7.912933e+01
2.780000e-06	3.938664e-06	1.110237e-09	2.734959e+01	7.937725e+01
2.790000e-06	3.970885e-06	1.117740e-09	2.757333e+01	7.961537e+01
2.800000e-06	4.002894e-06	1.127199e-09	2.779559e+01	7.984409e+01
2.810000e-06	4.034752e-06	1.133829e-09	2.801681e+01	8.006379e+01
2.820000e-06	4.066548e-06	1.137563e-09	2.823760e+01	8.027483e+01
2.830000e-06	4.098264e-06	1.139448e-09	2.845783e+01	8.047756e+01
2.840000e-06	4.129703e-06	1.140333e-09	2.867614e+01	8.067233e+01
2.850000e-06	4.160839e-06	1.140298e-09	2.889235e+01	8.085945e+01
2.860000e-06	4.191692e-06	1.140548e-09	2.910658e+01	8.103924e+01
2.870000e-06	4.222148e-06	1.142501e-09	2.931807e+01	8.121201e+01
2.880000e-06	4.252247e-06	1.147967e-09	2.952707e+01	8.137805e+01
2.890000e-06	4.282102e-06	1.153881e-09	2.973438e+01	8.153762e+01
2.900000e-06	4.311736e-06	1.159475e-09	2.994015e+01	8.169102e+01
