# Temperatura_=_-7.96
# Concentracion g/m^3_=_1620.0
# C_Vs_to_Am_M_A/Vsm_=_65563218390.804596
# pendiente_HvsI_1/m_=_3716.3
# ordenada_HvsI_A/m_=_1297.0
# frecuencia_Hz_=_135102.4160860873

Tiempo_(s)	Campo_(V.s)	Magnetizacion_(V.s)	Campo_(kA/m)	Magnetizacion_(A/m)
0.000000e+00	-5.521974e-06	-1.215299e-09	-3.838310e+01	-8.006487e+01
1.000000e-08	-5.522157e-06	-1.210320e-09	-3.838437e+01	-8.003360e+01
2.000000e-08	-5.522029e-06	-1.208574e-09	-3.838349e+01	-8.000396e+01
3.000000e-08	-5.521553e-06	-1.208634e-09	-3.838018e+01	-7.997574e+01
4.000000e-08	-5.520703e-06	-1.209133e-09	-3.837427e+01	-7.994874e+01
5.000000e-08	-5.519338e-06	-1.207312e-09	-3.836478e+01	-7.992270e+01
6.000000e-08	-5.517297e-06	-1.202453e-09	-3.835060e+01	-7.989738e+01
7.000000e-08	-5.514662e-06	-1.217431e-09	-3.833228e+01	-7.987250e+01
8.000000e-08	-5.511583e-06	-1.225983e-09	-3.831088e+01	-7.984779e+01
9.000000e-08	-5.507963e-06	-1.197904e-09	-3.828572e+01	-7.982296e+01
1.000000e-07	-5.503954e-06	-1.192439e-09	-3.825785e+01	-7.979770e+01
1.100000e-07	-5.499750e-06	-1.246727e-09	-3.822862e+01	-7.977174e+01
1.200000e-07	-5.495230e-06	-1.209682e-09	-3.819721e+01	-7.974475e+01
1.300000e-07	-5.490361e-06	-1.180494e-09	-3.816336e+01	-7.971645e+01
1.400000e-07	-5.485131e-06	-1.143757e-09	-3.812701e+01	-7.968654e+01
1.500000e-07	-5.479574e-06	-1.243414e-09	-3.808838e+01	-7.965474e+01
1.600000e-07	-5.473679e-06	-1.233806e-09	-3.804740e+01	-7.962078e+01
1.700000e-07	-5.467384e-06	-1.177086e-09	-3.800365e+01	-7.958438e+01
1.800000e-07	-5.460718e-06	-1.151054e-09	-3.795732e+01	-7.954530e+01
1.900000e-07	-5.453710e-06	-1.197274e-09	-3.790860e+01	-7.950331e+01
2.000000e-07	-5.446319e-06	-1.222451e-09	-3.785723e+01	-7.945821e+01
2.100000e-07	-5.438572e-06	-1.190548e-09	-3.780338e+01	-7.940979e+01
2.200000e-07	-5.430473e-06	-1.208582e-09	-3.774709e+01	-7.935789e+01
2.300000e-07	-5.422100e-06	-1.214055e-09	-3.768888e+01	-7.930238e+01
2.400000e-07	-5.413335e-06	-1.218200e-09	-3.762796e+01	-7.924313e+01
2.500000e-07	-5.403892e-06	-1.168628e-09	-3.756232e+01	-7.918004e+01
2.600000e-07	-5.393879e-06	-1.184988e-09	-3.749272e+01	-7.911306e+01
2.700000e-07	-5.383282e-06	-1.184237e-09	-3.741906e+01	-7.904215e+01
2.800000e-07	-5.372095e-06	-1.217297e-09	-3.734130e+01	-7.896729e+01
2.900000e-07	-5.360453e-06	-1.181105e-09	-3.726038e+01	-7.888849e+01
3.000000e-07	-5.348411e-06	-1.180923e-09	-3.717667e+01	-7.880580e+01
3.100000e-07	-5.336018e-06	-1.169872e-09	-3.709053e+01	-7.871928e+01
3.200000e-07	-5.323390e-06	-1.205989e-09	-3.700275e+01	-7.862902e+01
3.300000e-07	-5.310374e-06	-1.175858e-09	-3.691228e+01	-7.853513e+01
3.400000e-07	-5.296830e-06	-1.173718e-09	-3.681813e+01	-7.843774e+01
3.500000e-07	-5.282894e-06	-1.188975e-09	-3.672127e+01	-7.833700e+01
3.600000e-07	-5.268651e-06	-1.209211e-09	-3.662226e+01	-7.823309e+01
3.700000e-07	-5.253897e-06	-1.158379e-09	-3.651971e+01	-7.812618e+01
3.800000e-07	-5.238592e-06	-1.163821e-09	-3.641333e+01	-7.801647e+01
3.900000e-07	-5.222810e-06	-1.193782e-09	-3.630363e+01	-7.790417e+01
4.000000e-07	-5.206537e-06	-1.163824e-09	-3.619051e+01	-7.778948e+01
4.100000e-07	-5.189790e-06	-1.138257e-09	-3.607410e+01	-7.767264e+01
4.200000e-07	-5.172714e-06	-1.195011e-09	-3.595540e+01	-7.755386e+01
4.300000e-07	-5.155397e-06	-1.199863e-09	-3.583503e+01	-7.743337e+01
4.400000e-07	-5.137747e-06	-1.122087e-09	-3.571235e+01	-7.731139e+01
4.500000e-07	-5.119753e-06	-1.152826e-09	-3.558728e+01	-7.718813e+01
4.600000e-07	-5.101315e-06	-1.196383e-09	-3.545911e+01	-7.706380e+01
4.700000e-07	-5.082405e-06	-1.143012e-09	-3.532767e+01	-7.693861e+01
4.800000e-07	-5.063195e-06	-1.115354e-09	-3.519414e+01	-7.681275e+01
4.900000e-07	-5.043782e-06	-1.190522e-09	-3.505920e+01	-7.668639e+01
5.000000e-07	-5.024076e-06	-1.154244e-09	-3.492223e+01	-7.655970e+01
5.100000e-07	-5.004090e-06	-1.110817e-09	-3.478331e+01	-7.643282e+01
5.200000e-07	-4.983838e-06	-1.160189e-09	-3.464253e+01	-7.630588e+01
5.300000e-07	-4.963246e-06	-1.183607e-09	-3.449940e+01	-7.617899e+01
5.400000e-07	-4.942275e-06	-1.103469e-09	-3.435363e+01	-7.605226e+01
5.500000e-07	-4.920965e-06	-1.130953e-09	-3.420551e+01	-7.592574e+01
5.600000e-07	-4.899350e-06	-1.167572e-09	-3.405526e+01	-7.579949e+01
5.700000e-07	-4.877379e-06	-1.122197e-09	-3.390254e+01	-7.567355e+01
5.800000e-07	-4.855078e-06	-1.101320e-09	-3.374753e+01	-7.554792e+01
5.900000e-07	-4.832400e-06	-1.160627e-09	-3.358989e+01	-7.542260e+01
6.000000e-07	-4.809344e-06	-1.135107e-09	-3.342963e+01	-7.529756e+01
6.100000e-07	-4.786004e-06	-1.107886e-09	-3.326740e+01	-7.517275e+01
6.200000e-07	-4.762413e-06	-1.136237e-09	-3.310341e+01	-7.504812e+01
6.300000e-07	-4.738659e-06	-1.140063e-09	-3.293830e+01	-7.492358e+01
6.400000e-07	-4.714622e-06	-1.101924e-09	-3.277122e+01	-7.479905e+01
6.500000e-07	-4.690251e-06	-1.116869e-09	-3.260182e+01	-7.467442e+01
6.600000e-07	-4.665472e-06	-1.126928e-09	-3.242958e+01	-7.454957e+01
6.700000e-07	-4.640254e-06	-1.107206e-09	-3.225429e+01	-7.442437e+01
6.800000e-07	-4.614538e-06	-1.111008e-09	-3.207554e+01	-7.429869e+01
6.900000e-07	-4.588235e-06	-1.128441e-09	-3.189271e+01	-7.417239e+01
7.000000e-07	-4.561437e-06	-1.115960e-09	-3.170643e+01	-7.404532e+01
7.100000e-07	-4.534286e-06	-1.106829e-09	-3.151771e+01	-7.391734e+01
7.200000e-07	-4.506880e-06	-1.113735e-09	-3.132721e+01	-7.378830e+01
7.300000e-07	-4.479217e-06	-1.102986e-09	-3.113493e+01	-7.365806e+01
7.400000e-07	-4.451326e-06	-1.095351e-09	-3.094106e+01	-7.352647e+01
7.500000e-07	-4.423223e-06	-1.095638e-09	-3.074571e+01	-7.339340e+01
7.600000e-07	-4.394806e-06	-1.095577e-09	-3.054819e+01	-7.325871e+01
7.700000e-07	-4.366061e-06	-1.088401e-09	-3.034839e+01	-7.312229e+01
7.800000e-07	-4.337029e-06	-1.096699e-09	-3.014658e+01	-7.298401e+01
7.900000e-07	-4.307681e-06	-1.090185e-09	-2.994259e+01	-7.284378e+01
8.000000e-07	-4.278011e-06	-1.082810e-09	-2.973635e+01	-7.270150e+01
8.100000e-07	-4.248046e-06	-1.077263e-09	-2.952806e+01	-7.255709e+01
8.200000e-07	-4.217926e-06	-1.076205e-09	-2.931870e+01	-7.241048e+01
8.300000e-07	-4.187578e-06	-1.058717e-09	-2.910775e+01	-7.226162e+01
8.400000e-07	-4.156861e-06	-1.059169e-09	-2.889424e+01	-7.211046e+01
8.500000e-07	-4.125777e-06	-1.063849e-09	-2.867817e+01	-7.195698e+01
8.600000e-07	-4.094419e-06	-1.064778e-09	-2.846021e+01	-7.180115e+01
8.700000e-07	-4.062879e-06	-1.055961e-09	-2.824097e+01	-7.164298e+01
8.800000e-07	-4.031190e-06	-1.057111e-09	-2.802070e+01	-7.148245e+01
8.900000e-07	-3.999295e-06	-1.044811e-09	-2.779900e+01	-7.131960e+01
9.000000e-07	-3.967174e-06	-1.034342e-09	-2.757573e+01	-7.115444e+01
9.100000e-07	-3.934816e-06	-1.033228e-09	-2.735081e+01	-7.098700e+01
9.200000e-07	-3.902150e-06	-1.038670e-09	-2.712375e+01	-7.081734e+01
9.300000e-07	-3.869093e-06	-1.033863e-09	-2.689397e+01	-7.064549e+01
9.400000e-07	-3.835635e-06	-1.036212e-09	-2.666140e+01	-7.047150e+01
9.500000e-07	-3.801636e-06	-1.038286e-09	-2.642508e+01	-7.029544e+01
9.600000e-07	-3.767184e-06	-1.030885e-09	-2.618560e+01	-7.011734e+01
9.700000e-07	-3.732302e-06	-1.019446e-09	-2.594314e+01	-6.993727e+01
9.800000e-07	-3.696948e-06	-1.015460e-09	-2.569739e+01	-6.975527e+01
9.900000e-07	-3.661429e-06	-1.008526e-09	-2.545050e+01	-6.957141e+01
1.000000e-06	-3.625818e-06	-9.976598e-10	-2.520297e+01	-6.938571e+01
1.010000e-06	-3.590096e-06	-9.980603e-10	-2.495467e+01	-6.919823e+01
1.020000e-06	-3.554235e-06	-1.000953e-09	-2.470540e+01	-6.900898e+01
1.030000e-06	-3.518230e-06	-9.985925e-10	-2.445513e+01	-6.881799e+01
1.040000e-06	-3.481988e-06	-9.952780e-10	-2.420321e+01	-6.862528e+01
1.050000e-06	-3.445493e-06	-9.961296e-10	-2.394954e+01	-6.843084e+01
1.060000e-06	-3.408716e-06	-9.856044e-10	-2.369390e+01	-6.823466e+01
1.070000e-06	-3.371586e-06	-9.771422e-10	-2.343581e+01	-6.803673e+01
1.080000e-06	-3.334184e-06	-9.730619e-10	-2.317583e+01	-6.783700e+01
1.090000e-06	-3.296647e-06	-9.710753e-10	-2.291491e+01	-6.763542e+01
1.100000e-06	-3.258979e-06	-9.650996e-10	-2.265308e+01	-6.743194e+01
1.110000e-06	-3.221087e-06	-9.658384e-10	-2.238970e+01	-6.722648e+01
1.120000e-06	-3.182971e-06	-9.618615e-10	-2.212475e+01	-6.701895e+01
1.130000e-06	-3.144627e-06	-9.552985e-10	-2.185823e+01	-6.680925e+01
1.140000e-06	-3.106062e-06	-9.491509e-10	-2.159016e+01	-6.659726e+01
1.150000e-06	-3.067218e-06	-9.519185e-10	-2.132016e+01	-6.638286e+01
1.160000e-06	-3.028075e-06	-9.479540e-10	-2.104808e+01	-6.616592e+01
1.170000e-06	-2.988779e-06	-9.427684e-10	-2.077493e+01	-6.594628e+01
1.180000e-06	-2.949383e-06	-9.379285e-10	-2.050109e+01	-6.572380e+01
1.190000e-06	-2.909858e-06	-9.378755e-10	-2.022635e+01	-6.549830e+01
1.200000e-06	-2.870185e-06	-9.338636e-10	-1.995059e+01	-6.526962e+01
1.210000e-06	-2.830351e-06	-9.303662e-10	-1.967370e+01	-6.503757e+01
1.220000e-06	-2.790378e-06	-9.271913e-10	-1.939585e+01	-6.480197e+01
1.230000e-06	-2.750252e-06	-9.278432e-10	-1.911693e+01	-6.456264e+01
1.240000e-06	-2.709961e-06	-9.297960e-10	-1.883688e+01	-6.431938e+01
1.250000e-06	-2.669439e-06	-9.290744e-10	-1.855520e+01	-6.407200e+01
1.260000e-06	-2.628691e-06	-9.246831e-10	-1.827196e+01	-6.382029e+01
1.270000e-06	-2.587682e-06	-9.171368e-10	-1.798692e+01	-6.356407e+01
1.280000e-06	-2.546379e-06	-9.092833e-10	-1.769982e+01	-6.330313e+01
1.290000e-06	-2.504896e-06	-9.010807e-10	-1.741147e+01	-6.303728e+01
1.300000e-06	-2.463097e-06	-8.950694e-10	-1.712093e+01	-6.276632e+01
1.310000e-06	-2.420868e-06	-8.917991e-10	-1.682739e+01	-6.249004e+01
1.320000e-06	-2.378252e-06	-8.907820e-10	-1.653117e+01	-6.220824e+01
1.330000e-06	-2.335328e-06	-8.847959e-10	-1.623281e+01	-6.192073e+01
1.340000e-06	-2.292235e-06	-8.780332e-10	-1.593327e+01	-6.162731e+01
1.350000e-06	-2.249037e-06	-8.741165e-10	-1.563300e+01	-6.132777e+01
1.360000e-06	-2.205725e-06	-8.717868e-10	-1.533194e+01	-6.102190e+01
1.370000e-06	-2.162247e-06	-8.658296e-10	-1.502972e+01	-6.070949e+01
1.380000e-06	-2.118651e-06	-8.590901e-10	-1.472669e+01	-6.039033e+01
1.390000e-06	-2.074943e-06	-8.510571e-10	-1.442287e+01	-6.006419e+01
1.400000e-06	-2.031120e-06	-8.442780e-10	-1.411826e+01	-5.973083e+01
1.410000e-06	-1.987207e-06	-8.379932e-10	-1.381303e+01	-5.939002e+01
1.420000e-06	-1.943204e-06	-8.343143e-10	-1.350716e+01	-5.904149e+01
1.430000e-06	-1.899177e-06	-8.292631e-10	-1.320113e+01	-5.868498e+01
1.440000e-06	-1.855058e-06	-8.252901e-10	-1.289446e+01	-5.832019e+01
1.450000e-06	-1.810833e-06	-8.193377e-10	-1.258706e+01	-5.794681e+01
1.460000e-06	-1.766524e-06	-8.126662e-10	-1.227906e+01	-5.756452e+01
1.470000e-06	-1.722094e-06	-8.032927e-10	-1.197023e+01	-5.717296e+01
1.480000e-06	-1.677510e-06	-7.938780e-10	-1.166033e+01	-5.677175e+01
1.490000e-06	-1.632749e-06	-7.841095e-10	-1.134919e+01	-5.636048e+01
1.500000e-06	-1.587782e-06	-7.747151e-10	-1.103663e+01	-5.593872e+01
1.510000e-06	-1.542712e-06	-7.661787e-10	-1.072335e+01	-5.550599e+01
1.520000e-06	-1.497646e-06	-7.585243e-10	-1.041010e+01	-5.506179e+01
1.530000e-06	-1.452527e-06	-7.490040e-10	-1.009648e+01	-5.460558e+01
1.540000e-06	-1.407210e-06	-7.402848e-10	-9.781483e+00	-5.413680e+01
1.550000e-06	-1.361716e-06	-7.309537e-10	-9.465257e+00	-5.365483e+01
1.560000e-06	-1.316219e-06	-7.217060e-10	-9.149009e+00	-5.315902e+01
1.570000e-06	-1.270677e-06	-7.128533e-10	-8.832446e+00	-5.264870e+01
1.580000e-06	-1.225069e-06	-7.034789e-10	-8.515424e+00	-5.212315e+01
1.590000e-06	-1.179343e-06	-6.929047e-10	-8.197585e+00	-5.158162e+01
1.600000e-06	-1.133476e-06	-6.830038e-10	-7.878760e+00	-5.102331e+01
1.610000e-06	-1.087572e-06	-6.749204e-10	-7.559689e+00	-5.044742e+01
1.620000e-06	-1.041589e-06	-6.673454e-10	-7.240062e+00	-4.985309e+01
1.630000e-06	-9.954952e-07	-6.631791e-10	-6.919663e+00	-4.923945e+01
1.640000e-06	-9.493419e-07	-6.587067e-10	-6.598852e+00	-4.860561e+01
1.650000e-06	-9.031531e-07	-6.492304e-10	-6.277795e+00	-4.795063e+01
1.660000e-06	-8.568904e-07	-6.330797e-10	-5.956224e+00	-4.727359e+01
1.670000e-06	-8.105390e-07	-6.170222e-10	-5.634037e+00	-4.657354e+01
1.680000e-06	-7.641531e-07	-6.017576e-10	-5.311609e+00	-4.584953e+01
1.690000e-06	-7.177515e-07	-5.876967e-10	-4.989073e+00	-4.510060e+01
1.700000e-06	-6.713381e-07	-5.746730e-10	-4.666454e+00	-4.432580e+01
1.710000e-06	-6.248827e-07	-5.663885e-10	-4.343544e+00	-4.352419e+01
1.720000e-06	-5.784333e-07	-5.581958e-10	-4.020675e+00	-4.269486e+01
1.730000e-06	-5.319701e-07	-5.466460e-10	-3.697711e+00	-4.183690e+01
1.740000e-06	-4.853920e-07	-5.313380e-10	-3.373948e+00	-4.094944e+01
1.750000e-06	-4.387120e-07	-5.140260e-10	-3.049476e+00	-4.003165e+01
1.760000e-06	-3.919882e-07	-4.953145e-10	-2.724700e+00	-3.908274e+01
1.770000e-06	-3.451731e-07	-4.783021e-10	-2.399290e+00	-3.810198e+01
1.780000e-06	-2.983254e-07	-4.640530e-10	-2.073653e+00	-3.708869e+01
1.790000e-06	-2.515660e-07	-4.506557e-10	-1.748629e+00	-3.604226e+01
1.800000e-06	-2.048649e-07	-4.372097e-10	-1.424011e+00	-3.496215e+01
1.810000e-06	-1.581674e-07	-4.242153e-10	-1.099417e+00	-3.384789e+01
1.820000e-06	-1.115035e-07	-4.096514e-10	-7.750579e-01	-3.269912e+01
1.830000e-06	-6.475917e-08	-3.932441e-10	-4.501394e-01	-3.151554e+01
1.840000e-06	-1.793705e-08	-3.774263e-10	-1.246800e-01	-3.029697e+01
1.850000e-06	2.882447e-08	-3.620016e-10	2.003582e-01	-2.904333e+01
1.860000e-06	7.566531e-08	-3.466635e-10	5.259477e-01	-2.775463e+01
1.870000e-06	1.225368e-07	-3.295749e-10	8.517506e-01	-2.643102e+01
1.880000e-06	1.693566e-07	-3.110934e-10	1.177194e+00	-2.507273e+01
1.890000e-06	2.161911e-07	-2.922265e-10	1.502739e+00	-2.368015e+01
1.900000e-06	2.630367e-07	-2.713175e-10	1.828362e+00	-2.225374e+01
1.910000e-06	3.098347e-07	-2.487787e-10	2.153653e+00	-2.079412e+01
1.920000e-06	3.565696e-07	-2.257234e-10	2.478507e+00	-1.930203e+01
1.930000e-06	4.033356e-07	-2.032118e-10	2.803576e+00	-1.777831e+01
1.940000e-06	4.500934e-07	-1.825833e-10	3.128588e+00	-1.622394e+01
1.950000e-06	4.967076e-07	-1.617427e-10	3.452602e+00	-1.464003e+01
1.960000e-06	5.432176e-07	-1.398379e-10	3.775892e+00	-1.302778e+01
1.970000e-06	5.896564e-07	-1.183022e-10	4.098687e+00	-1.138852e+01
1.980000e-06	6.360960e-07	-9.737142e-11	4.421488e+00	-9.723709e+00
1.990000e-06	6.825789e-07	-7.340593e-11	4.744589e+00	-8.034889e+00
2.000000e-06	7.290316e-07	-4.710765e-11	5.067481e+00	-6.323713e+00
2.010000e-06	7.753242e-07	-2.186105e-11	5.389259e+00	-4.591932e+00
2.020000e-06	8.214827e-07	7.449742e-13	5.710106e+00	-2.841385e+00
2.030000e-06	8.676490e-07	2.355663e-11	6.031007e+00	-1.073994e+00
2.040000e-06	9.138015e-07	4.570606e-11	6.351812e+00	7.082432e-01
2.050000e-06	9.599925e-07	6.802730e-11	6.672884e+00	2.503264e+00
2.060000e-06	1.006146e-06	9.255373e-11	6.993698e+00	4.308947e+00
2.070000e-06	1.052171e-06	1.207614e-10	7.313614e+00	6.123122e+00
2.080000e-06	1.098052e-06	1.505925e-10	7.632532e+00	7.943579e+00
2.090000e-06	1.143833e-06	1.794653e-10	7.950752e+00	9.768079e+00
2.100000e-06	1.189586e-06	2.061032e-10	8.268784e+00	1.159436e+01
2.110000e-06	1.235212e-06	2.300199e-10	8.585931e+00	1.342016e+01
2.120000e-06	1.280721e-06	2.530987e-10	8.902257e+00	1.524321e+01
2.130000e-06	1.326172e-06	2.763083e-10	9.218187e+00	1.706125e+01
2.140000e-06	1.371561e-06	2.996840e-10	9.533683e+00	1.887205e+01
2.150000e-06	1.416949e-06	3.229381e-10	9.849181e+00	2.067339e+01
2.160000e-06	1.462200e-06	3.480142e-10	1.016371e+01	2.246312e+01
2.170000e-06	1.507228e-06	3.750222e-10	1.047670e+01	2.423911e+01
2.180000e-06	1.552226e-06	4.004904e-10	1.078949e+01	2.599931e+01
2.190000e-06	1.597145e-06	4.247236e-10	1.110171e+01	2.774172e+01
2.200000e-06	1.641834e-06	4.486308e-10	1.141235e+01	2.946443e+01
2.210000e-06	1.686375e-06	4.703265e-10	1.172195e+01	3.116560e+01
2.220000e-06	1.730805e-06	4.918869e-10	1.203079e+01	3.284348e+01
2.230000e-06	1.775122e-06	5.152656e-10	1.233883e+01	3.449643e+01
2.240000e-06	1.819352e-06	5.390251e-10	1.264627e+01	3.612290e+01
2.250000e-06	1.863433e-06	5.607365e-10	1.295267e+01	3.772144e+01
2.260000e-06	1.907416e-06	5.806119e-10	1.325840e+01	3.929071e+01
2.270000e-06	1.951327e-06	6.008979e-10	1.356362e+01	4.082951e+01
2.280000e-06	1.995173e-06	6.218371e-10	1.386840e+01	4.233671e+01
2.290000e-06	2.039013e-06	6.413901e-10	1.417313e+01	4.381134e+01
2.300000e-06	2.082755e-06	6.603830e-10	1.447718e+01	4.525252e+01
2.310000e-06	2.126411e-06	6.790625e-10	1.478063e+01	4.665951e+01
2.320000e-06	2.170030e-06	6.983646e-10	1.508383e+01	4.803169e+01
2.330000e-06	2.213535e-06	7.180193e-10	1.538622e+01	4.936852e+01
2.340000e-06	2.256829e-06	7.363230e-10	1.568717e+01	5.066963e+01
2.350000e-06	2.299915e-06	7.541693e-10	1.598665e+01	5.193473e+01
2.360000e-06	2.342843e-06	7.705665e-10	1.628504e+01	5.316365e+01
2.370000e-06	2.385500e-06	7.848566e-10	1.658155e+01	5.435632e+01
2.380000e-06	2.427806e-06	7.961968e-10	1.687562e+01	5.551279e+01
2.390000e-06	2.469857e-06	8.081307e-10	1.716792e+01	5.663319e+01
2.400000e-06	2.511581e-06	8.234451e-10	1.745794e+01	5.771774e+01
2.410000e-06	2.553017e-06	8.403904e-10	1.774595e+01	5.876677e+01
2.420000e-06	2.594216e-06	8.579260e-10	1.803233e+01	5.978068e+01
2.430000e-06	2.635053e-06	8.716950e-10	1.831619e+01	6.075994e+01
2.440000e-06	2.675696e-06	8.799098e-10	1.859870e+01	6.170509e+01
2.450000e-06	2.716142e-06	8.856221e-10	1.887983e+01	6.261674e+01
2.460000e-06	2.756312e-06	8.940190e-10	1.915906e+01	6.349556e+01
2.470000e-06	2.796366e-06	9.052558e-10	1.943747e+01	6.434224e+01
2.480000e-06	2.836297e-06	9.182276e-10	1.971503e+01	6.515754e+01
2.490000e-06	2.876085e-06	9.318013e-10	1.999160e+01	6.594226e+01
2.500000e-06	2.915764e-06	9.439968e-10	2.026740e+01	6.669721e+01
2.510000e-06	2.955287e-06	9.533912e-10	2.054213e+01	6.742324e+01
2.520000e-06	2.994653e-06	9.602791e-10	2.081576e+01	6.812121e+01
2.530000e-06	3.033849e-06	9.650221e-10	2.108821e+01	6.879198e+01
2.540000e-06	3.072819e-06	9.686293e-10	2.135909e+01	6.943643e+01
2.550000e-06	3.111562e-06	9.735092e-10	2.162839e+01	7.005545e+01
2.560000e-06	3.150027e-06	9.813219e-10	2.189576e+01	7.064991e+01
2.570000e-06	3.188219e-06	9.909686e-10	2.216123e+01	7.122067e+01
2.580000e-06	3.226260e-06	1.001376e-09	2.242566e+01	7.176858e+01
2.590000e-06	3.264137e-06	1.010799e-09	2.268894e+01	7.229449e+01
2.600000e-06	3.301793e-06	1.017039e-09	2.295068e+01	7.279922e+01
2.610000e-06	3.339178e-06	1.021706e-09	2.321055e+01	7.328355e+01
2.620000e-06	3.376318e-06	1.026185e-09	2.346870e+01	7.374827e+01
2.630000e-06	3.413175e-06	1.031293e-09	2.372490e+01	7.419411e+01
2.640000e-06	3.449854e-06	1.037815e-09	2.397985e+01	7.462181e+01
2.650000e-06	3.486379e-06	1.046755e-09	2.423373e+01	7.503204e+01
2.660000e-06	3.522586e-06	1.055424e-09	2.448541e+01	7.542548e+01
2.670000e-06	3.558595e-06	1.063484e-09	2.473571e+01	7.580275e+01
2.680000e-06	3.594472e-06	1.071507e-09	2.498508e+01	7.616445e+01
2.690000e-06	3.630208e-06	1.077039e-09	2.523349e+01	7.651116e+01
2.700000e-06	3.665809e-06	1.080268e-09	2.548095e+01	7.684343e+01
2.710000e-06	3.701264e-06	1.084337e-09	2.572740e+01	7.716177e+01
2.720000e-06	3.736482e-06	1.088882e-09	2.597220e+01	7.746667e+01
2.730000e-06	3.771344e-06	1.094360e-09	2.621452e+01	7.775860e+01
2.740000e-06	3.805738e-06	1.101262e-09	2.645359e+01	7.803800e+01
2.750000e-06	3.839657e-06	1.106414e-09	2.668936e+01	7.830529e+01
2.760000e-06	3.873150e-06	1.107905e-09	2.692217e+01	7.856088e+01
2.770000e-06	3.906191e-06	1.109619e-09	2.715184e+01	7.880514e+01
2.780000e-06	3.938876e-06	1.114422e-09	2.737903e+01	7.903845e+01
2.790000e-06	3.971195e-06	1.120923e-09	2.760368e+01	7.926114e+01
2.800000e-06	4.003200e-06	1.127272e-09	2.782614e+01	7.947356e+01
2.810000e-06	4.035061e-06	1.131192e-09	2.804761e+01	7.967604e+01
2.820000e-06	4.066733e-06	1.133330e-09	2.826776e+01	7.986888e+01
2.830000e-06	4.098148e-06	1.136357e-09	2.848612e+01	8.005240e+01
2.840000e-06	4.129355e-06	1.139452e-09	2.870304e+01	8.022689e+01
2.850000e-06	4.160381e-06	1.140396e-09	2.891871e+01	8.039265e+01
2.860000e-06	4.191110e-06	1.140550e-09	2.913230e+01	8.054996e+01
2.870000e-06	4.221463e-06	1.143360e-09	2.934328e+01	8.069911e+01
2.880000e-06	4.251486e-06	1.148662e-09	2.955197e+01	8.084038e+01
2.890000e-06	4.281227e-06	1.154670e-09	2.975870e+01	8.097404e+01
2.900000e-06	4.310649e-06	1.159390e-09	2.996321e+01	8.110037e+01
