# Temperatura_=_9.88
# Concentracion g/m^3_=_1620.0
# C_Vs_to_Am_M_A/Vsm_=_65563218390.804596
# pendiente_HvsI_1/m_=_3716.3
# ordenada_HvsI_A/m_=_1297.0
# frecuencia_Hz_=_135097.58585127382

Tiempo_(s)	Campo_(V.s)	Magnetizacion_(V.s)	Campo_(kA/m)	Magnetizacion_(A/m)
0.000000e+00	-5.514800e-06	-1.591329e-09	-3.836941e+01	-1.040357e+02
1.000000e-08	-5.514925e-06	-1.585440e-09	-3.837029e+01	-1.040258e+02
2.000000e-08	-5.514820e-06	-1.581233e-09	-3.836955e+01	-1.040180e+02
3.000000e-08	-5.514513e-06	-1.581419e-09	-3.836742e+01	-1.040119e+02
4.000000e-08	-5.513710e-06	-1.585620e-09	-3.836183e+01	-1.040072e+02
5.000000e-08	-5.512249e-06	-1.587323e-09	-3.835166e+01	-1.040035e+02
6.000000e-08	-5.510210e-06	-1.577984e-09	-3.833748e+01	-1.040006e+02
7.000000e-08	-5.507543e-06	-1.560701e-09	-3.831892e+01	-1.039979e+02
8.000000e-08	-5.504359e-06	-1.581211e-09	-3.829677e+01	-1.039950e+02
9.000000e-08	-5.500784e-06	-1.664810e-09	-3.827190e+01	-1.039915e+02
1.000000e-07	-5.496840e-06	-1.676627e-09	-3.824445e+01	-1.039869e+02
1.100000e-07	-5.492560e-06	-1.560064e-09	-3.821468e+01	-1.039807e+02
1.200000e-07	-5.488058e-06	-1.466774e-09	-3.818336e+01	-1.039724e+02
1.300000e-07	-5.483291e-06	-1.540568e-09	-3.815019e+01	-1.039615e+02
1.400000e-07	-5.477982e-06	-1.643479e-09	-3.811325e+01	-1.039474e+02
1.500000e-07	-5.472201e-06	-1.604198e-09	-3.807303e+01	-1.039298e+02
1.600000e-07	-5.466170e-06	-1.530651e-09	-3.803107e+01	-1.039081e+02
1.700000e-07	-5.459838e-06	-1.593117e-09	-3.798701e+01	-1.038819e+02
1.800000e-07	-5.452978e-06	-1.654884e-09	-3.793929e+01	-1.038506e+02
1.900000e-07	-5.445663e-06	-1.607671e-09	-3.788839e+01	-1.038140e+02
2.000000e-07	-5.438101e-06	-1.499441e-09	-3.783578e+01	-1.037716e+02
2.100000e-07	-5.430319e-06	-1.542358e-09	-3.778164e+01	-1.037231e+02
2.200000e-07	-5.422337e-06	-1.627496e-09	-3.772610e+01	-1.036680e+02
2.300000e-07	-5.414152e-06	-1.647023e-09	-3.766915e+01	-1.036063e+02
2.400000e-07	-5.405615e-06	-1.582457e-09	-3.760976e+01	-1.035375e+02
2.500000e-07	-5.396392e-06	-1.567151e-09	-3.754558e+01	-1.034616e+02
2.600000e-07	-5.386295e-06	-1.586211e-09	-3.747534e+01	-1.033783e+02
2.700000e-07	-5.375574e-06	-1.574822e-09	-3.740074e+01	-1.032876e+02
2.800000e-07	-5.364404e-06	-1.544924e-09	-3.732303e+01	-1.031894e+02
2.900000e-07	-5.352868e-06	-1.548989e-09	-3.724277e+01	-1.030836e+02
3.000000e-07	-5.340998e-06	-1.578492e-09	-3.716018e+01	-1.029704e+02
3.100000e-07	-5.328725e-06	-1.558951e-09	-3.707479e+01	-1.028498e+02
3.200000e-07	-5.316053e-06	-1.540427e-09	-3.698662e+01	-1.027218e+02
3.300000e-07	-5.302950e-06	-1.542679e-09	-3.689546e+01	-1.025867e+02
3.400000e-07	-5.289492e-06	-1.576073e-09	-3.680182e+01	-1.024447e+02
3.500000e-07	-5.275657e-06	-1.543410e-09	-3.670557e+01	-1.022959e+02
3.600000e-07	-5.261463e-06	-1.531136e-09	-3.660681e+01	-1.021407e+02
3.700000e-07	-5.246829e-06	-1.545710e-09	-3.650500e+01	-1.019793e+02
3.800000e-07	-5.231700e-06	-1.558113e-09	-3.639973e+01	-1.018120e+02
3.900000e-07	-5.215926e-06	-1.509307e-09	-3.628999e+01	-1.016393e+02
4.000000e-07	-5.199527e-06	-1.523610e-09	-3.617589e+01	-1.014614e+02
4.100000e-07	-5.182805e-06	-1.554605e-09	-3.605955e+01	-1.012787e+02
4.200000e-07	-5.165727e-06	-1.522617e-09	-3.594073e+01	-1.010916e+02
4.300000e-07	-5.148330e-06	-1.486994e-09	-3.581968e+01	-1.009005e+02
4.400000e-07	-5.130773e-06	-1.545875e-09	-3.569754e+01	-1.007058e+02
4.500000e-07	-5.112871e-06	-1.553257e-09	-3.557298e+01	-1.005078e+02
4.600000e-07	-5.094392e-06	-1.491597e-09	-3.544441e+01	-1.003070e+02
4.700000e-07	-5.075433e-06	-1.491994e-09	-3.531251e+01	-1.001036e+02
4.800000e-07	-5.056232e-06	-1.535619e-09	-3.517891e+01	-9.989808e+01
4.900000e-07	-5.036808e-06	-1.496901e-09	-3.504377e+01	-9.969071e+01
5.000000e-07	-5.017092e-06	-1.476361e-09	-3.490659e+01	-9.948181e+01
5.100000e-07	-4.997148e-06	-1.511373e-09	-3.476784e+01	-9.927166e+01
5.200000e-07	-4.976911e-06	-1.495597e-09	-3.462704e+01	-9.906051e+01
5.300000e-07	-4.956314e-06	-1.465006e-09	-3.448373e+01	-9.884858e+01
5.400000e-07	-4.935429e-06	-1.506718e-09	-3.433842e+01	-9.863607e+01
5.500000e-07	-4.914212e-06	-1.514119e-09	-3.419080e+01	-9.842314e+01
5.600000e-07	-4.892574e-06	-1.454983e-09	-3.404025e+01	-9.820991e+01
5.700000e-07	-4.870589e-06	-1.460092e-09	-3.388730e+01	-9.799648e+01
5.800000e-07	-4.848275e-06	-1.492457e-09	-3.373204e+01	-9.778289e+01
5.900000e-07	-4.825594e-06	-1.465129e-09	-3.357424e+01	-9.756917e+01
6.000000e-07	-4.802629e-06	-1.450021e-09	-3.341446e+01	-9.735532e+01
6.100000e-07	-4.779391e-06	-1.480165e-09	-3.325278e+01	-9.714128e+01
6.200000e-07	-4.755819e-06	-1.465491e-09	-3.308878e+01	-9.692698e+01
6.300000e-07	-4.731985e-06	-1.441098e-09	-3.292295e+01	-9.671232e+01
6.400000e-07	-4.707915e-06	-1.452324e-09	-3.275548e+01	-9.649716e+01
6.500000e-07	-4.683641e-06	-1.457217e-09	-3.258660e+01	-9.628134e+01
6.600000e-07	-4.659062e-06	-1.434768e-09	-3.241558e+01	-9.606470e+01
6.700000e-07	-4.633965e-06	-1.445913e-09	-3.224097e+01	-9.584702e+01
6.800000e-07	-4.608185e-06	-1.450899e-09	-3.206161e+01	-9.562809e+01
6.900000e-07	-4.581716e-06	-1.436451e-09	-3.187745e+01	-9.540768e+01
7.000000e-07	-4.554818e-06	-1.428068e-09	-3.169031e+01	-9.518555e+01
7.100000e-07	-4.527593e-06	-1.432715e-09	-3.150088e+01	-9.496146e+01
7.200000e-07	-4.500070e-06	-1.415725e-09	-3.130940e+01	-9.473515e+01
7.300000e-07	-4.472366e-06	-1.409688e-09	-3.111665e+01	-9.450638e+01
7.400000e-07	-4.444517e-06	-1.414932e-09	-3.092288e+01	-9.427488e+01
7.500000e-07	-4.416564e-06	-1.412936e-09	-3.072840e+01	-9.404043e+01
7.600000e-07	-4.388450e-06	-1.401662e-09	-3.053279e+01	-9.380278e+01
7.700000e-07	-4.359962e-06	-1.401937e-09	-3.033459e+01	-9.356171e+01
7.800000e-07	-4.331002e-06	-1.395893e-09	-3.013310e+01	-9.331701e+01
7.900000e-07	-4.301671e-06	-1.385405e-09	-2.992902e+01	-9.306849e+01
8.000000e-07	-4.272074e-06	-1.379807e-09	-2.972311e+01	-9.281596e+01
8.100000e-07	-4.242254e-06	-1.372322e-09	-2.951563e+01	-9.255928e+01
8.200000e-07	-4.212106e-06	-1.357366e-09	-2.930588e+01	-9.229830e+01
8.300000e-07	-4.181636e-06	-1.354596e-09	-2.909388e+01	-9.203290e+01
8.400000e-07	-4.150936e-06	-1.357150e-09	-2.888028e+01	-9.176300e+01
8.500000e-07	-4.119914e-06	-1.349591e-09	-2.866445e+01	-9.148853e+01
8.600000e-07	-4.088624e-06	-1.344129e-09	-2.844675e+01	-9.120944e+01
8.700000e-07	-4.057131e-06	-1.340732e-09	-2.822763e+01	-9.092570e+01
8.800000e-07	-4.025445e-06	-1.330432e-09	-2.800717e+01	-9.063731e+01
8.900000e-07	-3.993599e-06	-1.318944e-09	-2.778561e+01	-9.034429e+01
9.000000e-07	-3.961613e-06	-1.318859e-09	-2.756306e+01	-9.004668e+01
9.100000e-07	-3.929447e-06	-1.311663e-09	-2.733927e+01	-8.974453e+01
9.200000e-07	-3.896970e-06	-1.303461e-09	-2.711331e+01	-8.943792e+01
9.300000e-07	-3.864036e-06	-1.303682e-09	-2.688417e+01	-8.912694e+01
9.400000e-07	-3.830548e-06	-1.305773e-09	-2.665117e+01	-8.881169e+01
9.500000e-07	-3.796555e-06	-1.295661e-09	-2.641466e+01	-8.849228e+01
9.600000e-07	-3.762202e-06	-1.289345e-09	-2.617565e+01	-8.816883e+01
9.700000e-07	-3.727515e-06	-1.283925e-09	-2.593432e+01	-8.784146e+01
9.800000e-07	-3.692459e-06	-1.274184e-09	-2.569042e+01	-8.751031e+01
9.900000e-07	-3.657039e-06	-1.261122e-09	-2.544398e+01	-8.717551e+01
1.000000e-06	-3.621368e-06	-1.255916e-09	-2.519579e+01	-8.683717e+01
1.010000e-06	-3.585590e-06	-1.248579e-09	-2.494687e+01	-8.649543e+01
1.020000e-06	-3.549695e-06	-1.243619e-09	-2.469713e+01	-8.615040e+01
1.030000e-06	-3.513659e-06	-1.243062e-09	-2.444640e+01	-8.580219e+01
1.040000e-06	-3.477519e-06	-1.244462e-09	-2.419496e+01	-8.545090e+01
1.050000e-06	-3.441135e-06	-1.238308e-09	-2.394182e+01	-8.509661e+01
1.060000e-06	-3.404431e-06	-1.231799e-09	-2.368645e+01	-8.473939e+01
1.070000e-06	-3.367441e-06	-1.226242e-09	-2.342909e+01	-8.437929e+01
1.080000e-06	-3.330185e-06	-1.217168e-09	-2.316988e+01	-8.401636e+01
1.090000e-06	-3.292684e-06	-1.207977e-09	-2.290897e+01	-8.365060e+01
1.100000e-06	-3.254881e-06	-1.203632e-09	-2.264595e+01	-8.328202e+01
1.110000e-06	-3.216887e-06	-1.198429e-09	-2.238161e+01	-8.291059e+01
1.120000e-06	-3.178756e-06	-1.190487e-09	-2.211630e+01	-8.253627e+01
1.130000e-06	-3.140443e-06	-1.183864e-09	-2.184975e+01	-8.215900e+01
1.140000e-06	-3.101867e-06	-1.177837e-09	-2.158135e+01	-8.177869e+01
1.150000e-06	-3.063017e-06	-1.170299e-09	-2.131105e+01	-8.139524e+01
1.160000e-06	-3.023989e-06	-1.162217e-09	-2.103951e+01	-8.100853e+01
1.170000e-06	-2.984784e-06	-1.154788e-09	-2.076674e+01	-8.061842e+01
1.180000e-06	-2.945369e-06	-1.146641e-09	-2.049251e+01	-8.022475e+01
1.190000e-06	-2.905797e-06	-1.141123e-09	-2.021719e+01	-7.982733e+01
1.200000e-06	-2.866129e-06	-1.136833e-09	-1.994119e+01	-7.942599e+01
1.210000e-06	-2.826307e-06	-1.132520e-09	-1.966413e+01	-7.902051e+01
1.220000e-06	-2.786372e-06	-1.127097e-09	-1.938628e+01	-7.861068e+01
1.230000e-06	-2.746280e-06	-1.122981e-09	-1.910734e+01	-7.819626e+01
1.240000e-06	-2.706004e-06	-1.115918e-09	-1.882712e+01	-7.777702e+01
1.250000e-06	-2.665628e-06	-1.109856e-09	-1.854620e+01	-7.735271e+01
1.260000e-06	-2.625025e-06	-1.102113e-09	-1.826370e+01	-7.692306e+01
1.270000e-06	-2.584166e-06	-1.096235e-09	-1.797943e+01	-7.648783e+01
1.280000e-06	-2.543110e-06	-1.088163e-09	-1.769378e+01	-7.604674e+01
1.290000e-06	-2.501783e-06	-1.078805e-09	-1.740624e+01	-7.559952e+01
1.300000e-06	-2.460129e-06	-1.068605e-09	-1.711643e+01	-7.514589e+01
1.310000e-06	-2.418154e-06	-1.060126e-09	-1.682439e+01	-7.468557e+01
1.320000e-06	-2.375816e-06	-1.051614e-09	-1.652983e+01	-7.421829e+01
1.330000e-06	-2.333192e-06	-1.042603e-09	-1.623326e+01	-7.374376e+01
1.340000e-06	-2.290391e-06	-1.035500e-09	-1.593548e+01	-7.326169e+01
1.350000e-06	-2.247336e-06	-1.031345e-09	-1.563592e+01	-7.277179e+01
1.360000e-06	-2.204003e-06	-1.027953e-09	-1.533443e+01	-7.227377e+01
1.370000e-06	-2.160554e-06	-1.022066e-09	-1.503213e+01	-7.176732e+01
1.380000e-06	-2.116987e-06	-1.011199e-09	-1.472901e+01	-7.125216e+01
1.390000e-06	-2.073294e-06	-9.996384e-10	-1.442502e+01	-7.072796e+01
1.400000e-06	-2.029545e-06	-9.887622e-10	-1.412063e+01	-7.019441e+01
1.410000e-06	-1.985688e-06	-9.764159e-10	-1.381550e+01	-6.965117e+01
1.420000e-06	-1.941765e-06	-9.647895e-10	-1.350990e+01	-6.909791e+01
1.430000e-06	-1.897792e-06	-9.551902e-10	-1.320395e+01	-6.853427e+01
1.440000e-06	-1.853721e-06	-9.464892e-10	-1.289733e+01	-6.795988e+01
1.450000e-06	-1.809496e-06	-9.370626e-10	-1.258963e+01	-6.737435e+01
1.460000e-06	-1.765188e-06	-9.280196e-10	-1.228135e+01	-6.677726e+01
1.470000e-06	-1.720877e-06	-9.194402e-10	-1.197306e+01	-6.616819e+01
1.480000e-06	-1.676437e-06	-9.099913e-10	-1.166387e+01	-6.554667e+01
1.490000e-06	-1.631821e-06	-8.962739e-10	-1.135345e+01	-6.491223e+01
1.500000e-06	-1.587076e-06	-8.791045e-10	-1.104214e+01	-6.426434e+01
1.510000e-06	-1.542226e-06	-8.641127e-10	-1.073009e+01	-6.360247e+01
1.520000e-06	-1.497240e-06	-8.548345e-10	-1.041710e+01	-6.292603e+01
1.530000e-06	-1.452078e-06	-8.462618e-10	-1.010288e+01	-6.223442e+01
1.540000e-06	-1.406851e-06	-8.368821e-10	-9.788216e+00	-6.152699e+01
1.550000e-06	-1.361549e-06	-8.258854e-10	-9.473023e+00	-6.080308e+01
1.560000e-06	-1.316144e-06	-8.134388e-10	-9.157115e+00	-6.006196e+01
1.570000e-06	-1.270611e-06	-7.978816e-10	-8.840324e+00	-5.930289e+01
1.580000e-06	-1.224938e-06	-7.829426e-10	-8.522551e+00	-5.852509e+01
1.590000e-06	-1.179201e-06	-7.680485e-10	-8.204333e+00	-5.772775e+01
1.600000e-06	-1.133335e-06	-7.534977e-10	-7.885215e+00	-5.691003e+01
1.610000e-06	-1.087441e-06	-7.400671e-10	-7.565908e+00	-5.607106e+01
1.620000e-06	-1.041538e-06	-7.286282e-10	-7.246541e+00	-5.520995e+01
1.630000e-06	-9.954548e-07	-7.185243e-10	-6.925912e+00	-5.432578e+01
1.640000e-06	-9.492527e-07	-7.068157e-10	-6.604459e+00	-5.341761e+01
1.650000e-06	-9.030396e-07	-6.917535e-10	-6.282930e+00	-5.248451e+01
1.660000e-06	-8.567353e-07	-6.757207e-10	-5.960766e+00	-5.152552e+01
1.670000e-06	-8.103944e-07	-6.589863e-10	-5.638347e+00	-5.053968e+01
1.680000e-06	-7.640504e-07	-6.431060e-10	-5.315907e+00	-4.952604e+01
1.690000e-06	-7.176551e-07	-6.285395e-10	-4.993111e+00	-4.848367e+01
1.700000e-06	-6.712858e-07	-6.115080e-10	-4.670495e+00	-4.741162e+01
1.710000e-06	-6.248885e-07	-5.942014e-10	-4.347683e+00	-4.630901e+01
1.720000e-06	-5.784189e-07	-5.778174e-10	-4.024370e+00	-4.517496e+01
1.730000e-06	-5.318639e-07	-5.612013e-10	-3.700462e+00	-4.400864e+01
1.740000e-06	-4.852653e-07	-5.434330e-10	-3.376250e+00	-4.280927e+01
1.750000e-06	-4.387373e-07	-5.249761e-10	-3.052530e+00	-4.157611e+01
1.760000e-06	-3.921259e-07	-5.055161e-10	-2.728230e+00	-4.030851e+01
1.770000e-06	-3.454164e-07	-4.872620e-10	-2.403246e+00	-3.900586e+01
1.780000e-06	-2.987521e-07	-4.703172e-10	-2.078578e+00	-3.766765e+01
1.790000e-06	-2.520124e-07	-4.514334e-10	-1.753385e+00	-3.629344e+01
1.800000e-06	-2.052282e-07	-4.321754e-10	-1.427882e+00	-3.488290e+01
1.810000e-06	-1.584460e-07	-4.127323e-10	-1.102393e+00	-3.343579e+01
1.820000e-06	-1.116450e-07	-3.928195e-10	-7.767740e-01	-3.195199e+01
1.830000e-06	-6.485567e-08	-3.726843e-10	-4.512356e-01	-3.043146e+01
1.840000e-06	-1.814098e-08	-3.522018e-10	-1.262165e-01	-2.887433e+01
1.850000e-06	2.853961e-08	-3.334743e-10	1.985654e-01	-2.728080e+01
1.860000e-06	7.529330e-08	-3.130640e-10	5.238558e-01	-2.565124e+01
1.870000e-06	1.220826e-07	-2.912641e-10	8.493942e-01	-2.398613e+01
1.880000e-06	1.688520e-07	-2.686320e-10	1.174794e+00	-2.228610e+01
1.890000e-06	2.156774e-07	-2.434126e-10	1.500583e+00	-2.055189e+01
1.900000e-06	2.624277e-07	-2.167431e-10	1.825850e+00	-1.878440e+01
1.910000e-06	3.091007e-07	-1.885982e-10	2.150579e+00	-1.698466e+01
1.920000e-06	3.557931e-07	-1.605539e-10	2.475443e+00	-1.515384e+01
1.930000e-06	4.025088e-07	-1.343472e-10	2.800469e+00	-1.329325e+01
1.940000e-06	4.492477e-07	-1.091989e-10	3.125656e+00	-1.140431e+01
1.950000e-06	4.958711e-07	-8.309597e-11	3.450041e+00	-9.488587e+00
1.960000e-06	5.422948e-07	-5.611811e-11	3.773035e+00	-7.547773e+00
1.970000e-06	5.886315e-07	-3.088400e-11	4.095424e+00	-5.583669e+00
1.980000e-06	6.349877e-07	-5.859131e-12	4.417949e+00	-3.598195e+00
1.990000e-06	6.813405e-07	2.338425e-11	4.740450e+00	-1.593371e+00
2.000000e-06	7.275647e-07	5.585989e-11	5.062057e+00	4.286833e-01
2.010000e-06	7.736935e-07	8.799411e-11	5.383000e+00	2.465761e+00
2.020000e-06	8.198908e-07	1.169858e-10	5.704419e+00	4.515576e+00
2.030000e-06	8.660306e-07	1.434646e-10	6.025438e+00	6.575777e+00
2.040000e-06	9.121230e-07	1.696891e-10	6.346128e+00	8.643950e+00
2.050000e-06	9.581879e-07	1.944884e-10	6.666626e+00	1.071764e+01
2.060000e-06	1.004128e-06	2.223975e-10	6.986257e+00	1.279435e+01
2.070000e-06	1.050008e-06	2.544406e-10	7.305471e+00	1.487157e+01
2.080000e-06	1.095867e-06	2.896344e-10	7.624533e+00	1.694677e+01
2.090000e-06	1.141577e-06	3.247054e-10	7.942564e+00	1.901743e+01
2.100000e-06	1.187124e-06	3.567759e-10	8.259459e+00	2.108103e+01
2.110000e-06	1.232634e-06	3.852059e-10	8.576091e+00	2.313509e+01
2.120000e-06	1.278131e-06	4.111790e-10	8.892644e+00	2.517716e+01
2.130000e-06	1.323588e-06	4.370598e-10	9.208912e+00	2.720484e+01
2.140000e-06	1.368993e-06	4.624742e-10	9.524819e+00	2.921578e+01
2.150000e-06	1.414287e-06	4.876481e-10	9.839948e+00	3.120774e+01
2.160000e-06	1.459399e-06	5.159598e-10	1.015382e+01	3.317851e+01
2.170000e-06	1.504380e-06	5.460305e-10	1.046677e+01	3.512601e+01
2.180000e-06	1.549221e-06	5.737683e-10	1.077876e+01	3.704824e+01
2.190000e-06	1.593919e-06	6.002919e-10	1.108975e+01	3.894333e+01
2.200000e-06	1.638565e-06	6.267790e-10	1.140037e+01	4.080950e+01
2.210000e-06	1.683127e-06	6.537984e-10	1.171042e+01	4.264512e+01
2.220000e-06	1.727532e-06	6.790103e-10	1.201937e+01	4.444867e+01
2.230000e-06	1.771804e-06	7.023772e-10	1.232739e+01	4.621878e+01
2.240000e-06	1.815985e-06	7.246118e-10	1.263478e+01	4.795421e+01
2.250000e-06	1.860012e-06	7.465116e-10	1.294110e+01	4.965386e+01
2.260000e-06	1.903929e-06	7.672051e-10	1.324665e+01	5.131677e+01
2.270000e-06	1.947801e-06	7.874651e-10	1.355189e+01	5.294214e+01
2.280000e-06	1.991634e-06	8.076919e-10	1.385686e+01	5.452930e+01
2.290000e-06	2.035428e-06	8.267742e-10	1.416156e+01	5.607773e+01
2.300000e-06	2.079171e-06	8.449374e-10	1.446591e+01	5.758705e+01
2.310000e-06	2.122858e-06	8.640912e-10	1.476986e+01	5.905700e+01
2.320000e-06	2.166468e-06	8.833585e-10	1.507328e+01	6.048749e+01
2.330000e-06	2.209975e-06	9.033559e-10	1.537598e+01	6.187853e+01
2.340000e-06	2.253271e-06	9.221972e-10	1.567721e+01	6.323027e+01
2.350000e-06	2.296358e-06	9.392985e-10	1.597699e+01	6.454296e+01
2.360000e-06	2.339300e-06	9.566670e-10	1.627576e+01	6.581698e+01
2.370000e-06	2.382030e-06	9.728913e-10	1.657305e+01	6.705281e+01
2.380000e-06	2.424407e-06	9.871743e-10	1.686789e+01	6.825102e+01
2.390000e-06	2.466395e-06	1.002034e-09	1.716003e+01	6.941227e+01
2.400000e-06	2.507991e-06	1.018626e-09	1.744944e+01	7.053730e+01
2.410000e-06	2.549222e-06	1.035169e-09	1.773630e+01	7.162692e+01
2.420000e-06	2.590224e-06	1.050411e-09	1.802158e+01	7.268200e+01
2.430000e-06	2.631042e-06	1.062648e-09	1.830556e+01	7.370345e+01
2.440000e-06	2.671573e-06	1.073450e-09	1.858756e+01	7.469226e+01
2.450000e-06	2.711842e-06	1.084736e-09	1.886774e+01	7.564941e+01
2.460000e-06	2.751959e-06	1.095205e-09	1.914685e+01	7.657594e+01
2.470000e-06	2.791917e-06	1.105297e-09	1.942486e+01	7.747287e+01
2.480000e-06	2.831826e-06	1.116316e-09	1.970253e+01	7.834128e+01
2.490000e-06	2.871659e-06	1.128060e-09	1.997967e+01	7.918219e+01
2.500000e-06	2.911269e-06	1.140428e-09	2.025525e+01	7.999667e+01
2.510000e-06	2.950742e-06	1.151720e-09	2.052989e+01	8.078573e+01
2.520000e-06	2.990116e-06	1.162643e-09	2.080384e+01	8.155040e+01
2.530000e-06	3.029301e-06	1.174092e-09	2.107647e+01	8.229164e+01
2.540000e-06	3.068212e-06	1.184982e-09	2.134719e+01	8.301043e+01
2.550000e-06	3.106841e-06	1.194475e-09	2.161595e+01	8.370767e+01
2.560000e-06	3.145272e-06	1.203563e-09	2.188334e+01	8.438424e+01
2.570000e-06	3.183486e-06	1.211821e-09	2.214922e+01	8.504099e+01
2.580000e-06	3.221532e-06	1.220307e-09	2.241392e+01	8.567870e+01
2.590000e-06	3.259379e-06	1.229387e-09	2.267724e+01	8.629813e+01
2.600000e-06	3.296984e-06	1.238088e-09	2.293888e+01	8.689996e+01
2.610000e-06	3.334408e-06	1.246572e-09	2.319926e+01	8.748485e+01
2.620000e-06	3.371533e-06	1.255023e-09	2.345756e+01	8.805340e+01
2.630000e-06	3.408267e-06	1.263592e-09	2.371314e+01	8.860618e+01
2.640000e-06	3.444754e-06	1.270416e-09	2.396699e+01	8.914368e+01
2.650000e-06	3.481071e-06	1.278285e-09	2.421967e+01	8.966638e+01
2.660000e-06	3.517170e-06	1.286782e-09	2.447083e+01	9.017470e+01
2.670000e-06	3.553124e-06	1.294627e-09	2.472098e+01	9.066903e+01
2.680000e-06	3.588970e-06	1.301805e-09	2.497039e+01	9.114973e+01
2.690000e-06	3.624689e-06	1.308124e-09	2.521890e+01	9.161710e+01
2.700000e-06	3.660266e-06	1.316108e-09	2.546643e+01	9.207145e+01
2.710000e-06	3.695627e-06	1.325656e-09	2.571245e+01	9.251303e+01
2.720000e-06	3.730738e-06	1.336501e-09	2.595674e+01	9.294210e+01
2.730000e-06	3.765466e-06	1.345302e-09	2.619836e+01	9.335887e+01
2.740000e-06	3.799732e-06	1.351233e-09	2.643677e+01	9.376357e+01
2.750000e-06	3.833594e-06	1.354099e-09	2.667237e+01	9.415640e+01
2.760000e-06	3.866995e-06	1.355029e-09	2.690476e+01	9.453756e+01
2.770000e-06	3.899933e-06	1.355178e-09	2.713392e+01	9.490724e+01
2.780000e-06	3.932487e-06	1.358245e-09	2.736042e+01	9.526565e+01
2.790000e-06	3.964764e-06	1.367144e-09	2.758498e+01	9.561298e+01
2.800000e-06	3.996862e-06	1.380147e-09	2.780831e+01	9.594946e+01
2.810000e-06	4.028809e-06	1.389932e-09	2.803058e+01	9.627529e+01
2.820000e-06	4.060544e-06	1.394358e-09	2.825138e+01	9.659070e+01
2.830000e-06	4.092078e-06	1.397687e-09	2.847078e+01	9.689595e+01
2.840000e-06	4.123372e-06	1.399902e-09	2.868851e+01	9.719128e+01
2.850000e-06	4.154260e-06	1.401628e-09	2.890341e+01	9.747697e+01
2.860000e-06	4.184759e-06	1.404377e-09	2.911561e+01	9.775330e+01
2.870000e-06	4.215072e-06	1.409873e-09	2.932651e+01	9.802058e+01
2.880000e-06	4.245198e-06	1.417488e-09	2.953611e+01	9.827911e+01
2.890000e-06	4.275012e-06	1.424181e-09	2.974355e+01	9.852924e+01
2.900000e-06	4.304514e-06	1.428377e-09	2.994881e+01	9.877130e+01
