# Temperatura_=_14.8
# Concentracion g/m^3_=_1620.0
# C_Vs_to_Am_M_A/Vsm_=_65563218390.804596
# pendiente_HvsI_1/m_=_3716.3
# ordenada_HvsI_A/m_=_1297.0
# frecuencia_Hz_=_135097.15510931634

Tiempo_(s)	Campo_(V.s)	Magnetizacion_(V.s)	Campo_(kA/m)	Magnetizacion_(A/m)
0.000000e+00	-5.532738e-06	-1.655308e-09	-3.837692e+01	-1.088760e+02
1.000000e-08	-5.532959e-06	-1.653560e-09	-3.837845e+01	-1.088733e+02
2.000000e-08	-5.532892e-06	-1.655173e-09	-3.837799e+01	-1.088708e+02
3.000000e-08	-5.532488e-06	-1.657622e-09	-3.837518e+01	-1.088680e+02
4.000000e-08	-5.531602e-06	-1.659363e-09	-3.836904e+01	-1.088645e+02
5.000000e-08	-5.530201e-06	-1.656054e-09	-3.835932e+01	-1.088598e+02
6.000000e-08	-5.528256e-06	-1.643861e-09	-3.834583e+01	-1.088534e+02
7.000000e-08	-5.525641e-06	-1.633089e-09	-3.832769e+01	-1.088447e+02
8.000000e-08	-5.522442e-06	-1.655483e-09	-3.830550e+01	-1.088332e+02
9.000000e-08	-5.518801e-06	-1.699489e-09	-3.828025e+01	-1.088184e+02
1.000000e-07	-5.514806e-06	-1.707437e-09	-3.825254e+01	-1.087997e+02
1.100000e-07	-5.510520e-06	-1.661907e-09	-3.822280e+01	-1.087766e+02
1.200000e-07	-5.506069e-06	-1.585889e-09	-3.819193e+01	-1.087486e+02
1.300000e-07	-5.501376e-06	-1.597857e-09	-3.815938e+01	-1.087151e+02
1.400000e-07	-5.496193e-06	-1.650029e-09	-3.812343e+01	-1.086756e+02
1.500000e-07	-5.490563e-06	-1.667009e-09	-3.808438e+01	-1.086297e+02
1.600000e-07	-5.484581e-06	-1.626710e-09	-3.804289e+01	-1.085769e+02
1.700000e-07	-5.478203e-06	-1.600489e-09	-3.799864e+01	-1.085169e+02
1.800000e-07	-5.471386e-06	-1.657945e-09	-3.795136e+01	-1.084492e+02
1.900000e-07	-5.464105e-06	-1.663854e-09	-3.790085e+01	-1.083735e+02
2.000000e-07	-5.456534e-06	-1.627731e-09	-3.784834e+01	-1.082896e+02
2.100000e-07	-5.448782e-06	-1.598399e-09	-3.779457e+01	-1.081973e+02
2.200000e-07	-5.440759e-06	-1.651928e-09	-3.773892e+01	-1.080963e+02
2.300000e-07	-5.432483e-06	-1.673901e-09	-3.768151e+01	-1.079866e+02
2.400000e-07	-5.423832e-06	-1.645457e-09	-3.762151e+01	-1.078680e+02
2.500000e-07	-5.414452e-06	-1.609767e-09	-3.755645e+01	-1.077407e+02
2.600000e-07	-5.404268e-06	-1.629589e-09	-3.748581e+01	-1.076045e+02
2.700000e-07	-5.393488e-06	-1.643305e-09	-3.741103e+01	-1.074597e+02
2.800000e-07	-5.382257e-06	-1.629435e-09	-3.733313e+01	-1.073064e+02
2.900000e-07	-5.370568e-06	-1.607203e-09	-3.725205e+01	-1.071448e+02
3.000000e-07	-5.358544e-06	-1.613515e-09	-3.716865e+01	-1.069751e+02
3.100000e-07	-5.346227e-06	-1.622090e-09	-3.708321e+01	-1.067977e+02
3.200000e-07	-5.333500e-06	-1.605797e-09	-3.699493e+01	-1.066129e+02
3.300000e-07	-5.320390e-06	-1.597841e-09	-3.690400e+01	-1.064211e+02
3.400000e-07	-5.306908e-06	-1.606883e-09	-3.681049e+01	-1.062227e+02
3.500000e-07	-5.292944e-06	-1.625977e-09	-3.671363e+01	-1.060182e+02
3.600000e-07	-5.278532e-06	-1.615733e-09	-3.661366e+01	-1.058080e+02
3.700000e-07	-5.263679e-06	-1.602270e-09	-3.651063e+01	-1.055927e+02
3.800000e-07	-5.248286e-06	-1.591846e-09	-3.640386e+01	-1.053728e+02
3.900000e-07	-5.232315e-06	-1.591249e-09	-3.629308e+01	-1.051488e+02
4.000000e-07	-5.215817e-06	-1.583290e-09	-3.617865e+01	-1.049212e+02
4.100000e-07	-5.199033e-06	-1.594959e-09	-3.606223e+01	-1.046905e+02
4.200000e-07	-5.181991e-06	-1.600699e-09	-3.594402e+01	-1.044574e+02
4.300000e-07	-5.164594e-06	-1.594614e-09	-3.582335e+01	-1.042222e+02
4.400000e-07	-5.146942e-06	-1.580335e-09	-3.570091e+01	-1.039855e+02
4.500000e-07	-5.128892e-06	-1.593151e-09	-3.557571e+01	-1.037477e+02
4.600000e-07	-5.110306e-06	-1.576382e-09	-3.544679e+01	-1.035094e+02
4.700000e-07	-5.091365e-06	-1.550462e-09	-3.531541e+01	-1.032708e+02
4.800000e-07	-5.072125e-06	-1.552666e-09	-3.518195e+01	-1.030324e+02
4.900000e-07	-5.052599e-06	-1.573286e-09	-3.504651e+01	-1.027945e+02
5.000000e-07	-5.032858e-06	-1.553608e-09	-3.490958e+01	-1.025574e+02
5.100000e-07	-5.012926e-06	-1.545069e-09	-3.477133e+01	-1.023213e+02
5.200000e-07	-4.992751e-06	-1.555947e-09	-3.463139e+01	-1.020865e+02
5.300000e-07	-4.972135e-06	-1.546717e-09	-3.448839e+01	-1.018531e+02
5.400000e-07	-4.951119e-06	-1.525620e-09	-3.434261e+01	-1.016211e+02
5.500000e-07	-4.929850e-06	-1.539470e-09	-3.419508e+01	-1.013907e+02
5.600000e-07	-4.908236e-06	-1.539975e-09	-3.404517e+01	-1.011618e+02
5.700000e-07	-4.886250e-06	-1.517025e-09	-3.389266e+01	-1.009344e+02
5.800000e-07	-4.863886e-06	-1.518522e-09	-3.373754e+01	-1.007084e+02
5.900000e-07	-4.841220e-06	-1.533352e-09	-3.358032e+01	-1.004836e+02
6.000000e-07	-4.818209e-06	-1.517026e-09	-3.342071e+01	-1.002598e+02
6.100000e-07	-4.794802e-06	-1.502006e-09	-3.325835e+01	-1.000369e+02
6.200000e-07	-4.771185e-06	-1.510371e-09	-3.309453e+01	-9.981457e+01
6.300000e-07	-4.747397e-06	-1.502586e-09	-3.292953e+01	-9.959247e+01
6.400000e-07	-4.723389e-06	-1.492002e-09	-3.276300e+01	-9.937029e+01
6.500000e-07	-4.699067e-06	-1.497938e-09	-3.259430e+01	-9.914767e+01
6.600000e-07	-4.674293e-06	-1.503421e-09	-3.242246e+01	-9.892424e+01
6.700000e-07	-4.648985e-06	-1.496001e-09	-3.224691e+01	-9.869960e+01
6.800000e-07	-4.623145e-06	-1.495621e-09	-3.206767e+01	-9.847334e+01
6.900000e-07	-4.596759e-06	-1.488089e-09	-3.188465e+01	-9.824506e+01
7.000000e-07	-4.569808e-06	-1.474754e-09	-3.169771e+01	-9.801432e+01
7.100000e-07	-4.542500e-06	-1.464865e-09	-3.150829e+01	-9.778073e+01
7.200000e-07	-4.515006e-06	-1.466092e-09	-3.131759e+01	-9.754387e+01
7.300000e-07	-4.487292e-06	-1.464536e-09	-3.112536e+01	-9.730335e+01
7.400000e-07	-4.459368e-06	-1.468793e-09	-3.093166e+01	-9.705880e+01
7.500000e-07	-4.431283e-06	-1.469213e-09	-3.073686e+01	-9.680985e+01
7.600000e-07	-4.402910e-06	-1.465285e-09	-3.054005e+01	-9.655618e+01
7.700000e-07	-4.374071e-06	-1.453560e-09	-3.034002e+01	-9.629748e+01
7.800000e-07	-4.344889e-06	-1.443918e-09	-3.013760e+01	-9.603348e+01
7.900000e-07	-4.315473e-06	-1.431337e-09	-2.993356e+01	-9.576393e+01
8.000000e-07	-4.285810e-06	-1.427161e-09	-2.972781e+01	-9.548864e+01
8.100000e-07	-4.255919e-06	-1.423328e-09	-2.952047e+01	-9.520744e+01
8.200000e-07	-4.225789e-06	-1.418104e-09	-2.931148e+01	-9.492019e+01
8.300000e-07	-4.195276e-06	-1.410296e-09	-2.909984e+01	-9.462681e+01
8.400000e-07	-4.164441e-06	-1.408177e-09	-2.888595e+01	-9.432724e+01
8.500000e-07	-4.133341e-06	-1.404838e-09	-2.867023e+01	-9.402147e+01
8.600000e-07	-4.101965e-06	-1.394529e-09	-2.845260e+01	-9.370954e+01
8.700000e-07	-4.070432e-06	-1.382485e-09	-2.823388e+01	-9.339149e+01
8.800000e-07	-4.038785e-06	-1.374181e-09	-2.801436e+01	-9.306743e+01
8.900000e-07	-4.006986e-06	-1.367222e-09	-2.779379e+01	-9.273748e+01
9.000000e-07	-3.974913e-06	-1.362486e-09	-2.757133e+01	-9.240181e+01
9.100000e-07	-3.942560e-06	-1.361020e-09	-2.734691e+01	-9.206059e+01
9.200000e-07	-3.909834e-06	-1.356331e-09	-2.711991e+01	-9.171404e+01
9.300000e-07	-3.876681e-06	-1.349963e-09	-2.688995e+01	-9.136238e+01
9.400000e-07	-3.843042e-06	-1.345879e-09	-2.665662e+01	-9.100586e+01
9.500000e-07	-3.808872e-06	-1.341465e-09	-2.641961e+01	-9.064474e+01
9.600000e-07	-3.774239e-06	-1.332368e-09	-2.617938e+01	-9.027928e+01
9.700000e-07	-3.739263e-06	-1.327295e-09	-2.593677e+01	-8.990974e+01
9.800000e-07	-3.703983e-06	-1.323375e-09	-2.569206e+01	-8.953641e+01
9.900000e-07	-3.668458e-06	-1.316645e-09	-2.544565e+01	-8.915953e+01
1.000000e-06	-3.632762e-06	-1.306979e-09	-2.519805e+01	-8.877936e+01
1.010000e-06	-3.596915e-06	-1.303516e-09	-2.494940e+01	-8.839615e+01
1.020000e-06	-3.560960e-06	-1.297188e-09	-2.470001e+01	-8.801013e+01
1.030000e-06	-3.524850e-06	-1.290292e-09	-2.444953e+01	-8.762148e+01
1.040000e-06	-3.488536e-06	-1.285871e-09	-2.419765e+01	-8.723041e+01
1.050000e-06	-3.451921e-06	-1.283654e-09	-2.394367e+01	-8.683707e+01
1.060000e-06	-3.415019e-06	-1.275696e-09	-2.368771e+01	-8.644157e+01
1.070000e-06	-3.377878e-06	-1.269169e-09	-2.343009e+01	-8.604403e+01
1.080000e-06	-3.340496e-06	-1.264044e-09	-2.317080e+01	-8.564450e+01
1.090000e-06	-3.302880e-06	-1.256486e-09	-2.290988e+01	-8.524302e+01
1.100000e-06	-3.264983e-06	-1.245208e-09	-2.264701e+01	-8.483957e+01
1.110000e-06	-3.226842e-06	-1.237531e-09	-2.238245e+01	-8.443412e+01
1.120000e-06	-3.188530e-06	-1.226756e-09	-2.211671e+01	-8.402660e+01
1.130000e-06	-3.150024e-06	-1.215378e-09	-2.184962e+01	-8.361688e+01
1.140000e-06	-3.111336e-06	-1.207096e-09	-2.158127e+01	-8.320482e+01
1.150000e-06	-3.072499e-06	-1.203783e-09	-2.131188e+01	-8.279024e+01
1.160000e-06	-3.033509e-06	-1.201425e-09	-2.104143e+01	-8.237293e+01
1.170000e-06	-2.994271e-06	-1.195535e-09	-2.076926e+01	-8.195263e+01
1.180000e-06	-2.954825e-06	-1.189385e-09	-2.049565e+01	-8.152908e+01
1.190000e-06	-2.915240e-06	-1.178308e-09	-2.022108e+01	-8.110198e+01
1.200000e-06	-2.875474e-06	-1.166404e-09	-1.994525e+01	-8.067100e+01
1.210000e-06	-2.835532e-06	-1.156037e-09	-1.966819e+01	-8.023579e+01
1.220000e-06	-2.795425e-06	-1.147733e-09	-1.939000e+01	-7.979600e+01
1.230000e-06	-2.755194e-06	-1.142001e-09	-1.911095e+01	-7.935124e+01
1.240000e-06	-2.714861e-06	-1.142319e-09	-1.883119e+01	-7.890113e+01
1.250000e-06	-2.674377e-06	-1.140459e-09	-1.855037e+01	-7.844526e+01
1.260000e-06	-2.633626e-06	-1.133935e-09	-1.826771e+01	-7.798322e+01
1.270000e-06	-2.592576e-06	-1.121852e-09	-1.798297e+01	-7.751461e+01
1.280000e-06	-2.551128e-06	-1.107690e-09	-1.769547e+01	-7.703901e+01
1.290000e-06	-2.509220e-06	-1.093362e-09	-1.740479e+01	-7.655602e+01
1.300000e-06	-2.466977e-06	-1.080682e-09	-1.711177e+01	-7.606522e+01
1.310000e-06	-2.424505e-06	-1.071918e-09	-1.681718e+01	-7.556621e+01
1.320000e-06	-2.381813e-06	-1.069003e-09	-1.652105e+01	-7.505860e+01
1.330000e-06	-2.338911e-06	-1.066656e-09	-1.622347e+01	-7.454201e+01
1.340000e-06	-2.295820e-06	-1.061098e-09	-1.592457e+01	-7.401605e+01
1.350000e-06	-2.252473e-06	-1.054168e-09	-1.562391e+01	-7.348037e+01
1.360000e-06	-2.208980e-06	-1.047992e-09	-1.532222e+01	-7.293460e+01
1.370000e-06	-2.165383e-06	-1.038417e-09	-1.501982e+01	-7.237840e+01
1.380000e-06	-2.121635e-06	-1.024925e-09	-1.471637e+01	-7.181143e+01
1.390000e-06	-2.077835e-06	-1.009460e-09	-1.441255e+01	-7.123337e+01
1.400000e-06	-2.034004e-06	-9.980168e-10	-1.410853e+01	-7.064388e+01
1.410000e-06	-1.990026e-06	-9.916909e-10	-1.380348e+01	-7.004266e+01
1.420000e-06	-1.945949e-06	-9.843690e-10	-1.349775e+01	-6.942938e+01
1.430000e-06	-1.901889e-06	-9.764081e-10	-1.319214e+01	-6.880374e+01
1.440000e-06	-1.857777e-06	-9.682479e-10	-1.288616e+01	-6.816543e+01
1.450000e-06	-1.813518e-06	-9.547645e-10	-1.257917e+01	-6.751411e+01
1.460000e-06	-1.769126e-06	-9.375644e-10	-1.227125e+01	-6.684946e+01
1.470000e-06	-1.724641e-06	-9.214086e-10	-1.196269e+01	-6.617115e+01
1.480000e-06	-1.679968e-06	-9.067005e-10	-1.165282e+01	-6.547882e+01
1.490000e-06	-1.635124e-06	-8.932049e-10	-1.134176e+01	-6.477210e+01
1.500000e-06	-1.590149e-06	-8.780550e-10	-1.102980e+01	-6.405061e+01
1.510000e-06	-1.545026e-06	-8.629300e-10	-1.071681e+01	-6.331392e+01
1.520000e-06	-1.499769e-06	-8.496875e-10	-1.040290e+01	-6.256160e+01
1.530000e-06	-1.454440e-06	-8.391852e-10	-1.008848e+01	-6.179318e+01
1.540000e-06	-1.409010e-06	-8.286211e-10	-9.773362e+00	-6.100816e+01
1.550000e-06	-1.363431e-06	-8.161274e-10	-9.457212e+00	-6.020602e+01
1.560000e-06	-1.317817e-06	-8.018925e-10	-9.140817e+00	-5.938617e+01
1.570000e-06	-1.272132e-06	-7.879283e-10	-8.823934e+00	-5.854803e+01
1.580000e-06	-1.226313e-06	-7.720242e-10	-8.506115e+00	-5.769094e+01
1.590000e-06	-1.180429e-06	-7.554363e-10	-8.187849e+00	-5.681425e+01
1.600000e-06	-1.134518e-06	-7.418529e-10	-7.869398e+00	-5.591722e+01
1.610000e-06	-1.088545e-06	-7.311531e-10	-7.550509e+00	-5.499913e+01
1.620000e-06	-1.042451e-06	-7.211813e-10	-7.230786e+00	-5.405919e+01
1.630000e-06	-9.962190e-07	-7.130100e-10	-6.910107e+00	-5.309660e+01
1.640000e-06	-9.498718e-07	-7.033125e-10	-6.588628e+00	-5.211051e+01
1.650000e-06	-9.034920e-07	-6.886293e-10	-6.266922e+00	-5.110007e+01
1.660000e-06	-8.571002e-07	-6.707968e-10	-5.945133e+00	-5.006440e+01
1.670000e-06	-8.106284e-07	-6.515661e-10	-5.622789e+00	-4.900261e+01
1.680000e-06	-7.641428e-07	-6.318837e-10	-5.300349e+00	-4.791380e+01
1.690000e-06	-7.176508e-07	-6.141128e-10	-4.977866e+00	-4.679706e+01
1.700000e-06	-6.710945e-07	-5.971881e-10	-4.654935e+00	-4.565149e+01
1.710000e-06	-6.244889e-07	-5.818127e-10	-4.331664e+00	-4.447621e+01
1.720000e-06	-5.778217e-07	-5.662424e-10	-4.007964e+00	-4.327035e+01
1.730000e-06	-5.310906e-07	-5.492616e-10	-3.683822e+00	-4.203307e+01
1.740000e-06	-4.843307e-07	-5.285883e-10	-3.359479e+00	-4.076356e+01
1.750000e-06	-4.375710e-07	-5.044347e-10	-3.035139e+00	-3.946107e+01
1.760000e-06	-3.908198e-07	-4.819987e-10	-2.710856e+00	-3.812489e+01
1.770000e-06	-3.440295e-07	-4.603689e-10	-2.386304e+00	-3.675438e+01
1.780000e-06	-2.971777e-07	-4.444474e-10	-2.061324e+00	-3.534895e+01
1.790000e-06	-2.502849e-07	-4.290609e-10	-1.736060e+00	-3.390813e+01
1.800000e-06	-2.033972e-07	-4.106483e-10	-1.410831e+00	-3.243150e+01
1.810000e-06	-1.564929e-07	-3.866035e-10	-1.085487e+00	-3.091875e+01
1.820000e-06	-1.095793e-07	-3.600626e-10	-7.600788e-01	-2.936968e+01
1.830000e-06	-6.272336e-08	-3.353454e-10	-4.350702e-01	-2.778420e+01
1.840000e-06	-1.581599e-08	-3.136325e-10	-1.097050e-01	-2.616233e+01
1.850000e-06	3.112861e-08	-2.963159e-10	2.159184e-01	-2.450423e+01
1.860000e-06	7.801005e-08	-2.785637e-10	5.411038e-01	-2.281018e+01
1.870000e-06	1.249150e-07	-2.582006e-10	8.664525e-01	-2.108059e+01
1.880000e-06	1.718950e-07	-2.320400e-10	1.192321e+00	-1.931602e+01
1.890000e-06	2.188592e-07	-1.992836e-10	1.518081e+00	-1.751718e+01
1.900000e-06	2.656992e-07	-1.663718e-10	1.842978e+00	-1.568491e+01
1.910000e-06	3.124890e-07	-1.357654e-10	2.167528e+00	-1.382020e+01
1.920000e-06	3.593822e-07	-1.098629e-10	2.492795e+00	-1.192418e+01
1.930000e-06	4.062298e-07	-8.665450e-11	2.817745e+00	-9.998141e+00
1.940000e-06	4.530175e-07	-6.208554e-11	3.142280e+00	-8.043508e+00
1.950000e-06	4.998078e-07	-3.768219e-11	3.466834e+00	-6.061845e+00
1.960000e-06	5.465422e-07	-8.397962e-12	3.790999e+00	-4.054854e+00
1.970000e-06	5.932648e-07	2.180367e-11	4.115083e+00	-2.024369e+00
1.980000e-06	6.399351e-07	5.072385e-11	4.438803e+00	2.765324e-02
1.990000e-06	6.865282e-07	8.248601e-11	4.761989e+00	2.099138e+00
2.000000e-06	7.331084e-07	1.177702e-10	5.085085e+00	4.187900e+00
2.010000e-06	7.795958e-07	1.524738e-10	5.407537e+00	6.291656e+00
2.020000e-06	8.260028e-07	1.836357e-10	5.729431e+00	8.408031e+00
2.030000e-06	8.724035e-07	2.117783e-10	6.051282e+00	1.053457e+01
2.040000e-06	9.186236e-07	2.395314e-10	6.371880e+00	1.266875e+01
2.050000e-06	9.647524e-07	2.672093e-10	6.691845e+00	1.480799e+01
2.060000e-06	1.010858e-06	2.950095e-10	7.011649e+00	1.694967e+01
2.070000e-06	1.056901e-06	3.254324e-10	7.331019e+00	1.909114e+01
2.080000e-06	1.102909e-06	3.595396e-10	7.650142e+00	2.122971e+01
2.090000e-06	1.148743e-06	3.951308e-10	7.968068e+00	2.336273e+01
2.100000e-06	1.194473e-06	4.296470e-10	8.285265e+00	2.548751e+01
2.110000e-06	1.240204e-06	4.600947e-10	8.602472e+00	2.760142e+01
2.120000e-06	1.285816e-06	4.867318e-10	8.918852e+00	2.970185e+01
2.130000e-06	1.331307e-06	5.120499e-10	9.234389e+00	3.178623e+01
2.140000e-06	1.376714e-06	5.368204e-10	9.549348e+00	3.385207e+01
2.150000e-06	1.422005e-06	5.628302e-10	9.863503e+00	3.589694e+01
2.160000e-06	1.467274e-06	5.910988e-10	1.017750e+01	3.791851e+01
2.170000e-06	1.512499e-06	6.198588e-10	1.049119e+01	3.991454e+01
2.180000e-06	1.557550e-06	6.465299e-10	1.080369e+01	4.188290e+01
2.190000e-06	1.602490e-06	6.736160e-10	1.111540e+01	4.382156e+01
2.200000e-06	1.647306e-06	7.005972e-10	1.142627e+01	4.572865e+01
2.210000e-06	1.691993e-06	7.249029e-10	1.173623e+01	4.760241e+01
2.220000e-06	1.736575e-06	7.487146e-10	1.204546e+01	4.944122e+01
2.230000e-06	1.781010e-06	7.731683e-10	1.235368e+01	5.124362e+01
2.240000e-06	1.825322e-06	7.952750e-10	1.266104e+01	5.300830e+01
2.250000e-06	1.869503e-06	8.161468e-10	1.296750e+01	5.473410e+01
2.260000e-06	1.913521e-06	8.384088e-10	1.327282e+01	5.642001e+01
2.270000e-06	1.957401e-06	8.596809e-10	1.357718e+01	5.806519e+01
2.280000e-06	2.001266e-06	8.788797e-10	1.388145e+01	5.966897e+01
2.290000e-06	2.045120e-06	8.974760e-10	1.418563e+01	6.123082e+01
2.300000e-06	2.088933e-06	9.171330e-10	1.448953e+01	6.275037e+01
2.310000e-06	2.132675e-06	9.385000e-10	1.479294e+01	6.422742e+01
2.320000e-06	2.176352e-06	9.592618e-10	1.509591e+01	6.566189e+01
2.330000e-06	2.219961e-06	9.790252e-10	1.539839e+01	6.705388e+01
2.340000e-06	2.263464e-06	9.976287e-10	1.570014e+01	6.840359e+01
2.350000e-06	2.306798e-06	1.014534e-09	1.600072e+01	6.971140e+01
2.360000e-06	2.349837e-06	1.030179e-09	1.629925e+01	7.097777e+01
2.370000e-06	2.392533e-06	1.045333e-09	1.659541e+01	7.220330e+01
2.380000e-06	2.434950e-06	1.059711e-09	1.688963e+01	7.338869e+01
2.390000e-06	2.477115e-06	1.074272e-09	1.718210e+01	7.453475e+01
2.400000e-06	2.518846e-06	1.089839e-09	1.747155e+01	7.564236e+01
2.410000e-06	2.560117e-06	1.104912e-09	1.775783e+01	7.671250e+01
2.420000e-06	2.601170e-06	1.119263e-09	1.804258e+01	7.774620e+01
2.430000e-06	2.642056e-06	1.132299e-09	1.832618e+01	7.874457e+01
2.440000e-06	2.682746e-06	1.143330e-09	1.860842e+01	7.970875e+01
2.450000e-06	2.723181e-06	1.153819e-09	1.888890e+01	8.063992e+01
2.460000e-06	2.763375e-06	1.164003e-09	1.916769e+01	8.153930e+01
2.470000e-06	2.803420e-06	1.173439e-09	1.944546e+01	8.240811e+01
2.480000e-06	2.843352e-06	1.183905e-09	1.972244e+01	8.324760e+01
2.490000e-06	2.883228e-06	1.195787e-09	1.999903e+01	8.405901e+01
2.500000e-06	2.922949e-06	1.209614e-09	2.027455e+01	8.484356e+01
2.510000e-06	2.962499e-06	1.222412e-09	2.054889e+01	8.560247e+01
2.520000e-06	3.001936e-06	1.235537e-09	2.082243e+01	8.633693e+01
2.530000e-06	3.041148e-06	1.246575e-09	2.109442e+01	8.704810e+01
2.540000e-06	3.080195e-06	1.251346e-09	2.136526e+01	8.773709e+01
2.550000e-06	3.119063e-06	1.257018e-09	2.163486e+01	8.840499e+01
2.560000e-06	3.157556e-06	1.266300e-09	2.190186e+01	8.905283e+01
2.570000e-06	3.195771e-06	1.279317e-09	2.216693e+01	8.968158e+01
2.580000e-06	3.233830e-06	1.290739e-09	2.243092e+01	9.029218e+01
2.590000e-06	3.271736e-06	1.301324e-09	2.269385e+01	9.088549e+01
2.600000e-06	3.309414e-06	1.311162e-09	2.295520e+01	9.146232e+01
2.610000e-06	3.346852e-06	1.319234e-09	2.321488e+01	9.202343e+01
2.620000e-06	3.384103e-06	1.325899e-09	2.347326e+01	9.256950e+01
2.630000e-06	3.421164e-06	1.334269e-09	2.373034e+01	9.310118e+01
2.640000e-06	3.457944e-06	1.345072e-09	2.398546e+01	9.361905e+01
2.650000e-06	3.494445e-06	1.355328e-09	2.423863e+01	9.412363e+01
2.660000e-06	3.530711e-06	1.363119e-09	2.449019e+01	9.461538e+01
2.670000e-06	3.566772e-06	1.368148e-09	2.474032e+01	9.509473e+01
2.680000e-06	3.602680e-06	1.374977e-09	2.498939e+01	9.556205e+01
2.690000e-06	3.638457e-06	1.381477e-09	2.523755e+01	9.601768e+01
2.700000e-06	3.674067e-06	1.388466e-09	2.548456e+01	9.646191e+01
2.710000e-06	3.709448e-06	1.397347e-09	2.572997e+01	9.689499e+01
2.720000e-06	3.744553e-06	1.406278e-09	2.597347e+01	9.731715e+01
2.730000e-06	3.779218e-06	1.414671e-09	2.621392e+01	9.772859e+01
2.740000e-06	3.813581e-06	1.418749e-09	2.645227e+01	9.812950e+01
2.750000e-06	3.847729e-06	1.420562e-09	2.668913e+01	9.852002e+01
2.760000e-06	3.881345e-06	1.422445e-09	2.692231e+01	9.890032e+01
2.770000e-06	3.914399e-06	1.425926e-09	2.715158e+01	9.927053e+01
2.780000e-06	3.947034e-06	1.433212e-09	2.737794e+01	9.963079e+01
2.790000e-06	3.979344e-06	1.443142e-09	2.760206e+01	9.998122e+01
2.800000e-06	4.011423e-06	1.453198e-09	2.782457e+01	1.003220e+02
2.810000e-06	4.043296e-06	1.459576e-09	2.804565e+01	1.006532e+02
2.820000e-06	4.075008e-06	1.464255e-09	2.826561e+01	1.009750e+02
2.830000e-06	4.106546e-06	1.469338e-09	2.848438e+01	1.012876e+02
2.840000e-06	4.137841e-06	1.474414e-09	2.870144e+01	1.015911e+02
2.850000e-06	4.168829e-06	1.477186e-09	2.891639e+01	1.018857e+02
2.860000e-06	4.199587e-06	1.478631e-09	2.912974e+01	1.021717e+02
2.870000e-06	4.230052e-06	1.480097e-09	2.934105e+01	1.024492e+02
2.880000e-06	4.260114e-06	1.483321e-09	2.954957e+01	1.027184e+02
2.890000e-06	4.289874e-06	1.487899e-09	2.975600e+01	1.029796e+02
2.900000e-06	4.319437e-06	1.492916e-09	2.996106e+01	1.032331e+02
