# Temperatura_=_-9.57
# Concentracion g/m^3_=_1620.0
# C_Vs_to_Am_M_A/Vsm_=_65563218390.804596
# pendiente_HvsI_1/m_=_3716.3
# ordenada_HvsI_A/m_=_1297.0
# frecuencia_Hz_=_135105.17562543912

Tiempo_(s)	Campo_(V.s)	Magnetizacion_(V.s)	Campo_(kA/m)	Magnetizacion_(A/m)
0.000000e+00	-5.533821e-06	-1.068067e-09	-3.836830e+01	-7.035255e+01
1.000000e-08	-5.533883e-06	-1.063171e-09	-3.836874e+01	-7.033227e+01
2.000000e-08	-5.533712e-06	-1.062306e-09	-3.836755e+01	-7.031134e+01
3.000000e-08	-5.533186e-06	-1.064354e-09	-3.836390e+01	-7.028947e+01
4.000000e-08	-5.532253e-06	-1.069889e-09	-3.835743e+01	-7.026638e+01
5.000000e-08	-5.530850e-06	-1.077714e-09	-3.834771e+01	-7.024179e+01
6.000000e-08	-5.528874e-06	-1.082541e-09	-3.833401e+01	-7.021542e+01
7.000000e-08	-5.526278e-06	-1.046572e-09	-3.831601e+01	-7.018701e+01
8.000000e-08	-5.523070e-06	-9.973803e-10	-3.829376e+01	-7.015628e+01
9.000000e-08	-5.519437e-06	-1.054411e-09	-3.826858e+01	-7.012301e+01
1.000000e-07	-5.515354e-06	-1.174518e-09	-3.824027e+01	-7.008695e+01
1.100000e-07	-5.510788e-06	-1.131235e-09	-3.820861e+01	-7.004790e+01
1.200000e-07	-5.506080e-06	-9.653762e-10	-3.817597e+01	-7.000567e+01
1.300000e-07	-5.501247e-06	-9.530355e-10	-3.814246e+01	-6.996008e+01
1.400000e-07	-5.496011e-06	-1.131566e-09	-3.810616e+01	-6.991101e+01
1.500000e-07	-5.490275e-06	-1.148207e-09	-3.806639e+01	-6.985833e+01
1.600000e-07	-5.484168e-06	-9.932086e-10	-3.802404e+01	-6.980197e+01
1.700000e-07	-5.477759e-06	-9.434123e-10	-3.797960e+01	-6.974187e+01
1.800000e-07	-5.470919e-06	-1.115666e-09	-3.793218e+01	-6.967800e+01
1.900000e-07	-5.463599e-06	-1.146728e-09	-3.788143e+01	-6.961039e+01
2.000000e-07	-5.455904e-06	-1.018687e-09	-3.782807e+01	-6.953907e+01
2.100000e-07	-5.447935e-06	-9.623520e-10	-3.777282e+01	-6.946412e+01
2.200000e-07	-5.439748e-06	-1.075323e-09	-3.771606e+01	-6.938564e+01
2.300000e-07	-5.431326e-06	-1.127419e-09	-3.765766e+01	-6.930378e+01
2.400000e-07	-5.422554e-06	-1.049465e-09	-3.759685e+01	-6.921871e+01
2.500000e-07	-5.413105e-06	-1.001764e-09	-3.753133e+01	-6.913062e+01
2.600000e-07	-5.402827e-06	-1.047887e-09	-3.746007e+01	-6.903974e+01
2.700000e-07	-5.391926e-06	-1.085975e-09	-3.738449e+01	-6.894632e+01
2.800000e-07	-5.380594e-06	-1.036841e-09	-3.730592e+01	-6.885064e+01
2.900000e-07	-5.368853e-06	-1.017207e-09	-3.722451e+01	-6.875299e+01
3.000000e-07	-5.356719e-06	-1.047593e-09	-3.714039e+01	-6.865368e+01
3.100000e-07	-5.344274e-06	-1.086044e-09	-3.705410e+01	-6.855305e+01
3.200000e-07	-5.331416e-06	-1.027762e-09	-3.696495e+01	-6.845141e+01
3.300000e-07	-5.318038e-06	-1.006474e-09	-3.687219e+01	-6.834913e+01
3.400000e-07	-5.304287e-06	-1.051985e-09	-3.677685e+01	-6.824655e+01
3.500000e-07	-5.290299e-06	-1.089156e-09	-3.667987e+01	-6.814402e+01
3.600000e-07	-5.275905e-06	-1.022212e-09	-3.658007e+01	-6.804189e+01
3.700000e-07	-5.260956e-06	-1.034618e-09	-3.647642e+01	-6.794049e+01
3.800000e-07	-5.245533e-06	-1.084955e-09	-3.636949e+01	-6.784017e+01
3.900000e-07	-5.229574e-06	-1.043948e-09	-3.625884e+01	-6.774123e+01
4.000000e-07	-5.213069e-06	-9.862927e-10	-3.614440e+01	-6.764397e+01
4.100000e-07	-5.196251e-06	-1.080213e-09	-3.602779e+01	-6.754868e+01
4.200000e-07	-5.179187e-06	-1.093508e-09	-3.590948e+01	-6.745562e+01
4.300000e-07	-5.161765e-06	-9.826998e-10	-3.578868e+01	-6.736501e+01
4.400000e-07	-5.143985e-06	-1.011737e-09	-3.566541e+01	-6.727705e+01
4.500000e-07	-5.125897e-06	-1.120037e-09	-3.554000e+01	-6.719193e+01
4.600000e-07	-5.107278e-06	-1.033545e-09	-3.541090e+01	-6.710978e+01
4.700000e-07	-5.088139e-06	-9.632073e-10	-3.527820e+01	-6.703071e+01
4.800000e-07	-5.068745e-06	-1.067039e-09	-3.514374e+01	-6.695479e+01
4.900000e-07	-5.049132e-06	-1.065351e-09	-3.500776e+01	-6.688206e+01
5.000000e-07	-5.029276e-06	-9.695952e-10	-3.487008e+01	-6.681253e+01
5.100000e-07	-5.009226e-06	-1.030473e-09	-3.473107e+01	-6.674615e+01
5.200000e-07	-4.988932e-06	-1.076650e-09	-3.459036e+01	-6.668286e+01
5.300000e-07	-4.968308e-06	-9.720864e-10	-3.444737e+01	-6.662256e+01
5.400000e-07	-4.947330e-06	-9.905513e-10	-3.430192e+01	-6.656510e+01
5.500000e-07	-4.925912e-06	-1.085199e-09	-3.415342e+01	-6.651033e+01
5.600000e-07	-4.904102e-06	-1.017830e-09	-3.400220e+01	-6.645804e+01
5.700000e-07	-4.881997e-06	-9.562967e-10	-3.384893e+01	-6.640800e+01
5.800000e-07	-4.859554e-06	-1.042215e-09	-3.369333e+01	-6.635997e+01
5.900000e-07	-4.836782e-06	-1.037542e-09	-3.353544e+01	-6.631368e+01
6.000000e-07	-4.813731e-06	-9.711591e-10	-3.337562e+01	-6.626883e+01
6.100000e-07	-4.790376e-06	-1.009517e-09	-3.321369e+01	-6.622512e+01
6.200000e-07	-4.766756e-06	-1.041583e-09	-3.304992e+01	-6.618222e+01
6.300000e-07	-4.742880e-06	-9.852974e-10	-3.288438e+01	-6.613982e+01
6.400000e-07	-4.718735e-06	-9.947484e-10	-3.271697e+01	-6.609756e+01
6.500000e-07	-4.694236e-06	-1.024968e-09	-3.254711e+01	-6.605513e+01
6.600000e-07	-4.669236e-06	-9.978182e-10	-3.237377e+01	-6.601218e+01
6.700000e-07	-4.643788e-06	-9.891098e-10	-3.219734e+01	-6.596839e+01
6.800000e-07	-4.617862e-06	-1.023104e-09	-3.201758e+01	-6.592344e+01
6.900000e-07	-4.591347e-06	-1.008957e-09	-3.183374e+01	-6.587703e+01
7.000000e-07	-4.564337e-06	-9.950261e-10	-3.164647e+01	-6.582885e+01
7.100000e-07	-4.536983e-06	-1.008816e-09	-3.145681e+01	-6.577866e+01
7.200000e-07	-4.509369e-06	-1.004788e-09	-3.126535e+01	-6.572619e+01
7.300000e-07	-4.481526e-06	-9.859933e-10	-3.107230e+01	-6.567121e+01
7.400000e-07	-4.453502e-06	-9.954386e-10	-3.087800e+01	-6.561354e+01
7.500000e-07	-4.425303e-06	-9.983603e-10	-3.068249e+01	-6.555299e+01
7.600000e-07	-4.396859e-06	-9.908611e-10	-3.048527e+01	-6.548943e+01
7.700000e-07	-4.368063e-06	-9.953391e-10	-3.028562e+01	-6.542274e+01
7.800000e-07	-4.338868e-06	-9.953595e-10	-3.008320e+01	-6.535285e+01
7.900000e-07	-4.309306e-06	-9.837600e-10	-2.987823e+01	-6.527970e+01
8.000000e-07	-4.279445e-06	-9.866424e-10	-2.967119e+01	-6.520328e+01
8.100000e-07	-4.249369e-06	-9.900766e-10	-2.946266e+01	-6.512360e+01
8.200000e-07	-4.219019e-06	-9.721505e-10	-2.925223e+01	-6.504071e+01
8.300000e-07	-4.188391e-06	-9.679291e-10	-2.903988e+01	-6.495468e+01
8.400000e-07	-4.157496e-06	-9.813871e-10	-2.882567e+01	-6.486561e+01
8.500000e-07	-4.126355e-06	-9.810547e-10	-2.860975e+01	-6.477363e+01
8.600000e-07	-4.094971e-06	-9.692399e-10	-2.839216e+01	-6.467889e+01
8.700000e-07	-4.063359e-06	-9.756890e-10	-2.817298e+01	-6.458155e+01
8.800000e-07	-4.031603e-06	-9.722960e-10	-2.795280e+01	-6.448180e+01
8.900000e-07	-3.999640e-06	-9.592907e-10	-2.773119e+01	-6.437985e+01
9.000000e-07	-3.967399e-06	-9.611159e-10	-2.750764e+01	-6.427591e+01
9.100000e-07	-3.934939e-06	-9.668038e-10	-2.728259e+01	-6.417020e+01
9.200000e-07	-3.902201e-06	-9.529475e-10	-2.705560e+01	-6.406294e+01
9.300000e-07	-3.869017e-06	-9.508068e-10	-2.682552e+01	-6.395437e+01
9.400000e-07	-3.835273e-06	-9.623938e-10	-2.659156e+01	-6.384471e+01
9.500000e-07	-3.800984e-06	-9.612758e-10	-2.635382e+01	-6.373418e+01
9.600000e-07	-3.766321e-06	-9.497002e-10	-2.611349e+01	-6.362299e+01
9.700000e-07	-3.731351e-06	-9.556429e-10	-2.587103e+01	-6.351133e+01
9.800000e-07	-3.696046e-06	-9.546581e-10	-2.562624e+01	-6.339939e+01
9.900000e-07	-3.660468e-06	-9.424169e-10	-2.537956e+01	-6.328732e+01
1.000000e-06	-3.624741e-06	-9.372637e-10	-2.513185e+01	-6.317528e+01
1.010000e-06	-3.588917e-06	-9.410195e-10	-2.488347e+01	-6.306337e+01
1.020000e-06	-3.552936e-06	-9.339886e-10	-2.463400e+01	-6.295167e+01
1.030000e-06	-3.516798e-06	-9.331703e-10	-2.438344e+01	-6.284027e+01
1.040000e-06	-3.480474e-06	-9.433457e-10	-2.413159e+01	-6.272917e+01
1.050000e-06	-3.443812e-06	-9.419323e-10	-2.387739e+01	-6.261839e+01
1.060000e-06	-3.406856e-06	-9.326449e-10	-2.362117e+01	-6.250790e+01
1.070000e-06	-3.369709e-06	-9.318190e-10	-2.336361e+01	-6.239761e+01
1.080000e-06	-3.332349e-06	-9.293494e-10	-2.310457e+01	-6.228745e+01
1.090000e-06	-3.294711e-06	-9.204518e-10	-2.284362e+01	-6.217728e+01
1.100000e-06	-3.256836e-06	-9.183411e-10	-2.258101e+01	-6.206693e+01
1.110000e-06	-3.218713e-06	-9.190128e-10	-2.231669e+01	-6.195623e+01
1.120000e-06	-3.180318e-06	-9.135147e-10	-2.205048e+01	-6.184494e+01
1.130000e-06	-3.141678e-06	-9.086160e-10	-2.178257e+01	-6.173282e+01
1.140000e-06	-3.102832e-06	-9.123121e-10	-2.151324e+01	-6.161960e+01
1.150000e-06	-3.063771e-06	-9.119682e-10	-2.124241e+01	-6.150498e+01
1.160000e-06	-3.024489e-06	-9.062124e-10	-2.097006e+01	-6.138865e+01
1.170000e-06	-2.985128e-06	-9.000684e-10	-2.069715e+01	-6.127027e+01
1.180000e-06	-2.945629e-06	-8.972018e-10	-2.042328e+01	-6.114950e+01
1.190000e-06	-2.905959e-06	-8.937362e-10	-2.014824e+01	-6.102597e+01
1.200000e-06	-2.866163e-06	-8.927407e-10	-1.987231e+01	-6.089932e+01
1.210000e-06	-2.826150e-06	-8.901388e-10	-1.959489e+01	-6.076918e+01
1.220000e-06	-2.785994e-06	-8.845398e-10	-1.931647e+01	-6.063517e+01
1.230000e-06	-2.745777e-06	-8.803617e-10	-1.903763e+01	-6.049691e+01
1.240000e-06	-2.705318e-06	-8.810912e-10	-1.875711e+01	-6.035405e+01
1.250000e-06	-2.664512e-06	-8.781700e-10	-1.847418e+01	-6.020620e+01
1.260000e-06	-2.623483e-06	-8.732258e-10	-1.818971e+01	-6.005302e+01
1.270000e-06	-2.582270e-06	-8.682030e-10	-1.790396e+01	-5.989417e+01
1.280000e-06	-2.540837e-06	-8.637931e-10	-1.761669e+01	-5.972931e+01
1.290000e-06	-2.499083e-06	-8.571399e-10	-1.732719e+01	-5.955813e+01
1.300000e-06	-2.456982e-06	-8.531504e-10	-1.703529e+01	-5.938033e+01
1.310000e-06	-2.414578e-06	-8.520571e-10	-1.674128e+01	-5.919564e+01
1.320000e-06	-2.371892e-06	-8.509057e-10	-1.644532e+01	-5.900379e+01
1.330000e-06	-2.329035e-06	-8.466684e-10	-1.614818e+01	-5.880454e+01
1.340000e-06	-2.285977e-06	-8.423108e-10	-1.584964e+01	-5.859767e+01
1.350000e-06	-2.242665e-06	-8.399745e-10	-1.554934e+01	-5.838297e+01
1.360000e-06	-2.199137e-06	-8.377210e-10	-1.524754e+01	-5.816025e+01
1.370000e-06	-2.155504e-06	-8.352679e-10	-1.494501e+01	-5.792935e+01
1.380000e-06	-2.111808e-06	-8.313541e-10	-1.464205e+01	-5.769009e+01
1.390000e-06	-2.068029e-06	-8.254166e-10	-1.433851e+01	-5.744233e+01
1.400000e-06	-2.024165e-06	-8.190171e-10	-1.403438e+01	-5.718594e+01
1.410000e-06	-1.980200e-06	-8.138398e-10	-1.372956e+01	-5.692077e+01
1.420000e-06	-1.936125e-06	-8.067689e-10	-1.342397e+01	-5.664670e+01
1.430000e-06	-1.892005e-06	-8.014948e-10	-1.311806e+01	-5.636359e+01
1.440000e-06	-1.847837e-06	-7.988018e-10	-1.281183e+01	-5.607131e+01
1.450000e-06	-1.803532e-06	-7.954077e-10	-1.250465e+01	-5.576971e+01
1.460000e-06	-1.759058e-06	-7.892904e-10	-1.219629e+01	-5.545863e+01
1.470000e-06	-1.714496e-06	-7.831386e-10	-1.188732e+01	-5.513790e+01
1.480000e-06	-1.669802e-06	-7.779366e-10	-1.157744e+01	-5.480732e+01
1.490000e-06	-1.624942e-06	-7.697556e-10	-1.126641e+01	-5.446667e+01
1.500000e-06	-1.580068e-06	-7.588246e-10	-1.095527e+01	-5.411570e+01
1.510000e-06	-1.535050e-06	-7.505599e-10	-1.064315e+01	-5.375412e+01
1.520000e-06	-1.489768e-06	-7.440903e-10	-1.032918e+01	-5.338161e+01
1.530000e-06	-1.444359e-06	-7.385283e-10	-1.001435e+01	-5.299782e+01
1.540000e-06	-1.398937e-06	-7.313389e-10	-9.699420e+00	-5.260233e+01
1.550000e-06	-1.353434e-06	-7.231749e-10	-9.383929e+00	-5.219471e+01
1.560000e-06	-1.307772e-06	-7.157864e-10	-9.067335e+00	-5.177446e+01
1.570000e-06	-1.262047e-06	-7.098296e-10	-8.750304e+00	-5.134103e+01
1.580000e-06	-1.216324e-06	-7.033586e-10	-8.433284e+00	-5.089383e+01
1.590000e-06	-1.170553e-06	-6.954690e-10	-8.115938e+00	-5.043220e+01
1.600000e-06	-1.124666e-06	-6.860016e-10	-7.797780e+00	-4.995547e+01
1.610000e-06	-1.078660e-06	-6.789194e-10	-7.478803e+00	-4.946287e+01
1.620000e-06	-1.032536e-06	-6.733586e-10	-7.159008e+00	-4.895362e+01
1.630000e-06	-9.862703e-07	-6.705975e-10	-6.838226e+00	-4.842688e+01
1.640000e-06	-9.399140e-07	-6.670835e-10	-6.516819e+00	-4.788175e+01
1.650000e-06	-8.934876e-07	-6.590632e-10	-6.194925e+00	-4.731732e+01
1.660000e-06	-8.469894e-07	-6.471411e-10	-5.872534e+00	-4.673263e+01
1.670000e-06	-8.004961e-07	-6.321141e-10	-5.550176e+00	-4.612668e+01
1.680000e-06	-7.539867e-07	-6.196163e-10	-5.227707e+00	-4.549846e+01
1.690000e-06	-7.075192e-07	-6.080423e-10	-4.905528e+00	-4.484692e+01
1.700000e-06	-6.610976e-07	-5.963511e-10	-4.583668e+00	-4.417103e+01
1.710000e-06	-6.145566e-07	-5.866549e-10	-4.260979e+00	-4.346971e+01
1.720000e-06	-5.678905e-07	-5.789358e-10	-3.937424e+00	-4.274192e+01
1.730000e-06	-5.211095e-07	-5.695338e-10	-3.613071e+00	-4.198661e+01
1.740000e-06	-4.743225e-07	-5.578671e-10	-3.288677e+00	-4.120275e+01
1.750000e-06	-4.275547e-07	-5.439411e-10	-2.964416e+00	-4.038934e+01
1.760000e-06	-3.807260e-07	-5.285599e-10	-2.639733e+00	-3.954540e+01
1.770000e-06	-3.339047e-07	-5.140763e-10	-2.315102e+00	-3.867002e+01
1.780000e-06	-2.870091e-07	-5.020157e-10	-1.989955e+00	-3.776233e+01
1.790000e-06	-2.400153e-07	-4.916091e-10	-1.664127e+00	-3.682150e+01
1.800000e-06	-1.930260e-07	-4.802053e-10	-1.338330e+00	-3.584682e+01
1.810000e-06	-1.459931e-07	-4.646441e-10	-1.012232e+00	-3.483761e+01
1.820000e-06	-9.898642e-08	-4.472260e-10	-6.863144e-01	-3.379330e+01
1.830000e-06	-5.201521e-08	-4.291016e-10	-3.606433e-01	-3.271343e+01
1.840000e-06	-5.001793e-09	-4.127534e-10	-3.467953e-02	-3.159761e+01
1.850000e-06	4.195947e-08	-3.965311e-10	2.909226e-01	-3.044559e+01
1.860000e-06	8.889268e-08	-3.819120e-10	6.163303e-01	-2.925722e+01
1.870000e-06	1.358585e-07	-3.662476e-10	9.419643e-01	-2.803248e+01
1.880000e-06	1.828366e-07	-3.507995e-10	1.267683e+00	-2.677149e+01
1.890000e-06	2.297681e-07	-3.348767e-10	1.593079e+00	-2.547446e+01
1.900000e-06	2.767342e-07	-3.137977e-10	1.918715e+00	-2.414180e+01
1.910000e-06	3.237163e-07	-2.900201e-10	2.244461e+00	-2.277400e+01
1.920000e-06	3.706518e-07	-2.670182e-10	2.569885e+00	-2.137172e+01
1.930000e-06	4.175988e-07	-2.481457e-10	2.895388e+00	-1.993576e+01
1.940000e-06	4.644458e-07	-2.298111e-10	3.220198e+00	-1.846706e+01
1.950000e-06	5.112238e-07	-2.128315e-10	3.544529e+00	-1.696669e+01
1.960000e-06	5.579597e-07	-1.953123e-10	3.868569e+00	-1.543588e+01
1.970000e-06	6.046280e-07	-1.756266e-10	4.192140e+00	-1.387597e+01
1.980000e-06	6.512379e-07	-1.520850e-10	4.515306e+00	-1.228844e+01
1.990000e-06	6.977397e-07	-1.249035e-10	4.837723e+00	-1.067490e+01
2.000000e-06	7.441602e-07	-9.450674e-11	5.159575e+00	-9.037093e+00
2.010000e-06	7.905866e-07	-6.458330e-11	5.481469e+00	-7.376847e+00
2.020000e-06	8.370311e-07	-3.956523e-11	5.803488e+00	-5.696113e+00
2.030000e-06	8.834239e-07	-1.943554e-11	6.125149e+00	-3.996939e+00
2.040000e-06	9.297293e-07	-2.159267e-12	6.446204e+00	-2.281459e+00
2.050000e-06	9.759065e-07	1.574006e-11	6.766370e+00	-5.518861e-01
2.060000e-06	1.021954e-06	3.895153e-11	7.085635e+00	1.189497e+00
2.070000e-06	1.067933e-06	6.593286e-11	7.404430e+00	2.940351e+00
2.080000e-06	1.113899e-06	9.516432e-11	7.723127e+00	4.698288e+00
2.090000e-06	1.159850e-06	1.245816e-10	8.041724e+00	6.460887e+00
2.100000e-06	1.205716e-06	1.518925e-10	8.359739e+00	8.225702e+00
2.110000e-06	1.251468e-06	1.745697e-10	8.676954e+00	9.990278e+00
2.120000e-06	1.297115e-06	1.929787e-10	8.993440e+00	1.175216e+01
2.130000e-06	1.342670e-06	2.115731e-10	9.309298e+00	1.350889e+01
2.140000e-06	1.388166e-06	2.326422e-10	9.624738e+00	1.525807e+01
2.150000e-06	1.433570e-06	2.575436e-10	9.939540e+00	1.699731e+01
2.160000e-06	1.478783e-06	2.844742e-10	1.025302e+01	1.872426e+01
2.170000e-06	1.523889e-06	3.103038e-10	1.056576e+01	2.043665e+01
2.180000e-06	1.568987e-06	3.338229e-10	1.087845e+01	2.213228e+01
2.190000e-06	1.613878e-06	3.555178e-10	1.118969e+01	2.380900e+01
2.200000e-06	1.658580e-06	3.766508e-10	1.149963e+01	2.546478e+01
2.210000e-06	1.703252e-06	3.982422e-10	1.180936e+01	2.709766e+01
2.220000e-06	1.747799e-06	4.200561e-10	1.211822e+01	2.870580e+01
2.230000e-06	1.792153e-06	4.422879e-10	1.242575e+01	3.028747e+01
2.240000e-06	1.836330e-06	4.636398e-10	1.273205e+01	3.184106e+01
2.250000e-06	1.880449e-06	4.834624e-10	1.303794e+01	3.336506e+01
2.260000e-06	1.924595e-06	5.033594e-10	1.334402e+01	3.485812e+01
2.270000e-06	1.968687e-06	5.242007e-10	1.364973e+01	3.631900e+01
2.280000e-06	2.012682e-06	5.435626e-10	1.395477e+01	3.774661e+01
2.290000e-06	2.056571e-06	5.612176e-10	1.425907e+01	3.913996e+01
2.300000e-06	2.100359e-06	5.784781e-10	1.456267e+01	4.049825e+01
2.310000e-06	2.144078e-06	5.959102e-10	1.486579e+01	4.182076e+01
2.320000e-06	2.187756e-06	6.131028e-10	1.516863e+01	4.310696e+01
2.330000e-06	2.231326e-06	6.310517e-10	1.547072e+01	4.435640e+01
2.340000e-06	2.274707e-06	6.497009e-10	1.577150e+01	4.556880e+01
2.350000e-06	2.317940e-06	6.675720e-10	1.607125e+01	4.674399e+01
2.360000e-06	2.361005e-06	6.820664e-10	1.636984e+01	4.788192e+01
2.370000e-06	2.403833e-06	6.939414e-10	1.666679e+01	4.898267e+01
2.380000e-06	2.446364e-06	7.045337e-10	1.696167e+01	5.004643e+01
2.390000e-06	2.488485e-06	7.164946e-10	1.725371e+01	5.107349e+01
2.400000e-06	2.530197e-06	7.302366e-10	1.754292e+01	5.206423e+01
2.410000e-06	2.571567e-06	7.464300e-10	1.782975e+01	5.301915e+01
2.420000e-06	2.612680e-06	7.617556e-10	1.811481e+01	5.393882e+01
2.430000e-06	2.653531e-06	7.737694e-10	1.839804e+01	5.482389e+01
2.440000e-06	2.694066e-06	7.829964e-10	1.867909e+01	5.567507e+01
2.450000e-06	2.734386e-06	7.906832e-10	1.895865e+01	5.649314e+01
2.460000e-06	2.774592e-06	8.005021e-10	1.923741e+01	5.727894e+01
2.470000e-06	2.814688e-06	8.109748e-10	1.951541e+01	5.803336e+01
2.480000e-06	2.854628e-06	8.219292e-10	1.979233e+01	5.875730e+01
2.490000e-06	2.894487e-06	8.340177e-10	2.006870e+01	5.945173e+01
2.500000e-06	2.934218e-06	8.460401e-10	2.034416e+01	6.011760e+01
2.510000e-06	2.973787e-06	8.568871e-10	2.061851e+01	6.075591e+01
2.520000e-06	3.013196e-06	8.651850e-10	2.089176e+01	6.136765e+01
2.530000e-06	3.052294e-06	8.710207e-10	2.116284e+01	6.195382e+01
2.540000e-06	3.091122e-06	8.762100e-10	2.143205e+01	6.251541e+01
2.550000e-06	3.129788e-06	8.804217e-10	2.170013e+01	6.305339e+01
2.560000e-06	3.168314e-06	8.859953e-10	2.196725e+01	6.356874e+01
2.570000e-06	3.206599e-06	8.946780e-10	2.223270e+01	6.406239e+01
2.580000e-06	3.244629e-06	9.032600e-10	2.249638e+01	6.453527e+01
2.590000e-06	3.282441e-06	9.095594e-10	2.275854e+01	6.498825e+01
2.600000e-06	3.320049e-06	9.162349e-10	2.301929e+01	6.542221e+01
2.610000e-06	3.357483e-06	9.236745e-10	2.327884e+01	6.583796e+01
2.620000e-06	3.394718e-06	9.298699e-10	2.353700e+01	6.623629e+01
2.630000e-06	3.431713e-06	9.362622e-10	2.379351e+01	6.661793e+01
2.640000e-06	3.468422e-06	9.445749e-10	2.404803e+01	6.698360e+01
2.650000e-06	3.504830e-06	9.517727e-10	2.430046e+01	6.733396e+01
2.660000e-06	3.540980e-06	9.565380e-10	2.455110e+01	6.766964e+01
2.670000e-06	3.576950e-06	9.609125e-10	2.480050e+01	6.799121e+01
2.680000e-06	3.612824e-06	9.643176e-10	2.504923e+01	6.829923e+01
2.690000e-06	3.648629e-06	9.670924e-10	2.529748e+01	6.859420e+01
2.700000e-06	3.684259e-06	9.711830e-10	2.554452e+01	6.887658e+01
2.710000e-06	3.719577e-06	9.770287e-10	2.578939e+01	6.914681e+01
2.720000e-06	3.754665e-06	9.841165e-10	2.603267e+01	6.940529e+01
2.730000e-06	3.789548e-06	9.908162e-10	2.627453e+01	6.965239e+01
2.740000e-06	3.823946e-06	9.964324e-10	2.651303e+01	6.988845e+01
2.750000e-06	3.857778e-06	9.982161e-10	2.674759e+01	7.011378e+01
2.760000e-06	3.891152e-06	9.985193e-10	2.697899e+01	7.032867e+01
2.770000e-06	3.924076e-06	9.992155e-10	2.720727e+01	7.053339e+01
2.780000e-06	3.956529e-06	1.001523e-09	2.743228e+01	7.072819e+01
2.790000e-06	3.988700e-06	1.007844e-09	2.765533e+01	7.091331e+01
2.800000e-06	4.020725e-06	1.015453e-09	2.787738e+01	7.108897e+01
2.810000e-06	4.052597e-06	1.019022e-09	2.809836e+01	7.125537e+01
2.820000e-06	4.084307e-06	1.021141e-09	2.831821e+01	7.141273e+01
2.830000e-06	4.115828e-06	1.024068e-09	2.853676e+01	7.156124e+01
2.840000e-06	4.147177e-06	1.023467e-09	2.875412e+01	7.170109e+01
2.850000e-06	4.178222e-06	1.019547e-09	2.896937e+01	7.183248e+01
2.860000e-06	4.208909e-06	1.016372e-09	2.918213e+01	7.195559e+01
2.870000e-06	4.239311e-06	1.017356e-09	2.939292e+01	7.207061e+01
2.880000e-06	4.269332e-06	1.021224e-09	2.960107e+01	7.217774e+01
2.890000e-06	4.299045e-06	1.025833e-09	2.980709e+01	7.227717e+01
2.900000e-06	4.328542e-06	1.027858e-09	3.001160e+01	7.236910e+01
