# Temperatura_=_-7.9
# Concentracion g/m^3_=_1620.0
# C_Vs_to_Am_M_A/Vsm_=_65563218390.804596
# pendiente_HvsI_1/m_=_3716.3
# ordenada_HvsI_A/m_=_1297.0
# frecuencia_Hz_=_135101.86083926333

Tiempo_(s)	Campo_(V.s)	Magnetizacion_(V.s)	Campo_(kA/m)	Magnetizacion_(A/m)
0.000000e+00	-5.524664e-06	-1.211426e-09	-3.836772e+01	-8.024756e+01
1.000000e-08	-5.524854e-06	-1.208103e-09	-3.836904e+01	-8.020913e+01
2.000000e-08	-5.524859e-06	-1.205094e-09	-3.836908e+01	-8.017210e+01
3.000000e-08	-5.524584e-06	-1.204402e-09	-3.836717e+01	-8.013636e+01
4.000000e-08	-5.523900e-06	-1.205952e-09	-3.836242e+01	-8.010179e+01
5.000000e-08	-5.522594e-06	-1.202010e-09	-3.835335e+01	-8.006823e+01
6.000000e-08	-5.520606e-06	-1.187118e-09	-3.833954e+01	-8.003550e+01
7.000000e-08	-5.517983e-06	-1.167795e-09	-3.832132e+01	-8.000341e+01
8.000000e-08	-5.514847e-06	-1.194843e-09	-3.829954e+01	-7.997176e+01
9.000000e-08	-5.511243e-06	-1.270437e-09	-3.827452e+01	-7.994032e+01
1.000000e-07	-5.507155e-06	-1.300576e-09	-3.824613e+01	-7.990885e+01
1.100000e-07	-5.502761e-06	-1.207395e-09	-3.821561e+01	-7.987711e+01
1.200000e-07	-5.498181e-06	-1.113385e-09	-3.818381e+01	-7.984485e+01
1.300000e-07	-5.493412e-06	-1.143060e-09	-3.815068e+01	-7.981182e+01
1.400000e-07	-5.488307e-06	-1.246587e-09	-3.811523e+01	-7.977777e+01
1.500000e-07	-5.482691e-06	-1.212104e-09	-3.807623e+01	-7.974243e+01
1.600000e-07	-5.476656e-06	-1.148931e-09	-3.803432e+01	-7.970556e+01
1.700000e-07	-5.470218e-06	-1.155822e-09	-3.798961e+01	-7.966691e+01
1.800000e-07	-5.463234e-06	-1.275566e-09	-3.794110e+01	-7.962626e+01
1.900000e-07	-5.455871e-06	-1.255749e-09	-3.788997e+01	-7.958339e+01
2.000000e-07	-5.448286e-06	-1.171138e-09	-3.783729e+01	-7.953808e+01
2.100000e-07	-5.440479e-06	-1.147123e-09	-3.778307e+01	-7.949015e+01
2.200000e-07	-5.432465e-06	-1.237054e-09	-3.772742e+01	-7.943943e+01
2.300000e-07	-5.424135e-06	-1.258336e-09	-3.766957e+01	-7.938576e+01
2.400000e-07	-5.415442e-06	-1.199500e-09	-3.760920e+01	-7.932903e+01
2.500000e-07	-5.406085e-06	-1.175318e-09	-3.754421e+01	-7.926911e+01
2.600000e-07	-5.395954e-06	-1.207900e-09	-3.747386e+01	-7.920592e+01
2.700000e-07	-5.385259e-06	-1.227345e-09	-3.739959e+01	-7.913942e+01
2.800000e-07	-5.373997e-06	-1.186743e-09	-3.732137e+01	-7.906956e+01
2.900000e-07	-5.362321e-06	-1.190613e-09	-3.724029e+01	-7.899633e+01
3.000000e-07	-5.350364e-06	-1.207641e-09	-3.715724e+01	-7.891976e+01
3.100000e-07	-5.337994e-06	-1.218804e-09	-3.707134e+01	-7.883987e+01
3.200000e-07	-5.325118e-06	-1.167828e-09	-3.698192e+01	-7.875674e+01
3.300000e-07	-5.311846e-06	-1.188560e-09	-3.688974e+01	-7.867044e+01
3.400000e-07	-5.298281e-06	-1.207498e-09	-3.679554e+01	-7.858108e+01
3.500000e-07	-5.284332e-06	-1.223261e-09	-3.669866e+01	-7.848878e+01
3.600000e-07	-5.269931e-06	-1.186726e-09	-3.659865e+01	-7.839369e+01
3.700000e-07	-5.254984e-06	-1.206389e-09	-3.649485e+01	-7.829596e+01
3.800000e-07	-5.239472e-06	-1.196619e-09	-3.638712e+01	-7.819576e+01
3.900000e-07	-5.223523e-06	-1.182392e-09	-3.627636e+01	-7.809327e+01
4.000000e-07	-5.207094e-06	-1.173031e-09	-3.616226e+01	-7.798869e+01
4.100000e-07	-5.190317e-06	-1.204112e-09	-3.604575e+01	-7.788220e+01
4.200000e-07	-5.173211e-06	-1.185421e-09	-3.592695e+01	-7.777400e+01
4.300000e-07	-5.155755e-06	-1.165334e-09	-3.580573e+01	-7.766429e+01
4.400000e-07	-5.138103e-06	-1.181484e-09	-3.568313e+01	-7.755327e+01
4.500000e-07	-5.120084e-06	-1.200451e-09	-3.555799e+01	-7.744114e+01
4.600000e-07	-5.101565e-06	-1.165557e-09	-3.542938e+01	-7.732808e+01
4.700000e-07	-5.082634e-06	-1.148694e-09	-3.529791e+01	-7.721426e+01
4.800000e-07	-5.063389e-06	-1.166557e-09	-3.516426e+01	-7.709986e+01
4.900000e-07	-5.043874e-06	-1.164990e-09	-3.502873e+01	-7.698503e+01
5.000000e-07	-5.024111e-06	-1.147730e-09	-3.489148e+01	-7.686991e+01
5.100000e-07	-5.004155e-06	-1.151252e-09	-3.475289e+01	-7.675462e+01
5.200000e-07	-4.983941e-06	-1.150828e-09	-3.461251e+01	-7.663928e+01
5.300000e-07	-4.963348e-06	-1.133380e-09	-3.446949e+01	-7.652395e+01
5.400000e-07	-4.942325e-06	-1.149911e-09	-3.432349e+01	-7.640873e+01
5.500000e-07	-4.920949e-06	-1.164664e-09	-3.417504e+01	-7.629364e+01
5.600000e-07	-4.899324e-06	-1.145727e-09	-3.402486e+01	-7.617873e+01
5.700000e-07	-4.877380e-06	-1.123291e-09	-3.387246e+01	-7.606399e+01
5.800000e-07	-4.855101e-06	-1.141330e-09	-3.371774e+01	-7.594942e+01
5.900000e-07	-4.832509e-06	-1.139620e-09	-3.356084e+01	-7.583498e+01
6.000000e-07	-4.809573e-06	-1.128625e-09	-3.340155e+01	-7.572062e+01
6.100000e-07	-4.786355e-06	-1.128193e-09	-3.324031e+01	-7.560628e+01
6.200000e-07	-4.762818e-06	-1.139737e-09	-3.307685e+01	-7.549186e+01
6.300000e-07	-4.738992e-06	-1.126060e-09	-3.291138e+01	-7.537727e+01
6.400000e-07	-4.714936e-06	-1.126717e-09	-3.274432e+01	-7.526239e+01
6.500000e-07	-4.690564e-06	-1.127261e-09	-3.257506e+01	-7.514710e+01
6.600000e-07	-4.665785e-06	-1.129523e-09	-3.240297e+01	-7.503126e+01
6.700000e-07	-4.640552e-06	-1.124551e-09	-3.222774e+01	-7.491473e+01
6.800000e-07	-4.614794e-06	-1.130523e-09	-3.204885e+01	-7.479737e+01
6.900000e-07	-4.588356e-06	-1.123368e-09	-3.186524e+01	-7.467901e+01
7.000000e-07	-4.561363e-06	-1.122729e-09	-3.167778e+01	-7.455952e+01
7.100000e-07	-4.534080e-06	-1.119498e-09	-3.148831e+01	-7.443873e+01
7.200000e-07	-4.506524e-06	-1.119283e-09	-3.129694e+01	-7.431651e+01
7.300000e-07	-4.478738e-06	-1.114682e-09	-3.110397e+01	-7.419270e+01
7.400000e-07	-4.450802e-06	-1.118381e-09	-3.090996e+01	-7.406718e+01
7.500000e-07	-4.422723e-06	-1.117213e-09	-3.071495e+01	-7.393982e+01
7.600000e-07	-4.394494e-06	-1.116540e-09	-3.051891e+01	-7.381051e+01
7.700000e-07	-4.365883e-06	-1.113945e-09	-3.032021e+01	-7.367913e+01
7.800000e-07	-4.336825e-06	-1.109054e-09	-3.011841e+01	-7.354562e+01
7.900000e-07	-4.307481e-06	-1.106637e-09	-2.991462e+01	-7.340989e+01
8.000000e-07	-4.277843e-06	-1.107959e-09	-2.970879e+01	-7.327188e+01
8.100000e-07	-4.247941e-06	-1.101876e-09	-2.950113e+01	-7.313157e+01
8.200000e-07	-4.217675e-06	-1.090945e-09	-2.929094e+01	-7.298892e+01
8.300000e-07	-4.187013e-06	-1.090494e-09	-2.907799e+01	-7.284393e+01
8.400000e-07	-4.156117e-06	-1.091129e-09	-2.886343e+01	-7.269660e+01
8.500000e-07	-4.124964e-06	-1.090373e-09	-2.864708e+01	-7.254698e+01
8.600000e-07	-4.093607e-06	-1.086802e-09	-2.842931e+01	-7.239510e+01
8.700000e-07	-4.062120e-06	-1.086850e-09	-2.821064e+01	-7.224101e+01
8.800000e-07	-4.030468e-06	-1.078391e-09	-2.799082e+01	-7.208479e+01
8.900000e-07	-3.998614e-06	-1.073507e-09	-2.776960e+01	-7.192653e+01
9.000000e-07	-3.966563e-06	-1.070706e-09	-2.754702e+01	-7.176632e+01
9.100000e-07	-3.934296e-06	-1.071077e-09	-2.732293e+01	-7.160425e+01
9.200000e-07	-3.901693e-06	-1.064682e-09	-2.709650e+01	-7.144046e+01
9.300000e-07	-3.868701e-06	-1.065924e-09	-2.686738e+01	-7.127503e+01
9.400000e-07	-3.835113e-06	-1.064441e-09	-2.663412e+01	-7.110811e+01
9.500000e-07	-3.800986e-06	-1.061589e-09	-2.639711e+01	-7.093979e+01
9.600000e-07	-3.766488e-06	-1.054941e-09	-2.615753e+01	-7.077021e+01
9.700000e-07	-3.731559e-06	-1.053102e-09	-2.591496e+01	-7.059947e+01
9.800000e-07	-3.696283e-06	-1.044606e-09	-2.566997e+01	-7.042768e+01
9.900000e-07	-3.660816e-06	-1.036258e-09	-2.542366e+01	-7.025493e+01
1.000000e-06	-3.625245e-06	-1.028849e-09	-2.517663e+01	-7.008131e+01
1.010000e-06	-3.589530e-06	-1.029851e-09	-2.492859e+01	-6.990689e+01
1.020000e-06	-3.553663e-06	-1.032134e-09	-2.467951e+01	-6.973174e+01
1.030000e-06	-3.517598e-06	-1.035663e-09	-2.442904e+01	-6.955588e+01
1.040000e-06	-3.481295e-06	-1.035149e-09	-2.417692e+01	-6.937934e+01
1.050000e-06	-3.444747e-06	-1.028634e-09	-2.392311e+01	-6.920212e+01
1.060000e-06	-3.407887e-06	-1.018369e-09	-2.366711e+01	-6.902421e+01
1.070000e-06	-3.370784e-06	-1.010706e-09	-2.340944e+01	-6.884556e+01
1.080000e-06	-3.333487e-06	-1.005389e-09	-2.315042e+01	-6.866610e+01
1.090000e-06	-3.295931e-06	-1.001654e-09	-2.288961e+01	-6.848576e+01
1.100000e-06	-3.258170e-06	-1.000624e-09	-2.262736e+01	-6.830441e+01
1.110000e-06	-3.220251e-06	-9.979050e-10	-2.236402e+01	-6.812192e+01
1.120000e-06	-3.182086e-06	-9.928857e-10	-2.209897e+01	-6.793814e+01
1.130000e-06	-3.143604e-06	-9.859121e-10	-2.183173e+01	-6.775289e+01
1.140000e-06	-3.104915e-06	-9.817083e-10	-2.156303e+01	-6.756596e+01
1.150000e-06	-3.066048e-06	-9.776250e-10	-2.129311e+01	-6.737713e+01
1.160000e-06	-3.026941e-06	-9.740196e-10	-2.102152e+01	-6.718617e+01
1.170000e-06	-2.987591e-06	-9.697376e-10	-2.074824e+01	-6.699281e+01
1.180000e-06	-2.948082e-06	-9.694423e-10	-2.047386e+01	-6.679678e+01
1.190000e-06	-2.908431e-06	-9.668855e-10	-2.019849e+01	-6.659779e+01
1.200000e-06	-2.868667e-06	-9.641761e-10	-1.992234e+01	-6.639555e+01
1.210000e-06	-2.828853e-06	-9.585389e-10	-1.964584e+01	-6.618974e+01
1.220000e-06	-2.788952e-06	-9.553276e-10	-1.936873e+01	-6.598005e+01
1.230000e-06	-2.748869e-06	-9.535607e-10	-1.909036e+01	-6.576615e+01
1.240000e-06	-2.708460e-06	-9.538281e-10	-1.880973e+01	-6.554771e+01
1.250000e-06	-2.667816e-06	-9.512229e-10	-1.852747e+01	-6.532441e+01
1.260000e-06	-2.627010e-06	-9.475139e-10	-1.824408e+01	-6.509593e+01
1.270000e-06	-2.585993e-06	-9.413369e-10	-1.795922e+01	-6.486193e+01
1.280000e-06	-2.544764e-06	-9.340511e-10	-1.767289e+01	-6.462209e+01
1.290000e-06	-2.503226e-06	-9.264192e-10	-1.738442e+01	-6.437610e+01
1.300000e-06	-2.461333e-06	-9.220921e-10	-1.709348e+01	-6.412366e+01
1.310000e-06	-2.419048e-06	-9.193864e-10	-1.679982e+01	-6.386445e+01
1.320000e-06	-2.376457e-06	-9.178100e-10	-1.650403e+01	-6.359819e+01
1.330000e-06	-2.333637e-06	-9.135604e-10	-1.620666e+01	-6.332460e+01
1.340000e-06	-2.290610e-06	-9.077422e-10	-1.590785e+01	-6.304340e+01
1.350000e-06	-2.247358e-06	-9.048242e-10	-1.560747e+01	-6.275433e+01
1.360000e-06	-2.203894e-06	-9.014717e-10	-1.530562e+01	-6.245714e+01
1.370000e-06	-2.160318e-06	-8.973261e-10	-1.500299e+01	-6.215158e+01
1.380000e-06	-2.116670e-06	-8.929723e-10	-1.469987e+01	-6.183742e+01
1.390000e-06	-2.072928e-06	-8.842825e-10	-1.439609e+01	-6.151442e+01
1.400000e-06	-2.029052e-06	-8.749544e-10	-1.409137e+01	-6.118236e+01
1.410000e-06	-1.985151e-06	-8.646316e-10	-1.378649e+01	-6.084102e+01
1.420000e-06	-1.941207e-06	-8.568248e-10	-1.348131e+01	-6.049018e+01
1.430000e-06	-1.897171e-06	-8.543519e-10	-1.317549e+01	-6.012960e+01
1.440000e-06	-1.852994e-06	-8.533196e-10	-1.286868e+01	-5.975907e+01
1.450000e-06	-1.808717e-06	-8.483734e-10	-1.256119e+01	-5.937834e+01
1.460000e-06	-1.764403e-06	-8.366253e-10	-1.225344e+01	-5.898718e+01
1.470000e-06	-1.719892e-06	-8.234490e-10	-1.194432e+01	-5.858532e+01
1.480000e-06	-1.675195e-06	-8.113809e-10	-1.163391e+01	-5.817250e+01
1.490000e-06	-1.630415e-06	-8.031408e-10	-1.132292e+01	-5.774841e+01
1.500000e-06	-1.585462e-06	-7.963696e-10	-1.101073e+01	-5.731274e+01
1.510000e-06	-1.540386e-06	-7.930229e-10	-1.069768e+01	-5.686516e+01
1.520000e-06	-1.495286e-06	-7.889816e-10	-1.038447e+01	-5.640530e+01
1.530000e-06	-1.450050e-06	-7.826899e-10	-1.007031e+01	-5.593276e+01
1.540000e-06	-1.404644e-06	-7.698359e-10	-9.754980e+00	-5.544710e+01
1.550000e-06	-1.359142e-06	-7.528737e-10	-9.438976e+00	-5.494787e+01
1.560000e-06	-1.313584e-06	-7.359928e-10	-9.122588e+00	-5.443456e+01
1.570000e-06	-1.268015e-06	-7.263396e-10	-8.806116e+00	-5.390663e+01
1.580000e-06	-1.222408e-06	-7.241500e-10	-8.489384e+00	-5.336350e+01
1.590000e-06	-1.176643e-06	-7.246484e-10	-8.171559e+00	-5.280455e+01
1.600000e-06	-1.130781e-06	-7.238396e-10	-7.853059e+00	-5.222912e+01
1.610000e-06	-1.084872e-06	-7.172372e-10	-7.534229e+00	-5.163652e+01
1.620000e-06	-1.038858e-06	-7.057240e-10	-7.214669e+00	-5.102601e+01
1.630000e-06	-9.927848e-07	-6.935504e-10	-6.894698e+00	-5.039681e+01
1.640000e-06	-9.466531e-07	-6.806793e-10	-6.574323e+00	-4.974812e+01
1.650000e-06	-9.004414e-07	-6.677180e-10	-6.253392e+00	-4.907910e+01
1.660000e-06	-8.541394e-07	-6.582034e-10	-5.931833e+00	-4.838887e+01
1.670000e-06	-8.077627e-07	-6.501631e-10	-5.609756e+00	-4.767656e+01
1.680000e-06	-7.613480e-07	-6.410201e-10	-5.287415e+00	-4.694124e+01
1.690000e-06	-7.149376e-07	-6.275163e-10	-4.965104e+00	-4.618199e+01
1.700000e-06	-6.685488e-07	-6.099505e-10	-4.642942e+00	-4.539787e+01
1.710000e-06	-6.220280e-07	-5.928780e-10	-4.319864e+00	-4.458794e+01
1.720000e-06	-5.753692e-07	-5.771974e-10	-3.995828e+00	-4.375125e+01
1.730000e-06	-5.287004e-07	-5.636202e-10	-3.671722e+00	-4.288688e+01
1.740000e-06	-4.819844e-07	-5.504768e-10	-3.347288e+00	-4.199392e+01
1.750000e-06	-4.351771e-07	-5.360055e-10	-3.022221e+00	-4.107148e+01
1.760000e-06	-3.883733e-07	-5.218221e-10	-2.697177e+00	-4.011870e+01
1.770000e-06	-3.416200e-07	-5.091903e-10	-2.372485e+00	-3.913476e+01
1.780000e-06	-2.947952e-07	-4.968757e-10	-2.047295e+00	-3.811890e+01
1.790000e-06	-2.479176e-07	-4.808700e-10	-1.721740e+00	-3.707041e+01
1.800000e-06	-2.010653e-07	-4.617468e-10	-1.396359e+00	-3.598863e+01
1.810000e-06	-1.542304e-07	-4.410163e-10	-1.071100e+00	-3.487299e+01
1.820000e-06	-1.074142e-07	-4.207665e-10	-7.459711e-01	-3.372299e+01
1.830000e-06	-6.058752e-08	-4.026795e-10	-4.207686e-01	-3.253823e+01
1.840000e-06	-1.372154e-08	-3.883506e-10	-9.529345e-02	-3.131839e+01
1.850000e-06	3.316426e-08	-3.747851e-10	2.303194e-01	-3.006326e+01
1.860000e-06	8.003822e-08	-3.582635e-10	5.558500e-01	-2.877273e+01
1.870000e-06	1.268766e-07	-3.379345e-10	8.811333e-01	-2.744682e+01
1.880000e-06	1.737387e-07	-3.142288e-10	1.206582e+00	-2.608565e+01
1.890000e-06	2.206126e-07	-2.886825e-10	1.532112e+00	-2.468947e+01
1.900000e-06	2.673502e-07	-2.650936e-10	1.856695e+00	-2.325866e+01
1.910000e-06	3.140859e-07	-2.432777e-10	2.181266e+00	-2.179373e+01
1.920000e-06	3.608293e-07	-2.233342e-10	2.505890e+00	-2.029532e+01
1.930000e-06	4.075126e-07	-2.057861e-10	2.830096e+00	-1.876421e+01
1.940000e-06	4.541676e-07	-1.875692e-10	3.154106e+00	-1.720131e+01
1.950000e-06	5.007817e-07	-1.655696e-10	3.477832e+00	-1.560765e+01
1.960000e-06	5.473928e-07	-1.408516e-10	3.801537e+00	-1.398442e+01
1.970000e-06	5.939375e-07	-1.158152e-10	4.124782e+00	-1.233291e+01
1.980000e-06	6.404134e-07	-9.087037e-11	4.447548e+00	-1.065457e+01
1.990000e-06	6.868464e-07	-6.543409e-11	4.770016e+00	-8.950945e+00
2.000000e-06	7.332110e-07	-3.946660e-11	5.092009e+00	-7.223712e+00
2.010000e-06	7.795454e-07	-1.464586e-11	5.413792e+00	-5.474657e+00
2.020000e-06	8.259044e-07	9.420317e-12	5.735747e+00	-3.705670e+00
2.030000e-06	8.722331e-07	3.208131e-11	6.057491e+00	-1.918741e+00
2.040000e-06	9.184637e-07	5.423874e-11	6.378553e+00	-1.159473e-01
2.050000e-06	9.645517e-07	7.802466e-11	6.698626e+00	1.700551e+00
2.060000e-06	1.010495e-06	1.048048e-10	7.017695e+00	3.528523e+00
2.070000e-06	1.056451e-06	1.335022e-10	7.336845e+00	5.365677e+00
2.080000e-06	1.102431e-06	1.609047e-10	7.656169e+00	7.209672e+00
2.090000e-06	1.148264e-06	1.854725e-10	7.974472e+00	9.058125e+00
2.100000e-06	1.193934e-06	2.088372e-10	8.291640e+00	1.090863e+01
2.110000e-06	1.239460e-06	2.324580e-10	8.607808e+00	1.275875e+01
2.120000e-06	1.284963e-06	2.564856e-10	8.923821e+00	1.460607e+01
2.130000e-06	1.330491e-06	2.804327e-10	9.240005e+00	1.644814e+01
2.140000e-06	1.375914e-06	3.036733e-10	9.555458e+00	1.828258e+01
2.150000e-06	1.421199e-06	3.271028e-10	9.869951e+00	2.010700e+01
2.160000e-06	1.466366e-06	3.519602e-10	1.018363e+01	2.191907e+01
2.170000e-06	1.511449e-06	3.766037e-10	1.049672e+01	2.371650e+01
2.180000e-06	1.556386e-06	4.005401e-10	1.080880e+01	2.549708e+01
2.190000e-06	1.601170e-06	4.241629e-10	1.111982e+01	2.725865e+01
2.200000e-06	1.645891e-06	4.481173e-10	1.143039e+01	2.899915e+01
2.210000e-06	1.690488e-06	4.721925e-10	1.174011e+01	3.071661e+01
2.220000e-06	1.734962e-06	4.967769e-10	1.204898e+01	3.240916e+01
2.230000e-06	1.779314e-06	5.215441e-10	1.235699e+01	3.407504e+01
2.240000e-06	1.823521e-06	5.440256e-10	1.266400e+01	3.571259e+01
2.250000e-06	1.867615e-06	5.628717e-10	1.297023e+01	3.732029e+01
2.260000e-06	1.911611e-06	5.794870e-10	1.327577e+01	3.889673e+01
2.270000e-06	1.955538e-06	5.974007e-10	1.358084e+01	4.044064e+01
2.280000e-06	1.999391e-06	6.189546e-10	1.388539e+01	4.195089e+01
2.290000e-06	2.043165e-06	6.399861e-10	1.418939e+01	4.342646e+01
2.300000e-06	2.086882e-06	6.593682e-10	1.449299e+01	4.486650e+01
2.310000e-06	2.130549e-06	6.798528e-10	1.479625e+01	4.627028e+01
2.320000e-06	2.174147e-06	7.000855e-10	1.509903e+01	4.763719e+01
2.330000e-06	2.217624e-06	7.183766e-10	1.540097e+01	4.896680e+01
2.340000e-06	2.260980e-06	7.348174e-10	1.570207e+01	5.025877e+01
2.350000e-06	2.304194e-06	7.508429e-10	1.600218e+01	5.151291e+01
2.360000e-06	2.347211e-06	7.671816e-10	1.630093e+01	5.272917e+01
2.370000e-06	2.389992e-06	7.849081e-10	1.659803e+01	5.390760e+01
2.380000e-06	2.432373e-06	8.007022e-10	1.689236e+01	5.504837e+01
2.390000e-06	2.474422e-06	8.136214e-10	1.718438e+01	5.615178e+01
2.400000e-06	2.516250e-06	8.283179e-10	1.747487e+01	5.721820e+01
2.410000e-06	2.557657e-06	8.436059e-10	1.776244e+01	5.824813e+01
2.420000e-06	2.598632e-06	8.561091e-10	1.804700e+01	5.924214e+01
2.430000e-06	2.639369e-06	8.671152e-10	1.832991e+01	6.020090e+01
2.440000e-06	2.679902e-06	8.779622e-10	1.861140e+01	6.112513e+01
2.450000e-06	2.720213e-06	8.884559e-10	1.889136e+01	6.201563e+01
2.460000e-06	2.760335e-06	8.993619e-10	1.917000e+01	6.287327e+01
2.470000e-06	2.800295e-06	9.120258e-10	1.944751e+01	6.369893e+01
2.480000e-06	2.840165e-06	9.234020e-10	1.972440e+01	6.449358e+01
2.490000e-06	2.879902e-06	9.335307e-10	2.000036e+01	6.525817e+01
2.500000e-06	2.919510e-06	9.441017e-10	2.027543e+01	6.599372e+01
2.510000e-06	2.959043e-06	9.528834e-10	2.054998e+01	6.670123e+01
2.520000e-06	2.998420e-06	9.603147e-10	2.082345e+01	6.738173e+01
2.530000e-06	3.037603e-06	9.681730e-10	2.109557e+01	6.803625e+01
2.540000e-06	3.076618e-06	9.751373e-10	2.136651e+01	6.866579e+01
2.550000e-06	3.115432e-06	9.811799e-10	2.163607e+01	6.927137e+01
2.560000e-06	3.153950e-06	9.880981e-10	2.190357e+01	6.985397e+01
2.570000e-06	3.192197e-06	9.958035e-10	2.216919e+01	7.041455e+01
2.580000e-06	3.230214e-06	1.003007e-09	2.243321e+01	7.095405e+01
2.590000e-06	3.267982e-06	1.010136e-09	2.269550e+01	7.147336e+01
2.600000e-06	3.305588e-06	1.018139e-09	2.295667e+01	7.197335e+01
2.610000e-06	3.343021e-06	1.026366e-09	2.321663e+01	7.245484e+01
2.620000e-06	3.380174e-06	1.033723e-09	2.347466e+01	7.291862e+01
2.630000e-06	3.416998e-06	1.040655e-09	2.373039e+01	7.336542e+01
2.640000e-06	3.453562e-06	1.047602e-09	2.398432e+01	7.379593e+01
2.650000e-06	3.489874e-06	1.054043e-09	2.423650e+01	7.421081e+01
2.660000e-06	3.525970e-06	1.060263e-09	2.448718e+01	7.461065e+01
2.670000e-06	3.561925e-06	1.065398e-09	2.473688e+01	7.499601e+01
2.680000e-06	3.597738e-06	1.069523e-09	2.498559e+01	7.536741e+01
2.690000e-06	3.633462e-06	1.073792e-09	2.523369e+01	7.572531e+01
2.700000e-06	3.669143e-06	1.079352e-09	2.548149e+01	7.607014e+01
2.710000e-06	3.704662e-06	1.084974e-09	2.572816e+01	7.640229e+01
2.720000e-06	3.739837e-06	1.091465e-09	2.597245e+01	7.672213e+01
2.730000e-06	3.774666e-06	1.098475e-09	2.621433e+01	7.702996e+01
2.740000e-06	3.809141e-06	1.102871e-09	2.645375e+01	7.732609e+01
2.750000e-06	3.843173e-06	1.104691e-09	2.669010e+01	7.761078e+01
2.760000e-06	3.876627e-06	1.105143e-09	2.692243e+01	7.788426e+01
2.770000e-06	3.909549e-06	1.106256e-09	2.715106e+01	7.814677e+01
2.780000e-06	3.942115e-06	1.109434e-09	2.737722e+01	7.839850e+01
2.790000e-06	3.974368e-06	1.116952e-09	2.760122e+01	7.863965e+01
2.800000e-06	4.006438e-06	1.124603e-09	2.782394e+01	7.887041e+01
2.810000e-06	4.038368e-06	1.129802e-09	2.804569e+01	7.909095e+01
2.820000e-06	4.070076e-06	1.133481e-09	2.826589e+01	7.930144e+01
2.830000e-06	4.101637e-06	1.135252e-09	2.848508e+01	7.950205e+01
2.840000e-06	4.133039e-06	1.135565e-09	2.870316e+01	7.969297e+01
2.850000e-06	4.164140e-06	1.133098e-09	2.891915e+01	7.987437e+01
2.860000e-06	4.194889e-06	1.132628e-09	2.913269e+01	8.004643e+01
2.870000e-06	4.225229e-06	1.136749e-09	2.934340e+01	8.020936e+01
2.880000e-06	4.255247e-06	1.141919e-09	2.955187e+01	8.036336e+01
2.890000e-06	4.285050e-06	1.146531e-09	2.975884e+01	8.050864e+01
2.900000e-06	4.314581e-06	1.148825e-09	2.996393e+01	8.064543e+01
