# Temperatura_=_4.66
# Concentracion g/m^3_=_1620.0
# C_Vs_to_Am_M_A/Vsm_=_65563218390.804596
# pendiente_HvsI_1/m_=_3716.3
# ordenada_HvsI_A/m_=_1297.0
# frecuencia_Hz_=_135099.65547334365

Tiempo_(s)	Campo_(V.s)	Magnetizacion_(V.s)	Campo_(kA/m)	Magnetizacion_(A/m)
0.000000e+00	-5.539962e-06	-1.458588e-09	-3.837379e+01	-9.665474e+01
1.000000e-08	-5.540012e-06	-1.454995e-09	-3.837414e+01	-9.663504e+01
2.000000e-08	-5.539812e-06	-1.451947e-09	-3.837275e+01	-9.661670e+01
3.000000e-08	-5.539285e-06	-1.449670e-09	-3.836910e+01	-9.659948e+01
4.000000e-08	-5.538242e-06	-1.453402e-09	-3.836188e+01	-9.658317e+01
5.000000e-08	-5.536645e-06	-1.456908e-09	-3.835081e+01	-9.656748e+01
6.000000e-08	-5.534404e-06	-1.466325e-09	-3.833529e+01	-9.655214e+01
7.000000e-08	-5.531565e-06	-1.463413e-09	-3.831563e+01	-9.653685e+01
8.000000e-08	-5.528307e-06	-1.424339e-09	-3.829306e+01	-9.652127e+01
9.000000e-08	-5.524552e-06	-1.431389e-09	-3.826705e+01	-9.650508e+01
1.000000e-07	-5.520374e-06	-1.555290e-09	-3.823811e+01	-9.648792e+01
1.100000e-07	-5.515824e-06	-1.514836e-09	-3.820659e+01	-9.646944e+01
1.200000e-07	-5.511023e-06	-1.356857e-09	-3.817334e+01	-9.644929e+01
1.300000e-07	-5.506083e-06	-1.340908e-09	-3.813912e+01	-9.642711e+01
1.400000e-07	-5.500804e-06	-1.513083e-09	-3.810256e+01	-9.640254e+01
1.500000e-07	-5.495021e-06	-1.571427e-09	-3.806250e+01	-9.637525e+01
1.600000e-07	-5.488857e-06	-1.374878e-09	-3.801980e+01	-9.634488e+01
1.700000e-07	-5.482425e-06	-1.326839e-09	-3.797525e+01	-9.631112e+01
1.800000e-07	-5.475481e-06	-1.466973e-09	-3.792715e+01	-9.627366e+01
1.900000e-07	-5.468059e-06	-1.540628e-09	-3.787574e+01	-9.623222e+01
2.000000e-07	-5.460397e-06	-1.424478e-09	-3.782267e+01	-9.618652e+01
2.100000e-07	-5.452591e-06	-1.385119e-09	-3.776860e+01	-9.613634e+01
2.200000e-07	-5.444531e-06	-1.463441e-09	-3.771277e+01	-9.608144e+01
2.300000e-07	-5.436067e-06	-1.507211e-09	-3.765414e+01	-9.602164e+01
2.400000e-07	-5.427245e-06	-1.424597e-09	-3.759304e+01	-9.595680e+01
2.500000e-07	-5.417804e-06	-1.385068e-09	-3.752764e+01	-9.588677e+01
2.600000e-07	-5.407475e-06	-1.439163e-09	-3.745609e+01	-9.581146e+01
2.700000e-07	-5.396618e-06	-1.485298e-09	-3.738089e+01	-9.573082e+01
2.800000e-07	-5.385411e-06	-1.441350e-09	-3.730326e+01	-9.564480e+01
2.900000e-07	-5.373696e-06	-1.396891e-09	-3.722212e+01	-9.555341e+01
3.000000e-07	-5.361545e-06	-1.429423e-09	-3.713795e+01	-9.545668e+01
3.100000e-07	-5.349061e-06	-1.462819e-09	-3.705147e+01	-9.535466e+01
3.200000e-07	-5.336179e-06	-1.420827e-09	-3.696224e+01	-9.524746e+01
3.300000e-07	-5.322831e-06	-1.367965e-09	-3.686978e+01	-9.513518e+01
3.400000e-07	-5.309096e-06	-1.432330e-09	-3.677464e+01	-9.501796e+01
3.500000e-07	-5.295092e-06	-1.480360e-09	-3.667764e+01	-9.489598e+01
3.600000e-07	-5.280651e-06	-1.413189e-09	-3.657762e+01	-9.476942e+01
3.700000e-07	-5.265588e-06	-1.377333e-09	-3.647328e+01	-9.463849e+01
3.800000e-07	-5.250045e-06	-1.453403e-09	-3.636562e+01	-9.450339e+01
3.900000e-07	-5.233864e-06	-1.413853e-09	-3.625354e+01	-9.436438e+01
4.000000e-07	-5.217091e-06	-1.341069e-09	-3.613735e+01	-9.422169e+01
4.100000e-07	-5.200078e-06	-1.437824e-09	-3.601951e+01	-9.407557e+01
4.200000e-07	-5.182823e-06	-1.492046e-09	-3.589999e+01	-9.392627e+01
4.300000e-07	-5.165184e-06	-1.343222e-09	-3.577781e+01	-9.377406e+01
4.400000e-07	-5.147227e-06	-1.350495e-09	-3.565342e+01	-9.361917e+01
4.500000e-07	-5.128978e-06	-1.485503e-09	-3.552702e+01	-9.346187e+01
4.600000e-07	-5.110310e-06	-1.395962e-09	-3.539771e+01	-9.330239e+01
4.700000e-07	-5.091228e-06	-1.290293e-09	-3.526554e+01	-9.314097e+01
4.800000e-07	-5.071849e-06	-1.437174e-09	-3.513130e+01	-9.297781e+01
4.900000e-07	-5.052218e-06	-1.449349e-09	-3.499532e+01	-9.281312e+01
5.000000e-07	-5.032311e-06	-1.306345e-09	-3.485743e+01	-9.264708e+01
5.100000e-07	-5.012188e-06	-1.382724e-09	-3.471804e+01	-9.247986e+01
5.200000e-07	-4.991783e-06	-1.465588e-09	-3.457671e+01	-9.231161e+01
5.300000e-07	-4.970990e-06	-1.311523e-09	-3.443268e+01	-9.214245e+01
5.400000e-07	-4.949782e-06	-1.313501e-09	-3.428578e+01	-9.197247e+01
5.500000e-07	-4.928245e-06	-1.464122e-09	-3.413660e+01	-9.180176e+01
5.600000e-07	-4.906404e-06	-1.381339e-09	-3.398531e+01	-9.163037e+01
5.700000e-07	-4.884141e-06	-1.288721e-09	-3.383110e+01	-9.145832e+01
5.800000e-07	-4.861532e-06	-1.407876e-09	-3.367450e+01	-9.128563e+01
5.900000e-07	-4.838642e-06	-1.403216e-09	-3.351594e+01	-9.111228e+01
6.000000e-07	-4.815433e-06	-1.285804e-09	-3.335518e+01	-9.093823e+01
6.100000e-07	-4.791968e-06	-1.348919e-09	-3.319265e+01	-9.076340e+01
6.200000e-07	-4.768245e-06	-1.399916e-09	-3.302832e+01	-9.058774e+01
6.300000e-07	-4.744231e-06	-1.317815e-09	-3.286198e+01	-9.041113e+01
6.400000e-07	-4.720015e-06	-1.330124e-09	-3.269425e+01	-9.023345e+01
6.500000e-07	-4.695428e-06	-1.388934e-09	-3.252394e+01	-9.005458e+01
6.600000e-07	-4.670276e-06	-1.333087e-09	-3.234972e+01	-8.987438e+01
6.700000e-07	-4.644720e-06	-1.315309e-09	-3.217269e+01	-8.969267e+01
6.800000e-07	-4.618684e-06	-1.360218e-09	-3.199235e+01	-8.950931e+01
6.900000e-07	-4.592026e-06	-1.336221e-09	-3.180770e+01	-8.932412e+01
7.000000e-07	-4.564853e-06	-1.306932e-09	-3.161948e+01	-8.913692e+01
7.100000e-07	-4.537342e-06	-1.344825e-09	-3.142892e+01	-8.894754e+01
7.200000e-07	-4.509644e-06	-1.338186e-09	-3.123706e+01	-8.875579e+01
7.300000e-07	-4.481775e-06	-1.304656e-09	-3.104402e+01	-8.856152e+01
7.400000e-07	-4.453754e-06	-1.313493e-09	-3.084993e+01	-8.836454e+01
7.500000e-07	-4.425552e-06	-1.315137e-09	-3.065458e+01	-8.816468e+01
7.600000e-07	-4.397065e-06	-1.291173e-09	-3.045726e+01	-8.796181e+01
7.700000e-07	-4.368275e-06	-1.302265e-09	-3.025784e+01	-8.775577e+01
7.800000e-07	-4.339107e-06	-1.307884e-09	-3.005580e+01	-8.754642e+01
7.900000e-07	-4.309575e-06	-1.285922e-09	-2.985124e+01	-8.733365e+01
8.000000e-07	-4.279782e-06	-1.284872e-09	-2.964487e+01	-8.711735e+01
8.100000e-07	-4.249767e-06	-1.295719e-09	-2.943696e+01	-8.689742e+01
8.200000e-07	-4.219435e-06	-1.272561e-09	-2.922687e+01	-8.667378e+01
8.300000e-07	-4.188766e-06	-1.261262e-09	-2.901443e+01	-8.644638e+01
8.400000e-07	-4.157855e-06	-1.280808e-09	-2.880032e+01	-8.621516e+01
8.500000e-07	-4.126673e-06	-1.278529e-09	-2.858433e+01	-8.598008e+01
8.600000e-07	-4.095214e-06	-1.260281e-09	-2.836642e+01	-8.574115e+01
8.700000e-07	-4.063560e-06	-1.265059e-09	-2.814716e+01	-8.549833e+01
8.800000e-07	-4.031786e-06	-1.263023e-09	-2.792707e+01	-8.525166e+01
8.900000e-07	-3.999840e-06	-1.239763e-09	-2.770579e+01	-8.500114e+01
9.000000e-07	-3.967667e-06	-1.239650e-09	-2.748294e+01	-8.474681e+01
9.100000e-07	-3.935103e-06	-1.249417e-09	-2.725738e+01	-8.448871e+01
9.200000e-07	-3.902032e-06	-1.235748e-09	-2.702830e+01	-8.422690e+01
9.300000e-07	-3.868537e-06	-1.229437e-09	-2.679629e+01	-8.396142e+01
9.400000e-07	-3.834702e-06	-1.243887e-09	-2.656193e+01	-8.369235e+01
9.500000e-07	-3.800409e-06	-1.233266e-09	-2.632438e+01	-8.341974e+01
9.600000e-07	-3.765593e-06	-1.212860e-09	-2.608322e+01	-8.314366e+01
9.700000e-07	-3.730538e-06	-1.216815e-09	-2.584041e+01	-8.286418e+01
9.800000e-07	-3.695245e-06	-1.218589e-09	-2.559595e+01	-8.258135e+01
9.900000e-07	-3.659690e-06	-1.199489e-09	-2.534967e+01	-8.229525e+01
1.000000e-06	-3.624034e-06	-1.196976e-09	-2.510269e+01	-8.200593e+01
1.010000e-06	-3.588163e-06	-1.204355e-09	-2.485422e+01	-8.171342e+01
1.020000e-06	-3.552081e-06	-1.194899e-09	-2.460428e+01	-8.141777e+01
1.030000e-06	-3.515858e-06	-1.185808e-09	-2.435338e+01	-8.111901e+01
1.040000e-06	-3.479386e-06	-1.190764e-09	-2.410075e+01	-8.081716e+01
1.050000e-06	-3.442579e-06	-1.181320e-09	-2.384580e+01	-8.051222e+01
1.060000e-06	-3.405489e-06	-1.163975e-09	-2.358889e+01	-8.020418e+01
1.070000e-06	-3.368175e-06	-1.160684e-09	-2.333042e+01	-7.989302e+01
1.080000e-06	-3.330561e-06	-1.159392e-09	-2.306988e+01	-7.957871e+01
1.090000e-06	-3.292753e-06	-1.148522e-09	-2.280799e+01	-7.926120e+01
1.100000e-06	-3.254833e-06	-1.147158e-09	-2.254533e+01	-7.894043e+01
1.110000e-06	-3.216594e-06	-1.149997e-09	-2.228046e+01	-7.861631e+01
1.120000e-06	-3.178098e-06	-1.138926e-09	-2.201381e+01	-7.828876e+01
1.130000e-06	-3.139441e-06	-1.127157e-09	-2.174604e+01	-7.795768e+01
1.140000e-06	-3.100497e-06	-1.127559e-09	-2.147629e+01	-7.762295e+01
1.150000e-06	-3.061367e-06	-1.124133e-09	-2.120525e+01	-7.728443e+01
1.160000e-06	-3.022058e-06	-1.113860e-09	-2.093296e+01	-7.694200e+01
1.170000e-06	-2.982595e-06	-1.108170e-09	-2.065961e+01	-7.659550e+01
1.180000e-06	-2.943035e-06	-1.105344e-09	-2.038559e+01	-7.624477e+01
1.190000e-06	-2.903342e-06	-1.102546e-09	-2.011065e+01	-7.588965e+01
1.200000e-06	-2.863497e-06	-1.102123e-09	-1.983466e+01	-7.552998e+01
1.210000e-06	-2.823462e-06	-1.099329e-09	-1.955734e+01	-7.516557e+01
1.220000e-06	-2.783315e-06	-1.089791e-09	-1.927926e+01	-7.479624e+01
1.230000e-06	-2.743049e-06	-1.083179e-09	-1.900035e+01	-7.442182e+01
1.240000e-06	-2.702595e-06	-1.079402e-09	-1.872013e+01	-7.404211e+01
1.250000e-06	-2.661881e-06	-1.073605e-09	-1.843812e+01	-7.365693e+01
1.260000e-06	-2.620844e-06	-1.067541e-09	-1.815386e+01	-7.326610e+01
1.270000e-06	-2.579540e-06	-1.061950e-09	-1.786776e+01	-7.286943e+01
1.280000e-06	-2.537997e-06	-1.055148e-09	-1.758001e+01	-7.246674e+01
1.290000e-06	-2.496120e-06	-1.046947e-09	-1.728994e+01	-7.205784e+01
1.300000e-06	-2.453858e-06	-1.039142e-09	-1.699720e+01	-7.164255e+01
1.310000e-06	-2.411322e-06	-1.033011e-09	-1.670257e+01	-7.122070e+01
1.320000e-06	-2.368536e-06	-1.024923e-09	-1.640619e+01	-7.079210e+01
1.330000e-06	-2.325501e-06	-1.014879e-09	-1.610811e+01	-7.035656e+01
1.340000e-06	-2.282316e-06	-1.006528e-09	-1.580897e+01	-6.991392e+01
1.350000e-06	-2.238982e-06	-1.003341e-09	-1.550881e+01	-6.946398e+01
1.360000e-06	-2.195513e-06	-9.998519e-10	-1.520772e+01	-6.900656e+01
1.370000e-06	-2.151850e-06	-9.941607e-10	-1.490527e+01	-6.854146e+01
1.380000e-06	-2.108068e-06	-9.852390e-10	-1.460201e+01	-6.806848e+01
1.390000e-06	-2.064271e-06	-9.748515e-10	-1.429863e+01	-6.758741e+01
1.400000e-06	-2.020384e-06	-9.643683e-10	-1.399464e+01	-6.709803e+01
1.410000e-06	-1.976432e-06	-9.552284e-10	-1.369020e+01	-6.660011e+01
1.420000e-06	-1.932366e-06	-9.451539e-10	-1.338497e+01	-6.609337e+01
1.430000e-06	-1.888157e-06	-9.377776e-10	-1.307874e+01	-6.557757e+01
1.440000e-06	-1.843884e-06	-9.315578e-10	-1.277208e+01	-6.505239e+01
1.450000e-06	-1.799488e-06	-9.243729e-10	-1.246456e+01	-6.451753e+01
1.460000e-06	-1.754982e-06	-9.151074e-10	-1.215628e+01	-6.397262e+01
1.470000e-06	-1.710425e-06	-9.029339e-10	-1.184764e+01	-6.341730e+01
1.480000e-06	-1.665669e-06	-8.914642e-10	-1.153763e+01	-6.285116e+01
1.490000e-06	-1.620711e-06	-8.807803e-10	-1.122622e+01	-6.227375e+01
1.500000e-06	-1.575709e-06	-8.688004e-10	-1.091450e+01	-6.168458e+01
1.510000e-06	-1.530574e-06	-8.575659e-10	-1.060186e+01	-6.108315e+01
1.520000e-06	-1.485298e-06	-8.481079e-10	-1.028825e+01	-6.046889e+01
1.530000e-06	-1.439875e-06	-8.379888e-10	-9.973620e+00	-5.984119e+01
1.540000e-06	-1.394301e-06	-8.275631e-10	-9.657941e+00	-5.919942e+01
1.550000e-06	-1.348736e-06	-8.162969e-10	-9.342325e+00	-5.854289e+01
1.560000e-06	-1.303112e-06	-8.044665e-10	-9.026299e+00	-5.787087e+01
1.570000e-06	-1.257321e-06	-7.929907e-10	-8.709117e+00	-5.718260e+01
1.580000e-06	-1.211452e-06	-7.824533e-10	-8.391392e+00	-5.647725e+01
1.590000e-06	-1.165517e-06	-7.709945e-10	-8.073218e+00	-5.575398e+01
1.600000e-06	-1.119478e-06	-7.591449e-10	-7.754315e+00	-5.501191e+01
1.610000e-06	-1.073379e-06	-7.468043e-10	-7.435001e+00	-5.425010e+01
1.620000e-06	-1.027192e-06	-7.378410e-10	-7.115076e+00	-5.346762e+01
1.630000e-06	-9.809105e-07	-7.309046e-10	-6.794497e+00	-5.266348e+01
1.640000e-06	-9.345889e-07	-7.197861e-10	-6.473640e+00	-5.183667e+01
1.650000e-06	-8.881614e-07	-7.045232e-10	-6.152050e+00	-5.098618e+01
1.660000e-06	-8.415608e-07	-6.876937e-10	-5.829260e+00	-5.011097e+01
1.670000e-06	-7.949553e-07	-6.685490e-10	-5.506437e+00	-4.921001e+01
1.680000e-06	-7.484489e-07	-6.509524e-10	-5.184300e+00	-4.828226e+01
1.690000e-06	-7.019588e-07	-6.346687e-10	-4.862276e+00	-4.732667e+01
1.700000e-06	-6.553987e-07	-6.201709e-10	-4.539767e+00	-4.634225e+01
1.710000e-06	-6.086350e-07	-6.106692e-10	-4.215847e+00	-4.532798e+01
1.720000e-06	-5.618020e-07	-5.990942e-10	-3.891448e+00	-4.428290e+01
1.730000e-06	-5.150930e-07	-5.823516e-10	-3.567907e+00	-4.320608e+01
1.740000e-06	-4.683612e-07	-5.607819e-10	-3.244209e+00	-4.209664e+01
1.750000e-06	-4.214725e-07	-5.392479e-10	-2.919424e+00	-4.095375e+01
1.760000e-06	-3.745145e-07	-5.179717e-10	-2.594159e+00	-3.977664e+01
1.770000e-06	-3.276459e-07	-4.994034e-10	-2.269513e+00	-3.856460e+01
1.780000e-06	-2.807934e-07	-4.863091e-10	-1.944979e+00	-3.731703e+01
1.790000e-06	-2.337735e-07	-4.767987e-10	-1.619284e+00	-3.603338e+01
1.800000e-06	-1.866750e-07	-4.650580e-10	-1.293046e+00	-3.471323e+01
1.810000e-06	-1.396458e-07	-4.473738e-10	-9.672878e-01	-3.335623e+01
1.820000e-06	-9.262589e-08	-4.242411e-10	-6.415941e-01	-3.196215e+01
1.830000e-06	-4.559408e-08	-3.989832e-10	-3.158177e-01	-3.053089e+01
1.840000e-06	1.450585e-09	-3.738707e-10	1.004780e-02	-2.906244e+01
1.850000e-06	4.854943e-08	-3.505993e-10	3.362886e-01	-2.755695e+01
1.860000e-06	9.559558e-08	-3.321817e-10	6.621642e-01	-2.601467e+01
1.870000e-06	1.425814e-07	-3.139612e-10	9.876219e-01	-2.443599e+01
1.880000e-06	1.896027e-07	-2.954548e-10	1.313326e+00	-2.282147e+01
1.890000e-06	2.365866e-07	-2.730779e-10	1.638770e+00	-2.117175e+01
1.900000e-06	2.835383e-07	-2.464226e-10	1.963992e+00	-1.948767e+01
1.910000e-06	3.304624e-07	-2.197889e-10	2.289022e+00	-1.777016e+01
1.920000e-06	3.773800e-07	-1.941153e-10	2.614007e+00	-1.602033e+01
1.930000e-06	4.243720e-07	-1.704667e-10	2.939508e+00	-1.423940e+01
1.940000e-06	4.713042e-07	-1.483009e-10	3.264594e+00	-1.242875e+01
1.950000e-06	5.181014e-07	-1.260160e-10	3.588746e+00	-1.058986e+01
1.960000e-06	5.648387e-07	-1.027514e-10	3.912482e+00	-8.724380e+00
1.970000e-06	6.115328e-07	-7.742129e-11	4.235919e+00	-6.834048e+00
1.980000e-06	6.582243e-07	-5.123554e-11	4.559339e+00	-4.920734e+00
1.990000e-06	7.049184e-07	-2.181695e-11	4.882776e+00	-2.986416e+00
2.000000e-06	7.515195e-07	9.516803e-12	5.205568e+00	-1.033173e+00
2.010000e-06	7.980519e-07	3.906673e-11	5.527886e+00	9.368220e-01
2.020000e-06	8.445624e-07	6.622260e-11	5.850051e+00	2.921313e+00
2.030000e-06	8.910296e-07	9.280867e-11	6.171917e+00	4.917968e+00
2.040000e-06	9.373961e-07	1.183854e-10	6.493085e+00	6.924392e+00
2.050000e-06	9.836686e-07	1.439760e-10	6.813602e+00	8.938140e+00
2.060000e-06	1.029860e-06	1.709828e-10	7.133556e+00	1.095672e+01
2.070000e-06	1.075969e-06	2.000601e-10	7.452938e+00	1.297762e+01
2.080000e-06	1.122040e-06	2.298190e-10	7.772062e+00	1.499829e+01
2.090000e-06	1.168012e-06	2.601328e-10	8.090496e+00	1.701621e+01
2.100000e-06	1.213873e-06	2.904917e-10	8.408161e+00	1.902882e+01
2.110000e-06	1.259702e-06	3.187479e-10	8.725612e+00	2.103362e+01
2.120000e-06	1.305405e-06	3.465623e-10	9.042178e+00	2.302812e+01
2.130000e-06	1.350900e-06	3.739892e-10	9.357312e+00	2.500988e+01
2.140000e-06	1.396289e-06	3.985279e-10	9.671707e+00	2.697650e+01
2.150000e-06	1.441648e-06	4.229811e-10	9.985897e+00	2.892567e+01
2.160000e-06	1.486934e-06	4.512282e-10	1.029958e+01	3.085513e+01
2.170000e-06	1.532081e-06	4.807258e-10	1.061230e+01	3.276273e+01
2.180000e-06	1.577127e-06	5.083291e-10	1.092432e+01	3.464638e+01
2.190000e-06	1.622101e-06	5.349241e-10	1.123585e+01	3.650414e+01
2.200000e-06	1.666945e-06	5.619631e-10	1.154647e+01	3.833414e+01
2.210000e-06	1.711571e-06	5.858760e-10	1.185558e+01	4.013466e+01
2.220000e-06	1.756029e-06	6.078800e-10	1.216353e+01	4.190409e+01
2.230000e-06	1.800324e-06	6.293340e-10	1.247035e+01	4.364095e+01
2.240000e-06	1.844495e-06	6.499304e-10	1.277631e+01	4.534390e+01
2.250000e-06	1.888620e-06	6.710478e-10	1.308195e+01	4.701173e+01
2.260000e-06	1.932663e-06	6.934322e-10	1.338702e+01	4.864340e+01
2.270000e-06	1.976618e-06	7.158119e-10	1.369149e+01	5.023797e+01
2.280000e-06	2.020514e-06	7.362787e-10	1.399555e+01	5.179469e+01
2.290000e-06	2.064343e-06	7.544731e-10	1.429914e+01	5.331291e+01
2.300000e-06	2.108114e-06	7.725460e-10	1.460232e+01	5.479214e+01
2.310000e-06	2.151850e-06	7.912047e-10	1.490527e+01	5.623205e+01
2.320000e-06	2.195502e-06	8.097825e-10	1.520764e+01	5.763242e+01
2.330000e-06	2.239060e-06	8.285249e-10	1.550936e+01	5.899317e+01
2.340000e-06	2.282437e-06	8.487716e-10	1.580982e+01	6.031435e+01
2.350000e-06	2.325575e-06	8.692172e-10	1.610862e+01	6.159613e+01
2.360000e-06	2.368530e-06	8.883093e-10	1.640615e+01	6.283881e+01
2.370000e-06	2.411355e-06	9.055693e-10	1.670279e+01	6.404279e+01
2.380000e-06	2.454033e-06	9.192960e-10	1.699841e+01	6.520856e+01
2.390000e-06	2.496295e-06	9.324345e-10	1.729115e+01	6.633673e+01
2.400000e-06	2.538120e-06	9.469738e-10	1.758086e+01	6.742798e+01
2.410000e-06	2.579731e-06	9.629674e-10	1.786909e+01	6.848307e+01
2.420000e-06	2.621053e-06	9.781637e-10	1.815531e+01	6.950284e+01
2.430000e-06	2.662039e-06	9.910832e-10	1.843921e+01	7.048819e+01
2.440000e-06	2.702799e-06	1.002936e-09	1.872154e+01	7.144006e+01
2.450000e-06	2.743321e-06	1.014351e-09	1.900223e+01	7.235944e+01
2.460000e-06	2.783574e-06	1.026311e-09	1.928105e+01	7.324736e+01
2.470000e-06	2.823637e-06	1.037975e-09	1.955856e+01	7.410487e+01
2.480000e-06	2.863564e-06	1.047862e-09	1.983512e+01	7.493305e+01
2.490000e-06	2.903343e-06	1.058303e-09	2.011066e+01	7.573296e+01
2.500000e-06	2.942971e-06	1.068892e-09	2.038515e+01	7.650569e+01
2.510000e-06	2.982515e-06	1.078910e-09	2.065906e+01	7.725233e+01
2.520000e-06	3.021931e-06	1.089277e-09	2.093208e+01	7.797392e+01
2.530000e-06	3.061093e-06	1.098119e-09	2.120335e+01	7.867153e+01
2.540000e-06	3.099997e-06	1.106025e-09	2.147283e+01	7.934616e+01
2.550000e-06	3.138652e-06	1.114945e-09	2.174058e+01	7.999882e+01
2.560000e-06	3.177081e-06	1.124577e-09	2.200677e+01	8.063046e+01
2.570000e-06	3.215239e-06	1.133898e-09	2.227108e+01	8.124200e+01
2.580000e-06	3.253204e-06	1.142668e-09	2.253405e+01	8.183432e+01
2.590000e-06	3.291077e-06	1.151507e-09	2.279638e+01	8.240825e+01
2.600000e-06	3.328781e-06	1.159618e-09	2.305755e+01	8.296459e+01
2.610000e-06	3.366275e-06	1.168071e-09	2.331726e+01	8.350408e+01
2.620000e-06	3.403424e-06	1.177163e-09	2.357458e+01	8.402740e+01
2.630000e-06	3.440301e-06	1.185126e-09	2.383002e+01	8.453521e+01
2.640000e-06	3.477012e-06	1.193174e-09	2.408431e+01	8.502810e+01
2.650000e-06	3.513416e-06	1.202496e-09	2.433646e+01	8.550661e+01
2.660000e-06	3.549585e-06	1.211317e-09	2.458700e+01	8.597126e+01
2.670000e-06	3.585641e-06	1.218555e-09	2.483675e+01	8.642250e+01
2.680000e-06	3.621520e-06	1.224768e-09	2.508527e+01	8.686075e+01
2.690000e-06	3.657208e-06	1.229341e-09	2.533248e+01	8.728639e+01
2.700000e-06	3.692759e-06	1.233931e-09	2.557873e+01	8.769974e+01
2.710000e-06	3.728171e-06	1.240618e-09	2.582401e+01	8.810114e+01
2.720000e-06	3.763300e-06	1.248009e-09	2.606734e+01	8.849084e+01
2.730000e-06	3.798036e-06	1.254438e-09	2.630795e+01	8.886910e+01
2.740000e-06	3.832343e-06	1.262197e-09	2.654559e+01	8.923614e+01
2.750000e-06	3.866188e-06	1.267578e-09	2.678002e+01	8.959218e+01
2.760000e-06	3.899564e-06	1.271036e-09	2.701120e+01	8.993740e+01
2.770000e-06	3.932449e-06	1.275607e-09	2.723899e+01	9.027198e+01
2.780000e-06	3.964947e-06	1.282605e-09	2.746410e+01	9.059609e+01
2.790000e-06	3.997151e-06	1.292065e-09	2.768716e+01	9.090989e+01
2.800000e-06	4.029102e-06	1.299658e-09	2.790848e+01	9.121354e+01
2.810000e-06	4.060883e-06	1.304104e-09	2.812862e+01	9.150719e+01
2.820000e-06	4.092580e-06	1.307388e-09	2.834817e+01	9.179102e+01
2.830000e-06	4.124136e-06	1.311222e-09	2.856676e+01	9.206518e+01
2.840000e-06	4.155419e-06	1.315959e-09	2.878344e+01	9.232984e+01
2.850000e-06	4.186469e-06	1.319102e-09	2.899852e+01	9.258519e+01
2.860000e-06	4.217277e-06	1.322460e-09	2.921191e+01	9.283141e+01
2.870000e-06	4.247716e-06	1.328991e-09	2.942276e+01	9.306869e+01
2.880000e-06	4.277769e-06	1.334512e-09	2.963093e+01	9.329726e+01
2.890000e-06	4.307489e-06	1.338727e-09	2.983679e+01	9.351732e+01
2.900000e-06	4.336991e-06	1.341210e-09	3.004114e+01	9.372912e+01
