# Temperatura_=_-8.28
# Concentracion g/m^3_=_1620.0
# C_Vs_to_Am_M_A/Vsm_=_65563218390.804596
# pendiente_HvsI_1/m_=_3716.3
# ordenada_HvsI_A/m_=_1297.0
# frecuencia_Hz_=_135105.11110908835

Tiempo_(s)	Campo_(V.s)	Magnetizacion_(V.s)	Campo_(kA/m)	Magnetizacion_(A/m)
0.000000e+00	-5.520173e-06	-1.195505e-09	-3.837058e+01	-7.826305e+01
1.000000e-08	-5.520409e-06	-1.192448e-09	-3.837222e+01	-7.821398e+01
2.000000e-08	-5.520357e-06	-1.191327e-09	-3.837186e+01	-7.816691e+01
3.000000e-08	-5.519980e-06	-1.192654e-09	-3.836924e+01	-7.812158e+01
4.000000e-08	-5.519110e-06	-1.192486e-09	-3.836319e+01	-7.807771e+01
5.000000e-08	-5.517695e-06	-1.186976e-09	-3.835335e+01	-7.803500e+01
6.000000e-08	-5.515674e-06	-1.173750e-09	-3.833931e+01	-7.799311e+01
7.000000e-08	-5.512980e-06	-1.167826e-09	-3.832058e+01	-7.795170e+01
8.000000e-08	-5.509779e-06	-1.221966e-09	-3.829833e+01	-7.791040e+01
9.000000e-08	-5.506152e-06	-1.267725e-09	-3.827312e+01	-7.786884e+01
1.000000e-07	-5.502088e-06	-1.176482e-09	-3.824487e+01	-7.782662e+01
1.100000e-07	-5.497762e-06	-1.085931e-09	-3.821480e+01	-7.778336e+01
1.200000e-07	-5.493307e-06	-1.158657e-09	-3.818383e+01	-7.773868e+01
1.300000e-07	-5.488475e-06	-1.253943e-09	-3.815024e+01	-7.769218e+01
1.400000e-07	-5.483142e-06	-1.212235e-09	-3.811318e+01	-7.764350e+01
1.500000e-07	-5.477514e-06	-1.095437e-09	-3.807406e+01	-7.759227e+01
1.600000e-07	-5.471549e-06	-1.168109e-09	-3.803260e+01	-7.753815e+01
1.700000e-07	-5.465094e-06	-1.250340e-09	-3.798773e+01	-7.748082e+01
1.800000e-07	-5.458286e-06	-1.219890e-09	-3.794040e+01	-7.741997e+01
1.900000e-07	-5.451209e-06	-1.120512e-09	-3.789121e+01	-7.735535e+01
2.000000e-07	-5.443854e-06	-1.148418e-09	-3.784009e+01	-7.728670e+01
2.100000e-07	-5.436236e-06	-1.210213e-09	-3.778714e+01	-7.721382e+01
2.200000e-07	-5.428330e-06	-1.202471e-09	-3.773218e+01	-7.713653e+01
2.300000e-07	-5.420076e-06	-1.146041e-09	-3.767481e+01	-7.705471e+01
2.400000e-07	-5.411421e-06	-1.134313e-09	-3.761465e+01	-7.696826e+01
2.500000e-07	-5.402120e-06	-1.175509e-09	-3.755000e+01	-7.687711e+01
2.600000e-07	-5.392155e-06	-1.181449e-09	-3.748073e+01	-7.678124e+01
2.700000e-07	-5.381670e-06	-1.153613e-09	-3.740785e+01	-7.668068e+01
2.800000e-07	-5.370630e-06	-1.132605e-09	-3.733111e+01	-7.657549e+01
2.900000e-07	-5.359139e-06	-1.165338e-09	-3.725124e+01	-7.646576e+01
3.000000e-07	-5.347364e-06	-1.156239e-09	-3.716939e+01	-7.635163e+01
3.100000e-07	-5.335169e-06	-1.133901e-09	-3.708462e+01	-7.623325e+01
3.200000e-07	-5.322442e-06	-1.118236e-09	-3.699616e+01	-7.611085e+01
3.300000e-07	-5.309377e-06	-1.174110e-09	-3.690534e+01	-7.598464e+01
3.400000e-07	-5.296033e-06	-1.164468e-09	-3.681259e+01	-7.585488e+01
3.500000e-07	-5.282130e-06	-1.127209e-09	-3.671595e+01	-7.572186e+01
3.600000e-07	-5.267707e-06	-1.133432e-09	-3.661570e+01	-7.558588e+01
3.700000e-07	-5.252988e-06	-1.169495e-09	-3.651339e+01	-7.544726e+01
3.800000e-07	-5.237604e-06	-1.106254e-09	-3.640645e+01	-7.530634e+01
3.900000e-07	-5.221578e-06	-1.096749e-09	-3.629506e+01	-7.516346e+01
4.000000e-07	-5.205311e-06	-1.173517e-09	-3.618198e+01	-7.501898e+01
4.100000e-07	-5.188676e-06	-1.152650e-09	-3.606635e+01	-7.487324e+01
4.200000e-07	-5.171510e-06	-1.062364e-09	-3.594703e+01	-7.472661e+01
4.300000e-07	-5.154086e-06	-1.133340e-09	-3.582592e+01	-7.457942e+01
4.400000e-07	-5.136512e-06	-1.190859e-09	-3.570376e+01	-7.443202e+01
4.500000e-07	-5.118531e-06	-1.080112e-09	-3.557878e+01	-7.428472e+01
4.600000e-07	-5.100069e-06	-1.060989e-09	-3.545045e+01	-7.413784e+01
4.700000e-07	-5.081277e-06	-1.169559e-09	-3.531982e+01	-7.399167e+01
4.800000e-07	-5.062153e-06	-1.118150e-09	-3.518689e+01	-7.384646e+01
4.900000e-07	-5.042696e-06	-1.037830e-09	-3.505165e+01	-7.370247e+01
5.000000e-07	-5.022998e-06	-1.133731e-09	-3.491473e+01	-7.355992e+01
5.100000e-07	-5.003062e-06	-1.149583e-09	-3.477615e+01	-7.341897e+01
5.200000e-07	-4.982815e-06	-1.046056e-09	-3.463542e+01	-7.327980e+01
5.300000e-07	-4.962246e-06	-1.098995e-09	-3.449244e+01	-7.314252e+01
5.400000e-07	-4.941357e-06	-1.174283e-09	-3.434724e+01	-7.300723e+01
5.500000e-07	-4.920063e-06	-1.069935e-09	-3.419923e+01	-7.287399e+01
5.600000e-07	-4.898489e-06	-1.051781e-09	-3.404927e+01	-7.274282e+01
5.700000e-07	-4.876655e-06	-1.145239e-09	-3.389750e+01	-7.261372e+01
5.800000e-07	-4.854382e-06	-1.102729e-09	-3.374269e+01	-7.248665e+01
5.900000e-07	-4.831734e-06	-1.037859e-09	-3.358526e+01	-7.236155e+01
6.000000e-07	-4.808792e-06	-1.117170e-09	-3.342579e+01	-7.223832e+01
6.100000e-07	-4.785507e-06	-1.122361e-09	-3.326393e+01	-7.211683e+01
6.200000e-07	-4.761942e-06	-1.052758e-09	-3.310014e+01	-7.199695e+01
6.300000e-07	-4.738213e-06	-1.082273e-09	-3.293519e+01	-7.187849e+01
6.400000e-07	-4.714196e-06	-1.120035e-09	-3.276825e+01	-7.176128e+01
6.500000e-07	-4.689758e-06	-1.062144e-09	-3.259839e+01	-7.164511e+01
6.600000e-07	-4.664936e-06	-1.064552e-09	-3.242585e+01	-7.152975e+01
6.700000e-07	-4.639732e-06	-1.105785e-09	-3.225065e+01	-7.141497e+01
6.800000e-07	-4.614016e-06	-1.077800e-09	-3.207191e+01	-7.130055e+01
6.900000e-07	-4.587720e-06	-1.052086e-09	-3.188912e+01	-7.118622e+01
7.000000e-07	-4.560966e-06	-1.088006e-09	-3.170316e+01	-7.107176e+01
7.100000e-07	-4.533849e-06	-1.081939e-09	-3.151467e+01	-7.095690e+01
7.200000e-07	-4.506428e-06	-1.054170e-09	-3.132407e+01	-7.084143e+01
7.300000e-07	-4.478773e-06	-1.067762e-09	-3.113183e+01	-7.072510e+01
7.400000e-07	-4.450902e-06	-1.077284e-09	-3.093811e+01	-7.060769e+01
7.500000e-07	-4.422834e-06	-1.054494e-09	-3.074301e+01	-7.048899e+01
7.600000e-07	-4.394500e-06	-1.055025e-09	-3.054605e+01	-7.036882e+01
7.700000e-07	-4.365812e-06	-1.063507e-09	-3.034665e+01	-7.024698e+01
7.800000e-07	-4.336836e-06	-1.047564e-09	-3.014523e+01	-7.012334e+01
7.900000e-07	-4.307578e-06	-1.043539e-09	-2.994187e+01	-6.999774e+01
8.000000e-07	-4.278019e-06	-1.053864e-09	-2.973640e+01	-6.987006e+01
8.100000e-07	-4.248147e-06	-1.043175e-09	-2.952876e+01	-6.974022e+01
8.200000e-07	-4.217968e-06	-1.032052e-09	-2.931898e+01	-6.960814e+01
8.300000e-07	-4.187512e-06	-1.044056e-09	-2.910728e+01	-6.947377e+01
8.400000e-07	-4.156755e-06	-1.040470e-09	-2.889350e+01	-6.933708e+01
8.500000e-07	-4.125638e-06	-1.029088e-09	-2.867720e+01	-6.919806e+01
8.600000e-07	-4.094250e-06	-1.035581e-09	-2.845903e+01	-6.905672e+01
8.700000e-07	-4.062741e-06	-1.036806e-09	-2.824001e+01	-6.891309e+01
8.800000e-07	-4.031109e-06	-1.016901e-09	-2.802013e+01	-6.876724e+01
8.900000e-07	-3.999318e-06	-1.016126e-09	-2.779916e+01	-6.861921e+01
9.000000e-07	-3.967281e-06	-1.020272e-09	-2.757647e+01	-6.846910e+01
9.100000e-07	-3.934910e-06	-1.009587e-09	-2.735146e+01	-6.831699e+01
9.200000e-07	-3.902342e-06	-1.005541e-09	-2.712508e+01	-6.816299e+01
9.300000e-07	-3.869489e-06	-1.016859e-09	-2.689672e+01	-6.800720e+01
9.400000e-07	-3.836016e-06	-1.006849e-09	-2.666405e+01	-6.784974e+01
9.500000e-07	-3.801970e-06	-9.946769e-10	-2.642739e+01	-6.769072e+01
9.600000e-07	-3.767489e-06	-9.981270e-10	-2.618772e+01	-6.753026e+01
9.700000e-07	-3.732612e-06	-9.952800e-10	-2.594529e+01	-6.736847e+01
9.800000e-07	-3.697439e-06	-9.780933e-10	-2.570080e+01	-6.720545e+01
9.900000e-07	-3.662049e-06	-9.768903e-10	-2.545481e+01	-6.704131e+01
1.000000e-06	-3.626495e-06	-9.791084e-10	-2.520767e+01	-6.687612e+01
1.010000e-06	-3.590822e-06	-9.697682e-10	-2.495971e+01	-6.670996e+01
1.020000e-06	-3.554986e-06	-9.660572e-10	-2.471061e+01	-6.654289e+01
1.030000e-06	-3.518969e-06	-9.739393e-10	-2.446026e+01	-6.637494e+01
1.040000e-06	-3.482776e-06	-9.703375e-10	-2.420869e+01	-6.620614e+01
1.050000e-06	-3.446288e-06	-9.607742e-10	-2.395506e+01	-6.603650e+01
1.060000e-06	-3.409454e-06	-9.593209e-10	-2.369902e+01	-6.586598e+01
1.070000e-06	-3.372440e-06	-9.539534e-10	-2.344175e+01	-6.569455e+01
1.080000e-06	-3.335307e-06	-9.431090e-10	-2.318364e+01	-6.552215e+01
1.090000e-06	-3.297970e-06	-9.423848e-10	-2.292410e+01	-6.534868e+01
1.100000e-06	-3.260332e-06	-9.470120e-10	-2.266249e+01	-6.517404e+01
1.110000e-06	-3.222348e-06	-9.431580e-10	-2.239846e+01	-6.499811e+01
1.120000e-06	-3.184101e-06	-9.400768e-10	-2.213260e+01	-6.482072e+01
1.130000e-06	-3.145688e-06	-9.394702e-10	-2.186560e+01	-6.464170e+01
1.140000e-06	-3.107057e-06	-9.328446e-10	-2.159708e+01	-6.446086e+01
1.150000e-06	-3.068174e-06	-9.261590e-10	-2.132680e+01	-6.427800e+01
1.160000e-06	-3.029149e-06	-9.278103e-10	-2.105553e+01	-6.409288e+01
1.170000e-06	-2.989991e-06	-9.239537e-10	-2.078335e+01	-6.390526e+01
1.180000e-06	-2.950622e-06	-9.187085e-10	-2.050970e+01	-6.371490e+01
1.190000e-06	-2.911034e-06	-9.204391e-10	-2.023452e+01	-6.352153e+01
1.200000e-06	-2.871310e-06	-9.232971e-10	-1.995840e+01	-6.332487e+01
1.210000e-06	-2.831497e-06	-9.193935e-10	-1.968166e+01	-6.312465e+01
1.220000e-06	-2.791545e-06	-9.180134e-10	-1.940396e+01	-6.292059e+01
1.230000e-06	-2.751467e-06	-9.177960e-10	-1.912538e+01	-6.271240e+01
1.240000e-06	-2.711162e-06	-9.143159e-10	-1.884522e+01	-6.249980e+01
1.250000e-06	-2.670625e-06	-9.090277e-10	-1.856345e+01	-6.228252e+01
1.260000e-06	-2.629906e-06	-9.076232e-10	-1.828041e+01	-6.206027e+01
1.270000e-06	-2.588963e-06	-9.048897e-10	-1.799581e+01	-6.183279e+01
1.280000e-06	-2.547742e-06	-8.988369e-10	-1.770929e+01	-6.159980e+01
1.290000e-06	-2.506173e-06	-8.932469e-10	-1.742034e+01	-6.136106e+01
1.300000e-06	-2.464368e-06	-8.902452e-10	-1.712976e+01	-6.111631e+01
1.310000e-06	-2.422297e-06	-8.863956e-10	-1.683733e+01	-6.086533e+01
1.320000e-06	-2.379897e-06	-8.840801e-10	-1.654260e+01	-6.060788e+01
1.330000e-06	-2.337249e-06	-8.831017e-10	-1.624616e+01	-6.034375e+01
1.340000e-06	-2.294346e-06	-8.789356e-10	-1.594794e+01	-6.007272e+01
1.350000e-06	-2.251205e-06	-8.733252e-10	-1.564807e+01	-5.979460e+01
1.360000e-06	-2.207868e-06	-8.704424e-10	-1.534683e+01	-5.950919e+01
1.370000e-06	-2.164416e-06	-8.679558e-10	-1.504480e+01	-5.921631e+01
1.380000e-06	-2.120886e-06	-8.640863e-10	-1.474223e+01	-5.891577e+01
1.390000e-06	-2.077174e-06	-8.608376e-10	-1.443838e+01	-5.860740e+01
1.400000e-06	-2.033368e-06	-8.585621e-10	-1.413389e+01	-5.829101e+01
1.410000e-06	-1.989483e-06	-8.538507e-10	-1.382885e+01	-5.796642e+01
1.420000e-06	-1.945513e-06	-8.461400e-10	-1.352321e+01	-5.763343e+01
1.430000e-06	-1.901515e-06	-8.405471e-10	-1.321738e+01	-5.729185e+01
1.440000e-06	-1.857414e-06	-8.363847e-10	-1.291084e+01	-5.694147e+01
1.450000e-06	-1.813187e-06	-8.305727e-10	-1.260342e+01	-5.658205e+01
1.460000e-06	-1.768878e-06	-8.229284e-10	-1.229542e+01	-5.621335e+01
1.470000e-06	-1.724415e-06	-8.166666e-10	-1.198636e+01	-5.583511e+01
1.480000e-06	-1.679800e-06	-8.086303e-10	-1.167625e+01	-5.544703e+01
1.490000e-06	-1.635137e-06	-7.980371e-10	-1.136579e+01	-5.504878e+01
1.500000e-06	-1.590323e-06	-7.868779e-10	-1.105430e+01	-5.464000e+01
1.510000e-06	-1.545338e-06	-7.762779e-10	-1.074160e+01	-5.422032e+01
1.520000e-06	-1.500264e-06	-7.681777e-10	-1.042830e+01	-5.378930e+01
1.530000e-06	-1.455106e-06	-7.631280e-10	-1.011440e+01	-5.334647e+01
1.540000e-06	-1.409832e-06	-7.561523e-10	-9.799703e+00	-5.289132e+01
1.550000e-06	-1.364456e-06	-7.477314e-10	-9.484299e+00	-5.242330e+01
1.560000e-06	-1.319004e-06	-7.386717e-10	-9.168365e+00	-5.194181e+01
1.570000e-06	-1.273470e-06	-7.282183e-10	-8.851855e+00	-5.144620e+01
1.580000e-06	-1.227831e-06	-7.154077e-10	-8.534619e+00	-5.093580e+01
1.590000e-06	-1.182129e-06	-7.036089e-10	-8.216947e+00	-5.040986e+01
1.600000e-06	-1.136330e-06	-6.944516e-10	-7.898599e+00	-4.986761e+01
1.610000e-06	-1.090383e-06	-6.871557e-10	-7.579222e+00	-4.930823e+01
1.620000e-06	-1.044366e-06	-6.813878e-10	-7.259363e+00	-4.873086e+01
1.630000e-06	-9.982327e-07	-6.759968e-10	-6.938690e+00	-4.813461e+01
1.640000e-06	-9.520313e-07	-6.684071e-10	-6.617545e+00	-4.751854e+01
1.650000e-06	-9.058207e-07	-6.569706e-10	-6.296336e+00	-4.688169e+01
1.660000e-06	-8.595526e-07	-6.425088e-10	-5.974728e+00	-4.622309e+01
1.670000e-06	-8.132500e-07	-6.255212e-10	-5.652880e+00	-4.554173e+01
1.680000e-06	-7.669198e-07	-6.084556e-10	-5.330839e+00	-4.483659e+01
1.690000e-06	-7.205234e-07	-5.953032e-10	-5.008339e+00	-4.410665e+01
1.700000e-06	-6.740304e-07	-5.835126e-10	-4.685168e+00	-4.335089e+01
1.710000e-06	-6.274659e-07	-5.724506e-10	-4.361499e+00	-4.256829e+01
1.720000e-06	-5.808877e-07	-5.641245e-10	-4.037735e+00	-4.175785e+01
1.730000e-06	-5.343418e-07	-5.545020e-10	-3.714196e+00	-4.091859e+01
1.740000e-06	-4.877136e-07	-5.401792e-10	-3.390085e+00	-4.004957e+01
1.750000e-06	-4.409842e-07	-5.221490e-10	-3.065270e+00	-3.914986e+01
1.760000e-06	-3.942835e-07	-5.035685e-10	-2.740655e+00	-3.821862e+01
1.770000e-06	-3.475423e-07	-4.874857e-10	-2.415758e+00	-3.725503e+01
1.780000e-06	-3.007352e-07	-4.758112e-10	-2.090403e+00	-3.625836e+01
1.790000e-06	-2.539097e-07	-4.640211e-10	-1.764920e+00	-3.522794e+01
1.800000e-06	-2.070575e-07	-4.506647e-10	-1.439251e+00	-3.416317e+01
1.810000e-06	-1.602566e-07	-4.378857e-10	-1.113939e+00	-3.306357e+01
1.820000e-06	-1.134938e-07	-4.240755e-10	-7.888925e-01	-3.192872e+01
1.830000e-06	-6.667932e-08	-4.065264e-10	-4.634862e-01	-3.075834e+01
1.840000e-06	-1.990345e-08	-3.888833e-10	-1.383484e-01	-2.955222e+01
1.850000e-06	2.682617e-08	-3.715777e-10	1.864680e-01	-2.831030e+01
1.860000e-06	7.365611e-08	-3.557718e-10	5.119817e-01	-2.703262e+01
1.870000e-06	1.205421e-07	-3.383732e-10	8.378853e-01	-2.571936e+01
1.880000e-06	1.673214e-07	-3.193453e-10	1.163047e+00	-2.437081e+01
1.890000e-06	2.140144e-07	-2.998289e-10	1.487609e+00	-2.298740e+01
1.900000e-06	2.606980e-07	-2.778728e-10	1.812105e+00	-2.156971e+01
1.910000e-06	3.073976e-07	-2.548578e-10	2.136713e+00	-2.011843e+01
1.920000e-06	3.541010e-07	-2.321627e-10	2.461347e+00	-1.863441e+01
1.930000e-06	4.007797e-07	-2.116757e-10	2.785809e+00	-1.711860e+01
1.940000e-06	4.474145e-07	-1.929001e-10	3.109967e+00	-1.557213e+01
1.950000e-06	4.939801e-07	-1.744108e-10	3.433643e+00	-1.399622e+01
1.960000e-06	5.405140e-07	-1.546664e-10	3.757098e+00	-1.239223e+01
1.970000e-06	5.870413e-07	-1.327703e-10	4.080509e+00	-1.076165e+01
1.980000e-06	6.335671e-07	-1.084111e-10	4.403908e+00	-9.106088e+00
1.990000e-06	6.800584e-07	-8.208549e-11	4.727069e+00	-7.427250e+00
2.000000e-06	7.264847e-07	-5.368254e-11	5.049776e+00	-5.726954e+00
2.010000e-06	7.728885e-07	-2.705972e-11	5.372328e+00	-4.007115e+00
2.020000e-06	8.192414e-07	-5.271637e-12	5.694526e+00	-2.269735e+00
2.030000e-06	8.654699e-07	1.422684e-11	6.015859e+00	-5.168922e-01
2.040000e-06	9.116130e-07	3.445977e-11	6.336598e+00	1.249263e+00
2.050000e-06	9.576812e-07	5.621497e-11	6.656817e+00	3.026523e+00
2.060000e-06	1.003672e-06	8.203707e-11	6.976496e+00	4.812632e+00
2.070000e-06	1.049612e-06	1.094188e-10	7.295825e+00	6.605296e+00
2.080000e-06	1.095500e-06	1.367953e-10	7.614790e+00	8.402198e+00
2.090000e-06	1.141355e-06	1.636721e-10	7.933529e+00	1.020100e+01
2.100000e-06	1.187159e-06	1.898630e-10	8.251913e+00	1.199938e+01
2.110000e-06	1.232812e-06	2.146839e-10	8.569246e+00	1.379499e+01
2.120000e-06	1.278344e-06	2.386222e-10	8.885733e+00	1.558554e+01
2.130000e-06	1.323791e-06	2.632227e-10	9.201640e+00	1.736874e+01
2.140000e-06	1.369155e-06	2.860490e-10	9.516962e+00	1.914236e+01
2.150000e-06	1.414476e-06	3.081276e-10	9.831984e+00	2.090422e+01
2.160000e-06	1.459663e-06	3.326968e-10	1.014608e+01	2.265219e+01
2.170000e-06	1.504677e-06	3.589956e-10	1.045897e+01	2.438424e+01
2.180000e-06	1.549633e-06	3.861768e-10	1.077146e+01	2.609839e+01
2.190000e-06	1.594501e-06	4.133762e-10	1.108333e+01	2.779275e+01
2.200000e-06	1.639233e-06	4.384168e-10	1.139427e+01	2.946556e+01
2.210000e-06	1.683816e-06	4.605242e-10	1.170416e+01	3.111513e+01
2.220000e-06	1.728248e-06	4.815893e-10	1.201301e+01	3.273989e+01
2.230000e-06	1.772556e-06	5.033599e-10	1.232099e+01	3.433839e+01
2.240000e-06	1.816721e-06	5.238263e-10	1.262798e+01	3.590928e+01
2.250000e-06	1.860828e-06	5.426534e-10	1.293457e+01	3.745135e+01
2.260000e-06	1.904882e-06	5.616020e-10	1.324078e+01	3.896351e+01
2.270000e-06	1.948863e-06	5.816469e-10	1.354650e+01	4.044478e+01
2.280000e-06	1.992816e-06	6.041163e-10	1.385201e+01	4.189433e+01
2.290000e-06	2.036716e-06	6.262886e-10	1.415716e+01	4.331144e+01
2.300000e-06	2.080487e-06	6.460805e-10	1.446141e+01	4.469552e+01
2.310000e-06	2.124132e-06	6.638795e-10	1.476478e+01	4.604609e+01
2.320000e-06	2.167667e-06	6.801975e-10	1.506740e+01	4.736280e+01
2.330000e-06	2.211057e-06	6.959165e-10	1.536900e+01	4.864542e+01
2.340000e-06	2.254265e-06	7.128878e-10	1.566934e+01	4.989381e+01
2.350000e-06	2.297274e-06	7.315218e-10	1.596829e+01	5.110796e+01
2.360000e-06	2.340054e-06	7.489868e-10	1.626565e+01	5.228794e+01
2.370000e-06	2.382588e-06	7.642425e-10	1.656131e+01	5.343393e+01
2.380000e-06	2.424835e-06	7.781316e-10	1.685496e+01	5.454619e+01
2.390000e-06	2.466830e-06	7.929413e-10	1.714687e+01	5.562505e+01
2.400000e-06	2.508581e-06	8.084037e-10	1.743708e+01	5.667094e+01
2.410000e-06	2.550024e-06	8.244793e-10	1.772515e+01	5.768433e+01
2.420000e-06	2.591239e-06	8.397967e-10	1.801163e+01	5.866575e+01
2.430000e-06	2.632205e-06	8.524661e-10	1.829639e+01	5.961581e+01
2.440000e-06	2.672886e-06	8.621723e-10	1.857916e+01	6.053512e+01
2.450000e-06	2.713318e-06	8.710409e-10	1.886020e+01	6.142437e+01
2.460000e-06	2.753578e-06	8.815671e-10	1.914005e+01	6.228423e+01
2.470000e-06	2.793680e-06	8.938851e-10	1.941880e+01	6.311543e+01
2.480000e-06	2.833582e-06	9.074388e-10	1.969615e+01	6.391871e+01
2.490000e-06	2.873333e-06	9.207694e-10	1.997246e+01	6.469479e+01
2.500000e-06	2.912986e-06	9.332914e-10	2.024809e+01	6.544442e+01
2.510000e-06	2.952502e-06	9.438936e-10	2.052277e+01	6.616833e+01
2.520000e-06	2.991809e-06	9.517106e-10	2.079599e+01	6.686726e+01
2.530000e-06	3.030936e-06	9.578964e-10	2.106796e+01	6.754191e+01
2.540000e-06	3.069870e-06	9.640130e-10	2.133859e+01	6.819298e+01
2.550000e-06	3.108563e-06	9.719409e-10	2.160754e+01	6.882115e+01
2.560000e-06	3.147049e-06	9.806007e-10	2.187506e+01	6.942706e+01
2.570000e-06	3.185393e-06	9.898551e-10	2.214159e+01	7.001135e+01
2.580000e-06	3.223494e-06	9.996946e-10	2.240643e+01	7.057460e+01
2.590000e-06	3.261305e-06	1.008685e-09	2.266925e+01	7.111739e+01
2.600000e-06	3.298849e-06	1.016747e-09	2.293021e+01	7.164025e+01
2.610000e-06	3.336178e-06	1.023840e-09	2.318968e+01	7.214368e+01
2.620000e-06	3.373290e-06	1.029798e-09	2.344765e+01	7.262818e+01
2.630000e-06	3.410138e-06	1.034961e-09	2.370378e+01	7.309418e+01
2.640000e-06	3.446765e-06	1.040699e-09	2.395838e+01	7.354211e+01
2.650000e-06	3.483182e-06	1.046665e-09	2.421151e+01	7.397238e+01
2.660000e-06	3.519422e-06	1.052007e-09	2.446341e+01	7.438534e+01
2.670000e-06	3.555488e-06	1.057458e-09	2.471410e+01	7.478136e+01
2.680000e-06	3.591382e-06	1.063741e-09	2.496360e+01	7.516078e+01
2.690000e-06	3.627136e-06	1.070739e-09	2.521213e+01	7.552391e+01
2.700000e-06	3.662738e-06	1.077205e-09	2.545960e+01	7.587107e+01
2.710000e-06	3.698136e-06	1.081665e-09	2.570565e+01	7.620255e+01
2.720000e-06	3.733233e-06	1.084759e-09	2.594961e+01	7.651866e+01
2.730000e-06	3.768030e-06	1.087049e-09	2.619148e+01	7.681968e+01
2.740000e-06	3.802532e-06	1.089643e-09	2.643130e+01	7.710592e+01
2.750000e-06	3.836535e-06	1.093152e-09	2.666766e+01	7.737765e+01
2.760000e-06	3.869977e-06	1.097482e-09	2.690011e+01	7.763520e+01
2.770000e-06	3.902967e-06	1.102732e-09	2.712942e+01	7.787887e+01
2.780000e-06	3.935646e-06	1.108616e-09	2.735658e+01	7.810898e+01
2.790000e-06	3.968059e-06	1.115385e-09	2.758188e+01	7.832587e+01
2.800000e-06	4.000168e-06	1.122235e-09	2.780507e+01	7.852990e+01
2.810000e-06	4.032056e-06	1.126834e-09	2.802672e+01	7.872141e+01
2.820000e-06	4.063776e-06	1.128514e-09	2.824720e+01	7.890081e+01
2.830000e-06	4.095253e-06	1.130061e-09	2.846600e+01	7.906849e+01
2.840000e-06	4.126469e-06	1.131825e-09	2.868298e+01	7.922486e+01
2.850000e-06	4.157464e-06	1.130993e-09	2.889842e+01	7.937036e+01
2.860000e-06	4.188227e-06	1.130811e-09	2.911226e+01	7.950544e+01
2.870000e-06	4.218739e-06	1.135727e-09	2.932435e+01	7.963057e+01
2.880000e-06	4.248940e-06	1.143814e-09	2.953427e+01	7.974623e+01
2.890000e-06	4.278797e-06	1.150724e-09	2.974181e+01	7.985290e+01
2.900000e-06	4.308343e-06	1.154583e-09	2.994718e+01	7.995110e+01
