# Temperatura_=_3.78
# Concentracion g/m^3_=_1620.0
# C_Vs_to_Am_M_A/Vsm_=_65563218390.804596
# pendiente_HvsI_1/m_=_3716.3
# ordenada_HvsI_A/m_=_1297.0
# frecuencia_Hz_=_135102.63491997932

Tiempo_(s)	Campo_(V.s)	Magnetizacion_(V.s)	Campo_(kA/m)	Magnetizacion_(A/m)
0.000000e+00	-5.530028e-06	-1.490016e-09	-3.836441e+01	-9.862579e+01
1.000000e-08	-5.530215e-06	-1.485908e-09	-3.836571e+01	-9.858715e+01
2.000000e-08	-5.530114e-06	-1.483536e-09	-3.836501e+01	-9.854959e+01
3.000000e-08	-5.529576e-06	-1.482918e-09	-3.836128e+01	-9.851290e+01
4.000000e-08	-5.528525e-06	-1.483477e-09	-3.835399e+01	-9.847687e+01
5.000000e-08	-5.526833e-06	-1.482851e-09	-3.834225e+01	-9.844121e+01
6.000000e-08	-5.524547e-06	-1.478903e-09	-3.832639e+01	-9.840565e+01
7.000000e-08	-5.521711e-06	-1.482384e-09	-3.830671e+01	-9.836988e+01
8.000000e-08	-5.518371e-06	-1.486977e-09	-3.828354e+01	-9.833357e+01
9.000000e-08	-5.514686e-06	-1.504607e-09	-3.825798e+01	-9.829637e+01
1.000000e-07	-5.510633e-06	-1.543942e-09	-3.822986e+01	-9.825793e+01
1.100000e-07	-5.506201e-06	-1.525222e-09	-3.819912e+01	-9.821788e+01
1.200000e-07	-5.501514e-06	-1.430178e-09	-3.816660e+01	-9.817585e+01
1.300000e-07	-5.496641e-06	-1.407389e-09	-3.813279e+01	-9.813147e+01
1.400000e-07	-5.491421e-06	-1.486926e-09	-3.809658e+01	-9.808435e+01
1.500000e-07	-5.485770e-06	-1.537267e-09	-3.805738e+01	-9.803413e+01
1.600000e-07	-5.479721e-06	-1.451852e-09	-3.801542e+01	-9.798045e+01
1.700000e-07	-5.473297e-06	-1.411254e-09	-3.797085e+01	-9.792296e+01
1.800000e-07	-5.466447e-06	-1.484444e-09	-3.792332e+01	-9.786133e+01
1.900000e-07	-5.459213e-06	-1.528535e-09	-3.787314e+01	-9.779524e+01
2.000000e-07	-5.451736e-06	-1.450509e-09	-3.782127e+01	-9.772441e+01
2.100000e-07	-5.443999e-06	-1.412966e-09	-3.776759e+01	-9.764856e+01
2.200000e-07	-5.435978e-06	-1.475277e-09	-3.771195e+01	-9.756744e+01
2.300000e-07	-5.427624e-06	-1.520375e-09	-3.765399e+01	-9.748086e+01
2.400000e-07	-5.418740e-06	-1.475375e-09	-3.759236e+01	-9.738862e+01
2.500000e-07	-5.409222e-06	-1.426748e-09	-3.752632e+01	-9.729057e+01
2.600000e-07	-5.398991e-06	-1.444188e-09	-3.745535e+01	-9.718659e+01
2.700000e-07	-5.388097e-06	-1.471291e-09	-3.737978e+01	-9.707661e+01
2.800000e-07	-5.376765e-06	-1.457755e-09	-3.730115e+01	-9.696057e+01
2.900000e-07	-5.365017e-06	-1.429041e-09	-3.721966e+01	-9.683847e+01
3.000000e-07	-5.352934e-06	-1.445824e-09	-3.713583e+01	-9.671031e+01
3.100000e-07	-5.340555e-06	-1.461763e-09	-3.704995e+01	-9.657615e+01
3.200000e-07	-5.327763e-06	-1.445734e-09	-3.696121e+01	-9.643609e+01
3.300000e-07	-5.314498e-06	-1.404521e-09	-3.686918e+01	-9.629024e+01
3.400000e-07	-5.300821e-06	-1.427365e-09	-3.677430e+01	-9.613875e+01
3.500000e-07	-5.286741e-06	-1.455705e-09	-3.667662e+01	-9.598180e+01
3.600000e-07	-5.272180e-06	-1.434841e-09	-3.657560e+01	-9.581958e+01
3.700000e-07	-5.257081e-06	-1.403131e-09	-3.647085e+01	-9.565233e+01
3.800000e-07	-5.241523e-06	-1.434017e-09	-3.636292e+01	-9.548029e+01
3.900000e-07	-5.225582e-06	-1.437167e-09	-3.625233e+01	-9.530373e+01
4.000000e-07	-5.209205e-06	-1.393005e-09	-3.613871e+01	-9.512293e+01
4.100000e-07	-5.192462e-06	-1.412824e-09	-3.602256e+01	-9.493819e+01
4.200000e-07	-5.175487e-06	-1.455070e-09	-3.590480e+01	-9.474979e+01
4.300000e-07	-5.158207e-06	-1.398344e-09	-3.578492e+01	-9.455806e+01
4.400000e-07	-5.140559e-06	-1.371297e-09	-3.566249e+01	-9.436330e+01
4.500000e-07	-5.122497e-06	-1.439075e-09	-3.553718e+01	-9.416583e+01
4.600000e-07	-5.103934e-06	-1.428559e-09	-3.540840e+01	-9.396594e+01
4.700000e-07	-5.084929e-06	-1.350176e-09	-3.527655e+01	-9.376395e+01
4.800000e-07	-5.065649e-06	-1.392137e-09	-3.514280e+01	-9.356015e+01
4.900000e-07	-5.046178e-06	-1.435245e-09	-3.500772e+01	-9.335480e+01
5.000000e-07	-5.026483e-06	-1.367535e-09	-3.487109e+01	-9.314819e+01
5.100000e-07	-5.006502e-06	-1.363462e-09	-3.473247e+01	-9.294055e+01
5.200000e-07	-4.986134e-06	-1.423763e-09	-3.459116e+01	-9.273213e+01
5.300000e-07	-4.965368e-06	-1.373872e-09	-3.444710e+01	-9.252312e+01
5.400000e-07	-4.944332e-06	-1.330022e-09	-3.430116e+01	-9.231373e+01
5.500000e-07	-4.922979e-06	-1.397654e-09	-3.415303e+01	-9.210410e+01
5.600000e-07	-4.901218e-06	-1.392823e-09	-3.400206e+01	-9.189440e+01
5.700000e-07	-4.879059e-06	-1.323186e-09	-3.384833e+01	-9.168472e+01
5.800000e-07	-4.856577e-06	-1.357496e-09	-3.369237e+01	-9.147517e+01
5.900000e-07	-4.833804e-06	-1.394736e-09	-3.353438e+01	-9.126580e+01
6.000000e-07	-4.810699e-06	-1.335658e-09	-3.337409e+01	-9.105667e+01
6.100000e-07	-4.787316e-06	-1.328915e-09	-3.321187e+01	-9.084778e+01
6.200000e-07	-4.763736e-06	-1.365748e-09	-3.304829e+01	-9.063914e+01
6.300000e-07	-4.739989e-06	-1.337519e-09	-3.288354e+01	-9.043071e+01
6.400000e-07	-4.715914e-06	-1.313801e-09	-3.271652e+01	-9.022244e+01
6.500000e-07	-4.691383e-06	-1.344330e-09	-3.254634e+01	-9.001425e+01
6.600000e-07	-4.666305e-06	-1.337106e-09	-3.237236e+01	-8.980607e+01
6.700000e-07	-4.640694e-06	-1.315622e-09	-3.219469e+01	-8.959778e+01
6.800000e-07	-4.614591e-06	-1.329981e-09	-3.201360e+01	-8.938926e+01
6.900000e-07	-4.588053e-06	-1.332384e-09	-3.182949e+01	-8.918037e+01
7.000000e-07	-4.561101e-06	-1.310929e-09	-3.164251e+01	-8.897098e+01
7.100000e-07	-4.533790e-06	-1.316152e-09	-3.145304e+01	-8.876092e+01
7.200000e-07	-4.506309e-06	-1.321751e-09	-3.126239e+01	-8.855003e+01
7.300000e-07	-4.478601e-06	-1.307794e-09	-3.107017e+01	-8.833816e+01
7.400000e-07	-4.450631e-06	-1.301526e-09	-3.087613e+01	-8.812512e+01
7.500000e-07	-4.422377e-06	-1.305828e-09	-3.068012e+01	-8.791076e+01
7.600000e-07	-4.393843e-06	-1.297976e-09	-3.048216e+01	-8.769489e+01
7.700000e-07	-4.365005e-06	-1.292003e-09	-3.028210e+01	-8.747736e+01
7.800000e-07	-4.335878e-06	-1.291931e-09	-3.008003e+01	-8.725801e+01
7.900000e-07	-4.306489e-06	-1.287689e-09	-2.987615e+01	-8.703667e+01
8.000000e-07	-4.276827e-06	-1.284756e-09	-2.967037e+01	-8.681321e+01
8.100000e-07	-4.246903e-06	-1.284361e-09	-2.946277e+01	-8.658748e+01
8.200000e-07	-4.216632e-06	-1.273135e-09	-2.925276e+01	-8.635936e+01
8.300000e-07	-4.185982e-06	-1.259625e-09	-2.904014e+01	-8.612872e+01
8.400000e-07	-4.155057e-06	-1.262564e-09	-2.882559e+01	-8.589545e+01
8.500000e-07	-4.123966e-06	-1.264516e-09	-2.860990e+01	-8.565945e+01
8.600000e-07	-4.092658e-06	-1.256167e-09	-2.839270e+01	-8.542064e+01
8.700000e-07	-4.061124e-06	-1.250936e-09	-2.817393e+01	-8.517894e+01
8.800000e-07	-4.029449e-06	-1.249716e-09	-2.795419e+01	-8.493429e+01
8.900000e-07	-3.997622e-06	-1.240291e-09	-2.773339e+01	-8.468661e+01
9.000000e-07	-3.965532e-06	-1.234144e-09	-2.751077e+01	-8.443588e+01
9.100000e-07	-3.933098e-06	-1.234762e-09	-2.728576e+01	-8.418205e+01
9.200000e-07	-3.900211e-06	-1.226705e-09	-2.705761e+01	-8.392508e+01
9.300000e-07	-3.866810e-06	-1.215399e-09	-2.682589e+01	-8.366495e+01
9.400000e-07	-3.832994e-06	-1.216358e-09	-2.659129e+01	-8.340164e+01
9.500000e-07	-3.798678e-06	-1.214504e-09	-2.635323e+01	-8.313514e+01
9.600000e-07	-3.763873e-06	-1.205610e-09	-2.611177e+01	-8.286543e+01
9.700000e-07	-3.728806e-06	-1.202153e-09	-2.586849e+01	-8.259250e+01
9.800000e-07	-3.693549e-06	-1.202037e-09	-2.562389e+01	-8.231633e+01
9.900000e-07	-3.658145e-06	-1.190605e-09	-2.537828e+01	-8.203692e+01
1.000000e-06	-3.622615e-06	-1.181762e-09	-2.513179e+01	-8.175424e+01
1.010000e-06	-3.586908e-06	-1.183571e-09	-2.488407e+01	-8.146827e+01
1.020000e-06	-3.551031e-06	-1.180564e-09	-2.463518e+01	-8.117899e+01
1.030000e-06	-3.514937e-06	-1.172440e-09	-2.438478e+01	-8.088637e+01
1.040000e-06	-3.478597e-06	-1.171419e-09	-2.413267e+01	-8.059036e+01
1.050000e-06	-3.442027e-06	-1.167378e-09	-2.387896e+01	-8.029092e+01
1.060000e-06	-3.405139e-06	-1.157322e-09	-2.362306e+01	-7.998800e+01
1.070000e-06	-3.367984e-06	-1.152844e-09	-2.336529e+01	-7.968151e+01
1.080000e-06	-3.330600e-06	-1.152250e-09	-2.310594e+01	-7.937140e+01
1.090000e-06	-3.293000e-06	-1.145752e-09	-2.284510e+01	-7.905757e+01
1.100000e-06	-3.255168e-06	-1.140267e-09	-2.258264e+01	-7.873994e+01
1.110000e-06	-3.217087e-06	-1.138318e-09	-2.231845e+01	-7.841839e+01
1.120000e-06	-3.178809e-06	-1.129693e-09	-2.205290e+01	-7.809280e+01
1.130000e-06	-3.140299e-06	-1.115561e-09	-2.178573e+01	-7.776307e+01
1.140000e-06	-3.101547e-06	-1.108104e-09	-2.151689e+01	-7.742904e+01
1.150000e-06	-3.062568e-06	-1.104001e-09	-2.124648e+01	-7.709059e+01
1.160000e-06	-3.023408e-06	-1.094689e-09	-2.097481e+01	-7.674755e+01
1.170000e-06	-2.984107e-06	-1.088740e-09	-2.070216e+01	-7.639979e+01
1.180000e-06	-2.944666e-06	-1.089869e-09	-2.042854e+01	-7.604713e+01
1.190000e-06	-2.905091e-06	-1.089436e-09	-2.015399e+01	-7.568941e+01
1.200000e-06	-2.865353e-06	-1.084806e-09	-1.987831e+01	-7.532646e+01
1.210000e-06	-2.825467e-06	-1.081163e-09	-1.960160e+01	-7.495812e+01
1.220000e-06	-2.785414e-06	-1.075146e-09	-1.932373e+01	-7.458420e+01
1.230000e-06	-2.745168e-06	-1.066706e-09	-1.904452e+01	-7.420452e+01
1.240000e-06	-2.704723e-06	-1.059277e-09	-1.876394e+01	-7.381893e+01
1.250000e-06	-2.663976e-06	-1.051820e-09	-1.848126e+01	-7.342723e+01
1.260000e-06	-2.622906e-06	-1.044349e-09	-1.819634e+01	-7.302926e+01
1.270000e-06	-2.581552e-06	-1.041223e-09	-1.790944e+01	-7.262485e+01
1.280000e-06	-2.539862e-06	-1.039671e-09	-1.762022e+01	-7.221382e+01
1.290000e-06	-2.497882e-06	-1.034569e-09	-1.732899e+01	-7.179601e+01
1.300000e-06	-2.455602e-06	-1.025871e-09	-1.703567e+01	-7.137125e+01
1.310000e-06	-2.413051e-06	-1.016768e-09	-1.674047e+01	-7.093938e+01
1.320000e-06	-2.370304e-06	-1.007504e-09	-1.644392e+01	-7.050024e+01
1.330000e-06	-2.327322e-06	-9.985234e-10	-1.614573e+01	-7.005365e+01
1.340000e-06	-2.284186e-06	-9.927029e-10	-1.584648e+01	-6.959947e+01
1.350000e-06	-2.240906e-06	-9.907270e-10	-1.554623e+01	-6.913751e+01
1.360000e-06	-2.197467e-06	-9.863702e-10	-1.524487e+01	-6.866762e+01
1.370000e-06	-2.153910e-06	-9.790318e-10	-1.494269e+01	-6.818962e+01
1.380000e-06	-2.110291e-06	-9.698926e-10	-1.464009e+01	-6.770333e+01
1.390000e-06	-2.066629e-06	-9.587171e-10	-1.433718e+01	-6.720856e+01
1.400000e-06	-2.022837e-06	-9.474255e-10	-1.403337e+01	-6.670512e+01
1.410000e-06	-1.978989e-06	-9.387602e-10	-1.372918e+01	-6.619279e+01
1.420000e-06	-1.935060e-06	-9.316166e-10	-1.342442e+01	-6.567133e+01
1.430000e-06	-1.890937e-06	-9.242541e-10	-1.311832e+01	-6.514052e+01
1.440000e-06	-1.846763e-06	-9.159690e-10	-1.281187e+01	-6.460007e+01
1.450000e-06	-1.802471e-06	-9.072526e-10	-1.250459e+01	-6.404969e+01
1.460000e-06	-1.757998e-06	-8.968533e-10	-1.219606e+01	-6.348908e+01
1.470000e-06	-1.713422e-06	-8.864433e-10	-1.188682e+01	-6.291789e+01
1.480000e-06	-1.668690e-06	-8.758919e-10	-1.157649e+01	-6.233574e+01
1.490000e-06	-1.623833e-06	-8.626664e-10	-1.126529e+01	-6.174222e+01
1.500000e-06	-1.578899e-06	-8.490992e-10	-1.095356e+01	-6.113690e+01
1.510000e-06	-1.533807e-06	-8.383925e-10	-1.064075e+01	-6.051928e+01
1.520000e-06	-1.488533e-06	-8.285290e-10	-1.032665e+01	-5.988887e+01
1.530000e-06	-1.443128e-06	-8.169782e-10	-1.001166e+01	-5.924509e+01
1.540000e-06	-1.397670e-06	-8.056655e-10	-9.696296e+00	-5.858735e+01
1.550000e-06	-1.352159e-06	-7.931458e-10	-9.380568e+00	-5.791501e+01
1.560000e-06	-1.306554e-06	-7.809588e-10	-9.064182e+00	-5.722740e+01
1.570000e-06	-1.260932e-06	-7.698733e-10	-8.747679e+00	-5.652379e+01
1.580000e-06	-1.215254e-06	-7.598804e-10	-8.430792e+00	-5.580343e+01
1.590000e-06	-1.169476e-06	-7.479781e-10	-8.113209e+00	-5.506552e+01
1.600000e-06	-1.123553e-06	-7.348397e-10	-7.794620e+00	-5.430923e+01
1.610000e-06	-1.077460e-06	-7.222368e-10	-7.474847e+00	-5.353369e+01
1.620000e-06	-1.031295e-06	-7.098798e-10	-7.154578e+00	-5.273800e+01
1.630000e-06	-9.850970e-07	-6.999011e-10	-6.834083e+00	-5.192125e+01
1.640000e-06	-9.388907e-07	-6.908281e-10	-6.513528e+00	-5.108247e+01
1.650000e-06	-8.926019e-07	-6.788130e-10	-6.192401e+00	-5.022072e+01
1.660000e-06	-8.462359e-07	-6.642344e-10	-5.870738e+00	-4.933500e+01
1.670000e-06	-7.998555e-07	-6.479349e-10	-5.548976e+00	-4.842433e+01
1.680000e-06	-7.534031e-07	-6.314425e-10	-5.226713e+00	-4.748771e+01
1.690000e-06	-7.069106e-07	-6.156672e-10	-4.904173e+00	-4.652417e+01
1.700000e-06	-6.604060e-07	-6.000110e-10	-4.581548e+00	-4.553273e+01
1.710000e-06	-6.139282e-07	-5.866959e-10	-4.259110e+00	-4.451243e+01
1.720000e-06	-5.673925e-07	-5.723986e-10	-3.936270e+00	-4.346234e+01
1.730000e-06	-5.206745e-07	-5.545651e-10	-3.612165e+00	-4.238157e+01
1.740000e-06	-4.739575e-07	-5.355465e-10	-3.288067e+00	-4.126925e+01
1.750000e-06	-4.272534e-07	-5.153207e-10	-2.964059e+00	-4.012458e+01
1.760000e-06	-3.804374e-07	-4.937378e-10	-2.639274e+00	-3.894681e+01
1.770000e-06	-3.335660e-07	-4.738433e-10	-2.314105e+00	-3.773525e+01
1.780000e-06	-2.866703e-07	-4.560677e-10	-1.988767e+00	-3.648929e+01
1.790000e-06	-2.397684e-07	-4.390308e-10	-1.663387e+00	-3.520840e+01
1.800000e-06	-1.928192e-07	-4.230473e-10	-1.337678e+00	-3.389212e+01
1.810000e-06	-1.458531e-07	-4.050391e-10	-1.011852e+00	-3.254012e+01
1.820000e-06	-9.886702e-08	-3.842358e-10	-6.858872e-01	-3.115213e+01
1.830000e-06	-5.194380e-08	-3.622718e-10	-3.603587e-01	-2.972803e+01
1.840000e-06	-5.088662e-09	-3.412474e-10	-3.530245e-02	-2.826777e+01
1.850000e-06	4.179592e-08	-3.213205e-10	2.899580e-01	-2.677146e+01
1.860000e-06	8.864564e-08	-3.008832e-10	6.149767e-01	-2.523930e+01
1.870000e-06	1.355656e-07	-2.823787e-10	9.404826e-01	-2.367163e+01
1.880000e-06	1.825402e-07	-2.617499e-10	1.266368e+00	-2.206894e+01
1.890000e-06	2.294555e-07	-2.387881e-10	1.591841e+00	-2.043181e+01
1.900000e-06	2.763462e-07	-2.160259e-10	1.917144e+00	-1.876100e+01
1.910000e-06	3.232434e-07	-1.927195e-10	2.242492e+00	-1.705737e+01
1.920000e-06	3.701884e-07	-1.675428e-10	2.568172e+00	-1.532193e+01
1.930000e-06	4.170681e-07	-1.407797e-10	2.893399e+00	-1.355582e+01
1.940000e-06	4.638044e-07	-1.134755e-10	3.217630e+00	-1.176032e+01
1.950000e-06	5.105647e-07	-8.414075e-11	3.542028e+00	-9.936832e+00
1.960000e-06	5.572736e-07	-5.846539e-11	3.866070e+00	-8.086877e+00
1.970000e-06	6.037994e-07	-3.722918e-11	4.188842e+00	-6.212105e+00
1.980000e-06	6.502226e-07	-1.807829e-11	4.510901e+00	-4.314279e+00
1.990000e-06	6.966588e-07	4.559209e-12	4.833051e+00	-2.395269e+00
2.000000e-06	7.431019e-07	3.393514e-11	5.155249e+00	-4.570482e-01
2.010000e-06	7.894753e-07	6.545714e-11	5.476963e+00	1.498318e+00
2.020000e-06	8.358158e-07	9.658662e-11	5.798449e+00	3.468678e+00
2.030000e-06	8.820670e-07	1.276804e-10	6.119315e+00	5.451806e+00
2.040000e-06	9.282348e-07	1.556222e-10	6.439603e+00	7.445409e+00
2.050000e-06	9.743912e-07	1.798160e-10	6.759812e+00	9.447139e+00
2.060000e-06	1.020432e-06	2.041764e-10	7.079220e+00	1.145460e+01
2.070000e-06	1.066376e-06	2.301205e-10	7.397956e+00	1.346537e+01
2.080000e-06	1.112333e-06	2.580430e-10	7.716776e+00	1.547699e+01
2.090000e-06	1.158223e-06	2.888320e-10	8.035139e+00	1.748701e+01
2.100000e-06	1.203995e-06	3.209488e-10	8.352683e+00	1.949296e+01
2.110000e-06	1.249711e-06	3.533781e-10	8.669836e+00	2.149240e+01
2.120000e-06	1.295362e-06	3.835287e-10	8.986541e+00	2.348290e+01
2.130000e-06	1.340955e-06	4.097988e-10	9.302839e+00	2.546206e+01
2.140000e-06	1.386470e-06	4.319407e-10	9.618594e+00	2.742755e+01
2.150000e-06	1.431796e-06	4.530040e-10	9.933048e+00	2.937708e+01
2.160000e-06	1.476985e-06	4.773081e-10	1.024655e+01	3.130843e+01
2.170000e-06	1.522165e-06	5.043367e-10	1.055997e+01	3.321946e+01
2.180000e-06	1.567310e-06	5.331518e-10	1.087317e+01	3.510811e+01
2.190000e-06	1.612297e-06	5.619853e-10	1.118527e+01	3.697242e+01
2.200000e-06	1.657115e-06	5.910226e-10	1.149619e+01	3.881053e+01
2.210000e-06	1.701714e-06	6.169424e-10	1.180559e+01	4.062071e+01
2.220000e-06	1.746139e-06	6.388905e-10	1.211379e+01	4.240131e+01
2.230000e-06	1.790469e-06	6.597652e-10	1.242133e+01	4.415083e+01
2.240000e-06	1.834632e-06	6.807145e-10	1.272771e+01	4.586789e+01
2.250000e-06	1.878701e-06	7.023829e-10	1.303344e+01	4.755125e+01
2.260000e-06	1.922703e-06	7.258376e-10	1.333870e+01	4.919980e+01
2.270000e-06	1.966605e-06	7.503003e-10	1.364327e+01	5.081255e+01
2.280000e-06	2.010486e-06	7.736165e-10	1.394769e+01	5.238867e+01
2.290000e-06	2.054269e-06	7.932531e-10	1.425144e+01	5.392745e+01
2.300000e-06	2.097910e-06	8.107101e-10	1.455419e+01	5.542834e+01
2.310000e-06	2.141536e-06	8.268250e-10	1.485685e+01	5.689090e+01
2.320000e-06	2.185140e-06	8.431977e-10	1.515935e+01	5.831485e+01
2.330000e-06	2.228652e-06	8.614253e-10	1.546121e+01	5.970000e+01
2.340000e-06	2.272067e-06	8.822282e-10	1.576240e+01	6.104634e+01
2.350000e-06	2.315397e-06	9.052749e-10	1.606300e+01	6.235393e+01
2.360000e-06	2.358540e-06	9.277104e-10	1.636231e+01	6.362297e+01
2.370000e-06	2.401315e-06	9.464399e-10	1.665906e+01	6.485378e+01
2.380000e-06	2.443829e-06	9.590053e-10	1.695400e+01	6.604676e+01
2.390000e-06	2.486180e-06	9.685934e-10	1.724780e+01	6.720242e+01
2.400000e-06	2.528152e-06	9.801345e-10	1.753899e+01	6.832135e+01
2.410000e-06	2.569737e-06	9.967192e-10	1.782748e+01	6.940424e+01
2.420000e-06	2.610998e-06	1.014694e-09	1.811373e+01	7.045182e+01
2.430000e-06	2.651895e-06	1.030467e-09	1.839745e+01	7.146491e+01
2.440000e-06	2.692407e-06	1.044585e-09	1.867850e+01	7.244439e+01
2.450000e-06	2.732641e-06	1.055900e-09	1.895762e+01	7.339116e+01
2.460000e-06	2.772723e-06	1.066970e-09	1.923569e+01	7.430618e+01
2.470000e-06	2.812677e-06	1.076787e-09	1.951287e+01	7.519045e+01
2.480000e-06	2.852498e-06	1.085792e-09	1.978913e+01	7.604497e+01
2.490000e-06	2.892221e-06	1.097489e-09	2.006470e+01	7.687077e+01
2.500000e-06	2.931911e-06	1.110358e-09	2.034005e+01	7.766888e+01
2.510000e-06	2.971459e-06	1.123789e-09	2.061441e+01	7.844034e+01
2.520000e-06	3.010792e-06	1.136476e-09	2.088729e+01	7.918617e+01
2.530000e-06	3.049882e-06	1.146540e-09	2.115847e+01	7.990740e+01
2.540000e-06	3.088780e-06	1.153729e-09	2.142833e+01	8.060502e+01
2.550000e-06	3.127478e-06	1.160388e-09	2.169679e+01	8.128000e+01
2.560000e-06	3.165949e-06	1.168052e-09	2.196369e+01	8.193330e+01
2.570000e-06	3.204164e-06	1.178615e-09	2.222880e+01	8.256582e+01
2.580000e-06	3.242162e-06	1.189973e-09	2.249241e+01	8.317845e+01
2.590000e-06	3.279988e-06	1.198786e-09	2.275483e+01	8.377202e+01
2.600000e-06	3.317611e-06	1.204622e-09	2.301584e+01	8.434735e+01
2.610000e-06	3.355047e-06	1.210481e-09	2.327554e+01	8.490518e+01
2.620000e-06	3.392214e-06	1.217098e-09	2.353339e+01	8.544622e+01
2.630000e-06	3.429087e-06	1.224109e-09	2.378919e+01	8.597115e+01
2.640000e-06	3.465684e-06	1.232096e-09	2.404309e+01	8.648059e+01
2.650000e-06	3.502043e-06	1.240465e-09	2.429533e+01	8.697513e+01
2.660000e-06	3.538166e-06	1.248384e-09	2.454593e+01	8.745529e+01
2.670000e-06	3.574082e-06	1.257228e-09	2.479509e+01	8.792157e+01
2.680000e-06	3.609840e-06	1.265222e-09	2.504316e+01	8.837443e+01
2.690000e-06	3.645475e-06	1.271725e-09	2.529038e+01	8.881429e+01
2.700000e-06	3.680999e-06	1.276399e-09	2.553683e+01	8.924153e+01
2.710000e-06	3.716328e-06	1.279746e-09	2.578192e+01	8.965650e+01
2.720000e-06	3.751455e-06	1.284264e-09	2.602561e+01	9.005951e+01
2.730000e-06	3.786364e-06	1.290220e-09	2.626780e+01	9.045086e+01
2.740000e-06	3.820897e-06	1.297891e-09	2.650737e+01	9.083081e+01
2.750000e-06	3.854955e-06	1.303593e-09	2.674364e+01	9.119962e+01
2.760000e-06	3.888504e-06	1.307522e-09	2.697639e+01	9.155752e+01
2.770000e-06	3.921496e-06	1.311589e-09	2.720527e+01	9.190471e+01
2.780000e-06	3.954017e-06	1.315472e-09	2.743088e+01	9.224141e+01
2.790000e-06	3.986193e-06	1.319633e-09	2.765410e+01	9.256780e+01
2.800000e-06	4.018079e-06	1.324473e-09	2.787531e+01	9.288409e+01
2.810000e-06	4.049785e-06	1.328441e-09	2.809527e+01	9.319046e+01
2.820000e-06	4.081409e-06	1.333778e-09	2.831466e+01	9.348709e+01
2.830000e-06	4.112904e-06	1.340716e-09	2.853315e+01	9.377417e+01
2.840000e-06	4.144204e-06	1.346532e-09	2.875030e+01	9.405190e+01
2.850000e-06	4.175191e-06	1.348731e-09	2.896527e+01	9.432048e+01
2.860000e-06	4.205812e-06	1.350075e-09	2.917770e+01	9.458009e+01
2.870000e-06	4.236211e-06	1.353088e-09	2.938860e+01	9.483096e+01
2.880000e-06	4.266317e-06	1.356891e-09	2.959746e+01	9.507330e+01
2.890000e-06	4.296079e-06	1.359945e-09	2.980393e+01	9.530733e+01
2.900000e-06	4.325505e-06	1.360251e-09	3.000807e+01	9.553329e+01
