# Temperatura_=_-6.3
# Concentracion g/m^3_=_1620.0
# C_Vs_to_Am_M_A/Vsm_=_65563218390.804596
# pendiente_HvsI_1/m_=_3716.3
# ordenada_HvsI_A/m_=_1297.0
# frecuencia_Hz_=_135107.0327711974

Tiempo_(s)	Campo_(V.s)	Magnetizacion_(V.s)	Campo_(kA/m)	Magnetizacion_(A/m)
0.000000e+00	-5.526937e-06	-1.135099e-09	-3.837114e+01	-7.516804e+01
1.000000e-08	-5.527037e-06	-1.133496e-09	-3.837183e+01	-7.518091e+01
2.000000e-08	-5.526824e-06	-1.128593e-09	-3.837035e+01	-7.519575e+01
3.000000e-08	-5.526292e-06	-1.124984e-09	-3.836666e+01	-7.521217e+01
4.000000e-08	-5.525354e-06	-1.123593e-09	-3.836015e+01	-7.522975e+01
5.000000e-08	-5.523814e-06	-1.122438e-09	-3.834946e+01	-7.524804e+01
6.000000e-08	-5.521662e-06	-1.131784e-09	-3.833452e+01	-7.526655e+01
7.000000e-08	-5.518978e-06	-1.153143e-09	-3.831588e+01	-7.528478e+01
8.000000e-08	-5.515777e-06	-1.132599e-09	-3.829366e+01	-7.530222e+01
9.000000e-08	-5.512158e-06	-1.063156e-09	-3.826854e+01	-7.531833e+01
1.000000e-07	-5.508180e-06	-1.059686e-09	-3.824092e+01	-7.533258e+01
1.100000e-07	-5.503870e-06	-1.148145e-09	-3.821099e+01	-7.534444e+01
1.200000e-07	-5.499300e-06	-1.182246e-09	-3.817927e+01	-7.535337e+01
1.300000e-07	-5.494366e-06	-1.084647e-09	-3.814501e+01	-7.535884e+01
1.400000e-07	-5.489063e-06	-1.038313e-09	-3.810819e+01	-7.536035e+01
1.500000e-07	-5.483471e-06	-1.126248e-09	-3.806937e+01	-7.535740e+01
1.600000e-07	-5.477474e-06	-1.184460e-09	-3.802774e+01	-7.534954e+01
1.700000e-07	-5.471008e-06	-1.122037e-09	-3.798285e+01	-7.533632e+01
1.800000e-07	-5.464068e-06	-1.048134e-09	-3.793466e+01	-7.531734e+01
1.900000e-07	-5.456767e-06	-1.147911e-09	-3.788398e+01	-7.529223e+01
2.000000e-07	-5.449138e-06	-1.190064e-09	-3.783101e+01	-7.526067e+01
2.100000e-07	-5.441247e-06	-1.153131e-09	-3.777623e+01	-7.522236e+01
2.200000e-07	-5.433190e-06	-1.069870e-09	-3.772029e+01	-7.517708e+01
2.300000e-07	-5.424862e-06	-1.117706e-09	-3.766248e+01	-7.512464e+01
2.400000e-07	-5.416014e-06	-1.151267e-09	-3.760105e+01	-7.506489e+01
2.500000e-07	-5.406534e-06	-1.157734e-09	-3.753523e+01	-7.499774e+01
2.600000e-07	-5.396348e-06	-1.109118e-09	-3.746452e+01	-7.492317e+01
2.700000e-07	-5.385608e-06	-1.103661e-09	-3.738995e+01	-7.484118e+01
2.800000e-07	-5.374510e-06	-1.115701e-09	-3.731290e+01	-7.475185e+01
2.900000e-07	-5.362969e-06	-1.118827e-09	-3.723278e+01	-7.465530e+01
3.000000e-07	-5.350978e-06	-1.094000e-09	-3.714953e+01	-7.455168e+01
3.100000e-07	-5.338567e-06	-1.092774e-09	-3.706336e+01	-7.444123e+01
3.200000e-07	-5.325762e-06	-1.162932e-09	-3.697446e+01	-7.432420e+01
3.300000e-07	-5.312580e-06	-1.156788e-09	-3.688295e+01	-7.420089e+01
3.400000e-07	-5.298970e-06	-1.117794e-09	-3.678846e+01	-7.407165e+01
3.500000e-07	-5.284893e-06	-1.103581e-09	-3.669073e+01	-7.393685e+01
3.600000e-07	-5.270454e-06	-1.154920e-09	-3.659049e+01	-7.379692e+01
3.700000e-07	-5.255678e-06	-1.107995e-09	-3.648790e+01	-7.365228e+01
3.800000e-07	-5.240342e-06	-1.102998e-09	-3.638143e+01	-7.350340e+01
3.900000e-07	-5.224383e-06	-1.136890e-09	-3.627064e+01	-7.335076e+01
4.000000e-07	-5.208000e-06	-1.133840e-09	-3.615690e+01	-7.319486e+01
4.100000e-07	-5.191199e-06	-1.065630e-09	-3.604026e+01	-7.303621e+01
4.200000e-07	-5.173982e-06	-1.126139e-09	-3.592072e+01	-7.287530e+01
4.300000e-07	-5.156545e-06	-1.153650e-09	-3.579967e+01	-7.271265e+01
4.400000e-07	-5.138867e-06	-1.076748e-09	-3.567694e+01	-7.254876e+01
4.500000e-07	-5.120722e-06	-1.052553e-09	-3.555097e+01	-7.238414e+01
4.600000e-07	-5.102152e-06	-1.144767e-09	-3.542204e+01	-7.221924e+01
4.700000e-07	-5.083206e-06	-1.096878e-09	-3.529050e+01	-7.205454e+01
4.800000e-07	-5.063852e-06	-1.031214e-09	-3.515614e+01	-7.189048e+01
4.900000e-07	-5.044240e-06	-1.092758e-09	-3.501998e+01	-7.172746e+01
5.000000e-07	-5.024491e-06	-1.122902e-09	-3.488287e+01	-7.156586e+01
5.100000e-07	-5.004477e-06	-1.037570e-09	-3.474393e+01	-7.140604e+01
5.200000e-07	-4.984138e-06	-1.067765e-09	-3.460272e+01	-7.124831e+01
5.300000e-07	-4.963510e-06	-1.127692e-09	-3.445951e+01	-7.109293e+01
5.400000e-07	-4.942598e-06	-1.057301e-09	-3.431432e+01	-7.094015e+01
5.500000e-07	-4.921307e-06	-1.024268e-09	-3.416651e+01	-7.079016e+01
5.600000e-07	-4.899644e-06	-1.098697e-09	-3.401611e+01	-7.064310e+01
5.700000e-07	-4.877634e-06	-1.078863e-09	-3.386330e+01	-7.049909e+01
5.800000e-07	-4.855281e-06	-1.017990e-09	-3.370812e+01	-7.035819e+01
5.900000e-07	-4.832617e-06	-1.066093e-09	-3.355078e+01	-7.022043e+01
6.000000e-07	-4.809607e-06	-1.080991e-09	-3.339102e+01	-7.008578e+01
6.100000e-07	-4.786270e-06	-1.023260e-09	-3.322900e+01	-6.995418e+01
6.200000e-07	-4.762653e-06	-1.029914e-09	-3.306504e+01	-6.982554e+01
6.300000e-07	-4.738754e-06	-1.070729e-09	-3.289912e+01	-6.969972e+01
6.400000e-07	-4.714499e-06	-1.032929e-09	-3.273073e+01	-6.957654e+01
6.500000e-07	-4.689875e-06	-1.029299e-09	-3.255978e+01	-6.945582e+01
6.600000e-07	-4.664912e-06	-1.057333e-09	-3.238647e+01	-6.933730e+01
6.700000e-07	-4.639490e-06	-1.044837e-09	-3.220998e+01	-6.922075e+01
6.800000e-07	-4.613538e-06	-1.020413e-09	-3.202980e+01	-6.910587e+01
6.900000e-07	-4.587070e-06	-1.051332e-09	-3.184605e+01	-6.899236e+01
7.000000e-07	-4.560146e-06	-1.041769e-09	-3.165913e+01	-6.887991e+01
7.100000e-07	-4.532911e-06	-1.014088e-09	-3.147004e+01	-6.876820e+01
7.200000e-07	-4.505377e-06	-1.015516e-09	-3.127889e+01	-6.865688e+01
7.300000e-07	-4.477596e-06	-1.031298e-09	-3.108602e+01	-6.854562e+01
7.400000e-07	-4.449652e-06	-1.014164e-09	-3.089201e+01	-6.843406e+01
7.500000e-07	-4.421505e-06	-1.019343e-09	-3.069660e+01	-6.832188e+01
7.600000e-07	-4.393167e-06	-1.022775e-09	-3.049986e+01	-6.820873e+01
7.700000e-07	-4.364554e-06	-1.011991e-09	-3.030121e+01	-6.809428e+01
7.800000e-07	-4.335456e-06	-1.001868e-09	-3.009920e+01	-6.797824e+01
7.900000e-07	-4.305971e-06	-1.008327e-09	-2.989450e+01	-6.786028e+01
8.000000e-07	-4.276247e-06	-9.966993e-10	-2.968814e+01	-6.774014e+01
8.100000e-07	-4.246241e-06	-9.912974e-10	-2.947982e+01	-6.761755e+01
8.200000e-07	-4.215960e-06	-1.002327e-09	-2.926959e+01	-6.749225e+01
8.300000e-07	-4.185437e-06	-1.005297e-09	-2.905768e+01	-6.736404e+01
8.400000e-07	-4.154589e-06	-9.967292e-10	-2.884352e+01	-6.723271e+01
8.500000e-07	-4.123426e-06	-1.002336e-09	-2.862717e+01	-6.709810e+01
8.600000e-07	-4.091993e-06	-1.004472e-09	-2.840894e+01	-6.696005e+01
8.700000e-07	-4.060364e-06	-9.879713e-10	-2.818936e+01	-6.681845e+01
8.800000e-07	-4.028643e-06	-9.830679e-10	-2.796913e+01	-6.667319e+01
8.900000e-07	-3.996747e-06	-9.851239e-10	-2.774769e+01	-6.652421e+01
9.000000e-07	-3.964615e-06	-9.765691e-10	-2.752461e+01	-6.637147e+01
9.100000e-07	-3.932132e-06	-9.700729e-10	-2.729910e+01	-6.621493e+01
9.200000e-07	-3.899239e-06	-9.810255e-10	-2.707073e+01	-6.605460e+01
9.300000e-07	-3.865965e-06	-9.761809e-10	-2.683972e+01	-6.589051e+01
9.400000e-07	-3.832219e-06	-9.695413e-10	-2.660544e+01	-6.572268e+01
9.500000e-07	-3.797946e-06	-9.719408e-10	-2.636750e+01	-6.555119e+01
9.600000e-07	-3.763230e-06	-9.712093e-10	-2.612648e+01	-6.537610e+01
9.700000e-07	-3.728150e-06	-9.515172e-10	-2.588293e+01	-6.519749e+01
9.800000e-07	-3.692793e-06	-9.479616e-10	-2.563747e+01	-6.501548e+01
9.900000e-07	-3.657271e-06	-9.491122e-10	-2.539085e+01	-6.483016e+01
1.000000e-06	-3.621574e-06	-9.423711e-10	-2.514303e+01	-6.464165e+01
1.010000e-06	-3.585746e-06	-9.355748e-10	-2.489429e+01	-6.445006e+01
1.020000e-06	-3.549816e-06	-9.447421e-10	-2.464484e+01	-6.425553e+01
1.030000e-06	-3.513725e-06	-9.417075e-10	-2.439428e+01	-6.405816e+01
1.040000e-06	-3.477484e-06	-9.352600e-10	-2.414267e+01	-6.385807e+01
1.050000e-06	-3.440986e-06	-9.334092e-10	-2.388928e+01	-6.365538e+01
1.060000e-06	-3.404135e-06	-9.301579e-10	-2.363344e+01	-6.345020e+01
1.070000e-06	-3.366970e-06	-9.166189e-10	-2.337542e+01	-6.324263e+01
1.080000e-06	-3.329570e-06	-9.136802e-10	-2.311577e+01	-6.303275e+01
1.090000e-06	-3.291989e-06	-9.160356e-10	-2.285486e+01	-6.282064e+01
1.100000e-06	-3.254180e-06	-9.112695e-10	-2.259237e+01	-6.260638e+01
1.110000e-06	-3.216079e-06	-9.063984e-10	-2.232785e+01	-6.239001e+01
1.120000e-06	-3.177706e-06	-9.099527e-10	-2.206144e+01	-6.217158e+01
1.130000e-06	-3.139126e-06	-9.077351e-10	-2.179360e+01	-6.195112e+01
1.140000e-06	-3.100326e-06	-9.007731e-10	-2.152422e+01	-6.172862e+01
1.150000e-06	-3.061369e-06	-9.011221e-10	-2.125377e+01	-6.150409e+01
1.160000e-06	-3.022264e-06	-8.987875e-10	-2.098228e+01	-6.127752e+01
1.170000e-06	-2.982957e-06	-8.902759e-10	-2.070938e+01	-6.104885e+01
1.180000e-06	-2.943438e-06	-8.864056e-10	-2.043502e+01	-6.081805e+01
1.190000e-06	-2.903784e-06	-8.876049e-10	-2.015972e+01	-6.058506e+01
1.200000e-06	-2.864061e-06	-8.821983e-10	-1.988394e+01	-6.034978e+01
1.210000e-06	-2.824199e-06	-8.782522e-10	-1.960720e+01	-6.011213e+01
1.220000e-06	-2.784222e-06	-8.758816e-10	-1.932965e+01	-5.987202e+01
1.230000e-06	-2.744074e-06	-8.726311e-10	-1.905092e+01	-5.962931e+01
1.240000e-06	-2.703758e-06	-8.658058e-10	-1.877103e+01	-5.938388e+01
1.250000e-06	-2.663291e-06	-8.673199e-10	-1.849008e+01	-5.913560e+01
1.260000e-06	-2.622528e-06	-8.664130e-10	-1.820708e+01	-5.888432e+01
1.270000e-06	-2.581523e-06	-8.620908e-10	-1.792240e+01	-5.862987e+01
1.280000e-06	-2.540300e-06	-8.577175e-10	-1.763621e+01	-5.837210e+01
1.290000e-06	-2.498760e-06	-8.555372e-10	-1.734781e+01	-5.811083e+01
1.300000e-06	-2.456799e-06	-8.475206e-10	-1.705649e+01	-5.784588e+01
1.310000e-06	-2.414492e-06	-8.395352e-10	-1.676278e+01	-5.757705e+01
1.320000e-06	-2.371962e-06	-8.357201e-10	-1.646751e+01	-5.730416e+01
1.330000e-06	-2.329151e-06	-8.331204e-10	-1.617029e+01	-5.702699e+01
1.340000e-06	-2.286064e-06	-8.287014e-10	-1.587115e+01	-5.674534e+01
1.350000e-06	-2.242767e-06	-8.266649e-10	-1.557056e+01	-5.645898e+01
1.360000e-06	-2.199339e-06	-8.209647e-10	-1.526906e+01	-5.616769e+01
1.370000e-06	-2.155785e-06	-8.125339e-10	-1.496669e+01	-5.587122e+01
1.380000e-06	-2.112115e-06	-8.045379e-10	-1.466351e+01	-5.556933e+01
1.390000e-06	-2.068366e-06	-7.980271e-10	-1.435977e+01	-5.526175e+01
1.400000e-06	-2.024523e-06	-7.922102e-10	-1.405539e+01	-5.494821e+01
1.410000e-06	-1.980610e-06	-7.870084e-10	-1.375052e+01	-5.462842e+01
1.420000e-06	-1.936652e-06	-7.822546e-10	-1.344534e+01	-5.430209e+01
1.430000e-06	-1.892545e-06	-7.768986e-10	-1.313912e+01	-5.396888e+01
1.440000e-06	-1.848331e-06	-7.713411e-10	-1.283216e+01	-5.362847e+01
1.450000e-06	-1.804062e-06	-7.649397e-10	-1.252482e+01	-5.328048e+01
1.460000e-06	-1.759686e-06	-7.574324e-10	-1.221674e+01	-5.292455e+01
1.470000e-06	-1.715146e-06	-7.472758e-10	-1.190752e+01	-5.256027e+01
1.480000e-06	-1.670359e-06	-7.392550e-10	-1.159658e+01	-5.218720e+01
1.490000e-06	-1.625407e-06	-7.322717e-10	-1.128450e+01	-5.180490e+01
1.500000e-06	-1.580295e-06	-7.256010e-10	-1.097131e+01	-5.141287e+01
1.510000e-06	-1.535089e-06	-7.189501e-10	-1.065746e+01	-5.101062e+01
1.520000e-06	-1.489855e-06	-7.138160e-10	-1.034342e+01	-5.059759e+01
1.530000e-06	-1.444486e-06	-7.076345e-10	-1.002844e+01	-5.017322e+01
1.540000e-06	-1.399027e-06	-6.986208e-10	-9.712843e+00	-4.973691e+01
1.550000e-06	-1.353562e-06	-6.885346e-10	-9.397199e+00	-4.928802e+01
1.560000e-06	-1.308008e-06	-6.782033e-10	-9.080932e+00	-4.882590e+01
1.570000e-06	-1.262309e-06	-6.682616e-10	-8.763669e+00	-4.834984e+01
1.580000e-06	-1.216535e-06	-6.594431e-10	-8.445878e+00	-4.785914e+01
1.590000e-06	-1.170684e-06	-6.537824e-10	-8.127551e+00	-4.735304e+01
1.600000e-06	-1.124766e-06	-6.510694e-10	-7.808762e+00	-4.683077e+01
1.610000e-06	-1.078826e-06	-6.447418e-10	-7.489825e+00	-4.629153e+01
1.620000e-06	-1.032794e-06	-6.369693e-10	-7.170245e+00	-4.573451e+01
1.630000e-06	-9.866149e-07	-6.277619e-10	-6.849641e+00	-4.515887e+01
1.640000e-06	-9.403286e-07	-6.181155e-10	-6.528296e+00	-4.456377e+01
1.650000e-06	-8.939929e-07	-6.076925e-10	-6.206607e+00	-4.394834e+01
1.660000e-06	-8.476751e-07	-5.937974e-10	-5.885042e+00	-4.331172e+01
1.670000e-06	-8.014347e-07	-5.791666e-10	-5.564015e+00	-4.265305e+01
1.680000e-06	-7.551365e-07	-5.670897e-10	-5.242586e+00	-4.197147e+01
1.690000e-06	-7.087206e-07	-5.556658e-10	-4.920341e+00	-4.126612e+01
1.700000e-06	-6.621328e-07	-5.432695e-10	-4.596902e+00	-4.053617e+01
1.710000e-06	-6.154527e-07	-5.321545e-10	-4.272822e+00	-3.978081e+01
1.720000e-06	-5.688400e-07	-5.236838e-10	-3.949211e+00	-3.899924e+01
1.730000e-06	-5.221727e-07	-5.134404e-10	-3.625220e+00	-3.819071e+01
1.740000e-06	-4.754732e-07	-5.016233e-10	-3.301005e+00	-3.735451e+01
1.750000e-06	-4.287464e-07	-4.884679e-10	-2.976601e+00	-3.648997e+01
1.760000e-06	-3.819568e-07	-4.747001e-10	-2.651761e+00	-3.559647e+01
1.770000e-06	-3.351360e-07	-4.622634e-10	-2.326704e+00	-3.467345e+01
1.780000e-06	-2.882869e-07	-4.496124e-10	-2.001451e+00	-3.372044e+01
1.790000e-06	-2.414247e-07	-4.369873e-10	-1.676107e+00	-3.273700e+01
1.800000e-06	-1.946111e-07	-4.214913e-10	-1.351101e+00	-3.172279e+01
1.810000e-06	-1.477874e-07	-4.042263e-10	-1.026024e+00	-3.067756e+01
1.820000e-06	-1.008587e-07	-3.897518e-10	-7.002184e-01	-2.960114e+01
1.830000e-06	-5.394319e-08	-3.763157e-10	-3.745043e-01	-2.849345e+01
1.840000e-06	-7.066505e-09	-3.616423e-10	-4.905969e-02	-2.735450e+01
1.850000e-06	3.974845e-08	-3.468766e-10	2.759564e-01	-2.618442e+01
1.860000e-06	8.657235e-08	-3.313225e-10	6.010344e-01	-2.498344e+01
1.870000e-06	1.334657e-07	-3.136982e-10	9.265951e-01	-2.375189e+01
1.880000e-06	1.803819e-07	-2.964039e-10	1.252314e+00	-2.249021e+01
1.890000e-06	2.272834e-07	-2.791194e-10	1.577930e+00	-2.119896e+01
1.900000e-06	2.740995e-07	-2.610166e-10	1.902955e+00	-1.987879e+01
1.910000e-06	3.208968e-07	-2.443347e-10	2.227848e+00	-1.853049e+01
1.920000e-06	3.677051e-07	-2.285338e-10	2.552818e+00	-1.715494e+01
1.930000e-06	4.145072e-07	-2.123508e-10	2.877745e+00	-1.575313e+01
1.940000e-06	4.613081e-07	-1.934425e-10	3.202663e+00	-1.432617e+01
1.950000e-06	5.080833e-07	-1.732940e-10	3.527403e+00	-1.287526e+01
1.960000e-06	5.547704e-07	-1.552898e-10	3.851531e+00	-1.140170e+01
1.970000e-06	6.013192e-07	-1.368627e-10	4.174700e+00	-9.906909e+00
1.980000e-06	6.477846e-07	-1.175267e-10	4.497289e+00	-8.392361e+00
1.990000e-06	6.942612e-07	-9.636620e-11	4.819956e+00	-6.859638e+00
2.000000e-06	7.407059e-07	-7.094835e-11	5.142401e+00	-5.310392e+00
2.010000e-06	7.870673e-07	-4.399592e-11	5.464269e+00	-3.746348e+00
2.020000e-06	8.333229e-07	-2.034116e-11	5.785401e+00	-2.169295e+00
2.030000e-06	8.795134e-07	2.458118e-13	6.106082e+00	-5.810772e-01
2.040000e-06	9.256635e-07	1.925320e-11	6.426482e+00	1.016413e+00
2.050000e-06	9.717823e-07	3.921129e-11	6.746665e+00	2.621246e+00
2.060000e-06	1.017975e-06	6.186925e-11	7.067364e+00	4.231461e+00
2.070000e-06	1.064103e-06	8.468969e-11	7.387607e+00	5.845077e+00
2.080000e-06	1.110050e-06	1.090457e-10	7.706601e+00	7.460102e+00
2.090000e-06	1.155906e-06	1.351051e-10	8.024955e+00	9.074542e+00
2.100000e-06	1.201680e-06	1.610744e-10	8.342747e+00	1.068641e+01
2.110000e-06	1.247344e-06	1.844680e-10	8.659769e+00	1.229374e+01
2.120000e-06	1.292884e-06	2.057267e-10	8.975934e+00	1.389458e+01
2.130000e-06	1.338321e-06	2.257838e-10	9.291388e+00	1.548703e+01
2.140000e-06	1.383751e-06	2.448003e-10	9.606783e+00	1.706922e+01
2.150000e-06	1.429149e-06	2.672288e-10	9.921964e+00	1.863933e+01
2.160000e-06	1.474386e-06	2.923506e-10	1.023603e+01	2.019562e+01
2.170000e-06	1.519522e-06	3.156427e-10	1.054939e+01	2.173639e+01
2.180000e-06	1.564526e-06	3.368190e-10	1.086183e+01	2.326003e+01
2.190000e-06	1.609351e-06	3.568588e-10	1.117303e+01	2.476501e+01
2.200000e-06	1.654104e-06	3.777800e-10	1.148373e+01	2.624989e+01
2.210000e-06	1.698744e-06	3.978148e-10	1.179364e+01	2.771329e+01
2.220000e-06	1.743233e-06	4.154524e-10	1.210251e+01	2.915396e+01
2.230000e-06	1.787580e-06	4.327939e-10	1.241040e+01	3.057074e+01
2.240000e-06	1.831759e-06	4.498647e-10	1.271711e+01	3.196257e+01
2.250000e-06	1.875780e-06	4.678885e-10	1.302273e+01	3.332848e+01
2.260000e-06	1.919800e-06	4.868190e-10	1.332834e+01	3.466761e+01
2.270000e-06	1.963795e-06	5.059637e-10	1.363378e+01	3.597923e+01
2.280000e-06	2.007652e-06	5.255349e-10	1.393826e+01	3.726269e+01
2.290000e-06	2.051466e-06	5.451316e-10	1.424244e+01	3.851744e+01
2.300000e-06	2.095259e-06	5.638294e-10	1.454648e+01	3.974305e+01
2.310000e-06	2.138999e-06	5.800657e-10	1.485015e+01	4.093918e+01
2.320000e-06	2.182616e-06	5.950994e-10	1.515296e+01	4.210560e+01
2.330000e-06	2.226088e-06	6.075689e-10	1.545477e+01	4.324216e+01
2.340000e-06	2.269418e-06	6.174287e-10	1.575559e+01	4.434881e+01
2.350000e-06	2.312538e-06	6.274178e-10	1.605495e+01	4.542558e+01
2.360000e-06	2.355390e-06	6.418498e-10	1.635246e+01	4.647258e+01
2.370000e-06	2.397966e-06	6.567973e-10	1.664804e+01	4.749002e+01
2.380000e-06	2.440287e-06	6.701252e-10	1.694186e+01	4.847813e+01
2.390000e-06	2.482296e-06	6.831725e-10	1.723351e+01	4.943726e+01
2.400000e-06	2.523953e-06	6.952891e-10	1.752272e+01	5.036779e+01
2.410000e-06	2.565268e-06	7.089644e-10	1.780955e+01	5.127015e+01
2.420000e-06	2.606252e-06	7.219176e-10	1.809408e+01	5.214483e+01
2.430000e-06	2.647017e-06	7.344898e-10	1.837709e+01	5.299235e+01
2.440000e-06	2.687670e-06	7.467112e-10	1.865933e+01	5.381327e+01
2.450000e-06	2.728162e-06	7.564957e-10	1.894045e+01	5.460819e+01
2.460000e-06	2.768399e-06	7.656163e-10	1.921980e+01	5.537770e+01
2.470000e-06	2.808444e-06	7.757813e-10	1.949781e+01	5.612243e+01
2.480000e-06	2.848367e-06	7.884170e-10	1.977498e+01	5.684303e+01
2.490000e-06	2.888176e-06	8.019498e-10	2.005136e+01	5.754014e+01
2.500000e-06	2.927860e-06	8.143133e-10	2.032687e+01	5.821440e+01
2.510000e-06	2.967372e-06	8.245014e-10	2.060118e+01	5.886646e+01
2.520000e-06	3.006661e-06	8.321956e-10	2.087395e+01	5.949695e+01
2.530000e-06	3.045755e-06	8.391385e-10	2.114536e+01	6.010650e+01
2.540000e-06	3.084673e-06	8.445132e-10	2.141555e+01	6.069573e+01
2.550000e-06	3.123316e-06	8.490160e-10	2.168384e+01	6.126524e+01
2.560000e-06	3.161700e-06	8.557492e-10	2.195032e+01	6.181561e+01
2.570000e-06	3.199893e-06	8.646728e-10	2.221548e+01	6.234739e+01
2.580000e-06	3.237959e-06	8.722712e-10	2.247975e+01	6.286114e+01
2.590000e-06	3.275911e-06	8.794180e-10	2.274323e+01	6.335737e+01
2.600000e-06	3.313604e-06	8.865443e-10	2.300492e+01	6.383658e+01
2.610000e-06	3.351021e-06	8.925154e-10	2.326469e+01	6.429925e+01
2.620000e-06	3.388188e-06	8.984895e-10	2.352273e+01	6.474583e+01
2.630000e-06	3.425034e-06	9.056556e-10	2.377854e+01	6.517677e+01
2.640000e-06	3.461576e-06	9.118627e-10	2.403223e+01	6.559249e+01
2.650000e-06	3.497896e-06	9.151973e-10	2.428438e+01	6.599337e+01
2.660000e-06	3.534080e-06	9.188085e-10	2.453559e+01	6.637981e+01
2.670000e-06	3.570125e-06	9.237186e-10	2.478584e+01	6.675218e+01
2.680000e-06	3.606021e-06	9.282669e-10	2.503505e+01	6.711084e+01
2.690000e-06	3.641779e-06	9.339885e-10	2.528330e+01	6.745613e+01
2.700000e-06	3.677361e-06	9.393514e-10	2.553033e+01	6.778839e+01
2.710000e-06	3.712746e-06	9.440120e-10	2.577599e+01	6.810797e+01
2.720000e-06	3.747882e-06	9.505639e-10	2.601993e+01	6.841519e+01
2.730000e-06	3.782658e-06	9.582660e-10	2.626136e+01	6.871039e+01
2.740000e-06	3.816990e-06	9.646415e-10	2.649972e+01	6.899388e+01
2.750000e-06	3.850844e-06	9.700267e-10	2.673475e+01	6.926602e+01
2.760000e-06	3.884200e-06	9.741105e-10	2.696633e+01	6.952713e+01
2.770000e-06	3.917133e-06	9.768780e-10	2.719497e+01	6.977756e+01
2.780000e-06	3.949766e-06	9.814339e-10	2.742152e+01	7.001765e+01
2.790000e-06	3.982141e-06	9.879872e-10	2.764629e+01	7.024777e+01
2.800000e-06	4.014246e-06	9.945813e-10	2.786918e+01	7.046828e+01
2.810000e-06	4.046113e-06	9.996842e-10	2.809041e+01	7.067955e+01
2.820000e-06	4.077765e-06	1.004977e-09	2.831016e+01	7.088197e+01
2.830000e-06	4.109229e-06	1.009997e-09	2.852861e+01	7.107593e+01
2.840000e-06	4.140485e-06	1.012585e-09	2.874560e+01	7.126182e+01
2.850000e-06	4.171426e-06	1.014572e-09	2.896041e+01	7.144006e+01
2.860000e-06	4.202058e-06	1.018130e-09	2.917308e+01	7.161104e+01
2.870000e-06	4.232344e-06	1.022541e-09	2.938334e+01	7.177520e+01
2.880000e-06	4.262333e-06	1.027608e-09	2.959154e+01	7.193295e+01
2.890000e-06	4.292112e-06	1.034508e-09	2.979828e+01	7.208471e+01
2.900000e-06	4.321600e-06	1.041380e-09	3.000301e+01	7.223089e+01
