# Temperatura_=_0.5
# Concentracion g/m^3_=_1620.0
# C_Vs_to_Am_M_A/Vsm_=_65563218390.804596
# pendiente_HvsI_1/m_=_3716.3
# ordenada_HvsI_A/m_=_1297.0
# frecuencia_Hz_=_135109.48589090115

Tiempo_(s)	Campo_(V.s)	Magnetizacion_(V.s)	Campo_(kA/m)	Magnetizacion_(A/m)
0.000000e+00	-5.511456e-06	-1.141219e-09	-3.836220e+01	-7.707695e+01
1.000000e-08	-5.511710e-06	-1.136211e-09	-3.836397e+01	-7.709665e+01
2.000000e-08	-5.511787e-06	-1.132199e-09	-3.836450e+01	-7.711788e+01
3.000000e-08	-5.511585e-06	-1.130942e-09	-3.836310e+01	-7.714019e+01
4.000000e-08	-5.510895e-06	-1.132710e-09	-3.835829e+01	-7.716313e+01
5.000000e-08	-5.509642e-06	-1.132488e-09	-3.834958e+01	-7.718620e+01
6.000000e-08	-5.507834e-06	-1.127253e-09	-3.833699e+01	-7.720889e+01
7.000000e-08	-5.505482e-06	-1.119745e-09	-3.832062e+01	-7.723068e+01
8.000000e-08	-5.502607e-06	-1.128435e-09	-3.830061e+01	-7.725104e+01
9.000000e-08	-5.499307e-06	-1.144507e-09	-3.827764e+01	-7.726944e+01
1.000000e-07	-5.495525e-06	-1.140295e-09	-3.825131e+01	-7.728532e+01
1.100000e-07	-5.491329e-06	-1.136789e-09	-3.822211e+01	-7.729818e+01
1.200000e-07	-5.486921e-06	-1.141916e-09	-3.819142e+01	-7.730748e+01
1.300000e-07	-5.482291e-06	-1.087736e-09	-3.815920e+01	-7.731274e+01
1.400000e-07	-5.477361e-06	-1.090134e-09	-3.812488e+01	-7.731348e+01
1.500000e-07	-5.472002e-06	-1.108664e-09	-3.808758e+01	-7.730925e+01
1.600000e-07	-5.466275e-06	-1.151020e-09	-3.804772e+01	-7.729963e+01
1.700000e-07	-5.460191e-06	-1.117290e-09	-3.800537e+01	-7.728425e+01
1.800000e-07	-5.453578e-06	-1.091981e-09	-3.795934e+01	-7.726276e+01
1.900000e-07	-5.446462e-06	-1.124065e-09	-3.790981e+01	-7.723487e+01
2.000000e-07	-5.439027e-06	-1.156985e-09	-3.785806e+01	-7.720033e+01
2.100000e-07	-5.431386e-06	-1.132447e-09	-3.780488e+01	-7.715893e+01
2.200000e-07	-5.423564e-06	-1.097067e-09	-3.775043e+01	-7.711053e+01
2.300000e-07	-5.415522e-06	-1.121348e-09	-3.769446e+01	-7.705502e+01
2.400000e-07	-5.407173e-06	-1.146872e-09	-3.763634e+01	-7.699236e+01
2.500000e-07	-5.398289e-06	-1.147978e-09	-3.757451e+01	-7.692255e+01
2.600000e-07	-5.388591e-06	-1.119650e-09	-3.750701e+01	-7.684564e+01
2.700000e-07	-5.378105e-06	-1.120896e-09	-3.743402e+01	-7.676176e+01
2.800000e-07	-5.367053e-06	-1.112853e-09	-3.735709e+01	-7.667106e+01
2.900000e-07	-5.355610e-06	-1.114454e-09	-3.727744e+01	-7.657375e+01
3.000000e-07	-5.343819e-06	-1.103056e-09	-3.719537e+01	-7.647007e+01
3.100000e-07	-5.331705e-06	-1.116238e-09	-3.711105e+01	-7.636034e+01
3.200000e-07	-5.319209e-06	-1.116621e-09	-3.702408e+01	-7.624488e+01
3.300000e-07	-5.306235e-06	-1.134055e-09	-3.693377e+01	-7.612406e+01
3.400000e-07	-5.292834e-06	-1.109887e-09	-3.684049e+01	-7.599830e+01
3.500000e-07	-5.279082e-06	-1.099936e-09	-3.674477e+01	-7.586802e+01
3.600000e-07	-5.264962e-06	-1.111010e-09	-3.664649e+01	-7.573368e+01
3.700000e-07	-5.250431e-06	-1.124031e-09	-3.654535e+01	-7.559575e+01
3.800000e-07	-5.235457e-06	-1.089434e-09	-3.644112e+01	-7.545471e+01
3.900000e-07	-5.219857e-06	-1.102896e-09	-3.633254e+01	-7.531107e+01
4.000000e-07	-5.203649e-06	-1.125003e-09	-3.621972e+01	-7.516531e+01
4.100000e-07	-5.187074e-06	-1.093345e-09	-3.610436e+01	-7.501794e+01
4.200000e-07	-5.170186e-06	-1.076473e-09	-3.598681e+01	-7.486944e+01
4.300000e-07	-5.153006e-06	-1.119441e-09	-3.586723e+01	-7.472028e+01
4.400000e-07	-5.135535e-06	-1.107182e-09	-3.574562e+01	-7.457093e+01
4.500000e-07	-5.117749e-06	-1.058310e-09	-3.562183e+01	-7.442183e+01
4.600000e-07	-5.099576e-06	-1.097711e-09	-3.549533e+01	-7.427339e+01
4.700000e-07	-5.080884e-06	-1.114528e-09	-3.536523e+01	-7.412598e+01
4.800000e-07	-5.061809e-06	-1.050714e-09	-3.523246e+01	-7.397998e+01
4.900000e-07	-5.042488e-06	-1.057409e-09	-3.509798e+01	-7.383568e+01
5.000000e-07	-5.022889e-06	-1.119317e-09	-3.496156e+01	-7.369337e+01
5.100000e-07	-5.003065e-06	-1.073369e-09	-3.482357e+01	-7.355328e+01
5.200000e-07	-4.982993e-06	-1.048342e-09	-3.468386e+01	-7.341561e+01
5.300000e-07	-4.962556e-06	-1.108892e-09	-3.454161e+01	-7.328051e+01
5.400000e-07	-4.941791e-06	-1.097446e-09	-3.439707e+01	-7.314808e+01
5.500000e-07	-4.920720e-06	-1.030779e-09	-3.425041e+01	-7.301839e+01
5.600000e-07	-4.899278e-06	-1.069569e-09	-3.410117e+01	-7.289145e+01
5.700000e-07	-4.877493e-06	-1.084255e-09	-3.394953e+01	-7.276723e+01
5.800000e-07	-4.855397e-06	-1.030214e-09	-3.379573e+01	-7.264567e+01
5.900000e-07	-4.833027e-06	-1.047857e-09	-3.364003e+01	-7.252664e+01
6.000000e-07	-4.810322e-06	-1.097270e-09	-3.348200e+01	-7.241000e+01
6.100000e-07	-4.787224e-06	-1.048959e-09	-3.332122e+01	-7.229555e+01
6.200000e-07	-4.763810e-06	-1.030575e-09	-3.315825e+01	-7.218307e+01
6.300000e-07	-4.740184e-06	-1.065133e-09	-3.299380e+01	-7.207231e+01
6.400000e-07	-4.716363e-06	-1.043790e-09	-3.282799e+01	-7.196296e+01
6.500000e-07	-4.692194e-06	-1.013641e-09	-3.265977e+01	-7.185473e+01
6.600000e-07	-4.667646e-06	-1.046266e-09	-3.248890e+01	-7.174729e+01
6.700000e-07	-4.642708e-06	-1.045890e-09	-3.231533e+01	-7.164027e+01
6.800000e-07	-4.617185e-06	-1.022520e-09	-3.213767e+01	-7.153331e+01
6.900000e-07	-4.591042e-06	-1.041052e-09	-3.195570e+01	-7.142604e+01
7.000000e-07	-4.564371e-06	-1.049901e-09	-3.177007e+01	-7.131808e+01
7.100000e-07	-4.537264e-06	-1.021748e-09	-3.158138e+01	-7.120904e+01
7.200000e-07	-4.509820e-06	-1.022552e-09	-3.139036e+01	-7.109854e+01
7.300000e-07	-4.482170e-06	-1.033892e-09	-3.119791e+01	-7.098621e+01
7.400000e-07	-4.454403e-06	-1.019368e-09	-3.100463e+01	-7.087167e+01
7.500000e-07	-4.426456e-06	-1.017665e-09	-3.081012e+01	-7.075458e+01
7.600000e-07	-4.398312e-06	-1.028044e-09	-3.061422e+01	-7.063458e+01
7.700000e-07	-4.369907e-06	-1.018671e-09	-3.041651e+01	-7.051136e+01
7.800000e-07	-4.341162e-06	-1.008667e-09	-3.021643e+01	-7.038461e+01
7.900000e-07	-4.312069e-06	-1.015664e-09	-3.001393e+01	-7.025406e+01
8.000000e-07	-4.282644e-06	-1.008950e-09	-2.980912e+01	-7.011944e+01
8.100000e-07	-4.252955e-06	-9.978460e-10	-2.960247e+01	-6.998053e+01
8.200000e-07	-4.222972e-06	-1.000857e-09	-2.939377e+01	-6.983713e+01
8.300000e-07	-4.192669e-06	-1.005470e-09	-2.918285e+01	-6.968907e+01
8.400000e-07	-4.162094e-06	-9.947843e-10	-2.897004e+01	-6.953619e+01
8.500000e-07	-4.131320e-06	-9.954014e-10	-2.875584e+01	-6.937838e+01
8.600000e-07	-4.100314e-06	-9.979081e-10	-2.854002e+01	-6.921555e+01
8.700000e-07	-4.069007e-06	-9.891483e-10	-2.832211e+01	-6.904763e+01
8.800000e-07	-4.037477e-06	-9.805655e-10	-2.810265e+01	-6.887460e+01
8.900000e-07	-4.005758e-06	-9.864206e-10	-2.788187e+01	-6.869645e+01
9.000000e-07	-3.973840e-06	-9.827638e-10	-2.765970e+01	-6.851318e+01
9.100000e-07	-3.941722e-06	-9.774025e-10	-2.743615e+01	-6.832484e+01
9.200000e-07	-3.909262e-06	-9.807807e-10	-2.721021e+01	-6.813148e+01
9.300000e-07	-3.876419e-06	-9.806797e-10	-2.698161e+01	-6.793318e+01
9.400000e-07	-3.843225e-06	-9.687893e-10	-2.675056e+01	-6.773004e+01
9.500000e-07	-3.809583e-06	-9.667285e-10	-2.651640e+01	-6.752215e+01
9.600000e-07	-3.775484e-06	-9.657348e-10	-2.627906e+01	-6.730963e+01
9.700000e-07	-3.740907e-06	-9.553427e-10	-2.603838e+01	-6.709262e+01
9.800000e-07	-3.705898e-06	-9.485843e-10	-2.579471e+01	-6.687124e+01
9.900000e-07	-3.670555e-06	-9.516681e-10	-2.554870e+01	-6.664564e+01
1.000000e-06	-3.634986e-06	-9.472140e-10	-2.530113e+01	-6.641595e+01
1.010000e-06	-3.599318e-06	-9.408411e-10	-2.505286e+01	-6.618232e+01
1.020000e-06	-3.563557e-06	-9.438339e-10	-2.480395e+01	-6.594489e+01
1.030000e-06	-3.527609e-06	-9.440927e-10	-2.455374e+01	-6.570378e+01
1.040000e-06	-3.491443e-06	-9.394147e-10	-2.430201e+01	-6.545914e+01
1.050000e-06	-3.455062e-06	-9.395135e-10	-2.404878e+01	-6.521107e+01
1.060000e-06	-3.418444e-06	-9.395000e-10	-2.379390e+01	-6.495970e+01
1.070000e-06	-3.381554e-06	-9.312750e-10	-2.353713e+01	-6.470513e+01
1.080000e-06	-3.344345e-06	-9.267447e-10	-2.327814e+01	-6.444745e+01
1.090000e-06	-3.306937e-06	-9.273938e-10	-2.301776e+01	-6.418675e+01
1.100000e-06	-3.269321e-06	-9.241626e-10	-2.275593e+01	-6.392309e+01
1.110000e-06	-3.231437e-06	-9.159605e-10	-2.249225e+01	-6.365654e+01
1.120000e-06	-3.193384e-06	-9.143854e-10	-2.222738e+01	-6.338714e+01
1.130000e-06	-3.155171e-06	-9.116706e-10	-2.196140e+01	-6.311494e+01
1.140000e-06	-3.116724e-06	-9.072541e-10	-2.169379e+01	-6.283994e+01
1.150000e-06	-3.078048e-06	-9.060519e-10	-2.142459e+01	-6.256218e+01
1.160000e-06	-3.039106e-06	-9.043238e-10	-2.115354e+01	-6.228165e+01
1.170000e-06	-2.999921e-06	-8.946871e-10	-2.088079e+01	-6.199836e+01
1.180000e-06	-2.960642e-06	-8.853010e-10	-2.060739e+01	-6.171228e+01
1.190000e-06	-2.921216e-06	-8.803029e-10	-2.033297e+01	-6.142341e+01
1.200000e-06	-2.881648e-06	-8.757948e-10	-2.005756e+01	-6.113171e+01
1.210000e-06	-2.841979e-06	-8.717906e-10	-1.978145e+01	-6.083716e+01
1.220000e-06	-2.802143e-06	-8.728329e-10	-1.950417e+01	-6.053972e+01
1.230000e-06	-2.762143e-06	-8.714780e-10	-1.922575e+01	-6.023936e+01
1.240000e-06	-2.721931e-06	-8.669940e-10	-1.894586e+01	-5.993604e+01
1.250000e-06	-2.681562e-06	-8.626941e-10	-1.866487e+01	-5.962971e+01
1.260000e-06	-2.641059e-06	-8.572488e-10	-1.838295e+01	-5.932034e+01
1.270000e-06	-2.600322e-06	-8.485457e-10	-1.809940e+01	-5.900788e+01
1.280000e-06	-2.559330e-06	-8.412270e-10	-1.781408e+01	-5.869229e+01
1.290000e-06	-2.518045e-06	-8.372158e-10	-1.752672e+01	-5.837352e+01
1.300000e-06	-2.476366e-06	-8.331796e-10	-1.723661e+01	-5.805154e+01
1.310000e-06	-2.434371e-06	-8.272800e-10	-1.694431e+01	-5.772629e+01
1.320000e-06	-2.392158e-06	-8.244071e-10	-1.665049e+01	-5.739772e+01
1.330000e-06	-2.349685e-06	-8.205369e-10	-1.635486e+01	-5.706579e+01
1.340000e-06	-2.306888e-06	-8.150588e-10	-1.605697e+01	-5.673043e+01
1.350000e-06	-2.263794e-06	-8.108390e-10	-1.575702e+01	-5.639159e+01
1.360000e-06	-2.220541e-06	-8.067810e-10	-1.545596e+01	-5.604919e+01
1.370000e-06	-2.177153e-06	-8.004736e-10	-1.515396e+01	-5.570315e+01
1.380000e-06	-2.133587e-06	-7.934326e-10	-1.485072e+01	-5.535337e+01
1.390000e-06	-2.089885e-06	-7.873648e-10	-1.454653e+01	-5.499974e+01
1.400000e-06	-2.046137e-06	-7.802191e-10	-1.424203e+01	-5.464214e+01
1.410000e-06	-2.002358e-06	-7.760476e-10	-1.393731e+01	-5.428042e+01
1.420000e-06	-1.958513e-06	-7.738906e-10	-1.363213e+01	-5.391440e+01
1.430000e-06	-1.914553e-06	-7.700470e-10	-1.332614e+01	-5.354389e+01
1.440000e-06	-1.870479e-06	-7.644962e-10	-1.301937e+01	-5.316865e+01
1.450000e-06	-1.826366e-06	-7.579742e-10	-1.271232e+01	-5.278844e+01
1.460000e-06	-1.782217e-06	-7.488582e-10	-1.240503e+01	-5.240294e+01
1.470000e-06	-1.737949e-06	-7.382060e-10	-1.209690e+01	-5.201183e+01
1.480000e-06	-1.693568e-06	-7.286808e-10	-1.178799e+01	-5.161473e+01
1.490000e-06	-1.649069e-06	-7.228820e-10	-1.147826e+01	-5.121122e+01
1.500000e-06	-1.604281e-06	-7.174235e-10	-1.116651e+01	-5.080085e+01
1.510000e-06	-1.559235e-06	-7.121436e-10	-1.085297e+01	-5.038310e+01
1.520000e-06	-1.514158e-06	-7.051492e-10	-1.053922e+01	-4.995741e+01
1.530000e-06	-1.469008e-06	-6.985687e-10	-1.022495e+01	-4.952318e+01
1.540000e-06	-1.423678e-06	-6.898243e-10	-9.909435e+00	-4.907976e+01
1.550000e-06	-1.378278e-06	-6.800818e-10	-9.593435e+00	-4.862643e+01
1.560000e-06	-1.332836e-06	-6.682993e-10	-9.277137e+00	-4.816244e+01
1.570000e-06	-1.287315e-06	-6.555650e-10	-8.960286e+00	-4.768698e+01
1.580000e-06	-1.241713e-06	-6.453719e-10	-8.642880e+00	-4.719922e+01
1.590000e-06	-1.196051e-06	-6.384957e-10	-8.325052e+00	-4.669824e+01
1.600000e-06	-1.150344e-06	-6.348731e-10	-8.006909e+00	-4.618312e+01
1.610000e-06	-1.104559e-06	-6.320304e-10	-7.688227e+00	-4.565287e+01
1.620000e-06	-1.058669e-06	-6.261212e-10	-7.368812e+00	-4.510649e+01
1.630000e-06	-1.012686e-06	-6.167107e-10	-7.048749e+00	-4.454293e+01
1.640000e-06	-9.666585e-07	-6.073463e-10	-6.728376e+00	-4.396113e+01
1.650000e-06	-9.205386e-07	-5.972984e-10	-6.407360e+00	-4.336000e+01
1.660000e-06	-8.743368e-07	-5.847822e-10	-6.085775e+00	-4.273843e+01
1.670000e-06	-8.281383e-07	-5.724984e-10	-5.764213e+00	-4.209533e+01
1.680000e-06	-7.819045e-07	-5.643307e-10	-5.442405e+00	-4.142957e+01
1.690000e-06	-7.355796e-07	-5.556508e-10	-5.119963e+00	-4.074007e+01
1.700000e-06	-6.891882e-07	-5.447665e-10	-4.797058e+00	-4.002572e+01
1.710000e-06	-6.427653e-07	-5.324158e-10	-4.473934e+00	-3.928547e+01
1.720000e-06	-5.962924e-07	-5.194309e-10	-4.150462e+00	-3.851828e+01
1.730000e-06	-5.497350e-07	-5.067595e-10	-3.826401e+00	-3.772316e+01
1.740000e-06	-5.030594e-07	-4.949445e-10	-3.501519e+00	-3.689916e+01
1.750000e-06	-4.563688e-07	-4.825161e-10	-3.176531e+00	-3.604539e+01
1.760000e-06	-4.098034e-07	-4.676194e-10	-2.852415e+00	-3.516101e+01
1.770000e-06	-3.632141e-07	-4.522907e-10	-2.528132e+00	-3.424528e+01
1.780000e-06	-3.165773e-07	-4.390507e-10	-2.203520e+00	-3.329752e+01
1.790000e-06	-2.699029e-07	-4.255362e-10	-1.878645e+00	-3.231714e+01
1.800000e-06	-2.231196e-07	-4.124730e-10	-1.553012e+00	-3.130365e+01
1.810000e-06	-1.763022e-07	-3.996577e-10	-1.227143e+00	-3.025665e+01
1.820000e-06	-1.294393e-07	-3.857826e-10	-9.009554e-01	-2.917588e+01
1.830000e-06	-8.256968e-08	-3.712449e-10	-5.747219e-01	-2.806115e+01
1.840000e-06	-3.581064e-08	-3.565604e-10	-2.492581e-01	-2.691242e+01
1.850000e-06	1.086783e-08	-3.417186e-10	7.564498e-02	-2.572977e+01
1.860000e-06	5.760621e-08	-3.249838e-10	4.009650e-01	-2.451340e+01
1.870000e-06	1.044135e-07	-3.056804e-10	7.267647e-01	-2.326363e+01
1.880000e-06	1.511669e-07	-2.854190e-10	1.052189e+00	-2.198094e+01
1.890000e-06	1.978771e-07	-2.667771e-10	1.377313e+00	-2.066592e+01
1.900000e-06	2.445704e-07	-2.498622e-10	1.702319e+00	-1.931930e+01
1.910000e-06	2.912384e-07	-2.332040e-10	2.027150e+00	-1.794194e+01
1.920000e-06	3.378881e-07	-2.159622e-10	2.351853e+00	-1.653484e+01
1.930000e-06	3.844720e-07	-1.973040e-10	2.676097e+00	-1.509911e+01
1.940000e-06	4.310056e-07	-1.753422e-10	2.999992e+00	-1.363601e+01
1.950000e-06	4.775770e-07	-1.495626e-10	3.324150e+00	-1.214689e+01
1.960000e-06	5.241198e-07	-1.255591e-10	3.648109e+00	-1.063325e+01
1.970000e-06	5.705852e-07	-1.069227e-10	3.971528e+00	-9.096676e+00
1.980000e-06	6.170181e-07	-9.006027e-11	4.294722e+00	-7.538859e+00
1.990000e-06	6.634719e-07	-7.237530e-11	4.618061e+00	-5.961588e+00
2.000000e-06	7.099178e-07	-5.166437e-11	4.941345e+00	-4.366739e+00
2.010000e-06	7.562422e-07	-2.638591e-11	5.263784e+00	-2.756264e+00
2.020000e-06	8.024716e-07	1.603635e-12	5.585562e+00	-1.132185e+00
2.030000e-06	8.486664e-07	2.800180e-11	5.907098e+00	5.034205e-01
2.040000e-06	8.947614e-07	5.148242e-11	6.227940e+00	2.148426e+00
2.050000e-06	9.407627e-07	7.486850e-11	6.548130e+00	3.800667e+00
2.060000e-06	9.867551e-07	9.832728e-11	6.868257e+00	5.457954e+00
2.070000e-06	1.032706e-06	1.188936e-10	7.188093e+00	7.118082e+00
2.080000e-06	1.078644e-06	1.393989e-10	7.507844e+00	8.778843e+00
2.090000e-06	1.124565e-06	1.636353e-10	7.827478e+00	1.043803e+01
2.100000e-06	1.170312e-06	1.911442e-10	8.145893e+00	1.209347e+01
2.110000e-06	1.215908e-06	2.163693e-10	8.463265e+00	1.374301e+01
2.120000e-06	1.261486e-06	2.396080e-10	8.780506e+00	1.538451e+01
2.130000e-06	1.306992e-06	2.613043e-10	9.097252e+00	1.701594e+01
2.140000e-06	1.352391e-06	2.811227e-10	9.413243e+00	1.863526e+01
2.150000e-06	1.397692e-06	2.995587e-10	9.728559e+00	2.024056e+01
2.160000e-06	1.442877e-06	3.207116e-10	1.004307e+01	2.182996e+01
2.170000e-06	1.487969e-06	3.454392e-10	1.035693e+01	2.340169e+01
2.180000e-06	1.532983e-06	3.702336e-10	1.067025e+01	2.495407e+01
2.190000e-06	1.577888e-06	3.928520e-10	1.098280e+01	2.648550e+01
2.200000e-06	1.622595e-06	4.141365e-10	1.129399e+01	2.799452e+01
2.210000e-06	1.667119e-06	4.335684e-10	1.160390e+01	2.947974e+01
2.220000e-06	1.711516e-06	4.497070e-10	1.191292e+01	3.093990e+01
2.230000e-06	1.755759e-06	4.654397e-10	1.222087e+01	3.237387e+01
2.240000e-06	1.799901e-06	4.823007e-10	1.252811e+01	3.378061e+01
2.250000e-06	1.843934e-06	5.011075e-10	1.283460e+01	3.515922e+01
2.260000e-06	1.887886e-06	5.212698e-10	1.314053e+01	3.650891e+01
2.270000e-06	1.931811e-06	5.432737e-10	1.344627e+01	3.782901e+01
2.280000e-06	1.975658e-06	5.632503e-10	1.375146e+01	3.911897e+01
2.290000e-06	2.019468e-06	5.813538e-10	1.405640e+01	4.037835e+01
2.300000e-06	2.063263e-06	5.971992e-10	1.436123e+01	4.160685e+01
2.310000e-06	2.106966e-06	6.117452e-10	1.466542e+01	4.280423e+01
2.320000e-06	2.150543e-06	6.221830e-10	1.496874e+01	4.397040e+01
2.330000e-06	2.194044e-06	6.331521e-10	1.527153e+01	4.510534e+01
2.340000e-06	2.237451e-06	6.474656e-10	1.557366e+01	4.620915e+01
2.350000e-06	2.280713e-06	6.624358e-10	1.587478e+01	4.728200e+01
2.360000e-06	2.323751e-06	6.792479e-10	1.617435e+01	4.832415e+01
2.370000e-06	2.366493e-06	6.964887e-10	1.647185e+01	4.933593e+01
2.380000e-06	2.408954e-06	7.097779e-10	1.676740e+01	5.031774e+01
2.390000e-06	2.451161e-06	7.198442e-10	1.706118e+01	5.127005e+01
2.400000e-06	2.493017e-06	7.278612e-10	1.735251e+01	5.219338e+01
2.410000e-06	2.534531e-06	7.374287e-10	1.764147e+01	5.308829e+01
2.420000e-06	2.575736e-06	7.489050e-10	1.792827e+01	5.395540e+01
2.430000e-06	2.616617e-06	7.609586e-10	1.821283e+01	5.479533e+01
2.440000e-06	2.657237e-06	7.744163e-10	1.849556e+01	5.560875e+01
2.450000e-06	2.697568e-06	7.862852e-10	1.877628e+01	5.639635e+01
2.460000e-06	2.737661e-06	7.981373e-10	1.905535e+01	5.715881e+01
2.470000e-06	2.777602e-06	8.072671e-10	1.933335e+01	5.789685e+01
2.480000e-06	2.817441e-06	8.144632e-10	1.961065e+01	5.861117e+01
2.490000e-06	2.857195e-06	8.216561e-10	1.988735e+01	5.930245e+01
2.500000e-06	2.896810e-06	8.301076e-10	2.016310e+01	5.997140e+01
2.510000e-06	2.936261e-06	8.405107e-10	2.043769e+01	6.061869e+01
2.520000e-06	2.975587e-06	8.508227e-10	2.071141e+01	6.124498e+01
2.530000e-06	3.014729e-06	8.589182e-10	2.098387e+01	6.185090e+01
2.540000e-06	3.053680e-06	8.660773e-10	2.125498e+01	6.243707e+01
2.550000e-06	3.092463e-06	8.725481e-10	2.152493e+01	6.300407e+01
2.560000e-06	3.130944e-06	8.797349e-10	2.179277e+01	6.355248e+01
2.570000e-06	3.169142e-06	8.872670e-10	2.205865e+01	6.408283e+01
2.580000e-06	3.207134e-06	8.961533e-10	2.232309e+01	6.459563e+01
2.590000e-06	3.244963e-06	9.050011e-10	2.258640e+01	6.509135e+01
2.600000e-06	3.282619e-06	9.118391e-10	2.284850e+01	6.557045e+01
2.610000e-06	3.320019e-06	9.170796e-10	2.310882e+01	6.603336e+01
2.620000e-06	3.357221e-06	9.224646e-10	2.336776e+01	6.648048e+01
2.630000e-06	3.394167e-06	9.278671e-10	2.362492e+01	6.691219e+01
2.640000e-06	3.430830e-06	9.338578e-10	2.388011e+01	6.732885e+01
2.650000e-06	3.467235e-06	9.415757e-10	2.413351e+01	6.773080e+01
2.660000e-06	3.503347e-06	9.486453e-10	2.438487e+01	6.811836e+01
2.670000e-06	3.539291e-06	9.545804e-10	2.463505e+01	6.849185e+01
2.680000e-06	3.575115e-06	9.589116e-10	2.488440e+01	6.885157e+01
2.690000e-06	3.610818e-06	9.617397e-10	2.513291e+01	6.919782e+01
2.700000e-06	3.646409e-06	9.646452e-10	2.538064e+01	6.953088e+01
2.710000e-06	3.681825e-06	9.673528e-10	2.562715e+01	6.985104e+01
2.720000e-06	3.717041e-06	9.708001e-10	2.587227e+01	7.015860e+01
2.730000e-06	3.751927e-06	9.773782e-10	2.611509e+01	7.045384e+01
2.740000e-06	3.786357e-06	9.839394e-10	2.635474e+01	7.073708e+01
2.750000e-06	3.820315e-06	9.888649e-10	2.659110e+01	7.100862e+01
2.760000e-06	3.853808e-06	9.934585e-10	2.682423e+01	7.126878e+01
2.770000e-06	3.886775e-06	9.989934e-10	2.705370e+01	7.151788e+01
2.780000e-06	3.919293e-06	1.004698e-09	2.728003e+01	7.175629e+01
2.790000e-06	3.951585e-06	1.010392e-09	2.750480e+01	7.198435e+01
2.800000e-06	3.983637e-06	1.014936e-09	2.772789e+01	7.220244e+01
2.810000e-06	4.015495e-06	1.017705e-09	2.794964e+01	7.241095e+01
2.820000e-06	4.047213e-06	1.019208e-09	2.817041e+01	7.261027e+01
2.830000e-06	4.078703e-06	1.021460e-09	2.838960e+01	7.280083e+01
2.840000e-06	4.110001e-06	1.026093e-09	2.860745e+01	7.298306e+01
2.850000e-06	4.141089e-06	1.031798e-09	2.882383e+01	7.315739e+01
2.860000e-06	4.171838e-06	1.037207e-09	2.903786e+01	7.332428e+01
2.870000e-06	4.202266e-06	1.043087e-09	2.924965e+01	7.348418e+01
2.880000e-06	4.232421e-06	1.047806e-09	2.945955e+01	7.363755e+01
2.890000e-06	4.262281e-06	1.051543e-09	2.966738e+01	7.378487e+01
2.900000e-06	4.291871e-06	1.055597e-09	2.987334e+01	7.392659e+01
