# Temperatura_=_15.1
# Concentracion g/m^3_=_1620.0
# C_Vs_to_Am_M_A/Vsm_=_65563218390.804596
# pendiente_HvsI_1/m_=_3716.3
# ordenada_HvsI_A/m_=_1297.0
# frecuencia_Hz_=_135102.15167103228

Tiempo_(s)	Campo_(V.s)	Magnetizacion_(V.s)	Campo_(kA/m)	Magnetizacion_(A/m)
0.000000e+00	-5.530947e-06	-1.544496e-09	-3.835849e+01	-1.009479e+02
1.000000e-08	-5.531166e-06	-1.542582e-09	-3.836001e+01	-1.009424e+02
2.000000e-08	-5.531191e-06	-1.542241e-09	-3.836018e+01	-1.009350e+02
3.000000e-08	-5.530922e-06	-1.543416e-09	-3.835831e+01	-1.009255e+02
4.000000e-08	-5.530250e-06	-1.546307e-09	-3.835365e+01	-1.009136e+02
5.000000e-08	-5.529028e-06	-1.543925e-09	-3.834518e+01	-1.008989e+02
6.000000e-08	-5.527159e-06	-1.532743e-09	-3.833221e+01	-1.008811e+02
7.000000e-08	-5.524628e-06	-1.512820e-09	-3.831466e+01	-1.008599e+02
8.000000e-08	-5.521518e-06	-1.512666e-09	-3.829309e+01	-1.008349e+02
9.000000e-08	-5.517971e-06	-1.560843e-09	-3.826849e+01	-1.008058e+02
1.000000e-07	-5.513949e-06	-1.621623e-09	-3.824060e+01	-1.007724e+02
1.100000e-07	-5.509513e-06	-1.591268e-09	-3.820984e+01	-1.007342e+02
1.200000e-07	-5.504914e-06	-1.468601e-09	-3.817794e+01	-1.006911e+02
1.300000e-07	-5.500211e-06	-1.462226e-09	-3.814532e+01	-1.006426e+02
1.400000e-07	-5.495143e-06	-1.549492e-09	-3.811017e+01	-1.005886e+02
1.500000e-07	-5.489552e-06	-1.581204e-09	-3.807140e+01	-1.005288e+02
1.600000e-07	-5.483654e-06	-1.508011e-09	-3.803049e+01	-1.004629e+02
1.700000e-07	-5.477515e-06	-1.489088e-09	-3.798792e+01	-1.003909e+02
1.800000e-07	-5.470893e-06	-1.583194e-09	-3.794199e+01	-1.003124e+02
1.900000e-07	-5.463778e-06	-1.598477e-09	-3.789265e+01	-1.002274e+02
2.000000e-07	-5.456292e-06	-1.515834e-09	-3.784074e+01	-1.001359e+02
2.100000e-07	-5.448562e-06	-1.445972e-09	-3.778713e+01	-1.000376e+02
2.200000e-07	-5.440642e-06	-1.501815e-09	-3.773220e+01	-9.993263e+01
2.300000e-07	-5.432492e-06	-1.544559e-09	-3.767567e+01	-9.982093e+01
2.400000e-07	-5.424118e-06	-1.528539e-09	-3.761760e+01	-9.970254e+01
2.500000e-07	-5.415195e-06	-1.488500e-09	-3.755572e+01	-9.957754e+01
2.600000e-07	-5.405324e-06	-1.504575e-09	-3.748726e+01	-9.944602e+01
2.700000e-07	-5.394619e-06	-1.500817e-09	-3.741302e+01	-9.930812e+01
2.800000e-07	-5.383460e-06	-1.478572e-09	-3.733563e+01	-9.916398e+01
2.900000e-07	-5.371939e-06	-1.463969e-09	-3.725572e+01	-9.901381e+01
3.000000e-07	-5.360049e-06	-1.483494e-09	-3.717327e+01	-9.885782e+01
3.100000e-07	-5.347835e-06	-1.500999e-09	-3.708856e+01	-9.869626e+01
3.200000e-07	-5.335241e-06	-1.496602e-09	-3.700122e+01	-9.852937e+01
3.300000e-07	-5.322169e-06	-1.487244e-09	-3.691056e+01	-9.835744e+01
3.400000e-07	-5.308723e-06	-1.485193e-09	-3.681731e+01	-9.818078e+01
3.500000e-07	-5.295006e-06	-1.493211e-09	-3.672218e+01	-9.799968e+01
3.600000e-07	-5.280772e-06	-1.474375e-09	-3.662346e+01	-9.781446e+01
3.700000e-07	-5.266059e-06	-1.458649e-09	-3.652142e+01	-9.762546e+01
3.800000e-07	-5.250907e-06	-1.467855e-09	-3.641634e+01	-9.743299e+01
3.900000e-07	-5.235229e-06	-1.477775e-09	-3.630761e+01	-9.723738e+01
4.000000e-07	-5.218995e-06	-1.453342e-09	-3.619502e+01	-9.703895e+01
4.100000e-07	-5.202319e-06	-1.460751e-09	-3.607937e+01	-9.683803e+01
4.200000e-07	-5.185335e-06	-1.473512e-09	-3.596158e+01	-9.663491e+01
4.300000e-07	-5.167971e-06	-1.444079e-09	-3.584116e+01	-9.642989e+01
4.400000e-07	-5.150355e-06	-1.415488e-09	-3.571899e+01	-9.622325e+01
4.500000e-07	-5.132434e-06	-1.459201e-09	-3.559470e+01	-9.601524e+01
4.600000e-07	-5.113990e-06	-1.452805e-09	-3.546679e+01	-9.580612e+01
4.700000e-07	-5.095089e-06	-1.402612e-09	-3.533570e+01	-9.559608e+01
4.800000e-07	-5.075932e-06	-1.408712e-09	-3.520284e+01	-9.538534e+01
4.900000e-07	-5.056552e-06	-1.450728e-09	-3.506844e+01	-9.517405e+01
5.000000e-07	-5.036907e-06	-1.419031e-09	-3.493220e+01	-9.496236e+01
5.100000e-07	-5.017083e-06	-1.405350e-09	-3.479471e+01	-9.475039e+01
5.200000e-07	-4.997008e-06	-1.430093e-09	-3.465549e+01	-9.453821e+01
5.300000e-07	-4.976517e-06	-1.413641e-09	-3.451337e+01	-9.432589e+01
5.400000e-07	-4.955602e-06	-1.384932e-09	-3.436832e+01	-9.411346e+01
5.500000e-07	-4.934329e-06	-1.415233e-09	-3.422079e+01	-9.390092e+01
5.600000e-07	-4.912715e-06	-1.406697e-09	-3.407089e+01	-9.368825e+01
5.700000e-07	-4.890784e-06	-1.359978e-09	-3.391880e+01	-9.347540e+01
5.800000e-07	-4.868573e-06	-1.373405e-09	-3.376476e+01	-9.326230e+01
5.900000e-07	-4.845951e-06	-1.402974e-09	-3.360787e+01	-9.304884e+01
6.000000e-07	-4.822868e-06	-1.373699e-09	-3.344778e+01	-9.283491e+01
6.100000e-07	-4.799502e-06	-1.363527e-09	-3.328573e+01	-9.262037e+01
6.200000e-07	-4.775957e-06	-1.386736e-09	-3.312244e+01	-9.240507e+01
6.300000e-07	-4.752231e-06	-1.365215e-09	-3.295789e+01	-9.218882e+01
6.400000e-07	-4.728287e-06	-1.338975e-09	-3.279184e+01	-9.197146e+01
6.500000e-07	-4.704031e-06	-1.354639e-09	-3.262362e+01	-9.175278e+01
6.600000e-07	-4.679397e-06	-1.358612e-09	-3.245278e+01	-9.153259e+01
6.700000e-07	-4.654268e-06	-1.339866e-09	-3.227850e+01	-9.131066e+01
6.800000e-07	-4.628545e-06	-1.351574e-09	-3.210011e+01	-9.108679e+01
6.900000e-07	-4.602332e-06	-1.356360e-09	-3.191831e+01	-9.086077e+01
7.000000e-07	-4.575598e-06	-1.337898e-09	-3.173290e+01	-9.063238e+01
7.100000e-07	-4.548343e-06	-1.328087e-09	-3.154389e+01	-9.040140e+01
7.200000e-07	-4.520807e-06	-1.331339e-09	-3.135291e+01	-9.016765e+01
7.300000e-07	-4.493129e-06	-1.316504e-09	-3.116096e+01	-8.993091e+01
7.400000e-07	-4.465313e-06	-1.311547e-09	-3.096805e+01	-8.969100e+01
7.500000e-07	-4.437306e-06	-1.316587e-09	-3.077381e+01	-8.944774e+01
7.600000e-07	-4.409071e-06	-1.315084e-09	-3.057800e+01	-8.920097e+01
7.700000e-07	-4.380529e-06	-1.302682e-09	-3.038005e+01	-8.895052e+01
7.800000e-07	-4.351607e-06	-1.298362e-09	-3.017947e+01	-8.869626e+01
7.900000e-07	-4.322329e-06	-1.290300e-09	-2.997642e+01	-8.843805e+01
8.000000e-07	-4.292709e-06	-1.283630e-09	-2.977100e+01	-8.817580e+01
8.100000e-07	-4.262818e-06	-1.280512e-09	-2.956370e+01	-8.790939e+01
8.200000e-07	-4.232705e-06	-1.280225e-09	-2.935486e+01	-8.763875e+01
8.300000e-07	-4.202316e-06	-1.276013e-09	-2.914410e+01	-8.736381e+01
8.400000e-07	-4.171609e-06	-1.276812e-09	-2.893114e+01	-8.708450e+01
8.500000e-07	-4.140537e-06	-1.274344e-09	-2.871565e+01	-8.680080e+01
8.600000e-07	-4.109230e-06	-1.265116e-09	-2.849853e+01	-8.651266e+01
8.700000e-07	-4.077795e-06	-1.255901e-09	-2.828052e+01	-8.622008e+01
8.800000e-07	-4.046178e-06	-1.251621e-09	-2.806124e+01	-8.592305e+01
8.900000e-07	-4.014399e-06	-1.245312e-09	-2.784085e+01	-8.562156e+01
9.000000e-07	-3.982438e-06	-1.238955e-09	-2.761919e+01	-8.531562e+01
9.100000e-07	-3.950127e-06	-1.237449e-09	-2.739511e+01	-8.500526e+01
9.200000e-07	-3.917416e-06	-1.233842e-09	-2.716825e+01	-8.469049e+01
9.300000e-07	-3.884362e-06	-1.227284e-09	-2.693901e+01	-8.437134e+01
9.400000e-07	-3.850920e-06	-1.222795e-09	-2.670708e+01	-8.404784e+01
9.500000e-07	-3.816967e-06	-1.219666e-09	-2.647161e+01	-8.372001e+01
9.600000e-07	-3.782483e-06	-1.209446e-09	-2.623245e+01	-8.338788e+01
9.700000e-07	-3.747540e-06	-1.200148e-09	-2.599012e+01	-8.305148e+01
9.800000e-07	-3.712227e-06	-1.193973e-09	-2.574521e+01	-8.271082e+01
9.900000e-07	-3.676710e-06	-1.187738e-09	-2.549889e+01	-8.236593e+01
1.000000e-06	-3.641063e-06	-1.179498e-09	-2.525167e+01	-8.201683e+01
1.010000e-06	-3.605303e-06	-1.176307e-09	-2.500367e+01	-8.166351e+01
1.020000e-06	-3.569435e-06	-1.170289e-09	-2.475491e+01	-8.130599e+01
1.030000e-06	-3.533404e-06	-1.163986e-09	-2.450503e+01	-8.094425e+01
1.040000e-06	-3.497202e-06	-1.161389e-09	-2.425396e+01	-8.057829e+01
1.050000e-06	-3.460800e-06	-1.161539e-09	-2.400151e+01	-8.020809e+01
1.060000e-06	-3.424031e-06	-1.153726e-09	-2.374650e+01	-7.983363e+01
1.070000e-06	-3.386896e-06	-1.145394e-09	-2.348896e+01	-7.945486e+01
1.080000e-06	-3.349537e-06	-1.138316e-09	-2.322986e+01	-7.907176e+01
1.090000e-06	-3.311979e-06	-1.131106e-09	-2.296939e+01	-7.868428e+01
1.100000e-06	-3.274203e-06	-1.122437e-09	-2.270741e+01	-7.829237e+01
1.110000e-06	-3.236166e-06	-1.117742e-09	-2.244361e+01	-7.789598e+01
1.120000e-06	-3.197942e-06	-1.112938e-09	-2.217852e+01	-7.749505e+01
1.130000e-06	-3.159580e-06	-1.105946e-09	-2.191247e+01	-7.708952e+01
1.140000e-06	-3.121038e-06	-1.100376e-09	-2.164517e+01	-7.667933e+01
1.150000e-06	-3.082230e-06	-1.095702e-09	-2.137603e+01	-7.626442e+01
1.160000e-06	-3.043185e-06	-1.084874e-09	-2.110524e+01	-7.584473e+01
1.170000e-06	-3.003978e-06	-1.072550e-09	-2.083333e+01	-7.542019e+01
1.180000e-06	-2.964589e-06	-1.063938e-09	-2.056016e+01	-7.499075e+01
1.190000e-06	-2.925048e-06	-1.057306e-09	-2.028593e+01	-7.455635e+01
1.200000e-06	-2.885379e-06	-1.050676e-09	-2.001082e+01	-7.411694e+01
1.210000e-06	-2.845588e-06	-1.044835e-09	-1.973485e+01	-7.367247e+01
1.220000e-06	-2.805660e-06	-1.038263e-09	-1.945795e+01	-7.322291e+01
1.230000e-06	-2.765558e-06	-1.030478e-09	-1.917983e+01	-7.276820e+01
1.240000e-06	-2.725239e-06	-1.024039e-09	-1.890021e+01	-7.230833e+01
1.250000e-06	-2.684766e-06	-1.017368e-09	-1.861951e+01	-7.184326e+01
1.260000e-06	-2.644036e-06	-1.010830e-09	-1.833705e+01	-7.137297e+01
1.270000e-06	-2.603057e-06	-1.002346e-09	-1.805284e+01	-7.089743e+01
1.280000e-06	-2.561816e-06	-9.953599e-10	-1.776682e+01	-7.041663e+01
1.290000e-06	-2.520212e-06	-9.872030e-10	-1.747829e+01	-6.993056e+01
1.300000e-06	-2.478317e-06	-9.783319e-10	-1.718774e+01	-6.943919e+01
1.310000e-06	-2.436124e-06	-9.707197e-10	-1.689512e+01	-6.894251e+01
1.320000e-06	-2.393502e-06	-9.646851e-10	-1.659953e+01	-6.844050e+01
1.330000e-06	-2.350601e-06	-9.568358e-10	-1.630200e+01	-6.793314e+01
1.340000e-06	-2.307617e-06	-9.490195e-10	-1.600390e+01	-6.742038e+01
1.350000e-06	-2.264480e-06	-9.419005e-10	-1.570473e+01	-6.690218e+01
1.360000e-06	-2.221109e-06	-9.338628e-10	-1.540394e+01	-6.637849e+01
1.370000e-06	-2.177533e-06	-9.232790e-10	-1.510173e+01	-6.584922e+01
1.380000e-06	-2.133855e-06	-9.142500e-10	-1.479881e+01	-6.531430e+01
1.390000e-06	-2.090116e-06	-9.050822e-10	-1.449547e+01	-6.477359e+01
1.400000e-06	-2.046329e-06	-8.974764e-10	-1.419180e+01	-6.422696e+01
1.410000e-06	-2.002463e-06	-8.904943e-10	-1.388758e+01	-6.367424e+01
1.420000e-06	-1.958502e-06	-8.837974e-10	-1.358269e+01	-6.311523e+01
1.430000e-06	-1.914480e-06	-8.771199e-10	-1.327739e+01	-6.254970e+01
1.440000e-06	-1.870368e-06	-8.706569e-10	-1.297147e+01	-6.197736e+01
1.450000e-06	-1.826096e-06	-8.625463e-10	-1.266442e+01	-6.139792e+01
1.460000e-06	-1.781697e-06	-8.498078e-10	-1.235651e+01	-6.081101e+01
1.470000e-06	-1.737161e-06	-8.346239e-10	-1.204764e+01	-6.021624e+01
1.480000e-06	-1.692481e-06	-8.210201e-10	-1.173778e+01	-5.961315e+01
1.490000e-06	-1.647700e-06	-8.092431e-10	-1.142721e+01	-5.900127e+01
1.500000e-06	-1.602810e-06	-7.972593e-10	-1.111588e+01	-5.838005e+01
1.510000e-06	-1.557731e-06	-7.876630e-10	-1.080325e+01	-5.774889e+01
1.520000e-06	-1.512514e-06	-7.804472e-10	-1.048966e+01	-5.710716e+01
1.530000e-06	-1.467242e-06	-7.732382e-10	-1.017569e+01	-5.645417e+01
1.540000e-06	-1.421911e-06	-7.637379e-10	-9.861301e+00	-5.578917e+01
1.550000e-06	-1.376467e-06	-7.525632e-10	-9.546140e+00	-5.511139e+01
1.560000e-06	-1.330853e-06	-7.386352e-10	-9.229794e+00	-5.441999e+01
1.570000e-06	-1.285171e-06	-7.226490e-10	-8.912978e+00	-5.371411e+01
1.580000e-06	-1.239445e-06	-7.081822e-10	-8.595855e+00	-5.299282e+01
1.590000e-06	-1.193568e-06	-6.978915e-10	-8.277686e+00	-5.225517e+01
1.600000e-06	-1.147581e-06	-6.904163e-10	-7.958759e+00	-5.150019e+01
1.610000e-06	-1.101590e-06	-6.830348e-10	-7.639798e+00	-5.072687e+01
1.620000e-06	-1.055547e-06	-6.728568e-10	-7.320479e+00	-4.993418e+01
1.630000e-06	-1.009416e-06	-6.604832e-10	-7.000547e+00	-4.912107e+01
1.640000e-06	-9.632348e-07	-6.461298e-10	-6.680272e+00	-4.828648e+01
1.650000e-06	-9.169989e-07	-6.310379e-10	-6.359614e+00	-4.742936e+01
1.660000e-06	-8.706108e-07	-6.151551e-10	-6.037901e+00	-4.654864e+01
1.670000e-06	-8.239925e-07	-5.985520e-10	-5.714592e+00	-4.564329e+01
1.680000e-06	-7.773783e-07	-5.834893e-10	-5.391311e+00	-4.471227e+01
1.690000e-06	-7.308717e-07	-5.698371e-10	-5.068776e+00	-4.375459e+01
1.700000e-06	-6.843148e-07	-5.539891e-10	-4.745893e+00	-4.276928e+01
1.710000e-06	-6.377284e-07	-5.359713e-10	-4.422804e+00	-4.175541e+01
1.720000e-06	-5.911440e-07	-5.194188e-10	-4.099730e+00	-4.071211e+01
1.730000e-06	-5.445160e-07	-5.045757e-10	-3.776353e+00	-3.963858e+01
1.740000e-06	-4.977728e-07	-4.879265e-10	-3.452177e+00	-3.853406e+01
1.750000e-06	-4.509708e-07	-4.717437e-10	-3.127594e+00	-3.739789e+01
1.760000e-06	-4.041034e-07	-4.542390e-10	-2.802557e+00	-3.622946e+01
1.770000e-06	-3.572111e-07	-4.375091e-10	-2.477347e+00	-3.502830e+01
1.780000e-06	-3.102984e-07	-4.226426e-10	-2.151996e+00	-3.379398e+01
1.790000e-06	-2.633415e-07	-4.074904e-10	-1.826339e+00	-3.252621e+01
1.800000e-06	-2.164247e-07	-3.913137e-10	-1.500959e+00	-3.122481e+01
1.810000e-06	-1.694333e-07	-3.721747e-10	-1.175062e+00	-2.988968e+01
1.820000e-06	-1.224860e-07	-3.516451e-10	-8.494705e-01	-2.852088e+01
1.830000e-06	-7.568874e-08	-3.308075e-10	-5.249201e-01	-2.711857e+01
1.840000e-06	-2.878325e-08	-3.112422e-10	-1.996189e-01	-2.568303e+01
1.850000e-06	1.817761e-08	-2.918971e-10	1.260662e-01	-2.421468e+01
1.860000e-06	6.510740e-08	-2.741222e-10	4.515359e-01	-2.271408e+01
1.870000e-06	1.120476e-07	-2.536237e-10	7.770780e-01	-2.118189e+01
1.880000e-06	1.589737e-07	-2.298948e-10	1.102522e+00	-1.961892e+01
1.890000e-06	2.059435e-07	-2.069356e-10	1.428269e+00	-1.802612e+01
1.900000e-06	2.529322e-07	-1.861238e-10	1.754147e+00	-1.640454e+01
1.910000e-06	2.998626e-07	-1.648888e-10	2.079622e+00	-1.475537e+01
1.920000e-06	3.466376e-07	-1.429499e-10	2.404017e+00	-1.307991e+01
1.930000e-06	3.933539e-07	-1.210247e-10	2.728006e+00	-1.137960e+01
1.940000e-06	4.400073e-07	-9.672406e-11	3.051559e+00	-9.655969e+00
1.950000e-06	4.866201e-07	-6.900498e-11	3.374831e+00	-7.910650e+00
1.960000e-06	5.333109e-07	-4.479667e-11	3.698643e+00	-6.145383e+00
1.970000e-06	5.799605e-07	-2.358252e-11	4.022169e+00	-4.361994e+00
1.980000e-06	6.265913e-07	-7.546318e-13	4.345566e+00	-2.562388e+00
1.990000e-06	6.731530e-07	2.338385e-11	4.668483e+00	-7.485478e-01
2.000000e-06	7.195955e-07	5.050364e-11	4.990573e+00	1.077485e+00
2.010000e-06	7.659664e-07	7.840573e-11	5.312166e+00	2.913615e+00
2.020000e-06	8.122981e-07	1.089620e-10	5.633488e+00	4.757701e+00
2.030000e-06	8.586566e-07	1.357159e-10	5.954996e+00	6.607573e+00
2.040000e-06	9.049496e-07	1.625049e-10	6.276050e+00	8.461036e+00
2.050000e-06	9.511572e-07	1.870352e-10	6.596510e+00	1.031589e+01
2.060000e-06	9.973384e-07	2.111421e-10	6.916788e+00	1.216992e+01
2.070000e-06	1.043415e-06	2.375981e-10	7.236343e+00	1.402095e+01
2.080000e-06	1.089386e-06	2.640584e-10	7.555163e+00	1.586679e+01
2.090000e-06	1.135306e-06	2.929892e-10	7.873631e+00	1.770531e+01
2.100000e-06	1.181152e-06	3.223632e-10	8.191581e+00	1.953442e+01
2.110000e-06	1.226889e-06	3.511538e-10	8.508776e+00	2.135206e+01
2.120000e-06	1.272519e-06	3.752271e-10	8.825236e+00	2.315627e+01
2.130000e-06	1.318112e-06	3.948635e-10	9.141434e+00	2.494512e+01
2.140000e-06	1.363692e-06	4.134323e-10	9.457539e+00	2.671679e+01
2.150000e-06	1.409184e-06	4.351712e-10	9.773039e+00	2.846952e+01
2.160000e-06	1.454475e-06	4.596850e-10	1.008714e+01	3.020168e+01
2.170000e-06	1.499677e-06	4.870904e-10	1.040063e+01	3.191171e+01
2.180000e-06	1.544776e-06	5.141215e-10	1.071340e+01	3.359817e+01
2.190000e-06	1.589638e-06	5.385930e-10	1.102453e+01	3.525972e+01
2.200000e-06	1.634394e-06	5.600038e-10	1.133493e+01	3.689514e+01
2.210000e-06	1.679086e-06	5.783728e-10	1.164488e+01	3.850334e+01
2.220000e-06	1.723575e-06	5.949502e-10	1.195342e+01	4.008333e+01
2.230000e-06	1.767866e-06	6.144833e-10	1.226059e+01	4.163425e+01
2.240000e-06	1.812073e-06	6.346412e-10	1.256717e+01	4.315536e+01
2.250000e-06	1.856183e-06	6.558326e-10	1.287309e+01	4.464604e+01
2.260000e-06	1.900160e-06	6.783242e-10	1.317808e+01	4.610580e+01
2.270000e-06	1.944065e-06	7.011769e-10	1.348257e+01	4.753424e+01
2.280000e-06	1.987955e-06	7.218478e-10	1.378696e+01	4.893111e+01
2.290000e-06	2.031813e-06	7.415699e-10	1.409112e+01	5.029624e+01
2.300000e-06	2.075617e-06	7.607037e-10	1.439492e+01	5.162958e+01
2.310000e-06	2.119355e-06	7.769077e-10	1.469825e+01	5.293119e+01
2.320000e-06	2.162980e-06	7.921856e-10	1.500080e+01	5.420122e+01
2.330000e-06	2.206520e-06	8.079300e-10	1.530276e+01	5.543989e+01
2.340000e-06	2.249977e-06	8.240027e-10	1.560414e+01	5.664753e+01
2.350000e-06	2.293296e-06	8.411349e-10	1.590458e+01	5.782455e+01
2.360000e-06	2.336522e-06	8.582898e-10	1.620436e+01	5.897140e+01
2.370000e-06	2.379458e-06	8.736059e-10	1.650213e+01	6.008862e+01
2.380000e-06	2.421999e-06	8.870736e-10	1.679716e+01	6.117680e+01
2.390000e-06	2.464294e-06	8.996375e-10	1.709049e+01	6.223657e+01
2.400000e-06	2.506221e-06	9.123693e-10	1.738126e+01	6.326860e+01
2.410000e-06	2.547740e-06	9.256238e-10	1.766921e+01	6.427361e+01
2.420000e-06	2.589001e-06	9.416240e-10	1.795536e+01	6.525233e+01
2.430000e-06	2.630006e-06	9.574558e-10	1.823974e+01	6.620550e+01
2.440000e-06	2.670660e-06	9.714324e-10	1.852168e+01	6.713389e+01
2.450000e-06	2.711065e-06	9.831950e-10	1.880190e+01	6.803827e+01
2.460000e-06	2.751316e-06	9.935802e-10	1.908106e+01	6.891941e+01
2.470000e-06	2.791405e-06	1.003150e-09	1.935908e+01	6.977807e+01
2.480000e-06	2.831363e-06	1.014449e-09	1.963620e+01	7.061499e+01
2.490000e-06	2.871205e-06	1.027122e-09	1.991251e+01	7.143091e+01
2.500000e-06	2.910924e-06	1.040839e-09	2.018798e+01	7.222653e+01
2.510000e-06	2.950508e-06	1.053358e-09	2.046250e+01	7.300255e+01
2.520000e-06	2.990049e-06	1.062998e-09	2.073673e+01	7.375961e+01
2.530000e-06	3.029460e-06	1.071946e-09	2.101006e+01	7.449835e+01
2.540000e-06	3.068549e-06	1.081353e-09	2.128114e+01	7.521936e+01
2.550000e-06	3.107309e-06	1.088131e-09	2.154996e+01	7.592319e+01
2.560000e-06	3.145888e-06	1.094743e-09	2.181751e+01	7.661038e+01
2.570000e-06	3.184299e-06	1.104224e-09	2.208390e+01	7.728141e+01
2.580000e-06	3.222399e-06	1.114342e-09	2.234813e+01	7.793673e+01
2.590000e-06	3.260320e-06	1.124231e-09	2.261113e+01	7.857676e+01
2.600000e-06	3.298160e-06	1.134233e-09	2.287355e+01	7.920189e+01
2.610000e-06	3.335756e-06	1.142995e-09	2.313429e+01	7.981246e+01
2.620000e-06	3.373093e-06	1.149372e-09	2.339323e+01	8.040880e+01
2.630000e-06	3.410199e-06	1.155206e-09	2.365057e+01	8.099121e+01
2.640000e-06	3.446977e-06	1.161199e-09	2.390564e+01	8.155994e+01
2.650000e-06	3.483428e-06	1.167053e-09	2.415843e+01	8.211525e+01
2.660000e-06	3.519640e-06	1.175392e-09	2.440958e+01	8.265736e+01
2.670000e-06	3.555701e-06	1.185312e-09	2.465966e+01	8.318647e+01
2.680000e-06	3.591650e-06	1.192763e-09	2.490898e+01	8.370278e+01
2.690000e-06	3.627458e-06	1.198404e-09	2.515732e+01	8.420647e+01
2.700000e-06	3.663133e-06	1.204525e-09	2.540473e+01	8.469772e+01
2.710000e-06	3.698657e-06	1.211068e-09	2.565110e+01	8.517670e+01
2.720000e-06	3.734010e-06	1.217653e-09	2.589628e+01	8.564357e+01
2.730000e-06	3.769039e-06	1.225388e-09	2.613922e+01	8.609852e+01
2.740000e-06	3.803525e-06	1.231829e-09	2.637839e+01	8.654170e+01
2.750000e-06	3.837587e-06	1.238638e-09	2.661462e+01	8.697331e+01
2.760000e-06	3.871246e-06	1.245874e-09	2.684805e+01	8.739353e+01
2.770000e-06	3.904417e-06	1.251845e-09	2.707810e+01	8.780256e+01
2.780000e-06	3.937234e-06	1.257279e-09	2.730569e+01	8.820062e+01
2.790000e-06	3.969713e-06	1.263482e-09	2.753094e+01	8.858793e+01
2.800000e-06	4.001823e-06	1.270802e-09	2.775363e+01	8.896473e+01
2.810000e-06	4.033671e-06	1.278423e-09	2.797450e+01	8.933127e+01
2.820000e-06	4.065404e-06	1.284992e-09	2.819458e+01	8.968782e+01
2.830000e-06	4.097044e-06	1.290558e-09	2.841401e+01	9.003467e+01
2.840000e-06	4.128455e-06	1.295713e-09	2.863186e+01	9.037211e+01
2.850000e-06	4.159660e-06	1.301037e-09	2.884827e+01	9.070046e+01
2.860000e-06	4.190581e-06	1.307632e-09	2.906271e+01	9.102003e+01
2.870000e-06	4.221072e-06	1.315049e-09	2.927418e+01	9.133116e+01
2.880000e-06	4.251236e-06	1.321313e-09	2.948337e+01	9.163419e+01
2.890000e-06	4.281156e-06	1.326318e-09	2.969088e+01	9.192947e+01
2.900000e-06	4.310829e-06	1.331483e-09	2.989667e+01	9.221735e+01
