# Temperatura_=_-6.8
# Concentracion g/m^3_=_1620.0
# C_Vs_to_Am_M_A/Vsm_=_65563218390.804596
# pendiente_HvsI_1/m_=_3716.3
# ordenada_HvsI_A/m_=_1297.0
# frecuencia_Hz_=_135108.11003724628

Tiempo_(s)	Campo_(V.s)	Magnetizacion_(V.s)	Campo_(kA/m)	Magnetizacion_(A/m)
0.000000e+00	-5.530930e-06	-1.096940e-09	-3.836212e+01	-7.334005e+01
1.000000e-08	-5.531051e-06	-1.096018e-09	-3.836296e+01	-7.333850e+01
2.000000e-08	-5.530955e-06	-1.095474e-09	-3.836229e+01	-7.333712e+01
3.000000e-08	-5.530552e-06	-1.095603e-09	-3.835950e+01	-7.333549e+01
4.000000e-08	-5.529642e-06	-1.093295e-09	-3.835319e+01	-7.333317e+01
5.000000e-08	-5.528149e-06	-1.090401e-09	-3.834283e+01	-7.332970e+01
6.000000e-08	-5.526098e-06	-1.091031e-09	-3.832861e+01	-7.332462e+01
7.000000e-08	-5.523477e-06	-1.110145e-09	-3.831042e+01	-7.331746e+01
8.000000e-08	-5.520297e-06	-1.115039e-09	-3.828837e+01	-7.330776e+01
9.000000e-08	-5.516666e-06	-1.054734e-09	-3.826319e+01	-7.329505e+01
1.000000e-07	-5.512641e-06	-1.015545e-09	-3.823527e+01	-7.327888e+01
1.100000e-07	-5.508311e-06	-1.106342e-09	-3.820524e+01	-7.325883e+01
1.200000e-07	-5.503701e-06	-1.156036e-09	-3.817326e+01	-7.323447e+01
1.300000e-07	-5.498742e-06	-1.091608e-09	-3.813887e+01	-7.320541e+01
1.400000e-07	-5.493456e-06	-1.017408e-09	-3.810221e+01	-7.317129e+01
1.500000e-07	-5.487861e-06	-1.073547e-09	-3.806340e+01	-7.313179e+01
1.600000e-07	-5.481922e-06	-1.151810e-09	-3.802220e+01	-7.308661e+01
1.700000e-07	-5.475553e-06	-1.081273e-09	-3.797803e+01	-7.303549e+01
1.800000e-07	-5.468687e-06	-1.023750e-09	-3.793041e+01	-7.297822e+01
1.900000e-07	-5.461466e-06	-1.089593e-09	-3.788032e+01	-7.291463e+01
2.000000e-07	-5.453991e-06	-1.160484e-09	-3.782848e+01	-7.284461e+01
2.100000e-07	-5.446220e-06	-1.107445e-09	-3.777458e+01	-7.276806e+01
2.200000e-07	-5.438154e-06	-1.042791e-09	-3.771863e+01	-7.268498e+01
2.300000e-07	-5.429775e-06	-1.073290e-09	-3.766052e+01	-7.259538e+01
2.400000e-07	-5.420914e-06	-1.124329e-09	-3.759905e+01	-7.249933e+01
2.500000e-07	-5.411381e-06	-1.107326e-09	-3.753294e+01	-7.239695e+01
2.600000e-07	-5.401215e-06	-1.064229e-09	-3.746242e+01	-7.228841e+01
2.700000e-07	-5.390542e-06	-1.055882e-09	-3.738840e+01	-7.217392e+01
2.800000e-07	-5.379392e-06	-1.066790e-09	-3.731106e+01	-7.205373e+01
2.900000e-07	-5.367857e-06	-1.060481e-09	-3.723106e+01	-7.192814e+01
3.000000e-07	-5.355955e-06	-1.038810e-09	-3.714850e+01	-7.179749e+01
3.100000e-07	-5.343588e-06	-1.039934e-09	-3.706273e+01	-7.166214e+01
3.200000e-07	-5.330806e-06	-1.081545e-09	-3.697408e+01	-7.152249e+01
3.300000e-07	-5.317657e-06	-1.082661e-09	-3.688287e+01	-7.137898e+01
3.400000e-07	-5.304117e-06	-1.033375e-09	-3.678896e+01	-7.123204e+01
3.500000e-07	-5.290143e-06	-1.035332e-09	-3.669204e+01	-7.108215e+01
3.600000e-07	-5.275748e-06	-1.076901e-09	-3.659219e+01	-7.092980e+01
3.700000e-07	-5.260892e-06	-1.040181e-09	-3.648915e+01	-7.077547e+01
3.800000e-07	-5.245416e-06	-1.011205e-09	-3.638181e+01	-7.061966e+01
3.900000e-07	-5.229352e-06	-1.074604e-09	-3.627040e+01	-7.046287e+01
4.000000e-07	-5.212893e-06	-1.070306e-09	-3.615624e+01	-7.030558e+01
4.100000e-07	-5.196025e-06	-9.897666e-10	-3.603924e+01	-7.014827e+01
4.200000e-07	-5.178851e-06	-1.030609e-09	-3.592013e+01	-6.999142e+01
4.300000e-07	-5.161483e-06	-1.096702e-09	-3.579966e+01	-6.983547e+01
4.400000e-07	-5.143755e-06	-1.008067e-09	-3.567670e+01	-6.968084e+01
4.500000e-07	-5.125567e-06	-9.750447e-10	-3.555055e+01	-6.952792e+01
4.600000e-07	-5.106982e-06	-1.078360e-09	-3.542165e+01	-6.937710e+01
4.700000e-07	-5.088078e-06	-1.052934e-09	-3.529053e+01	-6.922870e+01
4.800000e-07	-5.068812e-06	-9.618390e-10	-3.515690e+01	-6.908301e+01
4.900000e-07	-5.049248e-06	-1.032630e-09	-3.502121e+01	-6.894029e+01
5.000000e-07	-5.029454e-06	-1.072714e-09	-3.488392e+01	-6.880077e+01
5.100000e-07	-5.009357e-06	-9.799043e-10	-3.474452e+01	-6.866461e+01
5.200000e-07	-4.988961e-06	-1.004546e-09	-3.460306e+01	-6.853195e+01
5.300000e-07	-4.968309e-06	-1.083254e-09	-3.445982e+01	-6.840288e+01
5.400000e-07	-4.947305e-06	-9.994539e-10	-3.431414e+01	-6.827743e+01
5.500000e-07	-4.925902e-06	-9.570288e-10	-3.416569e+01	-6.815560e+01
5.600000e-07	-4.904191e-06	-1.046277e-09	-3.401510e+01	-6.803736e+01
5.700000e-07	-4.882172e-06	-1.025570e-09	-3.386238e+01	-6.792261e+01
5.800000e-07	-4.859784e-06	-9.574700e-10	-3.370710e+01	-6.781122e+01
5.900000e-07	-4.837011e-06	-1.021699e-09	-3.354915e+01	-6.770304e+01
6.000000e-07	-4.813930e-06	-1.045965e-09	-3.338906e+01	-6.759786e+01
6.100000e-07	-4.790538e-06	-9.723901e-10	-3.322681e+01	-6.749545e+01
6.200000e-07	-4.766859e-06	-9.828831e-10	-3.306258e+01	-6.739555e+01
6.300000e-07	-4.743008e-06	-1.021813e-09	-3.289715e+01	-6.729785e+01
6.400000e-07	-4.718874e-06	-9.779229e-10	-3.272976e+01	-6.720205e+01
6.500000e-07	-4.694329e-06	-9.698097e-10	-3.255952e+01	-6.710781e+01
6.600000e-07	-4.669441e-06	-1.013468e-09	-3.238689e+01	-6.701479e+01
6.700000e-07	-4.644084e-06	-9.982667e-10	-3.221102e+01	-6.692261e+01
6.800000e-07	-4.618123e-06	-9.754046e-10	-3.203096e+01	-6.683091e+01
6.900000e-07	-4.591687e-06	-1.002500e-09	-3.184760e+01	-6.673931e+01
7.000000e-07	-4.564806e-06	-9.994240e-10	-3.166116e+01	-6.664744e+01
7.100000e-07	-4.537562e-06	-9.681789e-10	-3.147219e+01	-6.655492e+01
7.200000e-07	-4.510015e-06	-9.748742e-10	-3.128113e+01	-6.646138e+01
7.300000e-07	-4.482202e-06	-9.846856e-10	-3.108822e+01	-6.636648e+01
7.400000e-07	-4.454158e-06	-9.690032e-10	-3.089371e+01	-6.626987e+01
7.500000e-07	-4.425837e-06	-9.687857e-10	-3.069727e+01	-6.617123e+01
7.600000e-07	-4.397329e-06	-9.788060e-10	-3.049955e+01	-6.607024e+01
7.700000e-07	-4.368575e-06	-9.681524e-10	-3.030011e+01	-6.596663e+01
7.800000e-07	-4.339443e-06	-9.593932e-10	-3.009805e+01	-6.586014e+01
7.900000e-07	-4.309953e-06	-9.612539e-10	-2.989351e+01	-6.575053e+01
8.000000e-07	-4.280160e-06	-9.512202e-10	-2.968687e+01	-6.563759e+01
8.100000e-07	-4.250159e-06	-9.422684e-10	-2.947879e+01	-6.552114e+01
8.200000e-07	-4.219888e-06	-9.510743e-10	-2.926883e+01	-6.540104e+01
8.300000e-07	-4.189286e-06	-9.521113e-10	-2.905658e+01	-6.527716e+01
8.400000e-07	-4.158344e-06	-9.434683e-10	-2.884197e+01	-6.514940e+01
8.500000e-07	-4.127115e-06	-9.471578e-10	-2.862536e+01	-6.501770e+01
8.600000e-07	-4.095720e-06	-9.519762e-10	-2.840761e+01	-6.488203e+01
8.700000e-07	-4.064154e-06	-9.382124e-10	-2.818867e+01	-6.474237e+01
8.800000e-07	-4.032457e-06	-9.334332e-10	-2.796882e+01	-6.459873e+01
8.900000e-07	-4.000595e-06	-9.378559e-10	-2.774783e+01	-6.445116e+01
9.000000e-07	-3.968425e-06	-9.275737e-10	-2.752470e+01	-6.429971e+01
9.100000e-07	-3.935926e-06	-9.211879e-10	-2.729929e+01	-6.414445e+01
9.200000e-07	-3.903131e-06	-9.258317e-10	-2.707183e+01	-6.398549e+01
9.300000e-07	-3.869921e-06	-9.216960e-10	-2.684148e+01	-6.382293e+01
9.400000e-07	-3.836242e-06	-9.124040e-10	-2.660789e+01	-6.365690e+01
9.500000e-07	-3.802156e-06	-9.168226e-10	-2.637147e+01	-6.348752e+01
9.600000e-07	-3.767638e-06	-9.153694e-10	-2.613205e+01	-6.331493e+01
9.700000e-07	-3.732715e-06	-8.994799e-10	-2.588983e+01	-6.313927e+01
9.800000e-07	-3.697490e-06	-8.939515e-10	-2.564552e+01	-6.296068e+01
9.900000e-07	-3.662070e-06	-8.957663e-10	-2.539984e+01	-6.277931e+01
1.000000e-06	-3.626417e-06	-8.890743e-10	-2.515256e+01	-6.259529e+01
1.010000e-06	-3.590556e-06	-8.856835e-10	-2.490383e+01	-6.240875e+01
1.020000e-06	-3.554591e-06	-8.951132e-10	-2.465438e+01	-6.221982e+01
1.030000e-06	-3.518460e-06	-8.955578e-10	-2.440378e+01	-6.202860e+01
1.040000e-06	-3.482134e-06	-8.869924e-10	-2.415182e+01	-6.183520e+01
1.050000e-06	-3.445560e-06	-8.859684e-10	-2.389815e+01	-6.163971e+01
1.060000e-06	-3.408747e-06	-8.814479e-10	-2.364281e+01	-6.144219e+01
1.070000e-06	-3.371703e-06	-8.702169e-10	-2.338588e+01	-6.124271e+01
1.080000e-06	-3.334346e-06	-8.673784e-10	-2.312677e+01	-6.104130e+01
1.090000e-06	-3.296678e-06	-8.730734e-10	-2.286552e+01	-6.083799e+01
1.100000e-06	-3.258766e-06	-8.704653e-10	-2.260256e+01	-6.063279e+01
1.110000e-06	-3.220695e-06	-8.652099e-10	-2.233850e+01	-6.042568e+01
1.120000e-06	-3.182510e-06	-8.660213e-10	-2.207366e+01	-6.021664e+01
1.130000e-06	-3.144095e-06	-8.610278e-10	-2.180721e+01	-6.000562e+01
1.140000e-06	-3.105321e-06	-8.546213e-10	-2.153827e+01	-5.979256e+01
1.150000e-06	-3.066339e-06	-8.551692e-10	-2.126790e+01	-5.957739e+01
1.160000e-06	-3.027202e-06	-8.545207e-10	-2.099645e+01	-5.936002e+01
1.170000e-06	-2.987855e-06	-8.474493e-10	-2.072354e+01	-5.914036e+01
1.180000e-06	-2.948350e-06	-8.448417e-10	-2.044954e+01	-5.891829e+01
1.190000e-06	-2.908705e-06	-8.449793e-10	-2.017456e+01	-5.869368e+01
1.200000e-06	-2.868929e-06	-8.388935e-10	-1.989868e+01	-5.846643e+01
1.210000e-06	-2.829016e-06	-8.308475e-10	-1.962185e+01	-5.823638e+01
1.220000e-06	-2.789008e-06	-8.253580e-10	-1.934435e+01	-5.800341e+01
1.230000e-06	-2.748834e-06	-8.204645e-10	-1.906571e+01	-5.776736e+01
1.240000e-06	-2.708406e-06	-8.172997e-10	-1.878530e+01	-5.752810e+01
1.250000e-06	-2.667779e-06	-8.205558e-10	-1.850352e+01	-5.728548e+01
1.260000e-06	-2.626936e-06	-8.240024e-10	-1.822023e+01	-5.703936e+01
1.270000e-06	-2.585757e-06	-8.199396e-10	-1.793462e+01	-5.678958e+01
1.280000e-06	-2.544293e-06	-8.141249e-10	-1.764703e+01	-5.653602e+01
1.290000e-06	-2.502568e-06	-8.090872e-10	-1.735763e+01	-5.627852e+01
1.300000e-06	-2.460479e-06	-8.014377e-10	-1.706570e+01	-5.601696e+01
1.310000e-06	-2.418086e-06	-7.947621e-10	-1.677166e+01	-5.575121e+01
1.320000e-06	-2.375451e-06	-7.922311e-10	-1.647595e+01	-5.548112e+01
1.330000e-06	-2.332579e-06	-7.911110e-10	-1.617860e+01	-5.520657e+01
1.340000e-06	-2.289478e-06	-7.890740e-10	-1.587965e+01	-5.492744e+01
1.350000e-06	-2.246168e-06	-7.884236e-10	-1.557925e+01	-5.464359e+01
1.360000e-06	-2.202671e-06	-7.837885e-10	-1.527756e+01	-5.435490e+01
1.370000e-06	-2.159034e-06	-7.733515e-10	-1.497490e+01	-5.406122e+01
1.380000e-06	-2.115300e-06	-7.630362e-10	-1.467156e+01	-5.376244e+01
1.390000e-06	-2.071460e-06	-7.563128e-10	-1.436749e+01	-5.345839e+01
1.400000e-06	-2.027519e-06	-7.528651e-10	-1.406272e+01	-5.314893e+01
1.410000e-06	-1.983491e-06	-7.508446e-10	-1.375734e+01	-5.283388e+01
1.420000e-06	-1.939378e-06	-7.502328e-10	-1.345138e+01	-5.251308e+01
1.430000e-06	-1.895150e-06	-7.473927e-10	-1.314462e+01	-5.218631e+01
1.440000e-06	-1.850807e-06	-7.403522e-10	-1.283706e+01	-5.185337e+01
1.450000e-06	-1.806424e-06	-7.317479e-10	-1.252922e+01	-5.151400e+01
1.460000e-06	-1.761956e-06	-7.241534e-10	-1.222080e+01	-5.116795e+01
1.470000e-06	-1.717310e-06	-7.171335e-10	-1.191113e+01	-5.081491e+01
1.480000e-06	-1.672522e-06	-7.118556e-10	-1.160049e+01	-5.045456e+01
1.490000e-06	-1.627616e-06	-7.085997e-10	-1.128902e+01	-5.008654e+01
1.500000e-06	-1.582569e-06	-7.048220e-10	-1.097658e+01	-4.971044e+01
1.510000e-06	-1.537402e-06	-7.007649e-10	-1.066331e+01	-4.932584e+01
1.520000e-06	-1.492100e-06	-6.959524e-10	-1.034910e+01	-4.893226e+01
1.530000e-06	-1.446683e-06	-6.887616e-10	-1.003408e+01	-4.852917e+01
1.540000e-06	-1.401140e-06	-6.797552e-10	-9.718201e+00	-4.811603e+01
1.550000e-06	-1.355508e-06	-6.709386e-10	-9.401703e+00	-4.769222e+01
1.560000e-06	-1.309880e-06	-6.620943e-10	-9.085233e+00	-4.725711e+01
1.570000e-06	-1.264195e-06	-6.547321e-10	-8.768359e+00	-4.681000e+01
1.580000e-06	-1.218407e-06	-6.472284e-10	-8.450777e+00	-4.635017e+01
1.590000e-06	-1.172602e-06	-6.425711e-10	-8.133081e+00	-4.587683e+01
1.600000e-06	-1.126781e-06	-6.379853e-10	-7.815273e+00	-4.538920e+01
1.610000e-06	-1.080790e-06	-6.312074e-10	-7.496276e+00	-4.488640e+01
1.620000e-06	-1.034619e-06	-6.231817e-10	-7.176039e+00	-4.436758e+01
1.630000e-06	-9.884159e-07	-6.137926e-10	-6.855579e+00	-4.383182e+01
1.640000e-06	-9.421924e-07	-6.033763e-10	-6.534976e+00	-4.327817e+01
1.650000e-06	-8.959410e-07	-5.910922e-10	-6.214180e+00	-4.270570e+01
1.660000e-06	-8.496017e-07	-5.781862e-10	-5.892774e+00	-4.211343e+01
1.670000e-06	-8.031991e-07	-5.655920e-10	-5.570929e+00	-4.150036e+01
1.680000e-06	-7.567685e-07	-5.555125e-10	-5.248890e+00	-4.086553e+01
1.690000e-06	-7.102853e-07	-5.458244e-10	-4.926486e+00	-4.020794e+01
1.700000e-06	-6.637971e-07	-5.339541e-10	-4.604047e+00	-3.952661e+01
1.710000e-06	-6.173014e-07	-5.214471e-10	-4.281556e+00	-3.882060e+01
1.720000e-06	-5.707011e-07	-5.107936e-10	-3.958340e+00	-3.808895e+01
1.730000e-06	-5.239261e-07	-4.996209e-10	-3.633913e+00	-3.733077e+01
1.740000e-06	-4.771105e-07	-4.874494e-10	-3.309203e+00	-3.654518e+01
1.750000e-06	-4.302907e-07	-4.750548e-10	-2.984465e+00	-3.573137e+01
1.760000e-06	-3.834406e-07	-4.628876e-10	-2.659515e+00	-3.488857e+01
1.770000e-06	-3.366382e-07	-4.513429e-10	-2.334897e+00	-3.401606e+01
1.780000e-06	-2.897762e-07	-4.387372e-10	-2.009866e+00	-3.311322e+01
1.790000e-06	-2.428847e-07	-4.252941e-10	-1.684630e+00	-3.217947e+01
1.800000e-06	-1.959614e-07	-4.135054e-10	-1.359173e+00	-3.121434e+01
1.810000e-06	-1.489443e-07	-4.005313e-10	-1.033066e+00	-3.021744e+01
1.820000e-06	-1.019793e-07	-3.863916e-10	-7.073209e-01	-2.918847e+01
1.830000e-06	-5.507641e-08	-3.729891e-10	-3.820059e-01	-2.812724e+01
1.840000e-06	-8.175366e-09	-3.599133e-10	-5.670373e-02	-2.703366e+01
1.850000e-06	3.876389e-08	-3.456689e-10	2.688635e-01	-2.590775e+01
1.860000e-06	8.568735e-08	-3.286634e-10	5.943211e-01	-2.474965e+01
1.870000e-06	1.326094e-07	-3.092074e-10	9.197692e-01	-2.355962e+01
1.880000e-06	1.795287e-07	-2.904312e-10	1.245198e+00	-2.233802e+01
1.890000e-06	2.264450e-07	-2.745752e-10	1.570606e+00	-2.108535e+01
1.900000e-06	2.733529e-07	-2.588333e-10	1.895956e+00	-1.980224e+01
1.910000e-06	3.201928e-07	-2.419819e-10	2.220833e+00	-1.848942e+01
1.920000e-06	3.670425e-07	-2.269022e-10	2.545780e+00	-1.714776e+01
1.930000e-06	4.139567e-07	-2.119447e-10	2.871173e+00	-1.577823e+01
1.940000e-06	4.607625e-07	-1.934819e-10	3.195814e+00	-1.438194e+01
1.950000e-06	5.074648e-07	-1.721861e-10	3.519738e+00	-1.296010e+01
1.960000e-06	5.541705e-07	-1.534054e-10	3.843685e+00	-1.151403e+01
1.970000e-06	6.007892e-07	-1.359844e-10	4.167029e+00	-1.004515e+01
1.980000e-06	6.473421e-07	-1.168071e-10	4.489917e+00	-8.554993e+00
1.990000e-06	6.938158e-07	-9.545060e-11	4.812255e+00	-7.045175e+00
2.000000e-06	7.402236e-07	-7.176754e-11	5.134136e+00	-5.517400e+00
2.010000e-06	7.866309e-07	-4.586248e-11	5.456014e+00	-3.973447e+00
2.020000e-06	8.329701e-07	-1.893578e-11	5.777419e+00	-2.415165e+00
2.030000e-06	8.792340e-07	4.329191e-12	6.098302e+00	-8.444649e-01
2.040000e-06	9.254434e-07	2.294261e-11	6.418807e+00	7.366928e-01
2.050000e-06	9.716233e-07	4.072640e-11	6.739107e+00	2.326305e+00
2.060000e-06	1.017762e-06	6.096469e-11	7.059124e+00	3.922338e+00
2.070000e-06	1.063819e-06	8.398233e-11	7.378571e+00	5.522733e+00
2.080000e-06	1.109822e-06	1.093064e-10	7.697645e+00	7.125424e+00
2.090000e-06	1.155743e-06	1.340081e-10	8.016146e+00	8.728341e+00
2.100000e-06	1.201551e-06	1.575204e-10	8.333866e+00	1.032942e+01
2.110000e-06	1.247279e-06	1.787938e-10	8.651031e+00	1.192662e+01
2.120000e-06	1.292948e-06	1.991160e-10	8.967793e+00	1.351793e+01
2.130000e-06	1.338574e-06	2.187114e-10	9.284250e+00	1.510137e+01
2.140000e-06	1.384096e-06	2.372590e-10	9.599989e+00	1.667501e+01
2.150000e-06	1.429447e-06	2.590169e-10	9.914541e+00	1.823698e+01
2.160000e-06	1.474674e-06	2.843910e-10	1.022823e+01	1.978547e+01
2.170000e-06	1.519772e-06	3.072567e-10	1.054103e+01	2.131874e+01
2.180000e-06	1.564716e-06	3.288790e-10	1.085276e+01	2.283512e+01
2.190000e-06	1.609547e-06	3.484758e-10	1.116370e+01	2.433305e+01
2.200000e-06	1.654274e-06	3.663711e-10	1.147392e+01	2.581104e+01
2.210000e-06	1.698963e-06	3.829743e-10	1.178388e+01	2.726771e+01
2.220000e-06	1.743615e-06	3.999829e-10	1.209358e+01	2.870177e+01
2.230000e-06	1.788086e-06	4.194783e-10	1.240203e+01	3.011203e+01
2.240000e-06	1.832356e-06	4.379334e-10	1.270908e+01	3.149741e+01
2.250000e-06	1.876501e-06	4.558211e-10	1.301527e+01	3.285696e+01
2.260000e-06	1.920560e-06	4.752041e-10	1.332086e+01	3.418980e+01
2.270000e-06	1.964540e-06	4.952962e-10	1.362590e+01	3.549519e+01
2.280000e-06	2.008488e-06	5.126495e-10	1.393072e+01	3.677248e+01
2.290000e-06	2.052354e-06	5.298618e-10	1.423497e+01	3.802115e+01
2.300000e-06	2.096121e-06	5.461505e-10	1.453854e+01	3.924077e+01
2.310000e-06	2.139870e-06	5.620726e-10	1.484198e+01	4.043101e+01
2.320000e-06	2.183599e-06	5.799393e-10	1.514528e+01	4.159165e+01
2.330000e-06	2.227247e-06	5.968573e-10	1.544802e+01	4.272256e+01
2.340000e-06	2.270711e-06	6.121860e-10	1.574948e+01	4.382371e+01
2.350000e-06	2.313893e-06	6.266507e-10	1.604899e+01	4.489515e+01
2.360000e-06	2.356806e-06	6.393550e-10	1.634663e+01	4.593701e+01
2.370000e-06	2.399511e-06	6.508748e-10	1.664283e+01	4.694951e+01
2.380000e-06	2.441887e-06	6.615210e-10	1.693675e+01	4.793292e+01
2.390000e-06	2.483842e-06	6.734876e-10	1.722774e+01	4.888759e+01
2.400000e-06	2.525475e-06	6.869658e-10	1.751651e+01	4.981392e+01
2.410000e-06	2.566961e-06	7.027896e-10	1.780425e+01	5.071236e+01
2.420000e-06	2.608223e-06	7.174570e-10	1.809044e+01	5.158342e+01
2.430000e-06	2.649160e-06	7.294380e-10	1.837437e+01	5.242763e+01
2.440000e-06	2.689804e-06	7.408156e-10	1.865628e+01	5.324556e+01
2.450000e-06	2.730170e-06	7.524595e-10	1.893626e+01	5.403781e+01
2.460000e-06	2.770395e-06	7.633488e-10	1.921525e+01	5.480498e+01
2.470000e-06	2.810512e-06	7.717426e-10	1.949351e+01	5.554772e+01
2.480000e-06	2.850519e-06	7.806804e-10	1.977099e+01	5.626666e+01
2.490000e-06	2.890439e-06	7.926562e-10	2.004787e+01	5.696244e+01
2.500000e-06	2.930223e-06	8.061294e-10	2.032381e+01	5.763570e+01
2.510000e-06	2.969807e-06	8.174511e-10	2.059836e+01	5.828709e+01
2.520000e-06	3.009166e-06	8.249807e-10	2.087135e+01	5.891722e+01
2.530000e-06	3.048322e-06	8.322881e-10	2.114293e+01	5.952673e+01
2.540000e-06	3.087264e-06	8.399208e-10	2.141303e+01	6.011620e+01
2.550000e-06	3.125975e-06	8.465972e-10	2.168153e+01	6.068622e+01
2.560000e-06	3.164494e-06	8.535040e-10	2.194870e+01	6.123735e+01
2.570000e-06	3.202812e-06	8.608686e-10	2.221447e+01	6.177014e+01
2.580000e-06	3.240945e-06	8.688740e-10	2.247896e+01	6.228511e+01
2.590000e-06	3.278906e-06	8.765998e-10	2.274225e+01	6.278275e+01
2.600000e-06	3.316670e-06	8.833527e-10	2.300418e+01	6.326355e+01
2.610000e-06	3.354199e-06	8.893742e-10	2.326448e+01	6.372795e+01
2.620000e-06	3.391453e-06	8.953225e-10	2.352287e+01	6.417640e+01
2.630000e-06	3.428363e-06	9.010125e-10	2.377887e+01	6.460929e+01
2.640000e-06	3.464936e-06	9.075674e-10	2.403254e+01	6.502703e+01
2.650000e-06	3.501296e-06	9.146913e-10	2.428473e+01	6.542998e+01
2.660000e-06	3.537517e-06	9.208245e-10	2.453595e+01	6.581851e+01
2.670000e-06	3.573580e-06	9.230442e-10	2.478608e+01	6.619295e+01
2.680000e-06	3.609465e-06	9.243169e-10	2.503498e+01	6.655365e+01
2.690000e-06	3.645224e-06	9.282751e-10	2.528300e+01	6.690092e+01
2.700000e-06	3.680844e-06	9.338600e-10	2.553006e+01	6.723507e+01
2.710000e-06	3.716315e-06	9.407497e-10	2.577609e+01	6.755643e+01
2.720000e-06	3.751520e-06	9.493465e-10	2.602026e+01	6.786528e+01
2.730000e-06	3.786268e-06	9.562364e-10	2.626127e+01	6.816195e+01
2.740000e-06	3.820550e-06	9.608685e-10	2.649905e+01	6.844672e+01
2.750000e-06	3.854440e-06	9.649155e-10	2.673411e+01	6.871991e+01
2.760000e-06	3.887892e-06	9.688037e-10	2.696613e+01	6.898183e+01
2.770000e-06	3.920856e-06	9.725758e-10	2.719477e+01	6.923280e+01
2.780000e-06	3.953462e-06	9.784955e-10	2.742092e+01	6.947314e+01
2.790000e-06	3.985763e-06	9.861551e-10	2.764496e+01	6.970318e+01
2.800000e-06	4.017785e-06	9.922031e-10	2.786706e+01	6.992325e+01
2.810000e-06	4.049677e-06	9.950106e-10	2.808826e+01	7.013371e+01
2.820000e-06	4.081472e-06	9.973058e-10	2.830879e+01	7.033490e+01
2.830000e-06	4.113082e-06	1.001062e-09	2.852803e+01	7.052720e+01
2.840000e-06	4.144454e-06	1.004540e-09	2.874562e+01	7.071096e+01
2.850000e-06	4.175507e-06	1.007651e-09	2.896101e+01	7.088657e+01
2.860000e-06	4.206221e-06	1.011178e-09	2.917404e+01	7.105441e+01
2.870000e-06	4.236613e-06	1.015534e-09	2.938483e+01	7.121485e+01
2.880000e-06	4.266668e-06	1.019379e-09	2.959329e+01	7.136830e+01
2.890000e-06	4.296448e-06	1.023928e-09	2.979984e+01	7.151513e+01
2.900000e-06	4.325976e-06	1.029592e-09	3.000465e+01	7.165572e+01
