# Temperatura_=_11.18
# Concentracion g/m^3_=_1620.0
# C_Vs_to_Am_M_A/Vsm_=_65563218390.804596
# pendiente_HvsI_1/m_=_3716.3
# ordenada_HvsI_A/m_=_1297.0
# frecuencia_Hz_=_135102.78865558852

Tiempo_(s)	Campo_(V.s)	Magnetizacion_(V.s)	Campo_(kA/m)	Magnetizacion_(A/m)
0.000000e+00	-5.522700e-06	-1.469189e-09	-3.837728e+01	-9.806969e+01
1.000000e-08	-5.522917e-06	-1.465299e-09	-3.837878e+01	-9.806867e+01
2.000000e-08	-5.522920e-06	-1.460959e-09	-3.837880e+01	-9.806694e+01
3.000000e-08	-5.522739e-06	-1.457576e-09	-3.837755e+01	-9.806426e+01
4.000000e-08	-5.522177e-06	-1.456712e-09	-3.837364e+01	-9.806038e+01
5.000000e-08	-5.521082e-06	-1.453569e-09	-3.836603e+01	-9.805504e+01
6.000000e-08	-5.519416e-06	-1.443801e-09	-3.835445e+01	-9.804794e+01
7.000000e-08	-5.517075e-06	-1.429300e-09	-3.833819e+01	-9.803876e+01
8.000000e-08	-5.514153e-06	-1.433278e-09	-3.831788e+01	-9.802717e+01
9.000000e-08	-5.510740e-06	-1.459330e-09	-3.829417e+01	-9.801281e+01
1.000000e-07	-5.506829e-06	-1.489650e-09	-3.826699e+01	-9.799534e+01
1.100000e-07	-5.502612e-06	-1.495814e-09	-3.823769e+01	-9.797439e+01
1.200000e-07	-5.498149e-06	-1.443972e-09	-3.820667e+01	-9.794960e+01
1.300000e-07	-5.493511e-06	-1.374305e-09	-3.817444e+01	-9.792061e+01
1.400000e-07	-5.488633e-06	-1.412970e-09	-3.814054e+01	-9.788706e+01
1.500000e-07	-5.483225e-06	-1.451662e-09	-3.810297e+01	-9.784861e+01
1.600000e-07	-5.477326e-06	-1.457648e-09	-3.806197e+01	-9.780494e+01
1.700000e-07	-5.471049e-06	-1.400591e-09	-3.801835e+01	-9.775572e+01
1.800000e-07	-5.464420e-06	-1.430869e-09	-3.797229e+01	-9.770068e+01
1.900000e-07	-5.457324e-06	-1.499008e-09	-3.792297e+01	-9.763954e+01
2.000000e-07	-5.449853e-06	-1.493638e-09	-3.787106e+01	-9.757208e+01
2.100000e-07	-5.442122e-06	-1.435758e-09	-3.781734e+01	-9.749807e+01
2.200000e-07	-5.434121e-06	-1.433598e-09	-3.776174e+01	-9.741736e+01
2.300000e-07	-5.425911e-06	-1.487892e-09	-3.770469e+01	-9.732980e+01
2.400000e-07	-5.417425e-06	-1.490059e-09	-3.764572e+01	-9.723529e+01
2.500000e-07	-5.408368e-06	-1.461673e-09	-3.758278e+01	-9.713376e+01
2.600000e-07	-5.398690e-06	-1.450283e-09	-3.751553e+01	-9.702520e+01
2.700000e-07	-5.388424e-06	-1.469950e-09	-3.744419e+01	-9.690961e+01
2.800000e-07	-5.377414e-06	-1.447167e-09	-3.736768e+01	-9.678705e+01
2.900000e-07	-5.365917e-06	-1.441427e-09	-3.728779e+01	-9.665761e+01
3.000000e-07	-5.354085e-06	-1.440822e-09	-3.720557e+01	-9.652142e+01
3.100000e-07	-5.341944e-06	-1.452838e-09	-3.712120e+01	-9.637864e+01
3.200000e-07	-5.329413e-06	-1.432849e-09	-3.703412e+01	-9.622948e+01
3.300000e-07	-5.316388e-06	-1.438559e-09	-3.694361e+01	-9.607418e+01
3.400000e-07	-5.302934e-06	-1.428307e-09	-3.685012e+01	-9.591299e+01
3.500000e-07	-5.289127e-06	-1.431555e-09	-3.675418e+01	-9.574621e+01
3.600000e-07	-5.274984e-06	-1.432286e-09	-3.665589e+01	-9.557415e+01
3.700000e-07	-5.260408e-06	-1.433692e-09	-3.655460e+01	-9.539715e+01
3.800000e-07	-5.245330e-06	-1.419924e-09	-3.644983e+01	-9.521558e+01
3.900000e-07	-5.229647e-06	-1.427428e-09	-3.634085e+01	-9.502979e+01
4.000000e-07	-5.213408e-06	-1.417697e-09	-3.622800e+01	-9.484018e+01
4.100000e-07	-5.196764e-06	-1.394132e-09	-3.611234e+01	-9.464712e+01
4.200000e-07	-5.179814e-06	-1.404560e-09	-3.599456e+01	-9.445101e+01
4.300000e-07	-5.162562e-06	-1.424079e-09	-3.587467e+01	-9.425223e+01
4.400000e-07	-5.144968e-06	-1.397641e-09	-3.575241e+01	-9.405117e+01
4.500000e-07	-5.127054e-06	-1.391665e-09	-3.562793e+01	-9.384821e+01
4.600000e-07	-5.108764e-06	-1.433854e-09	-3.550083e+01	-9.364369e+01
4.700000e-07	-5.089967e-06	-1.409003e-09	-3.537021e+01	-9.343798e+01
4.800000e-07	-5.070785e-06	-1.360977e-09	-3.523691e+01	-9.323138e+01
4.900000e-07	-5.051379e-06	-1.395912e-09	-3.510206e+01	-9.302421e+01
5.000000e-07	-5.031680e-06	-1.424690e-09	-3.496518e+01	-9.281673e+01
5.100000e-07	-5.011749e-06	-1.371462e-09	-3.482667e+01	-9.260920e+01
5.200000e-07	-4.991609e-06	-1.375799e-09	-3.468672e+01	-9.240183e+01
5.300000e-07	-4.971194e-06	-1.415860e-09	-3.454486e+01	-9.219480e+01
5.400000e-07	-4.950386e-06	-1.385792e-09	-3.440026e+01	-9.198826e+01
5.500000e-07	-4.929144e-06	-1.355712e-09	-3.425265e+01	-9.178233e+01
5.600000e-07	-4.907561e-06	-1.393606e-09	-3.410267e+01	-9.157708e+01
5.700000e-07	-4.885693e-06	-1.373679e-09	-3.395071e+01	-9.137256e+01
5.800000e-07	-4.863514e-06	-1.335606e-09	-3.379659e+01	-9.116877e+01
5.900000e-07	-4.841060e-06	-1.366488e-09	-3.364055e+01	-9.096567e+01
6.000000e-07	-4.818339e-06	-1.384368e-09	-3.348267e+01	-9.076321e+01
6.100000e-07	-4.795282e-06	-1.341505e-09	-3.332245e+01	-9.056128e+01
6.200000e-07	-4.771870e-06	-1.349189e-09	-3.315975e+01	-9.035975e+01
6.300000e-07	-4.748144e-06	-1.368066e-09	-3.299488e+01	-9.015845e+01
6.400000e-07	-4.724176e-06	-1.338499e-09	-3.282833e+01	-8.995720e+01
6.500000e-07	-4.699967e-06	-1.325520e-09	-3.266010e+01	-8.975576e+01
6.600000e-07	-4.675386e-06	-1.349123e-09	-3.248928e+01	-8.955390e+01
6.700000e-07	-4.650332e-06	-1.337321e-09	-3.231519e+01	-8.935135e+01
6.800000e-07	-4.624878e-06	-1.324677e-09	-3.213831e+01	-8.914783e+01
6.900000e-07	-4.598930e-06	-1.339153e-09	-3.195799e+01	-8.894305e+01
7.000000e-07	-4.572333e-06	-1.337721e-09	-3.177317e+01	-8.873668e+01
7.100000e-07	-4.545214e-06	-1.318052e-09	-3.158472e+01	-8.852842e+01
7.200000e-07	-4.517790e-06	-1.316396e-09	-3.139415e+01	-8.831794e+01
7.300000e-07	-4.490131e-06	-1.313528e-09	-3.120195e+01	-8.810492e+01
7.400000e-07	-4.462288e-06	-1.301492e-09	-3.100846e+01	-8.788903e+01
7.500000e-07	-4.434238e-06	-1.302119e-09	-3.081355e+01	-8.766995e+01
7.600000e-07	-4.405936e-06	-1.305179e-09	-3.061688e+01	-8.744736e+01
7.700000e-07	-4.377390e-06	-1.299998e-09	-3.041851e+01	-8.722098e+01
7.800000e-07	-4.348572e-06	-1.294137e-09	-3.021825e+01	-8.699050e+01
7.900000e-07	-4.319385e-06	-1.291265e-09	-3.001544e+01	-8.675565e+01
8.000000e-07	-4.289851e-06	-1.282385e-09	-2.981020e+01	-8.651618e+01
8.100000e-07	-4.260043e-06	-1.277089e-09	-2.960307e+01	-8.627185e+01
8.200000e-07	-4.229999e-06	-1.271333e-09	-2.939429e+01	-8.602243e+01
8.300000e-07	-4.199676e-06	-1.265908e-09	-2.918357e+01	-8.576774e+01
8.400000e-07	-4.168956e-06	-1.261528e-09	-2.897010e+01	-8.550761e+01
8.500000e-07	-4.137918e-06	-1.263878e-09	-2.875442e+01	-8.524189e+01
8.600000e-07	-4.106692e-06	-1.261572e-09	-2.853743e+01	-8.497046e+01
8.700000e-07	-4.075282e-06	-1.256762e-09	-2.831916e+01	-8.469322e+01
8.800000e-07	-4.043653e-06	-1.250415e-09	-2.809937e+01	-8.441010e+01
8.900000e-07	-4.011788e-06	-1.246964e-09	-2.787794e+01	-8.412106e+01
9.000000e-07	-3.979758e-06	-1.236304e-09	-2.765536e+01	-8.382607e+01
9.100000e-07	-3.947518e-06	-1.228921e-09	-2.743133e+01	-8.352513e+01
9.200000e-07	-3.915022e-06	-1.224920e-09	-2.720551e+01	-8.321827e+01
9.300000e-07	-3.882215e-06	-1.221222e-09	-2.697753e+01	-8.290553e+01
9.400000e-07	-3.848907e-06	-1.218229e-09	-2.674608e+01	-8.258697e+01
9.500000e-07	-3.815097e-06	-1.219280e-09	-2.651113e+01	-8.226267e+01
9.600000e-07	-3.780917e-06	-1.213904e-09	-2.627362e+01	-8.193273e+01
9.700000e-07	-3.746348e-06	-1.199279e-09	-2.603340e+01	-8.159726e+01
9.800000e-07	-3.711336e-06	-1.187668e-09	-2.579009e+01	-8.125637e+01
9.900000e-07	-3.675997e-06	-1.183032e-09	-2.554453e+01	-8.091021e+01
1.000000e-06	-3.640427e-06	-1.175723e-09	-2.529735e+01	-8.055890e+01
1.010000e-06	-3.604736e-06	-1.171541e-09	-2.504933e+01	-8.020260e+01
1.020000e-06	-3.568892e-06	-1.171466e-09	-2.480025e+01	-7.984145e+01
1.030000e-06	-3.532831e-06	-1.166979e-09	-2.454966e+01	-7.947560e+01
1.040000e-06	-3.496587e-06	-1.159305e-09	-2.429780e+01	-7.910520e+01
1.050000e-06	-3.460154e-06	-1.155062e-09	-2.404463e+01	-7.873039e+01
1.060000e-06	-3.423503e-06	-1.151281e-09	-2.378994e+01	-7.835133e+01
1.070000e-06	-3.386530e-06	-1.142398e-09	-2.353302e+01	-7.796814e+01
1.080000e-06	-3.349305e-06	-1.136260e-09	-2.327434e+01	-7.758095e+01
1.090000e-06	-3.311849e-06	-1.134625e-09	-2.301406e+01	-7.718990e+01
1.100000e-06	-3.274087e-06	-1.130178e-09	-2.275165e+01	-7.679509e+01
1.110000e-06	-3.236082e-06	-1.120883e-09	-2.248756e+01	-7.639663e+01
1.120000e-06	-3.197879e-06	-1.115369e-09	-2.222208e+01	-7.599460e+01
1.130000e-06	-3.159522e-06	-1.108609e-09	-2.195554e+01	-7.558909e+01
1.140000e-06	-3.120941e-06	-1.099294e-09	-2.168744e+01	-7.518016e+01
1.150000e-06	-3.082103e-06	-1.091994e-09	-2.141755e+01	-7.476788e+01
1.160000e-06	-3.043032e-06	-1.085670e-09	-2.114605e+01	-7.435229e+01
1.170000e-06	-3.003790e-06	-1.074591e-09	-2.087335e+01	-7.393341e+01
1.180000e-06	-2.964472e-06	-1.068014e-09	-2.060013e+01	-7.351127e+01
1.190000e-06	-2.925007e-06	-1.066561e-09	-2.032589e+01	-7.308588e+01
1.200000e-06	-2.885309e-06	-1.062679e-09	-2.005003e+01	-7.265722e+01
1.210000e-06	-2.845452e-06	-1.054332e-09	-1.977306e+01	-7.222529e+01
1.220000e-06	-2.805499e-06	-1.047116e-09	-1.949543e+01	-7.179005e+01
1.230000e-06	-2.765375e-06	-1.039862e-09	-1.921661e+01	-7.135148e+01
1.240000e-06	-2.725088e-06	-1.031487e-09	-1.893665e+01	-7.090952e+01
1.250000e-06	-2.684682e-06	-1.024209e-09	-1.865587e+01	-7.046411e+01
1.260000e-06	-2.644068e-06	-1.020967e-09	-1.837365e+01	-7.001518e+01
1.270000e-06	-2.603188e-06	-1.015715e-09	-1.808957e+01	-6.956267e+01
1.280000e-06	-2.562007e-06	-1.007792e-09	-1.780340e+01	-6.910648e+01
1.290000e-06	-2.520611e-06	-1.001989e-09	-1.751574e+01	-6.864651e+01
1.300000e-06	-2.479061e-06	-9.963731e-10	-1.722701e+01	-6.818266e+01
1.310000e-06	-2.437222e-06	-9.863601e-10	-1.693627e+01	-6.771482e+01
1.320000e-06	-2.395043e-06	-9.772386e-10	-1.664317e+01	-6.724286e+01
1.330000e-06	-2.352492e-06	-9.688472e-10	-1.634748e+01	-6.676664e+01
1.340000e-06	-2.309591e-06	-9.568946e-10	-1.604936e+01	-6.628602e+01
1.350000e-06	-2.266449e-06	-9.463165e-10	-1.574957e+01	-6.580082e+01
1.360000e-06	-2.223111e-06	-9.383046e-10	-1.544841e+01	-6.531089e+01
1.370000e-06	-2.179598e-06	-9.300223e-10	-1.514604e+01	-6.481602e+01
1.380000e-06	-2.135949e-06	-9.229326e-10	-1.484272e+01	-6.431601e+01
1.390000e-06	-2.092217e-06	-9.179210e-10	-1.453883e+01	-6.381063e+01
1.400000e-06	-2.048451e-06	-9.124887e-10	-1.423470e+01	-6.329964e+01
1.410000e-06	-2.004630e-06	-9.047764e-10	-1.393018e+01	-6.278277e+01
1.420000e-06	-1.960712e-06	-8.944040e-10	-1.362500e+01	-6.225973e+01
1.430000e-06	-1.916705e-06	-8.829404e-10	-1.331919e+01	-6.173021e+01
1.440000e-06	-1.872605e-06	-8.705630e-10	-1.301274e+01	-6.119386e+01
1.450000e-06	-1.828418e-06	-8.611744e-10	-1.270569e+01	-6.065030e+01
1.460000e-06	-1.784140e-06	-8.540790e-10	-1.239800e+01	-6.009915e+01
1.470000e-06	-1.739710e-06	-8.471226e-10	-1.208926e+01	-5.953995e+01
1.480000e-06	-1.695159e-06	-8.394313e-10	-1.177967e+01	-5.897224e+01
1.490000e-06	-1.650522e-06	-8.311191e-10	-1.146949e+01	-5.839551e+01
1.500000e-06	-1.605750e-06	-8.190125e-10	-1.115837e+01	-5.780921e+01
1.510000e-06	-1.560921e-06	-8.054935e-10	-1.084685e+01	-5.721278e+01
1.520000e-06	-1.515988e-06	-7.934477e-10	-1.053461e+01	-5.660558e+01
1.530000e-06	-1.470853e-06	-7.837861e-10	-1.022097e+01	-5.598695e+01
1.540000e-06	-1.425610e-06	-7.741453e-10	-9.906573e+00	-5.535620e+01
1.550000e-06	-1.380230e-06	-7.643776e-10	-9.591224e+00	-5.471259e+01
1.560000e-06	-1.334695e-06	-7.542940e-10	-9.274803e+00	-5.405535e+01
1.570000e-06	-1.289044e-06	-7.435711e-10	-8.957573e+00	-5.338365e+01
1.580000e-06	-1.243296e-06	-7.313560e-10	-8.639671e+00	-5.269666e+01
1.590000e-06	-1.197451e-06	-7.197579e-10	-8.321095e+00	-5.199349e+01
1.600000e-06	-1.151574e-06	-7.106534e-10	-8.002296e+00	-5.127324e+01
1.610000e-06	-1.105711e-06	-7.008858e-10	-7.683591e+00	-5.053495e+01
1.620000e-06	-1.059808e-06	-6.885749e-10	-7.364613e+00	-4.977768e+01
1.630000e-06	-1.013771e-06	-6.764083e-10	-7.044700e+00	-4.900044e+01
1.640000e-06	-9.676369e-07	-6.661243e-10	-6.724115e+00	-4.820223e+01
1.650000e-06	-9.214417e-07	-6.559827e-10	-6.403104e+00	-4.738205e+01
1.660000e-06	-8.751685e-07	-6.421383e-10	-6.081551e+00	-4.653889e+01
1.670000e-06	-8.288409e-07	-6.256752e-10	-5.759621e+00	-4.567174e+01
1.680000e-06	-7.824682e-07	-6.107696e-10	-5.437376e+00	-4.477959e+01
1.690000e-06	-7.360590e-07	-5.956380e-10	-5.114879e+00	-4.386147e+01
1.700000e-06	-6.896185e-07	-5.804000e-10	-4.792163e+00	-4.291641e+01
1.710000e-06	-6.431702e-07	-5.657299e-10	-4.469393e+00	-4.194346e+01
1.720000e-06	-5.966728e-07	-5.530961e-10	-4.146283e+00	-4.094174e+01
1.730000e-06	-5.500814e-07	-5.400718e-10	-3.822519e+00	-3.991039e+01
1.740000e-06	-5.034304e-07	-5.249875e-10	-3.498341e+00	-3.884860e+01
1.750000e-06	-4.567591e-07	-5.067899e-10	-3.174022e+00	-3.775562e+01
1.760000e-06	-4.100900e-07	-4.869628e-10	-2.849718e+00	-3.663079e+01
1.770000e-06	-3.633872e-07	-4.678003e-10	-2.525180e+00	-3.547349e+01
1.780000e-06	-3.166089e-07	-4.512091e-10	-2.200117e+00	-3.428321e+01
1.790000e-06	-2.697875e-07	-4.362569e-10	-1.874755e+00	-3.305951e+01
1.800000e-06	-2.229670e-07	-4.214263e-10	-1.549399e+00	-3.180204e+01
1.810000e-06	-1.762357e-07	-4.057788e-10	-1.224663e+00	-3.051059e+01
1.820000e-06	-1.295365e-07	-3.882978e-10	-9.001501e-01	-2.918501e+01
1.830000e-06	-8.279766e-08	-3.685791e-10	-5.753614e-01	-2.782530e+01
1.840000e-06	-3.605498e-08	-3.475505e-10	-2.505463e-01	-2.643155e+01
1.850000e-06	1.066346e-08	-3.272125e-10	7.410048e-02	-2.500398e+01
1.860000e-06	5.739652e-08	-3.063406e-10	3.988488e-01	-2.354296e+01
1.870000e-06	1.041720e-07	-2.843247e-10	7.238921e-01	-2.204896e+01
1.880000e-06	1.509321e-07	-2.628111e-10	1.048828e+00	-2.052258e+01
1.890000e-06	1.977426e-07	-2.423996e-10	1.374114e+00	-1.896457e+01
1.900000e-06	2.446034e-07	-2.218024e-10	1.699750e+00	-1.737579e+01
1.910000e-06	2.913401e-07	-2.003630e-10	2.024524e+00	-1.575725e+01
1.920000e-06	3.380168e-07	-1.785041e-10	2.348881e+00	-1.411008e+01
1.930000e-06	3.847161e-07	-1.567222e-10	2.673395e+00	-1.243554e+01
1.940000e-06	4.313713e-07	-1.335329e-10	2.997602e+00	-1.073500e+01
1.950000e-06	4.779823e-07	-1.080053e-10	3.321502e+00	-9.009977e+00
1.960000e-06	5.245231e-07	-8.243353e-11	3.644914e+00	-7.262072e+00
1.970000e-06	5.710783e-07	-6.078417e-11	3.968427e+00	-5.493013e+00
1.980000e-06	6.176221e-07	-3.962405e-11	4.291859e+00	-3.704623e+00
1.990000e-06	6.640378e-07	-1.737153e-11	4.614403e+00	-1.898821e+00
2.000000e-06	7.103875e-07	7.369198e-12	4.936487e+00	-7.761234e-02
2.010000e-06	7.567161e-07	3.600940e-11	5.258425e+00	1.756923e+00
2.020000e-06	8.030759e-07	6.844755e-11	5.580579e+00	3.602636e+00
2.030000e-06	8.493529e-07	1.008965e-10	5.902158e+00	5.457320e+00
2.040000e-06	8.955259e-07	1.296934e-10	6.223015e+00	7.318723e+00
2.050000e-06	9.416935e-07	1.547972e-10	6.543834e+00	9.184556e+00
2.060000e-06	9.877756e-07	1.795455e-10	6.864059e+00	1.105251e+01
2.070000e-06	1.033784e-06	2.048280e-10	7.183771e+00	1.292024e+01
2.080000e-06	1.079756e-06	2.302386e-10	7.503229e+00	1.478544e+01
2.090000e-06	1.125595e-06	2.574131e-10	7.821767e+00	1.664578e+01
2.100000e-06	1.171347e-06	2.847298e-10	8.139699e+00	1.849896e+01
2.110000e-06	1.217066e-06	3.106907e-10	8.457400e+00	2.034272e+01
2.120000e-06	1.262663e-06	3.357651e-10	8.774255e+00	2.217483e+01
2.130000e-06	1.308131e-06	3.608596e-10	9.090213e+00	2.399313e+01
2.140000e-06	1.353543e-06	3.841780e-10	9.405780e+00	2.579552e+01
2.150000e-06	1.398914e-06	4.066630e-10	9.721064e+00	2.757997e+01
2.160000e-06	1.444154e-06	4.301510e-10	1.003543e+01	2.934454e+01
2.170000e-06	1.489245e-06	4.541484e-10	1.034877e+01	3.108738e+01
2.180000e-06	1.534307e-06	4.781664e-10	1.066191e+01	3.280674e+01
2.190000e-06	1.579271e-06	5.014076e-10	1.097436e+01	3.450098e+01
2.200000e-06	1.624081e-06	5.233370e-10	1.128575e+01	3.616859e+01
2.210000e-06	1.668718e-06	5.450728e-10	1.159593e+01	3.780815e+01
2.220000e-06	1.713142e-06	5.643178e-10	1.190463e+01	3.941839e+01
2.230000e-06	1.757424e-06	5.859784e-10	1.221235e+01	4.099817e+01
2.240000e-06	1.801664e-06	6.071838e-10	1.251977e+01	4.254647e+01
2.250000e-06	1.845909e-06	6.244288e-10	1.282724e+01	4.406241e+01
2.260000e-06	1.890040e-06	6.422985e-10	1.313390e+01	4.554525e+01
2.270000e-06	1.934038e-06	6.648637e-10	1.343964e+01	4.699438e+01
2.280000e-06	1.977992e-06	6.882687e-10	1.374508e+01	4.840932e+01
2.290000e-06	2.021907e-06	7.105801e-10	1.405025e+01	4.978973e+01
2.300000e-06	2.065732e-06	7.317871e-10	1.435479e+01	5.113540e+01
2.310000e-06	2.109455e-06	7.473460e-10	1.465862e+01	5.244624e+01
2.320000e-06	2.153087e-06	7.607290e-10	1.496182e+01	5.372230e+01
2.330000e-06	2.196663e-06	7.745529e-10	1.526463e+01	5.496373e+01
2.340000e-06	2.240168e-06	7.893800e-10	1.556694e+01	5.617078e+01
2.350000e-06	2.283456e-06	8.066487e-10	1.586775e+01	5.734383e+01
2.360000e-06	2.326438e-06	8.263771e-10	1.616643e+01	5.848335e+01
2.370000e-06	2.369184e-06	8.441793e-10	1.646347e+01	5.958989e+01
2.380000e-06	2.411712e-06	8.573066e-10	1.675900e+01	6.066409e+01
2.390000e-06	2.453884e-06	8.688274e-10	1.705206e+01	6.170666e+01
2.400000e-06	2.495635e-06	8.804207e-10	1.734218e+01	6.271837e+01
2.410000e-06	2.537073e-06	8.932659e-10	1.763014e+01	6.370007e+01
2.420000e-06	2.578267e-06	9.094094e-10	1.791639e+01	6.465262e+01
2.430000e-06	2.619153e-06	9.242782e-10	1.820051e+01	6.557695e+01
2.440000e-06	2.659762e-06	9.380002e-10	1.848270e+01	6.647400e+01
2.450000e-06	2.700185e-06	9.500592e-10	1.876360e+01	6.734474e+01
2.460000e-06	2.740381e-06	9.615898e-10	1.904292e+01	6.819016e+01
2.470000e-06	2.780459e-06	9.726230e-10	1.932143e+01	6.901122e+01
2.480000e-06	2.820477e-06	9.834451e-10	1.959951e+01	6.980893e+01
2.490000e-06	2.860322e-06	9.943556e-10	1.987639e+01	7.058425e+01
2.500000e-06	2.900043e-06	1.004938e-09	2.015242e+01	7.133812e+01
2.510000e-06	2.939646e-06	1.016936e-09	2.042762e+01	7.207149e+01
2.520000e-06	2.979095e-06	1.028979e-09	2.070175e+01	7.278525e+01
2.530000e-06	3.018345e-06	1.039546e-09	2.097449e+01	7.348026e+01
2.540000e-06	3.057402e-06	1.048492e-09	2.124590e+01	7.415735e+01
2.550000e-06	3.096216e-06	1.057568e-09	2.151562e+01	7.481731e+01
2.560000e-06	3.134781e-06	1.066630e-09	2.178361e+01	7.546087e+01
2.570000e-06	3.173173e-06	1.074424e-09	2.205040e+01	7.608871e+01
2.580000e-06	3.211316e-06	1.081697e-09	2.231545e+01	7.670148e+01
2.590000e-06	3.249240e-06	1.090350e-09	2.257899e+01	7.729976e+01
2.600000e-06	3.286945e-06	1.098555e-09	2.284100e+01	7.788409e+01
2.610000e-06	3.324344e-06	1.107102e-09	2.310089e+01	7.845494e+01
2.620000e-06	3.361525e-06	1.117246e-09	2.335926e+01	7.901276e+01
2.630000e-06	3.398581e-06	1.124225e-09	2.361676e+01	7.955793e+01
2.640000e-06	3.435398e-06	1.130534e-09	2.387260e+01	8.009078e+01
2.650000e-06	3.471876e-06	1.135617e-09	2.412609e+01	8.061160e+01
2.660000e-06	3.508052e-06	1.140768e-09	2.437747e+01	8.112065e+01
2.670000e-06	3.544098e-06	1.148634e-09	2.462796e+01	8.161813e+01
2.680000e-06	3.580092e-06	1.156024e-09	2.487808e+01	8.210424e+01
2.690000e-06	3.615960e-06	1.163216e-09	2.512733e+01	8.257910e+01
2.700000e-06	3.651739e-06	1.169838e-09	2.537595e+01	8.304284e+01
2.710000e-06	3.687402e-06	1.177155e-09	2.562378e+01	8.349557e+01
2.720000e-06	3.722795e-06	1.183331e-09	2.586972e+01	8.393735e+01
2.730000e-06	3.757888e-06	1.190085e-09	2.611359e+01	8.436826e+01
2.740000e-06	3.792562e-06	1.196622e-09	2.635454e+01	8.478835e+01
2.750000e-06	3.826605e-06	1.204160e-09	2.659110e+01	8.519768e+01
2.760000e-06	3.860099e-06	1.212747e-09	2.682385e+01	8.559631e+01
2.770000e-06	3.893183e-06	1.219726e-09	2.705376e+01	8.598427e+01
2.780000e-06	3.925848e-06	1.224649e-09	2.728074e+01	8.636164e+01
2.790000e-06	3.958190e-06	1.228332e-09	2.750548e+01	8.672850e+01
2.800000e-06	3.990323e-06	1.233063e-09	2.772878e+01	8.708492e+01
2.810000e-06	4.022328e-06	1.237638e-09	2.795118e+01	8.743101e+01
2.820000e-06	4.054227e-06	1.241567e-09	2.817285e+01	8.776690e+01
2.830000e-06	4.085943e-06	1.247977e-09	2.839324e+01	8.809272e+01
2.840000e-06	4.117449e-06	1.254673e-09	2.861218e+01	8.840864e+01
2.850000e-06	4.148693e-06	1.261534e-09	2.882929e+01	8.871484e+01
2.860000e-06	4.179636e-06	1.268198e-09	2.904432e+01	8.901154e+01
2.870000e-06	4.210173e-06	1.273729e-09	2.925652e+01	8.929897e+01
2.880000e-06	4.240362e-06	1.278288e-09	2.946630e+01	8.957739e+01
2.890000e-06	4.270332e-06	1.283657e-09	2.967457e+01	8.984707e+01
2.900000e-06	4.300022e-06	1.289802e-09	2.988088e+01	9.010832e+01
