# Temperatura_=_-6.6
# Concentracion g/m^3_=_1620.0
# C_Vs_to_Am_M_A/Vsm_=_65563218390.804596
# pendiente_HvsI_1/m_=_3716.3
# ordenada_HvsI_A/m_=_1297.0
# frecuencia_Hz_=_135108.05724632146

Tiempo_(s)	Campo_(V.s)	Magnetizacion_(V.s)	Campo_(kA/m)	Magnetizacion_(A/m)
0.000000e+00	-5.525692e-06	-1.078950e-09	-3.834764e+01	-7.229962e+01
1.000000e-08	-5.525879e-06	-1.076285e-09	-3.834893e+01	-7.230162e+01
2.000000e-08	-5.525868e-06	-1.074065e-09	-3.834886e+01	-7.230203e+01
3.000000e-08	-5.525606e-06	-1.072029e-09	-3.834704e+01	-7.230035e+01
4.000000e-08	-5.524874e-06	-1.069330e-09	-3.834195e+01	-7.229607e+01
5.000000e-08	-5.523544e-06	-1.066091e-09	-3.833273e+01	-7.228868e+01
6.000000e-08	-5.521617e-06	-1.068735e-09	-3.831935e+01	-7.227767e+01
7.000000e-08	-5.519064e-06	-1.069428e-09	-3.830164e+01	-7.226253e+01
8.000000e-08	-5.515938e-06	-1.056544e-09	-3.827994e+01	-7.224278e+01
9.000000e-08	-5.512399e-06	-1.043429e-09	-3.825538e+01	-7.221793e+01
1.000000e-07	-5.508500e-06	-1.071854e-09	-3.822833e+01	-7.218753e+01
1.100000e-07	-5.504283e-06	-1.124678e-09	-3.819906e+01	-7.215116e+01
1.200000e-07	-5.499764e-06	-1.105115e-09	-3.816769e+01	-7.210843e+01
1.300000e-07	-5.494959e-06	-9.958872e-10	-3.813435e+01	-7.205898e+01
1.400000e-07	-5.489890e-06	-1.000959e-09	-3.809917e+01	-7.200250e+01
1.500000e-07	-5.484433e-06	-1.074839e-09	-3.806130e+01	-7.193873e+01
1.600000e-07	-5.478570e-06	-1.108412e-09	-3.802061e+01	-7.186744e+01
1.700000e-07	-5.472337e-06	-1.026626e-09	-3.797736e+01	-7.178848e+01
1.800000e-07	-5.465663e-06	-1.011675e-09	-3.793104e+01	-7.170173e+01
1.900000e-07	-5.458581e-06	-1.109339e-09	-3.788189e+01	-7.160714e+01
2.000000e-07	-5.451188e-06	-1.126657e-09	-3.783059e+01	-7.150471e+01
2.100000e-07	-5.443466e-06	-1.058764e-09	-3.777700e+01	-7.139452e+01
2.200000e-07	-5.435447e-06	-1.004395e-09	-3.772134e+01	-7.127667e+01
2.300000e-07	-5.427232e-06	-1.060933e-09	-3.766433e+01	-7.115135e+01
2.400000e-07	-5.418719e-06	-1.075073e-09	-3.760525e+01	-7.101881e+01
2.500000e-07	-5.409675e-06	-1.052929e-09	-3.754249e+01	-7.087933e+01
2.600000e-07	-5.399851e-06	-1.020322e-09	-3.747432e+01	-7.073327e+01
2.700000e-07	-5.389290e-06	-1.037699e-09	-3.740102e+01	-7.058101e+01
2.800000e-07	-5.378228e-06	-1.023700e-09	-3.732425e+01	-7.042302e+01
2.900000e-07	-5.366711e-06	-9.993762e-10	-3.724433e+01	-7.025977e+01
3.000000e-07	-5.354772e-06	-9.822188e-10	-3.716147e+01	-7.009180e+01
3.100000e-07	-5.342520e-06	-1.006733e-09	-3.707644e+01	-6.991968e+01
3.200000e-07	-5.329879e-06	-1.019192e-09	-3.698872e+01	-6.974399e+01
3.300000e-07	-5.316794e-06	-1.007595e-09	-3.689791e+01	-6.956535e+01
3.400000e-07	-5.303375e-06	-9.896337e-10	-3.680478e+01	-6.938441e+01
3.500000e-07	-5.289555e-06	-1.000275e-09	-3.670887e+01	-6.920180e+01
3.600000e-07	-5.275276e-06	-1.013492e-09	-3.660978e+01	-6.901819e+01
3.700000e-07	-5.260601e-06	-9.868946e-10	-3.650793e+01	-6.883423e+01
3.800000e-07	-5.245442e-06	-9.795265e-10	-3.640273e+01	-6.865057e+01
3.900000e-07	-5.229660e-06	-1.009632e-09	-3.629321e+01	-6.846784e+01
4.000000e-07	-5.213340e-06	-1.006997e-09	-3.617995e+01	-6.828668e+01
4.100000e-07	-5.196645e-06	-9.733161e-10	-3.606409e+01	-6.810767e+01
4.200000e-07	-5.179712e-06	-1.009084e-09	-3.594657e+01	-6.793139e+01
4.300000e-07	-5.162534e-06	-1.029935e-09	-3.582736e+01	-6.775837e+01
4.400000e-07	-5.144976e-06	-9.785267e-10	-3.570551e+01	-6.758910e+01
4.500000e-07	-5.127028e-06	-9.634621e-10	-3.558095e+01	-6.742404e+01
4.600000e-07	-5.108613e-06	-1.025890e-09	-3.545316e+01	-6.726359e+01
4.700000e-07	-5.089676e-06	-9.939481e-10	-3.532174e+01	-6.710810e+01
4.800000e-07	-5.070373e-06	-9.426735e-10	-3.518777e+01	-6.695788e+01
4.900000e-07	-5.050846e-06	-9.886421e-10	-3.505226e+01	-6.681316e+01
5.000000e-07	-5.031120e-06	-1.024945e-09	-3.491536e+01	-6.667413e+01
5.100000e-07	-5.011186e-06	-9.690049e-10	-3.477702e+01	-6.654091e+01
5.200000e-07	-4.990973e-06	-9.844219e-10	-3.463675e+01	-6.641357e+01
5.300000e-07	-4.970369e-06	-1.021352e-09	-3.449376e+01	-6.629211e+01
5.400000e-07	-4.949445e-06	-9.736316e-10	-3.434855e+01	-6.617647e+01
5.500000e-07	-4.928224e-06	-9.492745e-10	-3.420128e+01	-6.606653e+01
5.600000e-07	-4.906618e-06	-1.008335e-09	-3.405133e+01	-6.596214e+01
5.700000e-07	-4.884666e-06	-9.877359e-10	-3.389899e+01	-6.586305e+01
5.800000e-07	-4.862376e-06	-9.412356e-10	-3.374430e+01	-6.576898e+01
5.900000e-07	-4.839724e-06	-9.811508e-10	-3.358710e+01	-6.567962e+01
6.000000e-07	-4.816740e-06	-9.982890e-10	-3.342759e+01	-6.559458e+01
6.100000e-07	-4.793485e-06	-9.451469e-10	-3.326621e+01	-6.551345e+01
6.200000e-07	-4.769976e-06	-9.530008e-10	-3.310306e+01	-6.543579e+01
6.300000e-07	-4.746224e-06	-9.867039e-10	-3.293822e+01	-6.536110e+01
6.400000e-07	-4.722281e-06	-9.611692e-10	-3.277206e+01	-6.528889e+01
6.500000e-07	-4.698038e-06	-9.537081e-10	-3.260382e+01	-6.521862e+01
6.600000e-07	-4.673380e-06	-9.796352e-10	-3.243270e+01	-6.514974e+01
6.700000e-07	-4.648228e-06	-9.641092e-10	-3.225814e+01	-6.508171e+01
6.800000e-07	-4.622541e-06	-9.447237e-10	-3.207987e+01	-6.501396e+01
6.900000e-07	-4.596232e-06	-9.651742e-10	-3.189729e+01	-6.494594e+01
7.000000e-07	-4.569373e-06	-9.671517e-10	-3.171089e+01	-6.487708e+01
7.100000e-07	-4.542163e-06	-9.543595e-10	-3.152206e+01	-6.480686e+01
7.200000e-07	-4.514670e-06	-9.589158e-10	-3.133126e+01	-6.473475e+01
7.300000e-07	-4.487006e-06	-9.631381e-10	-3.113928e+01	-6.466024e+01
7.400000e-07	-4.459181e-06	-9.474858e-10	-3.094618e+01	-6.458286e+01
7.500000e-07	-4.431136e-06	-9.494498e-10	-3.075155e+01	-6.450215e+01
7.600000e-07	-4.402832e-06	-9.529278e-10	-3.055512e+01	-6.441772e+01
7.700000e-07	-4.374213e-06	-9.465542e-10	-3.035651e+01	-6.432917e+01
7.800000e-07	-4.345335e-06	-9.410570e-10	-3.015610e+01	-6.423618e+01
7.900000e-07	-4.316167e-06	-9.449101e-10	-2.995368e+01	-6.413844e+01
8.000000e-07	-4.286603e-06	-9.401801e-10	-2.974851e+01	-6.403570e+01
8.100000e-07	-4.256708e-06	-9.397123e-10	-2.954104e+01	-6.392776e+01
8.200000e-07	-4.226592e-06	-9.424290e-10	-2.933203e+01	-6.381445e+01
8.300000e-07	-4.196264e-06	-9.412537e-10	-2.912157e+01	-6.369566e+01
8.400000e-07	-4.165625e-06	-9.342841e-10	-2.890894e+01	-6.357132e+01
8.500000e-07	-4.134606e-06	-9.373637e-10	-2.869366e+01	-6.344140e+01
8.600000e-07	-4.103254e-06	-9.351858e-10	-2.847609e+01	-6.330592e+01
8.700000e-07	-4.071698e-06	-9.260598e-10	-2.825709e+01	-6.316493e+01
8.800000e-07	-4.040047e-06	-9.214256e-10	-2.803744e+01	-6.301854e+01
8.900000e-07	-4.008261e-06	-9.220913e-10	-2.781684e+01	-6.286688e+01
9.000000e-07	-3.976237e-06	-9.163365e-10	-2.759460e+01	-6.271012e+01
9.100000e-07	-3.943985e-06	-9.154513e-10	-2.737078e+01	-6.254846e+01
9.200000e-07	-3.911360e-06	-9.184889e-10	-2.714437e+01	-6.238213e+01
9.300000e-07	-3.878311e-06	-9.122641e-10	-2.691501e+01	-6.221136e+01
9.400000e-07	-3.844899e-06	-9.042293e-10	-2.668313e+01	-6.203645e+01
9.500000e-07	-3.810988e-06	-9.029224e-10	-2.644780e+01	-6.185766e+01
9.600000e-07	-3.776500e-06	-8.977356e-10	-2.620846e+01	-6.167530e+01
9.700000e-07	-3.741592e-06	-8.867170e-10	-2.596620e+01	-6.148966e+01
9.800000e-07	-3.706321e-06	-8.846695e-10	-2.572142e+01	-6.130106e+01
9.900000e-07	-3.670790e-06	-8.853298e-10	-2.547484e+01	-6.110979e+01
1.000000e-06	-3.635151e-06	-8.839608e-10	-2.522751e+01	-6.091615e+01
1.010000e-06	-3.599387e-06	-8.838953e-10	-2.497931e+01	-6.072044e+01
1.020000e-06	-3.563526e-06	-8.868682e-10	-2.473044e+01	-6.052293e+01
1.030000e-06	-3.527585e-06	-8.800983e-10	-2.448101e+01	-6.032389e+01
1.040000e-06	-3.491384e-06	-8.706881e-10	-2.422978e+01	-6.012355e+01
1.050000e-06	-3.454807e-06	-8.663468e-10	-2.397594e+01	-5.992213e+01
1.060000e-06	-3.418017e-06	-8.621849e-10	-2.372063e+01	-5.971983e+01
1.070000e-06	-3.381012e-06	-8.547810e-10	-2.346381e+01	-5.951683e+01
1.080000e-06	-3.343704e-06	-8.553396e-10	-2.320490e+01	-5.931325e+01
1.090000e-06	-3.306123e-06	-8.562999e-10	-2.294410e+01	-5.910923e+01
1.100000e-06	-3.268313e-06	-8.529431e-10	-2.268170e+01	-5.890483e+01
1.110000e-06	-3.230309e-06	-8.483180e-10	-2.241796e+01	-5.870012e+01
1.120000e-06	-3.192083e-06	-8.485611e-10	-2.215267e+01	-5.849511e+01
1.130000e-06	-3.153633e-06	-8.455886e-10	-2.188584e+01	-5.828979e+01
1.140000e-06	-3.114939e-06	-8.406371e-10	-2.161730e+01	-5.808414e+01
1.150000e-06	-3.076107e-06	-8.373338e-10	-2.134781e+01	-5.787808e+01
1.160000e-06	-3.037149e-06	-8.338270e-10	-2.107744e+01	-5.767152e+01
1.170000e-06	-2.997966e-06	-8.267699e-10	-2.080552e+01	-5.746433e+01
1.180000e-06	-2.958542e-06	-8.237222e-10	-2.053192e+01	-5.725638e+01
1.190000e-06	-2.918927e-06	-8.245104e-10	-2.025700e+01	-5.704750e+01
1.200000e-06	-2.879252e-06	-8.230183e-10	-1.998166e+01	-5.683750e+01
1.210000e-06	-2.839474e-06	-8.194858e-10	-1.970561e+01	-5.662618e+01
1.220000e-06	-2.799494e-06	-8.157110e-10	-1.942815e+01	-5.641332e+01
1.230000e-06	-2.759330e-06	-8.115644e-10	-1.914942e+01	-5.619869e+01
1.240000e-06	-2.719062e-06	-8.088589e-10	-1.886996e+01	-5.598203e+01
1.250000e-06	-2.678601e-06	-8.089504e-10	-1.858917e+01	-5.576312e+01
1.260000e-06	-2.637865e-06	-8.077316e-10	-1.830646e+01	-5.554167e+01
1.270000e-06	-2.596845e-06	-8.069491e-10	-1.802179e+01	-5.531745e+01
1.280000e-06	-2.555533e-06	-8.059497e-10	-1.773509e+01	-5.509017e+01
1.290000e-06	-2.514039e-06	-8.028731e-10	-1.744712e+01	-5.485958e+01
1.300000e-06	-2.472211e-06	-7.965098e-10	-1.715685e+01	-5.462542e+01
1.310000e-06	-2.429951e-06	-7.880851e-10	-1.686357e+01	-5.438742e+01
1.320000e-06	-2.387411e-06	-7.804053e-10	-1.656834e+01	-5.414533e+01
1.330000e-06	-2.344678e-06	-7.782745e-10	-1.627178e+01	-5.389891e+01
1.340000e-06	-2.301787e-06	-7.782695e-10	-1.597413e+01	-5.364789e+01
1.350000e-06	-2.258671e-06	-7.774362e-10	-1.567491e+01	-5.339204e+01
1.360000e-06	-2.215282e-06	-7.735105e-10	-1.537379e+01	-5.313112e+01
1.370000e-06	-2.171657e-06	-7.665178e-10	-1.507104e+01	-5.286489e+01
1.380000e-06	-2.127892e-06	-7.565132e-10	-1.476731e+01	-5.259312e+01
1.390000e-06	-2.084082e-06	-7.449032e-10	-1.446328e+01	-5.231558e+01
1.400000e-06	-2.040278e-06	-7.356096e-10	-1.415928e+01	-5.203203e+01
1.410000e-06	-1.996413e-06	-7.300683e-10	-1.385487e+01	-5.174224e+01
1.420000e-06	-1.952469e-06	-7.295870e-10	-1.354990e+01	-5.144597e+01
1.430000e-06	-1.908442e-06	-7.315191e-10	-1.324435e+01	-5.114297e+01
1.440000e-06	-1.864287e-06	-7.324197e-10	-1.293793e+01	-5.083298e+01
1.450000e-06	-1.820026e-06	-7.287537e-10	-1.263076e+01	-5.051574e+01
1.460000e-06	-1.775667e-06	-7.198477e-10	-1.232291e+01	-5.019095e+01
1.470000e-06	-1.731168e-06	-7.081720e-10	-1.201410e+01	-4.985832e+01
1.480000e-06	-1.686547e-06	-6.947250e-10	-1.170443e+01	-4.951751e+01
1.490000e-06	-1.641795e-06	-6.855442e-10	-1.139386e+01	-4.916819e+01
1.500000e-06	-1.596938e-06	-6.797984e-10	-1.108256e+01	-4.880999e+01
1.510000e-06	-1.551953e-06	-6.776953e-10	-1.077037e+01	-4.844248e+01
1.520000e-06	-1.506808e-06	-6.769736e-10	-1.045706e+01	-4.806525e+01
1.530000e-06	-1.461490e-06	-6.745760e-10	-1.014257e+01	-4.767782e+01
1.540000e-06	-1.416000e-06	-6.680092e-10	-9.826871e+00	-4.727970e+01
1.550000e-06	-1.370475e-06	-6.575750e-10	-9.510934e+00	-4.687033e+01
1.560000e-06	-1.324871e-06	-6.442983e-10	-9.194444e+00	-4.644916e+01
1.570000e-06	-1.279195e-06	-6.306552e-10	-8.877455e+00	-4.601555e+01
1.580000e-06	-1.233580e-06	-6.201445e-10	-8.560893e+00	-4.556887e+01
1.590000e-06	-1.187892e-06	-6.154820e-10	-8.243829e+00	-4.510841e+01
1.600000e-06	-1.142065e-06	-6.140999e-10	-7.925790e+00	-4.463346e+01
1.610000e-06	-1.096125e-06	-6.127592e-10	-7.606976e+00	-4.414324e+01
1.620000e-06	-1.050067e-06	-6.089352e-10	-7.287335e+00	-4.363697e+01
1.630000e-06	-1.003943e-06	-6.028489e-10	-6.967246e+00	-4.311382e+01
1.640000e-06	-9.577696e-07	-5.944204e-10	-6.646805e+00	-4.257293e+01
1.650000e-06	-9.115469e-07	-5.825113e-10	-6.326025e+00	-4.201343e+01
1.660000e-06	-8.652672e-07	-5.690793e-10	-6.004850e+00	-4.143441e+01
1.670000e-06	-8.189175e-07	-5.558332e-10	-5.683188e+00	-4.083498e+01
1.680000e-06	-7.725093e-07	-5.439763e-10	-5.361121e+00	-4.021421e+01
1.690000e-06	-7.261033e-07	-5.333648e-10	-5.039069e+00	-3.957116e+01
1.700000e-06	-6.796348e-07	-5.256128e-10	-4.716583e+00	-3.890493e+01
1.710000e-06	-6.330709e-07	-5.174184e-10	-4.393436e+00	-3.821459e+01
1.720000e-06	-5.864712e-07	-5.087397e-10	-4.070039e+00	-3.749926e+01
1.730000e-06	-5.397747e-07	-4.992270e-10	-3.745971e+00	-3.675805e+01
1.740000e-06	-4.930744e-07	-4.868194e-10	-3.421876e+00	-3.599012e+01
1.750000e-06	-4.464480e-07	-4.721460e-10	-3.098295e+00	-3.519467e+01
1.760000e-06	-3.997464e-07	-4.584161e-10	-2.774192e+00	-3.437094e+01
1.770000e-06	-3.529347e-07	-4.467678e-10	-2.449324e+00	-3.351821e+01
1.780000e-06	-3.060216e-07	-4.357942e-10	-2.123753e+00	-3.263585e+01
1.790000e-06	-2.591405e-07	-4.242596e-10	-1.798403e+00	-3.172328e+01
1.800000e-06	-2.123382e-07	-4.121633e-10	-1.473602e+00	-3.077998e+01
1.810000e-06	-1.654841e-07	-3.982314e-10	-1.148440e+00	-2.980555e+01
1.820000e-06	-1.186484e-07	-3.826325e-10	-8.234057e-01	-2.879965e+01
1.830000e-06	-7.184298e-08	-3.668853e-10	-4.985816e-01	-2.776205e+01
1.840000e-06	-2.495780e-08	-3.526029e-10	-1.732041e-01	-2.669260e+01
1.850000e-06	2.191648e-08	-3.380471e-10	1.520978e-01	-2.559127e+01
1.860000e-06	6.870449e-08	-3.214940e-10	4.768009e-01	-2.445815e+01
1.870000e-06	1.155202e-07	-3.029798e-10	8.016966e-01	-2.329342e+01
1.880000e-06	1.623832e-07	-2.845812e-10	1.126920e+00	-2.209740e+01
1.890000e-06	2.091899e-07	-2.683581e-10	1.451753e+00	-2.087051e+01
1.900000e-06	2.559951e-07	-2.522982e-10	1.776575e+00	-1.961331e+01
1.910000e-06	3.027579e-07	-2.364245e-10	2.101103e+00	-1.832646e+01
1.920000e-06	3.494663e-07	-2.216555e-10	2.425254e+00	-1.701075e+01
1.930000e-06	3.962571e-07	-2.067601e-10	2.749976e+00	-1.566711e+01
1.940000e-06	4.430064e-07	-1.884503e-10	3.074411e+00	-1.429655e+01
1.950000e-06	4.896915e-07	-1.655366e-10	3.398399e+00	-1.290024e+01
1.960000e-06	5.363108e-07	-1.432467e-10	3.721932e+00	-1.147941e+01
1.970000e-06	5.828633e-07	-1.233595e-10	4.045001e+00	-1.003545e+01
1.980000e-06	6.293908e-07	-1.045287e-10	4.367896e+00	-8.569827e+00
1.990000e-06	6.758489e-07	-8.510032e-11	4.690310e+00	-7.084099e+00
2.000000e-06	7.222837e-07	-6.349444e-11	5.012561e+00	-5.579928e+00
2.010000e-06	7.687233e-07	-3.926917e-11	5.334847e+00	-4.059054e+00
2.020000e-06	8.150980e-07	-1.377800e-11	5.656682e+00	-2.523292e+00
2.030000e-06	8.614095e-07	9.572930e-12	5.978078e+00	-9.745231e-01
2.040000e-06	9.076277e-07	2.889330e-11	6.298826e+00	5.853120e-01
2.050000e-06	9.537731e-07	4.671769e-11	6.619070e+00	2.154226e+00
2.060000e-06	9.998966e-07	6.605051e-11	6.939162e+00	3.730192e+00
2.070000e-06	1.045949e-06	8.639070e-11	7.258758e+00	5.311156e+00
2.080000e-06	1.091922e-06	1.086671e-10	7.577810e+00	6.895042e+00
2.090000e-06	1.137845e-06	1.330880e-10	7.896506e+00	8.479771e+00
2.100000e-06	1.183724e-06	1.588495e-10	8.214899e+00	1.006326e+01
2.110000e-06	1.229460e-06	1.829441e-10	8.532306e+00	1.164345e+01
2.120000e-06	1.275054e-06	2.047995e-10	8.848718e+00	1.321828e+01
2.130000e-06	1.320551e-06	2.246151e-10	9.164467e+00	1.478575e+01
2.140000e-06	1.365971e-06	2.422968e-10	9.479675e+00	1.634388e+01
2.150000e-06	1.411358e-06	2.608375e-10	9.794652e+00	1.789076e+01
2.160000e-06	1.456660e-06	2.832851e-10	1.010905e+01	1.942452e+01
2.170000e-06	1.501827e-06	3.083753e-10	1.042250e+01	2.094337e+01
2.180000e-06	1.546878e-06	3.329955e-10	1.073514e+01	2.244559e+01
2.190000e-06	1.591809e-06	3.562778e-10	1.104696e+01	2.392955e+01
2.200000e-06	1.636593e-06	3.772969e-10	1.135776e+01	2.539369e+01
2.210000e-06	1.681208e-06	3.936464e-10	1.166738e+01	2.683656e+01
2.220000e-06	1.725664e-06	4.075726e-10	1.197590e+01	2.825682e+01
2.230000e-06	1.770065e-06	4.229535e-10	1.228404e+01	2.965320e+01
2.240000e-06	1.814416e-06	4.394435e-10	1.259183e+01	3.102457e+01
2.250000e-06	1.858714e-06	4.567061e-10	1.289925e+01	3.236989e+01
2.260000e-06	1.902913e-06	4.775073e-10	1.320599e+01	3.368823e+01
2.270000e-06	1.946976e-06	5.012236e-10	1.351178e+01	3.497878e+01
2.280000e-06	1.990918e-06	5.231024e-10	1.381673e+01	3.624083e+01
2.290000e-06	2.034755e-06	5.413245e-10	1.412095e+01	3.747380e+01
2.300000e-06	2.078589e-06	5.565379e-10	1.442516e+01	3.867720e+01
2.310000e-06	2.122345e-06	5.694136e-10	1.472882e+01	3.985066e+01
2.320000e-06	2.165961e-06	5.819442e-10	1.503151e+01	4.099390e+01
2.330000e-06	2.209418e-06	5.957367e-10	1.533309e+01	4.210675e+01
2.340000e-06	2.252715e-06	6.096317e-10	1.563357e+01	4.318914e+01
2.350000e-06	2.295881e-06	6.241084e-10	1.593314e+01	4.424109e+01
2.360000e-06	2.338823e-06	6.397846e-10	1.623115e+01	4.526270e+01
2.370000e-06	2.381537e-06	6.544278e-10	1.652758e+01	4.625416e+01
2.380000e-06	2.424031e-06	6.661979e-10	1.682248e+01	4.721573e+01
2.390000e-06	2.466322e-06	6.764703e-10	1.711597e+01	4.814774e+01
2.400000e-06	2.508357e-06	6.854340e-10	1.740770e+01	4.905059e+01
2.410000e-06	2.550004e-06	6.955895e-10	1.769672e+01	4.992473e+01
2.420000e-06	2.591395e-06	7.094549e-10	1.798397e+01	5.077067e+01
2.430000e-06	2.632515e-06	7.237557e-10	1.826934e+01	5.158894e+01
2.440000e-06	2.673229e-06	7.363423e-10	1.855188e+01	5.238014e+01
2.450000e-06	2.713730e-06	7.476021e-10	1.883296e+01	5.314488e+01
2.460000e-06	2.754072e-06	7.570254e-10	1.911293e+01	5.388381e+01
2.470000e-06	2.794187e-06	7.658824e-10	1.939132e+01	5.459757e+01
2.480000e-06	2.834135e-06	7.765862e-10	1.966855e+01	5.528686e+01
2.490000e-06	2.873948e-06	7.876771e-10	1.994485e+01	5.595235e+01
2.500000e-06	2.913676e-06	7.975904e-10	2.022056e+01	5.659473e+01
2.510000e-06	2.953252e-06	8.057809e-10	2.049521e+01	5.721468e+01
2.520000e-06	2.992644e-06	8.128288e-10	2.076859e+01	5.781289e+01
2.530000e-06	3.031905e-06	8.194847e-10	2.104105e+01	5.839002e+01
2.540000e-06	3.070997e-06	8.254930e-10	2.131235e+01	5.894673e+01
2.550000e-06	3.109848e-06	8.310071e-10	2.158197e+01	5.948368e+01
2.560000e-06	3.148412e-06	8.364916e-10	2.184960e+01	6.000148e+01
2.570000e-06	3.186743e-06	8.441719e-10	2.211561e+01	6.050075e+01
2.580000e-06	3.224947e-06	8.527532e-10	2.238074e+01	6.098207e+01
2.590000e-06	3.262972e-06	8.603540e-10	2.264463e+01	6.144601e+01
2.600000e-06	3.300736e-06	8.683530e-10	2.290671e+01	6.189311e+01
2.610000e-06	3.338263e-06	8.756401e-10	2.316714e+01	6.232391e+01
2.620000e-06	3.375514e-06	8.813112e-10	2.342566e+01	6.273890e+01
2.630000e-06	3.412468e-06	8.859392e-10	2.368211e+01	6.313856e+01
2.640000e-06	3.449150e-06	8.907866e-10	2.393668e+01	6.352335e+01
2.650000e-06	3.485599e-06	8.961791e-10	2.418964e+01	6.389373e+01
2.660000e-06	3.521809e-06	9.020547e-10	2.444093e+01	6.425011e+01
2.670000e-06	3.557806e-06	9.084680e-10	2.469074e+01	6.459292e+01
2.680000e-06	3.593672e-06	9.147363e-10	2.493965e+01	6.492253e+01
2.690000e-06	3.629462e-06	9.213890e-10	2.518802e+01	6.523935e+01
2.700000e-06	3.665135e-06	9.271290e-10	2.543559e+01	6.554375e+01
2.710000e-06	3.700627e-06	9.313735e-10	2.568191e+01	6.583610e+01
2.720000e-06	3.735897e-06	9.362365e-10	2.592667e+01	6.611676e+01
2.730000e-06	3.770778e-06	9.419700e-10	2.616875e+01	6.638609e+01
2.740000e-06	3.805287e-06	9.467554e-10	2.640823e+01	6.664445e+01
2.750000e-06	3.839386e-06	9.510810e-10	2.664488e+01	6.689219e+01
2.760000e-06	3.873014e-06	9.557202e-10	2.687825e+01	6.712967e+01
2.770000e-06	3.906219e-06	9.595928e-10	2.710869e+01	6.735726e+01
2.780000e-06	3.938993e-06	9.640519e-10	2.733613e+01	6.757531e+01
2.790000e-06	3.971441e-06	9.704716e-10	2.756132e+01	6.778419e+01
2.800000e-06	4.003625e-06	9.759325e-10	2.778467e+01	6.798427e+01
2.810000e-06	4.035605e-06	9.785625e-10	2.800661e+01	6.817593e+01
2.820000e-06	4.067366e-06	9.798386e-10	2.822703e+01	6.835954e+01
2.830000e-06	4.098906e-06	9.809661e-10	2.844591e+01	6.853548e+01
2.840000e-06	4.130219e-06	9.817618e-10	2.866322e+01	6.870415e+01
2.850000e-06	4.161224e-06	9.835279e-10	2.887839e+01	6.886593e+01
2.860000e-06	4.191948e-06	9.876216e-10	2.909161e+01	6.902121e+01
2.870000e-06	4.222423e-06	9.937021e-10	2.930311e+01	6.917037e+01
2.880000e-06	4.252663e-06	1.000490e-09	2.951297e+01	6.931382e+01
2.890000e-06	4.282581e-06	1.007193e-09	2.972060e+01	6.945192e+01
2.900000e-06	4.312191e-06	1.013560e-09	2.992608e+01	6.958507e+01
