# Temperatura_=_8.29
# Concentracion g/m^3_=_1620.0
# C_Vs_to_Am_M_A/Vsm_=_65563218390.804596
# pendiente_HvsI_1/m_=_3716.3
# ordenada_HvsI_A/m_=_1297.0
# frecuencia_Hz_=_135104.0561698641

Tiempo_(s)	Campo_(V.s)	Magnetizacion_(V.s)	Campo_(kA/m)	Magnetizacion_(A/m)
0.000000e+00	-5.516550e-06	-1.297085e-09	-3.837950e+01	-8.746214e+01
1.000000e-08	-5.516723e-06	-1.295563e-09	-3.838070e+01	-8.745372e+01
2.000000e-08	-5.516640e-06	-1.294713e-09	-3.838013e+01	-8.744781e+01
3.000000e-08	-5.516202e-06	-1.294946e-09	-3.837708e+01	-8.744422e+01
4.000000e-08	-5.515166e-06	-1.295286e-09	-3.836987e+01	-8.744271e+01
5.000000e-08	-5.513508e-06	-1.293580e-09	-3.835834e+01	-8.744299e+01
6.000000e-08	-5.511267e-06	-1.288782e-09	-3.834275e+01	-8.744477e+01
7.000000e-08	-5.508453e-06	-1.297515e-09	-3.832317e+01	-8.744770e+01
8.000000e-08	-5.505160e-06	-1.306425e-09	-3.830026e+01	-8.745141e+01
9.000000e-08	-5.501361e-06	-1.283923e-09	-3.827383e+01	-8.745551e+01
1.000000e-07	-5.497176e-06	-1.273075e-09	-3.824472e+01	-8.745960e+01
1.100000e-07	-5.492739e-06	-1.324888e-09	-3.821385e+01	-8.746323e+01
1.200000e-07	-5.488083e-06	-1.292414e-09	-3.818145e+01	-8.746599e+01
1.300000e-07	-5.483132e-06	-1.249952e-09	-3.814701e+01	-8.746743e+01
1.400000e-07	-5.477777e-06	-1.242946e-09	-3.810976e+01	-8.746710e+01
1.500000e-07	-5.472020e-06	-1.308970e-09	-3.806970e+01	-8.746456e+01
1.600000e-07	-5.465875e-06	-1.316649e-09	-3.802695e+01	-8.745939e+01
1.700000e-07	-5.459386e-06	-1.238347e-09	-3.798180e+01	-8.745116e+01
1.800000e-07	-5.452434e-06	-1.270329e-09	-3.793344e+01	-8.743947e+01
1.900000e-07	-5.445087e-06	-1.352754e-09	-3.788232e+01	-8.742393e+01
2.000000e-07	-5.437513e-06	-1.358141e-09	-3.782963e+01	-8.740419e+01
2.100000e-07	-5.429702e-06	-1.280417e-09	-3.777529e+01	-8.737990e+01
2.200000e-07	-5.421700e-06	-1.280111e-09	-3.771962e+01	-8.735075e+01
2.300000e-07	-5.413370e-06	-1.324378e-09	-3.766166e+01	-8.731649e+01
2.400000e-07	-5.404437e-06	-1.340012e-09	-3.759952e+01	-8.727685e+01
2.500000e-07	-5.394845e-06	-1.307403e-09	-3.753278e+01	-8.723164e+01
2.600000e-07	-5.384523e-06	-1.307714e-09	-3.746097e+01	-8.718068e+01
2.700000e-07	-5.373538e-06	-1.317236e-09	-3.738455e+01	-8.712385e+01
2.800000e-07	-5.362165e-06	-1.322933e-09	-3.730543e+01	-8.706105e+01
2.900000e-07	-5.350501e-06	-1.305828e-09	-3.722428e+01	-8.699221e+01
3.000000e-07	-5.338481e-06	-1.296965e-09	-3.714065e+01	-8.691732e+01
3.100000e-07	-5.326024e-06	-1.305265e-09	-3.705398e+01	-8.683640e+01
3.200000e-07	-5.313177e-06	-1.332888e-09	-3.696461e+01	-8.674948e+01
3.300000e-07	-5.299976e-06	-1.324577e-09	-3.687276e+01	-8.665667e+01
3.400000e-07	-5.286381e-06	-1.299457e-09	-3.677818e+01	-8.655806e+01
3.500000e-07	-5.272393e-06	-1.321011e-09	-3.668087e+01	-8.645380e+01
3.600000e-07	-5.257937e-06	-1.341268e-09	-3.658029e+01	-8.634405e+01
3.700000e-07	-5.243013e-06	-1.292755e-09	-3.647646e+01	-8.622902e+01
3.800000e-07	-5.227553e-06	-1.276911e-09	-3.636891e+01	-8.610890e+01
3.900000e-07	-5.211547e-06	-1.327748e-09	-3.625755e+01	-8.598394e+01
4.000000e-07	-5.195135e-06	-1.301282e-09	-3.614337e+01	-8.585436e+01
4.100000e-07	-5.178303e-06	-1.253287e-09	-3.602627e+01	-8.572043e+01
4.200000e-07	-5.161162e-06	-1.304987e-09	-3.590701e+01	-8.558239e+01
4.300000e-07	-5.143803e-06	-1.328373e-09	-3.578625e+01	-8.544052e+01
4.400000e-07	-5.126103e-06	-1.237578e-09	-3.566310e+01	-8.529508e+01
4.500000e-07	-5.108011e-06	-1.252474e-09	-3.553723e+01	-8.514633e+01
4.600000e-07	-5.089495e-06	-1.322657e-09	-3.540841e+01	-8.499452e+01
4.700000e-07	-5.070522e-06	-1.254309e-09	-3.527641e+01	-8.483990e+01
4.800000e-07	-5.051203e-06	-1.205680e-09	-3.514202e+01	-8.468270e+01
4.900000e-07	-5.031632e-06	-1.299656e-09	-3.500586e+01	-8.452315e+01
5.000000e-07	-5.011859e-06	-1.288579e-09	-3.486829e+01	-8.436144e+01
5.100000e-07	-4.991874e-06	-1.207654e-09	-3.472925e+01	-8.419778e+01
5.200000e-07	-4.971576e-06	-1.266513e-09	-3.458804e+01	-8.403231e+01
5.300000e-07	-4.950912e-06	-1.305263e-09	-3.444427e+01	-8.386520e+01
5.400000e-07	-4.929928e-06	-1.206836e-09	-3.429828e+01	-8.369656e+01
5.500000e-07	-4.908596e-06	-1.217581e-09	-3.414987e+01	-8.352650e+01
5.600000e-07	-4.886799e-06	-1.291563e-09	-3.399823e+01	-8.335510e+01
5.700000e-07	-4.864585e-06	-1.226289e-09	-3.384368e+01	-8.318241e+01
5.800000e-07	-4.842107e-06	-1.187033e-09	-3.368730e+01	-8.300848e+01
5.900000e-07	-4.819361e-06	-1.265819e-09	-3.352905e+01	-8.283332e+01
6.000000e-07	-4.796284e-06	-1.248356e-09	-3.336850e+01	-8.265692e+01
6.100000e-07	-4.772883e-06	-1.184892e-09	-3.320569e+01	-8.247925e+01
6.200000e-07	-4.749251e-06	-1.231403e-09	-3.304128e+01	-8.230028e+01
6.300000e-07	-4.725459e-06	-1.250189e-09	-3.287576e+01	-8.211994e+01
6.400000e-07	-4.701436e-06	-1.193090e-09	-3.270863e+01	-8.193815e+01
6.500000e-07	-4.677004e-06	-1.207179e-09	-3.253865e+01	-8.175484e+01
6.600000e-07	-4.652007e-06	-1.240978e-09	-3.236474e+01	-8.156989e+01
6.700000e-07	-4.626369e-06	-1.203195e-09	-3.218638e+01	-8.138321e+01
6.800000e-07	-4.600258e-06	-1.196686e-09	-3.200472e+01	-8.119468e+01
6.900000e-07	-4.573750e-06	-1.228752e-09	-3.182029e+01	-8.100418e+01
7.000000e-07	-4.546779e-06	-1.208296e-09	-3.163266e+01	-8.081159e+01
7.100000e-07	-4.519402e-06	-1.178582e-09	-3.144219e+01	-8.061680e+01
7.200000e-07	-4.491792e-06	-1.194633e-09	-3.125010e+01	-8.041968e+01
7.300000e-07	-4.464079e-06	-1.189787e-09	-3.105730e+01	-8.022012e+01
7.400000e-07	-4.436210e-06	-1.167450e-09	-3.086341e+01	-8.001801e+01
7.500000e-07	-4.408079e-06	-1.177377e-09	-3.066770e+01	-7.981325e+01
7.600000e-07	-4.379693e-06	-1.190091e-09	-3.047021e+01	-7.960574e+01
7.700000e-07	-4.350989e-06	-1.173853e-09	-3.027052e+01	-7.939541e+01
7.800000e-07	-4.321825e-06	-1.171020e-09	-3.006762e+01	-7.918217e+01
7.900000e-07	-4.292311e-06	-1.177088e-09	-2.986228e+01	-7.896596e+01
8.000000e-07	-4.262588e-06	-1.166457e-09	-2.965549e+01	-7.874674e+01
8.100000e-07	-4.232661e-06	-1.157305e-09	-2.944729e+01	-7.852445e+01
8.200000e-07	-4.202534e-06	-1.166668e-09	-2.923769e+01	-7.829908e+01
8.300000e-07	-4.172043e-06	-1.163892e-09	-2.902556e+01	-7.807059e+01
8.400000e-07	-4.141116e-06	-1.155657e-09	-2.881040e+01	-7.783899e+01
8.500000e-07	-4.109895e-06	-1.161480e-09	-2.859319e+01	-7.760428e+01
8.600000e-07	-4.078508e-06	-1.159837e-09	-2.837482e+01	-7.736646e+01
8.700000e-07	-4.047030e-06	-1.142808e-09	-2.815582e+01	-7.712555e+01
8.800000e-07	-4.015364e-06	-1.141491e-09	-2.793552e+01	-7.688158e+01
8.900000e-07	-3.983534e-06	-1.142888e-09	-2.771407e+01	-7.663458e+01
9.000000e-07	-3.951540e-06	-1.130131e-09	-2.749149e+01	-7.638457e+01
9.100000e-07	-3.919227e-06	-1.126177e-09	-2.726668e+01	-7.613158e+01
9.200000e-07	-3.886516e-06	-1.130206e-09	-2.703910e+01	-7.587565e+01
9.300000e-07	-3.853375e-06	-1.120649e-09	-2.680853e+01	-7.561681e+01
9.400000e-07	-3.819763e-06	-1.112427e-09	-2.657469e+01	-7.535508e+01
9.500000e-07	-3.785664e-06	-1.116189e-09	-2.633746e+01	-7.509048e+01
9.600000e-07	-3.751048e-06	-1.108300e-09	-2.609663e+01	-7.482303e+01
9.700000e-07	-3.716025e-06	-1.093303e-09	-2.585297e+01	-7.455271e+01
9.800000e-07	-3.680702e-06	-1.092311e-09	-2.560722e+01	-7.427953e+01
9.900000e-07	-3.645200e-06	-1.092208e-09	-2.536023e+01	-7.400347e+01
1.000000e-06	-3.609592e-06	-1.080182e-09	-2.511250e+01	-7.372449e+01
1.010000e-06	-3.573832e-06	-1.076466e-09	-2.486371e+01	-7.344254e+01
1.020000e-06	-3.537947e-06	-1.078071e-09	-2.461406e+01	-7.315757e+01
1.030000e-06	-3.501929e-06	-1.070861e-09	-2.436347e+01	-7.286951e+01
1.040000e-06	-3.465737e-06	-1.062279e-09	-2.411168e+01	-7.257826e+01
1.050000e-06	-3.429293e-06	-1.063115e-09	-2.385813e+01	-7.228371e+01
1.060000e-06	-3.392496e-06	-1.056625e-09	-2.360213e+01	-7.198576e+01
1.070000e-06	-3.355368e-06	-1.046727e-09	-2.334382e+01	-7.168427e+01
1.080000e-06	-3.318037e-06	-1.045222e-09	-2.308410e+01	-7.137909e+01
1.090000e-06	-3.280499e-06	-1.044103e-09	-2.282295e+01	-7.107008e+01
1.100000e-06	-3.242735e-06	-1.034831e-09	-2.256022e+01	-7.075706e+01
1.110000e-06	-3.204758e-06	-1.031568e-09	-2.229600e+01	-7.043987e+01
1.120000e-06	-3.166592e-06	-1.033621e-09	-2.203048e+01	-7.011832e+01
1.130000e-06	-3.128203e-06	-1.027031e-09	-2.176340e+01	-6.979222e+01
1.140000e-06	-3.089489e-06	-1.018885e-09	-2.149406e+01	-6.946140e+01
1.150000e-06	-3.050610e-06	-1.017204e-09	-2.122357e+01	-6.912566e+01
1.160000e-06	-3.011599e-06	-1.010106e-09	-2.095217e+01	-6.878482e+01
1.170000e-06	-2.972370e-06	-9.981306e-10	-2.067925e+01	-6.843869e+01
1.180000e-06	-2.932963e-06	-9.908803e-10	-2.040508e+01	-6.808710e+01
1.190000e-06	-2.893385e-06	-9.852837e-10	-2.012973e+01	-6.772989e+01
1.200000e-06	-2.853705e-06	-9.744081e-10	-1.985367e+01	-6.736689e+01
1.210000e-06	-2.813891e-06	-9.658174e-10	-1.957668e+01	-6.699796e+01
1.220000e-06	-2.773904e-06	-9.638254e-10	-1.929849e+01	-6.662296e+01
1.230000e-06	-2.733833e-06	-9.585193e-10	-1.901971e+01	-6.624180e+01
1.240000e-06	-2.693608e-06	-9.535886e-10	-1.873985e+01	-6.585436e+01
1.250000e-06	-2.653083e-06	-9.512445e-10	-1.845792e+01	-6.546056e+01
1.260000e-06	-2.612319e-06	-9.459703e-10	-1.817431e+01	-6.506035e+01
1.270000e-06	-2.571304e-06	-9.365998e-10	-1.788896e+01	-6.465368e+01
1.280000e-06	-2.530008e-06	-9.285900e-10	-1.760166e+01	-6.424053e+01
1.290000e-06	-2.488351e-06	-9.232987e-10	-1.731185e+01	-6.382089e+01
1.300000e-06	-2.446416e-06	-9.156483e-10	-1.702010e+01	-6.339477e+01
1.310000e-06	-2.404259e-06	-9.075906e-10	-1.672680e+01	-6.296220e+01
1.320000e-06	-2.361705e-06	-9.033073e-10	-1.643075e+01	-6.252323e+01
1.330000e-06	-2.318899e-06	-8.967214e-10	-1.613294e+01	-6.207791e+01
1.340000e-06	-2.275841e-06	-8.881861e-10	-1.583338e+01	-6.162629e+01
1.350000e-06	-2.232570e-06	-8.802304e-10	-1.553234e+01	-6.116847e+01
1.360000e-06	-2.189195e-06	-8.706191e-10	-1.523057e+01	-6.070451e+01
1.370000e-06	-2.145690e-06	-8.601042e-10	-1.492790e+01	-6.023448e+01
1.380000e-06	-2.102074e-06	-8.520696e-10	-1.462446e+01	-5.975848e+01
1.390000e-06	-2.058373e-06	-8.458613e-10	-1.432043e+01	-5.927655e+01
1.400000e-06	-2.014590e-06	-8.405809e-10	-1.401582e+01	-5.878875e+01
1.410000e-06	-1.970761e-06	-8.362724e-10	-1.371089e+01	-5.829513e+01
1.420000e-06	-1.926878e-06	-8.336402e-10	-1.340559e+01	-5.779570e+01
1.430000e-06	-1.882916e-06	-8.280116e-10	-1.309974e+01	-5.729045e+01
1.440000e-06	-1.838872e-06	-8.197842e-10	-1.279332e+01	-5.677934e+01
1.450000e-06	-1.794693e-06	-8.113232e-10	-1.248596e+01	-5.626230e+01
1.460000e-06	-1.750416e-06	-8.015227e-10	-1.217792e+01	-5.573921e+01
1.470000e-06	-1.705996e-06	-7.900239e-10	-1.186888e+01	-5.520992e+01
1.480000e-06	-1.661421e-06	-7.810780e-10	-1.155877e+01	-5.467422e+01
1.490000e-06	-1.616685e-06	-7.738468e-10	-1.124753e+01	-5.413185e+01
1.500000e-06	-1.571751e-06	-7.661353e-10	-1.093491e+01	-5.358250e+01
1.510000e-06	-1.526657e-06	-7.588452e-10	-1.062119e+01	-5.302580e+01
1.520000e-06	-1.481438e-06	-7.514833e-10	-1.030660e+01	-5.246131e+01
1.530000e-06	-1.436177e-06	-7.419840e-10	-9.991711e+00	-5.188853e+01
1.540000e-06	-1.390875e-06	-7.314594e-10	-9.676537e+00	-5.130691e+01
1.550000e-06	-1.345490e-06	-7.224973e-10	-9.360782e+00	-5.071582e+01
1.560000e-06	-1.300006e-06	-7.118142e-10	-9.044348e+00	-5.011457e+01
1.570000e-06	-1.254371e-06	-7.004817e-10	-8.726855e+00	-4.950240e+01
1.580000e-06	-1.208663e-06	-6.899160e-10	-8.408858e+00	-4.887849e+01
1.590000e-06	-1.162939e-06	-6.807718e-10	-8.090749e+00	-4.824197e+01
1.600000e-06	-1.117158e-06	-6.719709e-10	-7.772241e+00	-4.759188e+01
1.610000e-06	-1.071338e-06	-6.607306e-10	-7.453463e+00	-4.692724e+01
1.620000e-06	-1.025430e-06	-6.478365e-10	-7.134080e+00	-4.624700e+01
1.630000e-06	-9.794343e-07	-6.355098e-10	-6.814078e+00	-4.555007e+01
1.640000e-06	-9.334212e-07	-6.229707e-10	-6.493958e+00	-4.483533e+01
1.650000e-06	-8.873133e-07	-6.103211e-10	-6.173178e+00	-4.410160e+01
1.660000e-06	-8.411041e-07	-5.961749e-10	-5.851693e+00	-4.334771e+01
1.670000e-06	-7.948517e-07	-5.812037e-10	-5.529908e+00	-4.257245e+01
1.680000e-06	-7.485753e-07	-5.646246e-10	-5.207956e+00	-4.177460e+01
1.690000e-06	-7.023501e-07	-5.500517e-10	-4.886360e+00	-4.095296e+01
1.700000e-06	-6.560513e-07	-5.376614e-10	-4.564252e+00	-4.010631e+01
1.710000e-06	-6.095530e-07	-5.276768e-10	-4.240756e+00	-3.923348e+01
1.720000e-06	-5.630190e-07	-5.192719e-10	-3.917011e+00	-3.833330e+01
1.730000e-06	-5.164656e-07	-5.086843e-10	-3.593132e+00	-3.740466e+01
1.740000e-06	-4.698227e-07	-4.940824e-10	-3.268630e+00	-3.644650e+01
1.750000e-06	-4.231207e-07	-4.757941e-10	-2.943717e+00	-3.545781e+01
1.760000e-06	-3.763919e-07	-4.559627e-10	-2.618617e+00	-3.443764e+01
1.770000e-06	-3.296051e-07	-4.380855e-10	-2.293114e+00	-3.338516e+01
1.780000e-06	-2.827772e-07	-4.230937e-10	-1.967325e+00	-3.229958e+01
1.790000e-06	-2.359687e-07	-4.106912e-10	-1.641671e+00	-3.118026e+01
1.800000e-06	-1.892015e-07	-3.976990e-10	-1.316305e+00	-3.002662e+01
1.810000e-06	-1.424637e-07	-3.788338e-10	-9.911423e-01	-2.883824e+01
1.820000e-06	-9.571876e-08	-3.579733e-10	-6.659305e-01	-2.761480e+01
1.830000e-06	-4.901011e-08	-3.374775e-10	-3.409710e-01	-2.635612e+01
1.840000e-06	-2.276088e-09	-3.177641e-10	-1.583510e-02	-2.506215e+01
1.850000e-06	4.450280e-08	-2.983632e-10	3.096130e-01	-2.373300e+01
1.860000e-06	9.124013e-08	-2.795469e-10	6.347719e-01	-2.236891e+01
1.870000e-06	1.378955e-07	-2.610547e-10	9.593607e-01	-2.097029e+01
1.880000e-06	1.845737e-07	-2.429974e-10	1.284108e+00	-1.953769e+01
1.890000e-06	2.312922e-07	-2.255422e-10	1.609136e+00	-1.807183e+01
1.900000e-06	2.780228e-07	-2.058174e-10	1.934249e+00	-1.657356e+01
1.910000e-06	3.247491e-07	-1.831237e-10	2.259331e+00	-1.504391e+01
1.920000e-06	3.714027e-07	-1.609053e-10	2.583907e+00	-1.348404e+01
1.930000e-06	4.180078e-07	-1.374598e-10	2.908146e+00	-1.189529e+01
1.940000e-06	4.645483e-07	-1.126187e-10	3.231936e+00	-1.027911e+01
1.950000e-06	5.110700e-07	-8.859451e-11	3.555595e+00	-8.637110e+00
1.960000e-06	5.575675e-07	-6.942487e-11	3.879085e+00	-6.971029e+00
1.970000e-06	6.040159e-07	-5.044908e-11	4.202233e+00	-5.282726e+00
1.980000e-06	6.504499e-07	-3.018873e-11	4.525282e+00	-3.574179e+00
1.990000e-06	6.968717e-07	-6.488966e-12	4.848246e+00	-1.847474e+00
2.000000e-06	7.432384e-07	2.262416e-11	5.170826e+00	-1.047891e-01
2.010000e-06	7.894800e-07	5.350231e-11	5.492536e+00	1.651609e+00
2.020000e-06	8.356489e-07	8.081446e-11	5.813740e+00	3.419384e+00
2.030000e-06	8.817929e-07	1.024980e-10	6.134771e+00	5.196135e+00
2.040000e-06	9.279171e-07	1.193858e-10	6.455665e+00	6.979417e+00
2.050000e-06	9.740425e-07	1.365303e-10	6.776567e+00	8.766748e+00
2.060000e-06	1.020089e-06	1.586094e-10	7.096917e+00	1.055563e+01
2.070000e-06	1.066051e-06	1.839678e-10	7.416686e+00	1.234355e+01
2.080000e-06	1.111868e-06	2.136915e-10	7.735438e+00	1.412801e+01
2.090000e-06	1.157569e-06	2.459196e-10	8.053389e+00	1.590653e+01
2.100000e-06	1.203263e-06	2.757857e-10	8.371286e+00	1.767666e+01
2.110000e-06	1.248782e-06	2.997856e-10	8.687974e+00	1.943601e+01
2.120000e-06	1.294164e-06	3.196790e-10	9.003701e+00	2.118223e+01
2.130000e-06	1.339527e-06	3.370840e-10	9.319300e+00	2.291306e+01
2.140000e-06	1.384768e-06	3.540473e-10	9.634051e+00	2.462631e+01
2.150000e-06	1.429963e-06	3.744176e-10	9.948480e+00	2.631990e+01
2.160000e-06	1.475167e-06	4.005395e-10	1.026297e+01	2.799186e+01
2.170000e-06	1.520255e-06	4.282878e-10	1.057666e+01	2.964031e+01
2.180000e-06	1.565168e-06	4.542000e-10	1.088912e+01	3.126351e+01
2.190000e-06	1.609929e-06	4.765180e-10	1.120053e+01	3.285985e+01
2.200000e-06	1.654615e-06	4.940927e-10	1.151142e+01	3.442786e+01
2.210000e-06	1.699142e-06	5.073829e-10	1.182120e+01	3.596620e+01
2.220000e-06	1.743446e-06	5.213905e-10	1.212942e+01	3.747370e+01
2.230000e-06	1.787621e-06	5.391932e-10	1.243676e+01	3.894931e+01
2.240000e-06	1.831737e-06	5.597154e-10	1.274368e+01	4.039215e+01
2.250000e-06	1.875767e-06	5.821885e-10	1.305000e+01	4.180149e+01
2.260000e-06	1.919684e-06	6.067246e-10	1.335554e+01	4.317675e+01
2.270000e-06	1.963537e-06	6.288701e-10	1.366064e+01	4.451749e+01
2.280000e-06	2.007321e-06	6.484741e-10	1.396525e+01	4.582345e+01
2.290000e-06	2.051007e-06	6.658808e-10	1.426918e+01	4.709446e+01
2.300000e-06	2.094655e-06	6.788758e-10	1.457284e+01	4.833054e+01
2.310000e-06	2.138277e-06	6.905217e-10	1.487633e+01	4.953180e+01
2.320000e-06	2.181863e-06	7.042805e-10	1.517956e+01	5.069852e+01
2.330000e-06	2.225307e-06	7.195197e-10	1.548181e+01	5.183106e+01
2.340000e-06	2.268535e-06	7.354295e-10	1.578256e+01	5.292990e+01
2.350000e-06	2.311666e-06	7.519783e-10	1.608263e+01	5.399564e+01
2.360000e-06	2.354594e-06	7.680431e-10	1.638128e+01	5.502895e+01
2.370000e-06	2.397167e-06	7.781939e-10	1.667747e+01	5.603060e+01
2.380000e-06	2.439388e-06	7.882239e-10	1.697120e+01	5.700141e+01
2.390000e-06	2.481311e-06	8.000239e-10	1.726287e+01	5.794228e+01
2.400000e-06	2.522954e-06	8.134722e-10	1.755259e+01	5.885415e+01
2.410000e-06	2.564298e-06	8.290885e-10	1.784022e+01	5.973802e+01
2.420000e-06	2.605301e-06	8.456052e-10	1.812549e+01	6.059491e+01
2.430000e-06	2.645996e-06	8.623382e-10	1.840861e+01	6.142584e+01
2.440000e-06	2.686450e-06	8.750720e-10	1.869005e+01	6.223187e+01
2.450000e-06	2.726720e-06	8.856517e-10	1.897022e+01	6.301405e+01
2.460000e-06	2.766840e-06	8.940027e-10	1.924934e+01	6.377342e+01
2.470000e-06	2.806787e-06	9.020498e-10	1.952725e+01	6.451101e+01
2.480000e-06	2.846605e-06	9.104888e-10	1.980428e+01	6.522781e+01
2.490000e-06	2.886316e-06	9.205347e-10	2.008055e+01	6.592479e+01
2.500000e-06	2.925904e-06	9.323791e-10	2.035597e+01	6.660289e+01
2.510000e-06	2.965287e-06	9.449064e-10	2.062997e+01	6.726298e+01
2.520000e-06	3.004498e-06	9.551515e-10	2.090277e+01	6.790590e+01
2.530000e-06	3.043567e-06	9.634669e-10	2.117458e+01	6.853243e+01
2.540000e-06	3.082424e-06	9.706684e-10	2.144491e+01	6.914330e+01
2.550000e-06	3.121024e-06	9.767236e-10	2.171345e+01	6.973916e+01
2.560000e-06	3.159390e-06	9.824323e-10	2.198037e+01	7.032063e+01
2.570000e-06	3.197537e-06	9.919173e-10	2.224577e+01	7.088823e+01
2.580000e-06	3.235473e-06	1.002588e-09	2.250969e+01	7.144245e+01
2.590000e-06	3.273213e-06	1.012598e-09	2.277225e+01	7.198370e+01
2.600000e-06	3.310794e-06	1.022098e-09	2.303372e+01	7.251234e+01
2.610000e-06	3.348142e-06	1.031590e-09	2.329355e+01	7.302867e+01
2.620000e-06	3.385206e-06	1.039127e-09	2.355141e+01	7.353293e+01
2.630000e-06	3.422003e-06	1.044692e-09	2.380741e+01	7.402531e+01
2.640000e-06	3.458492e-06	1.048868e-09	2.406127e+01	7.450596e+01
2.650000e-06	3.494731e-06	1.052857e-09	2.431340e+01	7.497499e+01
2.660000e-06	3.530786e-06	1.058863e-09	2.456424e+01	7.543245e+01
2.670000e-06	3.566682e-06	1.064737e-09	2.481397e+01	7.587839e+01
2.680000e-06	3.602447e-06	1.070863e-09	2.506279e+01	7.631280e+01
2.690000e-06	3.638114e-06	1.077988e-09	2.531093e+01	7.673569e+01
2.700000e-06	3.673658e-06	1.085633e-09	2.555821e+01	7.714701e+01
2.710000e-06	3.708979e-06	1.093153e-09	2.580395e+01	7.754673e+01
2.720000e-06	3.744003e-06	1.100696e-09	2.604762e+01	7.793481e+01
2.730000e-06	3.778712e-06	1.107350e-09	2.628909e+01	7.831121e+01
2.740000e-06	3.813012e-06	1.113501e-09	2.652772e+01	7.867590e+01
2.750000e-06	3.846801e-06	1.119358e-09	2.676280e+01	7.902886e+01
2.760000e-06	3.880018e-06	1.123994e-09	2.699390e+01	7.937008e+01
2.770000e-06	3.912714e-06	1.127724e-09	2.722137e+01	7.969959e+01
2.780000e-06	3.945067e-06	1.132235e-09	2.744645e+01	8.001743e+01
2.790000e-06	3.977163e-06	1.136886e-09	2.766975e+01	8.032367e+01
2.800000e-06	4.009065e-06	1.141607e-09	2.789170e+01	8.061843e+01
2.810000e-06	4.040839e-06	1.144539e-09	2.811275e+01	8.090183e+01
2.820000e-06	4.072429e-06	1.147769e-09	2.833253e+01	8.117406e+01
2.830000e-06	4.103755e-06	1.150761e-09	2.855047e+01	8.143532e+01
2.840000e-06	4.134846e-06	1.153446e-09	2.876677e+01	8.168587e+01
2.850000e-06	4.165731e-06	1.157384e-09	2.898164e+01	8.192598e+01
2.860000e-06	4.196392e-06	1.161821e-09	2.919496e+01	8.215598e+01
2.870000e-06	4.226736e-06	1.166986e-09	2.940606e+01	8.237622e+01
2.880000e-06	4.256727e-06	1.173461e-09	2.961472e+01	8.258710e+01
2.890000e-06	4.286409e-06	1.179897e-09	2.982122e+01	8.278903e+01
2.900000e-06	4.315796e-06	1.185242e-09	3.002567e+01	8.298245e+01
