# Temperatura_=_-20.46
# Concentracion g/m^3_=_1620.0
# C_Vs_to_Am_M_A/Vsm_=_65563218390.804596
# pendiente_HvsI_1/m_=_3716.3
# ordenada_HvsI_A/m_=_1297.0
# frecuencia_Hz_=_135112.6001362105

Tiempo_(s)	Campo_(V.s)	Magnetizacion_(V.s)	Campo_(kA/m)	Magnetizacion_(A/m)
0.000000e+00	-5.520372e-06	-7.438790e-10	-3.837063e+01	-5.033316e+01
1.000000e-08	-5.520594e-06	-7.439840e-10	-3.837217e+01	-5.034943e+01
2.000000e-08	-5.520699e-06	-7.455397e-10	-3.837290e+01	-5.036787e+01
3.000000e-08	-5.520558e-06	-7.477022e-10	-3.837192e+01	-5.038811e+01
4.000000e-08	-5.519966e-06	-7.505383e-10	-3.836780e+01	-5.040973e+01
5.000000e-08	-5.518779e-06	-7.498832e-10	-3.835955e+01	-5.043233e+01
6.000000e-08	-5.517052e-06	-7.419497e-10	-3.834755e+01	-5.045548e+01
7.000000e-08	-5.514707e-06	-7.255374e-10	-3.833125e+01	-5.047874e+01
8.000000e-08	-5.511737e-06	-7.165970e-10	-3.831060e+01	-5.050169e+01
9.000000e-08	-5.508285e-06	-7.422709e-10	-3.828661e+01	-5.052388e+01
1.000000e-07	-5.504317e-06	-7.887205e-10	-3.825903e+01	-5.054491e+01
1.100000e-07	-5.499904e-06	-7.874105e-10	-3.822836e+01	-5.056436e+01
1.200000e-07	-5.495336e-06	-7.175864e-10	-3.819661e+01	-5.058183e+01
1.300000e-07	-5.490666e-06	-6.734665e-10	-3.816415e+01	-5.059697e+01
1.400000e-07	-5.485655e-06	-7.343162e-10	-3.812931e+01	-5.060943e+01
1.500000e-07	-5.480180e-06	-7.800163e-10	-3.809126e+01	-5.061889e+01
1.600000e-07	-5.474280e-06	-7.537285e-10	-3.805025e+01	-5.062509e+01
1.700000e-07	-5.468071e-06	-7.068587e-10	-3.800709e+01	-5.062778e+01
1.800000e-07	-5.461538e-06	-7.403637e-10	-3.796168e+01	-5.062677e+01
1.900000e-07	-5.454538e-06	-7.863765e-10	-3.791303e+01	-5.062189e+01
2.000000e-07	-5.447089e-06	-7.603615e-10	-3.786125e+01	-5.061303e+01
2.100000e-07	-5.439395e-06	-7.056229e-10	-3.780778e+01	-5.060013e+01
2.200000e-07	-5.431474e-06	-7.207316e-10	-3.775272e+01	-5.058317e+01
2.300000e-07	-5.423305e-06	-7.794132e-10	-3.769593e+01	-5.056216e+01
2.400000e-07	-5.414972e-06	-7.894033e-10	-3.763802e+01	-5.053718e+01
2.500000e-07	-5.406135e-06	-7.618616e-10	-3.757659e+01	-5.050836e+01
2.600000e-07	-5.396477e-06	-7.607380e-10	-3.750947e+01	-5.047583e+01
2.700000e-07	-5.386045e-06	-7.652747e-10	-3.743695e+01	-5.043981e+01
2.800000e-07	-5.374935e-06	-7.435356e-10	-3.735973e+01	-5.040054e+01
2.900000e-07	-5.363403e-06	-7.372879e-10	-3.727958e+01	-5.035830e+01
3.000000e-07	-5.351572e-06	-7.558713e-10	-3.719734e+01	-5.031339e+01
3.100000e-07	-5.339437e-06	-7.659618e-10	-3.711300e+01	-5.026616e+01
3.200000e-07	-5.326930e-06	-7.511724e-10	-3.702606e+01	-5.021697e+01
3.300000e-07	-5.313946e-06	-7.573548e-10	-3.693582e+01	-5.016622e+01
3.400000e-07	-5.300570e-06	-7.609223e-10	-3.684284e+01	-5.011431e+01
3.500000e-07	-5.286826e-06	-7.569860e-10	-3.674731e+01	-5.006166e+01
3.600000e-07	-5.272594e-06	-7.418451e-10	-3.664839e+01	-5.000871e+01
3.700000e-07	-5.257880e-06	-7.541422e-10	-3.654611e+01	-4.995589e+01
3.800000e-07	-5.242736e-06	-7.632027e-10	-3.644085e+01	-4.990363e+01
3.900000e-07	-5.227097e-06	-7.572434e-10	-3.633215e+01	-4.985236e+01
4.000000e-07	-5.210919e-06	-7.324821e-10	-3.621970e+01	-4.980250e+01
4.100000e-07	-5.194319e-06	-7.423974e-10	-3.610431e+01	-4.975445e+01
4.200000e-07	-5.177354e-06	-7.619888e-10	-3.598640e+01	-4.970861e+01
4.300000e-07	-5.159994e-06	-7.481671e-10	-3.586574e+01	-4.966532e+01
4.400000e-07	-5.142371e-06	-7.303087e-10	-3.574324e+01	-4.962494e+01
4.500000e-07	-5.124469e-06	-7.617325e-10	-3.561881e+01	-4.958777e+01
4.600000e-07	-5.106154e-06	-7.764252e-10	-3.549150e+01	-4.955409e+01
4.700000e-07	-5.087411e-06	-7.348940e-10	-3.536122e+01	-4.952414e+01
4.800000e-07	-5.068301e-06	-7.270912e-10	-3.522840e+01	-4.949812e+01
4.900000e-07	-5.048896e-06	-7.672841e-10	-3.509352e+01	-4.947621e+01
5.000000e-07	-5.029243e-06	-7.645147e-10	-3.495692e+01	-4.945854e+01
5.100000e-07	-5.009387e-06	-7.364848e-10	-3.481890e+01	-4.944518e+01
5.200000e-07	-4.989323e-06	-7.567291e-10	-3.467944e+01	-4.943619e+01
5.300000e-07	-4.968969e-06	-7.702864e-10	-3.453797e+01	-4.943158e+01
5.400000e-07	-4.948212e-06	-7.466573e-10	-3.439370e+01	-4.943131e+01
5.500000e-07	-4.927096e-06	-7.489813e-10	-3.424692e+01	-4.943531e+01
5.600000e-07	-4.905660e-06	-7.687996e-10	-3.409793e+01	-4.944347e+01
5.700000e-07	-4.883878e-06	-7.459016e-10	-3.394652e+01	-4.945566e+01
5.800000e-07	-4.861783e-06	-7.360529e-10	-3.379295e+01	-4.947169e+01
5.900000e-07	-4.839301e-06	-7.643599e-10	-3.363668e+01	-4.949137e+01
6.000000e-07	-4.816419e-06	-7.691689e-10	-3.347763e+01	-4.951446e+01
6.100000e-07	-4.793245e-06	-7.456918e-10	-3.331656e+01	-4.954071e+01
6.200000e-07	-4.769806e-06	-7.524517e-10	-3.315364e+01	-4.956984e+01
6.300000e-07	-4.746080e-06	-7.602436e-10	-3.298873e+01	-4.960156e+01
6.400000e-07	-4.722137e-06	-7.478137e-10	-3.282230e+01	-4.963556e+01
6.500000e-07	-4.697994e-06	-7.464177e-10	-3.265450e+01	-4.967154e+01
6.600000e-07	-4.673524e-06	-7.609432e-10	-3.248441e+01	-4.970917e+01
6.700000e-07	-4.648581e-06	-7.594050e-10	-3.231104e+01	-4.974813e+01
6.800000e-07	-4.623032e-06	-7.565061e-10	-3.213345e+01	-4.978812e+01
6.900000e-07	-4.596824e-06	-7.642764e-10	-3.195129e+01	-4.982880e+01
7.000000e-07	-4.570098e-06	-7.696180e-10	-3.176553e+01	-4.986990e+01
7.100000e-07	-4.542991e-06	-7.594002e-10	-3.157711e+01	-4.991110e+01
7.200000e-07	-4.515538e-06	-7.511179e-10	-3.138629e+01	-4.995215e+01
7.300000e-07	-4.487865e-06	-7.527156e-10	-3.119395e+01	-4.999279e+01
7.400000e-07	-4.460058e-06	-7.576680e-10	-3.100066e+01	-5.003278e+01
7.500000e-07	-4.432111e-06	-7.582930e-10	-3.080641e+01	-5.007191e+01
7.600000e-07	-4.403960e-06	-7.645661e-10	-3.061074e+01	-5.010999e+01
7.700000e-07	-4.375477e-06	-7.736937e-10	-3.041277e+01	-5.014687e+01
7.800000e-07	-4.346582e-06	-7.711435e-10	-3.021193e+01	-5.018240e+01
7.900000e-07	-4.317377e-06	-7.641132e-10	-3.000893e+01	-5.021649e+01
8.000000e-07	-4.287956e-06	-7.649327e-10	-2.980443e+01	-5.024904e+01
8.100000e-07	-4.258216e-06	-7.646519e-10	-2.959772e+01	-5.028002e+01
8.200000e-07	-4.228137e-06	-7.592612e-10	-2.938865e+01	-5.030937e+01
8.300000e-07	-4.197790e-06	-7.641278e-10	-2.917771e+01	-5.033712e+01
8.400000e-07	-4.167129e-06	-7.738744e-10	-2.896460e+01	-5.036327e+01
8.500000e-07	-4.136093e-06	-7.753875e-10	-2.874887e+01	-5.038786e+01
8.600000e-07	-4.104730e-06	-7.729087e-10	-2.853088e+01	-5.041097e+01
8.700000e-07	-4.073220e-06	-7.727943e-10	-2.831186e+01	-5.043266e+01
8.800000e-07	-4.041558e-06	-7.685742e-10	-2.809179e+01	-5.045304e+01
8.900000e-07	-4.009710e-06	-7.647112e-10	-2.787042e+01	-5.047220e+01
9.000000e-07	-3.977693e-06	-7.624048e-10	-2.764787e+01	-5.049027e+01
9.100000e-07	-3.945420e-06	-7.615734e-10	-2.742356e+01	-5.050736e+01
9.200000e-07	-3.912840e-06	-7.598891e-10	-2.719710e+01	-5.052359e+01
9.300000e-07	-3.879918e-06	-7.630018e-10	-2.696827e+01	-5.053910e+01
9.400000e-07	-3.846650e-06	-7.657513e-10	-2.673703e+01	-5.055399e+01
9.500000e-07	-3.812926e-06	-7.660539e-10	-2.650262e+01	-5.056839e+01
9.600000e-07	-3.778659e-06	-7.634130e-10	-2.626444e+01	-5.058240e+01
9.700000e-07	-3.743995e-06	-7.581440e-10	-2.602350e+01	-5.059610e+01
9.800000e-07	-3.709004e-06	-7.528305e-10	-2.578029e+01	-5.060959e+01
9.900000e-07	-3.673678e-06	-7.515725e-10	-2.553475e+01	-5.062292e+01
1.000000e-06	-3.638091e-06	-7.514198e-10	-2.528739e+01	-5.063613e+01
1.010000e-06	-3.602335e-06	-7.529611e-10	-2.503887e+01	-5.064925e+01
1.020000e-06	-3.566514e-06	-7.561270e-10	-2.478988e+01	-5.066228e+01
1.030000e-06	-3.530583e-06	-7.596349e-10	-2.454013e+01	-5.067520e+01
1.040000e-06	-3.494454e-06	-7.588231e-10	-2.428901e+01	-5.068796e+01
1.050000e-06	-3.458072e-06	-7.569677e-10	-2.403613e+01	-5.070050e+01
1.060000e-06	-3.421424e-06	-7.544354e-10	-2.378140e+01	-5.071272e+01
1.070000e-06	-3.384542e-06	-7.505096e-10	-2.352504e+01	-5.072452e+01
1.080000e-06	-3.347348e-06	-7.514200e-10	-2.326651e+01	-5.073575e+01
1.090000e-06	-3.309868e-06	-7.571488e-10	-2.300601e+01	-5.074626e+01
1.100000e-06	-3.272206e-06	-7.602029e-10	-2.274422e+01	-5.075587e+01
1.110000e-06	-3.234344e-06	-7.562751e-10	-2.248106e+01	-5.076439e+01
1.120000e-06	-3.196269e-06	-7.540745e-10	-2.221641e+01	-5.077160e+01
1.130000e-06	-3.158019e-06	-7.548563e-10	-2.195054e+01	-5.077729e+01
1.140000e-06	-3.119558e-06	-7.525922e-10	-2.168321e+01	-5.078121e+01
1.150000e-06	-3.080898e-06	-7.498345e-10	-2.141449e+01	-5.078314e+01
1.160000e-06	-3.041987e-06	-7.492996e-10	-2.114403e+01	-5.078281e+01
1.170000e-06	-3.002764e-06	-7.478377e-10	-2.087140e+01	-5.077999e+01
1.180000e-06	-2.963355e-06	-7.472597e-10	-2.059748e+01	-5.077443e+01
1.190000e-06	-2.923778e-06	-7.502166e-10	-2.032240e+01	-5.076588e+01
1.200000e-06	-2.884056e-06	-7.516534e-10	-2.004630e+01	-5.075411e+01
1.210000e-06	-2.844232e-06	-7.461113e-10	-1.976949e+01	-5.073889e+01
1.220000e-06	-2.804305e-06	-7.422522e-10	-1.949197e+01	-5.072000e+01
1.230000e-06	-2.764267e-06	-7.411997e-10	-1.921368e+01	-5.069725e+01
1.240000e-06	-2.724063e-06	-7.399473e-10	-1.893423e+01	-5.067046e+01
1.250000e-06	-2.683665e-06	-7.408832e-10	-1.865344e+01	-5.063946e+01
1.260000e-06	-2.643103e-06	-7.463258e-10	-1.837150e+01	-5.060411e+01
1.270000e-06	-2.602246e-06	-7.492270e-10	-1.808751e+01	-5.056429e+01
1.280000e-06	-2.561108e-06	-7.498203e-10	-1.780158e+01	-5.051991e+01
1.290000e-06	-2.519812e-06	-7.510371e-10	-1.751454e+01	-5.047088e+01
1.300000e-06	-2.478351e-06	-7.492914e-10	-1.722635e+01	-5.041716e+01
1.310000e-06	-2.436576e-06	-7.417381e-10	-1.693598e+01	-5.035871e+01
1.320000e-06	-2.394369e-06	-7.366618e-10	-1.664262e+01	-5.029553e+01
1.330000e-06	-2.351810e-06	-7.370994e-10	-1.634680e+01	-5.022763e+01
1.340000e-06	-2.308926e-06	-7.380409e-10	-1.604872e+01	-5.015503e+01
1.350000e-06	-2.265867e-06	-7.399057e-10	-1.574944e+01	-5.007779e+01
1.360000e-06	-2.222638e-06	-7.425494e-10	-1.544896e+01	-4.999596e+01
1.370000e-06	-2.179182e-06	-7.414212e-10	-1.514691e+01	-4.990961e+01
1.380000e-06	-2.135610e-06	-7.364076e-10	-1.484405e+01	-4.981881e+01
1.390000e-06	-2.091921e-06	-7.322373e-10	-1.454038e+01	-4.972363e+01
1.400000e-06	-2.048108e-06	-7.295631e-10	-1.423585e+01	-4.962414e+01
1.410000e-06	-2.004257e-06	-7.284529e-10	-1.393105e+01	-4.952042e+01
1.420000e-06	-1.960408e-06	-7.283990e-10	-1.362627e+01	-4.941250e+01
1.430000e-06	-1.916462e-06	-7.290812e-10	-1.332082e+01	-4.930043e+01
1.440000e-06	-1.872429e-06	-7.283875e-10	-1.301475e+01	-4.918422e+01
1.450000e-06	-1.828344e-06	-7.255625e-10	-1.270833e+01	-4.906385e+01
1.460000e-06	-1.784088e-06	-7.210938e-10	-1.240071e+01	-4.893928e+01
1.470000e-06	-1.739615e-06	-7.156954e-10	-1.209160e+01	-4.881042e+01
1.480000e-06	-1.695035e-06	-7.114950e-10	-1.178173e+01	-4.867715e+01
1.490000e-06	-1.650342e-06	-7.102732e-10	-1.147108e+01	-4.853928e+01
1.500000e-06	-1.605463e-06	-7.073273e-10	-1.115914e+01	-4.839661e+01
1.510000e-06	-1.560418e-06	-7.025232e-10	-1.084604e+01	-4.824885e+01
1.520000e-06	-1.515260e-06	-6.983867e-10	-1.053216e+01	-4.809566e+01
1.530000e-06	-1.470061e-06	-6.957821e-10	-1.021800e+01	-4.793664e+01
1.540000e-06	-1.424805e-06	-6.928483e-10	-9.903434e+00	-4.777134e+01
1.550000e-06	-1.379483e-06	-6.879898e-10	-9.588419e+00	-4.759922e+01
1.560000e-06	-1.334060e-06	-6.830367e-10	-9.272695e+00	-4.741969e+01
1.570000e-06	-1.288480e-06	-6.776859e-10	-8.955876e+00	-4.723208e+01
1.580000e-06	-1.242779e-06	-6.718057e-10	-8.638224e+00	-4.703568e+01
1.590000e-06	-1.197053e-06	-6.672215e-10	-8.320395e+00	-4.682968e+01
1.600000e-06	-1.151292e-06	-6.679422e-10	-8.002321e+00	-4.661323e+01
1.610000e-06	-1.105356e-06	-6.685015e-10	-7.683036e+00	-4.638540e+01
1.620000e-06	-1.059322e-06	-6.628635e-10	-7.363063e+00	-4.614520e+01
1.630000e-06	-1.013305e-06	-6.542633e-10	-7.043214e+00	-4.589162e+01
1.640000e-06	-9.672070e-07	-6.462451e-10	-6.722796e+00	-4.562355e+01
1.650000e-06	-9.210091e-07	-6.387997e-10	-6.401687e+00	-4.533987e+01
1.660000e-06	-8.747338e-07	-6.308452e-10	-6.080040e+00	-4.503940e+01
1.670000e-06	-8.283587e-07	-6.243916e-10	-5.757699e+00	-4.472095e+01
1.680000e-06	-7.820289e-07	-6.189125e-10	-5.435673e+00	-4.438329e+01
1.690000e-06	-7.357110e-07	-6.119989e-10	-5.113729e+00	-4.402516e+01
1.700000e-06	-6.892636e-07	-6.036122e-10	-4.790886e+00	-4.364533e+01
1.710000e-06	-6.427710e-07	-5.949238e-10	-4.467729e+00	-4.324254e+01
1.720000e-06	-5.962884e-07	-5.873622e-10	-4.144641e+00	-4.281555e+01
1.730000e-06	-5.497613e-07	-5.823926e-10	-3.821243e+00	-4.236313e+01
1.740000e-06	-5.031932e-07	-5.768912e-10	-3.497561e+00	-4.188409e+01
1.750000e-06	-4.565923e-07	-5.690842e-10	-3.173651e+00	-4.137727e+01
1.760000e-06	-4.099075e-07	-5.597529e-10	-2.849157e+00	-4.084156e+01
1.770000e-06	-3.631551e-07	-5.501676e-10	-2.524194e+00	-4.027593e+01
1.780000e-06	-3.164229e-07	-5.416337e-10	-2.199370e+00	-3.967937e+01
1.790000e-06	-2.697583e-07	-5.337169e-10	-1.875017e+00	-3.905099e+01
1.800000e-06	-2.230357e-07	-5.248546e-10	-1.550261e+00	-3.838997e+01
1.810000e-06	-1.762639e-07	-5.151158e-10	-1.225163e+00	-3.769558e+01
1.820000e-06	-1.294961e-07	-5.046406e-10	-9.000928e-01	-3.696720e+01
1.830000e-06	-8.266831e-08	-4.937833e-10	-5.746052e-01	-3.620432e+01
1.840000e-06	-3.581814e-08	-4.836559e-10	-2.489623e-01	-3.540653e+01
1.850000e-06	1.101526e-08	-4.745908e-10	7.656408e-02	-3.457357e+01
1.860000e-06	5.774811e-08	-4.642657e-10	4.013916e-01	-3.370528e+01
1.870000e-06	1.044660e-07	-4.518951e-10	7.261153e-01	-3.280166e+01
1.880000e-06	1.512702e-07	-4.384909e-10	1.051438e+00	-3.186282e+01
1.890000e-06	1.980696e-07	-4.237904e-10	1.376728e+00	-3.088902e+01
1.900000e-06	2.449524e-07	-4.088882e-10	1.702598e+00	-2.988067e+01
1.910000e-06	2.918763e-07	-3.940750e-10	2.028754e+00	-2.883829e+01
1.920000e-06	3.386909e-07	-3.801583e-10	2.354149e+00	-2.776258e+01
1.930000e-06	3.854644e-07	-3.678227e-10	2.679260e+00	-2.665436e+01
1.940000e-06	4.321963e-07	-3.548348e-10	3.004080e+00	-2.551456e+01
1.950000e-06	4.788561e-07	-3.371041e-10	3.328400e+00	-2.434429e+01
1.960000e-06	5.254868e-07	-3.180590e-10	3.652518e+00	-2.314476e+01
1.970000e-06	5.721006e-07	-3.015840e-10	3.976517e+00	-2.191731e+01
1.980000e-06	6.185414e-07	-2.864487e-10	4.299315e+00	-2.066339e+01
1.990000e-06	6.648864e-07	-2.709321e-10	4.621447e+00	-1.938457e+01
2.000000e-06	7.112602e-07	-2.534111e-10	4.943779e+00	-1.808252e+01
2.010000e-06	7.575665e-07	-2.325776e-10	5.265642e+00	-1.675901e+01
2.020000e-06	8.038761e-07	-2.080624e-10	5.587527e+00	-1.541587e+01
2.030000e-06	8.501866e-07	-1.846329e-10	5.909419e+00	-1.405502e+01
2.040000e-06	8.963486e-07	-1.664521e-10	6.230279e+00	-1.267847e+01
2.050000e-06	9.424030e-07	-1.497711e-10	6.550390e+00	-1.128823e+01
2.060000e-06	9.884652e-07	-1.319026e-10	6.870556e+00	-9.886402e+00
2.070000e-06	1.034487e-06	-1.131137e-10	7.190443e+00	-8.475091e+00
2.080000e-06	1.080400e-06	-9.295721e-11	7.509573e+00	-7.056433e+00
2.090000e-06	1.126258e-06	-7.102284e-11	7.828316e+00	-5.632572e+00
2.100000e-06	1.172049e-06	-4.840074e-11	8.146595e+00	-4.205649e+00
2.110000e-06	1.217709e-06	-2.681289e-11	8.463966e+00	-2.777793e+00
2.120000e-06	1.263294e-06	-6.467150e-12	8.780815e+00	-1.351108e+00
2.130000e-06	1.308832e-06	1.212398e-11	9.097337e+00	7.233397e-02
2.140000e-06	1.354317e-06	2.841385e-11	9.413493e+00	1.490508e+00
2.150000e-06	1.399659e-06	4.516892e-11	9.728653e+00	2.901443e+00
2.160000e-06	1.444816e-06	6.462210e-11	1.004252e+01	4.303228e+00
2.170000e-06	1.489891e-06	8.575681e-11	1.035583e+01	5.694025e+00
2.180000e-06	1.534948e-06	1.070063e-10	1.066901e+01	7.072075e+00
2.190000e-06	1.579891e-06	1.267988e-10	1.098140e+01	8.435705e+00
2.200000e-06	1.624626e-06	1.460068e-10	1.129234e+01	9.783332e+00
2.210000e-06	1.669243e-06	1.647487e-10	1.160246e+01	1.111347e+01
2.220000e-06	1.713793e-06	1.809506e-10	1.191212e+01	1.242474e+01
2.230000e-06	1.758193e-06	1.960379e-10	1.222073e+01	1.371586e+01
2.240000e-06	1.802489e-06	2.112459e-10	1.252861e+01	1.498566e+01
2.250000e-06	1.846701e-06	2.265441e-10	1.283592e+01	1.623307e+01
2.260000e-06	1.890792e-06	2.417221e-10	1.314239e+01	1.745715e+01
2.270000e-06	1.934771e-06	2.583193e-10	1.344807e+01	1.865706e+01
2.280000e-06	1.978643e-06	2.777707e-10	1.375302e+01	1.983206e+01
2.290000e-06	2.022436e-06	2.971151e-10	1.405741e+01	2.098153e+01
2.300000e-06	2.066153e-06	3.142457e-10	1.436127e+01	2.210495e+01
2.310000e-06	2.109831e-06	3.282397e-10	1.466487e+01	2.320190e+01
2.320000e-06	2.153473e-06	3.404609e-10	1.496821e+01	2.427208e+01
2.330000e-06	2.197042e-06	3.529016e-10	1.527105e+01	2.531525e+01
2.340000e-06	2.240491e-06	3.669025e-10	1.557305e+01	2.633128e+01
2.350000e-06	2.283796e-06	3.820800e-10	1.587406e+01	2.732013e+01
2.360000e-06	2.326909e-06	3.970934e-10	1.617372e+01	2.828182e+01
2.370000e-06	2.369666e-06	4.112649e-10	1.647091e+01	2.921647e+01
2.380000e-06	2.412101e-06	4.254178e-10	1.676587e+01	3.012423e+01
2.390000e-06	2.454303e-06	4.376669e-10	1.705920e+01	3.100533e+01
2.400000e-06	2.496260e-06	4.461912e-10	1.735083e+01	3.186006e+01
2.410000e-06	2.537910e-06	4.556259e-10	1.764033e+01	3.268876e+01
2.420000e-06	2.579149e-06	4.683058e-10	1.792697e+01	3.349178e+01
2.430000e-06	2.620068e-06	4.816979e-10	1.821139e+01	3.426953e+01
2.440000e-06	2.660754e-06	4.954053e-10	1.849419e+01	3.502245e+01
2.450000e-06	2.701206e-06	5.086418e-10	1.877536e+01	3.575099e+01
2.460000e-06	2.741458e-06	5.185429e-10	1.905514e+01	3.645561e+01
2.470000e-06	2.781529e-06	5.251043e-10	1.933366e+01	3.713680e+01
2.480000e-06	2.821453e-06	5.315818e-10	1.961116e+01	3.779504e+01
2.490000e-06	2.861291e-06	5.392545e-10	1.988806e+01	3.843083e+01
2.500000e-06	2.901001e-06	5.473908e-10	2.016408e+01	3.904464e+01
2.510000e-06	2.940566e-06	5.560376e-10	2.043909e+01	3.963697e+01
2.520000e-06	2.979981e-06	5.646370e-10	2.071305e+01	4.020826e+01
2.530000e-06	3.019206e-06	5.731424e-10	2.098569e+01	4.075900e+01
2.540000e-06	3.058229e-06	5.814141e-10	2.125693e+01	4.128962e+01
2.550000e-06	3.096961e-06	5.879751e-10	2.152615e+01	4.180055e+01
2.560000e-06	3.135544e-06	5.928521e-10	2.179432e+01	4.229221e+01
2.570000e-06	3.174007e-06	5.965130e-10	2.206167e+01	4.276499e+01
2.580000e-06	3.212110e-06	5.999611e-10	2.232651e+01	4.321929e+01
2.590000e-06	3.249926e-06	6.043847e-10	2.258936e+01	4.365547e+01
2.600000e-06	3.287572e-06	6.091715e-10	2.285103e+01	4.407388e+01
2.610000e-06	3.325012e-06	6.153902e-10	2.311127e+01	4.447486e+01
2.620000e-06	3.362270e-06	6.219566e-10	2.337024e+01	4.485874e+01
2.630000e-06	3.399308e-06	6.280664e-10	2.362767e+01	4.522585e+01
2.640000e-06	3.436022e-06	6.345729e-10	2.388287e+01	4.557648e+01
2.650000e-06	3.472485e-06	6.377977e-10	2.413631e+01	4.591096e+01
2.660000e-06	3.508738e-06	6.385390e-10	2.438829e+01	4.622958e+01
2.670000e-06	3.544764e-06	6.408250e-10	2.463870e+01	4.653266e+01
2.680000e-06	3.580636e-06	6.440187e-10	2.488804e+01	4.682049e+01
2.690000e-06	3.616397e-06	6.472087e-10	2.513661e+01	4.709340e+01
2.700000e-06	3.652063e-06	6.516214e-10	2.538451e+01	4.735169e+01
2.710000e-06	3.687541e-06	6.565951e-10	2.563110e+01	4.759571e+01
2.720000e-06	3.722734e-06	6.610281e-10	2.587572e+01	4.782581e+01
2.730000e-06	3.757654e-06	6.664536e-10	2.611845e+01	4.804232e+01
2.740000e-06	3.792233e-06	6.726838e-10	2.635879e+01	4.824564e+01
2.750000e-06	3.826469e-06	6.782466e-10	2.659676e+01	4.843616e+01
2.760000e-06	3.860299e-06	6.822173e-10	2.683190e+01	4.861428e+01
2.770000e-06	3.893522e-06	6.848161e-10	2.706282e+01	4.878044e+01
2.780000e-06	3.926173e-06	6.858975e-10	2.728977e+01	4.893508e+01
2.790000e-06	3.958505e-06	6.879866e-10	2.751450e+01	4.907869e+01
2.800000e-06	3.990588e-06	6.926427e-10	2.773750e+01	4.921173e+01
2.810000e-06	4.022425e-06	6.973336e-10	2.795880e+01	4.933474e+01
2.820000e-06	4.054148e-06	7.007987e-10	2.817930e+01	4.944822e+01
2.830000e-06	4.085732e-06	7.049833e-10	2.839882e+01	4.955272e+01
2.840000e-06	4.117117e-06	7.086650e-10	2.861698e+01	4.964880e+01
2.850000e-06	4.148390e-06	7.110113e-10	2.883434e+01	4.973701e+01
2.860000e-06	4.179365e-06	7.122943e-10	2.904965e+01	4.981795e+01
2.870000e-06	4.209837e-06	7.139425e-10	2.926145e+01	4.989218e+01
2.880000e-06	4.239907e-06	7.174509e-10	2.947046e+01	4.996028e+01
2.890000e-06	4.269759e-06	7.210816e-10	2.967795e+01	5.002285e+01
2.900000e-06	4.299437e-06	7.251994e-10	2.988423e+01	5.008046e+01
