# Temperatura_=_3.41
# Concentracion g/m^3_=_1620.0
# C_Vs_to_Am_M_A/Vsm_=_65563218390.804596
# pendiente_HvsI_1/m_=_3716.3
# ordenada_HvsI_A/m_=_1297.0
# frecuencia_Hz_=_135106.740347434

Tiempo_(s)	Campo_(V.s)	Magnetizacion_(V.s)	Campo_(kA/m)	Magnetizacion_(A/m)
0.000000e+00	-5.517731e-06	-1.167383e-09	-3.837358e+01	-7.804731e+01
1.000000e-08	-5.517998e-06	-1.165564e-09	-3.837543e+01	-7.802323e+01
2.000000e-08	-5.518008e-06	-1.165332e-09	-3.837550e+01	-7.800152e+01
3.000000e-08	-5.517720e-06	-1.166643e-09	-3.837350e+01	-7.798203e+01
4.000000e-08	-5.516999e-06	-1.166295e-09	-3.836849e+01	-7.796456e+01
5.000000e-08	-5.515800e-06	-1.161875e-09	-3.836015e+01	-7.794889e+01
6.000000e-08	-5.514039e-06	-1.153442e-09	-3.834790e+01	-7.793477e+01
7.000000e-08	-5.511581e-06	-1.145635e-09	-3.833081e+01	-7.792191e+01
8.000000e-08	-5.508493e-06	-1.164711e-09	-3.830933e+01	-7.791000e+01
9.000000e-08	-5.504919e-06	-1.206566e-09	-3.828447e+01	-7.789872e+01
1.000000e-07	-5.500967e-06	-1.177426e-09	-3.825699e+01	-7.788772e+01
1.100000e-07	-5.496791e-06	-1.107205e-09	-3.822795e+01	-7.787663e+01
1.200000e-07	-5.492428e-06	-1.146936e-09	-3.819760e+01	-7.786510e+01
1.300000e-07	-5.487747e-06	-1.185731e-09	-3.816505e+01	-7.785275e+01
1.400000e-07	-5.482629e-06	-1.167743e-09	-3.812946e+01	-7.783920e+01
1.500000e-07	-5.477114e-06	-1.110861e-09	-3.809110e+01	-7.782409e+01
1.600000e-07	-5.471295e-06	-1.132411e-09	-3.805063e+01	-7.780705e+01
1.700000e-07	-5.465134e-06	-1.204516e-09	-3.800779e+01	-7.778774e+01
1.800000e-07	-5.458442e-06	-1.150720e-09	-3.796125e+01	-7.776580e+01
1.900000e-07	-5.451307e-06	-1.148533e-09	-3.791163e+01	-7.774093e+01
2.000000e-07	-5.443888e-06	-1.158237e-09	-3.786003e+01	-7.771283e+01
2.100000e-07	-5.436177e-06	-1.202109e-09	-3.780640e+01	-7.768123e+01
2.200000e-07	-5.428268e-06	-1.159492e-09	-3.775139e+01	-7.764586e+01
2.300000e-07	-5.420149e-06	-1.157152e-09	-3.769493e+01	-7.760653e+01
2.400000e-07	-5.411683e-06	-1.157741e-09	-3.763606e+01	-7.756304e+01
2.500000e-07	-5.402551e-06	-1.183910e-09	-3.757255e+01	-7.751524e+01
2.600000e-07	-5.392599e-06	-1.174253e-09	-3.750333e+01	-7.746301e+01
2.700000e-07	-5.382080e-06	-1.162706e-09	-3.743018e+01	-7.740626e+01
2.800000e-07	-5.370984e-06	-1.152084e-09	-3.735301e+01	-7.734494e+01
2.900000e-07	-5.359402e-06	-1.158963e-09	-3.727247e+01	-7.727902e+01
3.000000e-07	-5.347585e-06	-1.166238e-09	-3.719028e+01	-7.720854e+01
3.100000e-07	-5.335458e-06	-1.137019e-09	-3.710594e+01	-7.713353e+01
3.200000e-07	-5.322866e-06	-1.138491e-09	-3.701837e+01	-7.705408e+01
3.300000e-07	-5.309822e-06	-1.155889e-09	-3.692765e+01	-7.697030e+01
3.400000e-07	-5.296432e-06	-1.174337e-09	-3.683453e+01	-7.688231e+01
3.500000e-07	-5.282606e-06	-1.123887e-09	-3.673838e+01	-7.679030e+01
3.600000e-07	-5.268331e-06	-1.148564e-09	-3.663910e+01	-7.669443e+01
3.700000e-07	-5.253821e-06	-1.171590e-09	-3.653819e+01	-7.659493e+01
3.800000e-07	-5.238909e-06	-1.136848e-09	-3.643448e+01	-7.649201e+01
3.900000e-07	-5.223259e-06	-1.092385e-09	-3.632565e+01	-7.638590e+01
4.000000e-07	-5.207044e-06	-1.169719e-09	-3.621287e+01	-7.627686e+01
4.100000e-07	-5.190460e-06	-1.163047e-09	-3.609754e+01	-7.616515e+01
4.200000e-07	-5.173492e-06	-1.091232e-09	-3.597953e+01	-7.605101e+01
4.300000e-07	-5.156212e-06	-1.123258e-09	-3.585935e+01	-7.593471e+01
4.400000e-07	-5.138719e-06	-1.201611e-09	-3.573770e+01	-7.581651e+01
4.500000e-07	-5.120862e-06	-1.107042e-09	-3.561351e+01	-7.569666e+01
4.600000e-07	-5.102577e-06	-1.074539e-09	-3.548635e+01	-7.557541e+01
4.700000e-07	-5.083923e-06	-1.167664e-09	-3.535662e+01	-7.545297e+01
4.800000e-07	-5.064861e-06	-1.147134e-09	-3.522405e+01	-7.532957e+01
4.900000e-07	-5.045386e-06	-1.053170e-09	-3.508861e+01	-7.520540e+01
5.000000e-07	-5.025672e-06	-1.135436e-09	-3.495151e+01	-7.508066e+01
5.100000e-07	-5.005799e-06	-1.174591e-09	-3.481330e+01	-7.495549e+01
5.200000e-07	-4.985711e-06	-1.074986e-09	-3.467359e+01	-7.483003e+01
5.300000e-07	-4.965335e-06	-1.091539e-09	-3.453188e+01	-7.470440e+01
5.400000e-07	-4.944562e-06	-1.170244e-09	-3.438742e+01	-7.457868e+01
5.500000e-07	-4.923358e-06	-1.086345e-09	-3.423996e+01	-7.445293e+01
5.600000e-07	-4.901864e-06	-1.048818e-09	-3.409047e+01	-7.432720e+01
5.700000e-07	-4.880130e-06	-1.142818e-09	-3.393932e+01	-7.420149e+01
5.800000e-07	-4.857945e-06	-1.114264e-09	-3.378503e+01	-7.407579e+01
5.900000e-07	-4.835365e-06	-1.044525e-09	-3.362800e+01	-7.395005e+01
6.000000e-07	-4.812518e-06	-1.108278e-09	-3.346911e+01	-7.382423e+01
6.100000e-07	-4.789282e-06	-1.126903e-09	-3.330751e+01	-7.369822e+01
6.200000e-07	-4.765665e-06	-1.047280e-09	-3.314326e+01	-7.357194e+01
6.300000e-07	-4.741867e-06	-1.075487e-09	-3.297776e+01	-7.344525e+01
6.400000e-07	-4.717912e-06	-1.116533e-09	-3.281116e+01	-7.331801e+01
6.500000e-07	-4.693676e-06	-1.068585e-09	-3.264261e+01	-7.319007e+01
6.600000e-07	-4.669102e-06	-1.060007e-09	-3.247171e+01	-7.306125e+01
6.700000e-07	-4.644083e-06	-1.108366e-09	-3.229771e+01	-7.293139e+01
6.800000e-07	-4.618416e-06	-1.071475e-09	-3.211921e+01	-7.280030e+01
6.900000e-07	-4.592158e-06	-1.049555e-09	-3.193659e+01	-7.266779e+01
7.000000e-07	-4.565424e-06	-1.082642e-09	-3.175067e+01	-7.253366e+01
7.100000e-07	-4.538223e-06	-1.082073e-09	-3.156150e+01	-7.239773e+01
7.200000e-07	-4.510761e-06	-1.049725e-09	-3.137051e+01	-7.225980e+01
7.300000e-07	-4.483139e-06	-1.071387e-09	-3.117841e+01	-7.211969e+01
7.400000e-07	-4.455346e-06	-1.071359e-09	-3.098512e+01	-7.197724e+01
7.500000e-07	-4.427378e-06	-1.047308e-09	-3.079061e+01	-7.183226e+01
7.600000e-07	-4.399168e-06	-1.051188e-09	-3.059442e+01	-7.168461e+01
7.700000e-07	-4.370627e-06	-1.065854e-09	-3.039594e+01	-7.153414e+01
7.800000e-07	-4.341691e-06	-1.044548e-09	-3.019470e+01	-7.138072e+01
7.900000e-07	-4.312448e-06	-1.042335e-09	-2.999133e+01	-7.122425e+01
8.000000e-07	-4.282964e-06	-1.054463e-09	-2.978627e+01	-7.106462e+01
8.100000e-07	-4.253176e-06	-1.042123e-09	-2.957911e+01	-7.090176e+01
8.200000e-07	-4.223064e-06	-1.030228e-09	-2.936969e+01	-7.073561e+01
8.300000e-07	-4.192706e-06	-1.044144e-09	-2.915857e+01	-7.056611e+01
8.400000e-07	-4.162046e-06	-1.040472e-09	-2.894534e+01	-7.039325e+01
8.500000e-07	-4.131073e-06	-1.025642e-09	-2.872993e+01	-7.021702e+01
8.600000e-07	-4.099860e-06	-1.033057e-09	-2.851286e+01	-7.003741e+01
8.700000e-07	-4.068398e-06	-1.033390e-09	-2.829405e+01	-6.985446e+01
8.800000e-07	-4.036803e-06	-1.016139e-09	-2.807432e+01	-6.966819e+01
8.900000e-07	-4.005075e-06	-1.014598e-09	-2.785367e+01	-6.947866e+01
9.000000e-07	-3.973099e-06	-1.022040e-09	-2.763129e+01	-6.928591e+01
9.100000e-07	-3.940889e-06	-1.006870e-09	-2.740728e+01	-6.909002e+01
9.200000e-07	-3.908391e-06	-1.002748e-09	-2.718127e+01	-6.889107e+01
9.300000e-07	-3.875455e-06	-1.010459e-09	-2.695222e+01	-6.868913e+01
9.400000e-07	-3.842021e-06	-1.004058e-09	-2.671970e+01	-6.848428e+01
9.500000e-07	-3.808078e-06	-9.893299e-10	-2.648363e+01	-6.827660e+01
9.600000e-07	-3.773743e-06	-9.948318e-10	-2.624485e+01	-6.806619e+01
9.700000e-07	-3.739094e-06	-9.897717e-10	-2.600388e+01	-6.785311e+01
9.800000e-07	-3.704000e-06	-9.755871e-10	-2.575981e+01	-6.763745e+01
9.900000e-07	-3.668547e-06	-9.727518e-10	-2.551326e+01	-6.741926e+01
1.000000e-06	-3.632958e-06	-9.777671e-10	-2.526574e+01	-6.719861e+01
1.010000e-06	-3.597236e-06	-9.665357e-10	-2.501731e+01	-6.697555e+01
1.020000e-06	-3.561398e-06	-9.629171e-10	-2.476807e+01	-6.675010e+01
1.030000e-06	-3.525495e-06	-9.653555e-10	-2.451838e+01	-6.652230e+01
1.040000e-06	-3.489468e-06	-9.596931e-10	-2.426783e+01	-6.629215e+01
1.050000e-06	-3.453146e-06	-9.480852e-10	-2.401523e+01	-6.605965e+01
1.060000e-06	-3.416549e-06	-9.485464e-10	-2.376071e+01	-6.582477e+01
1.070000e-06	-3.379666e-06	-9.459169e-10	-2.350420e+01	-6.558747e+01
1.080000e-06	-3.342433e-06	-9.396388e-10	-2.324527e+01	-6.534771e+01
1.090000e-06	-3.304977e-06	-9.390062e-10	-2.298477e+01	-6.510541e+01
1.100000e-06	-3.267296e-06	-9.406821e-10	-2.272272e+01	-6.486049e+01
1.110000e-06	-3.229405e-06	-9.327198e-10	-2.245920e+01	-6.461284e+01
1.120000e-06	-3.191280e-06	-9.270237e-10	-2.219405e+01	-6.436237e+01
1.130000e-06	-3.152864e-06	-9.264989e-10	-2.192689e+01	-6.410893e+01
1.140000e-06	-3.114290e-06	-9.201249e-10	-2.165862e+01	-6.385240e+01
1.150000e-06	-3.075577e-06	-9.129839e-10	-2.138939e+01	-6.359263e+01
1.160000e-06	-3.036572e-06	-9.109986e-10	-2.111812e+01	-6.332946e+01
1.170000e-06	-2.997345e-06	-9.068671e-10	-2.084532e+01	-6.306273e+01
1.180000e-06	-2.957942e-06	-8.977202e-10	-2.057128e+01	-6.279229e+01
1.190000e-06	-2.918348e-06	-8.945696e-10	-2.029592e+01	-6.251795e+01
1.200000e-06	-2.878651e-06	-8.914589e-10	-2.001985e+01	-6.223956e+01
1.210000e-06	-2.838825e-06	-8.842659e-10	-1.974287e+01	-6.195695e+01
1.220000e-06	-2.798901e-06	-8.778329e-10	-1.946522e+01	-6.166995e+01
1.230000e-06	-2.758875e-06	-8.753467e-10	-1.918685e+01	-6.137839e+01
1.240000e-06	-2.718716e-06	-8.692230e-10	-1.890756e+01	-6.108214e+01
1.250000e-06	-2.678376e-06	-8.668636e-10	-1.862701e+01	-6.078103e+01
1.260000e-06	-2.637752e-06	-8.656467e-10	-1.834449e+01	-6.047494e+01
1.270000e-06	-2.596924e-06	-8.632752e-10	-1.806055e+01	-6.016373e+01
1.280000e-06	-2.555931e-06	-8.568116e-10	-1.777546e+01	-5.984729e+01
1.290000e-06	-2.514634e-06	-8.508752e-10	-1.748826e+01	-5.952551e+01
1.300000e-06	-2.472921e-06	-8.449876e-10	-1.719816e+01	-5.919829e+01
1.310000e-06	-2.430783e-06	-8.371531e-10	-1.690511e+01	-5.886555e+01
1.320000e-06	-2.388347e-06	-8.292399e-10	-1.660998e+01	-5.852720e+01
1.330000e-06	-2.345685e-06	-8.268836e-10	-1.631328e+01	-5.818319e+01
1.340000e-06	-2.302837e-06	-8.224847e-10	-1.601529e+01	-5.783345e+01
1.350000e-06	-2.259763e-06	-8.181019e-10	-1.571574e+01	-5.747793e+01
1.360000e-06	-2.216401e-06	-8.136026e-10	-1.541417e+01	-5.711658e+01
1.370000e-06	-2.172834e-06	-8.087900e-10	-1.511118e+01	-5.674935e+01
1.380000e-06	-2.129158e-06	-8.010477e-10	-1.480743e+01	-5.637619e+01
1.390000e-06	-2.085409e-06	-7.920468e-10	-1.450317e+01	-5.599706e+01
1.400000e-06	-2.041624e-06	-7.825786e-10	-1.419867e+01	-5.561190e+01
1.410000e-06	-1.997816e-06	-7.743603e-10	-1.389400e+01	-5.522063e+01
1.420000e-06	-1.953915e-06	-7.693072e-10	-1.358868e+01	-5.482318e+01
1.430000e-06	-1.909887e-06	-7.665026e-10	-1.328249e+01	-5.441945e+01
1.440000e-06	-1.865780e-06	-7.649115e-10	-1.297574e+01	-5.400933e+01
1.450000e-06	-1.821554e-06	-7.606400e-10	-1.266817e+01	-5.359267e+01
1.460000e-06	-1.777214e-06	-7.514319e-10	-1.235980e+01	-5.316930e+01
1.470000e-06	-1.732834e-06	-7.386287e-10	-1.205116e+01	-5.273902e+01
1.480000e-06	-1.688376e-06	-7.281323e-10	-1.174197e+01	-5.230160e+01
1.490000e-06	-1.643763e-06	-7.211971e-10	-1.143171e+01	-5.185676e+01
1.500000e-06	-1.598947e-06	-7.158735e-10	-1.112003e+01	-5.140417e+01
1.510000e-06	-1.553951e-06	-7.107914e-10	-1.080710e+01	-5.094349e+01
1.520000e-06	-1.508843e-06	-7.073187e-10	-1.049339e+01	-5.047431e+01
1.530000e-06	-1.463606e-06	-7.022521e-10	-1.017878e+01	-4.999616e+01
1.540000e-06	-1.418235e-06	-6.935274e-10	-9.863249e+00	-4.950854e+01
1.550000e-06	-1.372809e-06	-6.827626e-10	-9.547332e+00	-4.901089e+01
1.560000e-06	-1.327335e-06	-6.746227e-10	-9.231073e+00	-4.850260e+01
1.570000e-06	-1.281799e-06	-6.663552e-10	-8.914392e+00	-4.798299e+01
1.580000e-06	-1.236185e-06	-6.577152e-10	-8.597167e+00	-4.745136e+01
1.590000e-06	-1.190474e-06	-6.494792e-10	-8.279263e+00	-4.690693e+01
1.600000e-06	-1.144661e-06	-6.439469e-10	-7.960652e+00	-4.634889e+01
1.610000e-06	-1.098770e-06	-6.374801e-10	-7.641496e+00	-4.577637e+01
1.620000e-06	-1.052815e-06	-6.305634e-10	-7.321902e+00	-4.518845e+01
1.630000e-06	-1.006778e-06	-6.220259e-10	-7.001734e+00	-4.458419e+01
1.640000e-06	-9.606372e-07	-6.118682e-10	-6.680841e+00	-4.396261e+01
1.650000e-06	-9.144385e-07	-6.014520e-10	-6.359548e+00	-4.332268e+01
1.660000e-06	-8.681536e-07	-5.888739e-10	-6.037655e+00	-4.266336e+01
1.670000e-06	-8.217972e-07	-5.742350e-10	-5.715265e+00	-4.198359e+01
1.680000e-06	-7.754262e-07	-5.614016e-10	-5.392774e+00	-4.128229e+01
1.690000e-06	-7.289773e-07	-5.507101e-10	-5.069741e+00	-4.055839e+01
1.700000e-06	-6.825187e-07	-5.414059e-10	-4.746640e+00	-3.981080e+01
1.710000e-06	-6.359921e-07	-5.319822e-10	-4.423067e+00	-3.903847e+01
1.720000e-06	-5.893506e-07	-5.218492e-10	-4.098694e+00	-3.824033e+01
1.730000e-06	-5.427477e-07	-5.102285e-10	-3.774590e+00	-3.741538e+01
1.740000e-06	-4.961643e-07	-4.951590e-10	-3.450621e+00	-3.656262e+01
1.750000e-06	-4.495580e-07	-4.780954e-10	-3.126493e+00	-3.568112e+01
1.760000e-06	-4.028689e-07	-4.605164e-10	-2.801790e+00	-3.477000e+01
1.770000e-06	-3.560297e-07	-4.458495e-10	-2.476042e+00	-3.382843e+01
1.780000e-06	-3.091317e-07	-4.345847e-10	-2.149885e+00	-3.285567e+01
1.790000e-06	-2.622287e-07	-4.258607e-10	-1.823694e+00	-3.185105e+01
1.800000e-06	-2.154599e-07	-4.158562e-10	-1.498436e+00	-3.081400e+01
1.810000e-06	-1.687353e-07	-4.014418e-10	-1.173485e+00	-2.974403e+01
1.820000e-06	-1.218866e-07	-3.826765e-10	-8.476719e-01	-2.864077e+01
1.830000e-06	-7.500319e-08	-3.628412e-10	-5.216167e-01	-2.750396e+01
1.840000e-06	-2.810977e-08	-3.444862e-10	-1.954920e-01	-2.633346e+01
1.850000e-06	1.871892e-08	-3.285602e-10	1.301825e-01	-2.512924e+01
1.860000e-06	6.538612e-08	-3.128907e-10	4.547339e-01	-2.389141e+01
1.870000e-06	1.120516e-07	-2.968032e-10	7.792735e-01	-2.262022e+01
1.880000e-06	1.588156e-07	-2.802163e-10	1.104498e+00	-2.131604e+01
1.890000e-06	2.056207e-07	-2.627501e-10	1.430008e+00	-1.997939e+01
1.900000e-06	2.523974e-07	-2.421855e-10	1.755321e+00	-1.861093e+01
1.910000e-06	2.990995e-07	-2.209622e-10	2.080115e+00	-1.721146e+01
1.920000e-06	3.457850e-07	-2.014720e-10	2.404794e+00	-1.578190e+01
1.930000e-06	3.923824e-07	-1.831246e-10	2.728860e+00	-1.432334e+01
1.940000e-06	4.389678e-07	-1.635810e-10	3.052843e+00	-1.283699e+01
1.950000e-06	4.856730e-07	-1.439042e-10	3.377658e+00	-1.132419e+01
1.960000e-06	5.323788e-07	-1.251855e-10	3.702478e+00	-9.786413e+00
1.970000e-06	5.789626e-07	-1.070676e-10	4.026450e+00	-8.225244e+00
1.980000e-06	6.253755e-07	-8.808246e-11	4.349232e+00	-6.642393e+00
1.990000e-06	6.716680e-07	-6.638985e-11	4.671178e+00	-5.039674e+00
2.000000e-06	7.179452e-07	-4.191825e-11	4.993017e+00	-3.419001e+00
2.010000e-06	7.642037e-07	-1.485092e-11	5.314726e+00	-1.782380e+00
2.020000e-06	8.104334e-07	1.184848e-11	5.636235e+00	-1.318951e-01
2.030000e-06	8.566917e-07	3.503919e-11	5.957943e+00	1.530298e+00
2.040000e-06	9.029081e-07	5.438994e-11	6.279359e+00	3.201985e+00
2.050000e-06	9.490125e-07	7.402845e-11	6.599996e+00	4.880901e+00
2.060000e-06	9.950359e-07	9.724734e-11	6.920070e+00	6.564748e+00
2.070000e-06	1.040999e-06	1.220180e-10	7.239727e+00	8.251202e+00
2.080000e-06	1.086867e-06	1.476890e-10	7.558717e+00	9.937927e+00
2.090000e-06	1.132643e-06	1.750523e-10	7.877070e+00	1.162259e+01
2.100000e-06	1.178347e-06	1.998371e-10	8.194921e+00	1.330286e+01
2.110000e-06	1.224010e-06	2.209978e-10	8.512494e+00	1.497645e+01
2.120000e-06	1.269617e-06	2.403513e-10	8.829673e+00	1.664109e+01
2.130000e-06	1.315081e-06	2.598770e-10	9.145853e+00	1.829458e+01
2.140000e-06	1.360434e-06	2.794524e-10	9.461267e+00	1.993475e+01
2.150000e-06	1.405723e-06	3.017773e-10	9.776231e+00	2.155952e+01
2.160000e-06	1.450956e-06	3.275719e-10	1.009081e+01	2.316691e+01
2.170000e-06	1.496119e-06	3.532120e-10	1.040490e+01	2.475498e+01
2.180000e-06	1.541175e-06	3.763733e-10	1.071824e+01	2.632193e+01
2.190000e-06	1.586020e-06	3.959616e-10	1.103013e+01	2.786606e+01
2.200000e-06	1.630667e-06	4.129951e-10	1.134063e+01	2.938577e+01
2.210000e-06	1.675199e-06	4.274498e-10	1.165033e+01	3.087959e+01
2.220000e-06	1.719608e-06	4.409678e-10	1.195917e+01	3.234618e+01
2.230000e-06	1.763906e-06	4.582166e-10	1.226725e+01	3.378433e+01
2.240000e-06	1.808093e-06	4.791871e-10	1.257455e+01	3.519294e+01
2.250000e-06	1.852156e-06	5.005254e-10	1.288099e+01	3.657108e+01
2.260000e-06	1.896147e-06	5.208891e-10	1.318693e+01	3.791793e+01
2.270000e-06	1.940098e-06	5.415504e-10	1.349259e+01	3.923282e+01
2.280000e-06	1.984000e-06	5.602265e-10	1.379791e+01	4.051522e+01
2.290000e-06	2.027834e-06	5.765859e-10	1.410276e+01	4.176472e+01
2.300000e-06	2.071585e-06	5.918872e-10	1.440703e+01	4.298106e+01
2.310000e-06	2.115317e-06	6.069746e-10	1.471117e+01	4.416409e+01
2.320000e-06	2.159022e-06	6.221720e-10	1.501512e+01	4.531379e+01
2.330000e-06	2.202531e-06	6.389065e-10	1.531771e+01	4.643026e+01
2.340000e-06	2.245872e-06	6.565092e-10	1.561913e+01	4.751372e+01
2.350000e-06	2.289144e-06	6.732610e-10	1.592007e+01	4.856448e+01
2.360000e-06	2.332199e-06	6.877642e-10	1.621950e+01	4.958297e+01
2.370000e-06	2.374854e-06	6.987134e-10	1.651615e+01	5.056968e+01
2.380000e-06	2.417126e-06	7.082360e-10	1.681013e+01	5.152520e+01
2.390000e-06	2.459061e-06	7.184488e-10	1.710177e+01	5.245020e+01
2.400000e-06	2.500686e-06	7.293032e-10	1.739126e+01	5.334541e+01
2.410000e-06	2.542045e-06	7.411519e-10	1.767889e+01	5.421161e+01
2.420000e-06	2.583226e-06	7.561563e-10	1.796529e+01	5.504963e+01
2.430000e-06	2.624083e-06	7.723932e-10	1.824943e+01	5.586033e+01
2.440000e-06	2.664538e-06	7.856061e-10	1.853078e+01	5.664463e+01
2.450000e-06	2.704819e-06	7.955402e-10	1.881092e+01	5.740343e+01
2.460000e-06	2.745017e-06	8.041589e-10	1.909048e+01	5.813766e+01
2.470000e-06	2.785134e-06	8.127022e-10	1.936948e+01	5.884825e+01
2.480000e-06	2.825089e-06	8.236015e-10	1.964735e+01	5.953615e+01
2.490000e-06	2.864870e-06	8.364296e-10	1.992400e+01	6.020225e+01
2.500000e-06	2.904577e-06	8.491084e-10	2.020016e+01	6.084747e+01
2.510000e-06	2.944267e-06	8.595174e-10	2.047618e+01	6.147267e+01
2.520000e-06	2.983735e-06	8.675697e-10	2.075066e+01	6.207870e+01
2.530000e-06	3.022865e-06	8.739968e-10	2.102280e+01	6.266637e+01
2.540000e-06	3.061714e-06	8.797631e-10	2.129298e+01	6.323644e+01
2.550000e-06	3.100387e-06	8.857243e-10	2.156193e+01	6.378966e+01
2.560000e-06	3.138908e-06	8.930782e-10	2.182983e+01	6.432670e+01
2.570000e-06	3.177157e-06	9.014715e-10	2.209584e+01	6.484819e+01
2.580000e-06	3.215186e-06	9.096468e-10	2.236031e+01	6.535472e+01
2.590000e-06	3.253077e-06	9.168569e-10	2.262383e+01	6.584684e+01
2.600000e-06	3.290767e-06	9.222649e-10	2.288595e+01	6.632502e+01
2.610000e-06	3.328250e-06	9.260416e-10	2.314662e+01	6.678970e+01
2.620000e-06	3.365499e-06	9.299312e-10	2.340568e+01	6.724129e+01
2.630000e-06	3.402452e-06	9.349658e-10	2.366267e+01	6.768012e+01
2.640000e-06	3.439036e-06	9.416320e-10	2.391710e+01	6.810650e+01
2.650000e-06	3.475339e-06	9.484218e-10	2.416957e+01	6.852069e+01
2.660000e-06	3.511496e-06	9.544210e-10	2.442103e+01	6.892293e+01
2.670000e-06	3.547471e-06	9.600829e-10	2.467122e+01	6.931339e+01
2.680000e-06	3.583346e-06	9.658372e-10	2.492071e+01	6.969226e+01
2.690000e-06	3.619151e-06	9.712183e-10	2.516972e+01	7.005967e+01
2.700000e-06	3.654829e-06	9.748514e-10	2.541785e+01	7.041574e+01
2.710000e-06	3.690323e-06	9.787485e-10	2.566469e+01	7.076058e+01
2.720000e-06	3.725569e-06	9.845693e-10	2.590982e+01	7.109428e+01
2.730000e-06	3.760447e-06	9.912257e-10	2.615238e+01	7.141692e+01
2.740000e-06	3.794822e-06	9.980228e-10	2.639145e+01	7.172859e+01
2.750000e-06	3.828735e-06	1.004981e-09	2.662730e+01	7.202938e+01
2.760000e-06	3.862241e-06	1.010699e-09	2.686031e+01	7.231938e+01
2.770000e-06	3.895286e-06	1.014608e-09	2.709013e+01	7.259869e+01
2.780000e-06	3.927930e-06	1.018541e-09	2.731716e+01	7.286743e+01
2.790000e-06	3.960311e-06	1.022991e-09	2.754235e+01	7.312572e+01
2.800000e-06	3.992428e-06	1.026562e-09	2.776571e+01	7.337372e+01
2.810000e-06	4.024321e-06	1.028462e-09	2.798752e+01	7.361161e+01
2.820000e-06	4.056053e-06	1.030857e-09	2.820820e+01	7.383956e+01
2.830000e-06	4.087632e-06	1.035893e-09	2.842782e+01	7.405781e+01
2.840000e-06	4.119027e-06	1.040523e-09	2.864616e+01	7.426660e+01
2.850000e-06	4.150161e-06	1.044482e-09	2.886269e+01	7.446620e+01
2.860000e-06	4.180981e-06	1.049115e-09	2.907702e+01	7.465690e+01
2.870000e-06	4.211418e-06	1.053689e-09	2.928870e+01	7.483903e+01
2.880000e-06	4.241522e-06	1.057738e-09	2.949806e+01	7.501292e+01
2.890000e-06	4.271371e-06	1.061886e-09	2.970565e+01	7.517895e+01
2.900000e-06	4.300925e-06	1.066767e-09	2.991118e+01	7.533750e+01
