# Temperatura_=_-18.35
# Concentracion g/m^3_=_1620.0
# C_Vs_to_Am_M_A/Vsm_=_65563218390.804596
# pendiente_HvsI_1/m_=_3716.3
# ordenada_HvsI_A/m_=_1297.0
# frecuencia_Hz_=_135109.89874107728

Tiempo_(s)	Campo_(V.s)	Magnetizacion_(V.s)	Campo_(kA/m)	Magnetizacion_(A/m)
0.000000e+00	-5.521391e-06	-7.504817e-10	-3.836875e+01	-5.123738e+01
1.000000e-08	-5.521609e-06	-7.497461e-10	-3.837026e+01	-5.126894e+01
2.000000e-08	-5.521644e-06	-7.492917e-10	-3.837050e+01	-5.130518e+01
3.000000e-08	-5.521410e-06	-7.482546e-10	-3.836888e+01	-5.134594e+01
4.000000e-08	-5.520693e-06	-7.462444e-10	-3.836390e+01	-5.139100e+01
5.000000e-08	-5.519256e-06	-7.428648e-10	-3.835391e+01	-5.144013e+01
6.000000e-08	-5.517300e-06	-7.383667e-10	-3.834032e+01	-5.149303e+01
7.000000e-08	-5.514896e-06	-7.360826e-10	-3.832361e+01	-5.154939e+01
8.000000e-08	-5.511881e-06	-7.316076e-10	-3.830266e+01	-5.160884e+01
9.000000e-08	-5.508363e-06	-7.384173e-10	-3.827822e+01	-5.167100e+01
1.000000e-07	-5.504398e-06	-7.550953e-10	-3.825066e+01	-5.173545e+01
1.100000e-07	-5.499997e-06	-7.405803e-10	-3.822008e+01	-5.180176e+01
1.200000e-07	-5.495424e-06	-7.000252e-10	-3.818830e+01	-5.186948e+01
1.300000e-07	-5.490696e-06	-7.317714e-10	-3.815545e+01	-5.193813e+01
1.400000e-07	-5.485585e-06	-7.688163e-10	-3.811993e+01	-5.200723e+01
1.500000e-07	-5.480005e-06	-7.626637e-10	-3.808115e+01	-5.207631e+01
1.600000e-07	-5.474035e-06	-6.954868e-10	-3.803967e+01	-5.214488e+01
1.700000e-07	-5.467771e-06	-7.162230e-10	-3.799614e+01	-5.221246e+01
1.800000e-07	-5.461075e-06	-7.811223e-10	-3.794960e+01	-5.227859e+01
1.900000e-07	-5.453941e-06	-7.906778e-10	-3.790003e+01	-5.234281e+01
2.000000e-07	-5.446476e-06	-7.258137e-10	-3.784816e+01	-5.240469e+01
2.100000e-07	-5.438726e-06	-7.266815e-10	-3.779430e+01	-5.246383e+01
2.200000e-07	-5.430716e-06	-7.964539e-10	-3.773864e+01	-5.251984e+01
2.300000e-07	-5.422383e-06	-8.273048e-10	-3.768073e+01	-5.257238e+01
2.400000e-07	-5.413715e-06	-7.900390e-10	-3.762050e+01	-5.262112e+01
2.500000e-07	-5.404494e-06	-7.828496e-10	-3.755642e+01	-5.266580e+01
2.600000e-07	-5.394479e-06	-8.215049e-10	-3.748682e+01	-5.270619e+01
2.700000e-07	-5.383848e-06	-8.130999e-10	-3.741294e+01	-5.274209e+01
2.800000e-07	-5.372767e-06	-7.810779e-10	-3.733594e+01	-5.277337e+01
2.900000e-07	-5.361273e-06	-7.831047e-10	-3.725607e+01	-5.279991e+01
3.000000e-07	-5.349416e-06	-8.243944e-10	-3.717367e+01	-5.282168e+01
3.100000e-07	-5.337177e-06	-8.041430e-10	-3.708863e+01	-5.283867e+01
3.200000e-07	-5.324526e-06	-7.940484e-10	-3.700071e+01	-5.285092e+01
3.300000e-07	-5.311370e-06	-8.064823e-10	-3.690929e+01	-5.285853e+01
3.400000e-07	-5.297818e-06	-8.334827e-10	-3.681512e+01	-5.286163e+01
3.500000e-07	-5.283944e-06	-7.961025e-10	-3.671870e+01	-5.286041e+01
3.600000e-07	-5.269632e-06	-7.743085e-10	-3.661925e+01	-5.285508e+01
3.700000e-07	-5.254896e-06	-7.834993e-10	-3.651685e+01	-5.284590e+01
3.800000e-07	-5.239726e-06	-8.180811e-10	-3.641142e+01	-5.283318e+01
3.900000e-07	-5.223838e-06	-7.942492e-10	-3.630102e+01	-5.281723e+01
4.000000e-07	-5.207360e-06	-7.807885e-10	-3.618652e+01	-5.279842e+01
4.100000e-07	-5.190685e-06	-8.073331e-10	-3.607063e+01	-5.277712e+01
4.200000e-07	-5.173629e-06	-8.179026e-10	-3.595211e+01	-5.275373e+01
4.300000e-07	-5.156137e-06	-7.698025e-10	-3.583056e+01	-5.272866e+01
4.400000e-07	-5.138407e-06	-7.734263e-10	-3.570735e+01	-5.270234e+01
4.500000e-07	-5.120399e-06	-8.202205e-10	-3.558221e+01	-5.267519e+01
4.600000e-07	-5.101950e-06	-7.929192e-10	-3.545401e+01	-5.264765e+01
4.700000e-07	-5.083094e-06	-7.500475e-10	-3.532298e+01	-5.262014e+01
4.800000e-07	-5.063972e-06	-7.946225e-10	-3.519009e+01	-5.259308e+01
4.900000e-07	-5.044534e-06	-8.199587e-10	-3.505502e+01	-5.256687e+01
5.000000e-07	-5.024798e-06	-7.686666e-10	-3.491787e+01	-5.254190e+01
5.100000e-07	-5.004862e-06	-7.765139e-10	-3.477933e+01	-5.251852e+01
5.200000e-07	-4.984691e-06	-8.138013e-10	-3.463916e+01	-5.249708e+01
5.300000e-07	-4.964157e-06	-7.878492e-10	-3.449647e+01	-5.247788e+01
5.400000e-07	-4.943235e-06	-7.727897e-10	-3.435108e+01	-5.246119e+01
5.500000e-07	-4.921895e-06	-8.141261e-10	-3.420278e+01	-5.244726e+01
5.600000e-07	-4.900192e-06	-7.889658e-10	-3.405197e+01	-5.243629e+01
5.700000e-07	-4.878236e-06	-7.530537e-10	-3.389939e+01	-5.242843e+01
5.800000e-07	-4.855971e-06	-7.873466e-10	-3.374468e+01	-5.242381e+01
5.900000e-07	-4.833305e-06	-8.048792e-10	-3.358716e+01	-5.242250e+01
6.000000e-07	-4.810320e-06	-7.665896e-10	-3.342744e+01	-5.242454e+01
6.100000e-07	-4.787084e-06	-7.780045e-10	-3.326597e+01	-5.242991e+01
6.200000e-07	-4.763534e-06	-7.983791e-10	-3.310232e+01	-5.243858e+01
6.300000e-07	-4.739742e-06	-7.790575e-10	-3.293698e+01	-5.245044e+01
6.400000e-07	-4.715733e-06	-7.724904e-10	-3.277014e+01	-5.246537e+01
6.500000e-07	-4.691395e-06	-7.952423e-10	-3.260101e+01	-5.248319e+01
6.600000e-07	-4.666606e-06	-7.831655e-10	-3.242876e+01	-5.250370e+01
6.700000e-07	-4.641426e-06	-7.760749e-10	-3.225378e+01	-5.252666e+01
6.800000e-07	-4.615772e-06	-7.863004e-10	-3.207550e+01	-5.255181e+01
6.900000e-07	-4.589545e-06	-7.881944e-10	-3.189325e+01	-5.257885e+01
7.000000e-07	-4.562757e-06	-7.849804e-10	-3.170709e+01	-5.260747e+01
7.100000e-07	-4.535564e-06	-7.894549e-10	-3.151813e+01	-5.263733e+01
7.200000e-07	-4.508118e-06	-7.809409e-10	-3.132741e+01	-5.266807e+01
7.300000e-07	-4.480439e-06	-7.765070e-10	-3.113506e+01	-5.269935e+01
7.400000e-07	-4.452573e-06	-7.819002e-10	-3.094141e+01	-5.273079e+01
7.500000e-07	-4.424450e-06	-7.781144e-10	-3.074599e+01	-5.276202e+01
7.600000e-07	-4.396055e-06	-7.727182e-10	-3.054867e+01	-5.279268e+01
7.700000e-07	-4.367425e-06	-7.778480e-10	-3.034971e+01	-5.282240e+01
7.800000e-07	-4.338466e-06	-7.768956e-10	-3.014847e+01	-5.285085e+01
7.900000e-07	-4.309149e-06	-7.726049e-10	-2.994474e+01	-5.287767e+01
8.000000e-07	-4.279555e-06	-7.812295e-10	-2.973910e+01	-5.290256e+01
8.100000e-07	-4.249659e-06	-7.823102e-10	-2.953135e+01	-5.292522e+01
8.200000e-07	-4.219386e-06	-7.749325e-10	-2.932097e+01	-5.294538e+01
8.300000e-07	-4.188829e-06	-7.756114e-10	-2.910863e+01	-5.296279e+01
8.400000e-07	-4.158061e-06	-7.816958e-10	-2.889482e+01	-5.297724e+01
8.500000e-07	-4.127106e-06	-7.754827e-10	-2.867971e+01	-5.298854e+01
8.600000e-07	-4.095853e-06	-7.733843e-10	-2.846253e+01	-5.299655e+01
8.700000e-07	-4.064333e-06	-7.763766e-10	-2.824349e+01	-5.300114e+01
8.800000e-07	-4.032709e-06	-7.739588e-10	-2.802373e+01	-5.300225e+01
8.900000e-07	-4.000899e-06	-7.680670e-10	-2.780268e+01	-5.299981e+01
9.000000e-07	-3.968805e-06	-7.741186e-10	-2.757966e+01	-5.299383e+01
9.100000e-07	-3.936354e-06	-7.747754e-10	-2.735415e+01	-5.298433e+01
9.200000e-07	-3.903620e-06	-7.692690e-10	-2.712668e+01	-5.297136e+01
9.300000e-07	-3.870524e-06	-7.672835e-10	-2.689670e+01	-5.295501e+01
9.400000e-07	-3.836975e-06	-7.726011e-10	-2.666355e+01	-5.293540e+01
9.500000e-07	-3.802904e-06	-7.682445e-10	-2.642679e+01	-5.291269e+01
9.600000e-07	-3.768354e-06	-7.658635e-10	-2.618670e+01	-5.288703e+01
9.700000e-07	-3.733522e-06	-7.669474e-10	-2.594465e+01	-5.285864e+01
9.800000e-07	-3.698384e-06	-7.650517e-10	-2.570048e+01	-5.282772e+01
9.900000e-07	-3.662931e-06	-7.607369e-10	-2.545410e+01	-5.279450e+01
1.000000e-06	-3.627311e-06	-7.636574e-10	-2.520658e+01	-5.275923e+01
1.010000e-06	-3.591561e-06	-7.661479e-10	-2.495815e+01	-5.272217e+01
1.020000e-06	-3.555666e-06	-7.664358e-10	-2.470871e+01	-5.268358e+01
1.030000e-06	-3.519611e-06	-7.687498e-10	-2.445816e+01	-5.264370e+01
1.040000e-06	-3.483315e-06	-7.698478e-10	-2.420593e+01	-5.260282e+01
1.050000e-06	-3.446809e-06	-7.670846e-10	-2.395225e+01	-5.256117e+01
1.060000e-06	-3.410125e-06	-7.654281e-10	-2.369733e+01	-5.251901e+01
1.070000e-06	-3.373215e-06	-7.657479e-10	-2.344084e+01	-5.247657e+01
1.080000e-06	-3.335952e-06	-7.641849e-10	-2.318189e+01	-5.243407e+01
1.090000e-06	-3.298322e-06	-7.643845e-10	-2.292040e+01	-5.239170e+01
1.100000e-06	-3.260506e-06	-7.655345e-10	-2.265761e+01	-5.234964e+01
1.110000e-06	-3.222526e-06	-7.645927e-10	-2.239368e+01	-5.230806e+01
1.120000e-06	-3.184365e-06	-7.632065e-10	-2.212850e+01	-5.226707e+01
1.130000e-06	-3.146075e-06	-7.644010e-10	-2.186242e+01	-5.222679e+01
1.140000e-06	-3.107537e-06	-7.635277e-10	-2.159461e+01	-5.218727e+01
1.150000e-06	-3.068715e-06	-7.634800e-10	-2.132483e+01	-5.214856e+01
1.160000e-06	-3.029715e-06	-7.630908e-10	-2.105382e+01	-5.211067e+01
1.170000e-06	-2.990509e-06	-7.630508e-10	-2.078137e+01	-5.207358e+01
1.180000e-06	-2.951105e-06	-7.608160e-10	-2.050755e+01	-5.203724e+01
1.190000e-06	-2.911559e-06	-7.620584e-10	-2.023274e+01	-5.200155e+01
1.200000e-06	-2.871853e-06	-7.607212e-10	-1.995682e+01	-5.196640e+01
1.210000e-06	-2.831979e-06	-7.565137e-10	-1.967973e+01	-5.193165e+01
1.220000e-06	-2.791907e-06	-7.548287e-10	-1.940127e+01	-5.189712e+01
1.230000e-06	-2.751667e-06	-7.565692e-10	-1.912163e+01	-5.186261e+01
1.240000e-06	-2.711277e-06	-7.561387e-10	-1.884096e+01	-5.182788e+01
1.250000e-06	-2.670736e-06	-7.578747e-10	-1.855923e+01	-5.179269e+01
1.260000e-06	-2.630006e-06	-7.602534e-10	-1.827620e+01	-5.175676e+01
1.270000e-06	-2.589046e-06	-7.596708e-10	-1.799156e+01	-5.171980e+01
1.280000e-06	-2.547804e-06	-7.550973e-10	-1.770497e+01	-5.168149e+01
1.290000e-06	-2.506198e-06	-7.516958e-10	-1.741584e+01	-5.164150e+01
1.300000e-06	-2.464337e-06	-7.484493e-10	-1.712494e+01	-5.159951e+01
1.310000e-06	-2.422280e-06	-7.461264e-10	-1.683269e+01	-5.155516e+01
1.320000e-06	-2.379955e-06	-7.474429e-10	-1.653857e+01	-5.150809e+01
1.330000e-06	-2.337324e-06	-7.497183e-10	-1.624232e+01	-5.145794e+01
1.340000e-06	-2.294434e-06	-7.484065e-10	-1.594427e+01	-5.140434e+01
1.350000e-06	-2.251362e-06	-7.446190e-10	-1.564496e+01	-5.134693e+01
1.360000e-06	-2.208114e-06	-7.413677e-10	-1.534442e+01	-5.128533e+01
1.370000e-06	-2.164687e-06	-7.369563e-10	-1.504265e+01	-5.121918e+01
1.380000e-06	-2.121117e-06	-7.334399e-10	-1.473988e+01	-5.114811e+01
1.390000e-06	-2.077418e-06	-7.326093e-10	-1.443620e+01	-5.107175e+01
1.400000e-06	-2.033563e-06	-7.336770e-10	-1.413145e+01	-5.098975e+01
1.410000e-06	-1.989627e-06	-7.329672e-10	-1.382613e+01	-5.090175e+01
1.420000e-06	-1.945689e-06	-7.326884e-10	-1.352081e+01	-5.080739e+01
1.430000e-06	-1.901684e-06	-7.316559e-10	-1.321501e+01	-5.070634e+01
1.440000e-06	-1.857581e-06	-7.304708e-10	-1.290853e+01	-5.059824e+01
1.450000e-06	-1.813383e-06	-7.277480e-10	-1.260140e+01	-5.048274e+01
1.460000e-06	-1.769004e-06	-7.242618e-10	-1.229300e+01	-5.035950e+01
1.470000e-06	-1.724475e-06	-7.199150e-10	-1.198356e+01	-5.022818e+01
1.480000e-06	-1.679854e-06	-7.175489e-10	-1.167349e+01	-5.008842e+01
1.490000e-06	-1.635120e-06	-7.163871e-10	-1.136263e+01	-4.993988e+01
1.500000e-06	-1.590302e-06	-7.142497e-10	-1.105118e+01	-4.978218e+01
1.510000e-06	-1.545411e-06	-7.118603e-10	-1.073923e+01	-4.961497e+01
1.520000e-06	-1.500334e-06	-7.101344e-10	-1.042598e+01	-4.943785e+01
1.530000e-06	-1.455056e-06	-7.057447e-10	-1.011134e+01	-4.925044e+01
1.540000e-06	-1.409680e-06	-6.988982e-10	-9.796022e+00	-4.905231e+01
1.550000e-06	-1.364222e-06	-6.920403e-10	-9.480129e+00	-4.884304e+01
1.560000e-06	-1.318621e-06	-6.867339e-10	-9.163238e+00	-4.862218e+01
1.570000e-06	-1.272918e-06	-6.829529e-10	-8.845646e+00	-4.838924e+01
1.580000e-06	-1.227237e-06	-6.795742e-10	-8.528203e+00	-4.814374e+01
1.590000e-06	-1.181568e-06	-6.781050e-10	-8.210847e+00	-4.788513e+01
1.600000e-06	-1.135801e-06	-6.787093e-10	-7.892807e+00	-4.761287e+01
1.610000e-06	-1.089880e-06	-6.783315e-10	-7.573696e+00	-4.732636e+01
1.620000e-06	-1.043836e-06	-6.755957e-10	-7.253733e+00	-4.702501e+01
1.630000e-06	-9.976919e-07	-6.711025e-10	-6.933070e+00	-4.670816e+01
1.640000e-06	-9.514804e-07	-6.652834e-10	-6.611941e+00	-4.637513e+01
1.650000e-06	-9.052337e-07	-6.592345e-10	-6.290567e+00	-4.602524e+01
1.660000e-06	-8.589640e-07	-6.521605e-10	-5.969035e+00	-4.565774e+01
1.670000e-06	-8.126592e-07	-6.447562e-10	-5.647258e+00	-4.527188e+01
1.680000e-06	-7.662809e-07	-6.375691e-10	-5.324969e+00	-4.486689e+01
1.690000e-06	-7.198801e-07	-6.313542e-10	-5.002525e+00	-4.444196e+01
1.700000e-06	-6.734667e-07	-6.249303e-10	-4.679994e+00	-4.399627e+01
1.710000e-06	-6.269812e-07	-6.184385e-10	-4.356961e+00	-4.352900e+01
1.720000e-06	-5.805113e-07	-6.134584e-10	-4.034036e+00	-4.303931e+01
1.730000e-06	-5.340150e-07	-6.088201e-10	-3.710928e+00	-4.252634e+01
1.740000e-06	-4.874672e-07	-6.025375e-10	-3.387463e+00	-4.198927e+01
1.750000e-06	-4.409018e-07	-5.942319e-10	-3.063875e+00	-4.142725e+01
1.760000e-06	-3.942089e-07	-5.848976e-10	-2.739400e+00	-4.083946e+01
1.770000e-06	-3.474742e-07	-5.756278e-10	-2.414636e+00	-4.022510e+01
1.780000e-06	-3.007658e-07	-5.662341e-10	-2.090054e+00	-3.958340e+01
1.790000e-06	-2.539491e-07	-5.563243e-10	-1.764720e+00	-3.891361e+01
1.800000e-06	-2.070840e-07	-5.461795e-10	-1.439049e+00	-3.821503e+01
1.810000e-06	-1.602556e-07	-5.363290e-10	-1.113633e+00	-3.748702e+01
1.820000e-06	-1.133980e-07	-5.246805e-10	-7.880152e-01	-3.672897e+01
1.830000e-06	-6.658061e-08	-5.127129e-10	-4.626759e-01	-3.594036e+01
1.840000e-06	-1.980435e-08	-5.025652e-10	-1.376226e-01	-3.512072e+01
1.850000e-06	2.707307e-08	-4.919717e-10	1.881337e-01	-3.426967e+01
1.860000e-06	7.402687e-08	-4.781592e-10	5.144208e-01	-3.338691e+01
1.870000e-06	1.209568e-07	-4.615230e-10	8.405417e-01	-3.247223e+01
1.880000e-06	1.678411e-07	-4.449564e-10	1.166346e+00	-3.152553e+01
1.890000e-06	2.146943e-07	-4.303224e-10	1.491934e+00	-3.054678e+01
1.900000e-06	2.615613e-07	-4.171047e-10	1.817618e+00	-2.953610e+01
1.910000e-06	3.083946e-07	-4.054598e-10	2.143067e+00	-2.849369e+01
1.920000e-06	3.551534e-07	-3.955371e-10	2.468000e+00	-2.741989e+01
1.930000e-06	4.018591e-07	-3.836649e-10	2.792562e+00	-2.631513e+01
1.940000e-06	4.484871e-07	-3.679339e-10	3.116586e+00	-2.517998e+01
1.950000e-06	4.950274e-07	-3.472753e-10	3.440000e+00	-2.401515e+01
1.960000e-06	5.415627e-07	-3.239623e-10	3.763378e+00	-2.282144e+01
1.970000e-06	5.880832e-07	-3.023229e-10	4.086655e+00	-2.159979e+01
1.980000e-06	6.345422e-07	-2.844007e-10	4.409503e+00	-2.035127e+01
1.990000e-06	6.809636e-07	-2.697135e-10	4.732090e+00	-1.907705e+01
2.000000e-06	7.273290e-07	-2.542971e-10	5.054289e+00	-1.777843e+01
2.010000e-06	7.736065e-07	-2.340172e-10	5.375876e+00	-1.645683e+01
2.020000e-06	8.198079e-07	-2.095937e-10	5.696935e+00	-1.511376e+01
2.030000e-06	8.659646e-07	-1.848912e-10	6.017682e+00	-1.375086e+01
2.040000e-06	9.120123e-07	-1.622865e-10	6.337673e+00	-1.236983e+01
2.050000e-06	9.580645e-07	-1.417752e-10	6.657695e+00	-1.097250e+01
2.060000e-06	1.004115e-06	-1.237349e-10	6.977702e+00	-9.560758e+00
2.070000e-06	1.050103e-06	-1.086749e-10	7.297280e+00	-8.136566e+00
2.080000e-06	1.096055e-06	-9.267639e-11	7.616608e+00	-6.701956e+00
2.090000e-06	1.141856e-06	-7.119398e-11	7.934880e+00	-5.259013e+00
2.100000e-06	1.187564e-06	-4.706976e-11	8.252510e+00	-3.809865e+00
2.110000e-06	1.233212e-06	-2.344656e-11	8.569722e+00	-2.356675e+00
2.120000e-06	1.278738e-06	-3.333311e-13	8.886090e+00	-9.016267e-01
2.130000e-06	1.324191e-06	2.054705e-11	9.201944e+00	5.530846e-01
2.140000e-06	1.369558e-06	3.752595e-11	9.517211e+00	2.005263e+00
2.150000e-06	1.414896e-06	5.296650e-11	9.832264e+00	3.452725e+00
2.160000e-06	1.460172e-06	7.155565e-11	1.014689e+01	4.893308e+00
2.170000e-06	1.505280e-06	9.303345e-11	1.046036e+01	6.324886e+00
2.180000e-06	1.550319e-06	1.149406e-10	1.077333e+01	7.745375e+00
2.190000e-06	1.595263e-06	1.375116e-10	1.108566e+01	9.152748e+00
2.200000e-06	1.639965e-06	1.591017e-10	1.139629e+01	1.054504e+01
2.210000e-06	1.684492e-06	1.765146e-10	1.170572e+01	1.192038e+01
2.220000e-06	1.728990e-06	1.899115e-10	1.201494e+01	1.327694e+01
2.230000e-06	1.773395e-06	2.024529e-10	1.232352e+01	1.461303e+01
2.240000e-06	1.817645e-06	2.168039e-10	1.263101e+01	1.592704e+01
2.250000e-06	1.861771e-06	2.338361e-10	1.293765e+01	1.721747e+01
2.260000e-06	1.905771e-06	2.542829e-10	1.324341e+01	1.848292e+01
2.270000e-06	1.949646e-06	2.766045e-10	1.354830e+01	1.972214e+01
2.280000e-06	1.993484e-06	2.972359e-10	1.385294e+01	2.093397e+01
2.290000e-06	2.037349e-06	3.142373e-10	1.415776e+01	2.211741e+01
2.300000e-06	2.081173e-06	3.281860e-10	1.446230e+01	2.327156e+01
2.310000e-06	2.124911e-06	3.399374e-10	1.476624e+01	2.439566e+01
2.320000e-06	2.168508e-06	3.519022e-10	1.506920e+01	2.548911e+01
2.330000e-06	2.211977e-06	3.658727e-10	1.537127e+01	2.655139e+01
2.340000e-06	2.255413e-06	3.805270e-10	1.567311e+01	2.758214e+01
2.350000e-06	2.298706e-06	3.956946e-10	1.597396e+01	2.858114e+01
2.360000e-06	2.341783e-06	4.102788e-10	1.627331e+01	2.954827e+01
2.370000e-06	2.384567e-06	4.210183e-10	1.657062e+01	3.048354e+01
2.380000e-06	2.426943e-06	4.304996e-10	1.686509e+01	3.138708e+01
2.390000e-06	2.468936e-06	4.409044e-10	1.715690e+01	3.225912e+01
2.400000e-06	2.510585e-06	4.517058e-10	1.744633e+01	3.310000e+01
2.410000e-06	2.551911e-06	4.640643e-10	1.773351e+01	3.391016e+01
2.420000e-06	2.592910e-06	4.768031e-10	1.801841e+01	3.469013e+01
2.430000e-06	2.633628e-06	4.891239e-10	1.830137e+01	3.544051e+01
2.440000e-06	2.674093e-06	5.012861e-10	1.858256e+01	3.616200e+01
2.450000e-06	2.714382e-06	5.118839e-10	1.886254e+01	3.685535e+01
2.460000e-06	2.754599e-06	5.200549e-10	1.914201e+01	3.752135e+01
2.470000e-06	2.794682e-06	5.281284e-10	1.942055e+01	3.816088e+01
2.480000e-06	2.834580e-06	5.374694e-10	1.969781e+01	3.877481e+01
2.490000e-06	2.874340e-06	5.472759e-10	1.997410e+01	3.936409e+01
2.500000e-06	2.914011e-06	5.573849e-10	2.024978e+01	3.992966e+01
2.510000e-06	2.953561e-06	5.673712e-10	2.052461e+01	4.047248e+01
2.520000e-06	2.992941e-06	5.750249e-10	2.079827e+01	4.099353e+01
2.530000e-06	3.032130e-06	5.812311e-10	2.107060e+01	4.149376e+01
2.540000e-06	3.071125e-06	5.889540e-10	2.134158e+01	4.197415e+01
2.550000e-06	3.109902e-06	5.965352e-10	2.161105e+01	4.243562e+01
2.560000e-06	3.148417e-06	6.027279e-10	2.187869e+01	4.287909e+01
2.570000e-06	3.186632e-06	6.098666e-10	2.214425e+01	4.330547e+01
2.580000e-06	3.224598e-06	6.187087e-10	2.240808e+01	4.371560e+01
2.590000e-06	3.262437e-06	6.272053e-10	2.267103e+01	4.411030e+01
2.600000e-06	3.300131e-06	6.349611e-10	2.293297e+01	4.449035e+01
2.610000e-06	3.337564e-06	6.418515e-10	2.319310e+01	4.485647e+01
2.620000e-06	3.374723e-06	6.453237e-10	2.345132e+01	4.520936e+01
2.630000e-06	3.411631e-06	6.470940e-10	2.370779e+01	4.554964e+01
2.640000e-06	3.448279e-06	6.518686e-10	2.396247e+01	4.587790e+01
2.650000e-06	3.484597e-06	6.580571e-10	2.421485e+01	4.619467e+01
2.660000e-06	3.520643e-06	6.636422e-10	2.446533e+01	4.650043e+01
2.670000e-06	3.556593e-06	6.681836e-10	2.471515e+01	4.679561e+01
2.680000e-06	3.592442e-06	6.724128e-10	2.496427e+01	4.708058e+01
2.690000e-06	3.628183e-06	6.750483e-10	2.521264e+01	4.735569e+01
2.700000e-06	3.663804e-06	6.792883e-10	2.546017e+01	4.762122e+01
2.710000e-06	3.699269e-06	6.831558e-10	2.570662e+01	4.787743e+01
2.720000e-06	3.734539e-06	6.872835e-10	2.595172e+01	4.812451e+01
2.730000e-06	3.769352e-06	6.927741e-10	2.619364e+01	4.836265e+01
2.740000e-06	3.803643e-06	6.980003e-10	2.643193e+01	4.859199e+01
2.750000e-06	3.837572e-06	7.039950e-10	2.666771e+01	4.881264e+01
2.760000e-06	3.871049e-06	7.081469e-10	2.690034e+01	4.902470e+01
2.770000e-06	3.903933e-06	7.110536e-10	2.712886e+01	4.922825e+01
2.780000e-06	3.936370e-06	7.138447e-10	2.735426e+01	4.942335e+01
2.790000e-06	3.968590e-06	7.191224e-10	2.757817e+01	4.961005e+01
2.800000e-06	4.000650e-06	7.271858e-10	2.780095e+01	4.978840e+01
2.810000e-06	4.032577e-06	7.332207e-10	2.802281e+01	4.995844e+01
2.820000e-06	4.064340e-06	7.363241e-10	2.824354e+01	5.012023e+01
2.830000e-06	4.095949e-06	7.371187e-10	2.846320e+01	5.027382e+01
2.840000e-06	4.127351e-06	7.334475e-10	2.868141e+01	5.041928e+01
2.850000e-06	4.158404e-06	7.308608e-10	2.889720e+01	5.055667e+01
2.860000e-06	4.189130e-06	7.340038e-10	2.911072e+01	5.068610e+01
2.870000e-06	4.219495e-06	7.419469e-10	2.932173e+01	5.080768e+01
2.880000e-06	4.249467e-06	7.496764e-10	2.953001e+01	5.092152e+01
2.890000e-06	4.279215e-06	7.563308e-10	2.973674e+01	5.102779e+01
2.900000e-06	4.308757e-06	7.586585e-10	2.994202e+01	5.112665e+01
