# Temperatura_=_2.83
# Concentracion g/m^3_=_1620.0
# C_Vs_to_Am_M_A/Vsm_=_65563218390.804596
# pendiente_HvsI_1/m_=_3716.3
# ordenada_HvsI_A/m_=_1297.0
# frecuencia_Hz_=_135107.62560028888

Tiempo_(s)	Campo_(V.s)	Magnetizacion_(V.s)	Campo_(kA/m)	Magnetizacion_(A/m)
0.000000e+00	-5.531548e-06	-1.209777e-09	-3.836824e+01	-8.271129e+01
1.000000e-08	-5.531763e-06	-1.204991e-09	-3.836973e+01	-8.269746e+01
2.000000e-08	-5.531776e-06	-1.201963e-09	-3.836982e+01	-8.268403e+01
3.000000e-08	-5.531630e-06	-1.200880e-09	-3.836880e+01	-8.267077e+01
4.000000e-08	-5.531091e-06	-1.200634e-09	-3.836506e+01	-8.265745e+01
5.000000e-08	-5.529877e-06	-1.199206e-09	-3.835664e+01	-8.264378e+01
6.000000e-08	-5.527974e-06	-1.194415e-09	-3.834344e+01	-8.262950e+01
7.000000e-08	-5.525530e-06	-1.190872e-09	-3.832650e+01	-8.261428e+01
8.000000e-08	-5.522627e-06	-1.207060e-09	-3.830636e+01	-8.259783e+01
9.000000e-08	-5.519250e-06	-1.218784e-09	-3.828294e+01	-8.257981e+01
1.000000e-07	-5.515384e-06	-1.182528e-09	-3.825612e+01	-8.255990e+01
1.100000e-07	-5.511173e-06	-1.165729e-09	-3.822691e+01	-8.253776e+01
1.200000e-07	-5.506718e-06	-1.208591e-09	-3.819601e+01	-8.251305e+01
1.300000e-07	-5.502060e-06	-1.221809e-09	-3.816370e+01	-8.248546e+01
1.400000e-07	-5.497039e-06	-1.174257e-09	-3.812888e+01	-8.245466e+01
1.500000e-07	-5.491579e-06	-1.143187e-09	-3.809100e+01	-8.242033e+01
1.600000e-07	-5.485832e-06	-1.193725e-09	-3.805114e+01	-8.238219e+01
1.700000e-07	-5.479684e-06	-1.226946e-09	-3.800849e+01	-8.233996e+01
1.800000e-07	-5.473071e-06	-1.191727e-09	-3.796263e+01	-8.229338e+01
1.900000e-07	-5.466060e-06	-1.180350e-09	-3.791399e+01	-8.224221e+01
2.000000e-07	-5.458738e-06	-1.207526e-09	-3.786321e+01	-8.218625e+01
2.100000e-07	-5.451157e-06	-1.202351e-09	-3.781062e+01	-8.212532e+01
2.200000e-07	-5.443269e-06	-1.183580e-09	-3.775591e+01	-8.205928e+01
2.300000e-07	-5.435138e-06	-1.189021e-09	-3.769951e+01	-8.198800e+01
2.400000e-07	-5.426672e-06	-1.219989e-09	-3.764079e+01	-8.191140e+01
2.500000e-07	-5.417577e-06	-1.229175e-09	-3.757771e+01	-8.182943e+01
2.600000e-07	-5.407792e-06	-1.217256e-09	-3.750983e+01	-8.174208e+01
2.700000e-07	-5.397383e-06	-1.186383e-09	-3.743763e+01	-8.164937e+01
2.800000e-07	-5.386335e-06	-1.175731e-09	-3.736100e+01	-8.155136e+01
2.900000e-07	-5.374827e-06	-1.190561e-09	-3.728118e+01	-8.144813e+01
3.000000e-07	-5.363036e-06	-1.199113e-09	-3.719939e+01	-8.133981e+01
3.100000e-07	-5.350879e-06	-1.183518e-09	-3.711507e+01	-8.122655e+01
3.200000e-07	-5.338245e-06	-1.191048e-09	-3.702743e+01	-8.110855e+01
3.300000e-07	-5.325198e-06	-1.232001e-09	-3.693694e+01	-8.098601e+01
3.400000e-07	-5.311803e-06	-1.218233e-09	-3.684403e+01	-8.085918e+01
3.500000e-07	-5.297942e-06	-1.169336e-09	-3.674788e+01	-8.072831e+01
3.600000e-07	-5.283573e-06	-1.177245e-09	-3.664822e+01	-8.059371e+01
3.700000e-07	-5.268782e-06	-1.203129e-09	-3.654562e+01	-8.045566e+01
3.800000e-07	-5.253547e-06	-1.168467e-09	-3.643995e+01	-8.031449e+01
3.900000e-07	-5.237851e-06	-1.171264e-09	-3.633108e+01	-8.017052e+01
4.000000e-07	-5.221641e-06	-1.220213e-09	-3.621864e+01	-8.002410e+01
4.100000e-07	-5.205026e-06	-1.189860e-09	-3.610340e+01	-7.987556e+01
4.200000e-07	-5.188167e-06	-1.137789e-09	-3.598646e+01	-7.972524e+01
4.300000e-07	-5.170972e-06	-1.193119e-09	-3.586719e+01	-7.957348e+01
4.400000e-07	-5.153489e-06	-1.206473e-09	-3.574592e+01	-7.942062e+01
4.500000e-07	-5.135741e-06	-1.129330e-09	-3.562282e+01	-7.926696e+01
4.600000e-07	-5.117467e-06	-1.147193e-09	-3.549606e+01	-7.911282e+01
4.700000e-07	-5.098565e-06	-1.216240e-09	-3.536496e+01	-7.895850e+01
4.800000e-07	-5.079286e-06	-1.152127e-09	-3.523123e+01	-7.880425e+01
4.900000e-07	-5.059788e-06	-1.120509e-09	-3.509599e+01	-7.865033e+01
5.000000e-07	-5.040141e-06	-1.200806e-09	-3.495971e+01	-7.849696e+01
5.100000e-07	-5.020305e-06	-1.185008e-09	-3.482213e+01	-7.834434e+01
5.200000e-07	-5.000123e-06	-1.111509e-09	-3.468214e+01	-7.819263e+01
5.300000e-07	-4.979627e-06	-1.173946e-09	-3.453997e+01	-7.804197e+01
5.400000e-07	-4.958807e-06	-1.205882e-09	-3.439556e+01	-7.789247e+01
5.500000e-07	-4.937645e-06	-1.121328e-09	-3.424878e+01	-7.774419e+01
5.600000e-07	-4.916179e-06	-1.127319e-09	-3.409988e+01	-7.759717e+01
5.700000e-07	-4.894415e-06	-1.187104e-09	-3.394892e+01	-7.745142e+01
5.800000e-07	-4.872246e-06	-1.132366e-09	-3.379515e+01	-7.730691e+01
5.900000e-07	-4.849664e-06	-1.108542e-09	-3.363851e+01	-7.716359e+01
6.000000e-07	-4.826790e-06	-1.174376e-09	-3.347986e+01	-7.702135e+01
6.100000e-07	-4.803570e-06	-1.155719e-09	-3.331880e+01	-7.688007e+01
6.200000e-07	-4.780046e-06	-1.102846e-09	-3.315562e+01	-7.673962e+01
6.300000e-07	-4.756351e-06	-1.138140e-09	-3.299127e+01	-7.659979e+01
6.400000e-07	-4.732410e-06	-1.147641e-09	-3.282521e+01	-7.646041e+01
6.500000e-07	-4.708092e-06	-1.100759e-09	-3.265653e+01	-7.632123e+01
6.600000e-07	-4.683355e-06	-1.117766e-09	-3.248495e+01	-7.618201e+01
6.700000e-07	-4.658125e-06	-1.145754e-09	-3.230995e+01	-7.604250e+01
6.800000e-07	-4.632386e-06	-1.115018e-09	-3.213142e+01	-7.590243e+01
6.900000e-07	-4.606097e-06	-1.108825e-09	-3.194907e+01	-7.576149e+01
7.000000e-07	-4.579276e-06	-1.135386e-09	-3.176303e+01	-7.561940e+01
7.100000e-07	-4.552043e-06	-1.113002e-09	-3.157413e+01	-7.547587e+01
7.200000e-07	-4.524575e-06	-1.089530e-09	-3.138361e+01	-7.533059e+01
7.300000e-07	-4.496949e-06	-1.105493e-09	-3.119199e+01	-7.518327e+01
7.400000e-07	-4.469132e-06	-1.105496e-09	-3.099904e+01	-7.503361e+01
7.500000e-07	-4.441165e-06	-1.086351e-09	-3.080506e+01	-7.488133e+01
7.600000e-07	-4.412951e-06	-1.098438e-09	-3.060936e+01	-7.472616e+01
7.700000e-07	-4.384397e-06	-1.102230e-09	-3.041130e+01	-7.456783e+01
7.800000e-07	-4.355518e-06	-1.081130e-09	-3.021099e+01	-7.440610e+01
7.900000e-07	-4.326299e-06	-1.076936e-09	-3.000832e+01	-7.424075e+01
8.000000e-07	-4.296727e-06	-1.083822e-09	-2.980320e+01	-7.407156e+01
8.100000e-07	-4.266906e-06	-1.069263e-09	-2.959635e+01	-7.389835e+01
8.200000e-07	-4.236867e-06	-1.063439e-09	-2.938800e+01	-7.372095e+01
8.300000e-07	-4.206555e-06	-1.075224e-09	-2.917775e+01	-7.353923e+01
8.400000e-07	-4.175918e-06	-1.069209e-09	-2.896524e+01	-7.335307e+01
8.500000e-07	-4.144888e-06	-1.055208e-09	-2.875000e+01	-7.316238e+01
8.600000e-07	-4.113606e-06	-1.062380e-09	-2.853303e+01	-7.296709e+01
8.700000e-07	-4.082130e-06	-1.060906e-09	-2.831470e+01	-7.276718e+01
8.800000e-07	-4.050437e-06	-1.044720e-09	-2.809487e+01	-7.256261e+01
8.900000e-07	-4.018585e-06	-1.045060e-09	-2.787394e+01	-7.235340e+01
9.000000e-07	-3.986513e-06	-1.048051e-09	-2.765147e+01	-7.213959e+01
9.100000e-07	-3.954187e-06	-1.036791e-09	-2.742725e+01	-7.192121e+01
9.200000e-07	-3.921602e-06	-1.035306e-09	-2.720124e+01	-7.169835e+01
9.300000e-07	-3.888588e-06	-1.043276e-09	-2.697224e+01	-7.147110e+01
9.400000e-07	-3.854984e-06	-1.035032e-09	-2.673916e+01	-7.123956e+01
9.500000e-07	-3.820890e-06	-1.025797e-09	-2.650268e+01	-7.100385e+01
9.600000e-07	-3.786478e-06	-1.028901e-09	-2.626399e+01	-7.076411e+01
9.700000e-07	-3.751728e-06	-1.020164e-09	-2.602295e+01	-7.052048e+01
9.800000e-07	-3.716674e-06	-1.001319e-09	-2.577981e+01	-7.027310e+01
9.900000e-07	-3.681364e-06	-1.001839e-09	-2.553489e+01	-7.002213e+01
1.000000e-06	-3.645773e-06	-1.005552e-09	-2.528802e+01	-6.976772e+01
1.010000e-06	-3.610028e-06	-9.980459e-10	-2.504008e+01	-6.951003e+01
1.020000e-06	-3.574215e-06	-9.982184e-10	-2.479167e+01	-6.924922e+01
1.030000e-06	-3.538263e-06	-1.006368e-09	-2.454230e+01	-6.898542e+01
1.040000e-06	-3.502067e-06	-1.000467e-09	-2.429123e+01	-6.871878e+01
1.050000e-06	-3.465646e-06	-9.915097e-10	-2.403861e+01	-6.844944e+01
1.060000e-06	-3.428977e-06	-9.895998e-10	-2.378426e+01	-6.817750e+01
1.070000e-06	-3.391984e-06	-9.836254e-10	-2.352767e+01	-6.790308e+01
1.080000e-06	-3.354674e-06	-9.751592e-10	-2.326888e+01	-6.762626e+01
1.090000e-06	-3.317113e-06	-9.789649e-10	-2.300835e+01	-6.734714e+01
1.100000e-06	-3.279423e-06	-9.818820e-10	-2.274692e+01	-6.706575e+01
1.110000e-06	-3.241565e-06	-9.755928e-10	-2.248432e+01	-6.678216e+01
1.120000e-06	-3.203466e-06	-9.731200e-10	-2.222006e+01	-6.649638e+01
1.130000e-06	-3.165137e-06	-9.735137e-10	-2.195420e+01	-6.620841e+01
1.140000e-06	-3.126554e-06	-9.644476e-10	-2.168658e+01	-6.591825e+01
1.150000e-06	-3.087694e-06	-9.539283e-10	-2.141704e+01	-6.562587e+01
1.160000e-06	-3.048633e-06	-9.505426e-10	-2.114610e+01	-6.533121e+01
1.170000e-06	-3.009413e-06	-9.456369e-10	-2.087406e+01	-6.503420e+01
1.180000e-06	-2.970056e-06	-9.382261e-10	-2.060107e+01	-6.473476e+01
1.190000e-06	-2.930579e-06	-9.377387e-10	-2.032725e+01	-6.443279e+01
1.200000e-06	-2.890888e-06	-9.371103e-10	-2.005194e+01	-6.412817e+01
1.210000e-06	-2.851034e-06	-9.286653e-10	-1.977550e+01	-6.382076e+01
1.220000e-06	-2.811115e-06	-9.212787e-10	-1.949861e+01	-6.351043e+01
1.230000e-06	-2.771033e-06	-9.169012e-10	-1.922059e+01	-6.319701e+01
1.240000e-06	-2.730690e-06	-9.099541e-10	-1.894077e+01	-6.288034e+01
1.250000e-06	-2.690210e-06	-9.035666e-10	-1.865999e+01	-6.256024e+01
1.260000e-06	-2.649543e-06	-9.018507e-10	-1.837791e+01	-6.223652e+01
1.270000e-06	-2.608506e-06	-8.961751e-10	-1.809327e+01	-6.190898e+01
1.280000e-06	-2.567204e-06	-8.871569e-10	-1.780679e+01	-6.157743e+01
1.290000e-06	-2.525717e-06	-8.814201e-10	-1.751902e+01	-6.124167e+01
1.300000e-06	-2.483959e-06	-8.757933e-10	-1.722938e+01	-6.090147e+01
1.310000e-06	-2.441826e-06	-8.667979e-10	-1.693713e+01	-6.055664e+01
1.320000e-06	-2.399321e-06	-8.609006e-10	-1.664231e+01	-6.020695e+01
1.330000e-06	-2.356531e-06	-8.574606e-10	-1.634550e+01	-5.985218e+01
1.340000e-06	-2.313551e-06	-8.508434e-10	-1.604738e+01	-5.949211e+01
1.350000e-06	-2.270438e-06	-8.437243e-10	-1.574834e+01	-5.912652e+01
1.360000e-06	-2.227174e-06	-8.392709e-10	-1.544825e+01	-5.875518e+01
1.370000e-06	-2.183744e-06	-8.324617e-10	-1.514701e+01	-5.837786e+01
1.380000e-06	-2.140100e-06	-8.234089e-10	-1.484428e+01	-5.799432e+01
1.390000e-06	-2.096325e-06	-8.158444e-10	-1.454065e+01	-5.760432e+01
1.400000e-06	-2.052515e-06	-8.107182e-10	-1.423677e+01	-5.720762e+01
1.410000e-06	-2.008601e-06	-8.048514e-10	-1.393217e+01	-5.680396e+01
1.420000e-06	-1.964586e-06	-7.993255e-10	-1.362687e+01	-5.639309e+01
1.430000e-06	-1.920555e-06	-7.954074e-10	-1.332146e+01	-5.597471e+01
1.440000e-06	-1.876419e-06	-7.902054e-10	-1.301532e+01	-5.554856e+01
1.450000e-06	-1.832129e-06	-7.819252e-10	-1.270812e+01	-5.511432e+01
1.460000e-06	-1.787744e-06	-7.725999e-10	-1.240025e+01	-5.467169e+01
1.470000e-06	-1.743265e-06	-7.628493e-10	-1.209174e+01	-5.422031e+01
1.480000e-06	-1.698624e-06	-7.520986e-10	-1.178209e+01	-5.375985e+01
1.490000e-06	-1.653863e-06	-7.433872e-10	-1.147162e+01	-5.328992e+01
1.500000e-06	-1.608984e-06	-7.373986e-10	-1.116033e+01	-5.281011e+01
1.510000e-06	-1.563906e-06	-7.314325e-10	-1.084765e+01	-5.232000e+01
1.520000e-06	-1.518693e-06	-7.258644e-10	-1.053405e+01	-5.181912e+01
1.530000e-06	-1.473419e-06	-7.197655e-10	-1.022001e+01	-5.130701e+01
1.540000e-06	-1.428097e-06	-7.103280e-10	-9.905649e+00	-5.078313e+01
1.550000e-06	-1.382729e-06	-6.982047e-10	-9.590963e+00	-5.024695e+01
1.560000e-06	-1.337251e-06	-6.864333e-10	-9.275519e+00	-4.969787e+01
1.570000e-06	-1.291598e-06	-6.767118e-10	-8.958852e+00	-4.913530e+01
1.580000e-06	-1.245885e-06	-6.678972e-10	-8.641777e+00	-4.855859e+01
1.590000e-06	-1.200073e-06	-6.605934e-10	-8.324015e+00	-4.796707e+01
1.600000e-06	-1.154089e-06	-6.547948e-10	-8.005060e+00	-4.736002e+01
1.610000e-06	-1.108063e-06	-6.471779e-10	-7.685808e+00	-4.673673e+01
1.620000e-06	-1.061996e-06	-6.361557e-10	-7.366274e+00	-4.609642e+01
1.630000e-06	-1.015843e-06	-6.253254e-10	-7.046147e+00	-4.543831e+01
1.640000e-06	-9.696610e-07	-6.155302e-10	-6.725818e+00	-4.476160e+01
1.650000e-06	-9.234119e-07	-6.062757e-10	-6.405022e+00	-4.406545e+01
1.660000e-06	-8.770717e-07	-5.952302e-10	-6.083594e+00	-4.334904e+01
1.670000e-06	-8.306820e-07	-5.816016e-10	-5.761823e+00	-4.261151e+01
1.680000e-06	-7.841823e-07	-5.678952e-10	-5.439290e+00	-4.185199e+01
1.690000e-06	-7.375529e-07	-5.551199e-10	-5.115856e+00	-4.106964e+01
1.700000e-06	-6.909241e-07	-5.423053e-10	-4.792427e+00	-4.026361e+01
1.710000e-06	-6.443244e-07	-5.307229e-10	-4.469199e+00	-3.943304e+01
1.720000e-06	-5.976946e-07	-5.209143e-10	-4.145763e+00	-3.857712e+01
1.730000e-06	-5.510110e-07	-5.115819e-10	-3.821953e+00	-3.769504e+01
1.740000e-06	-5.042465e-07	-4.992142e-10	-3.497583e+00	-3.678604e+01
1.750000e-06	-4.575243e-07	-4.835442e-10	-3.173506e+00	-3.584937e+01
1.760000e-06	-4.107785e-07	-4.665892e-10	-2.849265e+00	-3.488435e+01
1.770000e-06	-3.639042e-07	-4.504785e-10	-2.524133e+00	-3.389034e+01
1.780000e-06	-3.169641e-07	-4.367885e-10	-2.198544e+00	-3.286675e+01
1.790000e-06	-2.700368e-07	-4.248548e-10	-1.873044e+00	-3.181308e+01
1.800000e-06	-2.230788e-07	-4.132666e-10	-1.547332e+00	-3.072887e+01
1.810000e-06	-1.760796e-07	-3.986464e-10	-1.221334e+00	-2.961376e+01
1.820000e-06	-1.290366e-07	-3.821861e-10	-8.950310e-01	-2.846747e+01
1.830000e-06	-8.201541e-08	-3.664292e-10	-5.688799e-01	-2.728981e+01
1.840000e-06	-3.512336e-08	-3.514097e-10	-2.436246e-01	-2.608069e+01
1.850000e-06	1.173899e-08	-3.360821e-10	8.142462e-02	-2.484011e+01
1.860000e-06	5.862135e-08	-3.184434e-10	4.066127e-01	-2.356819e+01
1.870000e-06	1.055379e-07	-2.985986e-10	7.320377e-01	-2.226516e+01
1.880000e-06	1.524335e-07	-2.779044e-10	1.057318e+00	-2.093136e+01
1.890000e-06	1.993609e-07	-2.572949e-10	1.382818e+00	-1.956723e+01
1.900000e-06	2.462817e-07	-2.368293e-10	1.708273e+00	-1.817336e+01
1.910000e-06	2.931605e-07	-2.157972e-10	2.033437e+00	-1.675045e+01
1.920000e-06	3.400189e-07	-1.955507e-10	2.358458e+00	-1.529931e+01
1.930000e-06	3.868434e-07	-1.760407e-10	2.683245e+00	-1.382087e+01
1.940000e-06	4.336722e-07	-1.551151e-10	3.008062e+00	-1.231620e+01
1.950000e-06	4.805110e-07	-1.330102e-10	3.332948e+00	-1.078647e+01
1.960000e-06	5.273343e-07	-1.114024e-10	3.657726e+00	-9.232962e+00
1.970000e-06	5.741006e-07	-9.046985e-11	3.982109e+00	-7.657083e+00
1.980000e-06	6.207968e-07	-7.005878e-11	4.306006e+00	-6.060337e+00
1.990000e-06	6.674116e-07	-4.945945e-11	4.629338e+00	-4.444332e+00
2.000000e-06	7.139192e-07	-2.596101e-11	4.951926e+00	-2.810771e+00
2.010000e-06	7.603796e-07	1.565351e-12	5.274188e+00	-1.161448e+00
2.020000e-06	8.068196e-07	3.020920e-11	5.596308e+00	5.017645e-01
2.030000e-06	8.532039e-07	5.684190e-11	5.918041e+00	2.176920e+00
2.040000e-06	8.994774e-07	8.044281e-11	6.239006e+00	3.862006e+00
2.050000e-06	9.457034e-07	1.019621e-10	6.559641e+00	5.554957e+00
2.060000e-06	9.919356e-07	1.239855e-10	6.880320e+00	7.253659e+00
2.070000e-06	1.038056e-06	1.465296e-10	7.200223e+00	8.955964e+00
2.080000e-06	1.084103e-06	1.702395e-10	7.519613e+00	1.065970e+01
2.090000e-06	1.130013e-06	1.960541e-10	7.838063e+00	1.236267e+01
2.100000e-06	1.175823e-06	2.228745e-10	8.155811e+00	1.406269e+01
2.110000e-06	1.221613e-06	2.477275e-10	8.473419e+00	1.575757e+01
2.120000e-06	1.267263e-06	2.708219e-10	8.790059e+00	1.744514e+01
2.130000e-06	1.312811e-06	2.925160e-10	9.105993e+00	1.912326e+01
2.140000e-06	1.358340e-06	3.119694e-10	9.421797e+00	2.078982e+01
2.150000e-06	1.403814e-06	3.322528e-10	9.737216e+00	2.244278e+01
2.160000e-06	1.449095e-06	3.563268e-10	1.005129e+01	2.408014e+01
2.170000e-06	1.494200e-06	3.821668e-10	1.036415e+01	2.569997e+01
2.180000e-06	1.539272e-06	4.068596e-10	1.067679e+01	2.730042e+01
2.190000e-06	1.584298e-06	4.301033e-10	1.098910e+01	2.887974e+01
2.200000e-06	1.629205e-06	4.511960e-10	1.130058e+01	3.043624e+01
2.210000e-06	1.673948e-06	4.689444e-10	1.161093e+01	3.196836e+01
2.220000e-06	1.718516e-06	4.840918e-10	1.192007e+01	3.347464e+01
2.230000e-06	1.762963e-06	4.988858e-10	1.222837e+01	3.495373e+01
2.240000e-06	1.807385e-06	5.156676e-10	1.253649e+01	3.640441e+01
2.250000e-06	1.851697e-06	5.342622e-10	1.284385e+01	3.782555e+01
2.260000e-06	1.895811e-06	5.524162e-10	1.314983e+01	3.921617e+01
2.270000e-06	1.939803e-06	5.724026e-10	1.345497e+01	4.057543e+01
2.280000e-06	1.983676e-06	5.958540e-10	1.375928e+01	4.190258e+01
2.290000e-06	2.027428e-06	6.197241e-10	1.406276e+01	4.319704e+01
2.300000e-06	2.071128e-06	6.380881e-10	1.436588e+01	4.445832e+01
2.310000e-06	2.114805e-06	6.514640e-10	1.466883e+01	4.568608e+01
2.320000e-06	2.158442e-06	6.619588e-10	1.497151e+01	4.688012e+01
2.330000e-06	2.202024e-06	6.729418e-10	1.527381e+01	4.804032e+01
2.340000e-06	2.245473e-06	6.863806e-10	1.557518e+01	4.916671e+01
2.350000e-06	2.288690e-06	7.039178e-10	1.587494e+01	5.025944e+01
2.360000e-06	2.331690e-06	7.236792e-10	1.617320e+01	5.131873e+01
2.370000e-06	2.374474e-06	7.411893e-10	1.646996e+01	5.234494e+01
2.380000e-06	2.417002e-06	7.528587e-10	1.676494e+01	5.333853e+01
2.390000e-06	2.459271e-06	7.607412e-10	1.705813e+01	5.430001e+01
2.400000e-06	2.501238e-06	7.689895e-10	1.734923e+01	5.523001e+01
2.410000e-06	2.542887e-06	7.786743e-10	1.763812e+01	5.612923e+01
2.420000e-06	2.584218e-06	7.912756e-10	1.792480e+01	5.699843e+01
2.430000e-06	2.625343e-06	8.054324e-10	1.821005e+01	5.783842e+01
2.440000e-06	2.666241e-06	8.210538e-10	1.849373e+01	5.865007e+01
2.450000e-06	2.706775e-06	8.347483e-10	1.877488e+01	5.943431e+01
2.460000e-06	2.747059e-06	8.444089e-10	1.905431e+01	6.019208e+01
2.470000e-06	2.787173e-06	8.505997e-10	1.933255e+01	6.092436e+01
2.480000e-06	2.827174e-06	8.560806e-10	1.961000e+01	6.163214e+01
2.490000e-06	2.867019e-06	8.648087e-10	1.988638e+01	6.231642e+01
2.500000e-06	2.906696e-06	8.764951e-10	2.016159e+01	6.297822e+01
2.510000e-06	2.946291e-06	8.883877e-10	2.043623e+01	6.361853e+01
2.520000e-06	2.985749e-06	8.994473e-10	2.070992e+01	6.423835e+01
2.530000e-06	3.025088e-06	9.093810e-10	2.098279e+01	6.483865e+01
2.540000e-06	3.064308e-06	9.178817e-10	2.125483e+01	6.542039e+01
2.550000e-06	3.103276e-06	9.235018e-10	2.152512e+01	6.598449e+01
2.560000e-06	3.141957e-06	9.289511e-10	2.179342e+01	6.653184e+01
2.570000e-06	3.180349e-06	9.367770e-10	2.205972e+01	6.706329e+01
2.580000e-06	3.218481e-06	9.454809e-10	2.232421e+01	6.757966e+01
2.590000e-06	3.256402e-06	9.535345e-10	2.258724e+01	6.808170e+01
2.600000e-06	3.294173e-06	9.624067e-10	2.284923e+01	6.857015e+01
2.610000e-06	3.331802e-06	9.713249e-10	2.311023e+01	6.904567e+01
2.620000e-06	3.369191e-06	9.786333e-10	2.336957e+01	6.950890e+01
2.630000e-06	3.406310e-06	9.839686e-10	2.362704e+01	6.996039e+01
2.640000e-06	3.443179e-06	9.876674e-10	2.388277e+01	7.040068e+01
2.650000e-06	3.479779e-06	9.912582e-10	2.413664e+01	7.083023e+01
2.660000e-06	3.516089e-06	9.961290e-10	2.438850e+01	7.124948e+01
2.670000e-06	3.552213e-06	1.002358e-09	2.463906e+01	7.165881e+01
2.680000e-06	3.588160e-06	1.008747e-09	2.488840e+01	7.205854e+01
2.690000e-06	3.623945e-06	1.016105e-09	2.513661e+01	7.244896e+01
2.700000e-06	3.659641e-06	1.024787e-09	2.538421e+01	7.283034e+01
2.710000e-06	3.695147e-06	1.033436e-09	2.563049e+01	7.320287e+01
2.720000e-06	3.730438e-06	1.041078e-09	2.587527e+01	7.356674e+01
2.730000e-06	3.765510e-06	1.047066e-09	2.611855e+01	7.392211e+01
2.740000e-06	3.800229e-06	1.050039e-09	2.635936e+01	7.426908e+01
2.750000e-06	3.834490e-06	1.052194e-09	2.659701e+01	7.460777e+01
2.760000e-06	3.868269e-06	1.056575e-09	2.683131e+01	7.493824e+01
2.770000e-06	3.901578e-06	1.064314e-09	2.706235e+01	7.526057e+01
2.780000e-06	3.934449e-06	1.074009e-09	2.729035e+01	7.557481e+01
2.790000e-06	3.966980e-06	1.083740e-09	2.751599e+01	7.588099e+01
2.800000e-06	3.999215e-06	1.091123e-09	2.773958e+01	7.617916e+01
2.810000e-06	4.031179e-06	1.094223e-09	2.796129e+01	7.646935e+01
2.820000e-06	4.062961e-06	1.093185e-09	2.818174e+01	7.675159e+01
2.830000e-06	4.094592e-06	1.092875e-09	2.840114e+01	7.702592e+01
2.840000e-06	4.126055e-06	1.097152e-09	2.861938e+01	7.729240e+01
2.850000e-06	4.157272e-06	1.104523e-09	2.883591e+01	7.755106e+01
2.860000e-06	4.188197e-06	1.113599e-09	2.905041e+01	7.780198e+01
2.870000e-06	4.218806e-06	1.122941e-09	2.926272e+01	7.804522e+01
2.880000e-06	4.249121e-06	1.130117e-09	2.947300e+01	7.828088e+01
2.890000e-06	4.279119e-06	1.134039e-09	2.968107e+01	7.850904e+01
2.900000e-06	4.308767e-06	1.135739e-09	2.988671e+01	7.872983e+01
