# Temperatura_=_-7.36
# Concentracion g/m^3_=_1620.0
# C_Vs_to_Am_M_A/Vsm_=_65563218390.804596
# pendiente_HvsI_1/m_=_3716.3
# ordenada_HvsI_A/m_=_1297.0
# frecuencia_Hz_=_135108.40566779964

Tiempo_(s)	Campo_(V.s)	Magnetizacion_(V.s)	Campo_(kA/m)	Magnetizacion_(A/m)
0.000000e+00	-5.524792e-06	-1.042716e-09	-3.836320e+01	-7.013631e+01
1.000000e-08	-5.525104e-06	-1.042262e-09	-3.836537e+01	-7.013408e+01
2.000000e-08	-5.525199e-06	-1.042847e-09	-3.836602e+01	-7.013436e+01
3.000000e-08	-5.524952e-06	-1.042290e-09	-3.836431e+01	-7.013688e+01
4.000000e-08	-5.524197e-06	-1.040543e-09	-3.835907e+01	-7.014131e+01
5.000000e-08	-5.522992e-06	-1.038365e-09	-3.835070e+01	-7.014732e+01
6.000000e-08	-5.521349e-06	-1.037781e-09	-3.833929e+01	-7.015452e+01
7.000000e-08	-5.519113e-06	-1.045829e-09	-3.832376e+01	-7.016254e+01
8.000000e-08	-5.516280e-06	-1.026201e-09	-3.830409e+01	-7.017094e+01
9.000000e-08	-5.512867e-06	-9.688891e-10	-3.828040e+01	-7.017933e+01
1.000000e-07	-5.508940e-06	-1.003943e-09	-3.825313e+01	-7.018725e+01
1.100000e-07	-5.504692e-06	-1.149923e-09	-3.822363e+01	-7.019427e+01
1.200000e-07	-5.500159e-06	-1.122746e-09	-3.819215e+01	-7.019995e+01
1.300000e-07	-5.495414e-06	-9.616802e-10	-3.815920e+01	-7.020386e+01
1.400000e-07	-5.490450e-06	-9.375440e-10	-3.812473e+01	-7.020557e+01
1.500000e-07	-5.485059e-06	-1.098923e-09	-3.808730e+01	-7.020465e+01
1.600000e-07	-5.479154e-06	-1.136357e-09	-3.804630e+01	-7.020071e+01
1.700000e-07	-5.472868e-06	-9.686262e-10	-3.800265e+01	-7.019336e+01
1.800000e-07	-5.466257e-06	-9.412748e-10	-3.795674e+01	-7.018225e+01
1.900000e-07	-5.459247e-06	-1.103388e-09	-3.790807e+01	-7.016705e+01
2.000000e-07	-5.451847e-06	-1.164392e-09	-3.785668e+01	-7.014745e+01
2.100000e-07	-5.444168e-06	-1.042365e-09	-3.780336e+01	-7.012317e+01
2.200000e-07	-5.436259e-06	-9.875977e-10	-3.774844e+01	-7.009399e+01
2.300000e-07	-5.427985e-06	-1.069685e-09	-3.769099e+01	-7.005971e+01
2.400000e-07	-5.419354e-06	-1.115290e-09	-3.763105e+01	-7.002015e+01
2.500000e-07	-5.410309e-06	-1.057200e-09	-3.756825e+01	-6.997522e+01
2.600000e-07	-5.400605e-06	-1.027018e-09	-3.750086e+01	-6.992481e+01
2.700000e-07	-5.390147e-06	-1.056759e-09	-3.742824e+01	-6.986889e+01
2.800000e-07	-5.379164e-06	-1.069568e-09	-3.735198e+01	-6.980747e+01
2.900000e-07	-5.367783e-06	-1.026805e-09	-3.727296e+01	-6.974058e+01
3.000000e-07	-5.355963e-06	-1.005946e-09	-3.719088e+01	-6.966831e+01
3.100000e-07	-5.343769e-06	-1.034196e-09	-3.710621e+01	-6.959077e+01
3.200000e-07	-5.331273e-06	-1.064860e-09	-3.701944e+01	-6.950813e+01
3.300000e-07	-5.318321e-06	-1.033966e-09	-3.692950e+01	-6.942056e+01
3.400000e-07	-5.304846e-06	-1.003908e-09	-3.683593e+01	-6.932831e+01
3.500000e-07	-5.291044e-06	-1.046190e-09	-3.674010e+01	-6.923162e+01
3.600000e-07	-5.276959e-06	-1.065525e-09	-3.664229e+01	-6.913077e+01
3.700000e-07	-5.262261e-06	-9.955613e-10	-3.654023e+01	-6.902607e+01
3.800000e-07	-5.246974e-06	-9.944325e-10	-3.643408e+01	-6.891786e+01
3.900000e-07	-5.231361e-06	-1.065784e-09	-3.632566e+01	-6.880647e+01
4.000000e-07	-5.215162e-06	-1.012235e-09	-3.621318e+01	-6.869226e+01
4.100000e-07	-5.198437e-06	-9.496931e-10	-3.609705e+01	-6.857561e+01
4.200000e-07	-5.181500e-06	-1.057490e-09	-3.597944e+01	-6.845689e+01
4.300000e-07	-5.164274e-06	-1.087203e-09	-3.585982e+01	-6.833649e+01
4.400000e-07	-5.146656e-06	-9.422471e-10	-3.573749e+01	-6.821478e+01
4.500000e-07	-5.128767e-06	-9.741281e-10	-3.561327e+01	-6.809213e+01
4.600000e-07	-5.110600e-06	-1.100568e-09	-3.548712e+01	-6.796893e+01
4.700000e-07	-5.091921e-06	-9.890703e-10	-3.535742e+01	-6.784551e+01
4.800000e-07	-5.072709e-06	-9.036279e-10	-3.522401e+01	-6.772224e+01
4.900000e-07	-5.053250e-06	-1.054336e-09	-3.508889e+01	-6.759944e+01
5.000000e-07	-5.033629e-06	-1.056901e-09	-3.495264e+01	-6.747741e+01
5.100000e-07	-5.013748e-06	-9.295698e-10	-3.481460e+01	-6.735644e+01
5.200000e-07	-4.993596e-06	-1.016849e-09	-3.467466e+01	-6.723678e+01
5.300000e-07	-4.973122e-06	-1.078813e-09	-3.453250e+01	-6.711869e+01
5.400000e-07	-4.952277e-06	-9.325995e-10	-3.438776e+01	-6.700235e+01
5.500000e-07	-4.931145e-06	-9.493166e-10	-3.424102e+01	-6.688796e+01
5.600000e-07	-4.909739e-06	-1.075695e-09	-3.409237e+01	-6.677565e+01
5.700000e-07	-4.887905e-06	-9.830019e-10	-3.394077e+01	-6.666555e+01
5.800000e-07	-4.865697e-06	-9.180536e-10	-3.378656e+01	-6.655774e+01
5.900000e-07	-4.843220e-06	-1.039548e-09	-3.363048e+01	-6.645228e+01
6.000000e-07	-4.820346e-06	-1.025838e-09	-3.347165e+01	-6.634920e+01
6.100000e-07	-4.797005e-06	-9.277759e-10	-3.330957e+01	-6.624848e+01
6.200000e-07	-4.773418e-06	-9.920286e-10	-3.314579e+01	-6.615009e+01
6.300000e-07	-4.749721e-06	-1.026413e-09	-3.298124e+01	-6.605398e+01
6.400000e-07	-4.725776e-06	-9.459214e-10	-3.281497e+01	-6.596004e+01
6.500000e-07	-4.701552e-06	-9.664962e-10	-3.264676e+01	-6.586818e+01
6.600000e-07	-4.676936e-06	-1.017484e-09	-3.247583e+01	-6.577825e+01
6.700000e-07	-4.651759e-06	-9.651449e-10	-3.230101e+01	-6.569008e+01
6.800000e-07	-4.626082e-06	-9.558895e-10	-3.212271e+01	-6.560352e+01
6.900000e-07	-4.599950e-06	-1.005240e-09	-3.194126e+01	-6.551835e+01
7.000000e-07	-4.573318e-06	-9.826581e-10	-3.175633e+01	-6.543437e+01
7.100000e-07	-4.546221e-06	-9.555875e-10	-3.156817e+01	-6.535135e+01
7.200000e-07	-4.518793e-06	-9.844139e-10	-3.137771e+01	-6.526907e+01
7.300000e-07	-4.491134e-06	-9.762706e-10	-3.118566e+01	-6.518728e+01
7.400000e-07	-4.463321e-06	-9.504099e-10	-3.099253e+01	-6.510574e+01
7.500000e-07	-4.435298e-06	-9.690323e-10	-3.079794e+01	-6.502420e+01
7.600000e-07	-4.406976e-06	-9.769427e-10	-3.060128e+01	-6.494240e+01
7.700000e-07	-4.378383e-06	-9.584042e-10	-3.040273e+01	-6.486009e+01
7.800000e-07	-4.349545e-06	-9.632805e-10	-3.020248e+01	-6.477704e+01
7.900000e-07	-4.320453e-06	-9.646945e-10	-3.000047e+01	-6.469299e+01
8.000000e-07	-4.291014e-06	-9.421704e-10	-2.979606e+01	-6.460770e+01
8.100000e-07	-4.261176e-06	-9.439522e-10	-2.958887e+01	-6.452096e+01
8.200000e-07	-4.231018e-06	-9.599158e-10	-2.937946e+01	-6.443253e+01
8.300000e-07	-4.200562e-06	-9.470941e-10	-2.916798e+01	-6.434221e+01
8.400000e-07	-4.169879e-06	-9.414539e-10	-2.895492e+01	-6.424980e+01
8.500000e-07	-4.138930e-06	-9.534624e-10	-2.874001e+01	-6.415510e+01
8.600000e-07	-4.107595e-06	-9.451653e-10	-2.852243e+01	-6.405794e+01
8.700000e-07	-4.076017e-06	-9.277619e-10	-2.830315e+01	-6.395815e+01
8.800000e-07	-4.044348e-06	-9.345760e-10	-2.808325e+01	-6.385558e+01
8.900000e-07	-4.012547e-06	-9.354037e-10	-2.786243e+01	-6.375009e+01
9.000000e-07	-3.980540e-06	-9.208769e-10	-2.764018e+01	-6.364155e+01
9.100000e-07	-3.948321e-06	-9.260154e-10	-2.741646e+01	-6.352984e+01
9.200000e-07	-3.915839e-06	-9.359364e-10	-2.719090e+01	-6.341486e+01
9.300000e-07	-3.882959e-06	-9.223413e-10	-2.696259e+01	-6.329651e+01
9.400000e-07	-3.849671e-06	-9.160899e-10	-2.673145e+01	-6.317471e+01
9.500000e-07	-3.815942e-06	-9.254996e-10	-2.649724e+01	-6.304937e+01
9.600000e-07	-3.781661e-06	-9.141623e-10	-2.625920e+01	-6.292044e+01
9.700000e-07	-3.746909e-06	-8.966204e-10	-2.601789e+01	-6.278785e+01
9.800000e-07	-3.711869e-06	-9.025840e-10	-2.577458e+01	-6.265155e+01
9.900000e-07	-3.676569e-06	-9.070917e-10	-2.552946e+01	-6.251150e+01
1.000000e-06	-3.641041e-06	-8.973352e-10	-2.528276e+01	-6.236765e+01
1.010000e-06	-3.605410e-06	-8.976041e-10	-2.503534e+01	-6.221997e+01
1.020000e-06	-3.569654e-06	-9.024638e-10	-2.478706e+01	-6.206843e+01
1.030000e-06	-3.533694e-06	-8.916594e-10	-2.453736e+01	-6.191300e+01
1.040000e-06	-3.497500e-06	-8.837574e-10	-2.428604e+01	-6.175365e+01
1.050000e-06	-3.461052e-06	-8.889549e-10	-2.403294e+01	-6.159036e+01
1.060000e-06	-3.424321e-06	-8.851767e-10	-2.377789e+01	-6.142311e+01
1.070000e-06	-3.387274e-06	-8.797543e-10	-2.352065e+01	-6.125189e+01
1.080000e-06	-3.350033e-06	-8.854372e-10	-2.326205e+01	-6.107667e+01
1.090000e-06	-3.312614e-06	-8.889305e-10	-2.300222e+01	-6.089744e+01
1.100000e-06	-3.274882e-06	-8.781335e-10	-2.274021e+01	-6.071419e+01
1.110000e-06	-3.236902e-06	-8.710542e-10	-2.247649e+01	-6.052691e+01
1.120000e-06	-3.198671e-06	-8.693414e-10	-2.221101e+01	-6.033558e+01
1.130000e-06	-3.160209e-06	-8.628552e-10	-2.194394e+01	-6.014021e+01
1.140000e-06	-3.121598e-06	-8.584512e-10	-2.167584e+01	-5.994078e+01
1.150000e-06	-3.082798e-06	-8.640113e-10	-2.140642e+01	-5.973730e+01
1.160000e-06	-3.043788e-06	-8.645123e-10	-2.113554e+01	-5.952976e+01
1.170000e-06	-3.004624e-06	-8.563557e-10	-2.086359e+01	-5.931818e+01
1.180000e-06	-2.965318e-06	-8.518516e-10	-2.059066e+01	-5.910256e+01
1.190000e-06	-2.925839e-06	-8.497696e-10	-2.031652e+01	-5.888291e+01
1.200000e-06	-2.886212e-06	-8.448826e-10	-2.004135e+01	-5.865927e+01
1.210000e-06	-2.846423e-06	-8.406796e-10	-1.976507e+01	-5.843164e+01
1.220000e-06	-2.806501e-06	-8.369284e-10	-1.948786e+01	-5.820007e+01
1.230000e-06	-2.766458e-06	-8.318161e-10	-1.920980e+01	-5.796457e+01
1.240000e-06	-2.726217e-06	-8.278583e-10	-1.893038e+01	-5.772520e+01
1.250000e-06	-2.685835e-06	-8.256235e-10	-1.864997e+01	-5.748199e+01
1.260000e-06	-2.645294e-06	-8.230495e-10	-1.836846e+01	-5.723499e+01
1.270000e-06	-2.604434e-06	-8.172380e-10	-1.808474e+01	-5.698425e+01
1.280000e-06	-2.563287e-06	-8.146819e-10	-1.779902e+01	-5.672982e+01
1.290000e-06	-2.521798e-06	-8.131026e-10	-1.751093e+01	-5.647175e+01
1.300000e-06	-2.479900e-06	-8.091443e-10	-1.722000e+01	-5.621011e+01
1.310000e-06	-2.437676e-06	-8.022510e-10	-1.692680e+01	-5.594493e+01
1.320000e-06	-2.395252e-06	-7.974175e-10	-1.663221e+01	-5.567627e+01
1.330000e-06	-2.352628e-06	-7.938869e-10	-1.633624e+01	-5.540417e+01
1.340000e-06	-2.309643e-06	-7.909608e-10	-1.603776e+01	-5.512866e+01
1.350000e-06	-2.266366e-06	-7.907163e-10	-1.573726e+01	-5.484978e+01
1.360000e-06	-2.222940e-06	-7.865353e-10	-1.543571e+01	-5.456753e+01
1.370000e-06	-2.179407e-06	-7.780810e-10	-1.513343e+01	-5.428191e+01
1.380000e-06	-2.135780e-06	-7.716717e-10	-1.483049e+01	-5.399290e+01
1.390000e-06	-2.092071e-06	-7.665837e-10	-1.452698e+01	-5.370046e+01
1.400000e-06	-2.048283e-06	-7.614963e-10	-1.422292e+01	-5.340453e+01
1.410000e-06	-2.004434e-06	-7.569907e-10	-1.391844e+01	-5.310502e+01
1.420000e-06	-1.960527e-06	-7.559485e-10	-1.361356e+01	-5.280181e+01
1.430000e-06	-1.916476e-06	-7.550577e-10	-1.330768e+01	-5.249475e+01
1.440000e-06	-1.872275e-06	-7.499923e-10	-1.300075e+01	-5.218364e+01
1.450000e-06	-1.828017e-06	-7.431828e-10	-1.269344e+01	-5.186825e+01
1.460000e-06	-1.783772e-06	-7.353424e-10	-1.238620e+01	-5.154833e+01
1.470000e-06	-1.739476e-06	-7.269832e-10	-1.207862e+01	-5.122356e+01
1.480000e-06	-1.694944e-06	-7.190462e-10	-1.176940e+01	-5.089358e+01
1.490000e-06	-1.650221e-06	-7.134539e-10	-1.145885e+01	-5.055799e+01
1.500000e-06	-1.605414e-06	-7.076597e-10	-1.114771e+01	-5.021632e+01
1.510000e-06	-1.560452e-06	-7.024793e-10	-1.083551e+01	-4.986808e+01
1.520000e-06	-1.515277e-06	-6.987470e-10	-1.052182e+01	-4.951269e+01
1.530000e-06	-1.469962e-06	-6.937373e-10	-1.020716e+01	-4.914956e+01
1.540000e-06	-1.424674e-06	-6.857435e-10	-9.892688e+00	-4.877801e+01
1.550000e-06	-1.379336e-06	-6.751278e-10	-9.577870e+00	-4.839732e+01
1.560000e-06	-1.333801e-06	-6.652951e-10	-9.261686e+00	-4.800673e+01
1.570000e-06	-1.288108e-06	-6.575450e-10	-8.944399e+00	-4.760542e+01
1.580000e-06	-1.242334e-06	-6.509892e-10	-8.626555e+00	-4.719251e+01
1.590000e-06	-1.196563e-06	-6.463276e-10	-8.308726e+00	-4.676709e+01
1.600000e-06	-1.150739e-06	-6.431146e-10	-7.990533e+00	-4.632821e+01
1.610000e-06	-1.104804e-06	-6.390156e-10	-7.671567e+00	-4.587485e+01
1.620000e-06	-1.058814e-06	-6.319253e-10	-7.352219e+00	-4.540600e+01
1.630000e-06	-1.012776e-06	-6.252009e-10	-7.032544e+00	-4.492058e+01
1.640000e-06	-9.666266e-07	-6.171643e-10	-6.712087e+00	-4.441751e+01
1.650000e-06	-9.203916e-07	-6.056454e-10	-6.391040e+00	-4.389567e+01
1.660000e-06	-8.741770e-07	-5.934753e-10	-6.070133e+00	-4.335394e+01
1.670000e-06	-8.279110e-07	-5.828775e-10	-5.748871e+00	-4.279119e+01
1.680000e-06	-7.814948e-07	-5.722429e-10	-5.426564e+00	-4.220628e+01
1.690000e-06	-7.349344e-07	-5.611316e-10	-5.103257e+00	-4.159808e+01
1.700000e-06	-6.882927e-07	-5.502642e-10	-4.779385e+00	-4.096549e+01
1.710000e-06	-6.416480e-07	-5.391954e-10	-4.455493e+00	-4.030740e+01
1.720000e-06	-5.950766e-07	-5.294258e-10	-4.132109e+00	-3.962277e+01
1.730000e-06	-5.485444e-07	-5.207536e-10	-3.808997e+00	-3.891056e+01
1.740000e-06	-5.019375e-07	-5.116164e-10	-3.485367e+00	-3.816980e+01
1.750000e-06	-4.552889e-07	-5.003245e-10	-3.161447e+00	-3.739956e+01
1.760000e-06	-4.086491e-07	-4.870255e-10	-2.837588e+00	-3.659898e+01
1.770000e-06	-3.619846e-07	-4.726310e-10	-2.513558e+00	-3.576727e+01
1.780000e-06	-3.152287e-07	-4.593099e-10	-2.188893e+00	-3.490372e+01
1.790000e-06	-2.684093e-07	-4.481741e-10	-1.863788e+00	-3.400769e+01
1.800000e-06	-2.215524e-07	-4.370924e-10	-1.538422e+00	-3.307865e+01
1.810000e-06	-1.746475e-07	-4.241390e-10	-1.212722e+00	-3.211615e+01
1.820000e-06	-1.278071e-07	-4.098749e-10	-8.874703e-01	-3.111988e+01
1.830000e-06	-8.106543e-08	-3.955061e-10	-5.629043e-01	-3.008959e+01
1.840000e-06	-3.429055e-08	-3.824682e-10	-2.381077e-01	-2.902518e+01
1.850000e-06	1.257968e-08	-3.685022e-10	8.735115e-02	-2.792667e+01
1.860000e-06	5.951042e-08	-3.516901e-10	4.132300e-01	-2.679418e+01
1.870000e-06	1.064625e-07	-3.341709e-10	7.392571e-01	-2.562798e+01
1.880000e-06	1.534255e-07	-3.159906e-10	1.065360e+00	-2.442845e+01
1.890000e-06	2.003566e-07	-2.987209e-10	1.391241e+00	-2.319612e+01
1.900000e-06	2.472401e-07	-2.837064e-10	1.716793e+00	-2.193163e+01
1.910000e-06	2.941228e-07	-2.679738e-10	2.042338e+00	-2.063576e+01
1.920000e-06	3.409005e-07	-2.521952e-10	2.367154e+00	-1.930942e+01
1.930000e-06	3.875454e-07	-2.368147e-10	2.691048e+00	-1.795363e+01
1.940000e-06	4.342195e-07	-2.179545e-10	3.015145e+00	-1.656955e+01
1.950000e-06	4.809015e-07	-1.937004e-10	3.339296e+00	-1.515845e+01
1.960000e-06	5.275128e-07	-1.692434e-10	3.662957e+00	-1.372173e+01
1.970000e-06	5.741169e-07	-1.488135e-10	3.986568e+00	-1.226088e+01
1.980000e-06	6.206510e-07	-1.304273e-10	4.309693e+00	-1.077750e+01
1.990000e-06	6.670694e-07	-1.128973e-10	4.632014e+00	-9.273299e+00
2.000000e-06	7.134619e-07	-9.481407e-11	4.954156e+00	-7.750050e+00
2.010000e-06	7.598742e-07	-7.282344e-11	5.276434e+00	-6.209623e+00
2.020000e-06	8.062025e-07	-4.640984e-11	5.598130e+00	-4.653956e+00
2.030000e-06	8.524786e-07	-2.021979e-11	5.919464e+00	-3.085049e+00
2.040000e-06	8.987393e-07	3.249066e-12	6.240690e+00	-1.504956e+00
2.050000e-06	9.448806e-07	2.465320e-11	6.561087e+00	8.422936e-02
2.060000e-06	9.909051e-07	4.510991e-11	6.880674e+00	1.680378e+00
2.070000e-06	1.036842e-06	6.519997e-11	7.199648e+00	3.281339e+00
2.080000e-06	1.082713e-06	8.645247e-11	7.518171e+00	4.884951e+00
2.090000e-06	1.128569e-06	1.101708e-10	7.836587e+00	6.489053e+00
2.100000e-06	1.174393e-06	1.342648e-10	8.154785e+00	8.091491e+00
2.110000e-06	1.220137e-06	1.577866e-10	8.472420e+00	9.690132e+00
2.120000e-06	1.265785e-06	1.808566e-10	8.789389e+00	1.128287e+01
2.130000e-06	1.311316e-06	2.032818e-10	9.105548e+00	1.286765e+01
2.140000e-06	1.356748e-06	2.237265e-10	9.421023e+00	1.444246e+01
2.150000e-06	1.402097e-06	2.423295e-10	9.735917e+00	1.600534e+01
2.160000e-06	1.447389e-06	2.625043e-10	1.005042e+01	1.755440e+01
2.170000e-06	1.492621e-06	2.855133e-10	1.036450e+01	1.908783e+01
2.180000e-06	1.537647e-06	3.091206e-10	1.067716e+01	2.060391e+01
2.190000e-06	1.582511e-06	3.320280e-10	1.098868e+01	2.210099e+01
2.200000e-06	1.627346e-06	3.539185e-10	1.130001e+01	2.357754e+01
2.210000e-06	1.672083e-06	3.730689e-10	1.161066e+01	2.503210e+01
2.220000e-06	1.716691e-06	3.904656e-10	1.192040e+01	2.646335e+01
2.230000e-06	1.761184e-06	4.078473e-10	1.222936e+01	2.787004e+01
2.240000e-06	1.805500e-06	4.247014e-10	1.253708e+01	2.925108e+01
2.250000e-06	1.849658e-06	4.403462e-10	1.284370e+01	3.060544e+01
2.260000e-06	1.893678e-06	4.569126e-10	1.314937e+01	3.193225e+01
2.270000e-06	1.937575e-06	4.775425e-10	1.345418e+01	3.323074e+01
2.280000e-06	1.981444e-06	4.998415e-10	1.375880e+01	3.450024e+01
2.290000e-06	2.025260e-06	5.200754e-10	1.406306e+01	3.574021e+01
2.300000e-06	2.068969e-06	5.370881e-10	1.436656e+01	3.695023e+01
2.310000e-06	2.112653e-06	5.513391e-10	1.466990e+01	3.812997e+01
2.320000e-06	2.156295e-06	5.636669e-10	1.497294e+01	3.927922e+01
2.330000e-06	2.199786e-06	5.756971e-10	1.527493e+01	4.039786e+01
2.340000e-06	2.243189e-06	5.890524e-10	1.557632e+01	4.148588e+01
2.350000e-06	2.286462e-06	6.035701e-10	1.587680e+01	4.254336e+01
2.360000e-06	2.329584e-06	6.198633e-10	1.617623e+01	4.357047e+01
2.370000e-06	2.372494e-06	6.366575e-10	1.647419e+01	4.456744e+01
2.380000e-06	2.415056e-06	6.505129e-10	1.676973e+01	4.553461e+01
2.390000e-06	2.457289e-06	6.619922e-10	1.706299e+01	4.647235e+01
2.400000e-06	2.499265e-06	6.706393e-10	1.735446e+01	4.738114e+01
2.410000e-06	2.540981e-06	6.797982e-10	1.764413e+01	4.826147e+01
2.420000e-06	2.582327e-06	6.928589e-10	1.793123e+01	4.911390e+01
2.430000e-06	2.623282e-06	7.065480e-10	1.821562e+01	4.993902e+01
2.440000e-06	2.663993e-06	7.195763e-10	1.849830e+01	5.073748e+01
2.450000e-06	2.704481e-06	7.312122e-10	1.877945e+01	5.150993e+01
2.460000e-06	2.744706e-06	7.422671e-10	1.905877e+01	5.225705e+01
2.470000e-06	2.784763e-06	7.525703e-10	1.933691e+01	5.297955e+01
2.480000e-06	2.824707e-06	7.644906e-10	1.961427e+01	5.367813e+01
2.490000e-06	2.864565e-06	7.744449e-10	1.989104e+01	5.435349e+01
2.500000e-06	2.904324e-06	7.824937e-10	2.016712e+01	5.500636e+01
2.510000e-06	2.943881e-06	7.908169e-10	2.044180e+01	5.563743e+01
2.520000e-06	2.983259e-06	7.998550e-10	2.071523e+01	5.624740e+01
2.530000e-06	3.022521e-06	8.078856e-10	2.098786e+01	5.683695e+01
2.540000e-06	3.061578e-06	8.160744e-10	2.125906e+01	5.740674e+01
2.550000e-06	3.100390e-06	8.250804e-10	2.152857e+01	5.795741e+01
2.560000e-06	3.138951e-06	8.314717e-10	2.179633e+01	5.848957e+01
2.570000e-06	3.177284e-06	8.371566e-10	2.206251e+01	5.900383e+01
2.580000e-06	3.215422e-06	8.428371e-10	2.232733e+01	5.950074e+01
2.590000e-06	3.253301e-06	8.482520e-10	2.259036e+01	5.998085e+01
2.600000e-06	3.290949e-06	8.546584e-10	2.285178e+01	6.044468e+01
2.610000e-06	3.328463e-06	8.608536e-10	2.311227e+01	6.089269e+01
2.620000e-06	3.365787e-06	8.661744e-10	2.337144e+01	6.132537e+01
2.630000e-06	3.402861e-06	8.722726e-10	2.362888e+01	6.174312e+01
2.640000e-06	3.439650e-06	8.766531e-10	2.388433e+01	6.214638e+01
2.650000e-06	3.476210e-06	8.805913e-10	2.413820e+01	6.253551e+01
2.660000e-06	3.512556e-06	8.845486e-10	2.439058e+01	6.291088e+01
2.670000e-06	3.548639e-06	8.896415e-10	2.464113e+01	6.327284e+01
2.680000e-06	3.584514e-06	8.941021e-10	2.489024e+01	6.362171e+01
2.690000e-06	3.620260e-06	8.996195e-10	2.513846e+01	6.395781e+01
2.700000e-06	3.655915e-06	9.066853e-10	2.538604e+01	6.428142e+01
2.710000e-06	3.691411e-06	9.121541e-10	2.563252e+01	6.459285e+01
2.720000e-06	3.726692e-06	9.157941e-10	2.587750e+01	6.489238e+01
2.730000e-06	3.761726e-06	9.203863e-10	2.612077e+01	6.518027e+01
2.740000e-06	3.796377e-06	9.262110e-10	2.636139e+01	6.545682e+01
2.750000e-06	3.830534e-06	9.307038e-10	2.659856e+01	6.572228e+01
2.760000e-06	3.864180e-06	9.351988e-10	2.683220e+01	6.597695e+01
2.770000e-06	3.897398e-06	9.404354e-10	2.706286e+01	6.622110e+01
2.780000e-06	3.930270e-06	9.446692e-10	2.729111e+01	6.645501e+01
2.790000e-06	3.962761e-06	9.500433e-10	2.751672e+01	6.667898e+01
2.800000e-06	3.994892e-06	9.554208e-10	2.773984e+01	6.689331e+01
2.810000e-06	4.026797e-06	9.588355e-10	2.796138e+01	6.709830e+01
2.820000e-06	4.058547e-06	9.617540e-10	2.818185e+01	6.729429e+01
2.830000e-06	4.090162e-06	9.654800e-10	2.840138e+01	6.748159e+01
2.840000e-06	4.121587e-06	9.682335e-10	2.861958e+01	6.766055e+01
2.850000e-06	4.152716e-06	9.713422e-10	2.883574e+01	6.783150e+01
2.860000e-06	4.183510e-06	9.770705e-10	2.904957e+01	6.799482e+01
2.870000e-06	4.213999e-06	9.833662e-10	2.926128e+01	6.815085e+01
2.880000e-06	4.244209e-06	9.885044e-10	2.947105e+01	6.829997e+01
2.890000e-06	4.274140e-06	9.918025e-10	2.967889e+01	6.844255e+01
2.900000e-06	4.303783e-06	9.951085e-10	2.988472e+01	6.857897e+01
