# Temperatura_=_-8.37
# Concentracion g/m^3_=_1620.0
# C_Vs_to_Am_M_A/Vsm_=_65563218390.804596
# pendiente_HvsI_1/m_=_3716.3
# ordenada_HvsI_A/m_=_1297.0
# frecuencia_Hz_=_135106.48087310256

Tiempo_(s)	Campo_(V.s)	Magnetizacion_(V.s)	Campo_(kA/m)	Magnetizacion_(A/m)
0.000000e+00	-5.527492e-06	-1.005132e-09	-3.836861e+01	-6.884789e+01
1.000000e-08	-5.527571e-06	-1.004453e-09	-3.836916e+01	-6.883675e+01
2.000000e-08	-5.527490e-06	-1.003705e-09	-3.836859e+01	-6.882478e+01
3.000000e-08	-5.527152e-06	-1.003495e-09	-3.836625e+01	-6.881170e+01
4.000000e-08	-5.526415e-06	-1.003408e-09	-3.836113e+01	-6.879716e+01
5.000000e-08	-5.525101e-06	-9.983110e-10	-3.835201e+01	-6.878084e+01
6.000000e-08	-5.523168e-06	-9.853442e-10	-3.833859e+01	-6.876242e+01
7.000000e-08	-5.520674e-06	-9.703093e-10	-3.832128e+01	-6.874157e+01
8.000000e-08	-5.517596e-06	-9.690104e-10	-3.829991e+01	-6.871797e+01
9.000000e-08	-5.513965e-06	-1.009381e-09	-3.827471e+01	-6.869131e+01
1.000000e-07	-5.509908e-06	-1.065860e-09	-3.824654e+01	-6.866129e+01
1.100000e-07	-5.505493e-06	-1.050685e-09	-3.821590e+01	-6.862764e+01
1.200000e-07	-5.500896e-06	-9.374663e-10	-3.818399e+01	-6.859009e+01
1.300000e-07	-5.496143e-06	-9.325399e-10	-3.815100e+01	-6.854841e+01
1.400000e-07	-5.490952e-06	-1.007625e-09	-3.811496e+01	-6.850240e+01
1.500000e-07	-5.485309e-06	-1.041919e-09	-3.807580e+01	-6.845188e+01
1.600000e-07	-5.479348e-06	-9.581823e-10	-3.803442e+01	-6.839670e+01
1.700000e-07	-5.473081e-06	-9.399764e-10	-3.799091e+01	-6.833676e+01
1.800000e-07	-5.466342e-06	-1.038009e-09	-3.794413e+01	-6.827199e+01
1.900000e-07	-5.459078e-06	-1.068365e-09	-3.789371e+01	-6.820234e+01
2.000000e-07	-5.451473e-06	-9.816279e-10	-3.784093e+01	-6.812782e+01
2.100000e-07	-5.443572e-06	-9.321645e-10	-3.778608e+01	-6.804849e+01
2.200000e-07	-5.435470e-06	-1.010329e-09	-3.772984e+01	-6.796441e+01
2.300000e-07	-5.427202e-06	-1.049050e-09	-3.767245e+01	-6.787571e+01
2.400000e-07	-5.418575e-06	-1.009725e-09	-3.761257e+01	-6.778256e+01
2.500000e-07	-5.409417e-06	-9.728025e-10	-3.754900e+01	-6.768515e+01
2.600000e-07	-5.399476e-06	-1.011861e-09	-3.747999e+01	-6.758372e+01
2.700000e-07	-5.388768e-06	-1.012648e-09	-3.740567e+01	-6.747853e+01
2.800000e-07	-5.377634e-06	-9.893403e-10	-3.732838e+01	-6.736988e+01
2.900000e-07	-5.366056e-06	-9.830313e-10	-3.724801e+01	-6.725810e+01
3.000000e-07	-5.354023e-06	-1.011084e-09	-3.716448e+01	-6.714354e+01
3.100000e-07	-5.341694e-06	-1.003379e-09	-3.707891e+01	-6.702658e+01
3.200000e-07	-5.328930e-06	-9.975151e-10	-3.699031e+01	-6.690761e+01
3.300000e-07	-5.315705e-06	-9.969647e-10	-3.689850e+01	-6.678702e+01
3.400000e-07	-5.302113e-06	-1.011243e-09	-3.680416e+01	-6.666525e+01
3.500000e-07	-5.288129e-06	-1.007862e-09	-3.670709e+01	-6.654271e+01
3.600000e-07	-5.273808e-06	-9.983074e-10	-3.660768e+01	-6.641983e+01
3.700000e-07	-5.259140e-06	-9.913844e-10	-3.650586e+01	-6.629703e+01
3.800000e-07	-5.243889e-06	-1.007093e-09	-3.640000e+01	-6.617472e+01
3.900000e-07	-5.228002e-06	-9.948833e-10	-3.628972e+01	-6.605331e+01
4.000000e-07	-5.211588e-06	-9.645214e-10	-3.617578e+01	-6.593319e+01
4.100000e-07	-5.194772e-06	-9.836238e-10	-3.605906e+01	-6.581472e+01
4.200000e-07	-5.177630e-06	-1.007190e-09	-3.594007e+01	-6.569826e+01
4.300000e-07	-5.160176e-06	-9.711406e-10	-3.581891e+01	-6.558411e+01
4.400000e-07	-5.142515e-06	-9.548380e-10	-3.569632e+01	-6.547258e+01
4.500000e-07	-5.124613e-06	-1.011694e-09	-3.557206e+01	-6.536392e+01
4.600000e-07	-5.106203e-06	-9.971573e-10	-3.544426e+01	-6.525835e+01
4.700000e-07	-5.087280e-06	-9.347613e-10	-3.531291e+01	-6.515606e+01
4.800000e-07	-5.068063e-06	-9.609568e-10	-3.517952e+01	-6.505719e+01
4.900000e-07	-5.048533e-06	-1.006188e-09	-3.504395e+01	-6.496184e+01
5.000000e-07	-5.028702e-06	-9.569214e-10	-3.490630e+01	-6.487009e+01
5.100000e-07	-5.008714e-06	-9.547873e-10	-3.476755e+01	-6.478195e+01
5.200000e-07	-4.988564e-06	-9.995212e-10	-3.462768e+01	-6.469741e+01
5.300000e-07	-4.968116e-06	-9.750424e-10	-3.448574e+01	-6.461640e+01
5.400000e-07	-4.947233e-06	-9.409324e-10	-3.434079e+01	-6.453883e+01
5.500000e-07	-4.925913e-06	-9.898827e-10	-3.419280e+01	-6.446454e+01
5.600000e-07	-4.904238e-06	-9.762754e-10	-3.404234e+01	-6.439337e+01
5.700000e-07	-4.882252e-06	-9.208451e-10	-3.388973e+01	-6.432511e+01
5.800000e-07	-4.859963e-06	-9.519217e-10	-3.373501e+01	-6.425950e+01
5.900000e-07	-4.837267e-06	-9.881139e-10	-3.357747e+01	-6.419627e+01
6.000000e-07	-4.814183e-06	-9.388530e-10	-3.341723e+01	-6.413513e+01
6.100000e-07	-4.790769e-06	-9.385817e-10	-3.325471e+01	-6.407574e+01
6.200000e-07	-4.767074e-06	-9.739166e-10	-3.309023e+01	-6.401776e+01
6.300000e-07	-4.743184e-06	-9.467512e-10	-3.292440e+01	-6.396084e+01
6.400000e-07	-4.719113e-06	-9.216079e-10	-3.275731e+01	-6.390460e+01
6.500000e-07	-4.694807e-06	-9.514946e-10	-3.258860e+01	-6.384866e+01
6.600000e-07	-4.670089e-06	-9.462757e-10	-3.241702e+01	-6.379264e+01
6.700000e-07	-4.644847e-06	-9.223596e-10	-3.224180e+01	-6.373616e+01
6.800000e-07	-4.619033e-06	-9.430823e-10	-3.206262e+01	-6.367884e+01
6.900000e-07	-4.592657e-06	-9.531655e-10	-3.187953e+01	-6.362030e+01
7.000000e-07	-4.565795e-06	-9.303167e-10	-3.169307e+01	-6.356021e+01
7.100000e-07	-4.538485e-06	-9.314710e-10	-3.150350e+01	-6.349820e+01
7.200000e-07	-4.510794e-06	-9.413665e-10	-3.131128e+01	-6.343397e+01
7.300000e-07	-4.482922e-06	-9.246045e-10	-3.111781e+01	-6.336720e+01
7.400000e-07	-4.454993e-06	-9.211770e-10	-3.092394e+01	-6.329763e+01
7.500000e-07	-4.426894e-06	-9.327477e-10	-3.072890e+01	-6.322500e+01
7.600000e-07	-4.398511e-06	-9.293505e-10	-3.053188e+01	-6.314910e+01
7.700000e-07	-4.369817e-06	-9.200293e-10	-3.033270e+01	-6.306973e+01
7.800000e-07	-4.340779e-06	-9.256529e-10	-3.013114e+01	-6.298674e+01
7.900000e-07	-4.311425e-06	-9.207919e-10	-2.992738e+01	-6.290002e+01
8.000000e-07	-4.281746e-06	-9.140071e-10	-2.972137e+01	-6.280946e+01
8.100000e-07	-4.251827e-06	-9.152429e-10	-2.951369e+01	-6.271501e+01
8.200000e-07	-4.221683e-06	-9.158866e-10	-2.930445e+01	-6.261664e+01
8.300000e-07	-4.191205e-06	-9.066703e-10	-2.909289e+01	-6.251437e+01
8.400000e-07	-4.160376e-06	-9.100102e-10	-2.887889e+01	-6.240824e+01
8.500000e-07	-4.129263e-06	-9.117818e-10	-2.866292e+01	-6.229831e+01
8.600000e-07	-4.097876e-06	-9.076632e-10	-2.844505e+01	-6.218468e+01
8.700000e-07	-4.066250e-06	-9.051993e-10	-2.822552e+01	-6.206747e+01
8.800000e-07	-4.034485e-06	-9.081054e-10	-2.800502e+01	-6.194682e+01
8.900000e-07	-4.002562e-06	-9.029458e-10	-2.778344e+01	-6.182290e+01
9.000000e-07	-3.970444e-06	-9.002906e-10	-2.756050e+01	-6.169588e+01
9.100000e-07	-3.938069e-06	-9.019379e-10	-2.733577e+01	-6.156597e+01
9.200000e-07	-3.905393e-06	-8.989825e-10	-2.710894e+01	-6.143336e+01
9.300000e-07	-3.872392e-06	-8.925515e-10	-2.687987e+01	-6.129827e+01
9.400000e-07	-3.838994e-06	-8.933909e-10	-2.664804e+01	-6.116090e+01
9.500000e-07	-3.805087e-06	-8.930299e-10	-2.641268e+01	-6.102148e+01
9.600000e-07	-3.770636e-06	-8.863052e-10	-2.617355e+01	-6.088021e+01
9.700000e-07	-3.735728e-06	-8.797460e-10	-2.593123e+01	-6.073730e+01
9.800000e-07	-3.700427e-06	-8.768353e-10	-2.568619e+01	-6.059293e+01
9.900000e-07	-3.664843e-06	-8.701829e-10	-2.543919e+01	-6.044729e+01
1.000000e-06	-3.629099e-06	-8.654786e-10	-2.519108e+01	-6.030055e+01
1.010000e-06	-3.593197e-06	-8.684722e-10	-2.494186e+01	-6.015284e+01
1.020000e-06	-3.557152e-06	-8.701861e-10	-2.469166e+01	-6.000429e+01
1.030000e-06	-3.521031e-06	-8.697260e-10	-2.444093e+01	-5.985501e+01
1.040000e-06	-3.484805e-06	-8.712506e-10	-2.418947e+01	-5.970507e+01
1.050000e-06	-3.448259e-06	-8.722160e-10	-2.393579e+01	-5.955452e+01
1.060000e-06	-3.411408e-06	-8.651806e-10	-2.367999e+01	-5.940339e+01
1.070000e-06	-3.374314e-06	-8.599546e-10	-2.342251e+01	-5.925167e+01
1.080000e-06	-3.336963e-06	-8.582825e-10	-2.316324e+01	-5.909934e+01
1.090000e-06	-3.299432e-06	-8.579403e-10	-2.290272e+01	-5.894634e+01
1.100000e-06	-3.261633e-06	-8.570693e-10	-2.264034e+01	-5.879257e+01
1.110000e-06	-3.223566e-06	-8.603338e-10	-2.237610e+01	-5.863793e+01
1.120000e-06	-3.185335e-06	-8.602266e-10	-2.211073e+01	-5.848229e+01
1.130000e-06	-3.146930e-06	-8.570884e-10	-2.184414e+01	-5.832549e+01
1.140000e-06	-3.108296e-06	-8.529155e-10	-2.157597e+01	-5.816733e+01
1.150000e-06	-3.069388e-06	-8.520250e-10	-2.130589e+01	-5.800763e+01
1.160000e-06	-3.030299e-06	-8.489266e-10	-2.103456e+01	-5.784616e+01
1.170000e-06	-2.990987e-06	-8.452998e-10	-2.076167e+01	-5.768270e+01
1.180000e-06	-2.951424e-06	-8.430081e-10	-2.048705e+01	-5.751698e+01
1.190000e-06	-2.911744e-06	-8.414542e-10	-2.021162e+01	-5.734877e+01
1.200000e-06	-2.871941e-06	-8.367115e-10	-1.993533e+01	-5.717779e+01
1.210000e-06	-2.832058e-06	-8.331990e-10	-1.965849e+01	-5.700378e+01
1.220000e-06	-2.792098e-06	-8.308387e-10	-1.938111e+01	-5.682648e+01
1.230000e-06	-2.752040e-06	-8.291825e-10	-1.910305e+01	-5.664560e+01
1.240000e-06	-2.711846e-06	-8.267209e-10	-1.882404e+01	-5.646090e+01
1.250000e-06	-2.671369e-06	-8.250734e-10	-1.854307e+01	-5.627210e+01
1.260000e-06	-2.630577e-06	-8.221113e-10	-1.825992e+01	-5.607897e+01
1.270000e-06	-2.589573e-06	-8.169924e-10	-1.797530e+01	-5.588126e+01
1.280000e-06	-2.548287e-06	-8.114023e-10	-1.768871e+01	-5.567874e+01
1.290000e-06	-2.506689e-06	-8.053198e-10	-1.739996e+01	-5.547121e+01
1.300000e-06	-2.464794e-06	-7.995126e-10	-1.710915e+01	-5.525844e+01
1.310000e-06	-2.422534e-06	-7.937012e-10	-1.681581e+01	-5.504027e+01
1.320000e-06	-2.379890e-06	-7.897423e-10	-1.651980e+01	-5.481652e+01
1.330000e-06	-2.336895e-06	-7.853059e-10	-1.622135e+01	-5.458702e+01
1.340000e-06	-2.293635e-06	-7.808505e-10	-1.592107e+01	-5.435165e+01
1.350000e-06	-2.250250e-06	-7.768286e-10	-1.561992e+01	-5.411026e+01
1.360000e-06	-2.206793e-06	-7.729277e-10	-1.531826e+01	-5.386274e+01
1.370000e-06	-2.163196e-06	-7.662078e-10	-1.501564e+01	-5.360897e+01
1.380000e-06	-2.119454e-06	-7.579875e-10	-1.471201e+01	-5.334887e+01
1.390000e-06	-2.075597e-06	-7.498407e-10	-1.440758e+01	-5.308233e+01
1.400000e-06	-2.031682e-06	-7.451709e-10	-1.410274e+01	-5.280926e+01
1.410000e-06	-1.987745e-06	-7.424337e-10	-1.379776e+01	-5.252958e+01
1.420000e-06	-1.943753e-06	-7.401004e-10	-1.349239e+01	-5.224317e+01
1.430000e-06	-1.899630e-06	-7.368126e-10	-1.318612e+01	-5.194994e+01
1.440000e-06	-1.855420e-06	-7.330219e-10	-1.287924e+01	-5.164978e+01
1.450000e-06	-1.811196e-06	-7.261905e-10	-1.257226e+01	-5.134256e+01
1.460000e-06	-1.766882e-06	-7.170344e-10	-1.226466e+01	-5.102812e+01
1.470000e-06	-1.722478e-06	-7.076131e-10	-1.195643e+01	-5.070630e+01
1.480000e-06	-1.677876e-06	-7.020818e-10	-1.164683e+01	-5.037690e+01
1.490000e-06	-1.633025e-06	-6.975231e-10	-1.133550e+01	-5.003969e+01
1.500000e-06	-1.588087e-06	-6.914429e-10	-1.102357e+01	-4.969442e+01
1.510000e-06	-1.543017e-06	-6.861883e-10	-1.071072e+01	-4.934078e+01
1.520000e-06	-1.497849e-06	-6.835391e-10	-1.039719e+01	-4.897845e+01
1.530000e-06	-1.452611e-06	-6.806906e-10	-1.008317e+01	-4.860703e+01
1.540000e-06	-1.407204e-06	-6.748036e-10	-9.767985e+00	-4.822611e+01
1.550000e-06	-1.361695e-06	-6.660150e-10	-9.452084e+00	-4.783521e+01
1.560000e-06	-1.316082e-06	-6.575684e-10	-9.135466e+00	-4.743381e+01
1.570000e-06	-1.270411e-06	-6.506808e-10	-8.818446e+00	-4.702134e+01
1.580000e-06	-1.224623e-06	-6.440245e-10	-8.500613e+00	-4.659718e+01
1.590000e-06	-1.178701e-06	-6.392204e-10	-8.181852e+00	-4.616067e+01
1.600000e-06	-1.132734e-06	-6.349744e-10	-7.862776e+00	-4.571107e+01
1.610000e-06	-1.086711e-06	-6.278922e-10	-7.543308e+00	-4.524764e+01
1.620000e-06	-1.040664e-06	-6.208523e-10	-7.223678e+00	-4.476956e+01
1.630000e-06	-9.945448e-07	-6.158768e-10	-6.903546e+00	-4.427597e+01
1.640000e-06	-9.483358e-07	-6.090741e-10	-6.582790e+00	-4.376598e+01
1.650000e-06	-9.020784e-07	-5.995711e-10	-6.261699e+00	-4.323867e+01
1.660000e-06	-8.557614e-07	-5.875583e-10	-5.940193e+00	-4.269309e+01
1.670000e-06	-8.093411e-07	-5.761364e-10	-5.617971e+00	-4.212824e+01
1.680000e-06	-7.629299e-07	-5.643874e-10	-5.295812e+00	-4.154313e+01
1.690000e-06	-7.165583e-07	-5.556193e-10	-4.973927e+00	-4.093676e+01
1.700000e-06	-6.700539e-07	-5.474532e-10	-4.651121e+00	-4.030809e+01
1.710000e-06	-6.233528e-07	-5.400545e-10	-4.326949e+00	-3.965611e+01
1.720000e-06	-5.766096e-07	-5.349783e-10	-4.002485e+00	-3.897983e+01
1.730000e-06	-5.299863e-07	-5.275535e-10	-3.678854e+00	-3.827823e+01
1.740000e-06	-4.833783e-07	-5.161020e-10	-3.355328e+00	-3.755037e+01
1.750000e-06	-4.366079e-07	-5.010903e-10	-3.030676e+00	-3.679531e+01
1.760000e-06	-3.897222e-07	-4.851745e-10	-2.705223e+00	-3.601216e+01
1.770000e-06	-3.428639e-07	-4.718901e-10	-2.379960e+00	-3.520008e+01
1.780000e-06	-2.960458e-07	-4.613974e-10	-2.054976e+00	-3.435830e+01
1.790000e-06	-2.491549e-07	-4.527012e-10	-1.729487e+00	-3.348611e+01
1.800000e-06	-2.022198e-07	-4.441842e-10	-1.403691e+00	-3.258286e+01
1.810000e-06	-1.552735e-07	-4.317676e-10	-1.077817e+00	-3.164802e+01
1.820000e-06	-1.083636e-07	-4.155435e-10	-7.521963e-01	-3.068111e+01
1.830000e-06	-6.154029e-08	-3.979611e-10	-4.271766e-01	-2.968179e+01
1.840000e-06	-1.464763e-08	-3.812375e-10	-1.016753e-01	-2.864978e+01
1.850000e-06	3.220749e-08	-3.661382e-10	2.235655e-01	-2.758495e+01
1.860000e-06	7.901148e-08	-3.515891e-10	5.484514e-01	-2.648725e+01
1.870000e-06	1.258312e-07	-3.362841e-10	8.734466e-01	-2.535679e+01
1.880000e-06	1.726480e-07	-3.205648e-10	1.198421e+00	-2.419377e+01
1.890000e-06	2.194828e-07	-3.046726e-10	1.523521e+00	-2.299853e+01
1.900000e-06	2.662321e-07	-2.876465e-10	1.848027e+00	-2.177154e+01
1.910000e-06	3.129932e-07	-2.689684e-10	2.172615e+00	-2.051340e+01
1.920000e-06	3.597805e-07	-2.520256e-10	2.497385e+00	-1.922483e+01
1.930000e-06	4.065362e-07	-2.347969e-10	2.821935e+00	-1.790669e+01
1.940000e-06	4.533263e-07	-2.147668e-10	3.146725e+00	-1.655998e+01
1.950000e-06	5.001073e-07	-1.939561e-10	3.471451e+00	-1.518580e+01
1.960000e-06	5.468205e-07	-1.756911e-10	3.795707e+00	-1.378538e+01
1.970000e-06	5.934981e-07	-1.582570e-10	4.119715e+00	-1.236008e+01
1.980000e-06	6.401425e-07	-1.395430e-10	4.443493e+00	-1.091137e+01
1.990000e-06	6.866589e-07	-1.200138e-10	4.766383e+00	-9.440802e+00
2.000000e-06	7.331009e-07	-9.820841e-11	5.088756e+00	-7.950063e+00
2.010000e-06	7.795141e-07	-7.357925e-11	5.410930e+00	-6.440913e+00
2.020000e-06	8.258032e-07	-4.845197e-11	5.732241e+00	-4.915200e+00
2.030000e-06	8.720286e-07	-2.604218e-11	6.053111e+00	-3.374847e+00
2.040000e-06	9.182400e-07	-7.432614e-12	6.373883e+00	-1.821842e+00
2.050000e-06	9.643724e-07	1.098713e-11	6.694107e+00	-2.582318e-01
2.060000e-06	1.010442e-06	3.118145e-11	7.013894e+00	1.313893e+00
2.070000e-06	1.056446e-06	5.077374e-11	7.333228e+00	2.892407e+00
2.080000e-06	1.102299e-06	7.271591e-11	7.651513e+00	4.475158e+00
2.090000e-06	1.148113e-06	9.867409e-11	7.969523e+00	6.059983e+00
2.100000e-06	1.193974e-06	1.233473e-10	8.287869e+00	7.644715e+00
2.110000e-06	1.239741e-06	1.444541e-10	8.605553e+00	9.227196e+00
2.120000e-06	1.285370e-06	1.642858e-10	8.922286e+00	1.080529e+01
2.130000e-06	1.330895e-06	1.815254e-10	9.238289e+00	1.237688e+01
2.140000e-06	1.376319e-06	1.977795e-10	9.553602e+00	1.393990e+01
2.150000e-06	1.421595e-06	2.170100e-10	9.867879e+00	1.549234e+01
2.160000e-06	1.466743e-06	2.395711e-10	1.018127e+01	1.703223e+01
2.170000e-06	1.511832e-06	2.629155e-10	1.049425e+01	1.855769e+01
2.180000e-06	1.556860e-06	2.849423e-10	1.080681e+01	2.006690e+01
2.190000e-06	1.601820e-06	3.068899e-10	1.111889e+01	2.155813e+01
2.200000e-06	1.646678e-06	3.288533e-10	1.143027e+01	2.302975e+01
2.210000e-06	1.691368e-06	3.472906e-10	1.174048e+01	2.448022e+01
2.220000e-06	1.735856e-06	3.629455e-10	1.204929e+01	2.590810e+01
2.230000e-06	1.780249e-06	3.782993e-10	1.235744e+01	2.731206e+01
2.240000e-06	1.824544e-06	3.937711e-10	1.266492e+01	2.869090e+01
2.250000e-06	1.868698e-06	4.101423e-10	1.297140e+01	3.004350e+01
2.260000e-06	1.912797e-06	4.299591e-10	1.327751e+01	3.136889e+01
2.270000e-06	1.956836e-06	4.506998e-10	1.358320e+01	3.266621e+01
2.280000e-06	2.000776e-06	4.699921e-10	1.388822e+01	3.393470e+01
2.290000e-06	2.044635e-06	4.879110e-10	1.419265e+01	3.517374e+01
2.300000e-06	2.088477e-06	5.031919e-10	1.449698e+01	3.638281e+01
2.310000e-06	2.132260e-06	5.158002e-10	1.480090e+01	3.756153e+01
2.320000e-06	2.175888e-06	5.291009e-10	1.510374e+01	3.870959e+01
2.330000e-06	2.219377e-06	5.444229e-10	1.540561e+01	3.982683e+01
2.340000e-06	2.262682e-06	5.599169e-10	1.570621e+01	4.091317e+01
2.350000e-06	2.305828e-06	5.753246e-10	1.600570e+01	4.196863e+01
2.360000e-06	2.348799e-06	5.910651e-10	1.630398e+01	4.299334e+01
2.370000e-06	2.391487e-06	6.056111e-10	1.660030e+01	4.398751e+01
2.380000e-06	2.433849e-06	6.180730e-10	1.689435e+01	4.495141e+01
2.390000e-06	2.475896e-06	6.294399e-10	1.718622e+01	4.588542e+01
2.400000e-06	2.517599e-06	6.404895e-10	1.747569e+01	4.678997e+01
2.410000e-06	2.558948e-06	6.534560e-10	1.776271e+01	4.766555e+01
2.420000e-06	2.600050e-06	6.665693e-10	1.804802e+01	4.851271e+01
2.430000e-06	2.640889e-06	6.786442e-10	1.833150e+01	4.933204e+01
2.440000e-06	2.681491e-06	6.898914e-10	1.861333e+01	5.012419e+01
2.450000e-06	2.721932e-06	6.991664e-10	1.889405e+01	5.088981e+01
2.460000e-06	2.762181e-06	7.070797e-10	1.917344e+01	5.162960e+01
2.470000e-06	2.802312e-06	7.161947e-10	1.945201e+01	5.234427e+01
2.480000e-06	2.842374e-06	7.269847e-10	1.973009e+01	5.303456e+01
2.490000e-06	2.882259e-06	7.392468e-10	2.000695e+01	5.370119e+01
2.500000e-06	2.921903e-06	7.520340e-10	2.028214e+01	5.434490e+01
2.510000e-06	2.961386e-06	7.633668e-10	2.055621e+01	5.496641e+01
2.520000e-06	3.000775e-06	7.730439e-10	2.082962e+01	5.556645e+01
2.530000e-06	3.039952e-06	7.807096e-10	2.110156e+01	5.614573e+01
2.540000e-06	3.078824e-06	7.859679e-10	2.137139e+01	5.670494e+01
2.550000e-06	3.117467e-06	7.913675e-10	2.163962e+01	5.724475e+01
2.560000e-06	3.155895e-06	7.991042e-10	2.190637e+01	5.776580e+01
2.570000e-06	3.194096e-06	8.079329e-10	2.217154e+01	5.826871e+01
2.580000e-06	3.232126e-06	8.160268e-10	2.243552e+01	5.875409e+01
2.590000e-06	3.270005e-06	8.240967e-10	2.269845e+01	5.922249e+01
2.600000e-06	3.307683e-06	8.321142e-10	2.296000e+01	5.967445e+01
2.610000e-06	3.345165e-06	8.385371e-10	2.322018e+01	6.011048e+01
2.620000e-06	3.382386e-06	8.448173e-10	2.347854e+01	6.053106e+01
2.630000e-06	3.419319e-06	8.515571e-10	2.373491e+01	6.093663e+01
2.640000e-06	3.456033e-06	8.565475e-10	2.398975e+01	6.132762e+01
2.650000e-06	3.492509e-06	8.599485e-10	2.424295e+01	6.170442e+01
2.660000e-06	3.528732e-06	8.643777e-10	2.449438e+01	6.206741e+01
2.670000e-06	3.564787e-06	8.686331e-10	2.474466e+01	6.241693e+01
2.680000e-06	3.600744e-06	8.715350e-10	2.499425e+01	6.275331e+01
2.690000e-06	3.636590e-06	8.755821e-10	2.524307e+01	6.307686e+01
2.700000e-06	3.672335e-06	8.820020e-10	2.549119e+01	6.338788e+01
2.710000e-06	3.707866e-06	8.891368e-10	2.573783e+01	6.368665e+01
2.720000e-06	3.743015e-06	8.959151e-10	2.598181e+01	6.397345e+01
2.730000e-06	3.777663e-06	9.011040e-10	2.622232e+01	6.424853e+01
2.740000e-06	3.811938e-06	9.058548e-10	2.646024e+01	6.451216e+01
2.750000e-06	3.845887e-06	9.110030e-10	2.669589e+01	6.476460e+01
2.760000e-06	3.879361e-06	9.156698e-10	2.692825e+01	6.500611e+01
2.770000e-06	3.912292e-06	9.205241e-10	2.715684e+01	6.523694e+01
2.780000e-06	3.944794e-06	9.249653e-10	2.738244e+01	6.545736e+01
2.790000e-06	3.977085e-06	9.294114e-10	2.760659e+01	6.566764e+01
2.800000e-06	4.009200e-06	9.336729e-10	2.782951e+01	6.586806e+01
2.810000e-06	4.041151e-06	9.364997e-10	2.805130e+01	6.605890e+01
2.820000e-06	4.072949e-06	9.386880e-10	2.827202e+01	6.624045e+01
2.830000e-06	4.104515e-06	9.415416e-10	2.849113e+01	6.641303e+01
2.840000e-06	4.135759e-06	9.454562e-10	2.870801e+01	6.657694e+01
2.850000e-06	4.166733e-06	9.498036e-10	2.892302e+01	6.673250e+01
2.860000e-06	4.197460e-06	9.548142e-10	2.913631e+01	6.688006e+01
2.870000e-06	4.227880e-06	9.582125e-10	2.934746e+01	6.701995e+01
2.880000e-06	4.257993e-06	9.589133e-10	2.955649e+01	6.715252e+01
2.890000e-06	4.287775e-06	9.618280e-10	2.976322e+01	6.727812e+01
2.900000e-06	4.317247e-06	9.667480e-10	2.996779e+01	6.739713e+01
