# Temperatura_=_7.2
# Concentracion g/m^3_=_1620.0
# C_Vs_to_Am_M_A/Vsm_=_65563218390.804596
# pendiente_HvsI_1/m_=_3716.3
# ordenada_HvsI_A/m_=_1297.0
# frecuencia_Hz_=_135108.50365238258

Tiempo_(s)	Campo_(V.s)	Magnetizacion_(V.s)	Campo_(kA/m)	Magnetizacion_(A/m)
0.000000e+00	-5.532764e-06	-1.309817e-09	-3.836197e+01	-8.751691e+01
1.000000e-08	-5.532958e-06	-1.309875e-09	-3.836331e+01	-8.751834e+01
2.000000e-08	-5.532814e-06	-1.311003e-09	-3.836231e+01	-8.752119e+01
3.000000e-08	-5.532254e-06	-1.312545e-09	-3.835843e+01	-8.752516e+01
4.000000e-08	-5.531135e-06	-1.311241e-09	-3.835067e+01	-8.752992e+01
5.000000e-08	-5.529330e-06	-1.303236e-09	-3.833816e+01	-8.753511e+01
6.000000e-08	-5.526919e-06	-1.289172e-09	-3.832144e+01	-8.754036e+01
7.000000e-08	-5.524010e-06	-1.284821e-09	-3.830127e+01	-8.754526e+01
8.000000e-08	-5.520664e-06	-1.331695e-09	-3.827807e+01	-8.754938e+01
9.000000e-08	-5.516900e-06	-1.375515e-09	-3.825197e+01	-8.755231e+01
1.000000e-07	-5.512667e-06	-1.321054e-09	-3.822262e+01	-8.755359e+01
1.100000e-07	-5.508205e-06	-1.251728e-09	-3.819168e+01	-8.755279e+01
1.200000e-07	-5.503696e-06	-1.279543e-09	-3.816042e+01	-8.754946e+01
1.300000e-07	-5.498893e-06	-1.329020e-09	-3.812712e+01	-8.754317e+01
1.400000e-07	-5.493608e-06	-1.328002e-09	-3.809047e+01	-8.753348e+01
1.500000e-07	-5.487929e-06	-1.251328e-09	-3.805110e+01	-8.751998e+01
1.600000e-07	-5.481905e-06	-1.306762e-09	-3.800933e+01	-8.750227e+01
1.700000e-07	-5.475381e-06	-1.337534e-09	-3.796409e+01	-8.747998e+01
1.800000e-07	-5.468407e-06	-1.341488e-09	-3.791574e+01	-8.745274e+01
1.900000e-07	-5.461081e-06	-1.290427e-09	-3.786495e+01	-8.742024e+01
2.000000e-07	-5.453503e-06	-1.292041e-09	-3.781240e+01	-8.738217e+01
2.100000e-07	-5.445748e-06	-1.312208e-09	-3.775863e+01	-8.733827e+01
2.200000e-07	-5.437765e-06	-1.316855e-09	-3.770328e+01	-8.728832e+01
2.300000e-07	-5.429472e-06	-1.315657e-09	-3.764578e+01	-8.723211e+01
2.400000e-07	-5.420586e-06	-1.303495e-09	-3.758417e+01	-8.716950e+01
2.500000e-07	-5.410747e-06	-1.323206e-09	-3.751595e+01	-8.710036e+01
2.600000e-07	-5.400234e-06	-1.311341e-09	-3.744306e+01	-8.702462e+01
2.700000e-07	-5.389374e-06	-1.302955e-09	-3.736775e+01	-8.694223e+01
2.800000e-07	-5.378014e-06	-1.279729e-09	-3.728899e+01	-8.685320e+01
2.900000e-07	-5.366302e-06	-1.309520e-09	-3.720779e+01	-8.675756e+01
3.000000e-07	-5.354324e-06	-1.299803e-09	-3.712473e+01	-8.665538e+01
3.100000e-07	-5.341850e-06	-1.299920e-09	-3.703825e+01	-8.654677e+01
3.200000e-07	-5.328839e-06	-1.289010e-09	-3.694803e+01	-8.643187e+01
3.300000e-07	-5.315501e-06	-1.330892e-09	-3.685555e+01	-8.631086e+01
3.400000e-07	-5.301868e-06	-1.308399e-09	-3.676103e+01	-8.618392e+01
3.500000e-07	-5.287798e-06	-1.283226e-09	-3.666347e+01	-8.605129e+01
3.600000e-07	-5.273222e-06	-1.282998e-09	-3.656241e+01	-8.591321e+01
3.700000e-07	-5.258314e-06	-1.304112e-09	-3.645904e+01	-8.576996e+01
3.800000e-07	-5.242806e-06	-1.257345e-09	-3.635151e+01	-8.562181e+01
3.900000e-07	-5.226597e-06	-1.258060e-09	-3.623913e+01	-8.546907e+01
4.000000e-07	-5.210161e-06	-1.297330e-09	-3.612517e+01	-8.531203e+01
4.100000e-07	-5.193396e-06	-1.274194e-09	-3.600892e+01	-8.515102e+01
4.200000e-07	-5.176142e-06	-1.228877e-09	-3.588929e+01	-8.498634e+01
4.300000e-07	-5.158606e-06	-1.277421e-09	-3.576771e+01	-8.481833e+01
4.400000e-07	-5.140857e-06	-1.294221e-09	-3.564464e+01	-8.464728e+01
4.500000e-07	-5.122647e-06	-1.224763e-09	-3.551838e+01	-8.447350e+01
4.600000e-07	-5.103859e-06	-1.232792e-09	-3.538811e+01	-8.429730e+01
4.700000e-07	-5.084724e-06	-1.273111e-09	-3.525543e+01	-8.411895e+01
4.800000e-07	-5.065365e-06	-1.227319e-09	-3.512121e+01	-8.393873e+01
4.900000e-07	-5.045800e-06	-1.206581e-09	-3.498555e+01	-8.375688e+01
5.000000e-07	-5.026127e-06	-1.271822e-09	-3.484915e+01	-8.357365e+01
5.100000e-07	-5.006181e-06	-1.243685e-09	-3.471085e+01	-8.338926e+01
5.200000e-07	-4.985708e-06	-1.196909e-09	-3.456890e+01	-8.320388e+01
5.300000e-07	-4.964850e-06	-1.247891e-09	-3.442428e+01	-8.301769e+01
5.400000e-07	-4.943766e-06	-1.267173e-09	-3.427809e+01	-8.283085e+01
5.500000e-07	-4.922333e-06	-1.188257e-09	-3.412948e+01	-8.264347e+01
5.600000e-07	-4.900577e-06	-1.203279e-09	-3.397864e+01	-8.245564e+01
5.700000e-07	-4.878517e-06	-1.239759e-09	-3.382568e+01	-8.226746e+01
5.800000e-07	-4.856105e-06	-1.196192e-09	-3.367028e+01	-8.207896e+01
5.900000e-07	-4.833323e-06	-1.182629e-09	-3.351233e+01	-8.189018e+01
6.000000e-07	-4.810181e-06	-1.236244e-09	-3.335187e+01	-8.170113e+01
6.100000e-07	-4.786747e-06	-1.209274e-09	-3.318938e+01	-8.151179e+01
6.200000e-07	-4.763061e-06	-1.180529e-09	-3.302516e+01	-8.132212e+01
6.300000e-07	-4.739203e-06	-1.207513e-09	-3.285973e+01	-8.113209e+01
6.400000e-07	-4.715044e-06	-1.206552e-09	-3.269223e+01	-8.094161e+01
6.500000e-07	-4.690400e-06	-1.170512e-09	-3.252135e+01	-8.075062e+01
6.600000e-07	-4.665299e-06	-1.194092e-09	-3.234731e+01	-8.055902e+01
6.700000e-07	-4.639667e-06	-1.206198e-09	-3.216959e+01	-8.036671e+01
6.800000e-07	-4.613426e-06	-1.182350e-09	-3.198765e+01	-8.017357e+01
6.900000e-07	-4.586686e-06	-1.182107e-09	-3.180224e+01	-7.997949e+01
7.000000e-07	-4.559567e-06	-1.194343e-09	-3.161421e+01	-7.978434e+01
7.100000e-07	-4.532120e-06	-1.170083e-09	-3.142390e+01	-7.958800e+01
7.200000e-07	-4.504491e-06	-1.155542e-09	-3.123233e+01	-7.939035e+01
7.300000e-07	-4.476787e-06	-1.164042e-09	-3.104024e+01	-7.919125e+01
7.400000e-07	-4.448901e-06	-1.159233e-09	-3.084689e+01	-7.899058e+01
7.500000e-07	-4.420721e-06	-1.151892e-09	-3.065150e+01	-7.878823e+01
7.600000e-07	-4.392266e-06	-1.157238e-09	-3.045421e+01	-7.858408e+01
7.700000e-07	-4.363466e-06	-1.153714e-09	-3.025452e+01	-7.837802e+01
7.800000e-07	-4.334273e-06	-1.139953e-09	-3.005211e+01	-7.816994e+01
7.900000e-07	-4.304756e-06	-1.141549e-09	-2.984745e+01	-7.795976e+01
8.000000e-07	-4.275009e-06	-1.138667e-09	-2.964120e+01	-7.774737e+01
8.100000e-07	-4.245022e-06	-1.126655e-09	-2.943328e+01	-7.753271e+01
8.200000e-07	-4.214684e-06	-1.123958e-09	-2.922293e+01	-7.731569e+01
8.300000e-07	-4.184029e-06	-1.133320e-09	-2.901038e+01	-7.709626e+01
8.400000e-07	-4.153065e-06	-1.124719e-09	-2.879569e+01	-7.687434e+01
8.500000e-07	-4.121894e-06	-1.121170e-09	-2.857956e+01	-7.664989e+01
8.600000e-07	-4.090553e-06	-1.124072e-09	-2.836225e+01	-7.642286e+01
8.700000e-07	-4.059047e-06	-1.119889e-09	-2.814381e+01	-7.619321e+01
8.800000e-07	-4.027393e-06	-1.104283e-09	-2.792433e+01	-7.596089e+01
8.900000e-07	-3.995515e-06	-1.102843e-09	-2.770330e+01	-7.572588e+01
9.000000e-07	-3.963360e-06	-1.095299e-09	-2.748035e+01	-7.548813e+01
9.100000e-07	-3.930786e-06	-1.085026e-09	-2.725449e+01	-7.524761e+01
9.200000e-07	-3.897744e-06	-1.085581e-09	-2.702539e+01	-7.500428e+01
9.300000e-07	-3.864255e-06	-1.091766e-09	-2.679319e+01	-7.475810e+01
9.400000e-07	-3.830401e-06	-1.081378e-09	-2.655847e+01	-7.450904e+01
9.500000e-07	-3.796076e-06	-1.074806e-09	-2.632047e+01	-7.425704e+01
9.600000e-07	-3.761195e-06	-1.071230e-09	-2.607862e+01	-7.400206e+01
9.700000e-07	-3.725974e-06	-1.058924e-09	-2.583441e+01	-7.374403e+01
9.800000e-07	-3.690567e-06	-1.044774e-09	-2.558891e+01	-7.348290e+01
9.900000e-07	-3.655045e-06	-1.045189e-09	-2.534262e+01	-7.321858e+01
1.000000e-06	-3.619429e-06	-1.044254e-09	-2.509567e+01	-7.295099e+01
1.010000e-06	-3.583665e-06	-1.037733e-09	-2.484770e+01	-7.268005e+01
1.020000e-06	-3.547706e-06	-1.038644e-09	-2.459837e+01	-7.240565e+01
1.030000e-06	-3.511589e-06	-1.040402e-09	-2.434795e+01	-7.212769e+01
1.040000e-06	-3.475215e-06	-1.031739e-09	-2.409575e+01	-7.184606e+01
1.050000e-06	-3.438521e-06	-1.021104e-09	-2.384133e+01	-7.156062e+01
1.060000e-06	-3.401571e-06	-1.016085e-09	-2.358513e+01	-7.127125e+01
1.070000e-06	-3.364356e-06	-1.008541e-09	-2.332710e+01	-7.097782e+01
1.080000e-06	-3.326888e-06	-1.003500e-09	-2.306731e+01	-7.068017e+01
1.090000e-06	-3.289286e-06	-1.003566e-09	-2.280659e+01	-7.037817e+01
1.100000e-06	-3.251521e-06	-1.000197e-09	-2.254474e+01	-7.007166e+01
1.110000e-06	-3.213481e-06	-9.900068e-10	-2.228099e+01	-6.976050e+01
1.120000e-06	-3.175182e-06	-9.872904e-10	-2.201544e+01	-6.944455e+01
1.130000e-06	-3.136648e-06	-9.837532e-10	-2.174826e+01	-6.912365e+01
1.140000e-06	-3.097868e-06	-9.763003e-10	-2.147938e+01	-6.879766e+01
1.150000e-06	-3.058881e-06	-9.688428e-10	-2.120905e+01	-6.846645e+01
1.160000e-06	-3.019704e-06	-9.665848e-10	-2.093741e+01	-6.812988e+01
1.170000e-06	-2.980342e-06	-9.579271e-10	-2.066449e+01	-6.778785e+01
1.180000e-06	-2.940826e-06	-9.483861e-10	-2.039050e+01	-6.744025e+01
1.190000e-06	-2.901184e-06	-9.416837e-10	-2.011564e+01	-6.708696e+01
1.200000e-06	-2.861457e-06	-9.373743e-10	-1.984020e+01	-6.672793e+01
1.210000e-06	-2.821544e-06	-9.312721e-10	-1.956345e+01	-6.636307e+01
1.220000e-06	-2.781425e-06	-9.275756e-10	-1.928529e+01	-6.599234e+01
1.230000e-06	-2.741154e-06	-9.243804e-10	-1.900606e+01	-6.561570e+01
1.240000e-06	-2.700600e-06	-9.204363e-10	-1.872488e+01	-6.523314e+01
1.250000e-06	-2.659755e-06	-9.177400e-10	-1.844167e+01	-6.484464e+01
1.260000e-06	-2.618749e-06	-9.152450e-10	-1.815735e+01	-6.445023e+01
1.270000e-06	-2.577472e-06	-9.082323e-10	-1.787116e+01	-6.404993e+01
1.280000e-06	-2.535845e-06	-8.999350e-10	-1.758253e+01	-6.364380e+01
1.290000e-06	-2.493992e-06	-8.925015e-10	-1.729234e+01	-6.323188e+01
1.300000e-06	-2.451912e-06	-8.841726e-10	-1.700057e+01	-6.281425e+01
1.310000e-06	-2.409440e-06	-8.747217e-10	-1.670609e+01	-6.239100e+01
1.320000e-06	-2.366633e-06	-8.683027e-10	-1.640928e+01	-6.196220e+01
1.330000e-06	-2.323612e-06	-8.630869e-10	-1.611099e+01	-6.152796e+01
1.340000e-06	-2.280365e-06	-8.570463e-10	-1.581114e+01	-6.108837e+01
1.350000e-06	-2.236960e-06	-8.520037e-10	-1.551018e+01	-6.064351e+01
1.360000e-06	-2.193484e-06	-8.454049e-10	-1.520874e+01	-6.019349e+01
1.370000e-06	-2.149928e-06	-8.368076e-10	-1.490674e+01	-5.973837e+01
1.380000e-06	-2.106261e-06	-8.269029e-10	-1.460397e+01	-5.927823e+01
1.390000e-06	-2.062551e-06	-8.177452e-10	-1.430090e+01	-5.881312e+01
1.400000e-06	-2.018790e-06	-8.100836e-10	-1.399748e+01	-5.834306e+01
1.410000e-06	-1.974944e-06	-8.037233e-10	-1.369347e+01	-5.786805e+01
1.420000e-06	-1.931003e-06	-7.986493e-10	-1.338880e+01	-5.738807e+01
1.430000e-06	-1.886934e-06	-7.947942e-10	-1.308324e+01	-5.690305e+01
1.440000e-06	-1.842726e-06	-7.888546e-10	-1.277672e+01	-5.641289e+01
1.450000e-06	-1.798363e-06	-7.814635e-10	-1.246913e+01	-5.591745e+01
1.460000e-06	-1.753846e-06	-7.716641e-10	-1.216047e+01	-5.541652e+01
1.470000e-06	-1.709154e-06	-7.610554e-10	-1.185059e+01	-5.490988e+01
1.480000e-06	-1.664336e-06	-7.508305e-10	-1.153984e+01	-5.439721e+01
1.490000e-06	-1.619445e-06	-7.401269e-10	-1.122858e+01	-5.387818e+01
1.500000e-06	-1.574390e-06	-7.289890e-10	-1.091619e+01	-5.335235e+01
1.510000e-06	-1.529234e-06	-7.213845e-10	-1.060310e+01	-5.281926e+01
1.520000e-06	-1.483998e-06	-7.152206e-10	-1.028945e+01	-5.227837e+01
1.530000e-06	-1.438673e-06	-7.079454e-10	-9.975184e+00	-5.172907e+01
1.540000e-06	-1.393258e-06	-6.988105e-10	-9.660290e+00	-5.117070e+01
1.550000e-06	-1.347747e-06	-6.914033e-10	-9.344736e+00	-5.060253e+01
1.560000e-06	-1.302153e-06	-6.821364e-10	-9.028606e+00	-5.002376e+01
1.570000e-06	-1.256472e-06	-6.732225e-10	-8.711870e+00	-4.943354e+01
1.580000e-06	-1.210759e-06	-6.660141e-10	-8.394915e+00	-4.883095e+01
1.590000e-06	-1.164929e-06	-6.596324e-10	-8.077150e+00	-4.821503e+01
1.600000e-06	-1.119031e-06	-6.499759e-10	-7.758914e+00	-4.758475e+01
1.610000e-06	-1.073095e-06	-6.383497e-10	-7.440407e+00	-4.693904e+01
1.620000e-06	-1.027074e-06	-6.276928e-10	-7.121322e+00	-4.627680e+01
1.630000e-06	-9.809150e-07	-6.161235e-10	-6.801271e+00	-4.559687e+01
1.640000e-06	-9.346411e-07	-6.055764e-10	-6.480426e+00	-4.489809e+01
1.650000e-06	-8.883440e-07	-5.963581e-10	-6.159421e+00	-4.417924e+01
1.660000e-06	-8.419240e-07	-5.846670e-10	-5.837563e+00	-4.343913e+01
1.670000e-06	-7.954171e-07	-5.692133e-10	-5.515103e+00	-4.267652e+01
1.680000e-06	-7.489314e-07	-5.531134e-10	-5.192790e+00	-4.189019e+01
1.690000e-06	-7.023754e-07	-5.376119e-10	-4.869990e+00	-4.107896e+01
1.700000e-06	-6.557543e-07	-5.228847e-10	-4.546737e+00	-4.024161e+01
1.710000e-06	-6.091018e-07	-5.096427e-10	-4.223268e+00	-3.937701e+01
1.720000e-06	-5.623624e-07	-5.003271e-10	-3.899196e+00	-3.848403e+01
1.730000e-06	-5.155956e-07	-4.908269e-10	-3.574933e+00	-3.756161e+01
1.740000e-06	-4.687886e-07	-4.797875e-10	-3.250392e+00	-3.660874e+01
1.750000e-06	-4.218888e-07	-4.647279e-10	-2.925208e+00	-3.562447e+01
1.760000e-06	-3.749826e-07	-4.465976e-10	-2.599979e+00	-3.460796e+01
1.770000e-06	-3.281145e-07	-4.290372e-10	-2.275014e+00	-3.355843e+01
1.780000e-06	-2.812218e-07	-4.136901e-10	-1.949879e+00	-3.247520e+01
1.790000e-06	-2.342554e-07	-3.996051e-10	-1.624233e+00	-3.135771e+01
1.800000e-06	-1.873037e-07	-3.835428e-10	-1.298689e+00	-3.020549e+01
1.810000e-06	-1.403392e-07	-3.677812e-10	-9.730555e-01	-2.901821e+01
1.820000e-06	-9.331661e-08	-3.530302e-10	-6.470199e-01	-2.779566e+01
1.830000e-06	-4.631168e-08	-3.367676e-10	-3.211066e-01	-2.653776e+01
1.840000e-06	6.851007e-10	-3.193830e-10	4.750213e-03	-2.524457e+01
1.850000e-06	4.766859e-08	-2.997342e-10	3.305149e-01	-2.391629e+01
1.860000e-06	9.465606e-08	-2.806606e-10	6.563071e-01	-2.255327e+01
1.870000e-06	1.416939e-07	-2.614092e-10	9.824489e-01	-2.115600e+01
1.880000e-06	1.886921e-07	-2.442293e-10	1.308315e+00	-1.972512e+01
1.890000e-06	2.355937e-07	-2.282499e-10	1.633512e+00	-1.826142e+01
1.900000e-06	2.825067e-07	-2.092439e-10	1.958788e+00	-1.676584e+01
1.910000e-06	3.293855e-07	-1.877438e-10	2.283827e+00	-1.523945e+01
1.920000e-06	3.762252e-07	-1.657964e-10	2.608595e+00	-1.368349e+01
1.930000e-06	4.230882e-07	-1.435523e-10	2.933524e+00	-1.209932e+01
1.940000e-06	4.698926e-07	-1.209336e-10	3.258047e+00	-1.048844e+01
1.950000e-06	5.166091e-07	-9.996498e-11	3.581960e+00	-8.852457e+00
1.960000e-06	5.632305e-07	-8.088509e-11	3.905214e+00	-7.193131e+00
1.970000e-06	6.098225e-07	-6.047615e-11	4.228265e+00	-5.512314e+00
1.980000e-06	6.564229e-07	-3.726397e-11	4.551373e+00	-3.811965e+00
1.990000e-06	7.030278e-07	-8.640945e-12	4.874513e+00	-2.094141e+00
2.000000e-06	7.495653e-07	2.453561e-11	5.197185e+00	-3.609777e-01
2.010000e-06	7.959870e-07	5.552019e-11	5.519055e+00	1.385312e+00
2.020000e-06	8.423063e-07	8.088616e-11	5.840214e+00	3.142457e+00
2.030000e-06	8.884987e-07	9.985905e-11	6.160493e+00	4.908132e+00
2.040000e-06	9.346469e-07	1.166558e-10	6.480466e+00	6.679979e+00
2.050000e-06	9.808069e-07	1.354811e-10	6.800522e+00	8.455613e+00
2.060000e-06	1.026949e-06	1.599727e-10	7.120449e+00	1.023263e+01
2.070000e-06	1.073002e-06	1.869801e-10	7.439763e+00	1.200865e+01
2.080000e-06	1.118991e-06	2.155375e-10	7.758633e+00	1.378126e+01
2.090000e-06	1.164921e-06	2.441047e-10	8.077092e+00	1.554813e+01
2.100000e-06	1.210732e-06	2.712521e-10	8.394730e+00	1.730691e+01
2.110000e-06	1.256461e-06	2.971065e-10	8.711795e+00	1.905535e+01
2.120000e-06	1.302116e-06	3.210792e-10	9.028351e+00	2.079123e+01
2.130000e-06	1.347654e-06	3.413690e-10	9.344092e+00	2.251241e+01
2.140000e-06	1.393112e-06	3.602969e-10	9.659279e+00	2.421683e+01
2.150000e-06	1.438468e-06	3.831411e-10	9.973760e+00	2.590252e+01
2.160000e-06	1.483729e-06	4.079180e-10	1.028758e+01	2.756762e+01
2.170000e-06	1.528918e-06	4.312001e-10	1.060090e+01	2.921037e+01
2.180000e-06	1.574016e-06	4.549038e-10	1.091359e+01	3.082913e+01
2.190000e-06	1.619043e-06	4.780839e-10	1.122579e+01	3.242238e+01
2.200000e-06	1.664013e-06	4.981760e-10	1.153760e+01	3.398872e+01
2.210000e-06	1.708734e-06	5.146904e-10	1.184768e+01	3.552690e+01
2.220000e-06	1.753141e-06	5.304533e-10	1.215557e+01	3.703577e+01
2.230000e-06	1.797388e-06	5.476860e-10	1.246237e+01	3.851436e+01
2.240000e-06	1.841543e-06	5.644575e-10	1.276852e+01	3.996181e+01
2.250000e-06	1.885578e-06	5.817305e-10	1.307384e+01	4.137740e+01
2.260000e-06	1.929512e-06	6.032363e-10	1.337846e+01	4.276055e+01
2.270000e-06	1.973402e-06	6.264396e-10	1.368278e+01	4.411082e+01
2.280000e-06	2.017188e-06	6.465022e-10	1.398637e+01	4.542789e+01
2.290000e-06	2.060887e-06	6.642734e-10	1.428936e+01	4.671158e+01
2.300000e-06	2.104546e-06	6.804977e-10	1.459208e+01	4.796183e+01
2.310000e-06	2.148188e-06	6.967654e-10	1.489468e+01	4.917869e+01
2.320000e-06	2.191808e-06	7.132602e-10	1.519712e+01	5.036234e+01
2.330000e-06	2.235378e-06	7.287816e-10	1.549921e+01	5.151305e+01
2.340000e-06	2.278816e-06	7.447979e-10	1.580040e+01	5.263120e+01
2.350000e-06	2.322075e-06	7.596428e-10	1.610034e+01	5.371724e+01
2.360000e-06	2.365167e-06	7.713376e-10	1.639912e+01	5.477172e+01
2.370000e-06	2.408002e-06	7.833257e-10	1.669612e+01	5.579526e+01
2.380000e-06	2.450581e-06	7.972646e-10	1.699135e+01	5.678855e+01
2.390000e-06	2.492849e-06	8.131784e-10	1.728442e+01	5.775232e+01
2.400000e-06	2.534738e-06	8.284963e-10	1.757485e+01	5.868737e+01
2.410000e-06	2.576290e-06	8.440192e-10	1.786296e+01	5.959451e+01
2.420000e-06	2.617490e-06	8.579861e-10	1.814862e+01	6.047460e+01
2.430000e-06	2.658441e-06	8.698961e-10	1.843257e+01	6.132851e+01
2.440000e-06	2.699133e-06	8.812099e-10	1.871471e+01	6.215714e+01
2.450000e-06	2.739413e-06	8.919823e-10	1.899399e+01	6.296137e+01
2.460000e-06	2.779449e-06	9.013458e-10	1.927158e+01	6.374209e+01
2.470000e-06	2.819392e-06	9.111746e-10	1.954853e+01	6.450018e+01
2.480000e-06	2.859210e-06	9.225462e-10	1.982462e+01	6.523651e+01
2.490000e-06	2.898933e-06	9.358238e-10	2.010004e+01	6.595190e+01
2.500000e-06	2.938556e-06	9.485735e-10	2.037477e+01	6.664717e+01
2.510000e-06	2.978090e-06	9.567291e-10	2.064888e+01	6.732309e+01
2.520000e-06	3.017550e-06	9.623836e-10	2.092248e+01	6.798042e+01
2.530000e-06	3.056863e-06	9.682208e-10	2.119506e+01	6.861984e+01
2.540000e-06	3.095880e-06	9.749062e-10	2.146559e+01	6.924201e+01
2.550000e-06	3.134581e-06	9.824680e-10	2.173392e+01	6.984756e+01
2.560000e-06	3.173084e-06	9.922985e-10	2.200089e+01	7.043704e+01
2.570000e-06	3.211390e-06	1.003642e-09	2.226649e+01	7.101098e+01
2.580000e-06	3.249390e-06	1.013221e-09	2.252997e+01	7.156985e+01
2.590000e-06	3.287135e-06	1.019810e-09	2.279167e+01	7.211408e+01
2.600000e-06	3.324729e-06	1.024876e-09	2.305234e+01	7.264406e+01
2.610000e-06	3.362159e-06	1.029277e-09	2.331186e+01	7.316013e+01
2.620000e-06	3.399355e-06	1.033518e-09	2.356977e+01	7.366259e+01
2.630000e-06	3.436213e-06	1.039080e-09	2.382532e+01	7.415172e+01
2.640000e-06	3.472754e-06	1.047209e-09	2.407868e+01	7.462774e+01
2.650000e-06	3.509052e-06	1.055543e-09	2.433036e+01	7.509086e+01
2.660000e-06	3.545112e-06	1.063047e-09	2.458038e+01	7.554126e+01
2.670000e-06	3.580985e-06	1.068593e-09	2.482912e+01	7.597909e+01
2.680000e-06	3.616747e-06	1.072328e-09	2.507707e+01	7.640449e+01
2.690000e-06	3.652420e-06	1.075650e-09	2.532442e+01	7.681758e+01
2.700000e-06	3.687987e-06	1.079894e-09	2.557102e+01	7.721849e+01
2.710000e-06	3.723413e-06	1.085662e-09	2.581665e+01	7.760731e+01
2.720000e-06	3.758612e-06	1.095022e-09	2.606070e+01	7.798417e+01
2.730000e-06	3.793453e-06	1.105592e-09	2.630228e+01	7.834916e+01
2.740000e-06	3.827896e-06	1.113990e-09	2.654110e+01	7.870242e+01
2.750000e-06	3.861889e-06	1.120481e-09	2.677679e+01	7.904407e+01
2.760000e-06	3.895339e-06	1.125468e-09	2.700872e+01	7.937425e+01
2.770000e-06	3.928229e-06	1.128076e-09	2.723676e+01	7.969312e+01
2.780000e-06	3.960700e-06	1.130315e-09	2.746190e+01	8.000087e+01
2.790000e-06	3.992918e-06	1.134862e-09	2.768529e+01	8.029769e+01
2.800000e-06	4.024870e-06	1.141759e-09	2.790683e+01	8.058379e+01
2.810000e-06	4.056605e-06	1.148796e-09	2.812687e+01	8.085943e+01
2.820000e-06	4.088239e-06	1.156139e-09	2.834621e+01	8.112488e+01
2.830000e-06	4.119745e-06	1.163356e-09	2.856466e+01	8.138041e+01
2.840000e-06	4.151031e-06	1.167603e-09	2.878158e+01	8.162636e+01
2.850000e-06	4.182019e-06	1.169890e-09	2.899644e+01	8.186305e+01
2.860000e-06	4.212710e-06	1.172710e-09	2.920924e+01	8.209084e+01
2.870000e-06	4.243051e-06	1.176321e-09	2.941961e+01	8.231012e+01
2.880000e-06	4.273081e-06	1.181049e-09	2.962783e+01	8.252128e+01
2.890000e-06	4.302840e-06	1.188076e-09	2.983416e+01	8.272472e+01
2.900000e-06	4.332301e-06	1.195007e-09	3.003843e+01	8.292087e+01
