# Temperatura_=_-13.64
# Concentracion g/m^3_=_1620.0
# C_Vs_to_Am_M_A/Vsm_=_65563218390.804596
# pendiente_HvsI_1/m_=_3716.3
# ordenada_HvsI_A/m_=_1297.0
# frecuencia_Hz_=_135109.77746311727

Tiempo_(s)	Campo_(V.s)	Magnetizacion_(V.s)	Campo_(kA/m)	Magnetizacion_(A/m)
0.000000e+00	-5.521229e-06	-8.623011e-10	-3.836824e+01	-5.856169e+01
1.000000e-08	-5.521445e-06	-8.622133e-10	-3.836974e+01	-5.858571e+01
2.000000e-08	-5.521420e-06	-8.639502e-10	-3.836957e+01	-5.861208e+01
3.000000e-08	-5.520991e-06	-8.657392e-10	-3.836659e+01	-5.864060e+01
4.000000e-08	-5.520137e-06	-8.670666e-10	-3.836065e+01	-5.867103e+01
5.000000e-08	-5.518746e-06	-8.666965e-10	-3.835099e+01	-5.870313e+01
6.000000e-08	-5.516720e-06	-8.642746e-10	-3.833690e+01	-5.873664e+01
7.000000e-08	-5.514087e-06	-8.706376e-10	-3.831861e+01	-5.877125e+01
8.000000e-08	-5.510914e-06	-8.575127e-10	-3.829656e+01	-5.880668e+01
9.000000e-08	-5.507225e-06	-8.095396e-10	-3.827092e+01	-5.884259e+01
1.000000e-07	-5.503129e-06	-8.369205e-10	-3.824246e+01	-5.887868e+01
1.100000e-07	-5.498765e-06	-9.612285e-10	-3.821213e+01	-5.891461e+01
1.200000e-07	-5.494064e-06	-9.076934e-10	-3.817946e+01	-5.895006e+01
1.300000e-07	-5.489155e-06	-7.905805e-10	-3.814535e+01	-5.898469e+01
1.400000e-07	-5.484116e-06	-7.907252e-10	-3.811033e+01	-5.901820e+01
1.500000e-07	-5.478648e-06	-9.255243e-10	-3.807234e+01	-5.905025e+01
1.600000e-07	-5.472661e-06	-9.390125e-10	-3.803073e+01	-5.908056e+01
1.700000e-07	-5.466338e-06	-7.825294e-10	-3.798679e+01	-5.910884e+01
1.800000e-07	-5.459629e-06	-8.175393e-10	-3.794017e+01	-5.913483e+01
1.900000e-07	-5.452410e-06	-9.440578e-10	-3.789000e+01	-5.915828e+01
2.000000e-07	-5.444793e-06	-9.605000e-10	-3.783707e+01	-5.917897e+01
2.100000e-07	-5.436958e-06	-8.305791e-10	-3.778262e+01	-5.919670e+01
2.200000e-07	-5.428952e-06	-8.401879e-10	-3.772699e+01	-5.921132e+01
2.300000e-07	-5.420656e-06	-9.276494e-10	-3.766933e+01	-5.922268e+01
2.400000e-07	-5.411870e-06	-9.513613e-10	-3.760828e+01	-5.923068e+01
2.500000e-07	-5.402531e-06	-8.871202e-10	-3.754338e+01	-5.923525e+01
2.600000e-07	-5.392643e-06	-8.903287e-10	-3.747467e+01	-5.923633e+01
2.700000e-07	-5.382022e-06	-9.220326e-10	-3.740086e+01	-5.923394e+01
2.800000e-07	-5.370755e-06	-9.196033e-10	-3.732256e+01	-5.922809e+01
2.900000e-07	-5.359126e-06	-8.851409e-10	-3.724175e+01	-5.921883e+01
3.000000e-07	-5.347124e-06	-8.812415e-10	-3.715834e+01	-5.920626e+01
3.100000e-07	-5.334747e-06	-9.173673e-10	-3.707233e+01	-5.919048e+01
3.200000e-07	-5.322080e-06	-9.410058e-10	-3.698431e+01	-5.917166e+01
3.300000e-07	-5.309044e-06	-9.187515e-10	-3.689372e+01	-5.914996e+01
3.400000e-07	-5.295533e-06	-8.800205e-10	-3.679983e+01	-5.912557e+01
3.500000e-07	-5.281657e-06	-9.227954e-10	-3.670340e+01	-5.909872e+01
3.600000e-07	-5.267346e-06	-9.346071e-10	-3.660395e+01	-5.906964e+01
3.700000e-07	-5.252481e-06	-8.744093e-10	-3.650065e+01	-5.903859e+01
3.800000e-07	-5.237159e-06	-8.779584e-10	-3.639418e+01	-5.900584e+01
3.900000e-07	-5.221378e-06	-9.619223e-10	-3.628451e+01	-5.897167e+01
4.000000e-07	-5.205056e-06	-8.952281e-10	-3.617108e+01	-5.893637e+01
4.100000e-07	-5.188323e-06	-8.327194e-10	-3.605480e+01	-5.890021e+01
4.200000e-07	-5.171275e-06	-9.300063e-10	-3.593633e+01	-5.886351e+01
4.300000e-07	-5.153932e-06	-9.529179e-10	-3.581581e+01	-5.882654e+01
4.400000e-07	-5.136178e-06	-8.068662e-10	-3.569243e+01	-5.878959e+01
4.500000e-07	-5.118090e-06	-8.649995e-10	-3.556673e+01	-5.875293e+01
4.600000e-07	-5.099727e-06	-9.883180e-10	-3.543913e+01	-5.871683e+01
4.700000e-07	-5.080825e-06	-8.732827e-10	-3.530777e+01	-5.868153e+01
4.800000e-07	-5.061570e-06	-8.039199e-10	-3.517397e+01	-5.864728e+01
4.900000e-07	-5.042115e-06	-9.618079e-10	-3.503877e+01	-5.861427e+01
5.000000e-07	-5.022411e-06	-9.348532e-10	-3.490184e+01	-5.858270e+01
5.100000e-07	-5.002494e-06	-8.089280e-10	-3.476344e+01	-5.855273e+01
5.200000e-07	-4.982376e-06	-9.143556e-10	-3.462363e+01	-5.852452e+01
5.300000e-07	-4.961923e-06	-9.721609e-10	-3.448150e+01	-5.849817e+01
5.400000e-07	-4.940967e-06	-8.248810e-10	-3.433587e+01	-5.847377e+01
5.500000e-07	-4.919638e-06	-8.605130e-10	-3.418765e+01	-5.845138e+01
5.600000e-07	-4.898005e-06	-9.764989e-10	-3.403732e+01	-5.843105e+01
5.700000e-07	-4.876066e-06	-8.637630e-10	-3.388486e+01	-5.841276e+01
5.800000e-07	-4.853868e-06	-8.173752e-10	-3.373060e+01	-5.839650e+01
5.900000e-07	-4.831377e-06	-9.504429e-10	-3.357430e+01	-5.838222e+01
6.000000e-07	-4.808486e-06	-9.224334e-10	-3.341523e+01	-5.836984e+01
6.100000e-07	-4.785150e-06	-8.293626e-10	-3.325306e+01	-5.835927e+01
6.200000e-07	-4.761545e-06	-9.112471e-10	-3.308903e+01	-5.835037e+01
6.300000e-07	-4.737809e-06	-9.328954e-10	-3.292408e+01	-5.834301e+01
6.400000e-07	-4.713859e-06	-8.472761e-10	-3.275765e+01	-5.833701e+01
6.500000e-07	-4.689561e-06	-8.770873e-10	-3.258880e+01	-5.833220e+01
6.600000e-07	-4.664769e-06	-9.346790e-10	-3.241651e+01	-5.832838e+01
6.700000e-07	-4.639389e-06	-8.801844e-10	-3.224014e+01	-5.832534e+01
6.800000e-07	-4.613521e-06	-8.809626e-10	-3.206038e+01	-5.832285e+01
6.900000e-07	-4.587234e-06	-9.309389e-10	-3.187770e+01	-5.832070e+01
7.000000e-07	-4.560445e-06	-9.020151e-10	-3.169154e+01	-5.831865e+01
7.100000e-07	-4.533233e-06	-8.640815e-10	-3.150244e+01	-5.831646e+01
7.200000e-07	-4.505780e-06	-8.934322e-10	-3.131166e+01	-5.831391e+01
7.300000e-07	-4.478143e-06	-8.872497e-10	-3.111961e+01	-5.831077e+01
7.400000e-07	-4.450295e-06	-8.662738e-10	-3.092608e+01	-5.830681e+01
7.500000e-07	-4.422182e-06	-8.879193e-10	-3.073072e+01	-5.830181e+01
7.600000e-07	-4.393794e-06	-9.037558e-10	-3.053345e+01	-5.829557e+01
7.700000e-07	-4.365155e-06	-8.814999e-10	-3.033443e+01	-5.828790e+01
7.800000e-07	-4.336319e-06	-8.826097e-10	-3.013404e+01	-5.827862e+01
7.900000e-07	-4.307146e-06	-8.881788e-10	-2.993131e+01	-5.826756e+01
8.000000e-07	-4.277475e-06	-8.723528e-10	-2.972512e+01	-5.825457e+01
8.100000e-07	-4.247529e-06	-8.674055e-10	-2.951702e+01	-5.823953e+01
8.200000e-07	-4.217421e-06	-8.805761e-10	-2.930779e+01	-5.822233e+01
8.300000e-07	-4.186951e-06	-8.718192e-10	-2.909605e+01	-5.820287e+01
8.400000e-07	-4.156118e-06	-8.660528e-10	-2.888178e+01	-5.818108e+01
8.500000e-07	-4.125104e-06	-8.816845e-10	-2.866626e+01	-5.815691e+01
8.600000e-07	-4.093944e-06	-8.802894e-10	-2.844972e+01	-5.813032e+01
8.700000e-07	-4.062525e-06	-8.638478e-10	-2.823138e+01	-5.810130e+01
8.800000e-07	-4.030843e-06	-8.684155e-10	-2.801122e+01	-5.806986e+01
8.900000e-07	-3.998969e-06	-8.714383e-10	-2.778972e+01	-5.803601e+01
9.000000e-07	-3.966853e-06	-8.544785e-10	-2.756654e+01	-5.799979e+01
9.100000e-07	-3.934432e-06	-8.581704e-10	-2.734124e+01	-5.796124e+01
9.200000e-07	-3.901707e-06	-8.708817e-10	-2.711383e+01	-5.792043e+01
9.300000e-07	-3.868544e-06	-8.640649e-10	-2.688337e+01	-5.787744e+01
9.400000e-07	-3.834943e-06	-8.610752e-10	-2.664986e+01	-5.783234e+01
9.500000e-07	-3.800949e-06	-8.747086e-10	-2.641363e+01	-5.778522e+01
9.600000e-07	-3.766466e-06	-8.648158e-10	-2.617400e+01	-5.773618e+01
9.700000e-07	-3.731657e-06	-8.465180e-10	-2.593211e+01	-5.768531e+01
9.800000e-07	-3.696626e-06	-8.475750e-10	-2.568867e+01	-5.763271e+01
9.900000e-07	-3.661306e-06	-8.488199e-10	-2.544322e+01	-5.757848e+01
1.000000e-06	-3.625733e-06	-8.358246e-10	-2.519602e+01	-5.752271e+01
1.010000e-06	-3.590007e-06	-8.419367e-10	-2.494775e+01	-5.746549e+01
1.020000e-06	-3.554165e-06	-8.534763e-10	-2.469867e+01	-5.740691e+01
1.030000e-06	-3.518190e-06	-8.477899e-10	-2.444868e+01	-5.734703e+01
1.040000e-06	-3.482073e-06	-8.413870e-10	-2.419769e+01	-5.728592e+01
1.050000e-06	-3.445704e-06	-8.464039e-10	-2.394496e+01	-5.722364e+01
1.060000e-06	-3.408940e-06	-8.412358e-10	-2.368948e+01	-5.716021e+01
1.070000e-06	-3.371857e-06	-8.365423e-10	-2.343178e+01	-5.709568e+01
1.080000e-06	-3.334551e-06	-8.459400e-10	-2.317253e+01	-5.703005e+01
1.090000e-06	-3.297007e-06	-8.526525e-10	-2.291163e+01	-5.696332e+01
1.100000e-06	-3.259176e-06	-8.455722e-10	-2.264873e+01	-5.689547e+01
1.110000e-06	-3.221030e-06	-8.434036e-10	-2.238365e+01	-5.682647e+01
1.120000e-06	-3.182678e-06	-8.443571e-10	-2.211713e+01	-5.675627e+01
1.130000e-06	-3.144220e-06	-8.364606e-10	-2.184988e+01	-5.668482e+01
1.140000e-06	-3.105578e-06	-8.319219e-10	-2.158135e+01	-5.661203e+01
1.150000e-06	-3.066736e-06	-8.384567e-10	-2.131143e+01	-5.653781e+01
1.160000e-06	-3.027664e-06	-8.379552e-10	-2.103990e+01	-5.646206e+01
1.170000e-06	-2.988381e-06	-8.306949e-10	-2.076692e+01	-5.638467e+01
1.180000e-06	-2.948951e-06	-8.302858e-10	-2.049291e+01	-5.630551e+01
1.190000e-06	-2.909397e-06	-8.300045e-10	-2.021804e+01	-5.622444e+01
1.200000e-06	-2.869763e-06	-8.237191e-10	-1.994262e+01	-5.614132e+01
1.210000e-06	-2.829966e-06	-8.187728e-10	-1.966606e+01	-5.605600e+01
1.220000e-06	-2.789996e-06	-8.187433e-10	-1.938830e+01	-5.596832e+01
1.230000e-06	-2.749935e-06	-8.171604e-10	-1.910990e+01	-5.587813e+01
1.240000e-06	-2.709701e-06	-8.173659e-10	-1.883031e+01	-5.578525e+01
1.250000e-06	-2.669145e-06	-8.214536e-10	-1.854848e+01	-5.568952e+01
1.260000e-06	-2.628270e-06	-8.251316e-10	-1.826443e+01	-5.559077e+01
1.270000e-06	-2.587159e-06	-8.227294e-10	-1.797874e+01	-5.548883e+01
1.280000e-06	-2.545873e-06	-8.213675e-10	-1.769183e+01	-5.538354e+01
1.290000e-06	-2.504361e-06	-8.180277e-10	-1.740336e+01	-5.527472e+01
1.300000e-06	-2.462537e-06	-8.112488e-10	-1.711271e+01	-5.516223e+01
1.310000e-06	-2.420361e-06	-8.052047e-10	-1.681962e+01	-5.504588e+01
1.320000e-06	-2.377961e-06	-8.026876e-10	-1.652498e+01	-5.492553e+01
1.330000e-06	-2.335303e-06	-7.998704e-10	-1.622854e+01	-5.480101e+01
1.340000e-06	-2.292367e-06	-7.993949e-10	-1.593017e+01	-5.467216e+01
1.350000e-06	-2.249218e-06	-8.010731e-10	-1.563031e+01	-5.453883e+01
1.360000e-06	-2.205819e-06	-7.995689e-10	-1.532872e+01	-5.440086e+01
1.370000e-06	-2.162262e-06	-7.932333e-10	-1.502603e+01	-5.425809e+01
1.380000e-06	-2.118633e-06	-7.872254e-10	-1.472285e+01	-5.411035e+01
1.390000e-06	-2.074971e-06	-7.819712e-10	-1.441943e+01	-5.395749e+01
1.400000e-06	-2.031272e-06	-7.778522e-10	-1.411575e+01	-5.379931e+01
1.410000e-06	-1.987494e-06	-7.763209e-10	-1.381154e+01	-5.363563e+01
1.420000e-06	-1.943604e-06	-7.763547e-10	-1.350653e+01	-5.346627e+01
1.430000e-06	-1.899569e-06	-7.741541e-10	-1.320053e+01	-5.329100e+01
1.440000e-06	-1.855388e-06	-7.695436e-10	-1.289350e+01	-5.310960e+01
1.450000e-06	-1.811153e-06	-7.634633e-10	-1.258610e+01	-5.292183e+01
1.460000e-06	-1.766854e-06	-7.559043e-10	-1.227826e+01	-5.272742e+01
1.470000e-06	-1.722401e-06	-7.484073e-10	-1.196935e+01	-5.252606e+01
1.480000e-06	-1.677787e-06	-7.459113e-10	-1.165931e+01	-5.231746e+01
1.490000e-06	-1.632952e-06	-7.460532e-10	-1.134775e+01	-5.210125e+01
1.500000e-06	-1.587973e-06	-7.439515e-10	-1.103517e+01	-5.187705e+01
1.510000e-06	-1.542970e-06	-7.425427e-10	-1.072244e+01	-5.164446e+01
1.520000e-06	-1.497816e-06	-7.407559e-10	-1.040865e+01	-5.140301e+01
1.530000e-06	-1.452481e-06	-7.361212e-10	-1.009361e+01	-5.115222e+01
1.540000e-06	-1.407074e-06	-7.293967e-10	-9.778066e+00	-5.089157e+01
1.550000e-06	-1.361659e-06	-7.218273e-10	-9.462470e+00	-5.062048e+01
1.560000e-06	-1.316208e-06	-7.126556e-10	-9.146619e+00	-5.033835e+01
1.570000e-06	-1.270699e-06	-7.050868e-10	-8.830365e+00	-5.004453e+01
1.580000e-06	-1.225084e-06	-6.995905e-10	-8.513381e+00	-4.973831e+01
1.590000e-06	-1.179305e-06	-6.970155e-10	-8.195248e+00	-4.941898e+01
1.600000e-06	-1.133497e-06	-6.962244e-10	-7.876917e+00	-4.908576e+01
1.610000e-06	-1.087638e-06	-6.937246e-10	-7.558239e+00	-4.873783e+01
1.620000e-06	-1.041583e-06	-6.866452e-10	-7.238193e+00	-4.837437e+01
1.630000e-06	-9.954696e-07	-6.771868e-10	-6.917738e+00	-4.799448e+01
1.640000e-06	-9.493074e-07	-6.677016e-10	-6.596947e+00	-4.759725e+01
1.650000e-06	-9.030261e-07	-6.577217e-10	-6.275327e+00	-4.718176e+01
1.660000e-06	-8.566551e-07	-6.474080e-10	-5.953085e+00	-4.674705e+01
1.670000e-06	-8.102212e-07	-6.401963e-10	-5.630406e+00	-4.629214e+01
1.680000e-06	-7.637856e-07	-6.351537e-10	-5.307715e+00	-4.581604e+01
1.690000e-06	-7.173059e-07	-6.298789e-10	-4.984717e+00	-4.531777e+01
1.700000e-06	-6.707642e-07	-6.222045e-10	-4.661288e+00	-4.479633e+01
1.710000e-06	-6.241961e-07	-6.139169e-10	-4.337676e+00	-4.425073e+01
1.720000e-06	-5.776101e-07	-6.057834e-10	-4.013940e+00	-4.367999e+01
1.730000e-06	-5.309818e-07	-5.952529e-10	-3.689910e+00	-4.308316e+01
1.740000e-06	-4.842419e-07	-5.841632e-10	-3.365104e+00	-4.245931e+01
1.750000e-06	-4.374006e-07	-5.738084e-10	-3.039593e+00	-4.180755e+01
1.760000e-06	-3.905376e-07	-5.636181e-10	-2.713932e+00	-4.112701e+01
1.770000e-06	-3.437030e-07	-5.539432e-10	-2.388468e+00	-4.041690e+01
1.780000e-06	-2.968763e-07	-5.447025e-10	-2.063059e+00	-3.967646e+01
1.790000e-06	-2.499766e-07	-5.357081e-10	-1.737142e+00	-3.890501e+01
1.800000e-06	-2.030458e-07	-5.244354e-10	-1.411010e+00	-3.810193e+01
1.810000e-06	-1.562208e-07	-5.094080e-10	-1.085613e+00	-3.726669e+01
1.820000e-06	-1.093981e-07	-4.948918e-10	-7.602315e-01	-3.639883e+01
1.830000e-06	-6.250660e-08	-4.814966e-10	-4.343722e-01	-3.549800e+01
1.840000e-06	-1.566732e-08	-4.698826e-10	-1.088756e-01	-3.456393e+01
1.850000e-06	3.116508e-08	-4.600069e-10	2.165730e-01	-3.359646e+01
1.860000e-06	7.801497e-08	-4.482811e-10	5.421432e-01	-3.259554e+01
1.870000e-06	1.248996e-07	-4.316995e-10	8.679546e-01	-3.156122e+01
1.880000e-06	1.717673e-07	-4.136490e-10	1.193649e+00	-3.049368e+01
1.890000e-06	2.185039e-07	-3.986718e-10	1.518432e+00	-2.939321e+01
1.900000e-06	2.652078e-07	-3.834814e-10	1.842988e+00	-2.826023e+01
1.910000e-06	3.119843e-07	-3.670699e-10	2.168048e+00	-2.709526e+01
1.920000e-06	3.588294e-07	-3.531800e-10	2.493585e+00	-2.589897e+01
1.930000e-06	4.056641e-07	-3.403386e-10	2.819049e+00	-2.467214e+01
1.940000e-06	4.524049e-07	-3.229527e-10	3.143862e+00	-2.341568e+01
1.950000e-06	4.990970e-07	-3.024885e-10	3.468335e+00	-2.213060e+01
1.960000e-06	5.457166e-07	-2.827585e-10	3.792305e+00	-2.081804e+01
1.970000e-06	5.922519e-07	-2.632902e-10	4.115689e+00	-1.947927e+01
1.980000e-06	6.387653e-07	-2.448531e-10	4.438921e+00	-1.811565e+01
1.990000e-06	6.852167e-07	-2.266796e-10	4.761722e+00	-1.672865e+01
2.000000e-06	7.316407e-07	-2.065198e-10	5.084333e+00	-1.531984e+01
2.010000e-06	7.780056e-07	-1.823712e-10	5.406533e+00	-1.389089e+01
2.020000e-06	8.242704e-07	-1.570500e-10	5.728037e+00	-1.244353e+01
2.030000e-06	8.704400e-07	-1.341416e-10	6.048879e+00	-1.097961e+01
2.040000e-06	9.165010e-07	-1.149172e-10	6.368968e+00	-9.501026e+00
2.050000e-06	9.625554e-07	-9.689720e-11	6.689010e+00	-8.009728e+00
2.060000e-06	1.008596e-06	-7.781567e-11	7.008955e+00	-6.507732e+00
2.070000e-06	1.054597e-06	-5.701431e-11	7.328624e+00	-4.997093e+00
2.080000e-06	1.100512e-06	-3.358601e-11	7.647699e+00	-3.479897e+00
2.090000e-06	1.146338e-06	-8.492764e-12	7.966159e+00	-1.958256e+00
2.100000e-06	1.192121e-06	1.585562e-11	8.284310e+00	-4.342903e-01
2.110000e-06	1.237742e-06	3.795573e-11	8.601341e+00	1.089874e+00
2.120000e-06	1.283229e-06	5.792776e-11	8.917439e+00	2.612121e+00
2.130000e-06	1.328715e-06	7.625139e-11	9.233532e+00	4.130350e+00
2.140000e-06	1.374158e-06	9.398040e-11	9.549325e+00	5.642492e+00
2.150000e-06	1.419441e-06	1.138830e-10	9.864007e+00	7.146513e+00
2.160000e-06	1.464638e-06	1.377658e-10	1.017809e+01	8.640428e+00
2.170000e-06	1.509783e-06	1.624744e-10	1.049181e+01	1.012230e+01
2.180000e-06	1.554764e-06	1.848499e-10	1.080440e+01	1.159028e+01
2.190000e-06	1.599638e-06	2.048852e-10	1.111624e+01	1.304256e+01
2.200000e-06	1.644397e-06	2.227709e-10	1.142727e+01	1.447743e+01
2.210000e-06	1.688942e-06	2.391434e-10	1.173683e+01	1.589326e+01
2.220000e-06	1.733354e-06	2.565570e-10	1.204546e+01	1.728853e+01
2.230000e-06	1.777693e-06	2.765063e-10	1.235358e+01	1.866179e+01
2.240000e-06	1.821885e-06	2.968307e-10	1.266068e+01	2.001172e+01
2.250000e-06	1.865921e-06	3.145869e-10	1.296669e+01	2.133708e+01
2.260000e-06	1.909870e-06	3.329803e-10	1.327210e+01	2.263676e+01
2.270000e-06	1.953744e-06	3.526240e-10	1.357700e+01	2.390976e+01
2.280000e-06	1.997538e-06	3.705464e-10	1.388133e+01	2.515519e+01
2.290000e-06	2.041267e-06	3.870688e-10	1.418521e+01	2.637226e+01
2.300000e-06	2.084924e-06	4.028827e-10	1.448860e+01	2.756032e+01
2.310000e-06	2.128534e-06	4.177187e-10	1.479165e+01	2.871882e+01
2.320000e-06	2.172095e-06	4.319731e-10	1.509437e+01	2.984732e+01
2.330000e-06	2.215554e-06	4.460426e-10	1.539637e+01	3.094549e+01
2.340000e-06	2.258887e-06	4.607088e-10	1.569750e+01	3.201310e+01
2.350000e-06	2.302076e-06	4.755147e-10	1.599763e+01	3.305005e+01
2.360000e-06	2.345133e-06	4.895014e-10	1.629685e+01	3.405630e+01
2.370000e-06	2.387932e-06	5.025268e-10	1.659427e+01	3.503193e+01
2.380000e-06	2.430356e-06	5.149324e-10	1.688908e+01	3.597710e+01
2.390000e-06	2.472555e-06	5.259397e-10	1.718233e+01	3.689206e+01
2.400000e-06	2.514499e-06	5.366680e-10	1.747381e+01	3.777711e+01
2.410000e-06	2.556013e-06	5.487898e-10	1.776230e+01	3.863266e+01
2.420000e-06	2.597113e-06	5.606979e-10	1.804791e+01	3.945917e+01
2.430000e-06	2.637933e-06	5.724444e-10	1.833158e+01	4.025713e+01
2.440000e-06	2.678560e-06	5.834251e-10	1.861391e+01	4.102711e+01
2.450000e-06	2.718938e-06	5.940680e-10	1.889450e+01	4.176973e+01
2.460000e-06	2.759083e-06	6.044772e-10	1.917348e+01	4.248563e+01
2.470000e-06	2.799058e-06	6.137275e-10	1.945127e+01	4.317547e+01
2.480000e-06	2.838932e-06	6.226494e-10	1.972836e+01	4.383997e+01
2.490000e-06	2.878705e-06	6.314701e-10	2.000475e+01	4.447984e+01
2.500000e-06	2.918351e-06	6.398192e-10	2.028027e+01	4.509580e+01
2.510000e-06	2.957882e-06	6.495287e-10	2.055497e+01	4.568860e+01
2.520000e-06	2.997249e-06	6.604112e-10	2.082854e+01	4.625898e+01
2.530000e-06	3.036391e-06	6.688544e-10	2.110055e+01	4.680766e+01
2.540000e-06	3.075290e-06	6.736367e-10	2.137087e+01	4.733538e+01
2.550000e-06	3.114034e-06	6.786830e-10	2.164011e+01	4.784284e+01
2.560000e-06	3.152551e-06	6.859630e-10	2.190777e+01	4.833074e+01
2.570000e-06	3.190749e-06	6.935331e-10	2.217322e+01	4.879977e+01
2.580000e-06	3.228725e-06	7.005767e-10	2.243712e+01	4.925058e+01
2.590000e-06	3.266480e-06	7.067892e-10	2.269949e+01	4.968381e+01
2.600000e-06	3.303990e-06	7.111846e-10	2.296016e+01	5.010006e+01
2.610000e-06	3.341278e-06	7.142523e-10	2.321928e+01	5.049992e+01
2.620000e-06	3.378379e-06	7.189769e-10	2.347710e+01	5.088394e+01
2.630000e-06	3.415335e-06	7.251131e-10	2.373392e+01	5.125265e+01
2.640000e-06	3.452059e-06	7.305818e-10	2.398912e+01	5.160656e+01
2.650000e-06	3.488463e-06	7.357897e-10	2.424210e+01	5.194614e+01
2.660000e-06	3.524564e-06	7.412951e-10	2.449297e+01	5.227184e+01
2.670000e-06	3.560533e-06	7.455317e-10	2.474293e+01	5.258409e+01
2.680000e-06	3.596397e-06	7.479287e-10	2.499216e+01	5.288328e+01
2.690000e-06	3.632076e-06	7.503433e-10	2.524009e+01	5.316981e+01
2.700000e-06	3.667629e-06	7.535085e-10	2.548716e+01	5.344404e+01
2.710000e-06	3.702991e-06	7.549657e-10	2.573290e+01	5.370630e+01
2.720000e-06	3.738123e-06	7.574366e-10	2.597704e+01	5.395695e+01
2.730000e-06	3.773005e-06	7.633412e-10	2.621945e+01	5.419629e+01
2.740000e-06	3.807548e-06	7.690325e-10	2.645949e+01	5.442464e+01
2.750000e-06	3.841645e-06	7.737986e-10	2.669644e+01	5.464230e+01
2.760000e-06	3.875153e-06	7.782442e-10	2.692929e+01	5.484958e+01
2.770000e-06	3.908161e-06	7.812624e-10	2.715867e+01	5.504676e+01
2.780000e-06	3.940823e-06	7.834060e-10	2.738565e+01	5.523414e+01
2.790000e-06	3.973108e-06	7.861227e-10	2.761000e+01	5.541203e+01
2.800000e-06	4.005034e-06	7.884294e-10	2.783186e+01	5.558071e+01
2.810000e-06	4.036778e-06	7.886708e-10	2.805246e+01	5.574050e+01
2.820000e-06	4.068407e-06	7.890606e-10	2.827226e+01	5.589169e+01
2.830000e-06	4.099885e-06	7.915363e-10	2.849101e+01	5.603461e+01
2.840000e-06	4.131164e-06	7.949576e-10	2.870837e+01	5.616958e+01
2.850000e-06	4.162150e-06	7.993780e-10	2.892370e+01	5.629693e+01
2.860000e-06	4.192787e-06	8.033890e-10	2.913660e+01	5.641699e+01
2.870000e-06	4.223068e-06	8.056785e-10	2.934703e+01	5.653012e+01
2.880000e-06	4.253089e-06	8.086672e-10	2.955565e+01	5.663665e+01
2.890000e-06	4.282903e-06	8.126383e-10	2.976284e+01	5.673696e+01
2.900000e-06	4.312444e-06	8.149743e-10	2.996813e+01	5.683140e+01
