# Temperatura_=_6.98
# Concentracion g/m^3_=_1620.0
# C_Vs_to_Am_M_A/Vsm_=_65563218390.804596
# pendiente_HvsI_1/m_=_3716.3
# ordenada_HvsI_A/m_=_1297.0
# frecuencia_Hz_=_135103.90168432138

Tiempo_(s)	Campo_(V.s)	Magnetizacion_(V.s)	Campo_(kA/m)	Magnetizacion_(A/m)
0.000000e+00	-5.532073e-06	-1.342803e-09	-3.836105e+01	-9.028806e+01
1.000000e-08	-5.532417e-06	-1.338982e-09	-3.836344e+01	-9.027165e+01
2.000000e-08	-5.532563e-06	-1.337505e-09	-3.836445e+01	-9.025314e+01
3.000000e-08	-5.532421e-06	-1.337635e-09	-3.836347e+01	-9.023230e+01
4.000000e-08	-5.531756e-06	-1.339334e-09	-3.835886e+01	-9.020889e+01
5.000000e-08	-5.530418e-06	-1.337800e-09	-3.834958e+01	-9.018264e+01
6.000000e-08	-5.528410e-06	-1.328902e-09	-3.833565e+01	-9.015333e+01
7.000000e-08	-5.525797e-06	-1.314245e-09	-3.831753e+01	-9.012072e+01
8.000000e-08	-5.522721e-06	-1.325736e-09	-3.829620e+01	-9.008456e+01
9.000000e-08	-5.519273e-06	-1.367474e-09	-3.827229e+01	-9.004465e+01
1.000000e-07	-5.515431e-06	-1.378771e-09	-3.824565e+01	-9.000077e+01
1.100000e-07	-5.511156e-06	-1.335694e-09	-3.821601e+01	-8.995273e+01
1.200000e-07	-5.506645e-06	-1.298145e-09	-3.818473e+01	-8.990035e+01
1.300000e-07	-5.501991e-06	-1.325613e-09	-3.815245e+01	-8.984349e+01
1.400000e-07	-5.496924e-06	-1.349480e-09	-3.811732e+01	-8.978201e+01
1.500000e-07	-5.491387e-06	-1.331638e-09	-3.807892e+01	-8.971580e+01
1.600000e-07	-5.485593e-06	-1.306892e-09	-3.803875e+01	-8.964480e+01
1.700000e-07	-5.479460e-06	-1.327819e-09	-3.799622e+01	-8.956894e+01
1.800000e-07	-5.472694e-06	-1.357109e-09	-3.794931e+01	-8.948821e+01
1.900000e-07	-5.465442e-06	-1.336713e-09	-3.789901e+01	-8.940261e+01
2.000000e-07	-5.458015e-06	-1.324494e-09	-3.784752e+01	-8.931218e+01
2.100000e-07	-5.450383e-06	-1.310491e-09	-3.779459e+01	-8.921698e+01
2.200000e-07	-5.442454e-06	-1.332077e-09	-3.773961e+01	-8.911710e+01
2.300000e-07	-5.434264e-06	-1.326543e-09	-3.768282e+01	-8.901266e+01
2.400000e-07	-5.425741e-06	-1.332056e-09	-3.762371e+01	-8.890382e+01
2.500000e-07	-5.416535e-06	-1.324275e-09	-3.755988e+01	-8.879074e+01
2.600000e-07	-5.406522e-06	-1.334962e-09	-3.749045e+01	-8.867361e+01
2.700000e-07	-5.395973e-06	-1.324671e-09	-3.741730e+01	-8.855265e+01
2.800000e-07	-5.384985e-06	-1.319930e-09	-3.734110e+01	-8.842810e+01
2.900000e-07	-5.373530e-06	-1.307893e-09	-3.726167e+01	-8.830021e+01
3.000000e-07	-5.361757e-06	-1.310758e-09	-3.718003e+01	-8.816923e+01
3.100000e-07	-5.349609e-06	-1.314952e-09	-3.709580e+01	-8.803543e+01
3.200000e-07	-5.337016e-06	-1.316954e-09	-3.700847e+01	-8.789911e+01
3.300000e-07	-5.324020e-06	-1.326630e-09	-3.691835e+01	-8.776053e+01
3.400000e-07	-5.310673e-06	-1.326538e-09	-3.682580e+01	-8.761997e+01
3.500000e-07	-5.296967e-06	-1.320128e-09	-3.673076e+01	-8.747773e+01
3.600000e-07	-5.282677e-06	-1.301343e-09	-3.663167e+01	-8.733406e+01
3.700000e-07	-5.267810e-06	-1.301843e-09	-3.652858e+01	-8.718923e+01
3.800000e-07	-5.252504e-06	-1.286453e-09	-3.642244e+01	-8.704349e+01
3.900000e-07	-5.236684e-06	-1.283101e-09	-3.631274e+01	-8.689707e+01
4.000000e-07	-5.220416e-06	-1.291511e-09	-3.619993e+01	-8.675019e+01
4.100000e-07	-5.203842e-06	-1.304441e-09	-3.608500e+01	-8.660303e+01
4.200000e-07	-5.186953e-06	-1.283059e-09	-3.596789e+01	-8.645576e+01
4.300000e-07	-5.169746e-06	-1.284930e-09	-3.584857e+01	-8.630854e+01
4.400000e-07	-5.152327e-06	-1.295547e-09	-3.572778e+01	-8.616147e+01
4.500000e-07	-5.134510e-06	-1.287915e-09	-3.560424e+01	-8.601464e+01
4.600000e-07	-5.116058e-06	-1.260380e-09	-3.547628e+01	-8.586811e+01
4.700000e-07	-5.097142e-06	-1.277031e-09	-3.534512e+01	-8.572190e+01
4.800000e-07	-5.077943e-06	-1.273014e-09	-3.521198e+01	-8.557602e+01
4.900000e-07	-5.058505e-06	-1.261648e-09	-3.507719e+01	-8.543042e+01
5.000000e-07	-5.038844e-06	-1.269194e-09	-3.494086e+01	-8.528504e+01
5.100000e-07	-5.019018e-06	-1.286812e-09	-3.480338e+01	-8.513979e+01
5.200000e-07	-4.998935e-06	-1.257785e-09	-3.466412e+01	-8.499454e+01
5.300000e-07	-4.978481e-06	-1.256289e-09	-3.452228e+01	-8.484915e+01
5.400000e-07	-4.957642e-06	-1.275920e-09	-3.437778e+01	-8.470344e+01
5.500000e-07	-4.936440e-06	-1.264324e-09	-3.423075e+01	-8.455721e+01
5.600000e-07	-4.914838e-06	-1.238142e-09	-3.408096e+01	-8.441025e+01
5.700000e-07	-4.892875e-06	-1.253496e-09	-3.392866e+01	-8.426232e+01
5.800000e-07	-4.870649e-06	-1.255092e-09	-3.377454e+01	-8.411317e+01
5.900000e-07	-4.848068e-06	-1.239708e-09	-3.361796e+01	-8.396254e+01
6.000000e-07	-4.825039e-06	-1.249506e-09	-3.345827e+01	-8.381016e+01
6.100000e-07	-4.801741e-06	-1.256482e-09	-3.329671e+01	-8.365575e+01
6.200000e-07	-4.778268e-06	-1.237361e-09	-3.313394e+01	-8.349904e+01
6.300000e-07	-4.754577e-06	-1.230340e-09	-3.296967e+01	-8.333975e+01
6.400000e-07	-4.730746e-06	-1.235002e-09	-3.280441e+01	-8.317760e+01
6.500000e-07	-4.706656e-06	-1.223453e-09	-3.263736e+01	-8.301235e+01
6.600000e-07	-4.682022e-06	-1.222965e-09	-3.246655e+01	-8.284372e+01
6.700000e-07	-4.656751e-06	-1.228294e-09	-3.229131e+01	-8.267149e+01
6.800000e-07	-4.630918e-06	-1.224949e-09	-3.211218e+01	-8.249544e+01
6.900000e-07	-4.604556e-06	-1.215544e-09	-3.192937e+01	-8.231535e+01
7.000000e-07	-4.577691e-06	-1.218647e-09	-3.174308e+01	-8.213105e+01
7.100000e-07	-4.550438e-06	-1.208672e-09	-3.155411e+01	-8.194239e+01
7.200000e-07	-4.522984e-06	-1.202461e-09	-3.136373e+01	-8.174923e+01
7.300000e-07	-4.495415e-06	-1.197528e-09	-3.117256e+01	-8.155146e+01
7.400000e-07	-4.467695e-06	-1.197392e-09	-3.098033e+01	-8.134900e+01
7.500000e-07	-4.439675e-06	-1.192441e-09	-3.078604e+01	-8.114182e+01
7.600000e-07	-4.411409e-06	-1.193697e-09	-3.059003e+01	-8.092987e+01
7.700000e-07	-4.382827e-06	-1.182082e-09	-3.039184e+01	-8.071318e+01
7.800000e-07	-4.353866e-06	-1.173638e-09	-3.019102e+01	-8.049177e+01
7.900000e-07	-4.324649e-06	-1.169140e-09	-2.998841e+01	-8.026571e+01
8.000000e-07	-4.295143e-06	-1.167401e-09	-2.978381e+01	-8.003508e+01
8.100000e-07	-4.265331e-06	-1.161129e-09	-2.957709e+01	-7.979998e+01
8.200000e-07	-4.235183e-06	-1.163110e-09	-2.936803e+01	-7.956056e+01
8.300000e-07	-4.204687e-06	-1.160226e-09	-2.915656e+01	-7.931695e+01
8.400000e-07	-4.173852e-06	-1.154557e-09	-2.894274e+01	-7.906934e+01
8.500000e-07	-4.142769e-06	-1.148200e-09	-2.872721e+01	-7.881789e+01
8.600000e-07	-4.111509e-06	-1.145944e-09	-2.851044e+01	-7.856280e+01
8.700000e-07	-4.080095e-06	-1.140173e-09	-2.829260e+01	-7.830428e+01
8.800000e-07	-4.048516e-06	-1.133652e-09	-2.807363e+01	-7.804253e+01
8.900000e-07	-4.016732e-06	-1.130338e-09	-2.785322e+01	-7.777775e+01
9.000000e-07	-3.984773e-06	-1.127191e-09	-2.763161e+01	-7.751015e+01
9.100000e-07	-3.952562e-06	-1.123061e-09	-2.740825e+01	-7.723993e+01
9.200000e-07	-3.919927e-06	-1.119144e-09	-2.718195e+01	-7.696728e+01
9.300000e-07	-3.886815e-06	-1.118197e-09	-2.695234e+01	-7.669239e+01
9.400000e-07	-3.853143e-06	-1.113702e-09	-2.671885e+01	-7.641541e+01
9.500000e-07	-3.819001e-06	-1.107309e-09	-2.648210e+01	-7.613651e+01
9.600000e-07	-3.784464e-06	-1.098494e-09	-2.624261e+01	-7.585579e+01
9.700000e-07	-3.749529e-06	-1.089602e-09	-2.600036e+01	-7.557338e+01
9.800000e-07	-3.714299e-06	-1.079257e-09	-2.575606e+01	-7.528935e+01
9.900000e-07	-3.678814e-06	-1.076716e-09	-2.551000e+01	-7.500375e+01
1.000000e-06	-3.643227e-06	-1.074502e-09	-2.526323e+01	-7.471662e+01
1.010000e-06	-3.607611e-06	-1.073340e-09	-2.501626e+01	-7.442795e+01
1.020000e-06	-3.571888e-06	-1.071027e-09	-2.476855e+01	-7.413771e+01
1.030000e-06	-3.535935e-06	-1.072922e-09	-2.451923e+01	-7.384584e+01
1.040000e-06	-3.499702e-06	-1.069580e-09	-2.426798e+01	-7.355225e+01
1.050000e-06	-3.463209e-06	-1.064759e-09	-2.401493e+01	-7.325682e+01
1.060000e-06	-3.426473e-06	-1.057313e-09	-2.376019e+01	-7.295941e+01
1.070000e-06	-3.389518e-06	-1.051614e-09	-2.350394e+01	-7.265984e+01
1.080000e-06	-3.352265e-06	-1.044449e-09	-2.324561e+01	-7.235792e+01
1.090000e-06	-3.314711e-06	-1.040437e-09	-2.298520e+01	-7.205341e+01
1.100000e-06	-3.276919e-06	-1.036346e-09	-2.272314e+01	-7.174609e+01
1.110000e-06	-3.238926e-06	-1.032997e-09	-2.245968e+01	-7.143569e+01
1.120000e-06	-3.200743e-06	-1.028640e-09	-2.219492e+01	-7.112193e+01
1.130000e-06	-3.162370e-06	-1.025440e-09	-2.192882e+01	-7.080453e+01
1.140000e-06	-3.123759e-06	-1.019849e-09	-2.166108e+01	-7.048319e+01
1.150000e-06	-3.084871e-06	-1.012931e-09	-2.139142e+01	-7.015761e+01
1.160000e-06	-3.045775e-06	-1.005530e-09	-2.112032e+01	-6.982748e+01
1.170000e-06	-3.006546e-06	-9.993211e-10	-2.084829e+01	-6.949251e+01
1.180000e-06	-2.967143e-06	-9.927765e-10	-2.057506e+01	-6.915239e+01
1.190000e-06	-2.927558e-06	-9.867822e-10	-2.030057e+01	-6.880683e+01
1.200000e-06	-2.887888e-06	-9.822038e-10	-2.002548e+01	-6.845556e+01
1.210000e-06	-2.848140e-06	-9.758556e-10	-1.974986e+01	-6.809831e+01
1.220000e-06	-2.808247e-06	-9.689928e-10	-1.947323e+01	-6.773483e+01
1.230000e-06	-2.768078e-06	-9.623292e-10	-1.919469e+01	-6.736489e+01
1.240000e-06	-2.727686e-06	-9.575586e-10	-1.891459e+01	-6.698829e+01
1.250000e-06	-2.687159e-06	-9.509966e-10	-1.863356e+01	-6.660484e+01
1.260000e-06	-2.646372e-06	-9.441977e-10	-1.835074e+01	-6.621439e+01
1.270000e-06	-2.605285e-06	-9.357460e-10	-1.806583e+01	-6.581679e+01
1.280000e-06	-2.563780e-06	-9.287253e-10	-1.777802e+01	-6.541196e+01
1.290000e-06	-2.521915e-06	-9.223073e-10	-1.748772e+01	-6.499980e+01
1.300000e-06	-2.479868e-06	-9.178190e-10	-1.719615e+01	-6.458027e+01
1.310000e-06	-2.437483e-06	-9.123125e-10	-1.690224e+01	-6.415332e+01
1.320000e-06	-2.394727e-06	-9.061116e-10	-1.660576e+01	-6.371897e+01
1.330000e-06	-2.351807e-06	-8.981707e-10	-1.630814e+01	-6.327723e+01
1.340000e-06	-2.308700e-06	-8.913299e-10	-1.600922e+01	-6.282813e+01
1.350000e-06	-2.265403e-06	-8.843595e-10	-1.570899e+01	-6.237173e+01
1.360000e-06	-2.222014e-06	-8.765110e-10	-1.540811e+01	-6.190809e+01
1.370000e-06	-2.178532e-06	-8.685092e-10	-1.510660e+01	-6.143730e+01
1.380000e-06	-2.134968e-06	-8.627809e-10	-1.480451e+01	-6.095942e+01
1.390000e-06	-2.091332e-06	-8.545480e-10	-1.450193e+01	-6.047456e+01
1.400000e-06	-2.047656e-06	-8.465473e-10	-1.419906e+01	-5.998278e+01
1.410000e-06	-2.003915e-06	-8.387739e-10	-1.389575e+01	-5.948415e+01
1.420000e-06	-1.960048e-06	-8.296171e-10	-1.359156e+01	-5.897875e+01
1.430000e-06	-1.916047e-06	-8.196971e-10	-1.328645e+01	-5.846660e+01
1.440000e-06	-1.871908e-06	-8.115550e-10	-1.298037e+01	-5.794771e+01
1.450000e-06	-1.827619e-06	-8.033799e-10	-1.267326e+01	-5.742209e+01
1.460000e-06	-1.783220e-06	-7.948680e-10	-1.236538e+01	-5.688968e+01
1.470000e-06	-1.738778e-06	-7.847402e-10	-1.205721e+01	-5.635038e+01
1.480000e-06	-1.694206e-06	-7.733674e-10	-1.174813e+01	-5.580408e+01
1.490000e-06	-1.649388e-06	-7.636144e-10	-1.143735e+01	-5.525060e+01
1.500000e-06	-1.604387e-06	-7.538253e-10	-1.112530e+01	-5.468969e+01
1.510000e-06	-1.559300e-06	-7.446717e-10	-1.081265e+01	-5.412108e+01
1.520000e-06	-1.514099e-06	-7.368772e-10	-1.049922e+01	-5.354442e+01
1.530000e-06	-1.468758e-06	-7.312004e-10	-1.018481e+01	-5.295929e+01
1.540000e-06	-1.423316e-06	-7.246390e-10	-9.869699e+00	-5.236524e+01
1.550000e-06	-1.377833e-06	-7.136409e-10	-9.554309e+00	-5.176171e+01
1.560000e-06	-1.332343e-06	-6.996804e-10	-9.238863e+00	-5.114811e+01
1.570000e-06	-1.286713e-06	-6.863437e-10	-8.922457e+00	-5.052376e+01
1.580000e-06	-1.240964e-06	-6.714189e-10	-8.605218e+00	-4.988794e+01
1.590000e-06	-1.195148e-06	-6.593722e-10	-8.287513e+00	-4.923985e+01
1.600000e-06	-1.149214e-06	-6.515841e-10	-7.968996e+00	-4.857862e+01
1.610000e-06	-1.103266e-06	-6.437533e-10	-7.650380e+00	-4.790335e+01
1.620000e-06	-1.057312e-06	-6.349394e-10	-7.331717e+00	-4.721305e+01
1.630000e-06	-1.011268e-06	-6.271138e-10	-7.012436e+00	-4.650671e+01
1.640000e-06	-9.650288e-07	-6.187988e-10	-6.691799e+00	-4.578327e+01
1.650000e-06	-9.186121e-07	-6.063559e-10	-6.369932e+00	-4.504162e+01
1.660000e-06	-8.721089e-07	-5.895913e-10	-6.047465e+00	-4.428063e+01
1.670000e-06	-8.256006e-07	-5.731253e-10	-5.724962e+00	-4.349914e+01
1.680000e-06	-7.792600e-07	-5.577115e-10	-5.403623e+00	-4.269599e+01
1.690000e-06	-7.329194e-07	-5.447024e-10	-5.082283e+00	-4.186998e+01
1.700000e-06	-6.864788e-07	-5.333915e-10	-4.760250e+00	-4.101996e+01
1.710000e-06	-6.398900e-07	-5.220876e-10	-4.437189e+00	-4.014474e+01
1.720000e-06	-5.931277e-07	-5.108779e-10	-4.112926e+00	-3.924319e+01
1.730000e-06	-5.463757e-07	-4.987764e-10	-3.788733e+00	-3.831420e+01
1.740000e-06	-4.996383e-07	-4.835266e-10	-3.464642e+00	-3.735669e+01
1.750000e-06	-4.528231e-07	-4.657975e-10	-3.140012e+00	-3.636964e+01
1.760000e-06	-4.059439e-07	-4.455240e-10	-2.814937e+00	-3.535210e+01
1.770000e-06	-3.590301e-07	-4.261597e-10	-2.489622e+00	-3.430317e+01
1.780000e-06	-3.121305e-07	-4.117124e-10	-2.164407e+00	-3.322206e+01
1.790000e-06	-2.652978e-07	-4.016347e-10	-1.839655e+00	-3.210805e+01
1.800000e-06	-2.184954e-07	-3.927478e-10	-1.515113e+00	-3.096052e+01
1.810000e-06	-1.716425e-07	-3.813694e-10	-1.190220e+00	-2.977897e+01
1.820000e-06	-1.248042e-07	-3.657679e-10	-8.654298e-01	-2.856300e+01
1.830000e-06	-7.800627e-08	-3.467138e-10	-5.409189e-01	-2.731235e+01
1.840000e-06	-3.111639e-08	-3.279478e-10	-2.157704e-01	-2.602687e+01
1.850000e-06	1.580611e-08	-3.081952e-10	1.096043e-01	-2.470657e+01
1.860000e-06	6.272901e-08	-2.870817e-10	4.349818e-01	-2.335157e+01
1.870000e-06	1.096803e-07	-2.670214e-10	7.605560e-01	-2.196216e+01
1.880000e-06	1.566261e-07	-2.481163e-10	1.086092e+00	-2.053877e+01
1.890000e-06	2.035620e-07	-2.295878e-10	1.411560e+00	-1.908196e+01
1.900000e-06	2.504825e-07	-2.108991e-10	1.736921e+00	-1.759247e+01
1.910000e-06	2.973768e-07	-1.908356e-10	2.062100e+00	-1.607117e+01
1.920000e-06	3.441919e-07	-1.704372e-10	2.386730e+00	-1.451906e+01
1.930000e-06	3.909858e-07	-1.491701e-10	2.711213e+00	-1.293733e+01
1.940000e-06	4.378435e-07	-1.251065e-10	3.036138e+00	-1.132727e+01
1.950000e-06	4.846862e-07	-9.965126e-11	3.360959e+00	-9.690331e+00
1.960000e-06	5.315419e-07	-7.593643e-11	3.685871e+00	-8.028083e+00
1.970000e-06	5.783880e-07	-5.624321e-11	4.010716e+00	-6.342226e+00
1.980000e-06	6.250786e-07	-3.722782e-11	4.334483e+00	-4.634576e+00
1.990000e-06	6.716040e-07	-1.541660e-11	4.657104e+00	-2.907059e+00
2.000000e-06	7.179770e-07	1.033630e-11	4.978668e+00	-1.161697e+00
2.010000e-06	7.642573e-07	4.046990e-11	5.299589e+00	5.993955e-01
2.020000e-06	8.105214e-07	7.195867e-11	5.620399e+00	2.374025e+00
2.030000e-06	8.568491e-07	1.006585e-10	5.941649e+00	4.159932e+00
2.040000e-06	9.031566e-07	1.249946e-10	6.262759e+00	5.954799e+00
2.050000e-06	9.493247e-07	1.475488e-10	6.582902e+00	7.756267e+00
2.060000e-06	9.954197e-07	1.699180e-10	6.902539e+00	9.561942e+00
2.070000e-06	1.041520e-06	1.909067e-10	7.222214e+00	1.136941e+01
2.080000e-06	1.087639e-06	2.135219e-10	7.542012e+00	1.317627e+01
2.090000e-06	1.133640e-06	2.407671e-10	7.861002e+00	1.498009e+01
2.100000e-06	1.179453e-06	2.695870e-10	8.178682e+00	1.677848e+01
2.110000e-06	1.225170e-06	2.973470e-10	8.495698e+00	1.856910e+01
2.120000e-06	1.270834e-06	3.221858e-10	8.812346e+00	2.034961e+01
2.130000e-06	1.316454e-06	3.438091e-10	9.128687e+00	2.211775e+01
2.140000e-06	1.362029e-06	3.625887e-10	9.444717e+00	2.387134e+01
2.150000e-06	1.407493e-06	3.806744e-10	9.759978e+00	2.560824e+01
2.160000e-06	1.452838e-06	4.034877e-10	1.007442e+01	2.732644e+01
2.170000e-06	1.498081e-06	4.301866e-10	1.038814e+01	2.902398e+01
2.180000e-06	1.543194e-06	4.562865e-10	1.070097e+01	3.069904e+01
2.190000e-06	1.588137e-06	4.819747e-10	1.101262e+01	3.234989e+01
2.200000e-06	1.632952e-06	5.072460e-10	1.132338e+01	3.397494e+01
2.210000e-06	1.677693e-06	5.293633e-10	1.163362e+01	3.557271e+01
2.220000e-06	1.722251e-06	5.465135e-10	1.194261e+01	3.714185e+01
2.230000e-06	1.766609e-06	5.613575e-10	1.225020e+01	3.868113e+01
2.240000e-06	1.810886e-06	5.768140e-10	1.255723e+01	4.018949e+01
2.250000e-06	1.855053e-06	5.936313e-10	1.286349e+01	4.166597e+01
2.260000e-06	1.899074e-06	6.133776e-10	1.316875e+01	4.310978e+01
2.270000e-06	1.943015e-06	6.369597e-10	1.347345e+01	4.452024e+01
2.280000e-06	1.986876e-06	6.606469e-10	1.377759e+01	4.589682e+01
2.290000e-06	2.030637e-06	6.812217e-10	1.408105e+01	4.723913e+01
2.300000e-06	2.074320e-06	6.973337e-10	1.438395e+01	4.854690e+01
2.310000e-06	2.117978e-06	7.096098e-10	1.468670e+01	4.981998e+01
2.320000e-06	2.161604e-06	7.211086e-10	1.498921e+01	5.105838e+01
2.330000e-06	2.205129e-06	7.328101e-10	1.529103e+01	5.226218e+01
2.340000e-06	2.248557e-06	7.469913e-10	1.559217e+01	5.343159e+01
2.350000e-06	2.291946e-06	7.649832e-10	1.589304e+01	5.456694e+01
2.360000e-06	2.335225e-06	7.845977e-10	1.619315e+01	5.566864e+01
2.370000e-06	2.378263e-06	8.015414e-10	1.649159e+01	5.673719e+01
2.380000e-06	2.421043e-06	8.151386e-10	1.678824e+01	5.777318e+01
2.390000e-06	2.463512e-06	8.269505e-10	1.708273e+01	5.877726e+01
2.400000e-06	2.505639e-06	8.369044e-10	1.737485e+01	5.975015e+01
2.410000e-06	2.547510e-06	8.482508e-10	1.766520e+01	6.069263e+01
2.420000e-06	2.589100e-06	8.621302e-10	1.795360e+01	6.160554e+01
2.430000e-06	2.630304e-06	8.778791e-10	1.823931e+01	6.248972e+01
2.440000e-06	2.671116e-06	8.933836e-10	1.852232e+01	6.334609e+01
2.450000e-06	2.711550e-06	9.075208e-10	1.880270e+01	6.417555e+01
2.460000e-06	2.751746e-06	9.209617e-10	1.908143e+01	6.497904e+01
2.470000e-06	2.791809e-06	9.300837e-10	1.935924e+01	6.575749e+01
2.480000e-06	2.831695e-06	9.375438e-10	1.963582e+01	6.651184e+01
2.490000e-06	2.871435e-06	9.468686e-10	1.991139e+01	6.724303e+01
2.500000e-06	2.911032e-06	9.606289e-10	2.018597e+01	6.795197e+01
2.510000e-06	2.950503e-06	9.759659e-10	2.045967e+01	6.863955e+01
2.520000e-06	2.989932e-06	9.910136e-10	2.073308e+01	6.930666e+01
2.530000e-06	3.029279e-06	1.003986e-09	2.100593e+01	6.995413e+01
2.540000e-06	3.068486e-06	1.011281e-09	2.127781e+01	7.058278e+01
2.550000e-06	3.107425e-06	1.014057e-09	2.154781e+01	7.119337e+01
2.560000e-06	3.146009e-06	1.014379e-09	2.181537e+01	7.178666e+01
2.570000e-06	3.184378e-06	1.017631e-09	2.208143e+01	7.236334e+01
2.580000e-06	3.222591e-06	1.025745e-09	2.234641e+01	7.292405e+01
2.590000e-06	3.260575e-06	1.037150e-09	2.260981e+01	7.346941e+01
2.600000e-06	3.298243e-06	1.050646e-09	2.287101e+01	7.399998e+01
2.610000e-06	3.335656e-06	1.063001e-09	2.313044e+01	7.451630e+01
2.620000e-06	3.372875e-06	1.071431e-09	2.338853e+01	7.501884e+01
2.630000e-06	3.409807e-06	1.074125e-09	2.364463e+01	7.550805e+01
2.640000e-06	3.446516e-06	1.073684e-09	2.389917e+01	7.598433e+01
2.650000e-06	3.483013e-06	1.075215e-09	2.415226e+01	7.644804e+01
2.660000e-06	3.519218e-06	1.079314e-09	2.440331e+01	7.689952e+01
2.670000e-06	3.555213e-06	1.086005e-09	2.465291e+01	7.733907e+01
2.680000e-06	3.591079e-06	1.095712e-09	2.490162e+01	7.776695e+01
2.690000e-06	3.626817e-06	1.107099e-09	2.514943e+01	7.818342e+01
2.700000e-06	3.662425e-06	1.115637e-09	2.539635e+01	7.858870e+01
2.710000e-06	3.697895e-06	1.118891e-09	2.564231e+01	7.898300e+01
2.720000e-06	3.733194e-06	1.116426e-09	2.588709e+01	7.936651e+01
2.730000e-06	3.768240e-06	1.114454e-09	2.613010e+01	7.973940e+01
2.740000e-06	3.803008e-06	1.116939e-09	2.637120e+01	8.010185e+01
2.750000e-06	3.837347e-06	1.126135e-09	2.660931e+01	8.045403e+01
2.760000e-06	3.871124e-06	1.137554e-09	2.684353e+01	8.079609e+01
2.770000e-06	3.904485e-06	1.149399e-09	2.707487e+01	8.112819e+01
2.780000e-06	3.937452e-06	1.159498e-09	2.730348e+01	8.145052e+01
2.790000e-06	3.970036e-06	1.164582e-09	2.752942e+01	8.176323e+01
2.800000e-06	4.002337e-06	1.165826e-09	2.775341e+01	8.206650e+01
2.810000e-06	4.034338e-06	1.165355e-09	2.797531e+01	8.236052e+01
2.820000e-06	4.066091e-06	1.165179e-09	2.819549e+01	8.264549e+01
2.830000e-06	4.097623e-06	1.168841e-09	2.841415e+01	8.292162e+01
2.840000e-06	4.128987e-06	1.175888e-09	2.863163e+01	8.318912e+01
2.850000e-06	4.160191e-06	1.184732e-09	2.884802e+01	8.344822e+01
2.860000e-06	4.191061e-06	1.192659e-09	2.906208e+01	8.369917e+01
2.870000e-06	4.221629e-06	1.197619e-09	2.927404e+01	8.394223e+01
2.880000e-06	4.252018e-06	1.201688e-09	2.948477e+01	8.417764e+01
2.890000e-06	4.282113e-06	1.202838e-09	2.969346e+01	8.440570e+01
2.900000e-06	4.311831e-06	1.204578e-09	2.989953e+01	8.462668e+01
