# Temperatura_=_13.9
# Concentracion g/m^3_=_1620.0
# C_Vs_to_Am_M_A/Vsm_=_65563218390.804596
# pendiente_HvsI_1/m_=_3716.3
# ordenada_HvsI_A/m_=_1297.0
# frecuencia_Hz_=_135102.997316841

Tiempo_(s)	Campo_(V.s)	Magnetizacion_(V.s)	Campo_(kA/m)	Magnetizacion_(A/m)
0.000000e+00	-5.525295e-06	-1.529716e-09	-3.836912e+01	-1.021630e+02
1.000000e-08	-5.525370e-06	-1.528279e-09	-3.836964e+01	-1.021349e+02
2.000000e-08	-5.525269e-06	-1.525833e-09	-3.836894e+01	-1.021066e+02
3.000000e-08	-5.524818e-06	-1.521871e-09	-3.836581e+01	-1.020778e+02
4.000000e-08	-5.523838e-06	-1.518899e-09	-3.835900e+01	-1.020484e+02
5.000000e-08	-5.522410e-06	-1.517307e-09	-3.834908e+01	-1.020182e+02
6.000000e-08	-5.520445e-06	-1.522785e-09	-3.833544e+01	-1.019870e+02
7.000000e-08	-5.517801e-06	-1.537293e-09	-3.831707e+01	-1.019545e+02
8.000000e-08	-5.514602e-06	-1.534916e-09	-3.829486e+01	-1.019205e+02
9.000000e-08	-5.510941e-06	-1.501705e-09	-3.826944e+01	-1.018847e+02
1.000000e-07	-5.506817e-06	-1.483787e-09	-3.824080e+01	-1.018467e+02
1.100000e-07	-5.502354e-06	-1.520467e-09	-3.820981e+01	-1.018063e+02
1.200000e-07	-5.497754e-06	-1.543550e-09	-3.817787e+01	-1.017632e+02
1.300000e-07	-5.492911e-06	-1.517517e-09	-3.814423e+01	-1.017170e+02
1.400000e-07	-5.487637e-06	-1.491002e-09	-3.810761e+01	-1.016675e+02
1.500000e-07	-5.481958e-06	-1.516911e-09	-3.806817e+01	-1.016143e+02
1.600000e-07	-5.475915e-06	-1.540198e-09	-3.802621e+01	-1.015571e+02
1.700000e-07	-5.469487e-06	-1.510518e-09	-3.798157e+01	-1.014957e+02
1.800000e-07	-5.462672e-06	-1.488359e-09	-3.793425e+01	-1.014298e+02
1.900000e-07	-5.455448e-06	-1.538450e-09	-3.788408e+01	-1.013591e+02
2.000000e-07	-5.447913e-06	-1.575454e-09	-3.783176e+01	-1.012834e+02
2.100000e-07	-5.440114e-06	-1.562716e-09	-3.777759e+01	-1.012025e+02
2.200000e-07	-5.431993e-06	-1.521937e-09	-3.772120e+01	-1.011162e+02
2.300000e-07	-5.423704e-06	-1.528092e-09	-3.766364e+01	-1.010243e+02
2.400000e-07	-5.415058e-06	-1.541476e-09	-3.760360e+01	-1.009268e+02
2.500000e-07	-5.405629e-06	-1.545134e-09	-3.753812e+01	-1.008236e+02
2.600000e-07	-5.395478e-06	-1.532839e-09	-3.746763e+01	-1.007144e+02
2.700000e-07	-5.384876e-06	-1.524729e-09	-3.739401e+01	-1.005994e+02
2.800000e-07	-5.373836e-06	-1.516853e-09	-3.731734e+01	-1.004785e+02
2.900000e-07	-5.362317e-06	-1.508765e-09	-3.723735e+01	-1.003517e+02
3.000000e-07	-5.350369e-06	-1.499175e-09	-3.715438e+01	-1.002191e+02
3.100000e-07	-5.338023e-06	-1.497195e-09	-3.706865e+01	-1.000808e+02
3.200000e-07	-5.325244e-06	-1.526703e-09	-3.697991e+01	-9.993674e+01
3.300000e-07	-5.312059e-06	-1.529631e-09	-3.688835e+01	-9.978718e+01
3.400000e-07	-5.298493e-06	-1.509698e-09	-3.679414e+01	-9.963221e+01
3.500000e-07	-5.284504e-06	-1.494150e-09	-3.669700e+01	-9.947201e+01
3.600000e-07	-5.270122e-06	-1.508753e-09	-3.659712e+01	-9.930676e+01
3.700000e-07	-5.255270e-06	-1.484408e-09	-3.649399e+01	-9.913663e+01
3.800000e-07	-5.239812e-06	-1.473264e-09	-3.638664e+01	-9.896185e+01
3.900000e-07	-5.223746e-06	-1.495287e-09	-3.627508e+01	-9.878262e+01
4.000000e-07	-5.207278e-06	-1.501315e-09	-3.616072e+01	-9.859916e+01
4.100000e-07	-5.190529e-06	-1.466684e-09	-3.604441e+01	-9.841169e+01
4.200000e-07	-5.173410e-06	-1.473140e-09	-3.592553e+01	-9.822044e+01
4.300000e-07	-5.156044e-06	-1.488852e-09	-3.580494e+01	-9.802562e+01
4.400000e-07	-5.138400e-06	-1.459264e-09	-3.568242e+01	-9.782745e+01
4.500000e-07	-5.120347e-06	-1.440081e-09	-3.555705e+01	-9.762614e+01
4.600000e-07	-5.101848e-06	-1.472076e-09	-3.542859e+01	-9.742188e+01
4.700000e-07	-5.083019e-06	-1.463074e-09	-3.529783e+01	-9.721487e+01
4.800000e-07	-5.063838e-06	-1.432125e-09	-3.516463e+01	-9.700526e+01
4.900000e-07	-5.044245e-06	-1.445097e-09	-3.502858e+01	-9.679323e+01
5.000000e-07	-5.024439e-06	-1.459387e-09	-3.489104e+01	-9.657889e+01
5.100000e-07	-5.004462e-06	-1.436127e-09	-3.475231e+01	-9.636238e+01
5.200000e-07	-4.984150e-06	-1.439192e-09	-3.461126e+01	-9.614380e+01
5.300000e-07	-4.963417e-06	-1.455168e-09	-3.446729e+01	-9.592323e+01
5.400000e-07	-4.942403e-06	-1.429122e-09	-3.432136e+01	-9.570072e+01
5.500000e-07	-4.921137e-06	-1.409150e-09	-3.417368e+01	-9.547632e+01
5.600000e-07	-4.899562e-06	-1.425165e-09	-3.402386e+01	-9.525004e+01
5.700000e-07	-4.877652e-06	-1.420228e-09	-3.387171e+01	-9.502190e+01
5.800000e-07	-4.855412e-06	-1.400569e-09	-3.371727e+01	-9.479186e+01
5.900000e-07	-4.832808e-06	-1.414254e-09	-3.356030e+01	-9.455989e+01
6.000000e-07	-4.809798e-06	-1.422857e-09	-3.340052e+01	-9.432594e+01
6.100000e-07	-4.786406e-06	-1.402920e-09	-3.323808e+01	-9.408993e+01
6.200000e-07	-4.762805e-06	-1.392830e-09	-3.307418e+01	-9.385179e+01
6.300000e-07	-4.739017e-06	-1.398933e-09	-3.290899e+01	-9.361142e+01
6.400000e-07	-4.714927e-06	-1.387980e-09	-3.274170e+01	-9.336871e+01
6.500000e-07	-4.690474e-06	-1.379489e-09	-3.257190e+01	-9.312355e+01
6.600000e-07	-4.665588e-06	-1.383469e-09	-3.239908e+01	-9.287581e+01
6.700000e-07	-4.640232e-06	-1.386484e-09	-3.222300e+01	-9.262537e+01
6.800000e-07	-4.614397e-06	-1.379869e-09	-3.204360e+01	-9.237210e+01
6.900000e-07	-4.588014e-06	-1.382290e-09	-3.186039e+01	-9.211588e+01
7.000000e-07	-4.561088e-06	-1.377855e-09	-3.167341e+01	-9.185656e+01
7.100000e-07	-4.533783e-06	-1.366674e-09	-3.148380e+01	-9.159402e+01
7.200000e-07	-4.506178e-06	-1.356249e-09	-3.129210e+01	-9.132815e+01
7.300000e-07	-4.478368e-06	-1.353621e-09	-3.109897e+01	-9.105883e+01
7.400000e-07	-4.450427e-06	-1.348684e-09	-3.090495e+01	-9.078594e+01
7.500000e-07	-4.422293e-06	-1.346547e-09	-3.070958e+01	-9.050940e+01
7.600000e-07	-4.393877e-06	-1.344304e-09	-3.051225e+01	-9.022910e+01
7.700000e-07	-4.365072e-06	-1.339386e-09	-3.031222e+01	-8.994498e+01
7.800000e-07	-4.335885e-06	-1.329630e-09	-3.010954e+01	-8.965696e+01
7.900000e-07	-4.306440e-06	-1.323905e-09	-2.990506e+01	-8.936498e+01
8.000000e-07	-4.276708e-06	-1.319324e-09	-2.969860e+01	-8.906900e+01
8.100000e-07	-4.246656e-06	-1.314527e-09	-2.948991e+01	-8.876899e+01
8.200000e-07	-4.216338e-06	-1.313236e-09	-2.927937e+01	-8.846491e+01
8.300000e-07	-4.185730e-06	-1.313259e-09	-2.906682e+01	-8.815677e+01
8.400000e-07	-4.154843e-06	-1.307058e-09	-2.885233e+01	-8.784455e+01
8.500000e-07	-4.123724e-06	-1.301851e-09	-2.863623e+01	-8.752826e+01
8.600000e-07	-4.092374e-06	-1.299837e-09	-2.841853e+01	-8.720792e+01
8.700000e-07	-4.060803e-06	-1.290963e-09	-2.819929e+01	-8.688355e+01
8.800000e-07	-4.029078e-06	-1.281786e-09	-2.797899e+01	-8.655518e+01
8.900000e-07	-3.997224e-06	-1.275427e-09	-2.775779e+01	-8.622283e+01
9.000000e-07	-3.965149e-06	-1.269037e-09	-2.753505e+01	-8.588654e+01
9.100000e-07	-3.932736e-06	-1.262091e-09	-2.730997e+01	-8.554634e+01
9.200000e-07	-3.900020e-06	-1.260497e-09	-2.708278e+01	-8.520227e+01
9.300000e-07	-3.866869e-06	-1.256019e-09	-2.685256e+01	-8.485436e+01
9.400000e-07	-3.833148e-06	-1.248281e-09	-2.661840e+01	-8.450265e+01
9.500000e-07	-3.798990e-06	-1.242200e-09	-2.638119e+01	-8.414714e+01
9.600000e-07	-3.764512e-06	-1.236796e-09	-2.614177e+01	-8.378787e+01
9.700000e-07	-3.729684e-06	-1.223161e-09	-2.589992e+01	-8.342484e+01
9.800000e-07	-3.694488e-06	-1.212292e-09	-2.565551e+01	-8.305806e+01
9.900000e-07	-3.659061e-06	-1.207855e-09	-2.540949e+01	-8.268751e+01
1.000000e-06	-3.623431e-06	-1.203894e-09	-2.516207e+01	-8.231319e+01
1.010000e-06	-3.587638e-06	-1.198475e-09	-2.491351e+01	-8.193506e+01
1.020000e-06	-3.551742e-06	-1.197595e-09	-2.466424e+01	-8.155309e+01
1.030000e-06	-3.515698e-06	-1.193652e-09	-2.441394e+01	-8.116722e+01
1.040000e-06	-3.479460e-06	-1.184933e-09	-2.416229e+01	-8.077739e+01
1.050000e-06	-3.442965e-06	-1.174679e-09	-2.390886e+01	-8.038354e+01
1.060000e-06	-3.406181e-06	-1.165792e-09	-2.365343e+01	-7.998558e+01
1.070000e-06	-3.369156e-06	-1.155488e-09	-2.339631e+01	-7.958343e+01
1.080000e-06	-3.331841e-06	-1.149784e-09	-2.313719e+01	-7.917697e+01
1.090000e-06	-3.294253e-06	-1.148518e-09	-2.287617e+01	-7.876611e+01
1.100000e-06	-3.256459e-06	-1.142999e-09	-2.261372e+01	-7.835072e+01
1.110000e-06	-3.218498e-06	-1.134400e-09	-2.235011e+01	-7.793070e+01
1.120000e-06	-3.180289e-06	-1.127494e-09	-2.208477e+01	-7.750592e+01
1.130000e-06	-3.141777e-06	-1.117849e-09	-2.181733e+01	-7.707626e+01
1.140000e-06	-3.103034e-06	-1.106021e-09	-2.154829e+01	-7.664159e+01
1.150000e-06	-3.064025e-06	-1.099230e-09	-2.127740e+01	-7.620180e+01
1.160000e-06	-3.024766e-06	-1.093617e-09	-2.100478e+01	-7.575675e+01
1.170000e-06	-2.985413e-06	-1.084052e-09	-2.073150e+01	-7.530635e+01
1.180000e-06	-2.945932e-06	-1.075278e-09	-2.045733e+01	-7.485048e+01
1.190000e-06	-2.906322e-06	-1.069037e-09	-2.018227e+01	-7.438905e+01
1.200000e-06	-2.866589e-06	-1.059529e-09	-1.990635e+01	-7.392195e+01
1.210000e-06	-2.826664e-06	-1.049580e-09	-1.962910e+01	-7.344913e+01
1.220000e-06	-2.786574e-06	-1.042139e-09	-1.935071e+01	-7.297050e+01
1.230000e-06	-2.746341e-06	-1.036040e-09	-1.907132e+01	-7.248602e+01
1.240000e-06	-2.706041e-06	-1.027544e-09	-1.879147e+01	-7.199563e+01
1.250000e-06	-2.665557e-06	-1.022563e-09	-1.851034e+01	-7.149932e+01
1.260000e-06	-2.624835e-06	-1.018538e-09	-1.822755e+01	-7.099706e+01
1.270000e-06	-2.583874e-06	-1.010483e-09	-1.794311e+01	-7.048885e+01
1.280000e-06	-2.542624e-06	-9.994310e-10	-1.765666e+01	-6.997471e+01
1.290000e-06	-2.501090e-06	-9.910778e-10	-1.736823e+01	-6.945463e+01
1.300000e-06	-2.459215e-06	-9.836397e-10	-1.707744e+01	-6.892866e+01
1.310000e-06	-2.416907e-06	-9.752485e-10	-1.678365e+01	-6.839683e+01
1.320000e-06	-2.374254e-06	-9.672134e-10	-1.648745e+01	-6.785918e+01
1.330000e-06	-2.331423e-06	-9.586681e-10	-1.619002e+01	-6.731575e+01
1.340000e-06	-2.288416e-06	-9.484142e-10	-1.589137e+01	-6.676658e+01
1.350000e-06	-2.245228e-06	-9.398061e-10	-1.559146e+01	-6.621172e+01
1.360000e-06	-2.201847e-06	-9.298409e-10	-1.529021e+01	-6.565118e+01
1.370000e-06	-2.158290e-06	-9.175945e-10	-1.498774e+01	-6.508501e+01
1.380000e-06	-2.114617e-06	-9.071808e-10	-1.468446e+01	-6.451319e+01
1.390000e-06	-2.070847e-06	-8.970520e-10	-1.438051e+01	-6.393574e+01
1.400000e-06	-2.027006e-06	-8.877742e-10	-1.407607e+01	-6.335261e+01
1.410000e-06	-1.983105e-06	-8.808626e-10	-1.377121e+01	-6.276374e+01
1.420000e-06	-1.939073e-06	-8.765562e-10	-1.346544e+01	-6.216905e+01
1.430000e-06	-1.894893e-06	-8.706603e-10	-1.315864e+01	-6.156842e+01
1.440000e-06	-1.850710e-06	-8.627648e-10	-1.285182e+01	-6.096169e+01
1.450000e-06	-1.806499e-06	-8.534741e-10	-1.254481e+01	-6.034865e+01
1.460000e-06	-1.762180e-06	-8.415278e-10	-1.223705e+01	-5.972907e+01
1.470000e-06	-1.717793e-06	-8.290021e-10	-1.192881e+01	-5.910263e+01
1.480000e-06	-1.673246e-06	-8.187434e-10	-1.161946e+01	-5.846899e+01
1.490000e-06	-1.628488e-06	-8.099258e-10	-1.130865e+01	-5.782775e+01
1.500000e-06	-1.583546e-06	-7.999325e-10	-1.099656e+01	-5.717845e+01
1.510000e-06	-1.538487e-06	-7.897033e-10	-1.068366e+01	-5.652057e+01
1.520000e-06	-1.493352e-06	-7.807200e-10	-1.037023e+01	-5.585353e+01
1.530000e-06	-1.448031e-06	-7.705214e-10	-1.005551e+01	-5.517670e+01
1.540000e-06	-1.402580e-06	-7.579517e-10	-9.739886e+00	-5.448936e+01
1.550000e-06	-1.357119e-06	-7.446451e-10	-9.424197e+00	-5.379076e+01
1.560000e-06	-1.311590e-06	-7.303198e-10	-9.108033e+00	-5.308009e+01
1.570000e-06	-1.265935e-06	-7.146306e-10	-8.790988e+00	-5.235646e+01
1.580000e-06	-1.220232e-06	-7.005180e-10	-8.473612e+00	-5.161896e+01
1.590000e-06	-1.174482e-06	-6.915278e-10	-8.155915e+00	-5.086659e+01
1.600000e-06	-1.128653e-06	-6.844894e-10	-7.837670e+00	-5.009834e+01
1.610000e-06	-1.082692e-06	-6.739190e-10	-7.518500e+00	-4.931313e+01
1.620000e-06	-1.036626e-06	-6.609812e-10	-7.198605e+00	-4.850986e+01
1.630000e-06	-9.904831e-07	-6.473344e-10	-6.878178e+00	-4.768740e+01
1.640000e-06	-9.441900e-07	-6.334076e-10	-6.556706e+00	-4.684459e+01
1.650000e-06	-8.978786e-07	-6.201172e-10	-6.235107e+00	-4.598025e+01
1.660000e-06	-8.515990e-07	-6.074566e-10	-5.913730e+00	-4.509320e+01
1.670000e-06	-8.052750e-07	-5.928959e-10	-5.592044e+00	-4.418226e+01
1.680000e-06	-7.589499e-07	-5.758529e-10	-5.270349e+00	-4.324626e+01
1.690000e-06	-7.126179e-07	-5.579334e-10	-4.948608e+00	-4.228403e+01
1.700000e-06	-6.661138e-07	-5.390633e-10	-4.625671e+00	-4.129445e+01
1.710000e-06	-6.194775e-07	-5.228913e-10	-4.301816e+00	-4.027643e+01
1.720000e-06	-5.728686e-07	-5.090879e-10	-3.978151e+00	-3.922891e+01
1.730000e-06	-5.262499e-07	-4.950850e-10	-3.654419e+00	-3.815092e+01
1.740000e-06	-4.795376e-07	-4.781105e-10	-3.330037e+00	-3.704151e+01
1.750000e-06	-4.327660e-07	-4.581358e-10	-3.005242e+00	-3.589986e+01
1.760000e-06	-3.859032e-07	-4.377330e-10	-2.679814e+00	-3.472518e+01
1.770000e-06	-3.389824e-07	-4.171615e-10	-2.353984e+00	-3.351681e+01
1.780000e-06	-2.921163e-07	-3.977356e-10	-2.028533e+00	-3.227418e+01
1.790000e-06	-2.452551e-07	-3.818082e-10	-1.703117e+00	-3.099683e+01
1.800000e-06	-1.983479e-07	-3.670351e-10	-1.377381e+00	-2.968442e+01
1.810000e-06	-1.514327e-07	-3.501309e-10	-1.051589e+00	-2.833673e+01
1.820000e-06	-1.045562e-07	-3.331504e-10	-7.260664e-01	-2.695368e+01
1.830000e-06	-5.761266e-08	-3.149014e-10	-4.000776e-01	-2.553533e+01
1.840000e-06	-1.065049e-08	-2.940802e-10	-7.395986e-02	-2.408185e+01
1.850000e-06	3.625448e-08	-2.710964e-10	2.517608e-01	-2.259360e+01
1.860000e-06	8.316907e-08	-2.481347e-10	5.775481e-01	-2.107105e+01
1.870000e-06	1.299944e-07	-2.250535e-10	9.027155e-01	-1.951484e+01
1.880000e-06	1.767176e-07	-2.026434e-10	1.227174e+00	-1.792574e+01
1.890000e-06	2.235043e-07	-1.831017e-10	1.552073e+00	-1.630470e+01
1.900000e-06	2.702900e-07	-1.633499e-10	1.876966e+00	-1.465279e+01
1.910000e-06	3.169885e-07	-1.423495e-10	2.201253e+00	-1.297124e+01
1.920000e-06	3.636725e-07	-1.208341e-10	2.525438e+00	-1.126140e+01
1.930000e-06	4.104107e-07	-9.635556e-11	2.850001e+00	-9.524784e+00
1.940000e-06	4.572044e-07	-6.881995e-11	3.174949e+00	-7.763023e+00
1.950000e-06	5.039485e-07	-4.130996e-11	3.499553e+00	-5.977874e+00
1.960000e-06	5.505662e-07	-1.710823e-11	3.823278e+00	-4.171209e+00
1.970000e-06	5.970939e-07	6.014950e-12	4.146378e+00	-2.345010e+00
1.980000e-06	6.436135e-07	2.896686e-11	4.469423e+00	-5.013557e-01
1.990000e-06	6.900871e-07	5.232044e-11	4.792148e+00	1.357586e+00
2.000000e-06	7.364180e-07	7.756050e-11	5.113882e+00	3.229571e+00
2.010000e-06	7.826510e-07	1.060941e-10	5.434937e+00	5.112288e+00
2.020000e-06	8.288781e-07	1.366104e-10	5.755950e+00	7.003373e+00
2.030000e-06	8.751261e-07	1.642526e-10	6.077108e+00	8.900419e+00
2.040000e-06	9.213887e-07	1.881514e-10	6.398368e+00	1.080099e+01
2.050000e-06	9.676270e-07	2.118464e-10	6.719459e+00	1.270264e+01
2.060000e-06	1.013747e-06	2.361777e-10	7.039730e+00	1.460292e+01
2.070000e-06	1.059735e-06	2.607621e-10	7.359081e+00	1.649937e+01
2.080000e-06	1.105668e-06	2.881195e-10	7.678054e+00	1.838959e+01
2.090000e-06	1.151544e-06	3.175134e-10	7.996628e+00	2.027119e+01
2.100000e-06	1.197344e-06	3.447242e-10	8.314678e+00	2.214183e+01
2.110000e-06	1.243070e-06	3.676602e-10	8.632210e+00	2.399924e+01
2.120000e-06	1.288710e-06	3.898858e-10	8.949144e+00	2.584122e+01
2.130000e-06	1.334247e-06	4.124522e-10	9.265364e+00	2.766565e+01
2.140000e-06	1.379734e-06	4.333832e-10	9.581240e+00	2.947051e+01
2.150000e-06	1.425171e-06	4.566750e-10	9.896767e+00	3.125387e+01
2.160000e-06	1.470480e-06	4.840299e-10	1.021141e+01	3.301392e+01
2.170000e-06	1.515718e-06	5.119120e-10	1.052555e+01	3.474898e+01
2.180000e-06	1.560800e-06	5.369711e-10	1.083861e+01	3.645747e+01
2.190000e-06	1.605698e-06	5.584467e-10	1.115039e+01	3.813796e+01
2.200000e-06	1.650487e-06	5.785797e-10	1.146142e+01	3.978916e+01
2.210000e-06	1.695088e-06	5.950562e-10	1.177114e+01	4.140991e+01
2.220000e-06	1.739507e-06	6.139265e-10	1.207960e+01	4.299919e+01
2.230000e-06	1.783868e-06	6.359214e-10	1.238766e+01	4.455613e+01
2.240000e-06	1.828148e-06	6.571702e-10	1.269515e+01	4.608002e+01
2.250000e-06	1.872281e-06	6.763323e-10	1.300162e+01	4.757027e+01
2.260000e-06	1.916339e-06	6.948381e-10	1.330757e+01	4.902644e+01
2.270000e-06	1.960354e-06	7.138110e-10	1.361322e+01	5.044823e+01
2.280000e-06	2.004301e-06	7.351994e-10	1.391840e+01	5.183548e+01
2.290000e-06	2.048161e-06	7.579977e-10	1.422297e+01	5.318817e+01
2.300000e-06	2.091957e-06	7.784593e-10	1.452710e+01	5.450637e+01
2.310000e-06	2.135718e-06	7.949612e-10	1.483100e+01	5.579031e+01
2.320000e-06	2.179386e-06	8.112830e-10	1.513424e+01	5.704031e+01
2.330000e-06	2.222891e-06	8.283311e-10	1.543635e+01	5.825680e+01
2.340000e-06	2.266267e-06	8.441920e-10	1.573756e+01	5.944030e+01
2.350000e-06	2.309503e-06	8.607820e-10	1.603780e+01	6.059143e+01
2.360000e-06	2.352525e-06	8.765808e-10	1.633656e+01	6.171089e+01
2.370000e-06	2.395274e-06	8.901770e-10	1.663342e+01	6.279942e+01
2.380000e-06	2.437734e-06	9.049460e-10	1.692827e+01	6.385785e+01
2.390000e-06	2.479851e-06	9.219520e-10	1.722075e+01	6.488705e+01
2.400000e-06	2.521500e-06	9.375483e-10	1.750997e+01	6.588792e+01
2.410000e-06	2.562761e-06	9.523529e-10	1.779649e+01	6.686140e+01
2.420000e-06	2.603810e-06	9.643839e-10	1.808155e+01	6.780845e+01
2.430000e-06	2.644633e-06	9.738015e-10	1.836504e+01	6.873004e+01
2.440000e-06	2.685244e-06	9.816300e-10	1.864705e+01	6.962713e+01
2.450000e-06	2.725659e-06	9.911307e-10	1.892770e+01	7.050070e+01
2.460000e-06	2.765831e-06	1.002956e-09	1.920666e+01	7.135169e+01
2.470000e-06	2.805777e-06	1.018085e-09	1.948406e+01	7.218104e+01
2.480000e-06	2.845633e-06	1.035174e-09	1.976083e+01	7.298963e+01
2.490000e-06	2.885469e-06	1.050385e-09	2.003746e+01	7.377833e+01
2.500000e-06	2.925228e-06	1.062646e-09	2.031356e+01	7.454798e+01
2.510000e-06	2.964852e-06	1.071084e-09	2.058872e+01	7.529935e+01
2.520000e-06	3.004280e-06	1.074643e-09	2.086252e+01	7.603317e+01
2.530000e-06	3.043471e-06	1.078329e-09	2.113467e+01	7.675012e+01
2.540000e-06	3.082372e-06	1.086163e-09	2.140481e+01	7.745083e+01
2.550000e-06	3.121053e-06	1.096932e-09	2.167342e+01	7.813587e+01
2.560000e-06	3.159484e-06	1.108875e-09	2.194029e+01	7.880575e+01
2.570000e-06	3.197609e-06	1.120736e-09	2.220505e+01	7.946094e+01
2.580000e-06	3.235527e-06	1.130614e-09	2.246836e+01	8.010183e+01
2.590000e-06	3.273287e-06	1.137975e-09	2.273058e+01	8.072878e+01
2.600000e-06	3.310854e-06	1.143854e-09	2.299145e+01	8.134208e+01
2.610000e-06	3.348248e-06	1.149010e-09	2.325112e+01	8.194198e+01
2.620000e-06	3.385445e-06	1.154302e-09	2.350943e+01	8.252869e+01
2.630000e-06	3.422320e-06	1.161471e-09	2.376550e+01	8.310236e+01
2.640000e-06	3.458894e-06	1.170798e-09	2.401948e+01	8.366313e+01
2.650000e-06	3.495303e-06	1.180414e-09	2.427231e+01	8.421108e+01
2.660000e-06	3.531524e-06	1.189049e-09	2.452384e+01	8.474628e+01
2.670000e-06	3.567531e-06	1.195016e-09	2.477388e+01	8.526876e+01
2.680000e-06	3.603440e-06	1.198485e-09	2.502325e+01	8.577855e+01
2.690000e-06	3.639241e-06	1.202755e-09	2.527186e+01	8.627567e+01
2.700000e-06	3.674897e-06	1.208961e-09	2.551946e+01	8.676011e+01
2.710000e-06	3.710368e-06	1.215205e-09	2.576578e+01	8.723188e+01
2.720000e-06	3.745526e-06	1.222531e-09	2.600993e+01	8.769098e+01
2.730000e-06	3.780300e-06	1.229491e-09	2.625141e+01	8.813743e+01
2.740000e-06	3.814626e-06	1.235520e-09	2.648978e+01	8.857126e+01
2.750000e-06	3.848508e-06	1.242190e-09	2.672506e+01	8.899250e+01
2.760000e-06	3.881949e-06	1.248440e-09	2.695729e+01	8.940124e+01
2.770000e-06	3.914858e-06	1.252837e-09	2.718581e+01	8.979755e+01
2.780000e-06	3.947365e-06	1.256007e-09	2.741155e+01	9.018156e+01
2.790000e-06	3.979622e-06	1.259921e-09	2.763555e+01	9.055341e+01
2.800000e-06	4.011690e-06	1.265950e-09	2.785824e+01	9.091330e+01
2.810000e-06	4.043625e-06	1.271223e-09	2.808001e+01	9.126142e+01
2.820000e-06	4.075342e-06	1.276910e-09	2.830026e+01	9.159804e+01
2.830000e-06	4.106854e-06	1.283539e-09	2.851908e+01	9.192344e+01
2.840000e-06	4.138200e-06	1.288334e-09	2.873676e+01	9.223793e+01
2.850000e-06	4.169248e-06	1.291315e-09	2.895237e+01	9.254188e+01
2.860000e-06	4.199970e-06	1.295255e-09	2.916571e+01	9.283565e+01
2.870000e-06	4.230393e-06	1.300884e-09	2.937697e+01	9.311968e+01
2.880000e-06	4.260509e-06	1.306687e-09	2.958611e+01	9.339440e+01
2.890000e-06	4.290331e-06	1.314741e-09	2.979320e+01	9.366029e+01
2.900000e-06	4.319901e-06	1.324740e-09	2.999854e+01	9.391782e+01
