# Temperatura_=_12.2
# Concentracion g/m^3_=_1620.0
# C_Vs_to_Am_M_A/Vsm_=_65563218390.804596
# pendiente_HvsI_1/m_=_3716.3
# ordenada_HvsI_A/m_=_1297.0
# frecuencia_Hz_=_135100.90811680557

Tiempo_(s)	Campo_(V.s)	Magnetizacion_(V.s)	Campo_(kA/m)	Magnetizacion_(A/m)
0.000000e+00	-5.526960e-06	-1.426697e-09	-3.836273e+01	-9.431230e+01
1.000000e-08	-5.527059e-06	-1.426756e-09	-3.836342e+01	-9.431427e+01
2.000000e-08	-5.526949e-06	-1.422524e-09	-3.836266e+01	-9.431980e+01
3.000000e-08	-5.526476e-06	-1.416435e-09	-3.835937e+01	-9.432866e+01
4.000000e-08	-5.525571e-06	-1.409943e-09	-3.835309e+01	-9.434057e+01
5.000000e-08	-5.524163e-06	-1.404997e-09	-3.834332e+01	-9.435520e+01
6.000000e-08	-5.522032e-06	-1.407067e-09	-3.832853e+01	-9.437218e+01
7.000000e-08	-5.519322e-06	-1.425187e-09	-3.830972e+01	-9.439108e+01
8.000000e-08	-5.516106e-06	-1.426798e-09	-3.828740e+01	-9.441145e+01
9.000000e-08	-5.512441e-06	-1.393614e-09	-3.826196e+01	-9.443280e+01
1.000000e-07	-5.508438e-06	-1.392847e-09	-3.823417e+01	-9.445462e+01
1.100000e-07	-5.504139e-06	-1.437274e-09	-3.820433e+01	-9.447635e+01
1.200000e-07	-5.499505e-06	-1.445141e-09	-3.817216e+01	-9.449744e+01
1.300000e-07	-5.494481e-06	-1.391449e-09	-3.813729e+01	-9.451730e+01
1.400000e-07	-5.489088e-06	-1.366234e-09	-3.809986e+01	-9.453537e+01
1.500000e-07	-5.483424e-06	-1.426726e-09	-3.806055e+01	-9.455103e+01
1.600000e-07	-5.477473e-06	-1.446336e-09	-3.801924e+01	-9.456372e+01
1.700000e-07	-5.471049e-06	-1.403021e-09	-3.797465e+01	-9.457285e+01
1.800000e-07	-5.464177e-06	-1.376625e-09	-3.792696e+01	-9.457785e+01
1.900000e-07	-5.456952e-06	-1.452064e-09	-3.787680e+01	-9.457818e+01
2.000000e-07	-5.449433e-06	-1.473642e-09	-3.782462e+01	-9.457331e+01
2.100000e-07	-5.441634e-06	-1.453599e-09	-3.777048e+01	-9.456274e+01
2.200000e-07	-5.433553e-06	-1.420668e-09	-3.771439e+01	-9.454599e+01
2.300000e-07	-5.425206e-06	-1.460780e-09	-3.765646e+01	-9.452263e+01
2.400000e-07	-5.416428e-06	-1.472477e-09	-3.759553e+01	-9.449228e+01
2.500000e-07	-5.406986e-06	-1.465011e-09	-3.752999e+01	-9.445456e+01
2.600000e-07	-5.396893e-06	-1.441835e-09	-3.745994e+01	-9.440917e+01
2.700000e-07	-5.386196e-06	-1.445279e-09	-3.738568e+01	-9.435584e+01
2.800000e-07	-5.374900e-06	-1.453955e-09	-3.730728e+01	-9.429435e+01
2.900000e-07	-5.363199e-06	-1.441765e-09	-3.722606e+01	-9.422453e+01
3.000000e-07	-5.351172e-06	-1.426535e-09	-3.714258e+01	-9.414626e+01
3.100000e-07	-5.338772e-06	-1.427104e-09	-3.705652e+01	-9.405946e+01
3.200000e-07	-5.325963e-06	-1.469423e-09	-3.696761e+01	-9.396412e+01
3.300000e-07	-5.312749e-06	-1.453041e-09	-3.687589e+01	-9.386025e+01
3.400000e-07	-5.299133e-06	-1.429692e-09	-3.678138e+01	-9.374793e+01
3.500000e-07	-5.285122e-06	-1.426321e-09	-3.668413e+01	-9.362727e+01
3.600000e-07	-5.270766e-06	-1.453285e-09	-3.658449e+01	-9.349843e+01
3.700000e-07	-5.255946e-06	-1.410200e-09	-3.648162e+01	-9.336160e+01
3.800000e-07	-5.240492e-06	-1.406819e-09	-3.637435e+01	-9.321704e+01
3.900000e-07	-5.224556e-06	-1.432843e-09	-3.626374e+01	-9.306500e+01
4.000000e-07	-5.208282e-06	-1.424518e-09	-3.615078e+01	-9.290579e+01
4.100000e-07	-5.191512e-06	-1.384494e-09	-3.603438e+01	-9.273974e+01
4.200000e-07	-5.174342e-06	-1.429633e-09	-3.591520e+01	-9.256720e+01
4.300000e-07	-5.156905e-06	-1.437675e-09	-3.579417e+01	-9.238854e+01
4.400000e-07	-5.139164e-06	-1.381586e-09	-3.567103e+01	-9.220415e+01
4.500000e-07	-5.121027e-06	-1.376684e-09	-3.554514e+01	-9.201443e+01
4.600000e-07	-5.102426e-06	-1.427451e-09	-3.541604e+01	-9.181978e+01
4.700000e-07	-5.083405e-06	-1.379614e-09	-3.528401e+01	-9.162062e+01
4.800000e-07	-5.063990e-06	-1.351719e-09	-3.514925e+01	-9.141735e+01
4.900000e-07	-5.044312e-06	-1.404773e-09	-3.501266e+01	-9.121036e+01
5.000000e-07	-5.024522e-06	-1.408497e-09	-3.487530e+01	-9.100007e+01
5.100000e-07	-5.004595e-06	-1.358262e-09	-3.473699e+01	-9.078684e+01
5.200000e-07	-4.984327e-06	-1.392304e-09	-3.459631e+01	-9.057105e+01
5.300000e-07	-4.963614e-06	-1.411843e-09	-3.445254e+01	-9.035303e+01
5.400000e-07	-4.942486e-06	-1.350742e-09	-3.430589e+01	-9.013312e+01
5.500000e-07	-4.921030e-06	-1.345926e-09	-3.415696e+01	-8.991162e+01
5.600000e-07	-4.899354e-06	-1.390306e-09	-3.400651e+01	-8.968880e+01
5.700000e-07	-4.877438e-06	-1.359265e-09	-3.385439e+01	-8.946490e+01
5.800000e-07	-4.855148e-06	-1.330221e-09	-3.369967e+01	-8.924015e+01
5.900000e-07	-4.832418e-06	-1.373068e-09	-3.354191e+01	-8.901474e+01
6.000000e-07	-4.809321e-06	-1.370827e-09	-3.338158e+01	-8.878881e+01
6.100000e-07	-4.785887e-06	-1.335435e-09	-3.321893e+01	-8.856249e+01
6.200000e-07	-4.762185e-06	-1.347475e-09	-3.305441e+01	-8.833588e+01
6.300000e-07	-4.738299e-06	-1.361348e-09	-3.288862e+01	-8.810902e+01
6.400000e-07	-4.714102e-06	-1.328781e-09	-3.272067e+01	-8.788196e+01
6.500000e-07	-4.689622e-06	-1.330344e-09	-3.255075e+01	-8.765468e+01
6.600000e-07	-4.664847e-06	-1.344235e-09	-3.237879e+01	-8.742716e+01
6.700000e-07	-4.639562e-06	-1.332439e-09	-3.220329e+01	-8.719934e+01
6.800000e-07	-4.613664e-06	-1.321246e-09	-3.202353e+01	-8.697113e+01
6.900000e-07	-4.587167e-06	-1.339747e-09	-3.183961e+01	-8.674242e+01
7.000000e-07	-4.560176e-06	-1.329449e-09	-3.165226e+01	-8.651307e+01
7.100000e-07	-4.532809e-06	-1.313608e-09	-3.146231e+01	-8.628294e+01
7.200000e-07	-4.505198e-06	-1.310845e-09	-3.127066e+01	-8.605186e+01
7.300000e-07	-4.477403e-06	-1.312065e-09	-3.107773e+01	-8.581963e+01
7.400000e-07	-4.449451e-06	-1.298282e-09	-3.088372e+01	-8.558606e+01
7.500000e-07	-4.421330e-06	-1.300556e-09	-3.068853e+01	-8.535093e+01
7.600000e-07	-4.392966e-06	-1.302507e-09	-3.049166e+01	-8.511403e+01
7.700000e-07	-4.364240e-06	-1.296101e-09	-3.029227e+01	-8.487513e+01
7.800000e-07	-4.335166e-06	-1.285042e-09	-3.009047e+01	-8.463399e+01
7.900000e-07	-4.305801e-06	-1.281995e-09	-2.988665e+01	-8.439040e+01
8.000000e-07	-4.276148e-06	-1.273338e-09	-2.968082e+01	-8.414410e+01
8.100000e-07	-4.246180e-06	-1.267315e-09	-2.947282e+01	-8.389489e+01
8.200000e-07	-4.215900e-06	-1.268931e-09	-2.926264e+01	-8.364252e+01
8.300000e-07	-4.185327e-06	-1.267789e-09	-2.905043e+01	-8.338679e+01
8.400000e-07	-4.154465e-06	-1.260245e-09	-2.883622e+01	-8.312748e+01
8.500000e-07	-4.123353e-06	-1.256625e-09	-2.862027e+01	-8.286440e+01
8.600000e-07	-4.092043e-06	-1.250896e-09	-2.840294e+01	-8.259734e+01
8.700000e-07	-4.060544e-06	-1.236710e-09	-2.818431e+01	-8.232612e+01
8.800000e-07	-4.028794e-06	-1.229237e-09	-2.796393e+01	-8.205059e+01
8.900000e-07	-3.996872e-06	-1.224314e-09	-2.774237e+01	-8.177058e+01
9.000000e-07	-3.964800e-06	-1.215767e-09	-2.751975e+01	-8.148594e+01
9.100000e-07	-3.932414e-06	-1.209735e-09	-2.729496e+01	-8.119656e+01
9.200000e-07	-3.899672e-06	-1.212269e-09	-2.706770e+01	-8.090230e+01
9.300000e-07	-3.866490e-06	-1.203422e-09	-2.683738e+01	-8.060307e+01
9.400000e-07	-3.832779e-06	-1.192450e-09	-2.660339e+01	-8.029877e+01
9.500000e-07	-3.798584e-06	-1.185024e-09	-2.636604e+01	-7.998934e+01
9.600000e-07	-3.763931e-06	-1.175741e-09	-2.612551e+01	-7.967469e+01
9.700000e-07	-3.728918e-06	-1.157816e-09	-2.588249e+01	-7.935478e+01
9.800000e-07	-3.693595e-06	-1.151801e-09	-2.563731e+01	-7.902957e+01
9.900000e-07	-3.658002e-06	-1.149827e-09	-2.539026e+01	-7.869902e+01
1.000000e-06	-3.622280e-06	-1.145881e-09	-2.514231e+01	-7.836310e+01
1.010000e-06	-3.586481e-06	-1.140937e-09	-2.489383e+01	-7.802182e+01
1.020000e-06	-3.550554e-06	-1.142431e-09	-2.464446e+01	-7.767516e+01
1.030000e-06	-3.514435e-06	-1.135527e-09	-2.439376e+01	-7.732312e+01
1.040000e-06	-3.478025e-06	-1.124252e-09	-2.414103e+01	-7.696572e+01
1.050000e-06	-3.441346e-06	-1.114360e-09	-2.388644e+01	-7.660297e+01
1.060000e-06	-3.404427e-06	-1.106923e-09	-2.363019e+01	-7.623489e+01
1.070000e-06	-3.367211e-06	-1.096277e-09	-2.337188e+01	-7.586151e+01
1.080000e-06	-3.329751e-06	-1.093291e-09	-2.311187e+01	-7.548287e+01
1.090000e-06	-3.292140e-06	-1.090498e-09	-2.285080e+01	-7.509899e+01
1.100000e-06	-3.254329e-06	-1.083200e-09	-2.258836e+01	-7.470991e+01
1.110000e-06	-3.216327e-06	-1.079600e-09	-2.232459e+01	-7.431568e+01
1.120000e-06	-3.178175e-06	-1.078597e-09	-2.205977e+01	-7.391633e+01
1.130000e-06	-3.139761e-06	-1.070571e-09	-2.179314e+01	-7.351192e+01
1.140000e-06	-3.101033e-06	-1.059887e-09	-2.152433e+01	-7.310250e+01
1.150000e-06	-3.062086e-06	-1.052410e-09	-2.125399e+01	-7.268810e+01
1.160000e-06	-3.022898e-06	-1.042358e-09	-2.098199e+01	-7.226879e+01
1.170000e-06	-2.983504e-06	-1.032956e-09	-2.070855e+01	-7.184462e+01
1.180000e-06	-2.943988e-06	-1.028092e-09	-2.043427e+01	-7.141563e+01
1.190000e-06	-2.904322e-06	-1.026632e-09	-2.015895e+01	-7.098189e+01
1.200000e-06	-2.864566e-06	-1.018364e-09	-1.988300e+01	-7.054344e+01
1.210000e-06	-2.824643e-06	-1.009009e-09	-1.960590e+01	-7.010034e+01
1.220000e-06	-2.784533e-06	-1.001399e-09	-1.932749e+01	-6.965264e+01
1.230000e-06	-2.744324e-06	-9.956734e-10	-1.904840e+01	-6.920039e+01
1.240000e-06	-2.704002e-06	-9.893817e-10	-1.876853e+01	-6.874364e+01
1.250000e-06	-2.663499e-06	-9.869905e-10	-1.848740e+01	-6.828244e+01
1.260000e-06	-2.622719e-06	-9.832592e-10	-1.820434e+01	-6.781683e+01
1.270000e-06	-2.581643e-06	-9.746626e-10	-1.791924e+01	-6.734685e+01
1.280000e-06	-2.540311e-06	-9.631836e-10	-1.763234e+01	-6.687253e+01
1.290000e-06	-2.498720e-06	-9.563890e-10	-1.734366e+01	-6.639389e+01
1.300000e-06	-2.456738e-06	-9.494391e-10	-1.705226e+01	-6.591096e+01
1.310000e-06	-2.414288e-06	-9.447489e-10	-1.675762e+01	-6.542374e+01
1.320000e-06	-2.371618e-06	-9.416312e-10	-1.646144e+01	-6.493222e+01
1.330000e-06	-2.328793e-06	-9.365111e-10	-1.616420e+01	-6.443639e+01
1.340000e-06	-2.285664e-06	-9.281728e-10	-1.586484e+01	-6.393621e+01
1.350000e-06	-2.242294e-06	-9.192950e-10	-1.556381e+01	-6.343163e+01
1.360000e-06	-2.198721e-06	-9.076228e-10	-1.526136e+01	-6.292257e+01
1.370000e-06	-2.154948e-06	-8.959094e-10	-1.495754e+01	-6.240894e+01
1.380000e-06	-2.111117e-06	-8.865529e-10	-1.465330e+01	-6.189062e+01
1.390000e-06	-2.067332e-06	-8.816749e-10	-1.434939e+01	-6.136745e+01
1.400000e-06	-2.023520e-06	-8.783521e-10	-1.404529e+01	-6.083928e+01
1.410000e-06	-1.979636e-06	-8.741837e-10	-1.374069e+01	-6.030587e+01
1.420000e-06	-1.935678e-06	-8.677304e-10	-1.343558e+01	-5.976699e+01
1.430000e-06	-1.891595e-06	-8.573616e-10	-1.312960e+01	-5.922236e+01
1.440000e-06	-1.847373e-06	-8.456892e-10	-1.282265e+01	-5.867165e+01
1.450000e-06	-1.803015e-06	-8.330613e-10	-1.251476e+01	-5.811451e+01
1.460000e-06	-1.758594e-06	-8.210734e-10	-1.220643e+01	-5.755052e+01
1.470000e-06	-1.714143e-06	-8.073278e-10	-1.189790e+01	-5.697925e+01
1.480000e-06	-1.669548e-06	-7.949116e-10	-1.158836e+01	-5.640018e+01
1.490000e-06	-1.624770e-06	-7.848257e-10	-1.127756e+01	-5.581279e+01
1.500000e-06	-1.579818e-06	-7.754998e-10	-1.096554e+01	-5.521648e+01
1.510000e-06	-1.534738e-06	-7.659938e-10	-1.065264e+01	-5.461062e+01
1.520000e-06	-1.489533e-06	-7.581196e-10	-1.033887e+01	-5.399451e+01
1.530000e-06	-1.444188e-06	-7.486144e-10	-1.002413e+01	-5.336743e+01
1.540000e-06	-1.398771e-06	-7.343256e-10	-9.708896e+00	-5.272860e+01
1.550000e-06	-1.353333e-06	-7.178609e-10	-9.393506e+00	-5.207719e+01
1.560000e-06	-1.307851e-06	-7.037639e-10	-9.077819e+00	-5.141234e+01
1.570000e-06	-1.262221e-06	-6.906522e-10	-8.761101e+00	-5.073313e+01
1.580000e-06	-1.216447e-06	-6.797706e-10	-8.443384e+00	-5.003863e+01
1.590000e-06	-1.170658e-06	-6.719556e-10	-8.125559e+00	-4.932785e+01
1.600000e-06	-1.124872e-06	-6.657256e-10	-7.807759e+00	-4.859979e+01
1.610000e-06	-1.078965e-06	-6.566159e-10	-7.489115e+00	-4.785341e+01
1.620000e-06	-1.032894e-06	-6.454780e-10	-7.169337e+00	-4.708766e+01
1.630000e-06	-9.867444e-07	-6.317607e-10	-6.849011e+00	-4.630147e+01
1.640000e-06	-9.405812e-07	-6.170904e-10	-6.528591e+00	-4.549376e+01
1.650000e-06	-8.943782e-07	-6.026986e-10	-6.207896e+00	-4.466346e+01
1.660000e-06	-8.481381e-07	-5.872587e-10	-5.886942e+00	-4.380948e+01
1.670000e-06	-8.018115e-07	-5.714196e-10	-5.565389e+00	-4.293076e+01
1.680000e-06	-7.553417e-07	-5.542438e-10	-5.242841e+00	-4.202625e+01
1.690000e-06	-7.086986e-07	-5.369192e-10	-4.919090e+00	-4.109494e+01
1.700000e-06	-6.620182e-07	-5.212468e-10	-4.595080e+00	-4.013585e+01
1.710000e-06	-6.153331e-07	-5.089122e-10	-4.271039e+00	-3.914803e+01
1.720000e-06	-5.686646e-07	-4.987567e-10	-3.947111e+00	-3.813059e+01
1.730000e-06	-5.220269e-07	-4.864116e-10	-3.623399e+00	-3.708270e+01
1.740000e-06	-4.753054e-07	-4.707219e-10	-3.299103e+00	-3.600360e+01
1.750000e-06	-4.285177e-07	-4.516199e-10	-2.974349e+00	-3.489258e+01
1.760000e-06	-3.816808e-07	-4.306516e-10	-2.649253e+00	-3.374906e+01
1.770000e-06	-3.348078e-07	-4.110883e-10	-2.323907e+00	-3.257250e+01
1.780000e-06	-2.879023e-07	-3.936347e-10	-1.998335e+00	-3.136249e+01
1.790000e-06	-2.409462e-07	-3.783595e-10	-1.672412e+00	-3.011871e+01
1.800000e-06	-1.940247e-07	-3.639410e-10	-1.346729e+00	-2.884094e+01
1.810000e-06	-1.471310e-07	-3.481369e-10	-1.021239e+00	-2.752911e+01
1.820000e-06	-1.002409e-07	-3.303899e-10	-6.957743e-01	-2.618323e+01
1.830000e-06	-5.335167e-08	-3.114305e-10	-3.703149e-01	-2.480347e+01
1.840000e-06	-6.445499e-09	-2.911900e-10	-4.473832e-02	-2.339009e+01
1.850000e-06	4.034867e-08	-2.702228e-10	2.800608e-01	-2.194351e+01
1.860000e-06	8.712127e-08	-2.484248e-10	6.047103e-01	-2.046428e+01
1.870000e-06	1.339988e-07	-2.263829e-10	9.300881e-01	-1.895308e+01
1.880000e-06	1.808886e-07	-2.067553e-10	1.255551e+00	-1.741071e+01
1.890000e-06	2.277589e-07	-1.889739e-10	1.580879e+00	-1.583814e+01
1.900000e-06	2.746131e-07	-1.688476e-10	1.906095e+00	-1.423643e+01
1.910000e-06	3.214083e-07	-1.476586e-10	2.230901e+00	-1.260680e+01
1.920000e-06	3.682582e-07	-1.273704e-10	2.556087e+00	-1.095059e+01
1.930000e-06	4.150695e-07	-1.059691e-10	2.881005e+00	-9.269259e+00
1.940000e-06	4.617313e-07	-8.021725e-11	3.204885e+00	-7.564378e+00
1.950000e-06	5.083338e-07	-5.348728e-11	3.528355e+00	-5.837639e+00
1.960000e-06	5.549504e-07	-3.059732e-11	3.851921e+00	-4.090834e+00
1.970000e-06	6.015244e-07	-8.760844e-12	4.175192e+00	-2.325852e+00
1.980000e-06	6.480145e-07	1.297763e-11	4.497881e+00	-5.446705e-01
1.990000e-06	6.944082e-07	3.595977e-11	4.819900e+00	1.250653e+00
2.000000e-06	7.407019e-07	6.302980e-11	5.141225e+00	3.057992e+00
2.010000e-06	7.870599e-07	9.344785e-11	5.462997e+00	4.875160e+00
2.020000e-06	8.334776e-07	1.222149e-10	5.785183e+00	6.699924e+00
2.030000e-06	8.797837e-07	1.473831e-10	6.106595e+00	8.530010e+00
2.040000e-06	9.259642e-07	1.694859e-10	6.427135e+00	1.036312e+01
2.050000e-06	9.721676e-07	1.918173e-10	6.747834e+00	1.219694e+01
2.060000e-06	1.018346e-06	2.160666e-10	7.068362e+00	1.402916e+01
2.070000e-06	1.064377e-06	2.407069e-10	7.387859e+00	1.585747e+01
2.080000e-06	1.110266e-06	2.676731e-10	7.706374e+00	1.767957e+01
2.090000e-06	1.156030e-06	2.964972e-10	8.024029e+00	1.949323e+01
2.100000e-06	1.201729e-06	3.247102e-10	8.341222e+00	2.129622e+01
2.110000e-06	1.247438e-06	3.509311e-10	8.658494e+00	2.308638e+01
2.120000e-06	1.293105e-06	3.752348e-10	8.975467e+00	2.486164e+01
2.130000e-06	1.338707e-06	3.974869e-10	9.291992e+00	2.661997e+01
2.140000e-06	1.384246e-06	4.187122e-10	9.608075e+00	2.835943e+01
2.150000e-06	1.429647e-06	4.420789e-10	9.923209e+00	3.007820e+01
2.160000e-06	1.474918e-06	4.706381e-10	1.023744e+01	3.177453e+01
2.170000e-06	1.520098e-06	4.993198e-10	1.055103e+01	3.344680e+01
2.180000e-06	1.565184e-06	5.238312e-10	1.086397e+01	3.509349e+01
2.190000e-06	1.610137e-06	5.471348e-10	1.117599e+01	3.671321e+01
2.200000e-06	1.654869e-06	5.693811e-10	1.148647e+01	3.830470e+01
2.210000e-06	1.699417e-06	5.885649e-10	1.179569e+01	3.986681e+01
2.220000e-06	1.743943e-06	6.056133e-10	1.210474e+01	4.139855e+01
2.230000e-06	1.788338e-06	6.233537e-10	1.241289e+01	4.289905e+01
2.240000e-06	1.832568e-06	6.419491e-10	1.271989e+01	4.436757e+01
2.250000e-06	1.876714e-06	6.609549e-10	1.302631e+01	4.580351e+01
2.260000e-06	1.920766e-06	6.832480e-10	1.333208e+01	4.720639e+01
2.270000e-06	1.964730e-06	7.068383e-10	1.363723e+01	4.857590e+01
2.280000e-06	2.008623e-06	7.282724e-10	1.394189e+01	4.991182e+01
2.290000e-06	2.052503e-06	7.476192e-10	1.424646e+01	5.121406e+01
2.300000e-06	2.096312e-06	7.636242e-10	1.455054e+01	5.248267e+01
2.310000e-06	2.140016e-06	7.763510e-10	1.485389e+01	5.371780e+01
2.320000e-06	2.183654e-06	7.897827e-10	1.515678e+01	5.491970e+01
2.330000e-06	2.227139e-06	8.040116e-10	1.545861e+01	5.608874e+01
2.340000e-06	2.270442e-06	8.189662e-10	1.575918e+01	5.722537e+01
2.350000e-06	2.313608e-06	8.356477e-10	1.605880e+01	5.833013e+01
2.360000e-06	2.356613e-06	8.534633e-10	1.635729e+01	5.940365e+01
2.370000e-06	2.399328e-06	8.699025e-10	1.665378e+01	6.044662e+01
2.380000e-06	2.441682e-06	8.832060e-10	1.694776e+01	6.145977e+01
2.390000e-06	2.483727e-06	8.949226e-10	1.723960e+01	6.244392e+01
2.400000e-06	2.525439e-06	9.065488e-10	1.752912e+01	6.339990e+01
2.410000e-06	2.566808e-06	9.195647e-10	1.781626e+01	6.432860e+01
2.420000e-06	2.607893e-06	9.348173e-10	1.810143e+01	6.523090e+01
2.430000e-06	2.648703e-06	9.493814e-10	1.838470e+01	6.610774e+01
2.440000e-06	2.689336e-06	9.611138e-10	1.866673e+01	6.696003e+01
2.450000e-06	2.729796e-06	9.715647e-10	1.894757e+01	6.778869e+01
2.460000e-06	2.770022e-06	9.820072e-10	1.922678e+01	6.859464e+01
2.470000e-06	2.810088e-06	9.940370e-10	1.950487e+01	6.937879e+01
2.480000e-06	2.850031e-06	1.006917e-09	1.978212e+01	7.014200e+01
2.490000e-06	2.889872e-06	1.018957e-09	2.005865e+01	7.088512e+01
2.500000e-06	2.929591e-06	1.029029e-09	2.033435e+01	7.160897e+01
2.510000e-06	2.969197e-06	1.037167e-09	2.060925e+01	7.231432e+01
2.520000e-06	3.008579e-06	1.044071e-09	2.088260e+01	7.300190e+01
2.530000e-06	3.047694e-06	1.051708e-09	2.115410e+01	7.367240e+01
2.540000e-06	3.086599e-06	1.060478e-09	2.142414e+01	7.432647e+01
2.550000e-06	3.125239e-06	1.068632e-09	2.169234e+01	7.496467e+01
2.560000e-06	3.163662e-06	1.076911e-09	2.195904e+01	7.558755e+01
2.570000e-06	3.201966e-06	1.085936e-09	2.222491e+01	7.619559e+01
2.580000e-06	3.240083e-06	1.094648e-09	2.248947e+01	7.678922e+01
2.590000e-06	3.277956e-06	1.103108e-09	2.275235e+01	7.736882e+01
2.600000e-06	3.315581e-06	1.110393e-09	2.301351e+01	7.793471e+01
2.610000e-06	3.352983e-06	1.116464e-09	2.327312e+01	7.848718e+01
2.620000e-06	3.390187e-06	1.122168e-09	2.353135e+01	7.902647e+01
2.630000e-06	3.427095e-06	1.128051e-09	2.378753e+01	7.955277e+01
2.640000e-06	3.463699e-06	1.134063e-09	2.404160e+01	8.006624e+01
2.650000e-06	3.500069e-06	1.141676e-09	2.429404e+01	8.056700e+01
2.660000e-06	3.536276e-06	1.149142e-09	2.454536e+01	8.105515e+01
2.670000e-06	3.572354e-06	1.154896e-09	2.479578e+01	8.153076e+01
2.680000e-06	3.608296e-06	1.162701e-09	2.504525e+01	8.199388e+01
2.690000e-06	3.644094e-06	1.173063e-09	2.529373e+01	8.244454e+01
2.700000e-06	3.679702e-06	1.181771e-09	2.554088e+01	8.288278e+01
2.710000e-06	3.715099e-06	1.187507e-09	2.578657e+01	8.330860e+01
2.720000e-06	3.750276e-06	1.192987e-09	2.603073e+01	8.372205e+01
2.730000e-06	3.785153e-06	1.198186e-09	2.627282e+01	8.412313e+01
2.740000e-06	3.819503e-06	1.202574e-09	2.651124e+01	8.451188e+01
2.750000e-06	3.853339e-06	1.210488e-09	2.674610e+01	8.488836e+01
2.760000e-06	3.886810e-06	1.218377e-09	2.697842e+01	8.525263e+01
2.770000e-06	3.919739e-06	1.223532e-09	2.720698e+01	8.560478e+01
2.780000e-06	3.952178e-06	1.231264e-09	2.743214e+01	8.594491e+01
2.790000e-06	3.984442e-06	1.241141e-09	2.765609e+01	8.627317e+01
2.800000e-06	4.016575e-06	1.249177e-09	2.787912e+01	8.658973e+01
2.810000e-06	4.048460e-06	1.253394e-09	2.810044e+01	8.689477e+01
2.820000e-06	4.080190e-06	1.255011e-09	2.832068e+01	8.718853e+01
2.830000e-06	4.111758e-06	1.255141e-09	2.853979e+01	8.747127e+01
2.840000e-06	4.142953e-06	1.258856e-09	2.875632e+01	8.774328e+01
2.850000e-06	4.173780e-06	1.266308e-09	2.897029e+01	8.800489e+01
2.860000e-06	4.204396e-06	1.274977e-09	2.918279e+01	8.825645e+01
2.870000e-06	4.234786e-06	1.283812e-09	2.939373e+01	8.849835e+01
2.880000e-06	4.264808e-06	1.290937e-09	2.960211e+01	8.873099e+01
2.890000e-06	4.294537e-06	1.294949e-09	2.980846e+01	8.895481e+01
2.900000e-06	4.324051e-06	1.298666e-09	3.001332e+01	8.917027e+01
