# Temperatura_=_4.19
# Concentracion g/m^3_=_1620.0
# C_Vs_to_Am_M_A/Vsm_=_65563218390.804596
# pendiente_HvsI_1/m_=_3716.3
# ordenada_HvsI_A/m_=_1297.0
# frecuencia_Hz_=_135105.23455474048

Tiempo_(s)	Campo_(V.s)	Magnetizacion_(V.s)	Campo_(kA/m)	Magnetizacion_(A/m)
0.000000e+00	-5.527814e-06	-1.246975e-09	-3.836919e+01	-8.360687e+01
1.000000e-08	-5.528054e-06	-1.246117e-09	-3.837086e+01	-8.360130e+01
2.000000e-08	-5.527951e-06	-1.243700e-09	-3.837014e+01	-8.359710e+01
3.000000e-08	-5.527404e-06	-1.242847e-09	-3.836635e+01	-8.359396e+01
4.000000e-08	-5.526338e-06	-1.242444e-09	-3.835894e+01	-8.359154e+01
5.000000e-08	-5.524607e-06	-1.238427e-09	-3.834693e+01	-8.358948e+01
6.000000e-08	-5.522269e-06	-1.227205e-09	-3.833070e+01	-8.358738e+01
7.000000e-08	-5.519397e-06	-1.220609e-09	-3.831077e+01	-8.358482e+01
8.000000e-08	-5.516066e-06	-1.248322e-09	-3.828765e+01	-8.358138e+01
9.000000e-08	-5.512308e-06	-1.291503e-09	-3.826157e+01	-8.357661e+01
1.000000e-07	-5.508101e-06	-1.294911e-09	-3.823236e+01	-8.357006e+01
1.100000e-07	-5.503623e-06	-1.259697e-09	-3.820128e+01	-8.356128e+01
1.200000e-07	-5.499050e-06	-1.189708e-09	-3.816954e+01	-8.354980e+01
1.300000e-07	-5.494211e-06	-1.212141e-09	-3.813595e+01	-8.353518e+01
1.400000e-07	-5.488925e-06	-1.253276e-09	-3.809926e+01	-8.351699e+01
1.500000e-07	-5.483183e-06	-1.252400e-09	-3.805940e+01	-8.349480e+01
1.600000e-07	-5.477141e-06	-1.234626e-09	-3.801746e+01	-8.346822e+01
1.700000e-07	-5.470754e-06	-1.215392e-09	-3.797313e+01	-8.343685e+01
1.800000e-07	-5.463882e-06	-1.281468e-09	-3.792543e+01	-8.340034e+01
1.900000e-07	-5.456585e-06	-1.255013e-09	-3.787478e+01	-8.335839e+01
2.000000e-07	-5.449008e-06	-1.229973e-09	-3.782219e+01	-8.331068e+01
2.100000e-07	-5.441215e-06	-1.221561e-09	-3.776810e+01	-8.325697e+01
2.200000e-07	-5.433189e-06	-1.293397e-09	-3.771239e+01	-8.319705e+01
2.300000e-07	-5.424875e-06	-1.292533e-09	-3.765468e+01	-8.313073e+01
2.400000e-07	-5.416007e-06	-1.271316e-09	-3.759313e+01	-8.305788e+01
2.500000e-07	-5.406276e-06	-1.254653e-09	-3.752558e+01	-8.297841e+01
2.600000e-07	-5.395868e-06	-1.257380e-09	-3.745334e+01	-8.289228e+01
2.700000e-07	-5.384992e-06	-1.237101e-09	-3.737785e+01	-8.279946e+01
2.800000e-07	-5.373654e-06	-1.226590e-09	-3.729915e+01	-8.270001e+01
2.900000e-07	-5.361979e-06	-1.234258e-09	-3.721811e+01	-8.259400e+01
3.000000e-07	-5.349994e-06	-1.227802e-09	-3.713492e+01	-8.248155e+01
3.100000e-07	-5.337582e-06	-1.232862e-09	-3.704877e+01	-8.236282e+01
3.200000e-07	-5.324646e-06	-1.234914e-09	-3.695898e+01	-8.223800e+01
3.300000e-07	-5.311319e-06	-1.246702e-09	-3.686647e+01	-8.210733e+01
3.400000e-07	-5.297717e-06	-1.218769e-09	-3.677206e+01	-8.197106e+01
3.500000e-07	-5.283674e-06	-1.226559e-09	-3.667459e+01	-8.182950e+01
3.600000e-07	-5.269112e-06	-1.222706e-09	-3.657351e+01	-8.168296e+01
3.700000e-07	-5.254127e-06	-1.218365e-09	-3.646950e+01	-8.153178e+01
3.800000e-07	-5.238691e-06	-1.198794e-09	-3.636235e+01	-8.137632e+01
3.900000e-07	-5.222711e-06	-1.212867e-09	-3.625144e+01	-8.121696e+01
4.000000e-07	-5.206246e-06	-1.199710e-09	-3.613715e+01	-8.105408e+01
4.100000e-07	-5.189563e-06	-1.205557e-09	-3.602135e+01	-8.088808e+01
4.200000e-07	-5.172573e-06	-1.211005e-09	-3.590342e+01	-8.071937e+01
4.300000e-07	-5.155165e-06	-1.208051e-09	-3.578259e+01	-8.054833e+01
4.400000e-07	-5.137396e-06	-1.180775e-09	-3.565926e+01	-8.037537e+01
4.500000e-07	-5.119235e-06	-1.203615e-09	-3.553320e+01	-8.020087e+01
4.600000e-07	-5.100632e-06	-1.196600e-09	-3.540407e+01	-8.002520e+01
4.700000e-07	-5.081586e-06	-1.163201e-09	-3.527187e+01	-7.984874e+01
4.800000e-07	-5.062216e-06	-1.174314e-09	-3.513742e+01	-7.967182e+01
4.900000e-07	-5.042623e-06	-1.219064e-09	-3.500143e+01	-7.949478e+01
5.000000e-07	-5.022871e-06	-1.185400e-09	-3.486432e+01	-7.931791e+01
5.100000e-07	-5.002932e-06	-1.163384e-09	-3.472593e+01	-7.914150e+01
5.200000e-07	-4.982601e-06	-1.196311e-09	-3.458481e+01	-7.896579e+01
5.300000e-07	-4.961836e-06	-1.193263e-09	-3.444067e+01	-7.879101e+01
5.400000e-07	-4.940721e-06	-1.151777e-09	-3.429411e+01	-7.861735e+01
5.500000e-07	-4.919265e-06	-1.168697e-09	-3.414518e+01	-7.844497e+01
5.600000e-07	-4.897472e-06	-1.181251e-09	-3.399391e+01	-7.827400e+01
5.700000e-07	-4.875411e-06	-1.146094e-09	-3.384079e+01	-7.810455e+01
5.800000e-07	-4.853033e-06	-1.155295e-09	-3.368546e+01	-7.793668e+01
5.900000e-07	-4.830245e-06	-1.184534e-09	-3.352728e+01	-7.777043e+01
6.000000e-07	-4.807069e-06	-1.158868e-09	-3.336642e+01	-7.760580e+01
6.100000e-07	-4.783600e-06	-1.135965e-09	-3.320352e+01	-7.744278e+01
6.200000e-07	-4.759970e-06	-1.161042e-09	-3.303949e+01	-7.728131e+01
6.300000e-07	-4.736189e-06	-1.151984e-09	-3.287443e+01	-7.712131e+01
6.400000e-07	-4.712132e-06	-1.136040e-09	-3.270745e+01	-7.696269e+01
6.500000e-07	-4.687544e-06	-1.149862e-09	-3.253678e+01	-7.680531e+01
6.600000e-07	-4.662391e-06	-1.158717e-09	-3.236219e+01	-7.664903e+01
6.700000e-07	-4.636723e-06	-1.136777e-09	-3.218402e+01	-7.649369e+01
6.800000e-07	-4.610493e-06	-1.144931e-09	-3.200196e+01	-7.633910e+01
6.900000e-07	-4.583745e-06	-1.150187e-09	-3.181630e+01	-7.618506e+01
7.000000e-07	-4.556595e-06	-1.137084e-09	-3.162785e+01	-7.603137e+01
7.100000e-07	-4.529173e-06	-1.123927e-09	-3.143751e+01	-7.587782e+01
7.200000e-07	-4.501573e-06	-1.133428e-09	-3.124594e+01	-7.572416e+01
7.300000e-07	-4.473844e-06	-1.128281e-09	-3.105346e+01	-7.557019e+01
7.400000e-07	-4.445942e-06	-1.126536e-09	-3.085979e+01	-7.541566e+01
7.500000e-07	-4.417770e-06	-1.127232e-09	-3.066425e+01	-7.526035e+01
7.600000e-07	-4.389248e-06	-1.128217e-09	-3.046627e+01	-7.510402e+01
7.700000e-07	-4.360353e-06	-1.117296e-09	-3.026571e+01	-7.494644e+01
7.800000e-07	-4.331142e-06	-1.111329e-09	-3.006295e+01	-7.478739e+01
7.900000e-07	-4.301710e-06	-1.106735e-09	-2.985866e+01	-7.462667e+01
8.000000e-07	-4.272042e-06	-1.104257e-09	-2.965274e+01	-7.446405e+01
8.100000e-07	-4.242096e-06	-1.099113e-09	-2.944487e+01	-7.429934e+01
8.200000e-07	-4.211796e-06	-1.099733e-09	-2.923456e+01	-7.413236e+01
8.300000e-07	-4.181176e-06	-1.099760e-09	-2.902203e+01	-7.396292e+01
8.400000e-07	-4.150293e-06	-1.099829e-09	-2.880766e+01	-7.379085e+01
8.500000e-07	-4.119139e-06	-1.101284e-09	-2.859142e+01	-7.361601e+01
8.600000e-07	-4.087765e-06	-1.096691e-09	-2.837364e+01	-7.343824e+01
8.700000e-07	-4.056179e-06	-1.085552e-09	-2.815440e+01	-7.325742e+01
8.800000e-07	-4.024459e-06	-1.077492e-09	-2.793423e+01	-7.307342e+01
8.900000e-07	-3.992610e-06	-1.074001e-09	-2.771316e+01	-7.288613e+01
9.000000e-07	-3.960533e-06	-1.065477e-09	-2.749052e+01	-7.269545e+01
9.100000e-07	-3.928017e-06	-1.063802e-09	-2.726482e+01	-7.250129e+01
9.200000e-07	-3.894988e-06	-1.064221e-09	-2.703556e+01	-7.230357e+01
9.300000e-07	-3.861560e-06	-1.062860e-09	-2.680353e+01	-7.210221e+01
9.400000e-07	-3.827617e-06	-1.056284e-09	-2.656793e+01	-7.189715e+01
9.500000e-07	-3.793191e-06	-1.053543e-09	-2.632898e+01	-7.168832e+01
9.600000e-07	-3.758428e-06	-1.042789e-09	-2.608768e+01	-7.147568e+01
9.700000e-07	-3.723334e-06	-1.032204e-09	-2.584409e+01	-7.125917e+01
9.800000e-07	-3.687987e-06	-1.026087e-09	-2.559874e+01	-7.103875e+01
9.900000e-07	-3.652471e-06	-1.024773e-09	-2.535222e+01	-7.081436e+01
1.000000e-06	-3.616850e-06	-1.018080e-09	-2.510497e+01	-7.058598e+01
1.010000e-06	-3.581064e-06	-1.017359e-09	-2.485658e+01	-7.035355e+01
1.020000e-06	-3.545116e-06	-1.017280e-09	-2.460706e+01	-7.011704e+01
1.030000e-06	-3.509052e-06	-1.014664e-09	-2.435673e+01	-6.987642e+01
1.040000e-06	-3.472718e-06	-1.008789e-09	-2.410453e+01	-6.963163e+01
1.050000e-06	-3.435958e-06	-1.007036e-09	-2.384938e+01	-6.938264e+01
1.060000e-06	-3.398953e-06	-9.997567e-10	-2.359252e+01	-6.912941e+01
1.070000e-06	-3.361783e-06	-9.923822e-10	-2.333452e+01	-6.887189e+01
1.080000e-06	-3.324325e-06	-9.899006e-10	-2.307452e+01	-6.861006e+01
1.090000e-06	-3.286705e-06	-9.894933e-10	-2.281340e+01	-6.834386e+01
1.100000e-06	-3.248933e-06	-9.817495e-10	-2.255122e+01	-6.807326e+01
1.110000e-06	-3.210889e-06	-9.757594e-10	-2.228715e+01	-6.779821e+01
1.120000e-06	-3.172568e-06	-9.733617e-10	-2.202116e+01	-6.751867e+01
1.130000e-06	-3.134033e-06	-9.683896e-10	-2.175368e+01	-6.723462e+01
1.140000e-06	-3.095277e-06	-9.635328e-10	-2.148467e+01	-6.694600e+01
1.150000e-06	-3.056286e-06	-9.616968e-10	-2.121404e+01	-6.665279e+01
1.160000e-06	-3.017090e-06	-9.575277e-10	-2.094197e+01	-6.635496e+01
1.170000e-06	-2.977722e-06	-9.481666e-10	-2.066871e+01	-6.605249e+01
1.180000e-06	-2.938220e-06	-9.429170e-10	-2.039452e+01	-6.574534e+01
1.190000e-06	-2.898581e-06	-9.382752e-10	-2.011938e+01	-6.543351e+01
1.200000e-06	-2.858811e-06	-9.313116e-10	-1.984333e+01	-6.511699e+01
1.210000e-06	-2.818938e-06	-9.248527e-10	-1.956657e+01	-6.479576e+01
1.220000e-06	-2.778965e-06	-9.213598e-10	-1.928911e+01	-6.446984e+01
1.230000e-06	-2.738841e-06	-9.160445e-10	-1.901061e+01	-6.413921e+01
1.240000e-06	-2.698526e-06	-9.128323e-10	-1.873078e+01	-6.380391e+01
1.250000e-06	-2.657937e-06	-9.114472e-10	-1.844905e+01	-6.346394e+01
1.260000e-06	-2.616959e-06	-9.093737e-10	-1.816462e+01	-6.311932e+01
1.270000e-06	-2.575652e-06	-9.024330e-10	-1.787790e+01	-6.277008e+01
1.280000e-06	-2.534094e-06	-8.960913e-10	-1.758944e+01	-6.241625e+01
1.290000e-06	-2.492224e-06	-8.886019e-10	-1.729881e+01	-6.205785e+01
1.300000e-06	-2.450127e-06	-8.786686e-10	-1.700661e+01	-6.169491e+01
1.310000e-06	-2.407764e-06	-8.716624e-10	-1.671257e+01	-6.132746e+01
1.320000e-06	-2.365099e-06	-8.712543e-10	-1.641642e+01	-6.095551e+01
1.330000e-06	-2.322139e-06	-8.682697e-10	-1.611824e+01	-6.057908e+01
1.340000e-06	-2.278911e-06	-8.648849e-10	-1.581819e+01	-6.019818e+01
1.350000e-06	-2.235532e-06	-8.617024e-10	-1.551709e+01	-5.981279e+01
1.360000e-06	-2.192056e-06	-8.562540e-10	-1.521531e+01	-5.942290e+01
1.370000e-06	-2.148500e-06	-8.482096e-10	-1.491298e+01	-5.902847e+01
1.380000e-06	-2.104838e-06	-8.403790e-10	-1.460992e+01	-5.862944e+01
1.390000e-06	-2.061137e-06	-8.319316e-10	-1.430659e+01	-5.822572e+01
1.400000e-06	-2.017375e-06	-8.246473e-10	-1.400283e+01	-5.781720e+01
1.410000e-06	-1.973507e-06	-8.191253e-10	-1.369834e+01	-5.740375e+01
1.420000e-06	-1.929534e-06	-8.165342e-10	-1.339312e+01	-5.698519e+01
1.430000e-06	-1.885437e-06	-8.124063e-10	-1.308704e+01	-5.656131e+01
1.440000e-06	-1.841234e-06	-8.069645e-10	-1.278022e+01	-5.613186e+01
1.450000e-06	-1.796949e-06	-7.997355e-10	-1.247283e+01	-5.569654e+01
1.460000e-06	-1.752518e-06	-7.889795e-10	-1.216443e+01	-5.525502e+01
1.470000e-06	-1.707915e-06	-7.762959e-10	-1.185483e+01	-5.480692e+01
1.480000e-06	-1.663191e-06	-7.660942e-10	-1.154440e+01	-5.435179e+01
1.490000e-06	-1.618343e-06	-7.588255e-10	-1.123310e+01	-5.388916e+01
1.500000e-06	-1.573368e-06	-7.518116e-10	-1.092093e+01	-5.341849e+01
1.510000e-06	-1.528237e-06	-7.474186e-10	-1.060767e+01	-5.293918e+01
1.520000e-06	-1.482984e-06	-7.434407e-10	-1.029356e+01	-5.245059e+01
1.530000e-06	-1.437643e-06	-7.372572e-10	-9.978843e+00	-5.195203e+01
1.540000e-06	-1.392162e-06	-7.251548e-10	-9.663159e+00	-5.144274e+01
1.550000e-06	-1.346597e-06	-7.118937e-10	-9.346883e+00	-5.092192e+01
1.560000e-06	-1.300981e-06	-6.989052e-10	-9.030260e+00	-5.038872e+01
1.570000e-06	-1.255301e-06	-6.896917e-10	-8.713185e+00	-4.984223e+01
1.580000e-06	-1.209536e-06	-6.827831e-10	-8.395529e+00	-4.928151e+01
1.590000e-06	-1.163699e-06	-6.787561e-10	-8.077371e+00	-4.870558e+01
1.600000e-06	-1.117759e-06	-6.724496e-10	-7.758494e+00	-4.811340e+01
1.610000e-06	-1.071744e-06	-6.621215e-10	-7.439095e+00	-4.750392e+01
1.620000e-06	-1.025761e-06	-6.510664e-10	-7.119922e+00	-4.687605e+01
1.630000e-06	-9.797711e-07	-6.399317e-10	-6.800704e+00	-4.622869e+01
1.640000e-06	-9.336375e-07	-6.282867e-10	-6.480485e+00	-4.556072e+01
1.650000e-06	-8.872929e-07	-6.176884e-10	-6.158802e+00	-4.487100e+01
1.660000e-06	-8.408826e-07	-6.066677e-10	-5.836663e+00	-4.415839e+01
1.670000e-06	-7.945238e-07	-5.939697e-10	-5.514881e+00	-4.342178e+01
1.680000e-06	-7.480995e-07	-5.816425e-10	-5.192644e+00	-4.266004e+01
1.690000e-06	-7.016008e-07	-5.686528e-10	-4.869892e+00	-4.187209e+01
1.700000e-06	-6.550562e-07	-5.523512e-10	-4.546820e+00	-4.105685e+01
1.710000e-06	-6.085022e-07	-5.375685e-10	-4.223683e+00	-4.021331e+01
1.720000e-06	-5.619085e-07	-5.253574e-10	-3.900272e+00	-3.934049e+01
1.730000e-06	-5.151658e-07	-5.129802e-10	-3.575825e+00	-3.843747e+01
1.740000e-06	-4.684451e-07	-5.000584e-10	-3.251531e+00	-3.750338e+01
1.750000e-06	-4.218007e-07	-4.855012e-10	-2.927767e+00	-3.653745e+01
1.760000e-06	-3.751331e-07	-4.691186e-10	-2.603842e+00	-3.553897e+01
1.770000e-06	-3.283782e-07	-4.517757e-10	-2.279311e+00	-3.450732e+01
1.780000e-06	-2.815485e-07	-4.352496e-10	-1.954261e+00	-3.344198e+01
1.790000e-06	-2.347028e-07	-4.191793e-10	-1.629099e+00	-3.234254e+01
1.800000e-06	-1.878495e-07	-4.031656e-10	-1.303885e+00	-3.120868e+01
1.810000e-06	-1.409807e-07	-3.863681e-10	-9.785630e-01	-3.004021e+01
1.820000e-06	-9.415278e-08	-3.717587e-10	-6.535253e-01	-2.883706e+01
1.830000e-06	-4.734577e-08	-3.572231e-10	-3.286324e-01	-2.759929e+01
1.840000e-06	-5.476136e-10	-3.407096e-10	-3.801049e-03	-2.632706e+01
1.850000e-06	4.625609e-08	-3.219157e-10	3.210688e-01	-2.502070e+01
1.860000e-06	9.309054e-08	-3.015024e-10	6.461521e-01	-2.368066e+01
1.870000e-06	1.398812e-07	-2.804960e-10	9.709317e-01	-2.230751e+01
1.880000e-06	1.867020e-07	-2.617050e-10	1.295920e+00	-2.090198e+01
1.890000e-06	2.336427e-07	-2.436554e-10	1.621741e+00	-1.946491e+01
1.900000e-06	2.805772e-07	-2.249800e-10	1.947518e+00	-1.799731e+01
1.910000e-06	3.273897e-07	-2.059725e-10	2.272450e+00	-1.650027e+01
1.920000e-06	3.741754e-07	-1.882808e-10	2.597194e+00	-1.497506e+01
1.930000e-06	4.210088e-07	-1.690312e-10	2.922270e+00	-1.342305e+01
1.940000e-06	4.677719e-07	-1.457144e-10	3.246858e+00	-1.184572e+01
1.950000e-06	5.144069e-07	-1.208772e-10	3.570557e+00	-1.024468e+01
1.960000e-06	5.610076e-07	-9.932933e-11	3.894018e+00	-8.621631e+00
1.970000e-06	6.075743e-07	-7.880955e-11	4.217243e+00	-6.978391e+00
1.980000e-06	6.541057e-07	-5.707081e-11	4.540223e+00	-5.316853e+00
1.990000e-06	7.005660e-07	-3.310101e-11	4.862709e+00	-3.638999e+00
2.000000e-06	7.469362e-07	-5.848908e-12	5.184570e+00	-1.946878e+00
2.010000e-06	7.932707e-07	2.330026e-11	5.506183e+00	-2.426046e-01
2.020000e-06	8.395435e-07	5.119099e-11	5.827368e+00	1.471657e+00
2.030000e-06	8.857120e-07	7.624768e-11	6.147829e+00	3.193703e+00
2.040000e-06	9.318434e-07	9.851815e-11	6.468032e+00	4.921297e+00
2.050000e-06	9.779879e-07	1.211198e-10	6.788326e+00	6.652189e+00
2.060000e-06	1.024058e-06	1.457483e-10	7.108102e+00	8.384119e+00
2.070000e-06	1.070021e-06	1.698768e-10	7.427138e+00	1.011483e+01
2.080000e-06	1.115936e-06	1.963323e-10	7.745838e+00	1.184209e+01
2.090000e-06	1.161853e-06	2.241413e-10	8.064553e+00	1.356369e+01
2.100000e-06	1.207779e-06	2.505189e-10	8.383334e+00	1.527745e+01
2.110000e-06	1.253576e-06	2.749057e-10	8.701215e+00	1.698124e+01
2.120000e-06	1.299165e-06	2.982440e-10	9.017654e+00	1.867302e+01
2.130000e-06	1.344672e-06	3.189052e-10	9.333521e+00	2.035077e+01
2.140000e-06	1.390067e-06	3.379933e-10	9.648616e+00	2.201258e+01
2.150000e-06	1.435368e-06	3.585757e-10	9.963051e+00	2.365662e+01
2.160000e-06	1.480639e-06	3.833042e-10	1.027729e+01	2.528114e+01
2.170000e-06	1.525750e-06	4.080707e-10	1.059041e+01	2.688452e+01
2.180000e-06	1.570665e-06	4.297365e-10	1.090217e+01	2.846521e+01
2.190000e-06	1.615471e-06	4.509389e-10	1.121317e+01	3.002180e+01
2.200000e-06	1.660266e-06	4.717500e-10	1.152410e+01	3.155299e+01
2.210000e-06	1.704981e-06	4.897513e-10	1.183447e+01	3.305759e+01
2.220000e-06	1.749478e-06	5.071038e-10	1.214333e+01	3.453454e+01
2.230000e-06	1.793784e-06	5.252641e-10	1.245086e+01	3.598291e+01
2.240000e-06	1.837939e-06	5.436538e-10	1.275735e+01	3.740188e+01
2.250000e-06	1.881935e-06	5.609932e-10	1.306273e+01	3.879077e+01
2.260000e-06	1.925885e-06	5.813461e-10	1.336779e+01	4.014901e+01
2.270000e-06	1.969895e-06	6.034671e-10	1.367327e+01	4.147617e+01
2.280000e-06	2.013794e-06	6.233332e-10	1.397797e+01	4.277191e+01
2.290000e-06	2.057535e-06	6.405889e-10	1.428159e+01	4.403604e+01
2.300000e-06	2.101209e-06	6.552010e-10	1.458473e+01	4.526845e+01
2.310000e-06	2.144856e-06	6.682350e-10	1.488769e+01	4.646917e+01
2.320000e-06	2.188453e-06	6.822088e-10	1.519031e+01	4.763829e+01
2.330000e-06	2.231928e-06	6.973281e-10	1.549207e+01	4.877602e+01
2.340000e-06	2.275262e-06	7.126642e-10	1.579285e+01	4.988266e+01
2.350000e-06	2.318486e-06	7.285651e-10	1.609288e+01	5.095858e+01
2.360000e-06	2.361462e-06	7.433759e-10	1.639118e+01	5.200423e+01
2.370000e-06	2.404105e-06	7.567959e-10	1.668717e+01	5.302012e+01
2.380000e-06	2.446545e-06	7.703823e-10	1.698175e+01	5.400683e+01
2.390000e-06	2.488659e-06	7.837089e-10	1.727407e+01	5.496497e+01
2.400000e-06	2.530364e-06	7.958756e-10	1.756355e+01	5.589521e+01
2.410000e-06	2.571703e-06	8.082948e-10	1.785049e+01	5.679824e+01
2.420000e-06	2.612726e-06	8.211614e-10	1.813523e+01	5.767480e+01
2.430000e-06	2.653571e-06	8.330448e-10	1.841874e+01	5.852563e+01
2.440000e-06	2.694208e-06	8.433275e-10	1.870081e+01	5.935148e+01
2.450000e-06	2.734604e-06	8.546014e-10	1.898120e+01	6.015312e+01
2.460000e-06	2.774805e-06	8.644315e-10	1.926024e+01	6.093130e+01
2.470000e-06	2.814817e-06	8.738257e-10	1.953797e+01	6.168678e+01
2.480000e-06	2.854668e-06	8.830200e-10	1.981458e+01	6.242029e+01
2.490000e-06	2.894404e-06	8.924780e-10	2.009039e+01	6.313257e+01
2.500000e-06	2.934002e-06	9.021002e-10	2.036524e+01	6.382430e+01
2.510000e-06	2.973461e-06	9.126620e-10	2.063913e+01	6.449617e+01
2.520000e-06	3.012765e-06	9.230458e-10	2.091195e+01	6.514881e+01
2.530000e-06	3.051786e-06	9.321794e-10	2.118279e+01	6.578283e+01
2.540000e-06	3.090572e-06	9.396269e-10	2.145201e+01	6.639882e+01
2.550000e-06	3.129189e-06	9.447137e-10	2.172006e+01	6.699731e+01
2.560000e-06	3.167607e-06	9.503837e-10	2.198672e+01	6.757881e+01
2.570000e-06	3.205809e-06	9.571016e-10	2.225189e+01	6.814379e+01
2.580000e-06	3.243822e-06	9.645959e-10	2.251574e+01	6.869267e+01
2.590000e-06	3.281633e-06	9.725024e-10	2.277819e+01	6.922586e+01
2.600000e-06	3.319230e-06	9.799896e-10	2.303916e+01	6.974371e+01
2.610000e-06	3.356632e-06	9.864423e-10	2.329877e+01	7.024656e+01
2.620000e-06	3.393759e-06	9.918667e-10	2.355647e+01	7.073471e+01
2.630000e-06	3.430620e-06	9.980417e-10	2.381232e+01	7.120843e+01
2.640000e-06	3.467146e-06	1.004151e-09	2.406586e+01	7.166798e+01
2.650000e-06	3.503397e-06	1.009538e-09	2.431748e+01	7.211358e+01
2.660000e-06	3.539473e-06	1.014676e-09	2.456789e+01	7.254544e+01
2.670000e-06	3.575354e-06	1.018447e-09	2.481694e+01	7.296377e+01
2.680000e-06	3.611095e-06	1.022095e-09	2.506502e+01	7.336874e+01
2.690000e-06	3.646720e-06	1.025810e-09	2.531230e+01	7.376055e+01
2.700000e-06	3.682240e-06	1.029657e-09	2.555885e+01	7.413938e+01
2.710000e-06	3.717591e-06	1.035599e-09	2.580422e+01	7.450540e+01
2.720000e-06	3.752703e-06	1.045090e-09	2.604794e+01	7.485880e+01
2.730000e-06	3.787482e-06	1.052048e-09	2.628934e+01	7.519977e+01
2.740000e-06	3.821838e-06	1.055823e-09	2.652781e+01	7.552852e+01
2.750000e-06	3.855680e-06	1.060756e-09	2.676272e+01	7.584527e+01
2.760000e-06	3.889133e-06	1.065426e-09	2.699492e+01	7.615024e+01
2.770000e-06	3.922252e-06	1.068220e-09	2.722480e+01	7.644368e+01
2.780000e-06	3.954871e-06	1.073154e-09	2.745121e+01	7.672587e+01
2.790000e-06	3.987088e-06	1.080471e-09	2.767484e+01	7.699710e+01
2.800000e-06	4.019031e-06	1.086717e-09	2.789655e+01	7.725768e+01
2.810000e-06	4.050766e-06	1.092132e-09	2.811683e+01	7.750794e+01
2.820000e-06	4.082367e-06	1.098908e-09	2.833618e+01	7.774823e+01
2.830000e-06	4.113837e-06	1.105157e-09	2.855461e+01	7.797894e+01
2.840000e-06	4.145049e-06	1.110300e-09	2.877126e+01	7.820046e+01
2.850000e-06	4.175968e-06	1.115158e-09	2.898587e+01	7.841321e+01
2.860000e-06	4.206620e-06	1.120414e-09	2.919863e+01	7.861761e+01
2.870000e-06	4.236916e-06	1.126042e-09	2.940892e+01	7.881412e+01
2.880000e-06	4.266862e-06	1.131516e-09	2.961678e+01	7.900319e+01
2.890000e-06	4.296531e-06	1.136624e-09	2.982272e+01	7.918530e+01
2.900000e-06	4.325974e-06	1.140887e-09	3.002708e+01	7.936092e+01
