# Temperatura_=_-10.27
# Concentracion g/m^3_=_1620.0
# C_Vs_to_Am_M_A/Vsm_=_65563218390.804596
# pendiente_HvsI_1/m_=_3716.3
# ordenada_HvsI_A/m_=_1297.0
# frecuencia_Hz_=_135110.73090952812

Tiempo_(s)	Campo_(V.s)	Magnetizacion_(V.s)	Campo_(kA/m)	Magnetizacion_(A/m)
0.000000e+00	-5.526072e-06	-9.560536e-10	-3.837324e+01	-6.391330e+01
1.000000e-08	-5.526255e-06	-9.575244e-10	-3.837451e+01	-6.390533e+01
2.000000e-08	-5.526182e-06	-9.570158e-10	-3.837400e+01	-6.389839e+01
3.000000e-08	-5.525742e-06	-9.547701e-10	-3.837095e+01	-6.389226e+01
4.000000e-08	-5.524781e-06	-9.530402e-10	-3.836428e+01	-6.388673e+01
5.000000e-08	-5.523185e-06	-9.510006e-10	-3.835319e+01	-6.388154e+01
6.000000e-08	-5.520934e-06	-9.578450e-10	-3.833756e+01	-6.387643e+01
7.000000e-08	-5.518132e-06	-9.645388e-10	-3.831811e+01	-6.387114e+01
8.000000e-08	-5.514867e-06	-9.257229e-10	-3.829543e+01	-6.386538e+01
9.000000e-08	-5.511164e-06	-8.802116e-10	-3.826972e+01	-6.385887e+01
1.000000e-07	-5.506941e-06	-9.360471e-10	-3.824039e+01	-6.385133e+01
1.100000e-07	-5.502301e-06	-1.003008e-09	-3.820817e+01	-6.384247e+01
1.200000e-07	-5.497511e-06	-9.463011e-10	-3.817491e+01	-6.383200e+01
1.300000e-07	-5.492564e-06	-8.732734e-10	-3.814056e+01	-6.381966e+01
1.400000e-07	-5.487274e-06	-9.197988e-10	-3.810382e+01	-6.380518e+01
1.500000e-07	-5.481568e-06	-1.003550e-09	-3.806420e+01	-6.378830e+01
1.600000e-07	-5.475529e-06	-9.686124e-10	-3.802227e+01	-6.376878e+01
1.700000e-07	-5.469163e-06	-8.663337e-10	-3.797806e+01	-6.374639e+01
1.800000e-07	-5.462243e-06	-9.022195e-10	-3.793001e+01	-6.372094e+01
1.900000e-07	-5.454838e-06	-1.008981e-09	-3.787859e+01	-6.369225e+01
2.000000e-07	-5.447277e-06	-1.000381e-09	-3.782609e+01	-6.366015e+01
2.100000e-07	-5.439491e-06	-9.169167e-10	-3.777202e+01	-6.362451e+01
2.200000e-07	-5.431385e-06	-9.166539e-10	-3.771573e+01	-6.358523e+01
2.300000e-07	-5.423013e-06	-9.897882e-10	-3.765759e+01	-6.354224e+01
2.400000e-07	-5.414253e-06	-9.889003e-10	-3.759677e+01	-6.349548e+01
2.500000e-07	-5.404858e-06	-9.494148e-10	-3.753153e+01	-6.344493e+01
2.600000e-07	-5.394674e-06	-9.530981e-10	-3.746081e+01	-6.339062e+01
2.700000e-07	-5.383827e-06	-9.792651e-10	-3.738549e+01	-6.333258e+01
2.800000e-07	-5.372485e-06	-9.597603e-10	-3.730672e+01	-6.327089e+01
2.900000e-07	-5.360753e-06	-9.411317e-10	-3.722526e+01	-6.320565e+01
3.000000e-07	-5.348681e-06	-9.453828e-10	-3.714143e+01	-6.313699e+01
3.100000e-07	-5.336252e-06	-9.669400e-10	-3.705512e+01	-6.306507e+01
3.200000e-07	-5.323394e-06	-9.790028e-10	-3.696584e+01	-6.299009e+01
3.300000e-07	-5.310097e-06	-9.685204e-10	-3.687350e+01	-6.291224e+01
3.400000e-07	-5.296450e-06	-9.616149e-10	-3.677873e+01	-6.283176e+01
3.500000e-07	-5.282445e-06	-9.777383e-10	-3.668148e+01	-6.274890e+01
3.600000e-07	-5.268034e-06	-9.664573e-10	-3.658141e+01	-6.266393e+01
3.700000e-07	-5.253138e-06	-9.323839e-10	-3.647798e+01	-6.257714e+01
3.800000e-07	-5.237690e-06	-9.561604e-10	-3.637070e+01	-6.248883e+01
3.900000e-07	-5.221735e-06	-9.771714e-10	-3.625992e+01	-6.239929e+01
4.000000e-07	-5.205321e-06	-9.275558e-10	-3.614593e+01	-6.230885e+01
4.100000e-07	-5.188562e-06	-9.237176e-10	-3.602956e+01	-6.221782e+01
4.200000e-07	-5.171490e-06	-9.907110e-10	-3.591101e+01	-6.212652e+01
4.300000e-07	-5.154040e-06	-9.598811e-10	-3.578984e+01	-6.203527e+01
4.400000e-07	-5.136312e-06	-8.939229e-10	-3.566673e+01	-6.194437e+01
4.500000e-07	-5.118271e-06	-9.518289e-10	-3.554146e+01	-6.185412e+01
4.600000e-07	-5.099727e-06	-9.846895e-10	-3.541268e+01	-6.176482e+01
4.700000e-07	-5.080720e-06	-8.952254e-10	-3.528070e+01	-6.167675e+01
4.800000e-07	-5.061460e-06	-8.993419e-10	-3.514696e+01	-6.159016e+01
4.900000e-07	-5.041950e-06	-9.716650e-10	-3.501148e+01	-6.150529e+01
5.000000e-07	-5.022110e-06	-9.250300e-10	-3.487371e+01	-6.142238e+01
5.100000e-07	-5.001988e-06	-8.891403e-10	-3.473398e+01	-6.134161e+01
5.200000e-07	-4.981633e-06	-9.632862e-10	-3.459263e+01	-6.126316e+01
5.300000e-07	-4.960962e-06	-9.442774e-10	-3.444910e+01	-6.118717e+01
5.400000e-07	-4.939933e-06	-8.743346e-10	-3.430307e+01	-6.111378e+01
5.500000e-07	-4.918597e-06	-9.258300e-10	-3.415491e+01	-6.104307e+01
5.600000e-07	-4.896866e-06	-9.549603e-10	-3.400401e+01	-6.097511e+01
5.700000e-07	-4.874766e-06	-8.821709e-10	-3.385055e+01	-6.090994e+01
5.800000e-07	-4.852370e-06	-8.966866e-10	-3.369503e+01	-6.084756e+01
5.900000e-07	-4.829618e-06	-9.505038e-10	-3.353704e+01	-6.078795e+01
6.000000e-07	-4.806518e-06	-9.047644e-10	-3.337663e+01	-6.073107e+01
6.100000e-07	-4.783165e-06	-8.828962e-10	-3.321447e+01	-6.067683e+01
6.200000e-07	-4.759578e-06	-9.314768e-10	-3.305068e+01	-6.062514e+01
6.300000e-07	-4.735719e-06	-9.167577e-10	-3.288500e+01	-6.057587e+01
6.400000e-07	-4.711525e-06	-8.879093e-10	-3.271700e+01	-6.052888e+01
6.500000e-07	-4.686962e-06	-9.201664e-10	-3.254643e+01	-6.048398e+01
6.600000e-07	-4.662120e-06	-9.212554e-10	-3.237393e+01	-6.044099e+01
6.700000e-07	-4.636840e-06	-8.887207e-10	-3.219838e+01	-6.039970e+01
6.800000e-07	-4.610884e-06	-9.024008e-10	-3.201814e+01	-6.035988e+01
6.900000e-07	-4.584306e-06	-9.176773e-10	-3.183358e+01	-6.032130e+01
7.000000e-07	-4.557252e-06	-8.969160e-10	-3.164572e+01	-6.028370e+01
7.100000e-07	-4.529912e-06	-8.954918e-10	-3.145587e+01	-6.024684e+01
7.200000e-07	-4.502368e-06	-9.044169e-10	-3.126460e+01	-6.021043e+01
7.300000e-07	-4.474593e-06	-8.946355e-10	-3.107173e+01	-6.017422e+01
7.400000e-07	-4.446643e-06	-8.916126e-10	-3.087764e+01	-6.013793e+01
7.500000e-07	-4.418489e-06	-9.007409e-10	-3.068215e+01	-6.010130e+01
7.600000e-07	-4.390081e-06	-8.944842e-10	-3.048488e+01	-6.006405e+01
7.700000e-07	-4.361414e-06	-8.884129e-10	-3.028581e+01	-6.002593e+01
7.800000e-07	-4.332397e-06	-8.896369e-10	-3.008432e+01	-5.998667e+01
7.900000e-07	-4.302991e-06	-8.826423e-10	-2.988012e+01	-5.994603e+01
8.000000e-07	-4.273259e-06	-8.762519e-10	-2.967366e+01	-5.990377e+01
8.100000e-07	-4.243224e-06	-8.817401e-10	-2.946510e+01	-5.985967e+01
8.200000e-07	-4.212928e-06	-8.826441e-10	-2.925472e+01	-5.981350e+01
8.300000e-07	-4.182388e-06	-8.802735e-10	-2.904265e+01	-5.976508e+01
8.400000e-07	-4.151498e-06	-8.846843e-10	-2.882815e+01	-5.971421e+01
8.500000e-07	-4.120243e-06	-8.886181e-10	-2.861111e+01	-5.966073e+01
8.600000e-07	-4.088851e-06	-8.804396e-10	-2.839313e+01	-5.960448e+01
8.700000e-07	-4.057352e-06	-8.734822e-10	-2.817439e+01	-5.954533e+01
8.800000e-07	-4.025611e-06	-8.716438e-10	-2.795399e+01	-5.948315e+01
8.900000e-07	-3.993709e-06	-8.657453e-10	-2.773245e+01	-5.941783e+01
9.000000e-07	-3.961617e-06	-8.623938e-10	-2.750961e+01	-5.934930e+01
9.100000e-07	-3.929216e-06	-8.694798e-10	-2.728461e+01	-5.927747e+01
9.200000e-07	-3.896452e-06	-8.715300e-10	-2.705710e+01	-5.920229e+01
9.300000e-07	-3.863256e-06	-8.661681e-10	-2.682659e+01	-5.912371e+01
9.400000e-07	-3.829548e-06	-8.668919e-10	-2.659252e+01	-5.904169e+01
9.500000e-07	-3.795329e-06	-8.679757e-10	-2.635490e+01	-5.895623e+01
9.600000e-07	-3.760633e-06	-8.574431e-10	-2.611397e+01	-5.886731e+01
9.700000e-07	-3.725582e-06	-8.485091e-10	-2.587057e+01	-5.877493e+01
9.800000e-07	-3.690252e-06	-8.484183e-10	-2.562524e+01	-5.867910e+01
9.900000e-07	-3.654660e-06	-8.456811e-10	-2.537809e+01	-5.857984e+01
1.000000e-06	-3.618958e-06	-8.431946e-10	-2.513017e+01	-5.847717e+01
1.010000e-06	-3.583175e-06	-8.482974e-10	-2.488170e+01	-5.837113e+01
1.020000e-06	-3.547220e-06	-8.535539e-10	-2.463202e+01	-5.826174e+01
1.030000e-06	-3.511067e-06	-8.521688e-10	-2.438097e+01	-5.814904e+01
1.040000e-06	-3.474751e-06	-8.515866e-10	-2.412879e+01	-5.803308e+01
1.050000e-06	-3.438204e-06	-8.493145e-10	-2.387501e+01	-5.791388e+01
1.060000e-06	-3.401349e-06	-8.411877e-10	-2.361909e+01	-5.779149e+01
1.070000e-06	-3.364183e-06	-8.346927e-10	-2.336100e+01	-5.766594e+01
1.080000e-06	-3.326792e-06	-8.364920e-10	-2.310136e+01	-5.753727e+01
1.090000e-06	-3.289193e-06	-8.382910e-10	-2.284027e+01	-5.740550e+01
1.100000e-06	-3.251326e-06	-8.357310e-10	-2.257732e+01	-5.727068e+01
1.110000e-06	-3.213228e-06	-8.353202e-10	-2.231277e+01	-5.713282e+01
1.120000e-06	-3.174960e-06	-8.371147e-10	-2.204704e+01	-5.699195e+01
1.130000e-06	-3.136517e-06	-8.326076e-10	-2.178009e+01	-5.684807e+01
1.140000e-06	-3.097830e-06	-8.282359e-10	-2.151144e+01	-5.670122e+01
1.150000e-06	-3.058920e-06	-8.272635e-10	-2.124125e+01	-5.655139e+01
1.160000e-06	-3.019817e-06	-8.244621e-10	-2.096972e+01	-5.639858e+01
1.170000e-06	-2.980524e-06	-8.192753e-10	-2.069687e+01	-5.624280e+01
1.180000e-06	-2.941086e-06	-8.179366e-10	-2.042300e+01	-5.608405e+01
1.190000e-06	-2.901488e-06	-8.181310e-10	-2.014804e+01	-5.592231e+01
1.200000e-06	-2.861722e-06	-8.149449e-10	-1.987190e+01	-5.575757e+01
1.210000e-06	-2.821822e-06	-8.121308e-10	-1.959483e+01	-5.558981e+01
1.220000e-06	-2.781779e-06	-8.122551e-10	-1.931677e+01	-5.541902e+01
1.230000e-06	-2.741576e-06	-8.116255e-10	-1.903760e+01	-5.524517e+01
1.240000e-06	-2.701210e-06	-8.097749e-10	-1.875730e+01	-5.506822e+01
1.250000e-06	-2.660657e-06	-8.107690e-10	-1.847570e+01	-5.488817e+01
1.260000e-06	-2.619868e-06	-8.100006e-10	-1.819246e+01	-5.470496e+01
1.270000e-06	-2.578822e-06	-8.048389e-10	-1.790743e+01	-5.451855e+01
1.280000e-06	-2.537423e-06	-8.003284e-10	-1.761996e+01	-5.432892e+01
1.290000e-06	-2.495661e-06	-7.967098e-10	-1.732996e+01	-5.413601e+01
1.300000e-06	-2.453607e-06	-7.906470e-10	-1.703794e+01	-5.393977e+01
1.310000e-06	-2.411370e-06	-7.863154e-10	-1.674464e+01	-5.374014e+01
1.320000e-06	-2.368955e-06	-7.841670e-10	-1.645011e+01	-5.353706e+01
1.330000e-06	-2.326216e-06	-7.809246e-10	-1.615333e+01	-5.333046e+01
1.340000e-06	-2.283127e-06	-7.774312e-10	-1.585412e+01	-5.312026e+01
1.350000e-06	-2.239794e-06	-7.755676e-10	-1.555321e+01	-5.290638e+01
1.360000e-06	-2.196434e-06	-7.713717e-10	-1.525211e+01	-5.268870e+01
1.370000e-06	-2.152994e-06	-7.646291e-10	-1.495047e+01	-5.246712e+01
1.380000e-06	-2.109356e-06	-7.571385e-10	-1.464744e+01	-5.224150e+01
1.390000e-06	-2.065624e-06	-7.501778e-10	-1.434377e+01	-5.201172e+01
1.400000e-06	-2.021826e-06	-7.447108e-10	-1.403963e+01	-5.177759e+01
1.410000e-06	-1.977938e-06	-7.412563e-10	-1.373487e+01	-5.153894e+01
1.420000e-06	-1.933924e-06	-7.401796e-10	-1.342924e+01	-5.129556e+01
1.430000e-06	-1.889848e-06	-7.395696e-10	-1.312317e+01	-5.104723e+01
1.440000e-06	-1.845726e-06	-7.381928e-10	-1.281679e+01	-5.079368e+01
1.450000e-06	-1.801485e-06	-7.338784e-10	-1.250958e+01	-5.053463e+01
1.460000e-06	-1.757132e-06	-7.275207e-10	-1.220158e+01	-5.026976e+01
1.470000e-06	-1.712681e-06	-7.193305e-10	-1.189292e+01	-4.999874e+01
1.480000e-06	-1.668047e-06	-7.129723e-10	-1.158298e+01	-4.972116e+01
1.490000e-06	-1.623182e-06	-7.080525e-10	-1.127143e+01	-4.943663e+01
1.500000e-06	-1.578232e-06	-7.033776e-10	-1.095930e+01	-4.914468e+01
1.510000e-06	-1.533165e-06	-7.010619e-10	-1.064635e+01	-4.884481e+01
1.520000e-06	-1.487903e-06	-6.998018e-10	-1.033205e+01	-4.853650e+01
1.530000e-06	-1.442522e-06	-6.969812e-10	-1.001693e+01	-4.821918e+01
1.540000e-06	-1.397033e-06	-6.901817e-10	-9.701045e+00	-4.789222e+01
1.550000e-06	-1.351464e-06	-6.827021e-10	-9.384613e+00	-4.755498e+01
1.560000e-06	-1.305836e-06	-6.743288e-10	-9.067769e+00	-4.720677e+01
1.570000e-06	-1.260223e-06	-6.641845e-10	-8.751032e+00	-4.684684e+01
1.580000e-06	-1.214547e-06	-6.558371e-10	-8.433861e+00	-4.647444e+01
1.590000e-06	-1.168735e-06	-6.513436e-10	-8.115738e+00	-4.608874e+01
1.600000e-06	-1.122858e-06	-6.511256e-10	-7.797166e+00	-4.568893e+01
1.610000e-06	-1.076835e-06	-6.477967e-10	-7.477583e+00	-4.527411e+01
1.620000e-06	-1.030765e-06	-6.414005e-10	-7.157667e+00	-4.484338e+01
1.630000e-06	-9.847242e-07	-6.329068e-10	-6.837960e+00	-4.439583e+01
1.640000e-06	-9.385795e-07	-6.227937e-10	-6.517529e+00	-4.393050e+01
1.650000e-06	-8.922743e-07	-6.130904e-10	-6.195985e+00	-4.344642e+01
1.660000e-06	-8.458876e-07	-6.022952e-10	-5.873874e+00	-4.294261e+01
1.670000e-06	-7.995267e-07	-5.930989e-10	-5.551942e+00	-4.241810e+01
1.680000e-06	-7.531871e-07	-5.836019e-10	-5.230158e+00	-4.187187e+01
1.690000e-06	-7.067897e-07	-5.730920e-10	-4.907973e+00	-4.130296e+01
1.700000e-06	-6.603183e-07	-5.639026e-10	-4.585274e+00	-4.071039e+01
1.710000e-06	-6.137740e-07	-5.564993e-10	-4.262068e+00	-4.009318e+01
1.720000e-06	-5.670989e-07	-5.508315e-10	-3.937955e+00	-3.945041e+01
1.730000e-06	-5.204069e-07	-5.440923e-10	-3.613724e+00	-3.878116e+01
1.740000e-06	-4.737244e-07	-5.341831e-10	-3.289559e+00	-3.808456e+01
1.750000e-06	-4.269241e-07	-5.198633e-10	-2.964576e+00	-3.735977e+01
1.760000e-06	-3.801569e-07	-5.039438e-10	-2.639823e+00	-3.660603e+01
1.770000e-06	-3.333984e-07	-4.920515e-10	-2.315130e+00	-3.582259e+01
1.780000e-06	-2.865524e-07	-4.793962e-10	-1.989830e+00	-3.500881e+01
1.790000e-06	-2.396627e-07	-4.685283e-10	-1.664226e+00	-3.416408e+01
1.800000e-06	-1.926979e-07	-4.576962e-10	-1.338101e+00	-3.328790e+01
1.810000e-06	-1.458145e-07	-4.454792e-10	-1.012541e+00	-3.237983e+01
1.820000e-06	-9.904965e-08	-4.334476e-10	-6.878043e-01	-3.143953e+01
1.830000e-06	-5.228335e-08	-4.203967e-10	-3.630574e-01	-3.046674e+01
1.840000e-06	-5.479675e-09	-4.071654e-10	-3.805106e-02	-2.946133e+01
1.850000e-06	4.134122e-08	-3.927155e-10	2.870749e-01	-2.842323e+01
1.860000e-06	8.820784e-08	-3.779785e-10	6.125183e-01	-2.735252e+01
1.870000e-06	1.351469e-07	-3.627277e-10	9.384649e-01	-2.624936e+01
1.880000e-06	1.820286e-07	-3.482127e-10	1.264013e+00	-2.511403e+01
1.890000e-06	2.288349e-07	-3.332323e-10	1.589038e+00	-2.394695e+01
1.900000e-06	2.756507e-07	-3.146880e-10	1.914128e+00	-2.274863e+01
1.910000e-06	3.224333e-07	-2.966947e-10	2.238988e+00	-2.151970e+01
1.920000e-06	3.691794e-07	-2.811981e-10	2.563595e+00	-2.026092e+01
1.930000e-06	4.159315e-07	-2.641931e-10	2.888243e+00	-1.897316e+01
1.940000e-06	4.626012e-07	-2.435780e-10	3.212319e+00	-1.765741e+01
1.950000e-06	5.091643e-07	-2.231126e-10	3.535655e+00	-1.631477e+01
1.960000e-06	5.557106e-07	-2.042163e-10	3.858874e+00	-1.494645e+01
1.970000e-06	6.022542e-07	-1.864354e-10	4.182074e+00	-1.355378e+01
1.980000e-06	6.486956e-07	-1.695226e-10	4.504565e+00	-1.213816e+01
1.990000e-06	6.950599e-07	-1.496932e-10	4.826521e+00	-1.070112e+01
2.000000e-06	7.414224e-07	-1.248252e-10	5.148464e+00	-9.244266e+00
2.010000e-06	7.877622e-07	-9.693429e-11	5.470249e+00	-7.769291e+00
2.020000e-06	8.341490e-07	-7.078504e-11	5.792360e+00	-6.277967e+00
2.030000e-06	8.805175e-07	-5.037000e-11	6.114344e+00	-4.772134e+00
2.040000e-06	9.267800e-07	-3.474192e-11	6.435593e+00	-3.253695e+00
2.050000e-06	9.728838e-07	-1.726181e-11	6.755740e+00	-1.724606e+00
2.060000e-06	1.018845e-06	3.770506e-12	7.074899e+00	-1.868669e-01
2.070000e-06	1.064764e-06	2.644698e-11	7.393758e+00	1.357485e+00
2.080000e-06	1.110653e-06	5.143770e-11	7.712411e+00	2.906390e+00
2.090000e-06	1.156480e-06	7.909577e-11	8.030636e+00	4.457768e+00
2.100000e-06	1.202161e-06	1.049925e-10	8.347846e+00	6.009535e+00
2.110000e-06	1.247745e-06	1.270608e-10	8.664383e+00	7.559610e+00
2.120000e-06	1.293343e-06	1.469021e-10	8.981019e+00	9.105925e+00
2.130000e-06	1.338828e-06	1.652512e-10	9.296867e+00	1.064643e+01
2.140000e-06	1.384165e-06	1.830014e-10	9.611691e+00	1.217912e+01
2.150000e-06	1.429492e-06	2.042236e-10	9.926441e+00	1.370201e+01
2.160000e-06	1.474729e-06	2.290277e-10	1.024057e+01	1.521319e+01
2.170000e-06	1.519811e-06	2.538322e-10	1.055362e+01	1.671078e+01
2.180000e-06	1.564775e-06	2.744155e-10	1.086585e+01	1.819299e+01
2.190000e-06	1.609605e-06	2.935757e-10	1.117715e+01	1.965810e+01
2.200000e-06	1.654360e-06	3.131844e-10	1.148793e+01	2.110445e+01
2.210000e-06	1.699026e-06	3.312066e-10	1.179810e+01	2.253050e+01
2.220000e-06	1.743514e-06	3.470591e-10	1.210702e+01	2.393476e+01
2.230000e-06	1.787864e-06	3.628009e-10	1.241499e+01	2.531589e+01
2.240000e-06	1.832052e-06	3.775828e-10	1.272183e+01	2.667261e+01
2.250000e-06	1.876095e-06	3.920899e-10	1.302767e+01	2.800376e+01
2.260000e-06	1.920097e-06	4.123537e-10	1.333322e+01	2.930829e+01
2.270000e-06	1.964027e-06	4.355152e-10	1.363828e+01	3.058526e+01
2.280000e-06	2.007846e-06	4.563889e-10	1.394255e+01	3.183384e+01
2.290000e-06	2.051606e-06	4.745261e-10	1.424642e+01	3.305331e+01
2.300000e-06	2.095308e-06	4.890777e-10	1.454990e+01	3.424307e+01
2.310000e-06	2.138913e-06	5.020227e-10	1.485269e+01	3.540263e+01
2.320000e-06	2.182447e-06	5.139872e-10	1.515499e+01	3.653160e+01
2.330000e-06	2.225917e-06	5.267681e-10	1.545684e+01	3.762970e+01
2.340000e-06	2.269254e-06	5.400874e-10	1.575778e+01	3.869677e+01
2.350000e-06	2.312396e-06	5.570259e-10	1.605736e+01	3.973274e+01
2.360000e-06	2.355408e-06	5.742901e-10	1.635603e+01	4.073764e+01
2.370000e-06	2.398314e-06	5.886062e-10	1.665398e+01	4.171158e+01
2.380000e-06	2.440888e-06	6.027560e-10	1.694961e+01	4.265478e+01
2.390000e-06	2.483010e-06	6.134198e-10	1.724211e+01	4.356752e+01
2.400000e-06	2.524815e-06	6.227464e-10	1.753241e+01	4.445017e+01
2.410000e-06	2.566360e-06	6.336222e-10	1.782089e+01	4.530317e+01
2.420000e-06	2.607526e-06	6.457111e-10	1.810675e+01	4.612702e+01
2.430000e-06	2.648362e-06	6.586014e-10	1.839032e+01	4.692228e+01
2.440000e-06	2.688984e-06	6.703879e-10	1.867240e+01	4.768957e+01
2.450000e-06	2.729403e-06	6.806850e-10	1.895307e+01	4.842953e+01
2.460000e-06	2.769587e-06	6.891891e-10	1.923211e+01	4.914285e+01
2.470000e-06	2.809588e-06	6.964856e-10	1.950988e+01	4.983027e+01
2.480000e-06	2.849437e-06	7.049656e-10	1.978659e+01	5.049253e+01
2.490000e-06	2.889136e-06	7.145271e-10	2.006227e+01	5.113040e+01
2.500000e-06	2.928766e-06	7.270125e-10	2.033746e+01	5.174466e+01
2.510000e-06	2.968284e-06	7.366836e-10	2.061187e+01	5.233609e+01
2.520000e-06	3.007625e-06	7.443288e-10	2.088505e+01	5.290548e+01
2.530000e-06	3.046791e-06	7.521699e-10	2.115702e+01	5.345363e+01
2.540000e-06	3.085720e-06	7.595498e-10	2.142735e+01	5.398129e+01
2.550000e-06	3.124347e-06	7.647917e-10	2.169557e+01	5.448924e+01
2.560000e-06	3.162758e-06	7.690650e-10	2.196231e+01	5.497822e+01
2.570000e-06	3.200953e-06	7.745572e-10	2.222753e+01	5.544896e+01
2.580000e-06	3.238892e-06	7.815951e-10	2.249098e+01	5.590215e+01
2.590000e-06	3.276676e-06	7.908724e-10	2.275335e+01	5.633848e+01
2.600000e-06	3.314362e-06	7.994290e-10	2.301505e+01	5.675859e+01
2.610000e-06	3.351825e-06	8.043195e-10	2.327519e+01	5.716310e+01
2.620000e-06	3.388987e-06	8.077488e-10	2.353324e+01	5.755259e+01
2.630000e-06	3.425810e-06	8.124597e-10	2.378895e+01	5.792764e+01
2.640000e-06	3.462311e-06	8.172326e-10	2.404241e+01	5.828874e+01
2.650000e-06	3.498624e-06	8.215894e-10	2.429457e+01	5.863641e+01
2.660000e-06	3.534737e-06	8.267192e-10	2.454534e+01	5.897111e+01
2.670000e-06	3.570682e-06	8.308564e-10	2.479494e+01	5.929325e+01
2.680000e-06	3.606528e-06	8.354195e-10	2.504386e+01	5.960325e+01
2.690000e-06	3.642196e-06	8.420766e-10	2.529154e+01	5.990147e+01
2.700000e-06	3.677679e-06	8.471177e-10	2.553794e+01	6.018827e+01
2.710000e-06	3.713032e-06	8.501180e-10	2.578343e+01	6.046397e+01
2.720000e-06	3.748185e-06	8.540384e-10	2.602753e+01	6.072887e+01
2.730000e-06	3.783030e-06	8.583251e-10	2.626949e+01	6.098324e+01
2.740000e-06	3.817406e-06	8.619158e-10	2.650820e+01	6.122736e+01
2.750000e-06	3.851232e-06	8.671627e-10	2.674309e+01	6.146147e+01
2.760000e-06	3.884575e-06	8.717692e-10	2.697463e+01	6.168581e+01
2.770000e-06	3.917472e-06	8.740340e-10	2.720307e+01	6.190059e+01
2.780000e-06	3.949973e-06	8.771939e-10	2.742875e+01	6.210603e+01
2.790000e-06	3.982209e-06	8.829625e-10	2.765260e+01	6.230235e+01
2.800000e-06	4.014243e-06	8.885099e-10	2.787505e+01	6.248975e+01
2.810000e-06	4.046078e-06	8.918722e-10	2.809611e+01	6.266842e+01
2.820000e-06	4.077728e-06	8.949155e-10	2.831588e+01	6.283858e+01
2.830000e-06	4.109186e-06	8.981619e-10	2.853433e+01	6.300042e+01
2.840000e-06	4.140432e-06	9.007532e-10	2.875131e+01	6.315415e+01
2.850000e-06	4.171400e-06	9.039606e-10	2.896635e+01	6.329998e+01
2.860000e-06	4.202039e-06	9.078520e-10	2.917911e+01	6.343813e+01
2.870000e-06	4.232374e-06	9.107491e-10	2.938976e+01	6.356881e+01
2.880000e-06	4.262360e-06	9.121509e-10	2.959798e+01	6.369224e+01
2.890000e-06	4.292025e-06	9.151959e-10	2.980397e+01	6.380867e+01
2.900000e-06	4.321478e-06	9.203735e-10	3.000850e+01	6.391832e+01
