# Temperatura_=_-18.95
# Concentracion g/m^3_=_1620.0
# C_Vs_to_Am_M_A/Vsm_=_65563218390.804596
# pendiente_HvsI_1/m_=_3716.3
# ordenada_HvsI_A/m_=_1297.0
# frecuencia_Hz_=_135111.25799204392

Tiempo_(s)	Campo_(V.s)	Magnetizacion_(V.s)	Campo_(kA/m)	Magnetizacion_(A/m)
0.000000e+00	-5.523130e-06	-7.890569e-10	-3.836443e+01	-5.161265e+01
1.000000e-08	-5.523342e-06	-7.880816e-10	-3.836591e+01	-5.167024e+01
2.000000e-08	-5.523321e-06	-7.862764e-10	-3.836576e+01	-5.173259e+01
3.000000e-08	-5.523014e-06	-7.841180e-10	-3.836363e+01	-5.179939e+01
4.000000e-08	-5.522275e-06	-7.812492e-10	-3.835849e+01	-5.187029e+01
5.000000e-08	-5.520932e-06	-7.780433e-10	-3.834917e+01	-5.194489e+01
6.000000e-08	-5.519039e-06	-7.797995e-10	-3.833602e+01	-5.202278e+01
7.000000e-08	-5.516659e-06	-7.865446e-10	-3.831949e+01	-5.210350e+01
8.000000e-08	-5.513662e-06	-7.843167e-10	-3.829867e+01	-5.218661e+01
9.000000e-08	-5.510092e-06	-7.779515e-10	-3.827387e+01	-5.227159e+01
1.000000e-07	-5.506159e-06	-7.786938e-10	-3.824655e+01	-5.235797e+01
1.100000e-07	-5.501848e-06	-7.878802e-10	-3.821660e+01	-5.244523e+01
1.200000e-07	-5.497191e-06	-7.858523e-10	-3.818425e+01	-5.253287e+01
1.300000e-07	-5.492277e-06	-7.624500e-10	-3.815012e+01	-5.262038e+01
1.400000e-07	-5.487032e-06	-7.340158e-10	-3.811369e+01	-5.270726e+01
1.500000e-07	-5.481472e-06	-7.607773e-10	-3.807507e+01	-5.279303e+01
1.600000e-07	-5.475673e-06	-7.714120e-10	-3.803479e+01	-5.287722e+01
1.700000e-07	-5.469431e-06	-7.938658e-10	-3.799143e+01	-5.295938e+01
1.800000e-07	-5.462646e-06	-7.784769e-10	-3.794430e+01	-5.303909e+01
1.900000e-07	-5.455486e-06	-8.226317e-10	-3.789457e+01	-5.311596e+01
2.000000e-07	-5.448053e-06	-8.324861e-10	-3.784294e+01	-5.318964e+01
2.100000e-07	-5.440396e-06	-8.046070e-10	-3.778975e+01	-5.325980e+01
2.200000e-07	-5.432532e-06	-7.596195e-10	-3.773513e+01	-5.332614e+01
2.300000e-07	-5.424419e-06	-7.728197e-10	-3.767877e+01	-5.338844e+01
2.400000e-07	-5.415869e-06	-8.046436e-10	-3.761939e+01	-5.344650e+01
2.500000e-07	-5.406727e-06	-8.073389e-10	-3.755588e+01	-5.350014e+01
2.600000e-07	-5.396915e-06	-8.034473e-10	-3.748773e+01	-5.354927e+01
2.700000e-07	-5.386441e-06	-7.960610e-10	-3.741497e+01	-5.359382e+01
2.800000e-07	-5.375415e-06	-7.941295e-10	-3.733839e+01	-5.363376e+01
2.900000e-07	-5.363959e-06	-7.772653e-10	-3.725881e+01	-5.366912e+01
3.000000e-07	-5.352067e-06	-7.902843e-10	-3.717621e+01	-5.369997e+01
3.100000e-07	-5.339794e-06	-7.781775e-10	-3.709095e+01	-5.372641e+01
3.200000e-07	-5.327155e-06	-7.947955e-10	-3.700317e+01	-5.374859e+01
3.300000e-07	-5.314072e-06	-7.982913e-10	-3.691229e+01	-5.376669e+01
3.400000e-07	-5.300633e-06	-8.143486e-10	-3.681894e+01	-5.378094e+01
3.500000e-07	-5.286809e-06	-7.847564e-10	-3.672291e+01	-5.379159e+01
3.600000e-07	-5.272512e-06	-7.945654e-10	-3.662361e+01	-5.379891e+01
3.700000e-07	-5.257707e-06	-7.957245e-10	-3.652077e+01	-5.380321e+01
3.800000e-07	-5.242442e-06	-7.989367e-10	-3.641473e+01	-5.380483e+01
3.900000e-07	-5.226650e-06	-7.923448e-10	-3.630504e+01	-5.380409e+01
4.000000e-07	-5.210297e-06	-8.177383e-10	-3.619145e+01	-5.380136e+01
4.100000e-07	-5.193556e-06	-8.091877e-10	-3.607516e+01	-5.379699e+01
4.200000e-07	-5.176481e-06	-7.949488e-10	-3.595656e+01	-5.379137e+01
4.300000e-07	-5.159123e-06	-8.026393e-10	-3.583599e+01	-5.378486e+01
4.400000e-07	-5.141547e-06	-8.145686e-10	-3.571391e+01	-5.377782e+01
4.500000e-07	-5.123599e-06	-7.931707e-10	-3.558923e+01	-5.377061e+01
4.600000e-07	-5.105149e-06	-7.981179e-10	-3.546108e+01	-5.376359e+01
4.700000e-07	-5.086336e-06	-8.198823e-10	-3.533040e+01	-5.375709e+01
4.800000e-07	-5.067193e-06	-8.037829e-10	-3.519743e+01	-5.375141e+01
4.900000e-07	-5.047730e-06	-7.916305e-10	-3.506224e+01	-5.374687e+01
5.000000e-07	-5.028082e-06	-8.167676e-10	-3.492576e+01	-5.374372e+01
5.100000e-07	-5.008223e-06	-8.212846e-10	-3.478782e+01	-5.374222e+01
5.200000e-07	-4.988034e-06	-7.957388e-10	-3.464758e+01	-5.374259e+01
5.300000e-07	-4.967487e-06	-8.118035e-10	-3.450486e+01	-5.374500e+01
5.400000e-07	-4.946607e-06	-8.205638e-10	-3.435982e+01	-5.374962e+01
5.500000e-07	-4.925384e-06	-7.996557e-10	-3.421241e+01	-5.375658e+01
5.600000e-07	-4.903780e-06	-7.979441e-10	-3.406234e+01	-5.376597e+01
5.700000e-07	-4.881915e-06	-8.187188e-10	-3.391047e+01	-5.377784e+01
5.800000e-07	-4.859705e-06	-7.968130e-10	-3.375619e+01	-5.379223e+01
5.900000e-07	-4.837007e-06	-7.950544e-10	-3.359852e+01	-5.380914e+01
6.000000e-07	-4.814025e-06	-8.175302e-10	-3.343889e+01	-5.382853e+01
6.100000e-07	-4.790796e-06	-8.140727e-10	-3.327754e+01	-5.385033e+01
6.200000e-07	-4.767249e-06	-7.906372e-10	-3.311398e+01	-5.387447e+01
6.300000e-07	-4.743499e-06	-8.099145e-10	-3.294901e+01	-5.390081e+01
6.400000e-07	-4.719533e-06	-8.104545e-10	-3.278253e+01	-5.392923e+01
6.500000e-07	-4.695278e-06	-7.964608e-10	-3.261406e+01	-5.395955e+01
6.600000e-07	-4.670652e-06	-8.066528e-10	-3.244300e+01	-5.399161e+01
6.700000e-07	-4.645548e-06	-8.251879e-10	-3.226863e+01	-5.402519e+01
6.800000e-07	-4.619891e-06	-8.107463e-10	-3.209041e+01	-5.406009e+01
6.900000e-07	-4.593677e-06	-8.146627e-10	-3.190832e+01	-5.409609e+01
7.000000e-07	-4.566985e-06	-8.271387e-10	-3.172291e+01	-5.413296e+01
7.100000e-07	-4.539874e-06	-8.157733e-10	-3.153460e+01	-5.417045e+01
7.200000e-07	-4.512411e-06	-8.001629e-10	-3.134384e+01	-5.420834e+01
7.300000e-07	-4.484709e-06	-8.092960e-10	-3.115142e+01	-5.424639e+01
7.400000e-07	-4.456820e-06	-8.064232e-10	-3.095769e+01	-5.428435e+01
7.500000e-07	-4.428688e-06	-8.009455e-10	-3.076229e+01	-5.432201e+01
7.600000e-07	-4.400334e-06	-8.116476e-10	-3.056533e+01	-5.435912e+01
7.700000e-07	-4.371714e-06	-8.154543e-10	-3.036654e+01	-5.439550e+01
7.800000e-07	-4.342770e-06	-8.071036e-10	-3.016549e+01	-5.443092e+01
7.900000e-07	-4.313503e-06	-8.101004e-10	-2.996220e+01	-5.446520e+01
8.000000e-07	-4.283952e-06	-8.164542e-10	-2.975693e+01	-5.449817e+01
8.100000e-07	-4.254153e-06	-8.066876e-10	-2.954994e+01	-5.452966e+01
8.200000e-07	-4.224057e-06	-8.040101e-10	-2.934089e+01	-5.455953e+01
8.300000e-07	-4.193657e-06	-8.101052e-10	-2.912973e+01	-5.458765e+01
8.400000e-07	-4.162947e-06	-8.108868e-10	-2.891641e+01	-5.461392e+01
8.500000e-07	-4.131952e-06	-8.090512e-10	-2.870111e+01	-5.463823e+01
8.600000e-07	-4.100681e-06	-8.205885e-10	-2.848390e+01	-5.466051e+01
8.700000e-07	-4.069192e-06	-8.211192e-10	-2.826518e+01	-5.468070e+01
8.800000e-07	-4.037572e-06	-8.144220e-10	-2.804554e+01	-5.469874e+01
8.900000e-07	-4.005738e-06	-8.126183e-10	-2.782442e+01	-5.471461e+01
9.000000e-07	-3.973687e-06	-8.146430e-10	-2.760179e+01	-5.472828e+01
9.100000e-07	-3.941391e-06	-8.063516e-10	-2.737745e+01	-5.473974e+01
9.200000e-07	-3.908729e-06	-8.073287e-10	-2.715058e+01	-5.474901e+01
9.300000e-07	-3.875711e-06	-8.114617e-10	-2.692123e+01	-5.475608e+01
9.400000e-07	-3.842259e-06	-8.144010e-10	-2.668887e+01	-5.476096e+01
9.500000e-07	-3.808320e-06	-8.160739e-10	-2.645312e+01	-5.476370e+01
9.600000e-07	-3.774027e-06	-8.207618e-10	-2.621492e+01	-5.476429e+01
9.700000e-07	-3.739270e-06	-8.126793e-10	-2.597349e+01	-5.476279e+01
9.800000e-07	-3.704094e-06	-8.023434e-10	-2.572916e+01	-5.475920e+01
9.900000e-07	-3.668666e-06	-8.004250e-10	-2.548306e+01	-5.475355e+01
1.000000e-06	-3.633038e-06	-8.018545e-10	-2.523559e+01	-5.474586e+01
1.010000e-06	-3.597292e-06	-8.009515e-10	-2.498729e+01	-5.473616e+01
1.020000e-06	-3.561411e-06	-8.069946e-10	-2.473806e+01	-5.472444e+01
1.030000e-06	-3.525390e-06	-8.120145e-10	-2.448785e+01	-5.471071e+01
1.040000e-06	-3.489188e-06	-8.085181e-10	-2.423639e+01	-5.469497e+01
1.050000e-06	-3.452738e-06	-8.031087e-10	-2.398320e+01	-5.467720e+01
1.060000e-06	-3.416009e-06	-7.995816e-10	-2.372808e+01	-5.465737e+01
1.070000e-06	-3.378999e-06	-7.939602e-10	-2.347100e+01	-5.463547e+01
1.080000e-06	-3.341696e-06	-7.906995e-10	-2.321189e+01	-5.461143e+01
1.090000e-06	-3.304124e-06	-7.964395e-10	-2.295091e+01	-5.458521e+01
1.100000e-06	-3.266409e-06	-8.013413e-10	-2.268894e+01	-5.455674e+01
1.110000e-06	-3.228493e-06	-8.010982e-10	-2.242556e+01	-5.452597e+01
1.120000e-06	-3.190281e-06	-7.998423e-10	-2.216014e+01	-5.449280e+01
1.130000e-06	-3.151853e-06	-7.987137e-10	-2.189321e+01	-5.445715e+01
1.140000e-06	-3.113152e-06	-7.917344e-10	-2.162439e+01	-5.441894e+01
1.150000e-06	-3.074267e-06	-7.878608e-10	-2.135429e+01	-5.437806e+01
1.160000e-06	-3.035240e-06	-7.881294e-10	-2.108320e+01	-5.433442e+01
1.170000e-06	-2.995938e-06	-7.892587e-10	-2.081020e+01	-5.428791e+01
1.180000e-06	-2.956423e-06	-7.878628e-10	-2.053573e+01	-5.423843e+01
1.190000e-06	-2.916807e-06	-7.887959e-10	-2.026055e+01	-5.418589e+01
1.200000e-06	-2.877148e-06	-7.874804e-10	-1.998507e+01	-5.413018e+01
1.210000e-06	-2.837388e-06	-7.845613e-10	-1.970889e+01	-5.407121e+01
1.220000e-06	-2.797431e-06	-7.810339e-10	-1.943135e+01	-5.400890e+01
1.230000e-06	-2.757303e-06	-7.786055e-10	-1.915261e+01	-5.394315e+01
1.240000e-06	-2.717051e-06	-7.749416e-10	-1.887302e+01	-5.387389e+01
1.250000e-06	-2.676665e-06	-7.771721e-10	-1.859249e+01	-5.380107e+01
1.260000e-06	-2.636048e-06	-7.808652e-10	-1.831036e+01	-5.372462e+01
1.270000e-06	-2.595125e-06	-7.817092e-10	-1.802610e+01	-5.364449e+01
1.280000e-06	-2.553891e-06	-7.787257e-10	-1.773969e+01	-5.356065e+01
1.290000e-06	-2.512335e-06	-7.764165e-10	-1.745103e+01	-5.347308e+01
1.300000e-06	-2.470517e-06	-7.726771e-10	-1.716056e+01	-5.338175e+01
1.310000e-06	-2.428428e-06	-7.678381e-10	-1.686820e+01	-5.328666e+01
1.320000e-06	-2.385968e-06	-7.654475e-10	-1.657327e+01	-5.318782e+01
1.330000e-06	-2.343187e-06	-7.641362e-10	-1.627610e+01	-5.308523e+01
1.340000e-06	-2.300185e-06	-7.636964e-10	-1.597741e+01	-5.297890e+01
1.350000e-06	-2.257025e-06	-7.658953e-10	-1.567761e+01	-5.286886e+01
1.360000e-06	-2.213669e-06	-7.677736e-10	-1.537645e+01	-5.275512e+01
1.370000e-06	-2.170148e-06	-7.643170e-10	-1.507415e+01	-5.263771e+01
1.380000e-06	-2.126522e-06	-7.596248e-10	-1.477112e+01	-5.251664e+01
1.390000e-06	-2.082773e-06	-7.564444e-10	-1.446723e+01	-5.239191e+01
1.400000e-06	-2.038953e-06	-7.550686e-10	-1.416285e+01	-5.226354e+01
1.410000e-06	-1.995088e-06	-7.546905e-10	-1.385816e+01	-5.213149e+01
1.420000e-06	-1.951181e-06	-7.555176e-10	-1.355317e+01	-5.199576e+01
1.430000e-06	-1.907184e-06	-7.556964e-10	-1.324756e+01	-5.185627e+01
1.440000e-06	-1.863018e-06	-7.552510e-10	-1.294079e+01	-5.171296e+01
1.450000e-06	-1.818780e-06	-7.519801e-10	-1.263350e+01	-5.156572e+01
1.460000e-06	-1.774521e-06	-7.482591e-10	-1.232607e+01	-5.141442e+01
1.470000e-06	-1.730131e-06	-7.427125e-10	-1.201773e+01	-5.125889e+01
1.480000e-06	-1.685579e-06	-7.375029e-10	-1.170827e+01	-5.109892e+01
1.490000e-06	-1.640839e-06	-7.337624e-10	-1.139750e+01	-5.093425e+01
1.500000e-06	-1.595911e-06	-7.315887e-10	-1.108542e+01	-5.076460e+01
1.510000e-06	-1.550872e-06	-7.296298e-10	-1.077257e+01	-5.058960e+01
1.520000e-06	-1.505688e-06	-7.273391e-10	-1.045872e+01	-5.040888e+01
1.530000e-06	-1.460380e-06	-7.230067e-10	-1.014400e+01	-5.022198e+01
1.540000e-06	-1.414990e-06	-7.169392e-10	-9.828717e+00	-5.002839e+01
1.550000e-06	-1.369452e-06	-7.110016e-10	-9.512403e+00	-4.982756e+01
1.560000e-06	-1.323837e-06	-7.065066e-10	-9.195557e+00	-4.961887e+01
1.570000e-06	-1.278218e-06	-7.025293e-10	-8.878684e+00	-4.940164e+01
1.580000e-06	-1.232567e-06	-6.976045e-10	-8.561584e+00	-4.917515e+01
1.590000e-06	-1.186819e-06	-6.942599e-10	-8.243814e+00	-4.893861e+01
1.600000e-06	-1.140991e-06	-6.935268e-10	-7.925485e+00	-4.869119e+01
1.610000e-06	-1.095123e-06	-6.905670e-10	-7.606874e+00	-4.843198e+01
1.620000e-06	-1.049085e-06	-6.840800e-10	-7.287090e+00	-4.816006e+01
1.630000e-06	-1.002921e-06	-6.777078e-10	-6.966432e+00	-4.787443e+01
1.640000e-06	-9.567847e-07	-6.723497e-10	-6.645960e+00	-4.757407e+01
1.650000e-06	-9.106142e-07	-6.665884e-10	-6.325253e+00	-4.725791e+01
1.660000e-06	-8.643874e-07	-6.599669e-10	-6.004156e+00	-4.692487e+01
1.670000e-06	-8.180881e-07	-6.533052e-10	-5.682554e+00	-4.657381e+01
1.680000e-06	-7.716719e-07	-6.463221e-10	-5.360141e+00	-4.620360e+01
1.690000e-06	-7.252139e-07	-6.383767e-10	-5.037437e+00	-4.581309e+01
1.700000e-06	-6.787592e-07	-6.304304e-10	-4.714757e+00	-4.540111e+01
1.710000e-06	-6.322578e-07	-6.233673e-10	-4.391751e+00	-4.496652e+01
1.720000e-06	-5.857363e-07	-6.168352e-10	-4.068606e+00	-4.450816e+01
1.730000e-06	-5.392679e-07	-6.105461e-10	-3.745830e+00	-4.402492e+01
1.740000e-06	-4.927020e-07	-6.031914e-10	-3.422377e+00	-4.351569e+01
1.750000e-06	-4.460291e-07	-5.928129e-10	-3.098181e+00	-4.297940e+01
1.760000e-06	-3.993028e-07	-5.806108e-10	-2.773613e+00	-4.241504e+01
1.770000e-06	-3.524321e-07	-5.697638e-10	-2.448042e+00	-4.182165e+01
1.780000e-06	-3.054634e-07	-5.597755e-10	-2.121791e+00	-4.119832e+01
1.790000e-06	-2.585816e-07	-5.517421e-10	-1.796144e+00	-4.054420e+01
1.800000e-06	-2.118727e-07	-5.441831e-10	-1.471697e+00	-3.985856e+01
1.810000e-06	-1.651530e-07	-5.349599e-10	-1.147176e+00	-3.914070e+01
1.820000e-06	-1.183380e-07	-5.235303e-10	-8.219926e-01	-3.839007e+01
1.830000e-06	-7.150865e-08	-5.115637e-10	-4.967091e-01	-3.760617e+01
1.840000e-06	-2.473248e-08	-5.008150e-10	-1.717952e-01	-3.678864e+01
1.850000e-06	2.204022e-08	-4.898353e-10	1.530944e-01	-3.593721e+01
1.860000e-06	6.887116e-08	-4.776264e-10	4.783887e-01	-3.505175e+01
1.870000e-06	1.157132e-07	-4.650677e-10	8.037604e-01	-3.413223e+01
1.880000e-06	1.625577e-07	-4.523333e-10	1.129148e+00	-3.317875e+01
1.890000e-06	2.094098e-07	-4.404074e-10	1.454590e+00	-3.219156e+01
1.900000e-06	2.562410e-07	-4.283932e-10	1.779886e+00	-3.117100e+01
1.910000e-06	3.030277e-07	-4.157742e-10	2.104873e+00	-3.011758e+01
1.920000e-06	3.497951e-07	-4.031944e-10	2.429726e+00	-2.903191e+01
1.930000e-06	3.965059e-07	-3.887017e-10	2.754185e+00	-2.791476e+01
1.940000e-06	4.431608e-07	-3.707630e-10	3.078257e+00	-2.676701e+01
1.950000e-06	4.898618e-07	-3.516769e-10	3.402648e+00	-2.558966e+01
1.960000e-06	5.365602e-07	-3.350464e-10	3.727022e+00	-2.438386e+01
1.970000e-06	5.831637e-07	-3.200646e-10	4.050737e+00	-2.315085e+01
1.980000e-06	6.296873e-07	-3.043973e-10	4.373896e+00	-2.189200e+01
1.990000e-06	6.761129e-07	-2.875358e-10	4.696375e+00	-2.060878e+01
2.000000e-06	7.224756e-07	-2.682857e-10	5.018416e+00	-1.930278e+01
2.010000e-06	7.687970e-07	-2.452075e-10	5.340171e+00	-1.797565e+01
2.020000e-06	8.150423e-07	-2.211714e-10	5.661398e+00	-1.662916e+01
2.030000e-06	8.612658e-07	-1.997131e-10	5.982473e+00	-1.526514e+01
2.040000e-06	9.074571e-07	-1.815384e-10	6.303324e+00	-1.388548e+01
2.050000e-06	9.535964e-07	-1.642934e-10	6.623814e+00	-1.249215e+01
2.060000e-06	9.997389e-07	-1.471144e-10	6.944326e+00	-1.108715e+01
2.070000e-06	1.045804e-06	-1.305025e-10	7.264298e+00	-9.672534e+00
2.080000e-06	1.091700e-06	-1.115736e-10	7.583101e+00	-8.250371e+00
2.090000e-06	1.137467e-06	-8.844516e-11	7.901001e+00	-6.822753e+00
2.100000e-06	1.183187e-06	-6.388012e-11	8.218579e+00	-5.391778e+00
2.110000e-06	1.228884e-06	-4.233079e-11	8.535999e+00	-3.959542e+00
2.120000e-06	1.274437e-06	-2.428792e-11	8.852415e+00	-2.528124e+00
2.130000e-06	1.319824e-06	-7.855792e-12	9.167685e+00	-1.099581e+00
2.140000e-06	1.365179e-06	6.856944e-12	9.482726e+00	3.240650e-01
2.150000e-06	1.410540e-06	2.295267e-11	9.797811e+00	1.740837e+00
2.160000e-06	1.455783e-06	4.351241e-11	1.011207e+01	3.148809e+00
2.170000e-06	1.500870e-06	6.677070e-11	1.042525e+01	4.546116e+00
2.180000e-06	1.545879e-06	8.883319e-11	1.073789e+01	5.930966e+00
2.190000e-06	1.590826e-06	1.077067e-10	1.105010e+01	7.301638e+00
2.200000e-06	1.635614e-06	1.262371e-10	1.136121e+01	8.656501e+00
2.210000e-06	1.680258e-06	1.436255e-10	1.167131e+01	9.994008e+00
2.220000e-06	1.724785e-06	1.585574e-10	1.198060e+01	1.131271e+01
2.230000e-06	1.769103e-06	1.743298e-10	1.228844e+01	1.261125e+01
2.240000e-06	1.813294e-06	1.916907e-10	1.259540e+01	1.388839e+01
2.250000e-06	1.857441e-06	2.098087e-10	1.290204e+01	1.514299e+01
2.260000e-06	1.901502e-06	2.295537e-10	1.320810e+01	1.637399e+01
2.270000e-06	1.945507e-06	2.496219e-10	1.351377e+01	1.758049e+01
2.280000e-06	1.989448e-06	2.669552e-10	1.381898e+01	1.876167e+01
2.290000e-06	2.033287e-06	2.824249e-10	1.412349e+01	1.991680e+01
2.300000e-06	2.077095e-06	2.971528e-10	1.442779e+01	2.104530e+01
2.310000e-06	2.120892e-06	3.104223e-10	1.473201e+01	2.214667e+01
2.320000e-06	2.164617e-06	3.238258e-10	1.503573e+01	2.322052e+01
2.330000e-06	2.208192e-06	3.392386e-10	1.533841e+01	2.426654e+01
2.340000e-06	2.251590e-06	3.541142e-10	1.563986e+01	2.528456e+01
2.350000e-06	2.294777e-06	3.684357e-10	1.593984e+01	2.627446e+01
2.360000e-06	2.337772e-06	3.834425e-10	1.623849e+01	2.723622e+01
2.370000e-06	2.380569e-06	3.972184e-10	1.653577e+01	2.816991e+01
2.380000e-06	2.423093e-06	4.086166e-10	1.683114e+01	2.907567e+01
2.390000e-06	2.465278e-06	4.187120e-10	1.712417e+01	2.995370e+01
2.400000e-06	2.507040e-06	4.301339e-10	1.741425e+01	3.080429e+01
2.410000e-06	2.548446e-06	4.429953e-10	1.770186e+01	3.162777e+01
2.420000e-06	2.589613e-06	4.565164e-10	1.798781e+01	3.242451e+01
2.430000e-06	2.630513e-06	4.681925e-10	1.827191e+01	3.319495e+01
2.440000e-06	2.671172e-06	4.789582e-10	1.855433e+01	3.393956e+01
2.450000e-06	2.711688e-06	4.888479e-10	1.883577e+01	3.465884e+01
2.460000e-06	2.751982e-06	4.978971e-10	1.911565e+01	3.535331e+01
2.470000e-06	2.792023e-06	5.065925e-10	1.939378e+01	3.602353e+01
2.480000e-06	2.831934e-06	5.167993e-10	1.967101e+01	3.667006e+01
2.490000e-06	2.871774e-06	5.280508e-10	1.994774e+01	3.729348e+01
2.500000e-06	2.911496e-06	5.386255e-10	2.022366e+01	3.789436e+01
2.510000e-06	2.951076e-06	5.478843e-10	2.049859e+01	3.847330e+01
2.520000e-06	2.990498e-06	5.562506e-10	2.077242e+01	3.903087e+01
2.530000e-06	3.029754e-06	5.632635e-10	2.104510e+01	3.956765e+01
2.540000e-06	3.068801e-06	5.685925e-10	2.131632e+01	4.008421e+01
2.550000e-06	3.107551e-06	5.724743e-10	2.158549e+01	4.058109e+01
2.560000e-06	3.146055e-06	5.760476e-10	2.185294e+01	4.105885e+01
2.570000e-06	3.184326e-06	5.815460e-10	2.211877e+01	4.151801e+01
2.580000e-06	3.222343e-06	5.884354e-10	2.238284e+01	4.195908e+01
2.590000e-06	3.260165e-06	5.970320e-10	2.264556e+01	4.238255e+01
2.600000e-06	3.297812e-06	6.058158e-10	2.290707e+01	4.278891e+01
2.610000e-06	3.335232e-06	6.134052e-10	2.316699e+01	4.317861e+01
2.620000e-06	3.372382e-06	6.170524e-10	2.342504e+01	4.355211e+01
2.630000e-06	3.409296e-06	6.178510e-10	2.368145e+01	4.390982e+01
2.640000e-06	3.446093e-06	6.192603e-10	2.393705e+01	4.425217e+01
2.650000e-06	3.482676e-06	6.221854e-10	2.419116e+01	4.457957e+01
2.660000e-06	3.518925e-06	6.275613e-10	2.444294e+01	4.489240e+01
2.670000e-06	3.554938e-06	6.342585e-10	2.469309e+01	4.519105e+01
2.680000e-06	3.590831e-06	6.394170e-10	2.494242e+01	4.547591e+01
2.690000e-06	3.626630e-06	6.438612e-10	2.519108e+01	4.574734e+01
2.700000e-06	3.662242e-06	6.478014e-10	2.543845e+01	4.600572e+01
2.710000e-06	3.697623e-06	6.502264e-10	2.568420e+01	4.625142e+01
2.720000e-06	3.732799e-06	6.522182e-10	2.592854e+01	4.648483e+01
2.730000e-06	3.767726e-06	6.575723e-10	2.617115e+01	4.670630e+01
2.740000e-06	3.802188e-06	6.633866e-10	2.641053e+01	4.691624e+01
2.750000e-06	3.836046e-06	6.674086e-10	2.664571e+01	4.711502e+01
2.760000e-06	3.869423e-06	6.708327e-10	2.687756e+01	4.730306e+01
2.770000e-06	3.902428e-06	6.731449e-10	2.710681e+01	4.748076e+01
2.780000e-06	3.935108e-06	6.737253e-10	2.733381e+01	4.764855e+01
2.790000e-06	3.967487e-06	6.762723e-10	2.755872e+01	4.780685e+01
2.800000e-06	3.999575e-06	6.813051e-10	2.778161e+01	4.795611e+01
2.810000e-06	4.031485e-06	6.849476e-10	2.800326e+01	4.809679e+01
2.820000e-06	4.063234e-06	6.880929e-10	2.822379e+01	4.822935e+01
2.830000e-06	4.094759e-06	6.905073e-10	2.844277e+01	4.835427e+01
2.840000e-06	4.126058e-06	6.907107e-10	2.866018e+01	4.847204e+01
2.850000e-06	4.157119e-06	6.904982e-10	2.887593e+01	4.858315e+01
2.860000e-06	4.187886e-06	6.926286e-10	2.908964e+01	4.868811e+01
2.870000e-06	4.218348e-06	6.966618e-10	2.930123e+01	4.878740e+01
2.880000e-06	4.248554e-06	7.007957e-10	2.951105e+01	4.888155e+01
2.890000e-06	4.278481e-06	7.053248e-10	2.971893e+01	4.897105e+01
2.900000e-06	4.308036e-06	7.107147e-10	2.992422e+01	4.905641e+01
