# Temperatura_=_9.6
# Concentracion g/m^3_=_1620.0
# C_Vs_to_Am_M_A/Vsm_=_65563218390.804596
# pendiente_HvsI_1/m_=_3716.3
# ordenada_HvsI_A/m_=_1297.0
# frecuencia_Hz_=_135104.30127488635

Tiempo_(s)	Campo_(V.s)	Magnetizacion_(V.s)	Campo_(kA/m)	Magnetizacion_(A/m)
0.000000e+00	-5.532953e-06	-1.385858e-09	-3.836089e+01	-9.326591e+01
1.000000e-08	-5.532990e-06	-1.383289e-09	-3.836114e+01	-9.327796e+01
2.000000e-08	-5.532783e-06	-1.380872e-09	-3.835971e+01	-9.328789e+01
3.000000e-08	-5.532231e-06	-1.380149e-09	-3.835588e+01	-9.329538e+01
4.000000e-08	-5.531259e-06	-1.376854e-09	-3.834913e+01	-9.330010e+01
5.000000e-08	-5.529753e-06	-1.368735e-09	-3.833870e+01	-9.330172e+01
6.000000e-08	-5.527605e-06	-1.357837e-09	-3.832381e+01	-9.329993e+01
7.000000e-08	-5.524804e-06	-1.361393e-09	-3.830438e+01	-9.329438e+01
8.000000e-08	-5.521490e-06	-1.388213e-09	-3.828141e+01	-9.328477e+01
9.000000e-08	-5.517756e-06	-1.396358e-09	-3.825552e+01	-9.327076e+01
1.000000e-07	-5.513612e-06	-1.382190e-09	-3.822679e+01	-9.325207e+01
1.100000e-07	-5.509226e-06	-1.395779e-09	-3.819638e+01	-9.322839e+01
1.200000e-07	-5.504665e-06	-1.355494e-09	-3.816475e+01	-9.319947e+01
1.300000e-07	-5.499730e-06	-1.342653e-09	-3.813054e+01	-9.316505e+01
1.400000e-07	-5.494401e-06	-1.352948e-09	-3.809359e+01	-9.312490e+01
1.500000e-07	-5.488688e-06	-1.375209e-09	-3.805399e+01	-9.307882e+01
1.600000e-07	-5.482565e-06	-1.385441e-09	-3.801154e+01	-9.302663e+01
1.700000e-07	-5.476048e-06	-1.329325e-09	-3.796635e+01	-9.296819e+01
1.800000e-07	-5.469125e-06	-1.372782e-09	-3.791835e+01	-9.290339e+01
1.900000e-07	-5.461797e-06	-1.388545e-09	-3.786755e+01	-9.283214e+01
2.000000e-07	-5.454153e-06	-1.397815e-09	-3.781455e+01	-9.275439e+01
2.100000e-07	-5.446238e-06	-1.347284e-09	-3.775967e+01	-9.267011e+01
2.200000e-07	-5.438133e-06	-1.370783e-09	-3.770348e+01	-9.257934e+01
2.300000e-07	-5.429790e-06	-1.389302e-09	-3.764564e+01	-9.248211e+01
2.400000e-07	-5.421001e-06	-1.399165e-09	-3.758470e+01	-9.237850e+01
2.500000e-07	-5.411532e-06	-1.377198e-09	-3.751905e+01	-9.226863e+01
2.600000e-07	-5.401420e-06	-1.371102e-09	-3.744894e+01	-9.215264e+01
2.700000e-07	-5.390706e-06	-1.360382e-09	-3.737466e+01	-9.203071e+01
2.800000e-07	-5.379370e-06	-1.356058e-09	-3.729606e+01	-9.190302e+01
2.900000e-07	-5.367647e-06	-1.364702e-09	-3.721479e+01	-9.176981e+01
3.000000e-07	-5.355580e-06	-1.355978e-09	-3.713113e+01	-9.163131e+01
3.100000e-07	-5.343032e-06	-1.363491e-09	-3.704413e+01	-9.148780e+01
3.200000e-07	-5.329998e-06	-1.373304e-09	-3.695376e+01	-9.133956e+01
3.300000e-07	-5.316648e-06	-1.386919e-09	-3.686120e+01	-9.118688e+01
3.400000e-07	-5.303001e-06	-1.342349e-09	-3.676659e+01	-9.103006e+01
3.500000e-07	-5.288976e-06	-1.352812e-09	-3.666935e+01	-9.086943e+01
3.600000e-07	-5.274579e-06	-1.367192e-09	-3.656953e+01	-9.070530e+01
3.700000e-07	-5.259775e-06	-1.352683e-09	-3.646690e+01	-9.053799e+01
3.800000e-07	-5.244337e-06	-1.324981e-09	-3.635986e+01	-9.036782e+01
3.900000e-07	-5.228185e-06	-1.375419e-09	-3.624787e+01	-9.019510e+01
4.000000e-07	-5.211568e-06	-1.362593e-09	-3.613266e+01	-9.002013e+01
4.100000e-07	-5.194772e-06	-1.326072e-09	-3.601621e+01	-8.984320e+01
4.200000e-07	-5.177757e-06	-1.346272e-09	-3.589825e+01	-8.966460e+01
4.300000e-07	-5.160403e-06	-1.377339e-09	-3.577793e+01	-8.948458e+01
4.400000e-07	-5.142624e-06	-1.306657e-09	-3.565467e+01	-8.930338e+01
4.500000e-07	-5.124377e-06	-1.313492e-09	-3.552816e+01	-8.912121e+01
4.600000e-07	-5.105764e-06	-1.371847e-09	-3.539911e+01	-8.893829e+01
4.700000e-07	-5.086785e-06	-1.331877e-09	-3.526753e+01	-8.875476e+01
4.800000e-07	-5.067384e-06	-1.286125e-09	-3.513301e+01	-8.857078e+01
4.900000e-07	-5.047681e-06	-1.362359e-09	-3.499641e+01	-8.838646e+01
5.000000e-07	-5.027828e-06	-1.354122e-09	-3.485876e+01	-8.820188e+01
5.100000e-07	-5.007766e-06	-1.275932e-09	-3.471968e+01	-8.801710e+01
5.200000e-07	-4.987361e-06	-1.316724e-09	-3.457820e+01	-8.783216e+01
5.300000e-07	-4.966608e-06	-1.360097e-09	-3.443432e+01	-8.764704e+01
5.400000e-07	-4.945467e-06	-1.284668e-09	-3.428774e+01	-8.746172e+01
5.500000e-07	-4.923942e-06	-1.286897e-09	-3.413851e+01	-8.727614e+01
5.600000e-07	-4.902139e-06	-1.350789e-09	-3.398734e+01	-8.709023e+01
5.700000e-07	-4.880109e-06	-1.296220e-09	-3.383461e+01	-8.690386e+01
5.800000e-07	-4.857766e-06	-1.259297e-09	-3.367970e+01	-8.671693e+01
5.900000e-07	-4.834980e-06	-1.319546e-09	-3.352172e+01	-8.652927e+01
6.000000e-07	-4.811798e-06	-1.305531e-09	-3.336099e+01	-8.634071e+01
6.100000e-07	-4.788268e-06	-1.248466e-09	-3.319786e+01	-8.615108e+01
6.200000e-07	-4.764478e-06	-1.296538e-09	-3.303292e+01	-8.596016e+01
6.300000e-07	-4.740565e-06	-1.308012e-09	-3.286712e+01	-8.576776e+01
6.400000e-07	-4.716437e-06	-1.256697e-09	-3.269984e+01	-8.557365e+01
6.500000e-07	-4.691899e-06	-1.263166e-09	-3.252972e+01	-8.537762e+01
6.600000e-07	-4.666911e-06	-1.289449e-09	-3.235647e+01	-8.517942e+01
6.700000e-07	-4.641423e-06	-1.245171e-09	-3.217976e+01	-8.497884e+01
6.800000e-07	-4.615350e-06	-1.243929e-09	-3.199899e+01	-8.477565e+01
6.900000e-07	-4.588822e-06	-1.273065e-09	-3.181506e+01	-8.456962e+01
7.000000e-07	-4.561884e-06	-1.256584e-09	-3.162830e+01	-8.436056e+01
7.100000e-07	-4.534483e-06	-1.235125e-09	-3.143832e+01	-8.414824e+01
7.200000e-07	-4.506788e-06	-1.260351e-09	-3.124631e+01	-8.393249e+01
7.300000e-07	-4.478935e-06	-1.249907e-09	-3.105320e+01	-8.371313e+01
7.400000e-07	-4.450862e-06	-1.227737e-09	-3.085857e+01	-8.348998e+01
7.500000e-07	-4.422546e-06	-1.233332e-09	-3.066225e+01	-8.326292e+01
7.600000e-07	-4.394073e-06	-1.235154e-09	-3.046484e+01	-8.303180e+01
7.700000e-07	-4.365271e-06	-1.211757e-09	-3.026515e+01	-8.279653e+01
7.800000e-07	-4.336108e-06	-1.213672e-09	-3.006296e+01	-8.255702e+01
7.900000e-07	-4.306745e-06	-1.220189e-09	-2.985938e+01	-8.231319e+01
8.000000e-07	-4.277063e-06	-1.208927e-09	-2.965359e+01	-8.206500e+01
8.100000e-07	-4.247040e-06	-1.202778e-09	-2.944543e+01	-8.181242e+01
8.200000e-07	-4.216720e-06	-1.210343e-09	-2.923522e+01	-8.155545e+01
8.300000e-07	-4.186099e-06	-1.200036e-09	-2.902292e+01	-8.129409e+01
8.400000e-07	-4.155169e-06	-1.186837e-09	-2.880848e+01	-8.102837e+01
8.500000e-07	-4.123882e-06	-1.191929e-09	-2.859156e+01	-8.075835e+01
8.600000e-07	-4.092317e-06	-1.187252e-09	-2.837272e+01	-8.048407e+01
8.700000e-07	-4.060616e-06	-1.171551e-09	-2.815292e+01	-8.020563e+01
8.800000e-07	-4.028780e-06	-1.171618e-09	-2.793220e+01	-7.992309e+01
8.900000e-07	-3.996782e-06	-1.177191e-09	-2.771035e+01	-7.963656e+01
9.000000e-07	-3.964587e-06	-1.165151e-09	-2.748714e+01	-7.934615e+01
9.100000e-07	-3.932058e-06	-1.163062e-09	-2.726161e+01	-7.905197e+01
9.200000e-07	-3.899217e-06	-1.166790e-09	-2.703392e+01	-7.875413e+01
9.300000e-07	-3.866002e-06	-1.159053e-09	-2.680363e+01	-7.845276e+01
9.400000e-07	-3.832205e-06	-1.147948e-09	-2.656931e+01	-7.814796e+01
9.500000e-07	-3.797950e-06	-1.151291e-09	-2.633182e+01	-7.783985e+01
9.600000e-07	-3.763289e-06	-1.140884e-09	-2.609151e+01	-7.752856e+01
9.700000e-07	-3.728268e-06	-1.125068e-09	-2.584870e+01	-7.721417e+01
9.800000e-07	-3.692988e-06	-1.119421e-09	-2.560410e+01	-7.689679e+01
9.900000e-07	-3.657441e-06	-1.119150e-09	-2.535765e+01	-7.657651e+01
1.000000e-06	-3.621649e-06	-1.107655e-09	-2.510950e+01	-7.625340e+01
1.010000e-06	-3.585713e-06	-1.106337e-09	-2.486035e+01	-7.592753e+01
1.020000e-06	-3.549696e-06	-1.110723e-09	-2.461063e+01	-7.559894e+01
1.030000e-06	-3.513490e-06	-1.107594e-09	-2.435961e+01	-7.526768e+01
1.040000e-06	-3.477014e-06	-1.099041e-09	-2.410671e+01	-7.493376e+01
1.050000e-06	-3.440294e-06	-1.094608e-09	-2.385213e+01	-7.459720e+01
1.060000e-06	-3.403406e-06	-1.083071e-09	-2.359638e+01	-7.425798e+01
1.070000e-06	-3.366258e-06	-1.072940e-09	-2.333882e+01	-7.391609e+01
1.080000e-06	-3.328757e-06	-1.072767e-09	-2.307883e+01	-7.357147e+01
1.090000e-06	-3.290981e-06	-1.074747e-09	-2.281692e+01	-7.322408e+01
1.100000e-06	-3.252992e-06	-1.067838e-09	-2.255353e+01	-7.287385e+01
1.110000e-06	-3.214799e-06	-1.064661e-09	-2.228874e+01	-7.252069e+01
1.120000e-06	-3.176414e-06	-1.064996e-09	-2.202260e+01	-7.216453e+01
1.130000e-06	-3.137848e-06	-1.056863e-09	-2.175522e+01	-7.180524e+01
1.140000e-06	-3.099079e-06	-1.046010e-09	-2.148643e+01	-7.144272e+01
1.150000e-06	-3.060114e-06	-1.039569e-09	-2.121628e+01	-7.107685e+01
1.160000e-06	-3.020968e-06	-1.030759e-09	-2.094487e+01	-7.070750e+01
1.170000e-06	-2.981595e-06	-1.017544e-09	-2.067190e+01	-7.033454e+01
1.180000e-06	-2.941993e-06	-1.013023e-09	-2.039733e+01	-6.995783e+01
1.190000e-06	-2.902257e-06	-1.011685e-09	-2.012183e+01	-6.957723e+01
1.200000e-06	-2.862481e-06	-1.007192e-09	-1.984605e+01	-6.919261e+01
1.210000e-06	-2.822570e-06	-1.001971e-09	-1.956934e+01	-6.880382e+01
1.220000e-06	-2.782456e-06	-9.997726e-10	-1.929123e+01	-6.841074e+01
1.230000e-06	-2.742207e-06	-9.929335e-10	-1.901217e+01	-6.801323e+01
1.240000e-06	-2.701766e-06	-9.858675e-10	-1.873179e+01	-6.761115e+01
1.250000e-06	-2.661045e-06	-9.810629e-10	-1.844947e+01	-6.720440e+01
1.260000e-06	-2.620123e-06	-9.742798e-10	-1.816575e+01	-6.679284e+01
1.270000e-06	-2.578955e-06	-9.634567e-10	-1.788032e+01	-6.637637e+01
1.280000e-06	-2.537455e-06	-9.555707e-10	-1.759260e+01	-6.595487e+01
1.290000e-06	-2.495691e-06	-9.472356e-10	-1.730304e+01	-6.552825e+01
1.300000e-06	-2.453658e-06	-9.368670e-10	-1.701162e+01	-6.509641e+01
1.310000e-06	-2.411353e-06	-9.276361e-10	-1.671831e+01	-6.465925e+01
1.320000e-06	-2.368825e-06	-9.223099e-10	-1.642345e+01	-6.421669e+01
1.330000e-06	-2.326025e-06	-9.146373e-10	-1.612671e+01	-6.376862e+01
1.340000e-06	-2.282885e-06	-9.066497e-10	-1.582762e+01	-6.331497e+01
1.350000e-06	-2.239470e-06	-8.995707e-10	-1.552662e+01	-6.285563e+01
1.360000e-06	-2.195867e-06	-8.897481e-10	-1.522431e+01	-6.239051e+01
1.370000e-06	-2.152168e-06	-8.750357e-10	-1.492134e+01	-6.191951e+01
1.380000e-06	-2.108433e-06	-8.626688e-10	-1.461811e+01	-6.144250e+01
1.390000e-06	-2.064612e-06	-8.539210e-10	-1.431430e+01	-6.095936e+01
1.400000e-06	-2.020703e-06	-8.470416e-10	-1.400987e+01	-6.046995e+01
1.410000e-06	-1.976743e-06	-8.409509e-10	-1.370509e+01	-5.997411e+01
1.420000e-06	-1.932705e-06	-8.359096e-10	-1.339976e+01	-5.947164e+01
1.430000e-06	-1.888534e-06	-8.289464e-10	-1.309352e+01	-5.896235e+01
1.440000e-06	-1.844299e-06	-8.193393e-10	-1.278683e+01	-5.844599e+01
1.450000e-06	-1.799914e-06	-8.078195e-10	-1.247910e+01	-5.792231e+01
1.460000e-06	-1.755327e-06	-7.942568e-10	-1.216997e+01	-5.739099e+01
1.470000e-06	-1.710696e-06	-7.801329e-10	-1.186054e+01	-5.685170e+01
1.480000e-06	-1.665960e-06	-7.719577e-10	-1.155038e+01	-5.630407e+01
1.490000e-06	-1.621104e-06	-7.669982e-10	-1.123938e+01	-5.574768e+01
1.500000e-06	-1.576166e-06	-7.598770e-10	-1.092782e+01	-5.518206e+01
1.510000e-06	-1.531070e-06	-7.533783e-10	-1.061516e+01	-5.460672e+01
1.520000e-06	-1.485846e-06	-7.470431e-10	-1.030162e+01	-5.402110e+01
1.530000e-06	-1.440462e-06	-7.398946e-10	-9.986959e+00	-5.342460e+01
1.540000e-06	-1.394940e-06	-7.300675e-10	-9.671350e+00	-5.281659e+01
1.550000e-06	-1.349387e-06	-7.202734e-10	-9.355524e+00	-5.219638e+01
1.560000e-06	-1.303780e-06	-7.074119e-10	-9.039326e+00	-5.156322e+01
1.570000e-06	-1.258102e-06	-6.943744e-10	-8.722632e+00	-5.091633e+01
1.580000e-06	-1.212324e-06	-6.828597e-10	-8.405247e+00	-5.025491e+01
1.590000e-06	-1.166468e-06	-6.738448e-10	-8.087318e+00	-4.957808e+01
1.600000e-06	-1.120583e-06	-6.651838e-10	-7.769186e+00	-4.888494e+01
1.610000e-06	-1.074596e-06	-6.558480e-10	-7.450356e+00	-4.817457e+01
1.620000e-06	-1.028473e-06	-6.453455e-10	-7.130576e+00	-4.744600e+01
1.630000e-06	-9.822566e-07	-6.345575e-10	-6.810148e+00	-4.669824e+01
1.640000e-06	-9.359934e-07	-6.233048e-10	-6.489398e+00	-4.593029e+01
1.650000e-06	-8.896791e-07	-6.110265e-10	-6.168293e+00	-4.514113e+01
1.660000e-06	-8.432621e-07	-5.977616e-10	-5.846476e+00	-4.432973e+01
1.670000e-06	-7.967522e-07	-5.838008e-10	-5.524015e+00	-4.349507e+01
1.680000e-06	-7.502146e-07	-5.698161e-10	-5.201362e+00	-4.263612e+01
1.690000e-06	-7.037155e-07	-5.568171e-10	-4.878977e+00	-4.175188e+01
1.700000e-06	-6.571536e-07	-5.433235e-10	-4.556155e+00	-4.084137e+01
1.710000e-06	-6.104442e-07	-5.302582e-10	-4.232311e+00	-3.990361e+01
1.720000e-06	-5.636643e-07	-5.176340e-10	-3.907978e+00	-3.893770e+01
1.730000e-06	-5.168257e-07	-5.034323e-10	-3.583239e+00	-3.794277e+01
1.740000e-06	-4.700433e-07	-4.872674e-10	-3.258888e+00	-3.691797e+01
1.750000e-06	-4.233286e-07	-4.686380e-10	-2.935007e+00	-3.586257e+01
1.760000e-06	-3.764894e-07	-4.493193e-10	-2.610263e+00	-3.477587e+01
1.770000e-06	-3.295730e-07	-4.306514e-10	-2.284984e+00	-3.365724e+01
1.780000e-06	-2.826156e-07	-4.147053e-10	-1.959421e+00	-3.250618e+01
1.790000e-06	-2.356073e-07	-4.005908e-10	-1.633504e+00	-3.132223e+01
1.800000e-06	-1.886905e-07	-3.851680e-10	-1.308222e+00	-3.010506e+01
1.810000e-06	-1.418090e-07	-3.682960e-10	-9.831850e-01	-2.885443e+01
1.820000e-06	-9.486728e-08	-3.524623e-10	-6.577306e-01	-2.757022e+01
1.830000e-06	-4.792696e-08	-3.357355e-10	-3.322856e-01	-2.625243e+01
1.840000e-06	-1.000706e-09	-3.168410e-10	-6.938058e-03	-2.490116e+01
1.850000e-06	4.587486e-08	-2.963873e-10	3.180580e-01	-2.351665e+01
1.860000e-06	9.269607e-08	-2.726586e-10	6.426773e-01	-2.209926e+01
1.870000e-06	1.396443e-07	-2.474196e-10	9.681771e-01	-2.064948e+01
1.880000e-06	1.866687e-07	-2.258258e-10	1.294205e+00	-1.916794e+01
1.890000e-06	2.336235e-07	-2.076965e-10	1.619751e+00	-1.765539e+01
1.900000e-06	2.806097e-07	-1.884555e-10	1.945513e+00	-1.611271e+01
1.910000e-06	3.276059e-07	-1.685861e-10	2.271346e+00	-1.454092e+01
1.920000e-06	3.744996e-07	-1.491934e-10	2.596468e+00	-1.294115e+01
1.930000e-06	4.212956e-07	-1.259602e-10	2.920912e+00	-1.131466e+01
1.940000e-06	4.680351e-07	-9.936168e-11	3.244965e+00	-9.662851e+00
1.950000e-06	5.147640e-07	-7.335263e-11	3.568945e+00	-7.987211e+00
1.960000e-06	5.615210e-07	-5.112581e-11	3.893118e+00	-6.289353e+00
1.970000e-06	6.082165e-07	-2.922346e-11	4.216866e+00	-4.570988e+00
1.980000e-06	6.547955e-07	-8.562597e-12	4.539806e+00	-2.833928e+00
1.990000e-06	7.012897e-07	1.368265e-11	4.862158e+00	-1.080070e+00
2.000000e-06	7.477331e-07	4.059640e-11	5.184158e+00	6.886073e-01
2.010000e-06	7.942128e-07	6.918051e-11	5.506409e+00	2.470054e+00
2.020000e-06	8.406828e-07	9.738076e-11	5.828594e+00	4.262160e+00
2.030000e-06	8.870294e-07	1.241903e-10	6.149922e+00	6.062761e+00
2.040000e-06	9.332713e-07	1.469191e-10	6.470525e+00	7.869654e+00
2.050000e-06	9.794503e-07	1.704339e-10	6.790691e+00	9.680605e+00
2.060000e-06	1.025594e-06	1.974933e-10	7.110611e+00	1.149336e+01
2.070000e-06	1.071685e-06	2.235817e-10	7.430173e+00	1.330565e+01
2.080000e-06	1.117673e-06	2.506891e-10	7.749011e+00	1.511523e+01
2.090000e-06	1.163552e-06	2.791042e-10	8.067097e+00	1.691984e+01
2.100000e-06	1.209391e-06	3.053770e-10	8.384906e+00	1.871726e+01
2.110000e-06	1.255181e-06	3.283038e-10	8.702379e+00	2.050530e+01
2.120000e-06	1.300808e-06	3.504488e-10	9.018714e+00	2.228182e+01
2.130000e-06	1.346324e-06	3.715115e-10	9.334285e+00	2.404474e+01
2.140000e-06	1.391750e-06	3.922090e-10	9.649233e+00	2.579203e+01
2.150000e-06	1.437088e-06	4.154067e-10	9.963569e+00	2.752175e+01
2.160000e-06	1.482350e-06	4.417111e-10	1.027738e+01	2.923202e+01
2.170000e-06	1.527496e-06	4.677217e-10	1.059038e+01	3.092108e+01
2.180000e-06	1.572566e-06	4.920600e-10	1.090286e+01	3.258725e+01
2.190000e-06	1.617470e-06	5.147626e-10	1.121419e+01	3.422895e+01
2.200000e-06	1.662227e-06	5.359014e-10	1.152450e+01	3.584472e+01
2.210000e-06	1.706937e-06	5.535255e-10	1.183448e+01	3.743321e+01
2.220000e-06	1.751523e-06	5.696363e-10	1.214360e+01	3.899320e+01
2.230000e-06	1.795912e-06	5.869634e-10	1.245135e+01	4.052356e+01
2.240000e-06	1.840188e-06	6.061673e-10	1.275833e+01	4.202331e+01
2.250000e-06	1.884409e-06	6.264410e-10	1.306492e+01	4.349161e+01
2.260000e-06	1.928524e-06	6.489739e-10	1.337077e+01	4.492770e+01
2.270000e-06	1.972563e-06	6.721408e-10	1.367610e+01	4.633098e+01
2.280000e-06	2.016523e-06	6.932022e-10	1.398089e+01	4.770096e+01
2.290000e-06	2.060371e-06	7.111125e-10	1.428490e+01	4.903729e+01
2.300000e-06	2.104178e-06	7.256556e-10	1.458861e+01	5.033972e+01
2.310000e-06	2.147927e-06	7.381371e-10	1.489194e+01	5.160812e+01
2.320000e-06	2.191564e-06	7.516581e-10	1.519448e+01	5.284248e+01
2.330000e-06	2.235136e-06	7.672599e-10	1.549657e+01	5.404289e+01
2.340000e-06	2.278551e-06	7.842086e-10	1.579758e+01	5.520955e+01
2.350000e-06	2.321710e-06	8.019348e-10	1.609680e+01	5.634274e+01
2.360000e-06	2.364704e-06	8.183281e-10	1.639488e+01	5.744286e+01
2.370000e-06	2.407471e-06	8.324162e-10	1.669140e+01	5.851035e+01
2.380000e-06	2.449938e-06	8.461000e-10	1.698583e+01	5.954576e+01
2.390000e-06	2.492143e-06	8.594643e-10	1.727844e+01	6.054970e+01
2.400000e-06	2.534062e-06	8.722355e-10	1.756907e+01	6.152284e+01
2.410000e-06	2.575608e-06	8.850338e-10	1.785712e+01	6.246590e+01
2.420000e-06	2.616761e-06	8.973283e-10	1.814244e+01	6.337966e+01
2.430000e-06	2.657665e-06	9.097265e-10	1.842604e+01	6.426492e+01
2.440000e-06	2.698325e-06	9.219630e-10	1.870794e+01	6.512252e+01
2.450000e-06	2.738774e-06	9.339065e-10	1.898837e+01	6.595333e+01
2.460000e-06	2.779087e-06	9.457057e-10	1.926787e+01	6.675822e+01
2.470000e-06	2.819206e-06	9.576094e-10	1.954602e+01	6.753810e+01
2.480000e-06	2.859148e-06	9.697411e-10	1.982295e+01	6.829385e+01
2.490000e-06	2.898965e-06	9.837426e-10	2.009901e+01	6.902636e+01
2.500000e-06	2.938644e-06	9.969855e-10	2.037411e+01	6.973653e+01
2.510000e-06	2.978151e-06	1.007217e-09	2.064802e+01	7.042521e+01
2.520000e-06	3.017533e-06	1.015480e-09	2.092105e+01	7.109327e+01
2.530000e-06	3.056760e-06	1.023010e-09	2.119302e+01	7.174154e+01
2.540000e-06	3.095710e-06	1.029074e-09	2.146307e+01	7.237081e+01
2.550000e-06	3.134418e-06	1.034594e-09	2.173144e+01	7.298186e+01
2.560000e-06	3.172910e-06	1.041660e-09	2.199831e+01	7.357544e+01
2.570000e-06	3.211144e-06	1.049882e-09	2.226340e+01	7.415224e+01
2.580000e-06	3.249158e-06	1.058796e-09	2.252696e+01	7.471295e+01
2.590000e-06	3.287002e-06	1.067572e-09	2.278933e+01	7.525820e+01
2.600000e-06	3.324641e-06	1.075296e-09	2.305029e+01	7.578858e+01
2.610000e-06	3.361971e-06	1.082739e-09	2.330910e+01	7.630465e+01
2.620000e-06	3.399081e-06	1.087033e-09	2.356640e+01	7.680694e+01
2.630000e-06	3.436043e-06	1.091367e-09	2.382266e+01	7.729592e+01
2.640000e-06	3.472705e-06	1.095747e-09	2.407684e+01	7.777206e+01
2.650000e-06	3.509124e-06	1.101005e-09	2.432934e+01	7.823575e+01
2.660000e-06	3.545382e-06	1.108396e-09	2.458072e+01	7.868739e+01
2.670000e-06	3.581439e-06	1.116268e-09	2.483071e+01	7.912733e+01
2.680000e-06	3.617349e-06	1.125169e-09	2.507968e+01	7.955589e+01
2.690000e-06	3.653106e-06	1.133585e-09	2.532759e+01	7.997336e+01
2.700000e-06	3.688675e-06	1.140666e-09	2.557420e+01	8.038003e+01
2.710000e-06	3.724042e-06	1.144351e-09	2.581940e+01	8.077615e+01
2.720000e-06	3.759166e-06	1.148732e-09	2.606292e+01	8.116195e+01
2.730000e-06	3.793931e-06	1.153343e-09	2.630395e+01	8.153765e+01
2.740000e-06	3.828195e-06	1.158135e-09	2.654151e+01	8.190347e+01
2.750000e-06	3.861914e-06	1.164211e-09	2.677529e+01	8.225960e+01
2.760000e-06	3.895182e-06	1.171813e-09	2.700594e+01	8.260623e+01
2.770000e-06	3.928034e-06	1.179066e-09	2.723371e+01	8.294356e+01
2.780000e-06	3.960543e-06	1.186272e-09	2.745910e+01	8.327177e+01
2.790000e-06	3.992840e-06	1.194155e-09	2.768302e+01	8.359103e+01
2.800000e-06	4.024911e-06	1.198285e-09	2.790538e+01	8.390154e+01
2.810000e-06	4.056766e-06	1.199537e-09	2.812623e+01	8.420348e+01
2.820000e-06	4.088468e-06	1.204255e-09	2.834603e+01	8.449704e+01
2.830000e-06	4.120005e-06	1.209129e-09	2.856468e+01	8.478241e+01
2.840000e-06	4.151293e-06	1.212386e-09	2.878161e+01	8.505980e+01
2.850000e-06	4.182224e-06	1.216560e-09	2.899606e+01	8.532941e+01
2.860000e-06	4.212731e-06	1.223724e-09	2.920757e+01	8.559145e+01
2.870000e-06	4.242910e-06	1.230321e-09	2.941680e+01	8.584613e+01
2.880000e-06	4.272901e-06	1.235658e-09	2.962473e+01	8.609368e+01
2.890000e-06	4.302715e-06	1.242901e-09	2.983144e+01	8.633433e+01
2.900000e-06	4.332295e-06	1.248484e-09	3.003652e+01	8.656830e+01
