# Temperatura_=_14.8
# Concentracion g/m^3_=_1620.0
# C_Vs_to_Am_M_A/Vsm_=_65563218390.804596
# pendiente_HvsI_1/m_=_3716.3
# ordenada_HvsI_A/m_=_1297.0
# frecuencia_Hz_=_135099.9874175433

Tiempo_(s)	Campo_(V.s)	Magnetizacion_(V.s)	Campo_(kA/m)	Magnetizacion_(A/m)
0.000000e+00	-5.531098e-06	-1.504012e-09	-3.838151e+01	-1.008677e+02
1.000000e-08	-5.531325e-06	-1.503329e-09	-3.838308e+01	-1.008601e+02
2.000000e-08	-5.531326e-06	-1.500549e-09	-3.838309e+01	-1.008517e+02
3.000000e-08	-5.531002e-06	-1.499732e-09	-3.838084e+01	-1.008423e+02
4.000000e-08	-5.530202e-06	-1.499482e-09	-3.837529e+01	-1.008315e+02
5.000000e-08	-5.528770e-06	-1.495164e-09	-3.836535e+01	-1.008192e+02
6.000000e-08	-5.526724e-06	-1.489439e-09	-3.835116e+01	-1.008049e+02
7.000000e-08	-5.524157e-06	-1.490878e-09	-3.833334e+01	-1.007884e+02
8.000000e-08	-5.521026e-06	-1.499176e-09	-3.831162e+01	-1.007693e+02
9.000000e-08	-5.517445e-06	-1.493341e-09	-3.828676e+01	-1.007473e+02
1.000000e-07	-5.513481e-06	-1.491990e-09	-3.825926e+01	-1.007219e+02
1.100000e-07	-5.509158e-06	-1.516186e-09	-3.822926e+01	-1.006929e+02
1.200000e-07	-5.504628e-06	-1.501292e-09	-3.819783e+01	-1.006598e+02
1.300000e-07	-5.499926e-06	-1.452524e-09	-3.816520e+01	-1.006224e+02
1.400000e-07	-5.494888e-06	-1.447114e-09	-3.813024e+01	-1.005803e+02
1.500000e-07	-5.489340e-06	-1.498625e-09	-3.809174e+01	-1.005331e+02
1.600000e-07	-5.483416e-06	-1.523596e-09	-3.805063e+01	-1.004805e+02
1.700000e-07	-5.477164e-06	-1.465374e-09	-3.800725e+01	-1.004223e+02
1.800000e-07	-5.470491e-06	-1.458150e-09	-3.796095e+01	-1.003582e+02
1.900000e-07	-5.463389e-06	-1.513233e-09	-3.791166e+01	-1.002878e+02
2.000000e-07	-5.455886e-06	-1.540768e-09	-3.785960e+01	-1.002111e+02
2.100000e-07	-5.448115e-06	-1.494669e-09	-3.780567e+01	-1.001279e+02
2.200000e-07	-5.440208e-06	-1.478133e-09	-3.775080e+01	-1.000379e+02
2.300000e-07	-5.432081e-06	-1.509991e-09	-3.769441e+01	-9.994100e+01
2.400000e-07	-5.423566e-06	-1.525994e-09	-3.763532e+01	-9.983722e+01
2.500000e-07	-5.414444e-06	-1.504256e-09	-3.757202e+01	-9.972645e+01
2.600000e-07	-5.404509e-06	-1.493934e-09	-3.750308e+01	-9.960869e+01
2.700000e-07	-5.393852e-06	-1.500165e-09	-3.742913e+01	-9.948395e+01
2.800000e-07	-5.382698e-06	-1.493292e-09	-3.735173e+01	-9.935231e+01
2.900000e-07	-5.371175e-06	-1.480624e-09	-3.727177e+01	-9.921385e+01
3.000000e-07	-5.359316e-06	-1.473812e-09	-3.718947e+01	-9.906870e+01
3.100000e-07	-5.347076e-06	-1.482735e-09	-3.710454e+01	-9.891702e+01
3.200000e-07	-5.334428e-06	-1.492331e-09	-3.701677e+01	-9.875900e+01
3.300000e-07	-5.321409e-06	-1.495433e-09	-3.692643e+01	-9.859487e+01
3.400000e-07	-5.307947e-06	-1.477565e-09	-3.683302e+01	-9.842487e+01
3.500000e-07	-5.294049e-06	-1.481490e-09	-3.673657e+01	-9.824926e+01
3.600000e-07	-5.279758e-06	-1.489125e-09	-3.663740e+01	-9.806833e+01
3.700000e-07	-5.265033e-06	-1.471755e-09	-3.653522e+01	-9.788240e+01
3.800000e-07	-5.249836e-06	-1.452445e-09	-3.642977e+01	-9.769178e+01
3.900000e-07	-5.234088e-06	-1.471942e-09	-3.632049e+01	-9.749681e+01
4.000000e-07	-5.217807e-06	-1.464157e-09	-3.620751e+01	-9.729781e+01
4.100000e-07	-5.201102e-06	-1.436139e-09	-3.609160e+01	-9.709513e+01
4.200000e-07	-5.184078e-06	-1.452616e-09	-3.597346e+01	-9.688912e+01
4.300000e-07	-5.166770e-06	-1.474730e-09	-3.585336e+01	-9.668011e+01
4.400000e-07	-5.149180e-06	-1.432220e-09	-3.573129e+01	-9.646843e+01
4.500000e-07	-5.131222e-06	-1.421658e-09	-3.560668e+01	-9.625441e+01
4.600000e-07	-5.112772e-06	-1.462187e-09	-3.547865e+01	-9.603835e+01
4.700000e-07	-5.093892e-06	-1.442121e-09	-3.534764e+01	-9.582055e+01
4.800000e-07	-5.074692e-06	-1.395312e-09	-3.521441e+01	-9.560128e+01
4.900000e-07	-5.055236e-06	-1.430860e-09	-3.507940e+01	-9.538079e+01
5.000000e-07	-5.035563e-06	-1.450678e-09	-3.494288e+01	-9.515932e+01
5.100000e-07	-5.015681e-06	-1.404013e-09	-3.480492e+01	-9.493706e+01
5.200000e-07	-4.995502e-06	-1.405809e-09	-3.466489e+01	-9.471420e+01
5.300000e-07	-4.974971e-06	-1.437830e-09	-3.452242e+01	-9.449089e+01
5.400000e-07	-4.954088e-06	-1.399960e-09	-3.437751e+01	-9.426724e+01
5.500000e-07	-4.932822e-06	-1.376207e-09	-3.422994e+01	-9.404334e+01
5.600000e-07	-4.911197e-06	-1.415200e-09	-3.407988e+01	-9.381926e+01
5.700000e-07	-4.889235e-06	-1.404854e-09	-3.392748e+01	-9.359502e+01
5.800000e-07	-4.866879e-06	-1.366513e-09	-3.377234e+01	-9.337063e+01
5.900000e-07	-4.844220e-06	-1.389587e-09	-3.361511e+01	-9.314606e+01
6.000000e-07	-4.821250e-06	-1.404752e-09	-3.345571e+01	-9.292124e+01
6.100000e-07	-4.797941e-06	-1.366028e-09	-3.329397e+01	-9.269610e+01
6.200000e-07	-4.774348e-06	-1.365883e-09	-3.313026e+01	-9.247052e+01
6.300000e-07	-4.750511e-06	-1.389675e-09	-3.296484e+01	-9.224438e+01
6.400000e-07	-4.726523e-06	-1.373335e-09	-3.279838e+01	-9.201751e+01
6.500000e-07	-4.702264e-06	-1.359424e-09	-3.263004e+01	-9.178975e+01
6.600000e-07	-4.677566e-06	-1.377439e-09	-3.245866e+01	-9.156089e+01
6.700000e-07	-4.652358e-06	-1.371762e-09	-3.228374e+01	-9.133073e+01
6.800000e-07	-4.626593e-06	-1.356440e-09	-3.210495e+01	-9.109906e+01
6.900000e-07	-4.600200e-06	-1.363247e-09	-3.192180e+01	-9.086564e+01
7.000000e-07	-4.573285e-06	-1.364285e-09	-3.173503e+01	-9.063023e+01
7.100000e-07	-4.546034e-06	-1.343252e-09	-3.154593e+01	-9.039259e+01
7.200000e-07	-4.518534e-06	-1.338295e-09	-3.135510e+01	-9.015248e+01
7.300000e-07	-4.490865e-06	-1.341091e-09	-3.116310e+01	-8.990966e+01
7.400000e-07	-4.463032e-06	-1.330400e-09	-3.096996e+01	-8.966388e+01
7.500000e-07	-4.435032e-06	-1.322959e-09	-3.077566e+01	-8.941490e+01
7.600000e-07	-4.406793e-06	-1.328874e-09	-3.057971e+01	-8.916250e+01
7.700000e-07	-4.378224e-06	-1.325070e-09	-3.038146e+01	-8.890646e+01
7.800000e-07	-4.349324e-06	-1.317170e-09	-3.018092e+01	-8.864657e+01
7.900000e-07	-4.320157e-06	-1.316052e-09	-2.997852e+01	-8.838263e+01
8.000000e-07	-4.290654e-06	-1.312402e-09	-2.977379e+01	-8.811447e+01
8.100000e-07	-4.260808e-06	-1.302707e-09	-2.956668e+01	-8.784191e+01
8.200000e-07	-4.230691e-06	-1.299865e-09	-2.935770e+01	-8.756481e+01
8.300000e-07	-4.200156e-06	-1.299797e-09	-2.914581e+01	-8.728302e+01
8.400000e-07	-4.169289e-06	-1.294091e-09	-2.893161e+01	-8.699645e+01
8.500000e-07	-4.138186e-06	-1.291422e-09	-2.871579e+01	-8.670498e+01
8.600000e-07	-4.106842e-06	-1.289669e-09	-2.849828e+01	-8.640854e+01
8.700000e-07	-4.075353e-06	-1.279677e-09	-2.827978e+01	-8.610706e+01
8.800000e-07	-4.043661e-06	-1.268366e-09	-2.805985e+01	-8.580051e+01
8.900000e-07	-4.011731e-06	-1.265257e-09	-2.783828e+01	-8.548884e+01
9.000000e-07	-3.979606e-06	-1.258253e-09	-2.761536e+01	-8.517205e+01
9.100000e-07	-3.947301e-06	-1.249813e-09	-2.739119e+01	-8.485014e+01
9.200000e-07	-3.914738e-06	-1.246166e-09	-2.716523e+01	-8.452313e+01
9.300000e-07	-3.881785e-06	-1.241899e-09	-2.693656e+01	-8.419104e+01
9.400000e-07	-3.848351e-06	-1.233528e-09	-2.670456e+01	-8.385390e+01
9.500000e-07	-3.814392e-06	-1.230306e-09	-2.646891e+01	-8.351178e+01
9.600000e-07	-3.779985e-06	-1.225436e-09	-2.623015e+01	-8.316473e+01
9.700000e-07	-3.745203e-06	-1.212138e-09	-2.598879e+01	-8.281281e+01
9.800000e-07	-3.710065e-06	-1.199691e-09	-2.574496e+01	-8.245609e+01
9.900000e-07	-3.674620e-06	-1.194944e-09	-2.549900e+01	-8.209464e+01
1.000000e-06	-3.639010e-06	-1.187009e-09	-2.525189e+01	-8.172856e+01
1.010000e-06	-3.603266e-06	-1.179601e-09	-2.500386e+01	-8.135790e+01
1.020000e-06	-3.567355e-06	-1.180553e-09	-2.475466e+01	-8.098275e+01
1.030000e-06	-3.531320e-06	-1.180599e-09	-2.450461e+01	-8.060319e+01
1.040000e-06	-3.495065e-06	-1.172685e-09	-2.425303e+01	-8.021930e+01
1.050000e-06	-3.458503e-06	-1.164967e-09	-2.399932e+01	-7.983114e+01
1.060000e-06	-3.421644e-06	-1.156550e-09	-2.374354e+01	-7.943878e+01
1.070000e-06	-3.384605e-06	-1.148043e-09	-2.348652e+01	-7.904228e+01
1.080000e-06	-3.347344e-06	-1.142731e-09	-2.322796e+01	-7.864171e+01
1.090000e-06	-3.309820e-06	-1.142692e-09	-2.296757e+01	-7.823711e+01
1.100000e-06	-3.272090e-06	-1.137345e-09	-2.270575e+01	-7.782852e+01
1.110000e-06	-3.234058e-06	-1.128008e-09	-2.244184e+01	-7.741599e+01
1.120000e-06	-3.195800e-06	-1.120980e-09	-2.217636e+01	-7.699955e+01
1.130000e-06	-3.157371e-06	-1.113549e-09	-2.190969e+01	-7.657923e+01
1.140000e-06	-3.118725e-06	-1.105134e-09	-2.164152e+01	-7.615503e+01
1.150000e-06	-3.079806e-06	-1.098535e-09	-2.137145e+01	-7.572698e+01
1.160000e-06	-3.040642e-06	-1.094123e-09	-2.109969e+01	-7.529507e+01
1.170000e-06	-3.001341e-06	-1.084686e-09	-2.082697e+01	-7.485932e+01
1.180000e-06	-2.961906e-06	-1.077034e-09	-2.055332e+01	-7.441971e+01
1.190000e-06	-2.922290e-06	-1.074339e-09	-2.027841e+01	-7.397624e+01
1.200000e-06	-2.882523e-06	-1.068413e-09	-2.000247e+01	-7.352888e+01
1.210000e-06	-2.842671e-06	-1.057774e-09	-1.972592e+01	-7.307762e+01
1.220000e-06	-2.802725e-06	-1.052081e-09	-1.944872e+01	-7.262243e+01
1.230000e-06	-2.762633e-06	-1.047980e-09	-1.917052e+01	-7.216328e+01
1.240000e-06	-2.722341e-06	-1.040602e-09	-1.889092e+01	-7.170014e+01
1.250000e-06	-2.681812e-06	-1.033665e-09	-1.860969e+01	-7.123296e+01
1.260000e-06	-2.640993e-06	-1.029140e-09	-1.832643e+01	-7.076171e+01
1.270000e-06	-2.599928e-06	-1.021845e-09	-1.804148e+01	-7.028634e+01
1.280000e-06	-2.558551e-06	-1.011431e-09	-1.775435e+01	-6.980678e+01
1.290000e-06	-2.516968e-06	-1.002239e-09	-1.746580e+01	-6.932299e+01
1.300000e-06	-2.475178e-06	-9.933163e-10	-1.717581e+01	-6.883488e+01
1.310000e-06	-2.432932e-06	-9.830906e-10	-1.688265e+01	-6.834238e+01
1.320000e-06	-2.390374e-06	-9.764024e-10	-1.658733e+01	-6.784540e+01
1.330000e-06	-2.347551e-06	-9.697646e-10	-1.629017e+01	-6.734385e+01
1.340000e-06	-2.304481e-06	-9.622006e-10	-1.599130e+01	-6.683760e+01
1.350000e-06	-2.261196e-06	-9.575592e-10	-1.569094e+01	-6.632655e+01
1.360000e-06	-2.217764e-06	-9.507489e-10	-1.538955e+01	-6.581053e+01
1.370000e-06	-2.174250e-06	-9.383760e-10	-1.508760e+01	-6.528939e+01
1.380000e-06	-2.130635e-06	-9.263906e-10	-1.478495e+01	-6.476295e+01
1.390000e-06	-2.086978e-06	-9.175738e-10	-1.448200e+01	-6.423099e+01
1.400000e-06	-2.043245e-06	-9.088868e-10	-1.417852e+01	-6.369330e+01
1.410000e-06	-1.999442e-06	-8.994170e-10	-1.387457e+01	-6.314960e+01
1.420000e-06	-1.955571e-06	-8.907186e-10	-1.357014e+01	-6.259961e+01
1.430000e-06	-1.911573e-06	-8.804301e-10	-1.326482e+01	-6.204301e+01
1.440000e-06	-1.867484e-06	-8.679886e-10	-1.295889e+01	-6.147945e+01
1.450000e-06	-1.823282e-06	-8.571520e-10	-1.265216e+01	-6.090852e+01
1.460000e-06	-1.778842e-06	-8.479275e-10	-1.234378e+01	-6.032980e+01
1.470000e-06	-1.734271e-06	-8.368055e-10	-1.203449e+01	-5.974282e+01
1.480000e-06	-1.689609e-06	-8.246127e-10	-1.172457e+01	-5.914707e+01
1.490000e-06	-1.644781e-06	-8.138186e-10	-1.141350e+01	-5.854198e+01
1.500000e-06	-1.599800e-06	-8.035219e-10	-1.110136e+01	-5.792698e+01
1.510000e-06	-1.554669e-06	-7.947281e-10	-1.078819e+01	-5.730140e+01
1.520000e-06	-1.509449e-06	-7.873527e-10	-1.047440e+01	-5.666456e+01
1.530000e-06	-1.464157e-06	-7.811733e-10	-1.016011e+01	-5.601574e+01
1.540000e-06	-1.418757e-06	-7.714592e-10	-9.845068e+00	-5.535416e+01
1.550000e-06	-1.373311e-06	-7.590234e-10	-9.529705e+00	-5.467900e+01
1.560000e-06	-1.327747e-06	-7.445787e-10	-9.213528e+00	-5.398941e+01
1.570000e-06	-1.282063e-06	-7.285115e-10	-8.896515e+00	-5.328450e+01
1.580000e-06	-1.236355e-06	-7.152779e-10	-8.579340e+00	-5.256332e+01
1.590000e-06	-1.190584e-06	-7.058811e-10	-8.261726e+00	-5.182493e+01
1.600000e-06	-1.144717e-06	-6.989071e-10	-7.943447e+00	-5.106833e+01
1.610000e-06	-1.098726e-06	-6.885557e-10	-7.624300e+00	-5.029250e+01
1.620000e-06	-1.052637e-06	-6.741177e-10	-7.304479e+00	-4.949642e+01
1.630000e-06	-1.006428e-06	-6.612082e-10	-6.983829e+00	-4.867903e+01
1.640000e-06	-9.601481e-07	-6.483523e-10	-6.662679e+00	-4.783927e+01
1.650000e-06	-9.138474e-07	-6.355861e-10	-6.341389e+00	-4.697609e+01
1.660000e-06	-8.674132e-07	-6.235184e-10	-6.019171e+00	-4.608842e+01
1.670000e-06	-8.209889e-07	-6.099604e-10	-5.697023e+00	-4.517523e+01
1.680000e-06	-7.746526e-07	-5.946767e-10	-5.375485e+00	-4.423549e+01
1.690000e-06	-7.282249e-07	-5.770488e-10	-5.053313e+00	-4.326819e+01
1.700000e-06	-6.817459e-07	-5.584433e-10	-4.730785e+00	-4.227237e+01
1.710000e-06	-6.351692e-07	-5.413783e-10	-4.407579e+00	-4.124710e+01
1.720000e-06	-5.884474e-07	-5.266835e-10	-4.083366e+00	-4.019150e+01
1.730000e-06	-5.417455e-07	-5.120982e-10	-3.759291e+00	-3.910475e+01
1.740000e-06	-4.950475e-07	-4.959331e-10	-3.435244e+00	-3.798609e+01
1.750000e-06	-4.482826e-07	-4.759911e-10	-3.110732e+00	-3.683484e+01
1.760000e-06	-4.013977e-07	-4.541830e-10	-2.785387e+00	-3.565040e+01
1.770000e-06	-3.545301e-07	-4.330680e-10	-2.460163e+00	-3.443225e+01
1.780000e-06	-3.077781e-07	-4.145151e-10	-2.135740e+00	-3.317996e+01
1.790000e-06	-2.609634e-07	-3.982777e-10	-1.810882e+00	-3.189323e+01
1.800000e-06	-2.140890e-07	-3.824088e-10	-1.485611e+00	-3.057182e+01
1.810000e-06	-1.672150e-07	-3.647739e-10	-1.160342e+00	-2.921566e+01
1.820000e-06	-1.202315e-07	-3.440452e-10	-8.343128e-01	-2.782474e+01
1.830000e-06	-7.326085e-08	-3.224445e-10	-5.083732e-01	-2.639922e+01
1.840000e-06	-2.640170e-08	-3.024399e-10	-1.832072e-01	-2.493936e+01
1.850000e-06	2.051310e-08	-2.821536e-10	1.423449e-01	-2.344556e+01
1.860000e-06	6.749825e-08	-2.613188e-10	4.683853e-01	-2.191835e+01
1.870000e-06	1.145091e-07	-2.397398e-10	7.946040e-01	-2.035839e+01
1.880000e-06	1.614368e-07	-2.181520e-10	1.120246e+00	-1.876648e+01
1.890000e-06	2.082979e-07	-1.974617e-10	1.445425e+00	-1.714354e+01
1.900000e-06	2.552100e-07	-1.762982e-10	1.770959e+00	-1.549063e+01
1.910000e-06	3.020902e-07	-1.527352e-10	2.096270e+00	-1.380896e+01
1.920000e-06	3.490008e-07	-1.281503e-10	2.421794e+00	-1.209982e+01
1.930000e-06	3.959072e-07	-1.055386e-10	2.747287e+00	-1.036468e+01
1.940000e-06	4.427471e-07	-8.277989e-11	3.072320e+00	-8.605077e+00
1.950000e-06	4.896170e-07	-5.871454e-11	3.397561e+00	-6.822696e+00
1.960000e-06	5.364092e-07	-3.399673e-11	3.722262e+00	-5.019311e+00
1.970000e-06	5.830695e-07	-1.116657e-11	4.046048e+00	-3.196800e+00
1.980000e-06	6.296652e-07	1.236838e-11	4.369386e+00	-1.357133e+00
1.990000e-06	6.762351e-07	3.805328e-11	4.692545e+00	4.976410e-01
2.000000e-06	7.227296e-07	6.538619e-11	5.015180e+00	2.365397e+00
2.010000e-06	7.690728e-07	9.516022e-11	5.336765e+00	4.243947e+00
2.020000e-06	8.153220e-07	1.249359e-10	5.657699e+00	6.131051e+00
2.030000e-06	8.615475e-07	1.523502e-10	5.978468e+00	8.024427e+00
2.040000e-06	9.077351e-07	1.790953e-10	6.298974e+00	9.921760e+00
2.050000e-06	9.539276e-07	2.058117e-10	6.619514e+00	1.182072e+01
2.060000e-06	1.000125e-06	2.326556e-10	6.940088e+00	1.371896e+01
2.070000e-06	1.046208e-06	2.581529e-10	7.259870e+00	1.561414e+01
2.080000e-06	1.092121e-06	2.841689e-10	7.578471e+00	1.750394e+01
2.090000e-06	1.137976e-06	3.125876e-10	7.896668e+00	1.938606e+01
2.100000e-06	1.183778e-06	3.413320e-10	8.214494e+00	2.125824e+01
2.110000e-06	1.229513e-06	3.685897e-10	8.531862e+00	2.311826e+01
2.120000e-06	1.275179e-06	3.937992e-10	8.848751e+00	2.496398e+01
2.130000e-06	1.320709e-06	4.175206e-10	9.164688e+00	2.679331e+01
2.140000e-06	1.366178e-06	4.384319e-10	9.480210e+00	2.860423e+01
2.150000e-06	1.411597e-06	4.594196e-10	9.795382e+00	3.039484e+01
2.160000e-06	1.456932e-06	4.840760e-10	1.010997e+01	3.216330e+01
2.170000e-06	1.502201e-06	5.116924e-10	1.042410e+01	3.390791e+01
2.180000e-06	1.547362e-06	5.384383e-10	1.073748e+01	3.562704e+01
2.190000e-06	1.592436e-06	5.631001e-10	1.105026e+01	3.731922e+01
2.200000e-06	1.637359e-06	5.867943e-10	1.136200e+01	3.898306e+01
2.210000e-06	1.682029e-06	6.081811e-10	1.167197e+01	4.061733e+01
2.220000e-06	1.726540e-06	6.267554e-10	1.198084e+01	4.222090e+01
2.230000e-06	1.770986e-06	6.458548e-10	1.228926e+01	4.379280e+01
2.240000e-06	1.815278e-06	6.652703e-10	1.259661e+01	4.533218e+01
2.250000e-06	1.859402e-06	6.846316e-10	1.290280e+01	4.683832e+01
2.260000e-06	1.903420e-06	7.047643e-10	1.320825e+01	4.831064e+01
2.270000e-06	1.947327e-06	7.261206e-10	1.351293e+01	4.974868e+01
2.280000e-06	1.991196e-06	7.473423e-10	1.381735e+01	5.115214e+01
2.290000e-06	2.035059e-06	7.671926e-10	1.412173e+01	5.252081e+01
2.300000e-06	2.078861e-06	7.846569e-10	1.442568e+01	5.385463e+01
2.310000e-06	2.122615e-06	7.998570e-10	1.472929e+01	5.515365e+01
2.320000e-06	2.166341e-06	8.144778e-10	1.503271e+01	5.641802e+01
2.330000e-06	2.209987e-06	8.287255e-10	1.533559e+01	5.764803e+01
2.340000e-06	2.253421e-06	8.436840e-10	1.563698e+01	5.884403e+01
2.350000e-06	2.296659e-06	8.602444e-10	1.593702e+01	6.000651e+01
2.360000e-06	2.339773e-06	8.772026e-10	1.623620e+01	6.113599e+01
2.370000e-06	2.382688e-06	8.919253e-10	1.653400e+01	6.223313e+01
2.380000e-06	2.425275e-06	9.043461e-10	1.682952e+01	6.329861e+01
2.390000e-06	2.467559e-06	9.163599e-10	1.712293e+01	6.433319e+01
2.400000e-06	2.509529e-06	9.291939e-10	1.741417e+01	6.533770e+01
2.410000e-06	2.551101e-06	9.429562e-10	1.770265e+01	6.631299e+01
2.420000e-06	2.592381e-06	9.570759e-10	1.798910e+01	6.725995e+01
2.430000e-06	2.633343e-06	9.711334e-10	1.827335e+01	6.817952e+01
2.440000e-06	2.674025e-06	9.842598e-10	1.855565e+01	6.907263e+01
2.450000e-06	2.714491e-06	9.948682e-10	1.883645e+01	6.994024e+01
2.460000e-06	2.754703e-06	1.003561e-09	1.911549e+01	7.078330e+01
2.470000e-06	2.794749e-06	1.012733e-09	1.939338e+01	7.160278e+01
2.480000e-06	2.834681e-06	1.023032e-09	1.967048e+01	7.239961e+01
2.490000e-06	2.874439e-06	1.034417e-09	1.994637e+01	7.317473e+01
2.500000e-06	2.914059e-06	1.047837e-09	2.022130e+01	7.392903e+01
2.510000e-06	2.953586e-06	1.061103e-09	2.049558e+01	7.466340e+01
2.520000e-06	2.993018e-06	1.073185e-09	2.076921e+01	7.537868e+01
2.530000e-06	3.032273e-06	1.083938e-09	2.104161e+01	7.607568e+01
2.540000e-06	3.071241e-06	1.091662e-09	2.131202e+01	7.675516e+01
2.550000e-06	3.110026e-06	1.097210e-09	2.158116e+01	7.741786e+01
2.560000e-06	3.148652e-06	1.102226e-09	2.184919e+01	7.806444e+01
2.570000e-06	3.187018e-06	1.109739e-09	2.211542e+01	7.869554e+01
2.580000e-06	3.225113e-06	1.120134e-09	2.237977e+01	7.931175e+01
2.590000e-06	3.262974e-06	1.131151e-09	2.264250e+01	7.991361e+01
2.600000e-06	3.300636e-06	1.142586e-09	2.290384e+01	8.050159e+01
2.610000e-06	3.338091e-06	1.150250e-09	2.316375e+01	8.107616e+01
2.620000e-06	3.375342e-06	1.155192e-09	2.342224e+01	8.163770e+01
2.630000e-06	3.412431e-06	1.159031e-09	2.367961e+01	8.218656e+01
2.640000e-06	3.449237e-06	1.163563e-09	2.393501e+01	8.272307e+01
2.650000e-06	3.485679e-06	1.168477e-09	2.418789e+01	8.324751e+01
2.660000e-06	3.521883e-06	1.176302e-09	2.443912e+01	8.376010e+01
2.670000e-06	3.557876e-06	1.186791e-09	2.468889e+01	8.426106e+01
2.680000e-06	3.593719e-06	1.196956e-09	2.493761e+01	8.475058e+01
2.690000e-06	3.629464e-06	1.206276e-09	2.518565e+01	8.522880e+01
2.700000e-06	3.665100e-06	1.211679e-09	2.543294e+01	8.569588e+01
2.710000e-06	3.700605e-06	1.214632e-09	2.567931e+01	8.615192e+01
2.720000e-06	3.735897e-06	1.217223e-09	2.592421e+01	8.659704e+01
2.730000e-06	3.770876e-06	1.223532e-09	2.616694e+01	8.703134e+01
2.740000e-06	3.805482e-06	1.233173e-09	2.640708e+01	8.745491e+01
2.750000e-06	3.839563e-06	1.242354e-09	2.664357e+01	8.786786e+01
2.760000e-06	3.873083e-06	1.250069e-09	2.687618e+01	8.827027e+01
2.770000e-06	3.906171e-06	1.254339e-09	2.710578e+01	8.866225e+01
2.780000e-06	3.938844e-06	1.255650e-09	2.733251e+01	8.904392e+01
2.790000e-06	3.971173e-06	1.257868e-09	2.755685e+01	8.941539e+01
2.800000e-06	4.003245e-06	1.261750e-09	2.777940e+01	8.977681e+01
2.810000e-06	4.035102e-06	1.268565e-09	2.800046e+01	9.012832e+01
2.820000e-06	4.066844e-06	1.275749e-09	2.822073e+01	9.047010e+01
2.830000e-06	4.098479e-06	1.284559e-09	2.844025e+01	9.080233e+01
2.840000e-06	4.129900e-06	1.293422e-09	2.865829e+01	9.112522e+01
2.850000e-06	4.161035e-06	1.299755e-09	2.887434e+01	9.143899e+01
2.860000e-06	4.191789e-06	1.303921e-09	2.908775e+01	9.174388e+01
2.870000e-06	4.222210e-06	1.307186e-09	2.929884e+01	9.204015e+01
2.880000e-06	4.252346e-06	1.311453e-09	2.950796e+01	9.232809e+01
2.890000e-06	4.282181e-06	1.317929e-09	2.971500e+01	9.260798e+01
2.900000e-06	4.311729e-06	1.325178e-09	2.992004e+01	9.288013e+01
