# Temperatura_=_-10.7
# Concentracion g/m^3_=_1620.0
# C_Vs_to_Am_M_A/Vsm_=_65563218390.804596
# pendiente_HvsI_1/m_=_3716.3
# ordenada_HvsI_A/m_=_1297.0
# frecuencia_Hz_=_135108.32133294674

Tiempo_(s)	Campo_(V.s)	Magnetizacion_(V.s)	Campo_(kA/m)	Magnetizacion_(A/m)
0.000000e+00	-5.514526e-06	-9.650616e-10	-3.836364e+01	-6.455410e+01
1.000000e-08	-5.514849e-06	-9.672835e-10	-3.836589e+01	-6.455592e+01
2.000000e-08	-5.514870e-06	-9.698509e-10	-3.836604e+01	-6.455783e+01
3.000000e-08	-5.514471e-06	-9.696972e-10	-3.836326e+01	-6.455940e+01
4.000000e-08	-5.513720e-06	-9.643661e-10	-3.835803e+01	-6.456022e+01
5.000000e-08	-5.512549e-06	-9.551043e-10	-3.834989e+01	-6.455985e+01
6.000000e-08	-5.510747e-06	-9.442609e-10	-3.833735e+01	-6.455784e+01
7.000000e-08	-5.508289e-06	-9.423441e-10	-3.832025e+01	-6.455377e+01
8.000000e-08	-5.505264e-06	-9.550892e-10	-3.829921e+01	-6.454718e+01
9.000000e-08	-5.501791e-06	-9.644477e-10	-3.827505e+01	-6.453766e+01
1.000000e-07	-5.497903e-06	-9.470598e-10	-3.824800e+01	-6.452479e+01
1.100000e-07	-5.493663e-06	-9.394468e-10	-3.821850e+01	-6.450818e+01
1.200000e-07	-5.489207e-06	-9.369033e-10	-3.818750e+01	-6.448745e+01
1.300000e-07	-5.484509e-06	-9.632503e-10	-3.815482e+01	-6.446227e+01
1.400000e-07	-5.479382e-06	-9.401454e-10	-3.811915e+01	-6.443232e+01
1.500000e-07	-5.473787e-06	-9.363195e-10	-3.808023e+01	-6.439735e+01
1.600000e-07	-5.467897e-06	-9.387647e-10	-3.803925e+01	-6.435710e+01
1.700000e-07	-5.461711e-06	-9.568959e-10	-3.799622e+01	-6.431139e+01
1.800000e-07	-5.455140e-06	-9.446641e-10	-3.795051e+01	-6.426009e+01
1.900000e-07	-5.448127e-06	-9.389627e-10	-3.790172e+01	-6.420308e+01
2.000000e-07	-5.440735e-06	-9.486809e-10	-3.785029e+01	-6.414033e+01
2.100000e-07	-5.433072e-06	-9.570980e-10	-3.779698e+01	-6.407185e+01
2.200000e-07	-5.425141e-06	-9.565654e-10	-3.774180e+01	-6.399768e+01
2.300000e-07	-5.416933e-06	-9.492441e-10	-3.768471e+01	-6.391793e+01
2.400000e-07	-5.408343e-06	-9.558203e-10	-3.762494e+01	-6.383276e+01
2.500000e-07	-5.399083e-06	-9.543890e-10	-3.756053e+01	-6.374238e+01
2.600000e-07	-5.389093e-06	-9.578247e-10	-3.749102e+01	-6.364704e+01
2.700000e-07	-5.378638e-06	-9.356585e-10	-3.741829e+01	-6.354704e+01
2.800000e-07	-5.367697e-06	-9.325142e-10	-3.734218e+01	-6.344273e+01
2.900000e-07	-5.356197e-06	-9.244996e-10	-3.726217e+01	-6.333450e+01
3.000000e-07	-5.344296e-06	-9.360768e-10	-3.717938e+01	-6.322275e+01
3.100000e-07	-5.332029e-06	-9.231144e-10	-3.709404e+01	-6.310796e+01
3.200000e-07	-5.319338e-06	-9.370196e-10	-3.700575e+01	-6.299059e+01
3.300000e-07	-5.306249e-06	-9.420041e-10	-3.691469e+01	-6.287115e+01
3.400000e-07	-5.292847e-06	-9.481917e-10	-3.682146e+01	-6.275018e+01
3.500000e-07	-5.279057e-06	-9.235321e-10	-3.672552e+01	-6.262819e+01
3.600000e-07	-5.264768e-06	-9.357905e-10	-3.662612e+01	-6.250575e+01
3.700000e-07	-5.250152e-06	-9.385579e-10	-3.652443e+01	-6.238340e+01
3.800000e-07	-5.235061e-06	-9.290328e-10	-3.641945e+01	-6.226167e+01
3.900000e-07	-5.219258e-06	-9.191240e-10	-3.630951e+01	-6.214112e+01
4.000000e-07	-5.202995e-06	-9.425517e-10	-3.619637e+01	-6.202225e+01
4.100000e-07	-5.186395e-06	-9.352695e-10	-3.608089e+01	-6.190558e+01
4.200000e-07	-5.169407e-06	-9.113896e-10	-3.596270e+01	-6.179159e+01
4.300000e-07	-5.152108e-06	-9.308476e-10	-3.584236e+01	-6.168072e+01
4.400000e-07	-5.134585e-06	-9.527132e-10	-3.572046e+01	-6.157340e+01
4.500000e-07	-5.116683e-06	-9.280809e-10	-3.559592e+01	-6.147000e+01
4.600000e-07	-5.098290e-06	-9.115224e-10	-3.546796e+01	-6.137086e+01
4.700000e-07	-5.079511e-06	-9.386572e-10	-3.533732e+01	-6.127629e+01
4.800000e-07	-5.060439e-06	-9.247769e-10	-3.520463e+01	-6.118651e+01
4.900000e-07	-5.041054e-06	-8.989445e-10	-3.506977e+01	-6.110174e+01
5.000000e-07	-5.021432e-06	-9.162136e-10	-3.493327e+01	-6.102212e+01
5.100000e-07	-5.001618e-06	-9.397638e-10	-3.479543e+01	-6.094775e+01
5.200000e-07	-4.981465e-06	-9.128748e-10	-3.465522e+01	-6.087865e+01
5.300000e-07	-4.960876e-06	-9.188888e-10	-3.451199e+01	-6.081483e+01
5.400000e-07	-4.939937e-06	-9.365819e-10	-3.436632e+01	-6.075621e+01
5.500000e-07	-4.918764e-06	-9.169498e-10	-3.421903e+01	-6.070267e+01
5.600000e-07	-4.897238e-06	-8.927310e-10	-3.406927e+01	-6.065405e+01
5.700000e-07	-4.875325e-06	-9.151011e-10	-3.391682e+01	-6.061013e+01
5.800000e-07	-4.853090e-06	-9.109193e-10	-3.376214e+01	-6.057064e+01
5.900000e-07	-4.830455e-06	-8.973484e-10	-3.360468e+01	-6.053528e+01
6.000000e-07	-4.807519e-06	-9.070615e-10	-3.344511e+01	-6.050370e+01
6.100000e-07	-4.784367e-06	-9.170529e-10	-3.328405e+01	-6.047552e+01
6.200000e-07	-4.760918e-06	-8.965908e-10	-3.312091e+01	-6.045032e+01
6.300000e-07	-4.737244e-06	-9.010457e-10	-3.295622e+01	-6.042766e+01
6.400000e-07	-4.713274e-06	-9.131662e-10	-3.278947e+01	-6.040708e+01
6.500000e-07	-4.688979e-06	-9.062686e-10	-3.262045e+01	-6.038809e+01
6.600000e-07	-4.664321e-06	-8.970856e-10	-3.244891e+01	-6.037021e+01
6.700000e-07	-4.639269e-06	-9.036902e-10	-3.227462e+01	-6.035293e+01
6.800000e-07	-4.613731e-06	-8.968858e-10	-3.209696e+01	-6.033574e+01
6.900000e-07	-4.587522e-06	-8.877063e-10	-3.191463e+01	-6.031814e+01
7.000000e-07	-4.560810e-06	-8.910513e-10	-3.172880e+01	-6.029964e+01
7.100000e-07	-4.533680e-06	-8.938018e-10	-3.154006e+01	-6.027975e+01
7.200000e-07	-4.506235e-06	-8.905682e-10	-3.134913e+01	-6.025801e+01
7.300000e-07	-4.478676e-06	-8.933741e-10	-3.115741e+01	-6.023397e+01
7.400000e-07	-4.450890e-06	-8.962471e-10	-3.096410e+01	-6.020722e+01
7.500000e-07	-4.422773e-06	-8.897003e-10	-3.076850e+01	-6.017736e+01
7.600000e-07	-4.394470e-06	-8.840410e-10	-3.057160e+01	-6.014404e+01
7.700000e-07	-4.365926e-06	-8.765906e-10	-3.037302e+01	-6.010693e+01
7.800000e-07	-4.336990e-06	-8.706857e-10	-3.017172e+01	-6.006574e+01
7.900000e-07	-4.307713e-06	-8.693365e-10	-2.996804e+01	-6.002022e+01
8.000000e-07	-4.278154e-06	-8.753731e-10	-2.976241e+01	-5.997018e+01
8.100000e-07	-4.248330e-06	-8.745496e-10	-2.955492e+01	-5.991544e+01
8.200000e-07	-4.218182e-06	-8.771694e-10	-2.934519e+01	-5.985589e+01
8.300000e-07	-4.187656e-06	-8.798354e-10	-2.913283e+01	-5.979144e+01
8.400000e-07	-4.156806e-06	-8.797500e-10	-2.891821e+01	-5.972206e+01
8.500000e-07	-4.125701e-06	-8.716513e-10	-2.870181e+01	-5.964774e+01
8.600000e-07	-4.094361e-06	-8.697931e-10	-2.848379e+01	-5.956854e+01
8.700000e-07	-4.062879e-06	-8.667201e-10	-2.826478e+01	-5.948452e+01
8.800000e-07	-4.031266e-06	-8.657750e-10	-2.804485e+01	-5.939581e+01
8.900000e-07	-3.999435e-06	-8.657240e-10	-2.782340e+01	-5.930254e+01
9.000000e-07	-3.967411e-06	-8.697152e-10	-2.760062e+01	-5.920490e+01
9.100000e-07	-3.935180e-06	-8.665050e-10	-2.737640e+01	-5.910309e+01
9.200000e-07	-3.902612e-06	-8.646705e-10	-2.714982e+01	-5.899732e+01
9.300000e-07	-3.869586e-06	-8.635780e-10	-2.692007e+01	-5.888785e+01
9.400000e-07	-3.836121e-06	-8.602864e-10	-2.668726e+01	-5.877493e+01
9.500000e-07	-3.802220e-06	-8.535749e-10	-2.645141e+01	-5.865883e+01
9.600000e-07	-3.767899e-06	-8.518056e-10	-2.621265e+01	-5.853981e+01
9.700000e-07	-3.733253e-06	-8.490411e-10	-2.597162e+01	-5.841817e+01
9.800000e-07	-3.698261e-06	-8.429636e-10	-2.572819e+01	-5.829417e+01
9.900000e-07	-3.662972e-06	-8.368172e-10	-2.548269e+01	-5.816809e+01
1.000000e-06	-3.627489e-06	-8.327050e-10	-2.523584e+01	-5.804018e+01
1.010000e-06	-3.591828e-06	-8.300440e-10	-2.498775e+01	-5.791070e+01
1.020000e-06	-3.555998e-06	-8.306656e-10	-2.473849e+01	-5.777988e+01
1.030000e-06	-3.520036e-06	-8.363445e-10	-2.448831e+01	-5.764792e+01
1.040000e-06	-3.483875e-06	-8.400097e-10	-2.423674e+01	-5.751503e+01
1.050000e-06	-3.447443e-06	-8.401475e-10	-2.398329e+01	-5.738137e+01
1.060000e-06	-3.410784e-06	-8.382044e-10	-2.372826e+01	-5.724707e+01
1.070000e-06	-3.373900e-06	-8.356195e-10	-2.347166e+01	-5.711226e+01
1.080000e-06	-3.336726e-06	-8.310988e-10	-2.321305e+01	-5.697700e+01
1.090000e-06	-3.299322e-06	-8.303001e-10	-2.295284e+01	-5.684137e+01
1.100000e-06	-3.261704e-06	-8.285195e-10	-2.269113e+01	-5.670537e+01
1.110000e-06	-3.223846e-06	-8.271076e-10	-2.242776e+01	-5.656901e+01
1.120000e-06	-3.185760e-06	-8.266863e-10	-2.216280e+01	-5.643223e+01
1.130000e-06	-3.147429e-06	-8.305588e-10	-2.189614e+01	-5.629498e+01
1.140000e-06	-3.108828e-06	-8.317567e-10	-2.162760e+01	-5.615715e+01
1.150000e-06	-3.070036e-06	-8.296326e-10	-2.135773e+01	-5.601862e+01
1.160000e-06	-3.031159e-06	-8.236073e-10	-2.108727e+01	-5.587924e+01
1.170000e-06	-2.992040e-06	-8.178255e-10	-2.081512e+01	-5.573884e+01
1.180000e-06	-2.952714e-06	-8.109624e-10	-2.054154e+01	-5.559722e+01
1.190000e-06	-2.913274e-06	-8.064865e-10	-2.026716e+01	-5.545416e+01
1.200000e-06	-2.873665e-06	-8.032667e-10	-1.999161e+01	-5.530945e+01
1.210000e-06	-2.833924e-06	-8.012912e-10	-1.971514e+01	-5.516283e+01
1.220000e-06	-2.794027e-06	-7.985056e-10	-1.943758e+01	-5.501405e+01
1.230000e-06	-2.753944e-06	-7.975985e-10	-1.915873e+01	-5.486285e+01
1.240000e-06	-2.713696e-06	-7.963529e-10	-1.887873e+01	-5.470896e+01
1.250000e-06	-2.673274e-06	-7.941537e-10	-1.859752e+01	-5.455212e+01
1.260000e-06	-2.632659e-06	-7.902805e-10	-1.831497e+01	-5.439205e+01
1.270000e-06	-2.591792e-06	-7.855392e-10	-1.803067e+01	-5.422849e+01
1.280000e-06	-2.550693e-06	-7.792743e-10	-1.774475e+01	-5.406119e+01
1.290000e-06	-2.509384e-06	-7.728475e-10	-1.745737e+01	-5.388987e+01
1.300000e-06	-2.467746e-06	-7.684083e-10	-1.716770e+01	-5.371431e+01
1.310000e-06	-2.425763e-06	-7.638102e-10	-1.687563e+01	-5.353425e+01
1.320000e-06	-2.383517e-06	-7.623244e-10	-1.658174e+01	-5.334949e+01
1.330000e-06	-2.340995e-06	-7.630971e-10	-1.628591e+01	-5.315979e+01
1.340000e-06	-2.298116e-06	-7.628777e-10	-1.598761e+01	-5.296497e+01
1.350000e-06	-2.254919e-06	-7.595307e-10	-1.568709e+01	-5.276483e+01
1.360000e-06	-2.211561e-06	-7.546196e-10	-1.538546e+01	-5.255919e+01
1.370000e-06	-2.168127e-06	-7.473846e-10	-1.508330e+01	-5.234788e+01
1.380000e-06	-2.124594e-06	-7.398519e-10	-1.478045e+01	-5.213074e+01
1.390000e-06	-2.080942e-06	-7.334848e-10	-1.447677e+01	-5.190762e+01
1.400000e-06	-2.037200e-06	-7.305317e-10	-1.417246e+01	-5.167837e+01
1.410000e-06	-1.993386e-06	-7.281438e-10	-1.386766e+01	-5.144284e+01
1.420000e-06	-1.949531e-06	-7.274710e-10	-1.356256e+01	-5.120088e+01
1.430000e-06	-1.905511e-06	-7.274509e-10	-1.325632e+01	-5.095236e+01
1.440000e-06	-1.861310e-06	-7.266725e-10	-1.294882e+01	-5.069711e+01
1.450000e-06	-1.817080e-06	-7.213717e-10	-1.264112e+01	-5.043496e+01
1.460000e-06	-1.772822e-06	-7.141812e-10	-1.233323e+01	-5.016575e+01
1.470000e-06	-1.728416e-06	-7.050672e-10	-1.202430e+01	-4.988926e+01
1.480000e-06	-1.683812e-06	-6.956817e-10	-1.171400e+01	-4.960530e+01
1.490000e-06	-1.639112e-06	-6.903701e-10	-1.140303e+01	-4.931361e+01
1.500000e-06	-1.594365e-06	-6.886095e-10	-1.109173e+01	-4.901393e+01
1.510000e-06	-1.549452e-06	-6.875352e-10	-1.077928e+01	-4.870596e+01
1.520000e-06	-1.504324e-06	-6.863262e-10	-1.046533e+01	-4.838937e+01
1.530000e-06	-1.459086e-06	-6.839537e-10	-1.015062e+01	-4.806378e+01
1.540000e-06	-1.413788e-06	-6.783455e-10	-9.835486e+00	-4.772879e+01
1.550000e-06	-1.368426e-06	-6.698576e-10	-9.519915e+00	-4.738394e+01
1.560000e-06	-1.323010e-06	-6.617035e-10	-9.203958e+00	-4.702873e+01
1.570000e-06	-1.277508e-06	-6.541701e-10	-8.887408e+00	-4.666263e+01
1.580000e-06	-1.231910e-06	-6.464172e-10	-8.570196e+00	-4.628504e+01
1.590000e-06	-1.186235e-06	-6.407218e-10	-8.252441e+00	-4.589533e+01
1.600000e-06	-1.140442e-06	-6.364121e-10	-7.933867e+00	-4.549282e+01
1.610000e-06	-1.094560e-06	-6.324896e-10	-7.614671e+00	-4.507677e+01
1.620000e-06	-1.048656e-06	-6.264740e-10	-7.295326e+00	-4.464642e+01
1.630000e-06	-1.002659e-06	-6.200125e-10	-6.975330e+00	-4.420095e+01
1.640000e-06	-9.565229e-07	-6.139171e-10	-6.654371e+00	-4.373951e+01
1.650000e-06	-9.103302e-07	-6.067431e-10	-6.333016e+00	-4.326121e+01
1.660000e-06	-8.641063e-07	-5.974294e-10	-6.011444e+00	-4.276513e+01
1.670000e-06	-8.178293e-07	-5.878357e-10	-5.689503e+00	-4.225032e+01
1.680000e-06	-7.715376e-07	-5.768473e-10	-5.367459e+00	-4.171580e+01
1.690000e-06	-7.252320e-07	-5.646951e-10	-5.045319e+00	-4.116060e+01
1.700000e-06	-6.788462e-07	-5.545024e-10	-4.722620e+00	-4.058371e+01
1.710000e-06	-6.323987e-07	-5.467692e-10	-4.399493e+00	-3.998414e+01
1.720000e-06	-5.858689e-07	-5.402607e-10	-4.075793e+00	-3.936088e+01
1.730000e-06	-5.392430e-07	-5.333497e-10	-3.751424e+00	-3.871295e+01
1.740000e-06	-4.926541e-07	-5.247331e-10	-3.427313e+00	-3.803939e+01
1.750000e-06	-4.460871e-07	-5.131415e-10	-3.103354e+00	-3.733926e+01
1.760000e-06	-3.994311e-07	-4.992523e-10	-2.778776e+00	-3.661165e+01
1.770000e-06	-3.527528e-07	-4.865419e-10	-2.454043e+00	-3.585571e+01
1.780000e-06	-3.060172e-07	-4.735378e-10	-2.128911e+00	-3.507064e+01
1.790000e-06	-2.592352e-07	-4.610504e-10	-1.803456e+00	-3.425568e+01
1.800000e-06	-2.124870e-07	-4.494159e-10	-1.478237e+00	-3.341017e+01
1.810000e-06	-1.656987e-07	-4.373380e-10	-1.152738e+00	-3.253350e+01
1.820000e-06	-1.188480e-07	-4.244555e-10	-8.268058e-01	-3.162516e+01
1.830000e-06	-7.201643e-08	-4.114629e-10	-5.010063e-01	-3.068473e+01
1.840000e-06	-2.519000e-08	-3.992075e-10	-1.752427e-01	-2.971188e+01
1.850000e-06	2.162738e-08	-3.861255e-10	1.504581e-01	-2.870641e+01
1.860000e-06	6.843025e-08	-3.710837e-10	4.760579e-01	-2.766820e+01
1.870000e-06	1.152244e-07	-3.539764e-10	8.015967e-01	-2.659726e+01
1.880000e-06	1.620584e-07	-3.358546e-10	1.127413e+00	-2.549373e+01
1.890000e-06	2.088693e-07	-3.190643e-10	1.453069e+00	-2.435784e+01
1.900000e-06	2.555687e-07	-3.039019e-10	1.777949e+00	-2.319000e+01
1.910000e-06	3.022658e-07	-2.884882e-10	2.102813e+00	-2.199070e+01
1.920000e-06	3.489953e-07	-2.728206e-10	2.427903e+00	-2.076058e+01
1.930000e-06	3.956956e-07	-2.569859e-10	2.752789e+00	-1.950041e+01
1.940000e-06	4.423205e-07	-2.394187e-10	3.077150e+00	-1.821109e+01
1.950000e-06	4.888656e-07	-2.189571e-10	3.400957e+00	-1.689363e+01
1.960000e-06	5.353959e-07	-1.988861e-10	3.724660e+00	-1.554919e+01
1.970000e-06	5.818942e-07	-1.783698e-10	4.048141e+00	-1.417903e+01
1.980000e-06	6.282864e-07	-1.569930e-10	4.370884e+00	-1.278454e+01
1.990000e-06	6.745581e-07	-1.360216e-10	4.692789e+00	-1.136720e+01
2.000000e-06	7.207782e-07	-1.152382e-10	5.014335e+00	-9.928633e+00
2.010000e-06	7.670252e-07	-9.188968e-11	5.336067e+00	-8.470518e+00
2.020000e-06	8.132412e-07	-6.674447e-11	5.657584e+00	-6.994645e+00
2.030000e-06	8.594702e-07	-4.519768e-11	5.979191e+00	-5.502883e+00
2.040000e-06	9.056316e-07	-2.765137e-11	6.300329e+00	-3.997173e+00
2.050000e-06	9.516607e-07	-9.455420e-12	6.620545e+00	-2.479517e+00
2.060000e-06	9.976411e-07	1.072679e-11	6.940423e+00	-9.519736e-01
2.070000e-06	1.043574e-06	3.144711e-11	7.259973e+00	5.833591e-01
2.080000e-06	1.089446e-06	5.460447e-11	7.579095e+00	2.124349e+00
2.090000e-06	1.135271e-06	8.062200e-11	7.897892e+00	3.668843e+00
2.100000e-06	1.181027e-06	1.073186e-10	8.216212e+00	5.214677e+00
2.110000e-06	1.226735e-06	1.314269e-10	8.534195e+00	6.759690e+00
2.120000e-06	1.272391e-06	1.507139e-10	8.851811e+00	8.301729e+00
2.130000e-06	1.317923e-06	1.668331e-10	9.168572e+00	9.838665e+00
2.140000e-06	1.363325e-06	1.822680e-10	9.484427e+00	1.136840e+01
2.150000e-06	1.408602e-06	2.006987e-10	9.799409e+00	1.288889e+01
2.160000e-06	1.453759e-06	2.244739e-10	1.011356e+01	1.439812e+01
2.170000e-06	1.498859e-06	2.502781e-10	1.042731e+01	1.589416e+01
2.180000e-06	1.543829e-06	2.741240e-10	1.074016e+01	1.737514e+01
2.190000e-06	1.588689e-06	2.956308e-10	1.105225e+01	1.883927e+01
2.200000e-06	1.633518e-06	3.157381e-10	1.136412e+01	2.028485e+01
2.210000e-06	1.678176e-06	3.331749e-10	1.167479e+01	2.171028e+01
2.220000e-06	1.722639e-06	3.477533e-10	1.198412e+01	2.311403e+01
2.230000e-06	1.766993e-06	3.618872e-10	1.229267e+01	2.449472e+01
2.240000e-06	1.811212e-06	3.776996e-10	1.260030e+01	2.585103e+01
2.250000e-06	1.855262e-06	3.948399e-10	1.290675e+01	2.718180e+01
2.260000e-06	1.899212e-06	4.140825e-10	1.321250e+01	2.848595e+01
2.270000e-06	1.943085e-06	4.347312e-10	1.351772e+01	2.976253e+01
2.280000e-06	1.986946e-06	4.541332e-10	1.382285e+01	3.101071e+01
2.290000e-06	2.030806e-06	4.716966e-10	1.412798e+01	3.222977e+01
2.300000e-06	2.074534e-06	4.881028e-10	1.443219e+01	3.341913e+01
2.310000e-06	2.118109e-06	5.026830e-10	1.473533e+01	3.457829e+01
2.320000e-06	2.161639e-06	5.150040e-10	1.503816e+01	3.570690e+01
2.330000e-06	2.205146e-06	5.274404e-10	1.534083e+01	3.680469e+01
2.340000e-06	2.248511e-06	5.412192e-10	1.564252e+01	3.787152e+01
2.350000e-06	2.291731e-06	5.570505e-10	1.594319e+01	3.890734e+01
2.360000e-06	2.334794e-06	5.747801e-10	1.624277e+01	3.991220e+01
2.370000e-06	2.377516e-06	5.894950e-10	1.653999e+01	4.088625e+01
2.380000e-06	2.419858e-06	5.985492e-10	1.683455e+01	4.182971e+01
2.390000e-06	2.461879e-06	6.069111e-10	1.712688e+01	4.274290e+01
2.400000e-06	2.503658e-06	6.169292e-10	1.741753e+01	4.362620e+01
2.410000e-06	2.545165e-06	6.286716e-10	1.770629e+01	4.448006e+01
2.420000e-06	2.586269e-06	6.421129e-10	1.799224e+01	4.530499e+01
2.430000e-06	2.627039e-06	6.559969e-10	1.827587e+01	4.610156e+01
2.440000e-06	2.667595e-06	6.679427e-10	1.855802e+01	4.687038e+01
2.450000e-06	2.707981e-06	6.767720e-10	1.883897e+01	4.761210e+01
2.460000e-06	2.748256e-06	6.836661e-10	1.911916e+01	4.832740e+01
2.470000e-06	2.788358e-06	6.902945e-10	1.939815e+01	4.901699e+01
2.480000e-06	2.828220e-06	7.005289e-10	1.967546e+01	4.968159e+01
2.490000e-06	2.867969e-06	7.130652e-10	1.995198e+01	5.032195e+01
2.500000e-06	2.907669e-06	7.259911e-10	2.022817e+01	5.093881e+01
2.510000e-06	2.947174e-06	7.386314e-10	2.050300e+01	5.153293e+01
2.520000e-06	2.986465e-06	7.484598e-10	2.077634e+01	5.210504e+01
2.530000e-06	3.025597e-06	7.538172e-10	2.104858e+01	5.265590e+01
2.540000e-06	3.064531e-06	7.559151e-10	2.131943e+01	5.318621e+01
2.550000e-06	3.103181e-06	7.588328e-10	2.158831e+01	5.369671e+01
2.560000e-06	3.141519e-06	7.646444e-10	2.185502e+01	5.418807e+01
2.570000e-06	3.179618e-06	7.740688e-10	2.212007e+01	5.466097e+01
2.580000e-06	3.217537e-06	7.849548e-10	2.238387e+01	5.511607e+01
2.590000e-06	3.255330e-06	7.946108e-10	2.264679e+01	5.555397e+01
2.600000e-06	3.292946e-06	8.026246e-10	2.290848e+01	5.597529e+01
2.610000e-06	3.330313e-06	8.085952e-10	2.316843e+01	5.638060e+01
2.620000e-06	3.367435e-06	8.139872e-10	2.342668e+01	5.677043e+01
2.630000e-06	3.404336e-06	8.177135e-10	2.368340e+01	5.714531e+01
2.640000e-06	3.440927e-06	8.194447e-10	2.393796e+01	5.750574e+01
2.650000e-06	3.477247e-06	8.213515e-10	2.419063e+01	5.785218e+01
2.660000e-06	3.513408e-06	8.272207e-10	2.444220e+01	5.818509e+01
2.670000e-06	3.549388e-06	8.331705e-10	2.469251e+01	5.850487e+01
2.680000e-06	3.585207e-06	8.355230e-10	2.494169e+01	5.881195e+01
2.690000e-06	3.620937e-06	8.386585e-10	2.519026e+01	5.910670e+01
2.700000e-06	3.656573e-06	8.418361e-10	2.543817e+01	5.938950e+01
2.710000e-06	3.691992e-06	8.455434e-10	2.568457e+01	5.966071e+01
2.720000e-06	3.727090e-06	8.501581e-10	2.592875e+01	5.992067e+01
2.730000e-06	3.761919e-06	8.566741e-10	2.617105e+01	6.016972e+01
2.740000e-06	3.796329e-06	8.613764e-10	2.641043e+01	6.040819e+01
2.750000e-06	3.830248e-06	8.626487e-10	2.664640e+01	6.063641e+01
2.760000e-06	3.863685e-06	8.620093e-10	2.687902e+01	6.085470e+01
2.770000e-06	3.896592e-06	8.622360e-10	2.710794e+01	6.106338e+01
2.780000e-06	3.929109e-06	8.659232e-10	2.733416e+01	6.126278e+01
2.790000e-06	3.961325e-06	8.729319e-10	2.755828e+01	6.145321e+01
2.800000e-06	3.993312e-06	8.816885e-10	2.778081e+01	6.163500e+01
2.810000e-06	4.025166e-06	8.883515e-10	2.800241e+01	6.180849e+01
2.820000e-06	4.056893e-06	8.913709e-10	2.822313e+01	6.197401e+01
2.830000e-06	4.088416e-06	8.920884e-10	2.844243e+01	6.213190e+01
2.840000e-06	4.119692e-06	8.905440e-10	2.866001e+01	6.228250e+01
2.850000e-06	4.150720e-06	8.887073e-10	2.887587e+01	6.242615e+01
2.860000e-06	4.181468e-06	8.894050e-10	2.908978e+01	6.256321e+01
2.870000e-06	4.211862e-06	8.936774e-10	2.930123e+01	6.269404e+01
2.880000e-06	4.241934e-06	8.998617e-10	2.951043e+01	6.281898e+01
2.890000e-06	4.271727e-06	9.059237e-10	2.971770e+01	6.293840e+01
2.900000e-06	4.301271e-06	9.118177e-10	2.992322e+01	6.305264e+01
