# Temperatura_=_14.0
# Concentracion g/m^3_=_1620.0
# C_Vs_to_Am_M_A/Vsm_=_65563218390.804596
# pendiente_HvsI_1/m_=_3716.3
# ordenada_HvsI_A/m_=_1297.0
# frecuencia_Hz_=_135098.35246682147

Tiempo_(s)	Campo_(V.s)	Magnetizacion_(V.s)	Campo_(kA/m)	Magnetizacion_(A/m)
0.000000e+00	-5.526917e-06	-1.549078e-09	-3.836657e+01	-1.027478e+02
1.000000e-08	-5.527019e-06	-1.547585e-09	-3.836727e+01	-1.027389e+02
2.000000e-08	-5.526829e-06	-1.544577e-09	-3.836595e+01	-1.027314e+02
3.000000e-08	-5.526171e-06	-1.541066e-09	-3.836139e+01	-1.027251e+02
4.000000e-08	-5.525005e-06	-1.535023e-09	-3.835329e+01	-1.027199e+02
5.000000e-08	-5.523346e-06	-1.529686e-09	-3.834177e+01	-1.027156e+02
6.000000e-08	-5.521075e-06	-1.527798e-09	-3.832601e+01	-1.027118e+02
7.000000e-08	-5.518178e-06	-1.539070e-09	-3.830590e+01	-1.027085e+02
8.000000e-08	-5.514787e-06	-1.549531e-09	-3.828236e+01	-1.027051e+02
9.000000e-08	-5.510935e-06	-1.527432e-09	-3.825562e+01	-1.027015e+02
1.000000e-07	-5.506655e-06	-1.513917e-09	-3.822592e+01	-1.026973e+02
1.100000e-07	-5.502241e-06	-1.529758e-09	-3.819527e+01	-1.026921e+02
1.200000e-07	-5.497714e-06	-1.538746e-09	-3.816385e+01	-1.026855e+02
1.300000e-07	-5.492724e-06	-1.519007e-09	-3.812920e+01	-1.026772e+02
1.400000e-07	-5.487246e-06	-1.509909e-09	-3.809118e+01	-1.026667e+02
1.500000e-07	-5.481445e-06	-1.530535e-09	-3.805091e+01	-1.026536e+02
1.600000e-07	-5.475340e-06	-1.552463e-09	-3.800853e+01	-1.026376e+02
1.700000e-07	-5.468820e-06	-1.534777e-09	-3.796327e+01	-1.026183e+02
1.800000e-07	-5.461844e-06	-1.538429e-09	-3.791485e+01	-1.025952e+02
1.900000e-07	-5.454554e-06	-1.562654e-09	-3.786424e+01	-1.025680e+02
2.000000e-07	-5.446968e-06	-1.557921e-09	-3.781158e+01	-1.025363e+02
2.100000e-07	-5.439096e-06	-1.539929e-09	-3.775694e+01	-1.024997e+02
2.200000e-07	-5.430980e-06	-1.541501e-09	-3.770060e+01	-1.024580e+02
2.300000e-07	-5.422552e-06	-1.570024e-09	-3.764209e+01	-1.024108e+02
2.400000e-07	-5.413531e-06	-1.577046e-09	-3.757947e+01	-1.023579e+02
2.500000e-07	-5.403754e-06	-1.577323e-09	-3.751159e+01	-1.022989e+02
2.600000e-07	-5.393330e-06	-1.561337e-09	-3.743924e+01	-1.022336e+02
2.700000e-07	-5.382399e-06	-1.547001e-09	-3.736336e+01	-1.021618e+02
2.800000e-07	-5.371041e-06	-1.543488e-09	-3.728451e+01	-1.020834e+02
2.900000e-07	-5.359219e-06	-1.553149e-09	-3.720245e+01	-1.019982e+02
3.000000e-07	-5.347016e-06	-1.538932e-09	-3.711774e+01	-1.019061e+02
3.100000e-07	-5.334430e-06	-1.538575e-09	-3.703037e+01	-1.018069e+02
3.200000e-07	-5.321522e-06	-1.565532e-09	-3.694076e+01	-1.017007e+02
3.300000e-07	-5.308273e-06	-1.575717e-09	-3.684879e+01	-1.015874e+02
3.400000e-07	-5.294584e-06	-1.538911e-09	-3.675377e+01	-1.014670e+02
3.500000e-07	-5.280394e-06	-1.531702e-09	-3.665526e+01	-1.013395e+02
3.600000e-07	-5.265855e-06	-1.547379e-09	-3.655434e+01	-1.012051e+02
3.700000e-07	-5.251051e-06	-1.524023e-09	-3.645157e+01	-1.010637e+02
3.800000e-07	-5.235559e-06	-1.503565e-09	-3.634403e+01	-1.009155e+02
3.900000e-07	-5.219400e-06	-1.531343e-09	-3.623186e+01	-1.007605e+02
4.000000e-07	-5.202909e-06	-1.525207e-09	-3.611738e+01	-1.005991e+02
4.100000e-07	-5.186121e-06	-1.484747e-09	-3.600084e+01	-1.004313e+02
4.200000e-07	-5.168960e-06	-1.510101e-09	-3.588172e+01	-1.002572e+02
4.300000e-07	-5.151528e-06	-1.535165e-09	-3.576071e+01	-1.000772e+02
4.400000e-07	-5.133799e-06	-1.486443e-09	-3.563764e+01	-9.989139e+01
4.500000e-07	-5.115546e-06	-1.470408e-09	-3.551093e+01	-9.970000e+01
4.600000e-07	-5.096814e-06	-1.516527e-09	-3.538089e+01	-9.950327e+01
4.700000e-07	-5.077745e-06	-1.482760e-09	-3.524852e+01	-9.930141e+01
4.800000e-07	-5.058358e-06	-1.439719e-09	-3.511394e+01	-9.909467e+01
4.900000e-07	-5.038743e-06	-1.487464e-09	-3.497778e+01	-9.888327e+01
5.000000e-07	-5.018966e-06	-1.505451e-09	-3.484049e+01	-9.866745e+01
5.100000e-07	-4.998956e-06	-1.444164e-09	-3.470159e+01	-9.844744e+01
5.200000e-07	-4.978536e-06	-1.465231e-09	-3.455983e+01	-9.822346e+01
5.300000e-07	-4.957758e-06	-1.506848e-09	-3.441560e+01	-9.799573e+01
5.400000e-07	-4.936657e-06	-1.453394e-09	-3.426912e+01	-9.776445e+01
5.500000e-07	-4.915184e-06	-1.426835e-09	-3.412006e+01	-9.752984e+01
5.600000e-07	-4.893427e-06	-1.474493e-09	-3.396902e+01	-9.729207e+01
5.700000e-07	-4.871333e-06	-1.447818e-09	-3.381566e+01	-9.705133e+01
5.800000e-07	-4.848857e-06	-1.408897e-09	-3.365964e+01	-9.680779e+01
5.900000e-07	-4.826076e-06	-1.449057e-09	-3.350149e+01	-9.656161e+01
6.000000e-07	-4.802955e-06	-1.455303e-09	-3.334099e+01	-9.631292e+01
6.100000e-07	-4.779544e-06	-1.406884e-09	-3.317848e+01	-9.606185e+01
6.200000e-07	-4.755891e-06	-1.420365e-09	-3.301428e+01	-9.580852e+01
6.300000e-07	-4.732035e-06	-1.439700e-09	-3.284868e+01	-9.555303e+01
6.400000e-07	-4.707931e-06	-1.405755e-09	-3.268136e+01	-9.529547e+01
6.500000e-07	-4.683409e-06	-1.402267e-09	-3.251113e+01	-9.503592e+01
6.600000e-07	-4.658400e-06	-1.429008e-09	-3.233753e+01	-9.477443e+01
6.700000e-07	-4.632847e-06	-1.411369e-09	-3.216015e+01	-9.451105e+01
6.800000e-07	-4.606657e-06	-1.394757e-09	-3.197834e+01	-9.424582e+01
6.900000e-07	-4.579980e-06	-1.412442e-09	-3.179315e+01	-9.397876e+01
7.000000e-07	-4.552920e-06	-1.401351e-09	-3.160531e+01	-9.370988e+01
7.100000e-07	-4.525496e-06	-1.376721e-09	-3.141493e+01	-9.343919e+01
7.200000e-07	-4.497938e-06	-1.382402e-09	-3.122363e+01	-9.316667e+01
7.300000e-07	-4.470227e-06	-1.387616e-09	-3.103127e+01	-9.289231e+01
7.400000e-07	-4.442247e-06	-1.373622e-09	-3.083704e+01	-9.261607e+01
7.500000e-07	-4.413975e-06	-1.375348e-09	-3.064078e+01	-9.233792e+01
7.600000e-07	-4.385416e-06	-1.377075e-09	-3.044253e+01	-9.205780e+01
7.700000e-07	-4.356538e-06	-1.360199e-09	-3.024207e+01	-9.177567e+01
7.800000e-07	-4.327337e-06	-1.347707e-09	-3.003936e+01	-9.149146e+01
7.900000e-07	-4.297902e-06	-1.348925e-09	-2.983503e+01	-9.120510e+01
8.000000e-07	-4.268236e-06	-1.336593e-09	-2.962910e+01	-9.091651e+01
8.100000e-07	-4.238187e-06	-1.327657e-09	-2.942051e+01	-9.062561e+01
8.200000e-07	-4.207790e-06	-1.333850e-09	-2.920949e+01	-9.033230e+01
8.300000e-07	-4.177112e-06	-1.335142e-09	-2.899653e+01	-9.003649e+01
8.400000e-07	-4.146169e-06	-1.325573e-09	-2.878173e+01	-8.973808e+01
8.500000e-07	-4.114950e-06	-1.326859e-09	-2.856502e+01	-8.943695e+01
8.600000e-07	-4.083484e-06	-1.320984e-09	-2.834659e+01	-8.913299e+01
8.700000e-07	-4.051894e-06	-1.301144e-09	-2.812730e+01	-8.882607e+01
8.800000e-07	-4.020173e-06	-1.291063e-09	-2.790710e+01	-8.851608e+01
8.900000e-07	-3.988261e-06	-1.292354e-09	-2.768558e+01	-8.820288e+01
9.000000e-07	-3.956012e-06	-1.284822e-09	-2.746171e+01	-8.788633e+01
9.100000e-07	-3.923440e-06	-1.281479e-09	-2.723561e+01	-8.756628e+01
9.200000e-07	-3.890552e-06	-1.287633e-09	-2.700731e+01	-8.724260e+01
9.300000e-07	-3.857192e-06	-1.281199e-09	-2.677573e+01	-8.691512e+01
9.400000e-07	-3.823285e-06	-1.266638e-09	-2.654035e+01	-8.658369e+01
9.500000e-07	-3.788898e-06	-1.260212e-09	-2.630165e+01	-8.624815e+01
9.600000e-07	-3.754126e-06	-1.248445e-09	-2.606026e+01	-8.590834e+01
9.700000e-07	-3.719017e-06	-1.228552e-09	-2.581654e+01	-8.556408e+01
9.800000e-07	-3.683658e-06	-1.222447e-09	-2.557110e+01	-8.521520e+01
9.900000e-07	-3.648163e-06	-1.222993e-09	-2.532469e+01	-8.486154e+01
1.000000e-06	-3.612548e-06	-1.215944e-09	-2.507746e+01	-8.450293e+01
1.010000e-06	-3.576754e-06	-1.212344e-09	-2.482899e+01	-8.413918e+01
1.020000e-06	-3.540789e-06	-1.216138e-09	-2.457933e+01	-8.377013e+01
1.030000e-06	-3.504649e-06	-1.210251e-09	-2.432846e+01	-8.339561e+01
1.040000e-06	-3.468287e-06	-1.199469e-09	-2.407604e+01	-8.301545e+01
1.050000e-06	-3.431604e-06	-1.193927e-09	-2.382139e+01	-8.262949e+01
1.060000e-06	-3.394618e-06	-1.186300e-09	-2.356465e+01	-8.223757e+01
1.070000e-06	-3.357441e-06	-1.173232e-09	-2.330657e+01	-8.183955e+01
1.080000e-06	-3.320070e-06	-1.170653e-09	-2.304715e+01	-8.143527e+01
1.090000e-06	-3.282388e-06	-1.169954e-09	-2.278557e+01	-8.102461e+01
1.100000e-06	-3.244412e-06	-1.161577e-09	-2.252195e+01	-8.060745e+01
1.110000e-06	-3.206170e-06	-1.155186e-09	-2.225648e+01	-8.018367e+01
1.120000e-06	-3.167671e-06	-1.153123e-09	-2.198923e+01	-7.975318e+01
1.130000e-06	-3.128993e-06	-1.142867e-09	-2.172074e+01	-7.931590e+01
1.140000e-06	-3.090150e-06	-1.131931e-09	-2.145110e+01	-7.887174e+01
1.150000e-06	-3.051159e-06	-1.126683e-09	-2.118043e+01	-7.842068e+01
1.160000e-06	-3.011996e-06	-1.118535e-09	-2.090857e+01	-7.796265e+01
1.170000e-06	-2.972627e-06	-1.106448e-09	-2.063529e+01	-7.749766e+01
1.180000e-06	-2.933068e-06	-1.099867e-09	-2.036067e+01	-7.702569e+01
1.190000e-06	-2.893349e-06	-1.093592e-09	-2.008495e+01	-7.654676e+01
1.200000e-06	-2.853520e-06	-1.081702e-09	-1.980847e+01	-7.606091e+01
1.210000e-06	-2.813637e-06	-1.072931e-09	-1.953161e+01	-7.556820e+01
1.220000e-06	-2.773677e-06	-1.069388e-09	-1.925422e+01	-7.506867e+01
1.230000e-06	-2.733522e-06	-1.063241e-09	-1.897547e+01	-7.456243e+01
1.240000e-06	-2.693042e-06	-1.057406e-09	-1.869447e+01	-7.404957e+01
1.250000e-06	-2.652310e-06	-1.056127e-09	-1.841171e+01	-7.353020e+01
1.260000e-06	-2.611433e-06	-1.049503e-09	-1.812796e+01	-7.300445e+01
1.270000e-06	-2.570192e-06	-1.036668e-09	-1.784168e+01	-7.247245e+01
1.280000e-06	-2.528631e-06	-1.025347e-09	-1.755317e+01	-7.193434e+01
1.290000e-06	-2.486848e-06	-1.015035e-09	-1.726312e+01	-7.139027e+01
1.300000e-06	-2.444705e-06	-1.003159e-09	-1.697057e+01	-7.084038e+01
1.310000e-06	-2.402258e-06	-9.954869e-10	-1.667591e+01	-7.028483e+01
1.320000e-06	-2.359554e-06	-9.917819e-10	-1.637948e+01	-6.972375e+01
1.330000e-06	-2.316602e-06	-9.857356e-10	-1.608131e+01	-6.915728e+01
1.340000e-06	-2.273465e-06	-9.784448e-10	-1.578187e+01	-6.858554e+01
1.350000e-06	-2.230183e-06	-9.709783e-10	-1.548141e+01	-6.800865e+01
1.360000e-06	-2.186801e-06	-9.592684e-10	-1.518026e+01	-6.742668e+01
1.370000e-06	-2.143290e-06	-9.451626e-10	-1.487822e+01	-6.683971e+01
1.380000e-06	-2.099610e-06	-9.312114e-10	-1.457501e+01	-6.624777e+01
1.390000e-06	-2.055829e-06	-9.209122e-10	-1.427108e+01	-6.565087e+01
1.400000e-06	-2.012000e-06	-9.127084e-10	-1.396683e+01	-6.504897e+01
1.410000e-06	-1.968126e-06	-9.068413e-10	-1.366227e+01	-6.444201e+01
1.420000e-06	-1.924188e-06	-9.004996e-10	-1.335726e+01	-6.382988e+01
1.430000e-06	-1.880086e-06	-8.920269e-10	-1.305112e+01	-6.321241e+01
1.440000e-06	-1.835801e-06	-8.816034e-10	-1.274370e+01	-6.258940e+01
1.450000e-06	-1.791387e-06	-8.690859e-10	-1.243539e+01	-6.196058e+01
1.460000e-06	-1.746876e-06	-8.556340e-10	-1.212641e+01	-6.132564e+01
1.470000e-06	-1.702321e-06	-8.421801e-10	-1.181712e+01	-6.068420e+01
1.480000e-06	-1.657649e-06	-8.316806e-10	-1.150701e+01	-6.003582e+01
1.490000e-06	-1.612786e-06	-8.224244e-10	-1.119559e+01	-5.938000e+01
1.500000e-06	-1.567733e-06	-8.109357e-10	-1.088283e+01	-5.871618e+01
1.510000e-06	-1.522523e-06	-8.004366e-10	-1.056900e+01	-5.804374e+01
1.520000e-06	-1.477307e-06	-7.917317e-10	-1.025512e+01	-5.736199e+01
1.530000e-06	-1.432027e-06	-7.821364e-10	-9.940795e+00	-5.667019e+01
1.540000e-06	-1.386616e-06	-7.708943e-10	-9.625563e+00	-5.596751e+01
1.550000e-06	-1.341082e-06	-7.602923e-10	-9.309481e+00	-5.525310e+01
1.560000e-06	-1.295441e-06	-7.496165e-10	-8.992651e+00	-5.452604e+01
1.570000e-06	-1.249778e-06	-7.365723e-10	-8.675664e+00	-5.378534e+01
1.580000e-06	-1.204042e-06	-7.241593e-10	-8.358178e+00	-5.302998e+01
1.590000e-06	-1.158241e-06	-7.133192e-10	-8.040237e+00	-5.225890e+01
1.600000e-06	-1.112341e-06	-7.016993e-10	-7.721615e+00	-5.147099e+01
1.610000e-06	-1.066310e-06	-6.890513e-10	-7.402077e+00	-5.066510e+01
1.620000e-06	-1.020180e-06	-6.769822e-10	-7.081854e+00	-4.984008e+01
1.630000e-06	-9.740144e-07	-6.652347e-10	-6.761380e+00	-4.899474e+01
1.640000e-06	-9.278849e-07	-6.535578e-10	-6.441160e+00	-4.812788e+01
1.650000e-06	-8.816592e-07	-6.390673e-10	-6.120272e+00	-4.723829e+01
1.660000e-06	-8.353637e-07	-6.216796e-10	-5.798900e+00	-4.632479e+01
1.670000e-06	-7.890107e-07	-6.034996e-10	-5.477128e+00	-4.538619e+01
1.680000e-06	-7.425545e-07	-5.859024e-10	-5.154640e+00	-4.442132e+01
1.690000e-06	-6.960410e-07	-5.685850e-10	-4.831754e+00	-4.342904e+01
1.700000e-06	-6.494243e-07	-5.503711e-10	-4.508152e+00	-4.240828e+01
1.710000e-06	-6.027709e-07	-5.351841e-10	-4.184295e+00	-4.135797e+01
1.720000e-06	-5.560764e-07	-5.229972e-10	-3.860153e+00	-4.027714e+01
1.730000e-06	-5.092847e-07	-5.101764e-10	-3.535335e+00	-3.916486e+01
1.740000e-06	-4.624590e-07	-4.939981e-10	-3.210282e+00	-3.802029e+01
1.750000e-06	-4.156986e-07	-4.727317e-10	-2.885683e+00	-3.684267e+01
1.760000e-06	-3.689017e-07	-4.507082e-10	-2.560829e+00	-3.563134e+01
1.770000e-06	-3.220484e-07	-4.305979e-10	-2.235585e+00	-3.438573e+01
1.780000e-06	-2.752038e-07	-4.135645e-10	-1.910400e+00	-3.310539e+01
1.790000e-06	-2.283124e-07	-3.991621e-10	-1.584891e+00	-3.178997e+01
1.800000e-06	-1.814055e-07	-3.831667e-10	-1.259274e+00	-3.043926e+01
1.810000e-06	-1.345652e-07	-3.639063e-10	-9.341203e-01	-2.905316e+01
1.820000e-06	-8.772572e-08	-3.442008e-10	-6.089715e-01	-2.763172e+01
1.830000e-06	-4.092778e-08	-3.236151e-10	-2.841111e-01	-2.617511e+01
1.840000e-06	5.852304e-09	-3.023226e-10	4.062533e-02	-2.468364e+01
1.850000e-06	5.267672e-08	-2.799268e-10	3.656695e-01	-2.315779e+01
1.860000e-06	9.949256e-08	-2.575148e-10	6.906541e-01	-2.159814e+01
1.870000e-06	1.462746e-07	-2.357141e-10	1.015404e+00	-2.000545e+01
1.880000e-06	1.931131e-07	-2.146517e-10	1.340546e+00	-1.838060e+01
1.890000e-06	2.400342e-07	-1.965538e-10	1.666261e+00	-1.672461e+01
1.900000e-06	2.869219e-07	-1.743790e-10	1.991745e+00	-1.503867e+01
1.910000e-06	3.337521e-07	-1.502988e-10	2.316829e+00	-1.332407e+01
1.920000e-06	3.805126e-07	-1.285857e-10	2.641429e+00	-1.158225e+01
1.930000e-06	4.272358e-07	-1.050990e-10	2.965771e+00	-9.814760e+00
1.940000e-06	4.738643e-07	-7.894403e-11	3.289456e+00	-8.023294e+00
1.950000e-06	5.204288e-07	-5.360398e-11	3.612695e+00	-6.209638e+00
1.960000e-06	5.671112e-07	-3.147091e-11	3.936754e+00	-4.375691e+00
1.970000e-06	6.138075e-07	-7.596443e-12	4.260908e+00	-2.523444e+00
1.980000e-06	6.603810e-07	1.631370e-11	4.584211e+00	-6.549765e-01
1.990000e-06	7.068570e-07	4.268997e-11	4.906836e+00	1.227556e+00
2.000000e-06	7.532625e-07	7.378022e-11	5.228972e+00	3.121933e+00
2.010000e-06	7.996537e-07	1.071199e-10	5.551009e+00	5.025879e+00
2.020000e-06	8.459635e-07	1.356967e-10	5.872481e+00	6.937075e+00
2.030000e-06	8.921630e-07	1.580286e-10	6.193187e+00	8.853171e+00
2.040000e-06	9.383666e-07	1.784805e-10	6.513922e+00	1.077180e+01
2.050000e-06	9.845363e-07	2.010930e-10	6.834421e+00	1.269057e+01
2.060000e-06	1.030569e-06	2.258433e-10	7.153972e+00	1.460713e+01
2.070000e-06	1.076528e-06	2.511901e-10	7.473003e+00	1.651911e+01
2.080000e-06	1.122400e-06	2.807485e-10	7.791438e+00	1.842419e+01
2.090000e-06	1.168190e-06	3.121669e-10	8.109303e+00	2.032008e+01
2.100000e-06	1.213937e-06	3.394125e-10	8.426866e+00	2.220454e+01
2.110000e-06	1.259660e-06	3.637022e-10	8.744267e+00	2.407539e+01
2.120000e-06	1.305282e-06	3.861344e-10	9.060965e+00	2.593054e+01
2.130000e-06	1.350752e-06	4.080201e-10	9.376606e+00	2.776796e+01
2.140000e-06	1.396181e-06	4.312496e-10	9.691964e+00	2.958574e+01
2.150000e-06	1.441563e-06	4.573819e-10	1.000699e+01	3.138202e+01
2.160000e-06	1.486765e-06	4.852881e-10	1.032077e+01	3.315511e+01
2.170000e-06	1.531833e-06	5.106644e-10	1.063363e+01	3.490338e+01
2.180000e-06	1.576794e-06	5.335668e-10	1.094573e+01	3.662534e+01
2.190000e-06	1.621655e-06	5.556358e-10	1.125715e+01	3.831964e+01
2.200000e-06	1.666425e-06	5.797651e-10	1.156793e+01	3.998503e+01
2.210000e-06	1.711014e-06	6.012437e-10	1.187746e+01	4.162041e+01
2.220000e-06	1.755511e-06	6.207794e-10	1.218635e+01	4.322481e+01
2.230000e-06	1.799897e-06	6.405722e-10	1.249446e+01	4.479739e+01
2.240000e-06	1.844111e-06	6.599558e-10	1.280139e+01	4.633744e+01
2.250000e-06	1.888179e-06	6.790469e-10	1.310730e+01	4.784440e+01
2.260000e-06	1.932142e-06	7.009050e-10	1.341248e+01	4.931783e+01
2.270000e-06	1.976040e-06	7.239851e-10	1.371721e+01	5.075742e+01
2.280000e-06	2.019807e-06	7.464678e-10	1.402103e+01	5.216298e+01
2.290000e-06	2.063480e-06	7.673931e-10	1.432420e+01	5.353445e+01
2.300000e-06	2.107148e-06	7.855283e-10	1.462733e+01	5.487189e+01
2.310000e-06	2.150782e-06	8.004903e-10	1.493022e+01	5.617545e+01
2.320000e-06	2.194365e-06	8.161752e-10	1.523277e+01	5.744540e+01
2.330000e-06	2.237853e-06	8.319592e-10	1.553465e+01	5.868211e+01
2.340000e-06	2.281231e-06	8.480478e-10	1.583577e+01	5.988603e+01
2.350000e-06	2.324493e-06	8.653075e-10	1.613608e+01	6.105768e+01
2.360000e-06	2.367630e-06	8.813110e-10	1.643553e+01	6.219769e+01
2.370000e-06	2.410543e-06	8.965784e-10	1.673343e+01	6.330671e+01
2.380000e-06	2.453040e-06	9.117014e-10	1.702843e+01	6.438548e+01
2.390000e-06	2.495195e-06	9.256351e-10	1.732106e+01	6.543477e+01
2.400000e-06	2.537018e-06	9.382929e-10	1.761138e+01	6.645540e+01
2.410000e-06	2.578516e-06	9.529096e-10	1.789946e+01	6.744820e+01
2.420000e-06	2.619683e-06	9.685722e-10	1.818523e+01	6.841405e+01
2.430000e-06	2.660482e-06	9.831047e-10	1.846845e+01	6.935382e+01
2.440000e-06	2.700996e-06	9.951840e-10	1.874968e+01	7.026840e+01
2.450000e-06	2.741212e-06	1.004325e-09	1.902885e+01	7.115867e+01
2.460000e-06	2.781248e-06	1.013021e-09	1.930678e+01	7.202551e+01
2.470000e-06	2.821147e-06	1.024314e-09	1.958374e+01	7.286979e+01
2.480000e-06	2.860905e-06	1.039483e-09	1.985974e+01	7.369233e+01
2.490000e-06	2.900573e-06	1.056600e-09	2.013510e+01	7.449396e+01
2.500000e-06	2.940177e-06	1.070957e-09	2.041002e+01	7.527545e+01
2.510000e-06	2.979651e-06	1.081899e-09	2.068404e+01	7.603755e+01
2.520000e-06	3.018967e-06	1.089275e-09	2.095696e+01	7.678098e+01
2.530000e-06	3.058038e-06	1.096191e-09	2.122819e+01	7.750640e+01
2.540000e-06	3.096846e-06	1.104019e-09	2.149758e+01	7.821443e+01
2.550000e-06	3.135463e-06	1.112421e-09	2.176565e+01	7.890565e+01
2.560000e-06	3.173725e-06	1.122378e-09	2.203126e+01	7.958060e+01
2.570000e-06	3.211730e-06	1.133539e-09	2.229508e+01	8.023976e+01
2.580000e-06	3.249667e-06	1.143504e-09	2.255843e+01	8.088357e+01
2.590000e-06	3.287425e-06	1.151612e-09	2.282054e+01	8.151243e+01
2.600000e-06	3.324956e-06	1.159103e-09	2.308107e+01	8.212669e+01
2.610000e-06	3.362283e-06	1.166853e-09	2.334019e+01	8.272667e+01
2.620000e-06	3.399357e-06	1.175376e-09	2.359754e+01	8.331265e+01
2.630000e-06	3.436239e-06	1.183877e-09	2.385357e+01	8.388486e+01
2.640000e-06	3.472886e-06	1.190345e-09	2.410797e+01	8.444352e+01
2.650000e-06	3.509234e-06	1.196967e-09	2.436028e+01	8.498880e+01
2.660000e-06	3.545271e-06	1.204870e-09	2.461044e+01	8.552086e+01
2.670000e-06	3.581095e-06	1.210804e-09	2.485912e+01	8.603985e+01
2.680000e-06	3.616847e-06	1.217362e-09	2.510730e+01	8.654588e+01
2.690000e-06	3.652441e-06	1.226568e-09	2.535439e+01	8.703906e+01
2.700000e-06	3.687869e-06	1.236016e-09	2.560032e+01	8.751949e+01
2.710000e-06	3.723159e-06	1.244320e-09	2.584530e+01	8.798728e+01
2.720000e-06	3.758251e-06	1.252456e-09	2.608890e+01	8.844253e+01
2.730000e-06	3.792969e-06	1.258665e-09	2.632990e+01	8.888535e+01
2.740000e-06	3.827273e-06	1.262684e-09	2.656804e+01	8.931584e+01
2.750000e-06	3.861093e-06	1.267295e-09	2.680280e+01	8.973414e+01
2.760000e-06	3.894422e-06	1.272204e-09	2.703417e+01	9.014039e+01
2.770000e-06	3.927435e-06	1.276439e-09	2.726334e+01	9.053474e+01
2.780000e-06	3.960011e-06	1.280647e-09	2.748947e+01	9.091738e+01
2.790000e-06	3.992120e-06	1.287516e-09	2.771237e+01	9.128852e+01
2.800000e-06	4.023962e-06	1.295956e-09	2.793340e+01	9.164836e+01
2.810000e-06	4.055683e-06	1.302848e-09	2.815361e+01	9.199718e+01
2.820000e-06	4.087283e-06	1.309299e-09	2.837297e+01	9.233523e+01
2.830000e-06	4.118693e-06	1.314686e-09	2.859100e+01	9.266282e+01
2.840000e-06	4.149879e-06	1.318586e-09	2.880749e+01	9.298028e+01
2.850000e-06	4.180835e-06	1.321666e-09	2.902238e+01	9.328794e+01
2.860000e-06	4.211510e-06	1.326149e-09	2.923532e+01	9.358619e+01
2.870000e-06	4.241800e-06	1.333689e-09	2.944558e+01	9.387542e+01
2.880000e-06	4.271769e-06	1.342015e-09	2.965362e+01	9.415603e+01
2.890000e-06	4.301482e-06	1.350755e-09	2.985988e+01	9.442845e+01
2.900000e-06	4.330870e-06	1.359435e-09	3.006389e+01	9.469312e+01
