# Temperatura_=_-11.93
# Concentracion g/m^3_=_1620.0
# C_Vs_to_Am_M_A/Vsm_=_65563218390.804596
# pendiente_HvsI_1/m_=_3716.3
# ordenada_HvsI_A/m_=_1297.0
# frecuencia_Hz_=_135109.13416124397

Tiempo_(s)	Campo_(V.s)	Magnetizacion_(V.s)	Campo_(kA/m)	Magnetizacion_(A/m)
0.000000e+00	-5.524459e-06	-8.716327e-10	-3.836946e+01	-5.952397e+01
1.000000e-08	-5.524648e-06	-8.716498e-10	-3.837077e+01	-5.949585e+01
2.000000e-08	-5.524619e-06	-8.713239e-10	-3.837057e+01	-5.947044e+01
3.000000e-08	-5.524329e-06	-8.703969e-10	-3.836856e+01	-5.944771e+01
4.000000e-08	-5.523603e-06	-8.671163e-10	-3.836351e+01	-5.942755e+01
5.000000e-08	-5.522442e-06	-8.606258e-10	-3.835545e+01	-5.940985e+01
6.000000e-08	-5.520824e-06	-8.549447e-10	-3.834421e+01	-5.939446e+01
7.000000e-08	-5.518582e-06	-8.593042e-10	-3.832864e+01	-5.938122e+01
8.000000e-08	-5.515695e-06	-8.687762e-10	-3.830859e+01	-5.936992e+01
9.000000e-08	-5.512243e-06	-8.495051e-10	-3.828462e+01	-5.936036e+01
1.000000e-07	-5.508300e-06	-8.280822e-10	-3.825723e+01	-5.935230e+01
1.100000e-07	-5.504000e-06	-8.603163e-10	-3.822736e+01	-5.934549e+01
1.200000e-07	-5.499466e-06	-8.690933e-10	-3.819587e+01	-5.933966e+01
1.300000e-07	-5.494700e-06	-8.370788e-10	-3.816277e+01	-5.933456e+01
1.400000e-07	-5.489583e-06	-8.197240e-10	-3.812723e+01	-5.932990e+01
1.500000e-07	-5.484060e-06	-8.411523e-10	-3.808887e+01	-5.932540e+01
1.600000e-07	-5.478199e-06	-8.885543e-10	-3.804816e+01	-5.932078e+01
1.700000e-07	-5.471984e-06	-8.399318e-10	-3.800500e+01	-5.931576e+01
1.800000e-07	-5.465363e-06	-8.280851e-10	-3.795901e+01	-5.931008e+01
1.900000e-07	-5.458252e-06	-8.493495e-10	-3.790963e+01	-5.930347e+01
2.000000e-07	-5.450762e-06	-9.092402e-10	-3.785760e+01	-5.929569e+01
2.100000e-07	-5.443010e-06	-8.764694e-10	-3.780377e+01	-5.928651e+01
2.200000e-07	-5.435015e-06	-8.577558e-10	-3.774824e+01	-5.927570e+01
2.300000e-07	-5.426791e-06	-8.592859e-10	-3.769112e+01	-5.926308e+01
2.400000e-07	-5.418243e-06	-8.921062e-10	-3.763175e+01	-5.924847e+01
2.500000e-07	-5.409162e-06	-8.861560e-10	-3.756868e+01	-5.923172e+01
2.600000e-07	-5.399476e-06	-8.876247e-10	-3.750141e+01	-5.921270e+01
2.700000e-07	-5.389069e-06	-8.911554e-10	-3.742913e+01	-5.919132e+01
2.800000e-07	-5.378062e-06	-8.836485e-10	-3.735268e+01	-5.916750e+01
2.900000e-07	-5.366684e-06	-8.830137e-10	-3.727365e+01	-5.914120e+01
3.000000e-07	-5.354869e-06	-8.800338e-10	-3.719159e+01	-5.911239e+01
3.100000e-07	-5.342645e-06	-8.943602e-10	-3.710669e+01	-5.908109e+01
3.200000e-07	-5.330033e-06	-8.920444e-10	-3.701909e+01	-5.904733e+01
3.300000e-07	-5.317036e-06	-9.173047e-10	-3.692883e+01	-5.901117e+01
3.400000e-07	-5.303654e-06	-8.968432e-10	-3.683588e+01	-5.897268e+01
3.500000e-07	-5.289886e-06	-9.061006e-10	-3.674026e+01	-5.893198e+01
3.600000e-07	-5.275754e-06	-8.968228e-10	-3.664211e+01	-5.888920e+01
3.700000e-07	-5.261037e-06	-8.959637e-10	-3.653989e+01	-5.884447e+01
3.800000e-07	-5.245763e-06	-8.694676e-10	-3.643381e+01	-5.879795e+01
3.900000e-07	-5.230077e-06	-9.073769e-10	-3.632486e+01	-5.874983e+01
4.000000e-07	-5.213807e-06	-8.951006e-10	-3.621186e+01	-5.870028e+01
4.100000e-07	-5.197075e-06	-8.690784e-10	-3.609565e+01	-5.864951e+01
4.200000e-07	-5.180061e-06	-8.811275e-10	-3.597748e+01	-5.859772e+01
4.300000e-07	-5.162778e-06	-9.211141e-10	-3.585745e+01	-5.854511e+01
4.400000e-07	-5.145182e-06	-8.726367e-10	-3.573524e+01	-5.849188e+01
4.500000e-07	-5.127192e-06	-8.569432e-10	-3.561029e+01	-5.843824e+01
4.600000e-07	-5.108744e-06	-8.981654e-10	-3.548216e+01	-5.838439e+01
4.700000e-07	-5.089925e-06	-8.819679e-10	-3.535145e+01	-5.833052e+01
4.800000e-07	-5.070815e-06	-8.315794e-10	-3.521873e+01	-5.827682e+01
4.900000e-07	-5.051413e-06	-8.760129e-10	-3.508397e+01	-5.822344e+01
5.000000e-07	-5.031756e-06	-9.019700e-10	-3.494745e+01	-5.817056e+01
5.100000e-07	-5.011895e-06	-8.566570e-10	-3.480951e+01	-5.811831e+01
5.200000e-07	-4.991798e-06	-8.683440e-10	-3.466992e+01	-5.806680e+01
5.300000e-07	-4.971347e-06	-9.066561e-10	-3.452789e+01	-5.801615e+01
5.400000e-07	-4.950477e-06	-8.652700e-10	-3.438293e+01	-5.796643e+01
5.500000e-07	-4.929225e-06	-8.428060e-10	-3.423533e+01	-5.791771e+01
5.600000e-07	-4.907665e-06	-8.859832e-10	-3.408559e+01	-5.787003e+01
5.700000e-07	-4.885783e-06	-8.686686e-10	-3.393361e+01	-5.782341e+01
5.800000e-07	-4.863590e-06	-8.406008e-10	-3.377947e+01	-5.777783e+01
5.900000e-07	-4.841080e-06	-8.727363e-10	-3.362314e+01	-5.773328e+01
6.000000e-07	-4.818158e-06	-8.834138e-10	-3.346393e+01	-5.768971e+01
6.100000e-07	-4.794902e-06	-8.425318e-10	-3.330241e+01	-5.764705e+01
6.200000e-07	-4.771411e-06	-8.572949e-10	-3.313925e+01	-5.760522e+01
6.300000e-07	-4.747663e-06	-8.727672e-10	-3.297431e+01	-5.756410e+01
6.400000e-07	-4.723673e-06	-8.556975e-10	-3.280770e+01	-5.752358e+01
6.500000e-07	-4.699467e-06	-8.517897e-10	-3.263958e+01	-5.748352e+01
6.600000e-07	-4.674918e-06	-8.757665e-10	-3.246907e+01	-5.744378e+01
6.700000e-07	-4.649853e-06	-8.617423e-10	-3.229499e+01	-5.740419e+01
6.800000e-07	-4.624257e-06	-8.549876e-10	-3.211721e+01	-5.736459e+01
6.900000e-07	-4.598172e-06	-8.627749e-10	-3.193604e+01	-5.732479e+01
7.000000e-07	-4.571525e-06	-8.657863e-10	-3.175097e+01	-5.728463e+01
7.100000e-07	-4.544377e-06	-8.527659e-10	-3.156242e+01	-5.724392e+01
7.200000e-07	-4.516905e-06	-8.571197e-10	-3.137162e+01	-5.720249e+01
7.300000e-07	-4.489183e-06	-8.550358e-10	-3.117907e+01	-5.716014e+01
7.400000e-07	-4.461283e-06	-8.533147e-10	-3.098530e+01	-5.711672e+01
7.500000e-07	-4.433185e-06	-8.531984e-10	-3.079014e+01	-5.707205e+01
7.600000e-07	-4.404866e-06	-8.596848e-10	-3.059346e+01	-5.702597e+01
7.700000e-07	-4.376300e-06	-8.566880e-10	-3.039506e+01	-5.697835e+01
7.800000e-07	-4.347349e-06	-8.535994e-10	-3.019399e+01	-5.692903e+01
7.900000e-07	-4.318033e-06	-8.496863e-10	-2.999037e+01	-5.687791e+01
8.000000e-07	-4.288454e-06	-8.472628e-10	-2.978493e+01	-5.682488e+01
8.100000e-07	-4.258586e-06	-8.451771e-10	-2.957749e+01	-5.676984e+01
8.200000e-07	-4.228493e-06	-8.464735e-10	-2.936848e+01	-5.671271e+01
8.300000e-07	-4.198182e-06	-8.500818e-10	-2.915796e+01	-5.665345e+01
8.400000e-07	-4.167506e-06	-8.512144e-10	-2.894491e+01	-5.659200e+01
8.500000e-07	-4.136487e-06	-8.533438e-10	-2.872947e+01	-5.652835e+01
8.600000e-07	-4.105183e-06	-8.528263e-10	-2.851205e+01	-5.646247e+01
8.700000e-07	-4.073655e-06	-8.513992e-10	-2.829307e+01	-5.639439e+01
8.800000e-07	-4.042001e-06	-8.466039e-10	-2.807322e+01	-5.632413e+01
8.900000e-07	-4.010213e-06	-8.456200e-10	-2.785245e+01	-5.625171e+01
9.000000e-07	-3.978245e-06	-8.416311e-10	-2.763042e+01	-5.617719e+01
9.100000e-07	-3.945959e-06	-8.440967e-10	-2.740618e+01	-5.610064e+01
9.200000e-07	-3.913342e-06	-8.460770e-10	-2.717964e+01	-5.602211e+01
9.300000e-07	-3.880434e-06	-8.470716e-10	-2.695108e+01	-5.594171e+01
9.400000e-07	-3.847118e-06	-8.421234e-10	-2.671969e+01	-5.585950e+01
9.500000e-07	-3.813327e-06	-8.430524e-10	-2.648500e+01	-5.577558e+01
9.600000e-07	-3.779093e-06	-8.370285e-10	-2.624723e+01	-5.569004e+01
9.700000e-07	-3.744415e-06	-8.289101e-10	-2.600638e+01	-5.560298e+01
9.800000e-07	-3.709328e-06	-8.207325e-10	-2.576268e+01	-5.551450e+01
9.900000e-07	-3.673935e-06	-8.211649e-10	-2.551687e+01	-5.542468e+01
1.000000e-06	-3.638308e-06	-8.175806e-10	-2.526942e+01	-5.533361e+01
1.010000e-06	-3.602540e-06	-8.163755e-10	-2.502101e+01	-5.524136e+01
1.020000e-06	-3.566637e-06	-8.174892e-10	-2.477164e+01	-5.514801e+01
1.030000e-06	-3.530550e-06	-8.194536e-10	-2.452101e+01	-5.505362e+01
1.040000e-06	-3.494285e-06	-8.168661e-10	-2.426913e+01	-5.495824e+01
1.050000e-06	-3.457772e-06	-8.161268e-10	-2.401553e+01	-5.486189e+01
1.060000e-06	-3.420973e-06	-8.121777e-10	-2.375995e+01	-5.476461e+01
1.070000e-06	-3.383956e-06	-8.073837e-10	-2.350285e+01	-5.466639e+01
1.080000e-06	-3.346750e-06	-8.060875e-10	-2.324445e+01	-5.456724e+01
1.090000e-06	-3.309287e-06	-8.084282e-10	-2.298425e+01	-5.446712e+01
1.100000e-06	-3.271551e-06	-8.085774e-10	-2.272216e+01	-5.436600e+01
1.110000e-06	-3.233587e-06	-8.064935e-10	-2.245848e+01	-5.426382e+01
1.120000e-06	-3.195433e-06	-8.072825e-10	-2.219349e+01	-5.416050e+01
1.130000e-06	-3.157049e-06	-8.062962e-10	-2.192690e+01	-5.405597e+01
1.140000e-06	-3.118494e-06	-8.028846e-10	-2.165912e+01	-5.395012e+01
1.150000e-06	-3.079779e-06	-7.985880e-10	-2.139023e+01	-5.384284e+01
1.160000e-06	-3.040744e-06	-7.958861e-10	-2.111912e+01	-5.373399e+01
1.170000e-06	-3.001477e-06	-7.921840e-10	-2.084639e+01	-5.362344e+01
1.180000e-06	-2.962066e-06	-7.898403e-10	-2.057267e+01	-5.351104e+01
1.190000e-06	-2.922513e-06	-7.871147e-10	-2.029796e+01	-5.339662e+01
1.200000e-06	-2.882837e-06	-7.839058e-10	-2.002239e+01	-5.328003e+01
1.210000e-06	-2.843030e-06	-7.782220e-10	-1.974592e+01	-5.316109e+01
1.220000e-06	-2.803080e-06	-7.762296e-10	-1.946845e+01	-5.303963e+01
1.230000e-06	-2.762980e-06	-7.739701e-10	-1.918994e+01	-5.291546e+01
1.240000e-06	-2.722759e-06	-7.728089e-10	-1.891059e+01	-5.278841e+01
1.250000e-06	-2.682430e-06	-7.707946e-10	-1.863049e+01	-5.265830e+01
1.260000e-06	-2.641829e-06	-7.719608e-10	-1.834851e+01	-5.252494e+01
1.270000e-06	-2.600965e-06	-7.705961e-10	-1.806469e+01	-5.238817e+01
1.280000e-06	-2.559815e-06	-7.683137e-10	-1.777888e+01	-5.224780e+01
1.290000e-06	-2.518296e-06	-7.646752e-10	-1.749052e+01	-5.210367e+01
1.300000e-06	-2.476559e-06	-7.618101e-10	-1.720064e+01	-5.195562e+01
1.310000e-06	-2.434623e-06	-7.578265e-10	-1.690938e+01	-5.180349e+01
1.320000e-06	-2.392415e-06	-7.553014e-10	-1.661623e+01	-5.164713e+01
1.330000e-06	-2.349833e-06	-7.535089e-10	-1.632048e+01	-5.148639e+01
1.340000e-06	-2.306942e-06	-7.518824e-10	-1.602258e+01	-5.132112e+01
1.350000e-06	-2.263808e-06	-7.502238e-10	-1.572300e+01	-5.115119e+01
1.360000e-06	-2.220373e-06	-7.482494e-10	-1.542133e+01	-5.097646e+01
1.370000e-06	-2.176782e-06	-7.438716e-10	-1.511858e+01	-5.079681e+01
1.380000e-06	-2.133118e-06	-7.382859e-10	-1.481531e+01	-5.061209e+01
1.390000e-06	-2.089375e-06	-7.337661e-10	-1.451150e+01	-5.042218e+01
1.400000e-06	-2.045617e-06	-7.299397e-10	-1.420759e+01	-5.022693e+01
1.410000e-06	-2.001864e-06	-7.266197e-10	-1.390370e+01	-5.002620e+01
1.420000e-06	-1.958016e-06	-7.249061e-10	-1.359916e+01	-4.981984e+01
1.430000e-06	-1.914035e-06	-7.245032e-10	-1.329370e+01	-4.960768e+01
1.440000e-06	-1.869919e-06	-7.218603e-10	-1.298729e+01	-4.938956e+01
1.450000e-06	-1.825721e-06	-7.186851e-10	-1.268032e+01	-4.916526e+01
1.460000e-06	-1.781468e-06	-7.140177e-10	-1.237297e+01	-4.893459e+01
1.470000e-06	-1.737068e-06	-7.074864e-10	-1.206459e+01	-4.869730e+01
1.480000e-06	-1.692545e-06	-6.990626e-10	-1.175536e+01	-4.845313e+01
1.490000e-06	-1.647855e-06	-6.941816e-10	-1.144498e+01	-4.820179e+01
1.500000e-06	-1.602896e-06	-6.904251e-10	-1.113272e+01	-4.794296e+01
1.510000e-06	-1.557809e-06	-6.876403e-10	-1.081957e+01	-4.767629e+01
1.520000e-06	-1.512691e-06	-6.846646e-10	-1.050621e+01	-4.740137e+01
1.530000e-06	-1.467463e-06	-6.814503e-10	-1.019209e+01	-4.711778e+01
1.540000e-06	-1.422099e-06	-6.781737e-10	-9.877019e+00	-4.682504e+01
1.550000e-06	-1.376699e-06	-6.747253e-10	-9.561695e+00	-4.652264e+01
1.560000e-06	-1.331250e-06	-6.707189e-10	-9.246035e+00	-4.621003e+01
1.570000e-06	-1.285637e-06	-6.649989e-10	-8.929233e+00	-4.588660e+01
1.580000e-06	-1.239884e-06	-6.558644e-10	-8.611465e+00	-4.555169e+01
1.590000e-06	-1.194102e-06	-6.481453e-10	-8.293488e+00	-4.520463e+01
1.600000e-06	-1.148291e-06	-6.446478e-10	-7.975316e+00	-4.484468e+01
1.610000e-06	-1.102362e-06	-6.422111e-10	-7.656319e+00	-4.447106e+01
1.620000e-06	-1.056372e-06	-6.371490e-10	-7.336903e+00	-4.408295e+01
1.630000e-06	-1.010371e-06	-6.317344e-10	-7.017409e+00	-4.367950e+01
1.640000e-06	-9.643383e-07	-6.242510e-10	-6.697695e+00	-4.325981e+01
1.650000e-06	-9.181811e-07	-6.141880e-10	-6.377115e+00	-4.282297e+01
1.660000e-06	-8.718539e-07	-6.027952e-10	-6.055355e+00	-4.236802e+01
1.670000e-06	-8.254687e-07	-5.912829e-10	-5.733193e+00	-4.189399e+01
1.680000e-06	-7.790730e-07	-5.801423e-10	-5.410956e+00	-4.139989e+01
1.690000e-06	-7.326442e-07	-5.706299e-10	-5.088491e+00	-4.088471e+01
1.700000e-06	-6.861950e-07	-5.630658e-10	-4.765884e+00	-4.034745e+01
1.710000e-06	-6.396597e-07	-5.564836e-10	-4.442679e+00	-3.978710e+01
1.720000e-06	-5.930939e-07	-5.510475e-10	-4.119262e+00	-3.920264e+01
1.730000e-06	-5.464766e-07	-5.428663e-10	-3.795486e+00	-3.859311e+01
1.740000e-06	-4.997983e-07	-5.318936e-10	-3.471288e+00	-3.795752e+01
1.750000e-06	-4.531091e-07	-5.195977e-10	-3.147014e+00	-3.729494e+01
1.760000e-06	-4.063652e-07	-5.052333e-10	-2.822360e+00	-3.660448e+01
1.770000e-06	-3.595628e-07	-4.900590e-10	-2.497300e+00	-3.588527e+01
1.780000e-06	-3.127217e-07	-4.796623e-10	-2.171971e+00	-3.513653e+01
1.790000e-06	-2.658978e-07	-4.732718e-10	-1.846761e+00	-3.435751e+01
1.800000e-06	-2.191146e-07	-4.670527e-10	-1.521834e+00	-3.354755e+01
1.810000e-06	-1.722965e-07	-4.572050e-10	-1.196665e+00	-3.270605e+01
1.820000e-06	-1.253594e-07	-4.421861e-10	-8.706688e-01	-3.183251e+01
1.830000e-06	-7.838223e-08	-4.260020e-10	-5.443943e-01	-3.092650e+01
1.840000e-06	-3.144910e-08	-4.093299e-10	-2.184259e-01	-2.998772e+01
1.850000e-06	1.550219e-08	-3.934711e-10	1.076686e-01	-2.901595e+01
1.860000e-06	6.250236e-08	-3.797366e-10	4.341025e-01	-2.801108e+01
1.870000e-06	1.094462e-07	-3.683365e-10	7.601450e-01	-2.697313e+01
1.880000e-06	1.563537e-07	-3.578053e-10	1.085936e+00	-2.590222e+01
1.890000e-06	2.032279e-07	-3.461957e-10	1.411495e+00	-2.479860e+01
1.900000e-06	2.500171e-07	-3.306669e-10	1.736463e+00	-2.366267e+01
1.910000e-06	2.967789e-07	-3.118055e-10	2.061242e+00	-2.249490e+01
1.920000e-06	3.435814e-07	-2.942639e-10	2.386303e+00	-2.129595e+01
1.930000e-06	3.903733e-07	-2.770616e-10	2.711291e+00	-2.006657e+01
1.940000e-06	4.370063e-07	-2.612661e-10	3.035174e+00	-1.880764e+01
1.950000e-06	4.835920e-07	-2.446857e-10	3.358729e+00	-1.752020e+01
1.960000e-06	5.302042e-07	-2.287854e-10	3.682469e+00	-1.620536e+01
1.970000e-06	5.767438e-07	-2.136065e-10	4.005704e+00	-1.486441e+01
1.980000e-06	6.231924e-07	-1.953388e-10	4.328307e+00	-1.349870e+01
1.990000e-06	6.695723e-07	-1.739232e-10	4.650433e+00	-1.210974e+01
2.000000e-06	7.159371e-07	-1.491983e-10	4.972454e+00	-1.069911e+01
2.010000e-06	7.623550e-07	-1.243391e-10	5.294844e+00	-9.268509e+00
2.020000e-06	8.087855e-07	-1.030870e-10	5.617321e+00	-7.819724e+00
2.030000e-06	8.550766e-07	-8.595878e-11	5.938830e+00	-6.354621e+00
2.040000e-06	9.012582e-07	-7.140343e-11	6.259579e+00	-4.875146e+00
2.050000e-06	9.473642e-07	-5.463560e-11	6.579803e+00	-3.383308e+00
2.060000e-06	9.933897e-07	-3.456485e-11	6.899467e+00	-1.881173e+00
2.070000e-06	1.039373e-06	-1.085483e-11	7.218842e+00	-3.708507e-01
2.080000e-06	1.085312e-06	1.571634e-11	7.537899e+00	1.145511e+00
2.090000e-06	1.131222e-06	4.278712e-11	7.856762e+00	2.665741e+00
2.100000e-06	1.177076e-06	6.722044e-11	8.175235e+00	4.187654e+00
2.110000e-06	1.222846e-06	8.710596e-11	8.493126e+00	5.709065e+00
2.120000e-06	1.268506e-06	1.034905e-10	8.810252e+00	7.227795e+00
2.130000e-06	1.314040e-06	1.190224e-10	9.126505e+00	8.741685e+00
2.140000e-06	1.359513e-06	1.364558e-10	9.442329e+00	1.024861e+01
2.150000e-06	1.404897e-06	1.579031e-10	9.757540e+00	1.174647e+01
2.160000e-06	1.450204e-06	1.840822e-10	1.007222e+01	1.323324e+01
2.170000e-06	1.495424e-06	2.103860e-10	1.038629e+01	1.470695e+01
2.180000e-06	1.540492e-06	2.315943e-10	1.069930e+01	1.616568e+01
2.190000e-06	1.585427e-06	2.486951e-10	1.101139e+01	1.760762e+01
2.200000e-06	1.630287e-06	2.651612e-10	1.132296e+01	1.903101e+01
2.210000e-06	1.675007e-06	2.818200e-10	1.163355e+01	2.043422e+01
2.220000e-06	1.719512e-06	2.980620e-10	1.194266e+01	2.181569e+01
2.230000e-06	1.763909e-06	3.155111e-10	1.225101e+01	2.317401e+01
2.240000e-06	1.808232e-06	3.345486e-10	1.255886e+01	2.450782e+01
2.250000e-06	1.852435e-06	3.527171e-10	1.286586e+01	2.581594e+01
2.260000e-06	1.896506e-06	3.708381e-10	1.317195e+01	2.709725e+01
2.270000e-06	1.940461e-06	3.899785e-10	1.347723e+01	2.835080e+01
2.280000e-06	1.984318e-06	4.084785e-10	1.378184e+01	2.957574e+01
2.290000e-06	2.028140e-06	4.240311e-10	1.408620e+01	3.077134e+01
2.300000e-06	2.071919e-06	4.399982e-10	1.439026e+01	3.193701e+01
2.310000e-06	2.115651e-06	4.565129e-10	1.469400e+01	3.307226e+01
2.320000e-06	2.159326e-06	4.720614e-10	1.499734e+01	3.417673e+01
2.330000e-06	2.202854e-06	4.875023e-10	1.529965e+01	3.525019e+01
2.340000e-06	2.246192e-06	5.016823e-10	1.560065e+01	3.629250e+01
2.350000e-06	2.289367e-06	5.150551e-10	1.590052e+01	3.730365e+01
2.360000e-06	2.332353e-06	5.280370e-10	1.619907e+01	3.828372e+01
2.370000e-06	2.375100e-06	5.398794e-10	1.649597e+01	3.923289e+01
2.380000e-06	2.417580e-06	5.509064e-10	1.679101e+01	4.015144e+01
2.390000e-06	2.459836e-06	5.637111e-10	1.708449e+01	4.103973e+01
2.400000e-06	2.501740e-06	5.783132e-10	1.737553e+01	4.189820e+01
2.410000e-06	2.543196e-06	5.921833e-10	1.766346e+01	4.272736e+01
2.420000e-06	2.584390e-06	6.046582e-10	1.794956e+01	4.352778e+01
2.430000e-06	2.625418e-06	6.160406e-10	1.823452e+01	4.430010e+01
2.440000e-06	2.666187e-06	6.271873e-10	1.851768e+01	4.504500e+01
2.450000e-06	2.706674e-06	6.378184e-10	1.879888e+01	4.576318e+01
2.460000e-06	2.746959e-06	6.482337e-10	1.907867e+01	4.645542e+01
2.470000e-06	2.787064e-06	6.593896e-10	1.935721e+01	4.712247e+01
2.480000e-06	2.827049e-06	6.709774e-10	1.963492e+01	4.776514e+01
2.490000e-06	2.866927e-06	6.823477e-10	1.991190e+01	4.838422e+01
2.500000e-06	2.906655e-06	6.922616e-10	2.018782e+01	4.898053e+01
2.510000e-06	2.946224e-06	7.015596e-10	2.046264e+01	4.955486e+01
2.520000e-06	2.985624e-06	7.093997e-10	2.073629e+01	5.010802e+01
2.530000e-06	3.024856e-06	7.157204e-10	2.100877e+01	5.064077e+01
2.540000e-06	3.063865e-06	7.224564e-10	2.127970e+01	5.115389e+01
2.550000e-06	3.102626e-06	7.288723e-10	2.154891e+01	5.164809e+01
2.560000e-06	3.141165e-06	7.349336e-10	2.181658e+01	5.212409e+01
2.570000e-06	3.179481e-06	7.401084e-10	2.208270e+01	5.258257e+01
2.580000e-06	3.217611e-06	7.450053e-10	2.234753e+01	5.302415e+01
2.590000e-06	3.255470e-06	7.505474e-10	2.261047e+01	5.344945e+01
2.600000e-06	3.293031e-06	7.573126e-10	2.287135e+01	5.385902e+01
2.610000e-06	3.330415e-06	7.646743e-10	2.313099e+01	5.425340e+01
2.620000e-06	3.367643e-06	7.699845e-10	2.338956e+01	5.463306e+01
2.630000e-06	3.404661e-06	7.729200e-10	2.364666e+01	5.499846e+01
2.640000e-06	3.441411e-06	7.749831e-10	2.390190e+01	5.535000e+01
2.650000e-06	3.477822e-06	7.760481e-10	2.415479e+01	5.568806e+01
2.660000e-06	3.513965e-06	7.774514e-10	2.440582e+01	5.601297e+01
2.670000e-06	3.549997e-06	7.814709e-10	2.465607e+01	5.632504e+01
2.680000e-06	3.585952e-06	7.866536e-10	2.490580e+01	5.662454e+01
2.690000e-06	3.621845e-06	7.920320e-10	2.515508e+01	5.691172e+01
2.700000e-06	3.657605e-06	7.968113e-10	2.540345e+01	5.718680e+01
2.710000e-06	3.693120e-06	8.010132e-10	2.565011e+01	5.744998e+01
2.720000e-06	3.728345e-06	8.037196e-10	2.589477e+01	5.770144e+01
2.730000e-06	3.763194e-06	8.078433e-10	2.613681e+01	5.794136e+01
2.740000e-06	3.797618e-06	8.132403e-10	2.637589e+01	5.816991e+01
2.750000e-06	3.831637e-06	8.174677e-10	2.661217e+01	5.838722e+01
2.760000e-06	3.865201e-06	8.226018e-10	2.684528e+01	5.859347e+01
2.770000e-06	3.898332e-06	8.261994e-10	2.707539e+01	5.878879e+01
2.780000e-06	3.931043e-06	8.308825e-10	2.730258e+01	5.897336e+01
2.790000e-06	3.963377e-06	8.352072e-10	2.752715e+01	5.914734e+01
2.800000e-06	3.995481e-06	8.382512e-10	2.775013e+01	5.931091e+01
2.810000e-06	4.027422e-06	8.409206e-10	2.797197e+01	5.946425e+01
2.820000e-06	4.059224e-06	8.428563e-10	2.819285e+01	5.960757e+01
2.830000e-06	4.090829e-06	8.447237e-10	2.841236e+01	5.974111e+01
2.840000e-06	4.122214e-06	8.458965e-10	2.863033e+01	5.986509e+01
2.850000e-06	4.153320e-06	8.459097e-10	2.884638e+01	5.997979e+01
2.860000e-06	4.184080e-06	8.466033e-10	2.906002e+01	6.008549e+01
2.870000e-06	4.214585e-06	8.487777e-10	2.927189e+01	6.018249e+01
2.880000e-06	4.244825e-06	8.521881e-10	2.948191e+01	6.027112e+01
2.890000e-06	4.274728e-06	8.568972e-10	2.968961e+01	6.035173e+01
2.900000e-06	4.304374e-06	8.620724e-10	2.989550e+01	6.042469e+01
