# Temperatura_=_-9.9
# Concentracion g/m^3_=_1620.0
# C_Vs_to_Am_M_A/Vsm_=_65563218390.804596
# pendiente_HvsI_1/m_=_3716.3
# ordenada_HvsI_A/m_=_1297.0
# frecuencia_Hz_=_135107.8393616829

Tiempo_(s)	Campo_(V.s)	Magnetizacion_(V.s)	Campo_(kA/m)	Magnetizacion_(A/m)
0.000000e+00	-5.528479e-06	-9.438524e-10	-3.837031e+01	-6.463073e+01
1.000000e-08	-5.528715e-06	-9.435564e-10	-3.837194e+01	-6.463157e+01
2.000000e-08	-5.528692e-06	-9.437186e-10	-3.837179e+01	-6.463527e+01
3.000000e-08	-5.528396e-06	-9.444430e-10	-3.836973e+01	-6.464154e+01
4.000000e-08	-5.527727e-06	-9.428357e-10	-3.836509e+01	-6.465003e+01
5.000000e-08	-5.526527e-06	-9.377769e-10	-3.835676e+01	-6.466040e+01
6.000000e-08	-5.524720e-06	-9.294799e-10	-3.834421e+01	-6.467224e+01
7.000000e-08	-5.522363e-06	-9.234513e-10	-3.832786e+01	-6.468514e+01
8.000000e-08	-5.519502e-06	-9.419309e-10	-3.830800e+01	-6.469866e+01
9.000000e-08	-5.516110e-06	-9.563072e-10	-3.828446e+01	-6.471236e+01
1.000000e-07	-5.512124e-06	-9.202135e-10	-3.825679e+01	-6.472578e+01
1.100000e-07	-5.507741e-06	-9.121281e-10	-3.822637e+01	-6.473845e+01
1.200000e-07	-5.503202e-06	-9.599504e-10	-3.819487e+01	-6.474992e+01
1.300000e-07	-5.498441e-06	-9.291280e-10	-3.816183e+01	-6.475971e+01
1.400000e-07	-5.493396e-06	-9.044602e-10	-3.812681e+01	-6.476738e+01
1.500000e-07	-5.487985e-06	-8.970568e-10	-3.808926e+01	-6.477250e+01
1.600000e-07	-5.482159e-06	-9.732807e-10	-3.804882e+01	-6.477464e+01
1.700000e-07	-5.475844e-06	-9.587505e-10	-3.800499e+01	-6.477342e+01
1.800000e-07	-5.469107e-06	-8.906963e-10	-3.795823e+01	-6.476846e+01
1.900000e-07	-5.462089e-06	-9.243362e-10	-3.790952e+01	-6.475944e+01
2.000000e-07	-5.454680e-06	-9.848361e-10	-3.785810e+01	-6.474605e+01
2.100000e-07	-5.446894e-06	-9.855334e-10	-3.780407e+01	-6.472802e+01
2.200000e-07	-5.438903e-06	-9.150199e-10	-3.774860e+01	-6.470514e+01
2.300000e-07	-5.430752e-06	-9.353979e-10	-3.769203e+01	-6.467722e+01
2.400000e-07	-5.422271e-06	-9.694128e-10	-3.763317e+01	-6.464412e+01
2.500000e-07	-5.413161e-06	-9.908065e-10	-3.756994e+01	-6.460575e+01
2.600000e-07	-5.403437e-06	-9.485903e-10	-3.750245e+01	-6.456207e+01
2.700000e-07	-5.393068e-06	-9.515878e-10	-3.743048e+01	-6.451306e+01
2.800000e-07	-5.381995e-06	-9.574402e-10	-3.735363e+01	-6.445878e+01
2.900000e-07	-5.370453e-06	-9.807460e-10	-3.727353e+01	-6.439931e+01
3.000000e-07	-5.358578e-06	-9.601136e-10	-3.719111e+01	-6.433478e+01
3.100000e-07	-5.346353e-06	-9.543195e-10	-3.710626e+01	-6.426537e+01
3.200000e-07	-5.333677e-06	-9.751709e-10	-3.701829e+01	-6.419129e+01
3.300000e-07	-5.320605e-06	-1.006318e-09	-3.692756e+01	-6.411278e+01
3.400000e-07	-5.307189e-06	-9.706054e-10	-3.683445e+01	-6.403013e+01
3.500000e-07	-5.293352e-06	-9.396836e-10	-3.673841e+01	-6.394366e+01
3.600000e-07	-5.279120e-06	-9.827927e-10	-3.663963e+01	-6.385369e+01
3.700000e-07	-5.264528e-06	-9.947635e-10	-3.653836e+01	-6.376061e+01
3.800000e-07	-5.249345e-06	-9.401169e-10	-3.643298e+01	-6.366478e+01
3.900000e-07	-5.233518e-06	-9.492592e-10	-3.632313e+01	-6.356660e+01
4.000000e-07	-5.217221e-06	-1.004338e-09	-3.621002e+01	-6.346648e+01
4.100000e-07	-5.200553e-06	-9.496801e-10	-3.609434e+01	-6.336484e+01
4.200000e-07	-5.183501e-06	-9.168264e-10	-3.597599e+01	-6.326208e+01
4.300000e-07	-5.166112e-06	-9.852131e-10	-3.585530e+01	-6.315862e+01
4.400000e-07	-5.148463e-06	-9.820496e-10	-3.573281e+01	-6.305486e+01
4.500000e-07	-5.130491e-06	-8.876998e-10	-3.560808e+01	-6.295120e+01
4.600000e-07	-5.112176e-06	-9.446377e-10	-3.548096e+01	-6.284801e+01
4.700000e-07	-5.093539e-06	-9.959082e-10	-3.535161e+01	-6.274564e+01
4.800000e-07	-5.074495e-06	-9.098945e-10	-3.521944e+01	-6.264445e+01
4.900000e-07	-5.055018e-06	-8.967135e-10	-3.508425e+01	-6.254473e+01
5.000000e-07	-5.035297e-06	-1.001755e-09	-3.494739e+01	-6.244677e+01
5.100000e-07	-5.015387e-06	-9.486356e-10	-3.480920e+01	-6.235081e+01
5.200000e-07	-4.995215e-06	-8.924144e-10	-3.466920e+01	-6.225709e+01
5.300000e-07	-4.974748e-06	-9.778275e-10	-3.452715e+01	-6.216577e+01
5.400000e-07	-4.953930e-06	-9.806335e-10	-3.438266e+01	-6.207701e+01
5.500000e-07	-4.932683e-06	-8.750054e-10	-3.423519e+01	-6.199092e+01
5.600000e-07	-4.911044e-06	-9.314691e-10	-3.408501e+01	-6.190758e+01
5.700000e-07	-4.889129e-06	-9.848462e-10	-3.393291e+01	-6.182701e+01
5.800000e-07	-4.866881e-06	-9.003394e-10	-3.377850e+01	-6.174922e+01
5.900000e-07	-4.844211e-06	-8.989321e-10	-3.362115e+01	-6.167418e+01
6.000000e-07	-4.821221e-06	-9.802226e-10	-3.346159e+01	-6.160182e+01
6.100000e-07	-4.797964e-06	-9.282048e-10	-3.330018e+01	-6.153202e+01
6.200000e-07	-4.774396e-06	-8.870823e-10	-3.313660e+01	-6.146467e+01
6.300000e-07	-4.750581e-06	-9.507387e-10	-3.297132e+01	-6.139960e+01
6.400000e-07	-4.726523e-06	-9.425829e-10	-3.280434e+01	-6.133661e+01
6.500000e-07	-4.702165e-06	-8.917204e-10	-3.263529e+01	-6.127551e+01
6.600000e-07	-4.677480e-06	-9.313341e-10	-3.246396e+01	-6.121605e+01
6.700000e-07	-4.652289e-06	-9.482840e-10	-3.228912e+01	-6.115799e+01
6.800000e-07	-4.626560e-06	-9.028178e-10	-3.211056e+01	-6.110107e+01
6.900000e-07	-4.600331e-06	-9.219586e-10	-3.192851e+01	-6.104502e+01
7.000000e-07	-4.573532e-06	-9.468070e-10	-3.174251e+01	-6.098955e+01
7.100000e-07	-4.546284e-06	-9.119359e-10	-3.155340e+01	-6.093438e+01
7.200000e-07	-4.518764e-06	-9.008547e-10	-3.136239e+01	-6.087923e+01
7.300000e-07	-4.491077e-06	-9.274887e-10	-3.117023e+01	-6.082381e+01
7.400000e-07	-4.463212e-06	-9.080882e-10	-3.097684e+01	-6.076785e+01
7.500000e-07	-4.435108e-06	-8.957799e-10	-3.078178e+01	-6.071108e+01
7.600000e-07	-4.406741e-06	-9.136157e-10	-3.058490e+01	-6.065325e+01
7.700000e-07	-4.378092e-06	-9.126546e-10	-3.038607e+01	-6.059411e+01
7.800000e-07	-4.349139e-06	-8.926170e-10	-3.018512e+01	-6.053343e+01
7.900000e-07	-4.319899e-06	-9.062381e-10	-2.998218e+01	-6.047101e+01
8.000000e-07	-4.290367e-06	-9.069495e-10	-2.977721e+01	-6.040666e+01
8.100000e-07	-4.260563e-06	-8.908825e-10	-2.957035e+01	-6.034020e+01
8.200000e-07	-4.230489e-06	-8.935280e-10	-2.936163e+01	-6.027148e+01
8.300000e-07	-4.200144e-06	-9.062680e-10	-2.915102e+01	-6.020039e+01
8.400000e-07	-4.169475e-06	-8.903946e-10	-2.893816e+01	-6.012681e+01
8.500000e-07	-4.138429e-06	-8.876578e-10	-2.872269e+01	-6.005067e+01
8.600000e-07	-4.107148e-06	-8.984755e-10	-2.850559e+01	-5.997190e+01
8.700000e-07	-4.075742e-06	-8.890959e-10	-2.828761e+01	-5.989047e+01
8.800000e-07	-4.044099e-06	-8.743741e-10	-2.806799e+01	-5.980635e+01
8.900000e-07	-4.012233e-06	-8.831528e-10	-2.784683e+01	-5.971954e+01
9.000000e-07	-3.980173e-06	-8.800919e-10	-2.762432e+01	-5.963006e+01
9.100000e-07	-3.947767e-06	-8.691767e-10	-2.739940e+01	-5.953794e+01
9.200000e-07	-3.914964e-06	-8.782303e-10	-2.717174e+01	-5.944323e+01
9.300000e-07	-3.881817e-06	-8.840713e-10	-2.694168e+01	-5.934598e+01
9.400000e-07	-3.848226e-06	-8.680626e-10	-2.670854e+01	-5.924625e+01
9.500000e-07	-3.814230e-06	-8.635427e-10	-2.647259e+01	-5.914412e+01
9.600000e-07	-3.779884e-06	-8.691560e-10	-2.623421e+01	-5.903967e+01
9.700000e-07	-3.745017e-06	-8.550850e-10	-2.599222e+01	-5.893296e+01
9.800000e-07	-3.709784e-06	-8.461933e-10	-2.574768e+01	-5.882409e+01
9.900000e-07	-3.674377e-06	-8.561449e-10	-2.550195e+01	-5.871312e+01
1.000000e-06	-3.638758e-06	-8.566509e-10	-2.525473e+01	-5.860012e+01
1.010000e-06	-3.602953e-06	-8.443724e-10	-2.500623e+01	-5.848516e+01
1.020000e-06	-3.567014e-06	-8.501762e-10	-2.475679e+01	-5.836829e+01
1.030000e-06	-3.530924e-06	-8.559072e-10	-2.450631e+01	-5.824955e+01
1.040000e-06	-3.494641e-06	-8.498295e-10	-2.425449e+01	-5.812898e+01
1.050000e-06	-3.458183e-06	-8.482094e-10	-2.400146e+01	-5.800659e+01
1.060000e-06	-3.421478e-06	-8.532878e-10	-2.374670e+01	-5.788239e+01
1.070000e-06	-3.384456e-06	-8.427695e-10	-2.348976e+01	-5.775636e+01
1.080000e-06	-3.347172e-06	-8.353485e-10	-2.323098e+01	-5.762847e+01
1.090000e-06	-3.309691e-06	-8.401045e-10	-2.297085e+01	-5.749868e+01
1.100000e-06	-3.272032e-06	-8.435516e-10	-2.270948e+01	-5.736694e+01
1.110000e-06	-3.234089e-06	-8.407758e-10	-2.244613e+01	-5.723315e+01
1.120000e-06	-3.195841e-06	-8.468621e-10	-2.218067e+01	-5.709724e+01
1.130000e-06	-3.157395e-06	-8.473456e-10	-2.191384e+01	-5.695909e+01
1.140000e-06	-3.118778e-06	-8.377028e-10	-2.164582e+01	-5.681858e+01
1.150000e-06	-3.080003e-06	-8.312361e-10	-2.137670e+01	-5.667559e+01
1.160000e-06	-3.041016e-06	-8.310054e-10	-2.110611e+01	-5.652998e+01
1.170000e-06	-3.001763e-06	-8.256695e-10	-2.083368e+01	-5.638158e+01
1.180000e-06	-2.962296e-06	-8.244654e-10	-2.055976e+01	-5.623024e+01
1.190000e-06	-2.922659e-06	-8.303918e-10	-2.028466e+01	-5.607580e+01
1.200000e-06	-2.882916e-06	-8.325497e-10	-2.000882e+01	-5.591808e+01
1.210000e-06	-2.843063e-06	-8.272270e-10	-1.973222e+01	-5.575693e+01
1.220000e-06	-2.803078e-06	-8.227186e-10	-1.945471e+01	-5.559216e+01
1.230000e-06	-2.762934e-06	-8.154668e-10	-1.917609e+01	-5.542361e+01
1.240000e-06	-2.722583e-06	-8.080183e-10	-1.889604e+01	-5.525112e+01
1.250000e-06	-2.682051e-06	-8.073849e-10	-1.861472e+01	-5.507453e+01
1.260000e-06	-2.641346e-06	-8.099834e-10	-1.833221e+01	-5.489369e+01
1.270000e-06	-2.600372e-06	-8.075917e-10	-1.804783e+01	-5.470844e+01
1.280000e-06	-2.559154e-06	-8.003350e-10	-1.776176e+01	-5.451867e+01
1.290000e-06	-2.517665e-06	-7.966155e-10	-1.747381e+01	-5.432423e+01
1.300000e-06	-2.475978e-06	-7.906741e-10	-1.718448e+01	-5.412503e+01
1.310000e-06	-2.434093e-06	-7.848210e-10	-1.689377e+01	-5.392095e+01
1.320000e-06	-2.391786e-06	-7.828327e-10	-1.660015e+01	-5.371190e+01
1.330000e-06	-2.349082e-06	-7.830304e-10	-1.630376e+01	-5.349780e+01
1.340000e-06	-2.306139e-06	-7.787845e-10	-1.600571e+01	-5.327858e+01
1.350000e-06	-2.262979e-06	-7.736291e-10	-1.570616e+01	-5.305416e+01
1.360000e-06	-2.219575e-06	-7.675985e-10	-1.540492e+01	-5.282449e+01
1.370000e-06	-2.175994e-06	-7.598261e-10	-1.510244e+01	-5.258952e+01
1.380000e-06	-2.132278e-06	-7.523835e-10	-1.479904e+01	-5.234918e+01
1.390000e-06	-2.088500e-06	-7.495848e-10	-1.449520e+01	-5.210343e+01
1.400000e-06	-2.044703e-06	-7.483938e-10	-1.419122e+01	-5.185222e+01
1.410000e-06	-2.000835e-06	-7.498990e-10	-1.388676e+01	-5.159548e+01
1.420000e-06	-1.956877e-06	-7.503394e-10	-1.358167e+01	-5.133315e+01
1.430000e-06	-1.912857e-06	-7.480074e-10	-1.327615e+01	-5.106513e+01
1.440000e-06	-1.868759e-06	-7.387186e-10	-1.297009e+01	-5.079134e+01
1.450000e-06	-1.824553e-06	-7.281729e-10	-1.266328e+01	-5.051166e+01
1.460000e-06	-1.780251e-06	-7.163065e-10	-1.235580e+01	-5.022594e+01
1.470000e-06	-1.735790e-06	-7.043979e-10	-1.204721e+01	-4.993402e+01
1.480000e-06	-1.691119e-06	-6.984589e-10	-1.173718e+01	-4.963570e+01
1.490000e-06	-1.646319e-06	-6.986876e-10	-1.142625e+01	-4.933076e+01
1.500000e-06	-1.601421e-06	-7.000977e-10	-1.111463e+01	-4.901891e+01
1.510000e-06	-1.556387e-06	-6.986500e-10	-1.080207e+01	-4.869985e+01
1.520000e-06	-1.511196e-06	-6.951784e-10	-1.048843e+01	-4.837323e+01
1.530000e-06	-1.465917e-06	-6.890423e-10	-1.017417e+01	-4.803864e+01
1.540000e-06	-1.420573e-06	-6.785295e-10	-9.859462e+00	-4.769565e+01
1.550000e-06	-1.375050e-06	-6.670094e-10	-9.543511e+00	-4.734376e+01
1.560000e-06	-1.329422e-06	-6.590485e-10	-9.226831e+00	-4.698241e+01
1.570000e-06	-1.283774e-06	-6.538558e-10	-8.910010e+00	-4.661101e+01
1.580000e-06	-1.238009e-06	-6.490519e-10	-8.592381e+00	-4.622891e+01
1.590000e-06	-1.192212e-06	-6.449395e-10	-8.274526e+00	-4.583540e+01
1.600000e-06	-1.146360e-06	-6.423689e-10	-7.956290e+00	-4.542973e+01
1.610000e-06	-1.100368e-06	-6.358616e-10	-7.637085e+00	-4.501110e+01
1.620000e-06	-1.054260e-06	-6.252925e-10	-7.317070e+00	-4.457867e+01
1.630000e-06	-1.008032e-06	-6.132988e-10	-6.996225e+00	-4.413153e+01
1.640000e-06	-9.617925e-07	-6.030302e-10	-6.675302e+00	-4.366876e+01
1.650000e-06	-9.155899e-07	-5.932521e-10	-6.354634e+00	-4.318938e+01
1.660000e-06	-8.693402e-07	-5.848035e-10	-6.033639e+00	-4.269241e+01
1.670000e-06	-8.230239e-07	-5.770269e-10	-5.712182e+00	-4.217681e+01
1.680000e-06	-7.766751e-07	-5.688312e-10	-5.390499e+00	-4.164153e+01
1.690000e-06	-7.302722e-07	-5.595342e-10	-5.068441e+00	-4.108553e+01
1.700000e-06	-6.837997e-07	-5.494700e-10	-4.745899e+00	-4.050774e+01
1.710000e-06	-6.372938e-07	-5.384212e-10	-4.423126e+00	-3.990708e+01
1.720000e-06	-5.907801e-07	-5.302114e-10	-4.100298e+00	-3.928252e+01
1.730000e-06	-5.441891e-07	-5.230959e-10	-3.776934e+00	-3.863301e+01
1.740000e-06	-4.975192e-07	-5.137278e-10	-3.453023e+00	-3.795753e+01
1.750000e-06	-4.508098e-07	-5.014564e-10	-3.128837e+00	-3.725512e+01
1.760000e-06	-4.040236e-07	-4.878233e-10	-2.804118e+00	-3.652484e+01
1.770000e-06	-3.571818e-07	-4.742303e-10	-2.479014e+00	-3.576579e+01
1.780000e-06	-3.103797e-07	-4.621745e-10	-2.154185e+00	-3.497717e+01
1.790000e-06	-2.635502e-07	-4.518930e-10	-1.829165e+00	-3.415821e+01
1.800000e-06	-2.166042e-07	-4.434335e-10	-1.503337e+00	-3.330823e+01
1.810000e-06	-1.695740e-07	-4.334228e-10	-1.176925e+00	-3.242664e+01
1.820000e-06	-1.225558e-07	-4.200541e-10	-8.505961e-01	-3.151294e+01
1.830000e-06	-7.565127e-08	-4.063372e-10	-5.250562e-01	-3.056672e+01
1.840000e-06	-2.879669e-08	-3.918725e-10	-1.998629e-01	-2.958770e+01
1.850000e-06	1.812009e-08	-3.767583e-10	1.257622e-01	-2.857568e+01
1.860000e-06	6.505398e-08	-3.623472e-10	4.515059e-01	-2.753060e+01
1.870000e-06	1.119248e-07	-3.474608e-10	7.768123e-01	-2.645251e+01
1.880000e-06	1.587734e-07	-3.320041e-10	1.101964e+00	-2.534160e+01
1.890000e-06	2.057081e-07	-3.191231e-10	1.427713e+00	-2.419818e+01
1.900000e-06	2.526294e-07	-3.054365e-10	1.753370e+00	-2.302268e+01
1.910000e-06	2.994445e-07	-2.889546e-10	2.078289e+00	-2.181570e+01
1.920000e-06	3.462370e-07	-2.729108e-10	2.403051e+00	-2.057793e+01
1.930000e-06	3.929806e-07	-2.560927e-10	2.727475e+00	-1.931021e+01
1.940000e-06	4.396975e-07	-2.360756e-10	3.051712e+00	-1.801352e+01
1.950000e-06	4.864959e-07	-2.147204e-10	3.376516e+00	-1.668896e+01
1.960000e-06	5.332610e-07	-1.946799e-10	3.701088e+00	-1.533775e+01
1.970000e-06	5.798929e-07	-1.778808e-10	4.024736e+00	-1.396124e+01
1.980000e-06	6.264312e-07	-1.620855e-10	4.347734e+00	-1.256089e+01
1.990000e-06	6.729098e-07	-1.463739e-10	4.670318e+00	-1.113827e+01
2.000000e-06	7.193261e-07	-1.280955e-10	4.992469e+00	-9.695058e+00
2.010000e-06	7.656545e-07	-1.052346e-10	5.314011e+00	-8.233013e+00
2.020000e-06	8.119510e-07	-8.001332e-11	5.635331e+00	-6.753991e+00
2.030000e-06	8.582936e-07	-5.601397e-11	5.956971e+00	-5.259925e+00
2.040000e-06	9.046376e-07	-3.414233e-11	6.278620e+00	-3.752811e+00
2.050000e-06	9.508376e-07	-1.316271e-11	6.599271e+00	-2.234706e+00
2.060000e-06	9.969204e-07	7.768166e-12	6.919107e+00	-7.077104e-01
2.070000e-06	1.042916e-06	2.866944e-11	7.238336e+00	8.260377e-01
2.080000e-06	1.088823e-06	4.993083e-11	7.556956e+00	2.364376e+00
2.090000e-06	1.134668e-06	7.287580e-11	7.875144e+00	3.905129e+00
2.100000e-06	1.180406e-06	9.732050e-11	8.192587e+00	5.446120e+00
2.110000e-06	1.226047e-06	1.195878e-10	8.509359e+00	6.985179e+00
2.120000e-06	1.271702e-06	1.390144e-10	8.826221e+00	8.520160e+00
2.130000e-06	1.317352e-06	1.573887e-10	9.143055e+00	1.004895e+01
2.140000e-06	1.362835e-06	1.761767e-10	9.458734e+00	1.156947e+01
2.150000e-06	1.408200e-06	1.955170e-10	9.773584e+00	1.307969e+01
2.160000e-06	1.453540e-06	2.169133e-10	1.008827e+01	1.457767e+01
2.170000e-06	1.498792e-06	2.411652e-10	1.040234e+01	1.606152e+01
2.180000e-06	1.543894e-06	2.640423e-10	1.071537e+01	1.752942e+01
2.190000e-06	1.588887e-06	2.845588e-10	1.102764e+01	1.897965e+01
2.200000e-06	1.633783e-06	3.035274e-10	1.133924e+01	2.041060e+01
2.210000e-06	1.678459e-06	3.195271e-10	1.164932e+01	2.182073e+01
2.220000e-06	1.722943e-06	3.333562e-10	1.195806e+01	2.320864e+01
2.230000e-06	1.767296e-06	3.487036e-10	1.226588e+01	2.457302e+01
2.240000e-06	1.811553e-06	3.657856e-10	1.257305e+01	2.591268e+01
2.250000e-06	1.855767e-06	3.844111e-10	1.287992e+01	2.722655e+01
2.260000e-06	1.899910e-06	4.041075e-10	1.318629e+01	2.851368e+01
2.270000e-06	1.943975e-06	4.237015e-10	1.349212e+01	2.977324e+01
2.280000e-06	1.987947e-06	4.415741e-10	1.379731e+01	3.100453e+01
2.290000e-06	2.031831e-06	4.564255e-10	1.410189e+01	3.220696e+01
2.300000e-06	2.075680e-06	4.695188e-10	1.440622e+01	3.338006e+01
2.310000e-06	2.119480e-06	4.824421e-10	1.471021e+01	3.452349e+01
2.320000e-06	2.163183e-06	4.963481e-10	1.501353e+01	3.563700e+01
2.330000e-06	2.206755e-06	5.111284e-10	1.531594e+01	3.672046e+01
2.340000e-06	2.250159e-06	5.252436e-10	1.561719e+01	3.777386e+01
2.350000e-06	2.293422e-06	5.396281e-10	1.591745e+01	3.879727e+01
2.360000e-06	2.336550e-06	5.543617e-10	1.621678e+01	3.979085e+01
2.370000e-06	2.379469e-06	5.679735e-10	1.651466e+01	4.075487e+01
2.380000e-06	2.422046e-06	5.803670e-10	1.681017e+01	4.168965e+01
2.390000e-06	2.464219e-06	5.920702e-10	1.710287e+01	4.259562e+01
2.400000e-06	2.506107e-06	6.025045e-10	1.739359e+01	4.347323e+01
2.410000e-06	2.547677e-06	6.130449e-10	1.768211e+01	4.432302e+01
2.420000e-06	2.588803e-06	6.253557e-10	1.796754e+01	4.514557e+01
2.430000e-06	2.629601e-06	6.376649e-10	1.825070e+01	4.594152e+01
2.440000e-06	2.670211e-06	6.486002e-10	1.853255e+01	4.671151e+01
2.450000e-06	2.710588e-06	6.584116e-10	1.881278e+01	4.745623e+01
2.460000e-06	2.750784e-06	6.672511e-10	1.909176e+01	4.817640e+01
2.470000e-06	2.790882e-06	6.771031e-10	1.937006e+01	4.887272e+01
2.480000e-06	2.830837e-06	6.885030e-10	1.964737e+01	4.954594e+01
2.490000e-06	2.870674e-06	6.996182e-10	1.992386e+01	5.019676e+01
2.500000e-06	2.910426e-06	7.114933e-10	2.019976e+01	5.082592e+01
2.510000e-06	2.950087e-06	7.221196e-10	2.047502e+01	5.143411e+01
2.520000e-06	2.989631e-06	7.309490e-10	2.074948e+01	5.202204e+01
2.530000e-06	3.028992e-06	7.372969e-10	2.102266e+01	5.259038e+01
2.540000e-06	3.068052e-06	7.407494e-10	2.129376e+01	5.313977e+01
2.550000e-06	3.106807e-06	7.435948e-10	2.156274e+01	5.367083e+01
2.560000e-06	3.145384e-06	7.490291e-10	2.183048e+01	5.418416e+01
2.570000e-06	3.183733e-06	7.593842e-10	2.209664e+01	5.468031e+01
2.580000e-06	3.221808e-06	7.712944e-10	2.236090e+01	5.515981e+01
2.590000e-06	3.259707e-06	7.811318e-10	2.262393e+01	5.562315e+01
2.600000e-06	3.297435e-06	7.868295e-10	2.288579e+01	5.607080e+01
2.610000e-06	3.334944e-06	7.887974e-10	2.314611e+01	5.650317e+01
2.620000e-06	3.372203e-06	7.877608e-10	2.340471e+01	5.692065e+01
2.630000e-06	3.409198e-06	7.870415e-10	2.366147e+01	5.732362e+01
2.640000e-06	3.445899e-06	7.907632e-10	2.391620e+01	5.771240e+01
2.650000e-06	3.482311e-06	7.991821e-10	2.416891e+01	5.808730e+01
2.660000e-06	3.518516e-06	8.113171e-10	2.442019e+01	5.844860e+01
2.670000e-06	3.554576e-06	8.230444e-10	2.467047e+01	5.879656e+01
2.680000e-06	3.590527e-06	8.311019e-10	2.491998e+01	5.913142e+01
2.690000e-06	3.626375e-06	8.339710e-10	2.516879e+01	5.945341e+01
2.700000e-06	3.662084e-06	8.330873e-10	2.541663e+01	5.976274e+01
2.710000e-06	3.697615e-06	8.326310e-10	2.566323e+01	6.005962e+01
2.720000e-06	3.732956e-06	8.340972e-10	2.590851e+01	6.034425e+01
2.730000e-06	3.767970e-06	8.397545e-10	2.615152e+01	6.061683e+01
2.740000e-06	3.802476e-06	8.485016e-10	2.639101e+01	6.087757e+01
2.750000e-06	3.836472e-06	8.579445e-10	2.662697e+01	6.112667e+01
2.760000e-06	3.870056e-06	8.663085e-10	2.686005e+01	6.136435e+01
2.770000e-06	3.903234e-06	8.721158e-10	2.709032e+01	6.159084e+01
2.780000e-06	3.936005e-06	8.746874e-10	2.731777e+01	6.180637e+01
2.790000e-06	3.968429e-06	8.746457e-10	2.754281e+01	6.201121e+01
2.800000e-06	4.000569e-06	8.752909e-10	2.776587e+01	6.220562e+01
2.810000e-06	4.032525e-06	8.775736e-10	2.798766e+01	6.238989e+01
2.820000e-06	4.064326e-06	8.822201e-10	2.820838e+01	6.256433e+01
2.830000e-06	4.095982e-06	8.900856e-10	2.842809e+01	6.272928e+01
2.840000e-06	4.127474e-06	8.976350e-10	2.864666e+01	6.288507e+01
2.850000e-06	4.158714e-06	9.014739e-10	2.886348e+01	6.303208e+01
2.860000e-06	4.189621e-06	9.034166e-10	2.907799e+01	6.317068e+01
2.870000e-06	4.220111e-06	9.058273e-10	2.928960e+01	6.330129e+01
2.880000e-06	4.250284e-06	9.081112e-10	2.949901e+01	6.342432e+01
2.890000e-06	4.280210e-06	9.111717e-10	2.970672e+01	6.354020e+01
2.900000e-06	4.309868e-06	9.151989e-10	2.991256e+01	6.364937e+01
