# Temperatura_=_13.9
# Concentracion g/m^3_=_1620.0
# C_Vs_to_Am_M_A/Vsm_=_65563218390.804596
# pendiente_HvsI_1/m_=_3716.3
# ordenada_HvsI_A/m_=_1297.0
# frecuencia_Hz_=_135102.29920347594

Tiempo_(s)	Campo_(V.s)	Magnetizacion_(V.s)	Campo_(kA/m)	Magnetizacion_(A/m)
0.000000e+00	-5.530869e-06	-1.492743e-09	-3.837650e+01	-9.950834e+01
1.000000e-08	-5.531077e-06	-1.489868e-09	-3.837794e+01	-9.951282e+01
2.000000e-08	-5.530950e-06	-1.485032e-09	-3.837706e+01	-9.951955e+01
3.000000e-08	-5.530412e-06	-1.483104e-09	-3.837333e+01	-9.952827e+01
4.000000e-08	-5.529513e-06	-1.481711e-09	-3.836709e+01	-9.953871e+01
5.000000e-08	-5.528108e-06	-1.478728e-09	-3.835734e+01	-9.955054e+01
6.000000e-08	-5.525992e-06	-1.471837e-09	-3.834266e+01	-9.956338e+01
7.000000e-08	-5.523204e-06	-1.466787e-09	-3.832332e+01	-9.957684e+01
8.000000e-08	-5.519919e-06	-1.487966e-09	-3.830052e+01	-9.959047e+01
9.000000e-08	-5.516219e-06	-1.517903e-09	-3.827485e+01	-9.960382e+01
1.000000e-07	-5.512074e-06	-1.510620e-09	-3.824609e+01	-9.961639e+01
1.100000e-07	-5.507647e-06	-1.468263e-09	-3.821537e+01	-9.962769e+01
1.200000e-07	-5.503087e-06	-1.456122e-09	-3.818373e+01	-9.963719e+01
1.300000e-07	-5.498246e-06	-1.456495e-09	-3.815015e+01	-9.964438e+01
1.400000e-07	-5.492977e-06	-1.489056e-09	-3.811358e+01	-9.964872e+01
1.500000e-07	-5.487266e-06	-1.454966e-09	-3.807396e+01	-9.964970e+01
1.600000e-07	-5.481233e-06	-1.472510e-09	-3.803210e+01	-9.964681e+01
1.700000e-07	-5.474792e-06	-1.472725e-09	-3.798740e+01	-9.963954e+01
1.800000e-07	-5.467843e-06	-1.506699e-09	-3.793919e+01	-9.962741e+01
1.900000e-07	-5.460555e-06	-1.507287e-09	-3.788862e+01	-9.960997e+01
2.000000e-07	-5.453038e-06	-1.486328e-09	-3.783646e+01	-9.958677e+01
2.100000e-07	-5.445253e-06	-1.482240e-09	-3.778244e+01	-9.955743e+01
2.200000e-07	-5.437191e-06	-1.500529e-09	-3.772650e+01	-9.952156e+01
2.300000e-07	-5.428836e-06	-1.524306e-09	-3.766853e+01	-9.947883e+01
2.400000e-07	-5.420078e-06	-1.502252e-09	-3.760776e+01	-9.942896e+01
2.500000e-07	-5.410598e-06	-1.516788e-09	-3.754199e+01	-9.937170e+01
2.600000e-07	-5.400391e-06	-1.509093e-09	-3.747117e+01	-9.930682e+01
2.700000e-07	-5.389643e-06	-1.503317e-09	-3.739659e+01	-9.923418e+01
2.800000e-07	-5.378335e-06	-1.470869e-09	-3.731813e+01	-9.915365e+01
2.900000e-07	-5.366631e-06	-1.499602e-09	-3.723692e+01	-9.906517e+01
3.000000e-07	-5.354671e-06	-1.489252e-09	-3.715393e+01	-9.896870e+01
3.100000e-07	-5.342259e-06	-1.483671e-09	-3.706781e+01	-9.886426e+01
3.200000e-07	-5.329284e-06	-1.477058e-09	-3.697778e+01	-9.875192e+01
3.300000e-07	-5.315973e-06	-1.508677e-09	-3.688542e+01	-9.863178e+01
3.400000e-07	-5.302379e-06	-1.480172e-09	-3.679110e+01	-9.850399e+01
3.500000e-07	-5.288473e-06	-1.470724e-09	-3.669461e+01	-9.836872e+01
3.600000e-07	-5.274204e-06	-1.482117e-09	-3.659560e+01	-9.822619e+01
3.700000e-07	-5.259513e-06	-1.489119e-09	-3.649367e+01	-9.807666e+01
3.800000e-07	-5.244192e-06	-1.454105e-09	-3.638736e+01	-9.792040e+01
3.900000e-07	-5.228146e-06	-1.465043e-09	-3.627603e+01	-9.775773e+01
4.000000e-07	-5.211680e-06	-1.476111e-09	-3.616177e+01	-9.758896e+01
4.100000e-07	-5.194926e-06	-1.446263e-09	-3.604552e+01	-9.741444e+01
4.200000e-07	-5.177862e-06	-1.436827e-09	-3.592713e+01	-9.723454e+01
4.300000e-07	-5.160467e-06	-1.464548e-09	-3.580643e+01	-9.704962e+01
4.400000e-07	-5.142752e-06	-1.454332e-09	-3.568351e+01	-9.686006e+01
4.500000e-07	-5.124616e-06	-1.424316e-09	-3.555767e+01	-9.666624e+01
4.600000e-07	-5.105921e-06	-1.451882e-09	-3.542795e+01	-9.646855e+01
4.700000e-07	-5.086828e-06	-1.443759e-09	-3.529548e+01	-9.626735e+01
4.800000e-07	-5.067497e-06	-1.408992e-09	-3.516135e+01	-9.606302e+01
4.900000e-07	-5.047952e-06	-1.421600e-09	-3.502573e+01	-9.585591e+01
5.000000e-07	-5.028219e-06	-1.452352e-09	-3.488881e+01	-9.564635e+01
5.100000e-07	-5.008254e-06	-1.407417e-09	-3.475028e+01	-9.543467e+01
5.200000e-07	-4.987963e-06	-1.405223e-09	-3.460949e+01	-9.522118e+01
5.300000e-07	-4.967333e-06	-1.440367e-09	-3.446635e+01	-9.500614e+01
5.400000e-07	-4.946341e-06	-1.426820e-09	-3.432069e+01	-9.478983e+01
5.500000e-07	-4.924907e-06	-1.385283e-09	-3.417197e+01	-9.457245e+01
5.600000e-07	-4.903145e-06	-1.413473e-09	-3.402097e+01	-9.435423e+01
5.700000e-07	-4.881146e-06	-1.410592e-09	-3.386833e+01	-9.413531e+01
5.800000e-07	-4.858771e-06	-1.385633e-09	-3.371308e+01	-9.391585e+01
5.900000e-07	-4.835959e-06	-1.396401e-09	-3.355479e+01	-9.369595e+01
6.000000e-07	-4.812801e-06	-1.414991e-09	-3.339411e+01	-9.347570e+01
6.100000e-07	-4.789342e-06	-1.381406e-09	-3.323134e+01	-9.325515e+01
6.200000e-07	-4.765625e-06	-1.381723e-09	-3.306677e+01	-9.303431e+01
6.300000e-07	-4.741710e-06	-1.399289e-09	-3.290084e+01	-9.281317e+01
6.400000e-07	-4.717587e-06	-1.387008e-09	-3.273346e+01	-9.259171e+01
6.500000e-07	-4.693179e-06	-1.373715e-09	-3.256410e+01	-9.236985e+01
6.600000e-07	-4.668329e-06	-1.393035e-09	-3.239168e+01	-9.214751e+01
6.700000e-07	-4.642903e-06	-1.387367e-09	-3.221526e+01	-9.192458e+01
6.800000e-07	-4.616997e-06	-1.373743e-09	-3.203550e+01	-9.170092e+01
6.900000e-07	-4.590580e-06	-1.383663e-09	-3.185221e+01	-9.147638e+01
7.000000e-07	-4.563506e-06	-1.384034e-09	-3.166435e+01	-9.125079e+01
7.100000e-07	-4.536066e-06	-1.363178e-09	-3.147395e+01	-9.102397e+01
7.200000e-07	-4.508460e-06	-1.360327e-09	-3.128241e+01	-9.079570e+01
7.300000e-07	-4.480666e-06	-1.366867e-09	-3.108956e+01	-9.056579e+01
7.400000e-07	-4.452714e-06	-1.356023e-09	-3.089561e+01	-9.033402e+01
7.500000e-07	-4.424484e-06	-1.354875e-09	-3.069973e+01	-9.010015e+01
7.600000e-07	-4.395986e-06	-1.359916e-09	-3.050200e+01	-8.986396e+01
7.700000e-07	-4.367272e-06	-1.352800e-09	-3.030277e+01	-8.962521e+01
7.800000e-07	-4.338212e-06	-1.338880e-09	-3.010113e+01	-8.938367e+01
7.900000e-07	-4.308758e-06	-1.345043e-09	-2.989676e+01	-8.913911e+01
8.000000e-07	-4.279011e-06	-1.342148e-09	-2.969036e+01	-8.889130e+01
8.100000e-07	-4.248998e-06	-1.332395e-09	-2.948210e+01	-8.864001e+01
8.200000e-07	-4.218736e-06	-1.328267e-09	-2.927213e+01	-8.838502e+01
8.300000e-07	-4.188225e-06	-1.330888e-09	-2.906043e+01	-8.812612e+01
8.400000e-07	-4.157438e-06	-1.318270e-09	-2.884681e+01	-8.786310e+01
8.500000e-07	-4.126342e-06	-1.316489e-09	-2.863105e+01	-8.759577e+01
8.600000e-07	-4.094966e-06	-1.317740e-09	-2.841334e+01	-8.732394e+01
8.700000e-07	-4.063372e-06	-1.311483e-09	-2.819412e+01	-8.704744e+01
8.800000e-07	-4.031571e-06	-1.299039e-09	-2.797347e+01	-8.676610e+01
8.900000e-07	-3.999601e-06	-1.299117e-09	-2.775164e+01	-8.647975e+01
9.000000e-07	-3.967383e-06	-1.289156e-09	-2.752809e+01	-8.618827e+01
9.100000e-07	-3.934896e-06	-1.277408e-09	-2.730268e+01	-8.589152e+01
9.200000e-07	-3.902187e-06	-1.274623e-09	-2.707572e+01	-8.558936e+01
9.300000e-07	-3.869076e-06	-1.274178e-09	-2.684598e+01	-8.528170e+01
9.400000e-07	-3.835432e-06	-1.263206e-09	-2.661254e+01	-8.496843e+01
9.500000e-07	-3.801353e-06	-1.260938e-09	-2.637608e+01	-8.464946e+01
9.600000e-07	-3.766899e-06	-1.258858e-09	-2.613702e+01	-8.432470e+01
9.700000e-07	-3.731997e-06	-1.245124e-09	-2.589484e+01	-8.399409e+01
9.800000e-07	-3.696693e-06	-1.232698e-09	-2.564988e+01	-8.365755e+01
9.900000e-07	-3.661155e-06	-1.228744e-09	-2.540330e+01	-8.331504e+01
1.000000e-06	-3.625442e-06	-1.218737e-09	-2.515550e+01	-8.296650e+01
1.010000e-06	-3.589603e-06	-1.206814e-09	-2.490683e+01	-8.261190e+01
1.020000e-06	-3.553648e-06	-1.207026e-09	-2.465735e+01	-8.225120e+01
1.030000e-06	-3.517543e-06	-1.205806e-09	-2.440684e+01	-8.188437e+01
1.040000e-06	-3.481186e-06	-1.197545e-09	-2.415456e+01	-8.151140e+01
1.050000e-06	-3.444524e-06	-1.191082e-09	-2.390018e+01	-8.113226e+01
1.060000e-06	-3.407610e-06	-1.186224e-09	-2.364405e+01	-8.074696e+01
1.070000e-06	-3.370426e-06	-1.171960e-09	-2.338605e+01	-8.035549e+01
1.080000e-06	-3.332977e-06	-1.162610e-09	-2.312620e+01	-7.995785e+01
1.090000e-06	-3.295295e-06	-1.159447e-09	-2.286474e+01	-7.955406e+01
1.100000e-06	-3.257402e-06	-1.153984e-09	-2.260181e+01	-7.914413e+01
1.110000e-06	-3.219308e-06	-1.144775e-09	-2.233750e+01	-7.872807e+01
1.120000e-06	-3.181029e-06	-1.143118e-09	-2.207189e+01	-7.830593e+01
1.130000e-06	-3.142530e-06	-1.134605e-09	-2.180477e+01	-7.787773e+01
1.140000e-06	-3.103793e-06	-1.123302e-09	-2.153598e+01	-7.744351e+01
1.150000e-06	-3.064787e-06	-1.115299e-09	-2.126534e+01	-7.700332e+01
1.160000e-06	-3.025522e-06	-1.110838e-09	-2.099290e+01	-7.655721e+01
1.170000e-06	-2.986106e-06	-1.101540e-09	-2.071940e+01	-7.610524e+01
1.180000e-06	-2.946561e-06	-1.096351e-09	-2.044502e+01	-7.564748e+01
1.190000e-06	-2.906893e-06	-1.093428e-09	-2.016977e+01	-7.518399e+01
1.200000e-06	-2.867099e-06	-1.084694e-09	-1.989366e+01	-7.471486e+01
1.210000e-06	-2.827191e-06	-1.071534e-09	-1.961675e+01	-7.424016e+01
1.220000e-06	-2.787172e-06	-1.063036e-09	-1.933908e+01	-7.375998e+01
1.230000e-06	-2.746998e-06	-1.053521e-09	-1.906033e+01	-7.327441e+01
1.240000e-06	-2.706640e-06	-1.043295e-09	-1.878030e+01	-7.278355e+01
1.250000e-06	-2.666038e-06	-1.041209e-09	-1.849858e+01	-7.228748e+01
1.260000e-06	-2.625175e-06	-1.043004e-09	-1.821505e+01	-7.178631e+01
1.270000e-06	-2.584103e-06	-1.037201e-09	-1.793006e+01	-7.128013e+01
1.280000e-06	-2.542747e-06	-1.028673e-09	-1.764311e+01	-7.076904e+01
1.290000e-06	-2.501082e-06	-1.018871e-09	-1.735401e+01	-7.025311e+01
1.300000e-06	-2.459132e-06	-1.005353e-09	-1.706294e+01	-6.973244e+01
1.310000e-06	-2.416853e-06	-9.921562e-10	-1.676958e+01	-6.920709e+01
1.320000e-06	-2.374206e-06	-9.844631e-10	-1.647367e+01	-6.867713e+01
1.330000e-06	-2.331229e-06	-9.789895e-10	-1.617547e+01	-6.814261e+01
1.340000e-06	-2.288035e-06	-9.742601e-10	-1.587577e+01	-6.760355e+01
1.350000e-06	-2.244706e-06	-9.711379e-10	-1.557512e+01	-6.705997e+01
1.360000e-06	-2.201263e-06	-9.613072e-10	-1.527369e+01	-6.651187e+01
1.370000e-06	-2.157625e-06	-9.475872e-10	-1.497090e+01	-6.595920e+01
1.380000e-06	-2.113880e-06	-9.348308e-10	-1.466737e+01	-6.540190e+01
1.390000e-06	-2.070140e-06	-9.249928e-10	-1.436388e+01	-6.483988e+01
1.400000e-06	-2.026307e-06	-9.172597e-10	-1.405974e+01	-6.427300e+01
1.410000e-06	-1.982360e-06	-9.117939e-10	-1.375480e+01	-6.370111e+01
1.420000e-06	-1.938385e-06	-9.048475e-10	-1.344968e+01	-6.312399e+01
1.430000e-06	-1.894377e-06	-8.956039e-10	-1.314433e+01	-6.254139e+01
1.440000e-06	-1.850248e-06	-8.845426e-10	-1.283813e+01	-6.195302e+01
1.450000e-06	-1.805914e-06	-8.755034e-10	-1.253052e+01	-6.135854e+01
1.460000e-06	-1.761446e-06	-8.644044e-10	-1.222197e+01	-6.075754e+01
1.470000e-06	-1.716891e-06	-8.524917e-10	-1.191282e+01	-6.014959e+01
1.480000e-06	-1.672139e-06	-8.422781e-10	-1.160231e+01	-5.953418e+01
1.490000e-06	-1.627254e-06	-8.322417e-10	-1.129087e+01	-5.891076e+01
1.500000e-06	-1.582286e-06	-8.193347e-10	-1.097886e+01	-5.827873e+01
1.510000e-06	-1.537205e-06	-8.071043e-10	-1.066605e+01	-5.763742e+01
1.520000e-06	-1.491987e-06	-7.954883e-10	-1.035230e+01	-5.698611e+01
1.530000e-06	-1.446597e-06	-7.860069e-10	-1.003736e+01	-5.632404e+01
1.540000e-06	-1.401084e-06	-7.755225e-10	-9.721566e+00	-5.565039e+01
1.550000e-06	-1.355500e-06	-7.646473e-10	-9.405276e+00	-5.496427e+01
1.560000e-06	-1.309882e-06	-7.502572e-10	-9.088754e+00	-5.426477e+01
1.570000e-06	-1.264225e-06	-7.354030e-10	-8.771951e+00	-5.355093e+01
1.580000e-06	-1.218509e-06	-7.218694e-10	-8.454749e+00	-5.282175e+01
1.590000e-06	-1.172667e-06	-7.106060e-10	-8.136673e+00	-5.207617e+01
1.600000e-06	-1.126703e-06	-6.998944e-10	-7.817745e+00	-5.131314e+01
1.610000e-06	-1.080713e-06	-6.879694e-10	-7.498638e+00	-5.053155e+01
1.620000e-06	-1.034611e-06	-6.740351e-10	-7.178755e+00	-4.973029e+01
1.630000e-06	-9.883903e-07	-6.583855e-10	-6.858047e+00	-4.890822e+01
1.640000e-06	-9.421814e-07	-6.445191e-10	-6.537422e+00	-4.806421e+01
1.650000e-06	-8.958901e-07	-6.299647e-10	-6.216225e+00	-4.719712e+01
1.660000e-06	-8.494209e-07	-6.143729e-10	-5.893794e+00	-4.630582e+01
1.670000e-06	-8.028782e-07	-5.982798e-10	-5.570853e+00	-4.538920e+01
1.680000e-06	-7.563501e-07	-5.839292e-10	-5.248012e+00	-4.444617e+01
1.690000e-06	-7.098400e-07	-5.683769e-10	-4.925297e+00	-4.347566e+01
1.700000e-06	-6.633130e-07	-5.513851e-10	-4.602465e+00	-4.247668e+01
1.710000e-06	-6.166810e-07	-5.345507e-10	-4.278904e+00	-4.144825e+01
1.720000e-06	-5.699590e-07	-5.201271e-10	-3.954719e+00	-4.038947e+01
1.730000e-06	-5.232906e-07	-5.042062e-10	-3.630905e+00	-3.929949e+01
1.740000e-06	-4.766159e-07	-4.872911e-10	-3.307048e+00	-3.817755e+01
1.750000e-06	-4.298167e-07	-4.682538e-10	-2.982327e+00	-3.702298e+01
1.760000e-06	-3.829119e-07	-4.468558e-10	-2.656874e+00	-3.583517e+01
1.770000e-06	-3.360255e-07	-4.264885e-10	-2.331547e+00	-3.461364e+01
1.780000e-06	-2.891557e-07	-4.101713e-10	-2.006337e+00	-3.335800e+01
1.790000e-06	-2.422935e-07	-3.956275e-10	-1.681179e+00	-3.206798e+01
1.800000e-06	-1.954712e-07	-3.791516e-10	-1.356297e+00	-3.074342e+01
1.810000e-06	-1.486176e-07	-3.598920e-10	-1.031198e+00	-2.938427e+01
1.820000e-06	-1.017372e-07	-3.413403e-10	-7.059138e-01	-2.799065e+01
1.830000e-06	-5.485219e-08	-3.226125e-10	-3.805975e-01	-2.656276e+01
1.840000e-06	-7.982519e-09	-3.028705e-10	-5.538753e-02	-2.510096e+01
1.850000e-06	3.887068e-08	-2.830856e-10	2.697082e-01	-2.360575e+01
1.860000e-06	8.575037e-08	-2.629562e-10	5.949877e-01	-2.207776e+01
1.870000e-06	1.326502e-07	-2.411483e-10	9.204067e-01	-2.051774e+01
1.880000e-06	1.794583e-07	-2.200178e-10	1.245190e+00	-1.892661e+01
1.890000e-06	2.262692e-07	-2.008027e-10	1.569992e+00	-1.730540e+01
1.900000e-06	2.731219e-07	-1.796721e-10	1.895084e+00	-1.565527e+01
1.910000e-06	3.199282e-07	-1.570744e-10	2.219855e+00	-1.397753e+01
1.920000e-06	3.667813e-07	-1.361905e-10	2.544950e+00	-1.227359e+01
1.930000e-06	4.136577e-07	-1.139417e-10	2.870206e+00	-1.054501e+01
1.940000e-06	4.604150e-07	-8.790045e-11	3.194636e+00	-8.793415e+00
1.950000e-06	5.070591e-07	-6.145984e-11	3.518282e+00	-7.020580e+00
1.960000e-06	5.536674e-07	-3.745739e-11	3.841678e+00	-5.228357e+00
1.970000e-06	6.002707e-07	-1.649503e-11	4.165039e+00	-3.418690e+00
1.980000e-06	6.468369e-07	3.949443e-12	4.488144e+00	-1.593603e+00
1.990000e-06	6.932638e-07	2.763272e-11	4.810282e+00	2.448089e-01
2.000000e-06	7.395756e-07	5.695042e-11	5.131621e+00	2.094391e+00
2.010000e-06	7.858936e-07	8.970139e-11	5.453003e+00	3.952940e+00
2.020000e-06	8.322168e-07	1.205038e-10	5.774421e+00	5.818214e+00
2.030000e-06	8.784715e-07	1.469483e-10	6.095364e+00	7.687944e+00
2.040000e-06	9.246909e-07	1.698063e-10	6.416062e+00	9.559848e+00
2.050000e-06	9.708954e-07	1.915025e-10	6.736657e+00	1.143164e+01
2.060000e-06	1.017069e-06	2.153683e-10	7.057037e+00	1.330103e+01
2.070000e-06	1.063184e-06	2.405607e-10	7.377010e+00	1.516578e+01
2.080000e-06	1.109165e-06	2.689236e-10	7.696055e+00	1.702364e+01
2.090000e-06	1.155067e-06	3.000662e-10	8.014552e+00	1.887244e+01
2.100000e-06	1.200953e-06	3.303756e-10	8.332935e+00	2.071003e+01
2.110000e-06	1.246699e-06	3.567137e-10	8.650348e+00	2.253436e+01
2.120000e-06	1.292312e-06	3.806723e-10	8.966840e+00	2.434341e+01
2.130000e-06	1.337898e-06	4.015820e-10	9.283142e+00	2.613527e+01
2.140000e-06	1.383386e-06	4.200780e-10	9.598766e+00	2.790813e+01
2.150000e-06	1.428742e-06	4.420327e-10	9.913473e+00	2.966024e+01
2.160000e-06	1.474025e-06	4.681504e-10	1.022767e+01	3.138998e+01
2.170000e-06	1.519151e-06	4.946307e-10	1.054078e+01	3.309584e+01
2.180000e-06	1.564093e-06	5.193438e-10	1.085262e+01	3.477643e+01
2.190000e-06	1.608911e-06	5.428190e-10	1.116359e+01	3.643046e+01
2.200000e-06	1.653654e-06	5.643896e-10	1.147405e+01	3.805679e+01
2.210000e-06	1.698288e-06	5.825752e-10	1.178374e+01	3.965437e+01
2.220000e-06	1.742740e-06	5.998927e-10	1.209218e+01	4.122232e+01
2.230000e-06	1.787042e-06	6.186461e-10	1.239957e+01	4.275985e+01
2.240000e-06	1.831262e-06	6.383205e-10	1.270640e+01	4.426633e+01
2.250000e-06	1.875399e-06	6.590525e-10	1.301265e+01	4.574123e+01
2.260000e-06	1.919445e-06	6.827421e-10	1.331827e+01	4.718414e+01
2.270000e-06	1.963442e-06	7.063030e-10	1.362354e+01	4.859481e+01
2.280000e-06	2.007410e-06	7.257588e-10	1.392862e+01	4.997305e+01
2.290000e-06	2.051327e-06	7.425059e-10	1.423334e+01	5.131883e+01
2.300000e-06	2.095147e-06	7.577526e-10	1.453739e+01	5.263220e+01
2.310000e-06	2.138849e-06	7.725377e-10	1.484062e+01	5.391331e+01
2.320000e-06	2.182490e-06	7.893548e-10	1.514343e+01	5.516242e+01
2.330000e-06	2.226133e-06	8.079211e-10	1.544625e+01	5.637986e+01
2.340000e-06	2.269668e-06	8.267274e-10	1.574832e+01	5.756603e+01
2.350000e-06	2.312944e-06	8.452679e-10	1.604860e+01	5.872144e+01
2.360000e-06	2.355977e-06	8.617482e-10	1.634719e+01	5.984662e+01
2.370000e-06	2.398783e-06	8.747046e-10	1.664420e+01	6.094218e+01
2.380000e-06	2.441218e-06	8.870677e-10	1.693864e+01	6.200877e+01
2.390000e-06	2.483257e-06	8.994623e-10	1.723033e+01	6.304707e+01
2.400000e-06	2.524929e-06	9.122550e-10	1.751948e+01	6.405779e+01
2.410000e-06	2.566347e-06	9.273914e-10	1.780686e+01	6.504169e+01
2.420000e-06	2.607594e-06	9.429545e-10	1.809306e+01	6.599950e+01
2.430000e-06	2.648577e-06	9.582230e-10	1.837742e+01	6.693198e+01
2.440000e-06	2.689222e-06	9.718868e-10	1.865944e+01	6.783990e+01
2.450000e-06	2.729629e-06	9.833363e-10	1.893981e+01	6.872400e+01
2.460000e-06	2.769866e-06	9.928485e-10	1.921900e+01	6.958502e+01
2.470000e-06	2.809908e-06	1.002404e-09	1.949683e+01	7.042368e+01
2.480000e-06	2.849853e-06	1.013947e-09	1.977400e+01	7.124068e+01
2.490000e-06	2.889699e-06	1.027569e-09	2.005047e+01	7.203667e+01
2.500000e-06	2.929423e-06	1.041066e-09	2.032610e+01	7.281229e+01
2.510000e-06	2.969011e-06	1.053124e-09	2.060079e+01	7.356815e+01
2.520000e-06	3.008354e-06	1.062629e-09	2.087377e+01	7.430480e+01
2.530000e-06	3.047470e-06	1.070610e-09	2.114518e+01	7.502276e+01
2.540000e-06	3.086446e-06	1.078267e-09	2.141562e+01	7.572253e+01
2.550000e-06	3.125196e-06	1.085265e-09	2.168449e+01	7.640455e+01
2.560000e-06	3.163645e-06	1.092835e-09	2.195127e+01	7.706921e+01
2.570000e-06	3.201898e-06	1.101573e-09	2.221670e+01	7.771689e+01
2.580000e-06	3.239968e-06	1.109980e-09	2.248085e+01	7.834791e+01
2.590000e-06	3.277802e-06	1.118449e-09	2.274336e+01	7.896257e+01
2.600000e-06	3.315426e-06	1.126944e-09	2.300442e+01	7.956114e+01
2.610000e-06	3.352832e-06	1.133751e-09	2.326397e+01	8.014383e+01
2.620000e-06	3.390022e-06	1.139663e-09	2.352201e+01	8.071086e+01
2.630000e-06	3.426934e-06	1.145033e-09	2.377813e+01	8.126242e+01
2.640000e-06	3.463581e-06	1.149821e-09	2.403241e+01	8.179868e+01
2.650000e-06	3.500045e-06	1.155762e-09	2.428542e+01	8.231978e+01
2.660000e-06	3.536284e-06	1.163621e-09	2.453687e+01	8.282588e+01
2.670000e-06	3.572340e-06	1.169905e-09	2.478705e+01	8.331711e+01
2.680000e-06	3.608256e-06	1.174728e-09	2.503625e+01	8.379362e+01
2.690000e-06	3.643983e-06	1.179710e-09	2.528415e+01	8.425556e+01
2.700000e-06	3.679555e-06	1.184248e-09	2.553097e+01	8.470307e+01
2.710000e-06	3.714949e-06	1.189133e-09	2.577655e+01	8.513632e+01
2.720000e-06	3.750135e-06	1.195954e-09	2.602070e+01	8.555551e+01
2.730000e-06	3.784938e-06	1.204042e-09	2.626218e+01	8.596082e+01
2.740000e-06	3.819200e-06	1.211502e-09	2.649991e+01	8.635250e+01
2.750000e-06	3.853079e-06	1.219732e-09	2.673498e+01	8.673079e+01
2.760000e-06	3.886529e-06	1.229080e-09	2.696708e+01	8.709597e+01
2.770000e-06	3.919442e-06	1.236144e-09	2.719545e+01	8.744836e+01
2.780000e-06	3.951992e-06	1.241238e-09	2.742130e+01	8.778829e+01
2.790000e-06	3.984275e-06	1.245467e-09	2.764530e+01	8.811614e+01
2.800000e-06	4.016323e-06	1.248422e-09	2.786767e+01	8.843232e+01
2.810000e-06	4.048204e-06	1.251343e-09	2.808888e+01	8.873727e+01
2.820000e-06	4.079947e-06	1.257990e-09	2.830913e+01	8.903145e+01
2.830000e-06	4.111519e-06	1.267339e-09	2.852820e+01	8.931537e+01
2.840000e-06	4.142891e-06	1.274753e-09	2.874587e+01	8.958955e+01
2.850000e-06	4.173924e-06	1.281193e-09	2.896120e+01	8.985454e+01
2.860000e-06	4.204508e-06	1.288183e-09	2.917341e+01	9.011091e+01
2.870000e-06	4.234769e-06	1.293150e-09	2.938338e+01	9.035927e+01
2.880000e-06	4.264818e-06	1.295971e-09	2.959187e+01	9.060021e+01
2.890000e-06	4.294676e-06	1.299082e-09	2.979905e+01	9.083436e+01
2.900000e-06	4.324245e-06	1.303703e-09	3.000422e+01	9.106234e+01
