# Temperatura_=_12.2
# Concentracion g/m^3_=_1620.0
# C_Vs_to_Am_M_A/Vsm_=_65563218390.804596
# pendiente_HvsI_1/m_=_3716.3
# ordenada_HvsI_A/m_=_1297.0
# frecuencia_Hz_=_135100.69371982643

Tiempo_(s)	Campo_(V.s)	Magnetizacion_(V.s)	Campo_(kA/m)	Magnetizacion_(A/m)
0.000000e+00	-5.529385e-06	-1.415113e-09	-3.837361e+01	-9.511625e+01
1.000000e-08	-5.529538e-06	-1.413492e-09	-3.837467e+01	-9.511827e+01
2.000000e-08	-5.529427e-06	-1.412293e-09	-3.837390e+01	-9.512378e+01
3.000000e-08	-5.528991e-06	-1.409775e-09	-3.837087e+01	-9.513255e+01
4.000000e-08	-5.528207e-06	-1.403992e-09	-3.836543e+01	-9.514428e+01
5.000000e-08	-5.526833e-06	-1.398908e-09	-3.835589e+01	-9.515863e+01
6.000000e-08	-5.524732e-06	-1.401688e-09	-3.834131e+01	-9.517522e+01
7.000000e-08	-5.522047e-06	-1.433472e-09	-3.832268e+01	-9.519361e+01
8.000000e-08	-5.518853e-06	-1.431887e-09	-3.830052e+01	-9.521332e+01
9.000000e-08	-5.515159e-06	-1.334569e-09	-3.827488e+01	-9.523385e+01
1.000000e-07	-5.511084e-06	-1.290243e-09	-3.824660e+01	-9.525465e+01
1.100000e-07	-5.506832e-06	-1.425758e-09	-3.821709e+01	-9.527515e+01
1.200000e-07	-5.502332e-06	-1.487109e-09	-3.818586e+01	-9.529477e+01
1.300000e-07	-5.497482e-06	-1.404953e-09	-3.815220e+01	-9.531291e+01
1.400000e-07	-5.492269e-06	-1.291300e-09	-3.811603e+01	-9.532894e+01
1.500000e-07	-5.486656e-06	-1.414194e-09	-3.807707e+01	-9.534226e+01
1.600000e-07	-5.480594e-06	-1.488908e-09	-3.803500e+01	-9.535224e+01
1.700000e-07	-5.474064e-06	-1.384899e-09	-3.798968e+01	-9.535829e+01
1.800000e-07	-5.467140e-06	-1.290864e-09	-3.794163e+01	-9.535981e+01
1.900000e-07	-5.459901e-06	-1.394601e-09	-3.789139e+01	-9.535622e+01
2.000000e-07	-5.452342e-06	-1.511420e-09	-3.783894e+01	-9.534697e+01
2.100000e-07	-5.444530e-06	-1.454150e-09	-3.778472e+01	-9.533154e+01
2.200000e-07	-5.436475e-06	-1.380435e-09	-3.772882e+01	-9.530945e+01
2.300000e-07	-5.428082e-06	-1.401342e-09	-3.767057e+01	-9.528024e+01
2.400000e-07	-5.419191e-06	-1.473941e-09	-3.760887e+01	-9.524349e+01
2.500000e-07	-5.409666e-06	-1.455315e-09	-3.754276e+01	-9.519885e+01
2.600000e-07	-5.399503e-06	-1.432367e-09	-3.747223e+01	-9.514600e+01
2.700000e-07	-5.388713e-06	-1.429107e-09	-3.739735e+01	-9.508467e+01
2.800000e-07	-5.377456e-06	-1.472868e-09	-3.731923e+01	-9.501464e+01
2.900000e-07	-5.365926e-06	-1.442957e-09	-3.723921e+01	-9.493575e+01
3.000000e-07	-5.354067e-06	-1.417144e-09	-3.715691e+01	-9.484789e+01
3.100000e-07	-5.341707e-06	-1.410906e-09	-3.707113e+01	-9.475101e+01
3.200000e-07	-5.328977e-06	-1.478989e-09	-3.698278e+01	-9.464510e+01
3.300000e-07	-5.315927e-06	-1.466569e-09	-3.689222e+01	-9.453022e+01
3.400000e-07	-5.302412e-06	-1.423881e-09	-3.679843e+01	-9.440647e+01
3.500000e-07	-5.288351e-06	-1.433053e-09	-3.670084e+01	-9.427401e+01
3.600000e-07	-5.273853e-06	-1.477044e-09	-3.660023e+01	-9.413304e+01
3.700000e-07	-5.258918e-06	-1.406444e-09	-3.649658e+01	-9.398379e+01
3.800000e-07	-5.243390e-06	-1.379280e-09	-3.638882e+01	-9.382657e+01
3.900000e-07	-5.227413e-06	-1.454410e-09	-3.627794e+01	-9.366169e+01
4.000000e-07	-5.211125e-06	-1.441343e-09	-3.616490e+01	-9.348952e+01
4.100000e-07	-5.194379e-06	-1.358629e-09	-3.604868e+01	-9.331044e+01
4.200000e-07	-5.177292e-06	-1.429904e-09	-3.593010e+01	-9.312487e+01
4.300000e-07	-5.159981e-06	-1.490320e-09	-3.580997e+01	-9.293325e+01
4.400000e-07	-5.142320e-06	-1.361415e-09	-3.568740e+01	-9.273604e+01
4.500000e-07	-5.124206e-06	-1.337622e-09	-3.556169e+01	-9.253369e+01
4.600000e-07	-5.105627e-06	-1.454007e-09	-3.543275e+01	-9.232667e+01
4.700000e-07	-5.086706e-06	-1.408536e-09	-3.530144e+01	-9.211548e+01
4.800000e-07	-5.067503e-06	-1.310872e-09	-3.516817e+01	-9.190057e+01
4.900000e-07	-5.048043e-06	-1.417991e-09	-3.503312e+01	-9.168241e+01
5.000000e-07	-5.028338e-06	-1.441807e-09	-3.489637e+01	-9.146146e+01
5.100000e-07	-5.008371e-06	-1.338464e-09	-3.475780e+01	-9.123815e+01
5.200000e-07	-4.988093e-06	-1.380107e-09	-3.461707e+01	-9.101291e+01
5.300000e-07	-4.967470e-06	-1.455748e-09	-3.447395e+01	-9.078613e+01
5.400000e-07	-4.946516e-06	-1.332259e-09	-3.432853e+01	-9.055818e+01
5.500000e-07	-4.925169e-06	-1.308694e-09	-3.418038e+01	-9.032940e+01
5.600000e-07	-4.903480e-06	-1.411822e-09	-3.402986e+01	-9.010010e+01
5.700000e-07	-4.881498e-06	-1.371911e-09	-3.387731e+01	-8.987055e+01
5.800000e-07	-4.859128e-06	-1.294014e-09	-3.372206e+01	-8.964099e+01
5.900000e-07	-4.836425e-06	-1.378767e-09	-3.356451e+01	-8.941163e+01
6.000000e-07	-4.813313e-06	-1.384198e-09	-3.340411e+01	-8.918262e+01
6.100000e-07	-4.789844e-06	-1.302116e-09	-3.324123e+01	-8.895410e+01
6.200000e-07	-4.766227e-06	-1.328624e-09	-3.307733e+01	-8.872613e+01
6.300000e-07	-4.742401e-06	-1.372676e-09	-3.291198e+01	-8.849878e+01
6.400000e-07	-4.718290e-06	-1.312228e-09	-3.274466e+01	-8.827205e+01
6.500000e-07	-4.693842e-06	-1.312513e-09	-3.257499e+01	-8.804590e+01
6.600000e-07	-4.668857e-06	-1.354412e-09	-3.240159e+01	-8.782028e+01
6.700000e-07	-4.643253e-06	-1.320715e-09	-3.222390e+01	-8.759509e+01
6.800000e-07	-4.617158e-06	-1.297203e-09	-3.204280e+01	-8.737019e+01
6.900000e-07	-4.590658e-06	-1.334977e-09	-3.185890e+01	-8.714543e+01
7.000000e-07	-4.563707e-06	-1.322590e-09	-3.167186e+01	-8.692062e+01
7.100000e-07	-4.536428e-06	-1.287098e-09	-3.148254e+01	-8.669555e+01
7.200000e-07	-4.508910e-06	-1.303858e-09	-3.129157e+01	-8.646999e+01
7.300000e-07	-4.481191e-06	-1.306091e-09	-3.109920e+01	-8.624369e+01
7.400000e-07	-4.453339e-06	-1.279442e-09	-3.090591e+01	-8.601638e+01
7.500000e-07	-4.425237e-06	-1.283584e-09	-3.071088e+01	-8.578779e+01
7.600000e-07	-4.396837e-06	-1.296368e-09	-3.051379e+01	-8.555763e+01
7.700000e-07	-4.368087e-06	-1.275480e-09	-3.031426e+01	-8.532561e+01
7.800000e-07	-4.338961e-06	-1.271742e-09	-3.011214e+01	-8.509144e+01
7.900000e-07	-4.309540e-06	-1.275607e-09	-2.990795e+01	-8.485482e+01
8.000000e-07	-4.279865e-06	-1.260031e-09	-2.970201e+01	-8.461546e+01
8.100000e-07	-4.249998e-06	-1.247446e-09	-2.949473e+01	-8.437309e+01
8.200000e-07	-4.219873e-06	-1.263613e-09	-2.928567e+01	-8.412743e+01
8.300000e-07	-4.189295e-06	-1.256322e-09	-2.907346e+01	-8.387821e+01
8.400000e-07	-4.158303e-06	-1.241507e-09	-2.885838e+01	-8.362518e+01
8.500000e-07	-4.127108e-06	-1.243342e-09	-2.864188e+01	-8.336812e+01
8.600000e-07	-4.095712e-06	-1.243550e-09	-2.842400e+01	-8.310680e+01
8.700000e-07	-4.064141e-06	-1.219968e-09	-2.820490e+01	-8.284102e+01
8.800000e-07	-4.032406e-06	-1.217647e-09	-2.798466e+01	-8.257060e+01
8.900000e-07	-4.000449e-06	-1.219885e-09	-2.776288e+01	-8.229539e+01
9.000000e-07	-3.968313e-06	-1.208274e-09	-2.753986e+01	-8.201524e+01
9.100000e-07	-3.935874e-06	-1.203847e-09	-2.731474e+01	-8.173003e+01
9.200000e-07	-3.902957e-06	-1.214692e-09	-2.708629e+01	-8.143967e+01
9.300000e-07	-3.869592e-06	-1.203642e-09	-2.685474e+01	-8.114408e+01
9.400000e-07	-3.835767e-06	-1.190022e-09	-2.662000e+01	-8.084320e+01
9.500000e-07	-3.801514e-06	-1.193946e-09	-2.638228e+01	-8.053700e+01
9.600000e-07	-3.766785e-06	-1.187980e-09	-2.614126e+01	-8.022545e+01
9.700000e-07	-3.731692e-06	-1.165732e-09	-2.589772e+01	-7.990856e+01
9.800000e-07	-3.696403e-06	-1.161901e-09	-2.565282e+01	-7.958634e+01
9.900000e-07	-3.660901e-06	-1.164380e-09	-2.540644e+01	-7.925882e+01
1.000000e-06	-3.625335e-06	-1.150926e-09	-2.515961e+01	-7.892605e+01
1.010000e-06	-3.589664e-06	-1.145303e-09	-2.491206e+01	-7.858807e+01
1.020000e-06	-3.553821e-06	-1.152265e-09	-2.466331e+01	-7.824496e+01
1.030000e-06	-3.517779e-06	-1.147345e-09	-2.441318e+01	-7.789680e+01
1.040000e-06	-3.481468e-06	-1.134940e-09	-2.416119e+01	-7.754366e+01
1.050000e-06	-3.444910e-06	-1.134585e-09	-2.390748e+01	-7.718563e+01
1.060000e-06	-3.408022e-06	-1.128205e-09	-2.365147e+01	-7.682280e+01
1.070000e-06	-3.370868e-06	-1.116288e-09	-2.339363e+01	-7.645527e+01
1.080000e-06	-3.333566e-06	-1.112674e-09	-2.313475e+01	-7.608312e+01
1.090000e-06	-3.295969e-06	-1.114321e-09	-2.287383e+01	-7.570646e+01
1.100000e-06	-3.258094e-06	-1.103046e-09	-2.261098e+01	-7.532536e+01
1.110000e-06	-3.220024e-06	-1.096346e-09	-2.234678e+01	-7.493993e+01
1.120000e-06	-3.181761e-06	-1.096625e-09	-2.208124e+01	-7.455024e+01
1.130000e-06	-3.143237e-06	-1.091145e-09	-2.181388e+01	-7.415636e+01
1.140000e-06	-3.104378e-06	-1.079829e-09	-2.154420e+01	-7.375836e+01
1.150000e-06	-3.065314e-06	-1.077447e-09	-2.127310e+01	-7.335631e+01
1.160000e-06	-3.026054e-06	-1.071070e-09	-2.100063e+01	-7.295026e+01
1.170000e-06	-2.986651e-06	-1.058716e-09	-2.072718e+01	-7.254025e+01
1.180000e-06	-2.947208e-06	-1.051078e-09	-2.045345e+01	-7.212631e+01
1.190000e-06	-2.907622e-06	-1.048787e-09	-2.017873e+01	-7.170848e+01
1.200000e-06	-2.867899e-06	-1.039988e-09	-1.990305e+01	-7.128676e+01
1.210000e-06	-2.828053e-06	-1.033441e-09	-1.962652e+01	-7.086115e+01
1.220000e-06	-2.788037e-06	-1.029636e-09	-1.934881e+01	-7.043166e+01
1.230000e-06	-2.747847e-06	-1.022833e-09	-1.906990e+01	-6.999825e+01
1.240000e-06	-2.707506e-06	-1.015323e-09	-1.878993e+01	-6.956090e+01
1.250000e-06	-2.666963e-06	-1.012843e-09	-1.850857e+01	-6.911957e+01
1.260000e-06	-2.626240e-06	-1.007543e-09	-1.822595e+01	-6.867420e+01
1.270000e-06	-2.585295e-06	-9.976189e-10	-1.794179e+01	-6.822474e+01
1.280000e-06	-2.543990e-06	-9.893021e-10	-1.765514e+01	-6.777109e+01
1.290000e-06	-2.502358e-06	-9.826352e-10	-1.736622e+01	-6.731317e+01
1.300000e-06	-2.460405e-06	-9.734843e-10	-1.707507e+01	-6.685088e+01
1.310000e-06	-2.418067e-06	-9.642862e-10	-1.678124e+01	-6.638410e+01
1.320000e-06	-2.375349e-06	-9.586566e-10	-1.648478e+01	-6.591271e+01
1.330000e-06	-2.332380e-06	-9.514974e-10	-1.618658e+01	-6.543655e+01
1.340000e-06	-2.289271e-06	-9.428778e-10	-1.588741e+01	-6.495548e+01
1.350000e-06	-2.246047e-06	-9.337206e-10	-1.558743e+01	-6.446930e+01
1.360000e-06	-2.202676e-06	-9.235530e-10	-1.528644e+01	-6.397784e+01
1.370000e-06	-2.159092e-06	-9.158944e-10	-1.498397e+01	-6.348088e+01
1.380000e-06	-2.115399e-06	-9.090203e-10	-1.468074e+01	-6.297819e+01
1.390000e-06	-2.071658e-06	-9.002676e-10	-1.437719e+01	-6.246952e+01
1.400000e-06	-2.027837e-06	-8.906375e-10	-1.407307e+01	-6.195461e+01
1.410000e-06	-1.983978e-06	-8.808950e-10	-1.376869e+01	-6.143315e+01
1.420000e-06	-1.940060e-06	-8.727558e-10	-1.346390e+01	-6.090483e+01
1.430000e-06	-1.896042e-06	-8.622089e-10	-1.315842e+01	-6.036931e+01
1.440000e-06	-1.851949e-06	-8.537698e-10	-1.285242e+01	-5.982622e+01
1.450000e-06	-1.807738e-06	-8.463655e-10	-1.254560e+01	-5.927516e+01
1.460000e-06	-1.763361e-06	-8.394993e-10	-1.223762e+01	-5.871569e+01
1.470000e-06	-1.718839e-06	-8.279012e-10	-1.192864e+01	-5.814738e+01
1.480000e-06	-1.674164e-06	-8.156492e-10	-1.161860e+01	-5.756971e+01
1.490000e-06	-1.629306e-06	-8.024884e-10	-1.130729e+01	-5.698218e+01
1.500000e-06	-1.584285e-06	-7.891366e-10	-1.099485e+01	-5.638424e+01
1.510000e-06	-1.539170e-06	-7.813317e-10	-1.068175e+01	-5.577528e+01
1.520000e-06	-1.493900e-06	-7.799000e-10	-1.036758e+01	-5.515470e+01
1.530000e-06	-1.448498e-06	-7.744996e-10	-1.005249e+01	-5.452183e+01
1.540000e-06	-1.403032e-06	-7.626147e-10	-9.736958e+00	-5.387600e+01
1.550000e-06	-1.357475e-06	-7.466255e-10	-9.420795e+00	-5.321649e+01
1.560000e-06	-1.311835e-06	-7.301772e-10	-9.104059e+00	-5.254253e+01
1.570000e-06	-1.266119e-06	-7.149235e-10	-8.786788e+00	-5.185336e+01
1.580000e-06	-1.220337e-06	-7.034760e-10	-8.469069e+00	-5.114817e+01
1.590000e-06	-1.174529e-06	-6.964211e-10	-8.151163e+00	-5.042613e+01
1.600000e-06	-1.128674e-06	-6.907114e-10	-7.832934e+00	-4.968638e+01
1.610000e-06	-1.082653e-06	-6.818112e-10	-7.513549e+00	-4.892804e+01
1.620000e-06	-1.036487e-06	-6.694349e-10	-7.193160e+00	-4.815024e+01
1.630000e-06	-9.903037e-07	-6.552141e-10	-6.872650e+00	-4.735206e+01
1.640000e-06	-9.441548e-07	-6.406589e-10	-6.552379e+00	-4.653260e+01
1.650000e-06	-8.979766e-07	-6.276696e-10	-6.231905e+00	-4.569094e+01
1.660000e-06	-8.517522e-07	-6.143919e-10	-5.911110e+00	-4.482618e+01
1.670000e-06	-8.053876e-07	-5.997581e-10	-5.589342e+00	-4.393741e+01
1.680000e-06	-7.588827e-07	-5.831529e-10	-5.266602e+00	-4.302375e+01
1.690000e-06	-7.123599e-07	-5.669805e-10	-4.943736e+00	-4.208433e+01
1.700000e-06	-6.658115e-07	-5.496993e-10	-4.620693e+00	-4.111830e+01
1.710000e-06	-6.192962e-07	-5.339146e-10	-4.297880e+00	-4.012485e+01
1.720000e-06	-5.727170e-07	-5.215269e-10	-3.974622e+00	-3.910322e+01
1.730000e-06	-5.259381e-07	-5.092283e-10	-3.649979e+00	-3.805268e+01
1.740000e-06	-4.791115e-07	-4.928822e-10	-3.325006e+00	-3.697256e+01
1.750000e-06	-4.322645e-07	-4.735577e-10	-2.999890e+00	-3.586225e+01
1.760000e-06	-3.853409e-07	-4.531783e-10	-2.674243e+00	-3.472120e+01
1.770000e-06	-3.384020e-07	-4.351315e-10	-2.348490e+00	-3.354894e+01
1.780000e-06	-2.914556e-07	-4.185302e-10	-2.022685e+00	-3.234508e+01
1.790000e-06	-2.444995e-07	-4.040345e-10	-1.696812e+00	-3.110931e+01
1.800000e-06	-1.975800e-07	-3.899139e-10	-1.371194e+00	-2.984141e+01
1.810000e-06	-1.506776e-07	-3.728493e-10	-1.045694e+00	-2.854128e+01
1.820000e-06	-1.036634e-07	-3.532685e-10	-7.194182e-01	-2.720889e+01
1.830000e-06	-5.664340e-08	-3.335577e-10	-3.931019e-01	-2.584434e+01
1.840000e-06	-9.781309e-09	-3.153287e-10	-6.788171e-02	-2.444782e+01
1.850000e-06	3.707185e-08	-2.972555e-10	2.572764e-01	-2.301966e+01
1.860000e-06	8.399586e-08	-2.763016e-10	5.829264e-01	-2.156028e+01
1.870000e-06	1.308507e-07	-2.529145e-10	9.080960e-01	-2.007024e+01
1.880000e-06	1.777495e-07	-2.312546e-10	1.233571e+00	-1.855021e+01
1.890000e-06	2.247252e-07	-2.108003e-10	1.559579e+00	-1.700099e+01
1.900000e-06	2.716650e-07	-1.889989e-10	1.885339e+00	-1.542348e+01
1.910000e-06	3.185515e-07	-1.685289e-10	2.210729e+00	-1.381872e+01
1.920000e-06	3.653598e-07	-1.499878e-10	2.535576e+00	-1.218787e+01
1.930000e-06	4.121623e-07	-1.288798e-10	2.860382e+00	-1.053218e+01
1.940000e-06	4.589568e-07	-1.031501e-10	3.185133e+00	-8.853048e+00
1.950000e-06	5.057519e-07	-7.636045e-11	3.509888e+00	-7.151946e+00
1.960000e-06	5.525783e-07	-5.253043e-11	3.834861e+00	-5.430468e+00
1.970000e-06	5.992644e-07	-3.055286e-11	4.158860e+00	-3.690298e+00
1.980000e-06	6.458173e-07	-1.003421e-11	4.481934e+00	-1.933212e+00
1.990000e-06	6.922989e-07	1.246976e-11	4.804514e+00	-1.610689e-01
2.000000e-06	7.386650e-07	3.847899e-11	5.126291e+00	1.624198e+00
2.010000e-06	7.850235e-07	6.729244e-11	5.448017e+00	3.420588e+00
2.020000e-06	8.313961e-07	9.634086e-11	5.769840e+00	5.226044e+00
2.030000e-06	8.777160e-07	1.230344e-10	6.091298e+00	7.038460e+00
2.040000e-06	9.239762e-07	1.455882e-10	6.412340e+00	8.855690e+00
2.050000e-06	9.701314e-07	1.667650e-10	6.732655e+00	1.067556e+01
2.060000e-06	1.016167e-06	1.915167e-10	7.052141e+00	1.249589e+01
2.070000e-06	1.062137e-06	2.182649e-10	7.371172e+00	1.431447e+01
2.080000e-06	1.108052e-06	2.467613e-10	7.689813e+00	1.612911e+01
2.090000e-06	1.153918e-06	2.751061e-10	8.008126e+00	1.793763e+01
2.100000e-06	1.199721e-06	3.008748e-10	8.325993e+00	1.973789e+01
2.110000e-06	1.245407e-06	3.267632e-10	8.643049e+00	2.152775e+01
2.120000e-06	1.290977e-06	3.494598e-10	8.959306e+00	2.330515e+01
2.130000e-06	1.336445e-06	3.709669e-10	9.274852e+00	2.506807e+01
2.140000e-06	1.381879e-06	3.919254e-10	9.590158e+00	2.681455e+01
2.150000e-06	1.427289e-06	4.141767e-10	9.905301e+00	2.854273e+01
2.160000e-06	1.472593e-06	4.379635e-10	1.021971e+01	3.025081e+01
2.170000e-06	1.517832e-06	4.641573e-10	1.053366e+01	3.193708e+01
2.180000e-06	1.562945e-06	4.918491e-10	1.084675e+01	3.359994e+01
2.190000e-06	1.607921e-06	5.187047e-10	1.115888e+01	3.523788e+01
2.200000e-06	1.652735e-06	5.439150e-10	1.146988e+01	3.684952e+01
2.210000e-06	1.697397e-06	5.619352e-10	1.177983e+01	3.843358e+01
2.220000e-06	1.741952e-06	5.758023e-10	1.208904e+01	3.998890e+01
2.230000e-06	1.786304e-06	5.897548e-10	1.239684e+01	4.151446e+01
2.240000e-06	1.830514e-06	6.063500e-10	1.270366e+01	4.300933e+01
2.250000e-06	1.874658e-06	6.262666e-10	1.301002e+01	4.447274e+01
2.260000e-06	1.918712e-06	6.508639e-10	1.331575e+01	4.590403e+01
2.270000e-06	1.962662e-06	6.787889e-10	1.362076e+01	4.730267e+01
2.280000e-06	2.006566e-06	7.052017e-10	1.392545e+01	4.866826e+01
2.290000e-06	2.050407e-06	7.254912e-10	1.422970e+01	5.000051e+01
2.300000e-06	2.094196e-06	7.395804e-10	1.453359e+01	5.129927e+01
2.310000e-06	2.137916e-06	7.502455e-10	1.483701e+01	5.256448e+01
2.320000e-06	2.181503e-06	7.626303e-10	1.513950e+01	5.379622e+01
2.330000e-06	2.224982e-06	7.754744e-10	1.544124e+01	5.499466e+01
2.340000e-06	2.268346e-06	7.925724e-10	1.574219e+01	5.616007e+01
2.350000e-06	2.311603e-06	8.135467e-10	1.604239e+01	5.729282e+01
2.360000e-06	2.354704e-06	8.343842e-10	1.634151e+01	5.839337e+01
2.370000e-06	2.397498e-06	8.506751e-10	1.663850e+01	5.946226e+01
2.380000e-06	2.439978e-06	8.631966e-10	1.693330e+01	6.050009e+01
2.390000e-06	2.482124e-06	8.743956e-10	1.722580e+01	6.150755e+01
2.400000e-06	2.523989e-06	8.842904e-10	1.751634e+01	6.248536e+01
2.410000e-06	2.565556e-06	8.951446e-10	1.780481e+01	6.343432e+01
2.420000e-06	2.606755e-06	9.080318e-10	1.809072e+01	6.435523e+01
2.430000e-06	2.647698e-06	9.230685e-10	1.837487e+01	6.524896e+01
2.440000e-06	2.688372e-06	9.370064e-10	1.865715e+01	6.611638e+01
2.450000e-06	2.728815e-06	9.489310e-10	1.893781e+01	6.695839e+01
2.460000e-06	2.769117e-06	9.596326e-10	1.921751e+01	6.777590e+01
2.470000e-06	2.809243e-06	9.710836e-10	1.949598e+01	6.856980e+01
2.480000e-06	2.849143e-06	9.844034e-10	1.977289e+01	6.934100e+01
2.490000e-06	2.888876e-06	9.974529e-10	2.004863e+01	7.009038e+01
2.500000e-06	2.928485e-06	1.007960e-09	2.032351e+01	7.081882e+01
2.510000e-06	2.967977e-06	1.018088e-09	2.059759e+01	7.152716e+01
2.520000e-06	3.007340e-06	1.028212e-09	2.087076e+01	7.221621e+01
2.530000e-06	3.046496e-06	1.037789e-09	2.114250e+01	7.288677e+01
2.540000e-06	3.085373e-06	1.046679e-09	2.141230e+01	7.353957e+01
2.550000e-06	3.124019e-06	1.055545e-09	2.168051e+01	7.417532e+01
2.560000e-06	3.162473e-06	1.062933e-09	2.194737e+01	7.479469e+01
2.570000e-06	3.200699e-06	1.070748e-09	2.221266e+01	7.539831e+01
2.580000e-06	3.238753e-06	1.078231e-09	2.247675e+01	7.598674e+01
2.590000e-06	3.276604e-06	1.086350e-09	2.273944e+01	7.656052e+01
2.600000e-06	3.314249e-06	1.095844e-09	2.300069e+01	7.712014e+01
2.610000e-06	3.351690e-06	1.105025e-09	2.326053e+01	7.766603e+01
2.620000e-06	3.388883e-06	1.114510e-09	2.351865e+01	7.819860e+01
2.630000e-06	3.425825e-06	1.119597e-09	2.377503e+01	7.871821e+01
2.640000e-06	3.462552e-06	1.125098e-09	2.402991e+01	7.922516e+01
2.650000e-06	3.499064e-06	1.131545e-09	2.428330e+01	7.971975e+01
2.660000e-06	3.535311e-06	1.136230e-09	2.453485e+01	8.020222e+01
2.670000e-06	3.571325e-06	1.141988e-09	2.478478e+01	8.067279e+01
2.680000e-06	3.607168e-06	1.150512e-09	2.503353e+01	8.113166e+01
2.690000e-06	3.642886e-06	1.163287e-09	2.528141e+01	8.157900e+01
2.700000e-06	3.678472e-06	1.172896e-09	2.552838e+01	8.201495e+01
2.710000e-06	3.713862e-06	1.178305e-09	2.577398e+01	8.243966e+01
2.720000e-06	3.748974e-06	1.183151e-09	2.601766e+01	8.285326e+01
2.730000e-06	3.783692e-06	1.187891e-09	2.625860e+01	8.325587e+01
2.740000e-06	3.818044e-06	1.192092e-09	2.649700e+01	8.364761e+01
2.750000e-06	3.852017e-06	1.199582e-09	2.673277e+01	8.402860e+01
2.760000e-06	3.885438e-06	1.209720e-09	2.696471e+01	8.439897e+01
2.770000e-06	3.918366e-06	1.219491e-09	2.719323e+01	8.475885e+01
2.780000e-06	3.950973e-06	1.226760e-09	2.741952e+01	8.510841e+01
2.790000e-06	3.983278e-06	1.230448e-09	2.764372e+01	8.544779e+01
2.800000e-06	4.015303e-06	1.233981e-09	2.786597e+01	8.577717e+01
2.810000e-06	4.047211e-06	1.237473e-09	2.808741e+01	8.609676e+01
2.820000e-06	4.079005e-06	1.242636e-09	2.830806e+01	8.640677e+01
2.830000e-06	4.110551e-06	1.248861e-09	2.852698e+01	8.670745e+01
2.840000e-06	4.141781e-06	1.253827e-09	2.874372e+01	8.699904e+01
2.850000e-06	4.172715e-06	1.258308e-09	2.895840e+01	8.728183e+01
2.860000e-06	4.203345e-06	1.261586e-09	2.917097e+01	8.755612e+01
2.870000e-06	4.233707e-06	1.263817e-09	2.938168e+01	8.782224e+01
2.880000e-06	4.263827e-06	1.268519e-09	2.959071e+01	8.808053e+01
2.890000e-06	4.293666e-06	1.276612e-09	2.979779e+01	8.833134e+01
2.900000e-06	4.323116e-06	1.286320e-09	3.000217e+01	8.857504e+01
