# Temperatura_=_1.3
# Concentracion g/m^3_=_1620.0
# C_Vs_to_Am_M_A/Vsm_=_65563218390.804596
# pendiente_HvsI_1/m_=_3716.3
# ordenada_HvsI_A/m_=_1297.0
# frecuencia_Hz_=_135105.89146720432

Tiempo_(s)	Campo_(V.s)	Magnetizacion_(V.s)	Campo_(kA/m)	Magnetizacion_(A/m)
0.000000e+00	-5.532850e-06	-1.165077e-09	-3.838099e+01	-7.911710e+01
1.000000e-08	-5.533081e-06	-1.164488e-09	-3.838260e+01	-7.910656e+01
2.000000e-08	-5.533133e-06	-1.165550e-09	-3.838296e+01	-7.909842e+01
3.000000e-08	-5.532800e-06	-1.167427e-09	-3.838064e+01	-7.909252e+01
4.000000e-08	-5.532065e-06	-1.166856e-09	-3.837555e+01	-7.908862e+01
5.000000e-08	-5.530758e-06	-1.162672e-09	-3.836648e+01	-7.908647e+01
6.000000e-08	-5.528712e-06	-1.154960e-09	-3.835229e+01	-7.908579e+01
7.000000e-08	-5.526095e-06	-1.148212e-09	-3.833414e+01	-7.908625e+01
8.000000e-08	-5.522987e-06	-1.154521e-09	-3.831257e+01	-7.908751e+01
9.000000e-08	-5.519389e-06	-1.171169e-09	-3.828762e+01	-7.908919e+01
1.000000e-07	-5.515299e-06	-1.183371e-09	-3.825924e+01	-7.909090e+01
1.100000e-07	-5.510878e-06	-1.180245e-09	-3.822858e+01	-7.909224e+01
1.200000e-07	-5.506328e-06	-1.149618e-09	-3.819701e+01	-7.909277e+01
1.300000e-07	-5.501550e-06	-1.117842e-09	-3.816387e+01	-7.909206e+01
1.400000e-07	-5.496369e-06	-1.139398e-09	-3.812793e+01	-7.908969e+01
1.500000e-07	-5.490795e-06	-1.156007e-09	-3.808926e+01	-7.908522e+01
1.600000e-07	-5.484869e-06	-1.158590e-09	-3.804815e+01	-7.907822e+01
1.700000e-07	-5.478492e-06	-1.144016e-09	-3.800392e+01	-7.906828e+01
1.800000e-07	-5.471703e-06	-1.177752e-09	-3.795683e+01	-7.905498e+01
1.900000e-07	-5.464545e-06	-1.219852e-09	-3.790717e+01	-7.903794e+01
2.000000e-07	-5.457051e-06	-1.193057e-09	-3.785518e+01	-7.901680e+01
2.100000e-07	-5.449329e-06	-1.146482e-09	-3.780162e+01	-7.899121e+01
2.200000e-07	-5.441354e-06	-1.143545e-09	-3.774629e+01	-7.896087e+01
2.300000e-07	-5.433148e-06	-1.192130e-09	-3.768937e+01	-7.892548e+01
2.400000e-07	-5.424528e-06	-1.203526e-09	-3.762957e+01	-7.888482e+01
2.500000e-07	-5.415163e-06	-1.195746e-09	-3.756461e+01	-7.883865e+01
2.600000e-07	-5.405113e-06	-1.188976e-09	-3.749489e+01	-7.878683e+01
2.700000e-07	-5.394452e-06	-1.190396e-09	-3.742094e+01	-7.872921e+01
2.800000e-07	-5.383241e-06	-1.168346e-09	-3.734317e+01	-7.866570e+01
2.900000e-07	-5.371680e-06	-1.168224e-09	-3.726297e+01	-7.859627e+01
3.000000e-07	-5.359759e-06	-1.177409e-09	-3.718027e+01	-7.852089e+01
3.100000e-07	-5.347393e-06	-1.185273e-09	-3.709449e+01	-7.843962e+01
3.200000e-07	-5.334598e-06	-1.188942e-09	-3.700573e+01	-7.835251e+01
3.300000e-07	-5.321448e-06	-1.205448e-09	-3.691452e+01	-7.825970e+01
3.400000e-07	-5.307941e-06	-1.199844e-09	-3.682081e+01	-7.816133e+01
3.500000e-07	-5.294114e-06	-1.181943e-09	-3.672490e+01	-7.805760e+01
3.600000e-07	-5.279909e-06	-1.180297e-09	-3.662636e+01	-7.794872e+01
3.700000e-07	-5.265206e-06	-1.177430e-09	-3.652437e+01	-7.783496e+01
3.800000e-07	-5.249928e-06	-1.168258e-09	-3.641839e+01	-7.771660e+01
3.900000e-07	-5.234087e-06	-1.180432e-09	-3.630850e+01	-7.759395e+01
4.000000e-07	-5.217783e-06	-1.192580e-09	-3.619540e+01	-7.746735e+01
4.100000e-07	-5.201155e-06	-1.170009e-09	-3.608005e+01	-7.733713e+01
4.200000e-07	-5.184224e-06	-1.166037e-09	-3.596260e+01	-7.720366e+01
4.300000e-07	-5.166948e-06	-1.183030e-09	-3.584276e+01	-7.706732e+01
4.400000e-07	-5.149286e-06	-1.168015e-09	-3.572024e+01	-7.692849e+01
4.500000e-07	-5.131199e-06	-1.145034e-09	-3.559477e+01	-7.678754e+01
4.600000e-07	-5.112772e-06	-1.170454e-09	-3.546694e+01	-7.664487e+01
4.700000e-07	-5.093972e-06	-1.163737e-09	-3.533653e+01	-7.650084e+01
4.800000e-07	-5.074777e-06	-1.127199e-09	-3.520338e+01	-7.635582e+01
4.900000e-07	-5.055293e-06	-1.144233e-09	-3.506822e+01	-7.621016e+01
5.000000e-07	-5.035617e-06	-1.179373e-09	-3.493172e+01	-7.606421e+01
5.100000e-07	-5.015701e-06	-1.147266e-09	-3.479357e+01	-7.591828e+01
5.200000e-07	-4.995458e-06	-1.137004e-09	-3.465315e+01	-7.577265e+01
5.300000e-07	-4.974841e-06	-1.167353e-09	-3.451013e+01	-7.562761e+01
5.400000e-07	-4.953886e-06	-1.151208e-09	-3.436477e+01	-7.548339e+01
5.500000e-07	-4.932589e-06	-1.117720e-09	-3.421702e+01	-7.534020e+01
5.600000e-07	-4.910915e-06	-1.139283e-09	-3.406668e+01	-7.519823e+01
5.700000e-07	-4.888869e-06	-1.138303e-09	-3.391375e+01	-7.505762e+01
5.800000e-07	-4.866478e-06	-1.113314e-09	-3.375842e+01	-7.491848e+01
5.900000e-07	-4.843771e-06	-1.134734e-09	-3.360090e+01	-7.478090e+01
6.000000e-07	-4.820722e-06	-1.154641e-09	-3.344102e+01	-7.464492e+01
6.100000e-07	-4.797350e-06	-1.123587e-09	-3.327888e+01	-7.451055e+01
6.200000e-07	-4.773708e-06	-1.118197e-09	-3.311488e+01	-7.437776e+01
6.300000e-07	-4.749914e-06	-1.133067e-09	-3.294982e+01	-7.424650e+01
6.400000e-07	-4.725971e-06	-1.112136e-09	-3.278373e+01	-7.411669e+01
6.500000e-07	-4.701651e-06	-1.102598e-09	-3.261502e+01	-7.398819e+01
6.600000e-07	-4.676839e-06	-1.123607e-09	-3.244290e+01	-7.386087e+01
6.700000e-07	-4.651550e-06	-1.121784e-09	-3.226748e+01	-7.373456e+01
6.800000e-07	-4.625747e-06	-1.110842e-09	-3.208849e+01	-7.360904e+01
6.900000e-07	-4.599416e-06	-1.121773e-09	-3.190583e+01	-7.348411e+01
7.000000e-07	-4.572571e-06	-1.116028e-09	-3.171961e+01	-7.335953e+01
7.100000e-07	-4.545314e-06	-1.094208e-09	-3.153052e+01	-7.323503e+01
7.200000e-07	-4.517787e-06	-1.089746e-09	-3.133957e+01	-7.311036e+01
7.300000e-07	-4.490047e-06	-1.092703e-09	-3.114714e+01	-7.298523e+01
7.400000e-07	-4.462128e-06	-1.087453e-09	-3.095347e+01	-7.285935e+01
7.500000e-07	-4.434048e-06	-1.094083e-09	-3.075868e+01	-7.273244e+01
7.600000e-07	-4.405699e-06	-1.097905e-09	-3.056202e+01	-7.260420e+01
7.700000e-07	-4.377050e-06	-1.089622e-09	-3.036329e+01	-7.247435e+01
7.800000e-07	-4.348095e-06	-1.081997e-09	-3.016243e+01	-7.234259e+01
7.900000e-07	-4.318814e-06	-1.080867e-09	-2.995931e+01	-7.220865e+01
8.000000e-07	-4.289277e-06	-1.072896e-09	-2.975442e+01	-7.207224e+01
8.100000e-07	-4.259485e-06	-1.068158e-09	-2.954775e+01	-7.193313e+01
8.200000e-07	-4.229263e-06	-1.070240e-09	-2.933810e+01	-7.179104e+01
8.300000e-07	-4.198634e-06	-1.071626e-09	-2.912563e+01	-7.164577e+01
8.400000e-07	-4.167800e-06	-1.067816e-09	-2.891174e+01	-7.149708e+01
8.500000e-07	-4.136740e-06	-1.068092e-09	-2.869628e+01	-7.134479e+01
8.600000e-07	-4.105406e-06	-1.066161e-09	-2.847891e+01	-7.118870e+01
8.700000e-07	-4.073807e-06	-1.057961e-09	-2.825972e+01	-7.102868e+01
8.800000e-07	-4.042056e-06	-1.052174e-09	-2.803946e+01	-7.086457e+01
8.900000e-07	-4.010223e-06	-1.052563e-09	-2.781864e+01	-7.069626e+01
9.000000e-07	-3.978176e-06	-1.046608e-09	-2.759633e+01	-7.052366e+01
9.100000e-07	-3.945800e-06	-1.039306e-09	-2.737174e+01	-7.034667e+01
9.200000e-07	-3.913083e-06	-1.038864e-09	-2.714478e+01	-7.016526e+01
9.300000e-07	-3.879899e-06	-1.037898e-09	-2.691459e+01	-6.997937e+01
9.400000e-07	-3.846191e-06	-1.032568e-09	-2.668076e+01	-6.978898e+01
9.500000e-07	-3.812068e-06	-1.030708e-09	-2.644405e+01	-6.959410e+01
9.600000e-07	-3.777536e-06	-1.028538e-09	-2.620450e+01	-6.939473e+01
9.700000e-07	-3.742559e-06	-1.017837e-09	-2.596187e+01	-6.919089e+01
9.800000e-07	-3.707257e-06	-1.009509e-09	-2.571698e+01	-6.898263e+01
9.900000e-07	-3.671792e-06	-1.006587e-09	-2.547096e+01	-6.876999e+01
1.000000e-06	-3.636173e-06	-1.002613e-09	-2.522388e+01	-6.855302e+01
1.010000e-06	-3.600376e-06	-9.986814e-10	-2.497556e+01	-6.833180e+01
1.020000e-06	-3.564432e-06	-1.000506e-09	-2.472622e+01	-6.810638e+01
1.030000e-06	-3.528303e-06	-9.995647e-10	-2.447559e+01	-6.787685e+01
1.040000e-06	-3.491920e-06	-9.932813e-10	-2.422320e+01	-6.764327e+01
1.050000e-06	-3.455356e-06	-9.870021e-10	-2.396956e+01	-6.740573e+01
1.060000e-06	-3.418598e-06	-9.825534e-10	-2.371458e+01	-6.716429e+01
1.070000e-06	-3.381463e-06	-9.753626e-10	-2.345697e+01	-6.691903e+01
1.080000e-06	-3.343967e-06	-9.727035e-10	-2.319687e+01	-6.667001e+01
1.090000e-06	-3.306302e-06	-9.751494e-10	-2.293559e+01	-6.641729e+01
1.100000e-06	-3.268496e-06	-9.746436e-10	-2.267333e+01	-6.616094e+01
1.110000e-06	-3.230427e-06	-9.674828e-10	-2.240925e+01	-6.590099e+01
1.120000e-06	-3.192137e-06	-9.627424e-10	-2.214363e+01	-6.563749e+01
1.130000e-06	-3.153651e-06	-9.581535e-10	-2.187665e+01	-6.537047e+01
1.140000e-06	-3.114858e-06	-9.519769e-10	-2.160755e+01	-6.509995e+01
1.150000e-06	-3.075841e-06	-9.476001e-10	-2.133689e+01	-6.482594e+01
1.160000e-06	-3.036743e-06	-9.455889e-10	-2.106568e+01	-6.454844e+01
1.170000e-06	-2.997424e-06	-9.411832e-10	-2.079292e+01	-6.426745e+01
1.180000e-06	-2.957863e-06	-9.347628e-10	-2.051849e+01	-6.398295e+01
1.190000e-06	-2.918258e-06	-9.287795e-10	-2.024375e+01	-6.369492e+01
1.200000e-06	-2.878545e-06	-9.233854e-10	-1.996826e+01	-6.340331e+01
1.210000e-06	-2.838620e-06	-9.162577e-10	-1.969131e+01	-6.310808e+01
1.220000e-06	-2.798523e-06	-9.104254e-10	-1.941316e+01	-6.280919e+01
1.230000e-06	-2.758350e-06	-9.061275e-10	-1.913448e+01	-6.250657e+01
1.240000e-06	-2.718037e-06	-9.006415e-10	-1.885483e+01	-6.220015e+01
1.250000e-06	-2.677415e-06	-8.990083e-10	-1.857304e+01	-6.188986e+01
1.260000e-06	-2.636485e-06	-8.967241e-10	-1.828911e+01	-6.157562e+01
1.270000e-06	-2.595350e-06	-8.908816e-10	-1.800376e+01	-6.125735e+01
1.280000e-06	-2.554004e-06	-8.830348e-10	-1.771695e+01	-6.093494e+01
1.290000e-06	-2.512346e-06	-8.774496e-10	-1.742797e+01	-6.060830e+01
1.300000e-06	-2.470318e-06	-8.710862e-10	-1.713643e+01	-6.027734e+01
1.310000e-06	-2.427875e-06	-8.622328e-10	-1.684200e+01	-5.994194e+01
1.320000e-06	-2.385141e-06	-8.558469e-10	-1.654556e+01	-5.960198e+01
1.330000e-06	-2.342270e-06	-8.516183e-10	-1.624816e+01	-5.925735e+01
1.340000e-06	-2.299189e-06	-8.458407e-10	-1.594931e+01	-5.890793e+01
1.350000e-06	-2.255932e-06	-8.416028e-10	-1.564925e+01	-5.855358e+01
1.360000e-06	-2.212530e-06	-8.374633e-10	-1.534817e+01	-5.819415e+01
1.370000e-06	-2.168964e-06	-8.301694e-10	-1.504595e+01	-5.782951e+01
1.380000e-06	-2.125345e-06	-8.215418e-10	-1.474337e+01	-5.745950e+01
1.390000e-06	-2.081652e-06	-8.146093e-10	-1.444028e+01	-5.708393e+01
1.400000e-06	-2.037859e-06	-8.072696e-10	-1.413648e+01	-5.670264e+01
1.410000e-06	-1.994003e-06	-8.002172e-10	-1.383226e+01	-5.631542e+01
1.420000e-06	-1.950039e-06	-7.933634e-10	-1.352729e+01	-5.592207e+01
1.430000e-06	-1.906008e-06	-7.867276e-10	-1.322184e+01	-5.552235e+01
1.440000e-06	-1.861894e-06	-7.799448e-10	-1.291583e+01	-5.511601e+01
1.450000e-06	-1.817623e-06	-7.736495e-10	-1.260873e+01	-5.470278e+01
1.460000e-06	-1.773203e-06	-7.665447e-10	-1.230059e+01	-5.428238e+01
1.470000e-06	-1.728587e-06	-7.555428e-10	-1.199108e+01	-5.385446e+01
1.480000e-06	-1.683899e-06	-7.442737e-10	-1.168109e+01	-5.341870e+01
1.490000e-06	-1.639132e-06	-7.343935e-10	-1.137054e+01	-5.297471e+01
1.500000e-06	-1.594190e-06	-7.262501e-10	-1.105878e+01	-5.252209e+01
1.510000e-06	-1.549156e-06	-7.203323e-10	-1.074639e+01	-5.206039e+01
1.520000e-06	-1.503987e-06	-7.158803e-10	-1.043305e+01	-5.158914e+01
1.530000e-06	-1.458629e-06	-7.120812e-10	-1.011841e+01	-5.110784e+01
1.540000e-06	-1.413181e-06	-7.052430e-10	-9.803141e+00	-5.061594e+01
1.550000e-06	-1.367711e-06	-6.949804e-10	-9.487717e+00	-5.011286e+01
1.560000e-06	-1.322182e-06	-6.819119e-10	-9.171884e+00	-4.959798e+01
1.570000e-06	-1.276512e-06	-6.690612e-10	-8.855077e+00	-4.907066e+01
1.580000e-06	-1.230720e-06	-6.598289e-10	-8.537419e+00	-4.853020e+01
1.590000e-06	-1.184926e-06	-6.540107e-10	-8.219747e+00	-4.797589e+01
1.600000e-06	-1.139090e-06	-6.500548e-10	-7.901787e+00	-4.740696e+01
1.610000e-06	-1.093110e-06	-6.436553e-10	-7.582826e+00	-4.682264e+01
1.620000e-06	-1.046970e-06	-6.345657e-10	-7.262755e+00	-4.622211e+01
1.630000e-06	-1.000717e-06	-6.252559e-10	-6.941907e+00	-4.560453e+01
1.640000e-06	-9.544888e-07	-6.171658e-10	-6.621222e+00	-4.496904e+01
1.650000e-06	-9.081943e-07	-6.072908e-10	-6.300081e+00	-4.431475e+01
1.660000e-06	-8.617743e-07	-5.969840e-10	-5.978068e+00	-4.364077e+01
1.670000e-06	-8.152844e-07	-5.867238e-10	-5.655571e+00	-4.294619e+01
1.680000e-06	-7.687849e-07	-5.743498e-10	-5.333007e+00	-4.223010e+01
1.690000e-06	-7.222930e-07	-5.604978e-10	-5.010496e+00	-4.149160e+01
1.700000e-06	-6.757578e-07	-5.469458e-10	-4.687685e+00	-4.072977e+01
1.710000e-06	-6.291928e-07	-5.330628e-10	-4.364667e+00	-3.994373e+01
1.720000e-06	-5.825132e-07	-5.200917e-10	-4.040854e+00	-3.913259e+01
1.730000e-06	-5.357569e-07	-5.083687e-10	-3.716508e+00	-3.829553e+01
1.740000e-06	-4.889595e-07	-4.963573e-10	-3.391878e+00	-3.743172e+01
1.750000e-06	-4.421402e-07	-4.822266e-10	-3.067096e+00	-3.654038e+01
1.760000e-06	-3.952577e-07	-4.659021e-10	-2.741875e+00	-3.562079e+01
1.770000e-06	-3.483151e-07	-4.496795e-10	-2.416238e+00	-3.467228e+01
1.780000e-06	-3.014694e-07	-4.357015e-10	-2.091273e+00	-3.369423e+01
1.790000e-06	-2.546823e-07	-4.243872e-10	-1.766713e+00	-3.268609e+01
1.800000e-06	-2.077645e-07	-4.129194e-10	-1.441248e+00	-3.164740e+01
1.810000e-06	-1.607925e-07	-3.984121e-10	-1.115406e+00	-3.057776e+01
1.820000e-06	-1.138595e-07	-3.812115e-10	-7.898354e-01	-2.947687e+01
1.830000e-06	-6.690981e-08	-3.639154e-10	-4.641487e-01	-2.834453e+01
1.840000e-06	-1.994102e-08	-3.482081e-10	-1.383295e-01	-2.718061e+01
1.850000e-06	2.710483e-08	-3.327223e-10	1.880243e-01	-2.598512e+01
1.860000e-06	7.410439e-08	-3.156821e-10	5.140570e-01	-2.475814e+01
1.870000e-06	1.210671e-07	-2.977003e-10	8.398337e-01	-2.349990e+01
1.880000e-06	1.680715e-07	-2.799658e-10	1.165900e+00	-2.221072e+01
1.890000e-06	2.150399e-07	-2.631799e-10	1.491717e+00	-2.089105e+01
1.900000e-06	2.619763e-07	-2.443881e-10	1.817311e+00	-1.954144e+01
1.910000e-06	3.089247e-07	-2.242267e-10	2.142989e+00	-1.816258e+01
1.920000e-06	3.558888e-07	-2.055929e-10	2.468776e+00	-1.675528e+01
1.930000e-06	4.027900e-07	-1.866029e-10	2.794126e+00	-1.532045e+01
1.940000e-06	4.496029e-07	-1.643896e-10	3.118864e+00	-1.385913e+01
1.950000e-06	4.963316e-07	-1.412048e-10	3.443017e+00	-1.237249e+01
1.960000e-06	5.430092e-07	-1.210818e-10	3.766817e+00	-1.086180e+01
1.970000e-06	5.896235e-07	-1.030372e-10	4.090177e+00	-9.328425e+00
1.980000e-06	6.361741e-07	-8.461670e-11	4.413095e+00	-7.773856e+00
1.990000e-06	6.826488e-07	-6.369950e-11	4.735487e+00	-6.199675e+00
2.000000e-06	7.290162e-07	-3.856442e-11	5.057134e+00	-4.607556e+00
2.010000e-06	7.753559e-07	-1.066756e-11	5.378590e+00	-2.999258e+00
2.020000e-06	8.216891e-07	1.698971e-11	5.700000e+00	-1.376622e+00
2.030000e-06	8.680039e-07	4.082355e-11	6.021283e+00	2.584444e-01
2.040000e-06	9.142927e-07	6.042171e-11	6.342385e+00	1.903971e+00
2.050000e-06	9.605088e-07	8.010946e-11	6.662983e+00	3.557935e+00
2.060000e-06	1.006613e-06	1.025551e-10	6.982806e+00	5.218270e+00
2.070000e-06	1.052651e-06	1.263069e-10	7.302168e+00	6.882878e+00
2.080000e-06	1.098680e-06	1.518471e-10	7.621467e+00	8.549639e+00
2.090000e-06	1.144613e-06	1.789041e-10	7.940101e+00	1.021642e+01
2.100000e-06	1.190443e-06	2.045291e-10	8.258019e+00	1.188108e+01
2.110000e-06	1.236150e-06	2.280896e-10	8.575088e+00	1.354150e+01
2.120000e-06	1.281705e-06	2.495538e-10	8.891097e+00	1.519557e+01
2.130000e-06	1.327181e-06	2.685571e-10	9.206565e+00	1.684121e+01
2.140000e-06	1.372613e-06	2.877304e-10	9.521723e+00	1.847639e+01
2.150000e-06	1.417944e-06	3.100807e-10	9.836178e+00	2.009910e+01
2.160000e-06	1.463193e-06	3.352935e-10	1.015007e+01	2.170743e+01
2.170000e-06	1.508432e-06	3.603144e-10	1.046389e+01	2.329951e+01
2.180000e-06	1.553613e-06	3.834019e-10	1.077730e+01	2.487355e+01
2.190000e-06	1.598664e-06	4.048380e-10	1.108982e+01	2.642785e+01
2.200000e-06	1.643538e-06	4.244976e-10	1.140111e+01	2.796079e+01
2.210000e-06	1.688286e-06	4.407958e-10	1.171152e+01	2.947087e+01
2.220000e-06	1.732818e-06	4.554977e-10	1.202044e+01	3.095667e+01
2.230000e-06	1.777076e-06	4.727693e-10	1.232745e+01	3.241689e+01
2.240000e-06	1.821286e-06	4.915037e-10	1.263414e+01	3.385034e+01
2.250000e-06	1.865477e-06	5.090904e-10	1.294068e+01	3.525594e+01
2.260000e-06	1.909514e-06	5.275610e-10	1.324616e+01	3.663275e+01
2.270000e-06	1.953418e-06	5.480245e-10	1.355072e+01	3.797993e+01
2.280000e-06	1.997273e-06	5.682878e-10	1.385494e+01	3.929676e+01
2.290000e-06	2.041117e-06	5.880776e-10	1.415909e+01	4.058266e+01
2.300000e-06	2.084946e-06	6.056594e-10	1.446313e+01	4.183715e+01
2.310000e-06	2.128658e-06	6.203652e-10	1.476635e+01	4.305989e+01
2.320000e-06	2.172233e-06	6.354989e-10	1.506863e+01	4.425063e+01
2.330000e-06	2.215719e-06	6.510070e-10	1.537029e+01	4.540926e+01
2.340000e-06	2.259126e-06	6.657729e-10	1.567140e+01	4.653575e+01
2.350000e-06	2.302412e-06	6.812966e-10	1.597167e+01	4.763021e+01
2.360000e-06	2.345413e-06	6.972969e-10	1.626997e+01	4.869281e+01
2.370000e-06	2.388137e-06	7.116516e-10	1.656634e+01	4.972386e+01
2.380000e-06	2.430626e-06	7.241563e-10	1.686109e+01	5.072370e+01
2.390000e-06	2.472878e-06	7.356284e-10	1.715418e+01	5.169280e+01
2.400000e-06	2.514859e-06	7.469589e-10	1.744540e+01	5.263169e+01
2.410000e-06	2.556460e-06	7.589096e-10	1.773398e+01	5.354094e+01
2.420000e-06	2.597695e-06	7.714882e-10	1.802003e+01	5.442122e+01
2.430000e-06	2.638582e-06	7.848885e-10	1.830366e+01	5.527323e+01
2.440000e-06	2.679202e-06	7.971667e-10	1.858544e+01	5.609770e+01
2.450000e-06	2.719651e-06	8.069325e-10	1.886603e+01	5.689542e+01
2.460000e-06	2.759902e-06	8.156207e-10	1.914525e+01	5.766721e+01
2.470000e-06	2.800005e-06	8.256924e-10	1.942344e+01	5.841387e+01
2.480000e-06	2.839968e-06	8.374124e-10	1.970066e+01	5.913628e+01
2.490000e-06	2.879821e-06	8.485761e-10	1.997712e+01	5.983526e+01
2.500000e-06	2.919578e-06	8.595346e-10	2.025291e+01	6.051167e+01
2.510000e-06	2.959184e-06	8.706113e-10	2.052765e+01	6.116635e+01
2.520000e-06	2.998622e-06	8.805116e-10	2.080123e+01	6.180015e+01
2.530000e-06	3.037859e-06	8.898049e-10	2.107342e+01	6.241386e+01
2.540000e-06	3.076905e-06	8.982722e-10	2.134428e+01	6.300828e+01
2.550000e-06	3.115754e-06	9.055674e-10	2.161377e+01	6.358418e+01
2.560000e-06	3.154323e-06	9.124663e-10	2.188132e+01	6.414229e+01
2.570000e-06	3.192592e-06	9.196302e-10	2.214679e+01	6.468332e+01
2.580000e-06	3.230671e-06	9.265319e-10	2.241094e+01	6.520793e+01
2.590000e-06	3.268607e-06	9.333516e-10	2.267410e+01	6.571675e+01
2.600000e-06	3.306361e-06	9.409904e-10	2.293599e+01	6.621038e+01
2.610000e-06	3.343895e-06	9.481000e-10	2.319636e+01	6.668936e+01
2.620000e-06	3.381165e-06	9.551982e-10	2.345491e+01	6.715421e+01
2.630000e-06	3.418184e-06	9.621311e-10	2.371171e+01	6.760539e+01
2.640000e-06	3.454958e-06	9.675709e-10	2.396681e+01	6.804334e+01
2.650000e-06	3.491482e-06	9.739203e-10	2.422017e+01	6.846845e+01
2.660000e-06	3.527722e-06	9.810968e-10	2.447156e+01	6.888110e+01
2.670000e-06	3.563698e-06	9.865965e-10	2.472112e+01	6.928159e+01
2.680000e-06	3.599518e-06	9.911993e-10	2.496960e+01	6.967023e+01
2.690000e-06	3.635261e-06	9.970904e-10	2.521755e+01	7.004729e+01
2.700000e-06	3.670918e-06	1.002585e-09	2.546490e+01	7.041300e+01
2.710000e-06	3.706462e-06	1.005191e-09	2.571147e+01	7.076759e+01
2.720000e-06	3.741797e-06	1.008767e-09	2.595658e+01	7.111126e+01
2.730000e-06	3.776799e-06	1.014675e-09	2.619939e+01	7.144419e+01
2.740000e-06	3.811351e-06	1.020075e-09	2.643908e+01	7.176657e+01
2.750000e-06	3.845460e-06	1.024867e-09	2.667569e+01	7.207855e+01
2.760000e-06	3.879155e-06	1.029083e-09	2.690943e+01	7.238030e+01
2.770000e-06	3.912231e-06	1.033029e-09	2.713887e+01	7.267198e+01
2.780000e-06	3.944748e-06	1.037475e-09	2.736444e+01	7.295375e+01
2.790000e-06	3.976982e-06	1.042351e-09	2.758805e+01	7.322577e+01
2.800000e-06	4.009023e-06	1.047670e-09	2.781031e+01	7.348822e+01
2.810000e-06	4.040905e-06	1.053260e-09	2.803148e+01	7.374127e+01
2.820000e-06	4.072690e-06	1.058429e-09	2.825197e+01	7.398512e+01
2.830000e-06	4.104328e-06	1.061706e-09	2.847144e+01	7.421998e+01
2.840000e-06	4.135718e-06	1.064037e-09	2.868919e+01	7.444606e+01
2.850000e-06	4.166811e-06	1.067673e-09	2.890488e+01	7.466360e+01
2.860000e-06	4.197529e-06	1.073187e-09	2.911797e+01	7.487285e+01
2.870000e-06	4.227907e-06	1.080221e-09	2.932869e+01	7.507406e+01
2.880000e-06	4.257991e-06	1.086310e-09	2.953739e+01	7.526753e+01
2.890000e-06	4.287776e-06	1.090565e-09	2.974401e+01	7.545355e+01
2.900000e-06	4.317319e-06	1.094804e-09	2.994894e+01	7.563242e+01
