# Temperatura_=_-14.22
# Concentracion g/m^3_=_1620.0
# C_Vs_to_Am_M_A/Vsm_=_65563218390.804596
# pendiente_HvsI_1/m_=_3716.3
# ordenada_HvsI_A/m_=_1297.0
# frecuencia_Hz_=_135112.90076109118

Tiempo_(s)	Campo_(V.s)	Magnetizacion_(V.s)	Campo_(kA/m)	Magnetizacion_(A/m)
0.000000e+00	-5.494540e-06	-8.173227e-10	-3.836193e+01	-5.557503e+01
1.000000e-08	-5.494870e-06	-8.158247e-10	-3.836424e+01	-5.556419e+01
2.000000e-08	-5.494941e-06	-8.143418e-10	-3.836473e+01	-5.555561e+01
3.000000e-08	-5.494698e-06	-8.119005e-10	-3.836303e+01	-5.554917e+01
4.000000e-08	-5.493985e-06	-8.087806e-10	-3.835806e+01	-5.554473e+01
5.000000e-08	-5.492667e-06	-8.049678e-10	-3.834885e+01	-5.554211e+01
6.000000e-08	-5.490820e-06	-8.021235e-10	-3.833596e+01	-5.554112e+01
7.000000e-08	-5.488421e-06	-8.068455e-10	-3.831921e+01	-5.554154e+01
8.000000e-08	-5.485420e-06	-8.172331e-10	-3.829825e+01	-5.554315e+01
9.000000e-08	-5.481939e-06	-8.087781e-10	-3.827395e+01	-5.554571e+01
1.000000e-07	-5.478027e-06	-7.781458e-10	-3.824664e+01	-5.554896e+01
1.100000e-07	-5.473810e-06	-7.855117e-10	-3.821720e+01	-5.555265e+01
1.200000e-07	-5.469477e-06	-8.133736e-10	-3.818695e+01	-5.555651e+01
1.300000e-07	-5.464860e-06	-8.312446e-10	-3.815471e+01	-5.556030e+01
1.400000e-07	-5.459713e-06	-7.754214e-10	-3.811877e+01	-5.556376e+01
1.500000e-07	-5.454204e-06	-7.756123e-10	-3.808031e+01	-5.556664e+01
1.600000e-07	-5.448492e-06	-8.153966e-10	-3.804043e+01	-5.556871e+01
1.700000e-07	-5.442408e-06	-8.463637e-10	-3.799795e+01	-5.556973e+01
1.800000e-07	-5.435709e-06	-8.214689e-10	-3.795119e+01	-5.556951e+01
1.900000e-07	-5.428540e-06	-8.099107e-10	-3.790113e+01	-5.556786e+01
2.000000e-07	-5.421195e-06	-8.417247e-10	-3.784985e+01	-5.556461e+01
2.100000e-07	-5.413599e-06	-8.340903e-10	-3.779681e+01	-5.555960e+01
2.200000e-07	-5.405744e-06	-8.195361e-10	-3.774197e+01	-5.555273e+01
2.300000e-07	-5.397704e-06	-8.142988e-10	-3.768584e+01	-5.554388e+01
2.400000e-07	-5.389230e-06	-8.607868e-10	-3.762668e+01	-5.553300e+01
2.500000e-07	-5.380122e-06	-8.642337e-10	-3.756309e+01	-5.552004e+01
2.600000e-07	-5.370403e-06	-8.620421e-10	-3.749523e+01	-5.550498e+01
2.700000e-07	-5.360065e-06	-8.210801e-10	-3.742305e+01	-5.548784e+01
2.800000e-07	-5.349193e-06	-8.239499e-10	-3.734715e+01	-5.546864e+01
2.900000e-07	-5.337893e-06	-8.239492e-10	-3.726825e+01	-5.544745e+01
3.000000e-07	-5.326209e-06	-8.417967e-10	-3.718667e+01	-5.542436e+01
3.100000e-07	-5.314137e-06	-8.275574e-10	-3.710239e+01	-5.539948e+01
3.200000e-07	-5.301654e-06	-8.422679e-10	-3.701524e+01	-5.537293e+01
3.300000e-07	-5.288735e-06	-8.653902e-10	-3.692504e+01	-5.534487e+01
3.400000e-07	-5.275432e-06	-8.604704e-10	-3.683216e+01	-5.531546e+01
3.500000e-07	-5.261710e-06	-8.245402e-10	-3.673635e+01	-5.528488e+01
3.600000e-07	-5.247529e-06	-8.214704e-10	-3.663734e+01	-5.525332e+01
3.700000e-07	-5.232923e-06	-8.343847e-10	-3.653537e+01	-5.522098e+01
3.800000e-07	-5.217858e-06	-8.242931e-10	-3.643019e+01	-5.518807e+01
3.900000e-07	-5.202211e-06	-8.355001e-10	-3.632094e+01	-5.515480e+01
4.000000e-07	-5.186080e-06	-8.549504e-10	-3.620831e+01	-5.512138e+01
4.100000e-07	-5.169589e-06	-8.362045e-10	-3.609318e+01	-5.508801e+01
4.200000e-07	-5.152723e-06	-8.067257e-10	-3.597542e+01	-5.505490e+01
4.300000e-07	-5.135473e-06	-8.409694e-10	-3.585499e+01	-5.502223e+01
4.400000e-07	-5.117930e-06	-8.421846e-10	-3.573250e+01	-5.499020e+01
4.500000e-07	-5.100157e-06	-8.090317e-10	-3.560842e+01	-5.495898e+01
4.600000e-07	-5.082010e-06	-8.107605e-10	-3.548172e+01	-5.492871e+01
4.700000e-07	-5.063393e-06	-8.495600e-10	-3.535174e+01	-5.489953e+01
4.800000e-07	-5.044368e-06	-8.113387e-10	-3.521891e+01	-5.487157e+01
4.900000e-07	-5.025077e-06	-7.966563e-10	-3.508422e+01	-5.484492e+01
5.000000e-07	-5.005575e-06	-8.295111e-10	-3.494806e+01	-5.481966e+01
5.100000e-07	-4.985858e-06	-8.348099e-10	-3.481040e+01	-5.479584e+01
5.200000e-07	-4.965894e-06	-7.955412e-10	-3.467102e+01	-5.477349e+01
5.300000e-07	-4.945653e-06	-8.264371e-10	-3.452970e+01	-5.475262e+01
5.400000e-07	-4.925041e-06	-8.424959e-10	-3.438579e+01	-5.473323e+01
5.500000e-07	-4.903994e-06	-8.051249e-10	-3.423884e+01	-5.471526e+01
5.600000e-07	-4.882587e-06	-7.913634e-10	-3.408938e+01	-5.469867e+01
5.700000e-07	-4.860871e-06	-8.224607e-10	-3.393777e+01	-5.468338e+01
5.800000e-07	-4.838842e-06	-8.031426e-10	-3.378396e+01	-5.466929e+01
5.900000e-07	-4.816406e-06	-7.950002e-10	-3.362732e+01	-5.465628e+01
6.000000e-07	-4.793551e-06	-8.276714e-10	-3.346774e+01	-5.464423e+01
6.100000e-07	-4.770436e-06	-8.297750e-10	-3.330636e+01	-5.463299e+01
6.200000e-07	-4.747075e-06	-7.994503e-10	-3.314326e+01	-5.462241e+01
6.300000e-07	-4.723509e-06	-8.090199e-10	-3.297872e+01	-5.461231e+01
6.400000e-07	-4.699732e-06	-8.169351e-10	-3.281272e+01	-5.460255e+01
6.500000e-07	-4.675554e-06	-7.952932e-10	-3.264391e+01	-5.459292e+01
6.600000e-07	-4.650941e-06	-8.010448e-10	-3.247207e+01	-5.458327e+01
6.700000e-07	-4.625905e-06	-8.186561e-10	-3.229727e+01	-5.457342e+01
6.800000e-07	-4.600319e-06	-8.095551e-10	-3.211864e+01	-5.456319e+01
6.900000e-07	-4.574257e-06	-8.063843e-10	-3.193668e+01	-5.455242e+01
7.000000e-07	-4.547705e-06	-8.250785e-10	-3.175129e+01	-5.454095e+01
7.100000e-07	-4.520649e-06	-8.143110e-10	-3.156239e+01	-5.452864e+01
7.200000e-07	-4.493309e-06	-7.999340e-10	-3.137151e+01	-5.451535e+01
7.300000e-07	-4.465775e-06	-8.051080e-10	-3.117927e+01	-5.450097e+01
7.400000e-07	-4.438035e-06	-8.121891e-10	-3.098560e+01	-5.448538e+01
7.500000e-07	-4.410129e-06	-8.048980e-10	-3.079076e+01	-5.446851e+01
7.600000e-07	-4.382047e-06	-8.157403e-10	-3.059470e+01	-5.445029e+01
7.700000e-07	-4.353736e-06	-8.183993e-10	-3.039703e+01	-5.443066e+01
7.800000e-07	-4.325053e-06	-8.121969e-10	-3.019678e+01	-5.440960e+01
7.900000e-07	-4.295916e-06	-8.090923e-10	-2.999335e+01	-5.438710e+01
8.000000e-07	-4.266483e-06	-8.155461e-10	-2.978785e+01	-5.436316e+01
8.100000e-07	-4.236837e-06	-8.062605e-10	-2.958087e+01	-5.433781e+01
8.200000e-07	-4.206875e-06	-8.060439e-10	-2.937168e+01	-5.431110e+01
8.300000e-07	-4.176634e-06	-8.131717e-10	-2.916054e+01	-5.428310e+01
8.400000e-07	-4.146133e-06	-8.148373e-10	-2.894758e+01	-5.425387e+01
8.500000e-07	-4.115319e-06	-8.090719e-10	-2.873245e+01	-5.422351e+01
8.600000e-07	-4.084306e-06	-8.155051e-10	-2.851592e+01	-5.419213e+01
8.700000e-07	-4.053060e-06	-8.149147e-10	-2.829777e+01	-5.415983e+01
8.800000e-07	-4.021555e-06	-8.084812e-10	-2.807780e+01	-5.412674e+01
8.900000e-07	-3.989847e-06	-8.081957e-10	-2.785642e+01	-5.409298e+01
9.000000e-07	-3.957979e-06	-8.118811e-10	-2.763393e+01	-5.405868e+01
9.100000e-07	-3.925894e-06	-8.072764e-10	-2.740991e+01	-5.402396e+01
9.200000e-07	-3.893455e-06	-8.060387e-10	-2.718343e+01	-5.398896e+01
9.300000e-07	-3.860618e-06	-8.099480e-10	-2.695417e+01	-5.395378e+01
9.400000e-07	-3.827436e-06	-8.072633e-10	-2.672250e+01	-5.391855e+01
9.500000e-07	-3.793837e-06	-8.053054e-10	-2.648792e+01	-5.388336e+01
9.600000e-07	-3.759719e-06	-8.075913e-10	-2.624971e+01	-5.384829e+01
9.700000e-07	-3.725192e-06	-8.039018e-10	-2.600865e+01	-5.381343e+01
9.800000e-07	-3.690298e-06	-7.939709e-10	-2.576502e+01	-5.377882e+01
9.900000e-07	-3.655051e-06	-7.932864e-10	-2.551894e+01	-5.374449e+01
1.000000e-06	-3.619569e-06	-7.945009e-10	-2.527121e+01	-5.371047e+01
1.010000e-06	-3.583941e-06	-7.932597e-10	-2.502246e+01	-5.367673e+01
1.020000e-06	-3.548193e-06	-7.931824e-10	-2.477287e+01	-5.364326e+01
1.030000e-06	-3.512347e-06	-7.994042e-10	-2.452260e+01	-5.360999e+01
1.040000e-06	-3.476395e-06	-7.965535e-10	-2.427159e+01	-5.357684e+01
1.050000e-06	-3.440253e-06	-7.926207e-10	-2.401925e+01	-5.354370e+01
1.060000e-06	-3.403803e-06	-7.892809e-10	-2.376476e+01	-5.351044e+01
1.070000e-06	-3.367017e-06	-7.859483e-10	-2.350793e+01	-5.347692e+01
1.080000e-06	-3.329988e-06	-7.806810e-10	-2.324940e+01	-5.344294e+01
1.090000e-06	-3.292762e-06	-7.849556e-10	-2.298950e+01	-5.340832e+01
1.100000e-06	-3.255277e-06	-7.895839e-10	-2.272779e+01	-5.337283e+01
1.110000e-06	-3.217546e-06	-7.886291e-10	-2.246435e+01	-5.333624e+01
1.120000e-06	-3.179609e-06	-7.858814e-10	-2.219948e+01	-5.329829e+01
1.130000e-06	-3.141476e-06	-7.861144e-10	-2.193325e+01	-5.325872e+01
1.140000e-06	-3.103103e-06	-7.813511e-10	-2.166533e+01	-5.321724e+01
1.150000e-06	-3.064462e-06	-7.777336e-10	-2.139555e+01	-5.317358e+01
1.160000e-06	-3.025632e-06	-7.770632e-10	-2.112444e+01	-5.312745e+01
1.170000e-06	-2.986660e-06	-7.760776e-10	-2.085235e+01	-5.307854e+01
1.180000e-06	-2.947487e-06	-7.735830e-10	-2.057885e+01	-5.302657e+01
1.190000e-06	-2.908064e-06	-7.757423e-10	-2.030360e+01	-5.297126e+01
1.200000e-06	-2.868482e-06	-7.769955e-10	-2.002725e+01	-5.291231e+01
1.210000e-06	-2.828793e-06	-7.727178e-10	-1.975015e+01	-5.284945e+01
1.220000e-06	-2.789040e-06	-7.699198e-10	-1.947260e+01	-5.278244e+01
1.230000e-06	-2.749176e-06	-7.706148e-10	-1.919427e+01	-5.271102e+01
1.240000e-06	-2.709100e-06	-7.694662e-10	-1.891447e+01	-5.263497e+01
1.250000e-06	-2.668835e-06	-7.680790e-10	-1.863334e+01	-5.255408e+01
1.260000e-06	-2.628334e-06	-7.699225e-10	-1.835057e+01	-5.246817e+01
1.270000e-06	-2.587569e-06	-7.698258e-10	-1.806596e+01	-5.237706e+01
1.280000e-06	-2.546641e-06	-7.682203e-10	-1.778021e+01	-5.228063e+01
1.290000e-06	-2.505499e-06	-7.664068e-10	-1.749296e+01	-5.217876e+01
1.300000e-06	-2.463973e-06	-7.646174e-10	-1.720303e+01	-5.207136e+01
1.310000e-06	-2.422149e-06	-7.596319e-10	-1.691102e+01	-5.195835e+01
1.320000e-06	-2.380200e-06	-7.578541e-10	-1.661815e+01	-5.183970e+01
1.330000e-06	-2.337950e-06	-7.569633e-10	-1.632317e+01	-5.171539e+01
1.340000e-06	-2.295292e-06	-7.569050e-10	-1.602533e+01	-5.158541e+01
1.350000e-06	-2.252402e-06	-7.555698e-10	-1.572588e+01	-5.144978e+01
1.360000e-06	-2.209293e-06	-7.538833e-10	-1.542490e+01	-5.130853e+01
1.370000e-06	-2.165927e-06	-7.493955e-10	-1.512213e+01	-5.116170e+01
1.380000e-06	-2.122443e-06	-7.439182e-10	-1.481853e+01	-5.100936e+01
1.390000e-06	-2.078908e-06	-7.372225e-10	-1.451458e+01	-5.085156e+01
1.400000e-06	-2.035288e-06	-7.342009e-10	-1.421003e+01	-5.068836e+01
1.410000e-06	-1.991564e-06	-7.331193e-10	-1.390476e+01	-5.051981e+01
1.420000e-06	-1.947773e-06	-7.322047e-10	-1.359901e+01	-5.034596e+01
1.430000e-06	-1.903945e-06	-7.312201e-10	-1.329302e+01	-5.016686e+01
1.440000e-06	-1.859995e-06	-7.284436e-10	-1.298616e+01	-4.998251e+01
1.450000e-06	-1.815917e-06	-7.219526e-10	-1.267842e+01	-4.979291e+01
1.460000e-06	-1.771819e-06	-7.158743e-10	-1.237053e+01	-4.959802e+01
1.470000e-06	-1.727655e-06	-7.114745e-10	-1.206219e+01	-4.939777e+01
1.480000e-06	-1.683350e-06	-7.077140e-10	-1.175286e+01	-4.919207e+01
1.490000e-06	-1.638915e-06	-7.056625e-10	-1.144262e+01	-4.898076e+01
1.500000e-06	-1.594359e-06	-7.050371e-10	-1.113154e+01	-4.876363e+01
1.510000e-06	-1.549645e-06	-7.056465e-10	-1.081935e+01	-4.854045e+01
1.520000e-06	-1.504705e-06	-7.052524e-10	-1.050559e+01	-4.831091e+01
1.530000e-06	-1.459604e-06	-7.012051e-10	-1.019070e+01	-4.807463e+01
1.540000e-06	-1.414479e-06	-6.924649e-10	-9.875650e+00	-4.783121e+01
1.550000e-06	-1.369321e-06	-6.823159e-10	-9.560362e+00	-4.758015e+01
1.560000e-06	-1.324021e-06	-6.725933e-10	-9.244087e+00	-4.732088e+01
1.570000e-06	-1.278592e-06	-6.654865e-10	-8.926908e+00	-4.705280e+01
1.580000e-06	-1.233115e-06	-6.604937e-10	-8.609395e+00	-4.677521e+01
1.590000e-06	-1.187574e-06	-6.602918e-10	-8.291434e+00	-4.648736e+01
1.600000e-06	-1.141918e-06	-6.617624e-10	-7.972674e+00	-4.618843e+01
1.610000e-06	-1.096177e-06	-6.592437e-10	-7.653320e+00	-4.587754e+01
1.620000e-06	-1.050410e-06	-6.514240e-10	-7.333778e+00	-4.555373e+01
1.630000e-06	-1.004597e-06	-6.402385e-10	-7.013923e+00	-4.521601e+01
1.640000e-06	-9.586581e-07	-6.280276e-10	-6.693185e+00	-4.486333e+01
1.650000e-06	-9.125547e-07	-6.203995e-10	-6.371299e+00	-4.449459e+01
1.660000e-06	-8.663718e-07	-6.131776e-10	-6.048859e+00	-4.410865e+01
1.670000e-06	-8.201441e-07	-6.071293e-10	-5.726105e+00	-4.370432e+01
1.680000e-06	-7.739045e-07	-5.998575e-10	-5.403268e+00	-4.328040e+01
1.690000e-06	-7.277296e-07	-5.934286e-10	-5.080882e+00	-4.283568e+01
1.700000e-06	-6.815714e-07	-5.874357e-10	-4.758614e+00	-4.236890e+01
1.710000e-06	-6.353690e-07	-5.781804e-10	-4.436037e+00	-4.187884e+01
1.720000e-06	-5.890197e-07	-5.684965e-10	-4.112434e+00	-4.136425e+01
1.730000e-06	-5.426010e-07	-5.578257e-10	-3.788347e+00	-4.082393e+01
1.740000e-06	-4.962507e-07	-5.492654e-10	-3.464737e+00	-4.025667e+01
1.750000e-06	-4.499285e-07	-5.417006e-10	-3.141323e+00	-3.966133e+01
1.760000e-06	-4.034548e-07	-5.343556e-10	-2.816852e+00	-3.903679e+01
1.770000e-06	-3.568119e-07	-5.255486e-10	-2.491199e+00	-3.838200e+01
1.780000e-06	-3.101611e-07	-5.151847e-10	-2.165491e+00	-3.769598e+01
1.790000e-06	-2.634310e-07	-5.041477e-10	-1.839230e+00	-3.697781e+01
1.800000e-06	-2.167174e-07	-4.928752e-10	-1.513084e+00	-3.622667e+01
1.810000e-06	-1.701430e-07	-4.808269e-10	-1.187909e+00	-3.544182e+01
1.820000e-06	-1.235315e-07	-4.689757e-10	-8.624756e-01	-3.462265e+01
1.830000e-06	-7.685954e-08	-4.582540e-10	-5.366201e-01	-3.376863e+01
1.840000e-06	-3.013888e-08	-4.460188e-10	-2.104244e-01	-3.287938e+01
1.850000e-06	1.660603e-08	-4.324464e-10	1.159404e-01	-3.195461e+01
1.860000e-06	6.327268e-08	-4.180735e-10	4.417589e-01	-3.099420e+01
1.870000e-06	1.098772e-07	-4.002126e-10	7.671437e-01	-2.999814e+01
1.880000e-06	1.564339e-07	-3.826287e-10	1.092195e+00	-2.896658e+01
1.890000e-06	2.030610e-07	-3.677822e-10	1.417737e+00	-2.789981e+01
1.900000e-06	2.497124e-07	-3.547848e-10	1.743449e+00	-2.679825e+01
1.910000e-06	2.962618e-07	-3.407773e-10	2.068449e+00	-2.566249e+01
1.920000e-06	3.427403e-07	-3.265924e-10	2.392954e+00	-2.449327e+01
1.930000e-06	3.892611e-07	-3.110751e-10	2.717754e+00	-2.329146e+01
1.940000e-06	4.357752e-07	-2.911631e-10	3.042508e+00	-2.205808e+01
1.950000e-06	4.821798e-07	-2.693747e-10	3.366496e+00	-2.079431e+01
1.960000e-06	5.285612e-07	-2.501202e-10	3.690323e+00	-1.950146e+01
1.970000e-06	5.749222e-07	-2.345575e-10	4.014008e+00	-1.818095e+01
1.980000e-06	6.211845e-07	-2.199440e-10	4.337003e+00	-1.683437e+01
1.990000e-06	6.674109e-07	-2.039986e-10	4.659748e+00	-1.546339e+01
2.000000e-06	7.135815e-07	-1.839539e-10	4.982103e+00	-1.406981e+01
2.010000e-06	7.595992e-07	-1.607115e-10	5.303391e+00	-1.265554e+01
2.020000e-06	8.055785e-07	-1.371088e-10	5.624411e+00	-1.122258e+01
2.030000e-06	8.516008e-07	-1.139105e-10	5.945730e+00	-9.772992e+00
2.040000e-06	8.975993e-07	-9.231129e-11	6.266883e+00	-8.308940e+00
2.050000e-06	9.434923e-07	-7.397568e-11	6.587301e+00	-6.832631e+00
2.060000e-06	9.893049e-07	-5.639789e-11	6.907156e+00	-5.346325e+00
2.070000e-06	1.035063e-06	-3.758310e-11	7.226633e+00	-3.852317e+00
2.080000e-06	1.080761e-06	-1.858541e-11	7.545690e+00	-2.352927e+00
2.090000e-06	1.126378e-06	1.540638e-12	7.864179e+00	-8.504866e-01
2.100000e-06	1.172001e-06	2.423162e-11	8.182706e+00	6.526753e-01
2.110000e-06	1.217591e-06	4.637731e-11	8.501009e+00	2.154243e+00
2.120000e-06	1.263029e-06	6.798959e-11	8.818248e+00	3.651928e+00
2.130000e-06	1.308342e-06	8.859280e-11	9.134617e+00	5.143480e+00
2.140000e-06	1.353540e-06	1.058089e-10	9.450184e+00	6.626698e+00
2.150000e-06	1.398629e-06	1.224274e-10	9.764988e+00	8.099442e+00
2.160000e-06	1.443619e-06	1.424359e-10	1.007910e+01	9.559647e+00
2.170000e-06	1.488534e-06	1.632922e-10	1.039268e+01	1.100533e+01
2.180000e-06	1.533346e-06	1.837087e-10	1.070555e+01	1.243459e+01
2.190000e-06	1.578031e-06	2.048516e-10	1.101754e+01	1.384563e+01
2.200000e-06	1.622538e-06	2.251037e-10	1.132828e+01	1.523677e+01
2.210000e-06	1.666860e-06	2.419811e-10	1.163773e+01	1.660644e+01
2.220000e-06	1.711099e-06	2.560011e-10	1.194660e+01	1.795318e+01
2.230000e-06	1.755227e-06	2.691570e-10	1.225469e+01	1.927566e+01
2.240000e-06	1.799194e-06	2.823716e-10	1.256166e+01	2.057268e+01
2.250000e-06	1.843058e-06	2.973872e-10	1.286791e+01	2.184316e+01
2.260000e-06	1.886885e-06	3.157547e-10	1.317391e+01	2.308617e+01
2.270000e-06	1.930683e-06	3.367576e-10	1.347970e+01	2.430090e+01
2.280000e-06	1.974391e-06	3.568973e-10	1.378486e+01	2.548667e+01
2.290000e-06	2.018030e-06	3.742037e-10	1.408953e+01	2.664294e+01
2.300000e-06	2.061636e-06	3.886702e-10	1.439399e+01	2.776929e+01
2.310000e-06	2.105187e-06	4.011517e-10	1.469806e+01	2.886543e+01
2.320000e-06	2.148661e-06	4.137059e-10	1.500158e+01	2.993120e+01
2.330000e-06	2.191970e-06	4.277125e-10	1.530396e+01	3.096653e+01
2.340000e-06	2.235141e-06	4.423524e-10	1.560537e+01	3.197149e+01
2.350000e-06	2.278144e-06	4.573690e-10	1.590561e+01	3.294622e+01
2.360000e-06	2.320893e-06	4.733451e-10	1.620408e+01	3.389100e+01
2.370000e-06	2.363338e-06	4.879083e-10	1.650042e+01	3.480616e+01
2.380000e-06	2.405396e-06	4.995578e-10	1.679406e+01	3.569213e+01
2.390000e-06	2.447155e-06	5.094371e-10	1.708561e+01	3.654942e+01
2.400000e-06	2.488620e-06	5.186861e-10	1.737512e+01	3.737858e+01
2.410000e-06	2.529829e-06	5.299788e-10	1.766283e+01	3.818024e+01
2.420000e-06	2.570712e-06	5.437620e-10	1.794827e+01	3.895506e+01
2.430000e-06	2.611248e-06	5.571906e-10	1.823128e+01	3.970376e+01
2.440000e-06	2.651646e-06	5.687222e-10	1.851334e+01	4.042707e+01
2.450000e-06	2.691774e-06	5.803398e-10	1.879350e+01	4.112575e+01
2.460000e-06	2.731644e-06	5.904832e-10	1.907187e+01	4.180057e+01
2.470000e-06	2.771480e-06	5.995231e-10	1.935000e+01	4.245231e+01
2.480000e-06	2.811252e-06	6.106174e-10	1.962768e+01	4.308174e+01
2.490000e-06	2.850906e-06	6.213428e-10	1.990453e+01	4.368964e+01
2.500000e-06	2.890473e-06	6.296156e-10	2.018079e+01	4.427676e+01
2.510000e-06	2.929879e-06	6.371418e-10	2.045591e+01	4.484383e+01
2.520000e-06	2.969113e-06	6.455113e-10	2.072984e+01	4.539156e+01
2.530000e-06	3.008201e-06	6.539408e-10	2.100274e+01	4.592063e+01
2.540000e-06	3.047065e-06	6.603950e-10	2.127409e+01	4.643167e+01
2.550000e-06	3.085609e-06	6.651494e-10	2.154319e+01	4.692530e+01
2.560000e-06	3.123843e-06	6.692294e-10	2.181013e+01	4.740208e+01
2.570000e-06	3.161884e-06	6.740499e-10	2.207573e+01	4.786253e+01
2.580000e-06	3.199756e-06	6.804362e-10	2.234014e+01	4.830714e+01
2.590000e-06	3.237467e-06	6.861680e-10	2.260344e+01	4.873636e+01
2.600000e-06	3.275072e-06	6.917225e-10	2.286599e+01	4.915057e+01
2.610000e-06	3.312467e-06	6.981291e-10	2.312708e+01	4.955014e+01
2.620000e-06	3.349600e-06	7.028019e-10	2.338633e+01	4.993538e+01
2.630000e-06	3.386484e-06	7.061017e-10	2.364385e+01	5.030658e+01
2.640000e-06	3.423052e-06	7.098924e-10	2.389916e+01	5.066398e+01
2.650000e-06	3.459338e-06	7.149479e-10	2.415250e+01	5.100780e+01
2.660000e-06	3.495396e-06	7.210819e-10	2.440425e+01	5.133821e+01
2.670000e-06	3.531309e-06	7.268591e-10	2.465499e+01	5.165539e+01
2.680000e-06	3.567114e-06	7.300775e-10	2.490497e+01	5.195948e+01
2.690000e-06	3.602772e-06	7.313566e-10	2.515393e+01	5.225060e+01
2.700000e-06	3.638280e-06	7.345749e-10	2.540185e+01	5.252886e+01
2.710000e-06	3.673606e-06	7.385954e-10	2.564849e+01	5.279437e+01
2.720000e-06	3.708703e-06	7.421635e-10	2.589353e+01	5.304724e+01
2.730000e-06	3.743545e-06	7.469457e-10	2.613679e+01	5.328757e+01
2.740000e-06	3.777944e-06	7.512371e-10	2.637695e+01	5.351548e+01
2.750000e-06	3.811747e-06	7.564710e-10	2.661296e+01	5.373107e+01
2.760000e-06	3.845078e-06	7.621926e-10	2.684567e+01	5.393450e+01
2.770000e-06	3.877988e-06	7.664626e-10	2.707544e+01	5.412591e+01
2.780000e-06	3.910409e-06	7.692984e-10	2.730180e+01	5.430547e+01
2.790000e-06	3.942489e-06	7.697707e-10	2.752578e+01	5.447338e+01
2.800000e-06	3.974456e-06	7.710874e-10	2.774897e+01	5.462986e+01
2.810000e-06	4.006314e-06	7.728655e-10	2.797140e+01	5.477516e+01
2.820000e-06	4.037959e-06	7.753460e-10	2.819233e+01	5.490956e+01
2.830000e-06	4.069404e-06	7.794814e-10	2.841188e+01	5.503337e+01
2.840000e-06	4.100665e-06	7.834142e-10	2.863014e+01	5.514691e+01
2.850000e-06	4.131676e-06	7.863682e-10	2.884665e+01	5.525056e+01
2.860000e-06	4.162430e-06	7.882157e-10	2.906137e+01	5.534471e+01
2.870000e-06	4.192816e-06	7.888571e-10	2.927352e+01	5.542979e+01
2.880000e-06	4.222725e-06	7.905076e-10	2.948234e+01	5.550624e+01
2.890000e-06	4.252343e-06	7.937538e-10	2.968912e+01	5.557455e+01
2.900000e-06	4.281768e-06	7.963717e-10	2.989457e+01	5.563521e+01
