# Temperatura_=_14.2
# Concentracion g/m^3_=_1620.0
# C_Vs_to_Am_M_A/Vsm_=_65563218390.804596
# pendiente_HvsI_1/m_=_3716.3
# ordenada_HvsI_A/m_=_1297.0
# frecuencia_Hz_=_135100.1674983799

Tiempo_(s)	Campo_(V.s)	Magnetizacion_(V.s)	Campo_(kA/m)	Magnetizacion_(A/m)
0.000000e+00	-5.522911e-06	-1.494178e-09	-3.837490e+01	-1.000439e+02
1.000000e-08	-5.523035e-06	-1.492585e-09	-3.837577e+01	-1.000146e+02
2.000000e-08	-5.522893e-06	-1.487606e-09	-3.837478e+01	-9.998684e+01
3.000000e-08	-5.522484e-06	-1.482528e-09	-3.837193e+01	-9.996051e+01
4.000000e-08	-5.521595e-06	-1.481383e-09	-3.836576e+01	-9.993544e+01
5.000000e-08	-5.519988e-06	-1.481324e-09	-3.835459e+01	-9.991142e+01
6.000000e-08	-5.517902e-06	-1.488274e-09	-3.834010e+01	-9.988823e+01
7.000000e-08	-5.515336e-06	-1.489276e-09	-3.832227e+01	-9.986558e+01
8.000000e-08	-5.512165e-06	-1.444326e-09	-3.830024e+01	-9.984320e+01
9.000000e-08	-5.508545e-06	-1.430236e-09	-3.827509e+01	-9.982076e+01
1.000000e-07	-5.504508e-06	-1.520780e-09	-3.824703e+01	-9.979791e+01
1.100000e-07	-5.499994e-06	-1.552938e-09	-3.821567e+01	-9.977430e+01
1.200000e-07	-5.495278e-06	-1.442270e-09	-3.818290e+01	-9.974956e+01
1.300000e-07	-5.490557e-06	-1.383277e-09	-3.815010e+01	-9.972331e+01
1.400000e-07	-5.485536e-06	-1.462244e-09	-3.811521e+01	-9.969515e+01
1.500000e-07	-5.480011e-06	-1.549483e-09	-3.807682e+01	-9.966470e+01
1.600000e-07	-5.474037e-06	-1.442283e-09	-3.803531e+01	-9.963157e+01
1.700000e-07	-5.467671e-06	-1.399430e-09	-3.799108e+01	-9.959538e+01
1.800000e-07	-5.460827e-06	-1.493397e-09	-3.794352e+01	-9.955577e+01
1.900000e-07	-5.453544e-06	-1.591099e-09	-3.789292e+01	-9.951237e+01
2.000000e-07	-5.445989e-06	-1.501112e-09	-3.784042e+01	-9.946485e+01
2.100000e-07	-5.438232e-06	-1.426677e-09	-3.778653e+01	-9.941288e+01
2.200000e-07	-5.430206e-06	-1.468239e-09	-3.773076e+01	-9.935618e+01
2.300000e-07	-5.421893e-06	-1.538933e-09	-3.767300e+01	-9.929446e+01
2.400000e-07	-5.413210e-06	-1.516002e-09	-3.761267e+01	-9.922749e+01
2.500000e-07	-5.403950e-06	-1.484942e-09	-3.754832e+01	-9.915505e+01
2.600000e-07	-5.393898e-06	-1.517436e-09	-3.747848e+01	-9.907695e+01
2.700000e-07	-5.383184e-06	-1.526242e-09	-3.740404e+01	-9.899303e+01
2.800000e-07	-5.372041e-06	-1.490792e-09	-3.732661e+01	-9.890319e+01
2.900000e-07	-5.360443e-06	-1.456346e-09	-3.724603e+01	-9.880731e+01
3.000000e-07	-5.348452e-06	-1.500407e-09	-3.716271e+01	-9.870536e+01
3.100000e-07	-5.336045e-06	-1.516768e-09	-3.707650e+01	-9.859729e+01
3.200000e-07	-5.323233e-06	-1.514900e-09	-3.698748e+01	-9.848312e+01
3.300000e-07	-5.310012e-06	-1.479532e-09	-3.689561e+01	-9.836287e+01
3.400000e-07	-5.296439e-06	-1.515980e-09	-3.680131e+01	-9.823661e+01
3.500000e-07	-5.282631e-06	-1.515215e-09	-3.670536e+01	-9.810441e+01
3.600000e-07	-5.268418e-06	-1.477426e-09	-3.660661e+01	-9.796640e+01
3.700000e-07	-5.253583e-06	-1.448240e-09	-3.650353e+01	-9.782270e+01
3.800000e-07	-5.238239e-06	-1.515482e-09	-3.639691e+01	-9.767346e+01
3.900000e-07	-5.222373e-06	-1.496613e-09	-3.628667e+01	-9.751884e+01
4.000000e-07	-5.206008e-06	-1.434685e-09	-3.617296e+01	-9.735904e+01
4.100000e-07	-5.189339e-06	-1.469832e-09	-3.605714e+01	-9.719423e+01
4.200000e-07	-5.172293e-06	-1.525256e-09	-3.593870e+01	-9.702463e+01
4.300000e-07	-5.154894e-06	-1.436421e-09	-3.581781e+01	-9.685043e+01
4.400000e-07	-5.137247e-06	-1.413562e-09	-3.569519e+01	-9.667184e+01
4.500000e-07	-5.119269e-06	-1.506692e-09	-3.557027e+01	-9.648906e+01
4.600000e-07	-5.100804e-06	-1.475949e-09	-3.544197e+01	-9.630231e+01
4.700000e-07	-5.081866e-06	-1.378977e-09	-3.531038e+01	-9.611178e+01
4.800000e-07	-5.062617e-06	-1.442075e-09	-3.517664e+01	-9.591767e+01
4.900000e-07	-5.043081e-06	-1.485718e-09	-3.504089e+01	-9.572014e+01
5.000000e-07	-5.023266e-06	-1.399916e-09	-3.490322e+01	-9.551938e+01
5.100000e-07	-5.003267e-06	-1.419851e-09	-3.476425e+01	-9.531555e+01
5.200000e-07	-4.983085e-06	-1.484755e-09	-3.462402e+01	-9.510877e+01
5.300000e-07	-4.962583e-06	-1.410896e-09	-3.448157e+01	-9.489919e+01
5.400000e-07	-4.941637e-06	-1.377178e-09	-3.433603e+01	-9.468691e+01
5.500000e-07	-4.920359e-06	-1.464276e-09	-3.418819e+01	-9.447203e+01
5.600000e-07	-4.898743e-06	-1.425626e-09	-3.403799e+01	-9.425461e+01
5.700000e-07	-4.876799e-06	-1.350256e-09	-3.388552e+01	-9.403473e+01
5.800000e-07	-4.854594e-06	-1.408564e-09	-3.373123e+01	-9.381242e+01
5.900000e-07	-4.831960e-06	-1.441897e-09	-3.357396e+01	-9.358771e+01
6.000000e-07	-4.808850e-06	-1.372026e-09	-3.341338e+01	-9.336061e+01
6.100000e-07	-4.785519e-06	-1.390951e-09	-3.325127e+01	-9.313112e+01
6.200000e-07	-4.761975e-06	-1.424082e-09	-3.308768e+01	-9.289921e+01
6.300000e-07	-4.738077e-06	-1.377969e-09	-3.292163e+01	-9.266487e+01
6.400000e-07	-4.713972e-06	-1.359617e-09	-3.275414e+01	-9.242803e+01
6.500000e-07	-4.689658e-06	-1.399211e-09	-3.258520e+01	-9.218867e+01
6.600000e-07	-4.664947e-06	-1.376505e-09	-3.241350e+01	-9.194671e+01
6.700000e-07	-4.639783e-06	-1.358976e-09	-3.223866e+01	-9.170210e+01
6.800000e-07	-4.614011e-06	-1.383049e-09	-3.205958e+01	-9.145477e+01
6.900000e-07	-4.587596e-06	-1.384528e-09	-3.187605e+01	-9.120466e+01
7.000000e-07	-4.560686e-06	-1.358030e-09	-3.168907e+01	-9.095168e+01
7.100000e-07	-4.533427e-06	-1.362414e-09	-3.149966e+01	-9.069577e+01
7.200000e-07	-4.505918e-06	-1.354173e-09	-3.130852e+01	-9.043688e+01
7.300000e-07	-4.478164e-06	-1.335047e-09	-3.111567e+01	-9.017493e+01
7.400000e-07	-4.450261e-06	-1.337105e-09	-3.092180e+01	-8.990987e+01
7.500000e-07	-4.422179e-06	-1.345530e-09	-3.072667e+01	-8.964166e+01
7.600000e-07	-4.393819e-06	-1.336924e-09	-3.052962e+01	-8.937024e+01
7.700000e-07	-4.365108e-06	-1.334675e-09	-3.033013e+01	-8.909559e+01
7.800000e-07	-4.335995e-06	-1.331363e-09	-3.012784e+01	-8.881769e+01
7.900000e-07	-4.306596e-06	-1.314386e-09	-2.992357e+01	-8.853651e+01
8.000000e-07	-4.276967e-06	-1.308260e-09	-2.971770e+01	-8.825206e+01
8.100000e-07	-4.247077e-06	-1.308910e-09	-2.951001e+01	-8.796433e+01
8.200000e-07	-4.216886e-06	-1.299027e-09	-2.930024e+01	-8.767334e+01
8.300000e-07	-4.186375e-06	-1.290352e-09	-2.908824e+01	-8.737910e+01
8.400000e-07	-4.155640e-06	-1.298930e-09	-2.887468e+01	-8.708164e+01
8.500000e-07	-4.124643e-06	-1.294849e-09	-2.865930e+01	-8.678101e+01
8.600000e-07	-4.093423e-06	-1.281827e-09	-2.844237e+01	-8.647722e+01
8.700000e-07	-4.062023e-06	-1.276314e-09	-2.822420e+01	-8.617033e+01
8.800000e-07	-4.030394e-06	-1.274910e-09	-2.800443e+01	-8.586037e+01
8.900000e-07	-3.998605e-06	-1.261303e-09	-2.778355e+01	-8.554740e+01
9.000000e-07	-3.966611e-06	-1.260234e-09	-2.756125e+01	-8.523146e+01
9.100000e-07	-3.934305e-06	-1.263636e-09	-2.733677e+01	-8.491258e+01
9.200000e-07	-3.901573e-06	-1.256248e-09	-2.710934e+01	-8.459081e+01
9.300000e-07	-3.868465e-06	-1.244953e-09	-2.687930e+01	-8.426616e+01
9.400000e-07	-3.835018e-06	-1.247292e-09	-2.664690e+01	-8.393867e+01
9.500000e-07	-3.801073e-06	-1.236971e-09	-2.641103e+01	-8.360834e+01
9.600000e-07	-3.766529e-06	-1.221289e-09	-2.617102e+01	-8.327518e+01
9.700000e-07	-3.731569e-06	-1.214001e-09	-2.592810e+01	-8.293917e+01
9.800000e-07	-3.696332e-06	-1.213376e-09	-2.568326e+01	-8.260029e+01
9.900000e-07	-3.660867e-06	-1.204585e-09	-2.543684e+01	-8.225850e+01
1.000000e-06	-3.625256e-06	-1.201881e-09	-2.518941e+01	-8.191374e+01
1.010000e-06	-3.589471e-06	-1.200094e-09	-2.494076e+01	-8.156593e+01
1.020000e-06	-3.553599e-06	-1.190348e-09	-2.469151e+01	-8.121499e+01
1.030000e-06	-3.517595e-06	-1.179681e-09	-2.444134e+01	-8.086081e+01
1.040000e-06	-3.481349e-06	-1.177563e-09	-2.418949e+01	-8.050327e+01
1.050000e-06	-3.444862e-06	-1.173875e-09	-2.393598e+01	-8.014223e+01
1.060000e-06	-3.408073e-06	-1.165735e-09	-2.368035e+01	-7.977752e+01
1.070000e-06	-3.371016e-06	-1.162395e-09	-2.342287e+01	-7.940898e+01
1.080000e-06	-3.333736e-06	-1.157105e-09	-2.316384e+01	-7.903643e+01
1.090000e-06	-3.296130e-06	-1.148100e-09	-2.290254e+01	-7.865966e+01
1.100000e-06	-3.258280e-06	-1.139819e-09	-2.263955e+01	-7.827846e+01
1.110000e-06	-3.220282e-06	-1.135888e-09	-2.237552e+01	-7.789263e+01
1.120000e-06	-3.182088e-06	-1.129725e-09	-2.211014e+01	-7.750193e+01
1.130000e-06	-3.143727e-06	-1.124691e-09	-2.184360e+01	-7.710613e+01
1.140000e-06	-3.105135e-06	-1.120295e-09	-2.157544e+01	-7.670500e+01
1.150000e-06	-3.066265e-06	-1.111242e-09	-2.130537e+01	-7.629831e+01
1.160000e-06	-3.027145e-06	-1.095210e-09	-2.103355e+01	-7.588583e+01
1.170000e-06	-2.987871e-06	-1.084243e-09	-2.076066e+01	-7.546734e+01
1.180000e-06	-2.948481e-06	-1.076976e-09	-2.048696e+01	-7.504260e+01
1.190000e-06	-2.908898e-06	-1.072678e-09	-2.021193e+01	-7.461142e+01
1.200000e-06	-2.869131e-06	-1.068375e-09	-1.993562e+01	-7.417359e+01
1.210000e-06	-2.829221e-06	-1.062970e-09	-1.965831e+01	-7.372894e+01
1.220000e-06	-2.789278e-06	-1.052220e-09	-1.938077e+01	-7.327728e+01
1.230000e-06	-2.749252e-06	-1.043735e-09	-1.910266e+01	-7.281848e+01
1.240000e-06	-2.709031e-06	-1.035056e-09	-1.882319e+01	-7.235239e+01
1.250000e-06	-2.668545e-06	-1.028661e-09	-1.854188e+01	-7.187890e+01
1.260000e-06	-2.627761e-06	-1.022533e-09	-1.825850e+01	-7.139793e+01
1.270000e-06	-2.586691e-06	-1.014077e-09	-1.797313e+01	-7.090939e+01
1.280000e-06	-2.545416e-06	-1.005617e-09	-1.768634e+01	-7.041324e+01
1.290000e-06	-2.503853e-06	-9.968649e-10	-1.739755e+01	-6.990944e+01
1.300000e-06	-2.461964e-06	-9.865316e-10	-1.710649e+01	-6.939799e+01
1.310000e-06	-2.419845e-06	-9.766327e-10	-1.681384e+01	-6.887889e+01
1.320000e-06	-2.377410e-06	-9.683655e-10	-1.651898e+01	-6.835217e+01
1.330000e-06	-2.334540e-06	-9.602195e-10	-1.622111e+01	-6.781788e+01
1.340000e-06	-2.291406e-06	-9.517956e-10	-1.592140e+01	-6.727605e+01
1.350000e-06	-2.248141e-06	-9.435400e-10	-1.562078e+01	-6.672676e+01
1.360000e-06	-2.204717e-06	-9.331214e-10	-1.531906e+01	-6.617007e+01
1.370000e-06	-2.161181e-06	-9.202885e-10	-1.501655e+01	-6.560606e+01
1.380000e-06	-2.117491e-06	-9.091086e-10	-1.471299e+01	-6.503479e+01
1.390000e-06	-2.073688e-06	-9.013830e-10	-1.440863e+01	-6.445635e+01
1.400000e-06	-2.029840e-06	-8.950404e-10	-1.410396e+01	-6.387077e+01
1.410000e-06	-1.985905e-06	-8.872126e-10	-1.379868e+01	-6.327811e+01
1.420000e-06	-1.941898e-06	-8.798716e-10	-1.349291e+01	-6.267839e+01
1.430000e-06	-1.897886e-06	-8.707602e-10	-1.318711e+01	-6.207161e+01
1.440000e-06	-1.853798e-06	-8.591006e-10	-1.288076e+01	-6.145775e+01
1.450000e-06	-1.809621e-06	-8.460419e-10	-1.257381e+01	-6.083674e+01
1.460000e-06	-1.765382e-06	-8.341775e-10	-1.226643e+01	-6.020850e+01
1.470000e-06	-1.720969e-06	-8.223085e-10	-1.195783e+01	-5.957287e+01
1.480000e-06	-1.676383e-06	-8.131509e-10	-1.164803e+01	-5.892968e+01
1.490000e-06	-1.631635e-06	-8.056490e-10	-1.133711e+01	-5.827869e+01
1.500000e-06	-1.586696e-06	-7.975972e-10	-1.102485e+01	-5.761960e+01
1.510000e-06	-1.541644e-06	-7.885613e-10	-1.071182e+01	-5.695208e+01
1.520000e-06	-1.496520e-06	-7.816129e-10	-1.039829e+01	-5.627572e+01
1.530000e-06	-1.451336e-06	-7.717329e-10	-1.008433e+01	-5.559004e+01
1.540000e-06	-1.406056e-06	-7.570101e-10	-9.769716e+00	-5.489453e+01
1.550000e-06	-1.360649e-06	-7.421252e-10	-9.454213e+00	-5.418857e+01
1.560000e-06	-1.315178e-06	-7.310020e-10	-9.138268e+00	-5.347151e+01
1.570000e-06	-1.269589e-06	-7.217150e-10	-8.821499e+00	-5.274263e+01
1.580000e-06	-1.223884e-06	-7.123630e-10	-8.503928e+00	-5.200114e+01
1.590000e-06	-1.178131e-06	-7.040048e-10	-8.186023e+00	-5.124618e+01
1.600000e-06	-1.132258e-06	-6.979438e-10	-7.867280e+00	-5.047686e+01
1.610000e-06	-1.086316e-06	-6.890415e-10	-7.548061e+00	-4.969222e+01
1.620000e-06	-1.040340e-06	-6.771274e-10	-7.228607e+00	-4.889123e+01
1.630000e-06	-9.942555e-07	-6.636553e-10	-6.908396e+00	-4.807284e+01
1.640000e-06	-9.481104e-07	-6.488401e-10	-6.587766e+00	-4.723596e+01
1.650000e-06	-9.019506e-07	-6.341341e-10	-6.267033e+00	-4.637945e+01
1.660000e-06	-8.557206e-07	-6.178311e-10	-5.945813e+00	-4.550216e+01
1.670000e-06	-8.093371e-07	-6.010442e-10	-5.623526e+00	-4.460292e+01
1.680000e-06	-7.628970e-07	-5.837711e-10	-5.300846e+00	-4.368054e+01
1.690000e-06	-7.164963e-07	-5.678643e-10	-4.978439e+00	-4.273384e+01
1.700000e-06	-6.700246e-07	-5.517054e-10	-4.655539e+00	-4.176164e+01
1.710000e-06	-6.234992e-07	-5.361355e-10	-4.332266e+00	-4.076279e+01
1.720000e-06	-5.769407e-07	-5.227662e-10	-4.008763e+00	-3.973616e+01
1.730000e-06	-5.303191e-07	-5.073227e-10	-3.684822e+00	-3.868065e+01
1.740000e-06	-4.836624e-07	-4.869088e-10	-3.360637e+00	-3.759523e+01
1.750000e-06	-4.368939e-07	-4.659780e-10	-3.035675e+00	-3.647891e+01
1.760000e-06	-3.900757e-07	-4.457281e-10	-2.710367e+00	-3.533079e+01
1.770000e-06	-3.433779e-07	-4.277914e-10	-2.385896e+00	-3.415003e+01
1.780000e-06	-2.966236e-07	-4.119627e-10	-2.061033e+00	-3.293589e+01
1.790000e-06	-2.498145e-07	-3.974332e-10	-1.735789e+00	-3.168773e+01
1.800000e-06	-2.030633e-07	-3.818008e-10	-1.410947e+00	-3.040501e+01
1.810000e-06	-1.562807e-07	-3.643339e-10	-1.085887e+00	-2.908733e+01
1.820000e-06	-1.094692e-07	-3.459644e-10	-7.606259e-01	-2.773438e+01
1.830000e-06	-6.267039e-08	-3.270480e-10	-4.354534e-01	-2.634602e+01
1.840000e-06	-1.576376e-08	-3.088088e-10	-1.095315e-01	-2.492221e+01
1.850000e-06	3.113256e-08	-2.894905e-10	2.163187e-01	-2.346309e+01
1.860000e-06	7.792454e-08	-2.672152e-10	5.414440e-01	-2.196892e+01
1.870000e-06	1.247817e-07	-2.432130e-10	8.670221e-01	-2.044014e+01
1.880000e-06	1.716808e-07	-2.209687e-10	1.192892e+00	-1.887732e+01
1.890000e-06	2.185441e-07	-2.016199e-10	1.518512e+00	-1.728120e+01
1.900000e-06	2.653328e-07	-1.817541e-10	1.843615e+00	-1.565267e+01
1.910000e-06	3.121009e-07	-1.606868e-10	2.168574e+00	-1.399279e+01
1.920000e-06	3.588337e-07	-1.401330e-10	2.493288e+00	-1.230276e+01
1.930000e-06	4.055387e-07	-1.171969e-10	2.817809e+00	-1.058392e+01
1.940000e-06	4.522518e-07	-9.100852e-11	3.142386e+00	-8.837788e+00
1.950000e-06	4.988841e-07	-6.433528e-11	3.466402e+00	-7.065995e+00
1.960000e-06	5.454349e-07	-4.103955e-11	3.789852e+00	-5.270319e+00
1.970000e-06	5.919748e-07	-2.046941e-11	4.113225e+00	-3.452663e+00
1.980000e-06	6.384555e-07	4.313888e-13	4.436187e+00	-1.615046e+00
1.990000e-06	6.848496e-07	2.421637e-11	4.758548e+00	2.404031e-01
2.000000e-06	7.311650e-07	5.222547e-11	5.080362e+00	2.111457e+00
2.010000e-06	7.774575e-07	8.296565e-11	5.402016e+00	3.995802e+00
2.020000e-06	8.237618e-07	1.128629e-10	5.723754e+00	5.891050e+00
2.030000e-06	8.700669e-07	1.394745e-10	6.045495e+00	7.794750e+00
2.040000e-06	9.163081e-07	1.624604e-10	6.366793e+00	9.704403e+00
2.050000e-06	9.623825e-07	1.860603e-10	6.686933e+00	1.161747e+01
2.060000e-06	1.008311e-06	2.116580e-10	7.006059e+00	1.353140e+01
2.070000e-06	1.054187e-06	2.376195e-10	7.324820e+00	1.544362e+01
2.080000e-06	1.100121e-06	2.650748e-10	7.643984e+00	1.735158e+01
2.090000e-06	1.146032e-06	2.945510e-10	7.962989e+00	1.925273e+01
2.100000e-06	1.191826e-06	3.227664e-10	8.281178e+00	2.114458e+01
2.110000e-06	1.237494e-06	3.476584e-10	8.598491e+00	2.302465e+01
2.120000e-06	1.283095e-06	3.722862e-10	8.915344e+00	2.489057e+01
2.130000e-06	1.328616e-06	3.963019e-10	9.231640e+00	2.673999e+01
2.140000e-06	1.373992e-06	4.170636e-10	9.546925e+00	2.857070e+01
2.150000e-06	1.419346e-06	4.387930e-10	9.862056e+00	3.038054e+01
2.160000e-06	1.464636e-06	4.651794e-10	1.017675e+01	3.216749e+01
2.170000e-06	1.509758e-06	4.913091e-10	1.049027e+01	3.392963e+01
2.180000e-06	1.554768e-06	5.142484e-10	1.080301e+01	3.566518e+01
2.190000e-06	1.599650e-06	5.369997e-10	1.111487e+01	3.737247e+01
2.200000e-06	1.644357e-06	5.579559e-10	1.142550e+01	3.905000e+01
2.210000e-06	1.688966e-06	5.762817e-10	1.173546e+01	4.069641e+01
2.220000e-06	1.733440e-06	5.947267e-10	1.204448e+01	4.231047e+01
2.230000e-06	1.777696e-06	6.134423e-10	1.235198e+01	4.389112e+01
2.240000e-06	1.821840e-06	6.329092e-10	1.265871e+01	4.543747e+01
2.250000e-06	1.865858e-06	6.536938e-10	1.296456e+01	4.694877e+01
2.260000e-06	1.909748e-06	6.765984e-10	1.326952e+01	4.842443e+01
2.270000e-06	1.953611e-06	6.996102e-10	1.357430e+01	4.986401e+01
2.280000e-06	1.997476e-06	7.207208e-10	1.387908e+01	5.126723e+01
2.290000e-06	2.041331e-06	7.394013e-10	1.418380e+01	5.263397e+01
2.300000e-06	2.085122e-06	7.545503e-10	1.448808e+01	5.396424e+01
2.310000e-06	2.128833e-06	7.683852e-10	1.479179e+01	5.525819e+01
2.320000e-06	2.172434e-06	7.851015e-10	1.509474e+01	5.651611e+01
2.330000e-06	2.215879e-06	8.038278e-10	1.539662e+01	5.773840e+01
2.340000e-06	2.259182e-06	8.221832e-10	1.569750e+01	5.892560e+01
2.350000e-06	2.302392e-06	8.407256e-10	1.599774e+01	6.007835e+01
2.360000e-06	2.345559e-06	8.588103e-10	1.629767e+01	6.119736e+01
2.370000e-06	2.388418e-06	8.734327e-10	1.659547e+01	6.228347e+01
2.380000e-06	2.430823e-06	8.854642e-10	1.689011e+01	6.333757e+01
2.390000e-06	2.472841e-06	8.979031e-10	1.718207e+01	6.436063e+01
2.400000e-06	2.514534e-06	9.104391e-10	1.747177e+01	6.535366e+01
2.410000e-06	2.556005e-06	9.233738e-10	1.775992e+01	6.631774e+01
2.420000e-06	2.597221e-06	9.384910e-10	1.804630e+01	6.725397e+01
2.430000e-06	2.638172e-06	9.540339e-10	1.833084e+01	6.816347e+01
2.440000e-06	2.678820e-06	9.678455e-10	1.861328e+01	6.904737e+01
2.450000e-06	2.719201e-06	9.801323e-10	1.889385e+01	6.990682e+01
2.460000e-06	2.759366e-06	9.905591e-10	1.917293e+01	7.074295e+01
2.470000e-06	2.799348e-06	1.000989e-09	1.945074e+01	7.155688e+01
2.480000e-06	2.839228e-06	1.012469e-09	1.972784e+01	7.234969e+01
2.490000e-06	2.879022e-06	1.025223e-09	2.000434e+01	7.312245e+01
2.500000e-06	2.918746e-06	1.039203e-09	2.028035e+01	7.387617e+01
2.510000e-06	2.958345e-06	1.051213e-09	2.055550e+01	7.461184e+01
2.520000e-06	2.997722e-06	1.060904e-09	2.082910e+01	7.533036e+01
2.530000e-06	3.036850e-06	1.070596e-09	2.110098e+01	7.603259e+01
2.540000e-06	3.075792e-06	1.079973e-09	2.137156e+01	7.671935e+01
2.550000e-06	3.114502e-06	1.087389e-09	2.164053e+01	7.739136e+01
2.560000e-06	3.152922e-06	1.094812e-09	2.190748e+01	7.804929e+01
2.570000e-06	3.191131e-06	1.104170e-09	2.217297e+01	7.869374e+01
2.580000e-06	3.229173e-06	1.114100e-09	2.243730e+01	7.932525e+01
2.590000e-06	3.266999e-06	1.124109e-09	2.270013e+01	7.994428e+01
2.600000e-06	3.304616e-06	1.132004e-09	2.296150e+01	8.055122e+01
2.610000e-06	3.342038e-06	1.138064e-09	2.322152e+01	8.114641e+01
2.620000e-06	3.379142e-06	1.144052e-09	2.347933e+01	8.173011e+01
2.630000e-06	3.416012e-06	1.152220e-09	2.373551e+01	8.230253e+01
2.640000e-06	3.452693e-06	1.160491e-09	2.399039e+01	8.286383e+01
2.650000e-06	3.489074e-06	1.166516e-09	2.424317e+01	8.341411e+01
2.660000e-06	3.525233e-06	1.173913e-09	2.449442e+01	8.395343e+01
2.670000e-06	3.561237e-06	1.182216e-09	2.474458e+01	8.448179e+01
2.680000e-06	3.597106e-06	1.189487e-09	2.499381e+01	8.499919e+01
2.690000e-06	3.632849e-06	1.196606e-09	2.524216e+01	8.550557e+01
2.700000e-06	3.668493e-06	1.204196e-09	2.548983e+01	8.600087e+01
2.710000e-06	3.703954e-06	1.211576e-09	2.573622e+01	8.648499e+01
2.720000e-06	3.739159e-06	1.217410e-09	2.598084e+01	8.695784e+01
2.730000e-06	3.774079e-06	1.222909e-09	2.622347e+01	8.741930e+01
2.740000e-06	3.808586e-06	1.230469e-09	2.646324e+01	8.786929e+01
2.750000e-06	3.842660e-06	1.238501e-09	2.670000e+01	8.830770e+01
2.760000e-06	3.876189e-06	1.245376e-09	2.693296e+01	8.873445e+01
2.770000e-06	3.909160e-06	1.252354e-09	2.716206e+01	8.914947e+01
2.780000e-06	3.941682e-06	1.261794e-09	2.738803e+01	8.955272e+01
2.790000e-06	3.973880e-06	1.268862e-09	2.761175e+01	8.994416e+01
2.800000e-06	4.005885e-06	1.271779e-09	2.783414e+01	9.032383e+01
2.810000e-06	4.037740e-06	1.273482e-09	2.805548e+01	9.069174e+01
2.820000e-06	4.069473e-06	1.277256e-09	2.827596e+01	9.104799e+01
2.830000e-06	4.101016e-06	1.283986e-09	2.849513e+01	9.139267e+01
2.840000e-06	4.132338e-06	1.291767e-09	2.871277e+01	9.172594e+01
2.850000e-06	4.163460e-06	1.299589e-09	2.892901e+01	9.204799e+01
2.860000e-06	4.194204e-06	1.305207e-09	2.914263e+01	9.235903e+01
2.870000e-06	4.224488e-06	1.310866e-09	2.935306e+01	9.265934e+01
2.880000e-06	4.254543e-06	1.314588e-09	2.956189e+01	9.294920e+01
2.890000e-06	4.284384e-06	1.320377e-09	2.976923e+01	9.322896e+01
2.900000e-06	4.313944e-06	1.327467e-09	2.997462e+01	9.349897e+01
