# Temperatura_=_-6.13
# Concentracion g/m^3_=_1620.0
# C_Vs_to_Am_M_A/Vsm_=_65563218390.804596
# pendiente_HvsI_1/m_=_3716.3
# ordenada_HvsI_A/m_=_1297.0
# frecuencia_Hz_=_135107.27241871099

Tiempo_(s)	Campo_(V.s)	Magnetizacion_(V.s)	Campo_(kA/m)	Magnetizacion_(A/m)
0.000000e+00	-5.533066e-06	-1.130135e-09	-3.836748e+01	-7.499541e+01
1.000000e-08	-5.533256e-06	-1.132452e-09	-3.836880e+01	-7.498966e+01
2.000000e-08	-5.533211e-06	-1.132172e-09	-3.836849e+01	-7.498373e+01
3.000000e-08	-5.532938e-06	-1.127766e-09	-3.836659e+01	-7.497721e+01
4.000000e-08	-5.532238e-06	-1.120361e-09	-3.836174e+01	-7.496961e+01
5.000000e-08	-5.530984e-06	-1.113987e-09	-3.835304e+01	-7.496049e+01
6.000000e-08	-5.529132e-06	-1.115015e-09	-3.834021e+01	-7.494936e+01
7.000000e-08	-5.526723e-06	-1.133424e-09	-3.832350e+01	-7.493575e+01
8.000000e-08	-5.523872e-06	-1.154498e-09	-3.830373e+01	-7.491918e+01
9.000000e-08	-5.520515e-06	-1.130904e-09	-3.828045e+01	-7.489918e+01
1.000000e-07	-5.516638e-06	-1.074608e-09	-3.825357e+01	-7.487532e+01
1.100000e-07	-5.512340e-06	-1.103947e-09	-3.822376e+01	-7.484716e+01
1.200000e-07	-5.507734e-06	-1.183161e-09	-3.819183e+01	-7.481429e+01
1.300000e-07	-5.502948e-06	-1.151672e-09	-3.815863e+01	-7.477634e+01
1.400000e-07	-5.497891e-06	-1.055685e-09	-3.812357e+01	-7.473296e+01
1.500000e-07	-5.492437e-06	-1.071521e-09	-3.808575e+01	-7.468385e+01
1.600000e-07	-5.486592e-06	-1.177976e-09	-3.804522e+01	-7.462874e+01
1.700000e-07	-5.480350e-06	-1.187525e-09	-3.800194e+01	-7.456742e+01
1.800000e-07	-5.473682e-06	-1.079133e-09	-3.795570e+01	-7.449970e+01
1.900000e-07	-5.466647e-06	-1.099380e-09	-3.790692e+01	-7.442547e+01
2.000000e-07	-5.459294e-06	-1.178780e-09	-3.785593e+01	-7.434465e+01
2.100000e-07	-5.451637e-06	-1.180993e-09	-3.780283e+01	-7.425721e+01
2.200000e-07	-5.443720e-06	-1.085372e-09	-3.774794e+01	-7.416320e+01
2.300000e-07	-5.435543e-06	-1.075160e-09	-3.769124e+01	-7.406268e+01
2.400000e-07	-5.426978e-06	-1.131277e-09	-3.763184e+01	-7.395579e+01
2.500000e-07	-5.417858e-06	-1.150993e-09	-3.756861e+01	-7.384272e+01
2.600000e-07	-5.408096e-06	-1.110139e-09	-3.750091e+01	-7.372369e+01
2.700000e-07	-5.397707e-06	-1.087122e-09	-3.742887e+01	-7.359898e+01
2.800000e-07	-5.386789e-06	-1.103390e-09	-3.735316e+01	-7.346892e+01
2.900000e-07	-5.375384e-06	-1.099324e-09	-3.727408e+01	-7.333385e+01
3.000000e-07	-5.363533e-06	-1.071292e-09	-3.719191e+01	-7.319418e+01
3.100000e-07	-5.351275e-06	-1.050830e-09	-3.710691e+01	-7.305033e+01
3.200000e-07	-5.338605e-06	-1.092926e-09	-3.701904e+01	-7.290276e+01
3.300000e-07	-5.325527e-06	-1.115037e-09	-3.692836e+01	-7.275194e+01
3.400000e-07	-5.312099e-06	-1.090682e-09	-3.683525e+01	-7.259836e+01
3.500000e-07	-5.298304e-06	-1.055800e-09	-3.673959e+01	-7.244254e+01
3.600000e-07	-5.284099e-06	-1.094720e-09	-3.664109e+01	-7.228498e+01
3.700000e-07	-5.269479e-06	-1.087196e-09	-3.653971e+01	-7.212621e+01
3.800000e-07	-5.254316e-06	-1.043507e-09	-3.643457e+01	-7.196672e+01
3.900000e-07	-5.238640e-06	-1.061850e-09	-3.632587e+01	-7.180702e+01
4.000000e-07	-5.222570e-06	-1.118789e-09	-3.621444e+01	-7.164761e+01
4.100000e-07	-5.206046e-06	-1.063973e-09	-3.609985e+01	-7.148894e+01
4.200000e-07	-5.189121e-06	-1.039803e-09	-3.598249e+01	-7.133147e+01
4.300000e-07	-5.171941e-06	-1.111011e-09	-3.586336e+01	-7.117560e+01
4.400000e-07	-5.154430e-06	-1.097148e-09	-3.574194e+01	-7.102174e+01
4.500000e-07	-5.136441e-06	-1.001372e-09	-3.561720e+01	-7.087021e+01
4.600000e-07	-5.118087e-06	-1.054129e-09	-3.548992e+01	-7.072134e+01
4.700000e-07	-5.099405e-06	-1.116509e-09	-3.536038e+01	-7.057539e+01
4.800000e-07	-5.080270e-06	-1.032077e-09	-3.522769e+01	-7.043258e+01
4.900000e-07	-5.060749e-06	-1.013101e-09	-3.509233e+01	-7.029309e+01
5.000000e-07	-5.041028e-06	-1.102153e-09	-3.495558e+01	-7.015705e+01
5.100000e-07	-5.021139e-06	-1.062415e-09	-3.481767e+01	-7.002454e+01
5.200000e-07	-5.000982e-06	-1.002100e-09	-3.467790e+01	-6.989560e+01
5.300000e-07	-4.980472e-06	-1.079556e-09	-3.453567e+01	-6.977021e+01
5.400000e-07	-4.959586e-06	-1.083020e-09	-3.439085e+01	-6.964830e+01
5.500000e-07	-4.938357e-06	-9.900291e-10	-3.424364e+01	-6.952979e+01
5.600000e-07	-4.916768e-06	-1.029912e-09	-3.409394e+01	-6.941450e+01
5.700000e-07	-4.894861e-06	-1.089923e-09	-3.394203e+01	-6.930226e+01
5.800000e-07	-4.872630e-06	-1.014154e-09	-3.378787e+01	-6.919283e+01
5.900000e-07	-4.850033e-06	-1.006765e-09	-3.363119e+01	-6.908595e+01
6.000000e-07	-4.827139e-06	-1.077689e-09	-3.347243e+01	-6.898131e+01
6.100000e-07	-4.803932e-06	-1.041636e-09	-3.331151e+01	-6.887861e+01
6.200000e-07	-4.780432e-06	-9.905352e-10	-3.314855e+01	-6.877749e+01
6.300000e-07	-4.756698e-06	-1.042775e-09	-3.298398e+01	-6.867758e+01
6.400000e-07	-4.732726e-06	-1.041801e-09	-3.281775e+01	-6.857850e+01
6.500000e-07	-4.708477e-06	-9.951837e-10	-3.264960e+01	-6.847985e+01
6.600000e-07	-4.683892e-06	-1.019748e-09	-3.247912e+01	-6.838125e+01
6.700000e-07	-4.658807e-06	-1.043763e-09	-3.230518e+01	-6.828229e+01
6.800000e-07	-4.633147e-06	-1.005528e-09	-3.212725e+01	-6.818257e+01
6.900000e-07	-4.607015e-06	-1.012709e-09	-3.194604e+01	-6.808172e+01
7.000000e-07	-4.580386e-06	-1.038624e-09	-3.176139e+01	-6.797934e+01
7.100000e-07	-4.553254e-06	-1.017593e-09	-3.157325e+01	-6.787508e+01
7.200000e-07	-4.525778e-06	-1.001228e-09	-3.138273e+01	-6.776860e+01
7.300000e-07	-4.498104e-06	-1.020101e-09	-3.119083e+01	-6.765959e+01
7.400000e-07	-4.470262e-06	-1.007998e-09	-3.099777e+01	-6.754774e+01
7.500000e-07	-4.442249e-06	-9.919771e-10	-3.080352e+01	-6.743280e+01
7.600000e-07	-4.413993e-06	-1.004602e-09	-3.060759e+01	-6.731453e+01
7.700000e-07	-4.385419e-06	-1.008292e-09	-3.040945e+01	-6.719273e+01
7.800000e-07	-4.356504e-06	-9.937577e-10	-3.020894e+01	-6.706724e+01
7.900000e-07	-4.327205e-06	-9.973059e-10	-3.000578e+01	-6.693791e+01
8.000000e-07	-4.297626e-06	-9.966671e-10	-2.980067e+01	-6.680466e+01
8.100000e-07	-4.267830e-06	-9.779347e-10	-2.959406e+01	-6.666742e+01
8.200000e-07	-4.237703e-06	-9.742069e-10	-2.938515e+01	-6.652615e+01
8.300000e-07	-4.207248e-06	-9.824132e-10	-2.917397e+01	-6.638087e+01
8.400000e-07	-4.176594e-06	-9.744218e-10	-2.896141e+01	-6.623161e+01
8.500000e-07	-4.145689e-06	-9.692601e-10	-2.874711e+01	-6.607844e+01
8.600000e-07	-4.114394e-06	-9.784550e-10	-2.853010e+01	-6.592144e+01
8.700000e-07	-4.082824e-06	-9.717722e-10	-2.831119e+01	-6.576074e+01
8.800000e-07	-4.051150e-06	-9.588830e-10	-2.809155e+01	-6.559647e+01
8.900000e-07	-4.019361e-06	-9.613446e-10	-2.787112e+01	-6.542879e+01
9.000000e-07	-3.987344e-06	-9.617605e-10	-2.764911e+01	-6.525789e+01
9.100000e-07	-3.955029e-06	-9.500258e-10	-2.742503e+01	-6.508394e+01
9.200000e-07	-3.922392e-06	-9.546837e-10	-2.719872e+01	-6.490714e+01
9.300000e-07	-3.889331e-06	-9.589905e-10	-2.696946e+01	-6.472770e+01
9.400000e-07	-3.855746e-06	-9.490380e-10	-2.673658e+01	-6.454582e+01
9.500000e-07	-3.821722e-06	-9.428385e-10	-2.650065e+01	-6.436169e+01
9.600000e-07	-3.787335e-06	-9.458243e-10	-2.626220e+01	-6.417552e+01
9.700000e-07	-3.752554e-06	-9.328164e-10	-2.602103e+01	-6.398748e+01
9.800000e-07	-3.717403e-06	-9.205058e-10	-2.577728e+01	-6.379776e+01
9.900000e-07	-3.681963e-06	-9.233201e-10	-2.553153e+01	-6.360651e+01
1.000000e-06	-3.646294e-06	-9.238180e-10	-2.528420e+01	-6.341387e+01
1.010000e-06	-3.610500e-06	-9.131014e-10	-2.503599e+01	-6.321997e+01
1.020000e-06	-3.574597e-06	-9.141505e-10	-2.478703e+01	-6.302490e+01
1.030000e-06	-3.538532e-06	-9.168978e-10	-2.453695e+01	-6.282874e+01
1.040000e-06	-3.502296e-06	-9.091570e-10	-2.428568e+01	-6.263153e+01
1.050000e-06	-3.465829e-06	-9.027248e-10	-2.403281e+01	-6.243330e+01
1.060000e-06	-3.429024e-06	-9.005949e-10	-2.377759e+01	-6.223405e+01
1.070000e-06	-3.391877e-06	-8.893896e-10	-2.352001e+01	-6.203375e+01
1.080000e-06	-3.354555e-06	-8.791404e-10	-2.326121e+01	-6.183233e+01
1.090000e-06	-3.317087e-06	-8.801857e-10	-2.300140e+01	-6.162971e+01
1.100000e-06	-3.279382e-06	-8.813850e-10	-2.273995e+01	-6.142580e+01
1.110000e-06	-3.241448e-06	-8.771494e-10	-2.247690e+01	-6.122045e+01
1.120000e-06	-3.203232e-06	-8.769008e-10	-2.221190e+01	-6.101351e+01
1.130000e-06	-3.164750e-06	-8.752839e-10	-2.194507e+01	-6.080481e+01
1.140000e-06	-3.126005e-06	-8.658149e-10	-2.167639e+01	-6.059416e+01
1.150000e-06	-3.087004e-06	-8.590443e-10	-2.140596e+01	-6.038136e+01
1.160000e-06	-3.047876e-06	-8.559297e-10	-2.113464e+01	-6.016618e+01
1.170000e-06	-3.008602e-06	-8.507953e-10	-2.086230e+01	-5.994840e+01
1.180000e-06	-2.969127e-06	-8.455218e-10	-2.058857e+01	-5.972780e+01
1.190000e-06	-2.929487e-06	-8.467541e-10	-2.031370e+01	-5.950412e+01
1.200000e-06	-2.889739e-06	-8.458330e-10	-2.003808e+01	-5.927714e+01
1.210000e-06	-2.849863e-06	-8.395685e-10	-1.976157e+01	-5.904663e+01
1.220000e-06	-2.809895e-06	-8.345810e-10	-1.948442e+01	-5.881235e+01
1.230000e-06	-2.769798e-06	-8.317109e-10	-1.920638e+01	-5.857408e+01
1.240000e-06	-2.729443e-06	-8.253891e-10	-1.892655e+01	-5.833162e+01
1.250000e-06	-2.688930e-06	-8.231766e-10	-1.864562e+01	-5.808477e+01
1.260000e-06	-2.648198e-06	-8.244562e-10	-1.836318e+01	-5.783335e+01
1.270000e-06	-2.607120e-06	-8.228445e-10	-1.807834e+01	-5.757719e+01
1.280000e-06	-2.565801e-06	-8.172773e-10	-1.779182e+01	-5.731614e+01
1.290000e-06	-2.524190e-06	-8.146468e-10	-1.750328e+01	-5.705008e+01
1.300000e-06	-2.482292e-06	-8.108010e-10	-1.721275e+01	-5.677889e+01
1.310000e-06	-2.440112e-06	-8.036220e-10	-1.692027e+01	-5.650248e+01
1.320000e-06	-2.397570e-06	-7.982404e-10	-1.662527e+01	-5.622078e+01
1.330000e-06	-2.354835e-06	-7.946261e-10	-1.632894e+01	-5.593372e+01
1.340000e-06	-2.311934e-06	-7.892912e-10	-1.603146e+01	-5.564126e+01
1.350000e-06	-2.268684e-06	-7.848301e-10	-1.573155e+01	-5.534337e+01
1.360000e-06	-2.225256e-06	-7.804428e-10	-1.543041e+01	-5.504004e+01
1.370000e-06	-2.181760e-06	-7.729683e-10	-1.512880e+01	-5.473124e+01
1.380000e-06	-2.138081e-06	-7.650449e-10	-1.482591e+01	-5.441699e+01
1.390000e-06	-2.094281e-06	-7.602600e-10	-1.452220e+01	-5.409726e+01
1.400000e-06	-2.050425e-06	-7.565062e-10	-1.421810e+01	-5.377205e+01
1.410000e-06	-2.006500e-06	-7.538647e-10	-1.391351e+01	-5.344136e+01
1.420000e-06	-1.962525e-06	-7.531738e-10	-1.360858e+01	-5.310515e+01
1.430000e-06	-1.918487e-06	-7.507900e-10	-1.330321e+01	-5.276338e+01
1.440000e-06	-1.874360e-06	-7.440048e-10	-1.299722e+01	-5.241599e+01
1.450000e-06	-1.830100e-06	-7.362057e-10	-1.269031e+01	-5.206290e+01
1.460000e-06	-1.785678e-06	-7.297283e-10	-1.238228e+01	-5.170398e+01
1.470000e-06	-1.741168e-06	-7.220801e-10	-1.207364e+01	-5.133910e+01
1.480000e-06	-1.696562e-06	-7.152586e-10	-1.176433e+01	-5.096805e+01
1.490000e-06	-1.651767e-06	-7.114751e-10	-1.145371e+01	-5.059060e+01
1.500000e-06	-1.606836e-06	-7.081578e-10	-1.114215e+01	-5.020649e+01
1.510000e-06	-1.561778e-06	-7.030284e-10	-1.082971e+01	-4.981536e+01
1.520000e-06	-1.516516e-06	-6.983604e-10	-1.051585e+01	-4.941685e+01
1.530000e-06	-1.471151e-06	-6.931644e-10	-1.020128e+01	-4.901051e+01
1.540000e-06	-1.425679e-06	-6.855256e-10	-9.885970e+00	-4.859584e+01
1.550000e-06	-1.380102e-06	-6.766428e-10	-9.569930e+00	-4.817228e+01
1.560000e-06	-1.334517e-06	-6.696703e-10	-9.253827e+00	-4.773921e+01
1.570000e-06	-1.288883e-06	-6.610397e-10	-8.937392e+00	-4.729595e+01
1.580000e-06	-1.243172e-06	-6.506065e-10	-8.620428e+00	-4.684174e+01
1.590000e-06	-1.197381e-06	-6.438862e-10	-8.302902e+00	-4.637580e+01
1.600000e-06	-1.151533e-06	-6.394766e-10	-7.984983e+00	-4.589725e+01
1.610000e-06	-1.105529e-06	-6.346477e-10	-7.665981e+00	-4.540518e+01
1.620000e-06	-1.059411e-06	-6.282232e-10	-7.346188e+00	-4.489861e+01
1.630000e-06	-1.013281e-06	-6.205491e-10	-7.026312e+00	-4.437654e+01
1.640000e-06	-9.670789e-07	-6.107902e-10	-6.705935e+00	-4.383789e+01
1.650000e-06	-9.207548e-07	-5.979559e-10	-6.384714e+00	-4.328157e+01
1.660000e-06	-8.743669e-07	-5.843143e-10	-6.063050e+00	-4.270645e+01
1.670000e-06	-8.279700e-07	-5.705314e-10	-5.741324e+00	-4.211138e+01
1.680000e-06	-7.814632e-07	-5.603770e-10	-5.418836e+00	-4.149518e+01
1.690000e-06	-7.349085e-07	-5.520712e-10	-5.096015e+00	-4.085668e+01
1.700000e-06	-6.883949e-07	-5.434591e-10	-4.773479e+00	-4.019470e+01
1.710000e-06	-6.418401e-07	-5.341032e-10	-4.450659e+00	-3.950806e+01
1.720000e-06	-5.952341e-07	-5.262232e-10	-4.127482e+00	-3.879562e+01
1.730000e-06	-5.485296e-07	-5.161688e-10	-3.803623e+00	-3.805625e+01
1.740000e-06	-5.017186e-07	-5.014397e-10	-3.479025e+00	-3.728886e+01
1.750000e-06	-4.549268e-07	-4.844313e-10	-3.154562e+00	-3.649242e+01
1.760000e-06	-4.081400e-07	-4.671461e-10	-2.830131e+00	-3.566594e+01
1.770000e-06	-3.613487e-07	-4.539639e-10	-2.505671e+00	-3.480850e+01
1.780000e-06	-3.145514e-07	-4.441213e-10	-2.181168e+00	-3.391928e+01
1.790000e-06	-2.676904e-07	-4.341408e-10	-1.856224e+00	-3.299751e+01
1.800000e-06	-2.207584e-07	-4.238959e-10	-1.530786e+00	-3.204253e+01
1.810000e-06	-1.738885e-07	-4.115502e-10	-1.205781e+00	-3.105379e+01
1.820000e-06	-1.269912e-07	-3.963701e-10	-8.805849e-01	-3.003085e+01
1.830000e-06	-7.996231e-08	-3.781858e-10	-5.544760e-01	-2.897336e+01
1.840000e-06	-3.298317e-08	-3.604673e-10	-2.287125e-01	-2.788114e+01
1.850000e-06	1.396419e-08	-3.455952e-10	9.683074e-02	-2.675410e+01
1.860000e-06	6.094280e-08	-3.303411e-10	4.225906e-01	-2.559230e+01
1.870000e-06	1.079318e-07	-3.149344e-10	7.484224e-01	-2.439594e+01
1.880000e-06	1.548587e-07	-2.992611e-10	1.073824e+00	-2.316537e+01
1.890000e-06	2.017709e-07	-2.846303e-10	1.399123e+00	-2.190105e+01
1.900000e-06	2.487335e-07	-2.692950e-10	1.724772e+00	-2.060363e+01
1.910000e-06	2.956209e-07	-2.503988e-10	2.049900e+00	-1.927387e+01
1.920000e-06	3.424593e-07	-2.293312e-10	2.374687e+00	-1.791269e+01
1.930000e-06	3.892823e-07	-2.098255e-10	2.699368e+00	-1.652114e+01
1.940000e-06	4.360385e-07	-1.907972e-10	3.023586e+00	-1.510042e+01
1.950000e-06	4.827177e-07	-1.703174e-10	3.347269e+00	-1.365185e+01
1.960000e-06	5.293086e-07	-1.502244e-10	3.670341e+00	-1.217688e+01
1.970000e-06	5.759328e-07	-1.333006e-10	3.993643e+00	-1.067709e+01
1.980000e-06	6.226132e-07	-1.149183e-10	4.317335e+00	-9.154177e+00
1.990000e-06	6.692635e-07	-9.334625e-11	4.640819e+00	-7.609928e+00
2.000000e-06	7.158152e-07	-6.902374e-11	4.963618e+00	-6.046242e+00
2.010000e-06	7.622749e-07	-4.394516e-11	5.285780e+00	-4.465098e+00
2.020000e-06	8.087375e-07	-1.973702e-11	5.607961e+00	-2.868559e+00
2.030000e-06	8.551967e-07	1.946771e-12	5.930119e+00	-1.258749e+00
2.040000e-06	9.015847e-07	2.065637e-11	6.251784e+00	3.621481e-01
2.050000e-06	9.478002e-07	3.885052e-11	6.572253e+00	1.991906e+00
2.060000e-06	9.938697e-07	6.024725e-11	6.891708e+00	3.628266e+00
2.070000e-06	1.039922e-06	8.448513e-11	7.211046e+00	5.268951e+00
2.080000e-06	1.085924e-06	1.084057e-10	7.530036e+00	6.911673e+00
2.090000e-06	1.131897e-06	1.341733e-10	7.848822e+00	8.554151e+00
2.100000e-06	1.177850e-06	1.588209e-10	8.167467e+00	1.019412e+01
2.110000e-06	1.223686e-06	1.800753e-10	8.485304e+00	1.182934e+01
2.120000e-06	1.269434e-06	1.991987e-10	8.802529e+00	1.345762e+01
2.130000e-06	1.315109e-06	2.169782e-10	9.119248e+00	1.507680e+01
2.140000e-06	1.360672e-06	2.346826e-10	9.435193e+00	1.668481e+01
2.150000e-06	1.406089e-06	2.545690e-10	9.750128e+00	1.827963e+01
2.160000e-06	1.451345e-06	2.787568e-10	1.006394e+01	1.985933e+01
2.170000e-06	1.496489e-06	3.028401e-10	1.037698e+01	2.142206e+01
2.180000e-06	1.541595e-06	3.246220e-10	1.068975e+01	2.296607e+01
2.190000e-06	1.586600e-06	3.445241e-10	1.100183e+01	2.448973e+01
2.200000e-06	1.631467e-06	3.634359e-10	1.131295e+01	2.599150e+01
2.210000e-06	1.676237e-06	3.813896e-10	1.162339e+01	2.746997e+01
2.220000e-06	1.720865e-06	3.965860e-10	1.193285e+01	2.892383e+01
2.230000e-06	1.765357e-06	4.115104e-10	1.224137e+01	3.035191e+01
2.240000e-06	1.809747e-06	4.295514e-10	1.254918e+01	3.175316e+01
2.250000e-06	1.854007e-06	4.495947e-10	1.285609e+01	3.312666e+01
2.260000e-06	1.898164e-06	4.702507e-10	1.316228e+01	3.447161e+01
2.270000e-06	1.942239e-06	4.926228e-10	1.346791e+01	3.578732e+01
2.280000e-06	1.986207e-06	5.142448e-10	1.377279e+01	3.707327e+01
2.290000e-06	2.030112e-06	5.336891e-10	1.407724e+01	3.832901e+01
2.300000e-06	2.073967e-06	5.508431e-10	1.438134e+01	3.955424e+01
2.310000e-06	2.117747e-06	5.658122e-10	1.468492e+01	4.074876e+01
2.320000e-06	2.161451e-06	5.799069e-10	1.498797e+01	4.191248e+01
2.330000e-06	2.205024e-06	5.945300e-10	1.529012e+01	4.304543e+01
2.340000e-06	2.248452e-06	6.108932e-10	1.559125e+01	4.414771e+01
2.350000e-06	2.291696e-06	6.277618e-10	1.589112e+01	4.521952e+01
2.360000e-06	2.334719e-06	6.442295e-10	1.618945e+01	4.626117e+01
2.370000e-06	2.377452e-06	6.605133e-10	1.648577e+01	4.727300e+01
2.380000e-06	2.419881e-06	6.743239e-10	1.677998e+01	4.825545e+01
2.390000e-06	2.462002e-06	6.865798e-10	1.707205e+01	4.920903e+01
2.400000e-06	2.503817e-06	6.973831e-10	1.736201e+01	5.013426e+01
2.410000e-06	2.545499e-06	7.085033e-10	1.765104e+01	5.103175e+01
2.420000e-06	2.587029e-06	7.218724e-10	1.793902e+01	5.190212e+01
2.430000e-06	2.628228e-06	7.364012e-10	1.822470e+01	5.274603e+01
2.440000e-06	2.669060e-06	7.498861e-10	1.850784e+01	5.356416e+01
2.450000e-06	2.709607e-06	7.610417e-10	1.878900e+01	5.435720e+01
2.460000e-06	2.749987e-06	7.716725e-10	1.906901e+01	5.512586e+01
2.470000e-06	2.790206e-06	7.825163e-10	1.934790e+01	5.587084e+01
2.480000e-06	2.830283e-06	7.931426e-10	1.962580e+01	5.659284e+01
2.490000e-06	2.870237e-06	8.052876e-10	1.990285e+01	5.729254e+01
2.500000e-06	2.909991e-06	8.165117e-10	2.017851e+01	5.797062e+01
2.510000e-06	2.949618e-06	8.246746e-10	2.045329e+01	5.862774e+01
2.520000e-06	2.989084e-06	8.336633e-10	2.072696e+01	5.926453e+01
2.530000e-06	3.028323e-06	8.431343e-10	2.099905e+01	5.988159e+01
2.540000e-06	3.067376e-06	8.518752e-10	2.126985e+01	6.047951e+01
2.550000e-06	3.106258e-06	8.574233e-10	2.153947e+01	6.105884e+01
2.560000e-06	3.144967e-06	8.621341e-10	2.180788e+01	6.162008e+01
2.570000e-06	3.183457e-06	8.677756e-10	2.207478e+01	6.216373e+01
2.580000e-06	3.221716e-06	8.750809e-10	2.234008e+01	6.269024e+01
2.590000e-06	3.259737e-06	8.839834e-10	2.260372e+01	6.320004e+01
2.600000e-06	3.297467e-06	8.909819e-10	2.286535e+01	6.369352e+01
2.610000e-06	3.334950e-06	8.965761e-10	2.312527e+01	6.417104e+01
2.620000e-06	3.372245e-06	8.987792e-10	2.338388e+01	6.463294e+01
2.630000e-06	3.409326e-06	9.015857e-10	2.364100e+01	6.507954e+01
2.640000e-06	3.446170e-06	9.048608e-10	2.389649e+01	6.551113e+01
2.650000e-06	3.482794e-06	9.103684e-10	2.415045e+01	6.592799e+01
2.660000e-06	3.519210e-06	9.183251e-10	2.440297e+01	6.633037e+01
2.670000e-06	3.555380e-06	9.232361e-10	2.465378e+01	6.671853e+01
2.680000e-06	3.591332e-06	9.266865e-10	2.490308e+01	6.709270e+01
2.690000e-06	3.627151e-06	9.308907e-10	2.515145e+01	6.745313e+01
2.700000e-06	3.662844e-06	9.345018e-10	2.539895e+01	6.780004e+01
2.710000e-06	3.698387e-06	9.379535e-10	2.564542e+01	6.813367e+01
2.720000e-06	3.733698e-06	9.424635e-10	2.589027e+01	6.845427e+01
2.730000e-06	3.768679e-06	9.504408e-10	2.613284e+01	6.876207e+01
2.740000e-06	3.803310e-06	9.575705e-10	2.637298e+01	6.905733e+01
2.750000e-06	3.837545e-06	9.631670e-10	2.661037e+01	6.934034e+01
2.760000e-06	3.871369e-06	9.694977e-10	2.684491e+01	6.961137e+01
2.770000e-06	3.904790e-06	9.724625e-10	2.707666e+01	6.987073e+01
2.780000e-06	3.937698e-06	9.737995e-10	2.730485e+01	7.011873e+01
2.790000e-06	3.970132e-06	9.776917e-10	2.752976e+01	7.035573e+01
2.800000e-06	4.002303e-06	9.857177e-10	2.775284e+01	7.058208e+01
2.810000e-06	4.034282e-06	9.935707e-10	2.797459e+01	7.079815e+01
2.820000e-06	4.066048e-06	9.982207e-10	2.819486e+01	7.100434e+01
2.830000e-06	4.097612e-06	1.001056e-09	2.841373e+01	7.120108e+01
2.840000e-06	4.128987e-06	1.003410e-09	2.863129e+01	7.138878e+01
2.850000e-06	4.160141e-06	1.004632e-09	2.884732e+01	7.156791e+01
2.860000e-06	4.190991e-06	1.006319e-09	2.906124e+01	7.173892e+01
2.870000e-06	4.221530e-06	1.009817e-09	2.927301e+01	7.190228e+01
2.880000e-06	4.251816e-06	1.016550e-09	2.948301e+01	7.205847e+01
2.890000e-06	4.281801e-06	1.025765e-09	2.969094e+01	7.220798e+01
2.900000e-06	4.311451e-06	1.035541e-09	2.989654e+01	7.235129e+01
