# Temperatura_=_12.0
# Concentracion g/m^3_=_1620.0
# C_Vs_to_Am_M_A/Vsm_=_65563218390.804596
# pendiente_HvsI_1/m_=_3716.3
# ordenada_HvsI_A/m_=_1297.0
# frecuencia_Hz_=_135100.7204001033

Tiempo_(s)	Campo_(V.s)	Magnetizacion_(V.s)	Campo_(kA/m)	Magnetizacion_(A/m)
0.000000e+00	-5.549656e-06	-1.433658e-09	-3.836993e+01	-9.606137e+01
1.000000e-08	-5.549827e-06	-1.434410e-09	-3.837111e+01	-9.606817e+01
2.000000e-08	-5.549818e-06	-1.435302e-09	-3.837106e+01	-9.607674e+01
3.000000e-08	-5.549517e-06	-1.436491e-09	-3.836897e+01	-9.608684e+01
4.000000e-08	-5.548762e-06	-1.435146e-09	-3.836375e+01	-9.609818e+01
5.000000e-08	-5.547438e-06	-1.430426e-09	-3.835460e+01	-9.611045e+01
6.000000e-08	-5.545488e-06	-1.425655e-09	-3.834112e+01	-9.612331e+01
7.000000e-08	-5.542902e-06	-1.428790e-09	-3.832324e+01	-9.613637e+01
8.000000e-08	-5.539754e-06	-1.431656e-09	-3.830147e+01	-9.614924e+01
9.000000e-08	-5.536181e-06	-1.413485e-09	-3.827677e+01	-9.616152e+01
1.000000e-07	-5.532215e-06	-1.406998e-09	-3.824935e+01	-9.617276e+01
1.100000e-07	-5.527915e-06	-1.445250e-09	-3.821962e+01	-9.618251e+01
1.200000e-07	-5.523348e-06	-1.455945e-09	-3.818804e+01	-9.619034e+01
1.300000e-07	-5.518536e-06	-1.411036e-09	-3.815477e+01	-9.619579e+01
1.400000e-07	-5.513420e-06	-1.372988e-09	-3.811940e+01	-9.619839e+01
1.500000e-07	-5.507913e-06	-1.419822e-09	-3.808132e+01	-9.619770e+01
1.600000e-07	-5.502025e-06	-1.456582e-09	-3.804062e+01	-9.619328e+01
1.700000e-07	-5.495724e-06	-1.419969e-09	-3.799705e+01	-9.618469e+01
1.800000e-07	-5.488948e-06	-1.382605e-09	-3.795020e+01	-9.617152e+01
1.900000e-07	-5.481786e-06	-1.438289e-09	-3.790069e+01	-9.615338e+01
2.000000e-07	-5.474256e-06	-1.482226e-09	-3.784862e+01	-9.612988e+01
2.100000e-07	-5.466421e-06	-1.444355e-09	-3.779445e+01	-9.610069e+01
2.200000e-07	-5.458440e-06	-1.395013e-09	-3.773927e+01	-9.606547e+01
2.300000e-07	-5.450209e-06	-1.414141e-09	-3.768236e+01	-9.602395e+01
2.400000e-07	-5.441621e-06	-1.447644e-09	-3.762299e+01	-9.597586e+01
2.500000e-07	-5.432557e-06	-1.441369e-09	-3.756032e+01	-9.592099e+01
2.600000e-07	-5.422705e-06	-1.422504e-09	-3.749220e+01	-9.585914e+01
2.700000e-07	-5.411975e-06	-1.414963e-09	-3.741802e+01	-9.579017e+01
2.800000e-07	-5.400662e-06	-1.420247e-09	-3.733980e+01	-9.571396e+01
2.900000e-07	-5.389019e-06	-1.410133e-09	-3.725930e+01	-9.563045e+01
3.000000e-07	-5.377084e-06	-1.403386e-09	-3.717678e+01	-9.553959e+01
3.100000e-07	-5.364826e-06	-1.408987e-09	-3.709203e+01	-9.544139e+01
3.200000e-07	-5.352189e-06	-1.444460e-09	-3.700466e+01	-9.533588e+01
3.300000e-07	-5.339114e-06	-1.450655e-09	-3.691427e+01	-9.522315e+01
3.400000e-07	-5.325591e-06	-1.431085e-09	-3.682076e+01	-9.510329e+01
3.500000e-07	-5.311645e-06	-1.418544e-09	-3.672435e+01	-9.497646e+01
3.600000e-07	-5.297297e-06	-1.438328e-09	-3.662514e+01	-9.484282e+01
3.700000e-07	-5.282591e-06	-1.411152e-09	-3.652347e+01	-9.470257e+01
3.800000e-07	-5.267489e-06	-1.386090e-09	-3.641905e+01	-9.455594e+01
3.900000e-07	-5.251769e-06	-1.406756e-09	-3.631037e+01	-9.440318e+01
4.000000e-07	-5.235500e-06	-1.422036e-09	-3.619788e+01	-9.424456e+01
4.100000e-07	-5.218803e-06	-1.386652e-09	-3.608244e+01	-9.408036e+01
4.200000e-07	-5.201730e-06	-1.399748e-09	-3.596440e+01	-9.391090e+01
4.300000e-07	-5.184392e-06	-1.431254e-09	-3.584452e+01	-9.373647e+01
4.400000e-07	-5.166789e-06	-1.385446e-09	-3.572282e+01	-9.355741e+01
4.500000e-07	-5.148804e-06	-1.353079e-09	-3.559847e+01	-9.337404e+01
4.600000e-07	-5.130377e-06	-1.401122e-09	-3.547107e+01	-9.318669e+01
4.700000e-07	-5.111591e-06	-1.395592e-09	-3.534118e+01	-9.299568e+01
4.800000e-07	-5.092423e-06	-1.340313e-09	-3.520866e+01	-9.280134e+01
4.900000e-07	-5.072919e-06	-1.373010e-09	-3.507381e+01	-9.260398e+01
5.000000e-07	-5.053164e-06	-1.402375e-09	-3.493723e+01	-9.240391e+01
5.100000e-07	-5.033192e-06	-1.351333e-09	-3.479914e+01	-9.220142e+01
5.200000e-07	-5.012956e-06	-1.350282e-09	-3.465923e+01	-9.199679e+01
5.300000e-07	-4.992379e-06	-1.399066e-09	-3.451696e+01	-9.179028e+01
5.400000e-07	-4.971464e-06	-1.357994e-09	-3.437236e+01	-9.158213e+01
5.500000e-07	-4.950168e-06	-1.324809e-09	-3.422512e+01	-9.137257e+01
5.600000e-07	-4.928524e-06	-1.370035e-09	-3.407547e+01	-9.116179e+01
5.700000e-07	-4.906565e-06	-1.362784e-09	-3.392365e+01	-9.094996e+01
5.800000e-07	-4.884291e-06	-1.308051e-09	-3.376965e+01	-9.073725e+01
5.900000e-07	-4.861662e-06	-1.338993e-09	-3.361319e+01	-9.052378e+01
6.000000e-07	-4.838643e-06	-1.361443e-09	-3.345404e+01	-9.030965e+01
6.100000e-07	-4.815277e-06	-1.318201e-09	-3.329249e+01	-9.009493e+01
6.200000e-07	-4.791631e-06	-1.318089e-09	-3.312901e+01	-8.987967e+01
6.300000e-07	-4.767798e-06	-1.352084e-09	-3.296422e+01	-8.966391e+01
6.400000e-07	-4.743717e-06	-1.325141e-09	-3.279773e+01	-8.944763e+01
6.500000e-07	-4.719300e-06	-1.309262e-09	-3.262891e+01	-8.923082e+01
6.600000e-07	-4.694465e-06	-1.330698e-09	-3.245720e+01	-8.901342e+01
6.700000e-07	-4.669163e-06	-1.316528e-09	-3.228227e+01	-8.879537e+01
6.800000e-07	-4.643275e-06	-1.290828e-09	-3.210328e+01	-8.857658e+01
6.900000e-07	-4.616821e-06	-1.311880e-09	-3.192038e+01	-8.835694e+01
7.000000e-07	-4.589872e-06	-1.318011e-09	-3.173405e+01	-8.813632e+01
7.100000e-07	-4.562519e-06	-1.296474e-09	-3.154494e+01	-8.791458e+01
7.200000e-07	-4.534935e-06	-1.298018e-09	-3.135423e+01	-8.769156e+01
7.300000e-07	-4.507183e-06	-1.303937e-09	-3.116235e+01	-8.746709e+01
7.400000e-07	-4.479263e-06	-1.285933e-09	-3.096931e+01	-8.724100e+01
7.500000e-07	-4.451096e-06	-1.280976e-09	-3.077457e+01	-8.701308e+01
7.600000e-07	-4.422686e-06	-1.289813e-09	-3.057814e+01	-8.678316e+01
7.700000e-07	-4.393938e-06	-1.280487e-09	-3.037938e+01	-8.655102e+01
7.800000e-07	-4.364824e-06	-1.270059e-09	-3.017809e+01	-8.631646e+01
7.900000e-07	-4.335391e-06	-1.271097e-09	-2.997459e+01	-8.607928e+01
8.000000e-07	-4.305635e-06	-1.263784e-09	-2.976886e+01	-8.583926e+01
8.100000e-07	-4.275655e-06	-1.250670e-09	-2.956158e+01	-8.559620e+01
8.200000e-07	-4.245428e-06	-1.251219e-09	-2.935260e+01	-8.534991e+01
8.300000e-07	-4.214885e-06	-1.247514e-09	-2.914142e+01	-8.510018e+01
8.400000e-07	-4.184025e-06	-1.235668e-09	-2.892806e+01	-8.484683e+01
8.500000e-07	-4.152847e-06	-1.232551e-09	-2.871249e+01	-8.458966e+01
8.600000e-07	-4.121429e-06	-1.234617e-09	-2.849527e+01	-8.432850e+01
8.700000e-07	-4.089863e-06	-1.222164e-09	-2.827703e+01	-8.406319e+01
8.800000e-07	-4.058122e-06	-1.213655e-09	-2.805757e+01	-8.379356e+01
8.900000e-07	-4.026205e-06	-1.212620e-09	-2.783690e+01	-8.351947e+01
9.000000e-07	-3.994066e-06	-1.205439e-09	-2.761470e+01	-8.324078e+01
9.100000e-07	-3.961652e-06	-1.198404e-09	-2.739059e+01	-8.295737e+01
9.200000e-07	-3.928914e-06	-1.202116e-09	-2.716424e+01	-8.266911e+01
9.300000e-07	-3.895677e-06	-1.195967e-09	-2.693444e+01	-8.237592e+01
9.400000e-07	-3.861893e-06	-1.183987e-09	-2.670086e+01	-8.207768e+01
9.500000e-07	-3.827693e-06	-1.180208e-09	-2.646440e+01	-8.177434e+01
9.600000e-07	-3.793156e-06	-1.175802e-09	-2.622562e+01	-8.146582e+01
9.700000e-07	-3.758251e-06	-1.159229e-09	-2.598428e+01	-8.115206e+01
9.800000e-07	-3.722997e-06	-1.148452e-09	-2.574054e+01	-8.083303e+01
9.900000e-07	-3.687490e-06	-1.145372e-09	-2.549505e+01	-8.050869e+01
1.000000e-06	-3.651782e-06	-1.137170e-09	-2.524816e+01	-8.017902e+01
1.010000e-06	-3.615900e-06	-1.129795e-09	-2.500008e+01	-7.984400e+01
1.020000e-06	-3.579914e-06	-1.131252e-09	-2.475127e+01	-7.950365e+01
1.030000e-06	-3.543824e-06	-1.128813e-09	-2.450176e+01	-7.915796e+01
1.040000e-06	-3.507534e-06	-1.121107e-09	-2.425085e+01	-7.880696e+01
1.050000e-06	-3.470995e-06	-1.118203e-09	-2.399822e+01	-7.845067e+01
1.060000e-06	-3.434142e-06	-1.113255e-09	-2.374342e+01	-7.808914e+01
1.070000e-06	-3.396948e-06	-1.103016e-09	-2.348626e+01	-7.772240e+01
1.080000e-06	-3.359469e-06	-1.097819e-09	-2.322713e+01	-7.735051e+01
1.090000e-06	-3.321748e-06	-1.096854e-09	-2.296633e+01	-7.697353e+01
1.100000e-06	-3.283847e-06	-1.088501e-09	-2.270429e+01	-7.659152e+01
1.110000e-06	-3.245781e-06	-1.080113e-09	-2.244110e+01	-7.620456e+01
1.120000e-06	-3.207454e-06	-1.077489e-09	-2.217611e+01	-7.581273e+01
1.130000e-06	-3.168903e-06	-1.072104e-09	-2.190958e+01	-7.541610e+01
1.140000e-06	-3.130128e-06	-1.061871e-09	-2.164149e+01	-7.501476e+01
1.150000e-06	-3.091050e-06	-1.055280e-09	-2.137130e+01	-7.460881e+01
1.160000e-06	-3.051829e-06	-1.048392e-09	-2.110013e+01	-7.419833e+01
1.170000e-06	-3.012488e-06	-1.038530e-09	-2.082813e+01	-7.378343e+01
1.180000e-06	-2.972944e-06	-1.030156e-09	-2.055473e+01	-7.336420e+01
1.190000e-06	-2.933253e-06	-1.024633e-09	-2.028031e+01	-7.294074e+01
1.200000e-06	-2.893464e-06	-1.016172e-09	-2.000521e+01	-7.251315e+01
1.210000e-06	-2.853573e-06	-1.008544e-09	-1.972941e+01	-7.208153e+01
1.220000e-06	-2.813571e-06	-1.004411e-09	-1.945283e+01	-7.164596e+01
1.230000e-06	-2.773406e-06	-1.002893e-09	-1.917514e+01	-7.120655e+01
1.240000e-06	-2.733017e-06	-1.000242e-09	-1.889589e+01	-7.076337e+01
1.250000e-06	-2.692402e-06	-9.970326e-10	-1.861508e+01	-7.031650e+01
1.260000e-06	-2.651556e-06	-9.917719e-10	-1.833267e+01	-6.986603e+01
1.270000e-06	-2.610378e-06	-9.822920e-10	-1.804798e+01	-6.941200e+01
1.280000e-06	-2.568840e-06	-9.701787e-10	-1.776078e+01	-6.895448e+01
1.290000e-06	-2.527029e-06	-9.621642e-10	-1.747170e+01	-6.849350e+01
1.300000e-06	-2.484912e-06	-9.551458e-10	-1.718051e+01	-6.802908e+01
1.310000e-06	-2.442458e-06	-9.478390e-10	-1.688698e+01	-6.756122e+01
1.320000e-06	-2.399692e-06	-9.458035e-10	-1.659130e+01	-6.708993e+01
1.330000e-06	-2.356642e-06	-9.444876e-10	-1.629366e+01	-6.661516e+01
1.340000e-06	-2.313349e-06	-9.389643e-10	-1.599433e+01	-6.613687e+01
1.350000e-06	-2.269949e-06	-9.311489e-10	-1.569427e+01	-6.565495e+01
1.360000e-06	-2.226456e-06	-9.231022e-10	-1.539356e+01	-6.516932e+01
1.370000e-06	-2.182776e-06	-9.145739e-10	-1.509156e+01	-6.467982e+01
1.380000e-06	-2.138945e-06	-9.064955e-10	-1.478851e+01	-6.418629e+01
1.390000e-06	-2.095042e-06	-8.999414e-10	-1.448498e+01	-6.368852e+01
1.400000e-06	-2.051149e-06	-8.952562e-10	-1.418150e+01	-6.318626e+01
1.410000e-06	-2.007274e-06	-8.892139e-10	-1.387815e+01	-6.267925e+01
1.420000e-06	-1.963313e-06	-8.818814e-10	-1.357421e+01	-6.216715e+01
1.430000e-06	-1.919199e-06	-8.741047e-10	-1.326921e+01	-6.164961e+01
1.440000e-06	-1.875000e-06	-8.653904e-10	-1.296362e+01	-6.112622e+01
1.450000e-06	-1.830638e-06	-8.559218e-10	-1.265690e+01	-6.059652e+01
1.460000e-06	-1.786157e-06	-8.458498e-10	-1.234936e+01	-6.006003e+01
1.470000e-06	-1.741533e-06	-8.328407e-10	-1.204084e+01	-5.951621e+01
1.480000e-06	-1.696627e-06	-8.202694e-10	-1.173036e+01	-5.896446e+01
1.490000e-06	-1.651562e-06	-8.088328e-10	-1.141878e+01	-5.840414e+01
1.500000e-06	-1.606403e-06	-7.971928e-10	-1.110656e+01	-5.783459e+01
1.510000e-06	-1.561083e-06	-7.869255e-10	-1.079322e+01	-5.725506e+01
1.520000e-06	-1.515685e-06	-7.785784e-10	-1.047934e+01	-5.666479e+01
1.530000e-06	-1.470255e-06	-7.723182e-10	-1.016524e+01	-5.606296e+01
1.540000e-06	-1.424762e-06	-7.635391e-10	-9.850702e+00	-5.544871e+01
1.550000e-06	-1.379203e-06	-7.504284e-10	-9.535714e+00	-5.482115e+01
1.560000e-06	-1.333512e-06	-7.353335e-10	-9.219807e+00	-5.417933e+01
1.570000e-06	-1.287689e-06	-7.215047e-10	-8.902991e+00	-5.352230e+01
1.580000e-06	-1.241785e-06	-7.104202e-10	-8.585615e+00	-5.284905e+01
1.590000e-06	-1.195818e-06	-7.012723e-10	-8.267803e+00	-5.215856e+01
1.600000e-06	-1.149771e-06	-6.949512e-10	-7.949440e+00	-5.144979e+01
1.610000e-06	-1.103680e-06	-6.856192e-10	-7.630768e+00	-5.072167e+01
1.620000e-06	-1.057500e-06	-6.727801e-10	-7.311480e+00	-4.997314e+01
1.630000e-06	-1.011228e-06	-6.604116e-10	-6.991563e+00	-4.920310e+01
1.640000e-06	-9.648524e-07	-6.493173e-10	-6.670922e+00	-4.841049e+01
1.650000e-06	-9.182985e-07	-6.375602e-10	-6.349052e+00	-4.759423e+01
1.660000e-06	-8.716982e-07	-6.249063e-10	-6.026861e+00	-4.675326e+01
1.670000e-06	-8.251293e-07	-6.105680e-10	-5.704886e+00	-4.588653e+01
1.680000e-06	-7.785634e-07	-5.936269e-10	-5.382933e+00	-4.499305e+01
1.690000e-06	-7.318723e-07	-5.748451e-10	-5.060114e+00	-4.407183e+01
1.700000e-06	-6.850235e-07	-5.580591e-10	-4.736205e+00	-4.312192e+01
1.710000e-06	-6.381693e-07	-5.448146e-10	-4.412258e+00	-4.214244e+01
1.720000e-06	-5.913717e-07	-5.330544e-10	-4.088703e+00	-4.113256e+01
1.730000e-06	-5.444857e-07	-5.228590e-10	-3.764536e+00	-4.009149e+01
1.740000e-06	-4.975451e-07	-5.069887e-10	-3.439992e+00	-3.901854e+01
1.750000e-06	-4.507243e-07	-4.867554e-10	-3.116276e+00	-3.791308e+01
1.760000e-06	-4.038213e-07	-4.640584e-10	-2.791992e+00	-3.677456e+01
1.770000e-06	-3.567666e-07	-4.420750e-10	-2.466660e+00	-3.560253e+01
1.780000e-06	-3.096690e-07	-4.246897e-10	-2.141030e+00	-3.439662e+01
1.790000e-06	-2.625569e-07	-4.104757e-10	-1.815300e+00	-3.315657e+01
1.800000e-06	-2.154122e-07	-3.962448e-10	-1.489345e+00	-3.188223e+01
1.810000e-06	-1.682369e-07	-3.804321e-10	-1.163179e+00	-3.057355e+01
1.820000e-06	-1.210666e-07	-3.617913e-10	-8.370458e-01	-2.923060e+01
1.830000e-06	-7.394640e-08	-3.419236e-10	-5.112603e-01	-2.785355e+01
1.840000e-06	-2.689176e-08	-3.214511e-10	-1.859278e-01	-2.644272e+01
1.850000e-06	2.020687e-08	-3.013214e-10	1.397089e-01	-2.499853e+01
1.860000e-06	6.736956e-08	-2.827140e-10	4.657884e-01	-2.352153e+01
1.870000e-06	1.144366e-07	-2.631015e-10	7.912065e-01	-2.201238e+01
1.880000e-06	1.614087e-07	-2.421510e-10	1.115968e+00	-2.047189e+01
1.890000e-06	2.084014e-07	-2.214380e-10	1.440873e+00	-1.890097e+01
1.900000e-06	2.553857e-07	-2.010476e-10	1.765719e+00	-1.730065e+01
1.910000e-06	3.023565e-07	-1.787112e-10	2.090472e+00	-1.567209e+01
1.920000e-06	3.494104e-07	-1.566202e-10	2.415799e+00	-1.401657e+01
1.930000e-06	3.964541e-07	-1.347973e-10	2.741056e+00	-1.233545e+01
1.940000e-06	4.433823e-07	-1.122023e-10	3.065514e+00	-1.063024e+01
1.950000e-06	4.903496e-07	-8.867040e-11	3.390243e+00	-8.902522e+00
1.960000e-06	5.372984e-07	-6.639785e-11	3.714844e+00	-7.153972e+00
1.970000e-06	5.841289e-07	-4.641646e-11	4.038627e+00	-5.386365e+00
1.980000e-06	6.308758e-07	-2.513010e-11	4.361831e+00	-3.601553e+00
1.990000e-06	6.776042e-07	-1.054996e-12	4.684908e+00	-1.801460e+00
2.000000e-06	7.243090e-07	2.650798e-11	5.007822e+00	1.192516e-02
2.010000e-06	7.709488e-07	5.729485e-11	5.330286e+00	1.836557e+00
2.020000e-06	8.174960e-07	8.649265e-11	5.652110e+00	3.670344e+00
2.030000e-06	8.639552e-07	1.120313e-10	5.973326e+00	5.511158e+00
2.040000e-06	9.103713e-07	1.350865e-10	6.294244e+00	7.356842e+00
2.050000e-06	9.567564e-07	1.580539e-10	6.614947e+00	9.205221e+00
2.060000e-06	1.003070e-06	1.823882e-10	6.935153e+00	1.105411e+01
2.070000e-06	1.049313e-06	2.084790e-10	7.254874e+00	1.290134e+01
2.080000e-06	1.095540e-06	2.371644e-10	7.574485e+00	1.474473e+01
2.090000e-06	1.141643e-06	2.683451e-10	7.893241e+00	1.658214e+01
2.100000e-06	1.187566e-06	2.971846e-10	8.210750e+00	1.841146e+01
2.110000e-06	1.233404e-06	3.211435e-10	8.527667e+00	2.023061e+01
2.120000e-06	1.279170e-06	3.425039e-10	8.844092e+00	2.203756e+01
2.130000e-06	1.324843e-06	3.624446e-10	9.159870e+00	2.383036e+01
2.140000e-06	1.370500e-06	3.816588e-10	9.475544e+00	2.560710e+01
2.150000e-06	1.416056e-06	4.032028e-10	9.790513e+00	2.736595e+01
2.160000e-06	1.461417e-06	4.289946e-10	1.010414e+01	2.910518e+01
2.170000e-06	1.506731e-06	4.558873e-10	1.041744e+01	3.082313e+01
2.180000e-06	1.552009e-06	4.804496e-10	1.073048e+01	3.251824e+01
2.190000e-06	1.597148e-06	5.033248e-10	1.104257e+01	3.418905e+01
2.200000e-06	1.642197e-06	5.253663e-10	1.135404e+01	3.583420e+01
2.210000e-06	1.687106e-06	5.461647e-10	1.166453e+01	3.745243e+01
2.220000e-06	1.731809e-06	5.646919e-10	1.197361e+01	3.904261e+01
2.230000e-06	1.776375e-06	5.837765e-10	1.228173e+01	4.060370e+01
2.240000e-06	1.820834e-06	6.033542e-10	1.258912e+01	4.213481e+01
2.250000e-06	1.865145e-06	6.208329e-10	1.289548e+01	4.363512e+01
2.260000e-06	1.909345e-06	6.395461e-10	1.320108e+01	4.510396e+01
2.270000e-06	1.953414e-06	6.618530e-10	1.350577e+01	4.654075e+01
2.280000e-06	1.997380e-06	6.838051e-10	1.380975e+01	4.794503e+01
2.290000e-06	2.041346e-06	7.037224e-10	1.411373e+01	4.931648e+01
2.300000e-06	2.085240e-06	7.227659e-10	1.441720e+01	5.065483e+01
2.310000e-06	2.129046e-06	7.386311e-10	1.472008e+01	5.195997e+01
2.320000e-06	2.172808e-06	7.530106e-10	1.502264e+01	5.323186e+01
2.330000e-06	2.216495e-06	7.683996e-10	1.532469e+01	5.447057e+01
2.340000e-06	2.260068e-06	7.842973e-10	1.562595e+01	5.567625e+01
2.350000e-06	2.303451e-06	8.005467e-10	1.592590e+01	5.684913e+01
2.360000e-06	2.346657e-06	8.179722e-10	1.622462e+01	5.798955e+01
2.370000e-06	2.389689e-06	8.337094e-10	1.652215e+01	5.909790e+01
2.380000e-06	2.432477e-06	8.494055e-10	1.681798e+01	6.017464e+01
2.390000e-06	2.474995e-06	8.652970e-10	1.711195e+01	6.122030e+01
2.400000e-06	2.517284e-06	8.817440e-10	1.740432e+01	6.223546e+01
2.410000e-06	2.559239e-06	8.977176e-10	1.769440e+01	6.322075e+01
2.420000e-06	2.600753e-06	9.103385e-10	1.798142e+01	6.417684e+01
2.430000e-06	2.641964e-06	9.225295e-10	1.826635e+01	6.510443e+01
2.440000e-06	2.682981e-06	9.317613e-10	1.854994e+01	6.600427e+01
2.450000e-06	2.723706e-06	9.404931e-10	1.883152e+01	6.687711e+01
2.460000e-06	2.764158e-06	9.512049e-10	1.911119e+01	6.772372e+01
2.470000e-06	2.804470e-06	9.666768e-10	1.938991e+01	6.854489e+01
2.480000e-06	2.844611e-06	9.824647e-10	1.966744e+01	6.934142e+01
2.490000e-06	2.884634e-06	9.950496e-10	1.994416e+01	7.011410e+01
2.500000e-06	2.924529e-06	1.004538e-09	2.021999e+01	7.086371e+01
2.510000e-06	2.964200e-06	1.010426e-09	2.049427e+01	7.159103e+01
2.520000e-06	3.003649e-06	1.014529e-09	2.076702e+01	7.229683e+01
2.530000e-06	3.042952e-06	1.020668e-09	2.103876e+01	7.298187e+01
2.540000e-06	3.082074e-06	1.031634e-09	2.130925e+01	7.364687e+01
2.550000e-06	3.120990e-06	1.044354e-09	2.157831e+01	7.429255e+01
2.560000e-06	3.159754e-06	1.055138e-09	2.184632e+01	7.491959e+01
2.570000e-06	3.198221e-06	1.062448e-09	2.211227e+01	7.552865e+01
2.580000e-06	3.236398e-06	1.066262e-09	2.237623e+01	7.612038e+01
2.590000e-06	3.274448e-06	1.069683e-09	2.263930e+01	7.669537e+01
2.600000e-06	3.312354e-06	1.075438e-09	2.290139e+01	7.725422e+01
2.610000e-06	3.350082e-06	1.082691e-09	2.316223e+01	7.779747e+01
2.620000e-06	3.387542e-06	1.091601e-09	2.342123e+01	7.832566e+01
2.630000e-06	3.424679e-06	1.102964e-09	2.367799e+01	7.883928e+01
2.640000e-06	3.461531e-06	1.114126e-09	2.393279e+01	7.933881e+01
2.650000e-06	3.498098e-06	1.120845e-09	2.418560e+01	7.982470e+01
2.660000e-06	3.534403e-06	1.126073e-09	2.443662e+01	8.029738e+01
2.670000e-06	3.570513e-06	1.130661e-09	2.468627e+01	8.075726e+01
2.680000e-06	3.606489e-06	1.133765e-09	2.493501e+01	8.120473e+01
2.690000e-06	3.642313e-06	1.136676e-09	2.518270e+01	8.164017e+01
2.700000e-06	3.677977e-06	1.143009e-09	2.542928e+01	8.206393e+01
2.710000e-06	3.713520e-06	1.152523e-09	2.567502e+01	8.247636e+01
2.720000e-06	3.748867e-06	1.164201e-09	2.591941e+01	8.287780e+01
2.730000e-06	3.783902e-06	1.174472e-09	2.616163e+01	8.326857e+01
2.740000e-06	3.818600e-06	1.180914e-09	2.640153e+01	8.364900e+01
2.750000e-06	3.852893e-06	1.184856e-09	2.663863e+01	8.401939e+01
2.760000e-06	3.886713e-06	1.188304e-09	2.687247e+01	8.438007e+01
2.770000e-06	3.920105e-06	1.191315e-09	2.710334e+01	8.473134e+01
2.780000e-06	3.952992e-06	1.197168e-09	2.733071e+01	8.507351e+01
2.790000e-06	3.985481e-06	1.208319e-09	2.755534e+01	8.540689e+01
2.800000e-06	4.017728e-06	1.219697e-09	2.777829e+01	8.573180e+01
2.810000e-06	4.049725e-06	1.228007e-09	2.799951e+01	8.604855e+01
2.820000e-06	4.081546e-06	1.234469e-09	2.821953e+01	8.635746e+01
2.830000e-06	4.113211e-06	1.238426e-09	2.843845e+01	8.665883e+01
2.840000e-06	4.144624e-06	1.240712e-09	2.865564e+01	8.695300e+01
2.850000e-06	4.175730e-06	1.244555e-09	2.887070e+01	8.724028e+01
2.860000e-06	4.206650e-06	1.250843e-09	2.908448e+01	8.752100e+01
2.870000e-06	4.237317e-06	1.258846e-09	2.929652e+01	8.779547e+01
2.880000e-06	4.267634e-06	1.267490e-09	2.950612e+01	8.806402e+01
2.890000e-06	4.297668e-06	1.276771e-09	2.971377e+01	8.832695e+01
2.900000e-06	4.327371e-06	1.284523e-09	2.991914e+01	8.858460e+01
