# Temperatura_=_5.4
# Concentracion g/m^3_=_1620.0
# C_Vs_to_Am_M_A/Vsm_=_65563218390.804596
# pendiente_HvsI_1/m_=_3716.3
# ordenada_HvsI_A/m_=_1297.0
# frecuencia_Hz_=_135106.7961135432

Tiempo_(s)	Campo_(V.s)	Magnetizacion_(V.s)	Campo_(kA/m)	Magnetizacion_(A/m)
0.000000e+00	-5.515580e-06	-1.296235e-09	-3.837169e+01	-8.535138e+01
1.000000e-08	-5.515699e-06	-1.294915e-09	-3.837252e+01	-8.534741e+01
2.000000e-08	-5.515588e-06	-1.294723e-09	-3.837175e+01	-8.534367e+01
3.000000e-08	-5.515106e-06	-1.295694e-09	-3.836839e+01	-8.534007e+01
4.000000e-08	-5.514029e-06	-1.294777e-09	-3.836090e+01	-8.533648e+01
5.000000e-08	-5.512345e-06	-1.289278e-09	-3.834919e+01	-8.533275e+01
6.000000e-08	-5.510066e-06	-1.284782e-09	-3.833334e+01	-8.532871e+01
7.000000e-08	-5.507166e-06	-1.298510e-09	-3.831316e+01	-8.532420e+01
8.000000e-08	-5.503787e-06	-1.307272e-09	-3.828965e+01	-8.531901e+01
9.000000e-08	-5.499957e-06	-1.278402e-09	-3.826300e+01	-8.531292e+01
1.000000e-07	-5.495755e-06	-1.276631e-09	-3.823377e+01	-8.530572e+01
1.100000e-07	-5.491311e-06	-1.310196e-09	-3.820285e+01	-8.529717e+01
1.200000e-07	-5.486587e-06	-1.283981e-09	-3.816999e+01	-8.528704e+01
1.300000e-07	-5.481502e-06	-1.253112e-09	-3.813461e+01	-8.527508e+01
1.400000e-07	-5.476093e-06	-1.262969e-09	-3.809699e+01	-8.526104e+01
1.500000e-07	-5.470374e-06	-1.328374e-09	-3.805720e+01	-8.524468e+01
1.600000e-07	-5.464240e-06	-1.324769e-09	-3.801452e+01	-8.522577e+01
1.700000e-07	-5.457641e-06	-1.263763e-09	-3.796862e+01	-8.520406e+01
1.800000e-07	-5.450671e-06	-1.279234e-09	-3.792012e+01	-8.517933e+01
1.900000e-07	-5.443329e-06	-1.315468e-09	-3.786905e+01	-8.515135e+01
2.000000e-07	-5.435638e-06	-1.316544e-09	-3.781554e+01	-8.511993e+01
2.100000e-07	-5.427775e-06	-1.277494e-09	-3.776084e+01	-8.508487e+01
2.200000e-07	-5.419747e-06	-1.294255e-09	-3.770498e+01	-8.504599e+01
2.300000e-07	-5.411296e-06	-1.328185e-09	-3.764619e+01	-8.500314e+01
2.400000e-07	-5.402194e-06	-1.329724e-09	-3.758287e+01	-8.495616e+01
2.500000e-07	-5.392466e-06	-1.304578e-09	-3.751519e+01	-8.490495e+01
2.600000e-07	-5.382161e-06	-1.288903e-09	-3.744350e+01	-8.484939e+01
2.700000e-07	-5.371325e-06	-1.286263e-09	-3.736811e+01	-8.478940e+01
2.800000e-07	-5.359987e-06	-1.291458e-09	-3.728924e+01	-8.472493e+01
2.900000e-07	-5.348250e-06	-1.282782e-09	-3.720758e+01	-8.465592e+01
3.000000e-07	-5.336117e-06	-1.273831e-09	-3.712317e+01	-8.458237e+01
3.100000e-07	-5.323497e-06	-1.292676e-09	-3.703538e+01	-8.450426e+01
3.200000e-07	-5.310530e-06	-1.323485e-09	-3.694516e+01	-8.442163e+01
3.300000e-07	-5.297226e-06	-1.304061e-09	-3.685261e+01	-8.433450e+01
3.400000e-07	-5.283504e-06	-1.270182e-09	-3.675715e+01	-8.424293e+01
3.500000e-07	-5.269428e-06	-1.293396e-09	-3.665922e+01	-8.414699e+01
3.600000e-07	-5.254914e-06	-1.305914e-09	-3.655825e+01	-8.404678e+01
3.700000e-07	-5.239893e-06	-1.267331e-09	-3.645375e+01	-8.394238e+01
3.800000e-07	-5.224321e-06	-1.272201e-09	-3.634541e+01	-8.383392e+01
3.900000e-07	-5.208172e-06	-1.309448e-09	-3.623307e+01	-8.372152e+01
4.000000e-07	-5.191617e-06	-1.268547e-09	-3.611790e+01	-8.360531e+01
4.100000e-07	-5.174706e-06	-1.242698e-09	-3.600025e+01	-8.348542e+01
4.200000e-07	-5.157481e-06	-1.302370e-09	-3.588041e+01	-8.336200e+01
4.300000e-07	-5.139981e-06	-1.297382e-09	-3.575866e+01	-8.323520e+01
4.400000e-07	-5.122110e-06	-1.224958e-09	-3.563433e+01	-8.310516e+01
4.500000e-07	-5.103872e-06	-1.265549e-09	-3.550746e+01	-8.297203e+01
4.600000e-07	-5.085227e-06	-1.307480e-09	-3.537774e+01	-8.283595e+01
4.700000e-07	-5.066131e-06	-1.229888e-09	-3.524489e+01	-8.269706e+01
4.800000e-07	-5.046727e-06	-1.218471e-09	-3.510990e+01	-8.255551e+01
4.900000e-07	-5.027113e-06	-1.298218e-09	-3.497345e+01	-8.241142e+01
5.000000e-07	-5.007329e-06	-1.256086e-09	-3.483581e+01	-8.226490e+01
5.100000e-07	-4.987299e-06	-1.200248e-09	-3.469646e+01	-8.211608e+01
5.200000e-07	-4.966911e-06	-1.269160e-09	-3.455463e+01	-8.196505e+01
5.300000e-07	-4.946147e-06	-1.277628e-09	-3.441017e+01	-8.181192e+01
5.400000e-07	-4.925048e-06	-1.195753e-09	-3.426338e+01	-8.165675e+01
5.500000e-07	-4.903655e-06	-1.225753e-09	-3.411455e+01	-8.149963e+01
5.600000e-07	-4.881880e-06	-1.271511e-09	-3.396306e+01	-8.134061e+01
5.700000e-07	-4.859734e-06	-1.208732e-09	-3.380900e+01	-8.117973e+01
5.800000e-07	-4.837260e-06	-1.198907e-09	-3.365264e+01	-8.101705e+01
5.900000e-07	-4.814412e-06	-1.256114e-09	-3.349369e+01	-8.085257e+01
6.000000e-07	-4.791235e-06	-1.221257e-09	-3.333245e+01	-8.068633e+01
6.100000e-07	-4.767778e-06	-1.178424e-09	-3.316926e+01	-8.051831e+01
6.200000e-07	-4.744089e-06	-1.215975e-09	-3.300446e+01	-8.034853e+01
6.300000e-07	-4.720188e-06	-1.215779e-09	-3.283818e+01	-8.017698e+01
6.400000e-07	-4.696035e-06	-1.178547e-09	-3.267015e+01	-8.000362e+01
6.500000e-07	-4.671476e-06	-1.198341e-09	-3.249929e+01	-7.982844e+01
6.600000e-07	-4.646392e-06	-1.214120e-09	-3.232479e+01	-7.965141e+01
6.700000e-07	-4.620770e-06	-1.185449e-09	-3.214653e+01	-7.947250e+01
6.800000e-07	-4.594569e-06	-1.186405e-09	-3.196425e+01	-7.929167e+01
6.900000e-07	-4.567910e-06	-1.200737e-09	-3.177879e+01	-7.910888e+01
7.000000e-07	-4.540889e-06	-1.179160e-09	-3.159080e+01	-7.892409e+01
7.100000e-07	-4.513511e-06	-1.162534e-09	-3.140033e+01	-7.873727e+01
7.200000e-07	-4.485932e-06	-1.172987e-09	-3.120847e+01	-7.854837e+01
7.300000e-07	-4.458227e-06	-1.170887e-09	-3.101573e+01	-7.835737e+01
7.400000e-07	-4.430324e-06	-1.164323e-09	-3.082160e+01	-7.816422e+01
7.500000e-07	-4.402125e-06	-1.170303e-09	-3.062543e+01	-7.796891e+01
7.600000e-07	-4.373598e-06	-1.171533e-09	-3.042696e+01	-7.777140e+01
7.700000e-07	-4.344728e-06	-1.161058e-09	-3.022612e+01	-7.757168e+01
7.800000e-07	-4.315576e-06	-1.156281e-09	-3.002331e+01	-7.736973e+01
7.900000e-07	-4.286190e-06	-1.150291e-09	-2.981887e+01	-7.716555e+01
8.000000e-07	-4.256499e-06	-1.141928e-09	-2.961231e+01	-7.695912e+01
8.100000e-07	-4.226504e-06	-1.141461e-09	-2.940363e+01	-7.675045e+01
8.200000e-07	-4.196240e-06	-1.146908e-09	-2.919309e+01	-7.653954e+01
8.300000e-07	-4.165624e-06	-1.143051e-09	-2.898010e+01	-7.632641e+01
8.400000e-07	-4.134618e-06	-1.141287e-09	-2.876439e+01	-7.611106e+01
8.500000e-07	-4.103430e-06	-1.145212e-09	-2.854742e+01	-7.589351e+01
8.600000e-07	-4.072027e-06	-1.140310e-09	-2.832894e+01	-7.567379e+01
8.700000e-07	-4.040378e-06	-1.130066e-09	-2.810877e+01	-7.545191e+01
8.800000e-07	-4.008615e-06	-1.129067e-09	-2.788779e+01	-7.522789e+01
8.900000e-07	-3.976689e-06	-1.125108e-09	-2.766569e+01	-7.500176e+01
9.000000e-07	-3.944572e-06	-1.114748e-09	-2.744225e+01	-7.477354e+01
9.100000e-07	-3.912187e-06	-1.114098e-09	-2.721694e+01	-7.454324e+01
9.200000e-07	-3.879414e-06	-1.117581e-09	-2.698895e+01	-7.431089e+01
9.300000e-07	-3.846197e-06	-1.110674e-09	-2.675786e+01	-7.407648e+01
9.400000e-07	-3.812490e-06	-1.106216e-09	-2.652336e+01	-7.384004e+01
9.500000e-07	-3.778195e-06	-1.109699e-09	-2.628477e+01	-7.360156e+01
9.600000e-07	-3.743351e-06	-1.101587e-09	-2.604236e+01	-7.336102e+01
9.700000e-07	-3.708280e-06	-1.088347e-09	-2.579837e+01	-7.311843e+01
9.800000e-07	-3.673014e-06	-1.084231e-09	-2.555303e+01	-7.287374e+01
9.900000e-07	-3.637497e-06	-1.078265e-09	-2.530593e+01	-7.262694e+01
1.000000e-06	-3.601867e-06	-1.066526e-09	-2.505806e+01	-7.237798e+01
1.010000e-06	-3.566104e-06	-1.065069e-09	-2.480926e+01	-7.212681e+01
1.020000e-06	-3.530236e-06	-1.069037e-09	-2.455972e+01	-7.187337e+01
1.030000e-06	-3.494181e-06	-1.066071e-09	-2.430889e+01	-7.161758e+01
1.040000e-06	-3.457817e-06	-1.063332e-09	-2.405591e+01	-7.135937e+01
1.050000e-06	-3.421174e-06	-1.065107e-09	-2.380099e+01	-7.109865e+01
1.060000e-06	-3.384263e-06	-1.058055e-09	-2.354420e+01	-7.083531e+01
1.070000e-06	-3.347107e-06	-1.047546e-09	-2.328571e+01	-7.056926e+01
1.080000e-06	-3.309723e-06	-1.043957e-09	-2.302562e+01	-7.030037e+01
1.090000e-06	-3.272029e-06	-1.039803e-09	-2.276339e+01	-7.002853e+01
1.100000e-06	-3.234066e-06	-1.027972e-09	-2.249928e+01	-6.975360e+01
1.110000e-06	-3.195933e-06	-1.022328e-09	-2.223399e+01	-6.947547e+01
1.120000e-06	-3.157625e-06	-1.020777e-09	-2.196749e+01	-6.919398e+01
1.130000e-06	-3.119177e-06	-1.013220e-09	-2.170000e+01	-6.890901e+01
1.140000e-06	-3.080484e-06	-1.007527e-09	-2.143082e+01	-6.862042e+01
1.150000e-06	-3.041533e-06	-1.008064e-09	-2.115984e+01	-6.832807e+01
1.160000e-06	-3.002400e-06	-1.003215e-09	-2.088759e+01	-6.803183e+01
1.170000e-06	-2.963060e-06	-9.940633e-10	-2.061390e+01	-6.773155e+01
1.180000e-06	-2.923581e-06	-9.892680e-10	-2.033925e+01	-6.742713e+01
1.190000e-06	-2.884009e-06	-9.829087e-10	-2.006395e+01	-6.711843e+01
1.200000e-06	-2.844330e-06	-9.713713e-10	-1.978790e+01	-6.680533e+01
1.210000e-06	-2.804540e-06	-9.630685e-10	-1.951108e+01	-6.648773e+01
1.220000e-06	-2.764551e-06	-9.603457e-10	-1.923288e+01	-6.616554e+01
1.230000e-06	-2.724317e-06	-9.577881e-10	-1.895298e+01	-6.583864e+01
1.240000e-06	-2.683963e-06	-9.564977e-10	-1.867223e+01	-6.550698e+01
1.250000e-06	-2.643444e-06	-9.584624e-10	-1.839034e+01	-6.517046e+01
1.260000e-06	-2.602721e-06	-9.561451e-10	-1.810703e+01	-6.482903e+01
1.270000e-06	-2.561801e-06	-9.471566e-10	-1.782236e+01	-6.448263e+01
1.280000e-06	-2.520491e-06	-9.389593e-10	-1.753497e+01	-6.413121e+01
1.290000e-06	-2.478814e-06	-9.303015e-10	-1.724502e+01	-6.377474e+01
1.300000e-06	-2.436839e-06	-9.194492e-10	-1.695300e+01	-6.341316e+01
1.310000e-06	-2.394494e-06	-9.123789e-10	-1.665841e+01	-6.304647e+01
1.320000e-06	-2.351831e-06	-9.111231e-10	-1.636161e+01	-6.267461e+01
1.330000e-06	-2.308945e-06	-9.079849e-10	-1.606325e+01	-6.229758e+01
1.340000e-06	-2.265880e-06	-9.033742e-10	-1.576365e+01	-6.191534e+01
1.350000e-06	-2.222638e-06	-9.005816e-10	-1.546281e+01	-6.152785e+01
1.360000e-06	-2.179223e-06	-8.948492e-10	-1.516077e+01	-6.113508e+01
1.370000e-06	-2.135678e-06	-8.849448e-10	-1.485783e+01	-6.073697e+01
1.380000e-06	-2.092037e-06	-8.738134e-10	-1.455423e+01	-6.033346e+01
1.390000e-06	-2.048287e-06	-8.623797e-10	-1.424986e+01	-5.992447e+01
1.400000e-06	-2.004505e-06	-8.524078e-10	-1.394527e+01	-5.950991e+01
1.410000e-06	-1.960707e-06	-8.457006e-10	-1.364057e+01	-5.908964e+01
1.420000e-06	-1.916799e-06	-8.431846e-10	-1.333510e+01	-5.866353e+01
1.430000e-06	-1.872770e-06	-8.402705e-10	-1.302879e+01	-5.823140e+01
1.440000e-06	-1.828607e-06	-8.350538e-10	-1.272156e+01	-5.779303e+01
1.450000e-06	-1.784397e-06	-8.276648e-10	-1.241398e+01	-5.734817e+01
1.460000e-06	-1.740041e-06	-8.183415e-10	-1.210541e+01	-5.689656e+01
1.470000e-06	-1.695498e-06	-8.078245e-10	-1.179552e+01	-5.643784e+01
1.480000e-06	-1.650856e-06	-7.979785e-10	-1.148494e+01	-5.597166e+01
1.490000e-06	-1.606040e-06	-7.888506e-10	-1.117316e+01	-5.549760e+01
1.500000e-06	-1.561085e-06	-7.820158e-10	-1.086041e+01	-5.501519e+01
1.510000e-06	-1.516034e-06	-7.781607e-10	-1.054700e+01	-5.452390e+01
1.520000e-06	-1.470888e-06	-7.737312e-10	-1.023291e+01	-5.402319e+01
1.530000e-06	-1.425640e-06	-7.665784e-10	-9.918126e+00	-5.351241e+01
1.540000e-06	-1.380234e-06	-7.581548e-10	-9.602237e+00	-5.299091e+01
1.550000e-06	-1.334743e-06	-7.506256e-10	-9.285759e+00	-5.245795e+01
1.560000e-06	-1.289300e-06	-7.426479e-10	-8.969617e+00	-5.191277e+01
1.570000e-06	-1.243784e-06	-7.349820e-10	-8.652959e+00	-5.135453e+01
1.580000e-06	-1.198152e-06	-7.270162e-10	-8.335501e+00	-5.078238e+01
1.590000e-06	-1.152427e-06	-7.188920e-10	-8.017395e+00	-5.019539e+01
1.600000e-06	-1.106645e-06	-7.094151e-10	-7.698891e+00	-4.959262e+01
1.610000e-06	-1.060816e-06	-6.995645e-10	-7.380061e+00	-4.897305e+01
1.620000e-06	-1.014826e-06	-6.890167e-10	-7.060111e+00	-4.833568e+01
1.630000e-06	-9.687571e-07	-6.772635e-10	-6.739609e+00	-4.767945e+01
1.640000e-06	-9.226486e-07	-6.668897e-10	-6.418833e+00	-4.700329e+01
1.650000e-06	-8.763975e-07	-6.560639e-10	-6.097066e+00	-4.630609e+01
1.660000e-06	-8.300304e-07	-6.435101e-10	-5.774492e+00	-4.558677e+01
1.670000e-06	-7.837299e-07	-6.313116e-10	-5.452381e+00	-4.484422e+01
1.680000e-06	-7.374749e-07	-6.189135e-10	-5.130586e+00	-4.407734e+01
1.690000e-06	-6.911882e-07	-6.029266e-10	-4.808572e+00	-4.328505e+01
1.700000e-06	-6.448731e-07	-5.846803e-10	-4.486359e+00	-4.246628e+01
1.710000e-06	-5.984066e-07	-5.686890e-10	-4.163093e+00	-4.162001e+01
1.720000e-06	-5.519115e-07	-5.558901e-10	-3.839629e+00	-4.074523e+01
1.730000e-06	-5.053983e-07	-5.431825e-10	-3.516038e+00	-3.984100e+01
1.740000e-06	-4.588447e-07	-5.289042e-10	-3.192166e+00	-3.890642e+01
1.750000e-06	-4.123235e-07	-5.135407e-10	-2.868519e+00	-3.794066e+01
1.760000e-06	-3.656999e-07	-4.977107e-10	-2.544161e+00	-3.694296e+01
1.770000e-06	-3.190095e-07	-4.826207e-10	-2.219338e+00	-3.591265e+01
1.780000e-06	-2.722923e-07	-4.685449e-10	-1.894328e+00	-3.484912e+01
1.790000e-06	-2.254818e-07	-4.536318e-10	-1.568669e+00	-3.375188e+01
1.800000e-06	-1.786348e-07	-4.351089e-10	-1.242756e+00	-3.262055e+01
1.810000e-06	-1.318668e-07	-4.146720e-10	-9.173925e-01	-3.145483e+01
1.820000e-06	-8.515037e-08	-3.963366e-10	-5.923881e-01	-3.025456e+01
1.830000e-06	-3.837446e-08	-3.799341e-10	-2.669697e-01	-2.901969e+01
1.840000e-06	8.413936e-09	-3.636614e-10	5.853545e-02	-2.775030e+01
1.850000e-06	5.520650e-08	-3.460814e-10	3.840696e-01	-2.644659e+01
1.860000e-06	1.020905e-07	-3.263274e-10	7.102398e-01	-2.510891e+01
1.870000e-06	1.489438e-07	-3.033625e-10	1.036197e+00	-2.373774e+01
1.880000e-06	1.957115e-07	-2.795833e-10	1.361558e+00	-2.233368e+01
1.890000e-06	2.424625e-07	-2.583701e-10	1.686803e+00	-2.089748e+01
1.900000e-06	2.891880e-07	-2.377280e-10	2.011870e+00	-1.943004e+01
1.910000e-06	3.359206e-07	-2.167862e-10	2.336987e+00	-1.793238e+01
1.920000e-06	3.826769e-07	-1.965904e-10	2.662270e+00	-1.640564e+01
1.930000e-06	4.294187e-07	-1.749093e-10	2.987450e+00	-1.485113e+01
1.940000e-06	4.760810e-07	-1.503712e-10	3.312079e+00	-1.327025e+01
1.950000e-06	5.225863e-07	-1.253328e-10	3.635614e+00	-1.166455e+01
1.960000e-06	5.690155e-07	-1.040285e-10	3.958620e+00	-1.003566e+01
1.970000e-06	6.155078e-07	-8.434683e-11	4.282065e+00	-8.385354e+00
1.980000e-06	6.620042e-07	-6.308812e-11	4.605539e+00	-6.715493e+00
1.990000e-06	7.083793e-07	-3.981806e-11	4.928169e+00	-5.028030e+00
2.000000e-06	7.546894e-07	-1.332081e-11	5.250347e+00	-3.325005e+00
2.010000e-06	8.010015e-07	1.556512e-11	5.572539e+00	-1.608531e+00
2.020000e-06	8.472190e-07	4.300686e-11	5.894072e+00	1.192136e-01
2.030000e-06	8.933719e-07	6.648855e-11	6.215156e+00	1.855997e+00
2.040000e-06	9.395454e-07	8.671159e-11	6.536384e+00	3.599543e+00
2.050000e-06	9.856499e-07	1.084266e-10	6.857131e+00	5.347548e+00
2.060000e-06	1.031552e-06	1.329971e-10	7.176472e+00	7.097684e+00
2.070000e-06	1.077348e-06	1.575802e-10	7.495070e+00	8.847618e+00
2.080000e-06	1.123103e-06	1.834659e-10	7.813385e+00	1.059502e+01
2.090000e-06	1.168771e-06	2.100879e-10	8.131098e+00	1.233758e+01
2.100000e-06	1.214379e-06	2.352511e-10	8.448394e+00	1.407300e+01
2.110000e-06	1.259902e-06	2.590931e-10	8.765095e+00	1.579905e+01
2.120000e-06	1.305390e-06	2.818596e-10	9.081554e+00	1.751352e+01
2.130000e-06	1.350864e-06	3.023799e-10	9.397912e+00	1.921427e+01
2.140000e-06	1.396220e-06	3.219959e-10	9.713453e+00	2.089925e+01
2.150000e-06	1.441382e-06	3.438635e-10	1.002765e+01	2.256646e+01
2.160000e-06	1.486406e-06	3.682793e-10	1.034087e+01	2.421402e+01
2.170000e-06	1.531354e-06	3.917536e-10	1.065358e+01	2.584012e+01
2.180000e-06	1.576152e-06	4.141613e-10	1.096523e+01	2.744308e+01
2.190000e-06	1.620847e-06	4.366819e-10	1.127618e+01	2.902132e+01
2.200000e-06	1.665502e-06	4.578017e-10	1.158684e+01	3.057339e+01
2.210000e-06	1.710002e-06	4.765248e-10	1.189642e+01	3.209795e+01
2.220000e-06	1.754298e-06	4.947183e-10	1.220459e+01	3.359379e+01
2.230000e-06	1.798495e-06	5.137355e-10	1.251207e+01	3.505986e+01
2.240000e-06	1.842582e-06	5.320067e-10	1.281878e+01	3.649520e+01
2.250000e-06	1.886564e-06	5.495211e-10	1.312476e+01	3.789902e+01
2.260000e-06	1.930503e-06	5.687389e-10	1.343044e+01	3.927064e+01
2.270000e-06	1.974381e-06	5.883107e-10	1.373570e+01	4.060955e+01
2.280000e-06	2.018201e-06	6.064657e-10	1.404055e+01	4.191534e+01
2.290000e-06	2.061956e-06	6.235875e-10	1.434496e+01	4.318774e+01
2.300000e-06	2.105666e-06	6.398073e-10	1.464904e+01	4.442663e+01
2.310000e-06	2.149301e-06	6.567017e-10	1.495261e+01	4.563198e+01
2.320000e-06	2.192804e-06	6.740630e-10	1.525526e+01	4.680389e+01
2.330000e-06	2.236167e-06	6.909440e-10	1.555694e+01	4.794260e+01
2.340000e-06	2.279424e-06	7.078618e-10	1.585787e+01	4.904843e+01
2.350000e-06	2.322531e-06	7.235161e-10	1.615776e+01	5.012179e+01
2.360000e-06	2.365356e-06	7.375894e-10	1.645570e+01	5.116322e+01
2.370000e-06	2.407821e-06	7.503305e-10	1.675112e+01	5.217332e+01
2.380000e-06	2.450006e-06	7.629376e-10	1.704460e+01	5.315276e+01
2.390000e-06	2.491878e-06	7.762172e-10	1.733591e+01	5.410231e+01
2.400000e-06	2.533357e-06	7.903969e-10	1.762447e+01	5.502276e+01
2.410000e-06	2.574530e-06	8.064737e-10	1.791091e+01	5.591498e+01
2.420000e-06	2.615417e-06	8.222814e-10	1.819536e+01	5.677987e+01
2.430000e-06	2.656044e-06	8.363539e-10	1.847800e+01	5.761836e+01
2.440000e-06	2.696453e-06	8.484795e-10	1.875913e+01	5.843142e+01
2.450000e-06	2.736621e-06	8.579432e-10	1.903858e+01	5.922003e+01
2.460000e-06	2.776634e-06	8.674042e-10	1.931694e+01	5.998515e+01
2.470000e-06	2.816579e-06	8.770080e-10	1.959484e+01	6.072779e+01
2.480000e-06	2.856413e-06	8.856418e-10	1.987196e+01	6.144890e+01
2.490000e-06	2.896140e-06	8.961091e-10	2.014834e+01	6.214945e+01
2.500000e-06	2.935777e-06	9.085899e-10	2.042410e+01	6.283038e+01
2.510000e-06	2.975279e-06	9.219362e-10	2.069891e+01	6.349260e+01
2.520000e-06	3.014484e-06	9.337752e-10	2.097165e+01	6.413698e+01
2.530000e-06	3.053446e-06	9.449002e-10	2.124271e+01	6.476436e+01
2.540000e-06	3.092236e-06	9.531887e-10	2.151258e+01	6.537554e+01
2.550000e-06	3.130735e-06	9.576672e-10	2.178041e+01	6.597127e+01
2.560000e-06	3.169000e-06	9.617799e-10	2.204662e+01	6.655224e+01
2.570000e-06	3.207053e-06	9.673063e-10	2.231135e+01	6.711911e+01
2.580000e-06	3.244919e-06	9.746654e-10	2.257479e+01	6.767248e+01
2.590000e-06	3.282600e-06	9.837658e-10	2.283693e+01	6.821289e+01
2.600000e-06	3.320060e-06	9.942521e-10	2.309754e+01	6.874082e+01
2.610000e-06	3.357263e-06	1.003493e-09	2.335636e+01	6.925672e+01
2.620000e-06	3.394259e-06	1.010671e-09	2.361374e+01	6.976098e+01
2.630000e-06	3.431066e-06	1.016396e-09	2.386981e+01	7.025393e+01
2.640000e-06	3.467595e-06	1.020756e-09	2.412393e+01	7.073585e+01
2.650000e-06	3.503872e-06	1.026602e-09	2.437631e+01	7.120699e+01
2.660000e-06	3.539949e-06	1.033126e-09	2.462730e+01	7.166755e+01
2.670000e-06	3.575831e-06	1.038064e-09	2.487693e+01	7.211768e+01
2.680000e-06	3.611566e-06	1.040957e-09	2.512554e+01	7.255751e+01
2.690000e-06	3.647251e-06	1.043672e-09	2.537379e+01	7.298714e+01
2.700000e-06	3.682793e-06	1.047849e-09	2.562106e+01	7.340662e+01
2.710000e-06	3.718117e-06	1.053400e-09	2.586680e+01	7.381600e+01
2.720000e-06	3.753127e-06	1.062309e-09	2.611037e+01	7.421531e+01
2.730000e-06	3.787665e-06	1.071769e-09	2.635065e+01	7.460455e+01
2.740000e-06	3.821757e-06	1.078267e-09	2.658783e+01	7.498372e+01
2.750000e-06	3.855439e-06	1.082284e-09	2.682215e+01	7.535282e+01
2.760000e-06	3.888661e-06	1.085032e-09	2.705328e+01	7.571184e+01
2.770000e-06	3.921401e-06	1.086839e-09	2.728105e+01	7.606078e+01
2.780000e-06	3.953696e-06	1.088684e-09	2.750572e+01	7.639964e+01
2.790000e-06	3.985706e-06	1.091450e-09	2.772842e+01	7.672843e+01
2.800000e-06	4.017568e-06	1.096012e-09	2.795008e+01	7.704718e+01
2.810000e-06	4.049286e-06	1.101958e-09	2.817073e+01	7.735593e+01
2.820000e-06	4.080819e-06	1.109390e-09	2.839011e+01	7.765474e+01
2.830000e-06	4.112124e-06	1.116624e-09	2.860790e+01	7.794370e+01
2.840000e-06	4.143210e-06	1.121272e-09	2.882416e+01	7.822290e+01
2.850000e-06	4.173975e-06	1.124637e-09	2.903819e+01	7.849248e+01
2.860000e-06	4.204361e-06	1.127110e-09	2.924959e+01	7.875259e+01
2.870000e-06	4.234511e-06	1.127606e-09	2.945934e+01	7.900339e+01
2.880000e-06	4.264360e-06	1.129025e-09	2.966700e+01	7.924511e+01
2.890000e-06	4.293872e-06	1.133730e-09	2.987232e+01	7.947795e+01
2.900000e-06	4.323182e-06	1.139832e-09	3.007622e+01	7.970217e+01
