# Temperatura_=_3.3
# Concentracion g/m^3_=_1620.0
# C_Vs_to_Am_M_A/Vsm_=_65563218390.804596
# pendiente_HvsI_1/m_=_3716.3
# ordenada_HvsI_A/m_=_1297.0
# frecuencia_Hz_=_135104.59122756452

Tiempo_(s)	Campo_(V.s)	Magnetizacion_(V.s)	Campo_(kA/m)	Magnetizacion_(A/m)
0.000000e+00	-5.530326e-06	-1.253022e-09	-3.836541e+01	-8.564729e+01
1.000000e-08	-5.530545e-06	-1.248491e-09	-3.836693e+01	-8.564969e+01
2.000000e-08	-5.530590e-06	-1.247144e-09	-3.836725e+01	-8.565169e+01
3.000000e-08	-5.530312e-06	-1.249034e-09	-3.836531e+01	-8.565306e+01
4.000000e-08	-5.529626e-06	-1.250450e-09	-3.836056e+01	-8.565359e+01
5.000000e-08	-5.528386e-06	-1.248120e-09	-3.835196e+01	-8.565302e+01
6.000000e-08	-5.526384e-06	-1.239424e-09	-3.833806e+01	-8.565110e+01
7.000000e-08	-5.523690e-06	-1.231190e-09	-3.831937e+01	-8.564753e+01
8.000000e-08	-5.520566e-06	-1.242773e-09	-3.829770e+01	-8.564205e+01
9.000000e-08	-5.517085e-06	-1.277639e-09	-3.827355e+01	-8.563434e+01
1.000000e-07	-5.513188e-06	-1.274221e-09	-3.824652e+01	-8.562412e+01
1.100000e-07	-5.508930e-06	-1.221205e-09	-3.821698e+01	-8.561106e+01
1.200000e-07	-5.504443e-06	-1.215870e-09	-3.818585e+01	-8.559488e+01
1.300000e-07	-5.499717e-06	-1.242694e-09	-3.815307e+01	-8.557527e+01
1.400000e-07	-5.494570e-06	-1.249063e-09	-3.811736e+01	-8.555194e+01
1.500000e-07	-5.488988e-06	-1.206091e-09	-3.807864e+01	-8.552460e+01
1.600000e-07	-5.483110e-06	-1.200079e-09	-3.803786e+01	-8.549299e+01
1.700000e-07	-5.476811e-06	-1.266047e-09	-3.799416e+01	-8.545686e+01
1.800000e-07	-5.470020e-06	-1.273100e-09	-3.794705e+01	-8.541597e+01
1.900000e-07	-5.462866e-06	-1.256158e-09	-3.789742e+01	-8.537012e+01
2.000000e-07	-5.455411e-06	-1.238058e-09	-3.784571e+01	-8.531911e+01
2.100000e-07	-5.447669e-06	-1.266290e-09	-3.779200e+01	-8.526280e+01
2.200000e-07	-5.439667e-06	-1.265698e-09	-3.773649e+01	-8.520104e+01
2.300000e-07	-5.431528e-06	-1.260500e-09	-3.768002e+01	-8.513373e+01
2.400000e-07	-5.423108e-06	-1.250280e-09	-3.762161e+01	-8.506082e+01
2.500000e-07	-5.414077e-06	-1.270982e-09	-3.755896e+01	-8.498225e+01
2.600000e-07	-5.404275e-06	-1.275961e-09	-3.749096e+01	-8.489804e+01
2.700000e-07	-5.393751e-06	-1.253910e-09	-3.741796e+01	-8.480820e+01
2.800000e-07	-5.382650e-06	-1.232223e-09	-3.734094e+01	-8.471281e+01
2.900000e-07	-5.371116e-06	-1.255479e-09	-3.726093e+01	-8.461197e+01
3.000000e-07	-5.359277e-06	-1.282970e-09	-3.717880e+01	-8.450579e+01
3.100000e-07	-5.347119e-06	-1.254540e-09	-3.709445e+01	-8.439446e+01
3.200000e-07	-5.334508e-06	-1.239255e-09	-3.700697e+01	-8.427815e+01
3.300000e-07	-5.321426e-06	-1.261806e-09	-3.691622e+01	-8.415708e+01
3.400000e-07	-5.307982e-06	-1.280294e-09	-3.682295e+01	-8.403152e+01
3.500000e-07	-5.294129e-06	-1.236439e-09	-3.672685e+01	-8.390171e+01
3.600000e-07	-5.279797e-06	-1.236882e-09	-3.662742e+01	-8.376796e+01
3.700000e-07	-5.265159e-06	-1.269592e-09	-3.652587e+01	-8.363058e+01
3.800000e-07	-5.250137e-06	-1.260444e-09	-3.642166e+01	-8.348988e+01
3.900000e-07	-5.234449e-06	-1.220911e-09	-3.631283e+01	-8.334620e+01
4.000000e-07	-5.218274e-06	-1.253822e-09	-3.620062e+01	-8.319989e+01
4.100000e-07	-5.201734e-06	-1.261108e-09	-3.608588e+01	-8.305130e+01
4.200000e-07	-5.184822e-06	-1.214996e-09	-3.596855e+01	-8.290077e+01
4.300000e-07	-5.167620e-06	-1.220355e-09	-3.584922e+01	-8.274866e+01
4.400000e-07	-5.150071e-06	-1.277944e-09	-3.572748e+01	-8.259530e+01
4.500000e-07	-5.132146e-06	-1.237835e-09	-3.560312e+01	-8.244102e+01
4.600000e-07	-5.113730e-06	-1.200753e-09	-3.547537e+01	-8.228615e+01
4.700000e-07	-5.094861e-06	-1.246052e-09	-3.534447e+01	-8.213098e+01
4.800000e-07	-5.075636e-06	-1.249434e-09	-3.521110e+01	-8.197580e+01
4.900000e-07	-5.056105e-06	-1.194654e-09	-3.507561e+01	-8.182087e+01
5.000000e-07	-5.036407e-06	-1.229271e-09	-3.493896e+01	-8.166643e+01
5.100000e-07	-5.016540e-06	-1.262155e-09	-3.480114e+01	-8.151268e+01
5.200000e-07	-4.996386e-06	-1.205631e-09	-3.466132e+01	-8.135979e+01
5.300000e-07	-4.975875e-06	-1.201938e-09	-3.451903e+01	-8.120793e+01
5.400000e-07	-4.955104e-06	-1.252753e-09	-3.437493e+01	-8.105720e+01
5.500000e-07	-4.933977e-06	-1.209093e-09	-3.422837e+01	-8.090768e+01
5.600000e-07	-4.912427e-06	-1.163668e-09	-3.407887e+01	-8.075942e+01
5.700000e-07	-4.890500e-06	-1.212212e-09	-3.392676e+01	-8.061243e+01
5.800000e-07	-4.868195e-06	-1.219943e-09	-3.377202e+01	-8.046668e+01
5.900000e-07	-4.845498e-06	-1.179202e-09	-3.361457e+01	-8.032211e+01
6.000000e-07	-4.822404e-06	-1.201522e-09	-3.345436e+01	-8.017864e+01
6.100000e-07	-4.799063e-06	-1.217761e-09	-3.329244e+01	-8.003613e+01
6.200000e-07	-4.775510e-06	-1.172596e-09	-3.312904e+01	-7.989443e+01
6.300000e-07	-4.751754e-06	-1.170492e-09	-3.296424e+01	-7.975335e+01
6.400000e-07	-4.727843e-06	-1.189540e-09	-3.279836e+01	-7.961268e+01
6.500000e-07	-4.703605e-06	-1.167159e-09	-3.263022e+01	-7.947217e+01
6.600000e-07	-4.678944e-06	-1.156665e-09	-3.245914e+01	-7.933157e+01
6.700000e-07	-4.653802e-06	-1.183422e-09	-3.228472e+01	-7.919058e+01
6.800000e-07	-4.628028e-06	-1.175243e-09	-3.210592e+01	-7.904892e+01
6.900000e-07	-4.601649e-06	-1.166034e-09	-3.192292e+01	-7.890628e+01
7.000000e-07	-4.574793e-06	-1.174543e-09	-3.173661e+01	-7.876232e+01
7.100000e-07	-4.547564e-06	-1.165163e-09	-3.154772e+01	-7.861671e+01
7.200000e-07	-4.520032e-06	-1.142477e-09	-3.135672e+01	-7.846914e+01
7.300000e-07	-4.492333e-06	-1.147100e-09	-3.116456e+01	-7.831925e+01
7.400000e-07	-4.464517e-06	-1.147864e-09	-3.097160e+01	-7.816673e+01
7.500000e-07	-4.436486e-06	-1.142288e-09	-3.077714e+01	-7.801125e+01
7.600000e-07	-4.408152e-06	-1.143650e-09	-3.058058e+01	-7.785249e+01
7.700000e-07	-4.379477e-06	-1.146210e-09	-3.038165e+01	-7.769016e+01
7.800000e-07	-4.350442e-06	-1.137573e-09	-3.018023e+01	-7.752397e+01
7.900000e-07	-4.321109e-06	-1.138026e-09	-2.997674e+01	-7.735366e+01
8.000000e-07	-4.291583e-06	-1.138769e-09	-2.977191e+01	-7.717898e+01
8.100000e-07	-4.261821e-06	-1.124499e-09	-2.956544e+01	-7.699970e+01
8.200000e-07	-4.231795e-06	-1.115666e-09	-2.935714e+01	-7.681564e+01
8.300000e-07	-4.201442e-06	-1.122693e-09	-2.914657e+01	-7.662663e+01
8.400000e-07	-4.170712e-06	-1.121262e-09	-2.893339e+01	-7.643251e+01
8.500000e-07	-4.139688e-06	-1.112366e-09	-2.871817e+01	-7.623318e+01
8.600000e-07	-4.108418e-06	-1.113618e-09	-2.850124e+01	-7.602855e+01
8.700000e-07	-4.076921e-06	-1.111391e-09	-2.828274e+01	-7.581858e+01
8.800000e-07	-4.045275e-06	-1.100243e-09	-2.806320e+01	-7.560322e+01
8.900000e-07	-4.013542e-06	-1.097604e-09	-2.784306e+01	-7.538250e+01
9.000000e-07	-3.981596e-06	-1.101922e-09	-2.762144e+01	-7.515644e+01
9.100000e-07	-3.949347e-06	-1.092375e-09	-2.739772e+01	-7.492511e+01
9.200000e-07	-3.916730e-06	-1.086766e-09	-2.717144e+01	-7.468858e+01
9.300000e-07	-3.883681e-06	-1.091258e-09	-2.694218e+01	-7.444699e+01
9.400000e-07	-3.850196e-06	-1.087634e-09	-2.670988e+01	-7.420045e+01
9.500000e-07	-3.816169e-06	-1.076857e-09	-2.647383e+01	-7.394912e+01
9.600000e-07	-3.781663e-06	-1.075871e-09	-2.623445e+01	-7.369319e+01
9.700000e-07	-3.746814e-06	-1.069339e-09	-2.599270e+01	-7.343283e+01
9.800000e-07	-3.711600e-06	-1.057480e-09	-2.574840e+01	-7.316826e+01
9.900000e-07	-3.676124e-06	-1.053492e-09	-2.550229e+01	-7.289969e+01
1.000000e-06	-3.640537e-06	-1.056138e-09	-2.525542e+01	-7.262734e+01
1.010000e-06	-3.604810e-06	-1.047522e-09	-2.500757e+01	-7.235144e+01
1.020000e-06	-3.568912e-06	-1.041734e-09	-2.475853e+01	-7.207221e+01
1.030000e-06	-3.532896e-06	-1.042858e-09	-2.450868e+01	-7.178990e+01
1.040000e-06	-3.496691e-06	-1.039275e-09	-2.425752e+01	-7.150471e+01
1.050000e-06	-3.460157e-06	-1.030872e-09	-2.400408e+01	-7.121688e+01
1.060000e-06	-3.423350e-06	-1.030286e-09	-2.374873e+01	-7.092662e+01
1.070000e-06	-3.386305e-06	-1.029113e-09	-2.349174e+01	-7.063412e+01
1.080000e-06	-3.348999e-06	-1.023344e-09	-2.323294e+01	-7.033957e+01
1.090000e-06	-3.311434e-06	-1.022041e-09	-2.297234e+01	-7.004314e+01
1.100000e-06	-3.273632e-06	-1.022320e-09	-2.271010e+01	-6.974499e+01
1.110000e-06	-3.235651e-06	-1.015240e-09	-2.244661e+01	-6.944525e+01
1.120000e-06	-3.197375e-06	-1.008032e-09	-2.218108e+01	-6.914404e+01
1.130000e-06	-3.158842e-06	-1.005095e-09	-2.191377e+01	-6.884144e+01
1.140000e-06	-3.120083e-06	-9.993718e-10	-2.164488e+01	-6.853753e+01
1.150000e-06	-3.081076e-06	-9.916182e-10	-2.137428e+01	-6.823235e+01
1.160000e-06	-3.041970e-06	-9.874713e-10	-2.110299e+01	-6.792591e+01
1.170000e-06	-3.002796e-06	-9.833512e-10	-2.083123e+01	-6.761823e+01
1.180000e-06	-2.963438e-06	-9.765705e-10	-2.055819e+01	-6.730926e+01
1.190000e-06	-2.923885e-06	-9.737596e-10	-2.028380e+01	-6.699895e+01
1.200000e-06	-2.884217e-06	-9.704713e-10	-2.000861e+01	-6.668723e+01
1.210000e-06	-2.844430e-06	-9.627155e-10	-1.973261e+01	-6.637399e+01
1.220000e-06	-2.804536e-06	-9.543058e-10	-1.945584e+01	-6.605911e+01
1.230000e-06	-2.764507e-06	-9.505469e-10	-1.917816e+01	-6.574244e+01
1.240000e-06	-2.724274e-06	-9.433296e-10	-1.889905e+01	-6.542381e+01
1.250000e-06	-2.683674e-06	-9.371534e-10	-1.861739e+01	-6.510304e+01
1.260000e-06	-2.642851e-06	-9.366780e-10	-1.833420e+01	-6.477990e+01
1.270000e-06	-2.601929e-06	-9.358124e-10	-1.805031e+01	-6.445418e+01
1.280000e-06	-2.560700e-06	-9.299318e-10	-1.776429e+01	-6.412564e+01
1.290000e-06	-2.519134e-06	-9.226949e-10	-1.747594e+01	-6.379400e+01
1.300000e-06	-2.477264e-06	-9.140104e-10	-1.718547e+01	-6.345900e+01
1.310000e-06	-2.435125e-06	-9.030057e-10	-1.689314e+01	-6.312034e+01
1.320000e-06	-2.392639e-06	-8.930528e-10	-1.659840e+01	-6.277774e+01
1.330000e-06	-2.349830e-06	-8.879289e-10	-1.630142e+01	-6.243086e+01
1.340000e-06	-2.306781e-06	-8.835788e-10	-1.600278e+01	-6.207939e+01
1.350000e-06	-2.263478e-06	-8.799995e-10	-1.570238e+01	-6.172299e+01
1.360000e-06	-2.219991e-06	-8.765458e-10	-1.540070e+01	-6.136131e+01
1.370000e-06	-2.176389e-06	-8.717710e-10	-1.509821e+01	-6.099401e+01
1.380000e-06	-2.132741e-06	-8.647689e-10	-1.479542e+01	-6.062071e+01
1.390000e-06	-2.089036e-06	-8.573789e-10	-1.449222e+01	-6.024104e+01
1.400000e-06	-2.045233e-06	-8.499972e-10	-1.418835e+01	-5.985462e+01
1.410000e-06	-2.001346e-06	-8.423529e-10	-1.388390e+01	-5.946106e+01
1.420000e-06	-1.957376e-06	-8.359648e-10	-1.357886e+01	-5.905996e+01
1.430000e-06	-1.913347e-06	-8.304011e-10	-1.327342e+01	-5.865088e+01
1.440000e-06	-1.869307e-06	-8.248193e-10	-1.296791e+01	-5.823343e+01
1.450000e-06	-1.825181e-06	-8.180962e-10	-1.266179e+01	-5.780714e+01
1.460000e-06	-1.780889e-06	-8.095023e-10	-1.235452e+01	-5.737158e+01
1.470000e-06	-1.736427e-06	-7.999147e-10	-1.204608e+01	-5.692628e+01
1.480000e-06	-1.691748e-06	-7.919195e-10	-1.173613e+01	-5.647075e+01
1.490000e-06	-1.646947e-06	-7.855130e-10	-1.142533e+01	-5.600450e+01
1.500000e-06	-1.602064e-06	-7.793800e-10	-1.111396e+01	-5.552702e+01
1.510000e-06	-1.557044e-06	-7.731280e-10	-1.080165e+01	-5.503777e+01
1.520000e-06	-1.511903e-06	-7.662136e-10	-1.048849e+01	-5.453620e+01
1.530000e-06	-1.466625e-06	-7.570654e-10	-1.017439e+01	-5.402174e+01
1.540000e-06	-1.421225e-06	-7.465293e-10	-9.859435e+00	-5.349380e+01
1.550000e-06	-1.375720e-06	-7.369928e-10	-9.543752e+00	-5.295178e+01
1.560000e-06	-1.330103e-06	-7.287833e-10	-9.227293e+00	-5.239503e+01
1.570000e-06	-1.284423e-06	-7.202835e-10	-8.910401e+00	-5.182290e+01
1.580000e-06	-1.238671e-06	-7.128763e-10	-8.593009e+00	-5.123472e+01
1.590000e-06	-1.192816e-06	-7.053144e-10	-8.274894e+00	-5.062980e+01
1.600000e-06	-1.146897e-06	-6.976192e-10	-7.956347e+00	-5.000743e+01
1.610000e-06	-1.100902e-06	-6.894110e-10	-7.637262e+00	-4.936687e+01
1.620000e-06	-1.054891e-06	-6.796570e-10	-7.318073e+00	-4.870739e+01
1.630000e-06	-1.008745e-06	-6.685883e-10	-6.997946e+00	-4.802821e+01
1.640000e-06	-9.624350e-07	-6.581884e-10	-6.676680e+00	-4.732858e+01
1.650000e-06	-9.161483e-07	-6.473702e-10	-6.355576e+00	-4.660772e+01
1.660000e-06	-8.697614e-07	-6.348598e-10	-6.033777e+00	-4.586484e+01
1.670000e-06	-8.232482e-07	-6.211245e-10	-5.711102e+00	-4.509916e+01
1.680000e-06	-7.767603e-07	-6.090477e-10	-5.388602e+00	-4.430990e+01
1.690000e-06	-7.302589e-07	-5.978018e-10	-5.066009e+00	-4.349627e+01
1.700000e-06	-6.837467e-07	-5.854120e-10	-4.743341e+00	-4.265753e+01
1.710000e-06	-6.372055e-07	-5.723082e-10	-4.420472e+00	-4.179291e+01
1.720000e-06	-5.906222e-07	-5.596255e-10	-4.097311e+00	-4.090170e+01
1.730000e-06	-5.439981e-07	-5.451605e-10	-3.773867e+00	-3.998320e+01
1.740000e-06	-4.973154e-07	-5.277497e-10	-3.450016e+00	-3.903674e+01
1.750000e-06	-4.505947e-07	-5.107888e-10	-3.125901e+00	-3.806170e+01
1.760000e-06	-4.037319e-07	-4.950762e-10	-2.800801e+00	-3.705750e+01
1.770000e-06	-3.567583e-07	-4.803436e-10	-2.474932e+00	-3.602360e+01
1.780000e-06	-3.098305e-07	-4.676978e-10	-2.149380e+00	-3.495954e+01
1.790000e-06	-2.629842e-07	-4.575226e-10	-1.824394e+00	-3.386491e+01
1.800000e-06	-2.161217e-07	-4.465006e-10	-1.499297e+00	-3.273936e+01
1.810000e-06	-1.692831e-07	-4.307659e-10	-1.174364e+00	-3.158264e+01
1.820000e-06	-1.224487e-07	-4.107890e-10	-8.494609e-01	-3.039455e+01
1.830000e-06	-7.555972e-08	-3.903881e-10	-5.241789e-01	-2.917500e+01
1.840000e-06	-2.866529e-08	-3.711873e-10	-1.988591e-01	-2.792399e+01
1.850000e-06	1.828807e-08	-3.531547e-10	1.268694e-01	-2.664160e+01
1.860000e-06	6.517999e-08	-3.354237e-10	4.521717e-01	-2.532802e+01
1.870000e-06	1.119269e-07	-3.172009e-10	7.764681e-01	-2.398355e+01
1.880000e-06	1.587191e-07	-2.988294e-10	1.101079e+00	-2.260858e+01
1.890000e-06	2.055675e-07	-2.800632e-10	1.426079e+00	-2.120363e+01
1.900000e-06	2.524043e-07	-2.596176e-10	1.750999e+00	-1.976931e+01
1.910000e-06	2.993063e-07	-2.387369e-10	2.076371e+00	-1.830635e+01
1.920000e-06	3.462084e-07	-2.182894e-10	2.401744e+00	-1.681560e+01
1.930000e-06	3.929206e-07	-1.978523e-10	2.725800e+00	-1.529803e+01
1.940000e-06	4.394994e-07	-1.749545e-10	3.048930e+00	-1.375469e+01
1.950000e-06	4.860854e-07	-1.510833e-10	3.372110e+00	-1.218677e+01
1.960000e-06	5.326852e-07	-1.289833e-10	3.695386e+00	-1.059556e+01
1.970000e-06	5.792902e-07	-1.086892e-10	4.018697e+00	-8.982442e+00
1.980000e-06	6.258314e-07	-8.895592e-11	4.341567e+00	-7.348921e+00
1.990000e-06	6.723044e-07	-6.807969e-11	4.663963e+00	-5.696583e+00
2.000000e-06	7.187880e-07	-4.398375e-11	4.986433e+00	-4.027105e+00
2.010000e-06	7.652512e-07	-1.660455e-11	5.308761e+00	-2.342253e+00
2.020000e-06	8.115917e-07	1.154864e-11	5.630237e+00	-6.438686e-01
2.030000e-06	8.578939e-07	3.857764e-11	5.951449e+00	1.066138e+00
2.040000e-06	9.041979e-07	6.377767e-11	6.272673e+00	2.785792e+00
2.050000e-06	9.503254e-07	8.695685e-11	6.592672e+00	4.513066e+00
2.060000e-06	9.963327e-07	1.098461e-10	6.911838e+00	6.245888e+00
2.070000e-06	1.042325e-06	1.324193e-10	7.230898e+00	7.982150e+00
2.080000e-06	1.088272e-06	1.553932e-10	7.549644e+00	9.719720e+00
2.090000e-06	1.134150e-06	1.804795e-10	7.867917e+00	1.145645e+01
2.100000e-06	1.179919e-06	2.063587e-10	8.185430e+00	1.319018e+01
2.110000e-06	1.225598e-06	2.320641e-10	8.502314e+00	1.491877e+01
2.120000e-06	1.271171e-06	2.551708e-10	8.818470e+00	1.664007e+01
2.130000e-06	1.316642e-06	2.756108e-10	9.133911e+00	1.835199e+01
2.140000e-06	1.362086e-06	2.955089e-10	9.449169e+00	2.005244e+01
2.150000e-06	1.407482e-06	3.172308e-10	9.764095e+00	2.173940e+01
2.160000e-06	1.452829e-06	3.411581e-10	1.007868e+01	2.341089e+01
2.170000e-06	1.498085e-06	3.661255e-10	1.039264e+01	2.506500e+01
2.180000e-06	1.543162e-06	3.893316e-10	1.070535e+01	2.669990e+01
2.190000e-06	1.588079e-06	4.095925e-10	1.101695e+01	2.831384e+01
2.200000e-06	1.632868e-06	4.288604e-10	1.132766e+01	2.990514e+01
2.210000e-06	1.677527e-06	4.473303e-10	1.163747e+01	3.147223e+01
2.220000e-06	1.722071e-06	4.652531e-10	1.194648e+01	3.301366e+01
2.230000e-06	1.766536e-06	4.834629e-10	1.225495e+01	3.452805e+01
2.240000e-06	1.810924e-06	5.025957e-10	1.256288e+01	3.601418e+01
2.250000e-06	1.855182e-06	5.224940e-10	1.286991e+01	3.747091e+01
2.260000e-06	1.899286e-06	5.417629e-10	1.317587e+01	3.889724e+01
2.270000e-06	1.943305e-06	5.614457e-10	1.348125e+01	4.029229e+01
2.280000e-06	1.987243e-06	5.809488e-10	1.378606e+01	4.165531e+01
2.290000e-06	2.031114e-06	5.992012e-10	1.409041e+01	4.298567e+01
2.300000e-06	2.074963e-06	6.165382e-10	1.439460e+01	4.428286e+01
2.310000e-06	2.118727e-06	6.310546e-10	1.469820e+01	4.554653e+01
2.320000e-06	2.162398e-06	6.446866e-10	1.500116e+01	4.677642e+01
2.330000e-06	2.206003e-06	6.601187e-10	1.530366e+01	4.797239e+01
2.340000e-06	2.249477e-06	6.761415e-10	1.560525e+01	4.913445e+01
2.350000e-06	2.292783e-06	6.914725e-10	1.590567e+01	5.026270e+01
2.360000e-06	2.335897e-06	7.062339e-10	1.620477e+01	5.135736e+01
2.370000e-06	2.378790e-06	7.196183e-10	1.650233e+01	5.241875e+01
2.380000e-06	2.421355e-06	7.313801e-10	1.679762e+01	5.344728e+01
2.390000e-06	2.463531e-06	7.429212e-10	1.709020e+01	5.444348e+01
2.400000e-06	2.505391e-06	7.536051e-10	1.738060e+01	5.540794e+01
2.410000e-06	2.547000e-06	7.659028e-10	1.766925e+01	5.634133e+01
2.420000e-06	2.588327e-06	7.805662e-10	1.795595e+01	5.724441e+01
2.430000e-06	2.629357e-06	7.951635e-10	1.824058e+01	5.811798e+01
2.440000e-06	2.670079e-06	8.086220e-10	1.852308e+01	5.896291e+01
2.450000e-06	2.710507e-06	8.202164e-10	1.880354e+01	5.978011e+01
2.460000e-06	2.750755e-06	8.301910e-10	1.908275e+01	6.057053e+01
2.470000e-06	2.790859e-06	8.391828e-10	1.936097e+01	6.133515e+01
2.480000e-06	2.830883e-06	8.482672e-10	1.963863e+01	6.207495e+01
2.490000e-06	2.870817e-06	8.584640e-10	1.991566e+01	6.279097e+01
2.500000e-06	2.910563e-06	8.700199e-10	2.019138e+01	6.348422e+01
2.510000e-06	2.950128e-06	8.818196e-10	2.046586e+01	6.415572e+01
2.520000e-06	2.989554e-06	8.922740e-10	2.073937e+01	6.480647e+01
2.530000e-06	3.028871e-06	9.012435e-10	2.101212e+01	6.543747e+01
2.540000e-06	3.067921e-06	9.111962e-10	2.128302e+01	6.604970e+01
2.550000e-06	3.106692e-06	9.211695e-10	2.155199e+01	6.664410e+01
2.560000e-06	3.145292e-06	9.292199e-10	2.181976e+01	6.722157e+01
2.570000e-06	3.183649e-06	9.365727e-10	2.208586e+01	6.778301e+01
2.580000e-06	3.221775e-06	9.438870e-10	2.235035e+01	6.832923e+01
2.590000e-06	3.259735e-06	9.507389e-10	2.261369e+01	6.886104e+01
2.600000e-06	3.297504e-06	9.578082e-10	2.287571e+01	6.937916e+01
2.610000e-06	3.335058e-06	9.648635e-10	2.313622e+01	6.988430e+01
2.620000e-06	3.372447e-06	9.717449e-10	2.339560e+01	7.037710e+01
2.630000e-06	3.409559e-06	9.802018e-10	2.365306e+01	7.085813e+01
2.640000e-06	3.446253e-06	9.893406e-10	2.390762e+01	7.132795e+01
2.650000e-06	3.482694e-06	9.969967e-10	2.416042e+01	7.178702e+01
2.660000e-06	3.519005e-06	1.005156e-09	2.441232e+01	7.223578e+01
2.670000e-06	3.555078e-06	1.013374e-09	2.466257e+01	7.267462e+01
2.680000e-06	3.590970e-06	1.018644e-09	2.491156e+01	7.310385e+01
2.690000e-06	3.626745e-06	1.022952e-09	2.515974e+01	7.352377e+01
2.700000e-06	3.662407e-06	1.028999e-09	2.540714e+01	7.393461e+01
2.710000e-06	3.697953e-06	1.034299e-09	2.565373e+01	7.433656e+01
2.720000e-06	3.733290e-06	1.039264e-09	2.589887e+01	7.472980e+01
2.730000e-06	3.768295e-06	1.046120e-09	2.614171e+01	7.511444e+01
2.740000e-06	3.802886e-06	1.053822e-09	2.638168e+01	7.549057e+01
2.750000e-06	3.837045e-06	1.062437e-09	2.661865e+01	7.585826e+01
2.760000e-06	3.870713e-06	1.070338e-09	2.685222e+01	7.621756e+01
2.770000e-06	3.903944e-06	1.074529e-09	2.708274e+01	7.656848e+01
2.780000e-06	3.936829e-06	1.076592e-09	2.731088e+01	7.691104e+01
2.790000e-06	3.969331e-06	1.080255e-09	2.753635e+01	7.724522e+01
2.800000e-06	4.001518e-06	1.085374e-09	2.775965e+01	7.757102e+01
2.810000e-06	4.033515e-06	1.089830e-09	2.798161e+01	7.788841e+01
2.820000e-06	4.065363e-06	1.094385e-09	2.820256e+01	7.819739e+01
2.830000e-06	4.097010e-06	1.100848e-09	2.842210e+01	7.849794e+01
2.840000e-06	4.128419e-06	1.107081e-09	2.863999e+01	7.879004e+01
2.850000e-06	4.159546e-06	1.113799e-09	2.885593e+01	7.907370e+01
2.860000e-06	4.190408e-06	1.121053e-09	2.907003e+01	7.934893e+01
2.870000e-06	4.220982e-06	1.126228e-09	2.928213e+01	7.961575e+01
2.880000e-06	4.251156e-06	1.129362e-09	2.949145e+01	7.987420e+01
2.890000e-06	4.281031e-06	1.132374e-09	2.969870e+01	8.012434e+01
2.900000e-06	4.310614e-06	1.135982e-09	2.990393e+01	8.036622e+01
