# Temperatura_=_-19.94
# Concentracion g/m^3_=_1620.0
# C_Vs_to_Am_M_A/Vsm_=_65563218390.804596
# pendiente_HvsI_1/m_=_3716.3
# ordenada_HvsI_A/m_=_1297.0
# frecuencia_Hz_=_135110.09432860074

Tiempo_(s)	Campo_(V.s)	Magnetizacion_(V.s)	Campo_(kA/m)	Magnetizacion_(A/m)
0.000000e+00	-5.522830e-06	-7.527526e-10	-3.836550e+01	-5.150873e+01
1.000000e-08	-5.522896e-06	-7.459751e-10	-3.836596e+01	-5.149101e+01
2.000000e-08	-5.522710e-06	-7.384586e-10	-3.836467e+01	-5.147667e+01
3.000000e-08	-5.522116e-06	-7.365609e-10	-3.836055e+01	-5.146567e+01
4.000000e-08	-5.520953e-06	-7.388668e-10	-3.835246e+01	-5.145794e+01
5.000000e-08	-5.519273e-06	-7.403617e-10	-3.834079e+01	-5.145337e+01
6.000000e-08	-5.517071e-06	-7.411438e-10	-3.832550e+01	-5.145183e+01
7.000000e-08	-5.514277e-06	-7.223010e-10	-3.830609e+01	-5.145315e+01
8.000000e-08	-5.510884e-06	-7.062760e-10	-3.828252e+01	-5.145716e+01
9.000000e-08	-5.506996e-06	-7.591820e-10	-3.825551e+01	-5.146362e+01
1.000000e-07	-5.502708e-06	-8.271160e-10	-3.822572e+01	-5.147233e+01
1.100000e-07	-5.498159e-06	-7.404978e-10	-3.819412e+01	-5.148301e+01
1.200000e-07	-5.493540e-06	-6.707549e-10	-3.816203e+01	-5.149542e+01
1.300000e-07	-5.488718e-06	-6.753849e-10	-3.812854e+01	-5.150926e+01
1.400000e-07	-5.483395e-06	-8.089525e-10	-3.809156e+01	-5.152426e+01
1.500000e-07	-5.477571e-06	-7.668031e-10	-3.805110e+01	-5.154013e+01
1.600000e-07	-5.471446e-06	-6.780578e-10	-3.800855e+01	-5.155657e+01
1.700000e-07	-5.464977e-06	-7.057399e-10	-3.796362e+01	-5.157329e+01
1.800000e-07	-5.458004e-06	-8.005746e-10	-3.791518e+01	-5.159001e+01
1.900000e-07	-5.450536e-06	-8.063152e-10	-3.786330e+01	-5.160645e+01
2.000000e-07	-5.442777e-06	-7.234674e-10	-3.780940e+01	-5.162235e+01
2.100000e-07	-5.434880e-06	-7.553248e-10	-3.775454e+01	-5.163745e+01
2.200000e-07	-5.426743e-06	-8.032146e-10	-3.769802e+01	-5.165152e+01
2.300000e-07	-5.418321e-06	-8.192264e-10	-3.763951e+01	-5.166434e+01
2.400000e-07	-5.409514e-06	-7.527092e-10	-3.757833e+01	-5.167571e+01
2.500000e-07	-5.400009e-06	-7.929029e-10	-3.751230e+01	-5.168548e+01
2.600000e-07	-5.389656e-06	-7.931948e-10	-3.744038e+01	-5.169348e+01
2.700000e-07	-5.378695e-06	-7.922870e-10	-3.736424e+01	-5.169960e+01
2.800000e-07	-5.367345e-06	-7.448672e-10	-3.728540e+01	-5.170374e+01
2.900000e-07	-5.355636e-06	-7.788809e-10	-3.720406e+01	-5.170585e+01
3.000000e-07	-5.343535e-06	-7.881865e-10	-3.711999e+01	-5.170587e+01
3.100000e-07	-5.331089e-06	-7.910696e-10	-3.703353e+01	-5.170381e+01
3.200000e-07	-5.318096e-06	-7.638002e-10	-3.694328e+01	-5.169968e+01
3.300000e-07	-5.304585e-06	-7.803025e-10	-3.684942e+01	-5.169353e+01
3.400000e-07	-5.290815e-06	-7.899097e-10	-3.675376e+01	-5.168543e+01
3.500000e-07	-5.276710e-06	-7.754871e-10	-3.665578e+01	-5.167547e+01
3.600000e-07	-5.262126e-06	-7.498381e-10	-3.655447e+01	-5.166379e+01
3.700000e-07	-5.247121e-06	-7.828558e-10	-3.645024e+01	-5.165051e+01
3.800000e-07	-5.231664e-06	-7.985455e-10	-3.634286e+01	-5.163582e+01
3.900000e-07	-5.215543e-06	-7.455250e-10	-3.623087e+01	-5.161988e+01
4.000000e-07	-5.198967e-06	-7.453897e-10	-3.611572e+01	-5.160289e+01
4.100000e-07	-5.182107e-06	-8.030595e-10	-3.599860e+01	-5.158507e+01
4.200000e-07	-5.164864e-06	-7.828615e-10	-3.587881e+01	-5.156663e+01
4.300000e-07	-5.147218e-06	-7.080773e-10	-3.575624e+01	-5.154781e+01
4.400000e-07	-5.129332e-06	-7.758028e-10	-3.563198e+01	-5.152884e+01
4.500000e-07	-5.111174e-06	-8.112592e-10	-3.550585e+01	-5.150996e+01
4.600000e-07	-5.092527e-06	-7.399493e-10	-3.537632e+01	-5.149139e+01
4.700000e-07	-5.073478e-06	-7.159289e-10	-3.524398e+01	-5.147338e+01
4.800000e-07	-5.054156e-06	-8.092382e-10	-3.510976e+01	-5.145616e+01
4.900000e-07	-5.034539e-06	-7.714711e-10	-3.497348e+01	-5.143994e+01
5.000000e-07	-5.014688e-06	-7.274046e-10	-3.483559e+01	-5.142494e+01
5.100000e-07	-4.994618e-06	-7.742105e-10	-3.469617e+01	-5.141135e+01
5.200000e-07	-4.974184e-06	-7.920050e-10	-3.455422e+01	-5.139936e+01
5.300000e-07	-4.953375e-06	-7.169423e-10	-3.440966e+01	-5.138914e+01
5.400000e-07	-4.932280e-06	-7.585968e-10	-3.426312e+01	-5.138083e+01
5.500000e-07	-4.910811e-06	-7.943267e-10	-3.411399e+01	-5.137457e+01
5.600000e-07	-4.889010e-06	-7.395001e-10	-3.396254e+01	-5.137047e+01
5.700000e-07	-4.866906e-06	-7.213723e-10	-3.380899e+01	-5.136862e+01
5.800000e-07	-4.844460e-06	-7.888911e-10	-3.365306e+01	-5.136908e+01
5.900000e-07	-4.821650e-06	-7.678150e-10	-3.349461e+01	-5.137191e+01
6.000000e-07	-4.798508e-06	-7.381232e-10	-3.333385e+01	-5.137712e+01
6.100000e-07	-4.775051e-06	-7.706855e-10	-3.317090e+01	-5.138472e+01
6.200000e-07	-4.751332e-06	-7.802757e-10	-3.300613e+01	-5.139469e+01
6.300000e-07	-4.727440e-06	-7.452179e-10	-3.284016e+01	-5.140698e+01
6.400000e-07	-4.703325e-06	-7.576122e-10	-3.267264e+01	-5.142153e+01
6.500000e-07	-4.678842e-06	-7.744724e-10	-3.250256e+01	-5.143827e+01
6.600000e-07	-4.653911e-06	-7.577693e-10	-3.232937e+01	-5.145708e+01
6.700000e-07	-4.628512e-06	-7.618664e-10	-3.215294e+01	-5.147785e+01
6.800000e-07	-4.602548e-06	-7.786858e-10	-3.197257e+01	-5.150046e+01
6.900000e-07	-4.575961e-06	-7.757263e-10	-3.178788e+01	-5.152474e+01
7.000000e-07	-4.548851e-06	-7.655309e-10	-3.159955e+01	-5.155054e+01
7.100000e-07	-4.521370e-06	-7.704211e-10	-3.140865e+01	-5.157769e+01
7.200000e-07	-4.493662e-06	-7.629908e-10	-3.121617e+01	-5.160600e+01
7.300000e-07	-4.465820e-06	-7.637165e-10	-3.102276e+01	-5.163530e+01
7.400000e-07	-4.437852e-06	-7.641398e-10	-3.082848e+01	-5.166538e+01
7.500000e-07	-4.409646e-06	-7.691494e-10	-3.063254e+01	-5.169605e+01
7.600000e-07	-4.381136e-06	-7.657789e-10	-3.043449e+01	-5.172712e+01
7.700000e-07	-4.352385e-06	-7.721471e-10	-3.023476e+01	-5.175837e+01
7.800000e-07	-4.323348e-06	-7.644836e-10	-3.003304e+01	-5.178961e+01
7.900000e-07	-4.293900e-06	-7.654002e-10	-2.982848e+01	-5.182065e+01
8.000000e-07	-4.264058e-06	-7.646402e-10	-2.962118e+01	-5.185130e+01
8.100000e-07	-4.234009e-06	-7.664216e-10	-2.941244e+01	-5.188136e+01
8.200000e-07	-4.203729e-06	-7.593334e-10	-2.920209e+01	-5.191065e+01
8.300000e-07	-4.173119e-06	-7.700786e-10	-2.898945e+01	-5.193902e+01
8.400000e-07	-4.142145e-06	-7.734711e-10	-2.877428e+01	-5.196628e+01
8.500000e-07	-4.110891e-06	-7.737172e-10	-2.855717e+01	-5.199228e+01
8.600000e-07	-4.079474e-06	-7.701691e-10	-2.833893e+01	-5.201689e+01
8.700000e-07	-4.047845e-06	-7.737206e-10	-2.811921e+01	-5.203995e+01
8.800000e-07	-4.016027e-06	-7.681955e-10	-2.789817e+01	-5.206134e+01
8.900000e-07	-3.984043e-06	-7.678835e-10	-2.767599e+01	-5.208095e+01
9.000000e-07	-3.951867e-06	-7.708708e-10	-2.745248e+01	-5.209867e+01
9.100000e-07	-3.919429e-06	-7.712184e-10	-2.722714e+01	-5.211439e+01
9.200000e-07	-3.886584e-06	-7.666927e-10	-2.699897e+01	-5.212804e+01
9.300000e-07	-3.853348e-06	-7.708295e-10	-2.676809e+01	-5.213953e+01
9.400000e-07	-3.819710e-06	-7.746424e-10	-2.653442e+01	-5.214880e+01
9.500000e-07	-3.785486e-06	-7.682978e-10	-2.629668e+01	-5.215577e+01
9.600000e-07	-3.750776e-06	-7.618027e-10	-2.605556e+01	-5.216040e+01
9.700000e-07	-3.715809e-06	-7.599867e-10	-2.581265e+01	-5.216264e+01
9.800000e-07	-3.680507e-06	-7.598470e-10	-2.556742e+01	-5.216244e+01
9.900000e-07	-3.644907e-06	-7.582709e-10	-2.532012e+01	-5.215977e+01
1.000000e-06	-3.609185e-06	-7.645670e-10	-2.507196e+01	-5.215459e+01
1.010000e-06	-3.573357e-06	-7.679480e-10	-2.482308e+01	-5.214688e+01
1.020000e-06	-3.537368e-06	-7.702237e-10	-2.457307e+01	-5.213662e+01
1.030000e-06	-3.501150e-06	-7.705724e-10	-2.432148e+01	-5.212378e+01
1.040000e-06	-3.464744e-06	-7.728806e-10	-2.406857e+01	-5.210834e+01
1.050000e-06	-3.428160e-06	-7.659904e-10	-2.381444e+01	-5.209028e+01
1.060000e-06	-3.391316e-06	-7.622480e-10	-2.355849e+01	-5.206960e+01
1.070000e-06	-3.354219e-06	-7.603920e-10	-2.330079e+01	-5.204628e+01
1.080000e-06	-3.316872e-06	-7.639854e-10	-2.304135e+01	-5.202030e+01
1.090000e-06	-3.279233e-06	-7.646548e-10	-2.277988e+01	-5.199165e+01
1.100000e-06	-3.241313e-06	-7.679632e-10	-2.251646e+01	-5.196033e+01
1.110000e-06	-3.203133e-06	-7.655478e-10	-2.225124e+01	-5.192632e+01
1.120000e-06	-3.164690e-06	-7.614610e-10	-2.198419e+01	-5.188962e+01
1.130000e-06	-3.126056e-06	-7.543187e-10	-2.171581e+01	-5.185022e+01
1.140000e-06	-3.087291e-06	-7.531593e-10	-2.144652e+01	-5.180811e+01
1.150000e-06	-3.048328e-06	-7.518015e-10	-2.117585e+01	-5.176329e+01
1.160000e-06	-3.009151e-06	-7.518671e-10	-2.090370e+01	-5.171576e+01
1.170000e-06	-2.969813e-06	-7.520700e-10	-2.063043e+01	-5.166552e+01
1.180000e-06	-2.930331e-06	-7.558543e-10	-2.035616e+01	-5.161257e+01
1.190000e-06	-2.890682e-06	-7.562661e-10	-2.008073e+01	-5.155692e+01
1.200000e-06	-2.850867e-06	-7.524274e-10	-1.980415e+01	-5.149858e+01
1.210000e-06	-2.810924e-06	-7.457065e-10	-1.952668e+01	-5.143757e+01
1.220000e-06	-2.770849e-06	-7.409295e-10	-1.924829e+01	-5.137388e+01
1.230000e-06	-2.730581e-06	-7.384264e-10	-1.896855e+01	-5.130756e+01
1.240000e-06	-2.690095e-06	-7.385674e-10	-1.868731e+01	-5.123861e+01
1.250000e-06	-2.649363e-06	-7.421801e-10	-1.840436e+01	-5.116706e+01
1.260000e-06	-2.608408e-06	-7.446779e-10	-1.811986e+01	-5.109294e+01
1.270000e-06	-2.567260e-06	-7.470445e-10	-1.783401e+01	-5.101628e+01
1.280000e-06	-2.525905e-06	-7.452591e-10	-1.754673e+01	-5.093711e+01
1.290000e-06	-2.484238e-06	-7.406944e-10	-1.725728e+01	-5.085545e+01
1.300000e-06	-2.442289e-06	-7.318723e-10	-1.696588e+01	-5.077134e+01
1.310000e-06	-2.400049e-06	-7.274731e-10	-1.667244e+01	-5.068480e+01
1.320000e-06	-2.357404e-06	-7.264399e-10	-1.637620e+01	-5.059585e+01
1.330000e-06	-2.314491e-06	-7.292501e-10	-1.607810e+01	-5.050451e+01
1.340000e-06	-2.271414e-06	-7.330795e-10	-1.577886e+01	-5.041079e+01
1.350000e-06	-2.228167e-06	-7.381404e-10	-1.547843e+01	-5.031469e+01
1.360000e-06	-2.184735e-06	-7.371482e-10	-1.517672e+01	-5.021619e+01
1.370000e-06	-2.141206e-06	-7.320005e-10	-1.487434e+01	-5.011527e+01
1.380000e-06	-2.097611e-06	-7.239080e-10	-1.457150e+01	-5.001188e+01
1.390000e-06	-2.053870e-06	-7.185199e-10	-1.426764e+01	-4.990596e+01
1.400000e-06	-2.009985e-06	-7.163537e-10	-1.396278e+01	-4.979742e+01
1.410000e-06	-1.966057e-06	-7.187123e-10	-1.365763e+01	-4.968615e+01
1.420000e-06	-1.922041e-06	-7.214527e-10	-1.335186e+01	-4.957201e+01
1.430000e-06	-1.877892e-06	-7.247163e-10	-1.304517e+01	-4.945483e+01
1.440000e-06	-1.833674e-06	-7.252992e-10	-1.273800e+01	-4.933441e+01
1.450000e-06	-1.789365e-06	-7.196256e-10	-1.243020e+01	-4.921050e+01
1.460000e-06	-1.744930e-06	-7.111479e-10	-1.212152e+01	-4.908284e+01
1.470000e-06	-1.700321e-06	-7.039570e-10	-1.181164e+01	-4.895109e+01
1.480000e-06	-1.655617e-06	-6.999657e-10	-1.150109e+01	-4.881489e+01
1.490000e-06	-1.610833e-06	-6.996653e-10	-1.118999e+01	-4.867384e+01
1.500000e-06	-1.565913e-06	-7.014709e-10	-1.087795e+01	-4.852747e+01
1.510000e-06	-1.520865e-06	-7.046441e-10	-1.056501e+01	-4.837528e+01
1.520000e-06	-1.475672e-06	-7.062163e-10	-1.025107e+01	-4.821672e+01
1.530000e-06	-1.430400e-06	-7.025879e-10	-9.936577e+00	-4.805117e+01
1.540000e-06	-1.385033e-06	-6.940214e-10	-9.621423e+00	-4.787798e+01
1.550000e-06	-1.339538e-06	-6.844731e-10	-9.305382e+00	-4.769643e+01
1.560000e-06	-1.293954e-06	-6.776409e-10	-8.988723e+00	-4.750577e+01
1.570000e-06	-1.248341e-06	-6.735391e-10	-8.671866e+00	-4.730519e+01
1.580000e-06	-1.202612e-06	-6.722376e-10	-8.354194e+00	-4.709383e+01
1.590000e-06	-1.156751e-06	-6.721981e-10	-8.035615e+00	-4.687077e+01
1.600000e-06	-1.110844e-06	-6.718047e-10	-7.716710e+00	-4.663509e+01
1.610000e-06	-1.064910e-06	-6.674105e-10	-7.397622e+00	-4.638578e+01
1.620000e-06	-1.018899e-06	-6.608883e-10	-7.077999e+00	-4.612181e+01
1.630000e-06	-9.727698e-07	-6.515920e-10	-6.757550e+00	-4.584214e+01
1.640000e-06	-9.266006e-07	-6.421785e-10	-6.436827e+00	-4.554568e+01
1.650000e-06	-8.803831e-07	-6.337131e-10	-6.115767e+00	-4.523131e+01
1.660000e-06	-8.340931e-07	-6.277194e-10	-5.794204e+00	-4.489791e+01
1.670000e-06	-7.877231e-07	-6.215473e-10	-5.472084e+00	-4.454433e+01
1.680000e-06	-7.412681e-07	-6.162259e-10	-5.149375e+00	-4.416944e+01
1.690000e-06	-6.947540e-07	-6.109876e-10	-4.826255e+00	-4.377210e+01
1.700000e-06	-6.481626e-07	-6.026614e-10	-4.502598e+00	-4.335116e+01
1.710000e-06	-6.016415e-07	-5.933839e-10	-4.179429e+00	-4.290551e+01
1.720000e-06	-5.551736e-07	-5.861088e-10	-3.856630e+00	-4.243406e+01
1.730000e-06	-5.085329e-07	-5.788575e-10	-3.532631e+00	-4.193575e+01
1.740000e-06	-4.618387e-07	-5.696711e-10	-3.208260e+00	-4.140954e+01
1.750000e-06	-4.151618e-07	-5.574227e-10	-2.884009e+00	-4.085448e+01
1.760000e-06	-3.684321e-07	-5.442093e-10	-2.559391e+00	-4.026963e+01
1.770000e-06	-3.216796e-07	-5.321264e-10	-2.234615e+00	-3.965414e+01
1.780000e-06	-2.748395e-07	-5.226380e-10	-1.909231e+00	-3.900722e+01
1.790000e-06	-2.279455e-07	-5.150759e-10	-1.583471e+00	-3.832816e+01
1.800000e-06	-1.811111e-07	-5.057796e-10	-1.258127e+00	-3.761633e+01
1.810000e-06	-1.342547e-07	-4.944495e-10	-9.326286e-01	-3.687121e+01
1.820000e-06	-8.741810e-08	-4.830471e-10	-6.072683e-01	-3.609236e+01
1.830000e-06	-4.059559e-08	-4.708848e-10	-2.820058e-01	-3.527945e+01
1.840000e-06	6.236099e-09	-4.572597e-10	4.332038e-02	-3.443226e+01
1.850000e-06	5.303053e-08	-4.433849e-10	3.683877e-01	-3.355068e+01
1.860000e-06	9.989717e-08	-4.299102e-10	6.939567e-01	-3.263472e+01
1.870000e-06	1.468677e-07	-4.162752e-10	1.020247e+00	-3.168451e+01
1.880000e-06	1.938366e-07	-4.042877e-10	1.346527e+00	-3.070032e+01
1.890000e-06	2.407550e-07	-3.938073e-10	1.672455e+00	-2.968251e+01
1.900000e-06	2.876163e-07	-3.811407e-10	1.997987e+00	-2.863161e+01
1.910000e-06	3.344410e-07	-3.672895e-10	2.323265e+00	-2.754825e+01
1.920000e-06	3.812489e-07	-3.537495e-10	2.648426e+00	-2.643319e+01
1.930000e-06	4.280245e-07	-3.383898e-10	2.973363e+00	-2.528733e+01
1.940000e-06	4.746992e-07	-3.204004e-10	3.297598e+00	-2.411167e+01
1.950000e-06	5.212325e-07	-3.039574e-10	3.620851e+00	-2.290735e+01
1.960000e-06	5.677267e-07	-2.900198e-10	3.943833e+00	-2.167562e+01
1.970000e-06	6.142025e-07	-2.768863e-10	4.266687e+00	-2.041785e+01
1.980000e-06	6.606339e-07	-2.625576e-10	4.589233e+00	-1.913548e+01
1.990000e-06	7.070675e-07	-2.446786e-10	4.911793e+00	-1.783011e+01
2.000000e-06	7.534502e-07	-2.213380e-10	5.234001e+00	-1.650338e+01
2.010000e-06	7.997834e-07	-1.960090e-10	5.555864e+00	-1.515705e+01
2.020000e-06	8.461197e-07	-1.743805e-10	5.877749e+00	-1.379293e+01
2.030000e-06	8.924243e-07	-1.584679e-10	6.199413e+00	-1.241292e+01
2.040000e-06	9.386590e-07	-1.454805e-10	6.520593e+00	-1.101897e+01
2.050000e-06	9.847670e-07	-1.304665e-10	6.840891e+00	-9.613095e+00
2.060000e-06	1.030774e-06	-1.117248e-10	7.160489e+00	-8.197326e+00
2.070000e-06	1.076715e-06	-9.088720e-11	7.479628e+00	-6.773740e+00
2.080000e-06	1.122652e-06	-6.781694e-11	7.798738e+00	-5.344432e+00
2.090000e-06	1.168556e-06	-4.370659e-11	8.117618e+00	-3.911506e+00
2.100000e-06	1.214356e-06	-2.115389e-11	8.435779e+00	-2.477063e+00
2.110000e-06	1.260075e-06	-2.219951e-12	8.753375e+00	-1.043197e+00
2.120000e-06	1.305659e-06	1.497655e-11	9.070035e+00	3.880223e-01
2.130000e-06	1.351089e-06	3.130577e-11	9.385622e+00	1.814555e+00
2.140000e-06	1.396351e-06	4.824337e-11	9.700047e+00	3.234403e+00
2.150000e-06	1.441486e-06	6.924053e-11	1.001359e+01	4.645617e+00
2.160000e-06	1.486637e-06	9.320822e-11	1.032724e+01	6.046307e+00
2.170000e-06	1.531807e-06	1.156082e-10	1.064102e+01	7.434651e+00
2.180000e-06	1.576826e-06	1.339151e-10	1.095376e+01	8.808901e+00
2.190000e-06	1.621673e-06	1.502901e-10	1.126529e+01	1.016739e+01
2.200000e-06	1.666415e-06	1.662561e-10	1.157610e+01	1.150855e+01
2.210000e-06	1.710959e-06	1.814763e-10	1.188554e+01	1.283089e+01
2.220000e-06	1.755335e-06	1.992518e-10	1.219380e+01	1.413303e+01
2.230000e-06	1.799566e-06	2.192429e-10	1.250107e+01	1.541369e+01
2.240000e-06	1.843682e-06	2.369735e-10	1.280753e+01	1.667170e+01
2.250000e-06	1.887758e-06	2.519870e-10	1.311371e+01	1.790600e+01
2.260000e-06	1.931752e-06	2.672241e-10	1.341932e+01	1.911564e+01
2.270000e-06	1.975713e-06	2.823818e-10	1.372470e+01	2.029977e+01
2.280000e-06	2.019591e-06	2.981814e-10	1.402951e+01	2.145769e+01
2.290000e-06	2.063374e-06	3.149208e-10	1.433366e+01	2.258876e+01
2.300000e-06	2.107122e-06	3.301563e-10	1.463757e+01	2.369250e+01
2.310000e-06	2.150777e-06	3.453538e-10	1.494082e+01	2.476850e+01
2.320000e-06	2.194356e-06	3.588278e-10	1.524356e+01	2.581649e+01
2.330000e-06	2.237800e-06	3.711602e-10	1.554535e+01	2.683627e+01
2.340000e-06	2.281042e-06	3.847189e-10	1.584574e+01	2.782776e+01
2.350000e-06	2.324111e-06	3.991829e-10	1.614493e+01	2.879096e+01
2.360000e-06	2.366982e-06	4.128446e-10	1.644274e+01	2.972597e+01
2.370000e-06	2.409567e-06	4.208286e-10	1.673857e+01	3.063297e+01
2.380000e-06	2.451798e-06	4.294385e-10	1.703193e+01	3.151221e+01
2.390000e-06	2.493632e-06	4.410118e-10	1.732254e+01	3.236402e+01
2.400000e-06	2.535276e-06	4.542081e-10	1.761183e+01	3.318877e+01
2.410000e-06	2.576736e-06	4.691973e-10	1.789984e+01	3.398693e+01
2.420000e-06	2.617798e-06	4.825659e-10	1.818508e+01	3.475898e+01
2.430000e-06	2.658565e-06	4.941053e-10	1.846828e+01	3.550545e+01
2.440000e-06	2.699102e-06	5.014940e-10	1.874988e+01	3.622693e+01
2.450000e-06	2.739404e-06	5.064153e-10	1.902985e+01	3.692402e+01
2.460000e-06	2.779531e-06	5.122587e-10	1.930860e+01	3.759733e+01
2.470000e-06	2.819492e-06	5.238980e-10	1.958619e+01	3.824752e+01
2.480000e-06	2.859288e-06	5.397204e-10	1.986265e+01	3.887524e+01
2.490000e-06	2.898990e-06	5.530183e-10	2.013844e+01	3.948114e+01
2.500000e-06	2.938601e-06	5.630909e-10	2.041361e+01	4.006587e+01
2.510000e-06	2.978108e-06	5.700406e-10	2.068805e+01	4.063009e+01
2.520000e-06	3.017441e-06	5.734490e-10	2.096129e+01	4.117442e+01
2.530000e-06	3.056503e-06	5.747710e-10	2.123264e+01	4.169950e+01
2.540000e-06	3.095325e-06	5.769117e-10	2.150233e+01	4.220593e+01
2.550000e-06	3.133944e-06	5.850825e-10	2.177060e+01	4.269428e+01
2.560000e-06	3.172298e-06	5.966591e-10	2.203703e+01	4.316512e+01
2.570000e-06	3.210383e-06	6.072371e-10	2.230161e+01	4.361897e+01
2.580000e-06	3.248278e-06	6.130736e-10	2.256485e+01	4.405634e+01
2.590000e-06	3.286011e-06	6.159807e-10	2.282697e+01	4.447770e+01
2.600000e-06	3.323523e-06	6.182594e-10	2.308755e+01	4.488350e+01
2.610000e-06	3.360723e-06	6.199289e-10	2.334597e+01	4.527415e+01
2.620000e-06	3.397666e-06	6.210338e-10	2.360261e+01	4.565003e+01
2.630000e-06	3.434450e-06	6.226155e-10	2.385813e+01	4.601151e+01
2.640000e-06	3.471026e-06	6.275811e-10	2.411221e+01	4.635892e+01
2.650000e-06	3.507349e-06	6.345286e-10	2.436454e+01	4.669256e+01
2.660000e-06	3.543429e-06	6.408309e-10	2.461518e+01	4.701272e+01
2.670000e-06	3.579321e-06	6.456621e-10	2.486451e+01	4.731968e+01
2.680000e-06	3.615125e-06	6.482950e-10	2.511323e+01	4.761366e+01
2.690000e-06	3.650874e-06	6.485650e-10	2.536156e+01	4.789492e+01
2.700000e-06	3.686470e-06	6.488575e-10	2.560884e+01	4.816368e+01
2.710000e-06	3.721804e-06	6.511362e-10	2.585429e+01	4.842014e+01
2.720000e-06	3.756769e-06	6.551172e-10	2.609719e+01	4.866451e+01
2.730000e-06	3.791380e-06	6.588976e-10	2.633762e+01	4.889702e+01
2.740000e-06	3.825616e-06	6.624239e-10	2.657545e+01	4.911786e+01
2.750000e-06	3.859289e-06	6.674507e-10	2.680937e+01	4.932724e+01
2.760000e-06	3.892450e-06	6.725740e-10	2.703972e+01	4.952539e+01
2.770000e-06	3.925315e-06	6.752553e-10	2.726803e+01	4.971254e+01
2.780000e-06	3.957804e-06	6.778088e-10	2.749372e+01	4.988892e+01
2.790000e-06	3.989918e-06	6.800425e-10	2.771681e+01	5.005479e+01
2.800000e-06	4.021840e-06	6.812929e-10	2.793856e+01	5.021042e+01
2.810000e-06	4.053605e-06	6.825678e-10	2.815922e+01	5.035610e+01
2.820000e-06	4.085216e-06	6.857294e-10	2.837881e+01	5.049213e+01
2.830000e-06	4.116643e-06	6.893383e-10	2.859713e+01	5.061884e+01
2.840000e-06	4.147825e-06	6.925976e-10	2.881374e+01	5.073657e+01
2.850000e-06	4.178729e-06	6.954906e-10	2.902842e+01	5.084569e+01
2.860000e-06	4.209323e-06	6.978331e-10	2.924095e+01	5.094657e+01
2.870000e-06	4.239539e-06	6.994087e-10	2.945085e+01	5.103962e+01
2.880000e-06	4.269427e-06	7.005874e-10	2.965847e+01	5.112526e+01
2.890000e-06	4.299091e-06	7.031336e-10	2.986454e+01	5.120391e+01
2.900000e-06	4.328499e-06	7.059773e-10	3.006883e+01	5.127604e+01
