# Temperatura_=_14.65
# Concentracion g/m^3_=_1620.0
# C_Vs_to_Am_M_A/Vsm_=_65563218390.804596
# pendiente_HvsI_1/m_=_3716.3
# ordenada_HvsI_A/m_=_1297.0
# frecuencia_Hz_=_135099.88336374596

Tiempo_(s)	Campo_(V.s)	Magnetizacion_(V.s)	Campo_(kA/m)	Magnetizacion_(A/m)
0.000000e+00	-5.531486e-06	-1.465286e-09	-3.837169e+01	-9.882115e+01
1.000000e-08	-5.531723e-06	-1.463065e-09	-3.837334e+01	-9.882708e+01
2.000000e-08	-5.531785e-06	-1.463711e-09	-3.837377e+01	-9.883474e+01
3.000000e-08	-5.531560e-06	-1.465766e-09	-3.837221e+01	-9.884383e+01
4.000000e-08	-5.530830e-06	-1.468128e-09	-3.836715e+01	-9.885400e+01
5.000000e-08	-5.529420e-06	-1.464982e-09	-3.835736e+01	-9.886488e+01
6.000000e-08	-5.527384e-06	-1.456268e-09	-3.834324e+01	-9.887605e+01
7.000000e-08	-5.524743e-06	-1.444700e-09	-3.832492e+01	-9.888708e+01
8.000000e-08	-5.521553e-06	-1.446232e-09	-3.830280e+01	-9.889752e+01
9.000000e-08	-5.517964e-06	-1.490827e-09	-3.827789e+01	-9.890688e+01
1.000000e-07	-5.513959e-06	-1.530916e-09	-3.825011e+01	-9.891467e+01
1.100000e-07	-5.509559e-06	-1.492504e-09	-3.821959e+01	-9.892040e+01
1.200000e-07	-5.504990e-06	-1.389006e-09	-3.818790e+01	-9.892357e+01
1.300000e-07	-5.500294e-06	-1.421743e-09	-3.815532e+01	-9.892368e+01
1.400000e-07	-5.495210e-06	-1.477004e-09	-3.812005e+01	-9.892023e+01
1.500000e-07	-5.489690e-06	-1.493350e-09	-3.808176e+01	-9.891274e+01
1.600000e-07	-5.483849e-06	-1.408559e-09	-3.804124e+01	-9.890076e+01
1.700000e-07	-5.477665e-06	-1.427935e-09	-3.799834e+01	-9.888384e+01
1.800000e-07	-5.470934e-06	-1.512525e-09	-3.795165e+01	-9.886155e+01
1.900000e-07	-5.463733e-06	-1.525426e-09	-3.790169e+01	-9.883352e+01
2.000000e-07	-5.456335e-06	-1.464527e-09	-3.785038e+01	-9.879937e+01
2.100000e-07	-5.448726e-06	-1.434945e-09	-3.779760e+01	-9.875880e+01
2.200000e-07	-5.440864e-06	-1.498091e-09	-3.774305e+01	-9.871151e+01
2.300000e-07	-5.432691e-06	-1.519506e-09	-3.768636e+01	-9.865727e+01
2.400000e-07	-5.424035e-06	-1.499823e-09	-3.762631e+01	-9.859586e+01
2.500000e-07	-5.414716e-06	-1.469601e-09	-3.756167e+01	-9.852714e+01
2.600000e-07	-5.404647e-06	-1.512472e-09	-3.749182e+01	-9.845098e+01
2.700000e-07	-5.393887e-06	-1.493052e-09	-3.741718e+01	-9.836732e+01
2.800000e-07	-5.382716e-06	-1.468104e-09	-3.733969e+01	-9.827612e+01
2.900000e-07	-5.371207e-06	-1.455706e-09	-3.725985e+01	-9.817742e+01
3.000000e-07	-5.359355e-06	-1.504621e-09	-3.717763e+01	-9.807127e+01
3.100000e-07	-5.347238e-06	-1.491737e-09	-3.709358e+01	-9.795777e+01
3.200000e-07	-5.334694e-06	-1.477513e-09	-3.700656e+01	-9.783707e+01
3.300000e-07	-5.321588e-06	-1.475634e-09	-3.691564e+01	-9.770933e+01
3.400000e-07	-5.308093e-06	-1.510234e-09	-3.682203e+01	-9.757478e+01
3.500000e-07	-5.294209e-06	-1.487617e-09	-3.672572e+01	-9.743366e+01
3.600000e-07	-5.279766e-06	-1.463848e-09	-3.662553e+01	-9.728623e+01
3.700000e-07	-5.264822e-06	-1.471049e-09	-3.652186e+01	-9.713280e+01
3.800000e-07	-5.249526e-06	-1.494601e-09	-3.641575e+01	-9.697367e+01
3.900000e-07	-5.233709e-06	-1.461231e-09	-3.630603e+01	-9.680919e+01
4.000000e-07	-5.217313e-06	-1.445621e-09	-3.619229e+01	-9.663969e+01
4.100000e-07	-5.200731e-06	-1.478779e-09	-3.607726e+01	-9.646553e+01
4.200000e-07	-5.183881e-06	-1.465521e-09	-3.596038e+01	-9.628706e+01
4.300000e-07	-5.166609e-06	-1.421367e-09	-3.584056e+01	-9.610464e+01
4.400000e-07	-5.149008e-06	-1.440256e-09	-3.571846e+01	-9.591862e+01
4.500000e-07	-5.131039e-06	-1.481126e-09	-3.559381e+01	-9.572935e+01
4.600000e-07	-5.112696e-06	-1.422957e-09	-3.546656e+01	-9.553717e+01
4.700000e-07	-5.093971e-06	-1.398822e-09	-3.533668e+01	-9.534238e+01
4.800000e-07	-5.074868e-06	-1.435818e-09	-3.520416e+01	-9.514530e+01
4.900000e-07	-5.055422e-06	-1.435613e-09	-3.506926e+01	-9.494620e+01
5.000000e-07	-5.035745e-06	-1.391342e-09	-3.493276e+01	-9.474534e+01
5.100000e-07	-5.015942e-06	-1.430660e-09	-3.479539e+01	-9.454294e+01
5.200000e-07	-4.995840e-06	-1.435610e-09	-3.465594e+01	-9.433921e+01
5.300000e-07	-4.975279e-06	-1.396332e-09	-3.451331e+01	-9.413433e+01
5.400000e-07	-4.954358e-06	-1.405365e-09	-3.436818e+01	-9.392843e+01
5.500000e-07	-4.933152e-06	-1.440405e-09	-3.422108e+01	-9.372163e+01
5.600000e-07	-4.911585e-06	-1.381261e-09	-3.407147e+01	-9.351400e+01
5.700000e-07	-4.889653e-06	-1.364558e-09	-3.391933e+01	-9.330559e+01
5.800000e-07	-4.867375e-06	-1.405258e-09	-3.376479e+01	-9.309641e+01
5.900000e-07	-4.844704e-06	-1.399332e-09	-3.360752e+01	-9.288646e+01
6.000000e-07	-4.821705e-06	-1.363174e-09	-3.344798e+01	-9.267568e+01
6.100000e-07	-4.798435e-06	-1.391290e-09	-3.328655e+01	-9.246400e+01
6.200000e-07	-4.774921e-06	-1.388949e-09	-3.312344e+01	-9.225132e+01
6.300000e-07	-4.751223e-06	-1.356131e-09	-3.295905e+01	-9.203751e+01
6.400000e-07	-4.727352e-06	-1.363351e-09	-3.279345e+01	-9.182244e+01
6.500000e-07	-4.703165e-06	-1.377691e-09	-3.262567e+01	-9.160593e+01
6.600000e-07	-4.678509e-06	-1.355369e-09	-3.245463e+01	-9.138779e+01
6.700000e-07	-4.653302e-06	-1.357589e-09	-3.227977e+01	-9.116782e+01
6.800000e-07	-4.627488e-06	-1.371329e-09	-3.210070e+01	-9.094582e+01
6.900000e-07	-4.601069e-06	-1.357108e-09	-3.191743e+01	-9.072157e+01
7.000000e-07	-4.574070e-06	-1.350367e-09	-3.173014e+01	-9.049483e+01
7.100000e-07	-4.546732e-06	-1.353328e-09	-3.154050e+01	-9.026538e+01
7.200000e-07	-4.519248e-06	-1.339599e-09	-3.134984e+01	-9.003298e+01
7.300000e-07	-4.491621e-06	-1.327884e-09	-3.115820e+01	-8.979741e+01
7.400000e-07	-4.463873e-06	-1.338347e-09	-3.096571e+01	-8.955844e+01
7.500000e-07	-4.435985e-06	-1.332125e-09	-3.077225e+01	-8.931586e+01
7.600000e-07	-4.407767e-06	-1.325140e-09	-3.057650e+01	-8.906945e+01
7.700000e-07	-4.379135e-06	-1.323906e-09	-3.037789e+01	-8.881904e+01
7.800000e-07	-4.350135e-06	-1.318721e-09	-3.017671e+01	-8.856442e+01
7.900000e-07	-4.320855e-06	-1.303722e-09	-2.997360e+01	-8.830543e+01
8.000000e-07	-4.291343e-06	-1.306613e-09	-2.976888e+01	-8.804193e+01
8.100000e-07	-4.261555e-06	-1.299079e-09	-2.956223e+01	-8.777378e+01
8.200000e-07	-4.231460e-06	-1.287631e-09	-2.935347e+01	-8.750086e+01
8.300000e-07	-4.200985e-06	-1.287494e-09	-2.914206e+01	-8.722308e+01
8.400000e-07	-4.170094e-06	-1.296498e-09	-2.892778e+01	-8.694034e+01
8.500000e-07	-4.138985e-06	-1.285111e-09	-2.871197e+01	-8.665261e+01
8.600000e-07	-4.107701e-06	-1.279386e-09	-2.849496e+01	-8.635982e+01
8.700000e-07	-4.076224e-06	-1.278599e-09	-2.827660e+01	-8.606196e+01
8.800000e-07	-4.044642e-06	-1.272132e-09	-2.805752e+01	-8.575901e+01
8.900000e-07	-4.012877e-06	-1.259695e-09	-2.783717e+01	-8.545099e+01
9.000000e-07	-3.980847e-06	-1.263190e-09	-2.761497e+01	-8.513790e+01
9.100000e-07	-3.948526e-06	-1.258258e-09	-2.739076e+01	-8.481979e+01
9.200000e-07	-3.915768e-06	-1.246794e-09	-2.716353e+01	-8.449670e+01
9.300000e-07	-3.882505e-06	-1.244022e-09	-2.693278e+01	-8.416867e+01
9.400000e-07	-3.848837e-06	-1.246771e-09	-2.669923e+01	-8.383578e+01
9.500000e-07	-3.814749e-06	-1.237491e-09	-2.646276e+01	-8.349808e+01
9.600000e-07	-3.780137e-06	-1.229186e-09	-2.622266e+01	-8.315565e+01
9.700000e-07	-3.745140e-06	-1.225922e-09	-2.597988e+01	-8.280856e+01
9.800000e-07	-3.709961e-06	-1.214305e-09	-2.573585e+01	-8.245687e+01
9.900000e-07	-3.674557e-06	-1.202503e-09	-2.549026e+01	-8.210067e+01
1.000000e-06	-3.638991e-06	-1.200026e-09	-2.524353e+01	-8.174001e+01
1.010000e-06	-3.603304e-06	-1.196736e-09	-2.499598e+01	-8.137497e+01
1.020000e-06	-3.567400e-06	-1.185541e-09	-2.474691e+01	-8.100559e+01
1.030000e-06	-3.531342e-06	-1.183026e-09	-2.449678e+01	-8.063192e+01
1.040000e-06	-3.495104e-06	-1.181418e-09	-2.424540e+01	-8.025401e+01
1.050000e-06	-3.458533e-06	-1.172707e-09	-2.399170e+01	-7.987189e+01
1.060000e-06	-3.421650e-06	-1.161308e-09	-2.373585e+01	-7.948558e+01
1.070000e-06	-3.384521e-06	-1.156690e-09	-2.347829e+01	-7.909508e+01
1.080000e-06	-3.347202e-06	-1.149524e-09	-2.321941e+01	-7.870041e+01
1.090000e-06	-3.309698e-06	-1.144527e-09	-2.295924e+01	-7.830155e+01
1.100000e-06	-3.272031e-06	-1.140794e-09	-2.269794e+01	-7.789847e+01
1.110000e-06	-3.234108e-06	-1.137029e-09	-2.243488e+01	-7.749116e+01
1.120000e-06	-3.195897e-06	-1.128464e-09	-2.216981e+01	-7.707956e+01
1.130000e-06	-3.157413e-06	-1.125143e-09	-2.190285e+01	-7.666364e+01
1.140000e-06	-3.118680e-06	-1.118262e-09	-2.163416e+01	-7.624333e+01
1.150000e-06	-3.079773e-06	-1.109613e-09	-2.136427e+01	-7.581858e+01
1.160000e-06	-3.040663e-06	-1.100138e-09	-2.109296e+01	-7.538930e+01
1.170000e-06	-3.001382e-06	-1.092674e-09	-2.082047e+01	-7.495544e+01
1.180000e-06	-2.962000e-06	-1.082429e-09	-2.054728e+01	-7.451691e+01
1.190000e-06	-2.922507e-06	-1.075254e-09	-2.027331e+01	-7.407363e+01
1.200000e-06	-2.882854e-06	-1.068633e-09	-1.999825e+01	-7.362553e+01
1.210000e-06	-2.843055e-06	-1.059543e-09	-1.972216e+01	-7.317253e+01
1.220000e-06	-2.803142e-06	-1.051457e-09	-1.944529e+01	-7.271454e+01
1.230000e-06	-2.763143e-06	-1.047794e-09	-1.916781e+01	-7.225149e+01
1.240000e-06	-2.722940e-06	-1.041031e-09	-1.888893e+01	-7.178330e+01
1.250000e-06	-2.682430e-06	-1.031032e-09	-1.860791e+01	-7.130992e+01
1.260000e-06	-2.641665e-06	-1.024864e-09	-1.832512e+01	-7.083127e+01
1.270000e-06	-2.600635e-06	-1.018844e-09	-1.804050e+01	-7.034728e+01
1.280000e-06	-2.559314e-06	-1.009796e-09	-1.775386e+01	-6.985791e+01
1.290000e-06	-2.517681e-06	-1.002788e-09	-1.746505e+01	-6.936311e+01
1.300000e-06	-2.475728e-06	-9.951479e-10	-1.717403e+01	-6.886281e+01
1.310000e-06	-2.433459e-06	-9.863361e-10	-1.688081e+01	-6.835698e+01
1.320000e-06	-2.390777e-06	-9.794540e-10	-1.658473e+01	-6.784557e+01
1.330000e-06	-2.347837e-06	-9.705877e-10	-1.628685e+01	-6.732853e+01
1.340000e-06	-2.304769e-06	-9.595653e-10	-1.598809e+01	-6.680581e+01
1.350000e-06	-2.261539e-06	-9.464668e-10	-1.568821e+01	-6.627738e+01
1.360000e-06	-2.218154e-06	-9.370340e-10	-1.538724e+01	-6.574315e+01
1.370000e-06	-2.174588e-06	-9.296222e-10	-1.508503e+01	-6.520308e+01
1.380000e-06	-2.130889e-06	-9.250005e-10	-1.478189e+01	-6.465708e+01
1.390000e-06	-2.087128e-06	-9.185751e-10	-1.447832e+01	-6.410507e+01
1.400000e-06	-2.043364e-06	-9.107359e-10	-1.417474e+01	-6.354693e+01
1.410000e-06	-1.999530e-06	-9.011166e-10	-1.387066e+01	-6.298254e+01
1.420000e-06	-1.955617e-06	-8.902498e-10	-1.356604e+01	-6.241174e+01
1.430000e-06	-1.911644e-06	-8.812246e-10	-1.326100e+01	-6.183437e+01
1.440000e-06	-1.867588e-06	-8.740164e-10	-1.295539e+01	-6.125019e+01
1.450000e-06	-1.823425e-06	-8.661933e-10	-1.264902e+01	-6.065899e+01
1.460000e-06	-1.779067e-06	-8.576107e-10	-1.234132e+01	-6.006047e+01
1.470000e-06	-1.734564e-06	-8.442276e-10	-1.203260e+01	-5.945433e+01
1.480000e-06	-1.689898e-06	-8.304135e-10	-1.172275e+01	-5.884019e+01
1.490000e-06	-1.645087e-06	-8.150991e-10	-1.141191e+01	-5.821767e+01
1.500000e-06	-1.600181e-06	-8.001515e-10	-1.110039e+01	-5.758630e+01
1.510000e-06	-1.555149e-06	-7.853501e-10	-1.078801e+01	-5.694558e+01
1.520000e-06	-1.510046e-06	-7.762479e-10	-1.047513e+01	-5.629498e+01
1.530000e-06	-1.464807e-06	-7.720583e-10	-1.016131e+01	-5.563389e+01
1.540000e-06	-1.419360e-06	-7.658640e-10	-9.846045e+00	-5.496166e+01
1.550000e-06	-1.373812e-06	-7.549737e-10	-9.530077e+00	-5.427759e+01
1.560000e-06	-1.328211e-06	-7.381334e-10	-9.213749e+00	-5.358092e+01
1.570000e-06	-1.282508e-06	-7.195678e-10	-8.896708e+00	-5.287086e+01
1.580000e-06	-1.236710e-06	-7.029161e-10	-8.579008e+00	-5.214656e+01
1.590000e-06	-1.190859e-06	-6.913051e-10	-8.260943e+00	-5.140713e+01
1.600000e-06	-1.144968e-06	-6.843722e-10	-7.942595e+00	-5.065162e+01
1.610000e-06	-1.099045e-06	-6.784563e-10	-7.624030e+00	-4.987908e+01
1.620000e-06	-1.053057e-06	-6.724772e-10	-7.305016e+00	-4.908850e+01
1.630000e-06	-1.006947e-06	-6.654029e-10	-6.985151e+00	-4.827883e+01
1.640000e-06	-9.607404e-07	-6.545981e-10	-6.664617e+00	-4.744903e+01
1.650000e-06	-9.145137e-07	-6.394376e-10	-6.343945e+00	-4.659801e+01
1.660000e-06	-8.682123e-07	-6.204414e-10	-6.022754e+00	-4.572470e+01
1.670000e-06	-8.218377e-07	-6.013696e-10	-5.701055e+00	-4.482801e+01
1.680000e-06	-7.754565e-07	-5.842914e-10	-5.379311e+00	-4.390686e+01
1.690000e-06	-7.289257e-07	-5.710026e-10	-5.056528e+00	-4.296018e+01
1.700000e-06	-6.822954e-07	-5.585574e-10	-4.733056e+00	-4.198691e+01
1.710000e-06	-6.356163e-07	-5.477607e-10	-4.409245e+00	-4.098604e+01
1.720000e-06	-5.888932e-07	-5.375089e-10	-4.085129e+00	-3.995658e+01
1.730000e-06	-5.422530e-07	-5.248417e-10	-3.761587e+00	-3.889761e+01
1.740000e-06	-4.955462e-07	-5.072273e-10	-3.437584e+00	-3.780824e+01
1.750000e-06	-4.487118e-07	-4.857859e-10	-3.112696e+00	-3.668767e+01
1.760000e-06	-4.018907e-07	-4.617322e-10	-2.787900e+00	-3.553514e+01
1.770000e-06	-3.550496e-07	-4.395621e-10	-2.462965e+00	-3.435001e+01
1.780000e-06	-3.081257e-07	-4.228642e-10	-2.137456e+00	-3.313171e+01
1.790000e-06	-2.611903e-07	-4.089848e-10	-1.811866e+00	-3.187976e+01
1.800000e-06	-2.143054e-07	-3.949347e-10	-1.486628e+00	-3.059381e+01
1.810000e-06	-1.673495e-07	-3.778792e-10	-1.160897e+00	-2.927361e+01
1.820000e-06	-1.203391e-07	-3.579392e-10	-8.347873e-01	-2.791902e+01
1.830000e-06	-7.342362e-08	-3.370094e-10	-5.093367e-01	-2.653005e+01
1.840000e-06	-2.655235e-08	-3.171582e-10	-1.841926e-01	-2.510681e+01
1.850000e-06	2.031678e-08	-2.987929e-10	1.409367e-01	-2.364957e+01
1.860000e-06	6.728528e-08	-2.781662e-10	4.667553e-01	-2.215872e+01
1.870000e-06	1.142697e-07	-2.552346e-10	7.926846e-01	-2.063479e+01
1.880000e-06	1.611676e-07	-2.331438e-10	1.118013e+00	-1.907847e+01
1.890000e-06	2.080632e-07	-2.124693e-10	1.443326e+00	-1.749057e+01
1.900000e-06	2.550290e-07	-1.911316e-10	1.769126e+00	-1.587205e+01
1.910000e-06	3.020322e-07	-1.690736e-10	2.095185e+00	-1.422401e+01
1.920000e-06	3.490175e-07	-1.481771e-10	2.421120e+00	-1.254768e+01
1.930000e-06	3.959305e-07	-1.270237e-10	2.746554e+00	-1.084445e+01
1.940000e-06	4.426975e-07	-1.029649e-10	3.070975e+00	-9.115800e+00
1.950000e-06	4.894040e-07	-7.557394e-11	3.394976e+00	-7.363362e+00
1.960000e-06	5.360588e-07	-4.879906e-11	3.718618e+00	-5.588873e+00
1.970000e-06	5.826769e-07	-2.436991e-11	4.042006e+00	-3.794185e+00
1.980000e-06	6.292519e-07	9.206756e-14	4.365096e+00	-1.981249e+00
1.990000e-06	6.757071e-07	2.435955e-11	4.687353e+00	-1.521094e-01
2.000000e-06	7.221314e-07	4.954079e-11	5.009397e+00	1.691106e+00
2.010000e-06	7.685989e-07	7.748549e-11	5.331740e+00	3.546198e+00
2.020000e-06	8.149619e-07	1.060233e-10	5.653358e+00	5.410903e+00
2.030000e-06	8.612087e-07	1.323955e-10	5.974170e+00	7.282909e+00
2.040000e-06	9.074781e-07	1.577899e-10	6.295140e+00	9.159866e+00
2.050000e-06	9.537368e-07	1.829747e-10	6.616034e+00	1.103940e+01
2.060000e-06	9.998650e-07	2.082518e-10	6.936023e+00	1.291911e+01
2.070000e-06	1.045899e-06	2.342120e-10	7.255358e+00	1.479661e+01
2.080000e-06	1.091917e-06	2.607067e-10	7.574586e+00	1.666951e+01
2.090000e-06	1.137825e-06	2.896894e-10	7.893050e+00	1.853547e+01
2.100000e-06	1.183642e-06	3.176908e-10	8.210879e+00	2.039215e+01
2.110000e-06	1.229371e-06	3.428622e-10	8.528099e+00	2.223727e+01
2.120000e-06	1.274980e-06	3.667177e-10	8.844485e+00	2.406863e+01
2.130000e-06	1.320500e-06	3.897617e-10	9.160257e+00	2.588407e+01
2.140000e-06	1.365915e-06	4.121590e-10	9.475297e+00	2.768153e+01
2.150000e-06	1.411282e-06	4.353418e-10	9.790005e+00	2.945902e+01
2.160000e-06	1.456592e-06	4.602976e-10	1.010432e+01	3.121468e+01
2.170000e-06	1.501833e-06	4.858209e-10	1.041816e+01	3.294673e+01
2.180000e-06	1.546995e-06	5.095711e-10	1.073144e+01	3.465352e+01
2.190000e-06	1.592035e-06	5.317018e-10	1.104388e+01	3.633352e+01
2.200000e-06	1.636874e-06	5.531637e-10	1.135493e+01	3.798531e+01
2.210000e-06	1.681456e-06	5.729011e-10	1.166419e+01	3.960764e+01
2.220000e-06	1.725901e-06	5.901066e-10	1.197250e+01	4.119935e+01
2.230000e-06	1.770263e-06	6.077252e-10	1.228025e+01	4.275945e+01
2.240000e-06	1.814492e-06	6.264726e-10	1.258706e+01	4.428708e+01
2.250000e-06	1.858622e-06	6.446688e-10	1.289319e+01	4.578152e+01
2.260000e-06	1.902683e-06	6.639730e-10	1.319884e+01	4.724219e+01
2.270000e-06	1.946611e-06	6.852955e-10	1.350356e+01	4.866865e+01
2.280000e-06	1.990467e-06	7.067374e-10	1.380779e+01	5.006059e+01
2.290000e-06	2.034277e-06	7.268930e-10	1.411170e+01	5.141785e+01
2.300000e-06	2.077992e-06	7.450775e-10	1.441495e+01	5.274038e+01
2.310000e-06	2.121658e-06	7.601230e-10	1.471786e+01	5.402824e+01
2.320000e-06	2.165281e-06	7.737503e-10	1.502046e+01	5.528165e+01
2.330000e-06	2.208846e-06	7.879060e-10	1.532268e+01	5.650091e+01
2.340000e-06	2.252310e-06	8.030061e-10	1.562418e+01	5.768641e+01
2.350000e-06	2.295632e-06	8.195254e-10	1.592471e+01	5.883867e+01
2.360000e-06	2.338872e-06	8.370794e-10	1.622466e+01	5.995828e+01
2.370000e-06	2.381916e-06	8.529850e-10	1.652326e+01	6.104591e+01
2.380000e-06	2.424667e-06	8.662690e-10	1.681982e+01	6.210230e+01
2.390000e-06	2.467200e-06	8.793969e-10	1.711487e+01	6.312824e+01
2.400000e-06	2.509367e-06	8.927241e-10	1.740738e+01	6.412458e+01
2.410000e-06	2.551182e-06	9.062623e-10	1.769745e+01	6.509222e+01
2.420000e-06	2.592625e-06	9.219334e-10	1.798493e+01	6.603209e+01
2.430000e-06	2.633644e-06	9.375097e-10	1.826948e+01	6.694513e+01
2.440000e-06	2.674398e-06	9.507278e-10	1.855219e+01	6.783230e+01
2.450000e-06	2.714928e-06	9.627771e-10	1.883335e+01	6.869457e+01
2.460000e-06	2.755216e-06	9.743467e-10	1.911282e+01	6.953292e+01
2.470000e-06	2.795244e-06	9.871043e-10	1.939049e+01	7.034830e+01
2.480000e-06	2.835105e-06	1.000304e-09	1.966701e+01	7.114165e+01
2.490000e-06	2.874879e-06	1.013252e-09	1.994292e+01	7.191389e+01
2.500000e-06	2.914574e-06	1.025799e-09	2.021828e+01	7.266592e+01
2.510000e-06	2.954186e-06	1.035949e-09	2.049307e+01	7.339859e+01
2.520000e-06	2.993670e-06	1.042487e-09	2.076697e+01	7.411271e+01
2.530000e-06	3.032916e-06	1.048177e-09	2.103922e+01	7.480906e+01
2.540000e-06	3.071976e-06	1.056722e-09	2.131018e+01	7.548836e+01
2.550000e-06	3.110869e-06	1.067452e-09	2.157997e+01	7.615131e+01
2.560000e-06	3.149495e-06	1.079394e-09	2.184792e+01	7.679852e+01
2.570000e-06	3.187833e-06	1.090382e-09	2.211387e+01	7.743059e+01
2.580000e-06	3.225920e-06	1.098968e-09	2.237808e+01	7.804802e+01
2.590000e-06	3.263829e-06	1.105629e-09	2.264105e+01	7.865132e+01
2.600000e-06	3.301562e-06	1.112823e-09	2.290281e+01	7.924089e+01
2.610000e-06	3.339098e-06	1.121084e-09	2.316319e+01	7.981712e+01
2.620000e-06	3.376419e-06	1.129069e-09	2.342209e+01	8.038034e+01
2.630000e-06	3.413454e-06	1.137089e-09	2.367900e+01	8.093085e+01
2.640000e-06	3.450224e-06	1.144569e-09	2.393407e+01	8.146890e+01
2.650000e-06	3.486757e-06	1.150428e-09	2.418750e+01	8.199469e+01
2.660000e-06	3.523005e-06	1.156432e-09	2.443894e+01	8.250842e+01
2.670000e-06	3.559007e-06	1.163096e-09	2.468869e+01	8.301023e+01
2.680000e-06	3.594874e-06	1.169129e-09	2.493750e+01	8.350026e+01
2.690000e-06	3.630636e-06	1.175437e-09	2.518557e+01	8.397861e+01
2.700000e-06	3.666261e-06	1.182857e-09	2.543271e+01	8.444539e+01
2.710000e-06	3.701732e-06	1.189352e-09	2.567877e+01	8.490067e+01
2.720000e-06	3.737017e-06	1.195707e-09	2.592354e+01	8.534454e+01
2.730000e-06	3.772005e-06	1.203568e-09	2.616625e+01	8.577708e+01
2.740000e-06	3.806593e-06	1.210898e-09	2.640618e+01	8.619836e+01
2.750000e-06	3.840801e-06	1.218539e-09	2.664348e+01	8.660848e+01
2.760000e-06	3.874485e-06	1.226367e-09	2.687715e+01	8.700754e+01
2.770000e-06	3.907602e-06	1.232971e-09	2.710688e+01	8.739563e+01
2.780000e-06	3.940393e-06	1.238954e-09	2.733435e+01	8.777291e+01
2.790000e-06	3.972853e-06	1.244560e-09	2.755952e+01	8.813950e+01
2.800000e-06	4.004937e-06	1.249745e-09	2.778209e+01	8.849558e+01
2.810000e-06	4.036788e-06	1.254642e-09	2.800303e+01	8.884134e+01
2.820000e-06	4.068475e-06	1.259419e-09	2.822285e+01	8.917699e+01
2.830000e-06	4.100020e-06	1.265441e-09	2.844168e+01	8.950277e+01
2.840000e-06	4.131441e-06	1.271074e-09	2.865964e+01	8.981894e+01
2.850000e-06	4.162696e-06	1.275431e-09	2.887646e+01	9.012579e+01
2.860000e-06	4.193595e-06	1.280688e-09	2.909080e+01	9.042362e+01
2.870000e-06	4.224101e-06	1.287902e-09	2.930242e+01	9.071277e+01
2.880000e-06	4.254274e-06	1.295753e-09	2.951173e+01	9.099357e+01
2.890000e-06	4.284146e-06	1.302982e-09	2.971895e+01	9.126641e+01
2.900000e-06	4.313754e-06	1.309779e-09	2.992434e+01	9.153165e+01
