# Temperatura_=_14.55
# Concentracion g/m^3_=_1620.0
# C_Vs_to_Am_M_A/Vsm_=_65563218390.804596
# pendiente_HvsI_1/m_=_3716.3
# ordenada_HvsI_A/m_=_1297.0
# frecuencia_Hz_=_135101.90422167158

Tiempo_(s)	Campo_(V.s)	Magnetizacion_(V.s)	Campo_(kA/m)	Magnetizacion_(A/m)
0.000000e+00	-5.521989e-06	-1.539531e-09	-3.837154e+01	-1.029657e+02
1.000000e-08	-5.522151e-06	-1.538077e-09	-3.837267e+01	-1.029645e+02
2.000000e-08	-5.522048e-06	-1.535698e-09	-3.837195e+01	-1.029606e+02
3.000000e-08	-5.521553e-06	-1.533018e-09	-3.836851e+01	-1.029536e+02
4.000000e-08	-5.520532e-06	-1.528124e-09	-3.836141e+01	-1.029430e+02
5.000000e-08	-5.518904e-06	-1.521548e-09	-3.835011e+01	-1.029286e+02
6.000000e-08	-5.516626e-06	-1.515148e-09	-3.833427e+01	-1.029100e+02
7.000000e-08	-5.513762e-06	-1.525733e-09	-3.831437e+01	-1.028868e+02
8.000000e-08	-5.510417e-06	-1.537376e-09	-3.829113e+01	-1.028587e+02
9.000000e-08	-5.506584e-06	-1.537504e-09	-3.826449e+01	-1.028253e+02
1.000000e-07	-5.502347e-06	-1.537093e-09	-3.823505e+01	-1.027864e+02
1.100000e-07	-5.497846e-06	-1.543300e-09	-3.820377e+01	-1.027417e+02
1.200000e-07	-5.493185e-06	-1.482545e-09	-3.817139e+01	-1.026908e+02
1.300000e-07	-5.488286e-06	-1.484548e-09	-3.813734e+01	-1.026336e+02
1.400000e-07	-5.482974e-06	-1.513218e-09	-3.810043e+01	-1.025698e+02
1.500000e-07	-5.477238e-06	-1.569035e-09	-3.806057e+01	-1.024993e+02
1.600000e-07	-5.471111e-06	-1.523020e-09	-3.801800e+01	-1.024219e+02
1.700000e-07	-5.464634e-06	-1.478757e-09	-3.797299e+01	-1.023374e+02
1.800000e-07	-5.457774e-06	-1.515609e-09	-3.792532e+01	-1.022459e+02
1.900000e-07	-5.450518e-06	-1.557579e-09	-3.787490e+01	-1.021473e+02
2.000000e-07	-5.442988e-06	-1.529928e-09	-3.782258e+01	-1.020415e+02
2.100000e-07	-5.435186e-06	-1.500995e-09	-3.776836e+01	-1.019286e+02
2.200000e-07	-5.427077e-06	-1.538112e-09	-3.771201e+01	-1.018087e+02
2.300000e-07	-5.418699e-06	-1.559915e-09	-3.765379e+01	-1.016818e+02
2.400000e-07	-5.409860e-06	-1.545221e-09	-3.759237e+01	-1.015481e+02
2.500000e-07	-5.400237e-06	-1.517187e-09	-3.752550e+01	-1.014078e+02
2.600000e-07	-5.389841e-06	-1.527065e-09	-3.745327e+01	-1.012610e+02
2.700000e-07	-5.378946e-06	-1.512735e-09	-3.737755e+01	-1.011080e+02
2.800000e-07	-5.367668e-06	-1.509880e-09	-3.729919e+01	-1.009490e+02
2.900000e-07	-5.356028e-06	-1.496028e-09	-3.721830e+01	-1.007843e+02
3.000000e-07	-5.343990e-06	-1.509903e-09	-3.713465e+01	-1.006142e+02
3.100000e-07	-5.331505e-06	-1.504903e-09	-3.704789e+01	-1.004389e+02
3.200000e-07	-5.318577e-06	-1.526657e-09	-3.695806e+01	-1.002588e+02
3.300000e-07	-5.305251e-06	-1.497977e-09	-3.686546e+01	-1.000742e+02
3.400000e-07	-5.291539e-06	-1.487396e-09	-3.677018e+01	-9.988544e+01
3.500000e-07	-5.277480e-06	-1.498751e-09	-3.667248e+01	-9.969279e+01
3.600000e-07	-5.263104e-06	-1.513246e-09	-3.657258e+01	-9.949661e+01
3.700000e-07	-5.248185e-06	-1.470569e-09	-3.646891e+01	-9.929721e+01
3.800000e-07	-5.232624e-06	-1.477553e-09	-3.636078e+01	-9.909489e+01
3.900000e-07	-5.216459e-06	-1.495458e-09	-3.624846e+01	-9.888996e+01
4.000000e-07	-5.199888e-06	-1.461155e-09	-3.613331e+01	-9.868269e+01
4.100000e-07	-5.183107e-06	-1.446451e-09	-3.601670e+01	-9.847336e+01
4.200000e-07	-5.166042e-06	-1.496088e-09	-3.589811e+01	-9.826220e+01
4.300000e-07	-5.148669e-06	-1.478465e-09	-3.577739e+01	-9.804945e+01
4.400000e-07	-5.130859e-06	-1.424542e-09	-3.565363e+01	-9.783529e+01
4.500000e-07	-5.112562e-06	-1.470678e-09	-3.552649e+01	-9.761992e+01
4.600000e-07	-5.093869e-06	-1.486241e-09	-3.539659e+01	-9.740347e+01
4.700000e-07	-5.074847e-06	-1.409191e-09	-3.526441e+01	-9.718608e+01
4.800000e-07	-5.055597e-06	-1.416597e-09	-3.513065e+01	-9.696784e+01
4.900000e-07	-5.036069e-06	-1.486482e-09	-3.499495e+01	-9.674882e+01
5.000000e-07	-5.016258e-06	-1.431794e-09	-3.485729e+01	-9.652907e+01
5.100000e-07	-4.996203e-06	-1.399066e-09	-3.471792e+01	-9.630860e+01
5.200000e-07	-4.975916e-06	-1.462078e-09	-3.457695e+01	-9.608741e+01
5.300000e-07	-4.955345e-06	-1.449617e-09	-3.443401e+01	-9.586547e+01
5.400000e-07	-4.934332e-06	-1.374235e-09	-3.428799e+01	-9.564273e+01
5.500000e-07	-4.912857e-06	-1.419927e-09	-3.413876e+01	-9.541911e+01
5.600000e-07	-4.891039e-06	-1.441678e-09	-3.398715e+01	-9.519452e+01
5.700000e-07	-4.868956e-06	-1.379680e-09	-3.383370e+01	-9.496886e+01
5.800000e-07	-4.846510e-06	-1.389262e-09	-3.367773e+01	-9.474199e+01
5.900000e-07	-4.823623e-06	-1.444223e-09	-3.351869e+01	-9.451379e+01
6.000000e-07	-4.800346e-06	-1.393571e-09	-3.335694e+01	-9.428412e+01
6.100000e-07	-4.776797e-06	-1.367585e-09	-3.319330e+01	-9.405281e+01
6.200000e-07	-4.753102e-06	-1.404329e-09	-3.302865e+01	-9.381971e+01
6.300000e-07	-4.729255e-06	-1.392068e-09	-3.286294e+01	-9.358468e+01
6.400000e-07	-4.705122e-06	-1.355899e-09	-3.269524e+01	-9.334754e+01
6.500000e-07	-4.680651e-06	-1.382979e-09	-3.252520e+01	-9.310814e+01
6.600000e-07	-4.655757e-06	-1.384663e-09	-3.235221e+01	-9.286633e+01
6.700000e-07	-4.630185e-06	-1.354248e-09	-3.217452e+01	-9.262198e+01
6.800000e-07	-4.604000e-06	-1.361024e-09	-3.199256e+01	-9.237493e+01
6.900000e-07	-4.577435e-06	-1.376932e-09	-3.180796e+01	-9.212507e+01
7.000000e-07	-4.550420e-06	-1.353695e-09	-3.162024e+01	-9.187228e+01
7.100000e-07	-4.522997e-06	-1.345671e-09	-3.142969e+01	-9.161645e+01
7.200000e-07	-4.495394e-06	-1.357473e-09	-3.123787e+01	-9.135751e+01
7.300000e-07	-4.467674e-06	-1.349542e-09	-3.104525e+01	-9.109537e+01
7.400000e-07	-4.439753e-06	-1.338956e-09	-3.085124e+01	-9.082997e+01
7.500000e-07	-4.411608e-06	-1.344143e-09	-3.065566e+01	-9.056127e+01
7.600000e-07	-4.383155e-06	-1.342798e-09	-3.045794e+01	-9.028922e+01
7.700000e-07	-4.354311e-06	-1.327803e-09	-3.025751e+01	-9.001382e+01
7.800000e-07	-4.325177e-06	-1.325154e-09	-3.005506e+01	-8.973504e+01
7.900000e-07	-4.295783e-06	-1.323808e-09	-2.985081e+01	-8.945289e+01
8.000000e-07	-4.266080e-06	-1.316750e-09	-2.964440e+01	-8.916739e+01
8.100000e-07	-4.236141e-06	-1.311203e-09	-2.943636e+01	-8.887855e+01
8.200000e-07	-4.205964e-06	-1.315633e-09	-2.922667e+01	-8.858641e+01
8.300000e-07	-4.175422e-06	-1.307694e-09	-2.901443e+01	-8.829099e+01
8.400000e-07	-4.144486e-06	-1.303316e-09	-2.879946e+01	-8.799232e+01
8.500000e-07	-4.113175e-06	-1.302509e-09	-2.858189e+01	-8.769046e+01
8.600000e-07	-4.081734e-06	-1.296889e-09	-2.836341e+01	-8.738542e+01
8.700000e-07	-4.050267e-06	-1.284146e-09	-2.814475e+01	-8.707726e+01
8.800000e-07	-4.018620e-06	-1.284679e-09	-2.792484e+01	-8.676598e+01
8.900000e-07	-3.986757e-06	-1.277465e-09	-2.770343e+01	-8.645162e+01
9.000000e-07	-3.954606e-06	-1.265934e-09	-2.748001e+01	-8.613418e+01
9.100000e-07	-3.922068e-06	-1.262641e-09	-2.725391e+01	-8.581368e+01
9.200000e-07	-3.889075e-06	-1.264006e-09	-2.702465e+01	-8.549009e+01
9.300000e-07	-3.855658e-06	-1.252994e-09	-2.679244e+01	-8.516341e+01
9.400000e-07	-3.821815e-06	-1.248601e-09	-2.655726e+01	-8.483358e+01
9.500000e-07	-3.787575e-06	-1.246795e-09	-2.631933e+01	-8.450056e+01
9.600000e-07	-3.752978e-06	-1.233572e-09	-2.607893e+01	-8.416428e+01
9.700000e-07	-3.718016e-06	-1.216475e-09	-2.583598e+01	-8.382466e+01
9.800000e-07	-3.682774e-06	-1.211279e-09	-2.559109e+01	-8.348159e+01
9.900000e-07	-3.647317e-06	-1.203713e-09	-2.534470e+01	-8.313497e+01
1.000000e-06	-3.611703e-06	-1.194115e-09	-2.509723e+01	-8.278464e+01
1.010000e-06	-3.575942e-06	-1.195661e-09	-2.484873e+01	-8.243048e+01
1.020000e-06	-3.540052e-06	-1.197160e-09	-2.459933e+01	-8.207232e+01
1.030000e-06	-3.504048e-06	-1.189475e-09	-2.434915e+01	-8.170998e+01
1.040000e-06	-3.467829e-06	-1.182918e-09	-2.409747e+01	-8.134328e+01
1.050000e-06	-3.431291e-06	-1.178936e-09	-2.384357e+01	-8.097203e+01
1.060000e-06	-3.394443e-06	-1.166967e-09	-2.358752e+01	-8.059602e+01
1.070000e-06	-3.357329e-06	-1.157666e-09	-2.332962e+01	-8.021506e+01
1.080000e-06	-3.319944e-06	-1.154937e-09	-2.306983e+01	-7.982893e+01
1.090000e-06	-3.282300e-06	-1.150802e-09	-2.280825e+01	-7.943743e+01
1.100000e-06	-3.244435e-06	-1.141001e-09	-2.254513e+01	-7.904035e+01
1.110000e-06	-3.206298e-06	-1.138533e-09	-2.228012e+01	-7.863750e+01
1.120000e-06	-3.167831e-06	-1.135493e-09	-2.201282e+01	-7.822869e+01
1.130000e-06	-3.129157e-06	-1.126725e-09	-2.174408e+01	-7.781372e+01
1.140000e-06	-3.090439e-06	-1.117556e-09	-2.147504e+01	-7.739245e+01
1.150000e-06	-3.051551e-06	-1.113502e-09	-2.120480e+01	-7.696471e+01
1.160000e-06	-3.012398e-06	-1.102342e-09	-2.093274e+01	-7.653037e+01
1.170000e-06	-2.973039e-06	-1.090009e-09	-2.065924e+01	-7.608932e+01
1.180000e-06	-2.933514e-06	-1.084123e-09	-2.038458e+01	-7.564146e+01
1.190000e-06	-2.893869e-06	-1.080213e-09	-2.010909e+01	-7.518672e+01
1.200000e-06	-2.854113e-06	-1.070353e-09	-1.983283e+01	-7.472505e+01
1.210000e-06	-2.814269e-06	-1.063716e-09	-1.955597e+01	-7.425644e+01
1.220000e-06	-2.774289e-06	-1.058612e-09	-1.927815e+01	-7.378088e+01
1.230000e-06	-2.734151e-06	-1.053374e-09	-1.899924e+01	-7.329841e+01
1.240000e-06	-2.693814e-06	-1.047756e-09	-1.871895e+01	-7.280906e+01
1.250000e-06	-2.653224e-06	-1.042582e-09	-1.843689e+01	-7.231291e+01
1.260000e-06	-2.612420e-06	-1.034029e-09	-1.815334e+01	-7.181006e+01
1.270000e-06	-2.571345e-06	-1.023578e-09	-1.786792e+01	-7.130062e+01
1.280000e-06	-2.529936e-06	-1.014768e-09	-1.758018e+01	-7.078472e+01
1.290000e-06	-2.488199e-06	-1.007525e-09	-1.729015e+01	-7.026251e+01
1.300000e-06	-2.446067e-06	-9.996370e-10	-1.699739e+01	-6.973414e+01
1.310000e-06	-2.403615e-06	-9.939166e-10	-1.670239e+01	-6.919977e+01
1.320000e-06	-2.360945e-06	-9.889080e-10	-1.640588e+01	-6.865958e+01
1.330000e-06	-2.317964e-06	-9.807025e-10	-1.610721e+01	-6.811374e+01
1.340000e-06	-2.274775e-06	-9.726224e-10	-1.580710e+01	-6.756239e+01
1.350000e-06	-2.231439e-06	-9.653878e-10	-1.550596e+01	-6.700570e+01
1.360000e-06	-2.187980e-06	-9.562572e-10	-1.520397e+01	-6.644379e+01
1.370000e-06	-2.144454e-06	-9.470907e-10	-1.490151e+01	-6.587679e+01
1.380000e-06	-2.100843e-06	-9.387551e-10	-1.459847e+01	-6.530478e+01
1.390000e-06	-2.057158e-06	-9.286523e-10	-1.429491e+01	-6.472783e+01
1.400000e-06	-2.013364e-06	-9.196749e-10	-1.399059e+01	-6.414595e+01
1.410000e-06	-1.969496e-06	-9.115075e-10	-1.368576e+01	-6.355912e+01
1.420000e-06	-1.925547e-06	-9.054230e-10	-1.338036e+01	-6.296727e+01
1.430000e-06	-1.881566e-06	-8.983631e-10	-1.307474e+01	-6.237030e+01
1.440000e-06	-1.837481e-06	-8.908943e-10	-1.276840e+01	-6.176802e+01
1.450000e-06	-1.793225e-06	-8.792292e-10	-1.246087e+01	-6.116021e+01
1.460000e-06	-1.748835e-06	-8.657336e-10	-1.215241e+01	-6.054657e+01
1.470000e-06	-1.704255e-06	-8.524864e-10	-1.184264e+01	-5.992674e+01
1.480000e-06	-1.659507e-06	-8.420929e-10	-1.153168e+01	-5.930028e+01
1.490000e-06	-1.614661e-06	-8.314904e-10	-1.122006e+01	-5.866670e+01
1.500000e-06	-1.569770e-06	-8.203943e-10	-1.090811e+01	-5.802542e+01
1.510000e-06	-1.524747e-06	-8.127983e-10	-1.059526e+01	-5.737579e+01
1.520000e-06	-1.479534e-06	-8.056895e-10	-1.028108e+01	-5.671710e+01
1.530000e-06	-1.434217e-06	-7.946377e-10	-9.966179e+00	-5.604856e+01
1.540000e-06	-1.388810e-06	-7.821072e-10	-9.650649e+00	-5.536930e+01
1.550000e-06	-1.343373e-06	-7.684001e-10	-9.334917e+00	-5.467840e+01
1.560000e-06	-1.297920e-06	-7.550424e-10	-9.019066e+00	-5.397486e+01
1.570000e-06	-1.252346e-06	-7.418867e-10	-8.702378e+00	-5.325764e+01
1.580000e-06	-1.206609e-06	-7.310060e-10	-8.384560e+00	-5.252563e+01
1.590000e-06	-1.160761e-06	-7.225932e-10	-8.065970e+00	-5.177766e+01
1.600000e-06	-1.114852e-06	-7.120140e-10	-7.746953e+00	-5.101255e+01
1.610000e-06	-1.068900e-06	-6.986375e-10	-7.427636e+00	-5.022905e+01
1.620000e-06	-1.022873e-06	-6.846169e-10	-7.107803e+00	-4.942590e+01
1.630000e-06	-9.767254e-07	-6.730567e-10	-6.787130e+00	-4.860181e+01
1.640000e-06	-9.305576e-07	-6.599930e-10	-6.466317e+00	-4.775548e+01
1.650000e-06	-8.843852e-07	-6.468080e-10	-6.145471e+00	-4.688562e+01
1.660000e-06	-8.381117e-07	-6.331613e-10	-5.823923e+00	-4.599094e+01
1.670000e-06	-7.917780e-07	-6.185985e-10	-5.501956e+00	-4.507015e+01
1.680000e-06	-7.454255e-07	-5.999578e-10	-5.179859e+00	-4.412202e+01
1.690000e-06	-6.990801e-07	-5.779369e-10	-4.857811e+00	-4.314534e+01
1.700000e-06	-6.527025e-07	-5.588619e-10	-4.535540e+00	-4.213894e+01
1.710000e-06	-6.061937e-07	-5.443145e-10	-4.212356e+00	-4.110173e+01
1.720000e-06	-5.596209e-07	-5.315853e-10	-3.888729e+00	-4.003268e+01
1.730000e-06	-5.129838e-07	-5.179919e-10	-3.564654e+00	-3.893083e+01
1.740000e-06	-4.663149e-07	-5.007257e-10	-3.240358e+00	-3.779532e+01
1.750000e-06	-4.196841e-07	-4.785459e-10	-2.916327e+00	-3.662539e+01
1.760000e-06	-3.729961e-07	-4.551826e-10	-2.591898e+00	-3.542038e+01
1.770000e-06	-3.261935e-07	-4.363811e-10	-2.266674e+00	-3.417975e+01
1.780000e-06	-2.793075e-07	-4.204740e-10	-1.940869e+00	-3.290310e+01
1.790000e-06	-2.324171e-07	-4.052841e-10	-1.615035e+00	-3.159012e+01
1.800000e-06	-1.855135e-07	-3.888832e-10	-1.289108e+00	-3.024067e+01
1.810000e-06	-1.386337e-07	-3.690937e-10	-9.633463e-01	-2.885474e+01
1.820000e-06	-9.175835e-08	-3.493379e-10	-6.376162e-01	-2.743248e+01
1.830000e-06	-4.487625e-08	-3.293104e-10	-3.118389e-01	-2.597417e+01
1.840000e-06	1.908577e-09	-3.082991e-10	1.326244e-02	-2.448024e+01
1.850000e-06	4.872772e-08	-2.859906e-10	3.386022e-01	-2.295129e+01
1.860000e-06	9.560898e-08	-2.648732e-10	6.643736e-01	-2.138806e+01
1.870000e-06	1.424629e-07	-2.421740e-10	9.899548e-01	-1.979146e+01
1.880000e-06	1.893048e-07	-2.178174e-10	1.315453e+00	-1.816252e+01
1.890000e-06	2.361758e-07	-1.972122e-10	1.641153e+00	-1.650243e+01
1.900000e-06	2.830284e-07	-1.750559e-10	1.966725e+00	-1.481253e+01
1.910000e-06	3.298109e-07	-1.529076e-10	2.291811e+00	-1.309430e+01
1.920000e-06	3.765372e-07	-1.338902e-10	2.616505e+00	-1.134933e+01
1.930000e-06	4.232462e-07	-1.118149e-10	2.941080e+00	-9.579350e+00
1.940000e-06	4.699773e-07	-8.524433e-11	3.265807e+00	-7.786199e+00
1.950000e-06	5.166933e-07	-5.803679e-11	3.590430e+00	-5.971824e+00
1.960000e-06	5.633372e-07	-3.420261e-11	3.914552e+00	-4.138268e+00
1.970000e-06	6.098308e-07	-9.405973e-12	4.237630e+00	-2.287660e+00
1.980000e-06	6.562112e-07	1.298842e-11	4.559921e+00	-4.222035e-01
1.990000e-06	7.025810e-07	3.577662e-11	4.882139e+00	1.455834e+00
2.000000e-06	7.488919e-07	6.145362e-11	5.203946e+00	3.344136e+00
2.010000e-06	7.951057e-07	9.186574e-11	5.525080e+00	5.240343e+00
2.020000e-06	8.412916e-07	1.233752e-10	5.846019e+00	7.142074e+00
2.030000e-06	8.874556e-07	1.525911e-10	6.166806e+00	9.046930e+00
2.040000e-06	9.336070e-07	1.800889e-10	6.487506e+00	1.095252e+01
2.050000e-06	9.797588e-07	2.056771e-10	6.808209e+00	1.285644e+01
2.060000e-06	1.025783e-06	2.297157e-10	7.128026e+00	1.475635e+01
2.070000e-06	1.071700e-06	2.523287e-10	7.447098e+00	1.664991e+01
2.080000e-06	1.117564e-06	2.769577e-10	7.765798e+00	1.853485e+01
2.090000e-06	1.163296e-06	3.048827e-10	8.083580e+00	2.040895e+01
2.100000e-06	1.208996e-06	3.323252e-10	8.401144e+00	2.227006e+01
2.110000e-06	1.254627e-06	3.583315e-10	8.718232e+00	2.411612e+01
2.120000e-06	1.300072e-06	3.831463e-10	9.034021e+00	2.594514e+01
2.130000e-06	1.345460e-06	4.057659e-10	9.349415e+00	2.775524e+01
2.140000e-06	1.390821e-06	4.259955e-10	9.664625e+00	2.954465e+01
2.150000e-06	1.436114e-06	4.465831e-10	9.979360e+00	3.131171e+01
2.160000e-06	1.481304e-06	4.711017e-10	1.029338e+01	3.305486e+01
2.170000e-06	1.526421e-06	4.970943e-10	1.060689e+01	3.477270e+01
2.180000e-06	1.571511e-06	5.231974e-10	1.092021e+01	3.646392e+01
2.190000e-06	1.616419e-06	5.471964e-10	1.123227e+01	3.812736e+01
2.200000e-06	1.661063e-06	5.687151e-10	1.154250e+01	3.976199e+01
2.210000e-06	1.705538e-06	5.843009e-10	1.185155e+01	4.136690e+01
2.220000e-06	1.749871e-06	6.017088e-10	1.215961e+01	4.294133e+01
2.230000e-06	1.794063e-06	6.216235e-10	1.246670e+01	4.448464e+01
2.240000e-06	1.838172e-06	6.412057e-10	1.277321e+01	4.599631e+01
2.250000e-06	1.882200e-06	6.619165e-10	1.307915e+01	4.747597e+01
2.260000e-06	1.926117e-06	6.854185e-10	1.338432e+01	4.892335e+01
2.270000e-06	1.969942e-06	7.074073e-10	1.368886e+01	5.033831e+01
2.280000e-06	2.013734e-06	7.282406e-10	1.399316e+01	5.172082e+01
2.290000e-06	2.057496e-06	7.489856e-10	1.429725e+01	5.307095e+01
2.300000e-06	2.101219e-06	7.650119e-10	1.460108e+01	5.438887e+01
2.310000e-06	2.144854e-06	7.795879e-10	1.490429e+01	5.567486e+01
2.320000e-06	2.188379e-06	7.968865e-10	1.520675e+01	5.692925e+01
2.330000e-06	2.231814e-06	8.144499e-10	1.550857e+01	5.815247e+01
2.340000e-06	2.275144e-06	8.314315e-10	1.580966e+01	5.934503e+01
2.350000e-06	2.318288e-06	8.504787e-10	1.610946e+01	6.050747e+01
2.360000e-06	2.361181e-06	8.674529e-10	1.640752e+01	6.164040e+01
2.370000e-06	2.403839e-06	8.792853e-10	1.670395e+01	6.274448e+01
2.380000e-06	2.446160e-06	8.911477e-10	1.699803e+01	6.382039e+01
2.390000e-06	2.488153e-06	9.051385e-10	1.728983e+01	6.486884e+01
2.400000e-06	2.529927e-06	9.207179e-10	1.758012e+01	6.589057e+01
2.410000e-06	2.571405e-06	9.391846e-10	1.786834e+01	6.688631e+01
2.420000e-06	2.612522e-06	9.546378e-10	1.815405e+01	6.785683e+01
2.430000e-06	2.653285e-06	9.662631e-10	1.843731e+01	6.880286e+01
2.440000e-06	2.693754e-06	9.749843e-10	1.871853e+01	6.972514e+01
2.450000e-06	2.734026e-06	9.828731e-10	1.899837e+01	7.062441e+01
2.460000e-06	2.774085e-06	9.916647e-10	1.927673e+01	7.150136e+01
2.470000e-06	2.814002e-06	1.003527e-09	1.955411e+01	7.235667e+01
2.480000e-06	2.853871e-06	1.019681e-09	1.983116e+01	7.319101e+01
2.490000e-06	2.893603e-06	1.037342e-09	2.010725e+01	7.400499e+01
2.500000e-06	2.933171e-06	1.053142e-09	2.038220e+01	7.479920e+01
2.510000e-06	2.972594e-06	1.064342e-09	2.065615e+01	7.557421e+01
2.520000e-06	3.011826e-06	1.070910e-09	2.092876e+01	7.633052e+01
2.530000e-06	3.050811e-06	1.076323e-09	2.119967e+01	7.706862e+01
2.540000e-06	3.089530e-06	1.082242e-09	2.146872e+01	7.778896e+01
2.550000e-06	3.128086e-06	1.090289e-09	2.173664e+01	7.849195e+01
2.560000e-06	3.166513e-06	1.100421e-09	2.200366e+01	7.917795e+01
2.570000e-06	3.204670e-06	1.110485e-09	2.226881e+01	7.984731e+01
2.580000e-06	3.242548e-06	1.120489e-09	2.253202e+01	8.050035e+01
2.590000e-06	3.280276e-06	1.130165e-09	2.279418e+01	8.113733e+01
2.600000e-06	3.317855e-06	1.138890e-09	2.305532e+01	8.175852e+01
2.610000e-06	3.355241e-06	1.147803e-09	2.331511e+01	8.236415e+01
2.620000e-06	3.392335e-06	1.156424e-09	2.357287e+01	8.295443e+01
2.630000e-06	3.429087e-06	1.163729e-09	2.382825e+01	8.352956e+01
2.640000e-06	3.465640e-06	1.169612e-09	2.408225e+01	8.408973e+01
2.650000e-06	3.501906e-06	1.176052e-09	2.433427e+01	8.463511e+01
2.660000e-06	3.537873e-06	1.184463e-09	2.458419e+01	8.516587e+01
2.670000e-06	3.573745e-06	1.191940e-09	2.483346e+01	8.568220e+01
2.680000e-06	3.609541e-06	1.198245e-09	2.508220e+01	8.618427e+01
2.690000e-06	3.645233e-06	1.203718e-09	2.533022e+01	8.667226e+01
2.700000e-06	3.680766e-06	1.208158e-09	2.557713e+01	8.714636e+01
2.710000e-06	3.716051e-06	1.212834e-09	2.582233e+01	8.760679e+01
2.720000e-06	3.751085e-06	1.219730e-09	2.606577e+01	8.805376e+01
2.730000e-06	3.785803e-06	1.227124e-09	2.630702e+01	8.848751e+01
2.740000e-06	3.820074e-06	1.234143e-09	2.654517e+01	8.890829e+01
2.750000e-06	3.853899e-06	1.241952e-09	2.678022e+01	8.931640e+01
2.760000e-06	3.887252e-06	1.249273e-09	2.701198e+01	8.971212e+01
2.770000e-06	3.920004e-06	1.254963e-09	2.723957e+01	9.009579e+01
2.780000e-06	3.952290e-06	1.259934e-09	2.746392e+01	9.046774e+01
2.790000e-06	3.984341e-06	1.264441e-09	2.768663e+01	9.082835e+01
2.800000e-06	4.016232e-06	1.270659e-09	2.790824e+01	9.117800e+01
2.810000e-06	4.047981e-06	1.278175e-09	2.812887e+01	9.151710e+01
2.820000e-06	4.079573e-06	1.287042e-09	2.834839e+01	9.184609e+01
2.830000e-06	4.111021e-06	1.295643e-09	2.856692e+01	9.216540e+01
2.840000e-06	4.142261e-06	1.301829e-09	2.878400e+01	9.247549e+01
2.850000e-06	4.173215e-06	1.305427e-09	2.899910e+01	9.277684e+01
2.860000e-06	4.203796e-06	1.308171e-09	2.921160e+01	9.306991e+01
2.870000e-06	4.234018e-06	1.312807e-09	2.942161e+01	9.335521e+01
2.880000e-06	4.263931e-06	1.319473e-09	2.962947e+01	9.363321e+01
2.890000e-06	4.293506e-06	1.328262e-09	2.983498e+01	9.390439e+01
2.900000e-06	4.322841e-06	1.337865e-09	3.003882e+01	9.416924e+01
