# Temperatura_=_-14.53
# Concentracion g/m^3_=_1620.0
# C_Vs_to_Am_M_A/Vsm_=_65563218390.804596
# pendiente_HvsI_1/m_=_3716.3
# ordenada_HvsI_A/m_=_1297.0
# frecuencia_Hz_=_135110.9983989361

Tiempo_(s)	Campo_(V.s)	Magnetizacion_(V.s)	Campo_(kA/m)	Magnetizacion_(A/m)
0.000000e+00	-5.512086e-06	-8.230208e-10	-3.836562e+01	-5.541031e+01
1.000000e-08	-5.512197e-06	-8.188318e-10	-3.836639e+01	-5.542916e+01
2.000000e-08	-5.512074e-06	-8.130529e-10	-3.836553e+01	-5.545069e+01
3.000000e-08	-5.511569e-06	-8.097561e-10	-3.836202e+01	-5.547455e+01
4.000000e-08	-5.510671e-06	-8.079765e-10	-3.835577e+01	-5.550038e+01
5.000000e-08	-5.509289e-06	-8.023708e-10	-3.834615e+01	-5.552777e+01
6.000000e-08	-5.507269e-06	-7.963649e-10	-3.833209e+01	-5.555632e+01
7.000000e-08	-5.504594e-06	-7.877756e-10	-3.831347e+01	-5.558559e+01
8.000000e-08	-5.501313e-06	-7.717716e-10	-3.829064e+01	-5.561512e+01
9.000000e-08	-5.497563e-06	-8.181855e-10	-3.826453e+01	-5.564445e+01
1.000000e-07	-5.493477e-06	-8.939316e-10	-3.823609e+01	-5.567311e+01
1.100000e-07	-5.489078e-06	-8.293455e-10	-3.820548e+01	-5.570065e+01
1.200000e-07	-5.484531e-06	-6.997859e-10	-3.817383e+01	-5.572660e+01
1.300000e-07	-5.479761e-06	-7.438000e-10	-3.814062e+01	-5.575052e+01
1.400000e-07	-5.474452e-06	-8.430885e-10	-3.810367e+01	-5.577196e+01
1.500000e-07	-5.468672e-06	-8.584996e-10	-3.806345e+01	-5.579052e+01
1.600000e-07	-5.462605e-06	-7.236713e-10	-3.802122e+01	-5.580581e+01
1.700000e-07	-5.456265e-06	-7.978559e-10	-3.797709e+01	-5.581747e+01
1.800000e-07	-5.449339e-06	-8.897171e-10	-3.792888e+01	-5.582517e+01
1.900000e-07	-5.441876e-06	-8.989550e-10	-3.787693e+01	-5.582863e+01
2.000000e-07	-5.434292e-06	-7.481147e-10	-3.782415e+01	-5.582759e+01
2.100000e-07	-5.426541e-06	-7.589018e-10	-3.777020e+01	-5.582186e+01
2.200000e-07	-5.418461e-06	-8.345437e-10	-3.771396e+01	-5.581126e+01
2.300000e-07	-5.410153e-06	-8.804481e-10	-3.765613e+01	-5.579569e+01
2.400000e-07	-5.401467e-06	-8.194632e-10	-3.759568e+01	-5.577508e+01
2.500000e-07	-5.392086e-06	-8.119976e-10	-3.753038e+01	-5.574942e+01
2.600000e-07	-5.381844e-06	-8.552212e-10	-3.745910e+01	-5.571873e+01
2.700000e-07	-5.371012e-06	-8.260940e-10	-3.738370e+01	-5.568310e+01
2.800000e-07	-5.359771e-06	-7.902450e-10	-3.730547e+01	-5.564266e+01
2.900000e-07	-5.348028e-06	-7.897369e-10	-3.722373e+01	-5.559759e+01
3.000000e-07	-5.335951e-06	-8.556207e-10	-3.713967e+01	-5.554811e+01
3.100000e-07	-5.323600e-06	-8.283962e-10	-3.705371e+01	-5.549449e+01
3.200000e-07	-5.310828e-06	-8.357787e-10	-3.696480e+01	-5.543703e+01
3.300000e-07	-5.297518e-06	-8.089070e-10	-3.687217e+01	-5.537607e+01
3.400000e-07	-5.283836e-06	-8.642942e-10	-3.677693e+01	-5.531200e+01
3.500000e-07	-5.269876e-06	-8.183145e-10	-3.667977e+01	-5.524521e+01
3.600000e-07	-5.255452e-06	-8.054411e-10	-3.657938e+01	-5.517615e+01
3.700000e-07	-5.240559e-06	-8.040966e-10	-3.647572e+01	-5.510525e+01
3.800000e-07	-5.225262e-06	-8.814184e-10	-3.636925e+01	-5.503298e+01
3.900000e-07	-5.209247e-06	-8.117856e-10	-3.625778e+01	-5.495983e+01
4.000000e-07	-5.192727e-06	-7.885355e-10	-3.614279e+01	-5.488627e+01
4.100000e-07	-5.176001e-06	-8.513110e-10	-3.602637e+01	-5.481279e+01
4.200000e-07	-5.158831e-06	-8.706587e-10	-3.590687e+01	-5.473988e+01
4.300000e-07	-5.141271e-06	-7.596422e-10	-3.578464e+01	-5.466799e+01
4.400000e-07	-5.123498e-06	-8.080198e-10	-3.566094e+01	-5.459758e+01
4.500000e-07	-5.105450e-06	-8.916005e-10	-3.553532e+01	-5.452911e+01
4.600000e-07	-5.086960e-06	-7.977953e-10	-3.540662e+01	-5.446297e+01
4.700000e-07	-5.068010e-06	-7.365543e-10	-3.527473e+01	-5.439956e+01
4.800000e-07	-5.048751e-06	-8.581075e-10	-3.514068e+01	-5.433924e+01
4.900000e-07	-5.029170e-06	-8.512241e-10	-3.500439e+01	-5.428233e+01
5.000000e-07	-5.009323e-06	-7.552109e-10	-3.486625e+01	-5.422912e+01
5.100000e-07	-4.989336e-06	-8.304096e-10	-3.472714e+01	-5.417985e+01
5.200000e-07	-4.969077e-06	-8.730622e-10	-3.458613e+01	-5.413472e+01
5.300000e-07	-4.948396e-06	-7.746578e-10	-3.444218e+01	-5.409391e+01
5.400000e-07	-4.927375e-06	-7.953876e-10	-3.429587e+01	-5.405752e+01
5.500000e-07	-4.906012e-06	-8.824649e-10	-3.414718e+01	-5.402563e+01
5.600000e-07	-4.884249e-06	-7.856554e-10	-3.399570e+01	-5.399826e+01
5.700000e-07	-4.862186e-06	-7.516155e-10	-3.384213e+01	-5.397540e+01
5.800000e-07	-4.839823e-06	-8.462522e-10	-3.368649e+01	-5.395698e+01
5.900000e-07	-4.817092e-06	-8.378137e-10	-3.352827e+01	-5.394289e+01
6.000000e-07	-4.794020e-06	-7.608333e-10	-3.336768e+01	-5.393299e+01
6.100000e-07	-4.770689e-06	-8.293615e-10	-3.320529e+01	-5.392709e+01
6.200000e-07	-4.747067e-06	-8.426423e-10	-3.304088e+01	-5.392496e+01
6.300000e-07	-4.723199e-06	-7.850182e-10	-3.287475e+01	-5.392637e+01
6.400000e-07	-4.699201e-06	-7.956794e-10	-3.270771e+01	-5.393101e+01
6.500000e-07	-4.674963e-06	-8.387933e-10	-3.253902e+01	-5.393857e+01
6.600000e-07	-4.650246e-06	-7.889555e-10	-3.236698e+01	-5.394872e+01
6.700000e-07	-4.625052e-06	-7.923044e-10	-3.219162e+01	-5.396111e+01
6.800000e-07	-4.599363e-06	-8.225902e-10	-3.201282e+01	-5.397537e+01
6.900000e-07	-4.572964e-06	-8.146150e-10	-3.182908e+01	-5.399112e+01
7.000000e-07	-4.545961e-06	-7.926235e-10	-3.164112e+01	-5.400797e+01
7.100000e-07	-4.518628e-06	-8.184147e-10	-3.145088e+01	-5.402555e+01
7.200000e-07	-4.491037e-06	-8.074699e-10	-3.125884e+01	-5.404345e+01
7.300000e-07	-4.463242e-06	-7.966055e-10	-3.106538e+01	-5.406131e+01
7.400000e-07	-4.435294e-06	-8.054613e-10	-3.087085e+01	-5.407876e+01
7.500000e-07	-4.407127e-06	-8.089469e-10	-3.067480e+01	-5.409544e+01
7.600000e-07	-4.378762e-06	-7.928002e-10	-3.047738e+01	-5.411102e+01
7.700000e-07	-4.350131e-06	-7.968302e-10	-3.027810e+01	-5.412518e+01
7.800000e-07	-4.321054e-06	-7.996105e-10	-3.007571e+01	-5.413762e+01
7.900000e-07	-4.291579e-06	-7.946133e-10	-2.987056e+01	-5.414808e+01
8.000000e-07	-4.261886e-06	-8.009921e-10	-2.966388e+01	-5.415632e+01
8.100000e-07	-4.231965e-06	-8.047696e-10	-2.945563e+01	-5.416212e+01
8.200000e-07	-4.201711e-06	-7.971858e-10	-2.924505e+01	-5.416530e+01
8.300000e-07	-4.171155e-06	-7.943558e-10	-2.903237e+01	-5.416571e+01
8.400000e-07	-4.140272e-06	-8.026558e-10	-2.881742e+01	-5.416324e+01
8.500000e-07	-4.109068e-06	-7.911248e-10	-2.860023e+01	-5.415778e+01
8.600000e-07	-4.077679e-06	-7.856605e-10	-2.838175e+01	-5.414930e+01
8.700000e-07	-4.046154e-06	-7.894991e-10	-2.816233e+01	-5.413776e+01
8.800000e-07	-4.014462e-06	-7.951494e-10	-2.794175e+01	-5.412317e+01
8.900000e-07	-3.982563e-06	-7.853616e-10	-2.771972e+01	-5.410555e+01
9.000000e-07	-3.950457e-06	-7.940586e-10	-2.749626e+01	-5.408496e+01
9.100000e-07	-3.918136e-06	-7.964432e-10	-2.727129e+01	-5.406148e+01
9.200000e-07	-3.885486e-06	-7.942475e-10	-2.704404e+01	-5.403521e+01
9.300000e-07	-3.852357e-06	-7.916588e-10	-2.681345e+01	-5.400626e+01
9.400000e-07	-3.818703e-06	-8.005753e-10	-2.657921e+01	-5.397477e+01
9.500000e-07	-3.784592e-06	-7.878488e-10	-2.634179e+01	-5.394088e+01
9.600000e-07	-3.750075e-06	-7.804198e-10	-2.610154e+01	-5.390475e+01
9.700000e-07	-3.715187e-06	-7.792865e-10	-2.585872e+01	-5.386653e+01
9.800000e-07	-3.679924e-06	-7.796588e-10	-2.561327e+01	-5.382638e+01
9.900000e-07	-3.644347e-06	-7.725759e-10	-2.536565e+01	-5.378446e+01
1.000000e-06	-3.608613e-06	-7.812081e-10	-2.511693e+01	-5.374092e+01
1.010000e-06	-3.572759e-06	-7.850226e-10	-2.486738e+01	-5.369592e+01
1.020000e-06	-3.536764e-06	-7.836172e-10	-2.461684e+01	-5.364959e+01
1.030000e-06	-3.500648e-06	-7.841437e-10	-2.436546e+01	-5.360206e+01
1.040000e-06	-3.464321e-06	-7.882779e-10	-2.411262e+01	-5.355343e+01
1.050000e-06	-3.427730e-06	-7.816180e-10	-2.385793e+01	-5.350380e+01
1.060000e-06	-3.390893e-06	-7.749365e-10	-2.360154e+01	-5.345324e+01
1.070000e-06	-3.353852e-06	-7.753090e-10	-2.334372e+01	-5.340180e+01
1.080000e-06	-3.316524e-06	-7.766817e-10	-2.308391e+01	-5.334952e+01
1.090000e-06	-3.278886e-06	-7.780670e-10	-2.282194e+01	-5.329639e+01
1.100000e-06	-3.241052e-06	-7.811085e-10	-2.255861e+01	-5.324240e+01
1.110000e-06	-3.203025e-06	-7.835914e-10	-2.229392e+01	-5.318751e+01
1.120000e-06	-3.164767e-06	-7.812354e-10	-2.202764e+01	-5.313165e+01
1.130000e-06	-3.126295e-06	-7.808614e-10	-2.175986e+01	-5.307474e+01
1.140000e-06	-3.087653e-06	-7.789195e-10	-2.149091e+01	-5.301666e+01
1.150000e-06	-3.048813e-06	-7.765103e-10	-2.122057e+01	-5.295728e+01
1.160000e-06	-3.009753e-06	-7.699273e-10	-2.094870e+01	-5.289645e+01
1.170000e-06	-2.970485e-06	-7.674027e-10	-2.067539e+01	-5.283400e+01
1.180000e-06	-2.931058e-06	-7.633615e-10	-2.040096e+01	-5.276973e+01
1.190000e-06	-2.891456e-06	-7.643752e-10	-2.012532e+01	-5.270345e+01
1.200000e-06	-2.851704e-06	-7.633425e-10	-1.984864e+01	-5.263494e+01
1.210000e-06	-2.811850e-06	-7.651831e-10	-1.957124e+01	-5.256398e+01
1.220000e-06	-2.771882e-06	-7.634567e-10	-1.929305e+01	-5.249033e+01
1.230000e-06	-2.731779e-06	-7.647727e-10	-1.901392e+01	-5.241376e+01
1.240000e-06	-2.691523e-06	-7.635951e-10	-1.873373e+01	-5.233402e+01
1.250000e-06	-2.651098e-06	-7.656140e-10	-1.845236e+01	-5.225088e+01
1.260000e-06	-2.610455e-06	-7.620719e-10	-1.816948e+01	-5.216409e+01
1.270000e-06	-2.569575e-06	-7.591242e-10	-1.788494e+01	-5.207342e+01
1.280000e-06	-2.528411e-06	-7.549113e-10	-1.759843e+01	-5.197864e+01
1.290000e-06	-2.486932e-06	-7.528377e-10	-1.730972e+01	-5.187953e+01
1.300000e-06	-2.445084e-06	-7.501122e-10	-1.701845e+01	-5.177588e+01
1.310000e-06	-2.402946e-06	-7.494704e-10	-1.672516e+01	-5.166748e+01
1.320000e-06	-2.360657e-06	-7.487965e-10	-1.643082e+01	-5.155415e+01
1.330000e-06	-2.318062e-06	-7.468784e-10	-1.613434e+01	-5.143571e+01
1.340000e-06	-2.275094e-06	-7.454760e-10	-1.583527e+01	-5.131198e+01
1.350000e-06	-2.231842e-06	-7.437829e-10	-1.553423e+01	-5.118281e+01
1.360000e-06	-2.188351e-06	-7.384455e-10	-1.523152e+01	-5.104807e+01
1.370000e-06	-2.144696e-06	-7.316190e-10	-1.492766e+01	-5.090760e+01
1.380000e-06	-2.101002e-06	-7.272845e-10	-1.462355e+01	-5.076130e+01
1.390000e-06	-2.057309e-06	-7.247077e-10	-1.431943e+01	-5.060903e+01
1.400000e-06	-2.013541e-06	-7.260551e-10	-1.401480e+01	-5.045069e+01
1.410000e-06	-1.969660e-06	-7.273537e-10	-1.370937e+01	-5.028616e+01
1.420000e-06	-1.925659e-06	-7.290757e-10	-1.340311e+01	-5.011533e+01
1.430000e-06	-1.881553e-06	-7.274876e-10	-1.309612e+01	-4.993809e+01
1.440000e-06	-1.837404e-06	-7.244070e-10	-1.278883e+01	-4.975431e+01
1.450000e-06	-1.793222e-06	-7.173965e-10	-1.248131e+01	-4.956386e+01
1.460000e-06	-1.748929e-06	-7.097885e-10	-1.217302e+01	-4.936660e+01
1.470000e-06	-1.704513e-06	-7.013408e-10	-1.186388e+01	-4.916236e+01
1.480000e-06	-1.659975e-06	-6.980915e-10	-1.155388e+01	-4.895096e+01
1.490000e-06	-1.615264e-06	-6.947670e-10	-1.124268e+01	-4.873219e+01
1.500000e-06	-1.570357e-06	-6.933011e-10	-1.093011e+01	-4.850580e+01
1.510000e-06	-1.525368e-06	-6.931556e-10	-1.061698e+01	-4.827154e+01
1.520000e-06	-1.480332e-06	-6.925060e-10	-1.030351e+01	-4.802909e+01
1.530000e-06	-1.435186e-06	-6.870496e-10	-9.989284e+00	-4.777812e+01
1.540000e-06	-1.389904e-06	-6.780570e-10	-9.674113e+00	-4.751823e+01
1.550000e-06	-1.344483e-06	-6.690458e-10	-9.357966e+00	-4.724900e+01
1.560000e-06	-1.298969e-06	-6.605243e-10	-9.041178e+00	-4.696994e+01
1.570000e-06	-1.253366e-06	-6.529593e-10	-8.723771e+00	-4.668055e+01
1.580000e-06	-1.207690e-06	-6.474292e-10	-8.405849e+00	-4.638023e+01
1.590000e-06	-1.162017e-06	-6.468146e-10	-8.087955e+00	-4.606838e+01
1.600000e-06	-1.116262e-06	-6.479711e-10	-7.769487e+00	-4.574432e+01
1.610000e-06	-1.070338e-06	-6.452423e-10	-7.449846e+00	-4.540732e+01
1.620000e-06	-1.024315e-06	-6.395354e-10	-7.129511e+00	-4.505663e+01
1.630000e-06	-9.782295e-07	-6.298801e-10	-6.808743e+00	-4.469142e+01
1.640000e-06	-9.320588e-07	-6.192103e-10	-6.487383e+00	-4.431084e+01
1.650000e-06	-8.857863e-07	-6.087704e-10	-6.165313e+00	-4.391399e+01
1.660000e-06	-8.394628e-07	-5.990823e-10	-5.842889e+00	-4.349993e+01
1.670000e-06	-7.931435e-07	-5.924820e-10	-5.520495e+00	-4.306770e+01
1.680000e-06	-7.468872e-07	-5.881309e-10	-5.198538e+00	-4.261631e+01
1.690000e-06	-7.006632e-07	-5.831371e-10	-4.876806e+00	-4.214473e+01
1.700000e-06	-6.543133e-07	-5.767992e-10	-4.554198e+00	-4.165195e+01
1.710000e-06	-6.077860e-07	-5.688535e-10	-4.230356e+00	-4.113692e+01
1.720000e-06	-5.611657e-07	-5.604974e-10	-3.905866e+00	-4.059861e+01
1.730000e-06	-5.145531e-07	-5.515345e-10	-3.581429e+00	-4.003598e+01
1.740000e-06	-4.679978e-07	-5.412358e-10	-3.257392e+00	-3.944802e+01
1.750000e-06	-4.214650e-07	-5.295436e-10	-2.933511e+00	-3.883373e+01
1.760000e-06	-3.748569e-07	-5.176171e-10	-2.609106e+00	-3.819216e+01
1.770000e-06	-3.281390e-07	-5.092554e-10	-2.283937e+00	-3.752238e+01
1.780000e-06	-2.813962e-07	-4.999027e-10	-1.958594e+00	-3.682352e+01
1.790000e-06	-2.346213e-07	-4.898289e-10	-1.633028e+00	-3.609476e+01
1.800000e-06	-1.877719e-07	-4.789964e-10	-1.306944e+00	-3.533537e+01
1.810000e-06	-1.409466e-07	-4.680204e-10	-9.810264e-01	-3.454467e+01
1.820000e-06	-9.418375e-08	-4.571404e-10	-6.555445e-01	-3.372206e+01
1.830000e-06	-4.741764e-08	-4.471772e-10	-3.300397e-01	-3.286706e+01
1.840000e-06	-6.615822e-10	-4.357205e-10	-4.604792e-03	-3.197926e+01
1.850000e-06	4.606440e-08	-4.219553e-10	3.206208e-01	-3.105837e+01
1.860000e-06	9.278178e-08	-4.064793e-10	6.457864e-01	-3.010422e+01
1.870000e-06	1.395303e-07	-3.901596e-10	9.711690e-01	-2.911672e+01
1.880000e-06	1.862624e-07	-3.729204e-10	1.296437e+00	-2.809595e+01
1.890000e-06	2.330070e-07	-3.592300e-10	1.621792e+00	-2.704208e+01
1.900000e-06	2.797377e-07	-3.495219e-10	1.947050e+00	-2.595544e+01
1.910000e-06	3.264558e-07	-3.389816e-10	2.272221e+00	-2.483647e+01
1.920000e-06	3.731200e-07	-3.264404e-10	2.597017e+00	-2.368575e+01
1.930000e-06	4.197241e-07	-3.099542e-10	2.921394e+00	-2.250400e+01
1.940000e-06	4.663683e-07	-2.893332e-10	3.246050e+00	-2.129207e+01
1.950000e-06	5.129759e-07	-2.669568e-10	3.570452e+00	-2.005093e+01
1.960000e-06	5.595160e-07	-2.475487e-10	3.894384e+00	-1.878172e+01
1.970000e-06	6.060237e-07	-2.312444e-10	4.218090e+00	-1.748566e+01
1.980000e-06	6.524323e-07	-2.162403e-10	4.541106e+00	-1.616412e+01
1.990000e-06	6.987732e-07	-2.020335e-10	4.863652e+00	-1.481858e+01
2.000000e-06	7.450798e-07	-1.838054e-10	5.185958e+00	-1.345065e+01
2.010000e-06	7.913290e-07	-1.608071e-10	5.507865e+00	-1.206201e+01
2.020000e-06	8.375712e-07	-1.380905e-10	5.829723e+00	-1.065447e+01
2.030000e-06	8.837415e-07	-1.172783e-10	6.151081e+00	-9.229917e+00
2.040000e-06	9.297931e-07	-9.797279e-11	6.471613e+00	-7.790310e+00
2.050000e-06	9.757532e-07	-7.901385e-11	6.791508e+00	-6.337688e+00
2.060000e-06	1.021667e-06	-6.065036e-11	7.111084e+00	-4.874148e+00
2.070000e-06	1.067530e-06	-4.107509e-11	7.430303e+00	-3.401834e+00
2.080000e-06	1.113366e-06	-1.852142e-11	7.749328e+00	-1.922929e+00
2.090000e-06	1.159112e-06	4.565873e-12	8.067735e+00	-4.396435e-01
2.100000e-06	1.204751e-06	2.656337e-11	8.385394e+00	1.045798e+00
2.110000e-06	1.250320e-06	4.689126e-11	8.702567e+00	2.531168e+00
2.120000e-06	1.295795e-06	6.569029e-11	9.019087e+00	4.014246e+00
2.130000e-06	1.341120e-06	8.160542e-11	9.334562e+00	5.492832e+00
2.140000e-06	1.386315e-06	9.726529e-11	9.649131e+00	6.964757e+00
2.150000e-06	1.431447e-06	1.175821e-10	9.963258e+00	8.427893e+00
2.160000e-06	1.476490e-06	1.422242e-10	1.027677e+01	9.880167e+00
2.170000e-06	1.521445e-06	1.674061e-10	1.058967e+01	1.131957e+01
2.180000e-06	1.566357e-06	1.899573e-10	1.090227e+01	1.274415e+01
2.190000e-06	1.611208e-06	2.104608e-10	1.121444e+01	1.415206e+01
2.200000e-06	1.655928e-06	2.264752e-10	1.152571e+01	1.554154e+01
2.210000e-06	1.700470e-06	2.383779e-10	1.183574e+01	1.691090e+01
2.220000e-06	1.744839e-06	2.502294e-10	1.214455e+01	1.825859e+01
2.230000e-06	1.789071e-06	2.655730e-10	1.245242e+01	1.958315e+01
2.240000e-06	1.833201e-06	2.833167e-10	1.275958e+01	2.088323e+01
2.250000e-06	1.877287e-06	3.024397e-10	1.306643e+01	2.215762e+01
2.260000e-06	1.921324e-06	3.233785e-10	1.337294e+01	2.340521e+01
2.270000e-06	1.965273e-06	3.444849e-10	1.367883e+01	2.462504e+01
2.280000e-06	2.009173e-06	3.650113e-10	1.398439e+01	2.581624e+01
2.290000e-06	2.053028e-06	3.813810e-10	1.428964e+01	2.697811e+01
2.300000e-06	2.096807e-06	3.944974e-10	1.459435e+01	2.811003e+01
2.310000e-06	2.140519e-06	4.055793e-10	1.489860e+01	2.921155e+01
2.320000e-06	2.184096e-06	4.161262e-10	1.520190e+01	3.028230e+01
2.330000e-06	2.227510e-06	4.274289e-10	1.550408e+01	3.132206e+01
2.340000e-06	2.270710e-06	4.409017e-10	1.580476e+01	3.233072e+01
2.350000e-06	2.313710e-06	4.573184e-10	1.610405e+01	3.330825e+01
2.360000e-06	2.356401e-06	4.731407e-10	1.640119e+01	3.425476e+01
2.370000e-06	2.398717e-06	4.859493e-10	1.669572e+01	3.517045e+01
2.380000e-06	2.440818e-06	4.972959e-10	1.698876e+01	3.605561e+01
2.390000e-06	2.482569e-06	5.077204e-10	1.727935e+01	3.691061e+01
2.400000e-06	2.523962e-06	5.166618e-10	1.756746e+01	3.773590e+01
2.410000e-06	2.565132e-06	5.264540e-10	1.785402e+01	3.853201e+01
2.420000e-06	2.606051e-06	5.363849e-10	1.813883e+01	3.929953e+01
2.430000e-06	2.646673e-06	5.470436e-10	1.842157e+01	4.003909e+01
2.440000e-06	2.687120e-06	5.593431e-10	1.870308e+01	4.075139e+01
2.450000e-06	2.727425e-06	5.704372e-10	1.898362e+01	4.143716e+01
2.460000e-06	2.767497e-06	5.792346e-10	1.926253e+01	4.209716e+01
2.470000e-06	2.807459e-06	5.877035e-10	1.954068e+01	4.273216e+01
2.480000e-06	2.847329e-06	5.966331e-10	1.981818e+01	4.334298e+01
2.490000e-06	2.887096e-06	6.060810e-10	2.009497e+01	4.393041e+01
2.500000e-06	2.926779e-06	6.143242e-10	2.037118e+01	4.449528e+01
2.510000e-06	2.966214e-06	6.214263e-10	2.064565e+01	4.503840e+01
2.520000e-06	3.005440e-06	6.270796e-10	2.091868e+01	4.556055e+01
2.530000e-06	3.044511e-06	6.330320e-10	2.119062e+01	4.606253e+01
2.540000e-06	3.083301e-06	6.382555e-10	2.146061e+01	4.654510e+01
2.550000e-06	3.121839e-06	6.417856e-10	2.172885e+01	4.700900e+01
2.560000e-06	3.160142e-06	6.468570e-10	2.199545e+01	4.745495e+01
2.570000e-06	3.198279e-06	6.545762e-10	2.226089e+01	4.788363e+01
2.580000e-06	3.236277e-06	6.634832e-10	2.252537e+01	4.829569e+01
2.590000e-06	3.274082e-06	6.713277e-10	2.278850e+01	4.869175e+01
2.600000e-06	3.311618e-06	6.770044e-10	2.304976e+01	4.907239e+01
2.610000e-06	3.348865e-06	6.811233e-10	2.330901e+01	4.943816e+01
2.620000e-06	3.385915e-06	6.837444e-10	2.356689e+01	4.978957e+01
2.630000e-06	3.422670e-06	6.851449e-10	2.382271e+01	5.012710e+01
2.640000e-06	3.459094e-06	6.871602e-10	2.407624e+01	5.045117e+01
2.650000e-06	3.495282e-06	6.918649e-10	2.432812e+01	5.076221e+01
2.660000e-06	3.531353e-06	6.995340e-10	2.457918e+01	5.106059e+01
2.670000e-06	3.567375e-06	7.062632e-10	2.482990e+01	5.134665e+01
2.680000e-06	3.603256e-06	7.117513e-10	2.507964e+01	5.162071e+01
2.690000e-06	3.638916e-06	7.164467e-10	2.532784e+01	5.188309e+01
2.700000e-06	3.674345e-06	7.195102e-10	2.557444e+01	5.213405e+01
2.710000e-06	3.709655e-06	7.195025e-10	2.582021e+01	5.237385e+01
2.720000e-06	3.744709e-06	7.200978e-10	2.606419e+01	5.260275e+01
2.730000e-06	3.779251e-06	7.238208e-10	2.630462e+01	5.282098e+01
2.740000e-06	3.813386e-06	7.300747e-10	2.654220e+01	5.302878e+01
2.750000e-06	3.847163e-06	7.370581e-10	2.677730e+01	5.322636e+01
2.760000e-06	3.880460e-06	7.421562e-10	2.700906e+01	5.341395e+01
2.770000e-06	3.913274e-06	7.460925e-10	2.723745e+01	5.359179e+01
2.780000e-06	3.945714e-06	7.504057e-10	2.746324e+01	5.376009e+01
2.790000e-06	3.977885e-06	7.545363e-10	2.768716e+01	5.391911e+01
2.800000e-06	4.009826e-06	7.572055e-10	2.790948e+01	5.406909e+01
2.810000e-06	4.041590e-06	7.586184e-10	2.813057e+01	5.421029e+01
2.820000e-06	4.073229e-06	7.607752e-10	2.835078e+01	5.434298e+01
2.830000e-06	4.104681e-06	7.621176e-10	2.856969e+01	5.446745e+01
2.840000e-06	4.135805e-06	7.626258e-10	2.878633e+01	5.458399e+01
2.850000e-06	4.166598e-06	7.641736e-10	2.900065e+01	5.469292e+01
2.860000e-06	4.197107e-06	7.685463e-10	2.921301e+01	5.479457e+01
2.870000e-06	4.227289e-06	7.735158e-10	2.942308e+01	5.488927e+01
2.880000e-06	4.257167e-06	7.781097e-10	2.963104e+01	5.497739e+01
2.890000e-06	4.286791e-06	7.830751e-10	2.983723e+01	5.505929e+01
2.900000e-06	4.316195e-06	7.855462e-10	3.004189e+01	5.513534e+01
