# Temperatura_=_-19.72
# Concentracion g/m^3_=_1620.0
# C_Vs_to_Am_M_A/Vsm_=_65563218390.804596
# pendiente_HvsI_1/m_=_3716.3
# ordenada_HvsI_A/m_=_1297.0
# frecuencia_Hz_=_135110.9680223484

Tiempo_(s)	Campo_(V.s)	Magnetizacion_(V.s)	Campo_(kA/m)	Magnetizacion_(A/m)
0.000000e+00	-5.530613e-06	-8.252852e-10	-3.837456e+01	-5.490912e+01
1.000000e-08	-5.530783e-06	-8.260976e-10	-3.837574e+01	-5.493966e+01
2.000000e-08	-5.530759e-06	-8.254693e-10	-3.837558e+01	-5.497302e+01
3.000000e-08	-5.530484e-06	-8.253464e-10	-3.837367e+01	-5.500898e+01
4.000000e-08	-5.529780e-06	-8.244642e-10	-3.836878e+01	-5.504731e+01
5.000000e-08	-5.528519e-06	-8.217526e-10	-3.836004e+01	-5.508775e+01
6.000000e-08	-5.526641e-06	-8.148754e-10	-3.834700e+01	-5.512999e+01
7.000000e-08	-5.524081e-06	-8.059900e-10	-3.832924e+01	-5.517372e+01
8.000000e-08	-5.520920e-06	-8.165519e-10	-3.830731e+01	-5.521861e+01
9.000000e-08	-5.517302e-06	-8.491140e-10	-3.828220e+01	-5.526431e+01
1.000000e-07	-5.513210e-06	-8.464231e-10	-3.825381e+01	-5.531044e+01
1.100000e-07	-5.508719e-06	-8.019471e-10	-3.822265e+01	-5.535663e+01
1.200000e-07	-5.504078e-06	-7.806133e-10	-3.819045e+01	-5.540251e+01
1.300000e-07	-5.499335e-06	-8.172989e-10	-3.815754e+01	-5.544769e+01
1.400000e-07	-5.494164e-06	-8.612628e-10	-3.812166e+01	-5.549179e+01
1.500000e-07	-5.488507e-06	-8.156984e-10	-3.808241e+01	-5.553443e+01
1.600000e-07	-5.482577e-06	-8.019157e-10	-3.804126e+01	-5.557524e+01
1.700000e-07	-5.476266e-06	-8.229554e-10	-3.799747e+01	-5.561388e+01
1.800000e-07	-5.469511e-06	-8.605659e-10	-3.795060e+01	-5.564999e+01
1.900000e-07	-5.462396e-06	-8.580885e-10	-3.790124e+01	-5.568328e+01
2.000000e-07	-5.454905e-06	-8.197560e-10	-3.784926e+01	-5.571343e+01
2.100000e-07	-5.447072e-06	-8.258896e-10	-3.779491e+01	-5.574018e+01
2.200000e-07	-5.439008e-06	-8.528513e-10	-3.773896e+01	-5.576328e+01
2.300000e-07	-5.430774e-06	-8.863635e-10	-3.768183e+01	-5.578253e+01
2.400000e-07	-5.422201e-06	-8.626901e-10	-3.762234e+01	-5.579774e+01
2.500000e-07	-5.413026e-06	-8.598468e-10	-3.755868e+01	-5.580877e+01
2.600000e-07	-5.403122e-06	-8.620966e-10	-3.748995e+01	-5.581551e+01
2.700000e-07	-5.392605e-06	-8.570444e-10	-3.741699e+01	-5.581789e+01
2.800000e-07	-5.381501e-06	-8.244617e-10	-3.733994e+01	-5.581586e+01
2.900000e-07	-5.369854e-06	-8.484387e-10	-3.725912e+01	-5.580943e+01
3.000000e-07	-5.357907e-06	-8.669789e-10	-3.717623e+01	-5.579863e+01
3.100000e-07	-5.345611e-06	-8.532507e-10	-3.709091e+01	-5.578354e+01
3.200000e-07	-5.332845e-06	-8.399333e-10	-3.700234e+01	-5.576426e+01
3.300000e-07	-5.319701e-06	-8.721185e-10	-3.691113e+01	-5.574094e+01
3.400000e-07	-5.306220e-06	-8.773768e-10	-3.681760e+01	-5.571375e+01
3.500000e-07	-5.292305e-06	-8.373225e-10	-3.672105e+01	-5.568289e+01
3.600000e-07	-5.277921e-06	-8.343143e-10	-3.662124e+01	-5.564860e+01
3.700000e-07	-5.263122e-06	-8.611219e-10	-3.651856e+01	-5.561114e+01
3.800000e-07	-5.247741e-06	-8.504353e-10	-3.641183e+01	-5.557079e+01
3.900000e-07	-5.231738e-06	-8.282568e-10	-3.630080e+01	-5.552786e+01
4.000000e-07	-5.215270e-06	-8.525546e-10	-3.618653e+01	-5.548265e+01
4.100000e-07	-5.198491e-06	-8.588370e-10	-3.607011e+01	-5.543551e+01
4.200000e-07	-5.181399e-06	-8.256691e-10	-3.595152e+01	-5.538678e+01
4.300000e-07	-5.163957e-06	-8.278253e-10	-3.583049e+01	-5.533681e+01
4.400000e-07	-5.146227e-06	-8.649883e-10	-3.570747e+01	-5.528596e+01
4.500000e-07	-5.128138e-06	-8.414743e-10	-3.558196e+01	-5.523458e+01
4.600000e-07	-5.109621e-06	-8.175182e-10	-3.545348e+01	-5.518303e+01
4.700000e-07	-5.090732e-06	-8.307102e-10	-3.532241e+01	-5.513165e+01
4.800000e-07	-5.071519e-06	-8.357738e-10	-3.518911e+01	-5.508079e+01
4.900000e-07	-5.051957e-06	-8.096160e-10	-3.505337e+01	-5.503076e+01
5.000000e-07	-5.032201e-06	-8.352343e-10	-3.491629e+01	-5.498188e+01
5.100000e-07	-5.012334e-06	-8.516294e-10	-3.477845e+01	-5.493445e+01
5.200000e-07	-4.992173e-06	-8.289360e-10	-3.463856e+01	-5.488874e+01
5.300000e-07	-4.971673e-06	-8.251350e-10	-3.449632e+01	-5.484500e+01
5.400000e-07	-4.950885e-06	-8.535447e-10	-3.435208e+01	-5.480345e+01
5.500000e-07	-4.929661e-06	-8.259951e-10	-3.420481e+01	-5.476432e+01
5.600000e-07	-4.907980e-06	-8.018166e-10	-3.405438e+01	-5.472776e+01
5.700000e-07	-4.885966e-06	-8.189391e-10	-3.390163e+01	-5.469393e+01
5.800000e-07	-4.863704e-06	-8.258300e-10	-3.374716e+01	-5.466296e+01
5.900000e-07	-4.841126e-06	-8.091721e-10	-3.359051e+01	-5.463492e+01
6.000000e-07	-4.818187e-06	-8.266851e-10	-3.343134e+01	-5.460990e+01
6.100000e-07	-4.794872e-06	-8.337405e-10	-3.326957e+01	-5.458792e+01
6.200000e-07	-4.771206e-06	-8.144138e-10	-3.310536e+01	-5.456899e+01
6.300000e-07	-4.747370e-06	-8.147351e-10	-3.293997e+01	-5.455309e+01
6.400000e-07	-4.723338e-06	-8.265542e-10	-3.277323e+01	-5.454018e+01
6.500000e-07	-4.698967e-06	-8.134233e-10	-3.260412e+01	-5.453018e+01
6.600000e-07	-4.674238e-06	-8.099708e-10	-3.243254e+01	-5.452300e+01
6.700000e-07	-4.649044e-06	-8.262346e-10	-3.225773e+01	-5.451853e+01
6.800000e-07	-4.623316e-06	-8.208792e-10	-3.207921e+01	-5.451663e+01
6.900000e-07	-4.596980e-06	-8.148275e-10	-3.189648e+01	-5.451715e+01
7.000000e-07	-4.570004e-06	-8.275391e-10	-3.170931e+01	-5.451991e+01
7.100000e-07	-4.542596e-06	-8.289284e-10	-3.151913e+01	-5.452473e+01
7.200000e-07	-4.514953e-06	-8.118714e-10	-3.132733e+01	-5.453142e+01
7.300000e-07	-4.487164e-06	-8.178976e-10	-3.113452e+01	-5.453978e+01
7.400000e-07	-4.459213e-06	-8.252327e-10	-3.094057e+01	-5.454959e+01
7.500000e-07	-4.431014e-06	-8.191604e-10	-3.074492e+01	-5.456063e+01
7.600000e-07	-4.402612e-06	-8.175470e-10	-3.054784e+01	-5.457268e+01
7.700000e-07	-4.373974e-06	-8.266466e-10	-3.034914e+01	-5.458553e+01
7.800000e-07	-4.344965e-06	-8.163531e-10	-3.014785e+01	-5.459896e+01
7.900000e-07	-4.315661e-06	-8.122595e-10	-2.994453e+01	-5.461275e+01
8.000000e-07	-4.286099e-06	-8.200879e-10	-2.973941e+01	-5.462668e+01
8.100000e-07	-4.256238e-06	-8.196713e-10	-2.953222e+01	-5.464055e+01
8.200000e-07	-4.226080e-06	-8.112604e-10	-2.932296e+01	-5.465417e+01
8.300000e-07	-4.195631e-06	-8.211770e-10	-2.911169e+01	-5.466734e+01
8.400000e-07	-4.164854e-06	-8.222251e-10	-2.889814e+01	-5.467988e+01
8.500000e-07	-4.133713e-06	-8.132401e-10	-2.868207e+01	-5.469163e+01
8.600000e-07	-4.102308e-06	-8.141769e-10	-2.846416e+01	-5.470243e+01
8.700000e-07	-4.070744e-06	-8.200956e-10	-2.824516e+01	-5.471212e+01
8.800000e-07	-4.038981e-06	-8.120940e-10	-2.802476e+01	-5.472058e+01
8.900000e-07	-4.007042e-06	-8.099915e-10	-2.780315e+01	-5.472767e+01
9.000000e-07	-3.974957e-06	-8.153389e-10	-2.758053e+01	-5.473330e+01
9.100000e-07	-3.942623e-06	-8.130141e-10	-2.735617e+01	-5.473735e+01
9.200000e-07	-3.909969e-06	-8.100485e-10	-2.712961e+01	-5.473974e+01
9.300000e-07	-3.876854e-06	-8.176723e-10	-2.689983e+01	-5.474039e+01
9.400000e-07	-3.843291e-06	-8.179753e-10	-2.666695e+01	-5.473922e+01
9.500000e-07	-3.809297e-06	-8.110527e-10	-2.643109e+01	-5.473618e+01
9.600000e-07	-3.774776e-06	-8.109647e-10	-2.619156e+01	-5.473121e+01
9.700000e-07	-3.739780e-06	-8.066792e-10	-2.594874e+01	-5.472427e+01
9.800000e-07	-3.704504e-06	-7.953044e-10	-2.570397e+01	-5.471531e+01
9.900000e-07	-3.669034e-06	-7.909943e-10	-2.545786e+01	-5.470430e+01
1.000000e-06	-3.633420e-06	-7.970869e-10	-2.521075e+01	-5.469120e+01
1.010000e-06	-3.597688e-06	-7.995718e-10	-2.496282e+01	-5.467599e+01
1.020000e-06	-3.561787e-06	-8.037151e-10	-2.471372e+01	-5.465865e+01
1.030000e-06	-3.525723e-06	-8.088502e-10	-2.446349e+01	-5.463913e+01
1.040000e-06	-3.489369e-06	-8.071229e-10	-2.421124e+01	-5.461742e+01
1.050000e-06	-3.452756e-06	-7.982659e-10	-2.395720e+01	-5.459350e+01
1.060000e-06	-3.415898e-06	-7.946632e-10	-2.370146e+01	-5.456733e+01
1.070000e-06	-3.378732e-06	-7.909012e-10	-2.344358e+01	-5.453889e+01
1.080000e-06	-3.341360e-06	-7.903363e-10	-2.318427e+01	-5.450815e+01
1.090000e-06	-3.303784e-06	-7.973294e-10	-2.292354e+01	-5.447507e+01
1.100000e-06	-3.265985e-06	-8.059950e-10	-2.266127e+01	-5.443961e+01
1.110000e-06	-3.228032e-06	-8.036615e-10	-2.239794e+01	-5.440175e+01
1.120000e-06	-3.189901e-06	-8.013959e-10	-2.213336e+01	-5.436144e+01
1.130000e-06	-3.151499e-06	-8.006024e-10	-2.186691e+01	-5.431863e+01
1.140000e-06	-3.112864e-06	-7.960021e-10	-2.159883e+01	-5.427329e+01
1.150000e-06	-3.073923e-06	-7.905814e-10	-2.132864e+01	-5.422536e+01
1.160000e-06	-3.034655e-06	-7.909241e-10	-2.105617e+01	-5.417480e+01
1.170000e-06	-2.995323e-06	-7.894385e-10	-2.078327e+01	-5.412155e+01
1.180000e-06	-2.955911e-06	-7.867817e-10	-2.050981e+01	-5.406557e+01
1.190000e-06	-2.916260e-06	-7.884414e-10	-2.023468e+01	-5.400681e+01
1.200000e-06	-2.876420e-06	-7.898268e-10	-1.995825e+01	-5.394522e+01
1.210000e-06	-2.836506e-06	-7.861895e-10	-1.968130e+01	-5.388075e+01
1.220000e-06	-2.796545e-06	-7.844593e-10	-1.940403e+01	-5.381335e+01
1.230000e-06	-2.756438e-06	-7.859778e-10	-1.912575e+01	-5.374299e+01
1.240000e-06	-2.716177e-06	-7.851709e-10	-1.884639e+01	-5.366961e+01
1.250000e-06	-2.675693e-06	-7.846034e-10	-1.856549e+01	-5.359318e+01
1.260000e-06	-2.634944e-06	-7.868071e-10	-1.828275e+01	-5.351367e+01
1.270000e-06	-2.593964e-06	-7.860754e-10	-1.799841e+01	-5.343103e+01
1.280000e-06	-2.552625e-06	-7.813925e-10	-1.771158e+01	-5.334524e+01
1.290000e-06	-2.510956e-06	-7.807587e-10	-1.742245e+01	-5.325627e+01
1.300000e-06	-2.469030e-06	-7.794104e-10	-1.713155e+01	-5.316409e+01
1.310000e-06	-2.426809e-06	-7.761260e-10	-1.683859e+01	-5.306868e+01
1.320000e-06	-2.384287e-06	-7.738649e-10	-1.654355e+01	-5.297001e+01
1.330000e-06	-2.341396e-06	-7.736429e-10	-1.624595e+01	-5.286804e+01
1.340000e-06	-2.298185e-06	-7.723413e-10	-1.594613e+01	-5.276276e+01
1.350000e-06	-2.254792e-06	-7.719287e-10	-1.564504e+01	-5.265412e+01
1.360000e-06	-2.211242e-06	-7.694105e-10	-1.534287e+01	-5.254210e+01
1.370000e-06	-2.167566e-06	-7.638697e-10	-1.503982e+01	-5.242663e+01
1.380000e-06	-2.123844e-06	-7.574494e-10	-1.473644e+01	-5.230766e+01
1.390000e-06	-2.080088e-06	-7.548712e-10	-1.443284e+01	-5.218513e+01
1.400000e-06	-2.036228e-06	-7.558545e-10	-1.412852e+01	-5.205895e+01
1.410000e-06	-1.992291e-06	-7.555756e-10	-1.382366e+01	-5.192902e+01
1.420000e-06	-1.948249e-06	-7.561433e-10	-1.351807e+01	-5.179522e+01
1.430000e-06	-1.904093e-06	-7.587166e-10	-1.321169e+01	-5.165740e+01
1.440000e-06	-1.859917e-06	-7.584193e-10	-1.290517e+01	-5.151540e+01
1.450000e-06	-1.815621e-06	-7.541265e-10	-1.259782e+01	-5.136902e+01
1.460000e-06	-1.771166e-06	-7.474379e-10	-1.228936e+01	-5.121803e+01
1.470000e-06	-1.726565e-06	-7.400695e-10	-1.197990e+01	-5.106218e+01
1.480000e-06	-1.681800e-06	-7.338598e-10	-1.166929e+01	-5.090116e+01
1.490000e-06	-1.636929e-06	-7.317020e-10	-1.135795e+01	-5.073464e+01
1.500000e-06	-1.591968e-06	-7.322757e-10	-1.104599e+01	-5.056224e+01
1.510000e-06	-1.546820e-06	-7.337772e-10	-1.073272e+01	-5.038355e+01
1.520000e-06	-1.501457e-06	-7.343397e-10	-1.041797e+01	-5.019811e+01
1.530000e-06	-1.456023e-06	-7.333623e-10	-1.010272e+01	-5.000539e+01
1.540000e-06	-1.410571e-06	-7.295917e-10	-9.787351e+00	-4.980487e+01
1.550000e-06	-1.365070e-06	-7.241350e-10	-9.471637e+00	-4.959591e+01
1.560000e-06	-1.319473e-06	-7.175885e-10	-9.155261e+00	-4.937789e+01
1.570000e-06	-1.273765e-06	-7.085499e-10	-8.838114e+00	-4.915010e+01
1.580000e-06	-1.227942e-06	-7.005970e-10	-8.520162e+00	-4.891179e+01
1.590000e-06	-1.181985e-06	-6.983932e-10	-8.201291e+00	-4.866217e+01
1.600000e-06	-1.135915e-06	-6.986722e-10	-7.881629e+00	-4.840041e+01
1.610000e-06	-1.089867e-06	-6.959065e-10	-7.562125e+00	-4.812564e+01
1.620000e-06	-1.043864e-06	-6.908535e-10	-7.242926e+00	-4.783693e+01
1.630000e-06	-9.978173e-07	-6.844447e-10	-6.923428e+00	-4.753333e+01
1.640000e-06	-9.516568e-07	-6.774276e-10	-6.603140e+00	-4.721386e+01
1.650000e-06	-9.053969e-07	-6.706081e-10	-6.282163e+00	-4.687750e+01
1.660000e-06	-8.590434e-07	-6.633423e-10	-5.960536e+00	-4.652321e+01
1.670000e-06	-8.126416e-07	-6.545589e-10	-5.638573e+00	-4.614993e+01
1.680000e-06	-7.661818e-07	-6.455026e-10	-5.316209e+00	-4.575660e+01
1.690000e-06	-7.195695e-07	-6.358541e-10	-4.992785e+00	-4.534213e+01
1.700000e-06	-6.730413e-07	-6.264228e-10	-4.669946e+00	-4.490546e+01
1.710000e-06	-6.265490e-07	-6.183849e-10	-4.347356e+00	-4.444550e+01
1.720000e-06	-5.799181e-07	-6.141212e-10	-4.023804e+00	-4.396119e+01
1.730000e-06	-5.331206e-07	-6.100657e-10	-3.699096e+00	-4.345149e+01
1.740000e-06	-4.862582e-07	-6.024126e-10	-3.373938e+00	-4.291540e+01
1.750000e-06	-4.395189e-07	-5.920222e-10	-3.049634e+00	-4.235194e+01
1.760000e-06	-3.927367e-07	-5.797981e-10	-2.725032e+00	-4.176016e+01
1.770000e-06	-3.458839e-07	-5.686565e-10	-2.399941e+00	-4.113920e+01
1.780000e-06	-2.990035e-07	-5.595330e-10	-2.074657e+00	-4.048821e+01
1.790000e-06	-2.519705e-07	-5.513311e-10	-1.748316e+00	-3.980644e+01
1.800000e-06	-2.048854e-07	-5.432711e-10	-1.421612e+00	-3.909321e+01
1.810000e-06	-1.578840e-07	-5.334587e-10	-1.095490e+00	-3.834791e+01
1.820000e-06	-1.109178e-07	-5.241831e-10	-7.696110e-01	-3.757001e+01
1.830000e-06	-6.393409e-08	-5.150715e-10	-4.436114e-01	-3.675909e+01
1.840000e-06	-1.702641e-08	-5.050280e-10	-1.181390e-01	-3.591483e+01
1.850000e-06	2.985686e-08	-4.925311e-10	2.071640e-01	-3.503698e+01
1.860000e-06	7.685934e-08	-4.771529e-10	5.332942e-01	-3.412545e+01
1.870000e-06	1.237953e-07	-4.597525e-10	8.589630e-01	-3.318023e+01
1.880000e-06	1.705920e-07	-4.425099e-10	1.183665e+00	-3.220144e+01
1.890000e-06	2.175008e-07	-4.290323e-10	1.509145e+00	-3.118930e+01
1.900000e-06	2.644715e-07	-4.179528e-10	1.835055e+00	-3.014419e+01
1.910000e-06	3.113307e-07	-4.059132e-10	2.160191e+00	-2.906658e+01
1.920000e-06	3.581567e-07	-3.931627e-10	2.485096e+00	-2.795707e+01
1.930000e-06	4.049806e-07	-3.788843e-10	2.809988e+00	-2.681640e+01
1.940000e-06	4.517224e-07	-3.614224e-10	3.134309e+00	-2.564543e+01
1.950000e-06	4.983780e-07	-3.428462e-10	3.458032e+00	-2.444511e+01
1.960000e-06	5.450641e-07	-3.255311e-10	3.781967e+00	-2.321656e+01
1.970000e-06	5.917110e-07	-3.091657e-10	4.105630e+00	-2.196096e+01
1.980000e-06	6.383074e-07	-2.930723e-10	4.428943e+00	-2.067966e+01
1.990000e-06	6.848927e-07	-2.758038e-10	4.752178e+00	-1.937406e+01
2.000000e-06	7.313748e-07	-2.579794e-10	5.074698e+00	-1.804569e+01
2.010000e-06	7.777814e-07	-2.363497e-10	5.396693e+00	-1.669617e+01
2.020000e-06	8.241510e-07	-2.133052e-10	5.718432e+00	-1.532721e+01
2.030000e-06	8.704058e-07	-1.924224e-10	6.039374e+00	-1.394059e+01
2.040000e-06	9.165577e-07	-1.751892e-10	6.359603e+00	-1.253816e+01
2.050000e-06	9.626943e-07	-1.587374e-10	6.679724e+00	-1.112184e+01
2.060000e-06	1.008735e-06	-1.389481e-10	6.999179e+00	-9.693597e+00
2.070000e-06	1.054710e-06	-1.201713e-10	7.318181e+00	-8.255445e+00
2.080000e-06	1.100620e-06	-9.923463e-11	7.636730e+00	-6.809428e+00
2.090000e-06	1.146418e-06	-7.602401e-11	7.954507e+00	-5.357616e+00
2.100000e-06	1.192208e-06	-5.231028e-11	8.272225e+00	-3.902090e+00
2.110000e-06	1.237927e-06	-3.053670e-11	8.589448e+00	-2.444936e+00
2.120000e-06	1.283555e-06	-1.074284e-11	8.906042e+00	-9.882330e-01
2.130000e-06	1.329100e-06	7.131599e-12	9.222058e+00	4.659585e-01
2.140000e-06	1.374510e-06	2.122179e-11	9.537140e+00	1.915603e+00
2.150000e-06	1.419782e-06	3.846421e-11	9.851258e+00	3.358703e+00
2.160000e-06	1.465017e-06	6.063947e-11	1.016513e+01	4.793305e+00
2.170000e-06	1.510311e-06	8.630026e-11	1.047941e+01	6.217512e+00
2.180000e-06	1.555508e-06	1.131738e-10	1.079300e+01	7.629488e+00
2.190000e-06	1.600454e-06	1.369944e-10	1.110487e+01	9.027468e+00
2.200000e-06	1.645207e-06	1.558415e-10	1.141539e+01	1.040977e+01
2.210000e-06	1.689867e-06	1.682012e-10	1.172527e+01	1.177478e+01
2.220000e-06	1.734388e-06	1.800485e-10	1.203418e+01	1.312101e+01
2.230000e-06	1.778749e-06	1.942327e-10	1.234198e+01	1.444702e+01
2.240000e-06	1.822967e-06	2.096075e-10	1.264879e+01	1.575152e+01
2.250000e-06	1.867108e-06	2.274883e-10	1.295506e+01	1.703328e+01
2.260000e-06	1.911196e-06	2.486463e-10	1.326097e+01	1.829121e+01
2.270000e-06	1.955163e-06	2.724610e-10	1.356604e+01	1.952431e+01
2.280000e-06	1.999064e-06	2.940744e-10	1.387065e+01	2.073171e+01
2.290000e-06	2.042924e-06	3.121461e-10	1.417498e+01	2.191264e+01
2.300000e-06	2.086718e-06	3.285412e-10	1.447884e+01	2.306643e+01
2.310000e-06	2.130449e-06	3.414820e-10	1.478228e+01	2.419254e+01
2.320000e-06	2.174121e-06	3.537036e-10	1.508530e+01	2.529053e+01
2.330000e-06	2.217631e-06	3.661836e-10	1.538719e+01	2.636007e+01
2.340000e-06	2.260946e-06	3.797621e-10	1.568774e+01	2.740094e+01
2.350000e-06	2.304127e-06	3.961701e-10	1.598735e+01	2.841301e+01
2.360000e-06	2.347194e-06	4.135413e-10	1.628617e+01	2.939624e+01
2.370000e-06	2.390056e-06	4.279239e-10	1.658358e+01	3.035069e+01
2.380000e-06	2.432529e-06	4.390657e-10	1.687828e+01	3.127652e+01
2.390000e-06	2.474619e-06	4.492764e-10	1.717033e+01	3.217395e+01
2.400000e-06	2.516491e-06	4.584076e-10	1.746085e+01	3.304328e+01
2.410000e-06	2.557975e-06	4.669257e-10	1.774870e+01	3.388488e+01
2.420000e-06	2.599058e-06	4.769559e-10	1.803376e+01	3.469918e+01
2.430000e-06	2.639893e-06	4.891289e-10	1.831709e+01	3.548667e+01
2.440000e-06	2.680449e-06	5.029470e-10	1.859849e+01	3.624789e+01
2.450000e-06	2.720811e-06	5.150892e-10	1.887855e+01	3.698342e+01
2.460000e-06	2.761034e-06	5.252584e-10	1.915764e+01	3.769386e+01
2.470000e-06	2.801140e-06	5.354116e-10	1.943591e+01	3.837986e+01
2.480000e-06	2.841110e-06	5.462086e-10	1.971325e+01	3.904209e+01
2.490000e-06	2.880986e-06	5.583879e-10	1.998993e+01	3.968123e+01
2.500000e-06	2.920776e-06	5.701992e-10	2.026602e+01	4.029797e+01
2.510000e-06	2.960418e-06	5.794953e-10	2.054108e+01	4.089301e+01
2.520000e-06	2.999865e-06	5.863615e-10	2.081478e+01	4.146703e+01
2.530000e-06	3.039011e-06	5.926236e-10	2.108640e+01	4.202075e+01
2.540000e-06	3.077885e-06	5.983610e-10	2.135613e+01	4.255483e+01
2.550000e-06	3.116628e-06	6.034230e-10	2.162495e+01	4.306995e+01
2.560000e-06	3.155182e-06	6.087212e-10	2.189246e+01	4.356676e+01
2.570000e-06	3.193476e-06	6.159726e-10	2.215817e+01	4.404589e+01
2.580000e-06	3.231566e-06	6.240350e-10	2.242246e+01	4.450794e+01
2.590000e-06	3.269479e-06	6.316259e-10	2.268552e+01	4.495351e+01
2.600000e-06	3.307188e-06	6.386009e-10	2.294717e+01	4.538315e+01
2.610000e-06	3.344596e-06	6.444415e-10	2.320672e+01	4.579738e+01
2.620000e-06	3.381738e-06	6.492653e-10	2.346444e+01	4.619673e+01
2.630000e-06	3.418760e-06	6.531719e-10	2.372132e+01	4.658165e+01
2.640000e-06	3.455541e-06	6.571802e-10	2.397653e+01	4.695260e+01
2.650000e-06	3.491988e-06	6.616448e-10	2.422941e+01	4.731000e+01
2.660000e-06	3.528193e-06	6.664888e-10	2.448063e+01	4.765424e+01
2.670000e-06	3.564208e-06	6.707214e-10	2.473052e+01	4.798569e+01
2.680000e-06	3.600092e-06	6.736975e-10	2.497950e+01	4.830470e+01
2.690000e-06	3.635849e-06	6.777957e-10	2.522761e+01	4.861159e+01
2.700000e-06	3.671488e-06	6.835308e-10	2.547489e+01	4.890668e+01
2.710000e-06	3.706946e-06	6.888885e-10	2.572091e+01	4.919025e+01
2.720000e-06	3.742063e-06	6.926796e-10	2.596458e+01	4.946257e+01
2.730000e-06	3.776844e-06	6.950716e-10	2.620591e+01	4.972391e+01
2.740000e-06	3.811310e-06	6.973152e-10	2.644506e+01	4.997454e+01
2.750000e-06	3.845290e-06	7.010894e-10	2.668083e+01	5.021468e+01
2.760000e-06	3.878753e-06	7.063956e-10	2.691301e+01	5.044460e+01
2.770000e-06	3.911755e-06	7.127374e-10	2.714200e+01	5.066453e+01
2.780000e-06	3.944300e-06	7.193748e-10	2.736781e+01	5.087470e+01
2.790000e-06	3.976555e-06	7.264391e-10	2.759162e+01	5.107538e+01
2.800000e-06	4.008631e-06	7.339461e-10	2.781418e+01	5.126680e+01
2.810000e-06	4.040557e-06	7.375014e-10	2.803570e+01	5.144922e+01
2.820000e-06	4.072357e-06	7.369341e-10	2.825634e+01	5.162290e+01
2.830000e-06	4.103980e-06	7.365773e-10	2.847577e+01	5.178811e+01
2.840000e-06	4.135317e-06	7.371652e-10	2.869320e+01	5.194513e+01
2.850000e-06	4.166323e-06	7.391774e-10	2.890834e+01	5.209424e+01
2.860000e-06	4.197005e-06	7.448430e-10	2.912123e+01	5.223575e+01
2.870000e-06	4.227381e-06	7.514786e-10	2.933199e+01	5.236996e+01
2.880000e-06	4.257498e-06	7.546099e-10	2.954096e+01	5.249719e+01
2.890000e-06	4.287392e-06	7.571641e-10	2.974838e+01	5.261776e+01
2.900000e-06	4.317002e-06	7.604492e-10	2.995384e+01	5.273201e+01
