# Temperatura_=_14.3
# Concentracion g/m^3_=_1620.0
# C_Vs_to_Am_M_A/Vsm_=_65563218390.804596
# pendiente_HvsI_1/m_=_3716.3
# ordenada_HvsI_A/m_=_1297.0
# frecuencia_Hz_=_135101.09750906823

Tiempo_(s)	Campo_(V.s)	Magnetizacion_(V.s)	Campo_(kA/m)	Magnetizacion_(A/m)
0.000000e+00	-5.527019e-06	-1.467710e-09	-3.838055e+01	-9.714807e+01
1.000000e-08	-5.527107e-06	-1.466509e-09	-3.838116e+01	-9.714832e+01
2.000000e-08	-5.526902e-06	-1.464266e-09	-3.837974e+01	-9.714844e+01
3.000000e-08	-5.526286e-06	-1.460219e-09	-3.837546e+01	-9.714803e+01
4.000000e-08	-5.525070e-06	-1.456302e-09	-3.836702e+01	-9.714669e+01
5.000000e-08	-5.523230e-06	-1.457575e-09	-3.835424e+01	-9.714396e+01
6.000000e-08	-5.520880e-06	-1.462971e-09	-3.833792e+01	-9.713939e+01
7.000000e-08	-5.518079e-06	-1.462529e-09	-3.831847e+01	-9.713252e+01
8.000000e-08	-5.514791e-06	-1.444524e-09	-3.829564e+01	-9.712285e+01
9.000000e-08	-5.511003e-06	-1.445444e-09	-3.826933e+01	-9.710993e+01
1.000000e-07	-5.506797e-06	-1.472562e-09	-3.824013e+01	-9.709327e+01
1.100000e-07	-5.502332e-06	-1.498881e-09	-3.820912e+01	-9.707240e+01
1.200000e-07	-5.497653e-06	-1.429284e-09	-3.817663e+01	-9.704688e+01
1.300000e-07	-5.492678e-06	-1.398852e-09	-3.814208e+01	-9.701626e+01
1.400000e-07	-5.487312e-06	-1.441697e-09	-3.810482e+01	-9.698013e+01
1.500000e-07	-5.481531e-06	-1.499514e-09	-3.806468e+01	-9.693809e+01
1.600000e-07	-5.475431e-06	-1.470727e-09	-3.802232e+01	-9.688980e+01
1.700000e-07	-5.468994e-06	-1.408975e-09	-3.797761e+01	-9.683492e+01
1.800000e-07	-5.462111e-06	-1.456766e-09	-3.792982e+01	-9.677316e+01
1.900000e-07	-5.454768e-06	-1.499927e-09	-3.787882e+01	-9.670428e+01
2.000000e-07	-5.447142e-06	-1.469788e-09	-3.782587e+01	-9.662806e+01
2.100000e-07	-5.439355e-06	-1.407872e-09	-3.777179e+01	-9.654433e+01
2.200000e-07	-5.431300e-06	-1.435937e-09	-3.771586e+01	-9.645298e+01
2.300000e-07	-5.422882e-06	-1.473365e-09	-3.765741e+01	-9.635393e+01
2.400000e-07	-5.414018e-06	-1.469377e-09	-3.759585e+01	-9.624715e+01
2.500000e-07	-5.404414e-06	-1.434024e-09	-3.752916e+01	-9.613265e+01
2.600000e-07	-5.393986e-06	-1.429886e-09	-3.745675e+01	-9.601051e+01
2.700000e-07	-5.383002e-06	-1.425547e-09	-3.738047e+01	-9.588081e+01
2.800000e-07	-5.371680e-06	-1.418297e-09	-3.730185e+01	-9.574372e+01
2.900000e-07	-5.360082e-06	-1.402222e-09	-3.722131e+01	-9.559942e+01
3.000000e-07	-5.348056e-06	-1.404853e-09	-3.713780e+01	-9.544815e+01
3.100000e-07	-5.335504e-06	-1.421256e-09	-3.705064e+01	-9.529016e+01
3.200000e-07	-5.322517e-06	-1.436720e-09	-3.696045e+01	-9.512576e+01
3.300000e-07	-5.309140e-06	-1.418071e-09	-3.686756e+01	-9.495527e+01
3.400000e-07	-5.295386e-06	-1.401129e-09	-3.677205e+01	-9.477905e+01
3.500000e-07	-5.281286e-06	-1.413737e-09	-3.667414e+01	-9.459747e+01
3.600000e-07	-5.266733e-06	-1.415698e-09	-3.657308e+01	-9.441092e+01
3.700000e-07	-5.251635e-06	-1.391527e-09	-3.646823e+01	-9.421982e+01
3.800000e-07	-5.236050e-06	-1.394119e-09	-3.636001e+01	-9.402458e+01
3.900000e-07	-5.219964e-06	-1.407949e-09	-3.624831e+01	-9.382562e+01
4.000000e-07	-5.203393e-06	-1.381695e-09	-3.613324e+01	-9.362337e+01
4.100000e-07	-5.186548e-06	-1.382596e-09	-3.601627e+01	-9.341825e+01
4.200000e-07	-5.169412e-06	-1.414421e-09	-3.589726e+01	-9.321067e+01
4.300000e-07	-5.151949e-06	-1.396181e-09	-3.577600e+01	-9.300103e+01
4.400000e-07	-5.134151e-06	-1.353141e-09	-3.565241e+01	-9.278972e+01
4.500000e-07	-5.115921e-06	-1.389599e-09	-3.552582e+01	-9.257711e+01
4.600000e-07	-5.097211e-06	-1.399369e-09	-3.539589e+01	-9.236354e+01
4.700000e-07	-5.078125e-06	-1.344718e-09	-3.526336e+01	-9.214935e+01
4.800000e-07	-5.058810e-06	-1.350162e-09	-3.512922e+01	-9.193481e+01
4.900000e-07	-5.039243e-06	-1.405152e-09	-3.499335e+01	-9.172021e+01
5.000000e-07	-5.019451e-06	-1.370714e-09	-3.485592e+01	-9.150577e+01
5.100000e-07	-4.999440e-06	-1.348438e-09	-3.471695e+01	-9.129169e+01
5.200000e-07	-4.979070e-06	-1.394027e-09	-3.457550e+01	-9.107813e+01
5.300000e-07	-4.958260e-06	-1.381982e-09	-3.443099e+01	-9.086524e+01
5.400000e-07	-4.937108e-06	-1.322674e-09	-3.428411e+01	-9.065310e+01
5.500000e-07	-4.915655e-06	-1.354429e-09	-3.413513e+01	-9.044177e+01
5.600000e-07	-4.893842e-06	-1.376626e-09	-3.398367e+01	-9.023128e+01
5.700000e-07	-4.871716e-06	-1.327746e-09	-3.383002e+01	-9.002161e+01
5.800000e-07	-4.849296e-06	-1.330843e-09	-3.367433e+01	-8.981273e+01
5.900000e-07	-4.826575e-06	-1.373575e-09	-3.351655e+01	-8.960455e+01
6.000000e-07	-4.803449e-06	-1.337257e-09	-3.335596e+01	-8.939697e+01
6.100000e-07	-4.779955e-06	-1.308332e-09	-3.319281e+01	-8.918987e+01
6.200000e-07	-4.756290e-06	-1.341887e-09	-3.302848e+01	-8.898306e+01
6.300000e-07	-4.732471e-06	-1.338665e-09	-3.286307e+01	-8.877639e+01
6.400000e-07	-4.708326e-06	-1.309964e-09	-3.269541e+01	-8.856963e+01
6.500000e-07	-4.683765e-06	-1.329398e-09	-3.252485e+01	-8.836257e+01
6.600000e-07	-4.658796e-06	-1.339367e-09	-3.235146e+01	-8.815497e+01
6.700000e-07	-4.633234e-06	-1.308398e-09	-3.217396e+01	-8.794658e+01
6.800000e-07	-4.607066e-06	-1.309781e-09	-3.199224e+01	-8.773714e+01
6.900000e-07	-4.580461e-06	-1.325806e-09	-3.180749e+01	-8.752638e+01
7.000000e-07	-4.553473e-06	-1.307432e-09	-3.162008e+01	-8.731405e+01
7.100000e-07	-4.526141e-06	-1.295077e-09	-3.143028e+01	-8.709986e+01
7.200000e-07	-4.498559e-06	-1.310258e-09	-3.123875e+01	-8.688355e+01
7.300000e-07	-4.470797e-06	-1.302664e-09	-3.104596e+01	-8.666486e+01
7.400000e-07	-4.442832e-06	-1.285883e-09	-3.085177e+01	-8.644354e+01
7.500000e-07	-4.414611e-06	-1.288140e-09	-3.065580e+01	-8.621933e+01
7.600000e-07	-4.386089e-06	-1.289600e-09	-3.045774e+01	-8.599201e+01
7.700000e-07	-4.357202e-06	-1.274189e-09	-3.025715e+01	-8.576134e+01
7.800000e-07	-4.327985e-06	-1.272435e-09	-3.005425e+01	-8.552713e+01
7.900000e-07	-4.298478e-06	-1.274346e-09	-2.984935e+01	-8.528918e+01
8.000000e-07	-4.268742e-06	-1.266524e-09	-2.964287e+01	-8.504732e+01
8.100000e-07	-4.238759e-06	-1.259928e-09	-2.943466e+01	-8.480138e+01
8.200000e-07	-4.208433e-06	-1.263378e-09	-2.922407e+01	-8.455124e+01
8.300000e-07	-4.177793e-06	-1.254623e-09	-2.901130e+01	-8.429676e+01
8.400000e-07	-4.146904e-06	-1.245506e-09	-2.879680e+01	-8.403785e+01
8.500000e-07	-4.115808e-06	-1.246082e-09	-2.858086e+01	-8.377441e+01
8.600000e-07	-4.084483e-06	-1.242516e-09	-2.836334e+01	-8.350638e+01
8.700000e-07	-4.052955e-06	-1.230275e-09	-2.814441e+01	-8.323370e+01
8.800000e-07	-4.021220e-06	-1.227413e-09	-2.792403e+01	-8.295634e+01
8.900000e-07	-3.989243e-06	-1.222791e-09	-2.770197e+01	-8.267427e+01
9.000000e-07	-3.957041e-06	-1.210515e-09	-2.747836e+01	-8.238747e+01
9.100000e-07	-3.924524e-06	-1.204834e-09	-2.725255e+01	-8.209596e+01
9.200000e-07	-3.891650e-06	-1.203156e-09	-2.702427e+01	-8.179973e+01
9.300000e-07	-3.858391e-06	-1.194272e-09	-2.679332e+01	-8.149880e+01
9.400000e-07	-3.824663e-06	-1.189153e-09	-2.655910e+01	-8.119321e+01
9.500000e-07	-3.790419e-06	-1.189635e-09	-2.632131e+01	-8.088297e+01
9.600000e-07	-3.755733e-06	-1.179930e-09	-2.608044e+01	-8.056813e+01
9.700000e-07	-3.720749e-06	-1.167817e-09	-2.583751e+01	-8.024871e+01
9.800000e-07	-3.685546e-06	-1.165595e-09	-2.559306e+01	-7.992475e+01
9.900000e-07	-3.650108e-06	-1.159982e-09	-2.534697e+01	-7.959629e+01
1.000000e-06	-3.614458e-06	-1.146075e-09	-2.509940e+01	-7.926336e+01
1.010000e-06	-3.578673e-06	-1.143794e-09	-2.485091e+01	-7.892599e+01
1.020000e-06	-3.542722e-06	-1.144483e-09	-2.460126e+01	-7.858421e+01
1.030000e-06	-3.506577e-06	-1.137263e-09	-2.435026e+01	-7.823803e+01
1.040000e-06	-3.470145e-06	-1.130892e-09	-2.409727e+01	-7.788748e+01
1.050000e-06	-3.433382e-06	-1.128391e-09	-2.384198e+01	-7.753256e+01
1.060000e-06	-3.396355e-06	-1.117833e-09	-2.358486e+01	-7.717328e+01
1.070000e-06	-3.359149e-06	-1.110193e-09	-2.332649e+01	-7.680963e+01
1.080000e-06	-3.321752e-06	-1.110627e-09	-2.306681e+01	-7.644161e+01
1.090000e-06	-3.284148e-06	-1.107493e-09	-2.280568e+01	-7.606921e+01
1.100000e-06	-3.246329e-06	-1.096012e-09	-2.254305e+01	-7.569240e+01
1.110000e-06	-3.208281e-06	-1.089964e-09	-2.227884e+01	-7.531116e+01
1.120000e-06	-3.170006e-06	-1.085248e-09	-2.201305e+01	-7.492546e+01
1.130000e-06	-3.131460e-06	-1.076495e-09	-2.174539e+01	-7.453527e+01
1.140000e-06	-3.092662e-06	-1.071745e-09	-2.147597e+01	-7.414055e+01
1.150000e-06	-3.053674e-06	-1.071200e-09	-2.120523e+01	-7.374127e+01
1.160000e-06	-3.014527e-06	-1.062318e-09	-2.093338e+01	-7.333739e+01
1.170000e-06	-2.975210e-06	-1.048553e-09	-2.066036e+01	-7.292887e+01
1.180000e-06	-2.935760e-06	-1.041285e-09	-2.038641e+01	-7.251567e+01
1.190000e-06	-2.896152e-06	-1.036020e-09	-2.011137e+01	-7.209776e+01
1.200000e-06	-2.856377e-06	-1.026748e-09	-1.983516e+01	-7.167510e+01
1.210000e-06	-2.816504e-06	-1.019645e-09	-1.955827e+01	-7.124766e+01
1.220000e-06	-2.776479e-06	-1.014210e-09	-1.928034e+01	-7.081540e+01
1.230000e-06	-2.736283e-06	-1.008059e-09	-1.900121e+01	-7.037832e+01
1.240000e-06	-2.695879e-06	-1.004358e-09	-1.872063e+01	-6.993637e+01
1.250000e-06	-2.655203e-06	-1.004200e-09	-1.843818e+01	-6.948954e+01
1.260000e-06	-2.614311e-06	-1.000806e-09	-1.815422e+01	-6.903781e+01
1.270000e-06	-2.573168e-06	-9.929165e-10	-1.786852e+01	-6.858117e+01
1.280000e-06	-2.531673e-06	-9.864831e-10	-1.758036e+01	-6.811960e+01
1.290000e-06	-2.489851e-06	-9.794671e-10	-1.728994e+01	-6.765310e+01
1.300000e-06	-2.447799e-06	-9.696780e-10	-1.699793e+01	-6.718163e+01
1.310000e-06	-2.405416e-06	-9.611385e-10	-1.670362e+01	-6.670518e+01
1.320000e-06	-2.362774e-06	-9.555366e-10	-1.640750e+01	-6.622373e+01
1.330000e-06	-2.319906e-06	-9.481060e-10	-1.610982e+01	-6.573725e+01
1.340000e-06	-2.276686e-06	-9.403408e-10	-1.580969e+01	-6.524568e+01
1.350000e-06	-2.233299e-06	-9.332901e-10	-1.550840e+01	-6.474899e+01
1.360000e-06	-2.189861e-06	-9.239854e-10	-1.520676e+01	-6.424710e+01
1.370000e-06	-2.146333e-06	-9.113774e-10	-1.490450e+01	-6.373992e+01
1.380000e-06	-2.102745e-06	-8.999896e-10	-1.460181e+01	-6.322735e+01
1.390000e-06	-2.059079e-06	-8.909830e-10	-1.429859e+01	-6.270925e+01
1.400000e-06	-2.015308e-06	-8.833855e-10	-1.399464e+01	-6.218547e+01
1.410000e-06	-1.971398e-06	-8.773509e-10	-1.368972e+01	-6.165582e+01
1.420000e-06	-1.927381e-06	-8.721473e-10	-1.338406e+01	-6.112007e+01
1.430000e-06	-1.883269e-06	-8.630742e-10	-1.307774e+01	-6.057797e+01
1.440000e-06	-1.839014e-06	-8.536336e-10	-1.277043e+01	-6.002922e+01
1.450000e-06	-1.794647e-06	-8.439680e-10	-1.246233e+01	-5.947347e+01
1.460000e-06	-1.750174e-06	-8.313609e-10	-1.215350e+01	-5.891036e+01
1.470000e-06	-1.705588e-06	-8.169580e-10	-1.184389e+01	-5.833944e+01
1.480000e-06	-1.660911e-06	-8.056629e-10	-1.153364e+01	-5.776023e+01
1.490000e-06	-1.616100e-06	-7.945074e-10	-1.122247e+01	-5.717222e+01
1.500000e-06	-1.571091e-06	-7.823036e-10	-1.090992e+01	-5.657482e+01
1.510000e-06	-1.526004e-06	-7.724085e-10	-1.059683e+01	-5.596741e+01
1.520000e-06	-1.480804e-06	-7.635369e-10	-1.028296e+01	-5.534929e+01
1.530000e-06	-1.435405e-06	-7.536055e-10	-9.967695e+00	-5.471975e+01
1.540000e-06	-1.389931e-06	-7.423640e-10	-9.651914e+00	-5.407799e+01
1.550000e-06	-1.344396e-06	-7.306090e-10	-9.335712e+00	-5.342318e+01
1.560000e-06	-1.298796e-06	-7.186193e-10	-9.019061e+00	-5.275446e+01
1.570000e-06	-1.253181e-06	-7.070369e-10	-8.702299e+00	-5.207089e+01
1.580000e-06	-1.207473e-06	-6.963520e-10	-8.384898e+00	-5.137152e+01
1.590000e-06	-1.161597e-06	-6.869784e-10	-8.066326e+00	-5.065535e+01
1.600000e-06	-1.115682e-06	-6.774011e-10	-7.747481e+00	-4.992135e+01
1.610000e-06	-1.069669e-06	-6.662729e-10	-7.427965e+00	-4.916847e+01
1.620000e-06	-1.023498e-06	-6.536864e-10	-7.107343e+00	-4.839562e+01
1.630000e-06	-9.772830e-07	-6.410302e-10	-6.786418e+00	-4.760172e+01
1.640000e-06	-9.310351e-07	-6.288333e-10	-6.465264e+00	-4.678566e+01
1.650000e-06	-8.847336e-07	-6.153816e-10	-6.143739e+00	-4.594634e+01
1.660000e-06	-8.383721e-07	-5.981662e-10	-5.821797e+00	-4.508266e+01
1.670000e-06	-7.920414e-07	-5.802323e-10	-5.500069e+00	-4.419354e+01
1.680000e-06	-7.456618e-07	-5.632480e-10	-5.178001e+00	-4.327792e+01
1.690000e-06	-6.991945e-07	-5.475469e-10	-4.855324e+00	-4.233476e+01
1.700000e-06	-6.526367e-07	-5.321739e-10	-4.532019e+00	-4.136308e+01
1.710000e-06	-6.059555e-07	-5.177698e-10	-4.207857e+00	-4.036193e+01
1.720000e-06	-5.592872e-07	-5.037097e-10	-3.883784e+00	-3.933042e+01
1.730000e-06	-5.126452e-07	-4.887720e-10	-3.559895e+00	-3.826772e+01
1.740000e-06	-4.659038e-07	-4.720377e-10	-3.235314e+00	-3.717309e+01
1.750000e-06	-4.190943e-07	-4.533526e-10	-2.910262e+00	-3.604584e+01
1.760000e-06	-3.722474e-07	-4.344113e-10	-2.584949e+00	-3.488540e+01
1.770000e-06	-3.253473e-07	-4.172153e-10	-2.259266e+00	-3.369128e+01
1.780000e-06	-2.784620e-07	-4.011742e-10	-1.933687e+00	-3.246310e+01
1.790000e-06	-2.315393e-07	-3.860712e-10	-1.607848e+00	-3.120058e+01
1.800000e-06	-1.846133e-07	-3.695750e-10	-1.281986e+00	-2.990356e+01
1.810000e-06	-1.377661e-07	-3.502731e-10	-9.566712e-01	-2.857200e+01
1.820000e-06	-9.090130e-08	-3.309792e-10	-6.312339e-01	-2.720599e+01
1.830000e-06	-4.404735e-08	-3.132842e-10	-3.058722e-01	-2.580576e+01
1.840000e-06	2.798905e-09	-2.954880e-10	1.943607e-02	-2.437164e+01
1.850000e-06	4.968952e-08	-2.749848e-10	3.450524e-01	-2.290413e+01
1.860000e-06	9.654238e-08	-2.525407e-10	6.704066e-01	-2.140384e+01
1.870000e-06	1.433541e-07	-2.288829e-10	9.954748e-01	-1.987153e+01
1.880000e-06	1.901419e-07	-2.064270e-10	1.320378e+00	-1.830808e+01
1.890000e-06	2.369072e-07	-1.872129e-10	1.645123e+00	-1.671454e+01
1.900000e-06	2.837018e-07	-1.675068e-10	1.970073e+00	-1.509204e+01
1.910000e-06	3.305370e-07	-1.463945e-10	2.295305e+00	-1.344188e+01
1.920000e-06	3.773249e-07	-1.258163e-10	2.620208e+00	-1.176547e+01
1.930000e-06	4.240308e-07	-1.029702e-10	2.944541e+00	-1.006432e+01
1.940000e-06	4.706936e-07	-7.699895e-11	3.268576e+00	-8.340093e+00
1.950000e-06	5.173286e-07	-4.858018e-11	3.592417e+00	-6.594521e+00
1.960000e-06	5.639113e-07	-2.400377e-11	3.915895e+00	-4.829448e+00
1.970000e-06	6.104118e-07	-2.861109e-12	4.238803e+00	-3.046807e+00
1.980000e-06	6.568008e-07	1.848013e-11	4.560935e+00	-1.248611e+00
1.990000e-06	7.030780e-07	4.263018e-11	4.882292e+00	5.630586e-01
2.000000e-06	7.493726e-07	7.104315e-11	5.203770e+00	2.386057e+00
2.010000e-06	7.956575e-07	1.025469e-10	5.525180e+00	4.218193e+00
2.020000e-06	8.418618e-07	1.316982e-10	5.846030e+00	6.057235e+00
2.030000e-06	8.880150e-07	1.565267e-10	6.166526e+00	7.900923e+00
2.040000e-06	9.341593e-07	1.777581e-10	6.486960e+00	9.746984e+00
2.050000e-06	9.802478e-07	1.997089e-10	6.807006e+00	1.159314e+01
2.060000e-06	1.026278e-06	2.248112e-10	7.126647e+00	1.343712e+01
2.070000e-06	1.072272e-06	2.524460e-10	7.446034e+00	1.527666e+01
2.080000e-06	1.118091e-06	2.828152e-10	7.764214e+00	1.710955e+01
2.090000e-06	1.163856e-06	3.132622e-10	8.082012e+00	1.893361e+01
2.100000e-06	1.209583e-06	3.410481e-10	8.399550e+00	2.074670e+01
2.110000e-06	1.255147e-06	3.643668e-10	8.715949e+00	2.254676e+01
2.120000e-06	1.300522e-06	3.849766e-10	9.031044e+00	2.433178e+01
2.130000e-06	1.345767e-06	4.035949e-10	9.345230e+00	2.609986e+01
2.140000e-06	1.391037e-06	4.238492e-10	9.659597e+00	2.784916e+01
2.150000e-06	1.436281e-06	4.487553e-10	9.973779e+00	2.957796e+01
2.160000e-06	1.481443e-06	4.757140e-10	1.028739e+01	3.128461e+01
2.170000e-06	1.526526e-06	5.001663e-10	1.060046e+01	3.296762e+01
2.180000e-06	1.571424e-06	5.227533e-10	1.091223e+01	3.462557e+01
2.190000e-06	1.616135e-06	5.441328e-10	1.122271e+01	3.625717e+01
2.200000e-06	1.660782e-06	5.641526e-10	1.153275e+01	3.786127e+01
2.210000e-06	1.705359e-06	5.824776e-10	1.184230e+01	3.943683e+01
2.220000e-06	1.749835e-06	6.014968e-10	1.215115e+01	4.098293e+01
2.230000e-06	1.794206e-06	6.219001e-10	1.245927e+01	4.249879e+01
2.240000e-06	1.838425e-06	6.418300e-10	1.276633e+01	4.398375e+01
2.250000e-06	1.882505e-06	6.604868e-10	1.307243e+01	4.543727e+01
2.260000e-06	1.926483e-06	6.818797e-10	1.337782e+01	4.685894e+01
2.270000e-06	1.970398e-06	7.041330e-10	1.368277e+01	4.824848e+01
2.280000e-06	2.014274e-06	7.258516e-10	1.398746e+01	4.960570e+01
2.290000e-06	2.058092e-06	7.469070e-10	1.429174e+01	5.093054e+01
2.300000e-06	2.101844e-06	7.643666e-10	1.459556e+01	5.222304e+01
2.310000e-06	2.145501e-06	7.796381e-10	1.489872e+01	5.348334e+01
2.320000e-06	2.188995e-06	7.945981e-10	1.520075e+01	5.471168e+01
2.330000e-06	2.232341e-06	8.081156e-10	1.550175e+01	5.590839e+01
2.340000e-06	2.275626e-06	8.228284e-10	1.580233e+01	5.707386e+01
2.350000e-06	2.318711e-06	8.401050e-10	1.610152e+01	5.820858e+01
2.360000e-06	2.361563e-06	8.564885e-10	1.639909e+01	5.931307e+01
2.370000e-06	2.404231e-06	8.701431e-10	1.669538e+01	6.038795e+01
2.380000e-06	2.446584e-06	8.827711e-10	1.698949e+01	6.143385e+01
2.390000e-06	2.488630e-06	8.958416e-10	1.728147e+01	6.245146e+01
2.400000e-06	2.530458e-06	9.109200e-10	1.757193e+01	6.344151e+01
2.410000e-06	2.571950e-06	9.269783e-10	1.786006e+01	6.440473e+01
2.420000e-06	2.613106e-06	9.414111e-10	1.814585e+01	6.534188e+01
2.430000e-06	2.653984e-06	9.560400e-10	1.842971e+01	6.625375e+01
2.440000e-06	2.694534e-06	9.687287e-10	1.871130e+01	6.714111e+01
2.450000e-06	2.734887e-06	9.794064e-10	1.899151e+01	6.800472e+01
2.460000e-06	2.775039e-06	9.891445e-10	1.927034e+01	6.884535e+01
2.470000e-06	2.815028e-06	9.989423e-10	1.954803e+01	6.966375e+01
2.480000e-06	2.854894e-06	1.009665e-09	1.982486e+01	7.046065e+01
2.490000e-06	2.894613e-06	1.021404e-09	2.010068e+01	7.123674e+01
2.500000e-06	2.934227e-06	1.031908e-09	2.037576e+01	7.199272e+01
2.510000e-06	2.973725e-06	1.040956e-09	2.065005e+01	7.272923e+01
2.520000e-06	3.013072e-06	1.049486e-09	2.092328e+01	7.344687e+01
2.530000e-06	3.052226e-06	1.057776e-09	2.119517e+01	7.414622e+01
2.540000e-06	3.091153e-06	1.067236e-09	2.146549e+01	7.482784e+01
2.550000e-06	3.129820e-06	1.077032e-09	2.173400e+01	7.549221e+01
2.560000e-06	3.168253e-06	1.086201e-09	2.200088e+01	7.613981e+01
2.570000e-06	3.206472e-06	1.095788e-09	2.226628e+01	7.677106e+01
2.580000e-06	3.244507e-06	1.104246e-09	2.253040e+01	7.738637e+01
2.590000e-06	3.282295e-06	1.112134e-09	2.279281e+01	7.798609e+01
2.600000e-06	3.319847e-06	1.121881e-09	2.305358e+01	7.857055e+01
2.610000e-06	3.357238e-06	1.131539e-09	2.331322e+01	7.914005e+01
2.620000e-06	3.394389e-06	1.138397e-09	2.357121e+01	7.969487e+01
2.630000e-06	3.431264e-06	1.145187e-09	2.382728e+01	8.023524e+01
2.640000e-06	3.467934e-06	1.152054e-09	2.408192e+01	8.076141e+01
2.650000e-06	3.504350e-06	1.158362e-09	2.433480e+01	8.127359e+01
2.660000e-06	3.540412e-06	1.164578e-09	2.458521e+01	8.177196e+01
2.670000e-06	3.576263e-06	1.169500e-09	2.483418e+01	8.225673e+01
2.680000e-06	3.612032e-06	1.174923e-09	2.508256e+01	8.272807e+01
2.690000e-06	3.647619e-06	1.182288e-09	2.532968e+01	8.318617e+01
2.700000e-06	3.683057e-06	1.191057e-09	2.557577e+01	8.363121e+01
2.710000e-06	3.718374e-06	1.201532e-09	2.582101e+01	8.406338e+01
2.720000e-06	3.753417e-06	1.211180e-09	2.606436e+01	8.448287e+01
2.730000e-06	3.788110e-06	1.220776e-09	2.630527e+01	8.488990e+01
2.740000e-06	3.822425e-06	1.226475e-09	2.654356e+01	8.528467e+01
2.750000e-06	3.856225e-06	1.228344e-09	2.677828e+01	8.566743e+01
2.760000e-06	3.889648e-06	1.231979e-09	2.701037e+01	8.603843e+01
2.770000e-06	3.922731e-06	1.237656e-09	2.724010e+01	8.639794e+01
2.780000e-06	3.955348e-06	1.247403e-09	2.746660e+01	8.674625e+01
2.790000e-06	3.987602e-06	1.257862e-09	2.769058e+01	8.708367e+01
2.800000e-06	4.019552e-06	1.265752e-09	2.791244e+01	8.741053e+01
2.810000e-06	4.051331e-06	1.268316e-09	2.813312e+01	8.772720e+01
2.820000e-06	4.082971e-06	1.271762e-09	2.835284e+01	8.803403e+01
2.830000e-06	4.114408e-06	1.277390e-09	2.857114e+01	8.833143e+01
2.840000e-06	4.145611e-06	1.283303e-09	2.878782e+01	8.861979e+01
2.850000e-06	4.176580e-06	1.289732e-09	2.900287e+01	8.889954e+01
2.860000e-06	4.207225e-06	1.297573e-09	2.921568e+01	8.917111e+01
2.870000e-06	4.237460e-06	1.307182e-09	2.942564e+01	8.943496e+01
2.880000e-06	4.267348e-06	1.315440e-09	2.963318e+01	8.969152e+01
2.890000e-06	4.296975e-06	1.321233e-09	2.983892e+01	8.994127e+01
2.900000e-06	4.326374e-06	1.325079e-09	3.004307e+01	9.018464e+01
