# Temperatura_=_-7.2
# Concentracion g/m^3_=_1620.0
# C_Vs_to_Am_M_A/Vsm_=_65563218390.804596
# pendiente_HvsI_1/m_=_3716.3
# ordenada_HvsI_A/m_=_1297.0
# frecuencia_Hz_=_135108.35893652434

Tiempo_(s)	Campo_(V.s)	Magnetizacion_(V.s)	Campo_(kA/m)	Magnetizacion_(A/m)
0.000000e+00	-5.544895e-06	-1.066901e-09	-3.836160e+01	-7.138795e+01
1.000000e-08	-5.544991e-06	-1.065256e-09	-3.836227e+01	-7.135882e+01
2.000000e-08	-5.544841e-06	-1.064169e-09	-3.836122e+01	-7.132866e+01
3.000000e-08	-5.544326e-06	-1.064462e-09	-3.835766e+01	-7.129722e+01
4.000000e-08	-5.543381e-06	-1.061779e-09	-3.835112e+01	-7.126423e+01
5.000000e-08	-5.541850e-06	-1.051272e-09	-3.834054e+01	-7.122942e+01
6.000000e-08	-5.539647e-06	-1.032001e-09	-3.832530e+01	-7.119251e+01
7.000000e-08	-5.536852e-06	-1.024574e-09	-3.830596e+01	-7.115323e+01
8.000000e-08	-5.533497e-06	-1.077985e-09	-3.828274e+01	-7.111129e+01
9.000000e-08	-5.529640e-06	-1.150806e-09	-3.825606e+01	-7.106643e+01
1.000000e-07	-5.525391e-06	-1.094301e-09	-3.822667e+01	-7.101838e+01
1.100000e-07	-5.520967e-06	-9.693576e-10	-3.819606e+01	-7.096690e+01
1.200000e-07	-5.516436e-06	-9.909042e-10	-3.816471e+01	-7.091175e+01
1.300000e-07	-5.511536e-06	-1.098657e-09	-3.813081e+01	-7.085271e+01
1.400000e-07	-5.506132e-06	-1.098667e-09	-3.809343e+01	-7.078960e+01
1.500000e-07	-5.500259e-06	-9.680415e-10	-3.805279e+01	-7.072224e+01
1.600000e-07	-5.494001e-06	-9.981113e-10	-3.800950e+01	-7.065049e+01
1.700000e-07	-5.487352e-06	-1.134356e-09	-3.796350e+01	-7.057423e+01
1.800000e-07	-5.480238e-06	-1.127200e-09	-3.791428e+01	-7.049337e+01
1.900000e-07	-5.472785e-06	-9.935764e-10	-3.786271e+01	-7.040787e+01
2.000000e-07	-5.465141e-06	-9.591252e-10	-3.780983e+01	-7.031770e+01
2.100000e-07	-5.457227e-06	-1.067908e-09	-3.775508e+01	-7.022288e+01
2.200000e-07	-5.449003e-06	-1.103074e-09	-3.769819e+01	-7.012344e+01
2.300000e-07	-5.440507e-06	-1.042879e-09	-3.763941e+01	-7.001947e+01
2.400000e-07	-5.431492e-06	-1.005463e-09	-3.757704e+01	-6.991108e+01
2.500000e-07	-5.421657e-06	-1.058405e-09	-3.750900e+01	-6.979841e+01
2.600000e-07	-5.411095e-06	-1.054485e-09	-3.743592e+01	-6.968165e+01
2.700000e-07	-5.400146e-06	-1.000988e-09	-3.736017e+01	-6.956100e+01
2.800000e-07	-5.388785e-06	-9.869453e-10	-3.728157e+01	-6.943669e+01
2.900000e-07	-5.376983e-06	-1.043106e-09	-3.719992e+01	-6.930898e+01
3.000000e-07	-5.364869e-06	-1.036033e-09	-3.711611e+01	-6.917817e+01
3.100000e-07	-5.352284e-06	-9.891183e-10	-3.702905e+01	-6.904455e+01
3.200000e-07	-5.339130e-06	-9.957348e-10	-3.693805e+01	-6.890845e+01
3.300000e-07	-5.325657e-06	-1.045098e-09	-3.684483e+01	-6.877021e+01
3.400000e-07	-5.311971e-06	-1.022068e-09	-3.675015e+01	-6.863018e+01
3.500000e-07	-5.297783e-06	-9.685704e-10	-3.665199e+01	-6.848873e+01
3.600000e-07	-5.283040e-06	-9.956315e-10	-3.654999e+01	-6.834621e+01
3.700000e-07	-5.267979e-06	-1.040147e-09	-3.644580e+01	-6.820300e+01
3.800000e-07	-5.252385e-06	-9.919743e-10	-3.633791e+01	-6.805946e+01
3.900000e-07	-5.236103e-06	-9.617702e-10	-3.622526e+01	-6.791595e+01
4.000000e-07	-5.219449e-06	-1.023499e-09	-3.611005e+01	-6.777282e+01
4.100000e-07	-5.202562e-06	-1.015224e-09	-3.599322e+01	-6.763042e+01
4.200000e-07	-5.185288e-06	-9.398634e-10	-3.587371e+01	-6.748907e+01
4.300000e-07	-5.167653e-06	-9.821639e-10	-3.575170e+01	-6.734907e+01
4.400000e-07	-5.149810e-06	-1.057163e-09	-3.562826e+01	-6.721072e+01
4.500000e-07	-5.131562e-06	-9.787599e-10	-3.550201e+01	-6.707428e+01
4.600000e-07	-5.112766e-06	-9.353171e-10	-3.537197e+01	-6.693998e+01
4.700000e-07	-5.093565e-06	-1.010195e-09	-3.523914e+01	-6.680804e+01
4.800000e-07	-5.074108e-06	-1.005587e-09	-3.510453e+01	-6.667863e+01
4.900000e-07	-5.054438e-06	-9.310568e-10	-3.496844e+01	-6.655192e+01
5.000000e-07	-5.034552e-06	-9.853513e-10	-3.483086e+01	-6.642801e+01
5.100000e-07	-5.014471e-06	-1.014861e-09	-3.469194e+01	-6.630700e+01
5.200000e-07	-4.993988e-06	-9.429972e-10	-3.455022e+01	-6.618894e+01
5.300000e-07	-4.973019e-06	-9.597253e-10	-3.440515e+01	-6.607385e+01
5.400000e-07	-4.951743e-06	-1.028083e-09	-3.425796e+01	-6.596172e+01
5.500000e-07	-4.930096e-06	-9.526031e-10	-3.410820e+01	-6.585252e+01
5.600000e-07	-4.908160e-06	-9.086503e-10	-3.395643e+01	-6.574617e+01
5.700000e-07	-4.886027e-06	-9.873927e-10	-3.380331e+01	-6.564257e+01
5.800000e-07	-4.863499e-06	-9.903358e-10	-3.364745e+01	-6.554160e+01
5.900000e-07	-4.840491e-06	-9.277871e-10	-3.348828e+01	-6.544309e+01
6.000000e-07	-4.817160e-06	-9.691285e-10	-3.332687e+01	-6.534687e+01
6.100000e-07	-4.793654e-06	-9.942828e-10	-3.316424e+01	-6.525275e+01
6.200000e-07	-4.769927e-06	-9.377626e-10	-3.300009e+01	-6.516050e+01
6.300000e-07	-4.745942e-06	-9.401160e-10	-3.283415e+01	-6.506989e+01
6.400000e-07	-4.721699e-06	-9.802317e-10	-3.266643e+01	-6.498068e+01
6.500000e-07	-4.697067e-06	-9.517093e-10	-3.249602e+01	-6.489260e+01
6.600000e-07	-4.672014e-06	-9.395938e-10	-3.232269e+01	-6.480539e+01
6.700000e-07	-4.646438e-06	-9.759183e-10	-3.214575e+01	-6.471878e+01
6.800000e-07	-4.620193e-06	-9.663319e-10	-3.196418e+01	-6.463250e+01
6.900000e-07	-4.593381e-06	-9.434609e-10	-3.177868e+01	-6.454626e+01
7.000000e-07	-4.566135e-06	-9.588473e-10	-3.159018e+01	-6.445981e+01
7.100000e-07	-4.538588e-06	-9.584511e-10	-3.139960e+01	-6.437288e+01
7.200000e-07	-4.510854e-06	-9.364654e-10	-3.120773e+01	-6.428521e+01
7.300000e-07	-4.482975e-06	-9.492151e-10	-3.101485e+01	-6.419656e+01
7.400000e-07	-4.454966e-06	-9.590530e-10	-3.082108e+01	-6.410669e+01
7.500000e-07	-4.426705e-06	-9.448731e-10	-3.062556e+01	-6.401539e+01
7.600000e-07	-4.398062e-06	-9.405575e-10	-3.042739e+01	-6.392244e+01
7.700000e-07	-4.369122e-06	-9.471694e-10	-3.022718e+01	-6.382768e+01
7.800000e-07	-4.339907e-06	-9.353224e-10	-3.002505e+01	-6.373092e+01
7.900000e-07	-4.310386e-06	-9.335144e-10	-2.982082e+01	-6.363202e+01
8.000000e-07	-4.280569e-06	-9.369420e-10	-2.961453e+01	-6.353084e+01
8.100000e-07	-4.250398e-06	-9.266806e-10	-2.940580e+01	-6.342728e+01
8.200000e-07	-4.219891e-06	-9.205349e-10	-2.919474e+01	-6.332125e+01
8.300000e-07	-4.189117e-06	-9.333224e-10	-2.898183e+01	-6.321266e+01
8.400000e-07	-4.158084e-06	-9.285619e-10	-2.876714e+01	-6.310148e+01
8.500000e-07	-4.126801e-06	-9.174940e-10	-2.855071e+01	-6.298765e+01
8.600000e-07	-4.095308e-06	-9.217820e-10	-2.833283e+01	-6.287117e+01
8.700000e-07	-4.063652e-06	-9.217274e-10	-2.811382e+01	-6.275202e+01
8.800000e-07	-4.031829e-06	-9.069389e-10	-2.789366e+01	-6.263022e+01
8.900000e-07	-3.999809e-06	-9.064431e-10	-2.767213e+01	-6.250579e+01
9.000000e-07	-3.967494e-06	-9.086650e-10	-2.744856e+01	-6.237876e+01
9.100000e-07	-3.934810e-06	-8.974329e-10	-2.722245e+01	-6.224917e+01
9.200000e-07	-3.901805e-06	-8.953976e-10	-2.699410e+01	-6.211707e+01
9.300000e-07	-3.868461e-06	-9.072834e-10	-2.676342e+01	-6.198252e+01
9.400000e-07	-3.834509e-06	-9.027009e-10	-2.652853e+01	-6.184557e+01
9.500000e-07	-3.799938e-06	-8.919516e-10	-2.628935e+01	-6.170628e+01
9.600000e-07	-3.765010e-06	-8.920760e-10	-2.604771e+01	-6.156472e+01
9.700000e-07	-3.729798e-06	-8.855703e-10	-2.580410e+01	-6.142092e+01
9.800000e-07	-3.694399e-06	-8.731832e-10	-2.555920e+01	-6.127496e+01
9.900000e-07	-3.658856e-06	-8.733717e-10	-2.531330e+01	-6.112687e+01
1.000000e-06	-3.623135e-06	-8.787293e-10	-2.506617e+01	-6.097669e+01
1.010000e-06	-3.587223e-06	-8.710357e-10	-2.481772e+01	-6.082446e+01
1.020000e-06	-3.551166e-06	-8.685074e-10	-2.456826e+01	-6.067019e+01
1.030000e-06	-3.514970e-06	-8.735053e-10	-2.431784e+01	-6.051390e+01
1.040000e-06	-3.478481e-06	-8.703367e-10	-2.406540e+01	-6.035560e+01
1.050000e-06	-3.441646e-06	-8.613427e-10	-2.381056e+01	-6.019526e+01
1.060000e-06	-3.404559e-06	-8.612269e-10	-2.355398e+01	-6.003287e+01
1.070000e-06	-3.367177e-06	-8.593154e-10	-2.329536e+01	-5.986839e+01
1.080000e-06	-3.329518e-06	-8.559594e-10	-2.303482e+01	-5.970178e+01
1.090000e-06	-3.291771e-06	-8.561799e-10	-2.277367e+01	-5.953299e+01
1.100000e-06	-3.253915e-06	-8.551617e-10	-2.251177e+01	-5.936194e+01
1.110000e-06	-3.215727e-06	-8.465669e-10	-2.224757e+01	-5.918855e+01
1.120000e-06	-3.177234e-06	-8.427131e-10	-2.198126e+01	-5.901275e+01
1.130000e-06	-3.138530e-06	-8.441825e-10	-2.171349e+01	-5.883444e+01
1.140000e-06	-3.099583e-06	-8.424082e-10	-2.144404e+01	-5.865350e+01
1.150000e-06	-3.060396e-06	-8.372282e-10	-2.117293e+01	-5.846985e+01
1.160000e-06	-3.021075e-06	-8.357477e-10	-2.090089e+01	-5.828336e+01
1.170000e-06	-2.981640e-06	-8.317308e-10	-2.062807e+01	-5.809392e+01
1.180000e-06	-2.942040e-06	-8.262966e-10	-2.035411e+01	-5.790142e+01
1.190000e-06	-2.902359e-06	-8.214935e-10	-2.007957e+01	-5.770572e+01
1.200000e-06	-2.862539e-06	-8.170778e-10	-1.980408e+01	-5.750672e+01
1.210000e-06	-2.822481e-06	-8.127156e-10	-1.952695e+01	-5.730430e+01
1.220000e-06	-2.782272e-06	-8.115086e-10	-1.924877e+01	-5.709834e+01
1.230000e-06	-2.741973e-06	-8.128422e-10	-1.896996e+01	-5.688873e+01
1.240000e-06	-2.701418e-06	-8.106465e-10	-1.868939e+01	-5.667537e+01
1.250000e-06	-2.660525e-06	-8.085662e-10	-1.840648e+01	-5.645815e+01
1.260000e-06	-2.619342e-06	-8.061327e-10	-1.812156e+01	-5.623697e+01
1.270000e-06	-2.577889e-06	-8.020962e-10	-1.783477e+01	-5.601175e+01
1.280000e-06	-2.536111e-06	-7.961940e-10	-1.754573e+01	-5.578239e+01
1.290000e-06	-2.494025e-06	-7.918326e-10	-1.725457e+01	-5.554882e+01
1.300000e-06	-2.451671e-06	-7.887538e-10	-1.696155e+01	-5.531095e+01
1.310000e-06	-2.409038e-06	-7.847374e-10	-1.666660e+01	-5.506870e+01
1.320000e-06	-2.366200e-06	-7.829523e-10	-1.637023e+01	-5.482201e+01
1.330000e-06	-2.323204e-06	-7.826012e-10	-1.607277e+01	-5.457079e+01
1.340000e-06	-2.279982e-06	-7.801619e-10	-1.577374e+01	-5.431497e+01
1.350000e-06	-2.236498e-06	-7.756061e-10	-1.547291e+01	-5.405447e+01
1.360000e-06	-2.192833e-06	-7.691758e-10	-1.517081e+01	-5.378920e+01
1.370000e-06	-2.149071e-06	-7.635925e-10	-1.486806e+01	-5.351907e+01
1.380000e-06	-2.105251e-06	-7.565887e-10	-1.456489e+01	-5.324397e+01
1.390000e-06	-2.061346e-06	-7.531658e-10	-1.426114e+01	-5.296378e+01
1.400000e-06	-2.017389e-06	-7.501455e-10	-1.395703e+01	-5.267837e+01
1.410000e-06	-1.973369e-06	-7.453643e-10	-1.365249e+01	-5.238758e+01
1.420000e-06	-1.929224e-06	-7.402828e-10	-1.334707e+01	-5.209123e+01
1.430000e-06	-1.884969e-06	-7.363718e-10	-1.304090e+01	-5.178912e+01
1.440000e-06	-1.840679e-06	-7.303465e-10	-1.273448e+01	-5.148102e+01
1.450000e-06	-1.796263e-06	-7.226792e-10	-1.242720e+01	-5.116667e+01
1.460000e-06	-1.751693e-06	-7.170561e-10	-1.211885e+01	-5.084575e+01
1.470000e-06	-1.706980e-06	-7.113167e-10	-1.180951e+01	-5.051795e+01
1.480000e-06	-1.662031e-06	-7.046106e-10	-1.149854e+01	-5.018289e+01
1.490000e-06	-1.616870e-06	-6.969126e-10	-1.118609e+01	-4.984014e+01
1.500000e-06	-1.571652e-06	-6.890423e-10	-1.087326e+01	-4.948926e+01
1.510000e-06	-1.526395e-06	-6.836693e-10	-1.056015e+01	-4.912974e+01
1.520000e-06	-1.481005e-06	-6.792669e-10	-1.024613e+01	-4.876103e+01
1.530000e-06	-1.435488e-06	-6.749857e-10	-9.931231e+00	-4.838253e+01
1.540000e-06	-1.389866e-06	-6.686257e-10	-9.615595e+00	-4.799361e+01
1.550000e-06	-1.344133e-06	-6.606647e-10	-9.299200e+00	-4.759357e+01
1.560000e-06	-1.298339e-06	-6.516912e-10	-8.982381e+00	-4.718169e+01
1.570000e-06	-1.252515e-06	-6.425481e-10	-8.665353e+00	-4.675717e+01
1.580000e-06	-1.206620e-06	-6.341813e-10	-8.347833e+00	-4.631920e+01
1.590000e-06	-1.160647e-06	-6.287160e-10	-8.029776e+00	-4.586692e+01
1.600000e-06	-1.114572e-06	-6.247048e-10	-7.711013e+00	-4.539944e+01
1.610000e-06	-1.068440e-06	-6.192898e-10	-7.391856e+00	-4.491581e+01
1.620000e-06	-1.022230e-06	-6.152899e-10	-7.072162e+00	-4.441507e+01
1.630000e-06	-9.758868e-07	-6.078058e-10	-6.751540e+00	-4.389624e+01
1.640000e-06	-9.294931e-07	-5.989685e-10	-6.430571e+00	-4.335831e+01
1.650000e-06	-8.829745e-07	-5.884187e-10	-6.108739e+00	-4.280026e+01
1.660000e-06	-8.363477e-07	-5.756814e-10	-5.786157e+00	-4.222106e+01
1.670000e-06	-7.897042e-07	-5.614725e-10	-5.463461e+00	-4.161966e+01
1.680000e-06	-7.430022e-07	-5.487860e-10	-5.140360e+00	-4.099505e+01
1.690000e-06	-6.962187e-07	-5.373372e-10	-4.816694e+00	-4.034620e+01
1.700000e-06	-6.494075e-07	-5.263387e-10	-4.492837e+00	-3.967212e+01
1.710000e-06	-6.026338e-07	-5.155751e-10	-4.169240e+00	-3.897183e+01
1.720000e-06	-5.558401e-07	-5.058592e-10	-3.845504e+00	-3.824439e+01
1.730000e-06	-5.090032e-07	-4.937341e-10	-3.521469e+00	-3.748891e+01
1.740000e-06	-4.620764e-07	-4.808477e-10	-3.196813e+00	-3.670454e+01
1.750000e-06	-4.150423e-07	-4.675993e-10	-2.871414e+00	-3.589048e+01
1.760000e-06	-3.679696e-07	-4.530184e-10	-2.545748e+00	-3.504602e+01
1.770000e-06	-3.208060e-07	-4.415335e-10	-2.219452e+00	-3.417049e+01
1.780000e-06	-2.736457e-07	-4.291788e-10	-1.893180e+00	-3.326333e+01
1.790000e-06	-2.265434e-07	-4.162104e-10	-1.567310e+00	-3.232404e+01
1.800000e-06	-1.794445e-07	-4.038378e-10	-1.241462e+00	-3.135223e+01
1.810000e-06	-1.323604e-07	-3.918099e-10	-9.157174e-01	-3.034759e+01
1.820000e-06	-8.520125e-08	-3.784984e-10	-5.894533e-01	-2.930995e+01
1.830000e-06	-3.798428e-08	-3.633690e-10	-2.627891e-01	-2.823921e+01
1.840000e-06	9.112548e-09	-3.469544e-10	6.304392e-02	-2.713541e+01
1.850000e-06	5.614835e-08	-3.303483e-10	3.884547e-01	-2.599868e+01
1.860000e-06	1.032464e-07	-3.122289e-10	7.142960e-01	-2.482929e+01
1.870000e-06	1.503076e-07	-2.939726e-10	1.039883e+00	-2.362764e+01
1.880000e-06	1.973534e-07	-2.767449e-10	1.365363e+00	-2.239422e+01
1.890000e-06	2.444259e-07	-2.596014e-10	1.691027e+00	-2.112968e+01
1.900000e-06	2.914567e-07	-2.419648e-10	2.016403e+00	-1.983477e+01
1.910000e-06	3.383930e-07	-2.232003e-10	2.341126e+00	-1.851037e+01
1.920000e-06	3.852910e-07	-2.039634e-10	2.665583e+00	-1.715748e+01
1.930000e-06	4.321547e-07	-1.852999e-10	2.989803e+00	-1.577721e+01
1.940000e-06	4.789364e-07	-1.653599e-10	3.313456e+00	-1.437081e+01
1.950000e-06	5.256911e-07	-1.459523e-10	3.636922e+00	-1.293960e+01
1.960000e-06	5.724601e-07	-1.298252e-10	3.960487e+00	-1.148504e+01
1.970000e-06	6.192209e-07	-1.142995e-10	4.283996e+00	-1.000866e+01
1.980000e-06	6.659355e-07	-9.648969e-11	4.607184e+00	-8.512102e+00
1.990000e-06	7.125191e-07	-7.400431e-11	4.929466e+00	-6.997088e+00
2.000000e-06	7.590212e-07	-4.668059e-11	5.251184e+00	-5.465412e+00
2.010000e-06	8.055229e-07	-1.798835e-11	5.572900e+00	-3.918939e+00
2.020000e-06	8.519248e-07	6.407744e-12	5.893926e+00	-2.359594e+00
2.030000e-06	8.982546e-07	2.573190e-11	6.214452e+00	-7.893517e-01
2.040000e-06	9.445792e-07	4.242921e-11	6.534943e+00	7.897711e-01
2.050000e-06	9.908589e-07	6.084376e-11	6.855122e+00	2.375727e+00
2.060000e-06	1.037027e-06	8.330623e-11	7.174528e+00	3.966448e+00
2.070000e-06	1.083101e-06	1.078934e-10	7.493288e+00	5.559855e+00
2.080000e-06	1.129093e-06	1.340723e-10	7.811476e+00	7.153867e+00
2.090000e-06	1.174992e-06	1.594714e-10	8.129023e+00	8.746413e+00
2.100000e-06	1.220864e-06	1.835372e-10	8.446382e+00	1.033544e+01
2.110000e-06	1.266657e-06	2.040216e-10	8.763191e+00	1.191892e+01
2.120000e-06	1.312334e-06	2.210888e-10	9.079205e+00	1.349488e+01
2.130000e-06	1.357895e-06	2.381988e-10	9.394409e+00	1.506137e+01
2.140000e-06	1.403348e-06	2.575910e-10	9.708871e+00	1.661650e+01
2.150000e-06	1.448762e-06	2.832298e-10	1.002306e+01	1.815847e+01
2.160000e-06	1.494100e-06	3.100937e-10	1.033673e+01	1.968552e+01
2.170000e-06	1.539319e-06	3.351332e-10	1.064957e+01	2.119597e+01
2.180000e-06	1.584417e-06	3.566758e-10	1.096157e+01	2.268826e+01
2.190000e-06	1.629395e-06	3.751242e-10	1.127275e+01	2.416088e+01
2.200000e-06	1.674288e-06	3.912771e-10	1.158334e+01	2.561243e+01
2.210000e-06	1.719039e-06	4.067136e-10	1.189294e+01	2.704161e+01
2.220000e-06	1.763554e-06	4.239248e-10	1.220091e+01	2.844722e+01
2.230000e-06	1.807926e-06	4.422190e-10	1.250789e+01	2.982818e+01
2.240000e-06	1.852208e-06	4.600811e-10	1.281425e+01	3.118349e+01
2.250000e-06	1.896402e-06	4.791851e-10	1.312000e+01	3.251229e+01
2.260000e-06	1.940510e-06	5.008782e-10	1.342515e+01	3.381380e+01
2.270000e-06	1.984491e-06	5.198446e-10	1.372943e+01	3.508737e+01
2.280000e-06	2.028415e-06	5.343526e-10	1.403331e+01	3.633244e+01
2.290000e-06	2.072294e-06	5.473938e-10	1.433688e+01	3.754856e+01
2.300000e-06	2.116084e-06	5.605463e-10	1.463984e+01	3.873540e+01
2.310000e-06	2.159804e-06	5.750641e-10	1.494231e+01	3.989270e+01
2.320000e-06	2.203452e-06	5.906608e-10	1.524428e+01	4.102032e+01
2.330000e-06	2.246964e-06	6.065035e-10	1.554531e+01	4.211820e+01
2.340000e-06	2.290387e-06	6.224509e-10	1.584573e+01	4.318637e+01
2.350000e-06	2.333679e-06	6.370278e-10	1.614524e+01	4.422495e+01
2.360000e-06	2.376752e-06	6.485958e-10	1.644324e+01	4.523411e+01
2.370000e-06	2.419609e-06	6.586477e-10	1.673973e+01	4.621411e+01
2.380000e-06	2.462213e-06	6.695939e-10	1.703449e+01	4.716528e+01
2.390000e-06	2.504539e-06	6.801595e-10	1.732731e+01	4.808800e+01
2.400000e-06	2.546465e-06	6.926859e-10	1.761737e+01	4.898269e+01
2.410000e-06	2.587948e-06	7.080496e-10	1.790437e+01	4.984983e+01
2.420000e-06	2.628992e-06	7.227274e-10	1.818832e+01	5.068994e+01
2.430000e-06	2.669719e-06	7.339522e-10	1.847009e+01	5.150357e+01
2.440000e-06	2.710282e-06	7.428332e-10	1.875072e+01	5.229129e+01
2.450000e-06	2.750657e-06	7.503371e-10	1.903005e+01	5.305369e+01
2.460000e-06	2.790880e-06	7.576779e-10	1.930832e+01	5.379140e+01
2.470000e-06	2.830994e-06	7.670827e-10	1.958584e+01	5.450502e+01
2.480000e-06	2.870967e-06	7.781545e-10	1.986239e+01	5.519518e+01
2.490000e-06	2.910777e-06	7.897350e-10	2.013781e+01	5.586252e+01
2.500000e-06	2.950466e-06	8.001064e-10	2.041239e+01	5.650764e+01
2.510000e-06	2.990070e-06	8.081387e-10	2.068639e+01	5.713118e+01
2.520000e-06	3.029554e-06	8.151435e-10	2.095956e+01	5.773372e+01
2.530000e-06	3.068748e-06	8.220045e-10	2.123071e+01	5.831586e+01
2.540000e-06	3.107649e-06	8.283238e-10	2.149984e+01	5.887817e+01
2.550000e-06	3.146392e-06	8.338924e-10	2.176788e+01	5.942120e+01
2.560000e-06	3.184911e-06	8.402588e-10	2.203438e+01	5.994550e+01
2.570000e-06	3.223136e-06	8.479514e-10	2.229882e+01	6.045157e+01
2.580000e-06	3.261156e-06	8.562173e-10	2.256187e+01	6.093990e+01
2.590000e-06	3.299023e-06	8.633033e-10	2.282384e+01	6.141096e+01
2.600000e-06	3.336739e-06	8.684188e-10	2.308477e+01	6.186521e+01
2.610000e-06	3.374257e-06	8.722497e-10	2.334434e+01	6.230307e+01
2.620000e-06	3.411474e-06	8.755128e-10	2.360182e+01	6.272496e+01
2.630000e-06	3.448426e-06	8.791758e-10	2.385746e+01	6.313125e+01
2.640000e-06	3.485152e-06	8.845019e-10	2.411155e+01	6.352232e+01
2.650000e-06	3.521548e-06	8.914629e-10	2.436335e+01	6.389854e+01
2.660000e-06	3.557698e-06	8.984584e-10	2.461345e+01	6.426024e+01
2.670000e-06	3.593722e-06	9.027460e-10	2.486268e+01	6.460776e+01
2.680000e-06	3.629586e-06	9.050046e-10	2.511080e+01	6.494142e+01
2.690000e-06	3.665340e-06	9.078596e-10	2.535815e+01	6.526155e+01
2.700000e-06	3.700996e-06	9.106664e-10	2.560483e+01	6.556845e+01
2.710000e-06	3.736426e-06	9.141508e-10	2.584995e+01	6.586244e+01
2.720000e-06	3.771597e-06	9.193294e-10	2.609328e+01	6.614382e+01
2.730000e-06	3.806487e-06	9.248243e-10	2.633466e+01	6.641292e+01
2.740000e-06	3.840903e-06	9.296030e-10	2.657276e+01	6.667005e+01
2.750000e-06	3.874688e-06	9.331475e-10	2.680650e+01	6.691553e+01
2.760000e-06	3.907954e-06	9.335471e-10	2.703665e+01	6.714969e+01
2.770000e-06	3.940809e-06	9.331937e-10	2.726395e+01	6.737287e+01
2.780000e-06	3.973279e-06	9.369522e-10	2.748859e+01	6.758543e+01
2.790000e-06	4.005555e-06	9.424651e-10	2.771189e+01	6.778770e+01
2.800000e-06	4.037625e-06	9.457893e-10	2.793376e+01	6.798008e+01
2.810000e-06	4.069513e-06	9.485555e-10	2.815437e+01	6.816293e+01
2.820000e-06	4.101263e-06	9.532859e-10	2.837403e+01	6.833664e+01
2.830000e-06	4.132776e-06	9.579721e-10	2.859204e+01	6.850162e+01
2.840000e-06	4.164115e-06	9.603641e-10	2.880886e+01	6.865828e+01
2.850000e-06	4.195185e-06	9.621559e-10	2.902381e+01	6.880703e+01
2.860000e-06	4.225774e-06	9.652511e-10	2.923544e+01	6.894829e+01
2.870000e-06	4.256026e-06	9.697933e-10	2.944474e+01	6.908251e+01
2.880000e-06	4.286041e-06	9.753241e-10	2.965239e+01	6.921011e+01
2.890000e-06	4.315779e-06	9.805068e-10	2.985813e+01	6.933153e+01
2.900000e-06	4.345273e-06	9.836906e-10	3.006218e+01	6.944721e+01
