# Temperatura_=_12.4
# Concentracion g/m^3_=_1620.0
# C_Vs_to_Am_M_A/Vsm_=_65563218390.804596
# pendiente_HvsI_1/m_=_3716.3
# ordenada_HvsI_A/m_=_1297.0
# frecuencia_Hz_=_135101.27592347178

Tiempo_(s)	Campo_(V.s)	Magnetizacion_(V.s)	Campo_(kA/m)	Magnetizacion_(A/m)
0.000000e+00	-5.525023e-06	-1.436842e-09	-3.837005e+01	-9.625138e+01
1.000000e-08	-5.525263e-06	-1.436012e-09	-3.837172e+01	-9.627430e+01
2.000000e-08	-5.525293e-06	-1.435800e-09	-3.837193e+01	-9.629814e+01
3.000000e-08	-5.525020e-06	-1.435072e-09	-3.837003e+01	-9.632251e+01
4.000000e-08	-5.524220e-06	-1.432553e-09	-3.836448e+01	-9.634698e+01
5.000000e-08	-5.522816e-06	-1.426239e-09	-3.835472e+01	-9.637112e+01
6.000000e-08	-5.520922e-06	-1.414043e-09	-3.834157e+01	-9.639443e+01
7.000000e-08	-5.518445e-06	-1.399945e-09	-3.832437e+01	-9.641642e+01
8.000000e-08	-5.515336e-06	-1.416349e-09	-3.830278e+01	-9.643658e+01
9.000000e-08	-5.511777e-06	-1.453811e-09	-3.827806e+01	-9.645438e+01
1.000000e-07	-5.507818e-06	-1.473054e-09	-3.825057e+01	-9.646929e+01
1.100000e-07	-5.503532e-06	-1.453278e-09	-3.822080e+01	-9.648078e+01
1.200000e-07	-5.498993e-06	-1.403333e-09	-3.818928e+01	-9.648833e+01
1.300000e-07	-5.494264e-06	-1.374907e-09	-3.815644e+01	-9.649141e+01
1.400000e-07	-5.489197e-06	-1.420353e-09	-3.812125e+01	-9.648954e+01
1.500000e-07	-5.483691e-06	-1.414483e-09	-3.808301e+01	-9.648222e+01
1.600000e-07	-5.477924e-06	-1.410762e-09	-3.804296e+01	-9.646900e+01
1.700000e-07	-5.471739e-06	-1.377154e-09	-3.800001e+01	-9.644945e+01
1.800000e-07	-5.465031e-06	-1.452486e-09	-3.795342e+01	-9.642317e+01
1.900000e-07	-5.457840e-06	-1.478211e-09	-3.790348e+01	-9.638980e+01
2.000000e-07	-5.450309e-06	-1.448997e-09	-3.785118e+01	-9.634902e+01
2.100000e-07	-5.442601e-06	-1.384264e-09	-3.779765e+01	-9.630055e+01
2.200000e-07	-5.434676e-06	-1.413271e-09	-3.774261e+01	-9.624415e+01
2.300000e-07	-5.426469e-06	-1.462630e-09	-3.768562e+01	-9.617964e+01
2.400000e-07	-5.417845e-06	-1.456912e-09	-3.762573e+01	-9.610686e+01
2.500000e-07	-5.408666e-06	-1.442218e-09	-3.756198e+01	-9.602573e+01
2.600000e-07	-5.398846e-06	-1.445317e-09	-3.749378e+01	-9.593620e+01
2.700000e-07	-5.388278e-06	-1.449786e-09	-3.742039e+01	-9.583827e+01
2.800000e-07	-5.377057e-06	-1.404567e-09	-3.734246e+01	-9.573200e+01
2.900000e-07	-5.365469e-06	-1.414157e-09	-3.726198e+01	-9.561749e+01
3.000000e-07	-5.353597e-06	-1.423550e-09	-3.717954e+01	-9.549488e+01
3.100000e-07	-5.341361e-06	-1.436882e-09	-3.709456e+01	-9.536437e+01
3.200000e-07	-5.328663e-06	-1.409633e-09	-3.700637e+01	-9.522617e+01
3.300000e-07	-5.315537e-06	-1.442190e-09	-3.691522e+01	-9.508057e+01
3.400000e-07	-5.302093e-06	-1.428516e-09	-3.682185e+01	-9.492787e+01
3.500000e-07	-5.288230e-06	-1.423335e-09	-3.672558e+01	-9.476840e+01
3.600000e-07	-5.273898e-06	-1.398865e-09	-3.662604e+01	-9.460254e+01
3.700000e-07	-5.259119e-06	-1.403710e-09	-3.652341e+01	-9.443067e+01
3.800000e-07	-5.243824e-06	-1.380553e-09	-3.641719e+01	-9.425320e+01
3.900000e-07	-5.228112e-06	-1.403948e-09	-3.630807e+01	-9.407056e+01
4.000000e-07	-5.211929e-06	-1.403419e-09	-3.619568e+01	-9.388319e+01
4.100000e-07	-5.195302e-06	-1.387831e-09	-3.608021e+01	-9.369154e+01
4.200000e-07	-5.178395e-06	-1.385675e-09	-3.596280e+01	-9.349606e+01
4.300000e-07	-5.161241e-06	-1.409923e-09	-3.584366e+01	-9.329718e+01
4.400000e-07	-5.143819e-06	-1.378010e-09	-3.572268e+01	-9.309537e+01
4.500000e-07	-5.125959e-06	-1.360258e-09	-3.559864e+01	-9.289103e+01
4.600000e-07	-5.107528e-06	-1.387936e-09	-3.547064e+01	-9.268460e+01
4.700000e-07	-5.088639e-06	-1.369800e-09	-3.533946e+01	-9.247648e+01
4.800000e-07	-5.069463e-06	-1.326589e-09	-3.520629e+01	-9.226703e+01
4.900000e-07	-5.050094e-06	-1.364884e-09	-3.507177e+01	-9.205662e+01
5.000000e-07	-5.030525e-06	-1.403499e-09	-3.493587e+01	-9.184557e+01
5.100000e-07	-5.010661e-06	-1.357054e-09	-3.479792e+01	-9.163418e+01
5.200000e-07	-4.990501e-06	-1.348971e-09	-3.465791e+01	-9.142271e+01
5.300000e-07	-4.970004e-06	-1.381458e-09	-3.451557e+01	-9.121140e+01
5.400000e-07	-4.949072e-06	-1.359250e-09	-3.437020e+01	-9.100042e+01
5.500000e-07	-4.927678e-06	-1.324838e-09	-3.422162e+01	-9.078996e+01
5.600000e-07	-4.905992e-06	-1.353147e-09	-3.407102e+01	-9.058011e+01
5.700000e-07	-4.884073e-06	-1.337919e-09	-3.391880e+01	-9.037097e+01
5.800000e-07	-4.861839e-06	-1.311291e-09	-3.376439e+01	-9.016259e+01
5.900000e-07	-4.839233e-06	-1.338326e-09	-3.360739e+01	-8.995496e+01
6.000000e-07	-4.816236e-06	-1.363005e-09	-3.344768e+01	-8.974807e+01
6.100000e-07	-4.792937e-06	-1.324947e-09	-3.328588e+01	-8.954184e+01
6.200000e-07	-4.769373e-06	-1.327977e-09	-3.312223e+01	-8.933619e+01
6.300000e-07	-4.745589e-06	-1.339958e-09	-3.295705e+01	-8.913099e+01
6.400000e-07	-4.721599e-06	-1.320456e-09	-3.279045e+01	-8.892608e+01
6.500000e-07	-4.697273e-06	-1.301305e-09	-3.262151e+01	-8.872128e+01
6.600000e-07	-4.672564e-06	-1.322057e-09	-3.244992e+01	-8.851638e+01
6.700000e-07	-4.647415e-06	-1.315171e-09	-3.227526e+01	-8.831114e+01
6.800000e-07	-4.621741e-06	-1.304624e-09	-3.209696e+01	-8.810533e+01
6.900000e-07	-4.595524e-06	-1.310288e-09	-3.191489e+01	-8.789868e+01
7.000000e-07	-4.568826e-06	-1.317204e-09	-3.172948e+01	-8.769091e+01
7.100000e-07	-4.541631e-06	-1.298258e-09	-3.154061e+01	-8.748174e+01
7.200000e-07	-4.514028e-06	-1.290050e-09	-3.134892e+01	-8.727087e+01
7.300000e-07	-4.486276e-06	-1.287870e-09	-3.115619e+01	-8.705801e+01
7.400000e-07	-4.458406e-06	-1.283241e-09	-3.096263e+01	-8.684285e+01
7.500000e-07	-4.430321e-06	-1.275260e-09	-3.076759e+01	-8.662511e+01
7.600000e-07	-4.401965e-06	-1.275403e-09	-3.057066e+01	-8.640450e+01
7.700000e-07	-4.373308e-06	-1.270566e-09	-3.037165e+01	-8.618072e+01
7.800000e-07	-4.344324e-06	-1.257463e-09	-3.017036e+01	-8.595351e+01
7.900000e-07	-4.315063e-06	-1.253485e-09	-2.996715e+01	-8.572260e+01
8.000000e-07	-4.285537e-06	-1.256097e-09	-2.976210e+01	-8.548775e+01
8.100000e-07	-4.255766e-06	-1.251598e-09	-2.955535e+01	-8.524871e+01
8.200000e-07	-4.225720e-06	-1.242066e-09	-2.934668e+01	-8.500529e+01
8.300000e-07	-4.195283e-06	-1.242714e-09	-2.913531e+01	-8.475727e+01
8.400000e-07	-4.164468e-06	-1.236585e-09	-2.892130e+01	-8.450447e+01
8.500000e-07	-4.133358e-06	-1.230631e-09	-2.870525e+01	-8.424675e+01
8.600000e-07	-4.101985e-06	-1.227111e-09	-2.848737e+01	-8.398394e+01
8.700000e-07	-4.070472e-06	-1.223774e-09	-2.826852e+01	-8.371593e+01
8.800000e-07	-4.038868e-06	-1.211458e-09	-2.804904e+01	-8.344262e+01
8.900000e-07	-4.007116e-06	-1.209654e-09	-2.782853e+01	-8.316393e+01
9.000000e-07	-3.975119e-06	-1.205505e-09	-2.760631e+01	-8.287979e+01
9.100000e-07	-3.942806e-06	-1.201361e-09	-2.738191e+01	-8.259015e+01
9.200000e-07	-3.910180e-06	-1.196765e-09	-2.715533e+01	-8.229499e+01
9.300000e-07	-3.877132e-06	-1.197744e-09	-2.692581e+01	-8.199429e+01
9.400000e-07	-3.843688e-06	-1.189127e-09	-2.669356e+01	-8.168805e+01
9.500000e-07	-3.809744e-06	-1.183880e-09	-2.645782e+01	-8.137629e+01
9.600000e-07	-3.775225e-06	-1.176566e-09	-2.621809e+01	-8.105903e+01
9.700000e-07	-3.740252e-06	-1.165829e-09	-2.597521e+01	-8.073631e+01
9.800000e-07	-3.704971e-06	-1.150490e-09	-2.573019e+01	-8.040818e+01
9.900000e-07	-3.669513e-06	-1.144676e-09	-2.548395e+01	-8.007470e+01
1.000000e-06	-3.633883e-06	-1.140965e-09	-2.523651e+01	-7.973591e+01
1.010000e-06	-3.598131e-06	-1.138710e-09	-2.498822e+01	-7.939189e+01
1.020000e-06	-3.562277e-06	-1.138974e-09	-2.473922e+01	-7.904271e+01
1.030000e-06	-3.526258e-06	-1.138531e-09	-2.448908e+01	-7.868844e+01
1.040000e-06	-3.490043e-06	-1.131022e-09	-2.423757e+01	-7.832916e+01
1.050000e-06	-3.453568e-06	-1.121985e-09	-2.398426e+01	-7.796492e+01
1.060000e-06	-3.416751e-06	-1.111632e-09	-2.372857e+01	-7.759581e+01
1.070000e-06	-3.379625e-06	-1.098355e-09	-2.347074e+01	-7.722190e+01
1.080000e-06	-3.342273e-06	-1.089183e-09	-2.321134e+01	-7.684325e+01
1.090000e-06	-3.304781e-06	-1.089476e-09	-2.295097e+01	-7.645992e+01
1.100000e-06	-3.267086e-06	-1.088210e-09	-2.268919e+01	-7.607199e+01
1.110000e-06	-3.229150e-06	-1.081218e-09	-2.242573e+01	-7.567949e+01
1.120000e-06	-3.190921e-06	-1.081657e-09	-2.216024e+01	-7.528250e+01
1.130000e-06	-3.152464e-06	-1.080147e-09	-2.189316e+01	-7.488105e+01
1.140000e-06	-3.113814e-06	-1.072142e-09	-2.162474e+01	-7.447518e+01
1.150000e-06	-3.074925e-06	-1.059332e-09	-2.135467e+01	-7.406495e+01
1.160000e-06	-3.035835e-06	-1.049924e-09	-2.108320e+01	-7.365037e+01
1.170000e-06	-2.996601e-06	-1.036030e-09	-2.081072e+01	-7.323149e+01
1.180000e-06	-2.957271e-06	-1.026982e-09	-2.053759e+01	-7.280833e+01
1.190000e-06	-2.917742e-06	-1.026535e-09	-2.026307e+01	-7.238091e+01
1.200000e-06	-2.878018e-06	-1.029259e-09	-1.998719e+01	-7.194925e+01
1.210000e-06	-2.838178e-06	-1.025143e-09	-1.971051e+01	-7.151338e+01
1.220000e-06	-2.798216e-06	-1.021343e-09	-1.943298e+01	-7.107329e+01
1.230000e-06	-2.758117e-06	-1.014623e-09	-1.915451e+01	-7.062900e+01
1.240000e-06	-2.717810e-06	-1.003403e-09	-1.887458e+01	-7.018052e+01
1.250000e-06	-2.677249e-06	-9.925578e-10	-1.859289e+01	-6.972785e+01
1.260000e-06	-2.636573e-06	-9.892346e-10	-1.831041e+01	-6.927098e+01
1.270000e-06	-2.595767e-06	-9.872468e-10	-1.802702e+01	-6.880991e+01
1.280000e-06	-2.554647e-06	-9.844335e-10	-1.774145e+01	-6.834463e+01
1.290000e-06	-2.513102e-06	-9.804293e-10	-1.745293e+01	-6.787511e+01
1.300000e-06	-2.471191e-06	-9.736580e-10	-1.716187e+01	-6.740134e+01
1.310000e-06	-2.429018e-06	-9.621200e-10	-1.686899e+01	-6.692327e+01
1.320000e-06	-2.386459e-06	-9.544944e-10	-1.657343e+01	-6.644087e+01
1.330000e-06	-2.343627e-06	-9.484854e-10	-1.627596e+01	-6.595407e+01
1.340000e-06	-2.300607e-06	-9.411266e-10	-1.597721e+01	-6.546282e+01
1.350000e-06	-2.257297e-06	-9.340121e-10	-1.567642e+01	-6.496702e+01
1.360000e-06	-2.213799e-06	-9.279635e-10	-1.537434e+01	-6.446658e+01
1.370000e-06	-2.170158e-06	-9.205861e-10	-1.507126e+01	-6.396139e+01
1.380000e-06	-2.126446e-06	-9.107200e-10	-1.476769e+01	-6.345130e+01
1.390000e-06	-2.082758e-06	-9.022123e-10	-1.446429e+01	-6.293614e+01
1.400000e-06	-2.039011e-06	-8.945026e-10	-1.416048e+01	-6.241574e+01
1.410000e-06	-1.995130e-06	-8.871971e-10	-1.385573e+01	-6.188987e+01
1.420000e-06	-1.951143e-06	-8.807722e-10	-1.355025e+01	-6.135830e+01
1.430000e-06	-1.907054e-06	-8.739076e-10	-1.324406e+01	-6.082073e+01
1.440000e-06	-1.862874e-06	-8.625402e-10	-1.293724e+01	-6.027686e+01
1.450000e-06	-1.818639e-06	-8.506513e-10	-1.263004e+01	-5.972633e+01
1.460000e-06	-1.774319e-06	-8.386230e-10	-1.232225e+01	-5.916876e+01
1.470000e-06	-1.729854e-06	-8.258937e-10	-1.201345e+01	-5.860371e+01
1.480000e-06	-1.685347e-06	-8.132131e-10	-1.170436e+01	-5.803071e+01
1.490000e-06	-1.640771e-06	-8.038535e-10	-1.139479e+01	-5.744924e+01
1.500000e-06	-1.595915e-06	-7.944577e-10	-1.108328e+01	-5.685875e+01
1.510000e-06	-1.550869e-06	-7.869601e-10	-1.077044e+01	-5.625862e+01
1.520000e-06	-1.505694e-06	-7.810157e-10	-1.045671e+01	-5.564821e+01
1.530000e-06	-1.460394e-06	-7.755164e-10	-1.014211e+01	-5.502682e+01
1.540000e-06	-1.415106e-06	-7.653892e-10	-9.827594e+00	-5.439372e+01
1.550000e-06	-1.369697e-06	-7.539181e-10	-9.512240e+00	-5.374811e+01
1.560000e-06	-1.324089e-06	-7.409816e-10	-9.195502e+00	-5.308917e+01
1.570000e-06	-1.278419e-06	-7.277930e-10	-8.878334e+00	-5.241605e+01
1.580000e-06	-1.232751e-06	-7.140976e-10	-8.561179e+00	-5.172784e+01
1.590000e-06	-1.187010e-06	-7.030093e-10	-8.243522e+00	-5.102361e+01
1.600000e-06	-1.141103e-06	-6.941748e-10	-7.924706e+00	-5.030239e+01
1.610000e-06	-1.095130e-06	-6.845167e-10	-7.605430e+00	-4.956320e+01
1.620000e-06	-1.049084e-06	-6.757233e-10	-7.285653e+00	-4.880502e+01
1.630000e-06	-1.002900e-06	-6.671107e-10	-6.964920e+00	-4.802683e+01
1.640000e-06	-9.566955e-07	-6.548230e-10	-6.644037e+00	-4.722759e+01
1.650000e-06	-9.105049e-07	-6.381660e-10	-6.323253e+00	-4.640627e+01
1.660000e-06	-8.642870e-07	-6.204662e-10	-6.002281e+00	-4.556181e+01
1.670000e-06	-8.180382e-07	-6.033883e-10	-5.681093e+00	-4.469320e+01
1.680000e-06	-7.716816e-07	-5.876542e-10	-5.359157e+00	-4.379941e+01
1.690000e-06	-7.251800e-07	-5.740936e-10	-5.036213e+00	-4.287945e+01
1.700000e-06	-6.785797e-07	-5.632805e-10	-4.712585e+00	-4.193237e+01
1.710000e-06	-6.319642e-07	-5.519500e-10	-4.388851e+00	-4.095723e+01
1.720000e-06	-5.854464e-07	-5.389338e-10	-4.065795e+00	-3.995317e+01
1.730000e-06	-5.389377e-07	-5.240834e-10	-3.742802e+00	-3.891935e+01
1.740000e-06	-4.923096e-07	-5.064782e-10	-3.418981e+00	-3.785501e+01
1.750000e-06	-4.456089e-07	-4.851612e-10	-3.094655e+00	-3.675945e+01
1.760000e-06	-3.989008e-07	-4.616562e-10	-2.770277e+00	-3.563207e+01
1.770000e-06	-3.521236e-07	-4.389835e-10	-2.445420e+00	-3.447232e+01
1.780000e-06	-3.052643e-07	-4.214767e-10	-2.119993e+00	-3.327975e+01
1.790000e-06	-2.583890e-07	-4.082730e-10	-1.794454e+00	-3.205402e+01
1.800000e-06	-2.114920e-07	-3.964951e-10	-1.468765e+00	-3.079488e+01
1.810000e-06	-1.645549e-07	-3.814125e-10	-1.142797e+00	-2.950219e+01
1.820000e-06	-1.176227e-07	-3.635144e-10	-8.168631e-01	-2.817592e+01
1.830000e-06	-7.076229e-08	-3.434473e-10	-4.914283e-01	-2.681617e+01
1.840000e-06	-2.388706e-08	-3.217472e-10	-1.658903e-01	-2.542315e+01
1.850000e-06	2.300013e-08	-2.995084e-10	1.597308e-01	-2.399719e+01
1.860000e-06	6.981444e-08	-2.785531e-10	4.848457e-01	-2.253875e+01
1.870000e-06	1.166337e-07	-2.576483e-10	8.099951e-01	-2.104842e+01
1.880000e-06	1.634841e-07	-2.370468e-10	1.135360e+00	-1.952692e+01
1.890000e-06	2.103386e-07	-2.184192e-10	1.460755e+00	-1.797509e+01
1.900000e-06	2.571734e-07	-2.016060e-10	1.786012e+00	-1.639389e+01
1.910000e-06	3.038978e-07	-1.822419e-10	2.110502e+00	-1.478442e+01
1.920000e-06	3.505640e-07	-1.609417e-10	2.434589e+00	-1.314790e+01
1.930000e-06	3.973343e-07	-1.399958e-10	2.759398e+00	-1.148565e+01
1.940000e-06	4.440805e-07	-1.157448e-10	3.084040e+00	-9.799120e+00
1.950000e-06	4.907243e-07	-8.875293e-11	3.407971e+00	-8.089861e+00
1.960000e-06	5.372993e-07	-6.356219e-11	3.731423e+00	-6.359525e+00
1.970000e-06	5.838177e-07	-4.156838e-11	4.054484e+00	-4.609860e+00
1.980000e-06	6.303410e-07	-1.975968e-11	4.377578e+00	-2.842703e+00
1.990000e-06	6.768473e-07	2.186231e-12	4.700553e+00	-1.059966e+00
2.000000e-06	7.233342e-07	2.779128e-11	5.023395e+00	7.363670e-01
2.010000e-06	7.697341e-07	5.832108e-11	5.345632e+00	2.544250e+00
2.020000e-06	8.159888e-07	8.865945e-11	5.666860e+00	4.361587e+00
2.030000e-06	8.621905e-07	1.149342e-10	5.987721e+00	6.186240e+00
2.040000e-06	9.084121e-07	1.361778e-10	6.308719e+00	8.016041e+00
2.050000e-06	9.545577e-07	1.564662e-10	6.629190e+00	9.848800e+00
2.060000e-06	1.000671e-06	1.805538e-10	6.949434e+00	1.168232e+01
2.070000e-06	1.046754e-06	2.078227e-10	7.269472e+00	1.351440e+01
2.080000e-06	1.092727e-06	2.369747e-10	7.588748e+00	1.534285e+01
2.090000e-06	1.138623e-06	2.669057e-10	7.907482e+00	1.716552e+01
2.100000e-06	1.184435e-06	2.955262e-10	8.225636e+00	1.898026e+01
2.110000e-06	1.230202e-06	3.197089e-10	8.543481e+00	2.078500e+01
2.120000e-06	1.275866e-06	3.415296e-10	8.860607e+00	2.257768e+01
2.130000e-06	1.321394e-06	3.622325e-10	9.176790e+00	2.435634e+01
2.140000e-06	1.366784e-06	3.826985e-10	9.492010e+00	2.611907e+01
2.150000e-06	1.412093e-06	4.056730e-10	9.806671e+00	2.786404e+01
2.160000e-06	1.457363e-06	4.324186e-10	1.012106e+01	2.958951e+01
2.170000e-06	1.502493e-06	4.612307e-10	1.043448e+01	3.129383e+01
2.180000e-06	1.547560e-06	4.884912e-10	1.074746e+01	3.297545e+01
2.190000e-06	1.592592e-06	5.115116e-10	1.106019e+01	3.463293e+01
2.200000e-06	1.637447e-06	5.319615e-10	1.137170e+01	3.626492e+01
2.210000e-06	1.682151e-06	5.508826e-10	1.168216e+01	3.787021e+01
2.220000e-06	1.726754e-06	5.680118e-10	1.199192e+01	3.944768e+01
2.230000e-06	1.771188e-06	5.852242e-10	1.230050e+01	4.099634e+01
2.240000e-06	1.815476e-06	6.037446e-10	1.260807e+01	4.251532e+01
2.250000e-06	1.859655e-06	6.218170e-10	1.291489e+01	4.400386e+01
2.260000e-06	1.903733e-06	6.423514e-10	1.322100e+01	4.546133e+01
2.270000e-06	1.947713e-06	6.653520e-10	1.352643e+01	4.688722e+01
2.280000e-06	1.991605e-06	6.877468e-10	1.383125e+01	4.828111e+01
2.290000e-06	2.035423e-06	7.080576e-10	1.413556e+01	4.964272e+01
2.300000e-06	2.079194e-06	7.252551e-10	1.443954e+01	5.097187e+01
2.310000e-06	2.122924e-06	7.392168e-10	1.474323e+01	5.226849e+01
2.320000e-06	2.166604e-06	7.522028e-10	1.504658e+01	5.353258e+01
2.330000e-06	2.210232e-06	7.670937e-10	1.534957e+01	5.476428e+01
2.340000e-06	2.253746e-06	7.827361e-10	1.565176e+01	5.596379e+01
2.350000e-06	2.297002e-06	7.996632e-10	1.595216e+01	5.713140e+01
2.360000e-06	2.340030e-06	8.177946e-10	1.625098e+01	5.826748e+01
2.370000e-06	2.382851e-06	8.334541e-10	1.654837e+01	5.937246e+01
2.380000e-06	2.425310e-06	8.464566e-10	1.684323e+01	6.044684e+01
2.390000e-06	2.467406e-06	8.610345e-10	1.713558e+01	6.149118e+01
2.400000e-06	2.509181e-06	8.755837e-10	1.742570e+01	6.250607e+01
2.410000e-06	2.550762e-06	8.890992e-10	1.771447e+01	6.349216e+01
2.420000e-06	2.592066e-06	9.020166e-10	1.800132e+01	6.445012e+01
2.430000e-06	2.632977e-06	9.137883e-10	1.828544e+01	6.538066e+01
2.440000e-06	2.673587e-06	9.242716e-10	1.856746e+01	6.628450e+01
2.450000e-06	2.713959e-06	9.343914e-10	1.884784e+01	6.716238e+01
2.460000e-06	2.754205e-06	9.462119e-10	1.912734e+01	6.801503e+01
2.470000e-06	2.794372e-06	9.614269e-10	1.940629e+01	6.884320e+01
2.480000e-06	2.834404e-06	9.770222e-10	1.968431e+01	6.964764e+01
2.490000e-06	2.874238e-06	9.911882e-10	1.996094e+01	7.042907e+01
2.500000e-06	2.913933e-06	1.002966e-09	2.023661e+01	7.118822e+01
2.510000e-06	2.953462e-06	1.010753e-09	2.051113e+01	7.192578e+01
2.520000e-06	2.992804e-06	1.015811e-09	2.078435e+01	7.264244e+01
2.530000e-06	3.031981e-06	1.021870e-09	2.105643e+01	7.333885e+01
2.540000e-06	3.071004e-06	1.029164e-09	2.132744e+01	7.401564e+01
2.550000e-06	3.109789e-06	1.037213e-09	2.159679e+01	7.467342e+01
2.560000e-06	3.148313e-06	1.047702e-09	2.186433e+01	7.531276e+01
2.570000e-06	3.186594e-06	1.059508e-09	2.213018e+01	7.593421e+01
2.580000e-06	3.224617e-06	1.069866e-09	2.239425e+01	7.653829e+01
2.590000e-06	3.262481e-06	1.077797e-09	2.265720e+01	7.712547e+01
2.600000e-06	3.300178e-06	1.084963e-09	2.291900e+01	7.769622e+01
2.610000e-06	3.337616e-06	1.092403e-09	2.317900e+01	7.825096e+01
2.620000e-06	3.374762e-06	1.098646e-09	2.343697e+01	7.879011e+01
2.630000e-06	3.411664e-06	1.104037e-09	2.369324e+01	7.931404e+01
2.640000e-06	3.448326e-06	1.110782e-09	2.394786e+01	7.982311e+01
2.650000e-06	3.484750e-06	1.118241e-09	2.420081e+01	8.031766e+01
2.660000e-06	3.520955e-06	1.125981e-09	2.445225e+01	8.079801e+01
2.670000e-06	3.556973e-06	1.134135e-09	2.470238e+01	8.126447e+01
2.680000e-06	3.592854e-06	1.140731e-09	2.495157e+01	8.171734e+01
2.690000e-06	3.628650e-06	1.146555e-09	2.520017e+01	8.215691e+01
2.700000e-06	3.664329e-06	1.153394e-09	2.544794e+01	8.258347e+01
2.710000e-06	3.699774e-06	1.159894e-09	2.569411e+01	8.299728e+01
2.720000e-06	3.734977e-06	1.166774e-09	2.593858e+01	8.339864e+01
2.730000e-06	3.769910e-06	1.174317e-09	2.618118e+01	8.378784e+01
2.740000e-06	3.804439e-06	1.181108e-09	2.642098e+01	8.416515e+01
2.750000e-06	3.838553e-06	1.186789e-09	2.665790e+01	8.453088e+01
2.760000e-06	3.872157e-06	1.192806e-09	2.689127e+01	8.488533e+01
2.770000e-06	3.905177e-06	1.198490e-09	2.712058e+01	8.522882e+01
2.780000e-06	3.937790e-06	1.204377e-09	2.734708e+01	8.556168e+01
2.790000e-06	3.970120e-06	1.212188e-09	2.757160e+01	8.588424e+01
2.800000e-06	4.002157e-06	1.219840e-09	2.779409e+01	8.619686e+01
2.810000e-06	4.033994e-06	1.225902e-09	2.801519e+01	8.649991e+01
2.820000e-06	4.065732e-06	1.230393e-09	2.823560e+01	8.679376e+01
2.830000e-06	4.097287e-06	1.233286e-09	2.845475e+01	8.707880e+01
2.840000e-06	4.128622e-06	1.237142e-09	2.867236e+01	8.735545e+01
2.850000e-06	4.159620e-06	1.240449e-09	2.888764e+01	8.762411e+01
2.860000e-06	4.190302e-06	1.244207e-09	2.910071e+01	8.788520e+01
2.870000e-06	4.220748e-06	1.249872e-09	2.931215e+01	8.813915e+01
2.880000e-06	4.250834e-06	1.257729e-09	2.952110e+01	8.838638e+01
2.890000e-06	4.280612e-06	1.266684e-09	2.972790e+01	8.862734e+01
2.900000e-06	4.310105e-06	1.274662e-09	2.993272e+01	8.886245e+01
