# Temperatura_=_-5.8
# Concentracion g/m^3_=_1620.0
# C_Vs_to_Am_M_A/Vsm_=_65563218390.804596
# pendiente_HvsI_1/m_=_3716.3
# ordenada_HvsI_A/m_=_1297.0
# frecuencia_Hz_=_135107.9420188932

Tiempo_(s)	Campo_(V.s)	Magnetizacion_(V.s)	Campo_(kA/m)	Magnetizacion_(A/m)
0.000000e+00	-5.520391e-06	-1.108569e-09	-3.836923e+01	-7.554597e+01
1.000000e-08	-5.520664e-06	-1.107989e-09	-3.837113e+01	-7.554831e+01
2.000000e-08	-5.520694e-06	-1.109651e-09	-3.837134e+01	-7.554933e+01
3.000000e-08	-5.520458e-06	-1.112131e-09	-3.836970e+01	-7.554854e+01
4.000000e-08	-5.519849e-06	-1.113002e-09	-3.836547e+01	-7.554542e+01
5.000000e-08	-5.518657e-06	-1.109683e-09	-3.835718e+01	-7.553945e+01
6.000000e-08	-5.516857e-06	-1.102291e-09	-3.834467e+01	-7.553013e+01
7.000000e-08	-5.514468e-06	-1.100092e-09	-3.832806e+01	-7.551695e+01
8.000000e-08	-5.511473e-06	-1.116957e-09	-3.830725e+01	-7.549940e+01
9.000000e-08	-5.507973e-06	-1.105802e-09	-3.828292e+01	-7.547701e+01
1.000000e-07	-5.504063e-06	-1.063567e-09	-3.825574e+01	-7.544934e+01
1.100000e-07	-5.499823e-06	-1.099972e-09	-3.822628e+01	-7.541594e+01
1.200000e-07	-5.495363e-06	-1.144648e-09	-3.819528e+01	-7.537642e+01
1.300000e-07	-5.490644e-06	-1.077752e-09	-3.816248e+01	-7.533043e+01
1.400000e-07	-5.485648e-06	-1.034032e-09	-3.812775e+01	-7.527766e+01
1.500000e-07	-5.480318e-06	-1.067725e-09	-3.809070e+01	-7.521782e+01
1.600000e-07	-5.474552e-06	-1.172375e-09	-3.805063e+01	-7.515071e+01
1.700000e-07	-5.468340e-06	-1.110684e-09	-3.800746e+01	-7.507615e+01
1.800000e-07	-5.461696e-06	-1.053760e-09	-3.796127e+01	-7.499402e+01
1.900000e-07	-5.454640e-06	-1.096627e-09	-3.791223e+01	-7.490427e+01
2.000000e-07	-5.447236e-06	-1.174042e-09	-3.786077e+01	-7.480688e+01
2.100000e-07	-5.439555e-06	-1.124141e-09	-3.780738e+01	-7.470191e+01
2.200000e-07	-5.431615e-06	-1.055654e-09	-3.775219e+01	-7.458947e+01
2.300000e-07	-5.423411e-06	-1.078410e-09	-3.769518e+01	-7.446974e+01
2.400000e-07	-5.414903e-06	-1.132447e-09	-3.763604e+01	-7.434291e+01
2.500000e-07	-5.405869e-06	-1.123855e-09	-3.757325e+01	-7.420929e+01
2.600000e-07	-5.396095e-06	-1.071552e-09	-3.750532e+01	-7.406918e+01
2.700000e-07	-5.385644e-06	-1.073641e-09	-3.743268e+01	-7.392296e+01
2.800000e-07	-5.374640e-06	-1.076310e-09	-3.735620e+01	-7.377106e+01
2.900000e-07	-5.363256e-06	-1.075587e-09	-3.727707e+01	-7.361393e+01
3.000000e-07	-5.351534e-06	-1.046058e-09	-3.719560e+01	-7.345208e+01
3.100000e-07	-5.339376e-06	-1.062734e-09	-3.711109e+01	-7.328603e+01
3.200000e-07	-5.326730e-06	-1.077144e-09	-3.702320e+01	-7.311634e+01
3.300000e-07	-5.313652e-06	-1.100904e-09	-3.693230e+01	-7.294358e+01
3.400000e-07	-5.300272e-06	-1.061411e-09	-3.683931e+01	-7.276836e+01
3.500000e-07	-5.286568e-06	-1.066566e-09	-3.674405e+01	-7.259129e+01
3.600000e-07	-5.272486e-06	-1.086706e-09	-3.664618e+01	-7.241296e+01
3.700000e-07	-5.257989e-06	-1.076656e-09	-3.654542e+01	-7.223400e+01
3.800000e-07	-5.242801e-06	-1.022141e-09	-3.643986e+01	-7.205502e+01
3.900000e-07	-5.227114e-06	-1.070156e-09	-3.633082e+01	-7.187659e+01
4.000000e-07	-5.211080e-06	-1.093613e-09	-3.621938e+01	-7.169931e+01
4.100000e-07	-5.194540e-06	-1.027735e-09	-3.610442e+01	-7.152372e+01
4.200000e-07	-5.177612e-06	-1.021667e-09	-3.598676e+01	-7.135035e+01
4.300000e-07	-5.160387e-06	-1.105137e-09	-3.586704e+01	-7.117969e+01
4.400000e-07	-5.142854e-06	-1.055103e-09	-3.574518e+01	-7.101220e+01
4.500000e-07	-5.124982e-06	-9.809070e-10	-3.562096e+01	-7.084830e+01
4.600000e-07	-5.106736e-06	-1.063804e-09	-3.549414e+01	-7.068836e+01
4.700000e-07	-5.088064e-06	-1.089415e-09	-3.536436e+01	-7.053270e+01
4.800000e-07	-5.068926e-06	-9.807292e-10	-3.523135e+01	-7.038161e+01
4.900000e-07	-5.049437e-06	-1.010014e-09	-3.509589e+01	-7.023529e+01
5.000000e-07	-5.029770e-06	-1.103557e-09	-3.495919e+01	-7.009393e+01
5.100000e-07	-5.009915e-06	-1.024872e-09	-3.482119e+01	-6.995764e+01
5.200000e-07	-4.989796e-06	-9.914617e-10	-3.468136e+01	-6.982648e+01
5.300000e-07	-4.969400e-06	-1.085020e-09	-3.453959e+01	-6.970047e+01
5.400000e-07	-4.948610e-06	-1.051537e-09	-3.439509e+01	-6.957955e+01
5.500000e-07	-4.927344e-06	-9.663593e-10	-3.424728e+01	-6.946363e+01
5.600000e-07	-4.905781e-06	-1.052231e-09	-3.409741e+01	-6.935257e+01
5.700000e-07	-4.883953e-06	-1.076270e-09	-3.394570e+01	-6.924617e+01
5.800000e-07	-4.861762e-06	-9.839106e-10	-3.379146e+01	-6.914418e+01
5.900000e-07	-4.839259e-06	-1.009852e-09	-3.363505e+01	-6.904634e+01
6.000000e-07	-4.816420e-06	-1.077443e-09	-3.347631e+01	-6.895232e+01
6.100000e-07	-4.793171e-06	-1.001213e-09	-3.331472e+01	-6.886176e+01
6.200000e-07	-4.769602e-06	-9.847671e-10	-3.315091e+01	-6.877429e+01
6.300000e-07	-4.745850e-06	-1.051005e-09	-3.298582e+01	-6.868950e+01
6.400000e-07	-4.721929e-06	-1.029580e-09	-3.281956e+01	-6.860696e+01
6.500000e-07	-4.697759e-06	-9.898290e-10	-3.265157e+01	-6.852621e+01
6.600000e-07	-4.673246e-06	-1.042216e-09	-3.248119e+01	-6.844681e+01
6.700000e-07	-4.648292e-06	-1.039586e-09	-3.230775e+01	-6.836829e+01
6.800000e-07	-4.622778e-06	-9.967867e-10	-3.213041e+01	-6.829018e+01
6.900000e-07	-4.596571e-06	-1.015770e-09	-3.194826e+01	-6.821202e+01
7.000000e-07	-4.569765e-06	-1.034563e-09	-3.176195e+01	-6.813336e+01
7.100000e-07	-4.542600e-06	-9.988535e-10	-3.157314e+01	-6.805375e+01
7.200000e-07	-4.515177e-06	-1.003774e-09	-3.138254e+01	-6.797276e+01
7.300000e-07	-4.487513e-06	-1.024561e-09	-3.119026e+01	-6.788998e+01
7.400000e-07	-4.459698e-06	-1.006684e-09	-3.099693e+01	-6.780503e+01
7.500000e-07	-4.431779e-06	-9.982982e-10	-3.080289e+01	-6.771754e+01
7.600000e-07	-4.403589e-06	-1.014749e-09	-3.060695e+01	-6.762718e+01
7.700000e-07	-4.375025e-06	-1.003647e-09	-3.040841e+01	-6.753366e+01
7.800000e-07	-4.346172e-06	-9.860892e-10	-3.020788e+01	-6.743669e+01
7.900000e-07	-4.317023e-06	-9.923912e-10	-3.000528e+01	-6.733606e+01
8.000000e-07	-4.287584e-06	-9.878297e-10	-2.980066e+01	-6.723155e+01
8.100000e-07	-4.257867e-06	-9.749824e-10	-2.959411e+01	-6.712300e+01
8.200000e-07	-4.227842e-06	-9.811325e-10	-2.938543e+01	-6.701029e+01
8.300000e-07	-4.197533e-06	-9.880101e-10	-2.917476e+01	-6.689331e+01
8.400000e-07	-4.166957e-06	-9.765806e-10	-2.896225e+01	-6.677201e+01
8.500000e-07	-4.136067e-06	-9.807998e-10	-2.874755e+01	-6.664637e+01
8.600000e-07	-4.104836e-06	-9.864517e-10	-2.853048e+01	-6.651637e+01
8.700000e-07	-4.073358e-06	-9.750020e-10	-2.831169e+01	-6.638206e+01
8.800000e-07	-4.041746e-06	-9.640936e-10	-2.809198e+01	-6.624350e+01
8.900000e-07	-4.010002e-06	-9.707862e-10	-2.787134e+01	-6.610077e+01
9.000000e-07	-3.978024e-06	-9.603563e-10	-2.764908e+01	-6.595396e+01
9.100000e-07	-3.945821e-06	-9.503956e-10	-2.742526e+01	-6.580321e+01
9.200000e-07	-3.913325e-06	-9.570722e-10	-2.719939e+01	-6.564865e+01
9.300000e-07	-3.880393e-06	-9.604182e-10	-2.697050e+01	-6.549043e+01
9.400000e-07	-3.847069e-06	-9.483627e-10	-2.673888e+01	-6.532870e+01
9.500000e-07	-3.813373e-06	-9.535534e-10	-2.650468e+01	-6.516363e+01
9.600000e-07	-3.779145e-06	-9.572943e-10	-2.626678e+01	-6.499539e+01
9.700000e-07	-3.744334e-06	-9.447272e-10	-2.602483e+01	-6.482412e+01
9.800000e-07	-3.709170e-06	-9.344825e-10	-2.578042e+01	-6.464999e+01
9.900000e-07	-3.673835e-06	-9.373367e-10	-2.553482e+01	-6.447314e+01
1.000000e-06	-3.638327e-06	-9.293130e-10	-2.528803e+01	-6.429371e+01
1.010000e-06	-3.602645e-06	-9.216398e-10	-2.504003e+01	-6.411183e+01
1.020000e-06	-3.566807e-06	-9.264665e-10	-2.479094e+01	-6.392760e+01
1.030000e-06	-3.530852e-06	-9.276144e-10	-2.454103e+01	-6.374112e+01
1.040000e-06	-3.494764e-06	-9.197337e-10	-2.429020e+01	-6.355245e+01
1.050000e-06	-3.458420e-06	-9.202195e-10	-2.403760e+01	-6.336164e+01
1.060000e-06	-3.421766e-06	-9.214466e-10	-2.378283e+01	-6.316872e+01
1.070000e-06	-3.384792e-06	-9.117914e-10	-2.352584e+01	-6.297370e+01
1.080000e-06	-3.347504e-06	-9.071978e-10	-2.326667e+01	-6.277656e+01
1.090000e-06	-3.309967e-06	-9.091977e-10	-2.300578e+01	-6.257727e+01
1.100000e-06	-3.272253e-06	-9.047152e-10	-2.274365e+01	-6.237576e+01
1.110000e-06	-3.234338e-06	-8.973321e-10	-2.248012e+01	-6.217195e+01
1.120000e-06	-3.196208e-06	-8.986340e-10	-2.221510e+01	-6.196574e+01
1.130000e-06	-3.157850e-06	-8.970932e-10	-2.194850e+01	-6.175701e+01
1.140000e-06	-3.119207e-06	-8.915857e-10	-2.167991e+01	-6.154562e+01
1.150000e-06	-3.080361e-06	-8.897920e-10	-2.140991e+01	-6.133142e+01
1.160000e-06	-3.041378e-06	-8.899779e-10	-2.113896e+01	-6.111424e+01
1.170000e-06	-3.002208e-06	-8.826272e-10	-2.086671e+01	-6.089391e+01
1.180000e-06	-2.962831e-06	-8.780639e-10	-2.059302e+01	-6.067024e+01
1.190000e-06	-2.923291e-06	-8.766737e-10	-2.031820e+01	-6.044304e+01
1.200000e-06	-2.883599e-06	-8.726855e-10	-2.004233e+01	-6.021212e+01
1.210000e-06	-2.843778e-06	-8.652937e-10	-1.976555e+01	-5.997727e+01
1.220000e-06	-2.803877e-06	-8.636287e-10	-1.948822e+01	-5.973831e+01
1.230000e-06	-2.763863e-06	-8.612763e-10	-1.921011e+01	-5.949505e+01
1.240000e-06	-2.723658e-06	-8.582068e-10	-1.893066e+01	-5.924729e+01
1.250000e-06	-2.683241e-06	-8.565784e-10	-1.864974e+01	-5.899485e+01
1.260000e-06	-2.642668e-06	-8.570327e-10	-1.836775e+01	-5.873758e+01
1.270000e-06	-2.601892e-06	-8.531235e-10	-1.808433e+01	-5.847531e+01
1.280000e-06	-2.560783e-06	-8.482140e-10	-1.779860e+01	-5.820788e+01
1.290000e-06	-2.519251e-06	-8.448872e-10	-1.750994e+01	-5.793518e+01
1.300000e-06	-2.477429e-06	-8.400976e-10	-1.721926e+01	-5.765706e+01
1.310000e-06	-2.435377e-06	-8.319595e-10	-1.692698e+01	-5.737344e+01
1.320000e-06	-2.392952e-06	-8.255825e-10	-1.663211e+01	-5.708420e+01
1.330000e-06	-2.350216e-06	-8.216759e-10	-1.633507e+01	-5.678926e+01
1.340000e-06	-2.307280e-06	-8.178226e-10	-1.603665e+01	-5.648856e+01
1.350000e-06	-2.264182e-06	-8.151482e-10	-1.573709e+01	-5.618202e+01
1.360000e-06	-2.220813e-06	-8.128057e-10	-1.543566e+01	-5.586960e+01
1.370000e-06	-2.177279e-06	-8.066064e-10	-1.513308e+01	-5.555123e+01
1.380000e-06	-2.133665e-06	-7.988725e-10	-1.482994e+01	-5.522687e+01
1.390000e-06	-2.089933e-06	-7.927770e-10	-1.452598e+01	-5.489647e+01
1.400000e-06	-2.046126e-06	-7.865524e-10	-1.422151e+01	-5.455998e+01
1.410000e-06	-2.002270e-06	-7.813233e-10	-1.391669e+01	-5.421735e+01
1.420000e-06	-1.958353e-06	-7.774056e-10	-1.361144e+01	-5.386850e+01
1.430000e-06	-1.914348e-06	-7.746745e-10	-1.330559e+01	-5.351335e+01
1.440000e-06	-1.870279e-06	-7.698445e-10	-1.299929e+01	-5.315181e+01
1.450000e-06	-1.826093e-06	-7.642127e-10	-1.269218e+01	-5.278375e+01
1.460000e-06	-1.781747e-06	-7.569773e-10	-1.238395e+01	-5.240902e+01
1.470000e-06	-1.737263e-06	-7.480760e-10	-1.207477e+01	-5.202746e+01
1.480000e-06	-1.692675e-06	-7.386808e-10	-1.176486e+01	-5.163885e+01
1.490000e-06	-1.647928e-06	-7.300672e-10	-1.145385e+01	-5.124295e+01
1.500000e-06	-1.603030e-06	-7.205038e-10	-1.114179e+01	-5.083947e+01
1.510000e-06	-1.558031e-06	-7.125301e-10	-1.082902e+01	-5.042809e+01
1.520000e-06	-1.512870e-06	-7.073595e-10	-1.051514e+01	-5.000843e+01
1.530000e-06	-1.467589e-06	-7.047701e-10	-1.020042e+01	-4.958008e+01
1.540000e-06	-1.422200e-06	-7.001656e-10	-9.884940e+00	-4.914256e+01
1.550000e-06	-1.376721e-06	-6.925529e-10	-9.568841e+00	-4.869535e+01
1.560000e-06	-1.331257e-06	-6.810775e-10	-9.252839e+00	-4.823788e+01
1.570000e-06	-1.285676e-06	-6.683765e-10	-8.936037e+00	-4.776953e+01
1.580000e-06	-1.239938e-06	-6.570449e-10	-8.618132e+00	-4.728961e+01
1.590000e-06	-1.194168e-06	-6.493064e-10	-8.300010e+00	-4.679742e+01
1.600000e-06	-1.148330e-06	-6.443841e-10	-7.981417e+00	-4.629215e+01
1.610000e-06	-1.102412e-06	-6.377291e-10	-7.662268e+00	-4.577301e+01
1.620000e-06	-1.056424e-06	-6.290897e-10	-7.342627e+00	-4.523912e+01
1.630000e-06	-1.010397e-06	-6.205437e-10	-7.022719e+00	-4.468957e+01
1.640000e-06	-9.643296e-07	-6.132929e-10	-6.702530e+00	-4.412342e+01
1.650000e-06	-9.181338e-07	-6.043571e-10	-6.381448e+00	-4.353971e+01
1.660000e-06	-8.718739e-07	-5.918124e-10	-6.059921e+00	-4.293743e+01
1.670000e-06	-8.256139e-07	-5.787877e-10	-5.738393e+00	-4.231557e+01
1.680000e-06	-7.793393e-07	-5.663608e-10	-5.416763e+00	-4.167309e+01
1.690000e-06	-7.329543e-07	-5.539970e-10	-5.094367e+00	-4.100896e+01
1.700000e-06	-6.864792e-07	-5.415801e-10	-4.771343e+00	-4.032215e+01
1.710000e-06	-6.399926e-07	-5.300416e-10	-4.448240e+00	-3.961162e+01
1.720000e-06	-5.934694e-07	-5.210823e-10	-4.124883e+00	-3.887637e+01
1.730000e-06	-5.469687e-07	-5.125851e-10	-3.801682e+00	-3.811542e+01
1.740000e-06	-5.004471e-07	-5.019126e-10	-3.478336e+00	-3.732781e+01
1.750000e-06	-4.538367e-07	-4.890639e-10	-3.154372e+00	-3.651263e+01
1.760000e-06	-4.072053e-07	-4.747503e-10	-2.830262e+00	-3.566904e+01
1.770000e-06	-3.604563e-07	-4.602144e-10	-2.505335e+00	-3.479624e+01
1.780000e-06	-3.135768e-07	-4.481537e-10	-2.179502e+00	-3.389348e+01
1.790000e-06	-2.667053e-07	-4.367212e-10	-1.853723e+00	-3.296014e+01
1.800000e-06	-2.198780e-07	-4.245023e-10	-1.528253e+00	-3.199562e+01
1.810000e-06	-1.730463e-07	-4.097598e-10	-1.202750e+00	-3.099946e+01
1.820000e-06	-1.261544e-07	-3.927682e-10	-8.768302e-01	-2.997127e+01
1.830000e-06	-7.927580e-08	-3.767562e-10	-5.510029e-01	-2.891077e+01
1.840000e-06	-3.236739e-08	-3.629711e-10	-2.249681e-01	-2.781781e+01
1.850000e-06	1.449859e-08	-3.495241e-10	1.007718e-01	-2.669233e+01
1.860000e-06	6.124419e-08	-3.353150e-10	4.256750e-01	-2.553439e+01
1.870000e-06	1.080566e-07	-3.195372e-10	7.510428e-01	-2.434418e+01
1.880000e-06	1.549068e-07	-3.029122e-10	1.076673e+00	-2.312203e+01
1.890000e-06	2.016970e-07	-2.853176e-10	1.401886e+00	-2.186838e+01
1.900000e-06	2.484380e-07	-2.663217e-10	1.726757e+00	-2.058379e+01
1.910000e-06	2.951568e-07	-2.465225e-10	2.051475e+00	-1.926898e+01
1.920000e-06	3.418582e-07	-2.282723e-10	2.376070e+00	-1.792476e+01
1.930000e-06	3.885369e-07	-2.116584e-10	2.700508e+00	-1.655210e+01
1.940000e-06	4.351958e-07	-1.932226e-10	3.024809e+00	-1.515207e+01
1.950000e-06	4.818170e-07	-1.717986e-10	3.348848e+00	-1.372587e+01
1.960000e-06	5.283900e-07	-1.502096e-10	3.672551e+00	-1.227482e+01
1.970000e-06	5.749609e-07	-1.309124e-10	3.996240e+00	-1.080034e+01
1.980000e-06	6.214146e-07	-1.116390e-10	4.319115e+00	-9.303964e+00
1.990000e-06	6.677638e-07	-9.123566e-11	4.641263e+00	-7.787312e+00
2.000000e-06	7.141068e-07	-6.957684e-11	4.963367e+00	-6.252103e+00
2.010000e-06	7.603722e-07	-4.605537e-11	5.284933e+00	-4.700135e+00
2.020000e-06	8.066046e-07	-2.005117e-11	5.606269e+00	-3.133279e+00
2.030000e-06	8.528300e-07	4.872917e-12	5.927557e+00	-1.553470e+00
2.040000e-06	8.990320e-07	2.473583e-11	6.248682e+00	3.730448e-02
2.050000e-06	9.451783e-07	4.174835e-11	6.569420e+00	1.637012e+00
2.060000e-06	9.912022e-07	6.072894e-11	6.889307e+00	3.243587e+00
2.070000e-06	1.037122e-06	8.126522e-11	7.208471e+00	4.854941e+00
2.080000e-06	1.082956e-06	1.035335e-10	7.527037e+00	6.468974e+00
2.090000e-06	1.128715e-06	1.300931e-10	7.845083e+00	8.083583e+00
2.100000e-06	1.174445e-06	1.583798e-10	8.162924e+00	9.696675e+00
2.110000e-06	1.220091e-06	1.831818e-10	8.480186e+00	1.130618e+01
2.120000e-06	1.265670e-06	2.035895e-10	8.796986e+00	1.291004e+01
2.130000e-06	1.311212e-06	2.216489e-10	9.113517e+00	1.450627e+01
2.140000e-06	1.356663e-06	2.382355e-10	9.429424e+00	1.609291e+01
2.150000e-06	1.401989e-06	2.547124e-10	9.744462e+00	1.766805e+01
2.160000e-06	1.447191e-06	2.758876e-10	1.005864e+01	1.922986e+01
2.170000e-06	1.492340e-06	3.000348e-10	1.037244e+01	2.077660e+01
2.180000e-06	1.537427e-06	3.248931e-10	1.068582e+01	2.230658e+01
2.190000e-06	1.582347e-06	3.475635e-10	1.099803e+01	2.381821e+01
2.200000e-06	1.627095e-06	3.673925e-10	1.130905e+01	2.531001e+01
2.210000e-06	1.671763e-06	3.863666e-10	1.161951e+01	2.678057e+01
2.220000e-06	1.716333e-06	4.020994e-10	1.192930e+01	2.822861e+01
2.230000e-06	1.760748e-06	4.205915e-10	1.223800e+01	2.965293e+01
2.240000e-06	1.805004e-06	4.378166e-10	1.254560e+01	3.105247e+01
2.250000e-06	1.849127e-06	4.533712e-10	1.285228e+01	3.242624e+01
2.260000e-06	1.893180e-06	4.695968e-10	1.315846e+01	3.377339e+01
2.270000e-06	1.937177e-06	4.881755e-10	1.346426e+01	3.509318e+01
2.280000e-06	1.981110e-06	5.103749e-10	1.376962e+01	3.638497e+01
2.290000e-06	2.024963e-06	5.326776e-10	1.407442e+01	3.764823e+01
2.300000e-06	2.068772e-06	5.532525e-10	1.437891e+01	3.888254e+01
2.310000e-06	2.112542e-06	5.703848e-10	1.468313e+01	4.008759e+01
2.320000e-06	2.156191e-06	5.845300e-10	1.498651e+01	4.126315e+01
2.330000e-06	2.199670e-06	5.935050e-10	1.528871e+01	4.240911e+01
2.340000e-06	2.242969e-06	6.026119e-10	1.558965e+01	4.352543e+01
2.350000e-06	2.286137e-06	6.155357e-10	1.588969e+01	4.461216e+01
2.360000e-06	2.329087e-06	6.310394e-10	1.618822e+01	4.566945e+01
2.370000e-06	2.371786e-06	6.499726e-10	1.648499e+01	4.669750e+01
2.380000e-06	2.414288e-06	6.668646e-10	1.678040e+01	4.769659e+01
2.390000e-06	2.456513e-06	6.790612e-10	1.707388e+01	4.866705e+01
2.400000e-06	2.498318e-06	6.887478e-10	1.736445e+01	4.960929e+01
2.410000e-06	2.539728e-06	6.985821e-10	1.765226e+01	5.052375e+01
2.420000e-06	2.580954e-06	7.111380e-10	1.793881e+01	5.141090e+01
2.430000e-06	2.621957e-06	7.240245e-10	1.822380e+01	5.227129e+01
2.440000e-06	2.662686e-06	7.392296e-10	1.850688e+01	5.310545e+01
2.450000e-06	2.703191e-06	7.531326e-10	1.878841e+01	5.391397e+01
2.460000e-06	2.743499e-06	7.636963e-10	1.906857e+01	5.469745e+01
2.470000e-06	2.783598e-06	7.711497e-10	1.934727e+01	5.545647e+01
2.480000e-06	2.823567e-06	7.775214e-10	1.962507e+01	5.619167e+01
2.490000e-06	2.863435e-06	7.856486e-10	1.990218e+01	5.690367e+01
2.500000e-06	2.903172e-06	7.961847e-10	2.017837e+01	5.759306e+01
2.510000e-06	2.942773e-06	8.095996e-10	2.045361e+01	5.826048e+01
2.520000e-06	2.982228e-06	8.219946e-10	2.072784e+01	5.890651e+01
2.530000e-06	3.021511e-06	8.322723e-10	2.100088e+01	5.953175e+01
2.540000e-06	3.060539e-06	8.403368e-10	2.127214e+01	6.013677e+01
2.550000e-06	3.099273e-06	8.460053e-10	2.154136e+01	6.072214e+01
2.560000e-06	3.137750e-06	8.513588e-10	2.180879e+01	6.128839e+01
2.570000e-06	3.176043e-06	8.589068e-10	2.207495e+01	6.183605e+01
2.580000e-06	3.214196e-06	8.652104e-10	2.234013e+01	6.236562e+01
2.590000e-06	3.252168e-06	8.719555e-10	2.260405e+01	6.287758e+01
2.600000e-06	3.289852e-06	8.791162e-10	2.286597e+01	6.337240e+01
2.610000e-06	3.327329e-06	8.854902e-10	2.312645e+01	6.385053e+01
2.620000e-06	3.364654e-06	8.910827e-10	2.338588e+01	6.431239e+01
2.630000e-06	3.401707e-06	8.957803e-10	2.364341e+01	6.475840e+01
2.640000e-06	3.438430e-06	9.015638e-10	2.389866e+01	6.518896e+01
2.650000e-06	3.474856e-06	9.060118e-10	2.415183e+01	6.560444e+01
2.660000e-06	3.511067e-06	9.103192e-10	2.440352e+01	6.600523e+01
2.670000e-06	3.547118e-06	9.143811e-10	2.465408e+01	6.639169e+01
2.680000e-06	3.583033e-06	9.170375e-10	2.490371e+01	6.676417e+01
2.690000e-06	3.618825e-06	9.192919e-10	2.515248e+01	6.712303e+01
2.700000e-06	3.654495e-06	9.243432e-10	2.540041e+01	6.746862e+01
2.710000e-06	3.690032e-06	9.309703e-10	2.564740e+01	6.780129e+01
2.720000e-06	3.725296e-06	9.395674e-10	2.589250e+01	6.812138e+01
2.730000e-06	3.760165e-06	9.478156e-10	2.613486e+01	6.842925e+01
2.740000e-06	3.794581e-06	9.525467e-10	2.637407e+01	6.872526e+01
2.750000e-06	3.828580e-06	9.563422e-10	2.661037e+01	6.900976e+01
2.760000e-06	3.862138e-06	9.609092e-10	2.684362e+01	6.928313e+01
2.770000e-06	3.895218e-06	9.664894e-10	2.707354e+01	6.954574e+01
2.780000e-06	3.927954e-06	9.718785e-10	2.730107e+01	6.979798e+01
2.790000e-06	3.960359e-06	9.778695e-10	2.752630e+01	7.004023e+01
2.800000e-06	3.992472e-06	9.842482e-10	2.774950e+01	7.027291e+01
2.810000e-06	4.024432e-06	9.879967e-10	2.797163e+01	7.049641e+01
2.820000e-06	4.056223e-06	9.904389e-10	2.819260e+01	7.071116e+01
2.830000e-06	4.087783e-06	9.945609e-10	2.841195e+01	7.091758e+01
2.840000e-06	4.119102e-06	9.995132e-10	2.862964e+01	7.111608e+01
2.850000e-06	4.150139e-06	1.004819e-09	2.884536e+01	7.130711e+01
2.860000e-06	4.180913e-06	1.011090e-09	2.905925e+01	7.149109e+01
2.870000e-06	4.211407e-06	1.017302e-09	2.927120e+01	7.166845e+01
2.880000e-06	4.241534e-06	1.020652e-09	2.948059e+01	7.183963e+01
2.890000e-06	4.271482e-06	1.023990e-09	2.968874e+01	7.200504e+01
2.900000e-06	4.301281e-06	1.028228e-09	2.989586e+01	7.216509e+01
