# Temperatura_=_5.15
# Concentracion g/m^3_=_1620.0
# C_Vs_to_Am_M_A/Vsm_=_65563218390.804596
# pendiente_HvsI_1/m_=_3716.3
# ordenada_HvsI_A/m_=_1297.0
# frecuencia_Hz_=_135106.69492200305

Tiempo_(s)	Campo_(V.s)	Magnetizacion_(V.s)	Campo_(kA/m)	Magnetizacion_(A/m)
0.000000e+00	-5.522138e-06	-1.258671e-09	-3.837220e+01	-8.288942e+01
1.000000e-08	-5.522271e-06	-1.259892e-09	-3.837312e+01	-8.287458e+01
2.000000e-08	-5.522084e-06	-1.260563e-09	-3.837182e+01	-8.286125e+01
3.000000e-08	-5.521523e-06	-1.261449e-09	-3.836793e+01	-8.284929e+01
4.000000e-08	-5.520389e-06	-1.259109e-09	-3.836004e+01	-8.283852e+01
5.000000e-08	-5.518683e-06	-1.249927e-09	-3.834819e+01	-8.282874e+01
6.000000e-08	-5.516498e-06	-1.243483e-09	-3.833300e+01	-8.281972e+01
7.000000e-08	-5.513743e-06	-1.247739e-09	-3.831386e+01	-8.281117e+01
8.000000e-08	-5.510432e-06	-1.254774e-09	-3.829085e+01	-8.280283e+01
9.000000e-08	-5.506694e-06	-1.257463e-09	-3.826488e+01	-8.279436e+01
1.000000e-07	-5.502504e-06	-1.267550e-09	-3.823576e+01	-8.278545e+01
1.100000e-07	-5.497981e-06	-1.265670e-09	-3.820433e+01	-8.277575e+01
1.200000e-07	-5.493286e-06	-1.239812e-09	-3.817171e+01	-8.276490e+01
1.300000e-07	-5.488370e-06	-1.214314e-09	-3.813755e+01	-8.275254e+01
1.400000e-07	-5.483024e-06	-1.236372e-09	-3.810040e+01	-8.273830e+01
1.500000e-07	-5.477251e-06	-1.256219e-09	-3.806029e+01	-8.272182e+01
1.600000e-07	-5.471169e-06	-1.252260e-09	-3.801802e+01	-8.270274e+01
1.700000e-07	-5.464665e-06	-1.241953e-09	-3.797283e+01	-8.268070e+01
1.800000e-07	-5.457716e-06	-1.273437e-09	-3.792454e+01	-8.265536e+01
1.900000e-07	-5.450425e-06	-1.301163e-09	-3.787387e+01	-8.262639e+01
2.000000e-07	-5.442858e-06	-1.261057e-09	-3.782129e+01	-8.259349e+01
2.100000e-07	-5.435068e-06	-1.249146e-09	-3.776716e+01	-8.255638e+01
2.200000e-07	-5.427077e-06	-1.264678e-09	-3.771163e+01	-8.251478e+01
2.300000e-07	-5.418692e-06	-1.291803e-09	-3.765337e+01	-8.246847e+01
2.400000e-07	-5.409689e-06	-1.265162e-09	-3.759081e+01	-8.241723e+01
2.500000e-07	-5.399939e-06	-1.264997e-09	-3.752306e+01	-8.236091e+01
2.600000e-07	-5.389474e-06	-1.261609e-09	-3.745034e+01	-8.229934e+01
2.700000e-07	-5.378605e-06	-1.257154e-09	-3.737481e+01	-8.223243e+01
2.800000e-07	-5.367397e-06	-1.240650e-09	-3.729693e+01	-8.216010e+01
2.900000e-07	-5.355711e-06	-1.250922e-09	-3.721573e+01	-8.208231e+01
3.000000e-07	-5.343582e-06	-1.252174e-09	-3.713145e+01	-8.199906e+01
3.100000e-07	-5.331070e-06	-1.250372e-09	-3.704450e+01	-8.191036e+01
3.200000e-07	-5.318100e-06	-1.261970e-09	-3.695438e+01	-8.181629e+01
3.300000e-07	-5.304754e-06	-1.266130e-09	-3.686164e+01	-8.171694e+01
3.400000e-07	-5.291123e-06	-1.253202e-09	-3.676692e+01	-8.161242e+01
3.500000e-07	-5.277069e-06	-1.240019e-09	-3.666926e+01	-8.150290e+01
3.600000e-07	-5.262599e-06	-1.246178e-09	-3.656871e+01	-8.138855e+01
3.700000e-07	-5.247674e-06	-1.233518e-09	-3.646500e+01	-8.126958e+01
3.800000e-07	-5.232072e-06	-1.234614e-09	-3.635659e+01	-8.114621e+01
3.900000e-07	-5.215874e-06	-1.239427e-09	-3.624403e+01	-8.101868e+01
4.000000e-07	-5.199355e-06	-1.232468e-09	-3.612924e+01	-8.088725e+01
4.100000e-07	-5.182574e-06	-1.219065e-09	-3.601264e+01	-8.075220e+01
4.200000e-07	-5.165434e-06	-1.241094e-09	-3.589354e+01	-8.061380e+01
4.300000e-07	-5.147943e-06	-1.234219e-09	-3.577199e+01	-8.047235e+01
4.400000e-07	-5.130159e-06	-1.212678e-09	-3.564841e+01	-8.032813e+01
4.500000e-07	-5.112062e-06	-1.215803e-09	-3.552267e+01	-8.018144e+01
4.600000e-07	-5.093507e-06	-1.229994e-09	-3.539373e+01	-8.003256e+01
4.700000e-07	-5.074524e-06	-1.194653e-09	-3.526182e+01	-7.988178e+01
4.800000e-07	-5.055286e-06	-1.192107e-09	-3.512814e+01	-7.972936e+01
4.900000e-07	-5.035773e-06	-1.222115e-09	-3.499255e+01	-7.957556e+01
5.000000e-07	-5.015970e-06	-1.219720e-09	-3.485494e+01	-7.942064e+01
5.100000e-07	-4.995902e-06	-1.191692e-09	-3.471549e+01	-7.926482e+01
5.200000e-07	-4.975493e-06	-1.210788e-09	-3.457367e+01	-7.910831e+01
5.300000e-07	-4.954710e-06	-1.212405e-09	-3.442926e+01	-7.895130e+01
5.400000e-07	-4.933601e-06	-1.181659e-09	-3.428257e+01	-7.879395e+01
5.500000e-07	-4.912183e-06	-1.177413e-09	-3.413375e+01	-7.863642e+01
5.600000e-07	-4.890495e-06	-1.193654e-09	-3.398304e+01	-7.847881e+01
5.700000e-07	-4.868496e-06	-1.174906e-09	-3.383018e+01	-7.832123e+01
5.800000e-07	-4.846062e-06	-1.174828e-09	-3.367428e+01	-7.816375e+01
5.900000e-07	-4.823226e-06	-1.201045e-09	-3.351560e+01	-7.800639e+01
6.000000e-07	-4.800105e-06	-1.191686e-09	-3.335494e+01	-7.784920e+01
6.100000e-07	-4.776705e-06	-1.165219e-09	-3.319234e+01	-7.769215e+01
6.200000e-07	-4.753059e-06	-1.172393e-09	-3.302802e+01	-7.753523e+01
6.300000e-07	-4.729217e-06	-1.177702e-09	-3.286235e+01	-7.737837e+01
6.400000e-07	-4.705095e-06	-1.161096e-09	-3.269473e+01	-7.722151e+01
6.500000e-07	-4.680492e-06	-1.167408e-09	-3.252377e+01	-7.706455e+01
6.600000e-07	-4.655355e-06	-1.179519e-09	-3.234910e+01	-7.690738e+01
6.700000e-07	-4.629729e-06	-1.168505e-09	-3.217103e+01	-7.674987e+01
6.800000e-07	-4.603571e-06	-1.159085e-09	-3.198927e+01	-7.659188e+01
6.900000e-07	-4.576969e-06	-1.170957e-09	-3.180441e+01	-7.643326e+01
7.000000e-07	-4.550017e-06	-1.163671e-09	-3.161712e+01	-7.627384e+01
7.100000e-07	-4.522686e-06	-1.149605e-09	-3.142721e+01	-7.611346e+01
7.200000e-07	-4.495025e-06	-1.149769e-09	-3.123500e+01	-7.595193e+01
7.300000e-07	-4.467197e-06	-1.154660e-09	-3.104163e+01	-7.578907e+01
7.400000e-07	-4.439247e-06	-1.142947e-09	-3.084741e+01	-7.562471e+01
7.500000e-07	-4.411065e-06	-1.143688e-09	-3.065158e+01	-7.545866e+01
7.600000e-07	-4.382557e-06	-1.146726e-09	-3.045348e+01	-7.529074e+01
7.700000e-07	-4.353677e-06	-1.140256e-09	-3.025280e+01	-7.512078e+01
7.800000e-07	-4.324476e-06	-1.130371e-09	-3.004989e+01	-7.494861e+01
7.900000e-07	-4.295008e-06	-1.133097e-09	-2.984512e+01	-7.477408e+01
8.000000e-07	-4.265291e-06	-1.126968e-09	-2.963863e+01	-7.459703e+01
8.100000e-07	-4.235304e-06	-1.116733e-09	-2.943025e+01	-7.441732e+01
8.200000e-07	-4.205000e-06	-1.114167e-09	-2.921968e+01	-7.423483e+01
8.300000e-07	-4.174404e-06	-1.114738e-09	-2.900707e+01	-7.404943e+01
8.400000e-07	-4.143561e-06	-1.107739e-09	-2.879275e+01	-7.386103e+01
8.500000e-07	-4.112445e-06	-1.107903e-09	-2.857653e+01	-7.366953e+01
8.600000e-07	-4.081091e-06	-1.109128e-09	-2.835865e+01	-7.347484e+01
8.700000e-07	-4.049536e-06	-1.102319e-09	-2.813939e+01	-7.327691e+01
8.800000e-07	-4.017790e-06	-1.096351e-09	-2.791879e+01	-7.307569e+01
8.900000e-07	-3.985853e-06	-1.095786e-09	-2.769687e+01	-7.287112e+01
9.000000e-07	-3.953672e-06	-1.089141e-09	-2.747325e+01	-7.266317e+01
9.100000e-07	-3.921107e-06	-1.081632e-09	-2.724696e+01	-7.245183e+01
9.200000e-07	-3.888081e-06	-1.082197e-09	-2.701747e+01	-7.223709e+01
9.300000e-07	-3.854647e-06	-1.081072e-09	-2.678514e+01	-7.201894e+01
9.400000e-07	-3.820865e-06	-1.075963e-09	-2.655040e+01	-7.179738e+01
9.500000e-07	-3.786705e-06	-1.072008e-09	-2.631303e+01	-7.157242e+01
9.600000e-07	-3.752128e-06	-1.066951e-09	-2.607276e+01	-7.134408e+01
9.700000e-07	-3.717154e-06	-1.054682e-09	-2.582974e+01	-7.111237e+01
9.800000e-07	-3.681850e-06	-1.049128e-09	-2.558441e+01	-7.087732e+01
9.900000e-07	-3.646338e-06	-1.047345e-09	-2.533765e+01	-7.063893e+01
1.000000e-06	-3.610675e-06	-1.043710e-09	-2.508984e+01	-7.039724e+01
1.010000e-06	-3.574940e-06	-1.039675e-09	-2.484152e+01	-7.015225e+01
1.020000e-06	-3.539092e-06	-1.039564e-09	-2.459242e+01	-6.990398e+01
1.030000e-06	-3.503006e-06	-1.033613e-09	-2.434167e+01	-6.965243e+01
1.040000e-06	-3.466655e-06	-1.026594e-09	-2.408907e+01	-6.939761e+01
1.050000e-06	-3.430036e-06	-1.021369e-09	-2.383461e+01	-6.913953e+01
1.060000e-06	-3.393070e-06	-1.017152e-09	-2.357774e+01	-6.887816e+01
1.070000e-06	-3.355841e-06	-1.011738e-09	-2.331905e+01	-6.861350e+01
1.080000e-06	-3.318430e-06	-1.014021e-09	-2.305909e+01	-6.834553e+01
1.090000e-06	-3.280747e-06	-1.015493e-09	-2.279723e+01	-6.807420e+01
1.100000e-06	-3.242817e-06	-1.009055e-09	-2.253366e+01	-6.779950e+01
1.110000e-06	-3.204651e-06	-1.000656e-09	-2.226846e+01	-6.752137e+01
1.120000e-06	-3.166330e-06	-9.976048e-10	-2.200217e+01	-6.723976e+01
1.130000e-06	-3.127857e-06	-9.930316e-10	-2.173483e+01	-6.695461e+01
1.140000e-06	-3.089161e-06	-9.882756e-10	-2.146594e+01	-6.666587e+01
1.150000e-06	-3.050264e-06	-9.852065e-10	-2.119565e+01	-6.637346e+01
1.160000e-06	-3.011092e-06	-9.793653e-10	-2.092345e+01	-6.607731e+01
1.170000e-06	-2.971686e-06	-9.694282e-10	-2.064963e+01	-6.577734e+01
1.180000e-06	-2.932179e-06	-9.629456e-10	-2.037511e+01	-6.547348e+01
1.190000e-06	-2.892594e-06	-9.607384e-10	-2.010004e+01	-6.516564e+01
1.200000e-06	-2.852843e-06	-9.563230e-10	-1.982382e+01	-6.485373e+01
1.210000e-06	-2.812910e-06	-9.513220e-10	-1.954633e+01	-6.453768e+01
1.220000e-06	-2.772863e-06	-9.484023e-10	-1.926805e+01	-6.421741e+01
1.230000e-06	-2.732658e-06	-9.446581e-10	-1.898867e+01	-6.389282e+01
1.240000e-06	-2.692228e-06	-9.384298e-10	-1.870774e+01	-6.356384e+01
1.250000e-06	-2.651512e-06	-9.357310e-10	-1.842481e+01	-6.323039e+01
1.260000e-06	-2.610507e-06	-9.327212e-10	-1.813987e+01	-6.289239e+01
1.270000e-06	-2.569265e-06	-9.273935e-10	-1.785329e+01	-6.254977e+01
1.280000e-06	-2.527742e-06	-9.238100e-10	-1.756476e+01	-6.220246e+01
1.290000e-06	-2.485908e-06	-9.213876e-10	-1.727406e+01	-6.185038e+01
1.300000e-06	-2.443782e-06	-9.125166e-10	-1.698133e+01	-6.149347e+01
1.310000e-06	-2.401379e-06	-9.037056e-10	-1.668668e+01	-6.113166e+01
1.320000e-06	-2.358762e-06	-8.992163e-10	-1.639055e+01	-6.076488e+01
1.330000e-06	-2.315953e-06	-8.941602e-10	-1.609308e+01	-6.039306e+01
1.340000e-06	-2.272904e-06	-8.884502e-10	-1.579394e+01	-6.001612e+01
1.350000e-06	-2.229633e-06	-8.848806e-10	-1.549326e+01	-5.963400e+01
1.360000e-06	-2.186215e-06	-8.793951e-10	-1.519155e+01	-5.924660e+01
1.370000e-06	-2.142744e-06	-8.726963e-10	-1.488949e+01	-5.885383e+01
1.380000e-06	-2.099241e-06	-8.661464e-10	-1.458719e+01	-5.845558e+01
1.390000e-06	-2.055614e-06	-8.606080e-10	-1.428403e+01	-5.805174e+01
1.400000e-06	-2.011827e-06	-8.534323e-10	-1.397977e+01	-5.764217e+01
1.410000e-06	-1.967937e-06	-8.471253e-10	-1.367479e+01	-5.722673e+01
1.420000e-06	-1.924017e-06	-8.404933e-10	-1.336960e+01	-5.680522e+01
1.430000e-06	-1.880047e-06	-8.339696e-10	-1.306406e+01	-5.637746e+01
1.440000e-06	-1.835937e-06	-8.273977e-10	-1.275755e+01	-5.594321e+01
1.450000e-06	-1.791731e-06	-8.198791e-10	-1.245037e+01	-5.550221e+01
1.460000e-06	-1.747437e-06	-8.083486e-10	-1.214258e+01	-5.505419e+01
1.470000e-06	-1.702956e-06	-7.951751e-10	-1.183349e+01	-5.459879e+01
1.480000e-06	-1.658312e-06	-7.866083e-10	-1.152326e+01	-5.413567e+01
1.490000e-06	-1.613558e-06	-7.809339e-10	-1.121228e+01	-5.366442e+01
1.500000e-06	-1.568642e-06	-7.767702e-10	-1.090017e+01	-5.318458e+01
1.510000e-06	-1.523577e-06	-7.726059e-10	-1.058702e+01	-5.269567e+01
1.520000e-06	-1.478416e-06	-7.676339e-10	-1.027320e+01	-5.219714e+01
1.530000e-06	-1.433126e-06	-7.590176e-10	-9.958499e+00	-5.168842e+01
1.540000e-06	-1.387740e-06	-7.468358e-10	-9.643116e+00	-5.116887e+01
1.550000e-06	-1.342300e-06	-7.361717e-10	-9.327366e+00	-5.063780e+01
1.560000e-06	-1.296780e-06	-7.272526e-10	-9.011059e+00	-5.009451e+01
1.570000e-06	-1.251147e-06	-7.192289e-10	-8.693959e+00	-4.953821e+01
1.580000e-06	-1.205394e-06	-7.124697e-10	-8.376035e+00	-4.896809e+01
1.590000e-06	-1.159549e-06	-7.064818e-10	-8.057468e+00	-4.838329e+01
1.600000e-06	-1.113673e-06	-6.995606e-10	-7.738686e+00	-4.778292e+01
1.610000e-06	-1.067729e-06	-6.890895e-10	-7.419431e+00	-4.716605e+01
1.620000e-06	-1.021702e-06	-6.794104e-10	-7.099598e+00	-4.653170e+01
1.630000e-06	-9.756372e-07	-6.677132e-10	-6.779501e+00	-4.587888e+01
1.640000e-06	-9.294802e-07	-6.551599e-10	-6.458766e+00	-4.520657e+01
1.650000e-06	-8.832557e-07	-6.414497e-10	-6.137561e+00	-4.451375e+01
1.660000e-06	-8.369690e-07	-6.276063e-10	-5.815925e+00	-4.379936e+01
1.670000e-06	-7.906142e-07	-6.138522e-10	-5.493815e+00	-4.306234e+01
1.680000e-06	-7.442232e-07	-6.000566e-10	-5.171453e+00	-4.230164e+01
1.690000e-06	-6.977807e-07	-5.876252e-10	-4.848734e+00	-4.151623e+01
1.700000e-06	-6.512713e-07	-5.757369e-10	-4.525549e+00	-4.070506e+01
1.710000e-06	-6.046975e-07	-5.638452e-10	-4.201918e+00	-3.986713e+01
1.720000e-06	-5.581334e-07	-5.524767e-10	-3.878354e+00	-3.900147e+01
1.730000e-06	-5.115570e-07	-5.378332e-10	-3.554704e+00	-3.810714e+01
1.740000e-06	-4.649014e-07	-5.207309e-10	-3.230503e+00	-3.718326e+01
1.750000e-06	-4.182266e-07	-5.031182e-10	-2.906170e+00	-3.622900e+01
1.760000e-06	-3.715097e-07	-4.854076e-10	-2.581544e+00	-3.524358e+01
1.770000e-06	-3.247624e-07	-4.698541e-10	-2.256706e+00	-3.422632e+01
1.780000e-06	-2.780547e-07	-4.563238e-10	-1.932144e+00	-3.317661e+01
1.790000e-06	-2.312561e-07	-4.429726e-10	-1.606951e+00	-3.209392e+01
1.800000e-06	-1.844104e-07	-4.273166e-10	-1.281430e+00	-3.097783e+01
1.810000e-06	-1.375572e-07	-4.093560e-10	-9.558564e-01	-2.982800e+01
1.820000e-06	-9.060452e-08	-3.898924e-10	-6.295921e-01	-2.864423e+01
1.830000e-06	-4.368508e-08	-3.709442e-10	-3.035586e-01	-2.742642e+01
1.840000e-06	3.173075e-09	-3.531867e-10	2.204904e-02	-2.617458e+01
1.850000e-06	5.002803e-08	-3.353252e-10	3.476345e-01	-2.488886e+01
1.860000e-06	9.683886e-08	-3.155081e-10	6.729132e-01	-2.356954e+01
1.870000e-06	1.436647e-07	-2.954391e-10	9.982966e-01	-2.221702e+01
1.880000e-06	1.905464e-07	-2.774645e-10	1.324068e+00	-2.083184e+01
1.890000e-06	2.374743e-07	-2.615720e-10	1.650160e+00	-1.941468e+01
1.900000e-06	2.843569e-07	-2.434067e-10	1.975937e+00	-1.796635e+01
1.910000e-06	3.311536e-07	-2.232888e-10	2.301118e+00	-1.648779e+01
1.920000e-06	3.778882e-07	-2.016132e-10	2.625867e+00	-1.498008e+01
1.930000e-06	4.245208e-07	-1.779420e-10	2.949907e+00	-1.344444e+01
1.940000e-06	4.712076e-07	-1.530084e-10	3.274324e+00	-1.188220e+01
1.950000e-06	5.179267e-07	-1.292442e-10	3.598965e+00	-1.029483e+01
1.960000e-06	5.645272e-07	-1.087407e-10	3.922783e+00	-8.683914e+00
1.970000e-06	6.110124e-07	-8.878547e-11	4.245799e+00	-7.051138e+00
1.980000e-06	6.574085e-07	-6.836686e-11	4.568196e+00	-5.398304e+00
1.990000e-06	7.037558e-07	-4.597915e-11	4.890254e+00	-3.727310e+00
2.000000e-06	7.500543e-07	-1.904463e-11	5.211973e+00	-2.040141e+00
2.010000e-06	7.963122e-07	1.072792e-11	5.533409e+00	-3.388652e-01
2.020000e-06	8.425181e-07	3.879958e-11	5.854484e+00	1.374382e+00
2.030000e-06	8.886992e-07	6.218632e-11	6.175387e+00	3.097404e+00
2.040000e-06	9.348609e-07	8.187403e-11	6.496155e+00	4.827954e+00
2.050000e-06	9.809353e-07	1.032095e-10	6.816317e+00	6.563750e+00
2.060000e-06	1.027002e-06	1.275533e-10	7.136425e+00	8.302481e+00
2.070000e-06	1.073030e-06	1.525738e-10	7.456261e+00	1.004182e+01
2.080000e-06	1.118902e-06	1.807007e-10	7.775019e+00	1.177945e+01
2.090000e-06	1.164683e-06	2.109179e-10	8.093138e+00	1.351304e+01
2.100000e-06	1.210446e-06	2.382649e-10	8.411138e+00	1.524030e+01
2.110000e-06	1.256103e-06	2.618373e-10	8.728398e+00	1.695896e+01
2.120000e-06	1.301539e-06	2.828630e-10	9.044125e+00	1.866681e+01
2.130000e-06	1.346932e-06	3.023680e-10	9.359551e+00	2.036167e+01
2.140000e-06	1.392337e-06	3.217209e-10	9.675059e+00	2.204145e+01
2.150000e-06	1.437575e-06	3.441605e-10	9.989409e+00	2.370412e+01
2.160000e-06	1.482713e-06	3.714481e-10	1.030307e+01	2.534775e+01
2.170000e-06	1.527788e-06	3.988917e-10	1.061628e+01	2.697049e+01
2.180000e-06	1.572757e-06	4.223885e-10	1.092876e+01	2.857061e+01
2.190000e-06	1.617559e-06	4.432850e-10	1.124008e+01	3.014645e+01
2.200000e-06	1.662157e-06	4.632671e-10	1.154999e+01	3.169653e+01
2.210000e-06	1.706583e-06	4.810143e-10	1.185869e+01	3.321943e+01
2.220000e-06	1.750853e-06	4.978236e-10	1.216631e+01	3.471389e+01
2.230000e-06	1.795047e-06	5.165269e-10	1.247341e+01	3.617878e+01
2.240000e-06	1.839160e-06	5.361060e-10	1.277995e+01	3.761309e+01
2.250000e-06	1.883161e-06	5.560204e-10	1.308569e+01	3.901595e+01
2.260000e-06	1.927101e-06	5.783304e-10	1.339103e+01	4.038664e+01
2.270000e-06	1.970963e-06	6.016310e-10	1.369582e+01	4.172455e+01
2.280000e-06	2.014745e-06	6.225514e-10	1.400005e+01	4.302922e+01
2.290000e-06	2.058492e-06	6.404459e-10	1.430404e+01	4.430032e+01
2.300000e-06	2.102216e-06	6.554425e-10	1.460786e+01	4.553764e+01
2.310000e-06	2.145906e-06	6.690051e-10	1.491146e+01	4.674112e+01
2.320000e-06	2.189487e-06	6.828360e-10	1.521430e+01	4.791080e+01
2.330000e-06	2.232930e-06	6.973870e-10	1.551617e+01	4.904683e+01
2.340000e-06	2.276229e-06	7.143003e-10	1.581704e+01	5.014949e+01
2.350000e-06	2.319368e-06	7.329535e-10	1.611681e+01	5.121915e+01
2.360000e-06	2.362294e-06	7.494072e-10	1.641509e+01	5.225626e+01
2.370000e-06	2.404919e-06	7.614672e-10	1.671129e+01	5.326139e+01
2.380000e-06	2.447115e-06	7.724294e-10	1.700450e+01	5.423516e+01
2.390000e-06	2.488992e-06	7.839122e-10	1.729549e+01	5.517829e+01
2.400000e-06	2.530628e-06	7.962548e-10	1.758481e+01	5.609152e+01
2.410000e-06	2.571894e-06	8.111556e-10	1.787156e+01	5.697569e+01
2.420000e-06	2.612863e-06	8.263976e-10	1.815624e+01	5.783164e+01
2.430000e-06	2.653597e-06	8.405808e-10	1.843930e+01	5.866028e+01
2.440000e-06	2.694093e-06	8.547758e-10	1.872070e+01	5.946252e+01
2.450000e-06	2.734366e-06	8.676715e-10	1.900055e+01	6.023931e+01
2.460000e-06	2.774486e-06	8.766655e-10	1.927933e+01	6.099159e+01
2.470000e-06	2.814444e-06	8.841178e-10	1.955699e+01	6.172031e+01
2.480000e-06	2.854238e-06	8.927972e-10	1.983351e+01	6.242642e+01
2.490000e-06	2.893894e-06	9.017644e-10	2.010907e+01	6.311083e+01
2.500000e-06	2.933430e-06	9.115462e-10	2.038380e+01	6.377446e+01
2.510000e-06	2.972883e-06	9.236124e-10	2.065795e+01	6.441820e+01
2.520000e-06	3.012176e-06	9.344172e-10	2.093099e+01	6.504288e+01
2.530000e-06	3.051308e-06	9.424756e-10	2.120291e+01	6.564932e+01
2.540000e-06	3.090247e-06	9.496716e-10	2.147349e+01	6.623830e+01
2.550000e-06	3.128867e-06	9.566540e-10	2.174185e+01	6.681054e+01
2.560000e-06	3.167208e-06	9.634058e-10	2.200827e+01	6.736672e+01
2.570000e-06	3.205330e-06	9.712809e-10	2.227318e+01	6.790748e+01
2.580000e-06	3.243238e-06	9.789107e-10	2.253659e+01	6.843340e+01
2.590000e-06	3.280962e-06	9.849049e-10	2.279872e+01	6.894500e+01
2.600000e-06	3.318498e-06	9.915662e-10	2.305956e+01	6.944277e+01
2.610000e-06	3.355863e-06	9.982218e-10	2.331919e+01	6.992713e+01
2.620000e-06	3.392945e-06	1.003027e-09	2.357687e+01	7.039848e+01
2.630000e-06	3.429723e-06	1.008016e-09	2.383243e+01	7.085713e+01
2.640000e-06	3.466276e-06	1.014037e-09	2.408643e+01	7.130339e+01
2.650000e-06	3.502530e-06	1.019977e-09	2.433836e+01	7.173751e+01
2.660000e-06	3.538544e-06	1.026713e-09	2.458861e+01	7.215969e+01
2.670000e-06	3.574382e-06	1.033036e-09	2.483764e+01	7.257011e+01
2.680000e-06	3.610093e-06	1.038443e-09	2.508579e+01	7.296891e+01
2.690000e-06	3.645737e-06	1.043997e-09	2.533347e+01	7.335623e+01
2.700000e-06	3.681295e-06	1.048467e-09	2.558056e+01	7.373214e+01
2.710000e-06	3.716711e-06	1.052642e-09	2.582666e+01	7.409675e+01
2.720000e-06	3.751813e-06	1.059176e-09	2.607057e+01	7.445012e+01
2.730000e-06	3.786546e-06	1.065853e-09	2.631193e+01	7.479231e+01
2.740000e-06	3.820765e-06	1.071173e-09	2.654971e+01	7.512337e+01
2.750000e-06	3.854418e-06	1.076831e-09	2.678356e+01	7.544338e+01
2.760000e-06	3.887628e-06	1.082898e-09	2.701432e+01	7.575239e+01
2.770000e-06	3.920412e-06	1.088084e-09	2.724213e+01	7.605048e+01
2.780000e-06	3.952808e-06	1.092225e-09	2.746725e+01	7.633773e+01
2.790000e-06	3.984891e-06	1.096226e-09	2.769018e+01	7.661426e+01
2.800000e-06	4.016828e-06	1.101020e-09	2.791211e+01	7.688018e+01
2.810000e-06	4.048633e-06	1.104847e-09	2.813311e+01	7.713564e+01
2.820000e-06	4.080235e-06	1.107812e-09	2.835271e+01	7.738081e+01
2.830000e-06	4.111637e-06	1.111753e-09	2.857091e+01	7.761588e+01
2.840000e-06	4.142783e-06	1.116281e-09	2.878735e+01	7.784107e+01
2.850000e-06	4.173627e-06	1.121649e-09	2.900167e+01	7.805663e+01
2.860000e-06	4.204158e-06	1.127509e-09	2.921382e+01	7.826283e+01
2.870000e-06	4.234311e-06	1.132606e-09	2.942335e+01	7.845998e+01
2.880000e-06	4.264165e-06	1.136408e-09	2.963080e+01	7.864840e+01
2.890000e-06	4.293833e-06	1.139955e-09	2.983696e+01	7.882845e+01
2.900000e-06	4.323236e-06	1.144519e-09	3.004127e+01	7.900050e+01
