# Temperatura_=_13.14
# Concentracion g/m^3_=_1620.0
# C_Vs_to_Am_M_A/Vsm_=_65563218390.804596
# pendiente_HvsI_1/m_=_3716.3
# ordenada_HvsI_A/m_=_1297.0
# frecuencia_Hz_=_135100.79333110194

Tiempo_(s)	Campo_(V.s)	Magnetizacion_(V.s)	Campo_(kA/m)	Magnetizacion_(A/m)
0.000000e+00	-5.523654e-06	-1.486880e-09	-3.836807e+01	-9.896803e+01
1.000000e-08	-5.523996e-06	-1.484603e-09	-3.837045e+01	-9.896979e+01
2.000000e-08	-5.523997e-06	-1.481700e-09	-3.837045e+01	-9.897066e+01
3.000000e-08	-5.523622e-06	-1.478343e-09	-3.836785e+01	-9.897028e+01
4.000000e-08	-5.522805e-06	-1.475330e-09	-3.836217e+01	-9.896827e+01
5.000000e-08	-5.521451e-06	-1.471996e-09	-3.835277e+01	-9.896426e+01
6.000000e-08	-5.519557e-06	-1.477071e-09	-3.833961e+01	-9.895784e+01
7.000000e-08	-5.517191e-06	-1.499975e-09	-3.832317e+01	-9.894860e+01
8.000000e-08	-5.514300e-06	-1.500369e-09	-3.830310e+01	-9.893613e+01
9.000000e-08	-5.510873e-06	-1.436840e-09	-3.827929e+01	-9.892000e+01
1.000000e-07	-5.507015e-06	-1.391184e-09	-3.825249e+01	-9.889981e+01
1.100000e-07	-5.502817e-06	-1.423960e-09	-3.822333e+01	-9.887514e+01
1.200000e-07	-5.498318e-06	-1.523612e-09	-3.819208e+01	-9.884562e+01
1.300000e-07	-5.493537e-06	-1.484387e-09	-3.815887e+01	-9.881086e+01
1.400000e-07	-5.488449e-06	-1.442574e-09	-3.812353e+01	-9.877051e+01
1.500000e-07	-5.482927e-06	-1.430174e-09	-3.808517e+01	-9.872424e+01
1.600000e-07	-5.477084e-06	-1.501542e-09	-3.804458e+01	-9.867174e+01
1.700000e-07	-5.470946e-06	-1.500720e-09	-3.800195e+01	-9.861274e+01
1.800000e-07	-5.464362e-06	-1.440369e-09	-3.795622e+01	-9.854701e+01
1.900000e-07	-5.457342e-06	-1.471861e-09	-3.790745e+01	-9.847434e+01
2.000000e-07	-5.449985e-06	-1.492190e-09	-3.785635e+01	-9.839457e+01
2.100000e-07	-5.442369e-06	-1.508099e-09	-3.780345e+01	-9.830756e+01
2.200000e-07	-5.434468e-06	-1.441598e-09	-3.774857e+01	-9.821322e+01
2.300000e-07	-5.426181e-06	-1.459622e-09	-3.769101e+01	-9.811153e+01
2.400000e-07	-5.417473e-06	-1.460220e-09	-3.763052e+01	-9.800246e+01
2.500000e-07	-5.408250e-06	-1.492936e-09	-3.756646e+01	-9.788605e+01
2.600000e-07	-5.398423e-06	-1.459740e-09	-3.749819e+01	-9.776238e+01
2.700000e-07	-5.388010e-06	-1.458343e-09	-3.742586e+01	-9.763156e+01
2.800000e-07	-5.376981e-06	-1.423041e-09	-3.734926e+01	-9.749375e+01
2.900000e-07	-5.365495e-06	-1.433315e-09	-3.726947e+01	-9.734912e+01
3.000000e-07	-5.353640e-06	-1.423661e-09	-3.718713e+01	-9.719789e+01
3.100000e-07	-5.341368e-06	-1.433887e-09	-3.710189e+01	-9.704032e+01
3.200000e-07	-5.328718e-06	-1.451302e-09	-3.701401e+01	-9.687667e+01
3.300000e-07	-5.315746e-06	-1.472732e-09	-3.692391e+01	-9.670726e+01
3.400000e-07	-5.302392e-06	-1.452512e-09	-3.683115e+01	-9.653239e+01
3.500000e-07	-5.288641e-06	-1.423827e-09	-3.673563e+01	-9.635242e+01
3.600000e-07	-5.274489e-06	-1.425839e-09	-3.663733e+01	-9.616768e+01
3.700000e-07	-5.259932e-06	-1.414927e-09	-3.653622e+01	-9.597855e+01
3.800000e-07	-5.244872e-06	-1.411022e-09	-3.643161e+01	-9.578538e+01
3.900000e-07	-5.229240e-06	-1.435512e-09	-3.632303e+01	-9.558855e+01
4.000000e-07	-5.213175e-06	-1.451264e-09	-3.621144e+01	-9.538842e+01
4.100000e-07	-5.196726e-06	-1.400192e-09	-3.609718e+01	-9.518536e+01
4.200000e-07	-5.179912e-06	-1.410325e-09	-3.598039e+01	-9.497971e+01
4.300000e-07	-5.162733e-06	-1.434271e-09	-3.586106e+01	-9.477182e+01
4.400000e-07	-5.145275e-06	-1.412234e-09	-3.573980e+01	-9.456202e+01
4.500000e-07	-5.127473e-06	-1.359440e-09	-3.561614e+01	-9.435061e+01
4.600000e-07	-5.109148e-06	-1.410398e-09	-3.548885e+01	-9.413787e+01
4.700000e-07	-5.090412e-06	-1.404877e-09	-3.535871e+01	-9.392406e+01
4.800000e-07	-5.071322e-06	-1.367959e-09	-3.522611e+01	-9.370943e+01
4.900000e-07	-5.051895e-06	-1.367797e-09	-3.509116e+01	-9.349417e+01
5.000000e-07	-5.032231e-06	-1.409451e-09	-3.495458e+01	-9.327848e+01
5.100000e-07	-5.012378e-06	-1.363063e-09	-3.481667e+01	-9.306250e+01
5.200000e-07	-4.992301e-06	-1.367750e-09	-3.467722e+01	-9.284635e+01
5.300000e-07	-4.971880e-06	-1.397745e-09	-3.453537e+01	-9.263011e+01
5.400000e-07	-4.951110e-06	-1.381272e-09	-3.439110e+01	-9.241386e+01
5.500000e-07	-4.929916e-06	-1.331806e-09	-3.424388e+01	-9.219761e+01
5.600000e-07	-4.908315e-06	-1.361685e-09	-3.409384e+01	-9.198137e+01
5.700000e-07	-4.886440e-06	-1.358835e-09	-3.394189e+01	-9.176511e+01
5.800000e-07	-4.864229e-06	-1.328814e-09	-3.378761e+01	-9.154878e+01
5.900000e-07	-4.841628e-06	-1.340895e-09	-3.363062e+01	-9.133229e+01
6.000000e-07	-4.818736e-06	-1.370391e-09	-3.347161e+01	-9.111554e+01
6.100000e-07	-4.795515e-06	-1.342653e-09	-3.331031e+01	-9.089840e+01
6.200000e-07	-4.772022e-06	-1.331414e-09	-3.314713e+01	-9.068074e+01
6.300000e-07	-4.748310e-06	-1.345839e-09	-3.298242e+01	-9.046239e+01
6.400000e-07	-4.724308e-06	-1.331618e-09	-3.281570e+01	-9.024318e+01
6.500000e-07	-4.699989e-06	-1.317321e-09	-3.264678e+01	-9.002293e+01
6.600000e-07	-4.675324e-06	-1.327425e-09	-3.247545e+01	-8.980144e+01
6.700000e-07	-4.650207e-06	-1.332442e-09	-3.230098e+01	-8.957852e+01
6.800000e-07	-4.624535e-06	-1.316427e-09	-3.212266e+01	-8.935395e+01
6.900000e-07	-4.598320e-06	-1.324177e-09	-3.194057e+01	-8.912756e+01
7.000000e-07	-4.571625e-06	-1.326615e-09	-3.175514e+01	-8.889912e+01
7.100000e-07	-4.544575e-06	-1.318271e-09	-3.156725e+01	-8.866844e+01
7.200000e-07	-4.517255e-06	-1.301413e-09	-3.137748e+01	-8.843535e+01
7.300000e-07	-4.489705e-06	-1.308233e-09	-3.118611e+01	-8.819964e+01
7.400000e-07	-4.461960e-06	-1.301649e-09	-3.099339e+01	-8.796115e+01
7.500000e-07	-4.434052e-06	-1.299633e-09	-3.079954e+01	-8.771973e+01
7.600000e-07	-4.405884e-06	-1.293011e-09	-3.060388e+01	-8.747522e+01
7.700000e-07	-4.377364e-06	-1.294979e-09	-3.040578e+01	-8.722748e+01
7.800000e-07	-4.348533e-06	-1.280420e-09	-3.020551e+01	-8.697641e+01
7.900000e-07	-4.319366e-06	-1.278746e-09	-3.000292e+01	-8.672189e+01
8.000000e-07	-4.289820e-06	-1.274005e-09	-2.979769e+01	-8.646383e+01
8.100000e-07	-4.260023e-06	-1.273123e-09	-2.959071e+01	-8.620215e+01
8.200000e-07	-4.230005e-06	-1.265479e-09	-2.938220e+01	-8.593681e+01
8.300000e-07	-4.199674e-06	-1.271135e-09	-2.917152e+01	-8.566774e+01
8.400000e-07	-4.168964e-06	-1.263537e-09	-2.895820e+01	-8.539492e+01
8.500000e-07	-4.137946e-06	-1.256581e-09	-2.874275e+01	-8.511833e+01
8.600000e-07	-4.106760e-06	-1.250552e-09	-2.852612e+01	-8.483794e+01
8.700000e-07	-4.075342e-06	-1.247379e-09	-2.830789e+01	-8.455376e+01
8.800000e-07	-4.043651e-06	-1.236356e-09	-2.808776e+01	-8.426580e+01
8.900000e-07	-4.011835e-06	-1.232343e-09	-2.786676e+01	-8.397407e+01
9.000000e-07	-3.979847e-06	-1.228029e-09	-2.764457e+01	-8.367857e+01
9.100000e-07	-3.947544e-06	-1.223935e-09	-2.742019e+01	-8.337934e+01
9.200000e-07	-3.914912e-06	-1.223895e-09	-2.719352e+01	-8.307639e+01
9.300000e-07	-3.881926e-06	-1.221398e-09	-2.696439e+01	-8.276973e+01
9.400000e-07	-3.848466e-06	-1.213629e-09	-2.673198e+01	-8.245939e+01
9.500000e-07	-3.814509e-06	-1.205586e-09	-2.649611e+01	-8.214538e+01
9.600000e-07	-3.780158e-06	-1.202418e-09	-2.625750e+01	-8.182769e+01
9.700000e-07	-3.745424e-06	-1.191445e-09	-2.601623e+01	-8.150633e+01
9.800000e-07	-3.710338e-06	-1.181886e-09	-2.577252e+01	-8.118129e+01
9.900000e-07	-3.674988e-06	-1.177290e-09	-2.552698e+01	-8.085254e+01
1.000000e-06	-3.639426e-06	-1.177411e-09	-2.527996e+01	-8.052006e+01
1.010000e-06	-3.603718e-06	-1.169831e-09	-2.503193e+01	-8.018380e+01
1.020000e-06	-3.567845e-06	-1.169303e-09	-2.478274e+01	-7.984372e+01
1.030000e-06	-3.531803e-06	-1.164780e-09	-2.453239e+01	-7.949973e+01
1.040000e-06	-3.495657e-06	-1.158006e-09	-2.428132e+01	-7.915178e+01
1.050000e-06	-3.459320e-06	-1.146006e-09	-2.402892e+01	-7.879977e+01
1.060000e-06	-3.422653e-06	-1.140440e-09	-2.377422e+01	-7.844360e+01
1.070000e-06	-3.385652e-06	-1.128203e-09	-2.351721e+01	-7.808317e+01
1.080000e-06	-3.348412e-06	-1.123048e-09	-2.325853e+01	-7.771835e+01
1.090000e-06	-3.310930e-06	-1.122451e-09	-2.299818e+01	-7.734902e+01
1.100000e-06	-3.273217e-06	-1.123108e-09	-2.273622e+01	-7.697504e+01
1.110000e-06	-3.235291e-06	-1.114616e-09	-2.247278e+01	-7.659629e+01
1.120000e-06	-3.197092e-06	-1.111089e-09	-2.220745e+01	-7.621263e+01
1.130000e-06	-3.158694e-06	-1.106122e-09	-2.194073e+01	-7.582390e+01
1.140000e-06	-3.120163e-06	-1.097727e-09	-2.167308e+01	-7.542997e+01
1.150000e-06	-3.081391e-06	-1.086834e-09	-2.140377e+01	-7.503070e+01
1.160000e-06	-3.042353e-06	-1.080313e-09	-2.113261e+01	-7.462595e+01
1.170000e-06	-3.003116e-06	-1.070719e-09	-2.086006e+01	-7.421561e+01
1.180000e-06	-2.963735e-06	-1.062693e-09	-2.058652e+01	-7.379953e+01
1.190000e-06	-2.924227e-06	-1.059739e-09	-2.031209e+01	-7.337762e+01
1.200000e-06	-2.884547e-06	-1.056169e-09	-2.003646e+01	-7.294977e+01
1.210000e-06	-2.844719e-06	-1.049031e-09	-1.975982e+01	-7.251590e+01
1.220000e-06	-2.804776e-06	-1.042567e-09	-1.948236e+01	-7.207592e+01
1.230000e-06	-2.764694e-06	-1.036537e-09	-1.920395e+01	-7.162977e+01
1.240000e-06	-2.724484e-06	-1.026662e-09	-1.892464e+01	-7.117741e+01
1.250000e-06	-2.684106e-06	-1.018613e-09	-1.864417e+01	-7.071880e+01
1.260000e-06	-2.643470e-06	-1.012778e-09	-1.836191e+01	-7.025393e+01
1.270000e-06	-2.602562e-06	-1.008027e-09	-1.807776e+01	-6.978279e+01
1.280000e-06	-2.561342e-06	-1.000691e-09	-1.779144e+01	-6.930538e+01
1.290000e-06	-2.519729e-06	-9.956848e-10	-1.750239e+01	-6.882174e+01
1.300000e-06	-2.477790e-06	-9.874500e-10	-1.721108e+01	-6.833190e+01
1.310000e-06	-2.435563e-06	-9.752506e-10	-1.691776e+01	-6.783589e+01
1.320000e-06	-2.392973e-06	-9.643060e-10	-1.662192e+01	-6.733377e+01
1.330000e-06	-2.350177e-06	-9.587732e-10	-1.632466e+01	-6.682558e+01
1.340000e-06	-2.307219e-06	-9.514862e-10	-1.602627e+01	-6.631139e+01
1.350000e-06	-2.263982e-06	-9.452613e-10	-1.572593e+01	-6.579123e+01
1.360000e-06	-2.220609e-06	-9.369329e-10	-1.542466e+01	-6.526517e+01
1.370000e-06	-2.177142e-06	-9.276461e-10	-1.512273e+01	-6.473324e+01
1.380000e-06	-2.133490e-06	-9.153115e-10	-1.481952e+01	-6.419546e+01
1.390000e-06	-2.089738e-06	-9.054654e-10	-1.451561e+01	-6.365184e+01
1.400000e-06	-2.045958e-06	-8.965991e-10	-1.421150e+01	-6.310237e+01
1.410000e-06	-2.002141e-06	-8.910555e-10	-1.390715e+01	-6.254701e+01
1.420000e-06	-1.958256e-06	-8.859607e-10	-1.360232e+01	-6.198569e+01
1.430000e-06	-1.914288e-06	-8.808507e-10	-1.329691e+01	-6.141831e+01
1.440000e-06	-1.870246e-06	-8.712364e-10	-1.299099e+01	-6.084473e+01
1.450000e-06	-1.826064e-06	-8.601282e-10	-1.268410e+01	-6.026476e+01
1.460000e-06	-1.781731e-06	-8.466782e-10	-1.237615e+01	-5.967818e+01
1.470000e-06	-1.737283e-06	-8.326298e-10	-1.206741e+01	-5.908471e+01
1.480000e-06	-1.692672e-06	-8.212128e-10	-1.175753e+01	-5.848403e+01
1.490000e-06	-1.648001e-06	-8.143162e-10	-1.144725e+01	-5.787574e+01
1.500000e-06	-1.603266e-06	-8.081027e-10	-1.113651e+01	-5.725941e+01
1.510000e-06	-1.558326e-06	-7.999802e-10	-1.082435e+01	-5.663454e+01
1.520000e-06	-1.513154e-06	-7.914018e-10	-1.051057e+01	-5.600057e+01
1.530000e-06	-1.467887e-06	-7.829145e-10	-1.019615e+01	-5.535687e+01
1.540000e-06	-1.422591e-06	-7.727414e-10	-9.881512e+00	-5.470277e+01
1.550000e-06	-1.377155e-06	-7.616566e-10	-9.565910e+00	-5.403753e+01
1.560000e-06	-1.331641e-06	-7.504246e-10	-9.249763e+00	-5.336033e+01
1.570000e-06	-1.286079e-06	-7.381155e-10	-8.933284e+00	-5.267033e+01
1.580000e-06	-1.240459e-06	-7.255160e-10	-8.616397e+00	-5.196661e+01
1.590000e-06	-1.194763e-06	-7.123009e-10	-8.298992e+00	-5.124821e+01
1.600000e-06	-1.148988e-06	-7.024244e-10	-7.981027e+00	-5.051412e+01
1.610000e-06	-1.103042e-06	-6.922504e-10	-7.661881e+00	-4.976329e+01
1.620000e-06	-1.056945e-06	-6.805662e-10	-7.341686e+00	-4.899461e+01
1.630000e-06	-1.010816e-06	-6.685242e-10	-7.021267e+00	-4.820699e+01
1.640000e-06	-9.646105e-07	-6.557442e-10	-6.700319e+00	-4.739927e+01
1.650000e-06	-9.183461e-07	-6.395175e-10	-6.378960e+00	-4.657029e+01
1.660000e-06	-8.720443e-07	-6.209806e-10	-6.057341e+00	-4.571887e+01
1.670000e-06	-8.256801e-07	-6.025361e-10	-5.735288e+00	-4.484386e+01
1.680000e-06	-7.792687e-07	-5.869232e-10	-5.412908e+00	-4.394409e+01
1.690000e-06	-7.328125e-07	-5.715927e-10	-5.090218e+00	-4.301841e+01
1.700000e-06	-6.862615e-07	-5.587186e-10	-4.766868e+00	-4.206569e+01
1.710000e-06	-6.396760e-07	-5.443252e-10	-4.443278e+00	-4.108487e+01
1.720000e-06	-5.930553e-07	-5.310366e-10	-4.119445e+00	-4.007489e+01
1.730000e-06	-5.463732e-07	-5.166703e-10	-3.795184e+00	-3.903477e+01
1.740000e-06	-4.996725e-07	-4.975020e-10	-3.470795e+00	-3.796359e+01
1.750000e-06	-4.530067e-07	-4.772080e-10	-3.146647e+00	-3.686051e+01
1.760000e-06	-4.062642e-07	-4.552076e-10	-2.821968e+00	-3.572475e+01
1.770000e-06	-3.594233e-07	-4.355619e-10	-2.496604e+00	-3.455565e+01
1.780000e-06	-3.125384e-07	-4.216755e-10	-2.170935e+00	-3.335263e+01
1.790000e-06	-2.656422e-07	-4.098561e-10	-1.845188e+00	-3.211522e+01
1.800000e-06	-2.187939e-07	-3.947632e-10	-1.519773e+00	-3.084307e+01
1.810000e-06	-1.718954e-07	-3.752025e-10	-1.194009e+00	-2.953595e+01
1.820000e-06	-1.250210e-07	-3.539762e-10	-8.684130e-01	-2.819376e+01
1.830000e-06	-7.818514e-08	-3.317231e-10	-5.430849e-01	-2.681653e+01
1.840000e-06	-3.130404e-08	-3.127189e-10	-2.174422e-01	-2.540442e+01
1.850000e-06	1.556528e-08	-2.950821e-10	1.081186e-01	-2.395775e+01
1.860000e-06	6.241002e-08	-2.769511e-10	4.335087e-01	-2.247697e+01
1.870000e-06	1.092968e-07	-2.569380e-10	7.591906e-01	-2.096266e+01
1.880000e-06	1.562505e-07	-2.344815e-10	1.085338e+00	-1.941558e+01
1.890000e-06	2.032040e-07	-2.134941e-10	1.411483e+00	-1.783660e+01
1.900000e-06	2.500405e-07	-1.928064e-10	1.736816e+00	-1.622676e+01
1.910000e-06	2.968799e-07	-1.708926e-10	2.062169e+00	-1.458723e+01
1.920000e-06	3.437148e-07	-1.485060e-10	2.387491e+00	-1.291930e+01
1.930000e-06	3.903850e-07	-1.275608e-10	2.711669e+00	-1.122442e+01
1.940000e-06	4.369749e-07	-1.078520e-10	3.035288e+00	-9.504160e+00
1.950000e-06	4.835731e-07	-8.534753e-11	3.358966e+00	-7.760196e+00
1.960000e-06	5.302046e-07	-5.941097e-11	3.682874e+00	-5.994330e+00
1.970000e-06	5.767573e-07	-3.215292e-11	4.006237e+00	-4.208467e+00
1.980000e-06	6.232472e-07	-5.501518e-12	4.329161e+00	-2.404603e+00
1.990000e-06	6.697328e-07	1.911152e-11	4.652057e+00	-5.848247e-01
2.000000e-06	7.161407e-07	4.612267e-11	4.974413e+00	1.248708e+00
2.010000e-06	7.624826e-07	7.425408e-11	5.296310e+00	3.093771e+00
2.020000e-06	8.088024e-07	1.018867e-10	5.618054e+00	4.948086e+00
2.030000e-06	8.551201e-07	1.280671e-10	5.939783e+00	6.809334e+00
2.040000e-06	9.013752e-07	1.524572e-10	6.261077e+00	8.675165e+00
2.050000e-06	9.475539e-07	1.750420e-10	6.581841e+00	1.054322e+01
2.060000e-06	9.936338e-07	1.996662e-10	6.901918e+00	1.241111e+01
2.070000e-06	1.039594e-06	2.274173e-10	7.221161e+00	1.427650e+01
2.080000e-06	1.085525e-06	2.559003e-10	7.540209e+00	1.613703e+01
2.090000e-06	1.131391e-06	2.842981e-10	7.858796e+00	1.799038e+01
2.100000e-06	1.177155e-06	3.114274e-10	8.176680e+00	1.983431e+01
2.110000e-06	1.222880e-06	3.360651e-10	8.494296e+00	2.166659e+01
2.120000e-06	1.268521e-06	3.602424e-10	8.811323e+00	2.348507e+01
2.130000e-06	1.314055e-06	3.842307e-10	9.127609e+00	2.528769e+01
2.140000e-06	1.359441e-06	4.061377e-10	9.442865e+00	2.707245e+01
2.150000e-06	1.404791e-06	4.270192e-10	9.757875e+00	2.883748e+01
2.160000e-06	1.450091e-06	4.490177e-10	1.007253e+01	3.058098e+01
2.170000e-06	1.495265e-06	4.743114e-10	1.038632e+01	3.230127e+01
2.180000e-06	1.540308e-06	5.002456e-10	1.069919e+01	3.399679e+01
2.190000e-06	1.585191e-06	5.258002e-10	1.101096e+01	3.566609e+01
2.200000e-06	1.630012e-06	5.487545e-10	1.132229e+01	3.730787e+01
2.210000e-06	1.674680e-06	5.685343e-10	1.163256e+01	3.892093e+01
2.220000e-06	1.719237e-06	5.856090e-10	1.194206e+01	4.050423e+01
2.230000e-06	1.763707e-06	6.020375e-10	1.225096e+01	4.205684e+01
2.240000e-06	1.807993e-06	6.190498e-10	1.255857e+01	4.357797e+01
2.250000e-06	1.852131e-06	6.376066e-10	1.286516e+01	4.506697e+01
2.260000e-06	1.896154e-06	6.594766e-10	1.317095e+01	4.652331e+01
2.270000e-06	1.940088e-06	6.849008e-10	1.347612e+01	4.794661e+01
2.280000e-06	1.983965e-06	7.083223e-10	1.378090e+01	4.933660e+01
2.290000e-06	2.027794e-06	7.282708e-10	1.408534e+01	5.069313e+01
2.300000e-06	2.071576e-06	7.441830e-10	1.438946e+01	5.201617e+01
2.310000e-06	2.115278e-06	7.563232e-10	1.469301e+01	5.330580e+01
2.320000e-06	2.158932e-06	7.687685e-10	1.499624e+01	5.456223e+01
2.330000e-06	2.202523e-06	7.829987e-10	1.529903e+01	5.578572e+01
2.340000e-06	2.245955e-06	7.992023e-10	1.560072e+01	5.697667e+01
2.350000e-06	2.289179e-06	8.164458e-10	1.590095e+01	5.813553e+01
2.360000e-06	2.332156e-06	8.336713e-10	1.619948e+01	5.926284e+01
2.370000e-06	2.374924e-06	8.493059e-10	1.649655e+01	6.035920e+01
2.380000e-06	2.417440e-06	8.644178e-10	1.679188e+01	6.142529e+01
2.390000e-06	2.459705e-06	8.798655e-10	1.708545e+01	6.246181e+01
2.400000e-06	2.501652e-06	8.949440e-10	1.737682e+01	6.346951e+01
2.410000e-06	2.543181e-06	9.098916e-10	1.766529e+01	6.444920e+01
2.420000e-06	2.584320e-06	9.247945e-10	1.795105e+01	6.540167e+01
2.430000e-06	2.625151e-06	9.400760e-10	1.823466e+01	6.632777e+01
2.440000e-06	2.665779e-06	9.551640e-10	1.851687e+01	6.722834e+01
2.450000e-06	2.706268e-06	9.660002e-10	1.879811e+01	6.810421e+01
2.460000e-06	2.746632e-06	9.769377e-10	1.907848e+01	6.895623e+01
2.470000e-06	2.786788e-06	9.867189e-10	1.935742e+01	6.978522e+01
2.480000e-06	2.826725e-06	9.970852e-10	1.963482e+01	7.059201e+01
2.490000e-06	2.866507e-06	1.010287e-09	1.991115e+01	7.137737e+01
2.500000e-06	2.906199e-06	1.025877e-09	2.018686e+01	7.214207e+01
2.510000e-06	2.945793e-06	1.038602e-09	2.046189e+01	7.288685e+01
2.520000e-06	2.985259e-06	1.046932e-09	2.073602e+01	7.361240e+01
2.530000e-06	3.024517e-06	1.056248e-09	2.100872e+01	7.431939e+01
2.540000e-06	3.063548e-06	1.063991e-09	2.127983e+01	7.500844e+01
2.550000e-06	3.102369e-06	1.069719e-09	2.154949e+01	7.568014e+01
2.560000e-06	3.140899e-06	1.075388e-09	2.181712e+01	7.633502e+01
2.570000e-06	3.179202e-06	1.083294e-09	2.208318e+01	7.697361e+01
2.580000e-06	3.217376e-06	1.092514e-09	2.234834e+01	7.759635e+01
2.590000e-06	3.255366e-06	1.102908e-09	2.261222e+01	7.820369e+01
2.600000e-06	3.293091e-06	1.114542e-09	2.287427e+01	7.879599e+01
2.610000e-06	3.330547e-06	1.123396e-09	2.313444e+01	7.937363e+01
2.620000e-06	3.367811e-06	1.130110e-09	2.339328e+01	7.993692e+01
2.630000e-06	3.404851e-06	1.135516e-09	2.365057e+01	8.048614e+01
2.640000e-06	3.441568e-06	1.140203e-09	2.390561e+01	8.102157e+01
2.650000e-06	3.478018e-06	1.144999e-09	2.415880e+01	8.154344e+01
2.660000e-06	3.514240e-06	1.149628e-09	2.441040e+01	8.205198e+01
2.670000e-06	3.550257e-06	1.157015e-09	2.466058e+01	8.254739e+01
2.680000e-06	3.586090e-06	1.164689e-09	2.490948e+01	8.302987e+01
2.690000e-06	3.621834e-06	1.173778e-09	2.515776e+01	8.349959e+01
2.700000e-06	3.657496e-06	1.184668e-09	2.540548e+01	8.395674e+01
2.710000e-06	3.692957e-06	1.192870e-09	2.565179e+01	8.440150e+01
2.720000e-06	3.728185e-06	1.197986e-09	2.589649e+01	8.483404e+01
2.730000e-06	3.762992e-06	1.202257e-09	2.613827e+01	8.525456e+01
2.740000e-06	3.797406e-06	1.205573e-09	2.637731e+01	8.566325e+01
2.750000e-06	3.831490e-06	1.210340e-09	2.661406e+01	8.606031e+01
2.760000e-06	3.865179e-06	1.218774e-09	2.684807e+01	8.644597e+01
2.770000e-06	3.898401e-06	1.228331e-09	2.707884e+01	8.682046e+01
2.780000e-06	3.931157e-06	1.236891e-09	2.730636e+01	8.718403e+01
2.790000e-06	3.963559e-06	1.245215e-09	2.753143e+01	8.753695e+01
2.800000e-06	3.995665e-06	1.251953e-09	2.775444e+01	8.787952e+01
2.810000e-06	4.027549e-06	1.256056e-09	2.797591e+01	8.821204e+01
2.820000e-06	4.059293e-06	1.257958e-09	2.819641e+01	8.853485e+01
2.830000e-06	4.090878e-06	1.261238e-09	2.841580e+01	8.884827e+01
2.840000e-06	4.122240e-06	1.265977e-09	2.863365e+01	8.915269e+01
2.850000e-06	4.153229e-06	1.270582e-09	2.884891e+01	8.944848e+01
2.860000e-06	4.183939e-06	1.277761e-09	2.906222e+01	8.973604e+01
2.870000e-06	4.214499e-06	1.286311e-09	2.927450e+01	9.001576e+01
2.880000e-06	4.244758e-06	1.294347e-09	2.948468e+01	9.028807e+01
2.890000e-06	4.274754e-06	1.302006e-09	2.969304e+01	9.055339e+01
2.900000e-06	4.304482e-06	1.308583e-09	2.989953e+01	9.081214e+01
