# Temperatura_=_8.83
# Concentracion g/m^3_=_1620.0
# C_Vs_to_Am_M_A/Vsm_=_65563218390.804596
# pendiente_HvsI_1/m_=_3716.3
# ordenada_HvsI_A/m_=_1297.0
# frecuencia_Hz_=_135103.8655468387

Tiempo_(s)	Campo_(V.s)	Magnetizacion_(V.s)	Campo_(kA/m)	Magnetizacion_(A/m)
0.000000e+00	-5.528056e-06	-1.394885e-09	-3.835756e+01	-9.399165e+01
1.000000e-08	-5.528306e-06	-1.394282e-09	-3.835929e+01	-9.398157e+01
2.000000e-08	-5.528326e-06	-1.393658e-09	-3.835943e+01	-9.397266e+01
3.000000e-08	-5.528055e-06	-1.392354e-09	-3.835755e+01	-9.396474e+01
4.000000e-08	-5.527446e-06	-1.390599e-09	-3.835332e+01	-9.395763e+01
5.000000e-08	-5.526375e-06	-1.387418e-09	-3.834589e+01	-9.395109e+01
6.000000e-08	-5.524709e-06	-1.383736e-09	-3.833433e+01	-9.394487e+01
7.000000e-08	-5.522433e-06	-1.382067e-09	-3.831854e+01	-9.393868e+01
8.000000e-08	-5.519513e-06	-1.372113e-09	-3.829828e+01	-9.393222e+01
9.000000e-08	-5.516029e-06	-1.371324e-09	-3.827410e+01	-9.392514e+01
1.000000e-07	-5.512140e-06	-1.405119e-09	-3.824712e+01	-9.391712e+01
1.100000e-07	-5.507848e-06	-1.425427e-09	-3.821734e+01	-9.390777e+01
1.200000e-07	-5.503282e-06	-1.384795e-09	-3.818566e+01	-9.389674e+01
1.300000e-07	-5.498551e-06	-1.320888e-09	-3.815283e+01	-9.388363e+01
1.400000e-07	-5.493519e-06	-1.337427e-09	-3.811791e+01	-9.386807e+01
1.500000e-07	-5.488044e-06	-1.403155e-09	-3.807992e+01	-9.384967e+01
1.600000e-07	-5.482141e-06	-1.385396e-09	-3.803897e+01	-9.382806e+01
1.700000e-07	-5.475971e-06	-1.353625e-09	-3.799615e+01	-9.380288e+01
1.800000e-07	-5.469461e-06	-1.364918e-09	-3.795098e+01	-9.377376e+01
1.900000e-07	-5.462402e-06	-1.459321e-09	-3.790200e+01	-9.374037e+01
2.000000e-07	-5.454873e-06	-1.439328e-09	-3.784976e+01	-9.370239e+01
2.100000e-07	-5.447193e-06	-1.381336e-09	-3.779647e+01	-9.365952e+01
2.200000e-07	-5.439286e-06	-1.352570e-09	-3.774161e+01	-9.361150e+01
2.300000e-07	-5.431067e-06	-1.411135e-09	-3.768458e+01	-9.355808e+01
2.400000e-07	-5.422601e-06	-1.424661e-09	-3.762583e+01	-9.349906e+01
2.500000e-07	-5.413613e-06	-1.408648e-09	-3.756347e+01	-9.343425e+01
2.600000e-07	-5.403803e-06	-1.402066e-09	-3.749540e+01	-9.336351e+01
2.700000e-07	-5.393328e-06	-1.411383e-09	-3.742272e+01	-9.328673e+01
2.800000e-07	-5.382334e-06	-1.394908e-09	-3.734643e+01	-9.320384e+01
2.900000e-07	-5.370859e-06	-1.369871e-09	-3.726681e+01	-9.311480e+01
3.000000e-07	-5.359025e-06	-1.387765e-09	-3.718470e+01	-9.301961e+01
3.100000e-07	-5.346844e-06	-1.397889e-09	-3.710018e+01	-9.291832e+01
3.200000e-07	-5.334273e-06	-1.410876e-09	-3.701295e+01	-9.281098e+01
3.300000e-07	-5.321248e-06	-1.392544e-09	-3.692258e+01	-9.269770e+01
3.400000e-07	-5.307814e-06	-1.405226e-09	-3.682936e+01	-9.257863e+01
3.500000e-07	-5.293995e-06	-1.396270e-09	-3.673347e+01	-9.245392e+01
3.600000e-07	-5.279748e-06	-1.394773e-09	-3.663462e+01	-9.232378e+01
3.700000e-07	-5.265054e-06	-1.366639e-09	-3.653266e+01	-9.218843e+01
3.800000e-07	-5.249939e-06	-1.382548e-09	-3.642778e+01	-9.204810e+01
3.900000e-07	-5.234264e-06	-1.384402e-09	-3.631902e+01	-9.190307e+01
4.000000e-07	-5.217993e-06	-1.376175e-09	-3.620612e+01	-9.175361e+01
4.100000e-07	-5.201324e-06	-1.359427e-09	-3.609046e+01	-9.160002e+01
4.200000e-07	-5.184354e-06	-1.387204e-09	-3.597271e+01	-9.144260e+01
4.300000e-07	-5.167022e-06	-1.374841e-09	-3.585244e+01	-9.128166e+01
4.400000e-07	-5.149409e-06	-1.352242e-09	-3.573024e+01	-9.111751e+01
4.500000e-07	-5.131534e-06	-1.365133e-09	-3.560621e+01	-9.095046e+01
4.600000e-07	-5.113144e-06	-1.391587e-09	-3.547860e+01	-9.078082e+01
4.700000e-07	-5.094300e-06	-1.352525e-09	-3.534785e+01	-9.060888e+01
4.800000e-07	-5.075129e-06	-1.335274e-09	-3.521483e+01	-9.043493e+01
4.900000e-07	-5.055618e-06	-1.361919e-09	-3.507945e+01	-9.025924e+01
5.000000e-07	-5.035888e-06	-1.363409e-09	-3.494255e+01	-9.008206e+01
5.100000e-07	-5.016010e-06	-1.338803e-09	-3.480462e+01	-8.990364e+01
5.200000e-07	-4.995899e-06	-1.353954e-09	-3.466507e+01	-8.972418e+01
5.300000e-07	-4.975397e-06	-1.358619e-09	-3.452282e+01	-8.954386e+01
5.400000e-07	-4.954448e-06	-1.329054e-09	-3.437746e+01	-8.936286e+01
5.500000e-07	-4.933164e-06	-1.328780e-09	-3.422977e+01	-8.918129e+01
5.600000e-07	-4.911660e-06	-1.341634e-09	-3.408057e+01	-8.899927e+01
5.700000e-07	-4.889855e-06	-1.316078e-09	-3.392926e+01	-8.881686e+01
5.800000e-07	-4.867709e-06	-1.299212e-09	-3.377560e+01	-8.863410e+01
5.900000e-07	-4.845154e-06	-1.327362e-09	-3.361910e+01	-8.845102e+01
6.000000e-07	-4.822231e-06	-1.327123e-09	-3.346004e+01	-8.826758e+01
6.100000e-07	-4.799007e-06	-1.306219e-09	-3.329890e+01	-8.808375e+01
6.200000e-07	-4.775518e-06	-1.306894e-09	-3.313592e+01	-8.789944e+01
6.300000e-07	-4.751781e-06	-1.315802e-09	-3.297121e+01	-8.771454e+01
6.400000e-07	-4.727773e-06	-1.293640e-09	-3.280463e+01	-8.752893e+01
6.500000e-07	-4.703463e-06	-1.293436e-09	-3.263595e+01	-8.734244e+01
6.600000e-07	-4.678729e-06	-1.303812e-09	-3.246432e+01	-8.715491e+01
6.700000e-07	-4.653619e-06	-1.303877e-09	-3.229010e+01	-8.696613e+01
6.800000e-07	-4.628121e-06	-1.292520e-09	-3.211317e+01	-8.677588e+01
6.900000e-07	-4.602028e-06	-1.301181e-09	-3.193212e+01	-8.658394e+01
7.000000e-07	-4.575344e-06	-1.295457e-09	-3.174697e+01	-8.639006e+01
7.100000e-07	-4.548230e-06	-1.282690e-09	-3.155883e+01	-8.619399e+01
7.200000e-07	-4.520763e-06	-1.271251e-09	-3.136825e+01	-8.599546e+01
7.300000e-07	-4.493032e-06	-1.272422e-09	-3.117583e+01	-8.579423e+01
7.400000e-07	-4.465102e-06	-1.266246e-09	-3.098203e+01	-8.559001e+01
7.500000e-07	-4.437044e-06	-1.267016e-09	-3.078735e+01	-8.538256e+01
7.600000e-07	-4.408841e-06	-1.267460e-09	-3.059165e+01	-8.517161e+01
7.700000e-07	-4.380317e-06	-1.263740e-09	-3.039373e+01	-8.495692e+01
7.800000e-07	-4.351381e-06	-1.251455e-09	-3.019295e+01	-8.473824e+01
7.900000e-07	-4.322102e-06	-1.244681e-09	-2.998980e+01	-8.451535e+01
8.000000e-07	-4.292510e-06	-1.239590e-09	-2.978446e+01	-8.428805e+01
8.100000e-07	-4.262662e-06	-1.235894e-09	-2.957736e+01	-8.405612e+01
8.200000e-07	-4.232536e-06	-1.232451e-09	-2.936833e+01	-8.381940e+01
8.300000e-07	-4.202051e-06	-1.230803e-09	-2.915680e+01	-8.357772e+01
8.400000e-07	-4.171305e-06	-1.228731e-09	-2.894346e+01	-8.333095e+01
8.500000e-07	-4.140261e-06	-1.225116e-09	-2.872806e+01	-8.307897e+01
8.600000e-07	-4.108957e-06	-1.221706e-09	-2.851084e+01	-8.282169e+01
8.700000e-07	-4.077498e-06	-1.213395e-09	-2.829256e+01	-8.255903e+01
8.800000e-07	-4.045830e-06	-1.205539e-09	-2.807282e+01	-8.229095e+01
8.900000e-07	-4.013996e-06	-1.197110e-09	-2.785194e+01	-8.201740e+01
9.000000e-07	-3.982019e-06	-1.192621e-09	-2.763006e+01	-8.173840e+01
9.100000e-07	-3.949835e-06	-1.186895e-09	-2.740675e+01	-8.145395e+01
9.200000e-07	-3.917331e-06	-1.184196e-09	-2.718121e+01	-8.116408e+01
9.300000e-07	-3.884437e-06	-1.178658e-09	-2.695296e+01	-8.086885e+01
9.400000e-07	-3.851082e-06	-1.177533e-09	-2.672152e+01	-8.056832e+01
9.500000e-07	-3.817146e-06	-1.174157e-09	-2.648605e+01	-8.026259e+01
9.600000e-07	-3.782747e-06	-1.169329e-09	-2.624737e+01	-7.995174e+01
9.700000e-07	-3.747963e-06	-1.157229e-09	-2.600601e+01	-7.963589e+01
9.800000e-07	-3.712885e-06	-1.148711e-09	-2.576262e+01	-7.931516e+01
9.900000e-07	-3.677533e-06	-1.140811e-09	-2.551732e+01	-7.898968e+01
1.000000e-06	-3.641884e-06	-1.135562e-09	-2.526996e+01	-7.865958e+01
1.010000e-06	-3.606110e-06	-1.131033e-09	-2.502174e+01	-7.832500e+01
1.020000e-06	-3.570223e-06	-1.131791e-09	-2.477273e+01	-7.798607e+01
1.030000e-06	-3.534191e-06	-1.129638e-09	-2.452271e+01	-7.764294e+01
1.040000e-06	-3.497987e-06	-1.124886e-09	-2.427150e+01	-7.729575e+01
1.050000e-06	-3.461588e-06	-1.115966e-09	-2.401894e+01	-7.694463e+01
1.060000e-06	-3.424875e-06	-1.108693e-09	-2.376420e+01	-7.658970e+01
1.070000e-06	-3.387775e-06	-1.100266e-09	-2.350678e+01	-7.623109e+01
1.080000e-06	-3.350378e-06	-1.095222e-09	-2.324729e+01	-7.586890e+01
1.090000e-06	-3.312776e-06	-1.090835e-09	-2.298638e+01	-7.550325e+01
1.100000e-06	-3.274988e-06	-1.085372e-09	-2.272418e+01	-7.513421e+01
1.110000e-06	-3.237059e-06	-1.081848e-09	-2.246100e+01	-7.476187e+01
1.120000e-06	-3.198954e-06	-1.080159e-09	-2.219660e+01	-7.438630e+01
1.130000e-06	-3.160594e-06	-1.077553e-09	-2.193043e+01	-7.400754e+01
1.140000e-06	-3.122003e-06	-1.070829e-09	-2.166266e+01	-7.362564e+01
1.150000e-06	-3.083115e-06	-1.063565e-09	-2.139283e+01	-7.324061e+01
1.160000e-06	-3.043998e-06	-1.054263e-09	-2.112141e+01	-7.285246e+01
1.170000e-06	-3.004771e-06	-1.045720e-09	-2.084922e+01	-7.246120e+01
1.180000e-06	-2.965368e-06	-1.039276e-09	-2.057581e+01	-7.206680e+01
1.190000e-06	-2.925794e-06	-1.037446e-09	-2.030122e+01	-7.166923e+01
1.200000e-06	-2.886136e-06	-1.034685e-09	-2.002605e+01	-7.126845e+01
1.210000e-06	-2.846354e-06	-1.029161e-09	-1.975001e+01	-7.086439e+01
1.220000e-06	-2.806349e-06	-1.019964e-09	-1.947243e+01	-7.045699e+01
1.230000e-06	-2.766138e-06	-1.012190e-09	-1.919342e+01	-7.004616e+01
1.240000e-06	-2.725806e-06	-1.002090e-09	-1.891356e+01	-6.963181e+01
1.250000e-06	-2.685336e-06	-9.941014e-10	-1.863275e+01	-6.921384e+01
1.260000e-06	-2.644659e-06	-9.908747e-10	-1.835051e+01	-6.879214e+01
1.270000e-06	-2.603650e-06	-9.890849e-10	-1.806596e+01	-6.836659e+01
1.280000e-06	-2.562298e-06	-9.861402e-10	-1.777903e+01	-6.793704e+01
1.290000e-06	-2.520787e-06	-9.823800e-10	-1.749100e+01	-6.750338e+01
1.300000e-06	-2.479129e-06	-9.726200e-10	-1.720195e+01	-6.706544e+01
1.310000e-06	-2.437052e-06	-9.595919e-10	-1.690999e+01	-6.662308e+01
1.320000e-06	-2.394614e-06	-9.467800e-10	-1.661552e+01	-6.617613e+01
1.330000e-06	-2.351973e-06	-9.359898e-10	-1.631965e+01	-6.572442e+01
1.340000e-06	-2.309112e-06	-9.272411e-10	-1.602225e+01	-6.526778e+01
1.350000e-06	-2.266051e-06	-9.224953e-10	-1.572346e+01	-6.480602e+01
1.360000e-06	-2.222748e-06	-9.196807e-10	-1.542299e+01	-6.433893e+01
1.370000e-06	-2.179260e-06	-9.143808e-10	-1.512125e+01	-6.386632e+01
1.380000e-06	-2.135616e-06	-9.061669e-10	-1.481841e+01	-6.338796e+01
1.390000e-06	-2.091842e-06	-8.970065e-10	-1.451468e+01	-6.290362e+01
1.400000e-06	-2.048039e-06	-8.847533e-10	-1.421074e+01	-6.241305e+01
1.410000e-06	-2.004225e-06	-8.719338e-10	-1.390673e+01	-6.191599e+01
1.420000e-06	-1.960346e-06	-8.614059e-10	-1.360227e+01	-6.141217e+01
1.430000e-06	-1.916315e-06	-8.550648e-10	-1.329675e+01	-6.090128e+01
1.440000e-06	-1.872176e-06	-8.518715e-10	-1.299048e+01	-6.038301e+01
1.450000e-06	-1.827964e-06	-8.485694e-10	-1.268370e+01	-5.985701e+01
1.460000e-06	-1.783611e-06	-8.420798e-10	-1.237595e+01	-5.932291e+01
1.470000e-06	-1.739111e-06	-8.289172e-10	-1.206718e+01	-5.878033e+01
1.480000e-06	-1.694473e-06	-8.133062e-10	-1.175745e+01	-5.822885e+01
1.490000e-06	-1.649736e-06	-7.998266e-10	-1.144703e+01	-5.766801e+01
1.500000e-06	-1.604939e-06	-7.887575e-10	-1.113620e+01	-5.709733e+01
1.510000e-06	-1.559910e-06	-7.793916e-10	-1.082376e+01	-5.651630e+01
1.520000e-06	-1.514699e-06	-7.733847e-10	-1.051005e+01	-5.592439e+01
1.530000e-06	-1.469444e-06	-7.686527e-10	-1.019604e+01	-5.532099e+01
1.540000e-06	-1.424090e-06	-7.628858e-10	-9.881339e+00	-5.470551e+01
1.550000e-06	-1.378691e-06	-7.537085e-10	-9.566330e+00	-5.407728e+01
1.560000e-06	-1.333173e-06	-7.422496e-10	-9.250495e+00	-5.343563e+01
1.570000e-06	-1.287556e-06	-7.274834e-10	-8.933973e+00	-5.277984e+01
1.580000e-06	-1.241833e-06	-7.122023e-10	-8.616714e+00	-5.210915e+01
1.590000e-06	-1.195921e-06	-7.004990e-10	-8.298146e+00	-5.142279e+01
1.600000e-06	-1.149924e-06	-6.938263e-10	-7.978986e+00	-5.071993e+01
1.610000e-06	-1.103959e-06	-6.853716e-10	-7.660049e+00	-4.999974e+01
1.620000e-06	-1.057951e-06	-6.753650e-10	-7.340808e+00	-4.926135e+01
1.630000e-06	-1.011799e-06	-6.667113e-10	-7.020579e+00	-4.850386e+01
1.640000e-06	-9.655129e-07	-6.560999e-10	-6.699410e+00	-4.772638e+01
1.650000e-06	-9.191964e-07	-6.413596e-10	-6.378034e+00	-4.692799e+01
1.660000e-06	-8.728849e-07	-6.264208e-10	-6.056691e+00	-4.610775e+01
1.670000e-06	-8.264907e-07	-6.118223e-10	-5.734776e+00	-4.526474e+01
1.680000e-06	-7.800741e-07	-5.954113e-10	-5.412705e+00	-4.439801e+01
1.690000e-06	-7.336001e-07	-5.795996e-10	-5.090236e+00	-4.350665e+01
1.700000e-06	-6.870449e-07	-5.643816e-10	-4.767203e+00	-4.258975e+01
1.710000e-06	-6.404878e-07	-5.482400e-10	-4.444156e+00	-4.164641e+01
1.720000e-06	-5.939171e-07	-5.339156e-10	-4.121016e+00	-4.067577e+01
1.730000e-06	-5.472789e-07	-5.217290e-10	-3.797407e+00	-3.967700e+01
1.740000e-06	-5.005583e-07	-5.079795e-10	-3.473227e+00	-3.864932e+01
1.750000e-06	-4.538107e-07	-4.906878e-10	-3.148859e+00	-3.759199e+01
1.760000e-06	-4.070192e-07	-4.710885e-10	-2.824187e+00	-3.650431e+01
1.770000e-06	-3.601599e-07	-4.521205e-10	-2.499044e+00	-3.538568e+01
1.780000e-06	-3.132640e-07	-4.338599e-10	-2.173647e+00	-3.423554e+01
1.790000e-06	-2.662776e-07	-4.186538e-10	-1.847622e+00	-3.305341e+01
1.800000e-06	-2.193039e-07	-4.063746e-10	-1.521685e+00	-3.183892e+01
1.810000e-06	-1.724192e-07	-3.927829e-10	-1.196366e+00	-3.059176e+01
1.820000e-06	-1.255299e-07	-3.761003e-10	-8.710153e-01	-2.931174e+01
1.830000e-06	-7.866632e-08	-3.588883e-10	-5.458425e-01	-2.799875e+01
1.840000e-06	-3.182233e-08	-3.411341e-10	-2.208058e-01	-2.665282e+01
1.850000e-06	1.503349e-08	-3.227504e-10	1.043130e-01	-2.527405e+01
1.860000e-06	6.182388e-08	-3.027689e-10	4.289778e-01	-2.386270e+01
1.870000e-06	1.085581e-07	-2.812955e-10	7.532527e-01	-2.241913e+01
1.880000e-06	1.553510e-07	-2.598119e-10	1.077935e+00	-2.094382e+01
1.890000e-06	2.021952e-07	-2.400224e-10	1.402973e+00	-1.943738e+01
1.900000e-06	2.490604e-07	-2.204072e-10	1.728157e+00	-1.790054e+01
1.910000e-06	2.959088e-07	-1.985880e-10	2.053224e+00	-1.633418e+01
1.920000e-06	3.427435e-07	-1.754021e-10	2.378196e+00	-1.473928e+01
1.930000e-06	3.896189e-07	-1.528671e-10	2.703451e+00	-1.311696e+01
1.940000e-06	4.364792e-07	-1.294367e-10	3.028601e+00	-1.146845e+01
1.950000e-06	4.832339e-07	-1.045642e-10	3.353018e+00	-9.795114e+00
1.960000e-06	5.298491e-07	-8.061668e-11	3.676467e+00	-8.098422e+00
1.970000e-06	5.764433e-07	-5.852683e-11	3.999770e+00	-6.379960e+00
1.980000e-06	6.229967e-07	-3.593270e-11	4.322791e+00	-4.641418e+00
1.990000e-06	6.694865e-07	-1.333000e-11	4.645370e+00	-2.884585e+00
2.000000e-06	7.159599e-07	1.142752e-11	4.967835e+00	-1.111341e+00
2.010000e-06	7.624012e-07	4.045065e-11	5.290078e+00	6.763475e-01
2.020000e-06	8.088169e-07	7.061213e-11	5.612143e+00	2.476442e+00
2.030000e-06	8.551428e-07	9.823591e-11	5.933585e+00	4.286834e+00
2.040000e-06	9.013329e-07	1.230554e-10	6.254084e+00	6.105363e+00
2.050000e-06	9.474027e-07	1.460203e-10	6.573749e+00	7.929818e+00
2.060000e-06	9.934330e-07	1.679752e-10	6.893139e+00	9.757954e+00
2.070000e-06	1.039474e-06	1.914478e-10	7.212601e+00	1.158750e+01
2.080000e-06	1.085453e-06	2.170877e-10	7.531641e+00	1.341618e+01
2.090000e-06	1.131283e-06	2.470504e-10	7.849639e+00	1.524169e+01
2.100000e-06	1.177016e-06	2.783625e-10	8.166969e+00	1.706178e+01
2.110000e-06	1.222689e-06	3.083416e-10	8.483877e+00	1.887417e+01
2.120000e-06	1.268287e-06	3.348493e-10	8.800273e+00	2.067664e+01
2.130000e-06	1.313899e-06	3.593839e-10	9.116757e+00	2.246701e+01
2.140000e-06	1.359470e-06	3.798050e-10	9.432966e+00	2.424315e+01
2.150000e-06	1.404938e-06	3.975357e-10	9.748455e+00	2.600300e+01
2.160000e-06	1.450293e-06	4.196673e-10	1.006316e+01	2.774456e+01
2.170000e-06	1.495526e-06	4.446373e-10	1.037702e+01	2.946592e+01
2.180000e-06	1.540624e-06	4.699414e-10	1.068994e+01	3.116527e+01
2.190000e-06	1.585595e-06	4.941022e-10	1.100198e+01	3.284089e+01
2.200000e-06	1.630420e-06	5.199252e-10	1.131300e+01	3.449116e+01
2.210000e-06	1.675032e-06	5.421641e-10	1.162256e+01	3.611460e+01
2.220000e-06	1.719569e-06	5.587750e-10	1.193158e+01	3.770982e+01
2.230000e-06	1.764032e-06	5.742842e-10	1.224010e+01	3.927557e+01
2.240000e-06	1.808311e-06	5.912418e-10	1.254734e+01	4.081073e+01
2.250000e-06	1.852394e-06	6.104137e-10	1.285322e+01	4.231431e+01
2.260000e-06	1.896389e-06	6.314011e-10	1.315848e+01	4.378545e+01
2.270000e-06	1.940363e-06	6.554425e-10	1.346361e+01	4.522342e+01
2.280000e-06	1.984246e-06	6.776833e-10	1.376810e+01	4.662765e+01
2.290000e-06	2.028053e-06	6.955975e-10	1.407206e+01	4.799766e+01
2.300000e-06	2.071835e-06	7.108694e-10	1.437585e+01	4.933315e+01
2.310000e-06	2.115543e-06	7.241116e-10	1.467913e+01	5.063392e+01
2.320000e-06	2.159153e-06	7.393600e-10	1.498173e+01	5.189991e+01
2.330000e-06	2.202699e-06	7.561983e-10	1.528388e+01	5.313119e+01
2.340000e-06	2.246179e-06	7.729172e-10	1.558557e+01	5.432791e+01
2.350000e-06	2.289550e-06	7.888617e-10	1.588652e+01	5.549039e+01
2.360000e-06	2.332763e-06	8.027936e-10	1.618635e+01	5.661900e+01
2.370000e-06	2.375715e-06	8.155834e-10	1.648439e+01	5.771424e+01
2.380000e-06	2.418343e-06	8.283649e-10	1.678017e+01	5.877671e+01
2.390000e-06	2.460548e-06	8.447156e-10	1.707302e+01	5.980706e+01
2.400000e-06	2.502263e-06	8.605262e-10	1.736246e+01	6.080603e+01
2.410000e-06	2.543650e-06	8.760007e-10	1.764964e+01	6.177445e+01
2.420000e-06	2.584855e-06	8.915890e-10	1.793555e+01	6.271317e+01
2.430000e-06	2.625889e-06	9.051920e-10	1.822027e+01	6.362311e+01
2.440000e-06	2.666729e-06	9.155512e-10	1.850365e+01	6.450523e+01
2.450000e-06	2.707258e-06	9.259550e-10	1.878487e+01	6.536051e+01
2.460000e-06	2.747464e-06	9.373913e-10	1.906384e+01	6.618997e+01
2.470000e-06	2.787515e-06	9.500432e-10	1.934175e+01	6.699462e+01
2.480000e-06	2.827482e-06	9.644964e-10	1.961906e+01	6.777549e+01
2.490000e-06	2.867351e-06	9.794464e-10	1.989570e+01	6.853362e+01
2.500000e-06	2.907177e-06	9.930840e-10	2.017205e+01	6.927001e+01
2.510000e-06	2.946845e-06	1.003555e-09	2.044729e+01	6.998567e+01
2.520000e-06	2.986280e-06	1.010950e-09	2.072092e+01	7.068156e+01
2.530000e-06	3.025534e-06	1.017766e-09	2.099329e+01	7.135864e+01
2.540000e-06	3.064549e-06	1.026676e-09	2.126400e+01	7.201781e+01
2.550000e-06	3.103302e-06	1.037588e-09	2.153290e+01	7.265994e+01
2.560000e-06	3.141836e-06	1.047808e-09	2.180027e+01	7.328586e+01
2.570000e-06	3.180162e-06	1.058293e-09	2.206621e+01	7.389634e+01
2.580000e-06	3.218250e-06	1.068564e-09	2.233049e+01	7.449211e+01
2.590000e-06	3.256155e-06	1.077599e-09	2.259350e+01	7.507386e+01
2.600000e-06	3.293810e-06	1.086130e-09	2.285478e+01	7.564218e+01
2.610000e-06	3.331245e-06	1.091072e-09	2.311453e+01	7.619766e+01
2.620000e-06	3.368594e-06	1.094476e-09	2.337368e+01	7.674080e+01
2.630000e-06	3.405746e-06	1.098883e-09	2.363147e+01	7.727206e+01
2.640000e-06	3.442606e-06	1.107197e-09	2.388723e+01	7.779185e+01
2.650000e-06	3.479170e-06	1.116850e-09	2.414094e+01	7.830051e+01
2.660000e-06	3.515466e-06	1.125450e-09	2.439279e+01	7.879835e+01
2.670000e-06	3.551579e-06	1.133319e-09	2.464336e+01	7.928563e+01
2.680000e-06	3.587518e-06	1.139212e-09	2.489273e+01	7.976255e+01
2.690000e-06	3.623341e-06	1.142347e-09	2.514130e+01	8.022930e+01
2.700000e-06	3.659034e-06	1.145450e-09	2.538896e+01	8.068601e+01
2.710000e-06	3.694564e-06	1.151178e-09	2.563549e+01	8.113278e+01
2.720000e-06	3.729912e-06	1.159896e-09	2.588077e+01	8.156970e+01
2.730000e-06	3.764977e-06	1.168861e-09	2.612407e+01	8.199682e+01
2.740000e-06	3.799609e-06	1.177115e-09	2.636437e+01	8.241417e+01
2.750000e-06	3.833733e-06	1.183333e-09	2.660115e+01	8.282178e+01
2.760000e-06	3.867433e-06	1.189387e-09	2.683498e+01	8.321965e+01
2.770000e-06	3.900741e-06	1.194081e-09	2.706609e+01	8.360780e+01
2.780000e-06	3.933552e-06	1.198821e-09	2.729376e+01	8.398622e+01
2.790000e-06	3.965960e-06	1.205421e-09	2.751863e+01	8.435493e+01
2.800000e-06	3.998144e-06	1.212321e-09	2.774194e+01	8.471393e+01
2.810000e-06	4.030119e-06	1.219650e-09	2.796381e+01	8.506324e+01
2.820000e-06	4.061945e-06	1.226234e-09	2.818465e+01	8.540291e+01
2.830000e-06	4.093611e-06	1.232545e-09	2.840436e+01	8.573298e+01
2.840000e-06	4.125094e-06	1.238071e-09	2.862281e+01	8.605350e+01
2.850000e-06	4.156307e-06	1.242257e-09	2.883940e+01	8.636458e+01
2.860000e-06	4.187180e-06	1.245877e-09	2.905361e+01	8.666631e+01
2.870000e-06	4.217716e-06	1.251968e-09	2.926549e+01	8.695883e+01
2.880000e-06	4.247907e-06	1.259348e-09	2.947498e+01	8.724227e+01
2.890000e-06	4.277818e-06	1.266687e-09	2.968252e+01	8.751682e+01
2.900000e-06	4.307469e-06	1.273352e-09	2.988826e+01	8.778266e+01
