# Temperatura_=_-13.79
# Concentracion g/m^3_=_1620.0
# C_Vs_to_Am_M_A/Vsm_=_65563218390.804596
# pendiente_HvsI_1/m_=_3716.3
# ordenada_HvsI_A/m_=_1297.0
# frecuencia_Hz_=_135109.32257891042

Tiempo_(s)	Campo_(V.s)	Magnetizacion_(V.s)	Campo_(kA/m)	Magnetizacion_(A/m)
0.000000e+00	-5.513205e-06	-9.159699e-10	-3.836042e+01	-6.064036e+01
1.000000e-08	-5.513489e-06	-9.176481e-10	-3.836240e+01	-6.061788e+01
2.000000e-08	-5.513521e-06	-9.175751e-10	-3.836262e+01	-6.059648e+01
3.000000e-08	-5.513172e-06	-9.168298e-10	-3.836019e+01	-6.057600e+01
4.000000e-08	-5.512344e-06	-9.166310e-10	-3.835443e+01	-6.055626e+01
5.000000e-08	-5.511102e-06	-9.131268e-10	-3.834579e+01	-6.053704e+01
6.000000e-08	-5.509336e-06	-9.035626e-10	-3.833350e+01	-6.051810e+01
7.000000e-08	-5.506947e-06	-8.910748e-10	-3.831688e+01	-6.049920e+01
8.000000e-08	-5.503974e-06	-8.989532e-10	-3.829619e+01	-6.048007e+01
9.000000e-08	-5.500472e-06	-9.400275e-10	-3.827182e+01	-6.046043e+01
1.000000e-07	-5.496453e-06	-9.490447e-10	-3.824386e+01	-6.044000e+01
1.100000e-07	-5.492048e-06	-8.937668e-10	-3.821321e+01	-6.041850e+01
1.200000e-07	-5.487518e-06	-8.883486e-10	-3.818169e+01	-6.039563e+01
1.300000e-07	-5.482747e-06	-9.085280e-10	-3.814850e+01	-6.037110e+01
1.400000e-07	-5.477522e-06	-9.362962e-10	-3.811214e+01	-6.034466e+01
1.500000e-07	-5.471980e-06	-8.764998e-10	-3.807358e+01	-6.031602e+01
1.600000e-07	-5.466179e-06	-8.541337e-10	-3.803321e+01	-6.028495e+01
1.700000e-07	-5.459878e-06	-9.054555e-10	-3.798938e+01	-6.025120e+01
1.800000e-07	-5.453033e-06	-9.207260e-10	-3.794175e+01	-6.021458e+01
1.900000e-07	-5.445807e-06	-9.269028e-10	-3.789147e+01	-6.017489e+01
2.000000e-07	-5.438314e-06	-9.181494e-10	-3.783934e+01	-6.013199e+01
2.100000e-07	-5.430523e-06	-9.394754e-10	-3.778513e+01	-6.008573e+01
2.200000e-07	-5.422507e-06	-9.139225e-10	-3.772935e+01	-6.003604e+01
2.300000e-07	-5.414335e-06	-9.044161e-10	-3.767249e+01	-5.998283e+01
2.400000e-07	-5.405793e-06	-9.002783e-10	-3.761306e+01	-5.992609e+01
2.500000e-07	-5.396611e-06	-9.132174e-10	-3.754917e+01	-5.986583e+01
2.600000e-07	-5.386728e-06	-9.053536e-10	-3.748040e+01	-5.980208e+01
2.700000e-07	-5.376320e-06	-9.077111e-10	-3.740799e+01	-5.973493e+01
2.800000e-07	-5.365437e-06	-8.870351e-10	-3.733226e+01	-5.966449e+01
2.900000e-07	-5.354004e-06	-8.842740e-10	-3.725271e+01	-5.959091e+01
3.000000e-07	-5.342121e-06	-8.833717e-10	-3.717003e+01	-5.951437e+01
3.100000e-07	-5.329953e-06	-8.735924e-10	-3.708537e+01	-5.943508e+01
3.200000e-07	-5.317360e-06	-8.652142e-10	-3.699774e+01	-5.935328e+01
3.300000e-07	-5.304212e-06	-8.824956e-10	-3.690627e+01	-5.926924e+01
3.400000e-07	-5.290754e-06	-9.000879e-10	-3.681262e+01	-5.918326e+01
3.500000e-07	-5.277007e-06	-8.766613e-10	-3.671697e+01	-5.909564e+01
3.600000e-07	-5.262798e-06	-8.676742e-10	-3.661811e+01	-5.900672e+01
3.700000e-07	-5.248175e-06	-8.834772e-10	-3.651636e+01	-5.891684e+01
3.800000e-07	-5.232965e-06	-8.630654e-10	-3.641053e+01	-5.882634e+01
3.900000e-07	-5.217053e-06	-8.346391e-10	-3.629982e+01	-5.873560e+01
4.000000e-07	-5.200793e-06	-8.772458e-10	-3.618668e+01	-5.864496e+01
4.100000e-07	-5.184294e-06	-9.000195e-10	-3.607188e+01	-5.855480e+01
4.200000e-07	-5.167376e-06	-8.547730e-10	-3.595417e+01	-5.846546e+01
4.300000e-07	-5.150108e-06	-8.497970e-10	-3.583402e+01	-5.837728e+01
4.400000e-07	-5.132602e-06	-9.097239e-10	-3.571221e+01	-5.829061e+01
4.500000e-07	-5.114671e-06	-8.726072e-10	-3.558746e+01	-5.820573e+01
4.600000e-07	-5.096275e-06	-8.304745e-10	-3.545945e+01	-5.812296e+01
4.700000e-07	-5.077516e-06	-8.709339e-10	-3.532893e+01	-5.804256e+01
4.800000e-07	-5.058413e-06	-8.843063e-10	-3.519601e+01	-5.796476e+01
4.900000e-07	-5.038969e-06	-8.222853e-10	-3.506073e+01	-5.788978e+01
5.000000e-07	-5.019256e-06	-8.511065e-10	-3.492356e+01	-5.781780e+01
5.100000e-07	-4.999405e-06	-8.939720e-10	-3.478544e+01	-5.774897e+01
5.200000e-07	-4.979359e-06	-8.530528e-10	-3.464596e+01	-5.768340e+01
5.300000e-07	-4.958907e-06	-8.400115e-10	-3.450366e+01	-5.762116e+01
5.400000e-07	-4.937985e-06	-8.953374e-10	-3.435809e+01	-5.756229e+01
5.500000e-07	-4.916730e-06	-8.649598e-10	-3.421019e+01	-5.750680e+01
5.600000e-07	-4.895182e-06	-8.234579e-10	-3.406027e+01	-5.745465e+01
5.700000e-07	-4.873349e-06	-8.598113e-10	-3.390835e+01	-5.740577e+01
5.800000e-07	-4.851242e-06	-8.649156e-10	-3.375453e+01	-5.736006e+01
5.900000e-07	-4.828688e-06	-8.204464e-10	-3.359761e+01	-5.731738e+01
6.000000e-07	-4.805741e-06	-8.481280e-10	-3.343795e+01	-5.727756e+01
6.100000e-07	-4.782514e-06	-8.757639e-10	-3.327633e+01	-5.724040e+01
6.200000e-07	-4.758950e-06	-8.363804e-10	-3.311238e+01	-5.720569e+01
6.300000e-07	-4.735207e-06	-8.318120e-10	-3.294718e+01	-5.717317e+01
6.400000e-07	-4.711327e-06	-8.578379e-10	-3.278102e+01	-5.714257e+01
6.500000e-07	-4.687102e-06	-8.327113e-10	-3.261247e+01	-5.711361e+01
6.600000e-07	-4.662414e-06	-8.135231e-10	-3.244068e+01	-5.708600e+01
6.700000e-07	-4.637231e-06	-8.427509e-10	-3.226547e+01	-5.705941e+01
6.800000e-07	-4.611480e-06	-8.410776e-10	-3.208629e+01	-5.703355e+01
6.900000e-07	-4.585240e-06	-8.262161e-10	-3.190372e+01	-5.700808e+01
7.000000e-07	-4.558580e-06	-8.412379e-10	-3.171822e+01	-5.698270e+01
7.100000e-07	-4.531465e-06	-8.457366e-10	-3.152955e+01	-5.695709e+01
7.200000e-07	-4.504012e-06	-8.187871e-10	-3.133854e+01	-5.693095e+01
7.300000e-07	-4.476337e-06	-8.196797e-10	-3.114598e+01	-5.690400e+01
7.400000e-07	-4.448518e-06	-8.262573e-10	-3.095242e+01	-5.687595e+01
7.500000e-07	-4.420547e-06	-8.199042e-10	-3.075780e+01	-5.684654e+01
7.600000e-07	-4.392321e-06	-8.241402e-10	-3.056140e+01	-5.681555e+01
7.700000e-07	-4.363780e-06	-8.409588e-10	-3.036281e+01	-5.678275e+01
7.800000e-07	-4.334883e-06	-8.318273e-10	-3.016175e+01	-5.674796e+01
7.900000e-07	-4.305584e-06	-8.238594e-10	-2.995789e+01	-5.671102e+01
8.000000e-07	-4.275999e-06	-8.250744e-10	-2.975205e+01	-5.667179e+01
8.100000e-07	-4.246213e-06	-8.176765e-10	-2.954479e+01	-5.663017e+01
8.200000e-07	-4.216158e-06	-8.070915e-10	-2.933568e+01	-5.658609e+01
8.300000e-07	-4.185768e-06	-8.205424e-10	-2.912422e+01	-5.653949e+01
8.400000e-07	-4.155014e-06	-8.290286e-10	-2.891024e+01	-5.649037e+01
8.500000e-07	-4.123995e-06	-8.256425e-10	-2.869441e+01	-5.643873e+01
8.600000e-07	-4.092665e-06	-8.290510e-10	-2.847642e+01	-5.638462e+01
8.700000e-07	-4.061118e-06	-8.327566e-10	-2.825692e+01	-5.632810e+01
8.800000e-07	-4.029506e-06	-8.201827e-10	-2.803696e+01	-5.626927e+01
8.900000e-07	-3.997740e-06	-8.159775e-10	-2.781594e+01	-5.620823e+01
9.000000e-07	-3.965771e-06	-8.230522e-10	-2.759350e+01	-5.614512e+01
9.100000e-07	-3.933557e-06	-8.207172e-10	-2.736936e+01	-5.608008e+01
9.200000e-07	-3.900997e-06	-8.178735e-10	-2.714281e+01	-5.601328e+01
9.300000e-07	-3.868040e-06	-8.258227e-10	-2.691350e+01	-5.594489e+01
9.400000e-07	-3.834725e-06	-8.265088e-10	-2.668169e+01	-5.587509e+01
9.500000e-07	-3.800956e-06	-8.185078e-10	-2.644674e+01	-5.580406e+01
9.600000e-07	-3.766646e-06	-8.188292e-10	-2.620801e+01	-5.573199e+01
9.700000e-07	-3.731927e-06	-8.166358e-10	-2.596643e+01	-5.565905e+01
9.800000e-07	-3.696859e-06	-8.072329e-10	-2.572244e+01	-5.558543e+01
9.900000e-07	-3.661498e-06	-8.022164e-10	-2.547640e+01	-5.551129e+01
1.000000e-06	-3.625942e-06	-8.057447e-10	-2.522900e+01	-5.543678e+01
1.010000e-06	-3.590222e-06	-8.024477e-10	-2.498046e+01	-5.536203e+01
1.020000e-06	-3.554408e-06	-8.044362e-10	-2.473128e+01	-5.528717e+01
1.030000e-06	-3.518489e-06	-8.110089e-10	-2.448135e+01	-5.521229e+01
1.040000e-06	-3.482401e-06	-8.124227e-10	-2.423025e+01	-5.513746e+01
1.050000e-06	-3.446042e-06	-8.059446e-10	-2.397727e+01	-5.506273e+01
1.060000e-06	-3.409362e-06	-8.048827e-10	-2.372206e+01	-5.498813e+01
1.070000e-06	-3.372401e-06	-8.024429e-10	-2.346488e+01	-5.491364e+01
1.080000e-06	-3.335186e-06	-7.990101e-10	-2.320594e+01	-5.483923e+01
1.090000e-06	-3.297769e-06	-8.015403e-10	-2.294560e+01	-5.476484e+01
1.100000e-06	-3.260125e-06	-8.066859e-10	-2.268368e+01	-5.469037e+01
1.110000e-06	-3.222252e-06	-8.040078e-10	-2.242016e+01	-5.461569e+01
1.120000e-06	-3.184105e-06	-8.022521e-10	-2.215474e+01	-5.454067e+01
1.130000e-06	-3.145734e-06	-8.010789e-10	-2.188776e+01	-5.446512e+01
1.140000e-06	-3.107165e-06	-7.976837e-10	-2.161940e+01	-5.438884e+01
1.150000e-06	-3.068285e-06	-7.945314e-10	-2.134887e+01	-5.431160e+01
1.160000e-06	-3.029192e-06	-7.955175e-10	-2.107686e+01	-5.423315e+01
1.170000e-06	-2.989993e-06	-7.932746e-10	-2.080412e+01	-5.415324e+01
1.180000e-06	-2.950672e-06	-7.894306e-10	-2.053053e+01	-5.407157e+01
1.190000e-06	-2.911140e-06	-7.885582e-10	-2.025547e+01	-5.398785e+01
1.200000e-06	-2.871442e-06	-7.864467e-10	-1.997925e+01	-5.390178e+01
1.210000e-06	-2.831663e-06	-7.814581e-10	-1.970247e+01	-5.381304e+01
1.220000e-06	-2.791795e-06	-7.788782e-10	-1.942508e+01	-5.372131e+01
1.230000e-06	-2.751770e-06	-7.806688e-10	-1.914659e+01	-5.362628e+01
1.240000e-06	-2.711609e-06	-7.809057e-10	-1.886715e+01	-5.352764e+01
1.250000e-06	-2.671414e-06	-7.810894e-10	-1.858747e+01	-5.342507e+01
1.260000e-06	-2.630946e-06	-7.816341e-10	-1.830590e+01	-5.331827e+01
1.270000e-06	-2.590096e-06	-7.818996e-10	-1.802167e+01	-5.320696e+01
1.280000e-06	-2.548907e-06	-7.786299e-10	-1.773508e+01	-5.309086e+01
1.290000e-06	-2.507521e-06	-7.748178e-10	-1.744712e+01	-5.296971e+01
1.300000e-06	-2.465972e-06	-7.708090e-10	-1.715803e+01	-5.284326e+01
1.310000e-06	-2.423993e-06	-7.680609e-10	-1.686594e+01	-5.271130e+01
1.320000e-06	-2.381654e-06	-7.648774e-10	-1.657135e+01	-5.257363e+01
1.330000e-06	-2.339017e-06	-7.646352e-10	-1.627469e+01	-5.243006e+01
1.340000e-06	-2.296077e-06	-7.645956e-10	-1.597591e+01	-5.228043e+01
1.350000e-06	-2.252971e-06	-7.647074e-10	-1.567598e+01	-5.212462e+01
1.360000e-06	-2.209731e-06	-7.639076e-10	-1.537512e+01	-5.196250e+01
1.370000e-06	-2.166329e-06	-7.610379e-10	-1.507314e+01	-5.179397e+01
1.380000e-06	-2.122799e-06	-7.553557e-10	-1.477025e+01	-5.161897e+01
1.390000e-06	-2.079144e-06	-7.502018e-10	-1.446651e+01	-5.143742e+01
1.400000e-06	-2.035400e-06	-7.471767e-10	-1.416214e+01	-5.124929e+01
1.410000e-06	-1.991629e-06	-7.458069e-10	-1.385758e+01	-5.105452e+01
1.420000e-06	-1.947752e-06	-7.458661e-10	-1.355229e+01	-5.085309e+01
1.430000e-06	-1.903810e-06	-7.487024e-10	-1.324655e+01	-5.064498e+01
1.440000e-06	-1.859792e-06	-7.512358e-10	-1.294028e+01	-5.043015e+01
1.450000e-06	-1.815605e-06	-7.494538e-10	-1.263283e+01	-5.020858e+01
1.460000e-06	-1.771339e-06	-7.434691e-10	-1.232483e+01	-4.998023e+01
1.470000e-06	-1.726988e-06	-7.353428e-10	-1.201624e+01	-4.974503e+01
1.480000e-06	-1.682463e-06	-7.271937e-10	-1.170644e+01	-4.950292e+01
1.490000e-06	-1.637710e-06	-7.211009e-10	-1.139505e+01	-4.925381e+01
1.500000e-06	-1.592830e-06	-7.178729e-10	-1.108278e+01	-4.899756e+01
1.510000e-06	-1.547924e-06	-7.157041e-10	-1.077033e+01	-4.873402e+01
1.520000e-06	-1.502929e-06	-7.146053e-10	-1.045726e+01	-4.846300e+01
1.530000e-06	-1.457764e-06	-7.127611e-10	-1.014300e+01	-4.818426e+01
1.540000e-06	-1.412471e-06	-7.068207e-10	-9.827852e+00	-4.789752e+01
1.550000e-06	-1.367066e-06	-6.987589e-10	-9.511929e+00	-4.760245e+01
1.560000e-06	-1.321606e-06	-6.905653e-10	-9.195621e+00	-4.729867e+01
1.570000e-06	-1.276169e-06	-6.822117e-10	-8.879474e+00	-4.698574e+01
1.580000e-06	-1.230666e-06	-6.747115e-10	-8.562872e+00	-4.666318e+01
1.590000e-06	-1.185060e-06	-6.689195e-10	-8.245548e+00	-4.633042e+01
1.600000e-06	-1.139337e-06	-6.672226e-10	-7.927408e+00	-4.598686e+01
1.610000e-06	-1.093452e-06	-6.654428e-10	-7.608151e+00	-4.563182e+01
1.620000e-06	-1.047469e-06	-6.609389e-10	-7.288200e+00	-4.526458e+01
1.630000e-06	-1.001454e-06	-6.540215e-10	-6.968035e+00	-4.488434e+01
1.640000e-06	-9.553506e-07	-6.476324e-10	-6.647249e+00	-4.449026e+01
1.650000e-06	-9.091849e-07	-6.399639e-10	-6.326033e+00	-4.408144e+01
1.660000e-06	-8.630266e-07	-6.310284e-10	-6.004867e+00	-4.365694e+01
1.670000e-06	-8.168823e-07	-6.216213e-10	-5.683799e+00	-4.321575e+01
1.680000e-06	-7.706310e-07	-6.121950e-10	-5.361986e+00	-4.275685e+01
1.690000e-06	-7.242405e-07	-6.029910e-10	-5.039205e+00	-4.227917e+01
1.700000e-06	-6.778372e-07	-5.951181e-10	-4.716334e+00	-4.178160e+01
1.710000e-06	-6.314165e-07	-5.881775e-10	-4.393343e+00	-4.126304e+01
1.720000e-06	-5.849781e-07	-5.818133e-10	-4.070228e+00	-4.072234e+01
1.730000e-06	-5.384702e-07	-5.754479e-10	-3.746630e+00	-4.015836e+01
1.740000e-06	-4.918717e-07	-5.673298e-10	-3.422402e+00	-3.956998e+01
1.750000e-06	-4.452677e-07	-5.561065e-10	-3.098135e+00	-3.895606e+01
1.760000e-06	-3.986411e-07	-5.423631e-10	-2.773711e+00	-3.831551e+01
1.770000e-06	-3.519241e-07	-5.302572e-10	-2.448658e+00	-3.764725e+01
1.780000e-06	-3.051150e-07	-5.197748e-10	-2.122964e+00	-3.695025e+01
1.790000e-06	-2.582648e-07	-5.090462e-10	-1.796985e+00	-3.622354e+01
1.800000e-06	-2.114417e-07	-4.985741e-10	-1.471194e+00	-3.546618e+01
1.810000e-06	-1.646418e-07	-4.875280e-10	-1.145564e+00	-3.467735e+01
1.820000e-06	-1.178449e-07	-4.744288e-10	-8.199546e-01	-3.385626e+01
1.830000e-06	-7.112069e-08	-4.610086e-10	-4.948518e-01	-3.300223e+01
1.840000e-06	-2.443003e-08	-4.484215e-10	-1.699821e-01	-3.211469e+01
1.850000e-06	2.244355e-08	-4.357533e-10	1.561603e-01	-3.119316e+01
1.860000e-06	6.934213e-08	-4.214401e-10	4.824768e-01	-3.023727e+01
1.870000e-06	1.160077e-07	-4.051729e-10	8.071717e-01	-2.924679e+01
1.880000e-06	1.626291e-07	-3.877605e-10	1.131559e+00	-2.822160e+01
1.890000e-06	2.093002e-07	-3.719702e-10	1.456293e+00	-2.716173e+01
1.900000e-06	2.559753e-07	-3.568176e-10	1.781055e+00	-2.606732e+01
1.910000e-06	3.026178e-07	-3.414700e-10	2.105589e+00	-2.493869e+01
1.920000e-06	3.492802e-07	-3.270160e-10	2.430263e+00	-2.377627e+01
1.930000e-06	3.959669e-07	-3.123454e-10	2.755105e+00	-2.258065e+01
1.940000e-06	4.426200e-07	-2.968094e-10	3.079713e+00	-2.135257e+01
1.950000e-06	4.892269e-07	-2.789456e-10	3.404000e+00	-2.009291e+01
1.960000e-06	5.357418e-07	-2.604266e-10	3.727647e+00	-1.880270e+01
1.970000e-06	5.822336e-07	-2.419690e-10	4.051133e+00	-1.748312e+01
1.980000e-06	6.287415e-07	-2.220869e-10	4.374731e+00	-1.613546e+01
1.990000e-06	6.751615e-07	-2.019761e-10	4.697717e+00	-1.476118e+01
2.000000e-06	7.215075e-07	-1.809731e-10	5.020189e+00	-1.336183e+01
2.010000e-06	7.677438e-07	-1.593555e-10	5.341897e+00	-1.193913e+01
2.020000e-06	8.139110e-07	-1.361709e-10	5.663125e+00	-1.049487e+01
2.030000e-06	8.601488e-07	-1.158819e-10	5.984844e+00	-9.030965e+00
2.040000e-06	9.063456e-07	-9.816421e-11	6.306277e+00	-7.549424e+00
2.050000e-06	9.524268e-07	-7.949192e-11	6.626906e+00	-6.052342e+00
2.060000e-06	9.984113e-07	-5.766007e-11	6.946862e+00	-4.541887e+00
2.070000e-06	1.044323e-06	-3.421314e-11	7.266313e+00	-3.020293e+00
2.080000e-06	1.090189e-06	-1.067393e-11	7.585443e+00	-1.489842e+00
2.090000e-06	1.135973e-06	1.350787e-11	7.904008e+00	4.714120e-02
2.100000e-06	1.181703e-06	3.464935e-11	8.222190e+00	1.588306e+00
2.110000e-06	1.227311e-06	5.430933e-11	8.539530e+00	3.131288e+00
2.120000e-06	1.272739e-06	7.379112e-11	8.855612e+00	4.673722e+00
2.130000e-06	1.318106e-06	9.248692e-11	9.171274e+00	6.213254e+00
2.140000e-06	1.363460e-06	1.105355e-10	9.486841e+00	7.747553e+00
2.150000e-06	1.408743e-06	1.304473e-10	9.801918e+00	9.274328e+00
2.160000e-06	1.453890e-06	1.528664e-10	1.011604e+01	1.079133e+01
2.170000e-06	1.498946e-06	1.759329e-10	1.042954e+01	1.229639e+01
2.180000e-06	1.543945e-06	1.981451e-10	1.074264e+01	1.378738e+01
2.190000e-06	1.588799e-06	2.182828e-10	1.105473e+01	1.526227e+01
2.200000e-06	1.633513e-06	2.365388e-10	1.136584e+01	1.671914e+01
2.210000e-06	1.678108e-06	2.550034e-10	1.167613e+01	1.815613e+01
2.220000e-06	1.722496e-06	2.718728e-10	1.198498e+01	1.957153e+01
2.230000e-06	1.766743e-06	2.883336e-10	1.229285e+01	2.096373e+01
2.240000e-06	1.810892e-06	3.059849e-10	1.260004e+01	2.233123e+01
2.250000e-06	1.854891e-06	3.238227e-10	1.290617e+01	2.367268e+01
2.260000e-06	1.898766e-06	3.431639e-10	1.321145e+01	2.498685e+01
2.270000e-06	1.942607e-06	3.628925e-10	1.351650e+01	2.627264e+01
2.280000e-06	1.986417e-06	3.818111e-10	1.382133e+01	2.752911e+01
2.290000e-06	2.030154e-06	3.993588e-10	1.412564e+01	2.875543e+01
2.300000e-06	2.073847e-06	4.162972e-10	1.442965e+01	2.995094e+01
2.310000e-06	2.117469e-06	4.329698e-10	1.473317e+01	3.111508e+01
2.320000e-06	2.160996e-06	4.485553e-10	1.503603e+01	3.224747e+01
2.330000e-06	2.204422e-06	4.635296e-10	1.533819e+01	3.334782e+01
2.340000e-06	2.247779e-06	4.775193e-10	1.563986e+01	3.441600e+01
2.350000e-06	2.290935e-06	4.910903e-10	1.594013e+01	3.545199e+01
2.360000e-06	2.333898e-06	5.043421e-10	1.623906e+01	3.645589e+01
2.370000e-06	2.376719e-06	5.176778e-10	1.653701e+01	3.742791e+01
2.380000e-06	2.419183e-06	5.299726e-10	1.683247e+01	3.836838e+01
2.390000e-06	2.461265e-06	5.424770e-10	1.712528e+01	3.927771e+01
2.400000e-06	2.502984e-06	5.576028e-10	1.741555e+01	4.015640e+01
2.410000e-06	2.544432e-06	5.733180e-10	1.770394e+01	4.100504e+01
2.420000e-06	2.585694e-06	5.866912e-10	1.799104e+01	4.182429e+01
2.430000e-06	2.626649e-06	5.960457e-10	1.827601e+01	4.261487e+01
2.440000e-06	2.667234e-06	6.029798e-10	1.855839e+01	4.337755e+01
2.450000e-06	2.707502e-06	6.106716e-10	1.883857e+01	4.411317e+01
2.460000e-06	2.747595e-06	6.201101e-10	1.911753e+01	4.482257e+01
2.470000e-06	2.787596e-06	6.330388e-10	1.939586e+01	4.550663e+01
2.480000e-06	2.827484e-06	6.463617e-10	1.967339e+01	4.616626e+01
2.490000e-06	2.867234e-06	6.585774e-10	1.994997e+01	4.680237e+01
2.500000e-06	2.906879e-06	6.692636e-10	2.022582e+01	4.741586e+01
2.510000e-06	2.946466e-06	6.771358e-10	2.050127e+01	4.800765e+01
2.520000e-06	2.985852e-06	6.830256e-10	2.077531e+01	4.857862e+01
2.530000e-06	3.024937e-06	6.886851e-10	2.104726e+01	4.912965e+01
2.540000e-06	3.063760e-06	6.950805e-10	2.131739e+01	4.966157e+01
2.550000e-06	3.102396e-06	7.004669e-10	2.158621e+01	5.017519e+01
2.560000e-06	3.140843e-06	7.084229e-10	2.185372e+01	5.067131e+01
2.570000e-06	3.179052e-06	7.190014e-10	2.211958e+01	5.115065e+01
2.580000e-06	3.217056e-06	7.279558e-10	2.238401e+01	5.161390e+01
2.590000e-06	3.254856e-06	7.347938e-10	2.264702e+01	5.206171e+01
2.600000e-06	3.292419e-06	7.408109e-10	2.290837e+01	5.249467e+01
2.610000e-06	3.329741e-06	7.455254e-10	2.316806e+01	5.291335e+01
2.620000e-06	3.366863e-06	7.495453e-10	2.342635e+01	5.331824e+01
2.630000e-06	3.403825e-06	7.551120e-10	2.368353e+01	5.370979e+01
2.640000e-06	3.440549e-06	7.619035e-10	2.393905e+01	5.408841e+01
2.650000e-06	3.476935e-06	7.668168e-10	2.419223e+01	5.445445e+01
2.660000e-06	3.513095e-06	7.710746e-10	2.444382e+01	5.480823e+01
2.670000e-06	3.549120e-06	7.756505e-10	2.469448e+01	5.515002e+01
2.680000e-06	3.585002e-06	7.788860e-10	2.494414e+01	5.548007e+01
2.690000e-06	3.620766e-06	7.816823e-10	2.519299e+01	5.579856e+01
2.700000e-06	3.656368e-06	7.856703e-10	2.544070e+01	5.610568e+01
2.710000e-06	3.691796e-06	7.902356e-10	2.568720e+01	5.640156e+01
2.720000e-06	3.727067e-06	7.953553e-10	2.593262e+01	5.668633e+01
2.730000e-06	3.762076e-06	8.022712e-10	2.617621e+01	5.696008e+01
2.740000e-06	3.796643e-06	8.086526e-10	2.641672e+01	5.722292e+01
2.750000e-06	3.830635e-06	8.118005e-10	2.665324e+01	5.747493e+01
2.760000e-06	3.863976e-06	8.134730e-10	2.688522e+01	5.771618e+01
2.770000e-06	3.896765e-06	8.151424e-10	2.711337e+01	5.794674e+01
2.780000e-06	3.929239e-06	8.192606e-10	2.733932e+01	5.816672e+01
2.790000e-06	3.961486e-06	8.253855e-10	2.756369e+01	5.837619e+01
2.800000e-06	3.993547e-06	8.305215e-10	2.778677e+01	5.857527e+01
2.810000e-06	4.025454e-06	8.339830e-10	2.800877e+01	5.876406e+01
2.820000e-06	4.057193e-06	8.370713e-10	2.822961e+01	5.894271e+01
2.830000e-06	4.088731e-06	8.393156e-10	2.844905e+01	5.911138e+01
2.840000e-06	4.120040e-06	8.406626e-10	2.866689e+01	5.927025e+01
2.850000e-06	4.151057e-06	8.425596e-10	2.888271e+01	5.941952e+01
2.860000e-06	4.181691e-06	8.434880e-10	2.909585e+01	5.955942e+01
2.870000e-06	4.212062e-06	8.444843e-10	2.930717e+01	5.969021e+01
2.880000e-06	4.242166e-06	8.474373e-10	2.951663e+01	5.981217e+01
2.890000e-06	4.271909e-06	8.506143e-10	2.972359e+01	5.992562e+01
2.900000e-06	4.301372e-06	8.536122e-10	2.992859e+01	6.003089e+01
