# Temperatura_=_8.93
# Concentracion g/m^3_=_1620.0
# C_Vs_to_Am_M_A/Vsm_=_65563218390.804596
# pendiente_HvsI_1/m_=_3716.3
# ordenada_HvsI_A/m_=_1297.0
# frecuencia_Hz_=_135103.1981275539

Tiempo_(s)	Campo_(V.s)	Magnetizacion_(V.s)	Campo_(kA/m)	Magnetizacion_(A/m)
0.000000e+00	-5.523793e-06	-1.385254e-09	-3.837104e+01	-9.211802e+01
1.000000e-08	-5.524073e-06	-1.386696e-09	-3.837298e+01	-9.207977e+01
2.000000e-08	-5.524126e-06	-1.391201e-09	-3.837335e+01	-9.204353e+01
3.000000e-08	-5.523869e-06	-1.394431e-09	-3.837157e+01	-9.200927e+01
4.000000e-08	-5.523218e-06	-1.393111e-09	-3.836704e+01	-9.197695e+01
5.000000e-08	-5.522074e-06	-1.386487e-09	-3.835910e+01	-9.194649e+01
6.000000e-08	-5.520467e-06	-1.373892e-09	-3.834794e+01	-9.191775e+01
7.000000e-08	-5.518266e-06	-1.356104e-09	-3.833265e+01	-9.189058e+01
8.000000e-08	-5.515391e-06	-1.360283e-09	-3.831267e+01	-9.186478e+01
9.000000e-08	-5.511993e-06	-1.400074e-09	-3.828907e+01	-9.184012e+01
1.000000e-07	-5.508097e-06	-1.447056e-09	-3.826201e+01	-9.181636e+01
1.100000e-07	-5.503822e-06	-1.432646e-09	-3.823231e+01	-9.179321e+01
1.200000e-07	-5.499376e-06	-1.367634e-09	-3.820142e+01	-9.177037e+01
1.300000e-07	-5.494745e-06	-1.310380e-09	-3.816926e+01	-9.174752e+01
1.400000e-07	-5.489782e-06	-1.367058e-09	-3.813478e+01	-9.172433e+01
1.500000e-07	-5.484383e-06	-1.395683e-09	-3.809728e+01	-9.170044e+01
1.600000e-07	-5.478564e-06	-1.380622e-09	-3.805686e+01	-9.167551e+01
1.700000e-07	-5.472405e-06	-1.335536e-09	-3.801407e+01	-9.164916e+01
1.800000e-07	-5.465894e-06	-1.380325e-09	-3.796885e+01	-9.162102e+01
1.900000e-07	-5.458846e-06	-1.442347e-09	-3.791989e+01	-9.159075e+01
2.000000e-07	-5.451322e-06	-1.425490e-09	-3.786762e+01	-9.155797e+01
2.100000e-07	-5.443587e-06	-1.360705e-09	-3.781389e+01	-9.152234e+01
2.200000e-07	-5.435690e-06	-1.365073e-09	-3.775903e+01	-9.148350e+01
2.300000e-07	-5.427593e-06	-1.426393e-09	-3.770279e+01	-9.144115e+01
2.400000e-07	-5.419161e-06	-1.430767e-09	-3.764422e+01	-9.139496e+01
2.500000e-07	-5.410142e-06	-1.402028e-09	-3.758156e+01	-9.134465e+01
2.600000e-07	-5.400459e-06	-1.390855e-09	-3.751430e+01	-9.128993e+01
2.700000e-07	-5.390081e-06	-1.412252e-09	-3.744221e+01	-9.123057e+01
2.800000e-07	-5.379077e-06	-1.382582e-09	-3.736577e+01	-9.116634e+01
2.900000e-07	-5.367625e-06	-1.373400e-09	-3.728622e+01	-9.109703e+01
3.000000e-07	-5.355790e-06	-1.380130e-09	-3.720401e+01	-9.102248e+01
3.100000e-07	-5.343688e-06	-1.403912e-09	-3.711994e+01	-9.094254e+01
3.200000e-07	-5.331201e-06	-1.385163e-09	-3.703320e+01	-9.085710e+01
3.300000e-07	-5.318165e-06	-1.392919e-09	-3.694265e+01	-9.076606e+01
3.400000e-07	-5.304766e-06	-1.391435e-09	-3.684957e+01	-9.066937e+01
3.500000e-07	-5.291098e-06	-1.394439e-09	-3.675463e+01	-9.056699e+01
3.600000e-07	-5.277018e-06	-1.373288e-09	-3.665681e+01	-9.045891e+01
3.700000e-07	-5.262477e-06	-1.373072e-09	-3.655580e+01	-9.034515e+01
3.800000e-07	-5.247465e-06	-1.362539e-09	-3.645152e+01	-9.022577e+01
3.900000e-07	-5.231858e-06	-1.367722e-09	-3.634311e+01	-9.010081e+01
4.000000e-07	-5.215587e-06	-1.368535e-09	-3.623009e+01	-8.997039e+01
4.100000e-07	-5.198883e-06	-1.370040e-09	-3.611405e+01	-8.983459e+01
4.200000e-07	-5.181908e-06	-1.367992e-09	-3.599614e+01	-8.969357e+01
4.300000e-07	-5.164628e-06	-1.361348e-09	-3.587610e+01	-8.954745e+01
4.400000e-07	-5.147063e-06	-1.346696e-09	-3.575409e+01	-8.939640e+01
4.500000e-07	-5.129179e-06	-1.344588e-09	-3.562985e+01	-8.924060e+01
4.600000e-07	-5.110849e-06	-1.355668e-09	-3.550252e+01	-8.908022e+01
4.700000e-07	-5.092032e-06	-1.335442e-09	-3.537181e+01	-8.891547e+01
4.800000e-07	-5.072863e-06	-1.319821e-09	-3.523865e+01	-8.874654e+01
4.900000e-07	-5.053460e-06	-1.340919e-09	-3.510387e+01	-8.857363e+01
5.000000e-07	-5.033805e-06	-1.357467e-09	-3.496733e+01	-8.839695e+01
5.100000e-07	-5.013930e-06	-1.330421e-09	-3.482928e+01	-8.821671e+01
5.200000e-07	-4.993850e-06	-1.328576e-09	-3.468979e+01	-8.803311e+01
5.300000e-07	-4.973393e-06	-1.336917e-09	-3.454768e+01	-8.784636e+01
5.400000e-07	-4.952553e-06	-1.323536e-09	-3.440292e+01	-8.765665e+01
5.500000e-07	-4.931370e-06	-1.309227e-09	-3.425577e+01	-8.746418e+01
5.600000e-07	-4.909838e-06	-1.324332e-09	-3.410620e+01	-8.726913e+01
5.700000e-07	-4.888030e-06	-1.305205e-09	-3.395471e+01	-8.707167e+01
5.800000e-07	-4.865940e-06	-1.288747e-09	-3.380126e+01	-8.687197e+01
5.900000e-07	-4.843479e-06	-1.305884e-09	-3.364524e+01	-8.667019e+01
6.000000e-07	-4.820582e-06	-1.317143e-09	-3.348618e+01	-8.646647e+01
6.100000e-07	-4.797327e-06	-1.290476e-09	-3.332464e+01	-8.626095e+01
6.200000e-07	-4.773809e-06	-1.293983e-09	-3.316128e+01	-8.605373e+01
6.300000e-07	-4.750045e-06	-1.303476e-09	-3.299619e+01	-8.584494e+01
6.400000e-07	-4.726087e-06	-1.288849e-09	-3.282978e+01	-8.563465e+01
6.500000e-07	-4.701916e-06	-1.278296e-09	-3.266187e+01	-8.542295e+01
6.600000e-07	-4.677365e-06	-1.290936e-09	-3.249133e+01	-8.520991e+01
6.700000e-07	-4.652403e-06	-1.285212e-09	-3.231793e+01	-8.499558e+01
6.800000e-07	-4.626902e-06	-1.278755e-09	-3.214078e+01	-8.478000e+01
6.900000e-07	-4.600734e-06	-1.286098e-09	-3.195901e+01	-8.456320e+01
7.000000e-07	-4.574018e-06	-1.288001e-09	-3.177343e+01	-8.434519e+01
7.100000e-07	-4.546948e-06	-1.273796e-09	-3.158538e+01	-8.412597e+01
7.200000e-07	-4.519518e-06	-1.265791e-09	-3.139484e+01	-8.390554e+01
7.300000e-07	-4.491767e-06	-1.261721e-09	-3.120207e+01	-8.368388e+01
7.400000e-07	-4.463876e-06	-1.254255e-09	-3.100832e+01	-8.346095e+01
7.500000e-07	-4.435813e-06	-1.250586e-09	-3.081339e+01	-8.323672e+01
7.600000e-07	-4.407543e-06	-1.251140e-09	-3.061701e+01	-8.301113e+01
7.700000e-07	-4.379027e-06	-1.249185e-09	-3.041892e+01	-8.278412e+01
7.800000e-07	-4.350189e-06	-1.239576e-09	-3.021860e+01	-8.255563e+01
7.900000e-07	-4.320970e-06	-1.236833e-09	-3.001563e+01	-8.232558e+01
8.000000e-07	-4.291415e-06	-1.237691e-09	-2.981032e+01	-8.209388e+01
8.100000e-07	-4.261635e-06	-1.236234e-09	-2.960346e+01	-8.186044e+01
8.200000e-07	-4.231627e-06	-1.230400e-09	-2.939500e+01	-8.162516e+01
8.300000e-07	-4.201360e-06	-1.233440e-09	-2.918475e+01	-8.138793e+01
8.400000e-07	-4.170813e-06	-1.231494e-09	-2.897256e+01	-8.114864e+01
8.500000e-07	-4.139906e-06	-1.224461e-09	-2.875786e+01	-8.090717e+01
8.600000e-07	-4.108735e-06	-1.214996e-09	-2.854134e+01	-8.066339e+01
8.700000e-07	-4.077358e-06	-1.210107e-09	-2.832337e+01	-8.041718e+01
8.800000e-07	-4.045726e-06	-1.200808e-09	-2.810364e+01	-8.016838e+01
8.900000e-07	-4.013903e-06	-1.197034e-09	-2.788258e+01	-7.991687e+01
9.000000e-07	-3.981903e-06	-1.193130e-09	-2.766030e+01	-7.966248e+01
9.100000e-07	-3.949701e-06	-1.189405e-09	-2.743661e+01	-7.940508e+01
9.200000e-07	-3.917200e-06	-1.183120e-09	-2.721084e+01	-7.914450e+01
9.300000e-07	-3.884246e-06	-1.180600e-09	-2.698192e+01	-7.888058e+01
9.400000e-07	-3.850810e-06	-1.176139e-09	-2.674966e+01	-7.861316e+01
9.500000e-07	-3.816942e-06	-1.171921e-09	-2.651440e+01	-7.834207e+01
9.600000e-07	-3.782645e-06	-1.163593e-09	-2.627615e+01	-7.806714e+01
9.700000e-07	-3.747959e-06	-1.152929e-09	-2.603520e+01	-7.778820e+01
9.800000e-07	-3.712906e-06	-1.140872e-09	-2.579171e+01	-7.750507e+01
9.900000e-07	-3.677529e-06	-1.133856e-09	-2.554597e+01	-7.721758e+01
1.000000e-06	-3.641962e-06	-1.131249e-09	-2.529890e+01	-7.692556e+01
1.010000e-06	-3.606203e-06	-1.129494e-09	-2.505050e+01	-7.662884e+01
1.020000e-06	-3.570261e-06	-1.127251e-09	-2.480082e+01	-7.632723e+01
1.030000e-06	-3.534241e-06	-1.123592e-09	-2.455061e+01	-7.602058e+01
1.040000e-06	-3.498114e-06	-1.117527e-09	-2.429966e+01	-7.570872e+01
1.050000e-06	-3.461766e-06	-1.108534e-09	-2.404717e+01	-7.539149e+01
1.060000e-06	-3.425106e-06	-1.098291e-09	-2.379251e+01	-7.506874e+01
1.070000e-06	-3.388091e-06	-1.087388e-09	-2.353538e+01	-7.474033e+01
1.080000e-06	-3.350825e-06	-1.081831e-09	-2.327652e+01	-7.440611e+01
1.090000e-06	-3.313395e-06	-1.081076e-09	-2.301650e+01	-7.406597e+01
1.100000e-06	-3.275741e-06	-1.083499e-09	-2.275494e+01	-7.371978e+01
1.110000e-06	-3.237833e-06	-1.081054e-09	-2.249161e+01	-7.336744e+01
1.120000e-06	-3.199632e-06	-1.076754e-09	-2.222625e+01	-7.300888e+01
1.130000e-06	-3.161153e-06	-1.067557e-09	-2.195896e+01	-7.264400e+01
1.140000e-06	-3.122484e-06	-1.057334e-09	-2.169034e+01	-7.227276e+01
1.150000e-06	-3.083678e-06	-1.045564e-09	-2.142078e+01	-7.189511e+01
1.160000e-06	-3.044646e-06	-1.035768e-09	-2.114964e+01	-7.151102e+01
1.170000e-06	-3.005389e-06	-1.026926e-09	-2.087694e+01	-7.112049e+01
1.180000e-06	-2.965986e-06	-1.019692e-09	-2.060323e+01	-7.072354e+01
1.190000e-06	-2.926392e-06	-1.014619e-09	-2.032819e+01	-7.032018e+01
1.200000e-06	-2.886663e-06	-1.011686e-09	-2.005221e+01	-6.991047e+01
1.210000e-06	-2.846794e-06	-1.004857e-09	-1.977526e+01	-6.949448e+01
1.220000e-06	-2.806811e-06	-9.964865e-10	-1.949752e+01	-6.907228e+01
1.230000e-06	-2.766746e-06	-9.877126e-10	-1.921920e+01	-6.864399e+01
1.240000e-06	-2.726522e-06	-9.801102e-10	-1.893979e+01	-6.820971e+01
1.250000e-06	-2.686169e-06	-9.745495e-10	-1.865948e+01	-6.776958e+01
1.260000e-06	-2.645598e-06	-9.733220e-10	-1.837765e+01	-6.732374e+01
1.270000e-06	-2.604738e-06	-9.711743e-10	-1.809382e+01	-6.687235e+01
1.280000e-06	-2.563602e-06	-9.654129e-10	-1.780807e+01	-6.641557e+01
1.290000e-06	-2.522176e-06	-9.592204e-10	-1.752030e+01	-6.595358e+01
1.300000e-06	-2.480434e-06	-9.513116e-10	-1.723034e+01	-6.548655e+01
1.310000e-06	-2.438294e-06	-9.401555e-10	-1.693761e+01	-6.501465e+01
1.320000e-06	-2.395904e-06	-9.297338e-10	-1.664315e+01	-6.453807e+01
1.330000e-06	-2.353299e-06	-9.213112e-10	-1.634719e+01	-6.405695e+01
1.340000e-06	-2.310398e-06	-9.131956e-10	-1.604918e+01	-6.357148e+01
1.350000e-06	-2.267265e-06	-9.065240e-10	-1.574956e+01	-6.308178e+01
1.360000e-06	-2.223878e-06	-8.990606e-10	-1.544818e+01	-6.258799e+01
1.370000e-06	-2.180310e-06	-8.886088e-10	-1.514553e+01	-6.209022e+01
1.380000e-06	-2.136682e-06	-8.762852e-10	-1.484247e+01	-6.158854e+01
1.390000e-06	-2.092978e-06	-8.663738e-10	-1.453887e+01	-6.108301e+01
1.400000e-06	-2.049190e-06	-8.589005e-10	-1.423470e+01	-6.057364e+01
1.410000e-06	-2.005306e-06	-8.533637e-10	-1.392986e+01	-6.006041e+01
1.420000e-06	-1.961336e-06	-8.483803e-10	-1.362443e+01	-5.954326e+01
1.430000e-06	-1.917308e-06	-8.442114e-10	-1.331858e+01	-5.902208e+01
1.440000e-06	-1.873251e-06	-8.377263e-10	-1.301254e+01	-5.849672e+01
1.450000e-06	-1.829110e-06	-8.291958e-10	-1.270591e+01	-5.796696e+01
1.460000e-06	-1.784794e-06	-8.185794e-10	-1.239808e+01	-5.743254e+01
1.470000e-06	-1.740371e-06	-8.071840e-10	-1.208949e+01	-5.689314e+01
1.480000e-06	-1.695825e-06	-7.953338e-10	-1.178005e+01	-5.634836e+01
1.490000e-06	-1.651148e-06	-7.860082e-10	-1.146970e+01	-5.579776e+01
1.500000e-06	-1.606321e-06	-7.780061e-10	-1.115831e+01	-5.524084e+01
1.510000e-06	-1.561317e-06	-7.703114e-10	-1.084569e+01	-5.467700e+01
1.520000e-06	-1.516201e-06	-7.640052e-10	-1.053229e+01	-5.410562e+01
1.530000e-06	-1.470959e-06	-7.596739e-10	-1.021802e+01	-5.352598e+01
1.540000e-06	-1.425644e-06	-7.532516e-10	-9.903239e+00	-5.293731e+01
1.550000e-06	-1.380268e-06	-7.434113e-10	-9.588037e+00	-5.233878e+01
1.560000e-06	-1.334737e-06	-7.307477e-10	-9.271756e+00	-5.172950e+01
1.570000e-06	-1.289087e-06	-7.188669e-10	-8.954647e+00	-5.110850e+01
1.580000e-06	-1.243419e-06	-7.089216e-10	-8.637410e+00	-5.047479e+01
1.590000e-06	-1.197718e-06	-7.013717e-10	-8.319952e+00	-4.982730e+01
1.600000e-06	-1.151826e-06	-6.946737e-10	-8.001160e+00	-4.916494e+01
1.610000e-06	-1.105864e-06	-6.869510e-10	-7.681888e+00	-4.848656e+01
1.620000e-06	-1.059918e-06	-6.771833e-10	-7.362719e+00	-4.779098e+01
1.630000e-06	-1.013871e-06	-6.651283e-10	-7.042854e+00	-4.707699e+01
1.640000e-06	-9.677582e-07	-6.517873e-10	-6.722535e+00	-4.634338e+01
1.650000e-06	-9.216085e-07	-6.369901e-10	-6.401956e+00	-4.558889e+01
1.660000e-06	-8.753140e-07	-6.212281e-10	-6.080370e+00	-4.481228e+01
1.670000e-06	-8.289004e-07	-6.039333e-10	-5.757958e+00	-4.401232e+01
1.680000e-06	-7.824734e-07	-5.883823e-10	-5.435453e+00	-4.318776e+01
1.690000e-06	-7.359818e-07	-5.736807e-10	-5.112499e+00	-4.233741e+01
1.700000e-06	-6.894864e-07	-5.608658e-10	-4.789519e+00	-4.146007e+01
1.710000e-06	-6.429405e-07	-5.456840e-10	-4.466187e+00	-4.055461e+01
1.720000e-06	-5.963263e-07	-5.323895e-10	-4.142382e+00	-3.961994e+01
1.730000e-06	-5.497086e-07	-5.211350e-10	-3.818552e+00	-3.865501e+01
1.740000e-06	-5.030762e-07	-5.065801e-10	-3.494620e+00	-3.765887e+01
1.750000e-06	-4.564570e-07	-4.874100e-10	-3.170780e+00	-3.663062e+01
1.760000e-06	-4.098185e-07	-4.666777e-10	-2.846805e+00	-3.556945e+01
1.770000e-06	-3.631043e-07	-4.472250e-10	-2.522305e+00	-3.447466e+01
1.780000e-06	-3.163337e-07	-4.282607e-10	-2.197413e+00	-3.334563e+01
1.790000e-06	-2.696105e-07	-4.118959e-10	-1.872850e+00	-3.218185e+01
1.800000e-06	-2.228747e-07	-3.964269e-10	-1.548200e+00	-3.098296e+01
1.810000e-06	-1.760220e-07	-3.794610e-10	-1.222737e+00	-2.974867e+01
1.820000e-06	-1.291706e-07	-3.601775e-10	-8.972839e-01	-2.847887e+01
1.830000e-06	-8.245697e-08	-3.407865e-10	-5.727875e-01	-2.717355e+01
1.840000e-06	-3.572841e-08	-3.221822e-10	-2.481875e-01	-2.583284e+01
1.850000e-06	1.119186e-08	-3.033626e-10	7.774427e-02	-2.445703e+01
1.860000e-06	5.813645e-08	-2.841914e-10	4.038450e-01	-2.304654e+01
1.870000e-06	1.050181e-07	-2.636474e-10	7.295084e-01	-2.160193e+01
1.880000e-06	1.518441e-07	-2.424901e-10	1.054785e+00	-2.012393e+01
1.890000e-06	1.986122e-07	-2.234377e-10	1.379660e+00	-1.861337e+01
1.900000e-06	2.454014e-07	-2.068816e-10	1.704681e+00	-1.707128e+01
1.910000e-06	2.922965e-07	-1.903825e-10	2.030438e+00	-1.549878e+01
1.920000e-06	3.391480e-07	-1.720823e-10	2.355892e+00	-1.389717e+01
1.930000e-06	3.859062e-07	-1.525728e-10	2.680698e+00	-1.226784e+01
1.940000e-06	4.326617e-07	-1.274039e-10	3.005486e+00	-1.061235e+01
1.950000e-06	4.793153e-07	-9.937892e-11	3.329564e+00	-8.932350e+00
1.960000e-06	5.259500e-07	-7.317902e-11	3.653513e+00	-7.229623e+00
1.970000e-06	5.725919e-07	-5.006969e-11	3.977511e+00	-5.506049e+00
1.980000e-06	6.191522e-07	-2.759956e-11	4.300942e+00	-3.763610e+00
1.990000e-06	6.656509e-07	-6.218489e-12	4.623946e+00	-2.004375e+00
2.000000e-06	7.121130e-07	1.505437e-11	4.946694e+00	-2.304907e-01
2.010000e-06	7.584708e-07	4.016418e-11	5.268719e+00	1.555829e+00
2.020000e-06	8.047878e-07	6.776347e-11	5.590460e+00	3.352314e+00
2.030000e-06	8.510507e-07	9.384243e-11	5.911826e+00	5.156647e+00
2.040000e-06	8.972556e-07	1.174023e-10	6.232788e+00	6.966483e+00
2.050000e-06	9.434490e-07	1.407437e-10	6.553671e+00	8.779450e+00
2.060000e-06	9.895652e-07	1.661812e-10	6.874017e+00	1.059317e+01
2.070000e-06	1.035580e-06	1.929790e-10	7.193660e+00	1.240528e+01
2.080000e-06	1.081478e-06	2.190770e-10	7.512491e+00	1.421341e+01
2.090000e-06	1.127305e-06	2.455101e-10	7.830828e+00	1.601523e+01
2.100000e-06	1.173087e-06	2.723717e-10	8.148853e+00	1.780845e+01
2.110000e-06	1.218831e-06	2.978533e-10	8.466614e+00	1.959084e+01
2.120000e-06	1.264493e-06	3.201677e-10	8.783802e+00	2.136022e+01
2.130000e-06	1.309989e-06	3.411257e-10	9.099843e+00	2.311448e+01
2.140000e-06	1.355394e-06	3.617940e-10	9.415246e+00	2.485161e+01
2.150000e-06	1.400760e-06	3.830594e-10	9.730383e+00	2.656966e+01
2.160000e-06	1.446032e-06	4.079266e-10	1.004487e+01	2.826682e+01
2.170000e-06	1.491129e-06	4.364324e-10	1.035813e+01	2.994135e+01
2.180000e-06	1.535984e-06	4.621972e-10	1.066971e+01	3.159165e+01
2.190000e-06	1.580769e-06	4.848025e-10	1.098081e+01	3.321624e+01
2.200000e-06	1.625511e-06	5.056702e-10	1.129161e+01	3.481375e+01
2.210000e-06	1.670140e-06	5.237860e-10	1.160163e+01	3.638295e+01
2.220000e-06	1.714697e-06	5.391492e-10	1.191115e+01	3.792273e+01
2.230000e-06	1.759131e-06	5.566993e-10	1.221981e+01	3.943215e+01
2.240000e-06	1.803409e-06	5.773394e-10	1.252738e+01	4.091035e+01
2.250000e-06	1.847590e-06	5.982886e-10	1.283429e+01	4.235666e+01
2.260000e-06	1.891694e-06	6.204769e-10	1.314066e+01	4.377052e+01
2.270000e-06	1.935735e-06	6.447381e-10	1.344659e+01	4.515149e+01
2.280000e-06	1.979718e-06	6.676019e-10	1.375212e+01	4.649928e+01
2.290000e-06	2.023648e-06	6.866586e-10	1.405728e+01	4.781373e+01
2.300000e-06	2.067502e-06	7.022213e-10	1.436191e+01	4.909479e+01
2.310000e-06	2.111225e-06	7.153597e-10	1.466563e+01	5.034253e+01
2.320000e-06	2.154884e-06	7.281334e-10	1.496891e+01	5.155713e+01
2.330000e-06	2.198507e-06	7.428674e-10	1.527193e+01	5.273888e+01
2.340000e-06	2.241967e-06	7.593002e-10	1.557383e+01	5.388816e+01
2.350000e-06	2.285235e-06	7.761136e-10	1.587439e+01	5.500545e+01
2.360000e-06	2.328275e-06	7.931193e-10	1.617336e+01	5.609130e+01
2.370000e-06	2.371048e-06	8.081201e-10	1.647049e+01	5.714634e+01
2.380000e-06	2.413551e-06	8.204637e-10	1.676573e+01	5.817126e+01
2.390000e-06	2.455771e-06	8.335211e-10	1.705902e+01	5.916681e+01
2.400000e-06	2.497643e-06	8.486954e-10	1.734988e+01	6.013379e+01
2.410000e-06	2.539112e-06	8.646447e-10	1.763795e+01	6.107304e+01
2.420000e-06	2.580249e-06	8.784314e-10	1.792370e+01	6.198540e+01
2.430000e-06	2.621088e-06	8.916127e-10	1.820739e+01	6.287178e+01
2.440000e-06	2.661757e-06	9.028084e-10	1.848990e+01	6.373307e+01
2.450000e-06	2.702273e-06	9.109474e-10	1.877134e+01	6.457016e+01
2.460000e-06	2.742597e-06	9.193889e-10	1.905145e+01	6.538395e+01
2.470000e-06	2.782762e-06	9.307674e-10	1.933046e+01	6.617534e+01
2.480000e-06	2.822776e-06	9.437627e-10	1.960842e+01	6.694519e+01
2.490000e-06	2.862733e-06	9.562299e-10	1.988598e+01	6.769434e+01
2.500000e-06	2.902578e-06	9.684484e-10	2.016276e+01	6.842363e+01
2.510000e-06	2.942258e-06	9.773097e-10	2.043840e+01	6.913382e+01
2.520000e-06	2.981792e-06	9.834410e-10	2.071303e+01	6.982567e+01
2.530000e-06	3.021022e-06	9.885881e-10	2.098554e+01	7.049988e+01
2.540000e-06	3.059941e-06	9.955199e-10	2.125588e+01	7.115711e+01
2.550000e-06	3.098677e-06	1.004558e-09	2.152496e+01	7.179798e+01
2.560000e-06	3.137227e-06	1.015723e-09	2.179276e+01	7.242304e+01
2.570000e-06	3.175563e-06	1.028926e-09	2.205905e+01	7.303283e+01
2.580000e-06	3.213666e-06	1.040192e-09	2.232374e+01	7.362779e+01
2.590000e-06	3.251585e-06	1.048151e-09	2.258714e+01	7.420837e+01
2.600000e-06	3.289369e-06	1.054816e-09	2.284961e+01	7.477492e+01
2.610000e-06	3.326928e-06	1.060456e-09	2.311051e+01	7.532778e+01
2.620000e-06	3.364192e-06	1.065488e-09	2.336936e+01	7.586723e+01
2.630000e-06	3.401219e-06	1.068048e-09	2.362657e+01	7.639351e+01
2.640000e-06	3.438011e-06	1.073158e-09	2.388215e+01	7.690684e+01
2.650000e-06	3.474552e-06	1.081242e-09	2.413598e+01	7.740739e+01
2.660000e-06	3.510860e-06	1.089605e-09	2.438820e+01	7.789530e+01
2.670000e-06	3.546974e-06	1.097108e-09	2.463906e+01	7.837069e+01
2.680000e-06	3.582953e-06	1.102365e-09	2.488899e+01	7.883366e+01
2.690000e-06	3.618815e-06	1.107234e-09	2.513811e+01	7.928430e+01
2.700000e-06	3.654513e-06	1.112357e-09	2.538608e+01	7.972268e+01
2.710000e-06	3.690027e-06	1.116960e-09	2.563278e+01	8.014886e+01
2.720000e-06	3.725329e-06	1.122826e-09	2.587800e+01	8.056290e+01
2.730000e-06	3.760299e-06	1.131721e-09	2.612093e+01	8.096488e+01
2.740000e-06	3.794890e-06	1.140480e-09	2.636121e+01	8.135485e+01
2.750000e-06	3.829076e-06	1.146520e-09	2.659869e+01	8.173290e+01
2.760000e-06	3.862814e-06	1.151558e-09	2.683305e+01	8.209913e+01
2.770000e-06	3.895981e-06	1.156931e-09	2.706344e+01	8.245365e+01
2.780000e-06	3.928597e-06	1.161005e-09	2.729001e+01	8.279658e+01
2.790000e-06	3.960893e-06	1.164826e-09	2.751435e+01	8.312809e+01
2.800000e-06	3.993054e-06	1.169463e-09	2.773776e+01	8.344835e+01
2.810000e-06	4.025065e-06	1.174261e-09	2.796012e+01	8.375758e+01
2.820000e-06	4.056870e-06	1.177792e-09	2.818106e+01	8.405600e+01
2.830000e-06	4.088476e-06	1.181336e-09	2.840061e+01	8.434388e+01
2.840000e-06	4.119863e-06	1.184841e-09	2.861864e+01	8.462152e+01
2.850000e-06	4.151020e-06	1.188662e-09	2.883507e+01	8.488923e+01
2.860000e-06	4.181876e-06	1.195045e-09	2.904941e+01	8.514737e+01
2.870000e-06	4.212373e-06	1.203980e-09	2.926126e+01	8.539630e+01
2.880000e-06	4.242455e-06	1.213071e-09	2.947022e+01	8.563643e+01
2.890000e-06	4.272270e-06	1.221792e-09	2.967733e+01	8.586818e+01
2.900000e-06	4.301895e-06	1.230328e-09	2.988313e+01	8.609200e+01
