# Temperatura_=_13.9
# Concentracion g/m^3_=_1620.0
# C_Vs_to_Am_M_A/Vsm_=_65563218390.804596
# pendiente_HvsI_1/m_=_3716.3
# ordenada_HvsI_A/m_=_1297.0
# frecuencia_Hz_=_135101.07496164963

Tiempo_(s)	Campo_(V.s)	Magnetizacion_(V.s)	Campo_(kA/m)	Magnetizacion_(A/m)
0.000000e+00	-5.525708e-06	-1.518929e-09	-3.837799e+01	-1.011613e+02
1.000000e-08	-5.526046e-06	-1.518924e-09	-3.838033e+01	-1.011750e+02
2.000000e-08	-5.526079e-06	-1.519667e-09	-3.838057e+01	-1.011905e+02
3.000000e-08	-5.525811e-06	-1.520702e-09	-3.837870e+01	-1.012076e+02
4.000000e-08	-5.525141e-06	-1.520514e-09	-3.837405e+01	-1.012259e+02
5.000000e-08	-5.524009e-06	-1.516786e-09	-3.836619e+01	-1.012450e+02
6.000000e-08	-5.522258e-06	-1.508510e-09	-3.835403e+01	-1.012644e+02
7.000000e-08	-5.519848e-06	-1.502800e-09	-3.833729e+01	-1.012838e+02
8.000000e-08	-5.516970e-06	-1.522714e-09	-3.831730e+01	-1.013027e+02
9.000000e-08	-5.513633e-06	-1.523763e-09	-3.829413e+01	-1.013205e+02
1.000000e-07	-5.509766e-06	-1.497484e-09	-3.826727e+01	-1.013367e+02
1.100000e-07	-5.505461e-06	-1.503607e-09	-3.823737e+01	-1.013508e+02
1.200000e-07	-5.500952e-06	-1.533136e-09	-3.820605e+01	-1.013623e+02
1.300000e-07	-5.496235e-06	-1.513000e-09	-3.817329e+01	-1.013705e+02
1.400000e-07	-5.491155e-06	-1.491810e-09	-3.813801e+01	-1.013751e+02
1.500000e-07	-5.485694e-06	-1.472516e-09	-3.810008e+01	-1.013754e+02
1.600000e-07	-5.479885e-06	-1.529863e-09	-3.805973e+01	-1.013709e+02
1.700000e-07	-5.473659e-06	-1.497460e-09	-3.801649e+01	-1.013612e+02
1.800000e-07	-5.467060e-06	-1.515738e-09	-3.797066e+01	-1.013457e+02
1.900000e-07	-5.460106e-06	-1.527122e-09	-3.792236e+01	-1.013240e+02
2.000000e-07	-5.452737e-06	-1.583283e-09	-3.787118e+01	-1.012957e+02
2.100000e-07	-5.445061e-06	-1.538821e-09	-3.781787e+01	-1.012603e+02
2.200000e-07	-5.437157e-06	-1.529950e-09	-3.776297e+01	-1.012177e+02
2.300000e-07	-5.429079e-06	-1.535695e-09	-3.770686e+01	-1.011673e+02
2.400000e-07	-5.420681e-06	-1.560269e-09	-3.764854e+01	-1.011090e+02
2.500000e-07	-5.411605e-06	-1.553432e-09	-3.758551e+01	-1.010425e+02
2.600000e-07	-5.401754e-06	-1.545941e-09	-3.751709e+01	-1.009678e+02
2.700000e-07	-5.391330e-06	-1.548394e-09	-3.744469e+01	-1.008845e+02
2.800000e-07	-5.380441e-06	-1.522820e-09	-3.736906e+01	-1.007927e+02
2.900000e-07	-5.369070e-06	-1.520724e-09	-3.729008e+01	-1.006923e+02
3.000000e-07	-5.357311e-06	-1.505492e-09	-3.720841e+01	-1.005834e+02
3.100000e-07	-5.345188e-06	-1.527795e-09	-3.712421e+01	-1.004660e+02
3.200000e-07	-5.332636e-06	-1.505815e-09	-3.703704e+01	-1.003402e+02
3.300000e-07	-5.319680e-06	-1.546725e-09	-3.694705e+01	-1.002061e+02
3.400000e-07	-5.306352e-06	-1.518171e-09	-3.685449e+01	-1.000640e+02
3.500000e-07	-5.292623e-06	-1.528394e-09	-3.675913e+01	-9.991413e+01
3.600000e-07	-5.278415e-06	-1.512423e-09	-3.666045e+01	-9.975667e+01
3.700000e-07	-5.263790e-06	-1.525419e-09	-3.655888e+01	-9.959195e+01
3.800000e-07	-5.248712e-06	-1.473083e-09	-3.645416e+01	-9.942031e+01
3.900000e-07	-5.233052e-06	-1.510498e-09	-3.634539e+01	-9.924210e+01
4.000000e-07	-5.216799e-06	-1.525793e-09	-3.623251e+01	-9.905769e+01
4.100000e-07	-5.200233e-06	-1.493462e-09	-3.611745e+01	-9.886748e+01
4.200000e-07	-5.183473e-06	-1.461303e-09	-3.600105e+01	-9.867188e+01
4.300000e-07	-5.166325e-06	-1.519671e-09	-3.588195e+01	-9.847128e+01
4.400000e-07	-5.148817e-06	-1.494133e-09	-3.576035e+01	-9.826613e+01
4.500000e-07	-5.131021e-06	-1.445544e-09	-3.563675e+01	-9.805682e+01
4.600000e-07	-5.112705e-06	-1.482704e-09	-3.550954e+01	-9.784379e+01
4.700000e-07	-5.093866e-06	-1.512554e-09	-3.537870e+01	-9.762743e+01
4.800000e-07	-5.074684e-06	-1.439921e-09	-3.524547e+01	-9.740815e+01
4.900000e-07	-5.055227e-06	-1.444448e-09	-3.511033e+01	-9.718633e+01
5.000000e-07	-5.035582e-06	-1.499399e-09	-3.497389e+01	-9.696233e+01
5.100000e-07	-5.015757e-06	-1.457325e-09	-3.483620e+01	-9.673648e+01
5.200000e-07	-4.995691e-06	-1.425150e-09	-3.469683e+01	-9.650912e+01
5.300000e-07	-4.975343e-06	-1.478605e-09	-3.455551e+01	-9.628052e+01
5.400000e-07	-4.954660e-06	-1.471444e-09	-3.441186e+01	-9.605096e+01
5.500000e-07	-4.933545e-06	-1.412981e-09	-3.426521e+01	-9.582065e+01
5.600000e-07	-4.912014e-06	-1.446029e-09	-3.411567e+01	-9.558981e+01
5.700000e-07	-4.890184e-06	-1.449237e-09	-3.396405e+01	-9.535859e+01
5.800000e-07	-4.868072e-06	-1.398061e-09	-3.381047e+01	-9.512713e+01
5.900000e-07	-4.845569e-06	-1.405022e-09	-3.365418e+01	-9.489552e+01
6.000000e-07	-4.822633e-06	-1.452844e-09	-3.349489e+01	-9.466383e+01
6.100000e-07	-4.799344e-06	-1.417032e-09	-3.333314e+01	-9.443209e+01
6.200000e-07	-4.775843e-06	-1.407879e-09	-3.316991e+01	-9.420028e+01
6.300000e-07	-4.752123e-06	-1.425622e-09	-3.300517e+01	-9.396838e+01
6.400000e-07	-4.728174e-06	-1.413463e-09	-3.283883e+01	-9.373632e+01
6.500000e-07	-4.703957e-06	-1.380031e-09	-3.267064e+01	-9.350400e+01
6.600000e-07	-4.679384e-06	-1.400571e-09	-3.249997e+01	-9.327130e+01
6.700000e-07	-4.654360e-06	-1.398516e-09	-3.232617e+01	-9.303807e+01
6.800000e-07	-4.628761e-06	-1.390971e-09	-3.214838e+01	-9.280414e+01
6.900000e-07	-4.602513e-06	-1.387359e-09	-3.196607e+01	-9.256931e+01
7.000000e-07	-4.575715e-06	-1.396956e-09	-3.177995e+01	-9.233339e+01
7.100000e-07	-4.548550e-06	-1.381123e-09	-3.159128e+01	-9.209614e+01
7.200000e-07	-4.521147e-06	-1.374499e-09	-3.140096e+01	-9.185733e+01
7.300000e-07	-4.493538e-06	-1.364184e-09	-3.120920e+01	-9.161672e+01
7.400000e-07	-4.465729e-06	-1.363141e-09	-3.101606e+01	-9.137404e+01
7.500000e-07	-4.437771e-06	-1.357920e-09	-3.082189e+01	-9.112905e+01
7.600000e-07	-4.409637e-06	-1.359277e-09	-3.062648e+01	-9.088148e+01
7.700000e-07	-4.381158e-06	-1.355564e-09	-3.042869e+01	-9.063107e+01
7.800000e-07	-4.352285e-06	-1.348677e-09	-3.022815e+01	-9.037757e+01
7.900000e-07	-4.323066e-06	-1.337869e-09	-3.002522e+01	-9.012072e+01
8.000000e-07	-4.293538e-06	-1.332530e-09	-2.982014e+01	-8.986029e+01
8.100000e-07	-4.263769e-06	-1.330208e-09	-2.961338e+01	-8.959605e+01
8.200000e-07	-4.233705e-06	-1.324833e-09	-2.940458e+01	-8.932776e+01
8.300000e-07	-4.203296e-06	-1.323421e-09	-2.919337e+01	-8.905521e+01
8.400000e-07	-4.172567e-06	-1.319261e-09	-2.897995e+01	-8.877822e+01
8.500000e-07	-4.141566e-06	-1.315441e-09	-2.876463e+01	-8.849659e+01
8.600000e-07	-4.110310e-06	-1.308653e-09	-2.854755e+01	-8.821015e+01
8.700000e-07	-4.078845e-06	-1.305418e-09	-2.832901e+01	-8.791876e+01
8.800000e-07	-4.047203e-06	-1.294211e-09	-2.810925e+01	-8.762228e+01
8.900000e-07	-4.015399e-06	-1.290573e-09	-2.788836e+01	-8.732058e+01
9.000000e-07	-3.983411e-06	-1.281642e-09	-2.766620e+01	-8.701357e+01
9.100000e-07	-3.951193e-06	-1.278249e-09	-2.744243e+01	-8.670114e+01
9.200000e-07	-3.918718e-06	-1.272603e-09	-2.721688e+01	-8.638323e+01
9.300000e-07	-3.885799e-06	-1.272578e-09	-2.698824e+01	-8.605977e+01
9.400000e-07	-3.852343e-06	-1.262243e-09	-2.675588e+01	-8.573072e+01
9.500000e-07	-3.818498e-06	-1.258388e-09	-2.652081e+01	-8.539604e+01
9.600000e-07	-3.784194e-06	-1.251405e-09	-2.628256e+01	-8.505571e+01
9.700000e-07	-3.749469e-06	-1.245227e-09	-2.604139e+01	-8.470971e+01
9.800000e-07	-3.714404e-06	-1.232451e-09	-2.579784e+01	-8.435805e+01
9.900000e-07	-3.678974e-06	-1.228561e-09	-2.555177e+01	-8.400072e+01
1.000000e-06	-3.643327e-06	-1.221752e-09	-2.530419e+01	-8.363775e+01
1.010000e-06	-3.607572e-06	-1.216658e-09	-2.505586e+01	-8.326914e+01
1.020000e-06	-3.571752e-06	-1.210264e-09	-2.480708e+01	-8.289492e+01
1.030000e-06	-3.535804e-06	-1.208177e-09	-2.455740e+01	-8.251512e+01
1.040000e-06	-3.499638e-06	-1.202176e-09	-2.430622e+01	-8.212976e+01
1.050000e-06	-3.463265e-06	-1.195069e-09	-2.405360e+01	-8.173889e+01
1.060000e-06	-3.426700e-06	-1.187384e-09	-2.379964e+01	-8.134252e+01
1.070000e-06	-3.389825e-06	-1.176425e-09	-2.354353e+01	-8.094069e+01
1.080000e-06	-3.352630e-06	-1.163315e-09	-2.328520e+01	-8.053345e+01
1.090000e-06	-3.315215e-06	-1.157810e-09	-2.302534e+01	-8.012080e+01
1.100000e-06	-3.277538e-06	-1.155213e-09	-2.276366e+01	-7.970280e+01
1.110000e-06	-3.239602e-06	-1.149692e-09	-2.250018e+01	-7.927946e+01
1.120000e-06	-3.201397e-06	-1.143964e-09	-2.223483e+01	-7.885082e+01
1.130000e-06	-3.162945e-06	-1.137965e-09	-2.196777e+01	-7.841689e+01
1.140000e-06	-3.124350e-06	-1.129086e-09	-2.169971e+01	-7.797771e+01
1.150000e-06	-3.085600e-06	-1.116814e-09	-2.143058e+01	-7.753329e+01
1.160000e-06	-3.046638e-06	-1.108358e-09	-2.115997e+01	-7.708366e+01
1.170000e-06	-3.007446e-06	-1.097527e-09	-2.088777e+01	-7.662882e+01
1.180000e-06	-2.968022e-06	-1.089861e-09	-2.061396e+01	-7.616881e+01
1.190000e-06	-2.928399e-06	-1.084054e-09	-2.033876e+01	-7.570364e+01
1.200000e-06	-2.888681e-06	-1.080510e-09	-2.006291e+01	-7.523331e+01
1.210000e-06	-2.848898e-06	-1.069050e-09	-1.978660e+01	-7.475786e+01
1.220000e-06	-2.809019e-06	-1.060822e-09	-1.950963e+01	-7.427728e+01
1.230000e-06	-2.769016e-06	-1.053182e-09	-1.923179e+01	-7.379159e+01
1.240000e-06	-2.728803e-06	-1.048080e-09	-1.895250e+01	-7.330080e+01
1.250000e-06	-2.688319e-06	-1.040437e-09	-1.867132e+01	-7.280493e+01
1.260000e-06	-2.647557e-06	-1.036819e-09	-1.838822e+01	-7.230399e+01
1.270000e-06	-2.606541e-06	-1.031198e-09	-1.810334e+01	-7.179797e+01
1.280000e-06	-2.565343e-06	-1.020658e-09	-1.781721e+01	-7.128689e+01
1.290000e-06	-2.523939e-06	-1.009231e-09	-1.752964e+01	-7.077074e+01
1.300000e-06	-2.482291e-06	-1.002725e-09	-1.724039e+01	-7.024953e+01
1.310000e-06	-2.440343e-06	-9.944540e-10	-1.694904e+01	-6.972324e+01
1.320000e-06	-2.397921e-06	-9.875417e-10	-1.665440e+01	-6.919186e+01
1.330000e-06	-2.355173e-06	-9.801633e-10	-1.635751e+01	-6.865536e+01
1.340000e-06	-2.312220e-06	-9.711715e-10	-1.605919e+01	-6.811372e+01
1.350000e-06	-2.268951e-06	-9.596668e-10	-1.575867e+01	-6.756687e+01
1.360000e-06	-2.225549e-06	-9.484227e-10	-1.545722e+01	-6.701477e+01
1.370000e-06	-2.182073e-06	-9.373730e-10	-1.515526e+01	-6.645734e+01
1.380000e-06	-2.138432e-06	-9.276621e-10	-1.485216e+01	-6.589448e+01
1.390000e-06	-2.094702e-06	-9.188737e-10	-1.454844e+01	-6.532607e+01
1.400000e-06	-2.050911e-06	-9.127968e-10	-1.424430e+01	-6.475197e+01
1.410000e-06	-2.007073e-06	-9.058787e-10	-1.393983e+01	-6.417202e+01
1.420000e-06	-1.963128e-06	-8.955360e-10	-1.363462e+01	-6.358602e+01
1.430000e-06	-1.919080e-06	-8.848881e-10	-1.332869e+01	-6.299375e+01
1.440000e-06	-1.875019e-06	-8.733401e-10	-1.302267e+01	-6.239493e+01
1.450000e-06	-1.830872e-06	-8.634187e-10	-1.271605e+01	-6.178928e+01
1.460000e-06	-1.786568e-06	-8.533373e-10	-1.240834e+01	-6.117647e+01
1.470000e-06	-1.742165e-06	-8.434654e-10	-1.209995e+01	-6.055611e+01
1.480000e-06	-1.697630e-06	-8.304384e-10	-1.179064e+01	-5.992779e+01
1.490000e-06	-1.652882e-06	-8.184195e-10	-1.147984e+01	-5.929104e+01
1.500000e-06	-1.607995e-06	-8.080870e-10	-1.116809e+01	-5.864536e+01
1.510000e-06	-1.563031e-06	-7.984514e-10	-1.085580e+01	-5.799020e+01
1.520000e-06	-1.517923e-06	-7.890085e-10	-1.054251e+01	-5.732496e+01
1.530000e-06	-1.472635e-06	-7.823737e-10	-1.022797e+01	-5.664898e+01
1.540000e-06	-1.427245e-06	-7.738437e-10	-9.912722e+00	-5.596158e+01
1.550000e-06	-1.381799e-06	-7.612547e-10	-9.597081e+00	-5.526202e+01
1.560000e-06	-1.336336e-06	-7.459590e-10	-9.281323e+00	-5.454951e+01
1.570000e-06	-1.290777e-06	-7.345569e-10	-8.964901e+00	-5.382323e+01
1.580000e-06	-1.245098e-06	-7.230698e-10	-8.647644e+00	-5.308230e+01
1.590000e-06	-1.199371e-06	-7.136525e-10	-8.330056e+00	-5.232582e+01
1.600000e-06	-1.153550e-06	-7.059022e-10	-8.011810e+00	-5.155286e+01
1.610000e-06	-1.107627e-06	-6.971911e-10	-7.692861e+00	-5.076243e+01
1.620000e-06	-1.061670e-06	-6.856572e-10	-7.373669e+00	-4.995354e+01
1.630000e-06	-1.015584e-06	-6.747074e-10	-7.053592e+00	-4.912518e+01
1.640000e-06	-9.693208e-07	-6.627397e-10	-6.732274e+00	-4.827630e+01
1.650000e-06	-9.230244e-07	-6.501731e-10	-6.410730e+00	-4.740586e+01
1.660000e-06	-8.767503e-07	-6.369346e-10	-6.089340e+00	-4.651281e+01
1.670000e-06	-8.304443e-07	-6.205529e-10	-5.767728e+00	-4.559609e+01
1.680000e-06	-7.840986e-07	-6.036434e-10	-5.445841e+00	-4.465468e+01
1.690000e-06	-7.377128e-07	-5.871867e-10	-5.123676e+00	-4.368756e+01
1.700000e-06	-6.912639e-07	-5.713949e-10	-4.801071e+00	-4.269371e+01
1.710000e-06	-6.448158e-07	-5.554827e-10	-4.478473e+00	-4.167219e+01
1.720000e-06	-5.982912e-07	-5.417564e-10	-4.155343e+00	-4.062206e+01
1.730000e-06	-5.516646e-07	-5.282203e-10	-3.831505e+00	-3.954246e+01
1.740000e-06	-5.050100e-07	-5.133863e-10	-3.507472e+00	-3.843256e+01
1.750000e-06	-4.582401e-07	-4.968847e-10	-3.182639e+00	-3.729161e+01
1.760000e-06	-4.114417e-07	-4.772374e-10	-2.857607e+00	-3.611893e+01
1.770000e-06	-3.646481e-07	-4.555092e-10	-2.532610e+00	-3.491391e+01
1.780000e-06	-3.178177e-07	-4.353389e-10	-2.207356e+00	-3.367605e+01
1.790000e-06	-2.710265e-07	-4.162948e-10	-1.882374e+00	-3.240493e+01
1.800000e-06	-2.241979e-07	-3.999916e-10	-1.557134e+00	-3.110023e+01
1.810000e-06	-1.773414e-07	-3.839554e-10	-1.231699e+00	-2.976174e+01
1.820000e-06	-1.304862e-07	-3.667499e-10	-9.062725e-01	-2.838936e+01
1.830000e-06	-8.360665e-08	-3.477338e-10	-5.806776e-01	-2.698312e+01
1.840000e-06	-3.677712e-08	-3.263595e-10	-2.554300e-01	-2.554316e+01
1.850000e-06	1.004586e-08	-3.031002e-10	6.977203e-02	-2.406976e+01
1.860000e-06	5.686110e-08	-2.799076e-10	3.949204e-01	-2.256331e+01
1.870000e-06	1.036765e-07	-2.575934e-10	7.200699e-01	-2.102435e+01
1.880000e-06	1.505326e-07	-2.366810e-10	1.045502e+00	-1.945355e+01
1.890000e-06	1.974073e-07	-2.171844e-10	1.371064e+00	-1.785169e+01
1.900000e-06	2.442633e-07	-1.979502e-10	1.696494e+00	-1.621972e+01
1.910000e-06	2.910757e-07	-1.762503e-10	2.021623e+00	-1.455870e+01
1.920000e-06	3.378425e-07	-1.534972e-10	2.346435e+00	-1.286981e+01
1.930000e-06	3.845768e-07	-1.294367e-10	2.671021e+00	-1.115437e+01
1.940000e-06	4.313793e-07	-1.030301e-10	2.996081e+00	-9.413832e+00
1.950000e-06	4.780975e-07	-7.654762e-11	3.320556e+00	-7.649738e+00
1.960000e-06	5.246488e-07	-5.173015e-11	3.643870e+00	-5.863757e+00
1.970000e-06	5.711775e-07	-2.916872e-11	3.967029e+00	-4.057660e+00
1.980000e-06	6.176892e-07	-5.291379e-12	4.290069e+00	-2.233312e+00
1.990000e-06	6.641840e-07	2.071806e-11	4.612992e+00	-3.926695e-01
2.000000e-06	7.106479e-07	4.905230e-11	4.935700e+00	1.462234e+00
2.010000e-06	7.569969e-07	7.819015e-11	5.257610e+00	3.329293e+00
2.020000e-06	8.032875e-07	1.068326e-10	5.579115e+00	5.206342e+00
2.030000e-06	8.495641e-07	1.330391e-10	5.900522e+00	7.091166e+00
2.040000e-06	8.958306e-07	1.580188e-10	6.221860e+00	8.981512e+00
2.050000e-06	9.420516e-07	1.823026e-10	6.542880e+00	1.087510e+01
2.060000e-06	9.881481e-07	2.068472e-10	6.863036e+00	1.276962e+01
2.070000e-06	1.034170e-06	2.325462e-10	7.182673e+00	1.466278e+01
2.080000e-06	1.080141e-06	2.573452e-10	7.501960e+00	1.655228e+01
2.090000e-06	1.126081e-06	2.841385e-10	7.821030e+00	1.843584e+01
2.100000e-06	1.171911e-06	3.136183e-10	8.139334e+00	2.031121e+01
2.110000e-06	1.217649e-06	3.425681e-10	8.457001e+00	2.217618e+01
2.120000e-06	1.263341e-06	3.675682e-10	8.774351e+00	2.402858e+01
2.130000e-06	1.308932e-06	3.884711e-10	9.090996e+00	2.586633e+01
2.140000e-06	1.354420e-06	4.082784e-10	9.406923e+00	2.768738e+01
2.150000e-06	1.399815e-06	4.292608e-10	9.722212e+00	2.948980e+01
2.160000e-06	1.445103e-06	4.537848e-10	1.003675e+01	3.127172e+01
2.170000e-06	1.490247e-06	4.806720e-10	1.035029e+01	3.303139e+01
2.180000e-06	1.535272e-06	5.070758e-10	1.066301e+01	3.476714e+01
2.190000e-06	1.580209e-06	5.312781e-10	1.097511e+01	3.647744e+01
2.200000e-06	1.624974e-06	5.536255e-10	1.128602e+01	3.816085e+01
2.210000e-06	1.669592e-06	5.734501e-10	1.159591e+01	3.981605e+01
2.220000e-06	1.714092e-06	5.905154e-10	1.190498e+01	4.144188e+01
2.230000e-06	1.758495e-06	6.090870e-10	1.221337e+01	4.303727e+01
2.240000e-06	1.802793e-06	6.299083e-10	1.252104e+01	4.460129e+01
2.250000e-06	1.846952e-06	6.500029e-10	1.282773e+01	4.613315e+01
2.260000e-06	1.891054e-06	6.696515e-10	1.313404e+01	4.763219e+01
2.270000e-06	1.935056e-06	6.917733e-10	1.343965e+01	4.909786e+01
2.280000e-06	1.978953e-06	7.132304e-10	1.374452e+01	5.052977e+01
2.290000e-06	2.022795e-06	7.323870e-10	1.404902e+01	5.192763e+01
2.300000e-06	2.066603e-06	7.504369e-10	1.435329e+01	5.329129e+01
2.310000e-06	2.110335e-06	7.673618e-10	1.465702e+01	5.462069e+01
2.320000e-06	2.153955e-06	7.824999e-10	1.495998e+01	5.591593e+01
2.330000e-06	2.197460e-06	7.974677e-10	1.526213e+01	5.717716e+01
2.340000e-06	2.240836e-06	8.138225e-10	1.556339e+01	5.840469e+01
2.350000e-06	2.284079e-06	8.314681e-10	1.586373e+01	5.959888e+01
2.360000e-06	2.327160e-06	8.502676e-10	1.616294e+01	6.076019e+01
2.370000e-06	2.369961e-06	8.664235e-10	1.646021e+01	6.188918e+01
2.380000e-06	2.412427e-06	8.797106e-10	1.675515e+01	6.298646e+01
2.390000e-06	2.454682e-06	8.943690e-10	1.704863e+01	6.405270e+01
2.400000e-06	2.496642e-06	9.094093e-10	1.734006e+01	6.508864e+01
2.410000e-06	2.538218e-06	9.239195e-10	1.762882e+01	6.609507e+01
2.420000e-06	2.579538e-06	9.378994e-10	1.791580e+01	6.707280e+01
2.430000e-06	2.620590e-06	9.514757e-10	1.820092e+01	6.802269e+01
2.440000e-06	2.661358e-06	9.652634e-10	1.848407e+01	6.894562e+01
2.450000e-06	2.701919e-06	9.771282e-10	1.876578e+01	6.984247e+01
2.460000e-06	2.742300e-06	9.885364e-10	1.904624e+01	7.071413e+01
2.470000e-06	2.782477e-06	1.000625e-09	1.932528e+01	7.156152e+01
2.480000e-06	2.822481e-06	1.013493e-09	1.960313e+01	7.238551e+01
2.490000e-06	2.862359e-06	1.027359e-09	1.988009e+01	7.318698e+01
2.500000e-06	2.902117e-06	1.040594e-09	2.015623e+01	7.396680e+01
2.510000e-06	2.941698e-06	1.052126e-09	2.043113e+01	7.472579e+01
2.520000e-06	2.981040e-06	1.061361e-09	2.070437e+01	7.546477e+01
2.530000e-06	3.020179e-06	1.069939e-09	2.097621e+01	7.618450e+01
2.540000e-06	3.059174e-06	1.079391e-09	2.124704e+01	7.688572e+01
2.550000e-06	3.097971e-06	1.089775e-09	2.151650e+01	7.756913e+01
2.560000e-06	3.136538e-06	1.100779e-09	2.178436e+01	7.823540e+01
2.570000e-06	3.174964e-06	1.111770e-09	2.205124e+01	7.888513e+01
2.580000e-06	3.213192e-06	1.120981e-09	2.231675e+01	7.951889e+01
2.590000e-06	3.251141e-06	1.129518e-09	2.258032e+01	8.013722e+01
2.600000e-06	3.288808e-06	1.139534e-09	2.284193e+01	8.074060e+01
2.610000e-06	3.326281e-06	1.149053e-09	2.310220e+01	8.132948e+01
2.620000e-06	3.363537e-06	1.157202e-09	2.336095e+01	8.190426e+01
2.630000e-06	3.400505e-06	1.164053e-09	2.361771e+01	8.246531e+01
2.640000e-06	3.437234e-06	1.170893e-09	2.387280e+01	8.301295e+01
2.650000e-06	3.473712e-06	1.178030e-09	2.412615e+01	8.354748e+01
2.660000e-06	3.509945e-06	1.185785e-09	2.437780e+01	8.406917e+01
2.670000e-06	3.546014e-06	1.192831e-09	2.462831e+01	8.457826e+01
2.680000e-06	3.581963e-06	1.198751e-09	2.487800e+01	8.507495e+01
2.690000e-06	3.617784e-06	1.206257e-09	2.512678e+01	8.555946e+01
2.700000e-06	3.653388e-06	1.214812e-09	2.537407e+01	8.603194e+01
2.710000e-06	3.688840e-06	1.221619e-09	2.562029e+01	8.649258e+01
2.720000e-06	3.724125e-06	1.228036e-09	2.586536e+01	8.694153e+01
2.730000e-06	3.759039e-06	1.235808e-09	2.610785e+01	8.737895e+01
2.740000e-06	3.793599e-06	1.242240e-09	2.634788e+01	8.780498e+01
2.750000e-06	3.827795e-06	1.247725e-09	2.658538e+01	8.821979e+01
2.760000e-06	3.861467e-06	1.255943e-09	2.681925e+01	8.862353e+01
2.770000e-06	3.894649e-06	1.264675e-09	2.704971e+01	8.901637e+01
2.780000e-06	3.927471e-06	1.270861e-09	2.727767e+01	8.939850e+01
2.790000e-06	3.959977e-06	1.278057e-09	2.750344e+01	8.977010e+01
2.800000e-06	3.992141e-06	1.283789e-09	2.772682e+01	9.013139e+01
2.810000e-06	4.024036e-06	1.287057e-09	2.794835e+01	9.048258e+01
2.820000e-06	4.055799e-06	1.290551e-09	2.816895e+01	9.082392e+01
2.830000e-06	4.087419e-06	1.299045e-09	2.838856e+01	9.115566e+01
2.840000e-06	4.118824e-06	1.307062e-09	2.860668e+01	9.147809e+01
2.850000e-06	4.149930e-06	1.313021e-09	2.882273e+01	9.179150e+01
2.860000e-06	4.180795e-06	1.319558e-09	2.903710e+01	9.209620e+01
2.870000e-06	4.211412e-06	1.323832e-09	2.924974e+01	9.239252e+01
2.880000e-06	4.241678e-06	1.326757e-09	2.945995e+01	9.268080e+01
2.890000e-06	4.271660e-06	1.330285e-09	2.966818e+01	9.296139e+01
2.900000e-06	4.301351e-06	1.336012e-09	2.987440e+01	9.323466e+01
