# Temperatura_=_-9.1
# Concentracion g/m^3_=_1620.0
# C_Vs_to_Am_M_A/Vsm_=_65563218390.804596
# pendiente_HvsI_1/m_=_3716.3
# ordenada_HvsI_A/m_=_1297.0
# frecuencia_Hz_=_135109.79509288204

Tiempo_(s)	Campo_(V.s)	Magnetizacion_(V.s)	Campo_(kA/m)	Magnetizacion_(A/m)
0.000000e+00	-5.522057e-06	-9.685120e-10	-3.836617e+01	-6.630393e+01
1.000000e-08	-5.522305e-06	-9.665005e-10	-3.836789e+01	-6.630536e+01
2.000000e-08	-5.522316e-06	-9.639726e-10	-3.836797e+01	-6.630706e+01
3.000000e-08	-5.522104e-06	-9.616135e-10	-3.836650e+01	-6.630855e+01
4.000000e-08	-5.521509e-06	-9.582797e-10	-3.836237e+01	-6.630932e+01
5.000000e-08	-5.520390e-06	-9.516298e-10	-3.835459e+01	-6.630885e+01
6.000000e-08	-5.518611e-06	-9.437453e-10	-3.834223e+01	-6.630665e+01
7.000000e-08	-5.516245e-06	-9.410798e-10	-3.832579e+01	-6.630218e+01
8.000000e-08	-5.513362e-06	-9.727195e-10	-3.830576e+01	-6.629494e+01
9.000000e-08	-5.509933e-06	-9.963270e-10	-3.828194e+01	-6.628443e+01
1.000000e-07	-5.506105e-06	-9.154211e-10	-3.825534e+01	-6.627015e+01
1.100000e-07	-5.501936e-06	-8.372023e-10	-3.822638e+01	-6.625164e+01
1.200000e-07	-5.497511e-06	-9.516047e-10	-3.819563e+01	-6.622846e+01
1.300000e-07	-5.492827e-06	-1.020424e-09	-3.816309e+01	-6.620019e+01
1.400000e-07	-5.487734e-06	-9.666162e-10	-3.812770e+01	-6.616647e+01
1.500000e-07	-5.482239e-06	-8.431242e-10	-3.808953e+01	-6.612695e+01
1.600000e-07	-5.476459e-06	-9.390607e-10	-3.804937e+01	-6.608133e+01
1.700000e-07	-5.470172e-06	-1.045451e-09	-3.800568e+01	-6.602936e+01
1.800000e-07	-5.463340e-06	-9.750774e-10	-3.795822e+01	-6.597085e+01
1.900000e-07	-5.456265e-06	-8.895738e-10	-3.790906e+01	-6.590563e+01
2.000000e-07	-5.448930e-06	-9.408083e-10	-3.785810e+01	-6.583362e+01
2.100000e-07	-5.441222e-06	-1.016741e-09	-3.780454e+01	-6.575477e+01
2.200000e-07	-5.433261e-06	-9.614739e-10	-3.774924e+01	-6.566909e+01
2.300000e-07	-5.425097e-06	-9.068550e-10	-3.769251e+01	-6.557664e+01
2.400000e-07	-5.416630e-06	-9.359185e-10	-3.763369e+01	-6.547756e+01
2.500000e-07	-5.407615e-06	-1.009253e-09	-3.757105e+01	-6.537202e+01
2.600000e-07	-5.397809e-06	-9.789022e-10	-3.750292e+01	-6.526024e+01
2.700000e-07	-5.387317e-06	-9.373600e-10	-3.743002e+01	-6.514252e+01
2.800000e-07	-5.376281e-06	-9.271380e-10	-3.735335e+01	-6.501917e+01
2.900000e-07	-5.364787e-06	-9.812418e-10	-3.727349e+01	-6.489057e+01
3.000000e-07	-5.352959e-06	-9.691982e-10	-3.719131e+01	-6.475715e+01
3.100000e-07	-5.340769e-06	-9.415807e-10	-3.710662e+01	-6.461935e+01
3.200000e-07	-5.328084e-06	-9.371083e-10	-3.701849e+01	-6.447767e+01
3.300000e-07	-5.315032e-06	-1.003907e-09	-3.692780e+01	-6.433262e+01
3.400000e-07	-5.301678e-06	-9.877232e-10	-3.683502e+01	-6.418475e+01
3.500000e-07	-5.287897e-06	-9.322611e-10	-3.673927e+01	-6.403463e+01
3.600000e-07	-5.273664e-06	-9.403189e-10	-3.664039e+01	-6.388282e+01
3.700000e-07	-5.259140e-06	-9.971695e-10	-3.653948e+01	-6.372992e+01
3.800000e-07	-5.244140e-06	-9.379730e-10	-3.643526e+01	-6.357651e+01
3.900000e-07	-5.228432e-06	-9.159677e-10	-3.632612e+01	-6.342318e+01
4.000000e-07	-5.212309e-06	-9.956162e-10	-3.621410e+01	-6.327050e+01
4.100000e-07	-5.195787e-06	-9.788871e-10	-3.609931e+01	-6.311905e+01
4.200000e-07	-5.178758e-06	-8.780023e-10	-3.598100e+01	-6.296937e+01
4.300000e-07	-5.161417e-06	-9.464682e-10	-3.586051e+01	-6.282198e+01
4.400000e-07	-5.143916e-06	-1.031415e-09	-3.573893e+01	-6.267738e+01
4.500000e-07	-5.126062e-06	-9.040851e-10	-3.561488e+01	-6.253603e+01
4.600000e-07	-5.107677e-06	-8.697122e-10	-3.548714e+01	-6.239836e+01
4.700000e-07	-5.088943e-06	-9.972137e-10	-3.535698e+01	-6.226474e+01
4.800000e-07	-5.069897e-06	-9.617786e-10	-3.522465e+01	-6.213552e+01
4.900000e-07	-5.050453e-06	-8.470340e-10	-3.508956e+01	-6.201099e+01
5.000000e-07	-5.030747e-06	-9.597427e-10	-3.495264e+01	-6.189141e+01
5.100000e-07	-5.010852e-06	-1.003412e-09	-3.481442e+01	-6.177696e+01
5.200000e-07	-4.990654e-06	-8.805806e-10	-3.467409e+01	-6.166780e+01
5.300000e-07	-4.970120e-06	-9.116654e-10	-3.453142e+01	-6.156400e+01
5.400000e-07	-4.949320e-06	-1.014500e-09	-3.438691e+01	-6.146561e+01
5.500000e-07	-4.928151e-06	-8.914227e-10	-3.423983e+01	-6.137262e+01
5.600000e-07	-4.906587e-06	-8.463070e-10	-3.409001e+01	-6.128496e+01
5.700000e-07	-4.884728e-06	-9.695233e-10	-3.393814e+01	-6.120251e+01
5.800000e-07	-4.862556e-06	-9.483130e-10	-3.378409e+01	-6.112512e+01
5.900000e-07	-4.840023e-06	-8.527486e-10	-3.362753e+01	-6.105258e+01
6.000000e-07	-4.817092e-06	-9.403578e-10	-3.346821e+01	-6.098463e+01
6.100000e-07	-4.793834e-06	-9.659801e-10	-3.330662e+01	-6.092099e+01
6.200000e-07	-4.770360e-06	-8.721002e-10	-3.314353e+01	-6.086132e+01
6.300000e-07	-4.746676e-06	-8.931155e-10	-3.297898e+01	-6.080528e+01
6.400000e-07	-4.722776e-06	-9.551560e-10	-3.281293e+01	-6.075246e+01
6.500000e-07	-4.698649e-06	-8.939823e-10	-3.264530e+01	-6.070247e+01
6.600000e-07	-4.674136e-06	-8.841934e-10	-3.247498e+01	-6.065487e+01
6.700000e-07	-4.649149e-06	-9.412888e-10	-3.230138e+01	-6.060922e+01
6.800000e-07	-4.623635e-06	-9.149623e-10	-3.212411e+01	-6.056506e+01
6.900000e-07	-4.597433e-06	-8.830697e-10	-3.194207e+01	-6.052192e+01
7.000000e-07	-4.570668e-06	-9.249622e-10	-3.175611e+01	-6.047936e+01
7.100000e-07	-4.543589e-06	-9.210885e-10	-3.156797e+01	-6.043691e+01
7.200000e-07	-4.516190e-06	-8.818700e-10	-3.137761e+01	-6.039411e+01
7.300000e-07	-4.488469e-06	-9.011902e-10	-3.118500e+01	-6.035054e+01
7.400000e-07	-4.460556e-06	-9.149105e-10	-3.099107e+01	-6.030576e+01
7.500000e-07	-4.432533e-06	-8.898216e-10	-3.079637e+01	-6.025938e+01
7.600000e-07	-4.404274e-06	-8.887071e-10	-3.060004e+01	-6.021101e+01
7.700000e-07	-4.375659e-06	-9.037852e-10	-3.040122e+01	-6.016030e+01
7.800000e-07	-4.346741e-06	-8.858519e-10	-3.020031e+01	-6.010692e+01
7.900000e-07	-4.317581e-06	-8.844318e-10	-2.999771e+01	-6.005057e+01
8.000000e-07	-4.288148e-06	-8.962940e-10	-2.979321e+01	-5.999098e+01
8.100000e-07	-4.258413e-06	-8.861548e-10	-2.958662e+01	-5.992794e+01
8.200000e-07	-4.228386e-06	-8.734896e-10	-2.937800e+01	-5.986123e+01
8.300000e-07	-4.198107e-06	-8.921556e-10	-2.916762e+01	-5.979069e+01
8.400000e-07	-4.167550e-06	-8.870287e-10	-2.895532e+01	-5.971620e+01
8.500000e-07	-4.136606e-06	-8.708910e-10	-2.874033e+01	-5.963766e+01
8.600000e-07	-4.105318e-06	-8.788179e-10	-2.852294e+01	-5.955502e+01
8.700000e-07	-4.073809e-06	-8.877552e-10	-2.830403e+01	-5.946823e+01
8.800000e-07	-4.042130e-06	-8.680598e-10	-2.808393e+01	-5.937730e+01
8.900000e-07	-4.010316e-06	-8.687200e-10	-2.786289e+01	-5.928227e+01
9.000000e-07	-3.978358e-06	-8.768674e-10	-2.764086e+01	-5.918318e+01
9.100000e-07	-3.946151e-06	-8.658764e-10	-2.741708e+01	-5.908013e+01
9.200000e-07	-3.913592e-06	-8.618939e-10	-2.719087e+01	-5.897320e+01
9.300000e-07	-3.880660e-06	-8.794691e-10	-2.696207e+01	-5.886253e+01
9.400000e-07	-3.847322e-06	-8.720875e-10	-2.673044e+01	-5.874824e+01
9.500000e-07	-3.813487e-06	-8.547383e-10	-2.649537e+01	-5.863049e+01
9.600000e-07	-3.779162e-06	-8.597088e-10	-2.625688e+01	-5.850943e+01
9.700000e-07	-3.744489e-06	-8.596498e-10	-2.601598e+01	-5.838523e+01
9.800000e-07	-3.709441e-06	-8.407952e-10	-2.577247e+01	-5.825804e+01
9.900000e-07	-3.673989e-06	-8.404888e-10	-2.552616e+01	-5.812804e+01
1.000000e-06	-3.638346e-06	-8.489247e-10	-2.527851e+01	-5.799540e+01
1.010000e-06	-3.602557e-06	-8.385850e-10	-2.502986e+01	-5.786025e+01
1.020000e-06	-3.566615e-06	-8.335819e-10	-2.478014e+01	-5.772276e+01
1.030000e-06	-3.530598e-06	-8.432896e-10	-2.452990e+01	-5.758306e+01
1.040000e-06	-3.494443e-06	-8.403706e-10	-2.427870e+01	-5.744127e+01
1.050000e-06	-3.458006e-06	-8.281908e-10	-2.402555e+01	-5.729750e+01
1.060000e-06	-3.421279e-06	-8.317208e-10	-2.377038e+01	-5.715184e+01
1.070000e-06	-3.384322e-06	-8.317940e-10	-2.351361e+01	-5.700438e+01
1.080000e-06	-3.347137e-06	-8.245123e-10	-2.325526e+01	-5.685515e+01
1.090000e-06	-3.309749e-06	-8.248955e-10	-2.299549e+01	-5.670420e+01
1.100000e-06	-3.272175e-06	-8.311291e-10	-2.273443e+01	-5.655154e+01
1.110000e-06	-3.234356e-06	-8.243253e-10	-2.247167e+01	-5.639717e+01
1.120000e-06	-3.196265e-06	-8.219600e-10	-2.220703e+01	-5.624107e+01
1.130000e-06	-3.157911e-06	-8.262014e-10	-2.194054e+01	-5.608319e+01
1.140000e-06	-3.119284e-06	-8.227569e-10	-2.167218e+01	-5.592347e+01
1.150000e-06	-3.080523e-06	-8.129161e-10	-2.140287e+01	-5.576183e+01
1.160000e-06	-3.041625e-06	-8.133910e-10	-2.113262e+01	-5.559819e+01
1.170000e-06	-3.002464e-06	-8.107691e-10	-2.086054e+01	-5.543242e+01
1.180000e-06	-2.963077e-06	-8.031442e-10	-2.058688e+01	-5.526442e+01
1.190000e-06	-2.923490e-06	-8.014837e-10	-2.031184e+01	-5.509405e+01
1.200000e-06	-2.883731e-06	-8.033174e-10	-2.003560e+01	-5.492118e+01
1.210000e-06	-2.843864e-06	-7.969063e-10	-1.975861e+01	-5.474565e+01
1.220000e-06	-2.803894e-06	-7.938083e-10	-1.948091e+01	-5.456732e+01
1.230000e-06	-2.763767e-06	-7.940587e-10	-1.920211e+01	-5.438604e+01
1.240000e-06	-2.723520e-06	-7.907942e-10	-1.892249e+01	-5.420165e+01
1.250000e-06	-2.683132e-06	-7.860877e-10	-1.864188e+01	-5.401400e+01
1.260000e-06	-2.642513e-06	-7.866251e-10	-1.835967e+01	-5.382294e+01
1.270000e-06	-2.601724e-06	-7.851650e-10	-1.807627e+01	-5.362832e+01
1.280000e-06	-2.560694e-06	-7.794544e-10	-1.779120e+01	-5.343001e+01
1.290000e-06	-2.519368e-06	-7.778715e-10	-1.750408e+01	-5.322786e+01
1.300000e-06	-2.477793e-06	-7.777650e-10	-1.721522e+01	-5.302176e+01
1.310000e-06	-2.435821e-06	-7.740926e-10	-1.692361e+01	-5.281157e+01
1.320000e-06	-2.393510e-06	-7.699560e-10	-1.662964e+01	-5.259720e+01
1.330000e-06	-2.350941e-06	-7.694544e-10	-1.633388e+01	-5.237852e+01
1.340000e-06	-2.308057e-06	-7.647876e-10	-1.603593e+01	-5.215544e+01
1.350000e-06	-2.264959e-06	-7.599861e-10	-1.573650e+01	-5.192787e+01
1.360000e-06	-2.221657e-06	-7.572458e-10	-1.543564e+01	-5.169571e+01
1.370000e-06	-2.178083e-06	-7.514530e-10	-1.513290e+01	-5.145887e+01
1.380000e-06	-2.134306e-06	-7.426917e-10	-1.482874e+01	-5.121728e+01
1.390000e-06	-2.090520e-06	-7.363739e-10	-1.452452e+01	-5.097082e+01
1.400000e-06	-2.046735e-06	-7.335889e-10	-1.422031e+01	-5.071942e+01
1.410000e-06	-2.002839e-06	-7.320806e-10	-1.391534e+01	-5.046297e+01
1.420000e-06	-1.958858e-06	-7.299439e-10	-1.360976e+01	-5.020136e+01
1.430000e-06	-1.914797e-06	-7.285471e-10	-1.330364e+01	-4.993445e+01
1.440000e-06	-1.870621e-06	-7.234652e-10	-1.299671e+01	-4.966211e+01
1.450000e-06	-1.826336e-06	-7.163433e-10	-1.268903e+01	-4.938417e+01
1.460000e-06	-1.781959e-06	-7.073869e-10	-1.238070e+01	-4.910044e+01
1.470000e-06	-1.737440e-06	-6.995733e-10	-1.207140e+01	-4.881071e+01
1.480000e-06	-1.692858e-06	-6.946234e-10	-1.176165e+01	-4.851473e+01
1.490000e-06	-1.648253e-06	-6.932486e-10	-1.145174e+01	-4.821222e+01
1.500000e-06	-1.603459e-06	-6.913498e-10	-1.114052e+01	-4.790285e+01
1.510000e-06	-1.558483e-06	-6.875390e-10	-1.082804e+01	-4.758627e+01
1.520000e-06	-1.513403e-06	-6.823975e-10	-1.051483e+01	-4.726208e+01
1.530000e-06	-1.468196e-06	-6.740621e-10	-1.020074e+01	-4.692983e+01
1.540000e-06	-1.422905e-06	-6.620182e-10	-9.886065e+00	-4.658901e+01
1.550000e-06	-1.377448e-06	-6.527150e-10	-9.570238e+00	-4.623909e+01
1.560000e-06	-1.331897e-06	-6.484019e-10	-9.253759e+00	-4.587947e+01
1.570000e-06	-1.286285e-06	-6.454039e-10	-8.936859e+00	-4.550951e+01
1.580000e-06	-1.240556e-06	-6.396321e-10	-8.619139e+00	-4.512849e+01
1.590000e-06	-1.194777e-06	-6.326741e-10	-8.301080e+00	-4.473568e+01
1.600000e-06	-1.148882e-06	-6.264559e-10	-7.982205e+00	-4.433029e+01
1.610000e-06	-1.102947e-06	-6.184273e-10	-7.663057e+00	-4.391146e+01
1.620000e-06	-1.057006e-06	-6.085576e-10	-7.343868e+00	-4.347830e+01
1.630000e-06	-1.011000e-06	-5.985384e-10	-7.024233e+00	-4.302989e+01
1.640000e-06	-9.648465e-07	-5.909335e-10	-6.703565e+00	-4.256525e+01
1.650000e-06	-9.185612e-07	-5.836863e-10	-6.381984e+00	-4.208339e+01
1.660000e-06	-8.722789e-07	-5.768759e-10	-6.060423e+00	-4.158326e+01
1.670000e-06	-8.259813e-07	-5.685056e-10	-5.738756e+00	-4.106381e+01
1.680000e-06	-7.796011e-07	-5.572394e-10	-5.416516e+00	-4.052397e+01
1.690000e-06	-7.332609e-07	-5.440827e-10	-5.094554e+00	-3.996266e+01
1.700000e-06	-6.869662e-07	-5.308157e-10	-4.772907e+00	-3.937877e+01
1.710000e-06	-6.405422e-07	-5.198601e-10	-4.450362e+00	-3.877124e+01
1.720000e-06	-5.940168e-07	-5.137796e-10	-4.127113e+00	-3.813897e+01
1.730000e-06	-5.474778e-07	-5.093978e-10	-3.803769e+00	-3.748092e+01
1.740000e-06	-5.009030e-07	-5.025077e-10	-3.480176e+00	-3.679605e+01
1.750000e-06	-4.542136e-07	-4.917632e-10	-3.155787e+00	-3.608338e+01
1.760000e-06	-4.074121e-07	-4.785232e-10	-2.830619e+00	-3.534195e+01
1.770000e-06	-3.606597e-07	-4.634198e-10	-2.505793e+00	-3.457087e+01
1.780000e-06	-3.139465e-07	-4.487216e-10	-2.181239e+00	-3.376931e+01
1.790000e-06	-2.670912e-07	-4.372718e-10	-1.855697e+00	-3.293650e+01
1.800000e-06	-2.202018e-07	-4.292517e-10	-1.529919e+00	-3.207177e+01
1.810000e-06	-1.733532e-07	-4.205840e-10	-1.204424e+00	-3.117450e+01
1.820000e-06	-1.264946e-07	-4.100913e-10	-8.788595e-01	-3.024419e+01
1.830000e-06	-7.970508e-08	-3.981704e-10	-5.537753e-01	-2.928045e+01
1.840000e-06	-3.294963e-08	-3.841002e-10	-2.289276e-01	-2.828296e+01
1.850000e-06	1.384985e-08	-3.673382e-10	9.622605e-02	-2.725156e+01
1.860000e-06	6.070885e-08	-3.495690e-10	4.217932e-01	-2.618616e+01
1.870000e-06	1.074891e-07	-3.318500e-10	7.468133e-01	-2.508683e+01
1.880000e-06	1.541743e-07	-3.148041e-10	1.071173e+00	-2.395375e+01
1.890000e-06	2.009610e-07	-2.999979e-10	1.396238e+00	-2.278723e+01
1.900000e-06	2.477781e-07	-2.865726e-10	1.721514e+00	-2.158773e+01
1.910000e-06	2.944923e-07	-2.711863e-10	2.046075e+00	-2.035581e+01
1.920000e-06	3.411957e-07	-2.543709e-10	2.370561e+00	-1.909218e+01
1.930000e-06	3.879187e-07	-2.376189e-10	2.695183e+00	-1.779770e+01
1.940000e-06	4.345695e-07	-2.177102e-10	3.019304e+00	-1.647333e+01
1.950000e-06	4.811882e-07	-1.961952e-10	3.343201e+00	-1.512018e+01
1.960000e-06	5.278089e-07	-1.777445e-10	3.667113e+00	-1.373948e+01
1.970000e-06	5.744539e-07	-1.625545e-10	3.991194e+00	-1.233259e+01
1.980000e-06	6.210680e-07	-1.445039e-10	4.315059e+00	-1.090096e+01
1.990000e-06	6.675426e-07	-1.234367e-10	4.637955e+00	-9.446168e+00
2.000000e-06	7.139167e-07	-1.004642e-10	4.960154e+00	-7.969904e+00
2.010000e-06	7.602590e-07	-7.469761e-11	5.282131e+00	-6.473938e+00
2.020000e-06	8.065601e-07	-4.921542e-11	5.603822e+00	-4.960135e+00
2.030000e-06	8.528051e-07	-2.827629e-11	5.925123e+00	-3.430435e+00
2.040000e-06	8.990303e-07	-1.053540e-11	6.246287e+00	-1.886850e+00
2.050000e-06	9.451908e-07	7.968416e-12	6.567001e+00	-3.314490e-01
2.060000e-06	9.912971e-07	2.940455e-11	6.887339e+00	1.233648e+00
2.070000e-06	1.037325e-06	5.380032e-11	7.207132e+00	2.806283e+00
2.080000e-06	1.083249e-06	8.005977e-11	7.526201e+00	4.384272e+00
2.090000e-06	1.129119e-06	1.068682e-10	7.844896e+00	5.965412e+00
2.100000e-06	1.174953e-06	1.318767e-10	8.163342e+00	7.547497e+00
2.110000e-06	1.220723e-06	1.528788e-10	8.481344e+00	9.128324e+00
2.120000e-06	1.266333e-06	1.724821e-10	8.798233e+00	1.070571e+01
2.130000e-06	1.311815e-06	1.913970e-10	9.114236e+00	1.227749e+01
2.140000e-06	1.357230e-06	2.092983e-10	9.429771e+00	1.384156e+01
2.150000e-06	1.402578e-06	2.294161e-10	9.744837e+00	1.539583e+01
2.160000e-06	1.447766e-06	2.527699e-10	1.005879e+01	1.693830e+01
2.170000e-06	1.492853e-06	2.770609e-10	1.037205e+01	1.846700e+01
2.180000e-06	1.537952e-06	2.998293e-10	1.068539e+01	1.998008e+01
2.190000e-06	1.582967e-06	3.196252e-10	1.099815e+01	2.147574e+01
2.200000e-06	1.627780e-06	3.374207e-10	1.130949e+01	2.295228e+01
2.210000e-06	1.672394e-06	3.532861e-10	1.161947e+01	2.440809e+01
2.220000e-06	1.716901e-06	3.672201e-10	1.192869e+01	2.584168e+01
2.230000e-06	1.761337e-06	3.828568e-10	1.223743e+01	2.725165e+01
2.240000e-06	1.805623e-06	4.016610e-10	1.254511e+01	2.863672e+01
2.250000e-06	1.849740e-06	4.210248e-10	1.285163e+01	2.999572e+01
2.260000e-06	1.893787e-06	4.407762e-10	1.315766e+01	3.132759e+01
2.270000e-06	1.937773e-06	4.609821e-10	1.346327e+01	3.263141e+01
2.280000e-06	1.981690e-06	4.790922e-10	1.376839e+01	3.390636e+01
2.290000e-06	2.025578e-06	4.965238e-10	1.407332e+01	3.515174e+01
2.300000e-06	2.069462e-06	5.138144e-10	1.437822e+01	3.636697e+01
2.310000e-06	2.113243e-06	5.287665e-10	1.468240e+01	3.755158e+01
2.320000e-06	2.156906e-06	5.422331e-10	1.498576e+01	3.870524e+01
2.330000e-06	2.200464e-06	5.563567e-10	1.528839e+01	3.982769e+01
2.340000e-06	2.243924e-06	5.706694e-10	1.559035e+01	4.091880e+01
2.350000e-06	2.287170e-06	5.845002e-10	1.589081e+01	4.197853e+01
2.360000e-06	2.330126e-06	5.983307e-10	1.618926e+01	4.300695e+01
2.370000e-06	2.372866e-06	6.119076e-10	1.648621e+01	4.400420e+01
2.380000e-06	2.415293e-06	6.241136e-10	1.678098e+01	4.497052e+01
2.390000e-06	2.457323e-06	6.365461e-10	1.707300e+01	4.590623e+01
2.400000e-06	2.499016e-06	6.490502e-10	1.736267e+01	4.681171e+01
2.410000e-06	2.540400e-06	6.603492e-10	1.765020e+01	4.768741e+01
2.420000e-06	2.581527e-06	6.713196e-10	1.793595e+01	4.853383e+01
2.430000e-06	2.622370e-06	6.826677e-10	1.821971e+01	4.935154e+01
2.440000e-06	2.663017e-06	6.940417e-10	1.850212e+01	5.014114e+01
2.450000e-06	2.703535e-06	7.051232e-10	1.878363e+01	5.090326e+01
2.460000e-06	2.743843e-06	7.168184e-10	1.906369e+01	5.163858e+01
2.470000e-06	2.783985e-06	7.288835e-10	1.934259e+01	5.234778e+01
2.480000e-06	2.823993e-06	7.400790e-10	1.962055e+01	5.303158e+01
2.490000e-06	2.863905e-06	7.504618e-10	1.989785e+01	5.369070e+01
2.500000e-06	2.903712e-06	7.601844e-10	2.017443e+01	5.432586e+01
2.510000e-06	2.943317e-06	7.685086e-10	2.044959e+01	5.493780e+01
2.520000e-06	2.982666e-06	7.756806e-10	2.072298e+01	5.552723e+01
2.530000e-06	3.021855e-06	7.815321e-10	2.099526e+01	5.609488e+01
2.540000e-06	3.060861e-06	7.879024e-10	2.126626e+01	5.664143e+01
2.550000e-06	3.099644e-06	7.961567e-10	2.153572e+01	5.716759e+01
2.560000e-06	3.138211e-06	8.045152e-10	2.180368e+01	5.767401e+01
2.570000e-06	3.176527e-06	8.124325e-10	2.206989e+01	5.816135e+01
2.580000e-06	3.214596e-06	8.202216e-10	2.233438e+01	5.863023e+01
2.590000e-06	3.252534e-06	8.282634e-10	2.259797e+01	5.908124e+01
2.600000e-06	3.290358e-06	8.350599e-10	2.286076e+01	5.951496e+01
2.610000e-06	3.327889e-06	8.397357e-10	2.312152e+01	5.993195e+01
2.620000e-06	3.365112e-06	8.445974e-10	2.338014e+01	6.033272e+01
2.630000e-06	3.402142e-06	8.477265e-10	2.363742e+01	6.071778e+01
2.640000e-06	3.438924e-06	8.503774e-10	2.389297e+01	6.108759e+01
2.650000e-06	3.475419e-06	8.551580e-10	2.414653e+01	6.144260e+01
2.660000e-06	3.511734e-06	8.632748e-10	2.439884e+01	6.178326e+01
2.670000e-06	3.547871e-06	8.714447e-10	2.464992e+01	6.210996e+01
2.680000e-06	3.583860e-06	8.770090e-10	2.489996e+01	6.242309e+01
2.690000e-06	3.619765e-06	8.823558e-10	2.514942e+01	6.272304e+01
2.700000e-06	3.655574e-06	8.863425e-10	2.539821e+01	6.301016e+01
2.710000e-06	3.691158e-06	8.876186e-10	2.564545e+01	6.328479e+01
2.720000e-06	3.726440e-06	8.890727e-10	2.589057e+01	6.354728e+01
2.730000e-06	3.761445e-06	8.941755e-10	2.613379e+01	6.379796e+01
2.740000e-06	3.796049e-06	8.997125e-10	2.637421e+01	6.403716e+01
2.750000e-06	3.830166e-06	9.040766e-10	2.661124e+01	6.426518e+01
2.760000e-06	3.863749e-06	9.086196e-10	2.684457e+01	6.448236e+01
2.770000e-06	3.896744e-06	9.112586e-10	2.707381e+01	6.468902e+01
2.780000e-06	3.929328e-06	9.131765e-10	2.730020e+01	6.488547e+01
2.790000e-06	3.961744e-06	9.170551e-10	2.752543e+01	6.507204e+01
2.800000e-06	3.993962e-06	9.227687e-10	2.774927e+01	6.524906e+01
2.810000e-06	4.025939e-06	9.281575e-10	2.797143e+01	6.541685e+01
2.820000e-06	4.057796e-06	9.308650e-10	2.819278e+01	6.557577e+01
2.830000e-06	4.089468e-06	9.331756e-10	2.841282e+01	6.572615e+01
2.840000e-06	4.120829e-06	9.349835e-10	2.863072e+01	6.586833e+01
2.850000e-06	4.151921e-06	9.366068e-10	2.884674e+01	6.600267e+01
2.860000e-06	4.182726e-06	9.393371e-10	2.906076e+01	6.612953e+01
2.870000e-06	4.213169e-06	9.445141e-10	2.927228e+01	6.624926e+01
2.880000e-06	4.243307e-06	9.493115e-10	2.948167e+01	6.636223e+01
2.890000e-06	4.273190e-06	9.548505e-10	2.968929e+01	6.646878e+01
2.900000e-06	4.302832e-06	9.596125e-10	2.989523e+01	6.656930e+01
