# Temperatura_=_-10.49
# Concentracion g/m^3_=_1620.0
# C_Vs_to_Am_M_A/Vsm_=_65563218390.804596
# pendiente_HvsI_1/m_=_3716.3
# ordenada_HvsI_A/m_=_1297.0
# frecuencia_Hz_=_135109.28885769533

Tiempo_(s)	Campo_(V.s)	Magnetizacion_(V.s)	Campo_(kA/m)	Magnetizacion_(A/m)
0.000000e+00	-5.531560e-06	-9.203200e-10	-3.837165e+01	-6.254429e+01
1.000000e-08	-5.531741e-06	-9.198537e-10	-3.837290e+01	-6.254696e+01
2.000000e-08	-5.531701e-06	-9.184904e-10	-3.837262e+01	-6.255059e+01
3.000000e-08	-5.531282e-06	-9.178006e-10	-3.836972e+01	-6.255484e+01
4.000000e-08	-5.530385e-06	-9.158103e-10	-3.836349e+01	-6.255938e+01
5.000000e-08	-5.529085e-06	-9.099800e-10	-3.835447e+01	-6.256382e+01
6.000000e-08	-5.527222e-06	-8.972517e-10	-3.834155e+01	-6.256778e+01
7.000000e-08	-5.524674e-06	-8.813661e-10	-3.832388e+01	-6.257087e+01
8.000000e-08	-5.521569e-06	-8.882941e-10	-3.830234e+01	-6.257267e+01
9.000000e-08	-5.517949e-06	-9.301856e-10	-3.827723e+01	-6.257280e+01
1.000000e-07	-5.513842e-06	-9.604059e-10	-3.824874e+01	-6.257085e+01
1.100000e-07	-5.509425e-06	-9.335268e-10	-3.821810e+01	-6.256642e+01
1.200000e-07	-5.504906e-06	-8.736688e-10	-3.818675e+01	-6.255914e+01
1.300000e-07	-5.500188e-06	-8.719076e-10	-3.815402e+01	-6.254864e+01
1.400000e-07	-5.495036e-06	-9.169818e-10	-3.811828e+01	-6.253459e+01
1.500000e-07	-5.489431e-06	-9.077817e-10	-3.807940e+01	-6.251666e+01
1.600000e-07	-5.483487e-06	-8.699472e-10	-3.803817e+01	-6.249457e+01
1.700000e-07	-5.477119e-06	-8.680829e-10	-3.799400e+01	-6.246806e+01
1.800000e-07	-5.470243e-06	-9.342783e-10	-3.794630e+01	-6.243692e+01
1.900000e-07	-5.462943e-06	-9.497121e-10	-3.789566e+01	-6.240096e+01
2.000000e-07	-5.455397e-06	-9.095367e-10	-3.784332e+01	-6.236005e+01
2.100000e-07	-5.447596e-06	-8.874412e-10	-3.778920e+01	-6.231408e+01
2.200000e-07	-5.439458e-06	-9.248573e-10	-3.773275e+01	-6.226302e+01
2.300000e-07	-5.431110e-06	-9.403930e-10	-3.767484e+01	-6.220686e+01
2.400000e-07	-5.422431e-06	-9.105944e-10	-3.761463e+01	-6.214564e+01
2.500000e-07	-5.413081e-06	-9.062844e-10	-3.754978e+01	-6.207944e+01
2.600000e-07	-5.403006e-06	-9.180739e-10	-3.747989e+01	-6.200841e+01
2.700000e-07	-5.392370e-06	-9.074857e-10	-3.740611e+01	-6.193273e+01
2.800000e-07	-5.381246e-06	-8.814251e-10	-3.732894e+01	-6.185261e+01
2.900000e-07	-5.369636e-06	-8.930353e-10	-3.724840e+01	-6.176833e+01
3.000000e-07	-5.357655e-06	-9.083996e-10	-3.716529e+01	-6.168019e+01
3.100000e-07	-5.345358e-06	-9.026108e-10	-3.707999e+01	-6.158853e+01
3.200000e-07	-5.332653e-06	-8.949543e-10	-3.699186e+01	-6.149373e+01
3.300000e-07	-5.319475e-06	-9.121647e-10	-3.690044e+01	-6.139620e+01
3.400000e-07	-5.305866e-06	-9.077078e-10	-3.680604e+01	-6.129634e+01
3.500000e-07	-5.291898e-06	-8.943578e-10	-3.670914e+01	-6.119463e+01
3.600000e-07	-5.277401e-06	-8.960078e-10	-3.660858e+01	-6.109153e+01
3.700000e-07	-5.262510e-06	-9.066251e-10	-3.650529e+01	-6.098750e+01
3.800000e-07	-5.247337e-06	-8.957267e-10	-3.640003e+01	-6.088304e+01
3.900000e-07	-5.231524e-06	-8.910906e-10	-3.629034e+01	-6.077863e+01
4.000000e-07	-5.215030e-06	-9.011717e-10	-3.617592e+01	-6.067475e+01
4.100000e-07	-5.198129e-06	-9.064458e-10	-3.605868e+01	-6.057188e+01
4.200000e-07	-5.180949e-06	-8.995070e-10	-3.593951e+01	-6.047047e+01
4.300000e-07	-5.163483e-06	-8.979793e-10	-3.581835e+01	-6.037096e+01
4.400000e-07	-5.145806e-06	-8.986731e-10	-3.569573e+01	-6.027378e+01
4.500000e-07	-5.127774e-06	-8.993828e-10	-3.557064e+01	-6.017930e+01
4.600000e-07	-5.109290e-06	-8.945794e-10	-3.544242e+01	-6.008790e+01
4.700000e-07	-5.090418e-06	-8.818355e-10	-3.531150e+01	-5.999988e+01
4.800000e-07	-5.071212e-06	-8.801940e-10	-3.517828e+01	-5.991555e+01
4.900000e-07	-5.051748e-06	-8.994043e-10	-3.504326e+01	-5.983513e+01
5.000000e-07	-5.032038e-06	-9.045646e-10	-3.490653e+01	-5.975884e+01
5.100000e-07	-5.012079e-06	-8.913916e-10	-3.476808e+01	-5.968682e+01
5.200000e-07	-4.991824e-06	-8.923233e-10	-3.462757e+01	-5.961918e+01
5.300000e-07	-4.971240e-06	-8.981190e-10	-3.448479e+01	-5.955597e+01
5.400000e-07	-4.950316e-06	-8.875773e-10	-3.433964e+01	-5.949721e+01
5.500000e-07	-4.929047e-06	-8.801786e-10	-3.419210e+01	-5.944286e+01
5.600000e-07	-4.907363e-06	-8.817762e-10	-3.404168e+01	-5.939283e+01
5.700000e-07	-4.885299e-06	-8.700875e-10	-3.388863e+01	-5.934698e+01
5.800000e-07	-4.862889e-06	-8.697541e-10	-3.373317e+01	-5.930513e+01
5.900000e-07	-4.840086e-06	-8.864827e-10	-3.357499e+01	-5.926706e+01
6.000000e-07	-4.816929e-06	-8.854190e-10	-3.341435e+01	-5.923251e+01
6.100000e-07	-4.793510e-06	-8.702766e-10	-3.325190e+01	-5.920118e+01
6.200000e-07	-4.769861e-06	-8.735324e-10	-3.308785e+01	-5.917273e+01
6.300000e-07	-4.746057e-06	-8.732192e-10	-3.292273e+01	-5.914679e+01
6.400000e-07	-4.722054e-06	-8.616169e-10	-3.275622e+01	-5.912298e+01
6.500000e-07	-4.697626e-06	-8.623342e-10	-3.258676e+01	-5.910088e+01
6.600000e-07	-4.672645e-06	-8.690788e-10	-3.241347e+01	-5.908006e+01
6.700000e-07	-4.647141e-06	-8.615677e-10	-3.223655e+01	-5.906008e+01
6.800000e-07	-4.621215e-06	-8.619275e-10	-3.205671e+01	-5.904048e+01
6.900000e-07	-4.594833e-06	-8.712125e-10	-3.187370e+01	-5.902081e+01
7.000000e-07	-4.567896e-06	-8.682145e-10	-3.168684e+01	-5.900062e+01
7.100000e-07	-4.540506e-06	-8.571177e-10	-3.149684e+01	-5.897946e+01
7.200000e-07	-4.512863e-06	-8.586486e-10	-3.130509e+01	-5.895690e+01
7.300000e-07	-4.485068e-06	-8.606548e-10	-3.111228e+01	-5.893251e+01
7.400000e-07	-4.457135e-06	-8.542516e-10	-3.091851e+01	-5.890590e+01
7.500000e-07	-4.428974e-06	-8.527831e-10	-3.072317e+01	-5.887669e+01
7.600000e-07	-4.400517e-06	-8.559331e-10	-3.052576e+01	-5.884452e+01
7.700000e-07	-4.371786e-06	-8.497665e-10	-3.032645e+01	-5.880909e+01
7.800000e-07	-4.342789e-06	-8.435732e-10	-3.012531e+01	-5.877010e+01
7.900000e-07	-4.313435e-06	-8.464998e-10	-2.992169e+01	-5.872730e+01
8.000000e-07	-4.283720e-06	-8.476651e-10	-2.971556e+01	-5.868048e+01
8.100000e-07	-4.253773e-06	-8.421745e-10	-2.950782e+01	-5.862947e+01
8.200000e-07	-4.223549e-06	-8.427451e-10	-2.929816e+01	-5.857413e+01
8.300000e-07	-4.192938e-06	-8.464564e-10	-2.908581e+01	-5.851437e+01
8.400000e-07	-4.162025e-06	-8.410987e-10	-2.887137e+01	-5.845014e+01
8.500000e-07	-4.130858e-06	-8.367516e-10	-2.865518e+01	-5.838142e+01
8.600000e-07	-4.099406e-06	-8.370975e-10	-2.843700e+01	-5.830824e+01
8.700000e-07	-4.067765e-06	-8.321863e-10	-2.821750e+01	-5.823067e+01
8.800000e-07	-4.036008e-06	-8.248637e-10	-2.799721e+01	-5.814881e+01
8.900000e-07	-4.004062e-06	-8.249627e-10	-2.777561e+01	-5.806278e+01
9.000000e-07	-3.971893e-06	-8.247491e-10	-2.755246e+01	-5.797277e+01
9.100000e-07	-3.939476e-06	-8.222289e-10	-2.732759e+01	-5.787896e+01
9.200000e-07	-3.906693e-06	-8.240924e-10	-2.710017e+01	-5.778156e+01
9.300000e-07	-3.873426e-06	-8.273895e-10	-2.686940e+01	-5.768083e+01
9.400000e-07	-3.839639e-06	-8.236902e-10	-2.663503e+01	-5.757702e+01
9.500000e-07	-3.805421e-06	-8.205957e-10	-2.639767e+01	-5.747041e+01
9.600000e-07	-3.770884e-06	-8.177374e-10	-2.615809e+01	-5.736127e+01
9.700000e-07	-3.736015e-06	-8.104603e-10	-2.591621e+01	-5.724989e+01
9.800000e-07	-3.700796e-06	-8.050733e-10	-2.567189e+01	-5.713656e+01
9.900000e-07	-3.665334e-06	-8.064700e-10	-2.542590e+01	-5.702158e+01
1.000000e-06	-3.629695e-06	-8.081084e-10	-2.517868e+01	-5.690521e+01
1.010000e-06	-3.593862e-06	-8.109399e-10	-2.493011e+01	-5.678774e+01
1.020000e-06	-3.557886e-06	-8.165969e-10	-2.468055e+01	-5.666941e+01
1.030000e-06	-3.521766e-06	-8.183093e-10	-2.442999e+01	-5.655047e+01
1.040000e-06	-3.485429e-06	-8.137733e-10	-2.417792e+01	-5.643114e+01
1.050000e-06	-3.448798e-06	-8.095062e-10	-2.392382e+01	-5.631161e+01
1.060000e-06	-3.411937e-06	-8.045451e-10	-2.366812e+01	-5.619205e+01
1.070000e-06	-3.374822e-06	-7.979412e-10	-2.341066e+01	-5.607261e+01
1.080000e-06	-3.337401e-06	-7.971552e-10	-2.315108e+01	-5.595339e+01
1.090000e-06	-3.299761e-06	-8.021116e-10	-2.288997e+01	-5.583448e+01
1.100000e-06	-3.261890e-06	-8.032568e-10	-2.262727e+01	-5.571592e+01
1.110000e-06	-3.223753e-06	-8.024328e-10	-2.236272e+01	-5.559773e+01
1.120000e-06	-3.185405e-06	-8.034637e-10	-2.209670e+01	-5.547989e+01
1.130000e-06	-3.146845e-06	-8.015806e-10	-2.182921e+01	-5.536235e+01
1.140000e-06	-3.108053e-06	-7.968527e-10	-2.156012e+01	-5.524503e+01
1.150000e-06	-3.069097e-06	-7.930698e-10	-2.128989e+01	-5.512782e+01
1.160000e-06	-3.029968e-06	-7.895280e-10	-2.101846e+01	-5.501056e+01
1.170000e-06	-2.990665e-06	-7.840211e-10	-2.074582e+01	-5.489310e+01
1.180000e-06	-2.951216e-06	-7.828143e-10	-2.047217e+01	-5.477522e+01
1.190000e-06	-2.911637e-06	-7.849253e-10	-2.019761e+01	-5.465671e+01
1.200000e-06	-2.871940e-06	-7.831500e-10	-1.992224e+01	-5.453733e+01
1.210000e-06	-2.832099e-06	-7.787502e-10	-1.964587e+01	-5.441682e+01
1.220000e-06	-2.792130e-06	-7.765406e-10	-1.936861e+01	-5.429488e+01
1.230000e-06	-2.752011e-06	-7.724359e-10	-1.909031e+01	-5.417124e+01
1.240000e-06	-2.711725e-06	-7.661688e-10	-1.881085e+01	-5.404559e+01
1.250000e-06	-2.671224e-06	-7.651102e-10	-1.852990e+01	-5.391762e+01
1.260000e-06	-2.630440e-06	-7.643093e-10	-1.824699e+01	-5.378702e+01
1.270000e-06	-2.589395e-06	-7.610751e-10	-1.796227e+01	-5.365347e+01
1.280000e-06	-2.548017e-06	-7.566256e-10	-1.767523e+01	-5.351665e+01
1.290000e-06	-2.506335e-06	-7.544377e-10	-1.738609e+01	-5.337626e+01
1.300000e-06	-2.464411e-06	-7.544888e-10	-1.709527e+01	-5.323199e+01
1.310000e-06	-2.422092e-06	-7.521575e-10	-1.680171e+01	-5.308353e+01
1.320000e-06	-2.379448e-06	-7.508751e-10	-1.650589e+01	-5.293059e+01
1.330000e-06	-2.336601e-06	-7.479266e-10	-1.620867e+01	-5.277289e+01
1.340000e-06	-2.293531e-06	-7.428927e-10	-1.590990e+01	-5.261017e+01
1.350000e-06	-2.250209e-06	-7.373126e-10	-1.560938e+01	-5.244215e+01
1.360000e-06	-2.206680e-06	-7.304372e-10	-1.530743e+01	-5.226860e+01
1.370000e-06	-2.163070e-06	-7.231240e-10	-1.500491e+01	-5.208926e+01
1.380000e-06	-2.119369e-06	-7.190872e-10	-1.470176e+01	-5.190392e+01
1.390000e-06	-2.075623e-06	-7.189588e-10	-1.439830e+01	-5.171236e+01
1.400000e-06	-2.031801e-06	-7.189859e-10	-1.409431e+01	-5.151436e+01
1.410000e-06	-1.987859e-06	-7.184535e-10	-1.378949e+01	-5.130971e+01
1.420000e-06	-1.943847e-06	-7.156523e-10	-1.348419e+01	-5.109822e+01
1.430000e-06	-1.899754e-06	-7.092342e-10	-1.317832e+01	-5.087969e+01
1.440000e-06	-1.855576e-06	-7.033846e-10	-1.287187e+01	-5.065390e+01
1.450000e-06	-1.811286e-06	-6.993694e-10	-1.256463e+01	-5.042066e+01
1.460000e-06	-1.766892e-06	-6.957435e-10	-1.225668e+01	-5.017974e+01
1.470000e-06	-1.722412e-06	-6.886309e-10	-1.194813e+01	-4.993091e+01
1.480000e-06	-1.677784e-06	-6.840795e-10	-1.163855e+01	-4.967395e+01
1.490000e-06	-1.632992e-06	-6.815723e-10	-1.132783e+01	-4.940857e+01
1.500000e-06	-1.587986e-06	-6.780195e-10	-1.101563e+01	-4.913450e+01
1.510000e-06	-1.542816e-06	-6.741703e-10	-1.070230e+01	-4.885142e+01
1.520000e-06	-1.497568e-06	-6.699630e-10	-1.038841e+01	-4.855901e+01
1.530000e-06	-1.452254e-06	-6.652311e-10	-1.007408e+01	-4.825688e+01
1.540000e-06	-1.406916e-06	-6.578656e-10	-9.759579e+00	-4.794463e+01
1.550000e-06	-1.361530e-06	-6.509164e-10	-9.444740e+00	-4.762182e+01
1.560000e-06	-1.316031e-06	-6.443204e-10	-9.129121e+00	-4.728796e+01
1.570000e-06	-1.270360e-06	-6.382421e-10	-8.812310e+00	-4.694253e+01
1.580000e-06	-1.224523e-06	-6.327665e-10	-8.494344e+00	-4.658496e+01
1.590000e-06	-1.178643e-06	-6.293632e-10	-8.176076e+00	-4.621463e+01
1.600000e-06	-1.132737e-06	-6.263710e-10	-7.857637e+00	-4.583089e+01
1.610000e-06	-1.086720e-06	-6.221485e-10	-7.538419e+00	-4.543303e+01
1.620000e-06	-1.040615e-06	-6.178456e-10	-7.218600e+00	-4.502032e+01
1.630000e-06	-9.944152e-07	-6.126153e-10	-6.898117e+00	-4.459196e+01
1.640000e-06	-9.481761e-07	-6.052192e-10	-6.577363e+00	-4.414713e+01
1.650000e-06	-9.019052e-07	-5.954730e-10	-6.256388e+00	-4.368496e+01
1.660000e-06	-8.556073e-07	-5.840686e-10	-5.935226e+00	-4.320457e+01
1.670000e-06	-8.093069e-07	-5.720970e-10	-5.614047e+00	-4.270502e+01
1.680000e-06	-7.628826e-07	-5.614334e-10	-5.292008e+00	-4.218537e+01
1.690000e-06	-7.164103e-07	-5.532720e-10	-4.969637e+00	-4.164464e+01
1.700000e-06	-6.699359e-07	-5.455794e-10	-4.647250e+00	-4.108187e+01
1.710000e-06	-6.233567e-07	-5.396639e-10	-4.324137e+00	-4.049604e+01
1.720000e-06	-5.767417e-07	-5.350499e-10	-4.000775e+00	-3.988619e+01
1.730000e-06	-5.300750e-07	-5.284798e-10	-3.677055e+00	-3.925133e+01
1.740000e-06	-4.832897e-07	-5.180331e-10	-3.352512e+00	-3.859048e+01
1.750000e-06	-4.364030e-07	-5.046184e-10	-3.027265e+00	-3.790272e+01
1.760000e-06	-3.895583e-07	-4.895477e-10	-2.702310e+00	-3.718713e+01
1.770000e-06	-3.428622e-07	-4.760986e-10	-2.378386e+00	-3.644284e+01
1.780000e-06	-2.961079e-07	-4.645579e-10	-2.054059e+00	-3.566902e+01
1.790000e-06	-2.492196e-07	-4.546506e-10	-1.728801e+00	-3.486492e+01
1.800000e-06	-2.023127e-07	-4.453420e-10	-1.403414e+00	-3.402983e+01
1.810000e-06	-1.554519e-07	-4.349533e-10	-1.078347e+00	-3.316314e+01
1.820000e-06	-1.085695e-07	-4.235819e-10	-7.531311e-01	-3.226429e+01
1.830000e-06	-6.163666e-08	-4.103350e-10	-4.275647e-01	-3.133285e+01
1.840000e-06	-1.465908e-08	-3.965609e-10	-1.016880e-01	-3.036844e+01
1.850000e-06	3.233922e-08	-3.808383e-10	2.243326e-01	-2.937084e+01
1.860000e-06	7.931092e-08	-3.628692e-10	5.501686e-01	-2.833989e+01
1.870000e-06	1.262949e-07	-3.437863e-10	8.760898e-01	-2.727558e+01
1.880000e-06	1.732356e-07	-3.273713e-10	1.201711e+00	-2.617800e+01
1.890000e-06	2.201517e-07	-3.151185e-10	1.527161e+00	-2.504738e+01
1.900000e-06	2.671538e-07	-3.028911e-10	1.853208e+00	-2.388409e+01
1.910000e-06	3.140975e-07	-2.903832e-10	2.178850e+00	-2.268859e+01
1.920000e-06	3.609808e-07	-2.775043e-10	2.504073e+00	-2.146153e+01
1.930000e-06	4.077983e-07	-2.610419e-10	2.828839e+00	-2.020365e+01
1.940000e-06	4.545629e-07	-2.399154e-10	3.153238e+00	-1.891584e+01
1.950000e-06	5.013567e-07	-2.166048e-10	3.477840e+00	-1.759914e+01
1.960000e-06	5.479772e-07	-1.969141e-10	3.801240e+00	-1.625468e+01
1.970000e-06	5.945671e-07	-1.804889e-10	4.124427e+00	-1.488376e+01
1.980000e-06	6.412024e-07	-1.653631e-10	4.447930e+00	-1.348778e+01
1.990000e-06	6.877476e-07	-1.486640e-10	4.770807e+00	-1.206827e+01
2.000000e-06	7.341672e-07	-1.267909e-10	5.092814e+00	-1.062686e+01
2.010000e-06	7.805019e-07	-1.001375e-10	5.414231e+00	-9.165299e+00
2.020000e-06	8.267993e-07	-7.461080e-11	5.735389e+00	-7.685429e+00
2.030000e-06	8.729794e-07	-5.300800e-11	6.055734e+00	-6.189179e+00
2.040000e-06	9.190800e-07	-3.424643e-11	6.375527e+00	-4.678563e+00
2.050000e-06	9.652040e-07	-1.782116e-11	6.695483e+00	-3.155662e+00
2.060000e-06	1.011313e-06	1.955233e-13	7.015336e+00	-1.622620e+00
2.070000e-06	1.057327e-06	2.059288e-11	7.334530e+00	-8.162947e-02
2.080000e-06	1.103287e-06	4.428143e-11	7.653345e+00	1.465080e+00
2.090000e-06	1.149180e-06	7.040078e-11	7.971701e+00	3.015250e+00
2.100000e-06	1.195013e-06	9.516568e-11	8.289634e+00	4.566608e+00
2.110000e-06	1.240745e-06	1.170115e-10	8.606873e+00	6.116879e+00
2.120000e-06	1.286306e-06	1.354162e-10	8.922925e+00	7.663797e+00
2.130000e-06	1.331761e-06	1.523504e-10	9.238235e+00	9.205116e+00
2.140000e-06	1.377222e-06	1.694915e-10	9.553590e+00	1.073862e+01
2.150000e-06	1.422660e-06	1.891434e-10	9.868793e+00	1.226214e+01
2.160000e-06	1.467985e-06	2.132689e-10	1.018320e+01	1.377357e+01
2.170000e-06	1.513152e-06	2.394183e-10	1.049652e+01	1.527084e+01
2.180000e-06	1.558186e-06	2.648113e-10	1.080891e+01	1.675199e+01
2.190000e-06	1.603174e-06	2.865804e-10	1.112099e+01	1.821512e+01
2.200000e-06	1.648057e-06	3.036807e-10	1.143233e+01	1.965843e+01
2.210000e-06	1.692818e-06	3.176588e-10	1.174284e+01	2.108024e+01
2.220000e-06	1.737407e-06	3.310596e-10	1.205215e+01	2.247894e+01
2.230000e-06	1.781750e-06	3.464981e-10	1.235975e+01	2.385307e+01
2.240000e-06	1.825934e-06	3.637112e-10	1.266625e+01	2.520127e+01
2.250000e-06	1.870018e-06	3.808439e-10	1.297205e+01	2.652231e+01
2.260000e-06	1.914083e-06	4.011198e-10	1.327772e+01	2.781509e+01
2.270000e-06	1.958092e-06	4.225481e-10	1.358301e+01	2.907863e+01
2.280000e-06	2.001991e-06	4.407536e-10	1.388753e+01	3.031209e+01
2.290000e-06	2.045838e-06	4.575940e-10	1.419169e+01	3.151477e+01
2.300000e-06	2.089644e-06	4.723330e-10	1.449556e+01	3.268609e+01
2.310000e-06	2.133387e-06	4.850599e-10	1.479900e+01	3.382559e+01
2.320000e-06	2.177055e-06	4.964797e-10	1.510192e+01	3.493297e+01
2.330000e-06	2.220649e-06	5.090891e-10	1.540433e+01	3.600802e+01
2.340000e-06	2.264123e-06	5.239714e-10	1.570590e+01	3.705068e+01
2.350000e-06	2.307505e-06	5.409554e-10	1.600684e+01	3.806098e+01
2.360000e-06	2.350664e-06	5.570615e-10	1.630622e+01	3.903909e+01
2.370000e-06	2.393429e-06	5.698136e-10	1.660288e+01	3.998525e+01
2.380000e-06	2.435865e-06	5.810093e-10	1.689725e+01	4.089983e+01
2.390000e-06	2.477997e-06	5.908665e-10	1.718952e+01	4.178327e+01
2.400000e-06	2.519797e-06	6.015943e-10	1.747947e+01	4.263611e+01
2.410000e-06	2.561312e-06	6.119672e-10	1.776746e+01	4.345894e+01
2.420000e-06	2.602570e-06	6.224412e-10	1.805366e+01	4.425244e+01
2.430000e-06	2.643535e-06	6.328260e-10	1.833783e+01	4.501734e+01
2.440000e-06	2.684234e-06	6.415734e-10	1.862015e+01	4.575443e+01
2.450000e-06	2.724636e-06	6.496960e-10	1.890041e+01	4.646451e+01
2.460000e-06	2.764811e-06	6.575525e-10	1.917910e+01	4.714846e+01
2.470000e-06	2.804883e-06	6.669939e-10	1.945707e+01	4.780714e+01
2.480000e-06	2.844787e-06	6.787815e-10	1.973388e+01	4.844146e+01
2.490000e-06	2.884559e-06	6.913999e-10	2.000978e+01	4.905232e+01
2.500000e-06	2.924262e-06	7.032740e-10	2.028519e+01	4.964063e+01
2.510000e-06	2.963851e-06	7.097147e-10	2.055981e+01	5.020730e+01
2.520000e-06	3.003262e-06	7.118369e-10	2.083320e+01	5.075321e+01
2.530000e-06	3.042480e-06	7.141424e-10	2.110525e+01	5.127923e+01
2.540000e-06	3.081452e-06	7.186325e-10	2.137559e+01	5.178623e+01
2.550000e-06	3.120118e-06	7.253205e-10	2.164382e+01	5.227502e+01
2.560000e-06	3.158514e-06	7.350203e-10	2.191016e+01	5.274638e+01
2.570000e-06	3.196699e-06	7.472912e-10	2.217505e+01	5.320109e+01
2.580000e-06	3.234664e-06	7.581384e-10	2.243841e+01	5.363984e+01
2.590000e-06	3.272406e-06	7.657905e-10	2.270021e+01	5.406333e+01
2.600000e-06	3.310044e-06	7.701180e-10	2.296130e+01	5.447217e+01
2.610000e-06	3.347505e-06	7.715877e-10	2.322117e+01	5.486697e+01
2.620000e-06	3.384713e-06	7.719694e-10	2.347927e+01	5.524826e+01
2.630000e-06	3.421724e-06	7.740831e-10	2.373602e+01	5.561655e+01
2.640000e-06	3.458418e-06	7.784245e-10	2.399056e+01	5.597229e+01
2.650000e-06	3.494738e-06	7.853452e-10	2.424250e+01	5.631591e+01
2.660000e-06	3.530867e-06	7.946329e-10	2.449312e+01	5.664779e+01
2.670000e-06	3.566879e-06	8.023726e-10	2.474293e+01	5.696825e+01
2.680000e-06	3.602758e-06	8.065167e-10	2.499182e+01	5.727762e+01
2.690000e-06	3.638551e-06	8.091293e-10	2.524011e+01	5.757616e+01
2.700000e-06	3.674255e-06	8.106514e-10	2.548779e+01	5.786412e+01
2.710000e-06	3.709790e-06	8.119255e-10	2.573429e+01	5.814171e+01
2.720000e-06	3.745132e-06	8.149685e-10	2.597945e+01	5.840914e+01
2.730000e-06	3.780192e-06	8.200397e-10	2.622265e+01	5.866659e+01
2.740000e-06	3.814837e-06	8.253056e-10	2.646298e+01	5.891421e+01
2.750000e-06	3.848994e-06	8.311031e-10	2.669992e+01	5.915216e+01
2.760000e-06	3.882531e-06	8.376820e-10	2.693256e+01	5.938059e+01
2.770000e-06	3.915479e-06	8.435859e-10	2.716112e+01	5.959964e+01
2.780000e-06	3.948103e-06	8.488224e-10	2.738743e+01	5.980945e+01
2.790000e-06	3.980416e-06	8.522601e-10	2.761158e+01	6.001018e+01
2.800000e-06	4.012403e-06	8.524154e-10	2.783347e+01	6.020195e+01
2.810000e-06	4.044241e-06	8.516671e-10	2.805433e+01	6.038494e+01
2.820000e-06	4.075979e-06	8.522757e-10	2.827449e+01	6.055931e+01
2.830000e-06	4.107596e-06	8.549133e-10	2.849381e+01	6.072524e+01
2.840000e-06	4.138970e-06	8.588495e-10	2.871145e+01	6.088293e+01
2.850000e-06	4.170031e-06	8.638632e-10	2.892691e+01	6.103258e+01
2.860000e-06	4.200754e-06	8.682443e-10	2.914003e+01	6.117440e+01
2.870000e-06	4.231135e-06	8.707142e-10	2.935078e+01	6.130865e+01
2.880000e-06	4.261213e-06	8.726590e-10	2.955943e+01	6.143557e+01
2.890000e-06	4.291066e-06	8.751962e-10	2.976651e+01	6.155544e+01
2.900000e-06	4.320659e-06	8.775970e-10	2.997180e+01	6.166852e+01
