# Temperatura_=_10.33
# Concentracion g/m^3_=_1620.0
# C_Vs_to_Am_M_A/Vsm_=_65563218390.804596
# pendiente_HvsI_1/m_=_3716.3
# ordenada_HvsI_A/m_=_1297.0
# frecuencia_Hz_=_135104.68723524042

Tiempo_(s)	Campo_(V.s)	Magnetizacion_(V.s)	Campo_(kA/m)	Magnetizacion_(A/m)
0.000000e+00	-5.498076e-06	-1.390532e-09	-3.835420e+01	-9.307307e+01
1.000000e-08	-5.498176e-06	-1.388191e-09	-3.835490e+01	-9.307417e+01
2.000000e-08	-5.497997e-06	-1.383600e-09	-3.835365e+01	-9.307544e+01
3.000000e-08	-5.497395e-06	-1.378843e-09	-3.834945e+01	-9.307649e+01
4.000000e-08	-5.496234e-06	-1.375232e-09	-3.834135e+01	-9.307692e+01
5.000000e-08	-5.494561e-06	-1.372041e-09	-3.832968e+01	-9.307628e+01
6.000000e-08	-5.492415e-06	-1.378043e-09	-3.831471e+01	-9.307412e+01
7.000000e-08	-5.489670e-06	-1.402909e-09	-3.829557e+01	-9.306997e+01
8.000000e-08	-5.486374e-06	-1.384239e-09	-3.827257e+01	-9.306336e+01
9.000000e-08	-5.482616e-06	-1.320467e-09	-3.824636e+01	-9.305379e+01
1.000000e-07	-5.478506e-06	-1.334858e-09	-3.821769e+01	-9.304078e+01
1.100000e-07	-5.474157e-06	-1.419931e-09	-3.818735e+01	-9.302385e+01
1.200000e-07	-5.469591e-06	-1.391340e-09	-3.815549e+01	-9.300253e+01
1.300000e-07	-5.464652e-06	-1.336369e-09	-3.812104e+01	-9.297636e+01
1.400000e-07	-5.459302e-06	-1.311372e-09	-3.808372e+01	-9.294491e+01
1.500000e-07	-5.453674e-06	-1.418725e-09	-3.804446e+01	-9.290776e+01
1.600000e-07	-5.447636e-06	-1.394170e-09	-3.800234e+01	-9.286452e+01
1.700000e-07	-5.441080e-06	-1.330019e-09	-3.795660e+01	-9.281484e+01
1.800000e-07	-5.434122e-06	-1.329066e-09	-3.790807e+01	-9.275841e+01
1.900000e-07	-5.426914e-06	-1.429190e-09	-3.785779e+01	-9.269493e+01
2.000000e-07	-5.419409e-06	-1.435034e-09	-3.780543e+01	-9.262418e+01
2.100000e-07	-5.411625e-06	-1.379463e-09	-3.775113e+01	-9.254596e+01
2.200000e-07	-5.403641e-06	-1.364479e-09	-3.769543e+01	-9.246011e+01
2.300000e-07	-5.395315e-06	-1.399828e-09	-3.763735e+01	-9.236655e+01
2.400000e-07	-5.386426e-06	-1.416786e-09	-3.757534e+01	-9.226521e+01
2.500000e-07	-5.376890e-06	-1.385445e-09	-3.750882e+01	-9.215610e+01
2.600000e-07	-5.366673e-06	-1.383046e-09	-3.743754e+01	-9.203925e+01
2.700000e-07	-5.355917e-06	-1.366265e-09	-3.736251e+01	-9.191477e+01
2.800000e-07	-5.344718e-06	-1.373558e-09	-3.728439e+01	-9.178279e+01
2.900000e-07	-5.333091e-06	-1.344098e-09	-3.720328e+01	-9.164350e+01
3.000000e-07	-5.321048e-06	-1.356862e-09	-3.711927e+01	-9.149713e+01
3.100000e-07	-5.308571e-06	-1.357042e-09	-3.703223e+01	-9.134394e+01
3.200000e-07	-5.295720e-06	-1.406079e-09	-3.694258e+01	-9.118426e+01
3.300000e-07	-5.282442e-06	-1.365331e-09	-3.684996e+01	-9.101843e+01
3.400000e-07	-5.268724e-06	-1.350248e-09	-3.675426e+01	-9.084681e+01
3.500000e-07	-5.254601e-06	-1.352980e-09	-3.665574e+01	-9.066981e+01
3.600000e-07	-5.240162e-06	-1.373652e-09	-3.655502e+01	-9.048787e+01
3.700000e-07	-5.225276e-06	-1.313040e-09	-3.645117e+01	-9.030142e+01
3.800000e-07	-5.209881e-06	-1.345626e-09	-3.634377e+01	-9.011092e+01
3.900000e-07	-5.193974e-06	-1.383596e-09	-3.623281e+01	-8.991684e+01
4.000000e-07	-5.177543e-06	-1.341139e-09	-3.611819e+01	-8.971965e+01
4.100000e-07	-5.160725e-06	-1.307103e-09	-3.600086e+01	-8.951983e+01
4.200000e-07	-5.143638e-06	-1.383581e-09	-3.588167e+01	-8.931783e+01
4.300000e-07	-5.126327e-06	-1.363269e-09	-3.576091e+01	-8.911413e+01
4.400000e-07	-5.108667e-06	-1.276644e-09	-3.563771e+01	-8.890916e+01
4.500000e-07	-5.090567e-06	-1.327600e-09	-3.551145e+01	-8.870335e+01
4.600000e-07	-5.071982e-06	-1.378364e-09	-3.538180e+01	-8.849710e+01
4.700000e-07	-5.053015e-06	-1.294112e-09	-3.524949e+01	-8.829078e+01
4.800000e-07	-5.033789e-06	-1.287853e-09	-3.511537e+01	-8.808474e+01
4.900000e-07	-5.014301e-06	-1.378358e-09	-3.497942e+01	-8.787929e+01
5.000000e-07	-4.994599e-06	-1.324606e-09	-3.484198e+01	-8.767472e+01
5.100000e-07	-4.974655e-06	-1.274553e-09	-3.470286e+01	-8.747125e+01
5.200000e-07	-4.954450e-06	-1.347721e-09	-3.456190e+01	-8.726909e+01
5.300000e-07	-4.933873e-06	-1.345167e-09	-3.441836e+01	-8.706839e+01
5.400000e-07	-4.912861e-06	-1.250292e-09	-3.427179e+01	-8.686926e+01
5.500000e-07	-4.891507e-06	-1.303613e-09	-3.412282e+01	-8.667179e+01
5.600000e-07	-4.869827e-06	-1.341553e-09	-3.397158e+01	-8.647600e+01
5.700000e-07	-4.847910e-06	-1.267968e-09	-3.381869e+01	-8.628186e+01
5.800000e-07	-4.825637e-06	-1.262024e-09	-3.366331e+01	-8.608933e+01
5.900000e-07	-4.802913e-06	-1.333027e-09	-3.350479e+01	-8.589830e+01
6.000000e-07	-4.779897e-06	-1.282495e-09	-3.334423e+01	-8.570865e+01
6.100000e-07	-4.756577e-06	-1.253589e-09	-3.318156e+01	-8.552019e+01
6.200000e-07	-4.732961e-06	-1.299744e-09	-3.301681e+01	-8.533272e+01
6.300000e-07	-4.709134e-06	-1.293435e-09	-3.285060e+01	-8.514599e+01
6.400000e-07	-4.685015e-06	-1.242129e-09	-3.268235e+01	-8.495974e+01
6.500000e-07	-4.660551e-06	-1.269770e-09	-3.251169e+01	-8.477366e+01
6.600000e-07	-4.635693e-06	-1.271495e-09	-3.233828e+01	-8.458746e+01
6.700000e-07	-4.610336e-06	-1.237829e-09	-3.216139e+01	-8.440077e+01
6.800000e-07	-4.584417e-06	-1.245952e-09	-3.198058e+01	-8.421327e+01
6.900000e-07	-4.557906e-06	-1.273168e-09	-3.179564e+01	-8.402458e+01
7.000000e-07	-4.530942e-06	-1.245489e-09	-3.160754e+01	-8.383434e+01
7.100000e-07	-4.503683e-06	-1.231955e-09	-3.141738e+01	-8.364217e+01
7.200000e-07	-4.476144e-06	-1.242753e-09	-3.122528e+01	-8.344770e+01
7.300000e-07	-4.448399e-06	-1.231278e-09	-3.103173e+01	-8.325057e+01
7.400000e-07	-4.420530e-06	-1.215041e-09	-3.083732e+01	-8.305041e+01
7.500000e-07	-4.392447e-06	-1.225372e-09	-3.064141e+01	-8.284689e+01
7.600000e-07	-4.364063e-06	-1.227295e-09	-3.044341e+01	-8.263966e+01
7.700000e-07	-4.335375e-06	-1.212908e-09	-3.024328e+01	-8.242842e+01
7.800000e-07	-4.306363e-06	-1.213411e-09	-3.004089e+01	-8.221286e+01
7.900000e-07	-4.276989e-06	-1.209813e-09	-2.983599e+01	-8.199271e+01
8.000000e-07	-4.247331e-06	-1.195174e-09	-2.962909e+01	-8.176772e+01
8.100000e-07	-4.217449e-06	-1.188838e-09	-2.942064e+01	-8.153768e+01
8.200000e-07	-4.187291e-06	-1.197846e-09	-2.921026e+01	-8.130238e+01
8.300000e-07	-4.156912e-06	-1.188375e-09	-2.899834e+01	-8.106167e+01
8.400000e-07	-4.126193e-06	-1.184219e-09	-2.878404e+01	-8.081540e+01
8.500000e-07	-4.095061e-06	-1.185620e-09	-2.856687e+01	-8.056346e+01
8.600000e-07	-4.063710e-06	-1.179220e-09	-2.834817e+01	-8.030578e+01
8.700000e-07	-4.032214e-06	-1.160279e-09	-2.812845e+01	-8.004231e+01
8.800000e-07	-4.000565e-06	-1.160691e-09	-2.790767e+01	-7.977302e+01
8.900000e-07	-3.968743e-06	-1.153525e-09	-2.768568e+01	-7.949792e+01
9.000000e-07	-3.936671e-06	-1.144743e-09	-2.746195e+01	-7.921705e+01
9.100000e-07	-3.904338e-06	-1.145981e-09	-2.723639e+01	-7.893046e+01
9.200000e-07	-3.871706e-06	-1.155433e-09	-2.700876e+01	-7.863822e+01
9.300000e-07	-3.838702e-06	-1.145523e-09	-2.677852e+01	-7.834043e+01
9.400000e-07	-3.805295e-06	-1.140926e-09	-2.654548e+01	-7.803722e+01
9.500000e-07	-3.771379e-06	-1.139090e-09	-2.630888e+01	-7.772871e+01
9.600000e-07	-3.736924e-06	-1.127899e-09	-2.606853e+01	-7.741504e+01
9.700000e-07	-3.702018e-06	-1.110291e-09	-2.582502e+01	-7.709637e+01
9.800000e-07	-3.666806e-06	-1.108863e-09	-2.557939e+01	-7.677286e+01
9.900000e-07	-3.631392e-06	-1.105829e-09	-2.533234e+01	-7.644469e+01
1.000000e-06	-3.595798e-06	-1.099624e-09	-2.508404e+01	-7.611201e+01
1.010000e-06	-3.560061e-06	-1.100397e-09	-2.483475e+01	-7.577501e+01
1.020000e-06	-3.524213e-06	-1.102188e-09	-2.458467e+01	-7.543385e+01
1.030000e-06	-3.488184e-06	-1.092141e-09	-2.433333e+01	-7.508870e+01
1.040000e-06	-3.451918e-06	-1.082744e-09	-2.408034e+01	-7.473971e+01
1.050000e-06	-3.415414e-06	-1.082080e-09	-2.382570e+01	-7.438703e+01
1.060000e-06	-3.378739e-06	-1.073980e-09	-2.356985e+01	-7.403080e+01
1.070000e-06	-3.341848e-06	-1.066846e-09	-2.331250e+01	-7.367114e+01
1.080000e-06	-3.304603e-06	-1.066781e-09	-2.305268e+01	-7.330818e+01
1.090000e-06	-3.267121e-06	-1.066010e-09	-2.279122e+01	-7.294200e+01
1.100000e-06	-3.229464e-06	-1.053897e-09	-2.252852e+01	-7.257269e+01
1.110000e-06	-3.191526e-06	-1.048877e-09	-2.226387e+01	-7.220031e+01
1.120000e-06	-3.153349e-06	-1.046475e-09	-2.199755e+01	-7.182493e+01
1.130000e-06	-3.114984e-06	-1.038699e-09	-2.172992e+01	-7.144656e+01
1.140000e-06	-3.076446e-06	-1.030576e-09	-2.146108e+01	-7.106522e+01
1.150000e-06	-3.037662e-06	-1.029152e-09	-2.119052e+01	-7.068092e+01
1.160000e-06	-2.998636e-06	-1.020530e-09	-2.091828e+01	-7.029363e+01
1.170000e-06	-2.959420e-06	-1.010797e-09	-2.064471e+01	-6.990332e+01
1.180000e-06	-2.919968e-06	-1.005019e-09	-2.036950e+01	-6.950995e+01
1.190000e-06	-2.880336e-06	-1.001553e-09	-2.009303e+01	-6.911344e+01
1.200000e-06	-2.840624e-06	-9.924400e-10	-1.981600e+01	-6.871372e+01
1.210000e-06	-2.800869e-06	-9.876974e-10	-1.953867e+01	-6.831071e+01
1.220000e-06	-2.761008e-06	-9.820445e-10	-1.926060e+01	-6.790429e+01
1.230000e-06	-2.720974e-06	-9.743900e-10	-1.898133e+01	-6.749436e+01
1.240000e-06	-2.680843e-06	-9.677109e-10	-1.870138e+01	-6.708080e+01
1.250000e-06	-2.640540e-06	-9.656934e-10	-1.842023e+01	-6.666346e+01
1.260000e-06	-2.600015e-06	-9.597294e-10	-1.813753e+01	-6.624220e+01
1.270000e-06	-2.559261e-06	-9.514154e-10	-1.785323e+01	-6.581689e+01
1.280000e-06	-2.518192e-06	-9.464391e-10	-1.756673e+01	-6.538736e+01
1.290000e-06	-2.476840e-06	-9.411364e-10	-1.727827e+01	-6.495346e+01
1.300000e-06	-2.435108e-06	-9.311923e-10	-1.698714e+01	-6.451500e+01
1.310000e-06	-2.393033e-06	-9.206842e-10	-1.669363e+01	-6.407182e+01
1.320000e-06	-2.350747e-06	-9.123542e-10	-1.639865e+01	-6.362373e+01
1.330000e-06	-2.308165e-06	-9.013362e-10	-1.610160e+01	-6.317054e+01
1.340000e-06	-2.265266e-06	-8.923673e-10	-1.580234e+01	-6.271205e+01
1.350000e-06	-2.222156e-06	-8.879336e-10	-1.550161e+01	-6.224807e+01
1.360000e-06	-2.178844e-06	-8.812213e-10	-1.519946e+01	-6.177837e+01
1.370000e-06	-2.135331e-06	-8.711411e-10	-1.489592e+01	-6.130273e+01
1.380000e-06	-2.091721e-06	-8.600343e-10	-1.459171e+01	-6.082092e+01
1.390000e-06	-2.048043e-06	-8.461544e-10	-1.428701e+01	-6.033268e+01
1.400000e-06	-2.004299e-06	-8.356735e-10	-1.398186e+01	-5.983774e+01
1.410000e-06	-1.960504e-06	-8.331166e-10	-1.367634e+01	-5.933583e+01
1.420000e-06	-1.916680e-06	-8.331262e-10	-1.337063e+01	-5.882664e+01
1.430000e-06	-1.872829e-06	-8.286326e-10	-1.306473e+01	-5.830986e+01
1.440000e-06	-1.828870e-06	-8.197935e-10	-1.275807e+01	-5.778514e+01
1.450000e-06	-1.784766e-06	-8.060630e-10	-1.245041e+01	-5.725212e+01
1.460000e-06	-1.740567e-06	-7.889625e-10	-1.214207e+01	-5.671039e+01
1.470000e-06	-1.696323e-06	-7.708822e-10	-1.183343e+01	-5.615954e+01
1.480000e-06	-1.651970e-06	-7.593459e-10	-1.152403e+01	-5.559911e+01
1.490000e-06	-1.607427e-06	-7.513618e-10	-1.121330e+01	-5.502863e+01
1.500000e-06	-1.562745e-06	-7.475736e-10	-1.090160e+01	-5.444757e+01
1.510000e-06	-1.517955e-06	-7.462445e-10	-1.058915e+01	-5.385538e+01
1.520000e-06	-1.473035e-06	-7.408552e-10	-1.027579e+01	-5.325148e+01
1.530000e-06	-1.427955e-06	-7.297525e-10	-9.961319e+00	-5.263526e+01
1.540000e-06	-1.382790e-06	-7.154453e-10	-9.646252e+00	-5.200604e+01
1.550000e-06	-1.337523e-06	-6.992493e-10	-9.330470e+00	-5.136316e+01
1.560000e-06	-1.292063e-06	-6.860370e-10	-9.013344e+00	-5.070587e+01
1.570000e-06	-1.246569e-06	-6.751171e-10	-8.695981e+00	-5.003342e+01
1.580000e-06	-1.201133e-06	-6.674620e-10	-8.379019e+00	-4.934503e+01
1.590000e-06	-1.155564e-06	-6.628839e-10	-8.061137e+00	-4.863986e+01
1.600000e-06	-1.109800e-06	-6.575823e-10	-7.741889e+00	-4.791709e+01
1.610000e-06	-1.063923e-06	-6.482154e-10	-7.421852e+00	-4.717583e+01
1.620000e-06	-1.018005e-06	-6.350096e-10	-7.101532e+00	-4.641520e+01
1.630000e-06	-9.720530e-07	-6.181013e-10	-6.780976e+00	-4.563429e+01
1.640000e-06	-9.260117e-07	-6.019262e-10	-6.459795e+00	-4.483219e+01
1.650000e-06	-8.799887e-07	-5.881942e-10	-6.138741e+00	-4.400795e+01
1.660000e-06	-8.339734e-07	-5.753796e-10	-5.817742e+00	-4.316067e+01
1.670000e-06	-7.878503e-07	-5.644517e-10	-5.495990e+00	-4.228942e+01
1.680000e-06	-7.417569e-07	-5.532556e-10	-5.174446e+00	-4.139328e+01
1.690000e-06	-6.956112e-07	-5.411994e-10	-4.852536e+00	-4.047136e+01
1.700000e-06	-6.493028e-07	-5.262782e-10	-4.529492e+00	-3.952279e+01
1.710000e-06	-6.029374e-07	-5.112958e-10	-4.206050e+00	-3.854673e+01
1.720000e-06	-5.565021e-07	-4.960996e-10	-3.882121e+00	-3.754238e+01
1.730000e-06	-5.099925e-07	-4.793549e-10	-3.557673e+00	-3.650898e+01
1.740000e-06	-4.634996e-07	-4.627140e-10	-3.233341e+00	-3.544583e+01
1.750000e-06	-4.169904e-07	-4.456040e-10	-2.908897e+00	-3.435229e+01
1.760000e-06	-3.704444e-07	-4.282900e-10	-2.584195e+00	-3.322777e+01
1.770000e-06	-3.238947e-07	-4.127677e-10	-2.259468e+00	-3.207178e+01
1.780000e-06	-2.773390e-07	-3.974844e-10	-1.934698e+00	-3.088390e+01
1.790000e-06	-2.307778e-07	-3.824568e-10	-1.609890e+00	-2.966379e+01
1.800000e-06	-1.841486e-07	-3.670305e-10	-1.284608e+00	-2.841122e+01
1.810000e-06	-1.375189e-07	-3.505353e-10	-9.593222e-01	-2.712605e+01
1.820000e-06	-9.090676e-08	-3.330758e-10	-6.341594e-01	-2.580825e+01
1.830000e-06	-4.429177e-08	-3.159184e-10	-3.089764e-01	-2.445789e+01
1.840000e-06	2.296835e-09	-2.983442e-10	1.602257e-02	-2.307516e+01
1.850000e-06	4.887348e-08	-2.784005e-10	3.409381e-01	-2.166039e+01
1.860000e-06	9.543633e-08	-2.564757e-10	6.657573e-01	-2.021400e+01
1.870000e-06	1.420102e-07	-2.336837e-10	9.906534e-01	-1.873653e+01
1.880000e-06	1.885286e-07	-2.115618e-10	1.315162e+00	-1.722869e+01
1.890000e-06	2.350194e-07	-1.917607e-10	1.639479e+00	-1.569125e+01
1.900000e-06	2.815846e-07	-1.732061e-10	1.964315e+00	-1.412516e+01
1.910000e-06	3.281017e-07	-1.549836e-10	2.288815e+00	-1.253146e+01
1.920000e-06	3.745529e-07	-1.352026e-10	2.612856e+00	-1.091133e+01
1.930000e-06	4.209954e-07	-1.103468e-10	2.936835e+00	-9.266044e+00
1.940000e-06	4.673493e-07	-8.046172e-11	3.260197e+00	-7.597020e+00
1.950000e-06	5.136202e-07	-5.084223e-11	3.582980e+00	-5.905765e+00
1.960000e-06	5.598722e-07	-2.784790e-11	3.905631e+00	-4.193897e+00
1.970000e-06	6.061032e-07	-8.115450e-12	4.228135e+00	-2.463132e+00
1.980000e-06	6.523625e-07	1.097148e-11	4.550836e+00	-7.152748e-01
1.990000e-06	6.985706e-07	3.282734e-11	4.873181e+00	1.047785e+00
2.000000e-06	7.447122e-07	5.903510e-11	5.195062e+00	2.824083e+00
2.010000e-06	7.908089e-07	8.954309e-11	5.516629e+00	4.611590e+00
2.020000e-06	8.368105e-07	1.198354e-10	5.837533e+00	6.408220e+00
2.030000e-06	8.827795e-07	1.461237e-10	6.158210e+00	8.211838e+00
2.040000e-06	9.286628e-07	1.682723e-10	6.478288e+00	1.002028e+01
2.050000e-06	9.744485e-07	1.901072e-10	6.797687e+00	1.183134e+01
2.060000e-06	1.020241e-06	2.154730e-10	7.117135e+00	1.364282e+01
2.070000e-06	1.065986e-06	2.403794e-10	7.436247e+00	1.545249e+01
2.080000e-06	1.111652e-06	2.673451e-10	7.754811e+00	1.725816e+01
2.090000e-06	1.157282e-06	2.964561e-10	8.073121e+00	1.905763e+01
2.100000e-06	1.202863e-06	3.246547e-10	8.391089e+00	2.084874e+01
2.110000e-06	1.248375e-06	3.493576e-10	8.708579e+00	2.262937e+01
2.120000e-06	1.293754e-06	3.723093e-10	9.025141e+00	2.439744e+01
2.130000e-06	1.338988e-06	3.944501e-10	9.340689e+00	2.615095e+01
2.140000e-06	1.384167e-06	4.140715e-10	9.655858e+00	2.788793e+01
2.150000e-06	1.429261e-06	4.352317e-10	9.970430e+00	2.960654e+01
2.160000e-06	1.474216e-06	4.593255e-10	1.028403e+01	3.130497e+01
2.170000e-06	1.519066e-06	4.851174e-10	1.059690e+01	3.298155e+01
2.180000e-06	1.563788e-06	5.097969e-10	1.090888e+01	3.463468e+01
2.190000e-06	1.608455e-06	5.321928e-10	1.122047e+01	3.626289e+01
2.200000e-06	1.653029e-06	5.521228e-10	1.153142e+01	3.786479e+01
2.210000e-06	1.697384e-06	5.680687e-10	1.184083e+01	3.943914e+01
2.220000e-06	1.741575e-06	5.840283e-10	1.214911e+01	4.098479e+01
2.230000e-06	1.785672e-06	6.025912e-10	1.245672e+01	4.250075e+01
2.240000e-06	1.829698e-06	6.218755e-10	1.276385e+01	4.398610e+01
2.250000e-06	1.873633e-06	6.430998e-10	1.307034e+01	4.544010e+01
2.260000e-06	1.917457e-06	6.657631e-10	1.337605e+01	4.686211e+01
2.270000e-06	1.961228e-06	6.887342e-10	1.368139e+01	4.825160e+01
2.280000e-06	2.004978e-06	7.108131e-10	1.398659e+01	4.960819e+01
2.290000e-06	2.048670e-06	7.308543e-10	1.429139e+01	5.093161e+01
2.300000e-06	2.092310e-06	7.459738e-10	1.459581e+01	5.222170e+01
2.310000e-06	2.135860e-06	7.570895e-10	1.489962e+01	5.347842e+01
2.320000e-06	2.179300e-06	7.700210e-10	1.520265e+01	5.470184e+01
2.330000e-06	2.222593e-06	7.839760e-10	1.550466e+01	5.589212e+01
2.340000e-06	2.265738e-06	7.986567e-10	1.580564e+01	5.704953e+01
2.350000e-06	2.308698e-06	8.159010e-10	1.610532e+01	5.817442e+01
2.360000e-06	2.351348e-06	8.341594e-10	1.640285e+01	5.926724e+01
2.370000e-06	2.393838e-06	8.490558e-10	1.669925e+01	6.032849e+01
2.380000e-06	2.435963e-06	8.608653e-10	1.699311e+01	6.135876e+01
2.390000e-06	2.477545e-06	8.705642e-10	1.728319e+01	6.235870e+01
2.400000e-06	2.518807e-06	8.818951e-10	1.757102e+01	6.332899e+01
2.410000e-06	2.559862e-06	8.968246e-10	1.785743e+01	6.427038e+01
2.420000e-06	2.600691e-06	9.121340e-10	1.814224e+01	6.518364e+01
2.430000e-06	2.641241e-06	9.267985e-10	1.842512e+01	6.606958e+01
2.440000e-06	2.681553e-06	9.392792e-10	1.870633e+01	6.692903e+01
2.450000e-06	2.721644e-06	9.503493e-10	1.898600e+01	6.776283e+01
2.460000e-06	2.761577e-06	9.604919e-10	1.926458e+01	6.857182e+01
2.470000e-06	2.801395e-06	9.701513e-10	1.954234e+01	6.935685e+01
2.480000e-06	2.841130e-06	9.820931e-10	1.981953e+01	7.011876e+01
2.490000e-06	2.880770e-06	9.952947e-10	2.009605e+01	7.085839e+01
2.500000e-06	2.920305e-06	1.006949e-09	2.037185e+01	7.157653e+01
2.510000e-06	2.959682e-06	1.017411e-09	2.064654e+01	7.227397e+01
2.520000e-06	2.998805e-06	1.025987e-09	2.091946e+01	7.295148e+01
2.530000e-06	3.037692e-06	1.032706e-09	2.119073e+01	7.360979e+01
2.540000e-06	3.076366e-06	1.039981e-09	2.146052e+01	7.424958e+01
2.550000e-06	3.114774e-06	1.049117e-09	2.172845e+01	7.487152e+01
2.560000e-06	3.152922e-06	1.061026e-09	2.199457e+01	7.547623e+01
2.570000e-06	3.190887e-06	1.071948e-09	2.225941e+01	7.606429e+01
2.580000e-06	3.228666e-06	1.079870e-09	2.252296e+01	7.663625e+01
2.590000e-06	3.266271e-06	1.087493e-09	2.278528e+01	7.719259e+01
2.600000e-06	3.303714e-06	1.094827e-09	2.304648e+01	7.773379e+01
2.610000e-06	3.340898e-06	1.100366e-09	2.330588e+01	7.826026e+01
2.620000e-06	3.377789e-06	1.105305e-09	2.356323e+01	7.877239e+01
2.630000e-06	3.414425e-06	1.111729e-09	2.381880e+01	7.927054e+01
2.640000e-06	3.450762e-06	1.118110e-09	2.407228e+01	7.975501e+01
2.650000e-06	3.486825e-06	1.124467e-09	2.432385e+01	8.022610e+01
2.660000e-06	3.522757e-06	1.131664e-09	2.457452e+01	8.068407e+01
2.670000e-06	3.558615e-06	1.138333e-09	2.482465e+01	8.112915e+01
2.680000e-06	3.594338e-06	1.146060e-09	2.507386e+01	8.156156e+01
2.690000e-06	3.629857e-06	1.155343e-09	2.532164e+01	8.198150e+01
2.700000e-06	3.665179e-06	1.162776e-09	2.556804e+01	8.238914e+01
2.710000e-06	3.700318e-06	1.167781e-09	2.581316e+01	8.278468e+01
2.720000e-06	3.735202e-06	1.173583e-09	2.605652e+01	8.316827e+01
2.730000e-06	3.769741e-06	1.180202e-09	2.629746e+01	8.354008e+01
2.740000e-06	3.803797e-06	1.185995e-09	2.653503e+01	8.390028e+01
2.750000e-06	3.837267e-06	1.191760e-09	2.676851e+01	8.424904e+01
2.760000e-06	3.870267e-06	1.197462e-09	2.699872e+01	8.458653e+01
2.770000e-06	3.902930e-06	1.202553e-09	2.722658e+01	8.491295e+01
2.780000e-06	3.935272e-06	1.208082e-09	2.745219e+01	8.522849e+01
2.790000e-06	3.967355e-06	1.215806e-09	2.767600e+01	8.553336e+01
2.800000e-06	3.999222e-06	1.223893e-09	2.789830e+01	8.582778e+01
2.810000e-06	4.030914e-06	1.229270e-09	2.811938e+01	8.611201e+01
2.820000e-06	4.062436e-06	1.232870e-09	2.833928e+01	8.638629e+01
2.830000e-06	4.093728e-06	1.236700e-09	2.855757e+01	8.665090e+01
2.840000e-06	4.124821e-06	1.241513e-09	2.877447e+01	8.690615e+01
2.850000e-06	4.155709e-06	1.248565e-09	2.898994e+01	8.715233e+01
2.860000e-06	4.186225e-06	1.257117e-09	2.920282e+01	8.738978e+01
2.870000e-06	4.216401e-06	1.263795e-09	2.941333e+01	8.761884e+01
2.880000e-06	4.246280e-06	1.268838e-09	2.962176e+01	8.783986e+01
2.890000e-06	4.275802e-06	1.274227e-09	2.982770e+01	8.805322e+01
2.900000e-06	4.305045e-06	1.278831e-09	3.003170e+01	8.825928e+01
