# Temperatura_=_14.79
# Concentracion g/m^3_=_1620.0
# C_Vs_to_Am_M_A/Vsm_=_65563218390.804596
# pendiente_HvsI_1/m_=_3716.3
# ordenada_HvsI_A/m_=_1297.0
# frecuencia_Hz_=_135099.9374690415

Tiempo_(s)	Campo_(V.s)	Magnetizacion_(V.s)	Campo_(kA/m)	Magnetizacion_(A/m)
0.000000e+00	-5.518550e-06	-1.519420e-09	-3.837935e+01	-9.923008e+01
1.000000e-08	-5.518875e-06	-1.522017e-09	-3.838161e+01	-9.923258e+01
2.000000e-08	-5.518925e-06	-1.522431e-09	-3.838195e+01	-9.923664e+01
3.000000e-08	-5.518651e-06	-1.520129e-09	-3.838005e+01	-9.924202e+01
4.000000e-08	-5.517995e-06	-1.515921e-09	-3.837549e+01	-9.924848e+01
5.000000e-08	-5.516780e-06	-1.509482e-09	-3.836704e+01	-9.925569e+01
6.000000e-08	-5.514921e-06	-1.501021e-09	-3.835411e+01	-9.926332e+01
7.000000e-08	-5.512433e-06	-1.498700e-09	-3.833680e+01	-9.927098e+01
8.000000e-08	-5.509394e-06	-1.511475e-09	-3.831567e+01	-9.927827e+01
9.000000e-08	-5.505878e-06	-1.512990e-09	-3.829122e+01	-9.928473e+01
1.000000e-07	-5.501911e-06	-1.500892e-09	-3.826363e+01	-9.928992e+01
1.100000e-07	-5.497663e-06	-1.516925e-09	-3.823409e+01	-9.929335e+01
1.200000e-07	-5.493241e-06	-1.522334e-09	-3.820333e+01	-9.929454e+01
1.300000e-07	-5.488577e-06	-1.482852e-09	-3.817090e+01	-9.929299e+01
1.400000e-07	-5.483549e-06	-1.466736e-09	-3.813593e+01	-9.928819e+01
1.500000e-07	-5.478112e-06	-1.486783e-09	-3.809811e+01	-9.927965e+01
1.600000e-07	-5.472291e-06	-1.522054e-09	-3.805763e+01	-9.926689e+01
1.700000e-07	-5.466040e-06	-1.490463e-09	-3.801416e+01	-9.924943e+01
1.800000e-07	-5.459398e-06	-1.497547e-09	-3.796797e+01	-9.922681e+01
1.900000e-07	-5.452357e-06	-1.551441e-09	-3.791900e+01	-9.919860e+01
2.000000e-07	-5.444876e-06	-1.566969e-09	-3.786697e+01	-9.916438e+01
2.100000e-07	-5.437127e-06	-1.503849e-09	-3.781308e+01	-9.912379e+01
2.200000e-07	-5.429254e-06	-1.483759e-09	-3.775833e+01	-9.907647e+01
2.300000e-07	-5.421159e-06	-1.522444e-09	-3.770203e+01	-9.902211e+01
2.400000e-07	-5.412636e-06	-1.547438e-09	-3.764276e+01	-9.896046e+01
2.500000e-07	-5.403558e-06	-1.530717e-09	-3.757962e+01	-9.889128e+01
2.600000e-07	-5.393835e-06	-1.515680e-09	-3.751200e+01	-9.881438e+01
2.700000e-07	-5.383444e-06	-1.514327e-09	-3.743974e+01	-9.872964e+01
2.800000e-07	-5.372498e-06	-1.492800e-09	-3.736361e+01	-9.863695e+01
2.900000e-07	-5.361063e-06	-1.482807e-09	-3.728409e+01	-9.853627e+01
3.000000e-07	-5.349200e-06	-1.485164e-09	-3.720159e+01	-9.842760e+01
3.100000e-07	-5.336958e-06	-1.497343e-09	-3.711645e+01	-9.831098e+01
3.200000e-07	-5.324348e-06	-1.497298e-09	-3.702875e+01	-9.818650e+01
3.300000e-07	-5.311371e-06	-1.512722e-09	-3.693850e+01	-9.805428e+01
3.400000e-07	-5.297976e-06	-1.493665e-09	-3.684534e+01	-9.791449e+01
3.500000e-07	-5.284178e-06	-1.484271e-09	-3.674938e+01	-9.776734e+01
3.600000e-07	-5.269895e-06	-1.485444e-09	-3.665005e+01	-9.761306e+01
3.700000e-07	-5.255189e-06	-1.478442e-09	-3.654777e+01	-9.745193e+01
3.800000e-07	-5.240058e-06	-1.452959e-09	-3.644254e+01	-9.728425e+01
3.900000e-07	-5.224331e-06	-1.486034e-09	-3.633317e+01	-9.711033e+01
4.000000e-07	-5.208104e-06	-1.495561e-09	-3.622031e+01	-9.693052e+01
4.100000e-07	-5.191521e-06	-1.446003e-09	-3.610499e+01	-9.674519e+01
4.200000e-07	-5.174612e-06	-1.437063e-09	-3.598739e+01	-9.655469e+01
4.300000e-07	-5.157382e-06	-1.481773e-09	-3.586757e+01	-9.635942e+01
4.400000e-07	-5.139812e-06	-1.449580e-09	-3.574537e+01	-9.615976e+01
4.500000e-07	-5.121906e-06	-1.412994e-09	-3.562084e+01	-9.595608e+01
4.600000e-07	-5.103623e-06	-1.466057e-09	-3.549369e+01	-9.574877e+01
4.700000e-07	-5.084844e-06	-1.472063e-09	-3.536309e+01	-9.553819e+01
4.800000e-07	-5.065692e-06	-1.403371e-09	-3.522990e+01	-9.532472e+01
4.900000e-07	-5.046235e-06	-1.421731e-09	-3.509458e+01	-9.510869e+01
5.000000e-07	-5.026534e-06	-1.465504e-09	-3.495757e+01	-9.489043e+01
5.100000e-07	-5.006678e-06	-1.413038e-09	-3.481948e+01	-9.467024e+01
5.200000e-07	-4.986581e-06	-1.395853e-09	-3.467971e+01	-9.444840e+01
5.300000e-07	-4.966146e-06	-1.445940e-09	-3.453759e+01	-9.422518e+01
5.400000e-07	-4.945327e-06	-1.424934e-09	-3.439281e+01	-9.400079e+01
5.500000e-07	-4.924138e-06	-1.383840e-09	-3.424545e+01	-9.377543e+01
5.600000e-07	-4.902610e-06	-1.422105e-09	-3.409572e+01	-9.354928e+01
5.700000e-07	-4.880767e-06	-1.417686e-09	-3.394382e+01	-9.332246e+01
5.800000e-07	-4.858569e-06	-1.367600e-09	-3.378944e+01	-9.309508e+01
5.900000e-07	-4.835946e-06	-1.387098e-09	-3.363210e+01	-9.286722e+01
6.000000e-07	-4.813014e-06	-1.417099e-09	-3.347262e+01	-9.263891e+01
6.100000e-07	-4.789795e-06	-1.379067e-09	-3.331114e+01	-9.241017e+01
6.200000e-07	-4.766308e-06	-1.374328e-09	-3.314780e+01	-9.218098e+01
6.300000e-07	-4.742668e-06	-1.395502e-09	-3.298339e+01	-9.195129e+01
6.400000e-07	-4.718784e-06	-1.376514e-09	-3.281729e+01	-9.172104e+01
6.500000e-07	-4.694577e-06	-1.360199e-09	-3.264894e+01	-9.149011e+01
6.600000e-07	-4.669939e-06	-1.377858e-09	-3.247759e+01	-9.125841e+01
6.700000e-07	-4.644805e-06	-1.368524e-09	-3.230280e+01	-9.102578e+01
6.800000e-07	-4.619157e-06	-1.351524e-09	-3.212442e+01	-9.079207e+01
6.900000e-07	-4.592932e-06	-1.359293e-09	-3.194204e+01	-9.055712e+01
7.000000e-07	-4.566244e-06	-1.361126e-09	-3.175643e+01	-9.032074e+01
7.100000e-07	-4.539190e-06	-1.346910e-09	-3.156828e+01	-9.008274e+01
7.200000e-07	-4.511767e-06	-1.344602e-09	-3.137757e+01	-8.984292e+01
7.300000e-07	-4.484112e-06	-1.340395e-09	-3.118524e+01	-8.960109e+01
7.400000e-07	-4.456347e-06	-1.332398e-09	-3.099214e+01	-8.935703e+01
7.500000e-07	-4.428412e-06	-1.331962e-09	-3.079786e+01	-8.911056e+01
7.600000e-07	-4.400210e-06	-1.333183e-09	-3.060173e+01	-8.886147e+01
7.700000e-07	-4.371697e-06	-1.325407e-09	-3.040344e+01	-8.860957e+01
7.800000e-07	-4.342804e-06	-1.319377e-09	-3.020249e+01	-8.835467e+01
7.900000e-07	-4.313545e-06	-1.314537e-09	-2.999901e+01	-8.809662e+01
8.000000e-07	-4.284032e-06	-1.305318e-09	-2.979376e+01	-8.783523e+01
8.100000e-07	-4.254270e-06	-1.299869e-09	-2.958678e+01	-8.757037e+01
8.200000e-07	-4.224247e-06	-1.295954e-09	-2.937798e+01	-8.730190e+01
8.300000e-07	-4.193954e-06	-1.290037e-09	-2.916730e+01	-8.702970e+01
8.400000e-07	-4.163359e-06	-1.283189e-09	-2.895452e+01	-8.675365e+01
8.500000e-07	-4.132510e-06	-1.282999e-09	-2.873998e+01	-8.647367e+01
8.600000e-07	-4.101344e-06	-1.282200e-09	-2.852323e+01	-8.618968e+01
8.700000e-07	-4.069884e-06	-1.276021e-09	-2.830444e+01	-8.590163e+01
8.800000e-07	-4.038320e-06	-1.270295e-09	-2.808493e+01	-8.560945e+01
8.900000e-07	-4.006670e-06	-1.266744e-09	-2.786481e+01	-8.531312e+01
9.000000e-07	-3.974759e-06	-1.256947e-09	-2.764288e+01	-8.501261e+01
9.100000e-07	-3.942482e-06	-1.249299e-09	-2.741841e+01	-8.470792e+01
9.200000e-07	-3.909926e-06	-1.246275e-09	-2.719200e+01	-8.439904e+01
9.300000e-07	-3.877031e-06	-1.243770e-09	-2.696323e+01	-8.408598e+01
9.400000e-07	-3.843628e-06	-1.238299e-09	-2.673092e+01	-8.376876e+01
9.500000e-07	-3.809687e-06	-1.237735e-09	-2.649488e+01	-8.344738e+01
9.600000e-07	-3.775344e-06	-1.233113e-09	-2.625603e+01	-8.312188e+01
9.700000e-07	-3.740693e-06	-1.222076e-09	-2.601505e+01	-8.279229e+01
9.800000e-07	-3.705659e-06	-1.210634e-09	-2.577140e+01	-8.245861e+01
9.900000e-07	-3.670232e-06	-1.202219e-09	-2.552502e+01	-8.212088e+01
1.000000e-06	-3.634581e-06	-1.191903e-09	-2.527709e+01	-8.177911e+01
1.010000e-06	-3.598843e-06	-1.185720e-09	-2.502854e+01	-8.143333e+01
1.020000e-06	-3.563015e-06	-1.184554e-09	-2.477937e+01	-8.108353e+01
1.030000e-06	-3.527044e-06	-1.183270e-09	-2.452920e+01	-8.072972e+01
1.040000e-06	-3.490858e-06	-1.179181e-09	-2.427755e+01	-8.037189e+01
1.050000e-06	-3.454390e-06	-1.173214e-09	-2.402393e+01	-8.001003e+01
1.060000e-06	-3.417631e-06	-1.164348e-09	-2.376828e+01	-7.964411e+01
1.070000e-06	-3.380592e-06	-1.153783e-09	-2.351069e+01	-7.927410e+01
1.080000e-06	-3.343299e-06	-1.146628e-09	-2.325133e+01	-7.889994e+01
1.090000e-06	-3.305860e-06	-1.145298e-09	-2.299096e+01	-7.852158e+01
1.100000e-06	-3.268300e-06	-1.143556e-09	-2.272974e+01	-7.813895e+01
1.110000e-06	-3.230514e-06	-1.137128e-09	-2.246695e+01	-7.775199e+01
1.120000e-06	-3.192402e-06	-1.130582e-09	-2.220190e+01	-7.736059e+01
1.130000e-06	-3.153979e-06	-1.123512e-09	-2.193468e+01	-7.696466e+01
1.140000e-06	-3.115398e-06	-1.114712e-09	-2.166637e+01	-7.656411e+01
1.150000e-06	-3.076530e-06	-1.105319e-09	-2.139606e+01	-7.615882e+01
1.160000e-06	-3.037427e-06	-1.098876e-09	-2.112411e+01	-7.574868e+01
1.170000e-06	-2.998290e-06	-1.092202e-09	-2.085193e+01	-7.533358e+01
1.180000e-06	-2.959012e-06	-1.084457e-09	-2.057876e+01	-7.491338e+01
1.190000e-06	-2.919526e-06	-1.078405e-09	-2.030416e+01	-7.448798e+01
1.200000e-06	-2.879907e-06	-1.072324e-09	-2.002862e+01	-7.405725e+01
1.210000e-06	-2.840166e-06	-1.062438e-09	-1.975224e+01	-7.362106e+01
1.220000e-06	-2.800259e-06	-1.053632e-09	-1.947470e+01	-7.317931e+01
1.230000e-06	-2.760264e-06	-1.046621e-09	-1.919655e+01	-7.273188e+01
1.240000e-06	-2.720082e-06	-1.041699e-09	-1.891710e+01	-7.227867e+01
1.250000e-06	-2.679693e-06	-1.036374e-09	-1.863622e+01	-7.181957e+01
1.260000e-06	-2.639128e-06	-1.031613e-09	-1.835410e+01	-7.135449e+01
1.270000e-06	-2.598255e-06	-1.025681e-09	-1.806984e+01	-7.088335e+01
1.280000e-06	-2.557007e-06	-1.016644e-09	-1.778298e+01	-7.040606e+01
1.290000e-06	-2.515430e-06	-1.007721e-09	-1.749383e+01	-6.992256e+01
1.300000e-06	-2.473706e-06	-9.999733e-10	-1.720365e+01	-6.943278e+01
1.310000e-06	-2.431705e-06	-9.901678e-10	-1.691155e+01	-6.893667e+01
1.320000e-06	-2.389299e-06	-9.818897e-10	-1.661664e+01	-6.843418e+01
1.330000e-06	-2.346683e-06	-9.756949e-10	-1.632026e+01	-6.792526e+01
1.340000e-06	-2.303784e-06	-9.696995e-10	-1.602191e+01	-6.740988e+01
1.350000e-06	-2.260551e-06	-9.634024e-10	-1.572125e+01	-6.688798e+01
1.360000e-06	-2.217153e-06	-9.564005e-10	-1.541943e+01	-6.635954e+01
1.370000e-06	-2.173697e-06	-9.470658e-10	-1.511721e+01	-6.582450e+01
1.380000e-06	-2.130157e-06	-9.361162e-10	-1.481440e+01	-6.528283e+01
1.390000e-06	-2.086504e-06	-9.252932e-10	-1.451081e+01	-6.473446e+01
1.400000e-06	-2.042720e-06	-9.156637e-10	-1.420631e+01	-6.417932e+01
1.410000e-06	-1.998842e-06	-9.072502e-10	-1.390116e+01	-6.361734e+01
1.420000e-06	-1.954919e-06	-9.001539e-10	-1.359569e+01	-6.304841e+01
1.430000e-06	-1.910917e-06	-8.944731e-10	-1.328968e+01	-6.247241e+01
1.440000e-06	-1.866838e-06	-8.881656e-10	-1.298313e+01	-6.188918e+01
1.450000e-06	-1.822652e-06	-8.783214e-10	-1.267583e+01	-6.129857e+01
1.460000e-06	-1.778389e-06	-8.654429e-10	-1.236799e+01	-6.070035e+01
1.470000e-06	-1.733993e-06	-8.522039e-10	-1.205924e+01	-6.009428e+01
1.480000e-06	-1.689468e-06	-8.392944e-10	-1.174959e+01	-5.948008e+01
1.490000e-06	-1.644865e-06	-8.294435e-10	-1.143939e+01	-5.885743e+01
1.500000e-06	-1.600090e-06	-8.193900e-10	-1.112800e+01	-5.822595e+01
1.510000e-06	-1.555133e-06	-8.105033e-10	-1.081534e+01	-5.758524e+01
1.520000e-06	-1.510048e-06	-8.029805e-10	-1.050179e+01	-5.693483e+01
1.530000e-06	-1.464782e-06	-7.948968e-10	-1.018698e+01	-5.627420e+01
1.540000e-06	-1.419443e-06	-7.848506e-10	-9.871668e+00	-5.560279e+01
1.550000e-06	-1.374142e-06	-7.716338e-10	-9.556617e+00	-5.491998e+01
1.560000e-06	-1.328694e-06	-7.573629e-10	-9.240543e+00	-5.422510e+01
1.570000e-06	-1.283082e-06	-7.441742e-10	-8.923328e+00	-5.351743e+01
1.580000e-06	-1.237412e-06	-7.321990e-10	-8.605715e+00	-5.279619e+01
1.590000e-06	-1.191719e-06	-7.231023e-10	-8.287939e+00	-5.206057e+01
1.600000e-06	-1.145959e-06	-7.159854e-10	-7.969695e+00	-5.130970e+01
1.610000e-06	-1.100061e-06	-7.058930e-10	-7.650489e+00	-5.054266e+01
1.620000e-06	-1.054016e-06	-6.904089e-10	-7.330265e+00	-4.975850e+01
1.630000e-06	-1.007900e-06	-6.745314e-10	-7.009551e+00	-4.895625e+01
1.640000e-06	-9.617567e-07	-6.600502e-10	-6.688640e+00	-4.813488e+01
1.650000e-06	-9.155780e-07	-6.460286e-10	-6.367485e+00	-4.729335e+01
1.660000e-06	-8.694012e-07	-6.317405e-10	-6.046343e+00	-4.643060e+01
1.670000e-06	-8.231763e-07	-6.173041e-10	-5.724868e+00	-4.554557e+01
1.680000e-06	-7.768722e-07	-6.023804e-10	-5.402841e+00	-4.463717e+01
1.690000e-06	-7.305134e-07	-5.865223e-10	-5.080433e+00	-4.370434e+01
1.700000e-06	-6.839804e-07	-5.709395e-10	-4.756815e+00	-4.274602e+01
1.710000e-06	-6.373800e-07	-5.545641e-10	-4.432727e+00	-4.176116e+01
1.720000e-06	-5.908404e-07	-5.391269e-10	-4.109063e+00	-4.074877e+01
1.730000e-06	-5.442805e-07	-5.244973e-10	-3.785257e+00	-3.970785e+01
1.740000e-06	-4.976932e-07	-5.086873e-10	-3.461261e+00	-3.863750e+01
1.750000e-06	-4.510817e-07	-4.896827e-10	-3.137096e+00	-3.753685e+01
1.760000e-06	-4.043775e-07	-4.689020e-10	-2.812286e+00	-3.640508e+01
1.770000e-06	-3.575628e-07	-4.496641e-10	-2.486709e+00	-3.524147e+01
1.780000e-06	-3.108299e-07	-4.324004e-10	-2.161700e+00	-3.404538e+01
1.790000e-06	-2.641006e-07	-4.169856e-10	-1.836716e+00	-3.281626e+01
1.800000e-06	-2.172560e-07	-4.018470e-10	-1.510930e+00	-3.155365e+01
1.810000e-06	-1.704113e-07	-3.836879e-10	-1.185144e+00	-3.025721e+01
1.820000e-06	-1.236665e-07	-3.646949e-10	-8.600516e-01	-2.892670e+01
1.830000e-06	-7.693593e-08	-3.468628e-10	-5.350591e-01	-2.756203e+01
1.840000e-06	-3.009939e-08	-3.286225e-10	-2.093294e-01	-2.616321e+01
1.850000e-06	1.673600e-08	-3.090797e-10	1.163923e-01	-2.473039e+01
1.860000e-06	6.356327e-08	-2.893704e-10	4.420576e-01	-2.326387e+01
1.870000e-06	1.103711e-07	-2.683893e-10	7.675873e-01	-2.176406e+01
1.880000e-06	1.571809e-07	-2.449806e-10	1.093131e+00	-2.023155e+01
1.890000e-06	2.039964e-07	-2.226933e-10	1.418715e+00	-1.866705e+01
1.900000e-06	2.507294e-07	-2.019203e-10	1.743725e+00	-1.707142e+01
1.910000e-06	2.973987e-07	-1.796600e-10	2.068291e+00	-1.544566e+01
1.920000e-06	3.440586e-07	-1.582433e-10	2.392792e+00	-1.379092e+01
1.930000e-06	3.907271e-07	-1.377240e-10	2.717354e+00	-1.210848e+01
1.940000e-06	4.373492e-07	-1.127889e-10	3.041592e+00	-1.039977e+01
1.950000e-06	4.838975e-07	-8.448381e-11	3.365317e+00	-8.666332e+00
1.960000e-06	5.304718e-07	-5.843082e-11	3.689223e+00	-6.909845e+00
1.970000e-06	5.770639e-07	-3.765363e-11	4.013253e+00	-5.132104e+00
1.980000e-06	6.236106e-07	-1.785803e-11	4.336966e+00	-3.335014e+00
1.990000e-06	6.700393e-07	2.709892e-12	4.659860e+00	-1.520581e+00
2.000000e-06	7.162850e-07	2.734248e-11	4.981481e+00	3.090959e-01
2.010000e-06	7.624704e-07	5.805283e-11	5.302682e+00	2.151836e+00
2.020000e-06	8.086641e-07	9.077162e-11	5.623941e+00	4.005387e+00
2.030000e-06	8.548516e-07	1.185941e-10	5.945157e+00	5.867437e+00
2.040000e-06	9.010439e-07	1.413399e-10	6.266406e+00	7.735626e+00
2.050000e-06	9.471670e-07	1.632546e-10	6.587175e+00	9.607559e+00
2.060000e-06	9.931717e-07	1.872997e-10	6.907119e+00	1.148082e+01
2.070000e-06	1.039086e-06	2.132612e-10	7.226433e+00	1.335297e+01
2.080000e-06	1.084957e-06	2.417206e-10	7.545450e+00	1.522160e+01
2.090000e-06	1.130776e-06	2.739736e-10	7.864106e+00	1.708429e+01
2.100000e-06	1.176468e-06	3.060706e-10	8.181875e+00	1.893867e+01
2.110000e-06	1.222074e-06	3.356880e-10	8.499048e+00	2.078239e+01
2.120000e-06	1.267613e-06	3.622430e-10	8.815751e+00	2.261317e+01
2.130000e-06	1.313030e-06	3.848679e-10	9.131605e+00	2.442880e+01
2.140000e-06	1.358365e-06	4.034890e-10	9.446896e+00	2.622712e+01
2.150000e-06	1.403649e-06	4.228246e-10	9.761830e+00	2.800609e+01
2.160000e-06	1.448816e-06	4.462538e-10	1.007594e+01	2.976375e+01
2.170000e-06	1.493893e-06	4.732958e-10	1.038944e+01	3.149825e+01
2.180000e-06	1.538866e-06	5.006631e-10	1.070221e+01	3.320786e+01
2.190000e-06	1.583674e-06	5.257134e-10	1.101383e+01	3.489097e+01
2.200000e-06	1.628353e-06	5.481271e-10	1.132455e+01	3.654610e+01
2.210000e-06	1.672916e-06	5.689315e-10	1.163447e+01	3.817190e+01
2.220000e-06	1.717408e-06	5.866753e-10	1.194390e+01	3.976717e+01
2.230000e-06	1.761768e-06	6.025757e-10	1.225240e+01	4.133084e+01
2.240000e-06	1.805954e-06	6.190098e-10	1.255970e+01	4.286201e+01
2.250000e-06	1.850039e-06	6.380167e-10	1.286630e+01	4.435989e+01
2.260000e-06	1.894058e-06	6.599468e-10	1.317243e+01	4.582387e+01
2.270000e-06	1.937996e-06	6.839789e-10	1.347800e+01	4.725347e+01
2.280000e-06	1.981833e-06	7.082858e-10	1.378287e+01	4.864835e+01
2.290000e-06	2.025613e-06	7.297668e-10	1.408734e+01	5.000832e+01
2.300000e-06	2.069326e-06	7.478371e-10	1.439135e+01	5.133332e+01
2.310000e-06	2.112994e-06	7.634576e-10	1.469504e+01	5.262342e+01
2.320000e-06	2.156602e-06	7.771869e-10	1.499832e+01	5.387883e+01
2.330000e-06	2.200143e-06	7.909669e-10	1.530113e+01	5.509985e+01
2.340000e-06	2.243568e-06	8.070211e-10	1.560313e+01	5.628691e+01
2.350000e-06	2.286803e-06	8.260301e-10	1.590382e+01	5.744056e+01
2.360000e-06	2.329885e-06	8.451095e-10	1.620343e+01	5.856140e+01
2.370000e-06	2.372704e-06	8.609000e-10	1.650123e+01	5.965016e+01
2.380000e-06	2.415194e-06	8.737820e-10	1.679673e+01	6.070761e+01
2.390000e-06	2.457407e-06	8.854303e-10	1.709030e+01	6.173461e+01
2.400000e-06	2.499191e-06	8.971171e-10	1.738089e+01	6.273207e+01
2.410000e-06	2.540514e-06	9.104193e-10	1.766828e+01	6.370093e+01
2.420000e-06	2.581604e-06	9.256320e-10	1.795404e+01	6.464220e+01
2.430000e-06	2.622423e-06	9.414004e-10	1.823792e+01	6.555687e+01
2.440000e-06	2.662957e-06	9.560755e-10	1.851982e+01	6.644599e+01
2.450000e-06	2.703375e-06	9.684982e-10	1.880091e+01	6.731059e+01
2.460000e-06	2.743623e-06	9.782735e-10	1.908082e+01	6.815170e+01
2.470000e-06	2.783606e-06	9.867952e-10	1.935889e+01	6.897035e+01
2.480000e-06	2.823448e-06	9.970050e-10	1.963597e+01	6.976755e+01
2.490000e-06	2.863272e-06	1.008968e-09	1.991293e+01	7.054427e+01
2.500000e-06	2.902985e-06	1.022212e-09	2.018912e+01	7.130146e+01
2.510000e-06	2.942474e-06	1.035510e-09	2.046375e+01	7.204002e+01
2.520000e-06	2.981835e-06	1.047483e-09	2.073749e+01	7.276081e+01
2.530000e-06	3.021059e-06	1.056636e-09	2.101028e+01	7.346465e+01
2.540000e-06	3.060033e-06	1.064358e-09	2.128133e+01	7.415229e+01
2.550000e-06	3.098745e-06	1.072357e-09	2.155056e+01	7.482444e+01
2.560000e-06	3.137176e-06	1.081762e-09	2.181782e+01	7.548174e+01
2.570000e-06	3.175421e-06	1.092679e-09	2.208381e+01	7.612477e+01
2.580000e-06	3.213519e-06	1.103033e-09	2.234876e+01	7.675405e+01
2.590000e-06	3.251418e-06	1.111717e-09	2.261233e+01	7.737006e+01
2.600000e-06	3.289090e-06	1.118956e-09	2.287433e+01	7.797320e+01
2.610000e-06	3.326573e-06	1.125977e-09	2.313501e+01	7.856381e+01
2.620000e-06	3.363872e-06	1.132486e-09	2.339441e+01	7.914218e+01
2.630000e-06	3.400856e-06	1.137765e-09	2.365162e+01	7.970857e+01
2.640000e-06	3.437474e-06	1.143168e-09	2.390628e+01	8.026316e+01
2.650000e-06	3.473832e-06	1.149682e-09	2.415914e+01	8.080610e+01
2.660000e-06	3.510008e-06	1.157377e-09	2.441073e+01	8.133751e+01
2.670000e-06	3.546000e-06	1.165262e-09	2.466103e+01	8.185745e+01
2.680000e-06	3.581866e-06	1.172052e-09	2.491047e+01	8.236598e+01
2.690000e-06	3.617599e-06	1.179181e-09	2.515898e+01	8.286311e+01
2.700000e-06	3.653137e-06	1.187318e-09	2.540613e+01	8.334885e+01
2.710000e-06	3.688541e-06	1.194590e-09	2.565236e+01	8.382318e+01
2.720000e-06	3.723843e-06	1.201690e-09	2.589787e+01	8.428610e+01
2.730000e-06	3.758865e-06	1.208453e-09	2.614143e+01	8.473758e+01
2.740000e-06	3.793454e-06	1.215096e-09	2.638198e+01	8.517761e+01
2.750000e-06	3.827557e-06	1.223206e-09	2.661915e+01	8.560617e+01
2.760000e-06	3.861053e-06	1.231236e-09	2.685211e+01	8.602327e+01
2.770000e-06	3.894006e-06	1.237169e-09	2.708128e+01	8.642893e+01
2.780000e-06	3.926583e-06	1.241066e-09	2.730784e+01	8.682320e+01
2.790000e-06	3.958853e-06	1.246448e-09	2.753227e+01	8.720614e+01
2.800000e-06	3.990917e-06	1.252688e-09	2.775526e+01	8.757785e+01
2.810000e-06	4.022838e-06	1.257921e-09	2.797726e+01	8.793845e+01
2.820000e-06	4.054629e-06	1.262130e-09	2.819835e+01	8.828810e+01
2.830000e-06	4.086263e-06	1.266869e-09	2.841835e+01	8.862698e+01
2.840000e-06	4.117684e-06	1.272893e-09	2.863687e+01	8.895533e+01
2.850000e-06	4.148857e-06	1.278923e-09	2.885367e+01	8.927340e+01
2.860000e-06	4.179648e-06	1.284674e-09	2.906781e+01	8.958148e+01
2.870000e-06	4.210044e-06	1.290098e-09	2.927920e+01	8.987990e+01
2.880000e-06	4.240102e-06	1.294903e-09	2.948824e+01	9.016901e+01
2.890000e-06	4.269863e-06	1.299102e-09	2.969522e+01	9.044919e+01
2.900000e-06	4.299457e-06	1.303971e-09	2.990104e+01	9.072085e+01
