# Temperatura_=_12.4
# Concentracion g/m^3_=_1620.0
# C_Vs_to_Am_M_A/Vsm_=_65563218390.804596
# pendiente_HvsI_1/m_=_3716.3
# ordenada_HvsI_A/m_=_1297.0
# frecuencia_Hz_=_135102.81691393853

Tiempo_(s)	Campo_(V.s)	Magnetizacion_(V.s)	Campo_(kA/m)	Magnetizacion_(A/m)
0.000000e+00	-5.532453e-06	-1.424458e-09	-3.837317e+01	-9.594924e+01
1.000000e-08	-5.532742e-06	-1.423016e-09	-3.837517e+01	-9.595581e+01
2.000000e-08	-5.532803e-06	-1.421995e-09	-3.837559e+01	-9.596486e+01
3.000000e-08	-5.532594e-06	-1.420166e-09	-3.837414e+01	-9.597615e+01
4.000000e-08	-5.531925e-06	-1.416943e-09	-3.836950e+01	-9.598940e+01
5.000000e-08	-5.530732e-06	-1.411962e-09	-3.836123e+01	-9.600427e+01
6.000000e-08	-5.528932e-06	-1.408466e-09	-3.834874e+01	-9.602042e+01
7.000000e-08	-5.526483e-06	-1.417606e-09	-3.833175e+01	-9.603745e+01
8.000000e-08	-5.523486e-06	-1.413439e-09	-3.831097e+01	-9.605494e+01
9.000000e-08	-5.519993e-06	-1.390452e-09	-3.828674e+01	-9.607243e+01
1.000000e-07	-5.516176e-06	-1.405684e-09	-3.826027e+01	-9.608945e+01
1.100000e-07	-5.512046e-06	-1.471545e-09	-3.823162e+01	-9.610553e+01
1.200000e-07	-5.507547e-06	-1.433956e-09	-3.820042e+01	-9.612016e+01
1.300000e-07	-5.502819e-06	-1.358721e-09	-3.816762e+01	-9.613283e+01
1.400000e-07	-5.497851e-06	-1.346467e-09	-3.813317e+01	-9.614303e+01
1.500000e-07	-5.492412e-06	-1.457458e-09	-3.809544e+01	-9.615027e+01
1.600000e-07	-5.486393e-06	-1.457926e-09	-3.805369e+01	-9.615403e+01
1.700000e-07	-5.480069e-06	-1.378525e-09	-3.800983e+01	-9.615383e+01
1.800000e-07	-5.473471e-06	-1.356958e-09	-3.796406e+01	-9.614919e+01
1.900000e-07	-5.466469e-06	-1.468483e-09	-3.791550e+01	-9.613967e+01
2.000000e-07	-5.459085e-06	-1.497038e-09	-3.786428e+01	-9.612482e+01
2.100000e-07	-5.451403e-06	-1.427942e-09	-3.781100e+01	-9.610425e+01
2.200000e-07	-5.443523e-06	-1.393697e-09	-3.775634e+01	-9.607759e+01
2.300000e-07	-5.435400e-06	-1.449965e-09	-3.770000e+01	-9.604449e+01
2.400000e-07	-5.426843e-06	-1.481176e-09	-3.764065e+01	-9.600466e+01
2.500000e-07	-5.417671e-06	-1.437468e-09	-3.757703e+01	-9.595783e+01
2.600000e-07	-5.407813e-06	-1.434205e-09	-3.750866e+01	-9.590378e+01
2.700000e-07	-5.397265e-06	-1.450554e-09	-3.743550e+01	-9.584232e+01
2.800000e-07	-5.386206e-06	-1.457556e-09	-3.735879e+01	-9.577333e+01
2.900000e-07	-5.374724e-06	-1.412118e-09	-3.727915e+01	-9.569672e+01
3.000000e-07	-5.362874e-06	-1.419046e-09	-3.719696e+01	-9.561242e+01
3.100000e-07	-5.350686e-06	-1.429229e-09	-3.711242e+01	-9.552044e+01
3.200000e-07	-5.338087e-06	-1.459977e-09	-3.702504e+01	-9.542081e+01
3.300000e-07	-5.325034e-06	-1.433657e-09	-3.693451e+01	-9.531362e+01
3.400000e-07	-5.311621e-06	-1.435858e-09	-3.684147e+01	-9.519899e+01
3.500000e-07	-5.297924e-06	-1.439145e-09	-3.674647e+01	-9.507707e+01
3.600000e-07	-5.283792e-06	-1.456811e-09	-3.664845e+01	-9.494806e+01
3.700000e-07	-5.269071e-06	-1.405457e-09	-3.654634e+01	-9.481219e+01
3.800000e-07	-5.253893e-06	-1.406067e-09	-3.644107e+01	-9.466972e+01
3.900000e-07	-5.238295e-06	-1.433759e-09	-3.633288e+01	-9.452094e+01
4.000000e-07	-5.222122e-06	-1.422062e-09	-3.622071e+01	-9.436617e+01
4.100000e-07	-5.205470e-06	-1.385075e-09	-3.610520e+01	-9.420573e+01
4.200000e-07	-5.188492e-06	-1.435217e-09	-3.598744e+01	-9.403998e+01
4.300000e-07	-5.171230e-06	-1.445251e-09	-3.586772e+01	-9.386929e+01
4.400000e-07	-5.153659e-06	-1.369660e-09	-3.574584e+01	-9.369403e+01
4.500000e-07	-5.135740e-06	-1.374397e-09	-3.562155e+01	-9.351459e+01
4.600000e-07	-5.117396e-06	-1.435478e-09	-3.549432e+01	-9.333135e+01
4.700000e-07	-5.098612e-06	-1.384156e-09	-3.536404e+01	-9.314468e+01
4.800000e-07	-5.079485e-06	-1.334688e-09	-3.523137e+01	-9.295499e+01
4.900000e-07	-5.060063e-06	-1.406839e-09	-3.509666e+01	-9.276262e+01
5.000000e-07	-5.040378e-06	-1.410746e-09	-3.496013e+01	-9.256795e+01
5.100000e-07	-5.020471e-06	-1.349194e-09	-3.482205e+01	-9.237132e+01
5.200000e-07	-5.000326e-06	-1.380287e-09	-3.468232e+01	-9.217304e+01
5.300000e-07	-4.979846e-06	-1.414762e-09	-3.454028e+01	-9.197344e+01
5.400000e-07	-4.958966e-06	-1.338106e-09	-3.439545e+01	-9.177279e+01
5.500000e-07	-4.937725e-06	-1.337753e-09	-3.424812e+01	-9.157134e+01
5.600000e-07	-4.916205e-06	-1.391119e-09	-3.409886e+01	-9.136934e+01
5.700000e-07	-4.894321e-06	-1.350542e-09	-3.394707e+01	-9.116697e+01
5.800000e-07	-4.872071e-06	-1.306050e-09	-3.379275e+01	-9.096443e+01
5.900000e-07	-4.849491e-06	-1.367988e-09	-3.363613e+01	-9.076183e+01
6.000000e-07	-4.826511e-06	-1.363788e-09	-3.347674e+01	-9.055931e+01
6.100000e-07	-4.803171e-06	-1.318191e-09	-3.331485e+01	-9.035692e+01
6.200000e-07	-4.779548e-06	-1.334123e-09	-3.315100e+01	-9.015474e+01
6.300000e-07	-4.755757e-06	-1.352260e-09	-3.298599e+01	-8.995275e+01
6.400000e-07	-4.731728e-06	-1.308781e-09	-3.281933e+01	-8.975097e+01
6.500000e-07	-4.707385e-06	-1.317188e-09	-3.265048e+01	-8.954933e+01
6.600000e-07	-4.682713e-06	-1.339203e-09	-3.247935e+01	-8.934777e+01
6.700000e-07	-4.657561e-06	-1.322805e-09	-3.230490e+01	-8.914619e+01
6.800000e-07	-4.631846e-06	-1.315605e-09	-3.212654e+01	-8.894446e+01
6.900000e-07	-4.605595e-06	-1.336612e-09	-3.194447e+01	-8.874243e+01
7.000000e-07	-4.578825e-06	-1.321447e-09	-3.175878e+01	-8.853993e+01
7.100000e-07	-4.551570e-06	-1.305377e-09	-3.156975e+01	-8.833677e+01
7.200000e-07	-4.523998e-06	-1.308902e-09	-3.137851e+01	-8.813274e+01
7.300000e-07	-4.496232e-06	-1.306336e-09	-3.118592e+01	-8.792761e+01
7.400000e-07	-4.468339e-06	-1.296408e-09	-3.099246e+01	-8.772115e+01
7.500000e-07	-4.440332e-06	-1.298512e-09	-3.079820e+01	-8.751311e+01
7.600000e-07	-4.412096e-06	-1.293879e-09	-3.060236e+01	-8.730323e+01
7.700000e-07	-4.383521e-06	-1.282978e-09	-3.040415e+01	-8.709125e+01
7.800000e-07	-4.354593e-06	-1.282004e-09	-3.020351e+01	-8.687690e+01
7.900000e-07	-4.325359e-06	-1.275799e-09	-3.000074e+01	-8.665991e+01
8.000000e-07	-4.295822e-06	-1.267453e-09	-2.979587e+01	-8.644000e+01
8.100000e-07	-4.266022e-06	-1.265596e-09	-2.958918e+01	-8.621693e+01
8.200000e-07	-4.235928e-06	-1.267435e-09	-2.938045e+01	-8.599041e+01
8.300000e-07	-4.205508e-06	-1.257231e-09	-2.916946e+01	-8.576021e+01
8.400000e-07	-4.174783e-06	-1.256872e-09	-2.895635e+01	-8.552606e+01
8.500000e-07	-4.143685e-06	-1.258769e-09	-2.874065e+01	-8.528772e+01
8.600000e-07	-4.112330e-06	-1.255258e-09	-2.852317e+01	-8.504498e+01
8.700000e-07	-4.080826e-06	-1.244130e-09	-2.830466e+01	-8.479761e+01
8.800000e-07	-4.049191e-06	-1.244259e-09	-2.808524e+01	-8.454540e+01
8.900000e-07	-4.017391e-06	-1.236825e-09	-2.786468e+01	-8.428817e+01
9.000000e-07	-3.985336e-06	-1.229682e-09	-2.764234e+01	-8.402574e+01
9.100000e-07	-3.952994e-06	-1.226741e-09	-2.741801e+01	-8.375795e+01
9.200000e-07	-3.920285e-06	-1.229860e-09	-2.719114e+01	-8.348464e+01
9.300000e-07	-3.887168e-06	-1.221432e-09	-2.696145e+01	-8.320569e+01
9.400000e-07	-3.853611e-06	-1.218258e-09	-2.672869e+01	-8.292098e+01
9.500000e-07	-3.819573e-06	-1.215549e-09	-2.649260e+01	-8.263041e+01
9.600000e-07	-3.785067e-06	-1.206154e-09	-2.625327e+01	-8.233390e+01
9.700000e-07	-3.750153e-06	-1.193166e-09	-2.601111e+01	-8.203137e+01
9.800000e-07	-3.714909e-06	-1.193166e-09	-2.576665e+01	-8.172276e+01
9.900000e-07	-3.679397e-06	-1.190731e-09	-2.552035e+01	-8.140805e+01
1.000000e-06	-3.643760e-06	-1.183942e-09	-2.527316e+01	-8.108719e+01
1.010000e-06	-3.608032e-06	-1.180301e-09	-2.502535e+01	-8.076017e+01
1.020000e-06	-3.572216e-06	-1.178437e-09	-2.477693e+01	-8.042700e+01
1.030000e-06	-3.536294e-06	-1.170997e-09	-2.452778e+01	-8.008769e+01
1.040000e-06	-3.500156e-06	-1.164356e-09	-2.427712e+01	-7.974226e+01
1.050000e-06	-3.463699e-06	-1.161604e-09	-2.402426e+01	-7.939074e+01
1.060000e-06	-3.426995e-06	-1.155094e-09	-2.376968e+01	-7.903318e+01
1.070000e-06	-3.390057e-06	-1.146889e-09	-2.351348e+01	-7.866964e+01
1.080000e-06	-3.352783e-06	-1.141687e-09	-2.325494e+01	-7.830017e+01
1.090000e-06	-3.315237e-06	-1.137341e-09	-2.299452e+01	-7.792486e+01
1.100000e-06	-3.277384e-06	-1.126503e-09	-2.273198e+01	-7.754379e+01
1.110000e-06	-3.239271e-06	-1.117916e-09	-2.246762e+01	-7.715703e+01
1.120000e-06	-3.201015e-06	-1.112662e-09	-2.220228e+01	-7.676470e+01
1.130000e-06	-3.162600e-06	-1.108423e-09	-2.193584e+01	-7.636690e+01
1.140000e-06	-3.123914e-06	-1.100019e-09	-2.166750e+01	-7.596372e+01
1.150000e-06	-3.085006e-06	-1.095685e-09	-2.139764e+01	-7.555529e+01
1.160000e-06	-3.045951e-06	-1.087921e-09	-2.112676e+01	-7.514172e+01
1.170000e-06	-3.006677e-06	-1.077542e-09	-2.085435e+01	-7.472314e+01
1.180000e-06	-2.967224e-06	-1.066931e-09	-2.058070e+01	-7.429966e+01
1.190000e-06	-2.927650e-06	-1.061758e-09	-2.030622e+01	-7.387142e+01
1.200000e-06	-2.887950e-06	-1.054898e-09	-2.003085e+01	-7.343854e+01
1.210000e-06	-2.848135e-06	-1.050062e-09	-1.975470e+01	-7.300115e+01
1.220000e-06	-2.808172e-06	-1.044604e-09	-1.947751e+01	-7.255938e+01
1.230000e-06	-2.767966e-06	-1.037926e-09	-1.919865e+01	-7.211335e+01
1.240000e-06	-2.727585e-06	-1.028585e-09	-1.891856e+01	-7.166318e+01
1.250000e-06	-2.687052e-06	-1.021520e-09	-1.863743e+01	-7.120898e+01
1.260000e-06	-2.646340e-06	-1.017050e-09	-1.835505e+01	-7.075088e+01
1.270000e-06	-2.605398e-06	-1.012230e-09	-1.807108e+01	-7.028897e+01
1.280000e-06	-2.564169e-06	-1.006294e-09	-1.778511e+01	-6.982335e+01
1.290000e-06	-2.522627e-06	-1.001847e-09	-1.749698e+01	-6.935410e+01
1.300000e-06	-2.480738e-06	-9.943624e-10	-1.720643e+01	-6.888128e+01
1.310000e-06	-2.438566e-06	-9.852537e-10	-1.691392e+01	-6.840496e+01
1.320000e-06	-2.396112e-06	-9.777173e-10	-1.661946e+01	-6.792517e+01
1.330000e-06	-2.353300e-06	-9.709604e-10	-1.632252e+01	-6.744192e+01
1.340000e-06	-2.310312e-06	-9.622471e-10	-1.602435e+01	-6.695521e+01
1.350000e-06	-2.267154e-06	-9.541876e-10	-1.572501e+01	-6.646502e+01
1.360000e-06	-2.223701e-06	-9.482256e-10	-1.542362e+01	-6.597128e+01
1.370000e-06	-2.180076e-06	-9.399553e-10	-1.512104e+01	-6.547391e+01
1.380000e-06	-2.136377e-06	-9.303888e-10	-1.481794e+01	-6.497280e+01
1.390000e-06	-2.092611e-06	-9.214057e-10	-1.451438e+01	-6.446779e+01
1.400000e-06	-2.048755e-06	-9.141935e-10	-1.421019e+01	-6.395869e+01
1.410000e-06	-2.004857e-06	-9.077807e-10	-1.390571e+01	-6.344528e+01
1.420000e-06	-1.960906e-06	-9.017242e-10	-1.360087e+01	-6.292729e+01
1.430000e-06	-1.916845e-06	-8.939287e-10	-1.329526e+01	-6.240441e+01
1.440000e-06	-1.872723e-06	-8.867840e-10	-1.298923e+01	-6.187628e+01
1.450000e-06	-1.828506e-06	-8.778343e-10	-1.268254e+01	-6.134250e+01
1.460000e-06	-1.784127e-06	-8.669539e-10	-1.237473e+01	-6.080262e+01
1.470000e-06	-1.739666e-06	-8.550076e-10	-1.206635e+01	-6.025614e+01
1.480000e-06	-1.695116e-06	-8.460564e-10	-1.175735e+01	-5.970250e+01
1.490000e-06	-1.650368e-06	-8.387621e-10	-1.144697e+01	-5.914110e+01
1.500000e-06	-1.605363e-06	-8.315024e-10	-1.113482e+01	-5.857130e+01
1.510000e-06	-1.560181e-06	-8.236962e-10	-1.082144e+01	-5.799238e+01
1.520000e-06	-1.514970e-06	-8.159166e-10	-1.050785e+01	-5.740360e+01
1.530000e-06	-1.469651e-06	-8.048166e-10	-1.019352e+01	-5.680414e+01
1.540000e-06	-1.424183e-06	-7.911850e-10	-9.878149e+00	-5.619315e+01
1.550000e-06	-1.378714e-06	-7.745726e-10	-9.562778e+00	-5.556975e+01
1.560000e-06	-1.333182e-06	-7.597580e-10	-9.246967e+00	-5.493299e+01
1.570000e-06	-1.287518e-06	-7.467299e-10	-8.930241e+00	-5.428188e+01
1.580000e-06	-1.241790e-06	-7.362179e-10	-8.613072e+00	-5.361542e+01
1.590000e-06	-1.196026e-06	-7.272614e-10	-8.295652e+00	-5.293255e+01
1.600000e-06	-1.150134e-06	-7.212519e-10	-7.977341e+00	-5.223219e+01
1.610000e-06	-1.104071e-06	-7.131495e-10	-7.657850e+00	-5.151323e+01
1.620000e-06	-1.057958e-06	-6.995387e-10	-7.338007e+00	-5.077457e+01
1.630000e-06	-1.011815e-06	-6.849948e-10	-7.017962e+00	-5.001507e+01
1.640000e-06	-9.656410e-07	-6.713145e-10	-6.697698e+00	-4.923358e+01
1.650000e-06	-9.193357e-07	-6.578623e-10	-6.376524e+00	-4.842897e+01
1.660000e-06	-8.728918e-07	-6.434234e-10	-6.054389e+00	-4.760011e+01
1.670000e-06	-8.265058e-07	-6.297255e-10	-5.732654e+00	-4.674588e+01
1.680000e-06	-7.801119e-07	-6.169118e-10	-5.410866e+00	-4.586519e+01
1.690000e-06	-7.336348e-07	-6.056065e-10	-5.088500e+00	-4.495697e+01
1.700000e-06	-6.871598e-07	-5.916516e-10	-4.766149e+00	-4.402020e+01
1.710000e-06	-6.405408e-07	-5.759597e-10	-4.442799e+00	-4.305388e+01
1.720000e-06	-5.938205e-07	-5.594310e-10	-4.118747e+00	-4.205710e+01
1.730000e-06	-5.471416e-07	-5.428663e-10	-3.794981e+00	-4.102898e+01
1.740000e-06	-5.004306e-07	-5.254395e-10	-3.470993e+00	-3.996872e+01
1.750000e-06	-4.537212e-07	-5.078037e-10	-3.147016e+00	-3.887560e+01
1.760000e-06	-4.069760e-07	-4.910873e-10	-2.822791e+00	-3.774899e+01
1.770000e-06	-3.601609e-07	-4.753183e-10	-2.498080e+00	-3.658833e+01
1.780000e-06	-3.133280e-07	-4.601761e-10	-2.173247e+00	-3.539317e+01
1.790000e-06	-2.664018e-07	-4.450198e-10	-1.847766e+00	-3.416317e+01
1.800000e-06	-2.194486e-07	-4.286492e-10	-1.522098e+00	-3.289808e+01
1.810000e-06	-1.725550e-07	-4.103961e-10	-1.196843e+00	-3.159779e+01
1.820000e-06	-1.256391e-07	-3.899185e-10	-8.714341e-01	-3.026229e+01
1.830000e-06	-7.872011e-08	-3.703693e-10	-5.460036e-01	-2.889170e+01
1.840000e-06	-3.183732e-08	-3.525134e-10	-2.208240e-01	-2.748628e+01
1.850000e-06	1.499428e-08	-3.344691e-10	1.040005e-01	-2.604638e+01
1.860000e-06	6.190811e-08	-3.153410e-10	4.293955e-01	-2.457253e+01
1.870000e-06	1.089387e-07	-2.961302e-10	7.556002e-01	-2.306537e+01
1.880000e-06	1.558678e-07	-2.752868e-10	1.081101e+00	-2.152566e+01
1.890000e-06	2.027661e-07	-2.527917e-10	1.406388e+00	-1.995431e+01
1.900000e-06	2.496647e-07	-2.292048e-10	1.731677e+00	-1.835236e+01
1.910000e-06	2.964667e-07	-2.060482e-10	2.056297e+00	-1.672096e+01
1.920000e-06	3.432787e-07	-1.856607e-10	2.380985e+00	-1.506141e+01
1.930000e-06	3.901265e-07	-1.665282e-10	2.705922e+00	-1.337512e+01
1.940000e-06	4.369072e-07	-1.448152e-10	3.030394e+00	-1.166360e+01
1.950000e-06	4.836282e-07	-1.206067e-10	3.354451e+00	-9.928486e+00
1.960000e-06	5.303367e-07	-9.623023e-11	3.678422e+00	-8.171520e+00
1.970000e-06	5.769635e-07	-7.253303e-11	4.001826e+00	-6.394532e+00
1.980000e-06	6.234930e-07	-4.921486e-11	4.324555e+00	-4.599445e+00
1.990000e-06	6.699791e-07	-2.550658e-11	4.646984e+00	-2.788259e+00
2.000000e-06	7.164985e-07	6.674452e-13	4.969642e+00	-9.630455e-01
2.010000e-06	7.629829e-07	3.072319e-11	5.292059e+00	8.740609e-01
2.020000e-06	8.093312e-07	6.006692e-11	5.613531e+00	2.720876e+00
2.030000e-06	8.555952e-07	8.564060e-11	5.934419e+00	4.575174e+00
2.040000e-06	9.017717e-07	1.085768e-10	6.254700e+00	6.434699e+00
2.050000e-06	9.478916e-07	1.304255e-10	6.574588e+00	8.297176e+00
2.060000e-06	9.940173e-07	1.547221e-10	6.894517e+00	1.016032e+01
2.070000e-06	1.040094e-06	1.827809e-10	7.214102e+00	1.202185e+01
2.080000e-06	1.086058e-06	2.116358e-10	7.532910e+00	1.387950e+01
2.090000e-06	1.131966e-06	2.407567e-10	7.851333e+00	1.573102e+01
2.100000e-06	1.177823e-06	2.682008e-10	8.169396e+00	1.757421e+01
2.110000e-06	1.223615e-06	2.922373e-10	8.487010e+00	1.940691e+01
2.120000e-06	1.269278e-06	3.142305e-10	8.803725e+00	2.122700e+01
2.130000e-06	1.314825e-06	3.367529e-10	9.119641e+00	2.303244e+01
2.140000e-06	1.360347e-06	3.594861e-10	9.435382e+00	2.482126e+01
2.150000e-06	1.405776e-06	3.830764e-10	9.750480e+00	2.659158e+01
2.160000e-06	1.451111e-06	4.103443e-10	1.006492e+01	2.834160e+01
2.170000e-06	1.496328e-06	4.388949e-10	1.037855e+01	3.006962e+01
2.180000e-06	1.541448e-06	4.643549e-10	1.069151e+01	3.177404e+01
2.190000e-06	1.586429e-06	4.878965e-10	1.100349e+01	3.345339e+01
2.200000e-06	1.631248e-06	5.099633e-10	1.131436e+01	3.510629e+01
2.210000e-06	1.675922e-06	5.299955e-10	1.162422e+01	3.673148e+01
2.220000e-06	1.720427e-06	5.471841e-10	1.193290e+01	3.832784e+01
2.230000e-06	1.764863e-06	5.649849e-10	1.224111e+01	3.989435e+01
2.240000e-06	1.809203e-06	5.854595e-10	1.254865e+01	4.143015e+01
2.250000e-06	1.853391e-06	6.050164e-10	1.285515e+01	4.293446e+01
2.260000e-06	1.897482e-06	6.245343e-10	1.316096e+01	4.440665e+01
2.270000e-06	1.941478e-06	6.461151e-10	1.346612e+01	4.584623e+01
2.280000e-06	1.985380e-06	6.669741e-10	1.377062e+01	4.725280e+01
2.290000e-06	2.029215e-06	6.865353e-10	1.407466e+01	4.862610e+01
2.300000e-06	2.072987e-06	7.045617e-10	1.437826e+01	4.996597e+01
2.310000e-06	2.116725e-06	7.194939e-10	1.468163e+01	5.127238e+01
2.320000e-06	2.160426e-06	7.339754e-10	1.498474e+01	5.254540e+01
2.330000e-06	2.204068e-06	7.504236e-10	1.528745e+01	5.378518e+01
2.340000e-06	2.247581e-06	7.671067e-10	1.558925e+01	5.499201e+01
2.350000e-06	2.290976e-06	7.845176e-10	1.589024e+01	5.616622e+01
2.360000e-06	2.334305e-06	8.034723e-10	1.619077e+01	5.730825e+01
2.370000e-06	2.377370e-06	8.199564e-10	1.648946e+01	5.841861e+01
2.380000e-06	2.420020e-06	8.323218e-10	1.678529e+01	5.949787e+01
2.390000e-06	2.462287e-06	8.439686e-10	1.707845e+01	6.054667e+01
2.400000e-06	2.504224e-06	8.566984e-10	1.736933e+01	6.156569e+01
2.410000e-06	2.545768e-06	8.706447e-10	1.765748e+01	6.255566e+01
2.420000e-06	2.586928e-06	8.861335e-10	1.794297e+01	6.351735e+01
2.430000e-06	2.627844e-06	9.017569e-10	1.822676e+01	6.445155e+01
2.440000e-06	2.668561e-06	9.170638e-10	1.850917e+01	6.535908e+01
2.450000e-06	2.709062e-06	9.297836e-10	1.879009e+01	6.624077e+01
2.460000e-06	2.749365e-06	9.398817e-10	1.906963e+01	6.709744e+01
2.470000e-06	2.789517e-06	9.502465e-10	1.934813e+01	6.792995e+01
2.480000e-06	2.829515e-06	9.620676e-10	1.962555e+01	6.873911e+01
2.490000e-06	2.869344e-06	9.751057e-10	1.990181e+01	6.952575e+01
2.500000e-06	2.909092e-06	9.895562e-10	2.017750e+01	7.029068e+01
2.510000e-06	2.948753e-06	1.003252e-09	2.045259e+01	7.103466e+01
2.520000e-06	2.988243e-06	1.014156e-09	2.072649e+01	7.175847e+01
2.530000e-06	3.027564e-06	1.023622e-09	2.099922e+01	7.246283e+01
2.540000e-06	3.066704e-06	1.032329e-09	2.127069e+01	7.314842e+01
2.550000e-06	3.105574e-06	1.039859e-09	2.154030e+01	7.381593e+01
2.560000e-06	3.144154e-06	1.047599e-09	2.180789e+01	7.446596e+01
2.570000e-06	3.182494e-06	1.056622e-09	2.207382e+01	7.509912e+01
2.580000e-06	3.220630e-06	1.066663e-09	2.233833e+01	7.571595e+01
2.590000e-06	3.258648e-06	1.076961e-09	2.260202e+01	7.631696e+01
2.600000e-06	3.296458e-06	1.086666e-09	2.286427e+01	7.690263e+01
2.610000e-06	3.334014e-06	1.095442e-09	2.312477e+01	7.747340e+01
2.620000e-06	3.371371e-06	1.102627e-09	2.338387e+01	7.802968e+01
2.630000e-06	3.408478e-06	1.107574e-09	2.364124e+01	7.857183e+01
2.640000e-06	3.445304e-06	1.111733e-09	2.389667e+01	7.910020e+01
2.650000e-06	3.481826e-06	1.115998e-09	2.414999e+01	7.961510e+01
2.660000e-06	3.518095e-06	1.122094e-09	2.440155e+01	8.011682e+01
2.670000e-06	3.554229e-06	1.130703e-09	2.465218e+01	8.060561e+01
2.680000e-06	3.590182e-06	1.138940e-09	2.490154e+01	8.108173e+01
2.690000e-06	3.625949e-06	1.145439e-09	2.514962e+01	8.154539e+01
2.700000e-06	3.661624e-06	1.150049e-09	2.539707e+01	8.199683e+01
2.710000e-06	3.697183e-06	1.153142e-09	2.564371e+01	8.243623e+01
2.720000e-06	3.732591e-06	1.157586e-09	2.588930e+01	8.286381e+01
2.730000e-06	3.767762e-06	1.163329e-09	2.613324e+01	8.327975e+01
2.740000e-06	3.802519e-06	1.169782e-09	2.637432e+01	8.368426e+01
2.750000e-06	3.836731e-06	1.177514e-09	2.661161e+01	8.407754e+01
2.760000e-06	3.870337e-06	1.184792e-09	2.684470e+01	8.445978e+01
2.770000e-06	3.903430e-06	1.192500e-09	2.707424e+01	8.483120e+01
2.780000e-06	3.936128e-06	1.200061e-09	2.730103e+01	8.519203e+01
2.790000e-06	3.968493e-06	1.206970e-09	2.752552e+01	8.554251e+01
2.800000e-06	4.000601e-06	1.212387e-09	2.774822e+01	8.588287e+01
2.810000e-06	4.032553e-06	1.215881e-09	2.796984e+01	8.621339e+01
2.820000e-06	4.064363e-06	1.220014e-09	2.819048e+01	8.653435e+01
2.830000e-06	4.095992e-06	1.226049e-09	2.840985e+01	8.684603e+01
2.840000e-06	4.127463e-06	1.232816e-09	2.862814e+01	8.714875e+01
2.850000e-06	4.158621e-06	1.239813e-09	2.884425e+01	8.744282e+01
2.860000e-06	4.189380e-06	1.246229e-09	2.905759e+01	8.772860e+01
2.870000e-06	4.219864e-06	1.252344e-09	2.926903e+01	8.800642e+01
2.880000e-06	4.250091e-06	1.258782e-09	2.947869e+01	8.827666e+01
2.890000e-06	4.280078e-06	1.265220e-09	2.968667e+01	8.853967e+01
2.900000e-06	4.309772e-06	1.270718e-09	2.989263e+01	8.879584e+01
