# Temperatura_=_14.0
# Concentracion g/m^3_=_1620.0
# C_Vs_to_Am_M_A/Vsm_=_65563218390.804596
# pendiente_HvsI_1/m_=_3716.3
# ordenada_HvsI_A/m_=_1297.0
# frecuencia_Hz_=_135096.44018526925

Tiempo_(s)	Campo_(V.s)	Magnetizacion_(V.s)	Campo_(kA/m)	Magnetizacion_(A/m)
0.000000e+00	-5.503135e-06	-1.666627e-09	-3.837438e+01	-1.059137e+02
1.000000e-08	-5.503337e-06	-1.665236e-09	-3.837580e+01	-1.059073e+02
2.000000e-08	-5.503274e-06	-1.664163e-09	-3.837535e+01	-1.058962e+02
3.000000e-08	-5.502818e-06	-1.665354e-09	-3.837218e+01	-1.058803e+02
4.000000e-08	-5.501887e-06	-1.662371e-09	-3.836568e+01	-1.058593e+02
5.000000e-08	-5.500508e-06	-1.647424e-09	-3.835606e+01	-1.058329e+02
6.000000e-08	-5.498627e-06	-1.628614e-09	-3.834295e+01	-1.058012e+02
7.000000e-08	-5.496129e-06	-1.631226e-09	-3.832553e+01	-1.057638e+02
8.000000e-08	-5.493043e-06	-1.693616e-09	-3.830401e+01	-1.057206e+02
9.000000e-08	-5.489421e-06	-1.751734e-09	-3.827875e+01	-1.056716e+02
1.000000e-07	-5.485328e-06	-1.706941e-09	-3.825021e+01	-1.056165e+02
1.100000e-07	-5.480954e-06	-1.601246e-09	-3.821971e+01	-1.055554e+02
1.200000e-07	-5.476428e-06	-1.611662e-09	-3.818815e+01	-1.054882e+02
1.300000e-07	-5.471586e-06	-1.633751e-09	-3.815439e+01	-1.054148e+02
1.400000e-07	-5.466334e-06	-1.661934e-09	-3.811776e+01	-1.053353e+02
1.500000e-07	-5.460750e-06	-1.586516e-09	-3.807883e+01	-1.052497e+02
1.600000e-07	-5.454862e-06	-1.637903e-09	-3.803777e+01	-1.051579e+02
1.700000e-07	-5.448550e-06	-1.665926e-09	-3.799375e+01	-1.050602e+02
1.800000e-07	-5.441797e-06	-1.680820e-09	-3.794666e+01	-1.049566e+02
1.900000e-07	-5.434622e-06	-1.599510e-09	-3.789663e+01	-1.048471e+02
2.000000e-07	-5.427060e-06	-1.562234e-09	-3.784390e+01	-1.047320e+02
2.100000e-07	-5.419259e-06	-1.572434e-09	-3.778950e+01	-1.046113e+02
2.200000e-07	-5.411256e-06	-1.599550e-09	-3.773369e+01	-1.044853e+02
2.300000e-07	-5.403025e-06	-1.597295e-09	-3.767630e+01	-1.043541e+02
2.400000e-07	-5.394371e-06	-1.563027e-09	-3.761596e+01	-1.042179e+02
2.500000e-07	-5.385034e-06	-1.575529e-09	-3.755084e+01	-1.040769e+02
2.600000e-07	-5.375065e-06	-1.550198e-09	-3.748133e+01	-1.039312e+02
2.700000e-07	-5.364534e-06	-1.553119e-09	-3.740789e+01	-1.037811e+02
2.800000e-07	-5.353365e-06	-1.537649e-09	-3.733001e+01	-1.036268e+02
2.900000e-07	-5.341771e-06	-1.584906e-09	-3.724916e+01	-1.034684e+02
3.000000e-07	-5.329885e-06	-1.563795e-09	-3.716628e+01	-1.033061e+02
3.100000e-07	-5.317632e-06	-1.570576e-09	-3.708084e+01	-1.031402e+02
3.200000e-07	-5.304889e-06	-1.538445e-09	-3.699198e+01	-1.029707e+02
3.300000e-07	-5.291780e-06	-1.576645e-09	-3.690057e+01	-1.027977e+02
3.400000e-07	-5.278371e-06	-1.543982e-09	-3.680706e+01	-1.026215e+02
3.500000e-07	-5.264531e-06	-1.549115e-09	-3.671055e+01	-1.024421e+02
3.600000e-07	-5.250268e-06	-1.544136e-09	-3.661109e+01	-1.022597e+02
3.700000e-07	-5.235606e-06	-1.572056e-09	-3.650885e+01	-1.020741e+02
3.800000e-07	-5.220248e-06	-1.529709e-09	-3.640176e+01	-1.018856e+02
3.900000e-07	-5.204301e-06	-1.539054e-09	-3.629056e+01	-1.016941e+02
4.000000e-07	-5.188022e-06	-1.551263e-09	-3.617704e+01	-1.014997e+02
4.100000e-07	-5.171328e-06	-1.533183e-09	-3.606063e+01	-1.013022e+02
4.200000e-07	-5.154361e-06	-1.506080e-09	-3.594232e+01	-1.011016e+02
4.300000e-07	-5.137137e-06	-1.543565e-09	-3.582221e+01	-1.008978e+02
4.400000e-07	-5.119575e-06	-1.554235e-09	-3.569975e+01	-1.006908e+02
4.500000e-07	-5.101543e-06	-1.514809e-09	-3.557401e+01	-1.004804e+02
4.600000e-07	-5.083038e-06	-1.523912e-09	-3.544497e+01	-1.002664e+02
4.700000e-07	-5.064244e-06	-1.535759e-09	-3.531392e+01	-1.000488e+02
4.800000e-07	-5.045108e-06	-1.504407e-09	-3.518048e+01	-9.982716e+01
4.900000e-07	-5.025628e-06	-1.496307e-09	-3.504464e+01	-9.960146e+01
5.000000e-07	-5.005955e-06	-1.532855e-09	-3.490745e+01	-9.937145e+01
5.100000e-07	-4.986077e-06	-1.493651e-09	-3.476884e+01	-9.913689e+01
5.200000e-07	-4.965893e-06	-1.477892e-09	-3.462809e+01	-9.889756e+01
5.300000e-07	-4.945367e-06	-1.517697e-09	-3.448496e+01	-9.865323e+01
5.400000e-07	-4.924474e-06	-1.524721e-09	-3.433927e+01	-9.840365e+01
5.500000e-07	-4.903151e-06	-1.466689e-09	-3.419058e+01	-9.814859e+01
5.600000e-07	-4.881504e-06	-1.487108e-09	-3.403964e+01	-9.788782e+01
5.700000e-07	-4.859670e-06	-1.492376e-09	-3.388738e+01	-9.762112e+01
5.800000e-07	-4.837538e-06	-1.465261e-09	-3.373305e+01	-9.734826e+01
5.900000e-07	-4.814951e-06	-1.463574e-09	-3.357555e+01	-9.706905e+01
6.000000e-07	-4.791947e-06	-1.497026e-09	-3.341514e+01	-9.678330e+01
6.100000e-07	-4.768627e-06	-1.461335e-09	-3.325252e+01	-9.649084e+01
6.200000e-07	-4.745077e-06	-1.452214e-09	-3.308831e+01	-9.619151e+01
6.300000e-07	-4.721386e-06	-1.464387e-09	-3.292310e+01	-9.588518e+01
6.400000e-07	-4.697463e-06	-1.454822e-09	-3.275628e+01	-9.557175e+01
6.500000e-07	-4.673156e-06	-1.427911e-09	-3.258679e+01	-9.525113e+01
6.600000e-07	-4.648439e-06	-1.443869e-09	-3.241443e+01	-9.492327e+01
6.700000e-07	-4.623181e-06	-1.434640e-09	-3.223830e+01	-9.458812e+01
6.800000e-07	-4.597418e-06	-1.419116e-09	-3.205865e+01	-9.424569e+01
6.900000e-07	-4.571221e-06	-1.418839e-09	-3.187597e+01	-9.389599e+01
7.000000e-07	-4.544506e-06	-1.419091e-09	-3.168968e+01	-9.353906e+01
7.100000e-07	-4.517400e-06	-1.401489e-09	-3.150067e+01	-9.317498e+01
7.200000e-07	-4.489999e-06	-1.401491e-09	-3.130960e+01	-9.280384e+01
7.300000e-07	-4.462420e-06	-1.401756e-09	-3.111728e+01	-9.242577e+01
7.400000e-07	-4.434672e-06	-1.384525e-09	-3.092379e+01	-9.204089e+01
7.500000e-07	-4.406646e-06	-1.374196e-09	-3.072836e+01	-9.164937e+01
7.600000e-07	-4.378387e-06	-1.370766e-09	-3.053131e+01	-9.125139e+01
7.700000e-07	-4.349835e-06	-1.361092e-09	-3.033221e+01	-9.084715e+01
7.800000e-07	-4.320904e-06	-1.351415e-09	-3.013046e+01	-9.043684e+01
7.900000e-07	-4.291677e-06	-1.353760e-09	-2.992666e+01	-9.002070e+01
8.000000e-07	-4.262213e-06	-1.343573e-09	-2.972120e+01	-8.959894e+01
8.100000e-07	-4.232430e-06	-1.330624e-09	-2.951352e+01	-8.917180e+01
8.200000e-07	-4.202331e-06	-1.317706e-09	-2.930363e+01	-8.873951e+01
8.300000e-07	-4.171923e-06	-1.311903e-09	-2.909159e+01	-8.830230e+01
8.400000e-07	-4.141191e-06	-1.295091e-09	-2.887729e+01	-8.786042e+01
8.500000e-07	-4.110263e-06	-1.289871e-09	-2.866163e+01	-8.741407e+01
8.600000e-07	-4.079109e-06	-1.285232e-09	-2.844438e+01	-8.696348e+01
8.700000e-07	-4.047659e-06	-1.283261e-09	-2.822508e+01	-8.650885e+01
8.800000e-07	-4.016072e-06	-1.272302e-09	-2.800482e+01	-8.605037e+01
8.900000e-07	-3.984362e-06	-1.273165e-09	-2.778370e+01	-8.558821e+01
9.000000e-07	-3.952413e-06	-1.258585e-09	-2.756091e+01	-8.512253e+01
9.100000e-07	-3.920189e-06	-1.246822e-09	-2.733621e+01	-8.465346e+01
9.200000e-07	-3.887603e-06	-1.239135e-09	-2.710898e+01	-8.418112e+01
9.300000e-07	-3.854724e-06	-1.237830e-09	-2.687971e+01	-8.370559e+01
9.400000e-07	-3.821384e-06	-1.226018e-09	-2.664722e+01	-8.322693e+01
9.500000e-07	-3.787448e-06	-1.222444e-09	-2.641058e+01	-8.274520e+01
9.600000e-07	-3.753122e-06	-1.215149e-09	-2.617122e+01	-8.226040e+01
9.700000e-07	-3.718409e-06	-1.199625e-09	-2.592916e+01	-8.177252e+01
9.800000e-07	-3.683394e-06	-1.184145e-09	-2.568499e+01	-8.128154e+01
9.900000e-07	-3.648095e-06	-1.181215e-09	-2.543884e+01	-8.078738e+01
1.000000e-06	-3.612545e-06	-1.173764e-09	-2.519095e+01	-8.028997e+01
1.010000e-06	-3.576892e-06	-1.163653e-09	-2.494233e+01	-7.978921e+01
1.020000e-06	-3.541135e-06	-1.162333e-09	-2.469300e+01	-7.928496e+01
1.030000e-06	-3.505162e-06	-1.157755e-09	-2.444215e+01	-7.877708e+01
1.040000e-06	-3.468982e-06	-1.146208e-09	-2.418986e+01	-7.826542e+01
1.050000e-06	-3.432629e-06	-1.135340e-09	-2.393636e+01	-7.774979e+01
1.060000e-06	-3.395989e-06	-1.128158e-09	-2.368086e+01	-7.723001e+01
1.070000e-06	-3.359032e-06	-1.116548e-09	-2.342316e+01	-7.670587e+01
1.080000e-06	-3.321874e-06	-1.108021e-09	-2.316405e+01	-7.617718e+01
1.090000e-06	-3.284499e-06	-1.101613e-09	-2.290342e+01	-7.564373e+01
1.100000e-06	-3.246805e-06	-1.094468e-09	-2.264057e+01	-7.510529e+01
1.110000e-06	-3.208878e-06	-1.082064e-09	-2.237610e+01	-7.456166e+01
1.120000e-06	-3.170771e-06	-1.075052e-09	-2.211038e+01	-7.401263e+01
1.130000e-06	-3.132474e-06	-1.064438e-09	-2.184333e+01	-7.345801e+01
1.140000e-06	-3.094042e-06	-1.053733e-09	-2.157533e+01	-7.289758e+01
1.150000e-06	-3.055399e-06	-1.041228e-09	-2.130587e+01	-7.233118e+01
1.160000e-06	-3.016448e-06	-1.034418e-09	-2.103425e+01	-7.175863e+01
1.170000e-06	-2.977208e-06	-1.024560e-09	-2.076063e+01	-7.117978e+01
1.180000e-06	-2.937754e-06	-1.018637e-09	-2.048551e+01	-7.059448e+01
1.190000e-06	-2.898203e-06	-1.013631e-09	-2.020971e+01	-7.000261e+01
1.200000e-06	-2.858611e-06	-1.008881e-09	-1.993363e+01	-6.940408e+01
1.210000e-06	-2.818902e-06	-9.986461e-10	-1.965673e+01	-6.879879e+01
1.220000e-06	-2.779050e-06	-9.909208e-10	-1.937883e+01	-6.818667e+01
1.230000e-06	-2.739070e-06	-9.814310e-10	-1.910005e+01	-6.756770e+01
1.240000e-06	-2.698883e-06	-9.705968e-10	-1.881981e+01	-6.694183e+01
1.250000e-06	-2.658451e-06	-9.580265e-10	-1.853788e+01	-6.630906e+01
1.260000e-06	-2.617819e-06	-9.471926e-10	-1.825454e+01	-6.566939e+01
1.270000e-06	-2.577005e-06	-9.356474e-10	-1.796994e+01	-6.502286e+01
1.280000e-06	-2.536017e-06	-9.242679e-10	-1.768412e+01	-6.436949e+01
1.290000e-06	-2.494680e-06	-9.155430e-10	-1.739587e+01	-6.370934e+01
1.300000e-06	-2.452981e-06	-9.074800e-10	-1.710509e+01	-6.304247e+01
1.310000e-06	-2.411090e-06	-8.957051e-10	-1.681298e+01	-6.236895e+01
1.320000e-06	-2.368901e-06	-8.831885e-10	-1.651879e+01	-6.168884e+01
1.330000e-06	-2.326375e-06	-8.734004e-10	-1.622224e+01	-6.100222e+01
1.340000e-06	-2.283583e-06	-8.637524e-10	-1.592385e+01	-6.030916e+01
1.350000e-06	-2.240608e-06	-8.535240e-10	-1.562418e+01	-5.960972e+01
1.360000e-06	-2.197431e-06	-8.425526e-10	-1.532309e+01	-5.890395e+01
1.370000e-06	-2.154014e-06	-8.332904e-10	-1.502034e+01	-5.819190e+01
1.380000e-06	-2.110545e-06	-8.244676e-10	-1.471722e+01	-5.747360e+01
1.390000e-06	-2.067064e-06	-8.162457e-10	-1.441402e+01	-5.674904e+01
1.400000e-06	-2.023419e-06	-8.045528e-10	-1.410968e+01	-5.601823e+01
1.410000e-06	-1.979639e-06	-7.914620e-10	-1.380439e+01	-5.528111e+01
1.420000e-06	-1.935809e-06	-7.791736e-10	-1.349875e+01	-5.453763e+01
1.430000e-06	-1.891894e-06	-7.683204e-10	-1.319253e+01	-5.378767e+01
1.440000e-06	-1.847877e-06	-7.540585e-10	-1.288559e+01	-5.303110e+01
1.450000e-06	-1.803725e-06	-7.407656e-10	-1.257771e+01	-5.226777e+01
1.460000e-06	-1.759493e-06	-7.277590e-10	-1.226927e+01	-5.149746e+01
1.470000e-06	-1.715131e-06	-7.153070e-10	-1.195992e+01	-5.071993e+01
1.480000e-06	-1.670581e-06	-7.001005e-10	-1.164927e+01	-4.993490e+01
1.490000e-06	-1.625989e-06	-6.853756e-10	-1.133833e+01	-4.914205e+01
1.500000e-06	-1.581249e-06	-6.727650e-10	-1.102634e+01	-4.834101e+01
1.510000e-06	-1.536322e-06	-6.625437e-10	-1.071306e+01	-4.753139e+01
1.520000e-06	-1.491346e-06	-6.520581e-10	-1.039943e+01	-4.671276e+01
1.530000e-06	-1.446275e-06	-6.403522e-10	-1.008515e+01	-4.588463e+01
1.540000e-06	-1.401064e-06	-6.242785e-10	-9.769878e+00	-4.504651e+01
1.550000e-06	-1.355825e-06	-6.077182e-10	-9.454423e+00	-4.419785e+01
1.560000e-06	-1.310536e-06	-5.913658e-10	-9.138613e+00	-4.333810e+01
1.570000e-06	-1.265095e-06	-5.762197e-10	-8.821746e+00	-4.246665e+01
1.580000e-06	-1.219596e-06	-5.610950e-10	-8.504471e+00	-4.158292e+01
1.590000e-06	-1.174044e-06	-5.489069e-10	-8.186826e+00	-4.068626e+01
1.600000e-06	-1.128424e-06	-5.374193e-10	-7.868709e+00	-3.977605e+01
1.610000e-06	-1.082693e-06	-5.241372e-10	-7.549821e+00	-3.885163e+01
1.620000e-06	-1.036748e-06	-5.109076e-10	-7.229438e+00	-3.791238e+01
1.630000e-06	-9.907393e-07	-4.985185e-10	-6.908610e+00	-3.695765e+01
1.640000e-06	-9.447460e-07	-4.859931e-10	-6.587889e+00	-3.598681e+01
1.650000e-06	-8.987540e-07	-4.694383e-10	-6.267179e+00	-3.499925e+01
1.660000e-06	-8.527401e-07	-4.519482e-10	-5.946315e+00	-3.399440e+01
1.670000e-06	-8.066345e-07	-4.340805e-10	-5.624812e+00	-3.297168e+01
1.680000e-06	-7.604339e-07	-4.171594e-10	-5.302647e+00	-3.193059e+01
1.690000e-06	-7.141828e-07	-4.015291e-10	-4.980130e+00	-3.087063e+01
1.700000e-06	-6.678963e-07	-3.879544e-10	-4.657365e+00	-2.979138e+01
1.710000e-06	-6.215088e-07	-3.742194e-10	-4.333896e+00	-2.869245e+01
1.720000e-06	-5.750527e-07	-3.602190e-10	-4.009950e+00	-2.757351e+01
1.730000e-06	-5.285684e-07	-3.417163e-10	-3.685806e+00	-2.643432e+01
1.740000e-06	-4.821063e-07	-3.187958e-10	-3.361817e+00	-2.527466e+01
1.750000e-06	-4.355779e-07	-2.972390e-10	-3.037366e+00	-2.409444e+01
1.760000e-06	-3.889890e-07	-2.796916e-10	-2.712493e+00	-2.289358e+01
1.770000e-06	-3.423861e-07	-2.630274e-10	-2.387522e+00	-2.167214e+01
1.780000e-06	-2.957186e-07	-2.490445e-10	-2.062101e+00	-2.043021e+01
1.790000e-06	-2.489866e-07	-2.353366e-10	-1.736230e+00	-1.916800e+01
1.800000e-06	-2.023045e-07	-2.188423e-10	-1.410707e+00	-1.788579e+01
1.810000e-06	-1.556654e-07	-2.001519e-10	-1.085484e+00	-1.658394e+01
1.820000e-06	-1.088872e-07	-1.832196e-10	-7.592905e-01	-1.526291e+01
1.830000e-06	-6.209869e-08	-1.675716e-10	-4.330257e-01	-1.392322e+01
1.840000e-06	-1.541538e-08	-1.513488e-10	-1.074943e-01	-1.256551e+01
1.850000e-06	3.123506e-08	-1.346543e-10	2.178079e-01	-1.119048e+01
1.860000e-06	7.794001e-08	-1.176229e-10	5.434902e-01	-9.798893e+00
1.870000e-06	1.246489e-07	-9.871506e-11	8.691999e-01	-8.391624e+00
1.880000e-06	1.713062e-07	-7.750429e-11	1.194550e+00	-6.969601e+00
1.890000e-06	2.179363e-07	-5.485171e-11	1.519710e+00	-5.533821e+00
1.900000e-06	2.645671e-07	-3.068512e-11	1.844875e+00	-4.085350e+00
1.910000e-06	3.111661e-07	-7.118524e-12	2.169819e+00	-2.625308e+00
1.920000e-06	3.577184e-07	1.271941e-11	2.494437e+00	-1.154872e+00
1.930000e-06	4.042135e-07	3.028489e-11	2.818656e+00	3.247382e-01
1.940000e-06	4.507269e-07	4.908541e-11	3.143003e+00	1.812259e+00
1.950000e-06	4.972988e-07	6.787775e-11	3.467757e+00	3.306396e+00
1.960000e-06	5.437341e-07	8.774249e-11	3.791559e+00	4.805826e+00
1.970000e-06	5.900500e-07	1.096083e-10	4.114529e+00	6.309207e+00
1.980000e-06	6.362843e-07	1.306840e-10	4.436929e+00	7.815186e+00
1.990000e-06	6.824092e-07	1.517142e-10	4.758567e+00	9.322401e+00
2.000000e-06	7.285056e-07	1.725169e-10	5.080005e+00	1.082950e+01
2.010000e-06	7.746158e-07	1.936576e-10	5.401540e+00	1.233512e+01
2.020000e-06	8.207634e-07	2.164564e-10	5.723336e+00	1.383795e+01
2.030000e-06	8.668941e-07	2.405684e-10	6.045014e+00	1.533667e+01
2.040000e-06	9.128913e-07	2.635180e-10	6.365761e+00	1.683000e+01
2.050000e-06	9.588266e-07	2.828968e-10	6.686076e+00	1.831669e+01
2.060000e-06	1.004787e-06	3.018373e-10	7.006567e+00	1.979556e+01
2.070000e-06	1.050722e-06	3.230754e-10	7.326881e+00	2.126543e+01
2.080000e-06	1.096579e-06	3.464608e-10	7.646647e+00	2.272520e+01
2.090000e-06	1.142291e-06	3.692899e-10	7.965404e+00	2.417384e+01
2.100000e-06	1.187861e-06	3.928174e-10	8.283177e+00	2.561034e+01
2.110000e-06	1.233345e-06	4.130826e-10	8.600346e+00	2.703379e+01
2.120000e-06	1.278748e-06	4.302108e-10	8.916949e+00	2.844333e+01
2.130000e-06	1.324016e-06	4.472683e-10	9.232609e+00	2.983817e+01
2.140000e-06	1.369166e-06	4.656948e-10	9.547452e+00	3.121760e+01
2.150000e-06	1.414264e-06	4.843290e-10	9.861927e+00	3.258095e+01
2.160000e-06	1.459318e-06	5.041495e-10	1.017609e+01	3.392766e+01
2.170000e-06	1.504251e-06	5.258719e-10	1.048942e+01	3.525723e+01
2.180000e-06	1.549080e-06	5.486392e-10	1.080202e+01	3.656921e+01
2.190000e-06	1.593829e-06	5.684638e-10	1.111407e+01	3.786325e+01
2.200000e-06	1.638401e-06	5.860846e-10	1.142488e+01	3.913905e+01
2.210000e-06	1.682792e-06	6.026975e-10	1.173442e+01	4.039637e+01
2.220000e-06	1.727029e-06	6.187011e-10	1.204289e+01	4.163505e+01
2.230000e-06	1.771099e-06	6.366171e-10	1.235021e+01	4.285498e+01
2.240000e-06	1.815069e-06	6.538827e-10	1.265682e+01	4.405610e+01
2.250000e-06	1.858994e-06	6.697827e-10	1.296311e+01	4.523842e+01
2.260000e-06	1.902883e-06	6.846199e-10	1.326916e+01	4.640198e+01
2.270000e-06	1.946703e-06	7.035338e-10	1.357472e+01	4.754688e+01
2.280000e-06	1.990441e-06	7.240710e-10	1.387972e+01	4.867325e+01
2.290000e-06	2.034128e-06	7.427690e-10	1.418435e+01	4.978125e+01
2.300000e-06	2.077738e-06	7.582983e-10	1.448845e+01	5.087109e+01
2.310000e-06	2.121263e-06	7.702126e-10	1.479196e+01	5.194299e+01
2.320000e-06	2.164741e-06	7.818874e-10	1.509514e+01	5.299719e+01
2.330000e-06	2.208103e-06	7.950932e-10	1.539752e+01	5.403396e+01
2.340000e-06	2.251209e-06	8.095866e-10	1.569810e+01	5.505358e+01
2.350000e-06	2.294101e-06	8.275197e-10	1.599719e+01	5.605633e+01
2.360000e-06	2.336792e-06	8.483057e-10	1.629489e+01	5.704249e+01
2.370000e-06	2.379204e-06	8.658503e-10	1.659063e+01	5.801237e+01
2.380000e-06	2.421288e-06	8.786144e-10	1.688409e+01	5.896625e+01
2.390000e-06	2.463027e-06	8.889321e-10	1.717514e+01	5.990442e+01
2.400000e-06	2.504450e-06	8.981037e-10	1.746400e+01	6.082715e+01
2.410000e-06	2.545578e-06	9.070385e-10	1.775079e+01	6.173472e+01
2.420000e-06	2.586422e-06	9.174537e-10	1.803560e+01	6.262736e+01
2.430000e-06	2.627029e-06	9.325905e-10	1.831876e+01	6.350535e+01
2.440000e-06	2.667395e-06	9.481231e-10	1.860024e+01	6.436888e+01
2.450000e-06	2.707629e-06	9.614126e-10	1.888080e+01	6.521820e+01
2.460000e-06	2.747767e-06	9.741323e-10	1.916069e+01	6.605348e+01
2.470000e-06	2.787713e-06	9.843873e-10	1.943924e+01	6.687492e+01
2.480000e-06	2.827486e-06	9.942062e-10	1.971658e+01	6.768269e+01
2.490000e-06	2.867160e-06	1.003304e-09	1.999324e+01	6.847693e+01
2.500000e-06	2.906764e-06	1.015844e-09	2.026940e+01	6.925780e+01
2.510000e-06	2.946179e-06	1.029516e-09	2.054425e+01	7.002542e+01
2.520000e-06	2.985421e-06	1.043422e-09	2.081789e+01	7.077991e+01
2.530000e-06	3.024509e-06	1.055222e-09	2.109047e+01	7.152138e+01
2.540000e-06	3.063343e-06	1.062958e-09	2.136126e+01	7.224995e+01
2.550000e-06	3.101844e-06	1.069280e-09	2.162973e+01	7.296571e+01
2.560000e-06	3.140036e-06	1.075275e-09	2.189606e+01	7.366877e+01
2.570000e-06	3.178022e-06	1.083688e-09	2.216094e+01	7.435922e+01
2.580000e-06	3.215861e-06	1.094438e-09	2.242480e+01	7.503716e+01
2.590000e-06	3.253476e-06	1.106024e-09	2.268709e+01	7.570272e+01
2.600000e-06	3.290908e-06	1.117816e-09	2.294811e+01	7.635600e+01
2.610000e-06	3.328229e-06	1.126232e-09	2.320836e+01	7.699712e+01
2.620000e-06	3.365260e-06	1.130020e-09	2.346658e+01	7.762622e+01
2.630000e-06	3.401905e-06	1.132803e-09	2.372212e+01	7.824346e+01
2.640000e-06	3.438290e-06	1.138157e-09	2.397583e+01	7.884899e+01
2.650000e-06	3.474530e-06	1.148066e-09	2.422854e+01	7.944300e+01
2.660000e-06	3.510564e-06	1.161020e-09	2.447981e+01	8.002568e+01
2.670000e-06	3.546418e-06	1.173519e-09	2.472983e+01	8.059724e+01
2.680000e-06	3.582202e-06	1.185376e-09	2.497936e+01	8.115792e+01
2.690000e-06	3.617894e-06	1.196678e-09	2.522825e+01	8.170797e+01
2.700000e-06	3.653403e-06	1.205018e-09	2.547586e+01	8.224766e+01
2.710000e-06	3.688730e-06	1.210913e-09	2.572220e+01	8.277726e+01
2.720000e-06	3.723821e-06	1.215887e-09	2.596690e+01	8.329710e+01
2.730000e-06	3.758549e-06	1.222765e-09	2.620906e+01	8.380748e+01
2.740000e-06	3.792764e-06	1.229146e-09	2.644765e+01	8.430875e+01
2.750000e-06	3.826436e-06	1.236392e-09	2.668245e+01	8.480124e+01
2.760000e-06	3.859666e-06	1.246375e-09	2.691417e+01	8.528533e+01
2.770000e-06	3.892431e-06	1.257040e-09	2.714265e+01	8.576137e+01
2.780000e-06	3.924717e-06	1.266046e-09	2.736778e+01	8.622973e+01
2.790000e-06	3.956679e-06	1.274077e-09	2.759066e+01	8.669081e+01
2.800000e-06	3.988515e-06	1.280356e-09	2.781266e+01	8.714497e+01
2.810000e-06	4.020274e-06	1.286394e-09	2.803412e+01	8.759258e+01
2.820000e-06	4.051975e-06	1.293622e-09	2.825518e+01	8.803404e+01
2.830000e-06	4.083487e-06	1.303159e-09	2.847492e+01	8.846968e+01
2.840000e-06	4.114626e-06	1.313706e-09	2.869205e+01	8.889988e+01
2.850000e-06	4.145519e-06	1.325831e-09	2.890747e+01	8.932496e+01
2.860000e-06	4.176164e-06	1.337666e-09	2.912117e+01	8.974525e+01
2.870000e-06	4.206406e-06	1.344504e-09	2.933205e+01	9.016105e+01
2.880000e-06	4.236334e-06	1.347912e-09	2.954075e+01	9.057264e+01
2.890000e-06	4.266024e-06	1.351890e-09	2.974778e+01	9.098028e+01
2.900000e-06	4.295437e-06	1.357557e-09	2.995288e+01	9.138418e+01
