# Temperatura_=_10.46
# Concentracion g/m^3_=_1620.0
# C_Vs_to_Am_M_A/Vsm_=_65563218390.804596
# pendiente_HvsI_1/m_=_3716.3
# ordenada_HvsI_A/m_=_1297.0
# frecuencia_Hz_=_135086.67822179818

Tiempo_(s)	Campo_(V.s)	Magnetizacion_(V.s)	Campo_(kA/m)	Magnetizacion_(A/m)
0.000000e+00	-5.516316e-06	-1.546329e-09	-3.837714e+01	-9.938220e+01
1.000000e-08	-5.516400e-06	-1.547749e-09	-3.837772e+01	-9.938643e+01
2.000000e-08	-5.516172e-06	-1.553307e-09	-3.837613e+01	-9.938772e+01
3.000000e-08	-5.515584e-06	-1.555987e-09	-3.837205e+01	-9.938591e+01
4.000000e-08	-5.514480e-06	-1.547030e-09	-3.836436e+01	-9.938079e+01
5.000000e-08	-5.512784e-06	-1.529965e-09	-3.835257e+01	-9.937218e+01
6.000000e-08	-5.510457e-06	-1.524904e-09	-3.833638e+01	-9.935987e+01
7.000000e-08	-5.507651e-06	-1.575866e-09	-3.831686e+01	-9.934368e+01
8.000000e-08	-5.504371e-06	-1.660087e-09	-3.829404e+01	-9.932339e+01
9.000000e-08	-5.500478e-06	-1.636700e-09	-3.826696e+01	-9.929883e+01
1.000000e-07	-5.496061e-06	-1.466022e-09	-3.823622e+01	-9.926980e+01
1.100000e-07	-5.491541e-06	-1.455053e-09	-3.820478e+01	-9.923613e+01
1.200000e-07	-5.486948e-06	-1.552954e-09	-3.817282e+01	-9.919765e+01
1.300000e-07	-5.481912e-06	-1.594916e-09	-3.813779e+01	-9.915421e+01
1.400000e-07	-5.476530e-06	-1.476412e-09	-3.810035e+01	-9.910564e+01
1.500000e-07	-5.470857e-06	-1.436648e-09	-3.806088e+01	-9.905184e+01
1.600000e-07	-5.464742e-06	-1.593569e-09	-3.801834e+01	-9.899266e+01
1.700000e-07	-5.457941e-06	-1.626111e-09	-3.797102e+01	-9.892802e+01
1.800000e-07	-5.450737e-06	-1.516191e-09	-3.792091e+01	-9.885782e+01
1.900000e-07	-5.443475e-06	-1.415270e-09	-3.787038e+01	-9.878200e+01
2.000000e-07	-5.435993e-06	-1.494179e-09	-3.781833e+01	-9.870050e+01
2.100000e-07	-5.428145e-06	-1.546846e-09	-3.776373e+01	-9.861328e+01
2.200000e-07	-5.419983e-06	-1.504269e-09	-3.770695e+01	-9.852031e+01
2.300000e-07	-5.411571e-06	-1.448851e-09	-3.764842e+01	-9.842160e+01
2.400000e-07	-5.402534e-06	-1.499660e-09	-3.758556e+01	-9.831714e+01
2.500000e-07	-5.392812e-06	-1.521663e-09	-3.751792e+01	-9.820697e+01
2.600000e-07	-5.382577e-06	-1.471248e-09	-3.744672e+01	-9.809110e+01
2.700000e-07	-5.371716e-06	-1.422303e-09	-3.737115e+01	-9.796960e+01
2.800000e-07	-5.360372e-06	-1.465413e-09	-3.729223e+01	-9.784251e+01
2.900000e-07	-5.348684e-06	-1.506317e-09	-3.721092e+01	-9.770991e+01
3.000000e-07	-5.336638e-06	-1.448892e-09	-3.712712e+01	-9.757186e+01
3.100000e-07	-5.324108e-06	-1.404693e-09	-3.703994e+01	-9.742844e+01
3.200000e-07	-5.311138e-06	-1.452933e-09	-3.694971e+01	-9.727975e+01
3.300000e-07	-5.297924e-06	-1.486781e-09	-3.685778e+01	-9.712587e+01
3.400000e-07	-5.284349e-06	-1.424992e-09	-3.676334e+01	-9.696688e+01
3.500000e-07	-5.270138e-06	-1.421171e-09	-3.666447e+01	-9.680289e+01
3.600000e-07	-5.255401e-06	-1.492359e-09	-3.656195e+01	-9.663397e+01
3.700000e-07	-5.240319e-06	-1.467566e-09	-3.645702e+01	-9.646021e+01
3.800000e-07	-5.224614e-06	-1.394698e-09	-3.634776e+01	-9.628169e+01
3.900000e-07	-5.208391e-06	-1.458596e-09	-3.623490e+01	-9.609849e+01
4.000000e-07	-5.191915e-06	-1.489467e-09	-3.612027e+01	-9.591068e+01
4.100000e-07	-5.175004e-06	-1.391057e-09	-3.600262e+01	-9.571831e+01
4.200000e-07	-5.157737e-06	-1.396170e-09	-3.588250e+01	-9.552145e+01
4.300000e-07	-5.140340e-06	-1.519510e-09	-3.576147e+01	-9.532013e+01
4.400000e-07	-5.122548e-06	-1.453337e-09	-3.563768e+01	-9.511439e+01
4.500000e-07	-5.104154e-06	-1.359729e-09	-3.550972e+01	-9.490425e+01
4.600000e-07	-5.085386e-06	-1.451085e-09	-3.537915e+01	-9.468973e+01
4.700000e-07	-5.066383e-06	-1.479636e-09	-3.524694e+01	-9.447083e+01
4.800000e-07	-5.047095e-06	-1.360854e-09	-3.511276e+01	-9.424756e+01
4.900000e-07	-5.027532e-06	-1.404350e-09	-3.497666e+01	-9.401988e+01
5.000000e-07	-5.007754e-06	-1.474757e-09	-3.483906e+01	-9.378778e+01
5.100000e-07	-4.987674e-06	-1.372369e-09	-3.469936e+01	-9.355123e+01
5.200000e-07	-4.967177e-06	-1.358194e-09	-3.455676e+01	-9.331018e+01
5.300000e-07	-4.946367e-06	-1.477860e-09	-3.441199e+01	-9.306459e+01
5.400000e-07	-4.925281e-06	-1.411661e-09	-3.426530e+01	-9.281441e+01
5.500000e-07	-4.903795e-06	-1.320087e-09	-3.411582e+01	-9.255958e+01
5.600000e-07	-4.881998e-06	-1.415457e-09	-3.396417e+01	-9.230003e+01
5.700000e-07	-4.859882e-06	-1.435281e-09	-3.381032e+01	-9.203572e+01
5.800000e-07	-4.837407e-06	-1.336622e-09	-3.365396e+01	-9.176656e+01
5.900000e-07	-4.814679e-06	-1.372706e-09	-3.349583e+01	-9.149251e+01
6.000000e-07	-4.791657e-06	-1.416228e-09	-3.333567e+01	-9.121350e+01
6.100000e-07	-4.768225e-06	-1.334008e-09	-3.317265e+01	-9.092947e+01
6.200000e-07	-4.744520e-06	-1.333427e-09	-3.300774e+01	-9.064037e+01
6.300000e-07	-4.720694e-06	-1.392327e-09	-3.284198e+01	-9.034616e+01
6.400000e-07	-4.696500e-06	-1.348945e-09	-3.267366e+01	-9.004678e+01
6.500000e-07	-4.671814e-06	-1.325824e-09	-3.250192e+01	-8.974221e+01
6.600000e-07	-4.646779e-06	-1.376189e-09	-3.232775e+01	-8.943243e+01
6.700000e-07	-4.621378e-06	-1.349506e-09	-3.215104e+01	-8.911741e+01
6.800000e-07	-4.595480e-06	-1.313002e-09	-3.197086e+01	-8.879716e+01
6.900000e-07	-4.568976e-06	-1.344152e-09	-3.178647e+01	-8.847167e+01
7.000000e-07	-4.541951e-06	-1.336970e-09	-3.159846e+01	-8.814096e+01
7.100000e-07	-4.514603e-06	-1.296841e-09	-3.140820e+01	-8.780506e+01
7.200000e-07	-4.487069e-06	-1.323927e-09	-3.121664e+01	-8.746400e+01
7.300000e-07	-4.459395e-06	-1.330532e-09	-3.102411e+01	-8.711783e+01
7.400000e-07	-4.431494e-06	-1.294700e-09	-3.083001e+01	-8.676661e+01
7.500000e-07	-4.403302e-06	-1.297788e-09	-3.063387e+01	-8.641041e+01
7.600000e-07	-4.374805e-06	-1.308035e-09	-3.043562e+01	-8.604929e+01
7.700000e-07	-4.345982e-06	-1.272706e-09	-3.023510e+01	-8.568335e+01
7.800000e-07	-4.316802e-06	-1.271253e-09	-3.003209e+01	-8.531267e+01
7.900000e-07	-4.287379e-06	-1.292016e-09	-2.982739e+01	-8.493736e+01
8.000000e-07	-4.257700e-06	-1.266353e-09	-2.962092e+01	-8.455750e+01
8.100000e-07	-4.227649e-06	-1.243544e-09	-2.941185e+01	-8.417322e+01
8.200000e-07	-4.197334e-06	-1.263264e-09	-2.920095e+01	-8.378460e+01
8.300000e-07	-4.166779e-06	-1.252177e-09	-2.898838e+01	-8.339176e+01
8.400000e-07	-4.135917e-06	-1.222350e-09	-2.877367e+01	-8.299481e+01
8.500000e-07	-4.104772e-06	-1.228595e-09	-2.855699e+01	-8.259384e+01
8.600000e-07	-4.073394e-06	-1.232337e-09	-2.833870e+01	-8.218896e+01
8.700000e-07	-4.041826e-06	-1.206009e-09	-2.811908e+01	-8.178026e+01
8.800000e-07	-4.010080e-06	-1.205273e-09	-2.789822e+01	-8.136782e+01
8.900000e-07	-3.978221e-06	-1.216398e-09	-2.767658e+01	-8.095172e+01
9.000000e-07	-3.946059e-06	-1.190343e-09	-2.745282e+01	-8.053203e+01
9.100000e-07	-3.913492e-06	-1.175481e-09	-2.722626e+01	-8.010880e+01
9.200000e-07	-3.880649e-06	-1.188763e-09	-2.699777e+01	-7.968208e+01
9.300000e-07	-3.847416e-06	-1.177971e-09	-2.676657e+01	-7.925190e+01
9.400000e-07	-3.813662e-06	-1.154470e-09	-2.653174e+01	-7.881828e+01
9.500000e-07	-3.779459e-06	-1.160704e-09	-2.629378e+01	-7.838122e+01
9.600000e-07	-3.744878e-06	-1.156440e-09	-2.605321e+01	-7.794071e+01
9.700000e-07	-3.709876e-06	-1.130707e-09	-2.580969e+01	-7.749672e+01
9.800000e-07	-3.674538e-06	-1.126838e-09	-2.556385e+01	-7.704921e+01
9.900000e-07	-3.639013e-06	-1.134047e-09	-2.531670e+01	-7.659812e+01
1.000000e-06	-3.603377e-06	-1.114571e-09	-2.506878e+01	-7.614339e+01
1.010000e-06	-3.567593e-06	-1.102077e-09	-2.481983e+01	-7.568492e+01
1.020000e-06	-3.531648e-06	-1.109094e-09	-2.456976e+01	-7.522262e+01
1.030000e-06	-3.495538e-06	-1.102089e-09	-2.431854e+01	-7.475637e+01
1.040000e-06	-3.459191e-06	-1.085420e-09	-2.406567e+01	-7.428606e+01
1.050000e-06	-3.422581e-06	-1.085562e-09	-2.381098e+01	-7.381154e+01
1.060000e-06	-3.385671e-06	-1.079203e-09	-2.355419e+01	-7.333269e+01
1.070000e-06	-3.348485e-06	-1.060827e-09	-2.329549e+01	-7.284934e+01
1.080000e-06	-3.311152e-06	-1.052496e-09	-2.303576e+01	-7.236135e+01
1.090000e-06	-3.273612e-06	-1.049704e-09	-2.277460e+01	-7.186855e+01
1.100000e-06	-3.235724e-06	-1.035255e-09	-2.251101e+01	-7.137078e+01
1.110000e-06	-3.197596e-06	-1.026684e-09	-2.224575e+01	-7.086788e+01
1.120000e-06	-3.159337e-06	-1.027810e-09	-2.197958e+01	-7.035968e+01
1.130000e-06	-3.120915e-06	-1.018162e-09	-2.171228e+01	-6.984602e+01
1.140000e-06	-3.082201e-06	-1.003401e-09	-2.144295e+01	-6.932676e+01
1.150000e-06	-3.043159e-06	-9.969762e-10	-2.117133e+01	-6.880172e+01
1.160000e-06	-3.003952e-06	-9.888033e-10	-2.089857e+01	-6.827078e+01
1.170000e-06	-2.964570e-06	-9.768626e-10	-2.062459e+01	-6.773380e+01
1.180000e-06	-2.925002e-06	-9.708579e-10	-2.034931e+01	-6.719064e+01
1.190000e-06	-2.885344e-06	-9.631063e-10	-2.007341e+01	-6.664120e+01
1.200000e-06	-2.845596e-06	-9.499367e-10	-1.979688e+01	-6.608537e+01
1.210000e-06	-2.805790e-06	-9.407673e-10	-1.951995e+01	-6.552305e+01
1.220000e-06	-2.765916e-06	-9.340179e-10	-1.924254e+01	-6.495417e+01
1.230000e-06	-2.725811e-06	-9.224821e-10	-1.896353e+01	-6.437866e+01
1.240000e-06	-2.685401e-06	-9.121428e-10	-1.868240e+01	-6.379646e+01
1.250000e-06	-2.644815e-06	-9.060027e-10	-1.840004e+01	-6.320752e+01
1.260000e-06	-2.604046e-06	-8.952016e-10	-1.811641e+01	-6.261182e+01
1.270000e-06	-2.562992e-06	-8.823021e-10	-1.783080e+01	-6.200934e+01
1.280000e-06	-2.521694e-06	-8.733507e-10	-1.754348e+01	-6.140006e+01
1.290000e-06	-2.480089e-06	-8.633251e-10	-1.725404e+01	-6.078397e+01
1.300000e-06	-2.438173e-06	-8.522471e-10	-1.696242e+01	-6.016109e+01
1.310000e-06	-2.395887e-06	-8.399183e-10	-1.666824e+01	-5.953141e+01
1.320000e-06	-2.353236e-06	-8.285153e-10	-1.637152e+01	-5.889495e+01
1.330000e-06	-2.310395e-06	-8.170885e-10	-1.607347e+01	-5.825173e+01
1.340000e-06	-2.267380e-06	-8.069626e-10	-1.577422e+01	-5.760175e+01
1.350000e-06	-2.224175e-06	-7.956493e-10	-1.547364e+01	-5.694502e+01
1.360000e-06	-2.180775e-06	-7.838267e-10	-1.517170e+01	-5.628154e+01
1.370000e-06	-2.137206e-06	-7.754152e-10	-1.486860e+01	-5.561131e+01
1.380000e-06	-2.093579e-06	-7.704029e-10	-1.456508e+01	-5.493430e+01
1.390000e-06	-2.049925e-06	-7.626177e-10	-1.426138e+01	-5.425049e+01
1.400000e-06	-2.006201e-06	-7.507878e-10	-1.395719e+01	-5.355984e+01
1.410000e-06	-1.962405e-06	-7.372251e-10	-1.365249e+01	-5.286226e+01
1.420000e-06	-1.918493e-06	-7.277139e-10	-1.334700e+01	-5.215769e+01
1.430000e-06	-1.874482e-06	-7.183452e-10	-1.304081e+01	-5.144600e+01
1.440000e-06	-1.830372e-06	-7.083595e-10	-1.273394e+01	-5.072707e+01
1.450000e-06	-1.786162e-06	-7.000423e-10	-1.242637e+01	-5.000074e+01
1.460000e-06	-1.741863e-06	-6.896572e-10	-1.211818e+01	-4.926682e+01
1.470000e-06	-1.697408e-06	-6.752749e-10	-1.180890e+01	-4.852508e+01
1.480000e-06	-1.652872e-06	-6.596377e-10	-1.149907e+01	-4.777529e+01
1.490000e-06	-1.608257e-06	-6.446868e-10	-1.118868e+01	-4.701717e+01
1.500000e-06	-1.563362e-06	-6.344683e-10	-1.087635e+01	-4.625040e+01
1.510000e-06	-1.518277e-06	-6.251872e-10	-1.056269e+01	-4.547465e+01
1.520000e-06	-1.473125e-06	-6.150435e-10	-1.024856e+01	-4.468955e+01
1.530000e-06	-1.427867e-06	-6.051342e-10	-9.933701e+00	-4.389471e+01
1.540000e-06	-1.382525e-06	-5.913249e-10	-9.618258e+00	-4.308968e+01
1.550000e-06	-1.337017e-06	-5.768299e-10	-9.301659e+00	-4.227403e+01
1.560000e-06	-1.291389e-06	-5.580409e-10	-8.984225e+00	-4.144728e+01
1.570000e-06	-1.245779e-06	-5.406050e-10	-8.666915e+00	-4.060892e+01
1.580000e-06	-1.200094e-06	-5.266807e-10	-8.349084e+00	-3.975844e+01
1.590000e-06	-1.154350e-06	-5.151226e-10	-8.030840e+00	-3.889532e+01
1.600000e-06	-1.108534e-06	-5.039909e-10	-7.712096e+00	-3.801900e+01
1.610000e-06	-1.062612e-06	-4.950546e-10	-7.392616e+00	-3.712894e+01
1.620000e-06	-1.016663e-06	-4.852120e-10	-7.072952e+00	-3.622459e+01
1.630000e-06	-9.706221e-07	-4.741894e-10	-6.752640e+00	-3.530539e+01
1.640000e-06	-9.244232e-07	-4.627958e-10	-6.431234e+00	-3.437079e+01
1.650000e-06	-8.781568e-07	-4.478585e-10	-6.109357e+00	-3.342026e+01
1.660000e-06	-8.318994e-07	-4.292306e-10	-5.787544e+00	-3.245329e+01
1.670000e-06	-7.856463e-07	-4.101374e-10	-5.465760e+00	-3.146938e+01
1.680000e-06	-7.393359e-07	-3.948200e-10	-5.143577e+00	-3.046805e+01
1.690000e-06	-6.928726e-07	-3.824589e-10	-4.820331e+00	-2.944887e+01
1.700000e-06	-6.463021e-07	-3.703366e-10	-4.496339e+00	-2.841143e+01
1.710000e-06	-5.997587e-07	-3.577635e-10	-4.172536e+00	-2.735539e+01
1.720000e-06	-5.532575e-07	-3.404953e-10	-3.849025e+00	-2.628041e+01
1.730000e-06	-5.067287e-07	-3.194387e-10	-3.525323e+00	-2.518626e+01
1.740000e-06	-4.601696e-07	-2.975497e-10	-3.201410e+00	-2.407272e+01
1.750000e-06	-4.134965e-07	-2.772156e-10	-2.876705e+00	-2.293965e+01
1.760000e-06	-3.667166e-07	-2.622484e-10	-2.551256e+00	-2.178698e+01
1.770000e-06	-3.200206e-07	-2.503263e-10	-2.226391e+00	-2.061470e+01
1.780000e-06	-2.733366e-07	-2.377904e-10	-1.901609e+00	-1.942287e+01
1.790000e-06	-2.265709e-07	-2.210999e-10	-1.576259e+00	-1.821162e+01
1.800000e-06	-1.797369e-07	-2.010950e-10	-1.250433e+00	-1.698118e+01
1.810000e-06	-1.329553e-07	-1.806054e-10	-9.249733e-01	-1.573184e+01
1.820000e-06	-8.617219e-08	-1.623010e-10	-5.995020e-01	-1.446396e+01
1.830000e-06	-3.930549e-08	-1.464975e-10	-2.734492e-01	-1.317800e+01
1.840000e-06	7.513379e-09	-1.318160e-10	5.227075e-02	-1.187449e+01
1.850000e-06	5.431501e-08	-1.164129e-10	3.778708e-01	-1.055404e+01
1.860000e-06	1.010394e-07	-1.008282e-10	7.029332e-01	-9.217334e+00
1.870000e-06	1.477222e-07	-8.072719e-11	1.027706e+00	-7.865142e+00
1.880000e-06	1.945227e-07	-5.804886e-11	1.353299e+00	-6.498302e+00
1.890000e-06	2.413721e-07	-3.468412e-11	1.679231e+00	-5.117722e+00
1.900000e-06	2.881578e-07	-1.261213e-11	2.004720e+00	-3.724379e+00
1.910000e-06	3.348541e-07	7.234887e-12	2.329588e+00	-2.319315e+00
1.920000e-06	3.815188e-07	2.320388e-11	2.654235e+00	-9.036286e-01
1.930000e-06	4.282762e-07	3.866312e-11	2.979527e+00	5.215262e-01
1.940000e-06	4.750484e-07	5.847395e-11	3.304923e+00	1.954947e+00
1.950000e-06	5.216800e-07	7.869610e-11	3.629340e+00	3.395387e+00
1.960000e-06	5.681103e-07	9.950518e-11	3.952356e+00	4.841565e+00
1.970000e-06	6.144292e-07	1.205834e-10	4.274599e+00	6.292168e+00
1.980000e-06	6.607922e-07	1.399057e-10	4.597147e+00	7.745858e+00
1.990000e-06	7.071883e-07	1.607550e-10	4.919926e+00	9.201281e+00
2.000000e-06	7.535546e-07	1.789194e-10	5.242497e+00	1.065707e+01
2.010000e-06	7.998561e-07	1.963586e-10	5.564618e+00	1.211187e+01
2.020000e-06	8.461103e-07	2.166969e-10	5.886409e+00	1.356430e+01
2.030000e-06	8.923156e-07	2.395709e-10	6.207861e+00	1.501301e+01
2.040000e-06	9.383879e-07	2.633793e-10	6.528386e+00	1.645667e+01
2.050000e-06	9.843864e-07	2.852150e-10	6.848399e+00	1.789397e+01
2.060000e-06	1.030379e-06	3.045786e-10	7.168370e+00	1.932363e+01
2.070000e-06	1.076317e-06	3.217023e-10	7.487963e+00	2.074440e+01
2.080000e-06	1.122152e-06	3.407154e-10	7.806838e+00	2.215508e+01
2.090000e-06	1.167896e-06	3.616442e-10	8.125077e+00	2.355452e+01
2.100000e-06	1.213606e-06	3.841147e-10	8.443083e+00	2.494162e+01
2.110000e-06	1.259161e-06	4.043569e-10	8.760015e+00	2.631535e+01
2.120000e-06	1.304561e-06	4.223648e-10	9.075860e+00	2.767472e+01
2.130000e-06	1.349898e-06	4.390980e-10	9.391273e+00	2.901882e+01
2.140000e-06	1.395154e-06	4.575701e-10	9.706118e+00	3.034681e+01
2.150000e-06	1.440371e-06	4.772877e-10	1.002069e+01	3.165793e+01
2.160000e-06	1.485462e-06	4.963318e-10	1.033440e+01	3.295146e+01
2.170000e-06	1.530417e-06	5.163820e-10	1.064715e+01	3.422680e+01
2.180000e-06	1.575357e-06	5.393710e-10	1.095980e+01	3.548340e+01
2.190000e-06	1.620150e-06	5.590335e-10	1.127142e+01	3.672079e+01
2.200000e-06	1.664693e-06	5.747313e-10	1.158131e+01	3.793859e+01
2.210000e-06	1.709027e-06	5.884926e-10	1.188974e+01	3.913647e+01
2.220000e-06	1.753267e-06	6.021798e-10	1.219752e+01	4.031420e+01
2.230000e-06	1.797457e-06	6.161118e-10	1.250495e+01	4.147161e+01
2.240000e-06	1.841599e-06	6.305889e-10	1.281205e+01	4.260860e+01
2.250000e-06	1.885650e-06	6.474348e-10	1.311851e+01	4.372514e+01
2.260000e-06	1.929568e-06	6.639447e-10	1.342405e+01	4.482127e+01
2.270000e-06	1.973442e-06	6.826157e-10	1.372928e+01	4.589708e+01
2.280000e-06	2.017231e-06	6.992818e-10	1.403393e+01	4.695272e+01
2.290000e-06	2.060971e-06	7.146581e-10	1.433822e+01	4.798839e+01
2.300000e-06	2.104713e-06	7.268355e-10	1.464253e+01	4.900436e+01
2.310000e-06	2.148340e-06	7.390316e-10	1.494605e+01	5.000090e+01
2.320000e-06	2.191767e-06	7.529950e-10	1.524817e+01	5.097837e+01
2.330000e-06	2.235036e-06	7.656993e-10	1.554919e+01	5.193712e+01
2.340000e-06	2.278138e-06	7.797684e-10	1.584906e+01	5.287754e+01
2.350000e-06	2.321065e-06	7.966534e-10	1.614770e+01	5.380007e+01
2.360000e-06	2.363737e-06	8.137449e-10	1.644457e+01	5.470513e+01
2.370000e-06	2.406235e-06	8.263140e-10	1.674023e+01	5.559318e+01
2.380000e-06	2.448515e-06	8.364273e-10	1.703438e+01	5.646467e+01
2.390000e-06	2.490346e-06	8.473877e-10	1.732540e+01	5.732009e+01
2.400000e-06	2.531798e-06	8.569545e-10	1.761378e+01	5.815988e+01
2.410000e-06	2.573026e-06	8.661520e-10	1.790060e+01	5.898452e+01
2.420000e-06	2.614052e-06	8.782091e-10	1.818602e+01	5.979445e+01
2.430000e-06	2.654826e-06	8.928688e-10	1.846969e+01	6.059013e+01
2.440000e-06	2.695345e-06	9.057586e-10	1.875158e+01	6.137197e+01
2.450000e-06	2.735612e-06	9.158600e-10	1.903171e+01	6.214041e+01
2.460000e-06	2.775653e-06	9.277071e-10	1.931028e+01	6.289582e+01
2.470000e-06	2.815591e-06	9.395034e-10	1.958813e+01	6.363858e+01
2.480000e-06	2.855463e-06	9.509921e-10	1.986552e+01	6.436905e+01
2.490000e-06	2.895166e-06	9.622177e-10	2.014174e+01	6.508756e+01
2.500000e-06	2.934650e-06	9.717813e-10	2.041643e+01	6.579439e+01
2.510000e-06	2.973995e-06	9.841327e-10	2.069015e+01	6.648985e+01
2.520000e-06	3.013178e-06	9.980331e-10	2.096275e+01	6.717417e+01
2.530000e-06	3.052160e-06	1.006416e-09	2.123395e+01	6.784759e+01
2.540000e-06	3.090954e-06	1.013539e-09	2.150384e+01	6.851032e+01
2.550000e-06	3.129518e-06	1.021712e-09	2.177213e+01	6.916254e+01
2.560000e-06	3.167835e-06	1.028473e-09	2.203870e+01	6.980440e+01
2.570000e-06	3.205916e-06	1.035946e-09	2.230363e+01	7.043607e+01
2.580000e-06	3.243874e-06	1.044495e-09	2.256771e+01	7.105765e+01
2.590000e-06	3.281653e-06	1.054541e-09	2.283053e+01	7.166927e+01
2.600000e-06	3.319208e-06	1.065796e-09	2.309181e+01	7.227101e+01
2.610000e-06	3.356553e-06	1.074693e-09	2.335162e+01	7.286296e+01
2.620000e-06	3.393556e-06	1.081286e-09	2.360905e+01	7.344519e+01
2.630000e-06	3.430219e-06	1.087850e-09	2.386412e+01	7.401778e+01
2.640000e-06	3.466624e-06	1.094301e-09	2.411738e+01	7.458079e+01
2.650000e-06	3.502854e-06	1.101853e-09	2.436944e+01	7.513427e+01
2.660000e-06	3.538948e-06	1.111441e-09	2.462055e+01	7.567830e+01
2.670000e-06	3.574894e-06	1.120723e-09	2.487062e+01	7.621293e+01
2.680000e-06	3.610713e-06	1.130072e-09	2.511981e+01	7.673824e+01
2.690000e-06	3.646367e-06	1.139375e-09	2.536786e+01	7.725431e+01
2.700000e-06	3.681856e-06	1.147536e-09	2.561476e+01	7.776121e+01
2.710000e-06	3.717084e-06	1.154405e-09	2.585984e+01	7.825905e+01
2.720000e-06	3.751922e-06	1.159149e-09	2.610221e+01	7.874792e+01
2.730000e-06	3.786445e-06	1.162882e-09	2.634239e+01	7.922795e+01
2.740000e-06	3.820629e-06	1.167077e-09	2.658020e+01	7.969927e+01
2.750000e-06	3.854315e-06	1.172601e-09	2.681456e+01	8.016203e+01
2.760000e-06	3.887443e-06	1.181447e-09	2.704503e+01	8.061638e+01
2.770000e-06	3.920120e-06	1.191599e-09	2.727237e+01	8.106249e+01
2.780000e-06	3.952446e-06	1.200161e-09	2.749726e+01	8.150055e+01
2.790000e-06	3.984509e-06	1.207422e-09	2.772032e+01	8.193076e+01
2.800000e-06	4.016441e-06	1.213615e-09	2.794247e+01	8.235334e+01
2.810000e-06	4.048213e-06	1.218550e-09	2.816351e+01	8.276850e+01
2.820000e-06	4.079753e-06	1.223904e-09	2.838294e+01	8.317648e+01
2.830000e-06	4.111064e-06	1.231184e-09	2.860077e+01	8.357751e+01
2.840000e-06	4.142155e-06	1.240190e-09	2.881707e+01	8.397185e+01
2.850000e-06	4.172910e-06	1.250935e-09	2.903103e+01	8.435975e+01
2.860000e-06	4.203344e-06	1.259958e-09	2.924276e+01	8.474146e+01
2.870000e-06	4.233443e-06	1.263428e-09	2.945216e+01	8.511723e+01
2.880000e-06	4.263262e-06	1.265032e-09	2.965961e+01	8.548733e+01
2.890000e-06	4.292871e-06	1.269769e-09	2.986560e+01	8.585200e+01
2.900000e-06	4.322134e-06	1.277361e-09	3.006919e+01	8.621148e+01
2.910000e-06	4.351156e-06	1.284763e-09	3.027110e+01	8.656602e+01
