# Temperatura_=_7.16
# Concentracion g/m^3_=_1620.0
# C_Vs_to_Am_M_A/Vsm_=_65563218390.804596
# pendiente_HvsI_1/m_=_3716.3
# ordenada_HvsI_A/m_=_1297.0
# frecuencia_Hz_=_135093.78777324432

Tiempo_(s)	Campo_(V.s)	Magnetizacion_(V.s)	Campo_(kA/m)	Magnetizacion_(A/m)
0.000000e+00	-5.514940e-06	-1.249484e-09	-3.837876e+01	-8.311410e+01
1.000000e-08	-5.515002e-06	-1.250224e-09	-3.837919e+01	-8.306402e+01
2.000000e-08	-5.514733e-06	-1.254539e-09	-3.837732e+01	-8.301542e+01
3.000000e-08	-5.514017e-06	-1.254940e-09	-3.837234e+01	-8.296830e+01
4.000000e-08	-5.512762e-06	-1.245188e-09	-3.836360e+01	-8.292260e+01
5.000000e-08	-5.510968e-06	-1.228663e-09	-3.835112e+01	-8.287826e+01
6.000000e-08	-5.508592e-06	-1.228249e-09	-3.833459e+01	-8.283517e+01
7.000000e-08	-5.505669e-06	-1.272066e-09	-3.831424e+01	-8.279322e+01
8.000000e-08	-5.502257e-06	-1.315965e-09	-3.829050e+01	-8.275223e+01
9.000000e-08	-5.498449e-06	-1.306861e-09	-3.826400e+01	-8.271202e+01
1.000000e-07	-5.494308e-06	-1.255953e-09	-3.823518e+01	-8.267239e+01
1.100000e-07	-5.489923e-06	-1.239746e-09	-3.820466e+01	-8.263309e+01
1.200000e-07	-5.485269e-06	-1.192248e-09	-3.817228e+01	-8.259386e+01
1.300000e-07	-5.480203e-06	-1.227505e-09	-3.813702e+01	-8.255443e+01
1.400000e-07	-5.474824e-06	-1.222557e-09	-3.809959e+01	-8.251449e+01
1.500000e-07	-5.469083e-06	-1.235106e-09	-3.805964e+01	-8.247373e+01
1.600000e-07	-5.462867e-06	-1.222211e-09	-3.801638e+01	-8.243181e+01
1.700000e-07	-5.456299e-06	-1.238971e-09	-3.797067e+01	-8.238839e+01
1.800000e-07	-5.449386e-06	-1.292924e-09	-3.792257e+01	-8.234312e+01
1.900000e-07	-5.442094e-06	-1.243013e-09	-3.787182e+01	-8.229564e+01
2.000000e-07	-5.434518e-06	-1.226848e-09	-3.781910e+01	-8.224557e+01
2.100000e-07	-5.426672e-06	-1.228941e-09	-3.776450e+01	-8.219255e+01
2.200000e-07	-5.418526e-06	-1.303403e-09	-3.770781e+01	-8.213621e+01
2.300000e-07	-5.409906e-06	-1.275501e-09	-3.764782e+01	-8.207618e+01
2.400000e-07	-5.400736e-06	-1.270877e-09	-3.758401e+01	-8.201211e+01
2.500000e-07	-5.391028e-06	-1.242826e-09	-3.751645e+01	-8.194364e+01
2.600000e-07	-5.380770e-06	-1.262434e-09	-3.744506e+01	-8.187043e+01
2.700000e-07	-5.369932e-06	-1.229140e-09	-3.736964e+01	-8.179216e+01
2.800000e-07	-5.358495e-06	-1.242438e-09	-3.729005e+01	-8.170849e+01
2.900000e-07	-5.346699e-06	-1.247046e-09	-3.720796e+01	-8.161915e+01
3.000000e-07	-5.334562e-06	-1.242744e-09	-3.712350e+01	-8.152384e+01
3.100000e-07	-5.321966e-06	-1.225865e-09	-3.703584e+01	-8.142232e+01
3.200000e-07	-5.308964e-06	-1.245994e-09	-3.694536e+01	-8.131434e+01
3.300000e-07	-5.295655e-06	-1.244933e-09	-3.685274e+01	-8.119969e+01
3.400000e-07	-5.281951e-06	-1.225050e-09	-3.675738e+01	-8.107818e+01
3.500000e-07	-5.267853e-06	-1.243056e-09	-3.665927e+01	-8.094964e+01
3.600000e-07	-5.253327e-06	-1.244571e-09	-3.655819e+01	-8.081395e+01
3.700000e-07	-5.238201e-06	-1.218126e-09	-3.645292e+01	-8.067098e+01
3.800000e-07	-5.222532e-06	-1.220606e-09	-3.634388e+01	-8.052064e+01
3.900000e-07	-5.206420e-06	-1.252781e-09	-3.623175e+01	-8.036289e+01
4.000000e-07	-5.189931e-06	-1.203961e-09	-3.611700e+01	-8.019770e+01
4.100000e-07	-5.173104e-06	-1.192963e-09	-3.599991e+01	-8.002504e+01
4.200000e-07	-5.155942e-06	-1.229469e-09	-3.588047e+01	-7.984495e+01
4.300000e-07	-5.138462e-06	-1.230475e-09	-3.575883e+01	-7.965746e+01
4.400000e-07	-5.120612e-06	-1.178031e-09	-3.563461e+01	-7.946266e+01
4.500000e-07	-5.102343e-06	-1.231288e-09	-3.550747e+01	-7.926062e+01
4.600000e-07	-5.083603e-06	-1.230879e-09	-3.537706e+01	-7.905146e+01
4.700000e-07	-5.064431e-06	-1.174167e-09	-3.524364e+01	-7.883532e+01
4.800000e-07	-5.045031e-06	-1.180645e-09	-3.510864e+01	-7.861235e+01
4.900000e-07	-5.025469e-06	-1.244656e-09	-3.497250e+01	-7.838271e+01
5.000000e-07	-5.005646e-06	-1.176014e-09	-3.483455e+01	-7.814660e+01
5.100000e-07	-4.985586e-06	-1.155628e-09	-3.469496e+01	-7.790420e+01
5.200000e-07	-4.965277e-06	-1.213097e-09	-3.455363e+01	-7.765574e+01
5.300000e-07	-4.944690e-06	-1.203955e-09	-3.441036e+01	-7.740142e+01
5.400000e-07	-4.923657e-06	-1.140642e-09	-3.426399e+01	-7.714148e+01
5.500000e-07	-4.902226e-06	-1.187895e-09	-3.411485e+01	-7.687615e+01
5.600000e-07	-4.880400e-06	-1.186875e-09	-3.396296e+01	-7.660567e+01
5.700000e-07	-4.858145e-06	-1.132821e-09	-3.380809e+01	-7.633027e+01
5.800000e-07	-4.835608e-06	-1.158067e-09	-3.365125e+01	-7.605020e+01
5.900000e-07	-4.812657e-06	-1.196749e-09	-3.349154e+01	-7.576568e+01
6.000000e-07	-4.789376e-06	-1.138095e-09	-3.332952e+01	-7.547697e+01
6.100000e-07	-4.765898e-06	-1.127512e-09	-3.316613e+01	-7.518427e+01
6.200000e-07	-4.742236e-06	-1.164887e-09	-3.300147e+01	-7.488782e+01
6.300000e-07	-4.718408e-06	-1.130987e-09	-3.283565e+01	-7.458783e+01
6.400000e-07	-4.694331e-06	-1.112244e-09	-3.266810e+01	-7.428449e+01
6.500000e-07	-4.669878e-06	-1.153360e-09	-3.249793e+01	-7.397801e+01
6.600000e-07	-4.644950e-06	-1.147798e-09	-3.232445e+01	-7.366856e+01
6.700000e-07	-4.619440e-06	-1.113169e-09	-3.214693e+01	-7.335631e+01
6.800000e-07	-4.593317e-06	-1.135646e-09	-3.196514e+01	-7.304141e+01
6.900000e-07	-4.566637e-06	-1.131296e-09	-3.177947e+01	-7.272400e+01
7.000000e-07	-4.539525e-06	-1.097472e-09	-3.159079e+01	-7.240421e+01
7.100000e-07	-4.512233e-06	-1.096360e-09	-3.140087e+01	-7.208213e+01
7.200000e-07	-4.484762e-06	-1.113337e-09	-3.120970e+01	-7.175786e+01
7.300000e-07	-4.457053e-06	-1.085112e-09	-3.101687e+01	-7.143147e+01
7.400000e-07	-4.429180e-06	-1.087290e-09	-3.082290e+01	-7.110303e+01
7.500000e-07	-4.401057e-06	-1.096188e-09	-3.062719e+01	-7.077257e+01
7.600000e-07	-4.372699e-06	-1.083227e-09	-3.042984e+01	-7.044012e+01
7.700000e-07	-4.343963e-06	-1.060973e-09	-3.022987e+01	-7.010569e+01
7.800000e-07	-4.314811e-06	-1.071090e-09	-3.002700e+01	-6.976928e+01
7.900000e-07	-4.285417e-06	-1.059624e-09	-2.982244e+01	-6.943088e+01
8.000000e-07	-4.255851e-06	-1.043727e-09	-2.961669e+01	-6.909044e+01
8.100000e-07	-4.226059e-06	-1.040902e-09	-2.940937e+01	-6.874793e+01
8.200000e-07	-4.195932e-06	-1.043112e-09	-2.919971e+01	-6.840329e+01
8.300000e-07	-4.165398e-06	-1.025889e-09	-2.898723e+01	-6.805645e+01
8.400000e-07	-4.134446e-06	-1.027888e-09	-2.877183e+01	-6.770734e+01
8.500000e-07	-4.103198e-06	-1.028631e-09	-2.855437e+01	-6.735588e+01
8.600000e-07	-4.071756e-06	-1.016219e-09	-2.833557e+01	-6.700196e+01
8.700000e-07	-4.040231e-06	-1.000935e-09	-2.811618e+01	-6.664550e+01
8.800000e-07	-4.008570e-06	-1.001061e-09	-2.789585e+01	-6.628639e+01
8.900000e-07	-3.976639e-06	-9.891178e-10	-2.767364e+01	-6.592451e+01
9.000000e-07	-3.944421e-06	-9.729277e-10	-2.744944e+01	-6.555977e+01
9.100000e-07	-3.911874e-06	-9.722291e-10	-2.722294e+01	-6.519205e+01
9.200000e-07	-3.878932e-06	-9.674011e-10	-2.699369e+01	-6.482123e+01
9.300000e-07	-3.845685e-06	-9.552141e-10	-2.676233e+01	-6.444720e+01
9.400000e-07	-3.811976e-06	-9.538238e-10	-2.652774e+01	-6.406986e+01
9.500000e-07	-3.777727e-06	-9.547799e-10	-2.628940e+01	-6.368909e+01
9.600000e-07	-3.743103e-06	-9.346975e-10	-2.604846e+01	-6.330479e+01
9.700000e-07	-3.708143e-06	-9.219122e-10	-2.580516e+01	-6.291687e+01
9.800000e-07	-3.672933e-06	-9.191932e-10	-2.556014e+01	-6.252521e+01
9.900000e-07	-3.637538e-06	-9.147658e-10	-2.531382e+01	-6.212975e+01
1.000000e-06	-3.601962e-06	-9.041700e-10	-2.506624e+01	-6.173039e+01
1.010000e-06	-3.566221e-06	-9.052628e-10	-2.481752e+01	-6.132706e+01
1.020000e-06	-3.530339e-06	-9.004712e-10	-2.456782e+01	-6.091970e+01
1.030000e-06	-3.494252e-06	-8.910210e-10	-2.431669e+01	-6.050823e+01
1.040000e-06	-3.457831e-06	-8.826977e-10	-2.406323e+01	-6.009262e+01
1.050000e-06	-3.421106e-06	-8.794317e-10	-2.380766e+01	-5.967283e+01
1.060000e-06	-3.384226e-06	-8.668330e-10	-2.355101e+01	-5.924880e+01
1.070000e-06	-3.347073e-06	-8.619523e-10	-2.329246e+01	-5.882053e+01
1.080000e-06	-3.309568e-06	-8.580632e-10	-2.303146e+01	-5.838799e+01
1.090000e-06	-3.271857e-06	-8.522645e-10	-2.276903e+01	-5.795117e+01
1.100000e-06	-3.233971e-06	-8.421711e-10	-2.250537e+01	-5.751008e+01
1.110000e-06	-3.195911e-06	-8.373233e-10	-2.224051e+01	-5.706470e+01
1.120000e-06	-3.157643e-06	-8.275870e-10	-2.197420e+01	-5.661507e+01
1.130000e-06	-3.119052e-06	-8.181626e-10	-2.170565e+01	-5.616118e+01
1.140000e-06	-3.080237e-06	-8.122040e-10	-2.143553e+01	-5.570308e+01
1.150000e-06	-3.041238e-06	-8.077768e-10	-2.116414e+01	-5.524077e+01
1.160000e-06	-3.002108e-06	-7.981532e-10	-2.089183e+01	-5.477429e+01
1.170000e-06	-2.962900e-06	-7.911757e-10	-2.061898e+01	-5.430368e+01
1.180000e-06	-2.923541e-06	-7.864557e-10	-2.034507e+01	-5.382897e+01
1.190000e-06	-2.884023e-06	-7.794015e-10	-2.007007e+01	-5.335019e+01
1.200000e-06	-2.844317e-06	-7.707910e-10	-1.979375e+01	-5.286736e+01
1.210000e-06	-2.804498e-06	-7.635445e-10	-1.951665e+01	-5.238053e+01
1.220000e-06	-2.764498e-06	-7.553205e-10	-1.923829e+01	-5.188972e+01
1.230000e-06	-2.724256e-06	-7.457410e-10	-1.895824e+01	-5.139495e+01
1.240000e-06	-2.683847e-06	-7.394950e-10	-1.867703e+01	-5.089624e+01
1.250000e-06	-2.643231e-06	-7.331371e-10	-1.839439e+01	-5.039359e+01
1.260000e-06	-2.602406e-06	-7.259163e-10	-1.811028e+01	-4.988701e+01
1.270000e-06	-2.561403e-06	-7.179093e-10	-1.782494e+01	-4.937648e+01
1.280000e-06	-2.520175e-06	-7.124421e-10	-1.753803e+01	-4.886198e+01
1.290000e-06	-2.478483e-06	-7.028827e-10	-1.724789e+01	-4.834347e+01
1.300000e-06	-2.436414e-06	-6.929482e-10	-1.695513e+01	-4.782092e+01
1.310000e-06	-2.394196e-06	-6.835060e-10	-1.666134e+01	-4.729425e+01
1.320000e-06	-2.351757e-06	-6.746923e-10	-1.636600e+01	-4.676338e+01
1.330000e-06	-2.309045e-06	-6.649716e-10	-1.606877e+01	-4.622822e+01
1.340000e-06	-2.266043e-06	-6.588620e-10	-1.576951e+01	-4.568866e+01
1.350000e-06	-2.222833e-06	-6.514937e-10	-1.546881e+01	-4.514455e+01
1.360000e-06	-2.179425e-06	-6.429780e-10	-1.516674e+01	-4.459574e+01
1.370000e-06	-2.135880e-06	-6.340967e-10	-1.486370e+01	-4.404207e+01
1.380000e-06	-2.092264e-06	-6.281291e-10	-1.456018e+01	-4.348332e+01
1.390000e-06	-2.048589e-06	-6.188522e-10	-1.425624e+01	-4.291930e+01
1.400000e-06	-2.004870e-06	-6.079389e-10	-1.395199e+01	-4.234975e+01
1.410000e-06	-1.961078e-06	-5.972065e-10	-1.364725e+01	-4.177441e+01
1.420000e-06	-1.917211e-06	-5.882213e-10	-1.334198e+01	-4.119301e+01
1.430000e-06	-1.873203e-06	-5.804576e-10	-1.303572e+01	-4.060523e+01
1.440000e-06	-1.829038e-06	-5.757372e-10	-1.272837e+01	-4.001075e+01
1.450000e-06	-1.784816e-06	-5.682963e-10	-1.242063e+01	-3.940923e+01
1.460000e-06	-1.740529e-06	-5.582399e-10	-1.211244e+01	-3.880029e+01
1.470000e-06	-1.696101e-06	-5.416497e-10	-1.180326e+01	-3.818355e+01
1.480000e-06	-1.651492e-06	-5.270738e-10	-1.149282e+01	-3.755861e+01
1.490000e-06	-1.606603e-06	-5.142043e-10	-1.118044e+01	-3.692503e+01
1.500000e-06	-1.561551e-06	-5.054917e-10	-1.086692e+01	-3.628239e+01
1.510000e-06	-1.516496e-06	-4.978012e-10	-1.055338e+01	-3.563023e+01
1.520000e-06	-1.471437e-06	-4.913460e-10	-1.023981e+01	-3.496808e+01
1.530000e-06	-1.426377e-06	-4.867835e-10	-9.926232e+00	-3.429547e+01
1.540000e-06	-1.381135e-06	-4.772090e-10	-9.611395e+00	-3.361193e+01
1.550000e-06	-1.335693e-06	-4.642444e-10	-9.295156e+00	-3.291695e+01
1.560000e-06	-1.290197e-06	-4.461542e-10	-8.978551e+00	-3.221004e+01
1.570000e-06	-1.244653e-06	-4.300423e-10	-8.661604e+00	-3.149072e+01
1.580000e-06	-1.199048e-06	-4.180567e-10	-8.344240e+00	-3.075848e+01
1.590000e-06	-1.153304e-06	-4.116082e-10	-8.025903e+00	-3.001285e+01
1.600000e-06	-1.107456e-06	-4.036842e-10	-7.706844e+00	-2.925333e+01
1.610000e-06	-1.061554e-06	-3.925606e-10	-7.387413e+00	-2.847947e+01
1.620000e-06	-1.015527e-06	-3.788566e-10	-7.067108e+00	-2.769079e+01
1.630000e-06	-9.694204e-07	-3.671196e-10	-6.746248e+00	-2.688687e+01
1.640000e-06	-9.232237e-07	-3.547857e-10	-6.424762e+00	-2.606728e+01
1.650000e-06	-8.769416e-07	-3.404052e-10	-6.102683e+00	-2.523162e+01
1.660000e-06	-8.306565e-07	-3.260589e-10	-5.780583e+00	-2.437953e+01
1.670000e-06	-7.843778e-07	-3.109452e-10	-5.458527e+00	-2.351066e+01
1.680000e-06	-7.380791e-07	-2.966070e-10	-5.136332e+00	-2.262469e+01
1.690000e-06	-6.916717e-07	-2.878204e-10	-4.813380e+00	-2.172136e+01
1.700000e-06	-6.452141e-07	-2.785345e-10	-4.490079e+00	-2.080043e+01
1.710000e-06	-5.987292e-07	-2.654372e-10	-4.166588e+00	-1.986171e+01
1.720000e-06	-5.522156e-07	-2.461721e-10	-3.842898e+00	-1.890503e+01
1.730000e-06	-5.057042e-07	-2.272125e-10	-3.519222e+00	-1.793031e+01
1.740000e-06	-4.590720e-07	-2.084739e-10	-3.194706e+00	-1.693748e+01
1.750000e-06	-4.123864e-07	-1.916251e-10	-2.869819e+00	-1.592655e+01
1.760000e-06	-3.657434e-07	-1.787265e-10	-2.545228e+00	-1.489755e+01
1.770000e-06	-3.191441e-07	-1.684459e-10	-2.220940e+00	-1.385059e+01
1.780000e-06	-2.724656e-07	-1.579204e-10	-1.896103e+00	-1.278583e+01
1.790000e-06	-2.257214e-07	-1.445827e-10	-1.570807e+00	-1.170350e+01
1.800000e-06	-1.789534e-07	-1.272252e-10	-1.245346e+00	-1.060386e+01
1.810000e-06	-1.321632e-07	-1.077282e-10	-9.197304e-01	-9.487247e+00
1.820000e-06	-8.540788e-08	-8.991992e-11	-5.943580e-01	-8.354062e+00
1.830000e-06	-3.865366e-08	-7.344765e-11	-2.689929e-01	-7.204757e+00
1.840000e-06	8.125500e-09	-5.922714e-11	5.654578e-02	-6.039842e+00
1.850000e-06	5.492422e-08	-4.733001e-11	3.822206e-01	-4.859890e+00
1.860000e-06	1.017264e-07	-3.571207e-11	7.079195e-01	-3.665528e+00
1.870000e-06	1.484805e-07	-1.902576e-11	1.033284e+00	-2.457441e+00
1.880000e-06	1.951260e-07	1.940999e-12	1.357892e+00	-1.236368e+00
1.890000e-06	2.418172e-07	2.326750e-11	1.682818e+00	-3.098870e-03
1.900000e-06	2.885269e-07	4.252441e-11	2.007874e+00	1.241525e+00
1.910000e-06	3.351801e-07	6.131788e-11	2.332536e+00	2.496615e+00
1.920000e-06	3.817554e-07	7.730982e-11	2.656656e+00	3.761239e+00
1.930000e-06	4.282935e-07	9.319189e-11	2.980517e+00	5.034423e+00
1.940000e-06	4.748655e-07	1.111169e-10	3.304614e+00	6.315155e+00
1.950000e-06	5.213633e-07	1.291147e-10	3.628195e+00	7.602391e+00
1.960000e-06	5.678103e-07	1.451274e-10	3.951422e+00	8.895056e+00
1.970000e-06	6.141760e-07	1.617374e-10	4.274083e+00	1.019205e+01
1.980000e-06	6.604304e-07	1.800519e-10	4.595970e+00	1.149224e+01
1.990000e-06	7.066842e-07	1.978967e-10	4.917853e+00	1.279451e+01
2.000000e-06	7.529486e-07	2.148152e-10	5.239810e+00	1.409768e+01
2.010000e-06	7.991872e-07	2.342811e-10	5.561586e+00	1.540061e+01
2.020000e-06	8.454350e-07	2.556419e-10	5.883427e+00	1.670214e+01
2.030000e-06	8.916213e-07	2.775783e-10	6.204840e+00	1.800110e+01
2.040000e-06	9.377479e-07	2.968962e-10	6.525838e+00	1.929634e+01
2.050000e-06	9.837418e-07	3.142238e-10	6.845912e+00	2.058672e+01
2.060000e-06	1.029618e-06	3.323798e-10	7.165168e+00	2.187112e+01
2.070000e-06	1.075514e-06	3.506363e-10	7.484562e+00	2.314844e+01
2.080000e-06	1.121305e-06	3.683248e-10	7.803223e+00	2.441759e+01
2.090000e-06	1.166963e-06	3.871516e-10	8.120959e+00	2.567754e+01
2.100000e-06	1.212605e-06	4.072918e-10	8.438585e+00	2.692726e+01
2.110000e-06	1.258246e-06	4.237909e-10	8.756200e+00	2.816579e+01
2.120000e-06	1.303765e-06	4.387475e-10	9.072969e+00	2.939219e+01
2.130000e-06	1.349059e-06	4.539734e-10	9.388173e+00	3.060557e+01
2.140000e-06	1.394309e-06	4.698904e-10	9.703073e+00	3.180510e+01
2.150000e-06	1.439583e-06	4.871311e-10	1.001813e+01	3.299000e+01
2.160000e-06	1.484712e-06	5.051133e-10	1.033219e+01	3.415952e+01
2.170000e-06	1.529687e-06	5.228068e-10	1.064518e+01	3.531299e+01
2.180000e-06	1.574539e-06	5.399919e-10	1.095730e+01	3.644980e+01
2.190000e-06	1.619309e-06	5.563895e-10	1.126886e+01	3.756938e+01
2.200000e-06	1.663883e-06	5.718905e-10	1.157905e+01	3.867124e+01
2.210000e-06	1.708263e-06	5.868354e-10	1.188789e+01	3.975494e+01
2.220000e-06	1.752555e-06	6.020400e-10	1.219612e+01	4.082010e+01
2.230000e-06	1.796751e-06	6.157922e-10	1.250368e+01	4.186642e+01
2.240000e-06	1.840855e-06	6.270949e-10	1.281061e+01	4.289364e+01
2.250000e-06	1.884867e-06	6.386704e-10	1.311689e+01	4.390156e+01
2.260000e-06	1.928772e-06	6.508107e-10	1.342242e+01	4.489006e+01
2.270000e-06	1.972580e-06	6.676657e-10	1.372729e+01	4.585905e+01
2.280000e-06	2.016318e-06	6.849346e-10	1.403167e+01	4.680852e+01
2.290000e-06	2.060009e-06	7.022786e-10	1.433571e+01	4.773850e+01
2.300000e-06	2.103700e-06	7.161593e-10	1.463976e+01	4.864908e+01
2.310000e-06	2.147315e-06	7.280762e-10	1.494328e+01	4.954039e+01
2.320000e-06	2.190845e-06	7.396404e-10	1.524621e+01	5.041260e+01
2.330000e-06	2.234261e-06	7.496143e-10	1.554834e+01	5.126594e+01
2.340000e-06	2.277454e-06	7.612431e-10	1.584892e+01	5.210068e+01
2.350000e-06	2.320473e-06	7.772650e-10	1.614830e+01	5.291709e+01
2.360000e-06	2.363323e-06	7.948433e-10	1.644649e+01	5.371551e+01
2.370000e-06	2.405884e-06	8.059821e-10	1.674267e+01	5.449629e+01
2.380000e-06	2.448138e-06	8.151415e-10	1.703672e+01	5.525982e+01
2.390000e-06	2.490072e-06	8.244082e-10	1.732854e+01	5.600649e+01
2.400000e-06	2.531616e-06	8.309153e-10	1.761765e+01	5.673671e+01
2.410000e-06	2.572846e-06	8.371649e-10	1.790457e+01	5.745092e+01
2.420000e-06	2.613673e-06	8.482425e-10	1.818869e+01	5.814955e+01
2.430000e-06	2.654145e-06	8.626436e-10	1.847033e+01	5.883304e+01
2.440000e-06	2.694466e-06	8.742835e-10	1.875093e+01	5.950184e+01
2.450000e-06	2.734623e-06	8.813878e-10	1.903038e+01	6.015640e+01
2.460000e-06	2.774675e-06	8.931252e-10	1.930911e+01	6.079714e+01
2.470000e-06	2.814629e-06	9.023404e-10	1.958716e+01	6.142450e+01
2.480000e-06	2.854402e-06	9.130172e-10	1.986394e+01	6.203891e+01
2.490000e-06	2.894037e-06	9.211141e-10	2.013975e+01	6.264076e+01
2.500000e-06	2.933569e-06	9.259339e-10	2.041486e+01	6.323045e+01
2.510000e-06	2.972936e-06	9.343857e-10	2.068882e+01	6.380835e+01
2.520000e-06	3.012168e-06	9.448903e-10	2.096184e+01	6.437483e+01
2.530000e-06	3.051221e-06	9.572564e-10	2.123361e+01	6.493020e+01
2.540000e-06	3.089967e-06	9.658930e-10	2.150325e+01	6.547480e+01
2.550000e-06	3.128399e-06	9.733566e-10	2.177069e+01	6.600891e+01
2.560000e-06	3.166550e-06	9.781963e-10	2.203619e+01	6.653280e+01
2.570000e-06	3.204591e-06	9.816862e-10	2.230092e+01	6.704670e+01
2.580000e-06	3.242470e-06	9.855566e-10	2.256452e+01	6.755086e+01
2.590000e-06	3.280079e-06	9.933362e-10	2.282624e+01	6.804546e+01
2.600000e-06	3.317534e-06	1.002383e-09	2.308689e+01	6.853068e+01
2.610000e-06	3.354850e-06	1.009107e-09	2.334658e+01	6.900668e+01
2.620000e-06	3.391965e-06	1.014405e-09	2.360487e+01	6.947358e+01
2.630000e-06	3.428771e-06	1.019557e-09	2.386100e+01	6.993151e+01
2.640000e-06	3.465238e-06	1.026433e-09	2.411478e+01	7.038056e+01
2.650000e-06	3.501489e-06	1.032913e-09	2.436705e+01	7.082082e+01
2.660000e-06	3.537526e-06	1.036586e-09	2.461783e+01	7.125233e+01
2.670000e-06	3.573388e-06	1.040116e-09	2.486740e+01	7.167516e+01
2.680000e-06	3.609158e-06	1.045319e-09	2.511632e+01	7.208935e+01
2.690000e-06	3.644780e-06	1.054734e-09	2.536422e+01	7.249493e+01
2.700000e-06	3.680216e-06	1.062832e-09	2.561082e+01	7.289192e+01
2.710000e-06	3.715388e-06	1.070546e-09	2.585558e+01	7.328035e+01
2.720000e-06	3.750223e-06	1.077220e-09	2.609800e+01	7.366022e+01
2.730000e-06	3.784683e-06	1.081393e-09	2.633781e+01	7.403155e+01
2.740000e-06	3.818784e-06	1.085541e-09	2.657512e+01	7.439437e+01
2.750000e-06	3.852387e-06	1.087369e-09	2.680896e+01	7.474868e+01
2.760000e-06	3.885458e-06	1.091077e-09	2.703911e+01	7.509451e+01
2.770000e-06	3.918285e-06	1.096537e-09	2.726755e+01	7.543189e+01
2.780000e-06	3.950785e-06	1.102768e-09	2.749372e+01	7.576085e+01
2.790000e-06	3.982842e-06	1.110153e-09	2.771681e+01	7.608144e+01
2.800000e-06	4.014662e-06	1.116970e-09	2.793825e+01	7.639372e+01
2.810000e-06	4.046378e-06	1.122685e-09	2.815896e+01	7.669774e+01
2.820000e-06	4.078010e-06	1.126565e-09	2.837909e+01	7.699359e+01
2.830000e-06	4.109431e-06	1.128969e-09	2.859775e+01	7.728135e+01
2.840000e-06	4.140513e-06	1.134181e-09	2.881405e+01	7.756114e+01
2.850000e-06	4.171308e-06	1.141070e-09	2.902835e+01	7.783305e+01
2.860000e-06	4.201804e-06	1.145950e-09	2.924057e+01	7.809722e+01
2.870000e-06	4.231903e-06	1.149232e-09	2.945003e+01	7.835379e+01
2.880000e-06	4.261729e-06	1.153651e-09	2.965760e+01	7.860291e+01
2.890000e-06	4.291340e-06	1.158677e-09	2.986366e+01	7.884474e+01
2.900000e-06	4.320699e-06	1.162133e-09	3.006798e+01	7.907946e+01
2.910000e-06	4.349815e-06	1.165405e-09	3.027059e+01	7.930724e+01
