# Temperatura_=_-0.5
# Concentracion g/m^3_=_1620.0
# C_Vs_to_Am_M_A/Vsm_=_65563218390.804596
# pendiente_HvsI_1/m_=_3716.3
# ordenada_HvsI_A/m_=_1297.0
# frecuencia_Hz_=_135095.09143125344

Tiempo_(s)	Campo_(V.s)	Magnetizacion_(V.s)	Campo_(kA/m)	Magnetizacion_(A/m)
0.000000e+00	-5.519158e-06	-1.290081e-09	-3.837415e+01	-8.580380e+01
1.000000e-08	-5.519427e-06	-1.286446e-09	-3.837602e+01	-8.576605e+01
2.000000e-08	-5.519482e-06	-1.284361e-09	-3.837641e+01	-8.572958e+01
3.000000e-08	-5.519221e-06	-1.284467e-09	-3.837459e+01	-8.569442e+01
4.000000e-08	-5.518592e-06	-1.285063e-09	-3.837022e+01	-8.566056e+01
5.000000e-08	-5.517483e-06	-1.277914e-09	-3.836251e+01	-8.562799e+01
6.000000e-08	-5.515765e-06	-1.259859e-09	-3.835056e+01	-8.559664e+01
7.000000e-08	-5.513450e-06	-1.253157e-09	-3.833447e+01	-8.556644e+01
8.000000e-08	-5.510585e-06	-1.284677e-09	-3.831454e+01	-8.553726e+01
9.000000e-08	-5.507212e-06	-1.332478e-09	-3.829109e+01	-8.550897e+01
1.000000e-07	-5.503349e-06	-1.376107e-09	-3.826423e+01	-8.548138e+01
1.100000e-07	-5.499083e-06	-1.362736e-09	-3.823457e+01	-8.545429e+01
1.200000e-07	-5.494555e-06	-1.221593e-09	-3.820309e+01	-8.542748e+01
1.300000e-07	-5.489896e-06	-1.174459e-09	-3.817069e+01	-8.540070e+01
1.400000e-07	-5.485004e-06	-1.265790e-09	-3.813668e+01	-8.537365e+01
1.500000e-07	-5.479632e-06	-1.334494e-09	-3.809933e+01	-8.534605e+01
1.600000e-07	-5.473764e-06	-1.265442e-09	-3.805853e+01	-8.531758e+01
1.700000e-07	-5.467567e-06	-1.185382e-09	-3.801544e+01	-8.528789e+01
1.800000e-07	-5.460995e-06	-1.287191e-09	-3.796975e+01	-8.525663e+01
1.900000e-07	-5.453980e-06	-1.367795e-09	-3.792098e+01	-8.522344e+01
2.000000e-07	-5.446598e-06	-1.288070e-09	-3.786965e+01	-8.518793e+01
2.100000e-07	-5.438974e-06	-1.194277e-09	-3.781664e+01	-8.514973e+01
2.200000e-07	-5.431076e-06	-1.259474e-09	-3.776173e+01	-8.510845e+01
2.300000e-07	-5.422862e-06	-1.355834e-09	-3.770461e+01	-8.506369e+01
2.400000e-07	-5.414354e-06	-1.337724e-09	-3.764546e+01	-8.501507e+01
2.500000e-07	-5.405431e-06	-1.268317e-09	-3.758342e+01	-8.496220e+01
2.600000e-07	-5.395834e-06	-1.278619e-09	-3.751669e+01	-8.490470e+01
2.700000e-07	-5.385416e-06	-1.314636e-09	-3.744426e+01	-8.484219e+01
2.800000e-07	-5.374363e-06	-1.294355e-09	-3.736741e+01	-8.477433e+01
2.900000e-07	-5.362928e-06	-1.274604e-09	-3.728790e+01	-8.470077e+01
3.000000e-07	-5.351163e-06	-1.293367e-09	-3.720610e+01	-8.462118e+01
3.100000e-07	-5.338973e-06	-1.305568e-09	-3.712134e+01	-8.453525e+01
3.200000e-07	-5.326374e-06	-1.286095e-09	-3.703374e+01	-8.444271e+01
3.300000e-07	-5.313312e-06	-1.269916e-09	-3.694293e+01	-8.434329e+01
3.400000e-07	-5.299872e-06	-1.272588e-09	-3.684948e+01	-8.423675e+01
3.500000e-07	-5.286139e-06	-1.291662e-09	-3.675399e+01	-8.412288e+01
3.600000e-07	-5.272070e-06	-1.295211e-09	-3.665617e+01	-8.400152e+01
3.700000e-07	-5.257584e-06	-1.267324e-09	-3.655545e+01	-8.387250e+01
3.800000e-07	-5.242561e-06	-1.270629e-09	-3.645100e+01	-8.373570e+01
3.900000e-07	-5.226962e-06	-1.287039e-09	-3.634254e+01	-8.359104e+01
4.000000e-07	-5.210789e-06	-1.254411e-09	-3.623009e+01	-8.343847e+01
4.100000e-07	-5.194215e-06	-1.238241e-09	-3.611485e+01	-8.327794e+01
4.200000e-07	-5.177391e-06	-1.279071e-09	-3.599788e+01	-8.310947e+01
4.300000e-07	-5.160211e-06	-1.266211e-09	-3.587843e+01	-8.293309e+01
4.400000e-07	-5.142646e-06	-1.212515e-09	-3.575630e+01	-8.274887e+01
4.500000e-07	-5.124830e-06	-1.265384e-09	-3.563243e+01	-8.255690e+01
4.600000e-07	-5.106636e-06	-1.306041e-09	-3.550593e+01	-8.235731e+01
4.700000e-07	-5.087895e-06	-1.220957e-09	-3.537562e+01	-8.215024e+01
4.800000e-07	-5.068741e-06	-1.205003e-09	-3.524245e+01	-8.193588e+01
4.900000e-07	-5.049300e-06	-1.288658e-09	-3.510727e+01	-8.171440e+01
5.000000e-07	-5.029606e-06	-1.248580e-09	-3.497034e+01	-8.148605e+01
5.100000e-07	-5.009722e-06	-1.178569e-09	-3.483209e+01	-8.125105e+01
5.200000e-07	-4.989593e-06	-1.237584e-09	-3.469214e+01	-8.100966e+01
5.300000e-07	-4.969192e-06	-1.250980e-09	-3.455029e+01	-8.076215e+01
5.400000e-07	-4.948470e-06	-1.182136e-09	-3.440621e+01	-8.050880e+01
5.500000e-07	-4.927338e-06	-1.223516e-09	-3.425928e+01	-8.024991e+01
5.600000e-07	-4.905788e-06	-1.264845e-09	-3.410945e+01	-7.998577e+01
5.700000e-07	-4.883924e-06	-1.178964e-09	-3.395743e+01	-7.971669e+01
5.800000e-07	-4.861883e-06	-1.164258e-09	-3.380418e+01	-7.944298e+01
5.900000e-07	-4.839495e-06	-1.232569e-09	-3.364852e+01	-7.916494e+01
6.000000e-07	-4.816643e-06	-1.189413e-09	-3.348963e+01	-7.888288e+01
6.100000e-07	-4.793458e-06	-1.139624e-09	-3.332843e+01	-7.859709e+01
6.200000e-07	-4.770047e-06	-1.192684e-09	-3.316566e+01	-7.830788e+01
6.300000e-07	-4.746400e-06	-1.189276e-09	-3.300124e+01	-7.801552e+01
6.400000e-07	-4.722466e-06	-1.136919e-09	-3.283484e+01	-7.772027e+01
6.500000e-07	-4.698301e-06	-1.166570e-09	-3.266682e+01	-7.742241e+01
6.600000e-07	-4.673833e-06	-1.183855e-09	-3.249669e+01	-7.712217e+01
6.700000e-07	-4.648885e-06	-1.137545e-09	-3.232323e+01	-7.681977e+01
6.800000e-07	-4.623404e-06	-1.142052e-09	-3.214606e+01	-7.651543e+01
6.900000e-07	-4.597323e-06	-1.164338e-09	-3.196473e+01	-7.620933e+01
7.000000e-07	-4.570740e-06	-1.132659e-09	-3.177990e+01	-7.590164e+01
7.100000e-07	-4.543721e-06	-1.119949e-09	-3.159203e+01	-7.559250e+01
7.200000e-07	-4.516310e-06	-1.141574e-09	-3.140145e+01	-7.528205e+01
7.300000e-07	-4.488657e-06	-1.131322e-09	-3.120918e+01	-7.497037e+01
7.400000e-07	-4.460847e-06	-1.113235e-09	-3.101582e+01	-7.465756e+01
7.500000e-07	-4.432917e-06	-1.117875e-09	-3.082162e+01	-7.434367e+01
7.600000e-07	-4.404730e-06	-1.111420e-09	-3.062564e+01	-7.402874e+01
7.700000e-07	-4.376284e-06	-1.092033e-09	-3.042787e+01	-7.371278e+01
7.800000e-07	-4.347465e-06	-1.088788e-09	-3.022749e+01	-7.339578e+01
7.900000e-07	-4.318200e-06	-1.087220e-09	-3.002401e+01	-7.307772e+01
8.000000e-07	-4.288636e-06	-1.079562e-09	-2.981846e+01	-7.275855e+01
8.100000e-07	-4.258876e-06	-1.079395e-09	-2.961154e+01	-7.243821e+01
8.200000e-07	-4.228946e-06	-1.075421e-09	-2.940344e+01	-7.211661e+01
8.300000e-07	-4.198768e-06	-1.061311e-09	-2.919361e+01	-7.179367e+01
8.400000e-07	-4.168284e-06	-1.055726e-09	-2.898166e+01	-7.146926e+01
8.500000e-07	-4.137349e-06	-1.055081e-09	-2.876657e+01	-7.114327e+01
8.600000e-07	-4.106119e-06	-1.042906e-09	-2.854943e+01	-7.081556e+01
8.700000e-07	-4.074739e-06	-1.031823e-09	-2.833125e+01	-7.048599e+01
8.800000e-07	-4.043154e-06	-1.032217e-09	-2.811165e+01	-7.015441e+01
8.900000e-07	-4.011459e-06	-1.028258e-09	-2.789127e+01	-6.982066e+01
9.000000e-07	-3.979608e-06	-1.020284e-09	-2.766982e+01	-6.948458e+01
9.100000e-07	-3.947520e-06	-1.017412e-09	-2.744671e+01	-6.914601e+01
9.200000e-07	-3.915120e-06	-1.009591e-09	-2.722144e+01	-6.880479e+01
9.300000e-07	-3.882349e-06	-9.937939e-10	-2.699359e+01	-6.846076e+01
9.400000e-07	-3.849063e-06	-9.881028e-10	-2.676215e+01	-6.811375e+01
9.500000e-07	-3.815237e-06	-9.893791e-10	-2.652696e+01	-6.776361e+01
9.600000e-07	-3.781019e-06	-9.810041e-10	-2.628905e+01	-6.741019e+01
9.700000e-07	-3.746430e-06	-9.710677e-10	-2.604855e+01	-6.705335e+01
9.800000e-07	-3.711413e-06	-9.715626e-10	-2.580508e+01	-6.669294e+01
9.900000e-07	-3.676070e-06	-9.680021e-10	-2.555934e+01	-6.632886e+01
1.000000e-06	-3.640506e-06	-9.569280e-10	-2.531208e+01	-6.596096e+01
1.010000e-06	-3.604740e-06	-9.507327e-10	-2.506339e+01	-6.558916e+01
1.020000e-06	-3.568921e-06	-9.446195e-10	-2.481435e+01	-6.521335e+01
1.030000e-06	-3.532973e-06	-9.346435e-10	-2.456440e+01	-6.483345e+01
1.040000e-06	-3.496789e-06	-9.296537e-10	-2.431282e+01	-6.444938e+01
1.050000e-06	-3.460456e-06	-9.306956e-10	-2.406020e+01	-6.406109e+01
1.060000e-06	-3.423897e-06	-9.264601e-10	-2.380601e+01	-6.366852e+01
1.070000e-06	-3.387013e-06	-9.203321e-10	-2.354956e+01	-6.327163e+01
1.080000e-06	-3.349826e-06	-9.162406e-10	-2.329100e+01	-6.287040e+01
1.090000e-06	-3.312354e-06	-9.058878e-10	-2.303046e+01	-6.246481e+01
1.100000e-06	-3.274728e-06	-8.917404e-10	-2.276885e+01	-6.205485e+01
1.110000e-06	-3.236970e-06	-8.841994e-10	-2.250633e+01	-6.164051e+01
1.120000e-06	-3.198893e-06	-8.782729e-10	-2.224158e+01	-6.122181e+01
1.130000e-06	-3.160509e-06	-8.718866e-10	-2.197470e+01	-6.079876e+01
1.140000e-06	-3.121939e-06	-8.692194e-10	-2.170653e+01	-6.037139e+01
1.150000e-06	-3.083198e-06	-8.659860e-10	-2.143716e+01	-5.993971e+01
1.160000e-06	-3.044253e-06	-8.567625e-10	-2.116638e+01	-5.950375e+01
1.170000e-06	-3.005116e-06	-8.469241e-10	-2.089427e+01	-5.906354e+01
1.180000e-06	-2.965782e-06	-8.396208e-10	-2.062079e+01	-5.861911e+01
1.190000e-06	-2.926236e-06	-8.326036e-10	-2.034583e+01	-5.817049e+01
1.200000e-06	-2.886498e-06	-8.261442e-10	-2.006953e+01	-5.771769e+01
1.210000e-06	-2.846662e-06	-8.209162e-10	-1.979255e+01	-5.726074e+01
1.220000e-06	-2.806799e-06	-8.150876e-10	-1.951539e+01	-5.679965e+01
1.230000e-06	-2.766787e-06	-8.068862e-10	-1.923719e+01	-5.633442e+01
1.240000e-06	-2.726532e-06	-7.995267e-10	-1.895731e+01	-5.586505e+01
1.250000e-06	-2.686130e-06	-7.902841e-10	-1.867639e+01	-5.539152e+01
1.260000e-06	-2.645625e-06	-7.791766e-10	-1.839477e+01	-5.491379e+01
1.270000e-06	-2.604960e-06	-7.700260e-10	-1.811202e+01	-5.443184e+01
1.280000e-06	-2.563988e-06	-7.640527e-10	-1.782715e+01	-5.394558e+01
1.290000e-06	-2.522669e-06	-7.578480e-10	-1.753987e+01	-5.345496e+01
1.300000e-06	-2.481003e-06	-7.469922e-10	-1.725016e+01	-5.295988e+01
1.310000e-06	-2.439052e-06	-7.356702e-10	-1.695848e+01	-5.246022e+01
1.320000e-06	-2.396791e-06	-7.255583e-10	-1.666464e+01	-5.195585e+01
1.330000e-06	-2.354192e-06	-7.173480e-10	-1.636846e+01	-5.144662e+01
1.340000e-06	-2.311320e-06	-7.105304e-10	-1.607038e+01	-5.093236e+01
1.350000e-06	-2.268168e-06	-7.053033e-10	-1.577034e+01	-5.041288e+01
1.360000e-06	-2.224845e-06	-6.982645e-10	-1.546913e+01	-4.988795e+01
1.370000e-06	-2.181408e-06	-6.868909e-10	-1.516711e+01	-4.935733e+01
1.380000e-06	-2.137842e-06	-6.754936e-10	-1.486420e+01	-4.882077e+01
1.390000e-06	-2.094143e-06	-6.662687e-10	-1.456037e+01	-4.827799e+01
1.400000e-06	-2.050357e-06	-6.578031e-10	-1.425592e+01	-4.772866e+01
1.410000e-06	-2.006501e-06	-6.487244e-10	-1.395100e+01	-4.717248e+01
1.420000e-06	-1.962571e-06	-6.400836e-10	-1.364556e+01	-4.660909e+01
1.430000e-06	-1.918553e-06	-6.312759e-10	-1.333951e+01	-4.603812e+01
1.440000e-06	-1.874480e-06	-6.200139e-10	-1.303307e+01	-4.545918e+01
1.450000e-06	-1.830361e-06	-6.084745e-10	-1.272631e+01	-4.487188e+01
1.460000e-06	-1.786096e-06	-5.997837e-10	-1.241855e+01	-4.427578e+01
1.470000e-06	-1.741686e-06	-5.909579e-10	-1.210977e+01	-4.367046e+01
1.480000e-06	-1.697143e-06	-5.809712e-10	-1.180007e+01	-4.305545e+01
1.490000e-06	-1.652489e-06	-5.696393e-10	-1.148959e+01	-4.243029e+01
1.500000e-06	-1.607758e-06	-5.585161e-10	-1.117858e+01	-4.179451e+01
1.510000e-06	-1.562862e-06	-5.490492e-10	-1.086642e+01	-4.114763e+01
1.520000e-06	-1.517772e-06	-5.400014e-10	-1.055292e+01	-4.048914e+01
1.530000e-06	-1.472600e-06	-5.297484e-10	-1.023884e+01	-3.981856e+01
1.540000e-06	-1.427311e-06	-5.176894e-10	-9.923949e+00	-3.913539e+01
1.550000e-06	-1.381851e-06	-5.056152e-10	-9.607869e+00	-3.843912e+01
1.560000e-06	-1.336374e-06	-4.956117e-10	-9.291677e+00	-3.772925e+01
1.570000e-06	-1.290885e-06	-4.840303e-10	-8.975394e+00	-3.700531e+01
1.580000e-06	-1.245275e-06	-4.736558e-10	-8.658273e+00	-3.626679e+01
1.590000e-06	-1.199513e-06	-4.664783e-10	-8.340095e+00	-3.551322e+01
1.600000e-06	-1.153663e-06	-4.582761e-10	-8.021300e+00	-3.474414e+01
1.610000e-06	-1.107772e-06	-4.464213e-10	-7.702225e+00	-3.395910e+01
1.620000e-06	-1.061793e-06	-4.322609e-10	-7.382539e+00	-3.315766e+01
1.630000e-06	-1.015712e-06	-4.207649e-10	-7.062145e+00	-3.233941e+01
1.640000e-06	-9.696108e-07	-4.116430e-10	-6.741606e+00	-3.150396e+01
1.650000e-06	-9.234844e-07	-4.019689e-10	-6.420894e+00	-3.065094e+01
1.660000e-06	-8.773414e-07	-3.901854e-10	-6.100067e+00	-2.978002e+01
1.670000e-06	-8.310933e-07	-3.756806e-10	-5.778509e+00	-2.889088e+01
1.680000e-06	-7.846822e-07	-3.587720e-10	-5.455817e+00	-2.798324e+01
1.690000e-06	-7.382397e-07	-3.433957e-10	-5.132907e+00	-2.705688e+01
1.700000e-06	-6.918005e-07	-3.292016e-10	-4.810020e+00	-2.611157e+01
1.710000e-06	-6.452633e-07	-3.156837e-10	-4.486451e+00	-2.514716e+01
1.720000e-06	-5.986466e-07	-3.020145e-10	-4.162330e+00	-2.416351e+01
1.730000e-06	-5.520059e-07	-2.867912e-10	-3.838042e+00	-2.316056e+01
1.740000e-06	-5.053258e-07	-2.697916e-10	-3.513479e+00	-2.213825e+01
1.750000e-06	-4.586113e-07	-2.509286e-10	-3.188678e+00	-2.109660e+01
1.760000e-06	-4.118838e-07	-2.334843e-10	-2.863787e+00	-2.003566e+01
1.770000e-06	-3.651079e-07	-2.183344e-10	-2.538559e+00	-1.895555e+01
1.780000e-06	-3.182775e-07	-2.054094e-10	-2.212952e+00	-1.785641e+01
1.790000e-06	-2.715186e-07	-1.933382e-10	-1.887842e+00	-1.673845e+01
1.800000e-06	-2.248176e-07	-1.783429e-10	-1.563134e+00	-1.560194e+01
1.810000e-06	-1.780768e-07	-1.601461e-10	-1.238150e+00	-1.444717e+01
1.820000e-06	-1.312897e-07	-1.427623e-10	-9.128440e-01	-1.327452e+01
1.830000e-06	-8.453150e-08	-1.275361e-10	-5.877390e-01	-1.208440e+01
1.840000e-06	-3.775854e-08	-1.131234e-10	-2.625314e-01	-1.087729e+01
1.850000e-06	9.050268e-09	-9.982985e-11	6.292561e-02	-9.653689e+00
1.860000e-06	5.581417e-08	-8.606535e-11	3.880703e-01	-8.414186e+00
1.870000e-06	1.025473e-07	-7.037547e-11	7.130014e-01	-7.159397e+00
1.880000e-06	1.492638e-07	-5.117379e-11	1.037816e+00	-5.889997e+00
1.890000e-06	1.959931e-07	-2.900567e-11	1.362720e+00	-4.606706e+00
1.900000e-06	2.428861e-07	-7.442059e-12	1.688762e+00	-3.310290e+00
1.910000e-06	2.897859e-07	1.244202e-11	2.014852e+00	-2.001562e+00
1.920000e-06	3.365395e-07	3.135867e-11	2.339925e+00	-6.813772e-01
1.930000e-06	3.832620e-07	4.838775e-11	2.664782e+00	6.493699e-01
1.940000e-06	4.300088e-07	6.411848e-11	2.989808e+00	1.989745e+00
1.950000e-06	4.767157e-07	8.141494e-11	3.314556e+00	3.338781e+00
1.960000e-06	5.233571e-07	1.006101e-10	3.638849e+00	4.695474e+00
1.970000e-06	5.699538e-07	1.205664e-10	3.962831e+00	6.058794e+00
1.980000e-06	6.164359e-07	1.402925e-10	4.286017e+00	7.427684e+00
1.990000e-06	6.628187e-07	1.605083e-10	4.608512e+00	8.801064e+00
2.000000e-06	7.090931e-07	1.806405e-10	4.930253e+00	1.017783e+01
2.010000e-06	7.553673e-07	1.991930e-10	5.251993e+00	1.155688e+01
2.020000e-06	8.016640e-07	2.191893e-10	5.573889e+00	1.293707e+01
2.030000e-06	8.478496e-07	2.418651e-10	5.895013e+00	1.431727e+01
2.040000e-06	8.939888e-07	2.638878e-10	6.215814e+00	1.569634e+01
2.050000e-06	9.400937e-07	2.834995e-10	6.536377e+00	1.707314e+01
2.060000e-06	9.861456e-07	3.018389e-10	6.856571e+00	1.844654e+01
2.070000e-06	1.032149e-06	3.195726e-10	7.176428e+00	1.981540e+01
2.080000e-06	1.078081e-06	3.379862e-10	7.495787e+00	2.117861e+01
2.090000e-06	1.123952e-06	3.588459e-10	7.814727e+00	2.253506e+01
2.100000e-06	1.169806e-06	3.814692e-10	8.133544e+00	2.388368e+01
2.110000e-06	1.215553e-06	4.033570e-10	8.451620e+00	2.522340e+01
2.120000e-06	1.261146e-06	4.224979e-10	8.768618e+00	2.655318e+01
2.130000e-06	1.306677e-06	4.392751e-10	9.085192e+00	2.787204e+01
2.140000e-06	1.352074e-06	4.544666e-10	9.400838e+00	2.917899e+01
2.150000e-06	1.397379e-06	4.704873e-10	9.715839e+00	3.047310e+01
2.160000e-06	1.442666e-06	4.878666e-10	1.003071e+01	3.175350e+01
2.170000e-06	1.487824e-06	5.050872e-10	1.034469e+01	3.301931e+01
2.180000e-06	1.532861e-06	5.236258e-10	1.065783e+01	3.426975e+01
2.190000e-06	1.577747e-06	5.445679e-10	1.096992e+01	3.550405e+01
2.200000e-06	1.622520e-06	5.629268e-10	1.128122e+01	3.672151e+01
2.210000e-06	1.667207e-06	5.794120e-10	1.159192e+01	3.792147e+01
2.220000e-06	1.711803e-06	5.968689e-10	1.190200e+01	3.910334e+01
2.230000e-06	1.756212e-06	6.143148e-10	1.221077e+01	4.026656e+01
2.240000e-06	1.800433e-06	6.281273e-10	1.251823e+01	4.141065e+01
2.250000e-06	1.844601e-06	6.392456e-10	1.282532e+01	4.253517e+01
2.260000e-06	1.888682e-06	6.518521e-10	1.313182e+01	4.363974e+01
2.270000e-06	1.932682e-06	6.649280e-10	1.343775e+01	4.472404e+01
2.280000e-06	1.976565e-06	6.817407e-10	1.374286e+01	4.578780e+01
2.290000e-06	2.020365e-06	6.981177e-10	1.404739e+01	4.683082e+01
2.300000e-06	2.064107e-06	7.158029e-10	1.435153e+01	4.785294e+01
2.310000e-06	2.107759e-06	7.309081e-10	1.465504e+01	4.885406e+01
2.320000e-06	2.151342e-06	7.430224e-10	1.495806e+01	4.983413e+01
2.330000e-06	2.194882e-06	7.560499e-10	1.526079e+01	5.079316e+01
2.340000e-06	2.238288e-06	7.687458e-10	1.556259e+01	5.173120e+01
2.350000e-06	2.281487e-06	7.819262e-10	1.586295e+01	5.264834e+01
2.360000e-06	2.324447e-06	7.963456e-10	1.616164e+01	5.354474e+01
2.370000e-06	2.367165e-06	8.119706e-10	1.645866e+01	5.442057e+01
2.380000e-06	2.409558e-06	8.243403e-10	1.675341e+01	5.527607e+01
2.390000e-06	2.451657e-06	8.339866e-10	1.704612e+01	5.611149e+01
2.400000e-06	2.493478e-06	8.440532e-10	1.733690e+01	5.692714e+01
2.410000e-06	2.534930e-06	8.542461e-10	1.762511e+01	5.772333e+01
2.420000e-06	2.576147e-06	8.642689e-10	1.791169e+01	5.850043e+01
2.430000e-06	2.617035e-06	8.759427e-10	1.819598e+01	5.925881e+01
2.440000e-06	2.657689e-06	8.894069e-10	1.847864e+01	5.999887e+01
2.450000e-06	2.698189e-06	9.014338e-10	1.876024e+01	6.072103e+01
2.460000e-06	2.738416e-06	9.085442e-10	1.903993e+01	6.142571e+01
2.470000e-06	2.778440e-06	9.161524e-10	1.931821e+01	6.211337e+01
2.480000e-06	2.818308e-06	9.252927e-10	1.959541e+01	6.278445e+01
2.490000e-06	2.858099e-06	9.360311e-10	1.987208e+01	6.343941e+01
2.500000e-06	2.897806e-06	9.481255e-10	2.014816e+01	6.407871e+01
2.510000e-06	2.937423e-06	9.600198e-10	2.042360e+01	6.470280e+01
2.520000e-06	2.976878e-06	9.703511e-10	2.069793e+01	6.531214e+01
2.530000e-06	3.016104e-06	9.797632e-10	2.097067e+01	6.590717e+01
2.540000e-06	3.055064e-06	9.875381e-10	2.124155e+01	6.648835e+01
2.550000e-06	3.093741e-06	9.929367e-10	2.151047e+01	6.705609e+01
2.560000e-06	3.132173e-06	9.969099e-10	2.177769e+01	6.761081e+01
2.570000e-06	3.170483e-06	1.003696e-09	2.204405e+01	6.815293e+01
2.580000e-06	3.208616e-06	1.012243e-09	2.230919e+01	6.868282e+01
2.590000e-06	3.246438e-06	1.021219e-09	2.257216e+01	6.920085e+01
2.600000e-06	3.284116e-06	1.030684e-09	2.283413e+01	6.970739e+01
2.610000e-06	3.321566e-06	1.038207e-09	2.309451e+01	7.020277e+01
2.620000e-06	3.358809e-06	1.043194e-09	2.335346e+01	7.068730e+01
2.630000e-06	3.395855e-06	1.047764e-09	2.361104e+01	7.116129e+01
2.640000e-06	3.432551e-06	1.052829e-09	2.386618e+01	7.162500e+01
2.650000e-06	3.468926e-06	1.058438e-09	2.411909e+01	7.207870e+01
2.660000e-06	3.505042e-06	1.064753e-09	2.437021e+01	7.252263e+01
2.670000e-06	3.541041e-06	1.070219e-09	2.462050e+01	7.295700e+01
2.680000e-06	3.576930e-06	1.074305e-09	2.487004e+01	7.338203e+01
2.690000e-06	3.612668e-06	1.080463e-09	2.511852e+01	7.379789e+01
2.700000e-06	3.648268e-06	1.087868e-09	2.536604e+01	7.420475e+01
2.710000e-06	3.683671e-06	1.094691e-09	2.561219e+01	7.460278e+01
2.720000e-06	3.718802e-06	1.103152e-09	2.585645e+01	7.499210e+01
2.730000e-06	3.753739e-06	1.112073e-09	2.609937e+01	7.537286e+01
2.740000e-06	3.788466e-06	1.117992e-09	2.634082e+01	7.574516e+01
2.750000e-06	3.822778e-06	1.119163e-09	2.657939e+01	7.610912e+01
2.760000e-06	3.856528e-06	1.120002e-09	2.681405e+01	7.646484e+01
2.770000e-06	3.889640e-06	1.122204e-09	2.704427e+01	7.681240e+01
2.780000e-06	3.922229e-06	1.126822e-09	2.727086e+01	7.715189e+01
2.790000e-06	3.954523e-06	1.133347e-09	2.749540e+01	7.748341e+01
2.800000e-06	3.986638e-06	1.141652e-09	2.771870e+01	7.780703e+01
2.810000e-06	4.018538e-06	1.149109e-09	2.794049e+01	7.812284e+01
2.820000e-06	4.050273e-06	1.154670e-09	2.816114e+01	7.843091e+01
2.830000e-06	4.081925e-06	1.158725e-09	2.838122e+01	7.873133e+01
2.840000e-06	4.113368e-06	1.163068e-09	2.859984e+01	7.902419e+01
2.850000e-06	4.144483e-06	1.168326e-09	2.881617e+01	7.930957e+01
2.860000e-06	4.175346e-06	1.172775e-09	2.903076e+01	7.958757e+01
2.870000e-06	4.205917e-06	1.175063e-09	2.924332e+01	7.985829e+01
2.880000e-06	4.236095e-06	1.176410e-09	2.945314e+01	8.012183e+01
2.890000e-06	4.265959e-06	1.177988e-09	2.966078e+01	8.037830e+01
2.900000e-06	4.295549e-06	1.181764e-09	2.986652e+01	8.062783e+01
