# Temperatura_=_-0.7
# Concentracion g/m^3_=_1620.0
# C_Vs_to_Am_M_A/Vsm_=_65563218390.804596
# pendiente_HvsI_1/m_=_3716.3
# ordenada_HvsI_A/m_=_1297.0
# frecuencia_Hz_=_135099.3986831438

Tiempo_(s)	Campo_(V.s)	Magnetizacion_(V.s)	Campo_(kA/m)	Magnetizacion_(A/m)
0.000000e+00	-5.512268e-06	-1.230283e-09	-3.837297e+01	-8.304848e+01
1.000000e-08	-5.512561e-06	-1.226363e-09	-3.837501e+01	-8.300200e+01
2.000000e-08	-5.512646e-06	-1.222290e-09	-3.837560e+01	-8.295521e+01
3.000000e-08	-5.512454e-06	-1.220637e-09	-3.837427e+01	-8.290788e+01
4.000000e-08	-5.511803e-06	-1.218292e-09	-3.836974e+01	-8.285973e+01
5.000000e-08	-5.510590e-06	-1.209867e-09	-3.836129e+01	-8.281049e+01
6.000000e-08	-5.508823e-06	-1.199241e-09	-3.834899e+01	-8.275984e+01
7.000000e-08	-5.506503e-06	-1.214546e-09	-3.833284e+01	-8.270751e+01
8.000000e-08	-5.503523e-06	-1.249919e-09	-3.831210e+01	-8.265318e+01
9.000000e-08	-5.500009e-06	-1.268616e-09	-3.828764e+01	-8.259655e+01
1.000000e-07	-5.496079e-06	-1.266539e-09	-3.826028e+01	-8.253732e+01
1.100000e-07	-5.491800e-06	-1.236219e-09	-3.823049e+01	-8.247519e+01
1.200000e-07	-5.487330e-06	-1.188977e-09	-3.819937e+01	-8.240989e+01
1.300000e-07	-5.482698e-06	-1.187412e-09	-3.816713e+01	-8.234114e+01
1.400000e-07	-5.477722e-06	-1.209193e-09	-3.813249e+01	-8.226869e+01
1.500000e-07	-5.472317e-06	-1.236293e-09	-3.809486e+01	-8.219231e+01
1.600000e-07	-5.466537e-06	-1.207089e-09	-3.805462e+01	-8.211177e+01
1.700000e-07	-5.460323e-06	-1.218051e-09	-3.801137e+01	-8.202689e+01
1.800000e-07	-5.453628e-06	-1.256817e-09	-3.796476e+01	-8.193751e+01
1.900000e-07	-5.446569e-06	-1.257763e-09	-3.791562e+01	-8.184348e+01
2.000000e-07	-5.439263e-06	-1.206216e-09	-3.786476e+01	-8.174469e+01
2.100000e-07	-5.431672e-06	-1.196415e-09	-3.781192e+01	-8.164106e+01
2.200000e-07	-5.423826e-06	-1.257889e-09	-3.775730e+01	-8.153254e+01
2.300000e-07	-5.415648e-06	-1.285558e-09	-3.770037e+01	-8.141911e+01
2.400000e-07	-5.407064e-06	-1.257714e-09	-3.764061e+01	-8.130077e+01
2.500000e-07	-5.398020e-06	-1.233450e-09	-3.757765e+01	-8.117757e+01
2.600000e-07	-5.388280e-06	-1.245886e-09	-3.750985e+01	-8.104956e+01
2.700000e-07	-5.377864e-06	-1.225991e-09	-3.743734e+01	-8.091683e+01
2.800000e-07	-5.366963e-06	-1.205620e-09	-3.736145e+01	-8.077952e+01
2.900000e-07	-5.355578e-06	-1.214951e-09	-3.728220e+01	-8.063775e+01
3.000000e-07	-5.343795e-06	-1.241887e-09	-3.720017e+01	-8.049169e+01
3.100000e-07	-5.331652e-06	-1.219159e-09	-3.711564e+01	-8.034152e+01
3.200000e-07	-5.319048e-06	-1.211667e-09	-3.702789e+01	-8.018744e+01
3.300000e-07	-5.306022e-06	-1.221762e-09	-3.693722e+01	-8.002966e+01
3.400000e-07	-5.292662e-06	-1.222267e-09	-3.684421e+01	-7.986841e+01
3.500000e-07	-5.278939e-06	-1.201011e-09	-3.674869e+01	-7.970393e+01
3.600000e-07	-5.264834e-06	-1.203968e-09	-3.665050e+01	-7.953643e+01
3.700000e-07	-5.250270e-06	-1.209591e-09	-3.654911e+01	-7.936618e+01
3.800000e-07	-5.235214e-06	-1.214275e-09	-3.644430e+01	-7.919340e+01
3.900000e-07	-5.219560e-06	-1.214627e-09	-3.633532e+01	-7.901832e+01
4.000000e-07	-5.203366e-06	-1.202685e-09	-3.622259e+01	-7.884119e+01
4.100000e-07	-5.186824e-06	-1.186959e-09	-3.610744e+01	-7.866220e+01
4.200000e-07	-5.169878e-06	-1.195873e-09	-3.598947e+01	-7.848158e+01
4.300000e-07	-5.152668e-06	-1.198330e-09	-3.586966e+01	-7.829951e+01
4.400000e-07	-5.135252e-06	-1.185057e-09	-3.574842e+01	-7.811616e+01
4.500000e-07	-5.117461e-06	-1.198612e-09	-3.562458e+01	-7.793168e+01
4.600000e-07	-5.099209e-06	-1.210447e-09	-3.549752e+01	-7.774621e+01
4.700000e-07	-5.080511e-06	-1.182319e-09	-3.536735e+01	-7.755985e+01
4.800000e-07	-5.061464e-06	-1.172617e-09	-3.523476e+01	-7.737270e+01
4.900000e-07	-5.042125e-06	-1.200636e-09	-3.510013e+01	-7.718482e+01
5.000000e-07	-5.022546e-06	-1.185556e-09	-3.496384e+01	-7.699623e+01
5.100000e-07	-5.002785e-06	-1.155156e-09	-3.482627e+01	-7.680695e+01
5.200000e-07	-4.982759e-06	-1.168420e-09	-3.468687e+01	-7.661697e+01
5.300000e-07	-4.962363e-06	-1.183119e-09	-3.454488e+01	-7.642624e+01
5.400000e-07	-4.941608e-06	-1.164335e-09	-3.440040e+01	-7.623471e+01
5.500000e-07	-4.920559e-06	-1.167857e-09	-3.425387e+01	-7.604228e+01
5.600000e-07	-4.899097e-06	-1.168494e-09	-3.410446e+01	-7.584885e+01
5.700000e-07	-4.877322e-06	-1.145087e-09	-3.395287e+01	-7.565429e+01
5.800000e-07	-4.855277e-06	-1.142978e-09	-3.379941e+01	-7.545846e+01
5.900000e-07	-4.832811e-06	-1.163983e-09	-3.364302e+01	-7.526118e+01
6.000000e-07	-4.809949e-06	-1.149735e-09	-3.348387e+01	-7.506229e+01
6.100000e-07	-4.786779e-06	-1.136370e-09	-3.332257e+01	-7.486159e+01
6.200000e-07	-4.763390e-06	-1.142894e-09	-3.315975e+01	-7.465889e+01
6.300000e-07	-4.739762e-06	-1.135133e-09	-3.299527e+01	-7.445399e+01
6.400000e-07	-4.715844e-06	-1.116290e-09	-3.282877e+01	-7.424668e+01
6.500000e-07	-4.691583e-06	-1.122827e-09	-3.265988e+01	-7.403676e+01
6.600000e-07	-4.666962e-06	-1.124129e-09	-3.248848e+01	-7.382401e+01
6.700000e-07	-4.641982e-06	-1.113569e-09	-3.231458e+01	-7.360825e+01
6.800000e-07	-4.616471e-06	-1.114254e-09	-3.213700e+01	-7.338927e+01
6.900000e-07	-4.590317e-06	-1.118009e-09	-3.195492e+01	-7.316689e+01
7.000000e-07	-4.563640e-06	-1.106887e-09	-3.176922e+01	-7.294094e+01
7.100000e-07	-4.536593e-06	-1.096900e-09	-3.158093e+01	-7.271127e+01
7.200000e-07	-4.509309e-06	-1.092406e-09	-3.139100e+01	-7.247773e+01
7.300000e-07	-4.481784e-06	-1.086981e-09	-3.119939e+01	-7.224020e+01
7.400000e-07	-4.454029e-06	-1.084172e-09	-3.100617e+01	-7.199858e+01
7.500000e-07	-4.426047e-06	-1.083497e-09	-3.081138e+01	-7.175277e+01
7.600000e-07	-4.397863e-06	-1.081070e-09	-3.061518e+01	-7.150272e+01
7.700000e-07	-4.369440e-06	-1.077559e-09	-3.041732e+01	-7.124839e+01
7.800000e-07	-4.340572e-06	-1.072583e-09	-3.021636e+01	-7.098974e+01
7.900000e-07	-4.311301e-06	-1.066113e-09	-3.001259e+01	-7.072680e+01
8.000000e-07	-4.281736e-06	-1.063983e-09	-2.980678e+01	-7.045956e+01
8.100000e-07	-4.251942e-06	-1.057456e-09	-2.959937e+01	-7.018809e+01
8.200000e-07	-4.221934e-06	-1.051537e-09	-2.939047e+01	-6.991243e+01
8.300000e-07	-4.191625e-06	-1.047953e-09	-2.917948e+01	-6.963268e+01
8.400000e-07	-4.161043e-06	-1.044347e-09	-2.896659e+01	-6.934892e+01
8.500000e-07	-4.130213e-06	-1.036131e-09	-2.875197e+01	-6.906127e+01
8.600000e-07	-4.099019e-06	-1.028893e-09	-2.853482e+01	-6.876985e+01
8.700000e-07	-4.067578e-06	-1.023969e-09	-2.831594e+01	-6.847479e+01
8.800000e-07	-4.036049e-06	-1.019205e-09	-2.809646e+01	-6.817624e+01
8.900000e-07	-4.004370e-06	-1.017154e-09	-2.787593e+01	-6.787434e+01
9.000000e-07	-3.972495e-06	-1.015293e-09	-2.765403e+01	-6.756925e+01
9.100000e-07	-3.940369e-06	-1.005871e-09	-2.743039e+01	-6.726111e+01
9.200000e-07	-3.907860e-06	-9.989990e-10	-2.720409e+01	-6.695008e+01
9.300000e-07	-3.874967e-06	-9.933875e-10	-2.697511e+01	-6.663629e+01
9.400000e-07	-3.841666e-06	-9.889938e-10	-2.674328e+01	-6.631989e+01
9.500000e-07	-3.807842e-06	-9.842852e-10	-2.650783e+01	-6.600099e+01
9.600000e-07	-3.773637e-06	-9.809025e-10	-2.626971e+01	-6.567972e+01
9.700000e-07	-3.739055e-06	-9.720982e-10	-2.602897e+01	-6.535616e+01
9.800000e-07	-3.704057e-06	-9.639091e-10	-2.578533e+01	-6.503040e+01
9.900000e-07	-3.668757e-06	-9.615063e-10	-2.553960e+01	-6.470251e+01
1.000000e-06	-3.633275e-06	-9.576760e-10	-2.529260e+01	-6.437251e+01
1.010000e-06	-3.597656e-06	-9.502891e-10	-2.504464e+01	-6.404044e+01
1.020000e-06	-3.561879e-06	-9.457344e-10	-2.479558e+01	-6.370628e+01
1.030000e-06	-3.525881e-06	-9.421394e-10	-2.454498e+01	-6.337000e+01
1.040000e-06	-3.489727e-06	-9.367059e-10	-2.429330e+01	-6.303156e+01
1.050000e-06	-3.453462e-06	-9.310914e-10	-2.404085e+01	-6.269088e+01
1.060000e-06	-3.416962e-06	-9.264531e-10	-2.378676e+01	-6.234785e+01
1.070000e-06	-3.380119e-06	-9.194353e-10	-2.353028e+01	-6.200234e+01
1.080000e-06	-3.342924e-06	-9.115138e-10	-2.327135e+01	-6.165421e+01
1.090000e-06	-3.305456e-06	-9.051103e-10	-2.301052e+01	-6.130327e+01
1.100000e-06	-3.267792e-06	-8.971398e-10	-2.274833e+01	-6.094934e+01
1.110000e-06	-3.229928e-06	-8.909451e-10	-2.248475e+01	-6.059219e+01
1.120000e-06	-3.191841e-06	-8.858595e-10	-2.221961e+01	-6.023160e+01
1.130000e-06	-3.153537e-06	-8.795122e-10	-2.195296e+01	-5.986732e+01
1.140000e-06	-3.114993e-06	-8.708591e-10	-2.168464e+01	-5.949907e+01
1.150000e-06	-3.076215e-06	-8.626901e-10	-2.141469e+01	-5.912659e+01
1.160000e-06	-3.037326e-06	-8.534615e-10	-2.114397e+01	-5.874958e+01
1.170000e-06	-2.998346e-06	-8.457550e-10	-2.087262e+01	-5.836776e+01
1.180000e-06	-2.959074e-06	-8.407540e-10	-2.059923e+01	-5.798083e+01
1.190000e-06	-2.919563e-06	-8.381698e-10	-2.032418e+01	-5.758850e+01
1.200000e-06	-2.879963e-06	-8.320290e-10	-2.004851e+01	-5.719046e+01
1.210000e-06	-2.840216e-06	-8.250107e-10	-1.977181e+01	-5.678643e+01
1.220000e-06	-2.800340e-06	-8.180699e-10	-1.949422e+01	-5.637611e+01
1.230000e-06	-2.760389e-06	-8.098189e-10	-1.921611e+01	-5.595924e+01
1.240000e-06	-2.720249e-06	-8.016893e-10	-1.893668e+01	-5.553554e+01
1.250000e-06	-2.679906e-06	-7.944124e-10	-1.865583e+01	-5.510477e+01
1.260000e-06	-2.639398e-06	-7.861762e-10	-1.837384e+01	-5.466667e+01
1.270000e-06	-2.598606e-06	-7.761833e-10	-1.808988e+01	-5.422104e+01
1.280000e-06	-2.557541e-06	-7.674850e-10	-1.780401e+01	-5.376766e+01
1.290000e-06	-2.516224e-06	-7.629582e-10	-1.751638e+01	-5.330634e+01
1.300000e-06	-2.474546e-06	-7.567413e-10	-1.722625e+01	-5.283692e+01
1.310000e-06	-2.432540e-06	-7.481840e-10	-1.693383e+01	-5.235925e+01
1.320000e-06	-2.390271e-06	-7.391175e-10	-1.663958e+01	-5.187319e+01
1.330000e-06	-2.347791e-06	-7.304270e-10	-1.634386e+01	-5.137863e+01
1.340000e-06	-2.305043e-06	-7.200379e-10	-1.604627e+01	-5.087549e+01
1.350000e-06	-2.261914e-06	-7.096573e-10	-1.574604e+01	-5.036367e+01
1.360000e-06	-2.218501e-06	-7.018003e-10	-1.544382e+01	-4.984312e+01
1.370000e-06	-2.175015e-06	-6.951809e-10	-1.514110e+01	-4.931378e+01
1.380000e-06	-2.131507e-06	-6.898546e-10	-1.483822e+01	-4.877563e+01
1.390000e-06	-2.087927e-06	-6.837297e-10	-1.453484e+01	-4.822863e+01
1.400000e-06	-2.044269e-06	-6.761907e-10	-1.423093e+01	-4.767275e+01
1.410000e-06	-2.000517e-06	-6.669391e-10	-1.392635e+01	-4.710799e+01
1.420000e-06	-1.956663e-06	-6.577294e-10	-1.362107e+01	-4.653432e+01
1.430000e-06	-1.912745e-06	-6.493208e-10	-1.331534e+01	-4.595173e+01
1.440000e-06	-1.868737e-06	-6.401341e-10	-1.300898e+01	-4.536019e+01
1.450000e-06	-1.824579e-06	-6.314000e-10	-1.270158e+01	-4.475967e+01
1.460000e-06	-1.780303e-06	-6.241996e-10	-1.239336e+01	-4.415013e+01
1.470000e-06	-1.735957e-06	-6.160052e-10	-1.208465e+01	-4.353151e+01
1.480000e-06	-1.691524e-06	-6.066876e-10	-1.177533e+01	-4.290373e+01
1.490000e-06	-1.646940e-06	-5.965975e-10	-1.146497e+01	-4.226670e+01
1.500000e-06	-1.602166e-06	-5.875759e-10	-1.115328e+01	-4.162031e+01
1.510000e-06	-1.557242e-06	-5.790800e-10	-1.084055e+01	-4.096440e+01
1.520000e-06	-1.512203e-06	-5.726215e-10	-1.052701e+01	-4.029881e+01
1.530000e-06	-1.467033e-06	-5.664924e-10	-1.021257e+01	-3.962334e+01
1.540000e-06	-1.421769e-06	-5.579029e-10	-9.897467e+00	-3.893776e+01
1.550000e-06	-1.376422e-06	-5.442367e-10	-9.581793e+00	-3.824181e+01
1.560000e-06	-1.330979e-06	-5.291086e-10	-9.265443e+00	-3.753518e+01
1.570000e-06	-1.285462e-06	-5.155293e-10	-8.948582e+00	-3.681757e+01
1.580000e-06	-1.239834e-06	-5.029458e-10	-8.630953e+00	-3.608860e+01
1.590000e-06	-1.194131e-06	-4.936831e-10	-8.312794e+00	-3.534788e+01
1.600000e-06	-1.148426e-06	-4.871293e-10	-7.994627e+00	-3.459500e+01
1.610000e-06	-1.102684e-06	-4.755323e-10	-7.676198e+00	-3.382950e+01
1.620000e-06	-1.056849e-06	-4.599763e-10	-7.357123e+00	-3.305091e+01
1.630000e-06	-1.010816e-06	-4.484046e-10	-7.036672e+00	-3.225874e+01
1.640000e-06	-9.647185e-07	-4.395456e-10	-6.715769e+00	-3.145245e+01
1.650000e-06	-9.186098e-07	-4.276411e-10	-6.394789e+00	-3.063152e+01
1.660000e-06	-8.724088e-07	-4.136174e-10	-6.073166e+00	-2.979540e+01
1.670000e-06	-8.262273e-07	-4.005241e-10	-5.751679e+00	-2.894353e+01
1.680000e-06	-7.799506e-07	-3.856840e-10	-5.429530e+00	-2.807536e+01
1.690000e-06	-7.335585e-07	-3.710644e-10	-5.106577e+00	-2.719032e+01
1.700000e-06	-6.872298e-07	-3.585173e-10	-4.784065e+00	-2.628787e+01
1.710000e-06	-6.409036e-07	-3.454272e-10	-4.461571e+00	-2.536748e+01
1.720000e-06	-5.944415e-07	-3.319170e-10	-4.138131e+00	-2.442862e+01
1.730000e-06	-5.479364e-07	-3.161391e-10	-3.814392e+00	-2.347082e+01
1.740000e-06	-5.014271e-07	-2.959299e-10	-3.490623e+00	-2.249360e+01
1.750000e-06	-4.547882e-07	-2.757358e-10	-3.165952e+00	-2.149656e+01
1.760000e-06	-4.081164e-07	-2.585757e-10	-2.841052e+00	-2.047932e+01
1.770000e-06	-3.614407e-07	-2.437197e-10	-2.516125e+00	-1.944155e+01
1.780000e-06	-3.147260e-07	-2.316325e-10	-2.190926e+00	-1.838299e+01
1.790000e-06	-2.680090e-07	-2.224944e-10	-1.865712e+00	-1.730342e+01
1.800000e-06	-2.212036e-07	-2.108922e-10	-1.539882e+00	-1.620271e+01
1.810000e-06	-1.743509e-07	-1.945643e-10	-1.213722e+00	-1.508078e+01
1.820000e-06	-1.275474e-07	-1.770960e-10	-8.879057e-01	-1.393764e+01
1.830000e-06	-8.077678e-08	-1.600851e-10	-5.623176e-01	-1.277339e+01
1.840000e-06	-3.398382e-08	-1.432267e-10	-2.365742e-01	-1.158819e+01
1.850000e-06	1.281559e-08	-1.271584e-10	8.921415e-02	-1.038230e+01
1.860000e-06	5.957333e-08	-1.132886e-10	4.147124e-01	-9.156056e+00
1.870000e-06	1.063590e-07	-9.918926e-11	7.404051e-01	-7.909907e+00
1.880000e-06	1.531895e-07	-8.177831e-11	1.066410e+00	-6.644377e+00
1.890000e-06	1.999779e-07	-6.075278e-11	1.392121e+00	-5.360084e+00
1.900000e-06	2.467298e-07	-3.768990e-11	1.717579e+00	-4.057740e+00
1.910000e-06	2.933921e-07	-1.647523e-11	2.042413e+00	-2.738145e+00
1.920000e-06	3.400626e-07	2.399974e-12	2.367304e+00	-1.402189e+00
1.930000e-06	3.868335e-07	1.873358e-11	2.692894e+00	-5.084590e-02
1.940000e-06	4.335786e-07	3.433572e-11	3.018304e+00	1.314826e+00
1.950000e-06	4.802706e-07	5.150449e-11	3.343345e+00	2.693692e+00
1.960000e-06	5.268257e-07	7.007295e-11	3.667433e+00	4.084542e+00
1.970000e-06	5.733303e-07	8.978184e-11	3.991168e+00	5.486097e+00
1.980000e-06	6.197875e-07	1.089231e-10	4.314574e+00	6.897017e+00
1.990000e-06	6.660934e-07	1.278744e-10	4.636927e+00	8.315904e+00
2.000000e-06	7.123549e-07	1.481210e-10	4.958971e+00	9.741311e+00
2.010000e-06	7.586284e-07	1.672071e-10	5.281098e+00	1.117175e+01
2.020000e-06	8.048710e-07	1.875918e-10	5.603010e+00	1.260569e+01
2.030000e-06	8.510938e-07	2.112109e-10	5.924784e+00	1.404159e+01
2.040000e-06	8.972557e-07	2.348764e-10	6.246135e+00	1.547787e+01
2.050000e-06	9.432926e-07	2.565488e-10	6.566615e+00	1.691296e+01
2.060000e-06	9.892908e-07	2.746638e-10	6.886826e+00	1.834527e+01
2.070000e-06	1.035184e-06	2.928914e-10	7.206307e+00	1.977323e+01
2.080000e-06	1.080988e-06	3.108187e-10	7.525162e+00	2.119528e+01
2.090000e-06	1.126804e-06	3.296667e-10	7.844107e+00	2.260988e+01
2.100000e-06	1.172538e-06	3.509383e-10	8.162479e+00	2.401552e+01
2.110000e-06	1.218106e-06	3.721847e-10	8.479698e+00	2.541074e+01
2.120000e-06	1.263587e-06	3.912866e-10	8.796304e+00	2.679413e+01
2.130000e-06	1.309035e-06	4.099593e-10	9.112687e+00	2.816431e+01
2.140000e-06	1.354416e-06	4.303980e-10	9.428601e+00	2.951999e+01
2.150000e-06	1.399766e-06	4.500968e-10	9.744297e+00	3.085992e+01
2.160000e-06	1.445021e-06	4.679799e-10	1.005934e+01	3.218294e+01
2.170000e-06	1.490084e-06	4.847768e-10	1.037304e+01	3.348797e+01
2.180000e-06	1.534981e-06	5.019697e-10	1.068558e+01	3.477400e+01
2.190000e-06	1.579735e-06	5.201959e-10	1.099713e+01	3.604011e+01
2.200000e-06	1.624384e-06	5.392828e-10	1.130795e+01	3.728548e+01
2.210000e-06	1.668913e-06	5.581151e-10	1.161793e+01	3.850936e+01
2.220000e-06	1.713300e-06	5.737282e-10	1.192693e+01	3.971110e+01
2.230000e-06	1.757606e-06	5.876474e-10	1.223536e+01	4.089017e+01
2.240000e-06	1.801763e-06	6.004914e-10	1.254275e+01	4.204609e+01
2.250000e-06	1.845832e-06	6.129676e-10	1.284953e+01	4.317851e+01
2.260000e-06	1.889879e-06	6.291412e-10	1.315616e+01	4.428715e+01
2.270000e-06	1.933805e-06	6.447429e-10	1.346195e+01	4.537182e+01
2.280000e-06	1.977625e-06	6.659269e-10	1.376699e+01	4.643244e+01
2.290000e-06	2.021394e-06	6.846565e-10	1.407169e+01	4.746898e+01
2.300000e-06	2.065152e-06	6.979190e-10	1.437630e+01	4.848153e+01
2.310000e-06	2.108858e-06	7.081901e-10	1.468055e+01	4.947022e+01
2.320000e-06	2.152470e-06	7.186818e-10	1.498415e+01	5.043527e+01
2.330000e-06	2.195998e-06	7.334889e-10	1.528717e+01	5.137697e+01
2.340000e-06	2.239369e-06	7.492819e-10	1.558909e+01	5.229565e+01
2.350000e-06	2.282593e-06	7.672268e-10	1.588999e+01	5.319172e+01
2.360000e-06	2.325635e-06	7.855196e-10	1.618962e+01	5.406562e+01
2.370000e-06	2.368399e-06	8.005530e-10	1.648732e+01	5.491784e+01
2.380000e-06	2.410890e-06	8.085073e-10	1.678311e+01	5.574890e+01
2.390000e-06	2.453043e-06	8.161811e-10	1.707656e+01	5.655936e+01
2.400000e-06	2.494758e-06	8.257315e-10	1.736695e+01	5.734979e+01
2.410000e-06	2.536109e-06	8.335085e-10	1.765481e+01	5.812080e+01
2.420000e-06	2.577266e-06	8.420690e-10	1.794132e+01	5.887298e+01
2.430000e-06	2.618152e-06	8.534170e-10	1.822594e+01	5.960694e+01
2.440000e-06	2.658732e-06	8.664894e-10	1.850843e+01	6.032329e+01
2.450000e-06	2.699116e-06	8.785703e-10	1.878956e+01	6.102264e+01
2.460000e-06	2.739269e-06	8.885531e-10	1.906909e+01	6.170557e+01
2.470000e-06	2.779234e-06	9.005765e-10	1.934730e+01	6.237266e+01
2.480000e-06	2.819126e-06	9.114573e-10	1.962500e+01	6.302446e+01
2.490000e-06	2.858897e-06	9.223730e-10	1.990186e+01	6.366150e+01
2.500000e-06	2.898502e-06	9.308624e-10	2.017756e+01	6.428429e+01
2.510000e-06	2.937992e-06	9.371224e-10	2.045247e+01	6.489330e+01
2.520000e-06	2.977317e-06	9.453073e-10	2.072622e+01	6.548898e+01
2.530000e-06	3.016422e-06	9.572074e-10	2.099845e+01	6.607172e+01
2.540000e-06	3.055296e-06	9.688513e-10	2.126907e+01	6.664190e+01
2.550000e-06	3.093953e-06	9.776563e-10	2.153817e+01	6.719986e+01
2.560000e-06	3.132383e-06	9.848413e-10	2.180570e+01	6.774589e+01
2.570000e-06	3.170619e-06	9.902663e-10	2.207187e+01	6.828028e+01
2.580000e-06	3.208683e-06	9.946988e-10	2.233685e+01	6.880324e+01
2.590000e-06	3.246521e-06	1.000023e-09	2.260026e+01	6.931498e+01
2.600000e-06	3.284176e-06	1.007589e-09	2.286239e+01	6.981566e+01
2.610000e-06	3.321570e-06	1.017666e-09	2.312270e+01	7.030543e+01
2.620000e-06	3.358704e-06	1.024823e-09	2.338120e+01	7.078439e+01
2.630000e-06	3.395675e-06	1.028150e-09	2.363857e+01	7.125263e+01
2.640000e-06	3.432414e-06	1.032684e-09	2.389432e+01	7.171021e+01
2.650000e-06	3.468838e-06	1.039113e-09	2.414789e+01	7.215720e+01
2.660000e-06	3.504972e-06	1.046838e-09	2.439943e+01	7.259361e+01
2.670000e-06	3.540927e-06	1.053234e-09	2.464973e+01	7.301948e+01
2.680000e-06	3.576737e-06	1.059267e-09	2.489901e+01	7.343481e+01
2.690000e-06	3.612433e-06	1.066254e-09	2.514750e+01	7.383962e+01
2.700000e-06	3.648021e-06	1.072676e-09	2.539525e+01	7.423391e+01
2.710000e-06	3.683432e-06	1.077113e-09	2.564176e+01	7.461771e+01
2.720000e-06	3.718628e-06	1.080790e-09	2.588677e+01	7.499102e+01
2.730000e-06	3.753513e-06	1.084011e-09	2.612962e+01	7.535387e+01
2.740000e-06	3.787902e-06	1.087787e-09	2.636901e+01	7.570629e+01
2.750000e-06	3.821824e-06	1.091840e-09	2.660516e+01	7.604835e+01
2.760000e-06	3.855338e-06	1.095473e-09	2.683846e+01	7.638010e+01
2.770000e-06	3.888327e-06	1.097733e-09	2.706811e+01	7.670163e+01
2.780000e-06	3.920894e-06	1.101504e-09	2.729482e+01	7.701304e+01
2.790000e-06	3.953195e-06	1.105475e-09	2.751968e+01	7.731446e+01
2.800000e-06	3.985212e-06	1.110918e-09	2.774256e+01	7.760602e+01
2.810000e-06	4.017007e-06	1.114949e-09	2.796390e+01	7.788791e+01
2.820000e-06	4.048685e-06	1.116387e-09	2.818442e+01	7.816030e+01
2.830000e-06	4.080227e-06	1.118893e-09	2.840400e+01	7.842340e+01
2.840000e-06	4.111556e-06	1.123102e-09	2.862209e+01	7.867745e+01
2.850000e-06	4.142606e-06	1.130138e-09	2.883824e+01	7.892270e+01
2.860000e-06	4.173296e-06	1.137557e-09	2.905188e+01	7.915941e+01
2.870000e-06	4.203604e-06	1.143286e-09	2.926287e+01	7.938787e+01
2.880000e-06	4.233680e-06	1.146764e-09	2.947224e+01	7.960838e+01
2.890000e-06	4.263545e-06	1.149080e-09	2.968015e+01	7.982124e+01
2.900000e-06	4.293132e-06	1.152728e-09	2.988611e+01	8.002679e+01
