# Temperatura_=_5.86
# Concentracion g/m^3_=_1620.0
# C_Vs_to_Am_M_A/Vsm_=_65563218390.804596
# pendiente_HvsI_1/m_=_3716.3
# ordenada_HvsI_A/m_=_1297.0
# frecuencia_Hz_=_135094.11019278038

Tiempo_(s)	Campo_(V.s)	Magnetizacion_(V.s)	Campo_(kA/m)	Magnetizacion_(A/m)
0.000000e+00	-5.509640e-06	-1.306409e-09	-3.837824e+01	-8.627481e+01
1.000000e-08	-5.509757e-06	-1.306753e-09	-3.837906e+01	-8.623977e+01
2.000000e-08	-5.509589e-06	-1.307611e-09	-3.837789e+01	-8.620603e+01
3.000000e-08	-5.509068e-06	-1.305579e-09	-3.837426e+01	-8.617357e+01
4.000000e-08	-5.508084e-06	-1.297411e-09	-3.836740e+01	-8.614233e+01
5.000000e-08	-5.506507e-06	-1.280933e-09	-3.835642e+01	-8.611220e+01
6.000000e-08	-5.504314e-06	-1.274971e-09	-3.834115e+01	-8.608305e+01
7.000000e-08	-5.501477e-06	-1.313780e-09	-3.832139e+01	-8.605473e+01
8.000000e-08	-5.498083e-06	-1.350346e-09	-3.829775e+01	-8.602705e+01
9.000000e-08	-5.494296e-06	-1.343328e-09	-3.827137e+01	-8.599979e+01
1.000000e-07	-5.490163e-06	-1.333815e-09	-3.824257e+01	-8.597272e+01
1.100000e-07	-5.485830e-06	-1.349081e-09	-3.821239e+01	-8.594555e+01
1.200000e-07	-5.481281e-06	-1.281108e-09	-3.818071e+01	-8.591802e+01
1.300000e-07	-5.476407e-06	-1.260801e-09	-3.814676e+01	-8.588981e+01
1.400000e-07	-5.471187e-06	-1.277039e-09	-3.811039e+01	-8.586061e+01
1.500000e-07	-5.465583e-06	-1.335359e-09	-3.807136e+01	-8.583007e+01
1.600000e-07	-5.459557e-06	-1.299705e-09	-3.802938e+01	-8.579785e+01
1.700000e-07	-5.453120e-06	-1.275904e-09	-3.798455e+01	-8.576360e+01
1.800000e-07	-5.446293e-06	-1.337629e-09	-3.793699e+01	-8.572695e+01
1.900000e-07	-5.439098e-06	-1.348728e-09	-3.788687e+01	-8.568754e+01
2.000000e-07	-5.431543e-06	-1.300073e-09	-3.783425e+01	-8.564501e+01
2.100000e-07	-5.423720e-06	-1.258275e-09	-3.777976e+01	-8.559899e+01
2.200000e-07	-5.415746e-06	-1.323223e-09	-3.772421e+01	-8.554914e+01
2.300000e-07	-5.407446e-06	-1.342134e-09	-3.766640e+01	-8.549510e+01
2.400000e-07	-5.398550e-06	-1.345939e-09	-3.760443e+01	-8.543653e+01
2.500000e-07	-5.388908e-06	-1.311114e-09	-3.753726e+01	-8.537311e+01
2.600000e-07	-5.378614e-06	-1.319872e-09	-3.746556e+01	-8.530454e+01
2.700000e-07	-5.367742e-06	-1.303529e-09	-3.738983e+01	-8.523051e+01
2.800000e-07	-5.356479e-06	-1.316546e-09	-3.731138e+01	-8.515075e+01
2.900000e-07	-5.344920e-06	-1.306723e-09	-3.723086e+01	-8.506501e+01
3.000000e-07	-5.332871e-06	-1.308527e-09	-3.714693e+01	-8.497306e+01
3.100000e-07	-5.320431e-06	-1.307724e-09	-3.706028e+01	-8.487467e+01
3.200000e-07	-5.307622e-06	-1.326980e-09	-3.697105e+01	-8.476968e+01
3.300000e-07	-5.294418e-06	-1.308313e-09	-3.687908e+01	-8.465790e+01
3.400000e-07	-5.280897e-06	-1.296528e-09	-3.678490e+01	-8.453921e+01
3.500000e-07	-5.266976e-06	-1.319150e-09	-3.668793e+01	-8.441350e+01
3.600000e-07	-5.252654e-06	-1.307172e-09	-3.658817e+01	-8.428067e+01
3.700000e-07	-5.237828e-06	-1.261410e-09	-3.648489e+01	-8.414066e+01
3.800000e-07	-5.222428e-06	-1.283844e-09	-3.637762e+01	-8.399343e+01
3.900000e-07	-5.206516e-06	-1.324483e-09	-3.626679e+01	-8.383897e+01
4.000000e-07	-5.190172e-06	-1.268725e-09	-3.615294e+01	-8.367728e+01
4.100000e-07	-5.173425e-06	-1.257614e-09	-3.603628e+01	-8.350841e+01
4.200000e-07	-5.156332e-06	-1.316241e-09	-3.591723e+01	-8.333239e+01
4.300000e-07	-5.139090e-06	-1.293379e-09	-3.579712e+01	-8.314931e+01
4.400000e-07	-5.121481e-06	-1.221536e-09	-3.567446e+01	-8.295924e+01
4.500000e-07	-5.103433e-06	-1.288677e-09	-3.554875e+01	-8.276231e+01
4.600000e-07	-5.085061e-06	-1.309038e-09	-3.542078e+01	-8.255863e+01
4.700000e-07	-5.066255e-06	-1.227271e-09	-3.528978e+01	-8.234834e+01
4.800000e-07	-5.047033e-06	-1.236244e-09	-3.515588e+01	-8.213159e+01
4.900000e-07	-5.027527e-06	-1.310538e-09	-3.502001e+01	-8.190855e+01
5.000000e-07	-5.007759e-06	-1.232394e-09	-3.488232e+01	-8.167937e+01
5.100000e-07	-4.987733e-06	-1.199549e-09	-3.474282e+01	-8.144424e+01
5.200000e-07	-4.967453e-06	-1.276045e-09	-3.460156e+01	-8.120335e+01
5.300000e-07	-4.946834e-06	-1.263379e-09	-3.445793e+01	-8.095687e+01
5.400000e-07	-4.925887e-06	-1.193496e-09	-3.431202e+01	-8.070500e+01
5.500000e-07	-4.904538e-06	-1.256471e-09	-3.416332e+01	-8.044793e+01
5.600000e-07	-4.882749e-06	-1.261711e-09	-3.401154e+01	-8.018584e+01
5.700000e-07	-4.860648e-06	-1.174059e-09	-3.385759e+01	-7.991892e+01
5.800000e-07	-4.838302e-06	-1.192897e-09	-3.370194e+01	-7.964736e+01
5.900000e-07	-4.815545e-06	-1.249226e-09	-3.354342e+01	-7.937134e+01
6.000000e-07	-4.792336e-06	-1.187946e-09	-3.338175e+01	-7.909102e+01
6.100000e-07	-4.768857e-06	-1.176886e-09	-3.321821e+01	-7.880659e+01
6.200000e-07	-4.745217e-06	-1.231222e-09	-3.305354e+01	-7.851819e+01
6.300000e-07	-4.721416e-06	-1.198130e-09	-3.288775e+01	-7.822598e+01
6.400000e-07	-4.697380e-06	-1.155278e-09	-3.272033e+01	-7.793011e+01
6.500000e-07	-4.673003e-06	-1.189796e-09	-3.255052e+01	-7.763070e+01
6.600000e-07	-4.648263e-06	-1.181914e-09	-3.237819e+01	-7.732788e+01
6.700000e-07	-4.623110e-06	-1.141862e-09	-3.220299e+01	-7.702177e+01
6.800000e-07	-4.597401e-06	-1.169993e-09	-3.202390e+01	-7.671247e+01
6.900000e-07	-4.571100e-06	-1.183835e-09	-3.184070e+01	-7.640008e+01
7.000000e-07	-4.544246e-06	-1.152436e-09	-3.165365e+01	-7.608467e+01
7.100000e-07	-4.516933e-06	-1.153225e-09	-3.146339e+01	-7.576633e+01
7.200000e-07	-4.489337e-06	-1.168703e-09	-3.127117e+01	-7.544512e+01
7.300000e-07	-4.461586e-06	-1.136991e-09	-3.107787e+01	-7.512109e+01
7.400000e-07	-4.433673e-06	-1.127089e-09	-3.088343e+01	-7.479429e+01
7.500000e-07	-4.405577e-06	-1.138766e-09	-3.068773e+01	-7.446476e+01
7.600000e-07	-4.377228e-06	-1.129176e-09	-3.049025e+01	-7.413252e+01
7.700000e-07	-4.348528e-06	-1.109869e-09	-3.029034e+01	-7.379759e+01
7.800000e-07	-4.319512e-06	-1.116976e-09	-3.008823e+01	-7.345999e+01
7.900000e-07	-4.290214e-06	-1.104931e-09	-2.988415e+01	-7.311971e+01
8.000000e-07	-4.260610e-06	-1.086601e-09	-2.967794e+01	-7.277677e+01
8.100000e-07	-4.230698e-06	-1.087262e-09	-2.946958e+01	-7.243115e+01
8.200000e-07	-4.200470e-06	-1.089843e-09	-2.925902e+01	-7.208283e+01
8.300000e-07	-4.170003e-06	-1.072690e-09	-2.904680e+01	-7.173180e+01
8.400000e-07	-4.139318e-06	-1.073649e-09	-2.883306e+01	-7.137803e+01
8.500000e-07	-4.108347e-06	-1.073909e-09	-2.861732e+01	-7.102150e+01
8.600000e-07	-4.077012e-06	-1.058688e-09	-2.839905e+01	-7.066216e+01
8.700000e-07	-4.045395e-06	-1.044854e-09	-2.817882e+01	-7.029999e+01
8.800000e-07	-4.013650e-06	-1.048273e-09	-2.795769e+01	-6.993495e+01
8.900000e-07	-3.981815e-06	-1.039219e-09	-2.773594e+01	-6.956698e+01
9.000000e-07	-3.949787e-06	-1.027291e-09	-2.751285e+01	-6.919604e+01
9.100000e-07	-3.917414e-06	-1.029950e-09	-2.728735e+01	-6.882209e+01
9.200000e-07	-3.884759e-06	-1.026057e-09	-2.705988e+01	-6.844508e+01
9.300000e-07	-3.851661e-06	-1.011916e-09	-2.682934e+01	-6.806494e+01
9.400000e-07	-3.818104e-06	-1.008432e-09	-2.659559e+01	-6.768162e+01
9.500000e-07	-3.784188e-06	-1.004476e-09	-2.635934e+01	-6.729507e+01
9.600000e-07	-3.749783e-06	-9.843548e-10	-2.611969e+01	-6.690523e+01
9.700000e-07	-3.714902e-06	-9.734696e-10	-2.587672e+01	-6.651204e+01
9.800000e-07	-3.679674e-06	-9.740408e-10	-2.563133e+01	-6.611543e+01
9.900000e-07	-3.644223e-06	-9.675093e-10	-2.538440e+01	-6.571534e+01
1.000000e-06	-3.608560e-06	-9.574305e-10	-2.513598e+01	-6.531171e+01
1.010000e-06	-3.572764e-06	-9.594903e-10	-2.488664e+01	-6.490448e+01
1.020000e-06	-3.536877e-06	-9.557773e-10	-2.463666e+01	-6.449357e+01
1.030000e-06	-3.500818e-06	-9.444180e-10	-2.438549e+01	-6.407892e+01
1.040000e-06	-3.464553e-06	-9.373247e-10	-2.413288e+01	-6.366046e+01
1.050000e-06	-3.428055e-06	-9.326124e-10	-2.387864e+01	-6.323813e+01
1.060000e-06	-3.391320e-06	-9.171641e-10	-2.362276e+01	-6.281185e+01
1.070000e-06	-3.354252e-06	-9.098001e-10	-2.336456e+01	-6.238156e+01
1.080000e-06	-3.316929e-06	-9.059592e-10	-2.310458e+01	-6.194720e+01
1.090000e-06	-3.279458e-06	-8.972266e-10	-2.284357e+01	-6.150869e+01
1.100000e-06	-3.241806e-06	-8.868768e-10	-2.258130e+01	-6.106596e+01
1.110000e-06	-3.203842e-06	-8.834213e-10	-2.231685e+01	-6.061896e+01
1.120000e-06	-3.165628e-06	-8.752179e-10	-2.205067e+01	-6.016761e+01
1.130000e-06	-3.127370e-06	-8.653126e-10	-2.178418e+01	-5.971185e+01
1.140000e-06	-3.088908e-06	-8.573429e-10	-2.151626e+01	-5.925162e+01
1.150000e-06	-3.050055e-06	-8.496449e-10	-2.124563e+01	-5.878685e+01
1.160000e-06	-3.010881e-06	-8.380294e-10	-2.097275e+01	-5.831749e+01
1.170000e-06	-2.971514e-06	-8.314695e-10	-2.069854e+01	-5.784348e+01
1.180000e-06	-2.931971e-06	-8.297878e-10	-2.042310e+01	-5.736476e+01
1.190000e-06	-2.892309e-06	-8.246668e-10	-2.014683e+01	-5.688127e+01
1.200000e-06	-2.852551e-06	-8.176430e-10	-1.986988e+01	-5.639296e+01
1.210000e-06	-2.812731e-06	-8.127933e-10	-1.959251e+01	-5.589978e+01
1.220000e-06	-2.772787e-06	-8.047455e-10	-1.931427e+01	-5.540168e+01
1.230000e-06	-2.732644e-06	-7.958927e-10	-1.903465e+01	-5.489861e+01
1.240000e-06	-2.692379e-06	-7.900042e-10	-1.875418e+01	-5.439052e+01
1.250000e-06	-2.651941e-06	-7.805468e-10	-1.847251e+01	-5.387736e+01
1.260000e-06	-2.611203e-06	-7.684674e-10	-1.818874e+01	-5.335909e+01
1.270000e-06	-2.570242e-06	-7.578913e-10	-1.790342e+01	-5.283565e+01
1.280000e-06	-2.529109e-06	-7.500992e-10	-1.761690e+01	-5.230700e+01
1.290000e-06	-2.487726e-06	-7.408226e-10	-1.732864e+01	-5.177310e+01
1.300000e-06	-2.446069e-06	-7.325823e-10	-1.703847e+01	-5.123387e+01
1.310000e-06	-2.404154e-06	-7.255732e-10	-1.674650e+01	-5.068928e+01
1.320000e-06	-2.361849e-06	-7.168239e-10	-1.645182e+01	-5.013925e+01
1.330000e-06	-2.319137e-06	-7.056534e-10	-1.615431e+01	-4.958373e+01
1.340000e-06	-2.276248e-06	-6.981930e-10	-1.585555e+01	-4.902263e+01
1.350000e-06	-2.233234e-06	-6.898085e-10	-1.555593e+01	-4.845589e+01
1.360000e-06	-2.189963e-06	-6.795192e-10	-1.525452e+01	-4.788341e+01
1.370000e-06	-2.146405e-06	-6.728313e-10	-1.495111e+01	-4.730511e+01
1.380000e-06	-2.102689e-06	-6.711404e-10	-1.464660e+01	-4.672086e+01
1.390000e-06	-2.058920e-06	-6.655602e-10	-1.434172e+01	-4.613055e+01
1.400000e-06	-2.015145e-06	-6.566163e-10	-1.403680e+01	-4.553405e+01
1.410000e-06	-1.971338e-06	-6.465453e-10	-1.373166e+01	-4.493121e+01
1.420000e-06	-1.927424e-06	-6.363176e-10	-1.342577e+01	-4.432186e+01
1.430000e-06	-1.883368e-06	-6.251346e-10	-1.311889e+01	-4.370584e+01
1.440000e-06	-1.839193e-06	-6.159831e-10	-1.281118e+01	-4.308294e+01
1.450000e-06	-1.794972e-06	-6.078899e-10	-1.250315e+01	-4.245295e+01
1.460000e-06	-1.750723e-06	-5.972270e-10	-1.219493e+01	-4.181564e+01
1.470000e-06	-1.706425e-06	-5.850004e-10	-1.188637e+01	-4.117074e+01
1.480000e-06	-1.662045e-06	-5.743983e-10	-1.157723e+01	-4.051800e+01
1.490000e-06	-1.617466e-06	-5.660030e-10	-1.126671e+01	-3.985711e+01
1.500000e-06	-1.572744e-06	-5.576735e-10	-1.095519e+01	-3.918777e+01
1.510000e-06	-1.527855e-06	-5.478691e-10	-1.064251e+01	-3.850963e+01
1.520000e-06	-1.482759e-06	-5.388230e-10	-1.032839e+01	-3.782235e+01
1.530000e-06	-1.437547e-06	-5.305894e-10	-1.001346e+01	-3.712556e+01
1.540000e-06	-1.392228e-06	-5.212888e-10	-9.697780e+00	-3.641885e+01
1.550000e-06	-1.346924e-06	-5.088719e-10	-9.382205e+00	-3.570182e+01
1.560000e-06	-1.301537e-06	-4.945067e-10	-9.066059e+00	-3.497405e+01
1.570000e-06	-1.255975e-06	-4.783884e-10	-8.748688e+00	-3.423509e+01
1.580000e-06	-1.210382e-06	-4.636853e-10	-8.431103e+00	-3.348449e+01
1.590000e-06	-1.164679e-06	-4.532243e-10	-8.112750e+00	-3.272179e+01
1.600000e-06	-1.118864e-06	-4.426771e-10	-7.793621e+00	-3.194651e+01
1.610000e-06	-1.073019e-06	-4.312331e-10	-7.474279e+00	-3.115818e+01
1.620000e-06	-1.027083e-06	-4.212090e-10	-7.154303e+00	-3.035630e+01
1.630000e-06	-9.810528e-07	-4.154269e-10	-6.833674e+00	-2.954041e+01
1.640000e-06	-9.349977e-07	-4.083970e-10	-6.512870e+00	-2.871003e+01
1.650000e-06	-8.889271e-07	-3.952436e-10	-6.191959e+00	-2.786467e+01
1.660000e-06	-8.427664e-07	-3.788015e-10	-5.870419e+00	-2.700388e+01
1.670000e-06	-7.965025e-07	-3.621687e-10	-5.548160e+00	-2.612720e+01
1.680000e-06	-7.502052e-07	-3.472648e-10	-5.225670e+00	-2.523422e+01
1.690000e-06	-7.038528e-07	-3.368287e-10	-4.902795e+00	-2.432452e+01
1.700000e-06	-6.574861e-07	-3.268180e-10	-4.579821e+00	-2.339771e+01
1.710000e-06	-6.111387e-07	-3.165142e-10	-4.256981e+00	-2.245345e+01
1.720000e-06	-5.647349e-07	-3.026278e-10	-3.933748e+00	-2.149142e+01
1.730000e-06	-5.182451e-07	-2.837219e-10	-3.609916e+00	-2.051133e+01
1.740000e-06	-4.717562e-07	-2.609866e-10	-3.286090e+00	-1.951296e+01
1.750000e-06	-4.252235e-07	-2.397777e-10	-2.961960e+00	-1.849609e+01
1.760000e-06	-3.785735e-07	-2.229654e-10	-2.637012e+00	-1.746060e+01
1.770000e-06	-3.319665e-07	-2.107667e-10	-2.312364e+00	-1.640640e+01
1.780000e-06	-2.853457e-07	-2.014031e-10	-1.987620e+00	-1.533344e+01
1.790000e-06	-2.386720e-07	-1.903629e-10	-1.662507e+00	-1.424176e+01
1.800000e-06	-1.920220e-07	-1.744995e-10	-1.337559e+00	-1.313144e+01
1.810000e-06	-1.453793e-07	-1.547823e-10	-1.012662e+00	-1.200264e+01
1.820000e-06	-9.870030e-08	-1.355026e-10	-6.875121e-01	-1.085559e+01
1.830000e-06	-5.198015e-08	-1.190035e-10	-3.620758e-01	-9.690559e+00
1.840000e-06	-5.321905e-09	-1.042984e-10	-3.707054e-02	-8.507921e+00
1.850000e-06	4.135039e-08	-8.999046e-11	2.880325e-01	-7.308104e+00
1.860000e-06	8.815704e-08	-7.717986e-11	6.140714e-01	-6.091609e+00
1.870000e-06	1.349338e-07	-6.101462e-11	9.399024e-01	-4.859012e+00
1.880000e-06	1.816720e-07	-3.927046e-11	1.265464e+00	-3.610957e+00
1.890000e-06	2.284210e-07	-1.547766e-11	1.591102e+00	-2.348161e+00
1.900000e-06	2.750888e-07	6.360747e-12	1.916173e+00	-1.071406e+00
1.910000e-06	3.217435e-07	2.573536e-11	2.241154e+00	2.184537e-01
1.920000e-06	3.683376e-07	4.229518e-11	2.565712e+00	1.520504e+00
1.930000e-06	4.148666e-07	5.616486e-11	2.889817e+00	2.833765e+00
1.940000e-06	4.613527e-07	7.038544e-11	3.213623e+00	4.157203e+00
1.950000e-06	5.078848e-07	8.565727e-11	3.537749e+00	5.489724e+00
1.960000e-06	5.544102e-07	1.042053e-10	3.861830e+00	6.830188e+00
1.970000e-06	6.008375e-07	1.256558e-10	4.185226e+00	8.177407e+00
1.980000e-06	6.472115e-07	1.467097e-10	4.508251e+00	9.530152e+00
1.990000e-06	6.935126e-07	1.682942e-10	4.830769e+00	1.088716e+01
2.000000e-06	7.397837e-07	1.846078e-10	5.153077e+00	1.224713e+01
2.010000e-06	7.859714e-07	2.013026e-10	5.474805e+00	1.360875e+01
2.020000e-06	8.321301e-07	2.214603e-10	5.796330e+00	1.497068e+01
2.030000e-06	8.783036e-07	2.443821e-10	6.117959e+00	1.633157e+01
2.040000e-06	9.243683e-07	2.645445e-10	6.438830e+00	1.769007e+01
2.050000e-06	9.703353e-07	2.823130e-10	6.759020e+00	1.904481e+01
2.060000e-06	1.016243e-06	3.010281e-10	7.078799e+00	2.039446e+01
2.070000e-06	1.062119e-06	3.212143e-10	7.398353e+00	2.173768e+01
2.080000e-06	1.107926e-06	3.445561e-10	7.717430e+00	2.307316e+01
2.090000e-06	1.153628e-06	3.659368e-10	8.035770e+00	2.439961e+01
2.100000e-06	1.199235e-06	3.860919e-10	8.353453e+00	2.571577e+01
2.110000e-06	1.244764e-06	4.020214e-10	8.670598e+00	2.702043e+01
2.120000e-06	1.290223e-06	4.160099e-10	8.987247e+00	2.831242e+01
2.130000e-06	1.335568e-06	4.312899e-10	9.303104e+00	2.959063e+01
2.140000e-06	1.380792e-06	4.494184e-10	9.618120e+00	3.085397e+01
2.150000e-06	1.425854e-06	4.672246e-10	9.932006e+00	3.210145e+01
2.160000e-06	1.470782e-06	4.845661e-10	1.024496e+01	3.333213e+01
2.170000e-06	1.515616e-06	5.029383e-10	1.055726e+01	3.454512e+01
2.180000e-06	1.560402e-06	5.225598e-10	1.086922e+01	3.573963e+01
2.190000e-06	1.605084e-06	5.390283e-10	1.118046e+01	3.691492e+01
2.200000e-06	1.649641e-06	5.535477e-10	1.149083e+01	3.807034e+01
2.210000e-06	1.694097e-06	5.669559e-10	1.180050e+01	3.920532e+01
2.220000e-06	1.738418e-06	5.812907e-10	1.210922e+01	4.031935e+01
2.230000e-06	1.782641e-06	5.966384e-10	1.241726e+01	4.141203e+01
2.240000e-06	1.826762e-06	6.105794e-10	1.272459e+01	4.248301e+01
2.250000e-06	1.870839e-06	6.242316e-10	1.303162e+01	4.353204e+01
2.260000e-06	1.914877e-06	6.370878e-10	1.333837e+01	4.455893e+01
2.270000e-06	1.958796e-06	6.541619e-10	1.364430e+01	4.556360e+01
2.280000e-06	2.002601e-06	6.718553e-10	1.394943e+01	4.654602e+01
2.290000e-06	2.046318e-06	6.896763e-10	1.425394e+01	4.750623e+01
2.300000e-06	2.090026e-06	7.032548e-10	1.455840e+01	4.844435e+01
2.310000e-06	2.133669e-06	7.134651e-10	1.486240e+01	4.936057e+01
2.320000e-06	2.177147e-06	7.234876e-10	1.516525e+01	5.025513e+01
2.330000e-06	2.220488e-06	7.343420e-10	1.546715e+01	5.112835e+01
2.340000e-06	2.263666e-06	7.483262e-10	1.576791e+01	5.198057e+01
2.350000e-06	2.306576e-06	7.659580e-10	1.606681e+01	5.281222e+01
2.360000e-06	2.349289e-06	7.858780e-10	1.636433e+01	5.362375e+01
2.370000e-06	2.391774e-06	8.009177e-10	1.666027e+01	5.441565e+01
2.380000e-06	2.433892e-06	8.113929e-10	1.695365e+01	5.518846e+01
2.390000e-06	2.475685e-06	8.199262e-10	1.724476e+01	5.594272e+01
2.400000e-06	2.517150e-06	8.265779e-10	1.753359e+01	5.667903e+01
2.410000e-06	2.558299e-06	8.333414e-10	1.782023e+01	5.739799e+01
2.420000e-06	2.599131e-06	8.423706e-10	1.810465e+01	5.810021e+01
2.430000e-06	2.639705e-06	8.575734e-10	1.838727e+01	5.878630e+01
2.440000e-06	2.680114e-06	8.738036e-10	1.866874e+01	5.945690e+01
2.450000e-06	2.720338e-06	8.852061e-10	1.894893e+01	6.011262e+01
2.460000e-06	2.760401e-06	8.963414e-10	1.922800e+01	6.075408e+01
2.470000e-06	2.800338e-06	9.067299e-10	1.950619e+01	6.138188e+01
2.480000e-06	2.840220e-06	9.164272e-10	1.978399e+01	6.199661e+01
2.490000e-06	2.880049e-06	9.271477e-10	2.006142e+01	6.259884e+01
2.500000e-06	2.919679e-06	9.365835e-10	2.033748e+01	6.318911e+01
2.510000e-06	2.959069e-06	9.458072e-10	2.061185e+01	6.376794e+01
2.520000e-06	2.998256e-06	9.558010e-10	2.088481e+01	6.433583e+01
2.530000e-06	3.037182e-06	9.638186e-10	2.115595e+01	6.489323e+01
2.540000e-06	3.075862e-06	9.700974e-10	2.142539e+01	6.544057e+01
2.550000e-06	3.114354e-06	9.753980e-10	2.169351e+01	6.597825e+01
2.560000e-06	3.152619e-06	9.807478e-10	2.196005e+01	6.650663e+01
2.570000e-06	3.190693e-06	9.865363e-10	2.222526e+01	6.702603e+01
2.580000e-06	3.228530e-06	9.937525e-10	2.248882e+01	6.753674e+01
2.590000e-06	3.266151e-06	1.001578e-09	2.275088e+01	6.803901e+01
2.600000e-06	3.303607e-06	1.011146e-09	2.301178e+01	6.853307e+01
2.610000e-06	3.340838e-06	1.019214e-09	2.327112e+01	6.901909e+01
2.620000e-06	3.377825e-06	1.022553e-09	2.352876e+01	6.949723e+01
2.630000e-06	3.414556e-06	1.023984e-09	2.378462e+01	6.996762e+01
2.640000e-06	3.451090e-06	1.025968e-09	2.403910e+01	7.043035e+01
2.650000e-06	3.487405e-06	1.031452e-09	2.429205e+01	7.088548e+01
2.660000e-06	3.523469e-06	1.040086e-09	2.454326e+01	7.133307e+01
2.670000e-06	3.559381e-06	1.048321e-09	2.479341e+01	7.177313e+01
2.680000e-06	3.595240e-06	1.057229e-09	2.504320e+01	7.220568e+01
2.690000e-06	3.630939e-06	1.065954e-09	2.529186e+01	7.263070e+01
2.700000e-06	3.666403e-06	1.070230e-09	2.553889e+01	7.304817e+01
2.710000e-06	3.701636e-06	1.071803e-09	2.578432e+01	7.345807e+01
2.720000e-06	3.736594e-06	1.073764e-09	2.602782e+01	7.386034e+01
2.730000e-06	3.771194e-06	1.076280e-09	2.626883e+01	7.425495e+01
2.740000e-06	3.805242e-06	1.080689e-09	2.650600e+01	7.464187e+01
2.750000e-06	3.838746e-06	1.086364e-09	2.673938e+01	7.502104e+01
2.760000e-06	3.871805e-06	1.091960e-09	2.696965e+01	7.539244e+01
2.770000e-06	3.904447e-06	1.099327e-09	2.719703e+01	7.575604e+01
2.780000e-06	3.936797e-06	1.108712e-09	2.742236e+01	7.611182e+01
2.790000e-06	3.968961e-06	1.117371e-09	2.764641e+01	7.645978e+01
2.800000e-06	4.000918e-06	1.122399e-09	2.786901e+01	7.679992e+01
2.810000e-06	4.032700e-06	1.125563e-09	2.809039e+01	7.713227e+01
2.820000e-06	4.064336e-06	1.128545e-09	2.831076e+01	7.745686e+01
2.830000e-06	4.095795e-06	1.132026e-09	2.852989e+01	7.777375e+01
2.840000e-06	4.127017e-06	1.137520e-09	2.874737e+01	7.808301e+01
2.850000e-06	4.157857e-06	1.145036e-09	2.896219e+01	7.838474e+01
2.860000e-06	4.188321e-06	1.150820e-09	2.917439e+01	7.867903e+01
2.870000e-06	4.218510e-06	1.155025e-09	2.938468e+01	7.896603e+01
2.880000e-06	4.248425e-06	1.157888e-09	2.959305e+01	7.924586e+01
2.890000e-06	4.278051e-06	1.161734e-09	2.979942e+01	7.951870e+01
2.900000e-06	4.307406e-06	1.166879e-09	3.000390e+01	7.978471e+01
2.910000e-06	4.336496e-06	1.170587e-09	3.020653e+01	8.004408e+01
