# Temperatura_=_-0.6
# Concentracion g/m^3_=_1620.0
# C_Vs_to_Am_M_A/Vsm_=_65563218390.804596
# pendiente_HvsI_1/m_=_3716.3
# ordenada_HvsI_A/m_=_1297.0
# frecuencia_Hz_=_135093.30022562502

Tiempo_(s)	Campo_(V.s)	Magnetizacion_(V.s)	Campo_(kA/m)	Magnetizacion_(A/m)
0.000000e+00	-5.509273e-06	-1.347930e-09	-3.837424e+01	-9.065761e+01
1.000000e-08	-5.509338e-06	-1.342892e-09	-3.837469e+01	-9.062587e+01
2.000000e-08	-5.509071e-06	-1.341113e-09	-3.837284e+01	-9.059169e+01
3.000000e-08	-5.508390e-06	-1.340092e-09	-3.836809e+01	-9.055496e+01
4.000000e-08	-5.507264e-06	-1.331948e-09	-3.836025e+01	-9.051553e+01
5.000000e-08	-5.505590e-06	-1.315592e-09	-3.834858e+01	-9.047327e+01
6.000000e-08	-5.503345e-06	-1.315119e-09	-3.833295e+01	-9.042805e+01
7.000000e-08	-5.500466e-06	-1.334784e-09	-3.831290e+01	-9.037975e+01
8.000000e-08	-5.496994e-06	-1.358504e-09	-3.828871e+01	-9.032824e+01
9.000000e-08	-5.493096e-06	-1.427506e-09	-3.826156e+01	-9.027339e+01
1.000000e-07	-5.488853e-06	-1.456167e-09	-3.823200e+01	-9.021509e+01
1.100000e-07	-5.484332e-06	-1.302331e-09	-3.820052e+01	-9.015324e+01
1.200000e-07	-5.479757e-06	-1.191341e-09	-3.816865e+01	-9.008771e+01
1.300000e-07	-5.474915e-06	-1.300221e-09	-3.813492e+01	-9.001841e+01
1.400000e-07	-5.469476e-06	-1.414173e-09	-3.809704e+01	-8.994524e+01
1.500000e-07	-5.463595e-06	-1.336502e-09	-3.805608e+01	-8.986812e+01
1.600000e-07	-5.457440e-06	-1.217451e-09	-3.801320e+01	-8.978696e+01
1.700000e-07	-5.450974e-06	-1.362560e-09	-3.796817e+01	-8.970168e+01
1.800000e-07	-5.444015e-06	-1.457452e-09	-3.791969e+01	-8.961223e+01
1.900000e-07	-5.436572e-06	-1.337207e-09	-3.786785e+01	-8.951853e+01
2.000000e-07	-5.428887e-06	-1.202868e-09	-3.781432e+01	-8.942055e+01
2.100000e-07	-5.421013e-06	-1.307292e-09	-3.775947e+01	-8.931823e+01
2.200000e-07	-5.412882e-06	-1.427080e-09	-3.770284e+01	-8.921154e+01
2.300000e-07	-5.404461e-06	-1.385264e-09	-3.764419e+01	-8.910045e+01
2.400000e-07	-5.395463e-06	-1.304447e-09	-3.758151e+01	-8.898494e+01
2.500000e-07	-5.385816e-06	-1.327633e-09	-3.751431e+01	-8.886500e+01
2.600000e-07	-5.375414e-06	-1.359533e-09	-3.744186e+01	-8.874064e+01
2.700000e-07	-5.364421e-06	-1.312214e-09	-3.736529e+01	-8.861185e+01
2.800000e-07	-5.353070e-06	-1.303441e-09	-3.728622e+01	-8.847864e+01
2.900000e-07	-5.341264e-06	-1.335904e-09	-3.720399e+01	-8.834105e+01
3.000000e-07	-5.329122e-06	-1.354659e-09	-3.711942e+01	-8.819908e+01
3.100000e-07	-5.316662e-06	-1.322167e-09	-3.703263e+01	-8.805279e+01
3.200000e-07	-5.303764e-06	-1.315086e-09	-3.694279e+01	-8.790220e+01
3.300000e-07	-5.290415e-06	-1.301531e-09	-3.684981e+01	-8.774737e+01
3.400000e-07	-5.276709e-06	-1.328290e-09	-3.675434e+01	-8.758834e+01
3.500000e-07	-5.262642e-06	-1.314883e-09	-3.665636e+01	-8.742518e+01
3.600000e-07	-5.248100e-06	-1.295967e-09	-3.655506e+01	-8.725794e+01
3.700000e-07	-5.233192e-06	-1.322071e-09	-3.645123e+01	-8.708670e+01
3.800000e-07	-5.217783e-06	-1.370220e-09	-3.634390e+01	-8.691152e+01
3.900000e-07	-5.201659e-06	-1.293060e-09	-3.623159e+01	-8.673247e+01
4.000000e-07	-5.185052e-06	-1.264846e-09	-3.611592e+01	-8.654963e+01
4.100000e-07	-5.168106e-06	-1.346724e-09	-3.599788e+01	-8.636307e+01
4.200000e-07	-5.150902e-06	-1.321604e-09	-3.587805e+01	-8.617288e+01
4.300000e-07	-5.133473e-06	-1.217117e-09	-3.575664e+01	-8.597913e+01
4.400000e-07	-5.115775e-06	-1.313130e-09	-3.563337e+01	-8.578190e+01
4.500000e-07	-5.097671e-06	-1.388739e-09	-3.550727e+01	-8.558126e+01
4.600000e-07	-5.079029e-06	-1.242500e-09	-3.537742e+01	-8.537731e+01
4.700000e-07	-5.059919e-06	-1.223839e-09	-3.524431e+01	-8.517010e+01
4.800000e-07	-5.040524e-06	-1.371363e-09	-3.510922e+01	-8.495972e+01
4.900000e-07	-5.020869e-06	-1.304030e-09	-3.497231e+01	-8.474623e+01
5.000000e-07	-5.000975e-06	-1.194141e-09	-3.483374e+01	-8.452971e+01
5.100000e-07	-4.980936e-06	-1.310438e-09	-3.469417e+01	-8.431021e+01
5.200000e-07	-4.960648e-06	-1.322160e-09	-3.455285e+01	-8.408780e+01
5.300000e-07	-4.939983e-06	-1.199369e-09	-3.440891e+01	-8.386253e+01
5.400000e-07	-4.918949e-06	-1.274636e-09	-3.426240e+01	-8.363445e+01
5.500000e-07	-4.897580e-06	-1.345571e-09	-3.411356e+01	-8.340361e+01
5.600000e-07	-4.875826e-06	-1.201424e-09	-3.396204e+01	-8.317005e+01
5.700000e-07	-4.853652e-06	-1.207084e-09	-3.380758e+01	-8.293380e+01
5.800000e-07	-4.831196e-06	-1.331565e-09	-3.365117e+01	-8.269490e+01
5.900000e-07	-4.808421e-06	-1.256321e-09	-3.349253e+01	-8.245336e+01
6.000000e-07	-4.785202e-06	-1.185126e-09	-3.333080e+01	-8.220920e+01
6.100000e-07	-4.761703e-06	-1.286335e-09	-3.316712e+01	-8.196243e+01
6.200000e-07	-4.737958e-06	-1.260491e-09	-3.300173e+01	-8.171305e+01
6.300000e-07	-4.713955e-06	-1.170856e-09	-3.283454e+01	-8.146108e+01
6.400000e-07	-4.689771e-06	-1.228960e-09	-3.266609e+01	-8.120649e+01
6.500000e-07	-4.665225e-06	-1.255825e-09	-3.249512e+01	-8.094927e+01
6.600000e-07	-4.640232e-06	-1.178003e-09	-3.232103e+01	-8.068941e+01
6.700000e-07	-4.614931e-06	-1.208599e-09	-3.214480e+01	-8.042688e+01
6.800000e-07	-4.589140e-06	-1.252973e-09	-3.196515e+01	-8.016164e+01
6.900000e-07	-4.562601e-06	-1.197145e-09	-3.178030e+01	-7.989367e+01
7.000000e-07	-4.535554e-06	-1.181680e-09	-3.159191e+01	-7.962293e+01
7.100000e-07	-4.508218e-06	-1.220492e-09	-3.140150e+01	-7.934937e+01
7.200000e-07	-4.480657e-06	-1.187566e-09	-3.120953e+01	-7.907294e+01
7.300000e-07	-4.452906e-06	-1.163420e-09	-3.101623e+01	-7.879359e+01
7.400000e-07	-4.424944e-06	-1.191143e-09	-3.082147e+01	-7.851126e+01
7.500000e-07	-4.396832e-06	-1.178717e-09	-3.062565e+01	-7.822590e+01
7.600000e-07	-4.368419e-06	-1.148258e-09	-3.042774e+01	-7.793746e+01
7.700000e-07	-4.339638e-06	-1.163863e-09	-3.022728e+01	-7.764586e+01
7.800000e-07	-4.310515e-06	-1.164307e-09	-3.002442e+01	-7.735104e+01
7.900000e-07	-4.281060e-06	-1.140490e-09	-2.981925e+01	-7.705294e+01
8.000000e-07	-4.251321e-06	-1.146474e-09	-2.961212e+01	-7.675150e+01
8.100000e-07	-4.221320e-06	-1.148014e-09	-2.940315e+01	-7.644665e+01
8.200000e-07	-4.191017e-06	-1.121593e-09	-2.919207e+01	-7.613833e+01
8.300000e-07	-4.160388e-06	-1.116396e-09	-2.897873e+01	-7.582647e+01
8.400000e-07	-4.129535e-06	-1.127719e-09	-2.876383e+01	-7.551102e+01
8.500000e-07	-4.098414e-06	-1.106841e-09	-2.854706e+01	-7.519191e+01
8.600000e-07	-4.067035e-06	-1.094468e-09	-2.832849e+01	-7.486910e+01
8.700000e-07	-4.035514e-06	-1.104428e-09	-2.810893e+01	-7.454251e+01
8.800000e-07	-4.003791e-06	-1.100393e-09	-2.788797e+01	-7.421211e+01
8.900000e-07	-3.971874e-06	-1.085051e-09	-2.766566e+01	-7.387784e+01
9.000000e-07	-3.939771e-06	-1.088949e-09	-2.744205e+01	-7.353965e+01
9.100000e-07	-3.907276e-06	-1.082354e-09	-2.721570e+01	-7.319752e+01
9.200000e-07	-3.874428e-06	-1.061115e-09	-2.698690e+01	-7.285140e+01
9.300000e-07	-3.841242e-06	-1.058059e-09	-2.675575e+01	-7.250125e+01
9.400000e-07	-3.807499e-06	-1.063718e-09	-2.652072e+01	-7.214706e+01
9.500000e-07	-3.773323e-06	-1.046606e-09	-2.628267e+01	-7.178879e+01
9.600000e-07	-3.738864e-06	-1.036400e-09	-2.604265e+01	-7.142642e+01
9.700000e-07	-3.704021e-06	-1.041285e-09	-2.579995e+01	-7.105994e+01
9.800000e-07	-3.668763e-06	-1.036192e-09	-2.555437e+01	-7.068934e+01
9.900000e-07	-3.633227e-06	-1.023868e-09	-2.530685e+01	-7.031461e+01
1.000000e-06	-3.597534e-06	-1.026264e-09	-2.505823e+01	-6.993574e+01
1.010000e-06	-3.561667e-06	-1.022018e-09	-2.480840e+01	-6.955274e+01
1.020000e-06	-3.525688e-06	-1.008453e-09	-2.455779e+01	-6.916561e+01
1.030000e-06	-3.489599e-06	-1.004418e-09	-2.430642e+01	-6.877435e+01
1.040000e-06	-3.453347e-06	-1.004636e-09	-2.405391e+01	-6.837898e+01
1.050000e-06	-3.416850e-06	-9.943827e-10	-2.379970e+01	-6.797950e+01
1.060000e-06	-3.380063e-06	-9.877856e-10	-2.354346e+01	-6.757592e+01
1.070000e-06	-3.343018e-06	-9.880728e-10	-2.328543e+01	-6.716827e+01
1.080000e-06	-3.305734e-06	-9.792312e-10	-2.302573e+01	-6.675655e+01
1.090000e-06	-3.268208e-06	-9.691367e-10	-2.276435e+01	-6.634078e+01
1.100000e-06	-3.230421e-06	-9.675306e-10	-2.250115e+01	-6.592097e+01
1.110000e-06	-3.192350e-06	-9.637567e-10	-2.223596e+01	-6.549713e+01
1.120000e-06	-3.154085e-06	-9.541711e-10	-2.196943e+01	-6.506928e+01
1.130000e-06	-3.115719e-06	-9.489554e-10	-2.170220e+01	-6.463742e+01
1.140000e-06	-3.077160e-06	-9.426710e-10	-2.143362e+01	-6.420155e+01
1.150000e-06	-3.038361e-06	-9.295932e-10	-2.116337e+01	-6.376168e+01
1.160000e-06	-2.999316e-06	-9.193859e-10	-2.089141e+01	-6.331779e+01
1.170000e-06	-2.959998e-06	-9.179014e-10	-2.061754e+01	-6.286988e+01
1.180000e-06	-2.920504e-06	-9.159738e-10	-2.034245e+01	-6.241792e+01
1.190000e-06	-2.880878e-06	-9.101701e-10	-2.006644e+01	-6.196189e+01
1.200000e-06	-2.841132e-06	-9.050587e-10	-1.978959e+01	-6.150175e+01
1.210000e-06	-2.801301e-06	-9.002935e-10	-1.951215e+01	-6.103746e+01
1.220000e-06	-2.761340e-06	-8.880137e-10	-1.923382e+01	-6.056896e+01
1.230000e-06	-2.721112e-06	-8.758774e-10	-1.895361e+01	-6.009618e+01
1.240000e-06	-2.680758e-06	-8.642644e-10	-1.867253e+01	-5.961904e+01
1.250000e-06	-2.640309e-06	-8.560674e-10	-1.839078e+01	-5.913746e+01
1.260000e-06	-2.599597e-06	-8.490562e-10	-1.810721e+01	-5.865132e+01
1.270000e-06	-2.558499e-06	-8.453695e-10	-1.782094e+01	-5.816050e+01
1.280000e-06	-2.517146e-06	-8.414577e-10	-1.753290e+01	-5.766488e+01
1.290000e-06	-2.475701e-06	-8.344566e-10	-1.724423e+01	-5.716430e+01
1.300000e-06	-2.433950e-06	-8.223165e-10	-1.695341e+01	-5.665858e+01
1.310000e-06	-2.391841e-06	-8.058841e-10	-1.666011e+01	-5.614756e+01
1.320000e-06	-2.349523e-06	-7.923097e-10	-1.636534e+01	-5.563103e+01
1.330000e-06	-2.306968e-06	-7.834310e-10	-1.606893e+01	-5.510877e+01
1.340000e-06	-2.264099e-06	-7.753292e-10	-1.577033e+01	-5.458054e+01
1.350000e-06	-2.221008e-06	-7.662445e-10	-1.547019e+01	-5.404610e+01
1.360000e-06	-2.177786e-06	-7.597116e-10	-1.516913e+01	-5.350516e+01
1.370000e-06	-2.134368e-06	-7.560003e-10	-1.486671e+01	-5.295745e+01
1.380000e-06	-2.090719e-06	-7.479797e-10	-1.456267e+01	-5.240264e+01
1.390000e-06	-2.047040e-06	-7.374893e-10	-1.425843e+01	-5.184042e+01
1.400000e-06	-2.003249e-06	-7.254839e-10	-1.395341e+01	-5.127044e+01
1.410000e-06	-1.959333e-06	-7.139711e-10	-1.364752e+01	-5.069235e+01
1.420000e-06	-1.915412e-06	-7.050061e-10	-1.334159e+01	-5.010576e+01
1.430000e-06	-1.871381e-06	-6.952264e-10	-1.303490e+01	-4.951027e+01
1.440000e-06	-1.827208e-06	-6.861961e-10	-1.272722e+01	-4.890549e+01
1.450000e-06	-1.783007e-06	-6.786061e-10	-1.241934e+01	-4.829099e+01
1.460000e-06	-1.738670e-06	-6.706215e-10	-1.211051e+01	-4.766633e+01
1.470000e-06	-1.694174e-06	-6.604170e-10	-1.180059e+01	-4.703107e+01
1.480000e-06	-1.649636e-06	-6.494905e-10	-1.149036e+01	-4.638474e+01
1.490000e-06	-1.604967e-06	-6.378736e-10	-1.117922e+01	-4.572687e+01
1.500000e-06	-1.560216e-06	-6.284193e-10	-1.086752e+01	-4.505699e+01
1.510000e-06	-1.515350e-06	-6.170166e-10	-1.055501e+01	-4.437461e+01
1.520000e-06	-1.470260e-06	-6.039887e-10	-1.024094e+01	-4.367924e+01
1.530000e-06	-1.425015e-06	-5.914478e-10	-9.925785e+00	-4.297040e+01
1.540000e-06	-1.379718e-06	-5.772771e-10	-9.610274e+00	-4.224758e+01
1.550000e-06	-1.334354e-06	-5.628527e-10	-9.294298e+00	-4.151029e+01
1.560000e-06	-1.288898e-06	-5.510489e-10	-8.977681e+00	-4.075805e+01
1.570000e-06	-1.243350e-06	-5.407545e-10	-8.660422e+00	-3.999037e+01
1.580000e-06	-1.197764e-06	-5.322006e-10	-8.342896e+00	-3.920677e+01
1.590000e-06	-1.152045e-06	-5.235912e-10	-8.024446e+00	-3.840679e+01
1.600000e-06	-1.106157e-06	-5.140687e-10	-7.704817e+00	-3.758996e+01
1.610000e-06	-1.060307e-06	-5.012912e-10	-7.385453e+00	-3.675585e+01
1.620000e-06	-1.014395e-06	-4.890194e-10	-7.065658e+00	-3.590404e+01
1.630000e-06	-9.683437e-07	-4.790304e-10	-6.744893e+00	-3.503412e+01
1.640000e-06	-9.222691e-07	-4.657831e-10	-6.423965e+00	-3.414570e+01
1.650000e-06	-8.761356e-07	-4.499787e-10	-6.102627e+00	-3.323844e+01
1.660000e-06	-8.299222e-07	-4.357975e-10	-5.780733e+00	-3.231199e+01
1.670000e-06	-7.836440e-07	-4.192835e-10	-5.458387e+00	-3.136607e+01
1.680000e-06	-7.373783e-07	-4.025357e-10	-5.136128e+00	-3.040039e+01
1.690000e-06	-6.910664e-07	-3.911390e-10	-4.813548e+00	-2.941473e+01
1.700000e-06	-6.446020e-07	-3.799071e-10	-4.489905e+00	-2.840889e+01
1.710000e-06	-5.980847e-07	-3.660025e-10	-4.165893e+00	-2.738270e+01
1.720000e-06	-5.516038e-07	-3.485062e-10	-3.842136e+00	-2.633606e+01
1.730000e-06	-5.050965e-07	-3.273221e-10	-3.518194e+00	-2.526888e+01
1.740000e-06	-4.584981e-07	-3.047670e-10	-3.193619e+00	-2.418114e+01
1.750000e-06	-4.118921e-07	-2.880342e-10	-2.868990e+00	-2.307285e+01
1.760000e-06	-3.651979e-07	-2.775241e-10	-2.543746e+00	-2.194408e+01
1.770000e-06	-3.184684e-07	-2.672253e-10	-2.218257e+00	-2.079495e+01
1.780000e-06	-2.717971e-07	-2.552490e-10	-1.893173e+00	-1.962561e+01
1.790000e-06	-2.251599e-07	-2.418229e-10	-1.568327e+00	-1.843630e+01
1.800000e-06	-1.785368e-07	-2.233871e-10	-1.243579e+00	-1.722727e+01
1.810000e-06	-1.317653e-07	-2.019494e-10	-9.177967e-01	-1.599885e+01
1.820000e-06	-8.494451e-08	-1.849641e-10	-5.916717e-01	-1.475142e+01
1.830000e-06	-3.819927e-08	-1.714169e-10	-2.660728e-01	-1.348542e+01
1.840000e-06	8.543541e-09	-1.557296e-10	5.950910e-02	-1.220133e+01
1.850000e-06	5.521176e-08	-1.388951e-10	3.845715e-01	-1.089969e+01
1.860000e-06	1.018874e-07	-1.228489e-10	7.096858e-01	-9.581103e+00
1.870000e-06	1.486432e-07	-1.042757e-10	1.035358e+00	-8.246204e+00
1.880000e-06	1.953565e-07	-8.169360e-11	1.360735e+00	-6.895697e+00
1.890000e-06	2.420536e-07	-5.935334e-11	1.685998e+00	-5.530330e+00
1.900000e-06	2.888013e-07	-3.865335e-11	2.011614e+00	-4.150902e+00
1.910000e-06	3.355572e-07	-1.886652e-11	2.337287e+00	-2.758257e+00
1.920000e-06	3.822518e-07	-1.704746e-12	2.662533e+00	-1.353286e+00
1.930000e-06	4.288806e-07	1.582217e-11	2.987321e+00	6.307706e-02
1.940000e-06	4.755079e-07	3.528943e-11	3.312099e+00	1.489859e+00
1.950000e-06	5.220818e-07	5.575787e-11	3.636504e+00	2.926048e+00
1.960000e-06	5.684871e-07	7.761580e-11	3.959735e+00	4.370596e+00
1.970000e-06	6.147869e-07	1.016019e-10	4.282231e+00	5.822424e+00
1.980000e-06	6.611016e-07	1.260067e-10	4.604831e+00	7.280425e+00
1.990000e-06	7.074019e-07	1.483313e-10	4.927331e+00	8.743464e+00
2.000000e-06	7.536596e-07	1.653327e-10	5.249534e+00	1.021039e+01
2.010000e-06	7.998899e-07	1.814314e-10	5.571546e+00	1.168002e+01
2.020000e-06	8.460360e-07	2.024693e-10	5.892972e+00	1.315117e+01
2.030000e-06	8.921175e-07	2.254373e-10	6.213947e+00	1.462264e+01
2.040000e-06	9.381955e-07	2.497276e-10	6.534899e+00	1.609322e+01
2.050000e-06	9.841591e-07	2.729241e-10	6.855053e+00	1.756171e+01
2.060000e-06	1.030020e-06	2.950379e-10	7.174494e+00	1.902690e+01
2.070000e-06	1.075854e-06	3.169399e-10	7.493745e+00	2.048758e+01
2.080000e-06	1.121615e-06	3.392175e-10	7.812489e+00	2.194256e+01
2.090000e-06	1.167298e-06	3.608490e-10	8.130686e+00	2.339067e+01
2.100000e-06	1.212890e-06	3.806206e-10	8.448253e+00	2.483073e+01
2.110000e-06	1.258451e-06	4.001243e-10	8.765601e+00	2.626162e+01
2.120000e-06	1.303911e-06	4.174245e-10	9.082253e+00	2.768220e+01
2.130000e-06	1.349219e-06	4.397468e-10	9.397837e+00	2.909140e+01
2.140000e-06	1.394452e-06	4.637359e-10	9.712906e+00	3.048817e+01
2.150000e-06	1.439568e-06	4.849036e-10	1.002715e+01	3.187147e+01
2.160000e-06	1.484614e-06	5.029533e-10	1.034092e+01	3.324033e+01
2.170000e-06	1.529545e-06	5.207627e-10	1.065388e+01	3.459381e+01
2.180000e-06	1.574286e-06	5.402289e-10	1.096552e+01	3.593103e+01
2.190000e-06	1.618914e-06	5.584712e-10	1.127637e+01	3.725112e+01
2.200000e-06	1.663458e-06	5.756673e-10	1.158663e+01	3.855330e+01
2.210000e-06	1.707851e-06	5.901659e-10	1.189585e+01	3.983683e+01
2.220000e-06	1.752121e-06	6.057065e-10	1.220421e+01	4.110100e+01
2.230000e-06	1.796289e-06	6.218545e-10	1.251185e+01	4.234520e+01
2.240000e-06	1.840379e-06	6.386834e-10	1.281896e+01	4.356884e+01
2.250000e-06	1.884413e-06	6.559325e-10	1.312568e+01	4.477140e+01
2.260000e-06	1.928356e-06	6.707621e-10	1.343175e+01	4.595243e+01
2.270000e-06	1.972235e-06	6.926415e-10	1.373738e+01	4.711152e+01
2.280000e-06	2.016031e-06	7.123189e-10	1.404244e+01	4.824834e+01
2.290000e-06	2.059767e-06	7.271812e-10	1.434708e+01	4.936260e+01
2.300000e-06	2.103371e-06	7.384777e-10	1.465080e+01	5.045408e+01
2.310000e-06	2.146927e-06	7.477500e-10	1.495419e+01	5.152263e+01
2.320000e-06	2.190491e-06	7.604396e-10	1.525763e+01	5.256812e+01
2.330000e-06	2.233862e-06	7.720584e-10	1.555972e+01	5.359053e+01
2.340000e-06	2.276951e-06	7.872539e-10	1.585986e+01	5.458986e+01
2.350000e-06	2.319732e-06	8.044014e-10	1.615784e+01	5.556617e+01
2.360000e-06	2.362234e-06	8.229210e-10	1.645389e+01	5.651957e+01
2.370000e-06	2.404573e-06	8.362950e-10	1.674879e+01	5.745023e+01
2.380000e-06	2.446618e-06	8.448287e-10	1.704165e+01	5.835836e+01
2.390000e-06	2.488279e-06	8.521188e-10	1.733183e+01	5.924422e+01
2.400000e-06	2.529603e-06	8.595742e-10	1.761967e+01	6.010811e+01
2.410000e-06	2.570606e-06	8.683712e-10	1.790528e+01	6.095036e+01
2.420000e-06	2.611288e-06	8.788242e-10	1.818864e+01	6.177136e+01
2.430000e-06	2.651719e-06	8.939864e-10	1.847026e+01	6.257150e+01
2.440000e-06	2.691994e-06	9.107922e-10	1.875079e+01	6.335125e+01
2.450000e-06	2.732142e-06	9.227294e-10	1.903044e+01	6.411105e+01
2.460000e-06	2.772159e-06	9.342106e-10	1.930917e+01	6.485141e+01
2.470000e-06	2.812038e-06	9.446062e-10	1.958694e+01	6.557284e+01
2.480000e-06	2.851818e-06	9.533102e-10	1.986403e+01	6.627587e+01
2.490000e-06	2.891480e-06	9.599163e-10	2.014029e+01	6.696104e+01
2.500000e-06	2.931102e-06	9.656774e-10	2.041627e+01	6.762891e+01
2.510000e-06	2.970626e-06	9.747106e-10	2.069157e+01	6.828005e+01
2.520000e-06	3.009833e-06	9.865972e-10	2.096466e+01	6.891502e+01
2.530000e-06	3.048720e-06	9.989090e-10	2.123553e+01	6.953439e+01
2.540000e-06	3.087473e-06	1.009847e-09	2.150546e+01	7.013874e+01
2.550000e-06	3.126033e-06	1.019382e-09	2.177405e+01	7.072862e+01
2.560000e-06	3.164304e-06	1.028659e-09	2.204061e+01	7.130460e+01
2.570000e-06	3.202343e-06	1.035810e-09	2.230557e+01	7.186721e+01
2.580000e-06	3.240127e-06	1.040749e-09	2.256875e+01	7.241701e+01
2.590000e-06	3.277795e-06	1.048055e-09	2.283112e+01	7.295449e+01
2.600000e-06	3.315329e-06	1.056192e-09	2.309256e+01	7.348018e+01
2.610000e-06	3.352546e-06	1.061588e-09	2.335179e+01	7.399456e+01
2.620000e-06	3.389464e-06	1.066936e-09	2.360894e+01	7.449808e+01
2.630000e-06	3.426089e-06	1.074117e-09	2.386405e+01	7.499120e+01
2.640000e-06	3.462483e-06	1.080150e-09	2.411755e+01	7.547434e+01
2.650000e-06	3.498634e-06	1.086916e-09	2.436935e+01	7.594789e+01
2.660000e-06	3.534546e-06	1.094444e-09	2.461950e+01	7.641221e+01
2.670000e-06	3.570340e-06	1.101784e-09	2.486882e+01	7.686767e+01
2.680000e-06	3.606065e-06	1.108935e-09	2.511765e+01	7.731457e+01
2.690000e-06	3.641714e-06	1.114084e-09	2.536596e+01	7.775320e+01
2.700000e-06	3.677215e-06	1.118068e-09	2.561324e+01	7.818383e+01
2.710000e-06	3.712470e-06	1.123466e-09	2.585881e+01	7.860670e+01
2.720000e-06	3.747326e-06	1.127612e-09	2.610159e+01	7.902203e+01
2.730000e-06	3.781767e-06	1.135354e-09	2.634149e+01	7.942998e+01
2.740000e-06	3.815797e-06	1.141200e-09	2.657852e+01	7.983073e+01
2.750000e-06	3.849234e-06	1.143715e-09	2.681142e+01	8.022441e+01
2.760000e-06	3.882157e-06	1.149312e-09	2.704074e+01	8.061112e+01
2.770000e-06	3.914720e-06	1.156974e-09	2.726755e+01	8.099097e+01
2.780000e-06	3.947002e-06	1.166170e-09	2.749241e+01	8.136400e+01
2.790000e-06	3.979102e-06	1.173446e-09	2.771600e+01	8.173028e+01
2.800000e-06	4.011013e-06	1.178934e-09	2.793828e+01	8.208982e+01
2.810000e-06	4.042765e-06	1.180816e-09	2.815944e+01	8.244263e+01
2.820000e-06	4.074421e-06	1.182734e-09	2.837993e+01	8.278871e+01
2.830000e-06	4.105856e-06	1.185568e-09	2.859889e+01	8.312804e+01
2.840000e-06	4.137001e-06	1.189067e-09	2.881583e+01	8.346058e+01
2.850000e-06	4.167863e-06	1.195799e-09	2.903080e+01	8.378629e+01
2.860000e-06	4.198290e-06	1.202985e-09	2.924273e+01	8.410511e+01
2.870000e-06	4.228302e-06	1.207238e-09	2.945178e+01	8.441698e+01
2.880000e-06	4.258113e-06	1.211966e-09	2.965942e+01	8.472183e+01
2.890000e-06	4.287724e-06	1.219697e-09	2.986567e+01	8.501959e+01
2.900000e-06	4.317002e-06	1.224170e-09	3.006960e+01	8.531019e+01
