# Temperatura_=_-0.9
# Concentracion g/m^3_=_1620.0
# C_Vs_to_Am_M_A/Vsm_=_65563218390.804596
# pendiente_HvsI_1/m_=_3716.3
# ordenada_HvsI_A/m_=_1297.0
# frecuencia_Hz_=_135104.4190006059

Tiempo_(s)	Campo_(V.s)	Magnetizacion_(V.s)	Campo_(kA/m)	Magnetizacion_(A/m)
0.000000e+00	-5.511514e-06	-1.170165e-09	-3.837058e+01	-7.851798e+01
1.000000e-08	-5.511571e-06	-1.166604e-09	-3.837097e+01	-7.847749e+01
2.000000e-08	-5.511418e-06	-1.165785e-09	-3.836991e+01	-7.843617e+01
3.000000e-08	-5.510974e-06	-1.167216e-09	-3.836682e+01	-7.839387e+01
4.000000e-08	-5.510123e-06	-1.163600e-09	-3.836089e+01	-7.835044e+01
5.000000e-08	-5.508612e-06	-1.148334e-09	-3.835037e+01	-7.830570e+01
6.000000e-08	-5.506346e-06	-1.135227e-09	-3.833459e+01	-7.825945e+01
7.000000e-08	-5.503472e-06	-1.162073e-09	-3.831459e+01	-7.821151e+01
8.000000e-08	-5.500103e-06	-1.252304e-09	-3.829114e+01	-7.816167e+01
9.000000e-08	-5.496256e-06	-1.294460e-09	-3.826436e+01	-7.810971e+01
1.000000e-07	-5.492048e-06	-1.190022e-09	-3.823506e+01	-7.805542e+01
1.100000e-07	-5.487695e-06	-1.097941e-09	-3.820475e+01	-7.799859e+01
1.200000e-07	-5.483188e-06	-1.119517e-09	-3.817337e+01	-7.793900e+01
1.300000e-07	-5.478282e-06	-1.187106e-09	-3.813922e+01	-7.787644e+01
1.400000e-07	-5.472877e-06	-1.189688e-09	-3.810159e+01	-7.781071e+01
1.500000e-07	-5.467099e-06	-1.099966e-09	-3.806137e+01	-7.774161e+01
1.600000e-07	-5.461017e-06	-1.157914e-09	-3.801902e+01	-7.766894e+01
1.700000e-07	-5.454541e-06	-1.207459e-09	-3.797394e+01	-7.759254e+01
1.800000e-07	-5.447704e-06	-1.246481e-09	-3.792634e+01	-7.751224e+01
1.900000e-07	-5.440447e-06	-1.136296e-09	-3.787581e+01	-7.742789e+01
2.000000e-07	-5.432770e-06	-1.128889e-09	-3.782237e+01	-7.733937e+01
2.100000e-07	-5.424842e-06	-1.166108e-09	-3.776717e+01	-7.724654e+01
2.200000e-07	-5.416764e-06	-1.229257e-09	-3.771094e+01	-7.714934e+01
2.300000e-07	-5.408495e-06	-1.196952e-09	-3.765337e+01	-7.704767e+01
2.400000e-07	-5.399728e-06	-1.189837e-09	-3.759234e+01	-7.694150e+01
2.500000e-07	-5.390114e-06	-1.206590e-09	-3.752540e+01	-7.683078e+01
2.600000e-07	-5.379889e-06	-1.195539e-09	-3.745422e+01	-7.671552e+01
2.700000e-07	-5.369130e-06	-1.163418e-09	-3.737931e+01	-7.659572e+01
2.800000e-07	-5.357724e-06	-1.149218e-09	-3.729991e+01	-7.647142e+01
2.900000e-07	-5.345976e-06	-1.196620e-09	-3.721812e+01	-7.634269e+01
3.000000e-07	-5.333908e-06	-1.169548e-09	-3.713410e+01	-7.620959e+01
3.100000e-07	-5.321388e-06	-1.152981e-09	-3.704694e+01	-7.607224e+01
3.200000e-07	-5.308412e-06	-1.139639e-09	-3.695660e+01	-7.593074e+01
3.300000e-07	-5.295142e-06	-1.194627e-09	-3.686422e+01	-7.578524e+01
3.400000e-07	-5.281606e-06	-1.149414e-09	-3.676998e+01	-7.563589e+01
3.500000e-07	-5.267725e-06	-1.158435e-09	-3.667334e+01	-7.548286e+01
3.600000e-07	-5.253391e-06	-1.168842e-09	-3.657356e+01	-7.532633e+01
3.700000e-07	-5.238562e-06	-1.183301e-09	-3.647031e+01	-7.516648e+01
3.800000e-07	-5.223061e-06	-1.120771e-09	-3.636240e+01	-7.500353e+01
3.900000e-07	-5.206973e-06	-1.166151e-09	-3.625040e+01	-7.483768e+01
4.000000e-07	-5.190606e-06	-1.179030e-09	-3.613645e+01	-7.466914e+01
4.100000e-07	-5.173826e-06	-1.128603e-09	-3.601963e+01	-7.449813e+01
4.200000e-07	-5.156638e-06	-1.098061e-09	-3.589997e+01	-7.432487e+01
4.300000e-07	-5.139269e-06	-1.180525e-09	-3.577905e+01	-7.414956e+01
4.400000e-07	-5.121574e-06	-1.164508e-09	-3.565586e+01	-7.397242e+01
4.500000e-07	-5.103455e-06	-1.111863e-09	-3.552971e+01	-7.379365e+01
4.600000e-07	-5.084870e-06	-1.143581e-09	-3.540032e+01	-7.361344e+01
4.700000e-07	-5.065845e-06	-1.170758e-09	-3.526788e+01	-7.343197e+01
4.800000e-07	-5.046540e-06	-1.105553e-09	-3.513347e+01	-7.324942e+01
4.900000e-07	-5.026968e-06	-1.117286e-09	-3.499722e+01	-7.306593e+01
5.000000e-07	-5.007163e-06	-1.162374e-09	-3.485934e+01	-7.288165e+01
5.100000e-07	-4.987148e-06	-1.107337e-09	-3.471999e+01	-7.269669e+01
5.200000e-07	-4.966824e-06	-1.086200e-09	-3.457850e+01	-7.251117e+01
5.300000e-07	-4.946185e-06	-1.154276e-09	-3.443482e+01	-7.232514e+01
5.400000e-07	-4.925197e-06	-1.149553e-09	-3.428870e+01	-7.213869e+01
5.500000e-07	-4.903788e-06	-1.093879e-09	-3.413965e+01	-7.195185e+01
5.600000e-07	-4.882091e-06	-1.128439e-09	-3.398860e+01	-7.176463e+01
5.700000e-07	-4.860118e-06	-1.134369e-09	-3.383563e+01	-7.157702e+01
5.800000e-07	-4.837731e-06	-1.096942e-09	-3.367977e+01	-7.138901e+01
5.900000e-07	-4.814892e-06	-1.106531e-09	-3.352077e+01	-7.120054e+01
6.000000e-07	-4.791745e-06	-1.132590e-09	-3.335962e+01	-7.101154e+01
6.100000e-07	-4.768348e-06	-1.085751e-09	-3.319673e+01	-7.082192e+01
6.200000e-07	-4.744725e-06	-1.084714e-09	-3.303228e+01	-7.063156e+01
6.300000e-07	-4.720928e-06	-1.099666e-09	-3.286660e+01	-7.044035e+01
6.400000e-07	-4.696883e-06	-1.086002e-09	-3.269920e+01	-7.024812e+01
6.500000e-07	-4.672486e-06	-1.072066e-09	-3.252935e+01	-7.005472e+01
6.600000e-07	-4.647672e-06	-1.101541e-09	-3.235660e+01	-6.985998e+01
6.700000e-07	-4.622269e-06	-1.087328e-09	-3.217975e+01	-6.966369e+01
6.800000e-07	-4.596201e-06	-1.081026e-09	-3.199827e+01	-6.946568e+01
6.900000e-07	-4.569658e-06	-1.086058e-09	-3.181347e+01	-6.926571e+01
7.000000e-07	-4.542741e-06	-1.081433e-09	-3.162608e+01	-6.906359e+01
7.100000e-07	-4.515473e-06	-1.059113e-09	-3.143624e+01	-6.885910e+01
7.200000e-07	-4.487955e-06	-1.070126e-09	-3.124467e+01	-6.865200e+01
7.300000e-07	-4.460243e-06	-1.061678e-09	-3.105174e+01	-6.844210e+01
7.400000e-07	-4.432373e-06	-1.049665e-09	-3.085771e+01	-6.822915e+01
7.500000e-07	-4.404255e-06	-1.052864e-09	-3.066195e+01	-6.801295e+01
7.600000e-07	-4.375833e-06	-1.055789e-09	-3.046409e+01	-6.779330e+01
7.700000e-07	-4.347110e-06	-1.035789e-09	-3.026412e+01	-6.756999e+01
7.800000e-07	-4.318034e-06	-1.035964e-09	-3.006170e+01	-6.734282e+01
7.900000e-07	-4.288670e-06	-1.043695e-09	-2.985727e+01	-6.711162e+01
8.000000e-07	-4.259025e-06	-1.029427e-09	-2.965088e+01	-6.687622e+01
8.100000e-07	-4.229055e-06	-1.015160e-09	-2.944223e+01	-6.663647e+01
8.200000e-07	-4.198803e-06	-1.016385e-09	-2.923162e+01	-6.639223e+01
8.300000e-07	-4.168268e-06	-1.013363e-09	-2.901904e+01	-6.614337e+01
8.400000e-07	-4.137425e-06	-1.003645e-09	-2.880431e+01	-6.588979e+01
8.500000e-07	-4.106355e-06	-1.010280e-09	-2.858801e+01	-6.563140e+01
8.600000e-07	-4.075065e-06	-1.010263e-09	-2.837017e+01	-6.536813e+01
8.700000e-07	-4.043519e-06	-1.000435e-09	-2.815055e+01	-6.509993e+01
8.800000e-07	-4.011805e-06	-9.927130e-10	-2.792976e+01	-6.482675e+01
8.900000e-07	-3.979943e-06	-9.936874e-10	-2.770794e+01	-6.454858e+01
9.000000e-07	-3.947862e-06	-9.730072e-10	-2.748460e+01	-6.426543e+01
9.100000e-07	-3.915491e-06	-9.615357e-10	-2.725923e+01	-6.397729e+01
9.200000e-07	-3.882798e-06	-9.581976e-10	-2.703163e+01	-6.368422e+01
9.300000e-07	-3.849736e-06	-9.582062e-10	-2.680146e+01	-6.338624e+01
9.400000e-07	-3.816038e-06	-9.504992e-10	-2.656685e+01	-6.308341e+01
9.500000e-07	-3.781765e-06	-9.570487e-10	-2.632825e+01	-6.277582e+01
9.600000e-07	-3.747192e-06	-9.523915e-10	-2.608755e+01	-6.246353e+01
9.700000e-07	-3.712244e-06	-9.408981e-10	-2.584425e+01	-6.214664e+01
9.800000e-07	-3.676935e-06	-9.301235e-10	-2.559844e+01	-6.182524e+01
9.900000e-07	-3.641416e-06	-9.303190e-10	-2.535116e+01	-6.149944e+01
1.000000e-06	-3.605757e-06	-9.221649e-10	-2.510290e+01	-6.116934e+01
1.010000e-06	-3.569911e-06	-9.192820e-10	-2.485334e+01	-6.083507e+01
1.020000e-06	-3.533910e-06	-9.189777e-10	-2.460271e+01	-6.049671e+01
1.030000e-06	-3.497836e-06	-9.148376e-10	-2.435156e+01	-6.015439e+01
1.040000e-06	-3.461591e-06	-9.041239e-10	-2.409923e+01	-5.980821e+01
1.050000e-06	-3.425082e-06	-8.992413e-10	-2.384506e+01	-5.945827e+01
1.060000e-06	-3.388291e-06	-8.920577e-10	-2.358892e+01	-5.910466e+01
1.070000e-06	-3.351227e-06	-8.842443e-10	-2.333089e+01	-5.874749e+01
1.080000e-06	-3.313893e-06	-8.800017e-10	-2.307098e+01	-5.838681e+01
1.090000e-06	-3.276314e-06	-8.749691e-10	-2.280935e+01	-5.802270e+01
1.100000e-06	-3.238518e-06	-8.651944e-10	-2.254622e+01	-5.765522e+01
1.110000e-06	-3.200552e-06	-8.545550e-10	-2.228191e+01	-5.728441e+01
1.120000e-06	-3.162434e-06	-8.454326e-10	-2.201653e+01	-5.691030e+01
1.130000e-06	-3.124042e-06	-8.345463e-10	-2.174925e+01	-5.653291e+01
1.140000e-06	-3.085364e-06	-8.294714e-10	-2.147998e+01	-5.615223e+01
1.150000e-06	-3.046450e-06	-8.255267e-10	-2.120906e+01	-5.576824e+01
1.160000e-06	-3.007302e-06	-8.227210e-10	-2.093652e+01	-5.538092e+01
1.170000e-06	-2.968026e-06	-8.167806e-10	-2.066308e+01	-5.499022e+01
1.180000e-06	-2.928652e-06	-8.141907e-10	-2.038896e+01	-5.459606e+01
1.190000e-06	-2.889147e-06	-8.063130e-10	-2.011393e+01	-5.419838e+01
1.200000e-06	-2.849500e-06	-7.960366e-10	-1.983791e+01	-5.379707e+01
1.210000e-06	-2.809696e-06	-7.832792e-10	-1.956081e+01	-5.339201e+01
1.220000e-06	-2.769743e-06	-7.741252e-10	-1.928266e+01	-5.298308e+01
1.230000e-06	-2.729677e-06	-7.650607e-10	-1.900372e+01	-5.257014e+01
1.240000e-06	-2.689519e-06	-7.616488e-10	-1.872415e+01	-5.215302e+01
1.250000e-06	-2.649179e-06	-7.570609e-10	-1.844331e+01	-5.173155e+01
1.260000e-06	-2.608584e-06	-7.516599e-10	-1.816069e+01	-5.130555e+01
1.270000e-06	-2.567688e-06	-7.434556e-10	-1.787597e+01	-5.087483e+01
1.280000e-06	-2.526466e-06	-7.373382e-10	-1.758899e+01	-5.043916e+01
1.290000e-06	-2.485005e-06	-7.290550e-10	-1.730034e+01	-4.999835e+01
1.300000e-06	-2.443187e-06	-7.210076e-10	-1.700921e+01	-4.955215e+01
1.310000e-06	-2.401025e-06	-7.106028e-10	-1.671568e+01	-4.910033e+01
1.320000e-06	-2.358703e-06	-7.006998e-10	-1.642104e+01	-4.864266e+01
1.330000e-06	-2.316107e-06	-6.923847e-10	-1.612449e+01	-4.817887e+01
1.340000e-06	-2.273153e-06	-6.864873e-10	-1.582545e+01	-4.770872e+01
1.350000e-06	-2.229928e-06	-6.806575e-10	-1.552452e+01	-4.723195e+01
1.360000e-06	-2.186518e-06	-6.759810e-10	-1.522231e+01	-4.674829e+01
1.370000e-06	-2.143016e-06	-6.729322e-10	-1.491945e+01	-4.625747e+01
1.380000e-06	-2.099445e-06	-6.692285e-10	-1.461612e+01	-4.575923e+01
1.390000e-06	-2.055740e-06	-6.596096e-10	-1.431185e+01	-4.525329e+01
1.400000e-06	-2.011938e-06	-6.462163e-10	-1.400690e+01	-4.473937e+01
1.410000e-06	-1.968071e-06	-6.328396e-10	-1.370150e+01	-4.421721e+01
1.420000e-06	-1.924122e-06	-6.217884e-10	-1.339553e+01	-4.368653e+01
1.430000e-06	-1.880076e-06	-6.163195e-10	-1.308889e+01	-4.314703e+01
1.440000e-06	-1.835908e-06	-6.120714e-10	-1.278140e+01	-4.259846e+01
1.450000e-06	-1.791613e-06	-6.068770e-10	-1.247302e+01	-4.204053e+01
1.460000e-06	-1.747255e-06	-5.990892e-10	-1.216420e+01	-4.147296e+01
1.470000e-06	-1.702852e-06	-5.895292e-10	-1.185507e+01	-4.089547e+01
1.480000e-06	-1.658366e-06	-5.770154e-10	-1.154537e+01	-4.030779e+01
1.490000e-06	-1.613680e-06	-5.649589e-10	-1.123427e+01	-3.970962e+01
1.500000e-06	-1.568709e-06	-5.537524e-10	-1.092118e+01	-3.910070e+01
1.510000e-06	-1.523582e-06	-5.441269e-10	-1.060702e+01	-3.848074e+01
1.520000e-06	-1.478450e-06	-5.343414e-10	-1.029281e+01	-3.784945e+01
1.530000e-06	-1.433303e-06	-5.255573e-10	-9.978505e+00	-3.720657e+01
1.540000e-06	-1.388022e-06	-5.126494e-10	-9.663262e+00	-3.655180e+01
1.550000e-06	-1.342647e-06	-4.996351e-10	-9.347370e+00	-3.588487e+01
1.560000e-06	-1.297259e-06	-4.857029e-10	-9.031377e+00	-3.520550e+01
1.570000e-06	-1.251721e-06	-4.741844e-10	-8.714346e+00	-3.451339e+01
1.580000e-06	-1.206021e-06	-4.634223e-10	-8.396194e+00	-3.380828e+01
1.590000e-06	-1.160228e-06	-4.531845e-10	-8.077383e+00	-3.308989e+01
1.600000e-06	-1.114367e-06	-4.430271e-10	-7.758107e+00	-3.235793e+01
1.610000e-06	-1.068531e-06	-4.301418e-10	-7.439001e+00	-3.161214e+01
1.620000e-06	-1.022612e-06	-4.182735e-10	-7.119316e+00	-3.085225e+01
1.630000e-06	-9.765225e-07	-4.111133e-10	-6.798446e+00	-3.007798e+01
1.640000e-06	-9.303928e-07	-4.039918e-10	-6.477296e+00	-2.928909e+01
1.650000e-06	-8.842354e-07	-3.916558e-10	-6.155953e+00	-2.848531e+01
1.660000e-06	-8.379468e-07	-3.776659e-10	-5.833697e+00	-2.766641e+01
1.670000e-06	-7.915845e-07	-3.622501e-10	-5.510928e+00	-2.683216e+01
1.680000e-06	-7.452519e-07	-3.449746e-10	-5.188365e+00	-2.598232e+01
1.690000e-06	-6.989033e-07	-3.295057e-10	-4.865691e+00	-2.511671e+01
1.700000e-06	-6.525754e-07	-3.147118e-10	-4.543161e+00	-2.423511e+01
1.710000e-06	-6.061816e-07	-3.004399e-10	-4.220172e+00	-2.333737e+01
1.720000e-06	-5.596095e-07	-2.851475e-10	-3.895942e+00	-2.242333e+01
1.730000e-06	-5.130399e-07	-2.681681e-10	-3.571730e+00	-2.149286e+01
1.740000e-06	-4.664948e-07	-2.504091e-10	-3.247688e+00	-2.054585e+01
1.750000e-06	-4.199034e-07	-2.336418e-10	-2.923323e+00	-1.958223e+01
1.760000e-06	-3.732508e-07	-2.206710e-10	-2.598532e+00	-1.860194e+01
1.770000e-06	-3.265176e-07	-2.092499e-10	-2.273181e+00	-1.760498e+01
1.780000e-06	-2.798181e-07	-1.977402e-10	-1.948064e+00	-1.659135e+01
1.790000e-06	-2.331478e-07	-1.852416e-10	-1.623150e+00	-1.556110e+01
1.800000e-06	-1.863816e-07	-1.691340e-10	-1.297569e+00	-1.451434e+01
1.810000e-06	-1.395757e-07	-1.505298e-10	-9.717109e-01	-1.345120e+01
1.820000e-06	-9.281623e-08	-1.321571e-10	-6.461767e-01	-1.237184e+01
1.830000e-06	-4.610770e-08	-1.169150e-10	-3.209970e-01	-1.127649e+01
1.840000e-06	5.953486e-10	-1.028411e-10	4.144754e-03	-1.016541e+01
1.850000e-06	4.737136e-08	-8.898393e-11	3.297944e-01	-9.038922e+00
1.860000e-06	9.413605e-08	-7.773478e-11	6.553652e-01	-7.897378e+00
1.870000e-06	1.408267e-07	-6.452184e-11	9.804207e-01	-6.741194e+00
1.880000e-06	1.875533e-07	-4.939223e-11	1.305726e+00	-5.570828e+00
1.890000e-06	2.342697e-07	-3.092884e-11	1.630961e+00	-4.386794e+00
1.900000e-06	2.809601e-07	-1.123600e-11	1.956014e+00	-3.189652e+00
1.910000e-06	3.276464e-07	9.914796e-12	2.281040e+00	-1.980018e+00
1.920000e-06	3.743499e-07	2.935081e-11	2.606184e+00	-7.585521e-01
1.930000e-06	4.210825e-07	4.638783e-11	2.931532e+00	4.740325e-01
1.940000e-06	4.677265e-07	6.256371e-11	3.256262e+00	1.716976e+00
1.950000e-06	5.142713e-07	7.702527e-11	3.580302e+00	2.969473e+00
1.960000e-06	5.607347e-07	9.230557e-11	3.903776e+00	4.230671e+00
1.970000e-06	6.071151e-07	1.092483e-10	4.226671e+00	5.499679e+00
1.980000e-06	6.534670e-07	1.261412e-10	4.549368e+00	6.775562e+00
1.990000e-06	6.997876e-07	1.463072e-10	4.871847e+00	8.057351e+00
2.000000e-06	7.460250e-07	1.659861e-10	5.193747e+00	9.344043e+00
2.010000e-06	7.922564e-07	1.851546e-10	5.515605e+00	1.063460e+01
2.020000e-06	8.385055e-07	2.055025e-10	5.837587e+00	1.192797e+01
2.030000e-06	8.847147e-07	2.263905e-10	6.159290e+00	1.322305e+01
2.040000e-06	9.307893e-07	2.444985e-10	6.480057e+00	1.451876e+01
2.050000e-06	9.767564e-07	2.589468e-10	6.800075e+00	1.581396e+01
2.060000e-06	1.022652e-06	2.732208e-10	7.119592e+00	1.710754e+01
2.070000e-06	1.068477e-06	2.881548e-10	7.438624e+00	1.839836e+01
2.080000e-06	1.114250e-06	3.084825e-10	7.757293e+00	1.968527e+01
2.090000e-06	1.159898e-06	3.311502e-10	8.075088e+00	2.096717e+01
2.100000e-06	1.205495e-06	3.511800e-10	8.392526e+00	2.224291e+01
2.110000e-06	1.251028e-06	3.653547e-10	8.709523e+00	2.351139e+01
2.120000e-06	1.296517e-06	3.795389e-10	9.026216e+00	2.477151e+01
2.130000e-06	1.341996e-06	3.952452e-10	9.342834e+00	2.602222e+01
2.140000e-06	1.387342e-06	4.138937e-10	9.658531e+00	2.726247e+01
2.150000e-06	1.432516e-06	4.364451e-10	9.973022e+00	2.849124e+01
2.160000e-06	1.477529e-06	4.586806e-10	1.028640e+01	2.970755e+01
2.170000e-06	1.522434e-06	4.762592e-10	1.059903e+01	3.091048e+01
2.180000e-06	1.567266e-06	4.912263e-10	1.091114e+01	3.209913e+01
2.190000e-06	1.611917e-06	5.033738e-10	1.122200e+01	3.327266e+01
2.200000e-06	1.656436e-06	5.158042e-10	1.153193e+01	3.443025e+01
2.210000e-06	1.700909e-06	5.314519e-10	1.184155e+01	3.557118e+01
2.220000e-06	1.745273e-06	5.502607e-10	1.215041e+01	3.669474e+01
2.230000e-06	1.789528e-06	5.700040e-10	1.245850e+01	3.780031e+01
2.240000e-06	1.833763e-06	5.857607e-10	1.276646e+01	3.888730e+01
2.250000e-06	1.877973e-06	5.982561e-10	1.307425e+01	3.995521e+01
2.260000e-06	1.922042e-06	6.056883e-10	1.338105e+01	4.100358e+01
2.270000e-06	1.965966e-06	6.166986e-10	1.368685e+01	4.203201e+01
2.280000e-06	2.009805e-06	6.325024e-10	1.399205e+01	4.304018e+01
2.290000e-06	2.053638e-06	6.501247e-10	1.429721e+01	4.402781e+01
2.300000e-06	2.097387e-06	6.674723e-10	1.460179e+01	4.499470e+01
2.310000e-06	2.141011e-06	6.824023e-10	1.490549e+01	4.594069e+01
2.320000e-06	2.184586e-06	6.962414e-10	1.520886e+01	4.686570e+01
2.330000e-06	2.227942e-06	7.079589e-10	1.551070e+01	4.776970e+01
2.340000e-06	2.271072e-06	7.189475e-10	1.581097e+01	4.865269e+01
2.350000e-06	2.314058e-06	7.324344e-10	1.611023e+01	4.951477e+01
2.360000e-06	2.356846e-06	7.471882e-10	1.640811e+01	5.035604e+01
2.370000e-06	2.399363e-06	7.600736e-10	1.670411e+01	5.117669e+01
2.380000e-06	2.441535e-06	7.692024e-10	1.699771e+01	5.197693e+01
2.390000e-06	2.483316e-06	7.777309e-10	1.728859e+01	5.275701e+01
2.400000e-06	2.524625e-06	7.877050e-10	1.757617e+01	5.351723e+01
2.410000e-06	2.565642e-06	7.976825e-10	1.786173e+01	5.425792e+01
2.420000e-06	2.606488e-06	8.073947e-10	1.814609e+01	5.497944e+01
2.430000e-06	2.647094e-06	8.207657e-10	1.842879e+01	5.568217e+01
2.440000e-06	2.687556e-06	8.355487e-10	1.871048e+01	5.636653e+01
2.450000e-06	2.727859e-06	8.459035e-10	1.899106e+01	5.703293e+01
2.460000e-06	2.767943e-06	8.550467e-10	1.927013e+01	5.768183e+01
2.470000e-06	2.807928e-06	8.625464e-10	1.954850e+01	5.831369e+01
2.480000e-06	2.847803e-06	8.696335e-10	1.982610e+01	5.892897e+01
2.490000e-06	2.887514e-06	8.773867e-10	2.010257e+01	5.952813e+01
2.500000e-06	2.927090e-06	8.861166e-10	2.037809e+01	6.011167e+01
2.510000e-06	2.966536e-06	8.955115e-10	2.065271e+01	6.068004e+01
2.520000e-06	3.005850e-06	9.044016e-10	2.092641e+01	6.123371e+01
2.530000e-06	3.044958e-06	9.126832e-10	2.119867e+01	6.177316e+01
2.540000e-06	3.083812e-06	9.192321e-10	2.146917e+01	6.229882e+01
2.550000e-06	3.122411e-06	9.247915e-10	2.173790e+01	6.281116e+01
2.560000e-06	3.160698e-06	9.308899e-10	2.200445e+01	6.331058e+01
2.570000e-06	3.198758e-06	9.366592e-10	2.226942e+01	6.379752e+01
2.580000e-06	3.236672e-06	9.423968e-10	2.253337e+01	6.427238e+01
2.590000e-06	3.274382e-06	9.489701e-10	2.279590e+01	6.473552e+01
2.600000e-06	3.311861e-06	9.573252e-10	2.305683e+01	6.518732e+01
2.610000e-06	3.349046e-06	9.640359e-10	2.331570e+01	6.562813e+01
2.620000e-06	3.385945e-06	9.691970e-10	2.357259e+01	6.605827e+01
2.630000e-06	3.422624e-06	9.739444e-10	2.382795e+01	6.647805e+01
2.640000e-06	3.459103e-06	9.793784e-10	2.408191e+01	6.688775e+01
2.650000e-06	3.495352e-06	9.867205e-10	2.433427e+01	6.728766e+01
2.660000e-06	3.531435e-06	9.933748e-10	2.458547e+01	6.767802e+01
2.670000e-06	3.567441e-06	9.967875e-10	2.483615e+01	6.805906e+01
2.680000e-06	3.603285e-06	9.994667e-10	2.508569e+01	6.843101e+01
2.690000e-06	3.638939e-06	1.004361e-09	2.533391e+01	6.879407e+01
2.700000e-06	3.674485e-06	1.008512e-09	2.558137e+01	6.914843e+01
2.710000e-06	3.709817e-06	1.012412e-09	2.582735e+01	6.949427e+01
2.720000e-06	3.744745e-06	1.019482e-09	2.607052e+01	6.983174e+01
2.730000e-06	3.779207e-06	1.026652e-09	2.631044e+01	7.016101e+01
2.740000e-06	3.813188e-06	1.031720e-09	2.654701e+01	7.048222e+01
2.750000e-06	3.846705e-06	1.035638e-09	2.678035e+01	7.079550e+01
2.760000e-06	3.879766e-06	1.038728e-09	2.701052e+01	7.110099e+01
2.770000e-06	3.912466e-06	1.040261e-09	2.723817e+01	7.139881e+01
2.780000e-06	3.944870e-06	1.042622e-09	2.746377e+01	7.168909e+01
2.790000e-06	3.977041e-06	1.047073e-09	2.768774e+01	7.197195e+01
2.800000e-06	4.009057e-06	1.052836e-09	2.791063e+01	7.224751e+01
2.810000e-06	4.040918e-06	1.058327e-09	2.813245e+01	7.251588e+01
2.820000e-06	4.072627e-06	1.063389e-09	2.835320e+01	7.277719e+01
2.830000e-06	4.104070e-06	1.067912e-09	2.857210e+01	7.303157e+01
2.840000e-06	4.135231e-06	1.071834e-09	2.878904e+01	7.327912e+01
2.850000e-06	4.166067e-06	1.077274e-09	2.900372e+01	7.351998e+01
2.860000e-06	4.196529e-06	1.080391e-09	2.921579e+01	7.375429e+01
2.870000e-06	4.226681e-06	1.079750e-09	2.942571e+01	7.398216e+01
2.880000e-06	4.256575e-06	1.079898e-09	2.963382e+01	7.420374e+01
2.890000e-06	4.286199e-06	1.083040e-09	2.984006e+01	7.441918e+01
2.900000e-06	4.315511e-06	1.088490e-09	3.004413e+01	7.462860e+01
2.910000e-06	4.344600e-06	1.096152e-09	3.024665e+01	7.483215e+01
