# Temperatura_=_-0.6
# Concentracion g/m^3_=_1620.0
# C_Vs_to_Am_M_A/Vsm_=_65563218390.804596
# pendiente_HvsI_1/m_=_3716.3
# ordenada_HvsI_A/m_=_1297.0
# frecuencia_Hz_=_135101.6115631191

Tiempo_(s)	Campo_(V.s)	Magnetizacion_(V.s)	Campo_(kA/m)	Magnetizacion_(A/m)
0.000000e+00	-5.527571e-06	-1.368147e-09	-3.836401e+01	-8.983881e+01
1.000000e-08	-5.527664e-06	-1.363228e-09	-3.836465e+01	-8.976367e+01
2.000000e-08	-5.527492e-06	-1.358790e-09	-3.836346e+01	-8.968695e+01
3.000000e-08	-5.526990e-06	-1.356581e-09	-3.835997e+01	-8.960873e+01
4.000000e-08	-5.525936e-06	-1.354526e-09	-3.835266e+01	-8.952910e+01
5.000000e-08	-5.524202e-06	-1.353483e-09	-3.834062e+01	-8.944812e+01
6.000000e-08	-5.521901e-06	-1.359231e-09	-3.832465e+01	-8.936589e+01
7.000000e-08	-5.519081e-06	-1.348532e-09	-3.830508e+01	-8.928246e+01
8.000000e-08	-5.515699e-06	-1.325330e-09	-3.828161e+01	-8.919790e+01
9.000000e-08	-5.511945e-06	-1.409161e-09	-3.825556e+01	-8.911227e+01
1.000000e-07	-5.507821e-06	-1.508641e-09	-3.822693e+01	-8.902563e+01
1.100000e-07	-5.503339e-06	-1.363855e-09	-3.819582e+01	-8.893802e+01
1.200000e-07	-5.498795e-06	-1.217097e-09	-3.816428e+01	-8.884947e+01
1.300000e-07	-5.494031e-06	-1.270485e-09	-3.813122e+01	-8.876001e+01
1.400000e-07	-5.488728e-06	-1.448990e-09	-3.809442e+01	-8.866968e+01
1.500000e-07	-5.482882e-06	-1.387751e-09	-3.805384e+01	-8.857847e+01
1.600000e-07	-5.476756e-06	-1.229099e-09	-3.801133e+01	-8.848641e+01
1.700000e-07	-5.470348e-06	-1.322421e-09	-3.796685e+01	-8.839347e+01
1.800000e-07	-5.463419e-06	-1.462881e-09	-3.791876e+01	-8.829964e+01
1.900000e-07	-5.456059e-06	-1.394517e-09	-3.786768e+01	-8.820490e+01
2.000000e-07	-5.448419e-06	-1.211534e-09	-3.781465e+01	-8.810921e+01
2.100000e-07	-5.440568e-06	-1.253579e-09	-3.776016e+01	-8.801252e+01
2.200000e-07	-5.432444e-06	-1.366061e-09	-3.770378e+01	-8.791479e+01
2.300000e-07	-5.423986e-06	-1.369314e-09	-3.764508e+01	-8.781594e+01
2.400000e-07	-5.415187e-06	-1.273759e-09	-3.758401e+01	-8.771589e+01
2.500000e-07	-5.405700e-06	-1.287231e-09	-3.751816e+01	-8.761457e+01
2.600000e-07	-5.395265e-06	-1.313993e-09	-3.744574e+01	-8.751186e+01
2.700000e-07	-5.384255e-06	-1.308176e-09	-3.736933e+01	-8.740768e+01
2.800000e-07	-5.372920e-06	-1.280408e-09	-3.729065e+01	-8.730189e+01
2.900000e-07	-5.361122e-06	-1.293566e-09	-3.720877e+01	-8.719439e+01
3.000000e-07	-5.348953e-06	-1.304999e-09	-3.712431e+01	-8.708503e+01
3.100000e-07	-5.336510e-06	-1.311968e-09	-3.703795e+01	-8.697369e+01
3.200000e-07	-5.323564e-06	-1.292286e-09	-3.694810e+01	-8.686021e+01
3.300000e-07	-5.310129e-06	-1.269246e-09	-3.685486e+01	-8.674445e+01
3.400000e-07	-5.296446e-06	-1.303518e-09	-3.675989e+01	-8.662625e+01
3.500000e-07	-5.282387e-06	-1.319361e-09	-3.666231e+01	-8.650544e+01
3.600000e-07	-5.267616e-06	-1.271078e-09	-3.655979e+01	-8.638188e+01
3.700000e-07	-5.252515e-06	-1.280318e-09	-3.645498e+01	-8.625539e+01
3.800000e-07	-5.237088e-06	-1.334943e-09	-3.634792e+01	-8.612580e+01
3.900000e-07	-5.220997e-06	-1.273136e-09	-3.623624e+01	-8.599295e+01
4.000000e-07	-5.204521e-06	-1.234704e-09	-3.612188e+01	-8.585668e+01
4.100000e-07	-5.187802e-06	-1.324428e-09	-3.600584e+01	-8.571681e+01
4.200000e-07	-5.170676e-06	-1.319901e-09	-3.588698e+01	-8.557320e+01
4.300000e-07	-5.153109e-06	-1.198977e-09	-3.576506e+01	-8.542568e+01
4.400000e-07	-5.135267e-06	-1.280687e-09	-3.564123e+01	-8.527409e+01
4.500000e-07	-5.117114e-06	-1.366918e-09	-3.551524e+01	-8.511830e+01
4.600000e-07	-5.098438e-06	-1.245102e-09	-3.538561e+01	-8.495817e+01
4.700000e-07	-5.079295e-06	-1.202430e-09	-3.525275e+01	-8.479357e+01
4.800000e-07	-5.059899e-06	-1.343606e-09	-3.511814e+01	-8.462437e+01
4.900000e-07	-5.040282e-06	-1.289905e-09	-3.498199e+01	-8.445046e+01
5.000000e-07	-5.020501e-06	-1.195286e-09	-3.484470e+01	-8.427175e+01
5.100000e-07	-5.000512e-06	-1.292067e-09	-3.470596e+01	-8.408815e+01
5.200000e-07	-4.980205e-06	-1.313380e-09	-3.456502e+01	-8.389957e+01
5.300000e-07	-4.959486e-06	-1.187534e-09	-3.442122e+01	-8.370596e+01
5.400000e-07	-4.938406e-06	-1.257417e-09	-3.427492e+01	-8.350726e+01
5.500000e-07	-4.917049e-06	-1.334501e-09	-3.412669e+01	-8.330345e+01
5.600000e-07	-4.895333e-06	-1.213612e-09	-3.397597e+01	-8.309448e+01
5.700000e-07	-4.873242e-06	-1.192438e-09	-3.382265e+01	-8.288036e+01
5.800000e-07	-4.850872e-06	-1.308730e-09	-3.366739e+01	-8.266109e+01
5.900000e-07	-4.828078e-06	-1.249376e-09	-3.350919e+01	-8.243669e+01
6.000000e-07	-4.804851e-06	-1.176866e-09	-3.334798e+01	-8.220720e+01
6.100000e-07	-4.781380e-06	-1.256385e-09	-3.318508e+01	-8.197265e+01
6.200000e-07	-4.757690e-06	-1.252123e-09	-3.302066e+01	-8.173311e+01
6.300000e-07	-4.733780e-06	-1.171901e-09	-3.285471e+01	-8.148865e+01
6.400000e-07	-4.709650e-06	-1.214934e-09	-3.268724e+01	-8.123935e+01
6.500000e-07	-4.685206e-06	-1.247521e-09	-3.251759e+01	-8.098531e+01
6.600000e-07	-4.660265e-06	-1.181067e-09	-3.234449e+01	-8.072664e+01
6.700000e-07	-4.634766e-06	-1.190653e-09	-3.216751e+01	-8.046344e+01
6.800000e-07	-4.608671e-06	-1.231752e-09	-3.198640e+01	-8.019585e+01
6.900000e-07	-4.582005e-06	-1.192545e-09	-3.180133e+01	-7.992399e+01
7.000000e-07	-4.554950e-06	-1.168924e-09	-3.161355e+01	-7.964800e+01
7.100000e-07	-4.527550e-06	-1.204190e-09	-3.142338e+01	-7.936802e+01
7.200000e-07	-4.499890e-06	-1.185734e-09	-3.123140e+01	-7.908420e+01
7.300000e-07	-4.472131e-06	-1.158052e-09	-3.103874e+01	-7.879668e+01
7.400000e-07	-4.444249e-06	-1.172270e-09	-3.084523e+01	-7.850561e+01
7.500000e-07	-4.416182e-06	-1.175750e-09	-3.065043e+01	-7.821114e+01
7.600000e-07	-4.387789e-06	-1.148031e-09	-3.045337e+01	-7.791341e+01
7.700000e-07	-4.358964e-06	-1.153986e-09	-3.025331e+01	-7.761256e+01
7.800000e-07	-4.329806e-06	-1.156943e-09	-3.005094e+01	-7.730873e+01
7.900000e-07	-4.300327e-06	-1.141545e-09	-2.984634e+01	-7.700206e+01
8.000000e-07	-4.270586e-06	-1.137712e-09	-2.963993e+01	-7.669266e+01
8.100000e-07	-4.240615e-06	-1.141786e-09	-2.943191e+01	-7.638065e+01
8.200000e-07	-4.210279e-06	-1.118942e-09	-2.922136e+01	-7.606613e+01
8.300000e-07	-4.179607e-06	-1.110377e-09	-2.900848e+01	-7.574920e+01
8.400000e-07	-4.148609e-06	-1.119669e-09	-2.879334e+01	-7.542995e+01
8.500000e-07	-4.117330e-06	-1.113260e-09	-2.857625e+01	-7.510843e+01
8.600000e-07	-4.085804e-06	-1.098943e-09	-2.835745e+01	-7.478471e+01
8.700000e-07	-4.054105e-06	-1.106644e-09	-2.813744e+01	-7.445883e+01
8.800000e-07	-4.022276e-06	-1.102464e-09	-2.791653e+01	-7.413081e+01
8.900000e-07	-3.990292e-06	-1.084657e-09	-2.769455e+01	-7.380066e+01
9.000000e-07	-3.958200e-06	-1.082142e-09	-2.747182e+01	-7.346839e+01
9.100000e-07	-3.925774e-06	-1.079985e-09	-2.724676e+01	-7.313397e+01
9.200000e-07	-3.892772e-06	-1.061181e-09	-2.701771e+01	-7.279737e+01
9.300000e-07	-3.859262e-06	-1.059216e-09	-2.678514e+01	-7.245854e+01
9.400000e-07	-3.825355e-06	-1.071574e-09	-2.654980e+01	-7.211741e+01
9.500000e-07	-3.791011e-06	-1.061275e-09	-2.631144e+01	-7.177390e+01
9.600000e-07	-3.756323e-06	-1.045255e-09	-2.607069e+01	-7.142792e+01
9.700000e-07	-3.721315e-06	-1.044311e-09	-2.582772e+01	-7.107936e+01
9.800000e-07	-3.685978e-06	-1.037185e-09	-2.558246e+01	-7.072809e+01
9.900000e-07	-3.650420e-06	-1.019558e-09	-2.533567e+01	-7.037399e+01
1.000000e-06	-3.614694e-06	-1.021146e-09	-2.508771e+01	-7.001692e+01
1.010000e-06	-3.578894e-06	-1.023853e-09	-2.483925e+01	-6.965670e+01
1.020000e-06	-3.543003e-06	-1.015159e-09	-2.459015e+01	-6.929320e+01
1.030000e-06	-3.506930e-06	-1.007932e-09	-2.433978e+01	-6.892623e+01
1.040000e-06	-3.470593e-06	-1.008240e-09	-2.408759e+01	-6.855561e+01
1.050000e-06	-3.433979e-06	-9.949264e-10	-2.383347e+01	-6.818118e+01
1.060000e-06	-3.397053e-06	-9.830154e-10	-2.357718e+01	-6.780273e+01
1.070000e-06	-3.359874e-06	-9.818368e-10	-2.331914e+01	-6.742009e+01
1.080000e-06	-3.322490e-06	-9.785342e-10	-2.305968e+01	-6.703307e+01
1.090000e-06	-3.284811e-06	-9.680868e-10	-2.279817e+01	-6.664147e+01
1.100000e-06	-3.246880e-06	-9.670896e-10	-2.253491e+01	-6.624511e+01
1.110000e-06	-3.208742e-06	-9.636385e-10	-2.227022e+01	-6.584381e+01
1.120000e-06	-3.170425e-06	-9.519609e-10	-2.200428e+01	-6.543738e+01
1.130000e-06	-3.131869e-06	-9.422040e-10	-2.173668e+01	-6.502565e+01
1.140000e-06	-3.093029e-06	-9.389526e-10	-2.146711e+01	-6.460845e+01
1.150000e-06	-3.053985e-06	-9.279063e-10	-2.119613e+01	-6.418561e+01
1.160000e-06	-3.014788e-06	-9.181479e-10	-2.092408e+01	-6.375698e+01
1.170000e-06	-2.975420e-06	-9.154954e-10	-2.065085e+01	-6.332241e+01
1.180000e-06	-2.935918e-06	-9.132289e-10	-2.037669e+01	-6.288175e+01
1.190000e-06	-2.896274e-06	-9.068727e-10	-2.010154e+01	-6.243488e+01
1.200000e-06	-2.856456e-06	-9.009493e-10	-1.982518e+01	-6.198167e+01
1.210000e-06	-2.816564e-06	-8.920898e-10	-1.954831e+01	-6.152200e+01
1.220000e-06	-2.776620e-06	-8.767697e-10	-1.927108e+01	-6.105576e+01
1.230000e-06	-2.736466e-06	-8.646602e-10	-1.899240e+01	-6.058287e+01
1.240000e-06	-2.695959e-06	-8.566941e-10	-1.871125e+01	-6.010321e+01
1.250000e-06	-2.655194e-06	-8.504571e-10	-1.842832e+01	-5.961672e+01
1.260000e-06	-2.614206e-06	-8.446848e-10	-1.814385e+01	-5.912330e+01
1.270000e-06	-2.572922e-06	-8.406666e-10	-1.785732e+01	-5.862289e+01
1.280000e-06	-2.531436e-06	-8.347685e-10	-1.756938e+01	-5.811541e+01
1.290000e-06	-2.489741e-06	-8.238589e-10	-1.728000e+01	-5.760078e+01
1.300000e-06	-2.447759e-06	-8.109789e-10	-1.698863e+01	-5.707896e+01
1.310000e-06	-2.405417e-06	-7.997915e-10	-1.669475e+01	-5.654986e+01
1.320000e-06	-2.362700e-06	-7.879306e-10	-1.639828e+01	-5.601341e+01
1.330000e-06	-2.319748e-06	-7.782110e-10	-1.610017e+01	-5.546955e+01
1.340000e-06	-2.276686e-06	-7.715938e-10	-1.580130e+01	-5.491819e+01
1.350000e-06	-2.233429e-06	-7.663158e-10	-1.550107e+01	-5.435926e+01
1.360000e-06	-2.189886e-06	-7.569548e-10	-1.519887e+01	-5.379264e+01
1.370000e-06	-2.146254e-06	-7.494031e-10	-1.489603e+01	-5.321825e+01
1.380000e-06	-2.102562e-06	-7.428110e-10	-1.459279e+01	-5.263597e+01
1.390000e-06	-2.058771e-06	-7.324714e-10	-1.428887e+01	-5.204566e+01
1.400000e-06	-2.014919e-06	-7.196125e-10	-1.398451e+01	-5.144718e+01
1.410000e-06	-1.971039e-06	-7.094897e-10	-1.367996e+01	-5.084038e+01
1.420000e-06	-1.927129e-06	-6.994280e-10	-1.337520e+01	-5.022508e+01
1.430000e-06	-1.883089e-06	-6.909015e-10	-1.306954e+01	-4.960107e+01
1.440000e-06	-1.838964e-06	-6.829277e-10	-1.276330e+01	-4.896815e+01
1.450000e-06	-1.794755e-06	-6.727191e-10	-1.245646e+01	-4.832608e+01
1.460000e-06	-1.750271e-06	-6.593645e-10	-1.214773e+01	-4.767460e+01
1.470000e-06	-1.705688e-06	-6.465726e-10	-1.183829e+01	-4.701343e+01
1.480000e-06	-1.661102e-06	-6.372644e-10	-1.152884e+01	-4.634228e+01
1.490000e-06	-1.616329e-06	-6.308638e-10	-1.121810e+01	-4.566082e+01
1.500000e-06	-1.571325e-06	-6.260529e-10	-1.090575e+01	-4.496870e+01
1.510000e-06	-1.526172e-06	-6.165726e-10	-1.059237e+01	-4.426556e+01
1.520000e-06	-1.481002e-06	-6.023562e-10	-1.027887e+01	-4.355102e+01
1.530000e-06	-1.435699e-06	-5.856544e-10	-9.964443e+00	-4.282467e+01
1.540000e-06	-1.390261e-06	-5.665571e-10	-9.649081e+00	-4.208609e+01
1.550000e-06	-1.344784e-06	-5.520925e-10	-9.333449e+00	-4.133484e+01
1.560000e-06	-1.299221e-06	-5.426864e-10	-9.017217e+00	-4.057048e+01
1.570000e-06	-1.253518e-06	-5.341250e-10	-8.700022e+00	-3.979253e+01
1.580000e-06	-1.207691e-06	-5.260442e-10	-8.381955e+00	-3.900052e+01
1.590000e-06	-1.161879e-06	-5.160936e-10	-8.064001e+00	-3.819397e+01
1.600000e-06	-1.116074e-06	-5.016040e-10	-7.746089e+00	-3.737239e+01
1.610000e-06	-1.070143e-06	-4.830340e-10	-7.427305e+00	-3.653529e+01
1.620000e-06	-1.024064e-06	-4.679936e-10	-7.107494e+00	-3.568219e+01
1.630000e-06	-9.777876e-07	-4.598346e-10	-6.786317e+00	-3.481261e+01
1.640000e-06	-9.314499e-07	-4.521509e-10	-6.464711e+00	-3.392606e+01
1.650000e-06	-8.851906e-07	-4.429457e-10	-6.143649e+00	-3.302209e+01
1.660000e-06	-8.388640e-07	-4.305593e-10	-5.822120e+00	-3.210026e+01
1.670000e-06	-7.923189e-07	-4.116176e-10	-5.499075e+00	-3.116012e+01
1.680000e-06	-7.457223e-07	-3.916452e-10	-5.175672e+00	-3.020129e+01
1.690000e-06	-6.992043e-07	-3.751546e-10	-4.852815e+00	-2.922339e+01
1.700000e-06	-6.526776e-07	-3.605554e-10	-4.529897e+00	-2.822606e+01
1.710000e-06	-6.060976e-07	-3.452059e-10	-4.206609e+00	-2.720900e+01
1.720000e-06	-5.594919e-07	-3.293393e-10	-3.883143e+00	-2.617193e+01
1.730000e-06	-5.128136e-07	-3.106822e-10	-3.559173e+00	-2.511462e+01
1.740000e-06	-4.660622e-07	-2.911077e-10	-3.234696e+00	-2.403689e+01
1.750000e-06	-4.192848e-07	-2.742976e-10	-2.910039e+00	-2.293860e+01
1.760000e-06	-3.724972e-07	-2.584334e-10	-2.585310e+00	-2.181966e+01
1.770000e-06	-3.256273e-07	-2.423229e-10	-2.260011e+00	-2.068003e+01
1.780000e-06	-2.786989e-07	-2.261900e-10	-1.934305e+00	-1.951976e+01
1.790000e-06	-2.317931e-07	-2.108560e-10	-1.608756e+00	-1.833891e+01
1.800000e-06	-1.849255e-07	-1.948081e-10	-1.283472e+00	-1.713763e+01
1.810000e-06	-1.380923e-07	-1.773193e-10	-9.584269e-01	-1.591615e+01
1.820000e-06	-9.122877e-08	-1.611727e-10	-6.331716e-01	-1.467471e+01
1.830000e-06	-4.430968e-08	-1.467063e-10	-3.075305e-01	-1.341368e+01
1.840000e-06	2.644601e-09	-1.302108e-10	1.835481e-02	-1.213345e+01
1.850000e-06	4.955582e-08	-1.114838e-10	3.439412e-01	-1.083449e+01
1.860000e-06	9.652797e-08	-9.274959e-11	6.699506e-01	-9.517342e+00
1.870000e-06	1.436210e-07	-7.272626e-11	9.967986e-01	-8.182612e+00
1.880000e-06	1.906978e-07	-5.289530e-11	1.323535e+00	-6.830966e+00
1.890000e-06	2.376671e-07	-3.435726e-11	1.649524e+00	-5.463139e+00
1.900000e-06	2.845567e-07	-1.573701e-11	1.974961e+00	-4.079925e+00
1.910000e-06	3.313969e-07	2.955419e-12	2.300054e+00	-2.682181e+00
1.920000e-06	3.781806e-07	2.015516e-11	2.624755e+00	-1.270820e+00
1.930000e-06	4.249403e-07	3.808360e-11	2.949291e+00	1.531898e-01
1.940000e-06	4.717134e-07	5.952938e-11	3.273919e+00	1.588826e+00
1.950000e-06	5.184215e-07	8.148984e-11	3.598095e+00	3.035021e+00
1.960000e-06	5.650623e-07	1.034741e-10	3.921805e+00	4.490658e+00
1.970000e-06	6.116411e-07	1.248024e-10	4.245084e+00	5.954582e+00
1.980000e-06	6.581152e-07	1.434326e-10	4.567636e+00	7.425600e+00
1.990000e-06	7.045422e-07	1.597609e-10	4.889862e+00	8.902487e+00
2.000000e-06	7.510457e-07	1.760168e-10	5.212619e+00	1.038399e+01
2.010000e-06	7.975003e-07	1.977292e-10	5.535037e+00	1.186883e+01
2.020000e-06	8.437700e-07	2.235294e-10	5.856170e+00	1.335572e+01
2.030000e-06	8.899751e-07	2.501480e-10	6.176856e+00	1.484335e+01
2.040000e-06	9.361972e-07	2.743738e-10	6.497659e+00	1.633040e+01
2.050000e-06	9.824358e-07	2.942709e-10	6.818578e+00	1.781555e+01
2.060000e-06	1.028579e-06	3.128105e-10	7.138836e+00	1.929750e+01
2.070000e-06	1.074519e-06	3.309052e-10	7.457677e+00	2.077493e+01
2.080000e-06	1.120308e-06	3.489199e-10	7.775478e+00	2.224655e+01
2.090000e-06	1.166068e-06	3.697262e-10	8.093071e+00	2.371108e+01
2.100000e-06	1.211802e-06	3.939684e-10	8.410489e+00	2.516726e+01
2.110000e-06	1.257476e-06	4.189407e-10	8.727488e+00	2.661388e+01
2.120000e-06	1.303045e-06	4.417666e-10	9.043761e+00	2.804973e+01
2.130000e-06	1.348520e-06	4.628386e-10	9.359380e+00	2.947366e+01
2.140000e-06	1.393928e-06	4.810273e-10	9.674535e+00	3.088454e+01
2.150000e-06	1.439222e-06	4.968235e-10	9.988894e+00	3.228131e+01
2.160000e-06	1.484379e-06	5.112307e-10	1.030230e+01	3.366293e+01
2.170000e-06	1.529459e-06	5.262281e-10	1.061518e+01	3.502844e+01
2.180000e-06	1.574445e-06	5.446364e-10	1.092741e+01	3.637691e+01
2.190000e-06	1.619232e-06	5.654938e-10	1.123825e+01	3.770748e+01
2.200000e-06	1.663883e-06	5.865663e-10	1.154815e+01	3.901933e+01
2.210000e-06	1.708494e-06	6.050642e-10	1.185777e+01	4.031174e+01
2.220000e-06	1.752995e-06	6.223826e-10	1.216663e+01	4.158401e+01
2.230000e-06	1.797312e-06	6.378532e-10	1.247421e+01	4.283553e+01
2.240000e-06	1.841505e-06	6.485059e-10	1.278093e+01	4.406574e+01
2.250000e-06	1.885599e-06	6.583551e-10	1.308697e+01	4.527416e+01
2.260000e-06	1.929642e-06	6.710004e-10	1.339265e+01	4.646036e+01
2.270000e-06	1.973662e-06	6.908830e-10	1.369817e+01	4.762398e+01
2.280000e-06	2.017585e-06	7.127647e-10	1.400301e+01	4.876473e+01
2.290000e-06	2.061363e-06	7.324903e-10	1.430685e+01	4.988239e+01
2.300000e-06	2.105038e-06	7.474349e-10	1.460998e+01	5.097677e+01
2.310000e-06	2.148662e-06	7.597871e-10	1.491275e+01	5.204777e+01
2.320000e-06	2.192155e-06	7.734468e-10	1.521461e+01	5.309535e+01
2.330000e-06	2.235498e-06	7.872526e-10	1.551543e+01	5.411951e+01
2.340000e-06	2.278753e-06	8.023521e-10	1.581564e+01	5.512032e+01
2.350000e-06	2.321860e-06	8.198240e-10	1.611483e+01	5.609789e+01
2.360000e-06	2.364732e-06	8.398323e-10	1.641238e+01	5.705239e+01
2.370000e-06	2.407299e-06	8.554172e-10	1.670781e+01	5.798402e+01
2.380000e-06	2.449553e-06	8.657836e-10	1.700108e+01	5.889304e+01
2.390000e-06	2.491575e-06	8.745520e-10	1.729273e+01	5.977974e+01
2.400000e-06	2.533291e-06	8.834692e-10	1.758226e+01	6.064446e+01
2.410000e-06	2.574699e-06	8.923075e-10	1.786965e+01	6.148756e+01
2.420000e-06	2.615800e-06	9.043933e-10	1.815491e+01	6.230943e+01
2.430000e-06	2.656625e-06	9.188323e-10	1.843826e+01	6.311050e+01
2.440000e-06	2.697246e-06	9.325988e-10	1.872019e+01	6.389121e+01
2.450000e-06	2.737609e-06	9.441218e-10	1.900033e+01	6.465203e+01
2.460000e-06	2.777762e-06	9.560535e-10	1.927901e+01	6.539343e+01
2.470000e-06	2.817744e-06	9.669976e-10	1.955650e+01	6.611591e+01
2.480000e-06	2.857571e-06	9.770600e-10	1.983292e+01	6.681997e+01
2.490000e-06	2.897309e-06	9.874434e-10	2.010872e+01	6.750614e+01
2.500000e-06	2.936939e-06	9.973202e-10	2.038377e+01	6.817491e+01
2.510000e-06	2.976408e-06	1.007123e-09	2.065770e+01	6.882680e+01
2.520000e-06	3.015737e-06	1.018292e-09	2.093066e+01	6.946234e+01
2.530000e-06	3.054856e-06	1.030201e-09	2.120217e+01	7.008203e+01
2.540000e-06	3.093730e-06	1.039215e-09	2.147197e+01	7.068637e+01
2.550000e-06	3.132343e-06	1.046221e-09	2.173997e+01	7.127586e+01
2.560000e-06	3.170723e-06	1.054175e-09	2.200634e+01	7.185098e+01
2.570000e-06	3.208957e-06	1.060118e-09	2.227170e+01	7.241221e+01
2.580000e-06	3.246996e-06	1.064043e-09	2.253572e+01	7.296000e+01
2.590000e-06	3.284822e-06	1.069260e-09	2.279825e+01	7.349480e+01
2.600000e-06	3.322466e-06	1.076023e-09	2.305951e+01	7.401703e+01
2.610000e-06	3.359860e-06	1.080787e-09	2.331905e+01	7.452710e+01
2.620000e-06	3.396910e-06	1.084378e-09	2.357619e+01	7.502540e+01
2.630000e-06	3.433666e-06	1.091207e-09	2.383130e+01	7.551231e+01
2.640000e-06	3.470236e-06	1.099456e-09	2.408511e+01	7.598818e+01
2.650000e-06	3.506583e-06	1.108569e-09	2.433738e+01	7.645334e+01
2.660000e-06	3.542676e-06	1.116891e-09	2.458788e+01	7.690810e+01
2.670000e-06	3.578571e-06	1.123318e-09	2.483700e+01	7.735276e+01
2.680000e-06	3.614321e-06	1.129017e-09	2.508513e+01	7.778760e+01
2.690000e-06	3.649920e-06	1.135320e-09	2.533220e+01	7.821287e+01
2.700000e-06	3.685379e-06	1.142162e-09	2.557831e+01	7.862882e+01
2.710000e-06	3.720634e-06	1.147729e-09	2.582299e+01	7.903566e+01
2.720000e-06	3.755602e-06	1.153903e-09	2.606569e+01	7.943360e+01
2.730000e-06	3.790306e-06	1.161032e-09	2.630655e+01	7.982284e+01
2.740000e-06	3.824662e-06	1.166384e-09	2.654500e+01	8.020354e+01
2.750000e-06	3.858586e-06	1.169386e-09	2.678044e+01	8.057587e+01
2.760000e-06	3.892055e-06	1.171632e-09	2.701274e+01	8.093997e+01
2.770000e-06	3.925074e-06	1.175976e-09	2.724190e+01	8.129599e+01
2.780000e-06	3.957621e-06	1.180304e-09	2.746780e+01	8.164404e+01
2.790000e-06	3.989817e-06	1.184672e-09	2.769125e+01	8.198424e+01
2.800000e-06	4.021787e-06	1.188748e-09	2.791314e+01	8.231671e+01
2.810000e-06	4.053560e-06	1.192042e-09	2.813366e+01	8.264153e+01
2.820000e-06	4.085171e-06	1.196962e-09	2.835306e+01	8.295881e+01
2.830000e-06	4.116633e-06	1.203902e-09	2.857141e+01	8.326862e+01
2.840000e-06	4.147915e-06	1.210208e-09	2.878853e+01	8.357106e+01
2.850000e-06	4.178939e-06	1.218648e-09	2.900385e+01	8.386619e+01
2.860000e-06	4.209623e-06	1.226831e-09	2.921681e+01	8.415411e+01
2.870000e-06	4.239944e-06	1.231047e-09	2.942726e+01	8.443487e+01
2.880000e-06	4.269861e-06	1.232837e-09	2.963489e+01	8.470856e+01
2.890000e-06	4.299457e-06	1.233555e-09	2.984030e+01	8.497524e+01
2.900000e-06	4.328920e-06	1.234395e-09	3.004479e+01	8.523499e+01
2.910000e-06	4.358106e-06	1.236163e-09	3.024736e+01	8.548788e+01
