# Temperatura_=_10.2
# Concentracion g/m^3_=_1620.0
# C_Vs_to_Am_M_A/Vsm_=_65563218390.804596
# pendiente_HvsI_1/m_=_3716.3
# ordenada_HvsI_A/m_=_1297.0
# frecuencia_Hz_=_135086.32672588763

Tiempo_(s)	Campo_(V.s)	Magnetizacion_(V.s)	Campo_(kA/m)	Magnetizacion_(A/m)
0.000000e+00	-5.517097e-06	-1.455606e-09	-3.838836e+01	-9.538783e+01
1.000000e-08	-5.517326e-06	-1.453300e-09	-3.838995e+01	-9.540010e+01
2.000000e-08	-5.517277e-06	-1.452418e-09	-3.838961e+01	-9.540982e+01
3.000000e-08	-5.516860e-06	-1.453998e-09	-3.838671e+01	-9.541686e+01
4.000000e-08	-5.515997e-06	-1.452939e-09	-3.838071e+01	-9.542110e+01
5.000000e-08	-5.514659e-06	-1.445284e-09	-3.837139e+01	-9.542238e+01
6.000000e-08	-5.512754e-06	-1.447625e-09	-3.835814e+01	-9.542056e+01
7.000000e-08	-5.510182e-06	-1.462649e-09	-3.834025e+01	-9.541547e+01
8.000000e-08	-5.507007e-06	-1.480988e-09	-3.831815e+01	-9.540695e+01
9.000000e-08	-5.503412e-06	-1.483314e-09	-3.829314e+01	-9.539486e+01
1.000000e-07	-5.499376e-06	-1.483601e-09	-3.826505e+01	-9.537902e+01
1.100000e-07	-5.495008e-06	-1.441367e-09	-3.823466e+01	-9.535927e+01
1.200000e-07	-5.490393e-06	-1.432147e-09	-3.820255e+01	-9.533546e+01
1.300000e-07	-5.485458e-06	-1.406081e-09	-3.816821e+01	-9.530742e+01
1.400000e-07	-5.480224e-06	-1.443276e-09	-3.813180e+01	-9.527500e+01
1.500000e-07	-5.474679e-06	-1.430832e-09	-3.809321e+01	-9.523805e+01
1.600000e-07	-5.468797e-06	-1.425975e-09	-3.805228e+01	-9.519644e+01
1.700000e-07	-5.462425e-06	-1.406645e-09	-3.800795e+01	-9.515002e+01
1.800000e-07	-5.455659e-06	-1.456306e-09	-3.796087e+01	-9.509866e+01
1.900000e-07	-5.448558e-06	-1.459374e-09	-3.791146e+01	-9.504224e+01
2.000000e-07	-5.441045e-06	-1.421814e-09	-3.785918e+01	-9.498066e+01
2.100000e-07	-5.433196e-06	-1.394684e-09	-3.780457e+01	-9.491380e+01
2.200000e-07	-5.425161e-06	-1.426570e-09	-3.774866e+01	-9.484157e+01
2.300000e-07	-5.416888e-06	-1.441973e-09	-3.769110e+01	-9.476389e+01
2.400000e-07	-5.408197e-06	-1.406187e-09	-3.763062e+01	-9.468069e+01
2.500000e-07	-5.398846e-06	-1.407416e-09	-3.756556e+01	-9.459190e+01
2.600000e-07	-5.388757e-06	-1.409732e-09	-3.749536e+01	-9.449746e+01
2.700000e-07	-5.378141e-06	-1.416035e-09	-3.742149e+01	-9.439733e+01
2.800000e-07	-5.367009e-06	-1.392596e-09	-3.734403e+01	-9.429147e+01
2.900000e-07	-5.355445e-06	-1.425328e-09	-3.726357e+01	-9.417986e+01
3.000000e-07	-5.343525e-06	-1.412021e-09	-3.718063e+01	-9.406249e+01
3.100000e-07	-5.331173e-06	-1.414537e-09	-3.709468e+01	-9.393934e+01
3.200000e-07	-5.318342e-06	-1.391231e-09	-3.700540e+01	-9.381041e+01
3.300000e-07	-5.305202e-06	-1.418412e-09	-3.691398e+01	-9.367571e+01
3.400000e-07	-5.291743e-06	-1.396485e-09	-3.682033e+01	-9.353526e+01
3.500000e-07	-5.277912e-06	-1.411481e-09	-3.672409e+01	-9.338906e+01
3.600000e-07	-5.263728e-06	-1.400366e-09	-3.662540e+01	-9.323715e+01
3.700000e-07	-5.249166e-06	-1.408354e-09	-3.652407e+01	-9.307956e+01
3.800000e-07	-5.234034e-06	-1.390793e-09	-3.641878e+01	-9.291632e+01
3.900000e-07	-5.218293e-06	-1.404113e-09	-3.630926e+01	-9.274746e+01
4.000000e-07	-5.202038e-06	-1.394733e-09	-3.619615e+01	-9.257304e+01
4.100000e-07	-5.185360e-06	-1.387120e-09	-3.608011e+01	-9.239308e+01
4.200000e-07	-5.168280e-06	-1.386094e-09	-3.596127e+01	-9.220763e+01
4.300000e-07	-5.150784e-06	-1.388267e-09	-3.583953e+01	-9.201675e+01
4.400000e-07	-5.133052e-06	-1.377673e-09	-3.571614e+01	-9.182046e+01
4.500000e-07	-5.115084e-06	-1.381594e-09	-3.559112e+01	-9.161883e+01
4.600000e-07	-5.096703e-06	-1.389658e-09	-3.546323e+01	-9.141189e+01
4.700000e-07	-5.077777e-06	-1.373808e-09	-3.533154e+01	-9.119969e+01
4.800000e-07	-5.058464e-06	-1.363333e-09	-3.519716e+01	-9.098228e+01
4.900000e-07	-5.038938e-06	-1.368746e-09	-3.506129e+01	-9.075969e+01
5.000000e-07	-5.019238e-06	-1.368487e-09	-3.492422e+01	-9.053197e+01
5.100000e-07	-4.999361e-06	-1.346213e-09	-3.478591e+01	-9.029915e+01
5.200000e-07	-4.979142e-06	-1.352124e-09	-3.464523e+01	-9.006129e+01
5.300000e-07	-4.958515e-06	-1.357383e-09	-3.450171e+01	-8.981841e+01
5.400000e-07	-4.937559e-06	-1.353278e-09	-3.435589e+01	-8.957055e+01
5.500000e-07	-4.916255e-06	-1.343429e-09	-3.420766e+01	-8.931775e+01
5.600000e-07	-4.894677e-06	-1.355617e-09	-3.405751e+01	-8.906004e+01
5.700000e-07	-4.872754e-06	-1.336201e-09	-3.390497e+01	-8.879746e+01
5.800000e-07	-4.850444e-06	-1.331280e-09	-3.374974e+01	-8.853004e+01
5.900000e-07	-4.827798e-06	-1.337963e-09	-3.359217e+01	-8.825781e+01
6.000000e-07	-4.804777e-06	-1.337443e-09	-3.343198e+01	-8.798081e+01
6.100000e-07	-4.781476e-06	-1.309294e-09	-3.326985e+01	-8.769906e+01
6.200000e-07	-4.757932e-06	-1.316681e-09	-3.310604e+01	-8.741261e+01
6.300000e-07	-4.734165e-06	-1.315419e-09	-3.294066e+01	-8.712149e+01
6.400000e-07	-4.710169e-06	-1.299563e-09	-3.277369e+01	-8.682573e+01
6.500000e-07	-4.685831e-06	-1.291171e-09	-3.260435e+01	-8.652537e+01
6.600000e-07	-4.661114e-06	-1.307369e-09	-3.243237e+01	-8.622044e+01
6.700000e-07	-4.635847e-06	-1.290065e-09	-3.225656e+01	-8.591100e+01
6.800000e-07	-4.610061e-06	-1.278029e-09	-3.207714e+01	-8.559708e+01
6.900000e-07	-4.583885e-06	-1.284105e-09	-3.189500e+01	-8.527872e+01
7.000000e-07	-4.557210e-06	-1.283410e-09	-3.170939e+01	-8.495597e+01
7.100000e-07	-4.530058e-06	-1.261173e-09	-3.152047e+01	-8.462888e+01
7.200000e-07	-4.502581e-06	-1.268484e-09	-3.132929e+01	-8.429748e+01
7.300000e-07	-4.474854e-06	-1.271398e-09	-3.113636e+01	-8.396184e+01
7.400000e-07	-4.446949e-06	-1.251024e-09	-3.094219e+01	-8.362200e+01
7.500000e-07	-4.418922e-06	-1.244251e-09	-3.074718e+01	-8.327801e+01
7.600000e-07	-4.390674e-06	-1.249112e-09	-3.055062e+01	-8.292993e+01
7.700000e-07	-4.362007e-06	-1.234664e-09	-3.035116e+01	-8.257780e+01
7.800000e-07	-4.332968e-06	-1.222005e-09	-3.014910e+01	-8.222168e+01
7.900000e-07	-4.303675e-06	-1.234458e-09	-2.994528e+01	-8.186162e+01
8.000000e-07	-4.274035e-06	-1.227011e-09	-2.973904e+01	-8.149766e+01
8.100000e-07	-4.244093e-06	-1.208769e-09	-2.953071e+01	-8.112986e+01
8.200000e-07	-4.213902e-06	-1.204390e-09	-2.932063e+01	-8.075825e+01
8.300000e-07	-4.183460e-06	-1.202030e-09	-2.910881e+01	-8.038289e+01
8.400000e-07	-4.152732e-06	-1.183802e-09	-2.889501e+01	-8.000380e+01
8.500000e-07	-4.121731e-06	-1.181862e-09	-2.867930e+01	-7.962102e+01
8.600000e-07	-4.090521e-06	-1.179927e-09	-2.846214e+01	-7.923458e+01
8.700000e-07	-4.059120e-06	-1.169364e-09	-2.824365e+01	-7.884450e+01
8.800000e-07	-4.027514e-06	-1.156079e-09	-2.802373e+01	-7.845080e+01
8.900000e-07	-3.995666e-06	-1.161316e-09	-2.780213e+01	-7.805349e+01
9.000000e-07	-3.963607e-06	-1.150546e-09	-2.757906e+01	-7.765258e+01
9.100000e-07	-3.931309e-06	-1.141166e-09	-2.735433e+01	-7.724806e+01
9.200000e-07	-3.898654e-06	-1.136517e-09	-2.712711e+01	-7.683993e+01
9.300000e-07	-3.865632e-06	-1.133061e-09	-2.689734e+01	-7.642816e+01
9.400000e-07	-3.832121e-06	-1.119433e-09	-2.666417e+01	-7.601273e+01
9.500000e-07	-3.798120e-06	-1.114373e-09	-2.642759e+01	-7.559361e+01
9.600000e-07	-3.763706e-06	-1.107006e-09	-2.618813e+01	-7.517075e+01
9.700000e-07	-3.728872e-06	-1.096047e-09	-2.594576e+01	-7.474412e+01
9.800000e-07	-3.693676e-06	-1.089226e-09	-2.570087e+01	-7.431365e+01
9.900000e-07	-3.658266e-06	-1.092557e-09	-2.545448e+01	-7.387928e+01
1.000000e-06	-3.622702e-06	-1.087326e-09	-2.520702e+01	-7.344093e+01
1.010000e-06	-3.586988e-06	-1.080205e-09	-2.495852e+01	-7.299855e+01
1.020000e-06	-3.551144e-06	-1.077417e-09	-2.470911e+01	-7.255203e+01
1.030000e-06	-3.515105e-06	-1.070130e-09	-2.445835e+01	-7.210130e+01
1.040000e-06	-3.478880e-06	-1.057345e-09	-2.420630e+01	-7.164626e+01
1.050000e-06	-3.442364e-06	-1.050099e-09	-2.395221e+01	-7.118682e+01
1.060000e-06	-3.405584e-06	-1.044862e-09	-2.369630e+01	-7.072288e+01
1.070000e-06	-3.368530e-06	-1.034152e-09	-2.343847e+01	-7.025434e+01
1.080000e-06	-3.331214e-06	-1.027471e-09	-2.317883e+01	-6.978109e+01
1.090000e-06	-3.293652e-06	-1.020994e-09	-2.291747e+01	-6.930304e+01
1.100000e-06	-3.255866e-06	-1.012453e-09	-2.265455e+01	-6.882008e+01
1.110000e-06	-3.217953e-06	-1.002737e-09	-2.239075e+01	-6.833211e+01
1.120000e-06	-3.179878e-06	-9.972128e-10	-2.212582e+01	-6.783904e+01
1.130000e-06	-3.141598e-06	-9.870234e-10	-2.185946e+01	-6.734075e+01
1.140000e-06	-3.103011e-06	-9.761679e-10	-2.159097e+01	-6.683717e+01
1.150000e-06	-3.064171e-06	-9.645993e-10	-2.132072e+01	-6.632821e+01
1.160000e-06	-3.025203e-06	-9.570044e-10	-2.104958e+01	-6.581377e+01
1.170000e-06	-2.986082e-06	-9.483231e-10	-2.077737e+01	-6.529379e+01
1.180000e-06	-2.946762e-06	-9.448172e-10	-2.050378e+01	-6.476818e+01
1.190000e-06	-2.907241e-06	-9.389455e-10	-2.022879e+01	-6.423689e+01
1.200000e-06	-2.867602e-06	-9.311245e-10	-1.995298e+01	-6.369985e+01
1.210000e-06	-2.827857e-06	-9.213729e-10	-1.967643e+01	-6.315701e+01
1.220000e-06	-2.787930e-06	-9.115235e-10	-1.939862e+01	-6.260832e+01
1.230000e-06	-2.747817e-06	-8.970812e-10	-1.911951e+01	-6.205373e+01
1.240000e-06	-2.707505e-06	-8.842384e-10	-1.883902e+01	-6.149321e+01
1.250000e-06	-2.666937e-06	-8.758324e-10	-1.855674e+01	-6.092673e+01
1.260000e-06	-2.626160e-06	-8.690448e-10	-1.827301e+01	-6.035425e+01
1.270000e-06	-2.585157e-06	-8.578345e-10	-1.798771e+01	-5.977576e+01
1.280000e-06	-2.543896e-06	-8.507072e-10	-1.770061e+01	-5.919123e+01
1.290000e-06	-2.502384e-06	-8.429752e-10	-1.741177e+01	-5.860064e+01
1.300000e-06	-2.460603e-06	-8.328508e-10	-1.712105e+01	-5.800396e+01
1.310000e-06	-2.418569e-06	-8.191047e-10	-1.682858e+01	-5.740118e+01
1.320000e-06	-2.376166e-06	-8.091259e-10	-1.653353e+01	-5.679227e+01
1.330000e-06	-2.333422e-06	-8.015772e-10	-1.623612e+01	-5.617720e+01
1.340000e-06	-2.290413e-06	-7.937679e-10	-1.593686e+01	-5.555593e+01
1.350000e-06	-2.247186e-06	-7.863524e-10	-1.563608e+01	-5.492843e+01
1.360000e-06	-2.203838e-06	-7.766191e-10	-1.533446e+01	-5.429463e+01
1.370000e-06	-2.160348e-06	-7.669551e-10	-1.503186e+01	-5.365447e+01
1.380000e-06	-2.116747e-06	-7.599315e-10	-1.472848e+01	-5.300789e+01
1.390000e-06	-2.073058e-06	-7.530824e-10	-1.442449e+01	-5.235478e+01
1.400000e-06	-2.029294e-06	-7.406729e-10	-1.411997e+01	-5.169505e+01
1.410000e-06	-1.985427e-06	-7.312026e-10	-1.381474e+01	-5.102857e+01
1.420000e-06	-1.941440e-06	-7.209344e-10	-1.350868e+01	-5.035520e+01
1.430000e-06	-1.897403e-06	-7.096465e-10	-1.320227e+01	-4.967477e+01
1.440000e-06	-1.853277e-06	-6.995855e-10	-1.289523e+01	-4.898712e+01
1.450000e-06	-1.809054e-06	-6.902935e-10	-1.258753e+01	-4.829202e+01
1.460000e-06	-1.764797e-06	-6.784678e-10	-1.227959e+01	-4.758925e+01
1.470000e-06	-1.720428e-06	-6.657962e-10	-1.197086e+01	-4.687856e+01
1.480000e-06	-1.675862e-06	-6.548011e-10	-1.166077e+01	-4.615969e+01
1.490000e-06	-1.631152e-06	-6.456357e-10	-1.134967e+01	-4.543232e+01
1.500000e-06	-1.586357e-06	-6.363070e-10	-1.103799e+01	-4.469613e+01
1.510000e-06	-1.541427e-06	-6.278412e-10	-1.072536e+01	-4.395079e+01
1.520000e-06	-1.496401e-06	-6.157457e-10	-1.041207e+01	-4.319592e+01
1.530000e-06	-1.451210e-06	-6.030694e-10	-1.009762e+01	-4.243114e+01
1.540000e-06	-1.405920e-06	-5.869097e-10	-9.782494e+00	-4.165603e+01
1.550000e-06	-1.360665e-06	-5.710152e-10	-9.467607e+00	-4.087016e+01
1.560000e-06	-1.315246e-06	-5.577445e-10	-9.151574e+00	-4.007310e+01
1.570000e-06	-1.269675e-06	-5.484649e-10	-8.834492e+00	-3.926439e+01
1.580000e-06	-1.224019e-06	-5.396888e-10	-8.516815e+00	-3.844354e+01
1.590000e-06	-1.178251e-06	-5.299988e-10	-8.198352e+00	-3.761009e+01
1.600000e-06	-1.132451e-06	-5.180429e-10	-7.879673e+00	-3.676354e+01
1.610000e-06	-1.086561e-06	-5.021302e-10	-7.560369e+00	-3.590342e+01
1.620000e-06	-1.040534e-06	-4.834812e-10	-7.240110e+00	-3.502921e+01
1.630000e-06	-9.945111e-07	-4.686839e-10	-6.919879e+00	-3.414045e+01
1.640000e-06	-9.483911e-07	-4.589359e-10	-6.598973e+00	-3.323665e+01
1.650000e-06	-9.020273e-07	-4.459045e-10	-6.276371e+00	-3.231736e+01
1.660000e-06	-8.555708e-07	-4.324183e-10	-5.953123e+00	-3.138211e+01
1.670000e-06	-8.092930e-07	-4.187916e-10	-5.631119e+00	-3.043048e+01
1.680000e-06	-7.630874e-07	-4.022259e-10	-5.309617e+00	-2.946206e+01
1.690000e-06	-7.167453e-07	-3.845197e-10	-4.987165e+00	-2.847647e+01
1.700000e-06	-6.703113e-07	-3.696272e-10	-4.664074e+00	-2.747338e+01
1.710000e-06	-6.237414e-07	-3.559600e-10	-4.340038e+00	-2.645247e+01
1.720000e-06	-5.770940e-07	-3.422277e-10	-4.015461e+00	-2.541348e+01
1.730000e-06	-5.304317e-07	-3.265418e-10	-3.690782e+00	-2.435617e+01
1.740000e-06	-4.837363e-07	-3.050925e-10	-3.365872e+00	-2.328038e+01
1.750000e-06	-4.371280e-07	-2.833430e-10	-3.041568e+00	-2.218599e+01
1.760000e-06	-3.904915e-07	-2.655464e-10	-2.717068e+00	-2.107293e+01
1.770000e-06	-3.437435e-07	-2.484864e-10	-2.391792e+00	-1.994118e+01
1.780000e-06	-2.969591e-07	-2.333921e-10	-2.066263e+00	-1.879080e+01
1.790000e-06	-2.502218e-07	-2.206125e-10	-1.741061e+00	-1.762190e+01
1.800000e-06	-2.034430e-07	-2.077366e-10	-1.415571e+00	-1.643467e+01
1.810000e-06	-1.566405e-07	-1.906530e-10	-1.089916e+00	-1.522936e+01
1.820000e-06	-1.098987e-07	-1.709940e-10	-7.646829e-01	-1.400627e+01
1.830000e-06	-6.309773e-08	-1.531020e-10	-4.390385e-01	-1.276579e+01
1.840000e-06	-1.628332e-08	-1.366933e-10	-1.133005e-01	-1.150837e+01
1.850000e-06	3.044868e-08	-1.206625e-10	2.118641e-01	-1.023455e+01
1.860000e-06	7.723331e-08	-1.056265e-10	5.373949e-01	-8.944912e+00
1.870000e-06	1.240643e-07	-9.010015e-11	8.632480e-01	-7.640114e+00
1.880000e-06	1.708314e-07	-7.095594e-11	1.188657e+00	-6.320885e+00
1.890000e-06	2.175902e-07	-4.958497e-11	1.514008e+00	-4.988016e+00
1.900000e-06	2.643070e-07	-2.878188e-11	1.839067e+00	-3.642360e+00
1.910000e-06	3.110560e-07	-8.319752e-12	2.164350e+00	-2.284831e+00
1.920000e-06	3.577751e-07	1.033234e-11	2.489425e+00	-9.163965e-01
1.930000e-06	4.044190e-07	2.708080e-11	2.813976e+00	4.619218e-01
1.940000e-06	4.510165e-07	4.383759e-11	3.138205e+00	1.849054e+00
1.950000e-06	4.975826e-07	6.124268e-11	3.462216e+00	3.243886e+00
1.960000e-06	5.442041e-07	7.992468e-11	3.786611e+00	4.645265e+00
1.970000e-06	5.907796e-07	9.871466e-11	4.110687e+00	6.052002e+00
1.980000e-06	6.372105e-07	1.173939e-10	4.433756e+00	7.462879e+00
1.990000e-06	6.835411e-07	1.373479e-10	4.756128e+00	8.876656e+00
2.000000e-06	7.298571e-07	1.552692e-10	5.078398e+00	1.029207e+01
2.010000e-06	7.761032e-07	1.731862e-10	5.400182e+00	1.170786e+01
2.020000e-06	8.223103e-07	1.945111e-10	5.721694e+00	1.312273e+01
2.030000e-06	8.685097e-07	2.179265e-10	6.043153e+00	1.453542e+01
2.040000e-06	9.146736e-07	2.393767e-10	6.364365e+00	1.594464e+01
2.050000e-06	9.607482e-07	2.586752e-10	6.684955e+00	1.734913e+01
2.060000e-06	1.006663e-06	2.772125e-10	7.004431e+00	1.874764e+01
2.070000e-06	1.052529e-06	2.954616e-10	7.323571e+00	2.013896e+01
2.080000e-06	1.098321e-06	3.159750e-10	7.642195e+00	2.152188e+01
2.090000e-06	1.144046e-06	3.382660e-10	7.960355e+00	2.289525e+01
2.100000e-06	1.189735e-06	3.604281e-10	8.278262e+00	2.425793e+01
2.110000e-06	1.235329e-06	3.803803e-10	8.595505e+00	2.560885e+01
2.120000e-06	1.280847e-06	3.975860e-10	8.912224e+00	2.694697e+01
2.130000e-06	1.326270e-06	4.130920e-10	9.228279e+00	2.827131e+01
2.140000e-06	1.371559e-06	4.300185e-10	9.543403e+00	2.958094e+01
2.150000e-06	1.416777e-06	4.488546e-10	9.858034e+00	3.087500e+01
2.160000e-06	1.461851e-06	4.680453e-10	1.017166e+01	3.215268e+01
2.170000e-06	1.506755e-06	4.872571e-10	1.048411e+01	3.341324e+01
2.180000e-06	1.551631e-06	5.092215e-10	1.079636e+01	3.465600e+01
2.190000e-06	1.596448e-06	5.284057e-10	1.110820e+01	3.588035e+01
2.200000e-06	1.641157e-06	5.426077e-10	1.141929e+01	3.708576e+01
2.210000e-06	1.685758e-06	5.560686e-10	1.172962e+01	3.827176e+01
2.220000e-06	1.730264e-06	5.698809e-10	1.203930e+01	3.943795e+01
2.230000e-06	1.774607e-06	5.870811e-10	1.234784e+01	4.058400e+01
2.240000e-06	1.818776e-06	6.045431e-10	1.265518e+01	4.170964e+01
2.250000e-06	1.862867e-06	6.207720e-10	1.296196e+01	4.281470e+01
2.260000e-06	1.906826e-06	6.347965e-10	1.326783e+01	4.389903e+01
2.270000e-06	1.950689e-06	6.498147e-10	1.357303e+01	4.496258e+01
2.280000e-06	1.994491e-06	6.683086e-10	1.387781e+01	4.600536e+01
2.290000e-06	2.038215e-06	6.843239e-10	1.418205e+01	4.702741e+01
2.300000e-06	2.081926e-06	6.974367e-10	1.448619e+01	4.802886e+01
2.310000e-06	2.125607e-06	7.093394e-10	1.479013e+01	4.900988e+01
2.320000e-06	2.169156e-06	7.237454e-10	1.509314e+01	4.997069e+01
2.330000e-06	2.212531e-06	7.375774e-10	1.539495e+01	5.091155e+01
2.340000e-06	2.255782e-06	7.507251e-10	1.569589e+01	5.183276e+01
2.350000e-06	2.298770e-06	7.695119e-10	1.599501e+01	5.273469e+01
2.360000e-06	2.341475e-06	7.883846e-10	1.629215e+01	5.361770e+01
2.370000e-06	2.384005e-06	8.054917e-10	1.658808e+01	5.448220e+01
2.380000e-06	2.426165e-06	8.145481e-10	1.688143e+01	5.532863e+01
2.390000e-06	2.468059e-06	8.175769e-10	1.717293e+01	5.615746e+01
2.400000e-06	2.509653e-06	8.220908e-10	1.746234e+01	5.696914e+01
2.410000e-06	2.550861e-06	8.314911e-10	1.774907e+01	5.776417e+01
2.420000e-06	2.591764e-06	8.468584e-10	1.803368e+01	5.854304e+01
2.430000e-06	2.632425e-06	8.664743e-10	1.831660e+01	5.930626e+01
2.440000e-06	2.672960e-06	8.864551e-10	1.859865e+01	6.005432e+01
2.450000e-06	2.713244e-06	8.980438e-10	1.887895e+01	6.078773e+01
2.460000e-06	2.753291e-06	9.041772e-10	1.915760e+01	6.150698e+01
2.470000e-06	2.793238e-06	9.083119e-10	1.943555e+01	6.221255e+01
2.480000e-06	2.833117e-06	9.137246e-10	1.971303e+01	6.290493e+01
2.490000e-06	2.872845e-06	9.230041e-10	1.998946e+01	6.358457e+01
2.500000e-06	2.912463e-06	9.364483e-10	2.026512e+01	6.425192e+01
2.510000e-06	2.951996e-06	9.514840e-10	2.054020e+01	6.490741e+01
2.520000e-06	2.991374e-06	9.653232e-10	2.081419e+01	6.555144e+01
2.530000e-06	3.030547e-06	9.762384e-10	2.108677e+01	6.618441e+01
2.540000e-06	3.069408e-06	9.825244e-10	2.135716e+01	6.680667e+01
2.550000e-06	3.108032e-06	9.872491e-10	2.162591e+01	6.741857e+01
2.560000e-06	3.146425e-06	9.949655e-10	2.189305e+01	6.802043e+01
2.570000e-06	3.184606e-06	1.003468e-09	2.215872e+01	6.861255e+01
2.580000e-06	3.222619e-06	1.012598e-09	2.242321e+01	6.919519e+01
2.590000e-06	3.260438e-06	1.022837e-09	2.268636e+01	6.976862e+01
2.600000e-06	3.298039e-06	1.034209e-09	2.294799e+01	7.033304e+01
2.610000e-06	3.335386e-06	1.043346e-09	2.320786e+01	7.088868e+01
2.620000e-06	3.372506e-06	1.049356e-09	2.346614e+01	7.143571e+01
2.630000e-06	3.409405e-06	1.053420e-09	2.372289e+01	7.197430e+01
2.640000e-06	3.446006e-06	1.056470e-09	2.397755e+01	7.250460e+01
2.650000e-06	3.482317e-06	1.062103e-09	2.423021e+01	7.302673e+01
2.660000e-06	3.518508e-06	1.070209e-09	2.448203e+01	7.354082e+01
2.670000e-06	3.554519e-06	1.078354e-09	2.473260e+01	7.404697e+01
2.680000e-06	3.590320e-06	1.085570e-09	2.498171e+01	7.454525e+01
2.690000e-06	3.625999e-06	1.093313e-09	2.522996e+01	7.503576e+01
2.700000e-06	3.661576e-06	1.099670e-09	2.547751e+01	7.551856e+01
2.710000e-06	3.696979e-06	1.104110e-09	2.572385e+01	7.599371e+01
2.720000e-06	3.732052e-06	1.108908e-09	2.596789e+01	7.646127e+01
2.730000e-06	3.766801e-06	1.113336e-09	2.620967e+01	7.692130e+01
2.740000e-06	3.801195e-06	1.117589e-09	2.644899e+01	7.737384e+01
2.750000e-06	3.835041e-06	1.124867e-09	2.668449e+01	7.781895e+01
2.760000e-06	3.868342e-06	1.133199e-09	2.691620e+01	7.825667e+01
2.770000e-06	3.901269e-06	1.141762e-09	2.714531e+01	7.868706e+01
2.780000e-06	3.933847e-06	1.150685e-09	2.737199e+01	7.911017e+01
2.790000e-06	3.966085e-06	1.159702e-09	2.759630e+01	7.952606e+01
2.800000e-06	3.998124e-06	1.165868e-09	2.781923e+01	7.993478e+01
2.810000e-06	4.030002e-06	1.169653e-09	2.804104e+01	8.033641e+01
2.820000e-06	4.061702e-06	1.172284e-09	2.826161e+01	8.073100e+01
2.830000e-06	4.093237e-06	1.177094e-09	2.848104e+01	8.111865e+01
2.840000e-06	4.124569e-06	1.184757e-09	2.869905e+01	8.149943e+01
2.850000e-06	4.155616e-06	1.195367e-09	2.891507e+01	8.187343e+01
2.860000e-06	4.186282e-06	1.208794e-09	2.912845e+01	8.224073e+01
2.870000e-06	4.216668e-06	1.216025e-09	2.933988e+01	8.260143e+01
2.880000e-06	4.246834e-06	1.219377e-09	2.954978e+01	8.295564e+01
2.890000e-06	4.276679e-06	1.218413e-09	2.975744e+01	8.330346e+01
2.900000e-06	4.306179e-06	1.218085e-09	2.996271e+01	8.364499e+01
