# Temperatura_=_10.94
# Concentracion g/m^3_=_1620.0
# C_Vs_to_Am_M_A/Vsm_=_65563218390.804596
# pendiente_HvsI_1/m_=_3716.3
# ordenada_HvsI_A/m_=_1297.0
# frecuencia_Hz_=_135087.4273838979

Tiempo_(s)	Campo_(V.s)	Magnetizacion_(V.s)	Campo_(kA/m)	Magnetizacion_(A/m)
0.000000e+00	-5.513974e-06	-1.525442e-09	-3.838750e+01	-9.888519e+01
1.000000e-08	-5.514087e-06	-1.521805e-09	-3.838829e+01	-9.888858e+01
2.000000e-08	-5.513932e-06	-1.522146e-09	-3.838721e+01	-9.888744e+01
3.000000e-08	-5.513383e-06	-1.525388e-09	-3.838339e+01	-9.888152e+01
4.000000e-08	-5.512289e-06	-1.520884e-09	-3.837577e+01	-9.887060e+01
5.000000e-08	-5.510562e-06	-1.504416e-09	-3.836375e+01	-9.885443e+01
6.000000e-08	-5.508160e-06	-1.487701e-09	-3.834703e+01	-9.883281e+01
7.000000e-08	-5.505232e-06	-1.497978e-09	-3.832665e+01	-9.880551e+01
8.000000e-08	-5.501870e-06	-1.571587e-09	-3.830324e+01	-9.877235e+01
9.000000e-08	-5.498000e-06	-1.662264e-09	-3.827630e+01	-9.873314e+01
1.000000e-07	-5.493718e-06	-1.602676e-09	-3.824649e+01	-9.868774e+01
1.100000e-07	-5.489233e-06	-1.430722e-09	-3.821526e+01	-9.863598e+01
1.200000e-07	-5.484724e-06	-1.394302e-09	-3.818387e+01	-9.857776e+01
1.300000e-07	-5.480000e-06	-1.522204e-09	-3.815098e+01	-9.851298e+01
1.400000e-07	-5.474705e-06	-1.575552e-09	-3.811412e+01	-9.844155e+01
1.500000e-07	-5.468863e-06	-1.435298e-09	-3.807345e+01	-9.836343e+01
1.600000e-07	-5.462741e-06	-1.409672e-09	-3.803083e+01	-9.827858e+01
1.700000e-07	-5.456193e-06	-1.539584e-09	-3.798525e+01	-9.818700e+01
1.800000e-07	-5.449153e-06	-1.625795e-09	-3.793623e+01	-9.808871e+01
1.900000e-07	-5.441778e-06	-1.451429e-09	-3.788489e+01	-9.798375e+01
2.000000e-07	-5.434183e-06	-1.379699e-09	-3.783201e+01	-9.787218e+01
2.100000e-07	-5.426447e-06	-1.463564e-09	-3.777815e+01	-9.775409e+01
2.200000e-07	-5.418451e-06	-1.555154e-09	-3.772249e+01	-9.762959e+01
2.300000e-07	-5.410092e-06	-1.471786e-09	-3.766430e+01	-9.749881e+01
2.400000e-07	-5.401200e-06	-1.414606e-09	-3.760239e+01	-9.736190e+01
2.500000e-07	-5.391454e-06	-1.454172e-09	-3.753454e+01	-9.721901e+01
2.600000e-07	-5.380939e-06	-1.481392e-09	-3.746134e+01	-9.707034e+01
2.700000e-07	-5.369991e-06	-1.442798e-09	-3.738512e+01	-9.691607e+01
2.800000e-07	-5.358634e-06	-1.429907e-09	-3.730605e+01	-9.675641e+01
2.900000e-07	-5.346903e-06	-1.477331e-09	-3.722438e+01	-9.659157e+01
3.000000e-07	-5.334931e-06	-1.464185e-09	-3.714104e+01	-9.642179e+01
3.100000e-07	-5.322564e-06	-1.428450e-09	-3.705494e+01	-9.624728e+01
3.200000e-07	-5.309616e-06	-1.396865e-09	-3.696480e+01	-9.606827e+01
3.300000e-07	-5.296298e-06	-1.441306e-09	-3.687207e+01	-9.588499e+01
3.400000e-07	-5.282715e-06	-1.435373e-09	-3.677751e+01	-9.569768e+01
3.500000e-07	-5.268666e-06	-1.432099e-09	-3.667971e+01	-9.550655e+01
3.600000e-07	-5.254199e-06	-1.417742e-09	-3.657899e+01	-9.531182e+01
3.700000e-07	-5.239394e-06	-1.456804e-09	-3.647592e+01	-9.511370e+01
3.800000e-07	-5.223841e-06	-1.417234e-09	-3.636764e+01	-9.491239e+01
3.900000e-07	-5.207618e-06	-1.392391e-09	-3.625470e+01	-9.470806e+01
4.000000e-07	-5.191068e-06	-1.415673e-09	-3.613948e+01	-9.450090e+01
4.100000e-07	-5.174172e-06	-1.449371e-09	-3.602185e+01	-9.429105e+01
4.200000e-07	-5.156934e-06	-1.382522e-09	-3.590184e+01	-9.407864e+01
4.300000e-07	-5.139519e-06	-1.385680e-09	-3.578060e+01	-9.386380e+01
4.400000e-07	-5.121879e-06	-1.452414e-09	-3.565780e+01	-9.364662e+01
4.500000e-07	-5.103715e-06	-1.431753e-09	-3.553134e+01	-9.342717e+01
4.600000e-07	-5.084994e-06	-1.349160e-09	-3.540101e+01	-9.320551e+01
4.700000e-07	-5.065898e-06	-1.399303e-09	-3.526806e+01	-9.298168e+01
4.800000e-07	-5.046510e-06	-1.438383e-09	-3.513309e+01	-9.275568e+01
4.900000e-07	-5.026872e-06	-1.379060e-09	-3.499637e+01	-9.252749e+01
5.000000e-07	-5.007081e-06	-1.372240e-09	-3.485859e+01	-9.229709e+01
5.100000e-07	-4.987109e-06	-1.418239e-09	-3.471955e+01	-9.206442e+01
5.200000e-07	-4.966811e-06	-1.370874e-09	-3.457823e+01	-9.182941e+01
5.300000e-07	-4.946189e-06	-1.347438e-09	-3.443466e+01	-9.159196e+01
5.400000e-07	-4.925234e-06	-1.411458e-09	-3.428878e+01	-9.135195e+01
5.500000e-07	-4.903863e-06	-1.388423e-09	-3.414000e+01	-9.110927e+01
5.600000e-07	-4.882131e-06	-1.323411e-09	-3.398871e+01	-9.086376e+01
5.700000e-07	-4.860144e-06	-1.366466e-09	-3.383564e+01	-9.061526e+01
5.800000e-07	-4.837821e-06	-1.401076e-09	-3.368023e+01	-9.036360e+01
5.900000e-07	-4.815063e-06	-1.338828e-09	-3.352179e+01	-9.010860e+01
6.000000e-07	-4.791862e-06	-1.341545e-09	-3.336026e+01	-8.985008e+01
6.100000e-07	-4.768362e-06	-1.373768e-09	-3.319666e+01	-8.958783e+01
6.200000e-07	-4.744743e-06	-1.337752e-09	-3.303223e+01	-8.932166e+01
6.300000e-07	-4.720969e-06	-1.306403e-09	-3.286672e+01	-8.905136e+01
6.400000e-07	-4.696953e-06	-1.342071e-09	-3.269952e+01	-8.877673e+01
6.500000e-07	-4.672470e-06	-1.323158e-09	-3.252907e+01	-8.849757e+01
6.600000e-07	-4.647417e-06	-1.302646e-09	-3.235466e+01	-8.821369e+01
6.700000e-07	-4.621948e-06	-1.328475e-09	-3.217735e+01	-8.792489e+01
6.800000e-07	-4.595986e-06	-1.340888e-09	-3.199661e+01	-8.763099e+01
6.900000e-07	-4.569361e-06	-1.304587e-09	-3.181125e+01	-8.733182e+01
7.000000e-07	-4.542248e-06	-1.310033e-09	-3.162249e+01	-8.702722e+01
7.100000e-07	-4.514881e-06	-1.310379e-09	-3.143196e+01	-8.671704e+01
7.200000e-07	-4.487283e-06	-1.286083e-09	-3.123983e+01	-8.640114e+01
7.300000e-07	-4.459489e-06	-1.272877e-09	-3.104633e+01	-8.607940e+01
7.400000e-07	-4.431653e-06	-1.284460e-09	-3.085254e+01	-8.575172e+01
7.500000e-07	-4.403565e-06	-1.272698e-09	-3.065699e+01	-8.541801e+01
7.600000e-07	-4.375119e-06	-1.269308e-09	-3.045896e+01	-8.507820e+01
7.700000e-07	-4.346336e-06	-1.273680e-09	-3.025858e+01	-8.473224e+01
7.800000e-07	-4.317161e-06	-1.263797e-09	-3.005546e+01	-8.438008e+01
7.900000e-07	-4.287682e-06	-1.249903e-09	-2.985023e+01	-8.402172e+01
8.000000e-07	-4.257947e-06	-1.248872e-09	-2.964322e+01	-8.365715e+01
8.100000e-07	-4.227911e-06	-1.233597e-09	-2.943412e+01	-8.328639e+01
8.200000e-07	-4.197589e-06	-1.216520e-09	-2.922302e+01	-8.290947e+01
8.300000e-07	-4.167090e-06	-1.219135e-09	-2.901069e+01	-8.252645e+01
8.400000e-07	-4.136259e-06	-1.217186e-09	-2.879605e+01	-8.213737e+01
8.500000e-07	-4.105063e-06	-1.204795e-09	-2.857887e+01	-8.174233e+01
8.600000e-07	-4.073693e-06	-1.203793e-09	-2.836047e+01	-8.134142e+01
8.700000e-07	-4.042193e-06	-1.206890e-09	-2.814118e+01	-8.093472e+01
8.800000e-07	-4.010520e-06	-1.192587e-09	-2.792067e+01	-8.052236e+01
8.900000e-07	-3.978634e-06	-1.186969e-09	-2.769869e+01	-8.010445e+01
9.000000e-07	-3.946532e-06	-1.180233e-09	-2.747520e+01	-7.968111e+01
9.100000e-07	-3.914200e-06	-1.167448e-09	-2.725011e+01	-7.925249e+01
9.200000e-07	-3.881536e-06	-1.154781e-09	-2.702270e+01	-7.881871e+01
9.300000e-07	-3.848341e-06	-1.159292e-09	-2.679161e+01	-7.837990e+01
9.400000e-07	-3.814641e-06	-1.153099e-09	-2.655699e+01	-7.793621e+01
9.500000e-07	-3.780496e-06	-1.142391e-09	-2.631928e+01	-7.748776e+01
9.600000e-07	-3.745964e-06	-1.134012e-09	-2.607887e+01	-7.703469e+01
9.700000e-07	-3.710988e-06	-1.130272e-09	-2.583537e+01	-7.657713e+01
9.800000e-07	-3.675614e-06	-1.117686e-09	-2.558910e+01	-7.611520e+01
9.900000e-07	-3.640096e-06	-1.114426e-09	-2.534183e+01	-7.564900e+01
1.000000e-06	-3.604444e-06	-1.111764e-09	-2.509363e+01	-7.517865e+01
1.010000e-06	-3.568688e-06	-1.103766e-09	-2.484470e+01	-7.470424e+01
1.020000e-06	-3.532759e-06	-1.092640e-09	-2.459457e+01	-7.422586e+01
1.030000e-06	-3.496686e-06	-1.092370e-09	-2.434343e+01	-7.374358e+01
1.040000e-06	-3.460487e-06	-1.085586e-09	-2.409142e+01	-7.325746e+01
1.050000e-06	-3.423960e-06	-1.076653e-09	-2.383713e+01	-7.276755e+01
1.060000e-06	-3.387154e-06	-1.067062e-09	-2.358088e+01	-7.227390e+01
1.070000e-06	-3.350069e-06	-1.059732e-09	-2.332271e+01	-7.177652e+01
1.080000e-06	-3.312730e-06	-1.048807e-09	-2.306276e+01	-7.127542e+01
1.090000e-06	-3.275183e-06	-1.040649e-09	-2.280136e+01	-7.077060e+01
1.100000e-06	-3.237414e-06	-1.035274e-09	-2.253842e+01	-7.026205e+01
1.110000e-06	-3.199397e-06	-1.024438e-09	-2.227375e+01	-6.974973e+01
1.120000e-06	-3.161161e-06	-1.014686e-09	-2.200756e+01	-6.923361e+01
1.130000e-06	-3.122736e-06	-1.008168e-09	-2.174004e+01	-6.871363e+01
1.140000e-06	-3.084108e-06	-9.985462e-10	-2.147112e+01	-6.818972e+01
1.150000e-06	-3.045316e-06	-9.838083e-10	-2.120106e+01	-6.766182e+01
1.160000e-06	-3.006283e-06	-9.763840e-10	-2.092931e+01	-6.712982e+01
1.170000e-06	-2.967051e-06	-9.732496e-10	-2.065619e+01	-6.659365e+01
1.180000e-06	-2.927652e-06	-9.711498e-10	-2.038190e+01	-6.605319e+01
1.190000e-06	-2.888053e-06	-9.661334e-10	-2.010622e+01	-6.550833e+01
1.200000e-06	-2.848364e-06	-9.612629e-10	-1.982991e+01	-6.495894e+01
1.210000e-06	-2.808541e-06	-9.471302e-10	-1.955267e+01	-6.440492e+01
1.220000e-06	-2.768527e-06	-9.337906e-10	-1.927410e+01	-6.384611e+01
1.230000e-06	-2.728413e-06	-9.204404e-10	-1.899483e+01	-6.328239e+01
1.240000e-06	-2.688156e-06	-9.089139e-10	-1.871456e+01	-6.271361e+01
1.250000e-06	-2.647665e-06	-8.982523e-10	-1.843267e+01	-6.213962e+01
1.260000e-06	-2.606960e-06	-8.906450e-10	-1.814929e+01	-6.156028e+01
1.270000e-06	-2.565894e-06	-8.811417e-10	-1.786339e+01	-6.097544e+01
1.280000e-06	-2.524472e-06	-8.732679e-10	-1.757502e+01	-6.038493e+01
1.290000e-06	-2.482863e-06	-8.635829e-10	-1.728534e+01	-5.978860e+01
1.300000e-06	-2.440876e-06	-8.537028e-10	-1.699303e+01	-5.918630e+01
1.310000e-06	-2.398584e-06	-8.396022e-10	-1.669861e+01	-5.857784e+01
1.320000e-06	-2.356113e-06	-8.263513e-10	-1.640292e+01	-5.796308e+01
1.330000e-06	-2.313376e-06	-8.143601e-10	-1.610539e+01	-5.734183e+01
1.340000e-06	-2.270344e-06	-8.060026e-10	-1.580582e+01	-5.671393e+01
1.350000e-06	-2.227069e-06	-8.004853e-10	-1.550454e+01	-5.607921e+01
1.360000e-06	-2.183717e-06	-7.951731e-10	-1.520273e+01	-5.543747e+01
1.370000e-06	-2.140219e-06	-7.876399e-10	-1.489990e+01	-5.478854e+01
1.380000e-06	-2.096554e-06	-7.802399e-10	-1.459591e+01	-5.413223e+01
1.390000e-06	-2.052826e-06	-7.690678e-10	-1.429148e+01	-5.346834e+01
1.400000e-06	-2.009102e-06	-7.559804e-10	-1.398708e+01	-5.279667e+01
1.410000e-06	-1.965391e-06	-7.432712e-10	-1.368278e+01	-5.211700e+01
1.420000e-06	-1.921509e-06	-7.287954e-10	-1.337727e+01	-5.142913e+01
1.430000e-06	-1.877468e-06	-7.189653e-10	-1.307067e+01	-5.073282e+01
1.440000e-06	-1.833381e-06	-7.076936e-10	-1.276374e+01	-5.002783e+01
1.450000e-06	-1.789168e-06	-6.984711e-10	-1.245594e+01	-4.931393e+01
1.460000e-06	-1.744773e-06	-6.915523e-10	-1.214686e+01	-4.859086e+01
1.470000e-06	-1.700267e-06	-6.824733e-10	-1.183702e+01	-4.785835e+01
1.480000e-06	-1.655710e-06	-6.686860e-10	-1.152682e+01	-4.711612e+01
1.490000e-06	-1.611056e-06	-6.511614e-10	-1.121595e+01	-4.636388e+01
1.500000e-06	-1.566286e-06	-6.362835e-10	-1.090426e+01	-4.560134e+01
1.510000e-06	-1.521323e-06	-6.238680e-10	-1.059124e+01	-4.482818e+01
1.520000e-06	-1.476167e-06	-6.121886e-10	-1.027687e+01	-4.404409e+01
1.530000e-06	-1.430904e-06	-6.026719e-10	-9.961752e+00	-4.324872e+01
1.540000e-06	-1.385584e-06	-5.914112e-10	-9.646236e+00	-4.244175e+01
1.550000e-06	-1.340198e-06	-5.765297e-10	-9.330271e+00	-4.162281e+01
1.560000e-06	-1.294752e-06	-5.564172e-10	-9.013879e+00	-4.079156e+01
1.570000e-06	-1.249212e-06	-5.383052e-10	-8.696840e+00	-3.994762e+01
1.580000e-06	-1.203542e-06	-5.209253e-10	-8.378886e+00	-3.909064e+01
1.590000e-06	-1.157808e-06	-5.103668e-10	-8.060499e+00	-3.822024e+01
1.600000e-06	-1.112010e-06	-5.009144e-10	-7.741659e+00	-3.733605e+01
1.610000e-06	-1.066135e-06	-4.915650e-10	-7.422278e+00	-3.643770e+01
1.620000e-06	-1.020238e-06	-4.819792e-10	-7.102755e+00	-3.552483e+01
1.630000e-06	-9.742448e-07	-4.724213e-10	-6.782554e+00	-3.459707e+01
1.640000e-06	-9.280718e-07	-4.587830e-10	-6.461104e+00	-3.365407e+01
1.650000e-06	-8.819153e-07	-4.391349e-10	-6.139769e+00	-3.269550e+01
1.660000e-06	-8.357500e-07	-4.251410e-10	-5.818373e+00	-3.172103e+01
1.670000e-06	-7.894203e-07	-4.134959e-10	-5.495832e+00	-3.073035e+01
1.680000e-06	-7.431028e-07	-4.025840e-10	-5.173377e+00	-2.972318e+01
1.690000e-06	-6.967806e-07	-3.919044e-10	-4.850888e+00	-2.869926e+01
1.700000e-06	-6.503509e-07	-3.762116e-10	-4.527651e+00	-2.765835e+01
1.710000e-06	-6.039195e-07	-3.582577e-10	-4.204402e+00	-2.660024e+01
1.720000e-06	-5.574492e-07	-3.391265e-10	-3.880883e+00	-2.552478e+01
1.730000e-06	-5.109125e-07	-3.184854e-10	-3.556901e+00	-2.443182e+01
1.740000e-06	-4.643719e-07	-2.977180e-10	-3.232892e+00	-2.332128e+01
1.750000e-06	-4.177864e-07	-2.788962e-10	-2.908569e+00	-2.219309e+01
1.760000e-06	-3.710446e-07	-2.638491e-10	-2.583160e+00	-2.104727e+01
1.770000e-06	-3.243028e-07	-2.501489e-10	-2.257750e+00	-1.988385e+01
1.780000e-06	-2.776247e-07	-2.391348e-10	-1.932784e+00	-1.870293e+01
1.790000e-06	-2.308832e-07	-2.251293e-10	-1.607376e+00	-1.750465e+01
1.800000e-06	-1.841546e-07	-2.056402e-10	-1.282058e+00	-1.628921e+01
1.810000e-06	-1.373867e-07	-1.827923e-10	-9.564665e-01	-1.505688e+01
1.820000e-06	-9.064238e-08	-1.619518e-10	-6.310394e-01	-1.380797e+01
1.830000e-06	-4.399095e-08	-1.451804e-10	-3.062588e-01	-1.254286e+01
1.840000e-06	2.710426e-09	-1.310709e-10	1.886960e-02	-1.126197e+01
1.850000e-06	4.940772e-08	-1.167442e-10	3.439696e-01	-9.965801e+00
1.860000e-06	9.614306e-08	-1.020057e-10	6.693344e-01	-8.654904e+00
1.870000e-06	1.429559e-07	-8.198878e-11	9.952386e-01	-7.329889e+00
1.880000e-06	1.897870e-07	-6.002518e-11	1.321270e+00	-5.991425e+00
1.890000e-06	2.366212e-07	-3.651068e-11	1.647323e+00	-4.640237e+00
1.900000e-06	2.833865e-07	-1.249501e-11	1.972897e+00	-3.277104e+00
1.910000e-06	3.300680e-07	7.944845e-12	2.297887e+00	-1.902861e+00
1.920000e-06	3.766552e-07	2.380362e-11	2.622220e+00	-5.183899e-01
1.930000e-06	4.231512e-07	3.858730e-11	2.945919e+00	8.753772e-01
1.940000e-06	4.697362e-07	5.599078e-11	3.270237e+00	2.277465e+00
1.950000e-06	5.163764e-07	7.560629e-11	3.594939e+00	3.686855e+00
1.960000e-06	5.628352e-07	9.906991e-11	3.918379e+00	5.102494e+00
1.970000e-06	6.092461e-07	1.228059e-10	4.241485e+00	6.523293e+00
1.980000e-06	6.556128e-07	1.443859e-10	4.564283e+00	7.948135e+00
1.990000e-06	7.018437e-07	1.627801e-10	4.886137e+00	9.375877e+00
2.000000e-06	7.480641e-07	1.768297e-10	5.207916e+00	1.080536e+01
2.010000e-06	7.943064e-07	1.940424e-10	5.529849e+00	1.223540e+01
2.020000e-06	8.404865e-07	2.188119e-10	5.851348e+00	1.366482e+01
2.030000e-06	8.866155e-07	2.452565e-10	6.172491e+00	1.509241e+01
2.040000e-06	9.327177e-07	2.687466e-10	6.493449e+00	1.651700e+01
2.050000e-06	9.787859e-07	2.890849e-10	6.814169e+00	1.793739e+01
2.060000e-06	1.024810e-06	3.080345e-10	7.134582e+00	1.935240e+01
2.070000e-06	1.070681e-06	3.251100e-10	7.453931e+00	2.076087e+01
2.080000e-06	1.116416e-06	3.431388e-10	7.772329e+00	2.216167e+01
2.090000e-06	1.162047e-06	3.622675e-10	8.090005e+00	2.355367e+01
2.100000e-06	1.207705e-06	3.837162e-10	8.407874e+00	2.493579e+01
2.110000e-06	1.253357e-06	4.051101e-10	8.725692e+00	2.630697e+01
2.120000e-06	1.298876e-06	4.256153e-10	9.042589e+00	2.766621e+01
2.130000e-06	1.344307e-06	4.449162e-10	9.358876e+00	2.901254e+01
2.140000e-06	1.389660e-06	4.648153e-10	9.674613e+00	3.034502e+01
2.150000e-06	1.434860e-06	4.838354e-10	9.989293e+00	3.166279e+01
2.160000e-06	1.479999e-06	5.004546e-10	1.030354e+01	3.296502e+01
2.170000e-06	1.525043e-06	5.172076e-10	1.061713e+01	3.425095e+01
2.180000e-06	1.569864e-06	5.371087e-10	1.092917e+01	3.551987e+01
2.190000e-06	1.614557e-06	5.556924e-10	1.124032e+01	3.677113e+01
2.200000e-06	1.659150e-06	5.726452e-10	1.155077e+01	3.800415e+01
2.210000e-06	1.703611e-06	5.886409e-10	1.186030e+01	3.921840e+01
2.220000e-06	1.747922e-06	6.032692e-10	1.216879e+01	4.041342e+01
2.230000e-06	1.792159e-06	6.190957e-10	1.247675e+01	4.158882e+01
2.240000e-06	1.836253e-06	6.341702e-10	1.278373e+01	4.274426e+01
2.250000e-06	1.880197e-06	6.476541e-10	1.308967e+01	4.387948e+01
2.260000e-06	1.924077e-06	6.585008e-10	1.339515e+01	4.499427e+01
2.270000e-06	1.967876e-06	6.755836e-10	1.370007e+01	4.608848e+01
2.280000e-06	2.011620e-06	6.950822e-10	1.400461e+01	4.716204e+01
2.290000e-06	2.055331e-06	7.123734e-10	1.430892e+01	4.821491e+01
2.300000e-06	2.098966e-06	7.261460e-10	1.461270e+01	4.924713e+01
2.310000e-06	2.142474e-06	7.365366e-10	1.491560e+01	5.025879e+01
2.320000e-06	2.185971e-06	7.475729e-10	1.521842e+01	5.125002e+01
2.330000e-06	2.229425e-06	7.601127e-10	1.552094e+01	5.222101e+01
2.340000e-06	2.272652e-06	7.761332e-10	1.582188e+01	5.317198e+01
2.350000e-06	2.315658e-06	7.957457e-10	1.612129e+01	5.410323e+01
2.360000e-06	2.358391e-06	8.156618e-10	1.641878e+01	5.501504e+01
2.370000e-06	2.400707e-06	8.303861e-10	1.671338e+01	5.590779e+01
2.380000e-06	2.442762e-06	8.398775e-10	1.700616e+01	5.678183e+01
2.390000e-06	2.484558e-06	8.490307e-10	1.729714e+01	5.763760e+01
2.400000e-06	2.526021e-06	8.578734e-10	1.758580e+01	5.847551e+01
2.410000e-06	2.567212e-06	8.670992e-10	1.787256e+01	5.929603e+01
2.420000e-06	2.608111e-06	8.803642e-10	1.815730e+01	6.009962e+01
2.430000e-06	2.648720e-06	8.981653e-10	1.844002e+01	6.088678e+01
2.440000e-06	2.689095e-06	9.158456e-10	1.872110e+01	6.165799e+01
2.450000e-06	2.729293e-06	9.281331e-10	1.900095e+01	6.241378e+01
2.460000e-06	2.769293e-06	9.397056e-10	1.927942e+01	6.315463e+01
2.470000e-06	2.809163e-06	9.508690e-10	1.955699e+01	6.388107e+01
2.480000e-06	2.848938e-06	9.602587e-10	1.983390e+01	6.459360e+01
2.490000e-06	2.888598e-06	9.688129e-10	2.011001e+01	6.529273e+01
2.500000e-06	2.928137e-06	9.768595e-10	2.038528e+01	6.597895e+01
2.510000e-06	2.967545e-06	9.883133e-10	2.065963e+01	6.665275e+01
2.520000e-06	3.006760e-06	1.001168e-09	2.093264e+01	6.731460e+01
2.530000e-06	3.045769e-06	1.012009e-09	2.120421e+01	6.796497e+01
2.540000e-06	3.084592e-06	1.021626e-09	2.147449e+01	6.860431e+01
2.550000e-06	3.123080e-06	1.030477e-09	2.174244e+01	6.923304e+01
2.560000e-06	3.161249e-06	1.038353e-09	2.200817e+01	6.985157e+01
2.570000e-06	3.199294e-06	1.043089e-09	2.227303e+01	7.046032e+01
2.580000e-06	3.237224e-06	1.047405e-09	2.253710e+01	7.105964e+01
2.590000e-06	3.274923e-06	1.053589e-09	2.279955e+01	7.164990e+01
2.600000e-06	3.312346e-06	1.064633e-09	2.306008e+01	7.223143e+01
2.610000e-06	3.349653e-06	1.075283e-09	2.331981e+01	7.280454e+01
2.620000e-06	3.386738e-06	1.085196e-09	2.357799e+01	7.336954e+01
2.630000e-06	3.423458e-06	1.093861e-09	2.383363e+01	7.392669e+01
2.640000e-06	3.459890e-06	1.100712e-09	2.408726e+01	7.447625e+01
2.650000e-06	3.496144e-06	1.107807e-09	2.433966e+01	7.501845e+01
2.660000e-06	3.532223e-06	1.113727e-09	2.459084e+01	7.555351e+01
2.670000e-06	3.568111e-06	1.120236e-09	2.484068e+01	7.608162e+01
2.680000e-06	3.603921e-06	1.128368e-09	2.508999e+01	7.660296e+01
2.690000e-06	3.639580e-06	1.137119e-09	2.533824e+01	7.711770e+01
2.700000e-06	3.675041e-06	1.148205e-09	2.558511e+01	7.762597e+01
2.710000e-06	3.710319e-06	1.158226e-09	2.583072e+01	7.812791e+01
2.720000e-06	3.745334e-06	1.164509e-09	2.607449e+01	7.862363e+01
2.730000e-06	3.779977e-06	1.169849e-09	2.631566e+01	7.911322e+01
2.740000e-06	3.814211e-06	1.174236e-09	2.655399e+01	7.959679e+01
2.750000e-06	3.847866e-06	1.179193e-09	2.678830e+01	8.007439e+01
2.760000e-06	3.880965e-06	1.185919e-09	2.701873e+01	8.054610e+01
2.770000e-06	3.913682e-06	1.194580e-09	2.724650e+01	8.101197e+01
2.780000e-06	3.946069e-06	1.205528e-09	2.747198e+01	8.147204e+01
2.790000e-06	3.978223e-06	1.217307e-09	2.769583e+01	8.192634e+01
2.800000e-06	4.010111e-06	1.224614e-09	2.791783e+01	8.237489e+01
2.810000e-06	4.041728e-06	1.228725e-09	2.813794e+01	8.281772e+01
2.820000e-06	4.073257e-06	1.233169e-09	2.835744e+01	8.325483e+01
2.830000e-06	4.104755e-06	1.238516e-09	2.857672e+01	8.368622e+01
2.840000e-06	4.135931e-06	1.244987e-09	2.879377e+01	8.411189e+01
2.850000e-06	4.166659e-06	1.256809e-09	2.900769e+01	8.453183e+01
2.860000e-06	4.197138e-06	1.269568e-09	2.921988e+01	8.494602e+01
2.870000e-06	4.227368e-06	1.279319e-09	2.943034e+01	8.535444e+01
2.880000e-06	4.257287e-06	1.283033e-09	2.963863e+01	8.575706e+01
2.890000e-06	4.286922e-06	1.284003e-09	2.984494e+01	8.615384e+01
2.900000e-06	4.316273e-06	1.285513e-09	3.004928e+01	8.654476e+01
2.910000e-06	4.345369e-06	1.289504e-09	3.025184e+01	8.692977e+01
