# Temperatura_=_-0.6
# Concentracion g/m^3_=_1620.0
# C_Vs_to_Am_M_A/Vsm_=_65563218390.804596
# pendiente_HvsI_1/m_=_3716.3
# ordenada_HvsI_A/m_=_1297.0
# frecuencia_Hz_=_135100.0611740211

Tiempo_(s)	Campo_(V.s)	Magnetizacion_(V.s)	Campo_(kA/m)	Magnetizacion_(A/m)
0.000000e+00	-5.513370e-06	-1.283401e-09	-3.837254e+01	-8.451501e+01
1.000000e-08	-5.513638e-06	-1.282947e-09	-3.837440e+01	-8.447948e+01
2.000000e-08	-5.513679e-06	-1.285798e-09	-3.837468e+01	-8.444338e+01
3.000000e-08	-5.513429e-06	-1.289697e-09	-3.837294e+01	-8.440663e+01
4.000000e-08	-5.512748e-06	-1.288994e-09	-3.836820e+01	-8.436913e+01
5.000000e-08	-5.511513e-06	-1.278844e-09	-3.835961e+01	-8.433079e+01
6.000000e-08	-5.509688e-06	-1.265639e-09	-3.834691e+01	-8.429153e+01
7.000000e-08	-5.507285e-06	-1.283681e-09	-3.833018e+01	-8.425124e+01
8.000000e-08	-5.504299e-06	-1.335972e-09	-3.830940e+01	-8.420983e+01
9.000000e-08	-5.500832e-06	-1.352185e-09	-3.828527e+01	-8.416721e+01
1.000000e-07	-5.496948e-06	-1.319758e-09	-3.825824e+01	-8.412327e+01
1.100000e-07	-5.492758e-06	-1.313594e-09	-3.822907e+01	-8.407792e+01
1.200000e-07	-5.488398e-06	-1.278144e-09	-3.819873e+01	-8.403107e+01
1.300000e-07	-5.483757e-06	-1.263531e-09	-3.816643e+01	-8.398262e+01
1.400000e-07	-5.478671e-06	-1.277577e-09	-3.813103e+01	-8.393249e+01
1.500000e-07	-5.473188e-06	-1.283686e-09	-3.809287e+01	-8.388057e+01
1.600000e-07	-5.467347e-06	-1.289135e-09	-3.805222e+01	-8.382679e+01
1.700000e-07	-5.461081e-06	-1.276152e-09	-3.800861e+01	-8.377107e+01
1.800000e-07	-5.454406e-06	-1.338992e-09	-3.796215e+01	-8.371332e+01
1.900000e-07	-5.447324e-06	-1.355920e-09	-3.791286e+01	-8.365345e+01
2.000000e-07	-5.439876e-06	-1.299230e-09	-3.786102e+01	-8.359141e+01
2.100000e-07	-5.432235e-06	-1.254283e-09	-3.780784e+01	-8.352710e+01
2.200000e-07	-5.424427e-06	-1.279946e-09	-3.775350e+01	-8.346046e+01
2.300000e-07	-5.416337e-06	-1.315230e-09	-3.769719e+01	-8.339142e+01
2.400000e-07	-5.407806e-06	-1.296015e-09	-3.763782e+01	-8.331991e+01
2.500000e-07	-5.398615e-06	-1.283384e-09	-3.757385e+01	-8.324585e+01
2.600000e-07	-5.388730e-06	-1.298779e-09	-3.750505e+01	-8.316917e+01
2.700000e-07	-5.378235e-06	-1.293589e-09	-3.743200e+01	-8.308981e+01
2.800000e-07	-5.367298e-06	-1.250652e-09	-3.735589e+01	-8.300770e+01
2.900000e-07	-5.356025e-06	-1.243628e-09	-3.727743e+01	-8.292276e+01
3.000000e-07	-5.344338e-06	-1.248415e-09	-3.719609e+01	-8.283493e+01
3.100000e-07	-5.332185e-06	-1.241210e-09	-3.711150e+01	-8.274412e+01
3.200000e-07	-5.319571e-06	-1.246017e-09	-3.702371e+01	-8.265027e+01
3.300000e-07	-5.306507e-06	-1.274981e-09	-3.693278e+01	-8.255329e+01
3.400000e-07	-5.293087e-06	-1.271456e-09	-3.683939e+01	-8.245311e+01
3.500000e-07	-5.279371e-06	-1.264787e-09	-3.674393e+01	-8.234964e+01
3.600000e-07	-5.265263e-06	-1.265277e-09	-3.664573e+01	-8.224280e+01
3.700000e-07	-5.250611e-06	-1.234597e-09	-3.654376e+01	-8.213250e+01
3.800000e-07	-5.235430e-06	-1.220010e-09	-3.643810e+01	-8.201865e+01
3.900000e-07	-5.219760e-06	-1.260757e-09	-3.632904e+01	-8.190116e+01
4.000000e-07	-5.203612e-06	-1.258939e-09	-3.621665e+01	-8.177994e+01
4.100000e-07	-5.187055e-06	-1.217988e-09	-3.610141e+01	-8.165490e+01
4.200000e-07	-5.170131e-06	-1.247351e-09	-3.598362e+01	-8.152592e+01
4.300000e-07	-5.152898e-06	-1.273039e-09	-3.586368e+01	-8.139294e+01
4.400000e-07	-5.135343e-06	-1.215146e-09	-3.574150e+01	-8.125583e+01
4.500000e-07	-5.117457e-06	-1.217412e-09	-3.561702e+01	-8.111452e+01
4.600000e-07	-5.099169e-06	-1.274663e-09	-3.548974e+01	-8.096891e+01
4.700000e-07	-5.080376e-06	-1.228838e-09	-3.535894e+01	-8.081890e+01
4.800000e-07	-5.061251e-06	-1.192152e-09	-3.522583e+01	-8.066442e+01
4.900000e-07	-5.041883e-06	-1.263421e-09	-3.509103e+01	-8.050537e+01
5.000000e-07	-5.022214e-06	-1.258762e-09	-3.495414e+01	-8.034168e+01
5.100000e-07	-5.002372e-06	-1.178642e-09	-3.481604e+01	-8.017328e+01
5.200000e-07	-4.982328e-06	-1.216241e-09	-3.467653e+01	-8.000009e+01
5.300000e-07	-4.961999e-06	-1.254300e-09	-3.453505e+01	-7.982207e+01
5.400000e-07	-4.941313e-06	-1.189269e-09	-3.439107e+01	-7.963916e+01
5.500000e-07	-4.920236e-06	-1.191716e-09	-3.424438e+01	-7.945132e+01
5.600000e-07	-4.898845e-06	-1.244035e-09	-3.409550e+01	-7.925851e+01
5.700000e-07	-4.877051e-06	-1.188036e-09	-3.394381e+01	-7.906073e+01
5.800000e-07	-4.854882e-06	-1.161589e-09	-3.378952e+01	-7.885795e+01
5.900000e-07	-4.832315e-06	-1.222802e-09	-3.363245e+01	-7.865017e+01
6.000000e-07	-4.809363e-06	-1.204830e-09	-3.347271e+01	-7.843742e+01
6.100000e-07	-4.786140e-06	-1.152055e-09	-3.331108e+01	-7.821971e+01
6.200000e-07	-4.762631e-06	-1.187821e-09	-3.314746e+01	-7.799709e+01
6.300000e-07	-4.738942e-06	-1.190620e-09	-3.298259e+01	-7.776959e+01
6.400000e-07	-4.715085e-06	-1.143012e-09	-3.281655e+01	-7.753729e+01
6.500000e-07	-4.690932e-06	-1.162160e-09	-3.264844e+01	-7.730026e+01
6.600000e-07	-4.666336e-06	-1.187378e-09	-3.247726e+01	-7.705858e+01
6.700000e-07	-4.641208e-06	-1.153009e-09	-3.230237e+01	-7.681234e+01
6.800000e-07	-4.615557e-06	-1.152171e-09	-3.212384e+01	-7.656165e+01
6.900000e-07	-4.589378e-06	-1.173353e-09	-3.194164e+01	-7.630663e+01
7.000000e-07	-4.562667e-06	-1.148100e-09	-3.175573e+01	-7.604739e+01
7.100000e-07	-4.535541e-06	-1.130477e-09	-3.156693e+01	-7.578408e+01
7.200000e-07	-4.508178e-06	-1.144614e-09	-3.137649e+01	-7.551682e+01
7.300000e-07	-4.480679e-06	-1.136803e-09	-3.118510e+01	-7.524575e+01
7.400000e-07	-4.452973e-06	-1.123872e-09	-3.099227e+01	-7.497104e+01
7.500000e-07	-4.424992e-06	-1.134903e-09	-3.079753e+01	-7.469281e+01
7.600000e-07	-4.396743e-06	-1.133534e-09	-3.060091e+01	-7.441122e+01
7.700000e-07	-4.368174e-06	-1.117430e-09	-3.040208e+01	-7.412642e+01
7.800000e-07	-4.339280e-06	-1.115396e-09	-3.020098e+01	-7.383856e+01
7.900000e-07	-4.310081e-06	-1.114434e-09	-2.999776e+01	-7.354777e+01
8.000000e-07	-4.280546e-06	-1.099975e-09	-2.979220e+01	-7.325420e+01
8.100000e-07	-4.250717e-06	-1.094414e-09	-2.958459e+01	-7.295797e+01
8.200000e-07	-4.220677e-06	-1.095689e-09	-2.937551e+01	-7.265921e+01
8.300000e-07	-4.190406e-06	-1.088417e-09	-2.916483e+01	-7.235804e+01
8.400000e-07	-4.159845e-06	-1.081399e-09	-2.895213e+01	-7.205454e+01
8.500000e-07	-4.128989e-06	-1.082495e-09	-2.873737e+01	-7.174881e+01
8.600000e-07	-4.097808e-06	-1.073634e-09	-2.852036e+01	-7.144093e+01
8.700000e-07	-4.066410e-06	-1.061024e-09	-2.830183e+01	-7.113097e+01
8.800000e-07	-4.034893e-06	-1.058400e-09	-2.808248e+01	-7.081895e+01
8.900000e-07	-4.003176e-06	-1.057376e-09	-2.786172e+01	-7.050493e+01
9.000000e-07	-3.971205e-06	-1.048550e-09	-2.763921e+01	-7.018891e+01
9.100000e-07	-3.939000e-06	-1.044249e-09	-2.741507e+01	-6.987089e+01
9.200000e-07	-3.906487e-06	-1.041174e-09	-2.718878e+01	-6.955084e+01
9.300000e-07	-3.873477e-06	-1.028825e-09	-2.695903e+01	-6.922875e+01
9.400000e-07	-3.839958e-06	-1.018074e-09	-2.672575e+01	-6.890454e+01
9.500000e-07	-3.806004e-06	-1.017359e-09	-2.648943e+01	-6.857814e+01
9.600000e-07	-3.771677e-06	-1.011612e-09	-2.625052e+01	-6.824949e+01
9.700000e-07	-3.736907e-06	-1.002289e-09	-2.600852e+01	-6.791846e+01
9.800000e-07	-3.701818e-06	-9.992377e-10	-2.576430e+01	-6.758494e+01
9.900000e-07	-3.666544e-06	-9.957496e-10	-2.551880e+01	-6.724880e+01
1.000000e-06	-3.631039e-06	-9.864592e-10	-2.527169e+01	-6.690990e+01
1.010000e-06	-3.595372e-06	-9.804495e-10	-2.502345e+01	-6.656808e+01
1.020000e-06	-3.559579e-06	-9.782580e-10	-2.477434e+01	-6.622318e+01
1.030000e-06	-3.523640e-06	-9.710662e-10	-2.452420e+01	-6.587502e+01
1.040000e-06	-3.487418e-06	-9.626496e-10	-2.427210e+01	-6.552342e+01
1.050000e-06	-3.450964e-06	-9.590453e-10	-2.401838e+01	-6.516820e+01
1.060000e-06	-3.414320e-06	-9.530901e-10	-2.376334e+01	-6.480917e+01
1.070000e-06	-3.377469e-06	-9.438845e-10	-2.350686e+01	-6.444613e+01
1.080000e-06	-3.340390e-06	-9.386126e-10	-2.324880e+01	-6.407889e+01
1.090000e-06	-3.302977e-06	-9.329021e-10	-2.298841e+01	-6.370726e+01
1.100000e-06	-3.265293e-06	-9.224012e-10	-2.272613e+01	-6.333106e+01
1.110000e-06	-3.227461e-06	-9.118370e-10	-2.246282e+01	-6.295010e+01
1.120000e-06	-3.189386e-06	-9.030915e-10	-2.219782e+01	-6.256421e+01
1.130000e-06	-3.151040e-06	-8.921302e-10	-2.193094e+01	-6.217321e+01
1.140000e-06	-3.112471e-06	-8.846256e-10	-2.166251e+01	-6.177696e+01
1.150000e-06	-3.073699e-06	-8.813331e-10	-2.139266e+01	-6.137530e+01
1.160000e-06	-3.034788e-06	-8.768838e-10	-2.112184e+01	-6.096809e+01
1.170000e-06	-2.995710e-06	-8.709447e-10	-2.084985e+01	-6.055520e+01
1.180000e-06	-2.956426e-06	-8.650246e-10	-2.057644e+01	-6.013653e+01
1.190000e-06	-2.916978e-06	-8.560730e-10	-2.030189e+01	-5.971197e+01
1.200000e-06	-2.877417e-06	-8.440050e-10	-2.002655e+01	-5.928144e+01
1.210000e-06	-2.837738e-06	-8.324576e-10	-1.975039e+01	-5.884486e+01
1.220000e-06	-2.797897e-06	-8.250981e-10	-1.947310e+01	-5.840217e+01
1.230000e-06	-2.757867e-06	-8.188602e-10	-1.919449e+01	-5.795332e+01
1.240000e-06	-2.717639e-06	-8.136912e-10	-1.891451e+01	-5.749827e+01
1.250000e-06	-2.677180e-06	-8.088392e-10	-1.863292e+01	-5.703700e+01
1.260000e-06	-2.636539e-06	-8.030943e-10	-1.835006e+01	-5.656948e+01
1.270000e-06	-2.595776e-06	-7.943178e-10	-1.806635e+01	-5.609571e+01
1.280000e-06	-2.554767e-06	-7.845543e-10	-1.778094e+01	-5.561569e+01
1.290000e-06	-2.513328e-06	-7.760565e-10	-1.749252e+01	-5.512941e+01
1.300000e-06	-2.471475e-06	-7.649929e-10	-1.720123e+01	-5.463689e+01
1.310000e-06	-2.429390e-06	-7.548236e-10	-1.690832e+01	-5.413811e+01
1.320000e-06	-2.387121e-06	-7.478674e-10	-1.661414e+01	-5.363310e+01
1.330000e-06	-2.344637e-06	-7.407923e-10	-1.631845e+01	-5.312183e+01
1.340000e-06	-2.301858e-06	-7.321964e-10	-1.602071e+01	-5.260432e+01
1.350000e-06	-2.258792e-06	-7.237525e-10	-1.572098e+01	-5.208054e+01
1.360000e-06	-2.215566e-06	-7.156609e-10	-1.542013e+01	-5.155046e+01
1.370000e-06	-2.172160e-06	-7.062122e-10	-1.511803e+01	-5.101405e+01
1.380000e-06	-2.128598e-06	-6.996104e-10	-1.481484e+01	-5.047124e+01
1.390000e-06	-2.084978e-06	-6.959510e-10	-1.451125e+01	-4.992196e+01
1.400000e-06	-2.041311e-06	-6.880454e-10	-1.420733e+01	-4.936612e+01
1.410000e-06	-1.997550e-06	-6.771123e-10	-1.390276e+01	-4.880359e+01
1.420000e-06	-1.953687e-06	-6.673868e-10	-1.359747e+01	-4.823424e+01
1.430000e-06	-1.909752e-06	-6.594212e-10	-1.329169e+01	-4.765788e+01
1.440000e-06	-1.865727e-06	-6.521614e-10	-1.298528e+01	-4.707433e+01
1.450000e-06	-1.821565e-06	-6.463662e-10	-1.267792e+01	-4.648336e+01
1.460000e-06	-1.777289e-06	-6.401821e-10	-1.236976e+01	-4.588471e+01
1.470000e-06	-1.732915e-06	-6.301808e-10	-1.206093e+01	-4.527809e+01
1.480000e-06	-1.688358e-06	-6.173962e-10	-1.175081e+01	-4.466318e+01
1.490000e-06	-1.643691e-06	-6.055321e-10	-1.143993e+01	-4.403964e+01
1.500000e-06	-1.598931e-06	-5.960700e-10	-1.112841e+01	-4.340708e+01
1.510000e-06	-1.554007e-06	-5.879271e-10	-1.081574e+01	-4.276510e+01
1.520000e-06	-1.508976e-06	-5.795621e-10	-1.050233e+01	-4.211325e+01
1.530000e-06	-1.463836e-06	-5.687802e-10	-1.018816e+01	-4.145106e+01
1.540000e-06	-1.418650e-06	-5.561711e-10	-9.873671e+00	-4.077804e+01
1.550000e-06	-1.373440e-06	-5.435967e-10	-9.559014e+00	-4.009368e+01
1.560000e-06	-1.328119e-06	-5.332068e-10	-9.243580e+00	-3.939742e+01
1.570000e-06	-1.282664e-06	-5.245798e-10	-8.927222e+00	-3.868872e+01
1.580000e-06	-1.237200e-06	-5.146784e-10	-8.610797e+00	-3.796700e+01
1.590000e-06	-1.191610e-06	-5.047462e-10	-8.293491e+00	-3.723166e+01
1.600000e-06	-1.145847e-06	-4.939822e-10	-7.974989e+00	-3.648212e+01
1.610000e-06	-1.100014e-06	-4.794338e-10	-7.655996e+00	-3.571778e+01
1.620000e-06	-1.054190e-06	-4.650545e-10	-7.337063e+00	-3.493803e+01
1.630000e-06	-1.008303e-06	-4.537587e-10	-7.017695e+00	-3.414227e+01
1.640000e-06	-9.622447e-07	-4.447862e-10	-6.697132e+00	-3.332992e+01
1.650000e-06	-9.161061e-07	-4.364838e-10	-6.376012e+00	-3.250040e+01
1.660000e-06	-8.699085e-07	-4.258888e-10	-6.054481e+00	-3.165314e+01
1.670000e-06	-8.235870e-07	-4.129617e-10	-5.732088e+00	-3.078762e+01
1.680000e-06	-7.771623e-07	-3.970045e-10	-5.408976e+00	-2.990333e+01
1.690000e-06	-7.307512e-07	-3.813134e-10	-5.085959e+00	-2.899978e+01
1.700000e-06	-6.843358e-07	-3.665829e-10	-4.762912e+00	-2.807654e+01
1.710000e-06	-6.378880e-07	-3.513495e-10	-4.439640e+00	-2.713320e+01
1.720000e-06	-5.913835e-07	-3.358351e-10	-4.115973e+00	-2.616941e+01
1.730000e-06	-5.448159e-07	-3.184402e-10	-3.791867e+00	-2.518487e+01
1.740000e-06	-4.982174e-07	-2.998742e-10	-3.467546e+00	-2.417933e+01
1.750000e-06	-4.515581e-07	-2.827526e-10	-3.142801e+00	-2.315259e+01
1.760000e-06	-4.048673e-07	-2.685695e-10	-2.817838e+00	-2.210453e+01
1.770000e-06	-3.581916e-07	-2.561083e-10	-2.492980e+00	-2.103508e+01
1.780000e-06	-3.115045e-07	-2.438678e-10	-2.168042e+00	-1.994424e+01
1.790000e-06	-2.647947e-07	-2.290037e-10	-1.842946e+00	-1.883207e+01
1.800000e-06	-2.180767e-07	-2.124865e-10	-1.517793e+00	-1.769873e+01
1.810000e-06	-1.713431e-07	-1.959474e-10	-1.192532e+00	-1.654442e+01
1.820000e-06	-1.246072e-07	-1.783591e-10	-8.672541e-01	-1.536943e+01
1.830000e-06	-7.792030e-08	-1.620954e-10	-5.423179e-01	-1.417413e+01
1.840000e-06	-3.122481e-08	-1.472864e-10	-2.173217e-01	-1.295895e+01
1.850000e-06	1.548729e-08	-1.350353e-10	1.077901e-01	-1.172441e+01
1.860000e-06	6.230084e-08	-1.227926e-10	4.336079e-01	-1.047109e+01
1.870000e-06	1.090742e-07	-1.088959e-10	7.591458e-01	-9.199655e+00
1.880000e-06	1.557424e-07	-8.993323e-11	1.083952e+00	-7.910826e+00
1.890000e-06	2.024713e-07	-6.784952e-11	1.409181e+00	-6.605403e+00
1.900000e-06	2.491666e-07	-4.611568e-11	1.734176e+00	-5.284249e+00
1.910000e-06	2.958450e-07	-2.441145e-11	2.059053e+00	-3.948289e+00
1.920000e-06	3.426552e-07	-6.949184e-12	2.384848e+00	-2.598508e+00
1.930000e-06	3.894518e-07	7.063354e-12	2.710547e+00	-1.235945e+00
1.940000e-06	4.360775e-07	2.118360e-11	3.035058e+00	1.383108e-01
1.950000e-06	4.826465e-07	3.791843e-11	3.359174e+00	1.523121e+00
1.960000e-06	5.291763e-07	5.782218e-11	3.683017e+00	2.917309e+00
1.970000e-06	5.757224e-07	7.802138e-11	4.006973e+00	4.319660e+00
1.980000e-06	6.221904e-07	9.669825e-11	4.330386e+00	5.728927e+00
1.990000e-06	6.685172e-07	1.160180e-10	4.652817e+00	7.143839e+00
2.000000e-06	7.148431e-07	1.351998e-10	4.975240e+00	8.563105e+00
2.010000e-06	7.611251e-07	1.541463e-10	5.297359e+00	9.985419e+00
2.020000e-06	8.073350e-07	1.748751e-10	5.618975e+00	1.140947e+01
2.030000e-06	8.535756e-07	1.987831e-10	5.940805e+00	1.283393e+01
2.040000e-06	8.998174e-07	2.205430e-10	6.262644e+00	1.425749e+01
2.050000e-06	9.458726e-07	2.376090e-10	6.583184e+00	1.567884e+01
2.060000e-06	9.918039e-07	2.507805e-10	6.902861e+00	1.709668e+01
2.070000e-06	1.037694e-06	2.647976e-10	7.222250e+00	1.850976e+01
2.080000e-06	1.083539e-06	2.849830e-10	7.541332e+00	1.991680e+01
2.090000e-06	1.129319e-06	3.094976e-10	7.859953e+00	2.131659e+01
2.100000e-06	1.175017e-06	3.340543e-10	8.178006e+00	2.270795e+01
2.110000e-06	1.220668e-06	3.561072e-10	8.495735e+00	2.408971e+01
2.120000e-06	1.266184e-06	3.728531e-10	8.812521e+00	2.546077e+01
2.130000e-06	1.311540e-06	3.860202e-10	9.128191e+00	2.682007e+01
2.140000e-06	1.356795e-06	4.005854e-10	9.443163e+00	2.816660e+01
2.150000e-06	1.402047e-06	4.197683e-10	9.758117e+00	2.949938e+01
2.160000e-06	1.447277e-06	4.412693e-10	1.007291e+01	3.081750e+01
2.170000e-06	1.492342e-06	4.621038e-10	1.038656e+01	3.212013e+01
2.180000e-06	1.537253e-06	4.813907e-10	1.069914e+01	3.340645e+01
2.190000e-06	1.582079e-06	4.992378e-10	1.101112e+01	3.467574e+01
2.200000e-06	1.626703e-06	5.157739e-10	1.132170e+01	3.592731e+01
2.210000e-06	1.671171e-06	5.317455e-10	1.163119e+01	3.716056e+01
2.220000e-06	1.715605e-06	5.477238e-10	1.194045e+01	3.837493e+01
2.230000e-06	1.759994e-06	5.644713e-10	1.224939e+01	3.956992e+01
2.240000e-06	1.804260e-06	5.821710e-10	1.255748e+01	4.074510e+01
2.250000e-06	1.848353e-06	5.972293e-10	1.286437e+01	4.190011e+01
2.260000e-06	1.892333e-06	6.096167e-10	1.317046e+01	4.303462e+01
2.270000e-06	1.936223e-06	6.218063e-10	1.347593e+01	4.414837e+01
2.280000e-06	1.980050e-06	6.383936e-10	1.378096e+01	4.524116e+01
2.290000e-06	2.023841e-06	6.566266e-10	1.408574e+01	4.631284e+01
2.300000e-06	2.067584e-06	6.748176e-10	1.439019e+01	4.736331e+01
2.310000e-06	2.111249e-06	6.897293e-10	1.469409e+01	4.839250e+01
2.320000e-06	2.154808e-06	7.027724e-10	1.499726e+01	4.940042e+01
2.330000e-06	2.198224e-06	7.152328e-10	1.529943e+01	5.038710e+01
2.340000e-06	2.241509e-06	7.267675e-10	1.560069e+01	5.135261e+01
2.350000e-06	2.284612e-06	7.408635e-10	1.590068e+01	5.229707e+01
2.360000e-06	2.327512e-06	7.577871e-10	1.619926e+01	5.322061e+01
2.370000e-06	2.370163e-06	7.754366e-10	1.649611e+01	5.412341e+01
2.380000e-06	2.412499e-06	7.884015e-10	1.679077e+01	5.500567e+01
2.390000e-06	2.454589e-06	7.994041e-10	1.708371e+01	5.586763e+01
2.400000e-06	2.496432e-06	8.089374e-10	1.737493e+01	5.670952e+01
2.410000e-06	2.537932e-06	8.168349e-10	1.766377e+01	5.753163e+01
2.420000e-06	2.579064e-06	8.268282e-10	1.795004e+01	5.833423e+01
2.430000e-06	2.619890e-06	8.396701e-10	1.823419e+01	5.911763e+01
2.440000e-06	2.660412e-06	8.537731e-10	1.851621e+01	5.988214e+01
2.450000e-06	2.700707e-06	8.658071e-10	1.879666e+01	6.062807e+01
2.460000e-06	2.740894e-06	8.754208e-10	1.907636e+01	6.135576e+01
2.470000e-06	2.780918e-06	8.866017e-10	1.935493e+01	6.206554e+01
2.480000e-06	2.820817e-06	8.979378e-10	1.963262e+01	6.275775e+01
2.490000e-06	2.860632e-06	9.079897e-10	1.990973e+01	6.343272e+01
2.500000e-06	2.900283e-06	9.184164e-10	2.018569e+01	6.409080e+01
2.510000e-06	2.939711e-06	9.284550e-10	2.046011e+01	6.473232e+01
2.520000e-06	2.978972e-06	9.381849e-10	2.073336e+01	6.535763e+01
2.530000e-06	3.018123e-06	9.480914e-10	2.100585e+01	6.596705e+01
2.540000e-06	3.057075e-06	9.561791e-10	2.127695e+01	6.656093e+01
2.550000e-06	3.095718e-06	9.621047e-10	2.154590e+01	6.713960e+01
2.560000e-06	3.134128e-06	9.665719e-10	2.181323e+01	6.770337e+01
2.570000e-06	3.172334e-06	9.726447e-10	2.207914e+01	6.825257e+01
2.580000e-06	3.210358e-06	9.789740e-10	2.234378e+01	6.878753e+01
2.590000e-06	3.248283e-06	9.830621e-10	2.260774e+01	6.930855e+01
2.600000e-06	3.286012e-06	9.894613e-10	2.287033e+01	6.981594e+01
2.610000e-06	3.323457e-06	9.967843e-10	2.313095e+01	7.031002e+01
2.620000e-06	3.360668e-06	1.002017e-09	2.338993e+01	7.079109e+01
2.630000e-06	3.397651e-06	1.006295e-09	2.364733e+01	7.125944e+01
2.640000e-06	3.434370e-06	1.011531e-09	2.390289e+01	7.171537e+01
2.650000e-06	3.470785e-06	1.017615e-09	2.415633e+01	7.215918e+01
2.660000e-06	3.506944e-06	1.025375e-09	2.440800e+01	7.259117e+01
2.670000e-06	3.542955e-06	1.032405e-09	2.465863e+01	7.301162e+01
2.680000e-06	3.578843e-06	1.034865e-09	2.490841e+01	7.342082e+01
2.690000e-06	3.614586e-06	1.038467e-09	2.515718e+01	7.381906e+01
2.700000e-06	3.650168e-06	1.043981e-09	2.540482e+01	7.420663e+01
2.710000e-06	3.685633e-06	1.052057e-09	2.565166e+01	7.458380e+01
2.720000e-06	3.720850e-06	1.060559e-09	2.589677e+01	7.495088e+01
2.730000e-06	3.755802e-06	1.068299e-09	2.614003e+01	7.530813e+01
2.740000e-06	3.790384e-06	1.075613e-09	2.638071e+01	7.565584e+01
2.750000e-06	3.824351e-06	1.078048e-09	2.661712e+01	7.599430e+01
2.760000e-06	3.857824e-06	1.076403e-09	2.685009e+01	7.632377e+01
2.770000e-06	3.890889e-06	1.075073e-09	2.708022e+01	7.664454e+01
2.780000e-06	3.923495e-06	1.077777e-09	2.730716e+01	7.695687e+01
2.790000e-06	3.955768e-06	1.087021e-09	2.753177e+01	7.726105e+01
2.800000e-06	3.987817e-06	1.098661e-09	2.775483e+01	7.755732e+01
2.810000e-06	4.019671e-06	1.109099e-09	2.797653e+01	7.784597e+01
2.820000e-06	4.051392e-06	1.116688e-09	2.819730e+01	7.812723e+01
2.830000e-06	4.082928e-06	1.119814e-09	2.841679e+01	7.840137e+01
2.840000e-06	4.114237e-06	1.122036e-09	2.863470e+01	7.866862e+01
2.850000e-06	4.145345e-06	1.123935e-09	2.885121e+01	7.892923e+01
2.860000e-06	4.176125e-06	1.127713e-09	2.906544e+01	7.918341e+01
2.870000e-06	4.206512e-06	1.132538e-09	2.927692e+01	7.943140e+01
2.880000e-06	4.236601e-06	1.138521e-09	2.948634e+01	7.967339e+01
2.890000e-06	4.266398e-06	1.145865e-09	2.969372e+01	7.990958e+01
2.900000e-06	4.295964e-06	1.151677e-09	2.989950e+01	8.014017e+01
