# Temperatura_=_-4.95
# Concentracion g/m^3_=_1620.0
# C_Vs_to_Am_M_A/Vsm_=_65563218390.804596
# pendiente_HvsI_1/m_=_3716.3
# ordenada_HvsI_A/m_=_1297.0
# frecuencia_Hz_=_135109.70181184768

Tiempo_(s)	Campo_(V.s)	Magnetizacion_(V.s)	Campo_(kA/m)	Magnetizacion_(A/m)
0.000000e+00	-5.508920e-06	-7.346497e-10	-3.836477e+01	-4.812041e+01
1.000000e-08	-5.509152e-06	-7.300339e-10	-3.836639e+01	-4.805629e+01
2.000000e-08	-5.509176e-06	-7.274671e-10	-3.836655e+01	-4.799364e+01
3.000000e-08	-5.508917e-06	-7.281668e-10	-3.836475e+01	-4.793253e+01
4.000000e-08	-5.508232e-06	-7.281208e-10	-3.835997e+01	-4.787305e+01
5.000000e-08	-5.506918e-06	-7.193808e-10	-3.835083e+01	-4.781522e+01
6.000000e-08	-5.504929e-06	-7.017676e-10	-3.833697e+01	-4.775910e+01
7.000000e-08	-5.502355e-06	-6.903503e-10	-3.831905e+01	-4.770470e+01
8.000000e-08	-5.499389e-06	-7.223625e-10	-3.829839e+01	-4.765204e+01
9.000000e-08	-5.495979e-06	-8.284427e-10	-3.827464e+01	-4.760112e+01
1.000000e-07	-5.492023e-06	-9.070242e-10	-3.824709e+01	-4.755192e+01
1.100000e-07	-5.487701e-06	-7.781311e-10	-3.821700e+01	-4.750441e+01
1.200000e-07	-5.483204e-06	-5.932383e-10	-3.818568e+01	-4.745855e+01
1.300000e-07	-5.478569e-06	-6.096639e-10	-3.815340e+01	-4.741428e+01
1.400000e-07	-5.473581e-06	-7.800750e-10	-3.811866e+01	-4.737154e+01
1.500000e-07	-5.468055e-06	-7.695494e-10	-3.808018e+01	-4.733024e+01
1.600000e-07	-5.462174e-06	-6.495587e-10	-3.803922e+01	-4.729028e+01
1.700000e-07	-5.456036e-06	-6.771022e-10	-3.799648e+01	-4.725155e+01
1.800000e-07	-5.449416e-06	-8.338937e-10	-3.795038e+01	-4.721395e+01
1.900000e-07	-5.442212e-06	-7.927477e-10	-3.790020e+01	-4.717733e+01
2.000000e-07	-5.434732e-06	-6.304915e-10	-3.784811e+01	-4.714157e+01
2.100000e-07	-5.427140e-06	-5.958593e-10	-3.779524e+01	-4.710650e+01
2.200000e-07	-5.419236e-06	-7.061930e-10	-3.774020e+01	-4.707199e+01
2.300000e-07	-5.411017e-06	-7.398712e-10	-3.768296e+01	-4.703786e+01
2.400000e-07	-5.402538e-06	-6.743313e-10	-3.762391e+01	-4.700396e+01
2.500000e-07	-5.393519e-06	-6.383952e-10	-3.756110e+01	-4.697011e+01
2.600000e-07	-5.383622e-06	-6.516122e-10	-3.749218e+01	-4.693614e+01
2.700000e-07	-5.372958e-06	-6.743864e-10	-3.741791e+01	-4.690188e+01
2.800000e-07	-5.361850e-06	-6.716857e-10	-3.734055e+01	-4.686716e+01
2.900000e-07	-5.350344e-06	-6.808749e-10	-3.726043e+01	-4.683180e+01
3.000000e-07	-5.338462e-06	-6.765530e-10	-3.717768e+01	-4.679564e+01
3.100000e-07	-5.326262e-06	-6.983197e-10	-3.709271e+01	-4.675850e+01
3.200000e-07	-5.313667e-06	-6.761158e-10	-3.700500e+01	-4.672024e+01
3.300000e-07	-5.300625e-06	-6.411586e-10	-3.691418e+01	-4.668069e+01
3.400000e-07	-5.287196e-06	-6.352207e-10	-3.682065e+01	-4.663971e+01
3.500000e-07	-5.273432e-06	-6.943021e-10	-3.672480e+01	-4.659716e+01
3.600000e-07	-5.259249e-06	-6.830548e-10	-3.662603e+01	-4.655292e+01
3.700000e-07	-5.244516e-06	-6.713385e-10	-3.652343e+01	-4.650686e+01
3.800000e-07	-5.229292e-06	-6.916503e-10	-3.641740e+01	-4.645887e+01
3.900000e-07	-5.213554e-06	-6.897440e-10	-3.630780e+01	-4.640885e+01
4.000000e-07	-5.197197e-06	-6.359063e-10	-3.619389e+01	-4.635673e+01
4.100000e-07	-5.180503e-06	-6.751083e-10	-3.607763e+01	-4.630243e+01
4.200000e-07	-5.163523e-06	-7.073609e-10	-3.595938e+01	-4.624588e+01
4.300000e-07	-5.146227e-06	-6.399315e-10	-3.583893e+01	-4.618704e+01
4.400000e-07	-5.128683e-06	-6.383846e-10	-3.571675e+01	-4.612588e+01
4.500000e-07	-5.110782e-06	-7.326583e-10	-3.559209e+01	-4.606237e+01
4.600000e-07	-5.092469e-06	-6.947928e-10	-3.546455e+01	-4.599649e+01
4.700000e-07	-5.073691e-06	-6.099273e-10	-3.533378e+01	-4.592825e+01
4.800000e-07	-5.054468e-06	-6.859338e-10	-3.519991e+01	-4.585767e+01
4.900000e-07	-5.035003e-06	-7.300774e-10	-3.506435e+01	-4.578476e+01
5.000000e-07	-5.015382e-06	-6.437099e-10	-3.492771e+01	-4.570956e+01
5.100000e-07	-4.995550e-06	-6.506978e-10	-3.478960e+01	-4.563212e+01
5.200000e-07	-4.975442e-06	-7.179265e-10	-3.464956e+01	-4.555248e+01
5.300000e-07	-4.954933e-06	-6.535611e-10	-3.450674e+01	-4.547070e+01
5.400000e-07	-4.934074e-06	-6.370874e-10	-3.436147e+01	-4.538686e+01
5.500000e-07	-4.912854e-06	-7.185975e-10	-3.421369e+01	-4.530102e+01
5.600000e-07	-4.891275e-06	-6.886415e-10	-3.406341e+01	-4.521326e+01
5.700000e-07	-4.869410e-06	-6.163579e-10	-3.391114e+01	-4.512367e+01
5.800000e-07	-4.847272e-06	-6.866809e-10	-3.375697e+01	-4.503233e+01
5.900000e-07	-4.824799e-06	-7.075770e-10	-3.360047e+01	-4.493932e+01
6.000000e-07	-4.801893e-06	-6.345744e-10	-3.344095e+01	-4.484473e+01
6.100000e-07	-4.778648e-06	-6.493539e-10	-3.327907e+01	-4.474865e+01
6.200000e-07	-4.755167e-06	-6.956537e-10	-3.311554e+01	-4.465116e+01
6.300000e-07	-4.731427e-06	-6.382568e-10	-3.295021e+01	-4.455235e+01
6.400000e-07	-4.707495e-06	-6.282002e-10	-3.278355e+01	-4.445229e+01
6.500000e-07	-4.683335e-06	-6.744305e-10	-3.261530e+01	-4.435107e+01
6.600000e-07	-4.658721e-06	-6.566365e-10	-3.244388e+01	-4.424874e+01
6.700000e-07	-4.633647e-06	-6.328670e-10	-3.226926e+01	-4.414538e+01
6.800000e-07	-4.608069e-06	-6.709021e-10	-3.209114e+01	-4.404105e+01
6.900000e-07	-4.581861e-06	-6.626954e-10	-3.190862e+01	-4.393578e+01
7.000000e-07	-4.555063e-06	-6.269883e-10	-3.172199e+01	-4.382964e+01
7.100000e-07	-4.527834e-06	-6.411232e-10	-3.153237e+01	-4.372265e+01
7.200000e-07	-4.500346e-06	-6.543741e-10	-3.134094e+01	-4.361485e+01
7.300000e-07	-4.472689e-06	-6.319392e-10	-3.114833e+01	-4.350625e+01
7.400000e-07	-4.444922e-06	-6.358783e-10	-3.095496e+01	-4.339686e+01
7.500000e-07	-4.416964e-06	-6.505489e-10	-3.076025e+01	-4.328670e+01
7.600000e-07	-4.388684e-06	-6.353191e-10	-3.056331e+01	-4.317574e+01
7.700000e-07	-4.360142e-06	-6.240826e-10	-3.036454e+01	-4.306399e+01
7.800000e-07	-4.331273e-06	-6.287482e-10	-3.016349e+01	-4.295143e+01
7.900000e-07	-4.302039e-06	-6.241200e-10	-2.995990e+01	-4.283801e+01
8.000000e-07	-4.272531e-06	-6.209516e-10	-2.975441e+01	-4.272372e+01
8.100000e-07	-4.242742e-06	-6.320563e-10	-2.954695e+01	-4.260851e+01
8.200000e-07	-4.212726e-06	-6.252903e-10	-2.933792e+01	-4.249233e+01
8.300000e-07	-4.182409e-06	-6.116294e-10	-2.912679e+01	-4.237513e+01
8.400000e-07	-4.151760e-06	-6.121001e-10	-2.891335e+01	-4.225686e+01
8.500000e-07	-4.120825e-06	-6.121239e-10	-2.869791e+01	-4.213746e+01
8.600000e-07	-4.089594e-06	-5.981317e-10	-2.848041e+01	-4.201687e+01
8.700000e-07	-4.058128e-06	-5.974837e-10	-2.826128e+01	-4.189501e+01
8.800000e-07	-4.026522e-06	-6.017633e-10	-2.804117e+01	-4.177183e+01
8.900000e-07	-3.994811e-06	-5.982217e-10	-2.782033e+01	-4.164725e+01
9.000000e-07	-3.962927e-06	-5.938700e-10	-2.759829e+01	-4.152121e+01
9.100000e-07	-3.930772e-06	-5.993328e-10	-2.737436e+01	-4.139363e+01
9.200000e-07	-3.898284e-06	-5.919312e-10	-2.714811e+01	-4.126446e+01
9.300000e-07	-3.865392e-06	-5.831515e-10	-2.691904e+01	-4.113363e+01
9.400000e-07	-3.832000e-06	-5.838494e-10	-2.668650e+01	-4.100107e+01
9.500000e-07	-3.798040e-06	-5.819509e-10	-2.645000e+01	-4.086673e+01
9.600000e-07	-3.763593e-06	-5.702470e-10	-2.621011e+01	-4.073054e+01
9.700000e-07	-3.728790e-06	-5.722581e-10	-2.596773e+01	-4.059246e+01
9.800000e-07	-3.693637e-06	-5.791638e-10	-2.572292e+01	-4.045243e+01
9.900000e-07	-3.658257e-06	-5.762124e-10	-2.547653e+01	-4.031039e+01
1.000000e-06	-3.622772e-06	-5.749306e-10	-2.522941e+01	-4.016632e+01
1.010000e-06	-3.587144e-06	-5.798361e-10	-2.498129e+01	-4.002017e+01
1.020000e-06	-3.551376e-06	-5.738543e-10	-2.473220e+01	-3.987190e+01
1.030000e-06	-3.515487e-06	-5.618779e-10	-2.448226e+01	-3.972148e+01
1.040000e-06	-3.479416e-06	-5.578274e-10	-2.423107e+01	-3.956888e+01
1.050000e-06	-3.443062e-06	-5.556402e-10	-2.397789e+01	-3.941406e+01
1.060000e-06	-3.406409e-06	-5.515592e-10	-2.372263e+01	-3.925701e+01
1.070000e-06	-3.369465e-06	-5.552959e-10	-2.346535e+01	-3.909771e+01
1.080000e-06	-3.332281e-06	-5.612502e-10	-2.320640e+01	-3.893611e+01
1.090000e-06	-3.294881e-06	-5.571107e-10	-2.294594e+01	-3.877222e+01
1.100000e-06	-3.257246e-06	-5.521294e-10	-2.268384e+01	-3.860599e+01
1.110000e-06	-3.219370e-06	-5.490224e-10	-2.242007e+01	-3.843741e+01
1.120000e-06	-3.181282e-06	-5.426918e-10	-2.215482e+01	-3.826645e+01
1.130000e-06	-3.143003e-06	-5.345184e-10	-2.188824e+01	-3.809307e+01
1.140000e-06	-3.104449e-06	-5.348149e-10	-2.161974e+01	-3.791726e+01
1.150000e-06	-3.065632e-06	-5.343028e-10	-2.134942e+01	-3.773897e+01
1.160000e-06	-3.026653e-06	-5.290103e-10	-2.107797e+01	-3.755815e+01
1.170000e-06	-2.987588e-06	-5.268525e-10	-2.080592e+01	-3.737476e+01
1.180000e-06	-2.948302e-06	-5.306136e-10	-2.053232e+01	-3.718875e+01
1.190000e-06	-2.908776e-06	-5.290168e-10	-2.025706e+01	-3.700004e+01
1.200000e-06	-2.869154e-06	-5.260100e-10	-1.998112e+01	-3.680856e+01
1.210000e-06	-2.829405e-06	-5.238295e-10	-1.970431e+01	-3.661424e+01
1.220000e-06	-2.789577e-06	-5.195457e-10	-1.942694e+01	-3.641697e+01
1.230000e-06	-2.749670e-06	-5.121136e-10	-1.914903e+01	-3.621666e+01
1.240000e-06	-2.709553e-06	-5.075295e-10	-1.886965e+01	-3.601319e+01
1.250000e-06	-2.669177e-06	-5.037110e-10	-1.858846e+01	-3.580642e+01
1.260000e-06	-2.628521e-06	-4.995967e-10	-1.830533e+01	-3.559623e+01
1.270000e-06	-2.587592e-06	-4.965796e-10	-1.802029e+01	-3.538245e+01
1.280000e-06	-2.546493e-06	-4.971024e-10	-1.773408e+01	-3.516493e+01
1.290000e-06	-2.505157e-06	-4.961661e-10	-1.744621e+01	-3.494348e+01
1.300000e-06	-2.463519e-06	-4.917520e-10	-1.715624e+01	-3.471791e+01
1.310000e-06	-2.421617e-06	-4.869352e-10	-1.686443e+01	-3.448801e+01
1.320000e-06	-2.379377e-06	-4.806956e-10	-1.657026e+01	-3.425358e+01
1.330000e-06	-2.336895e-06	-4.727028e-10	-1.627441e+01	-3.401436e+01
1.340000e-06	-2.294190e-06	-4.683755e-10	-1.597701e+01	-3.377014e+01
1.350000e-06	-2.251173e-06	-4.673664e-10	-1.567743e+01	-3.352063e+01
1.360000e-06	-2.207960e-06	-4.646463e-10	-1.537649e+01	-3.326559e+01
1.370000e-06	-2.164618e-06	-4.626163e-10	-1.507466e+01	-3.300473e+01
1.380000e-06	-2.121081e-06	-4.632945e-10	-1.477146e+01	-3.273776e+01
1.390000e-06	-2.077416e-06	-4.628404e-10	-1.446737e+01	-3.246439e+01
1.400000e-06	-2.033718e-06	-4.592480e-10	-1.416305e+01	-3.218432e+01
1.410000e-06	-1.989947e-06	-4.562122e-10	-1.385823e+01	-3.189722e+01
1.420000e-06	-1.946079e-06	-4.528737e-10	-1.355272e+01	-3.160278e+01
1.430000e-06	-1.902096e-06	-4.474207e-10	-1.324642e+01	-3.130068e+01
1.440000e-06	-1.858052e-06	-4.399054e-10	-1.293969e+01	-3.099058e+01
1.450000e-06	-1.813944e-06	-4.335427e-10	-1.263252e+01	-3.067216e+01
1.460000e-06	-1.769700e-06	-4.280994e-10	-1.232440e+01	-3.034508e+01
1.470000e-06	-1.725381e-06	-4.229204e-10	-1.201576e+01	-3.000901e+01
1.480000e-06	-1.680986e-06	-4.172886e-10	-1.170659e+01	-2.966361e+01
1.490000e-06	-1.636367e-06	-4.117294e-10	-1.139585e+01	-2.930855e+01
1.500000e-06	-1.591586e-06	-4.060448e-10	-1.108399e+01	-2.894351e+01
1.510000e-06	-1.546666e-06	-4.011371e-10	-1.077117e+01	-2.856816e+01
1.520000e-06	-1.501626e-06	-3.948064e-10	-1.045750e+01	-2.818218e+01
1.530000e-06	-1.456495e-06	-3.867905e-10	-1.014321e+01	-2.778527e+01
1.540000e-06	-1.411227e-06	-3.752703e-10	-9.827950e+00	-2.737712e+01
1.550000e-06	-1.365901e-06	-3.642452e-10	-9.512298e+00	-2.695743e+01
1.560000e-06	-1.320521e-06	-3.561314e-10	-9.196265e+00	-2.652594e+01
1.570000e-06	-1.275019e-06	-3.496855e-10	-8.879380e+00	-2.608236e+01
1.580000e-06	-1.229386e-06	-3.445229e-10	-8.561589e+00	-2.562644e+01
1.590000e-06	-1.183713e-06	-3.410822e-10	-8.243519e+00	-2.515794e+01
1.600000e-06	-1.137967e-06	-3.366111e-10	-7.924939e+00	-2.467663e+01
1.610000e-06	-1.092108e-06	-3.286851e-10	-7.605566e+00	-2.418231e+01
1.620000e-06	-1.046169e-06	-3.187748e-10	-7.285646e+00	-2.367477e+01
1.630000e-06	-1.000167e-06	-3.078049e-10	-6.965280e+00	-2.315384e+01
1.640000e-06	-9.541189e-07	-2.986090e-10	-6.644596e+00	-2.261936e+01
1.650000e-06	-9.080025e-07	-2.896970e-10	-6.323436e+00	-2.207121e+01
1.660000e-06	-8.618487e-07	-2.794626e-10	-6.002016e+00	-2.150925e+01
1.670000e-06	-8.156837e-07	-2.696453e-10	-5.680517e+00	-2.093340e+01
1.680000e-06	-7.694053e-07	-2.597859e-10	-5.358229e+00	-2.034358e+01
1.690000e-06	-7.229759e-07	-2.500973e-10	-5.034889e+00	-1.973974e+01
1.700000e-06	-6.765036e-07	-2.430778e-10	-4.711250e+00	-1.912186e+01
1.710000e-06	-6.300280e-07	-2.364971e-10	-4.387589e+00	-1.848992e+01
1.720000e-06	-5.835574e-07	-2.275056e-10	-4.063963e+00	-1.784395e+01
1.730000e-06	-5.370599e-07	-2.152426e-10	-3.740148e+00	-1.718398e+01
1.740000e-06	-4.905195e-07	-2.006934e-10	-3.416036e+00	-1.651009e+01
1.750000e-06	-4.439872e-07	-1.864199e-10	-3.091979e+00	-1.582236e+01
1.760000e-06	-3.973810e-07	-1.756991e-10	-2.767408e+00	-1.512092e+01
1.770000e-06	-3.506425e-07	-1.682035e-10	-2.441916e+00	-1.440591e+01
1.780000e-06	-3.038540e-07	-1.623807e-10	-2.116075e+00	-1.367749e+01
1.790000e-06	-2.570851e-07	-1.558434e-10	-1.790371e+00	-1.293586e+01
1.800000e-06	-2.103090e-07	-1.473743e-10	-1.464617e+00	-1.218123e+01
1.810000e-06	-1.635570e-07	-1.366027e-10	-1.139030e+00	-1.141385e+01
1.820000e-06	-1.168576e-07	-1.245750e-10	-8.138098e-01	-1.063399e+01
1.830000e-06	-7.017789e-08	-1.142600e-10	-4.887271e-01	-9.841945e+00
1.840000e-06	-2.353742e-08	-1.060896e-10	-1.639174e-01	-9.038035e+00
1.850000e-06	2.310524e-08	-9.600196e-11	1.609076e-01	-8.222607e+00
1.860000e-06	6.981640e-08	-8.624561e-11	4.862096e-01	-7.396029e+00
1.870000e-06	1.166144e-07	-7.696017e-11	8.121164e-01	-6.558699e+00
1.880000e-06	1.634709e-07	-6.386566e-11	1.138431e+00	-5.711036e+00
1.890000e-06	2.101980e-07	-4.999516e-11	1.463844e+00	-4.853485e+00
1.900000e-06	2.568328e-07	-3.766137e-11	1.788614e+00	-3.986511e+00
1.910000e-06	3.035423e-07	-2.624567e-11	2.113904e+00	-3.110607e+00
1.920000e-06	3.502552e-07	-1.632757e-11	2.439219e+00	-2.226285e+00
1.930000e-06	3.969685e-07	-6.937230e-12	2.764535e+00	-1.334080e+00
1.940000e-06	4.436231e-07	5.561894e-12	3.089444e+00	-4.345492e-01
1.950000e-06	4.901638e-07	2.041873e-11	3.413558e+00	4.717321e-01
1.960000e-06	5.366580e-07	3.404139e-11	3.737350e+00	1.384168e+00
1.970000e-06	5.830932e-07	4.531423e-11	4.060730e+00	2.302143e+00
1.980000e-06	6.294563e-07	5.517731e-11	4.383608e+00	3.225025e+00
1.990000e-06	6.757318e-07	6.523531e-11	4.705876e+00	4.152166e+00
2.000000e-06	7.219449e-07	7.418621e-11	5.027709e+00	5.082902e+00
2.010000e-06	7.681781e-07	8.578274e-11	5.349683e+00	6.016556e+00
2.020000e-06	8.144767e-07	1.027164e-10	5.672111e+00	6.952436e+00
2.030000e-06	8.606421e-07	1.217194e-10	5.993612e+00	7.889841e+00
2.040000e-06	9.066059e-07	1.379282e-10	6.313710e+00	8.828060e+00
2.050000e-06	9.525485e-07	1.490566e-10	6.633660e+00	9.766373e+00
2.060000e-06	9.984404e-07	1.576614e-10	6.953256e+00	1.070405e+01
2.070000e-06	1.044336e-06	1.673990e-10	7.272877e+00	1.164037e+01
2.080000e-06	1.090188e-06	1.805937e-10	7.592196e+00	1.257459e+01
2.090000e-06	1.135900e-06	1.956712e-10	7.910545e+00	1.350598e+01
2.100000e-06	1.181537e-06	2.117882e-10	8.228362e+00	1.443381e+01
2.110000e-06	1.227124e-06	2.275439e-10	8.545833e+00	1.535734e+01
2.120000e-06	1.272671e-06	2.406842e-10	8.863030e+00	1.627585e+01
2.130000e-06	1.318082e-06	2.513005e-10	9.179276e+00	1.718861e+01
2.140000e-06	1.363409e-06	2.633166e-10	9.494939e+00	1.809492e+01
2.150000e-06	1.408681e-06	2.775255e-10	9.810217e+00	1.899408e+01
2.160000e-06	1.453803e-06	2.920712e-10	1.012445e+01	1.988540e+01
2.170000e-06	1.498777e-06	3.048861e-10	1.043766e+01	2.076820e+01
2.180000e-06	1.543676e-06	3.174080e-10	1.075034e+01	2.164184e+01
2.190000e-06	1.588478e-06	3.298767e-10	1.106235e+01	2.250567e+01
2.200000e-06	1.633165e-06	3.404503e-10	1.137355e+01	2.335908e+01
2.210000e-06	1.677769e-06	3.489143e-10	1.168418e+01	2.420148e+01
2.220000e-06	1.722150e-06	3.585718e-10	1.199326e+01	2.503230e+01
2.230000e-06	1.766351e-06	3.704018e-10	1.230108e+01	2.585099e+01
2.240000e-06	1.810475e-06	3.830005e-10	1.260836e+01	2.665705e+01
2.250000e-06	1.854491e-06	3.955561e-10	1.291489e+01	2.744998e+01
2.260000e-06	1.898447e-06	4.061025e-10	1.322101e+01	2.822933e+01
2.270000e-06	1.942339e-06	4.176393e-10	1.352668e+01	2.899468e+01
2.280000e-06	1.986118e-06	4.290641e-10	1.383156e+01	2.974564e+01
2.290000e-06	2.029839e-06	4.387320e-10	1.413604e+01	3.048186e+01
2.300000e-06	2.073495e-06	4.470372e-10	1.444007e+01	3.120301e+01
2.310000e-06	2.117049e-06	4.538188e-10	1.474338e+01	3.190881e+01
2.320000e-06	2.160520e-06	4.625060e-10	1.504611e+01	3.259901e+01
2.330000e-06	2.203915e-06	4.742436e-10	1.534832e+01	3.327340e+01
2.340000e-06	2.247134e-06	4.863522e-10	1.564930e+01	3.393180e+01
2.350000e-06	2.290141e-06	4.987846e-10	1.594881e+01	3.457408e+01
2.360000e-06	2.332946e-06	5.125366e-10	1.624691e+01	3.520013e+01
2.370000e-06	2.375418e-06	5.221009e-10	1.654269e+01	3.580988e+01
2.380000e-06	2.417573e-06	5.257203e-10	1.683626e+01	3.640331e+01
2.390000e-06	2.459541e-06	5.275539e-10	1.712853e+01	3.698042e+01
2.400000e-06	2.501260e-06	5.309729e-10	1.741907e+01	3.754124e+01
2.410000e-06	2.542651e-06	5.357175e-10	1.770732e+01	3.808586e+01
2.420000e-06	2.583779e-06	5.412497e-10	1.799374e+01	3.861436e+01
2.430000e-06	2.624542e-06	5.502791e-10	1.827762e+01	3.912690e+01
2.440000e-06	2.664943e-06	5.619002e-10	1.855898e+01	3.962361e+01
2.450000e-06	2.705172e-06	5.722984e-10	1.883913e+01	4.010471e+01
2.460000e-06	2.745254e-06	5.796915e-10	1.911827e+01	4.057040e+01
2.470000e-06	2.785204e-06	5.849550e-10	1.939649e+01	4.102093e+01
2.480000e-06	2.825039e-06	5.894216e-10	1.967390e+01	4.145655e+01
2.490000e-06	2.864719e-06	5.931481e-10	1.995024e+01	4.187755e+01
2.500000e-06	2.904301e-06	5.956665e-10	2.022590e+01	4.228422e+01
2.510000e-06	2.943842e-06	5.992922e-10	2.050126e+01	4.267689e+01
2.520000e-06	2.983212e-06	6.053886e-10	2.077544e+01	4.305588e+01
2.530000e-06	3.022339e-06	6.124936e-10	2.104792e+01	4.342153e+01
2.540000e-06	3.061236e-06	6.192706e-10	2.131881e+01	4.377421e+01
2.550000e-06	3.099837e-06	6.244275e-10	2.158763e+01	4.411426e+01
2.560000e-06	3.138205e-06	6.287999e-10	2.185483e+01	4.444205e+01
2.570000e-06	3.176400e-06	6.331589e-10	2.212082e+01	4.475794e+01
2.580000e-06	3.214356e-06	6.357447e-10	2.238515e+01	4.506232e+01
2.590000e-06	3.252128e-06	6.372897e-10	2.264820e+01	4.535554e+01
2.600000e-06	3.289780e-06	6.418022e-10	2.291041e+01	4.563798e+01
2.610000e-06	3.327218e-06	6.485180e-10	2.317114e+01	4.591000e+01
2.620000e-06	3.364324e-06	6.527108e-10	2.342955e+01	4.617195e+01
2.630000e-06	3.401181e-06	6.536927e-10	2.368623e+01	4.642419e+01
2.640000e-06	3.437864e-06	6.547764e-10	2.394169e+01	4.666706e+01
2.650000e-06	3.474254e-06	6.585086e-10	2.419511e+01	4.690090e+01
2.660000e-06	3.510332e-06	6.639364e-10	2.444636e+01	4.712602e+01
2.670000e-06	3.546191e-06	6.688972e-10	2.469609e+01	4.734274e+01
2.680000e-06	3.581898e-06	6.737268e-10	2.494476e+01	4.755135e+01
2.690000e-06	3.617516e-06	6.779756e-10	2.519281e+01	4.775215e+01
2.700000e-06	3.653054e-06	6.804398e-10	2.544030e+01	4.794540e+01
2.710000e-06	3.688459e-06	6.827585e-10	2.568686e+01	4.813136e+01
2.720000e-06	3.723648e-06	6.857182e-10	2.593192e+01	4.831028e+01
2.730000e-06	3.758472e-06	6.902716e-10	2.617444e+01	4.848239e+01
2.740000e-06	3.792837e-06	6.939139e-10	2.641376e+01	4.864790e+01
2.750000e-06	3.826729e-06	6.936119e-10	2.664979e+01	4.880701e+01
2.760000e-06	3.860134e-06	6.936369e-10	2.688242e+01	4.895992e+01
2.770000e-06	3.893099e-06	6.982759e-10	2.711200e+01	4.910679e+01
2.780000e-06	3.925713e-06	7.038906e-10	2.733913e+01	4.924779e+01
2.790000e-06	3.958024e-06	7.088401e-10	2.756414e+01	4.938308e+01
2.800000e-06	3.990062e-06	7.125832e-10	2.778726e+01	4.951278e+01
2.810000e-06	4.021892e-06	7.121422e-10	2.800893e+01	4.963703e+01
2.820000e-06	4.053520e-06	7.107048e-10	2.822919e+01	4.975595e+01
2.830000e-06	4.084949e-06	7.109799e-10	2.844806e+01	4.986963e+01
2.840000e-06	4.116159e-06	7.125885e-10	2.866542e+01	4.997820e+01
2.850000e-06	4.147076e-06	7.175333e-10	2.888072e+01	5.008173e+01
2.860000e-06	4.177701e-06	7.237620e-10	2.909400e+01	5.018032e+01
2.870000e-06	4.208031e-06	7.282972e-10	2.930522e+01	5.027405e+01
2.880000e-06	4.238008e-06	7.317357e-10	2.951399e+01	5.036300e+01
2.890000e-06	4.267699e-06	7.336900e-10	2.972076e+01	5.044723e+01
2.900000e-06	4.297177e-06	7.333265e-10	2.992605e+01	5.052683e+01
