# Temperatura_=_-0.5
# Concentracion g/m^3_=_1620.0
# C_Vs_to_Am_M_A/Vsm_=_65563218390.804596
# pendiente_HvsI_1/m_=_3716.3
# ordenada_HvsI_A/m_=_1297.0
# frecuencia_Hz_=_135094.3656779668

Tiempo_(s)	Campo_(V.s)	Magnetizacion_(V.s)	Campo_(kA/m)	Magnetizacion_(A/m)
0.000000e+00	-5.533721e-06	-1.338462e-09	-3.837056e+01	-8.826989e+01
1.000000e-08	-5.533896e-06	-1.336406e-09	-3.837177e+01	-8.823872e+01
2.000000e-08	-5.533827e-06	-1.335299e-09	-3.837130e+01	-8.820730e+01
3.000000e-08	-5.533364e-06	-1.334165e-09	-3.836809e+01	-8.817550e+01
4.000000e-08	-5.532364e-06	-1.326778e-09	-3.836116e+01	-8.814323e+01
5.000000e-08	-5.530759e-06	-1.307499e-09	-3.835003e+01	-8.811033e+01
6.000000e-08	-5.528413e-06	-1.286537e-09	-3.833376e+01	-8.807666e+01
7.000000e-08	-5.525490e-06	-1.291746e-09	-3.831349e+01	-8.804206e+01
8.000000e-08	-5.522215e-06	-1.350359e-09	-3.829078e+01	-8.800633e+01
9.000000e-08	-5.518528e-06	-1.483175e-09	-3.826521e+01	-8.796930e+01
1.000000e-07	-5.514397e-06	-1.492066e-09	-3.823657e+01	-8.793077e+01
1.100000e-07	-5.509889e-06	-1.272499e-09	-3.820531e+01	-8.789051e+01
1.200000e-07	-5.505258e-06	-1.147944e-09	-3.817320e+01	-8.784832e+01
1.300000e-07	-5.500500e-06	-1.300745e-09	-3.814021e+01	-8.780397e+01
1.400000e-07	-5.495230e-06	-1.438649e-09	-3.810367e+01	-8.775722e+01
1.500000e-07	-5.489466e-06	-1.296560e-09	-3.806370e+01	-8.770785e+01
1.600000e-07	-5.483461e-06	-1.141264e-09	-3.802206e+01	-8.765560e+01
1.700000e-07	-5.477053e-06	-1.336228e-09	-3.797763e+01	-8.760025e+01
1.800000e-07	-5.470068e-06	-1.485326e-09	-3.792920e+01	-8.754156e+01
1.900000e-07	-5.462807e-06	-1.353522e-09	-3.787885e+01	-8.747928e+01
2.000000e-07	-5.455393e-06	-1.158116e-09	-3.782744e+01	-8.741320e+01
2.100000e-07	-5.447694e-06	-1.268118e-09	-3.777406e+01	-8.734307e+01
2.200000e-07	-5.439720e-06	-1.427408e-09	-3.771877e+01	-8.726868e+01
2.300000e-07	-5.431522e-06	-1.379886e-09	-3.766192e+01	-8.718982e+01
2.400000e-07	-5.422737e-06	-1.264087e-09	-3.760101e+01	-8.710628e+01
2.500000e-07	-5.413093e-06	-1.296952e-09	-3.753413e+01	-8.701788e+01
2.600000e-07	-5.402691e-06	-1.357214e-09	-3.746201e+01	-8.692444e+01
2.700000e-07	-5.391745e-06	-1.304738e-09	-3.738611e+01	-8.682578e+01
2.800000e-07	-5.380457e-06	-1.261840e-09	-3.730783e+01	-8.672176e+01
2.900000e-07	-5.368745e-06	-1.309384e-09	-3.722663e+01	-8.661224e+01
3.000000e-07	-5.356679e-06	-1.357338e-09	-3.714296e+01	-8.649710e+01
3.100000e-07	-5.344313e-06	-1.299333e-09	-3.705722e+01	-8.637623e+01
3.200000e-07	-5.331460e-06	-1.267835e-09	-3.696810e+01	-8.624955e+01
3.300000e-07	-5.318233e-06	-1.287783e-09	-3.687638e+01	-8.611699e+01
3.400000e-07	-5.304796e-06	-1.338552e-09	-3.678321e+01	-8.597850e+01
3.500000e-07	-5.290828e-06	-1.287942e-09	-3.668635e+01	-8.583404e+01
3.600000e-07	-5.276148e-06	-1.266754e-09	-3.658457e+01	-8.568359e+01
3.700000e-07	-5.261073e-06	-1.307421e-09	-3.648003e+01	-8.552716e+01
3.800000e-07	-5.245534e-06	-1.328320e-09	-3.637229e+01	-8.536476e+01
3.900000e-07	-5.229249e-06	-1.251737e-09	-3.625937e+01	-8.519643e+01
4.000000e-07	-5.212584e-06	-1.276323e-09	-3.614381e+01	-8.502221e+01
4.100000e-07	-5.195696e-06	-1.351554e-09	-3.602671e+01	-8.484218e+01
4.200000e-07	-5.178530e-06	-1.284669e-09	-3.590768e+01	-8.465640e+01
4.300000e-07	-5.161112e-06	-1.207881e-09	-3.578691e+01	-8.446498e+01
4.400000e-07	-5.143356e-06	-1.327750e-09	-3.566379e+01	-8.426802e+01
4.500000e-07	-5.125217e-06	-1.351588e-09	-3.553801e+01	-8.406563e+01
4.600000e-07	-5.106511e-06	-1.208210e-09	-3.540831e+01	-8.385795e+01
4.700000e-07	-5.087370e-06	-1.229775e-09	-3.527558e+01	-8.364509e+01
4.800000e-07	-5.068031e-06	-1.354984e-09	-3.514149e+01	-8.342722e+01
4.900000e-07	-5.048455e-06	-1.270459e-09	-3.500575e+01	-8.320446e+01
5.000000e-07	-5.028696e-06	-1.207429e-09	-3.486874e+01	-8.297699e+01
5.100000e-07	-5.008773e-06	-1.309761e-09	-3.473060e+01	-8.274494e+01
5.200000e-07	-4.988531e-06	-1.277735e-09	-3.459024e+01	-8.250848e+01
5.300000e-07	-4.967865e-06	-1.183792e-09	-3.444694e+01	-8.226776e+01
5.400000e-07	-4.946870e-06	-1.285729e-09	-3.430136e+01	-8.202295e+01
5.500000e-07	-4.925502e-06	-1.320483e-09	-3.415320e+01	-8.177418e+01
5.600000e-07	-4.903700e-06	-1.177148e-09	-3.400203e+01	-8.152162e+01
5.700000e-07	-4.881642e-06	-1.204301e-09	-3.384907e+01	-8.126541e+01
5.800000e-07	-4.859273e-06	-1.308960e-09	-3.369397e+01	-8.100567e+01
5.900000e-07	-4.836429e-06	-1.229136e-09	-3.353558e+01	-8.074256e+01
6.000000e-07	-4.813267e-06	-1.180675e-09	-3.337497e+01	-8.047618e+01
6.100000e-07	-4.789873e-06	-1.270847e-09	-3.321275e+01	-8.020666e+01
6.200000e-07	-4.766259e-06	-1.235366e-09	-3.304901e+01	-7.993409e+01
6.300000e-07	-4.742481e-06	-1.162757e-09	-3.288414e+01	-7.965857e+01
6.400000e-07	-4.718471e-06	-1.214482e-09	-3.271766e+01	-7.938019e+01
6.500000e-07	-4.694087e-06	-1.231038e-09	-3.254858e+01	-7.909901e+01
6.600000e-07	-4.669197e-06	-1.165684e-09	-3.237599e+01	-7.881509e+01
6.700000e-07	-4.643715e-06	-1.194181e-09	-3.219930e+01	-7.852848e+01
6.800000e-07	-4.617639e-06	-1.224891e-09	-3.201849e+01	-7.823923e+01
6.900000e-07	-4.591036e-06	-1.180134e-09	-3.183403e+01	-7.794734e+01
7.000000e-07	-4.563930e-06	-1.167300e-09	-3.164608e+01	-7.765284e+01
7.100000e-07	-4.536543e-06	-1.195719e-09	-3.145618e+01	-7.735572e+01
7.200000e-07	-4.509041e-06	-1.164587e-09	-3.126548e+01	-7.705599e+01
7.300000e-07	-4.481355e-06	-1.144047e-09	-3.107351e+01	-7.675360e+01
7.400000e-07	-4.453504e-06	-1.162750e-09	-3.088039e+01	-7.644855e+01
7.500000e-07	-4.425367e-06	-1.157892e-09	-3.068529e+01	-7.614078e+01
7.600000e-07	-4.396832e-06	-1.135407e-09	-3.048743e+01	-7.583025e+01
7.700000e-07	-4.367961e-06	-1.138786e-09	-3.028724e+01	-7.551691e+01
7.800000e-07	-4.338775e-06	-1.130961e-09	-3.008486e+01	-7.520069e+01
7.900000e-07	-4.309310e-06	-1.116803e-09	-2.988055e+01	-7.488153e+01
8.000000e-07	-4.279589e-06	-1.121437e-09	-2.967447e+01	-7.455936e+01
8.100000e-07	-4.249635e-06	-1.116264e-09	-2.946677e+01	-7.423410e+01
8.200000e-07	-4.219382e-06	-1.094851e-09	-2.925700e+01	-7.390567e+01
8.300000e-07	-4.188663e-06	-1.094902e-09	-2.904400e+01	-7.357400e+01
8.400000e-07	-4.157732e-06	-1.100301e-09	-2.882952e+01	-7.323900e+01
8.500000e-07	-4.126659e-06	-1.078671e-09	-2.861406e+01	-7.290060e+01
8.600000e-07	-4.095273e-06	-1.068649e-09	-2.839643e+01	-7.255872e+01
8.700000e-07	-4.063729e-06	-1.072825e-09	-2.817771e+01	-7.221329e+01
8.800000e-07	-4.032088e-06	-1.062084e-09	-2.795831e+01	-7.186422e+01
8.900000e-07	-4.000212e-06	-1.048873e-09	-2.773728e+01	-7.151146e+01
9.000000e-07	-3.968089e-06	-1.053098e-09	-2.751455e+01	-7.115494e+01
9.100000e-07	-3.935553e-06	-1.043673e-09	-2.728894e+01	-7.079461e+01
9.200000e-07	-3.902588e-06	-1.026967e-09	-2.706036e+01	-7.043041e+01
9.300000e-07	-3.869358e-06	-1.026852e-09	-2.682995e+01	-7.006230e+01
9.400000e-07	-3.835620e-06	-1.027072e-09	-2.659601e+01	-6.969024e+01
9.500000e-07	-3.801315e-06	-1.006509e-09	-2.635814e+01	-6.931421e+01
9.600000e-07	-3.766572e-06	-9.988011e-10	-2.611724e+01	-6.893418e+01
9.700000e-07	-3.731431e-06	-1.000478e-09	-2.587357e+01	-6.855013e+01
9.800000e-07	-3.696039e-06	-9.927274e-10	-2.562816e+01	-6.816207e+01
9.900000e-07	-3.660548e-06	-9.842289e-10	-2.538207e+01	-6.776999e+01
1.000000e-06	-3.625004e-06	-9.879425e-10	-2.513561e+01	-6.737391e+01
1.010000e-06	-3.589280e-06	-9.804467e-10	-2.488790e+01	-6.697384e+01
1.020000e-06	-3.553283e-06	-9.683490e-10	-2.463830e+01	-6.656980e+01
1.030000e-06	-3.517157e-06	-9.640677e-10	-2.438780e+01	-6.616183e+01
1.040000e-06	-3.480850e-06	-9.607096e-10	-2.413605e+01	-6.574996e+01
1.050000e-06	-3.444272e-06	-9.480332e-10	-2.388242e+01	-6.533424e+01
1.060000e-06	-3.407429e-06	-9.412890e-10	-2.362695e+01	-6.491470e+01
1.070000e-06	-3.370301e-06	-9.382013e-10	-2.336951e+01	-6.449140e+01
1.080000e-06	-3.332890e-06	-9.295543e-10	-2.311011e+01	-6.406439e+01
1.090000e-06	-3.295229e-06	-9.243751e-10	-2.284896e+01	-6.363373e+01
1.100000e-06	-3.257370e-06	-9.247322e-10	-2.258645e+01	-6.319946e+01
1.110000e-06	-3.219317e-06	-9.158113e-10	-2.232259e+01	-6.276164e+01
1.120000e-06	-3.181014e-06	-9.009420e-10	-2.205700e+01	-6.232033e+01
1.130000e-06	-3.142467e-06	-8.934255e-10	-2.178972e+01	-6.187557e+01
1.140000e-06	-3.103652e-06	-8.859086e-10	-2.152058e+01	-6.142740e+01
1.150000e-06	-3.064611e-06	-8.731118e-10	-2.124987e+01	-6.097587e+01
1.160000e-06	-3.025333e-06	-8.659734e-10	-2.097752e+01	-6.052100e+01
1.170000e-06	-2.985947e-06	-8.650357e-10	-2.070441e+01	-6.006283e+01
1.180000e-06	-2.946540e-06	-8.614683e-10	-2.043117e+01	-5.960137e+01
1.190000e-06	-2.906947e-06	-8.587388e-10	-2.015663e+01	-5.913662e+01
1.200000e-06	-2.867217e-06	-8.537416e-10	-1.988115e+01	-5.866857e+01
1.210000e-06	-2.827368e-06	-8.443267e-10	-1.960483e+01	-5.819722e+01
1.220000e-06	-2.787370e-06	-8.321873e-10	-1.932749e+01	-5.772252e+01
1.230000e-06	-2.747206e-06	-8.251630e-10	-1.904900e+01	-5.724444e+01
1.240000e-06	-2.706749e-06	-8.169104e-10	-1.876847e+01	-5.676290e+01
1.250000e-06	-2.665989e-06	-8.099359e-10	-1.848584e+01	-5.627783e+01
1.260000e-06	-2.624996e-06	-8.057135e-10	-1.820160e+01	-5.578914e+01
1.270000e-06	-2.583759e-06	-7.994677e-10	-1.791566e+01	-5.529670e+01
1.280000e-06	-2.542193e-06	-7.903228e-10	-1.762744e+01	-5.480038e+01
1.290000e-06	-2.500294e-06	-7.813893e-10	-1.733692e+01	-5.430004e+01
1.300000e-06	-2.458090e-06	-7.692616e-10	-1.704428e+01	-5.379549e+01
1.310000e-06	-2.415574e-06	-7.554298e-10	-1.674947e+01	-5.328655e+01
1.320000e-06	-2.372762e-06	-7.438344e-10	-1.645262e+01	-5.277300e+01
1.330000e-06	-2.329696e-06	-7.350984e-10	-1.615401e+01	-5.225460e+01
1.340000e-06	-2.286476e-06	-7.268875e-10	-1.585432e+01	-5.173111e+01
1.350000e-06	-2.243138e-06	-7.198145e-10	-1.555382e+01	-5.120225e+01
1.360000e-06	-2.199684e-06	-7.105561e-10	-1.525251e+01	-5.066771e+01
1.370000e-06	-2.156103e-06	-7.017098e-10	-1.495032e+01	-5.012718e+01
1.380000e-06	-2.112378e-06	-6.933383e-10	-1.464713e+01	-4.958034e+01
1.390000e-06	-2.068600e-06	-6.832044e-10	-1.434358e+01	-4.902681e+01
1.400000e-06	-2.024726e-06	-6.712599e-10	-1.403935e+01	-4.846623e+01
1.410000e-06	-1.980746e-06	-6.612634e-10	-1.373440e+01	-4.789820e+01
1.420000e-06	-1.936689e-06	-6.547193e-10	-1.342891e+01	-4.732231e+01
1.430000e-06	-1.892562e-06	-6.493131e-10	-1.312293e+01	-4.673815e+01
1.440000e-06	-1.848452e-06	-6.435074e-10	-1.281708e+01	-4.614526e+01
1.450000e-06	-1.804234e-06	-6.351821e-10	-1.251047e+01	-4.554320e+01
1.460000e-06	-1.759818e-06	-6.223138e-10	-1.220250e+01	-4.493150e+01
1.470000e-06	-1.715181e-06	-6.077506e-10	-1.189298e+01	-4.430968e+01
1.480000e-06	-1.670416e-06	-5.955761e-10	-1.158259e+01	-4.367726e+01
1.490000e-06	-1.625593e-06	-5.856617e-10	-1.127178e+01	-4.303374e+01
1.500000e-06	-1.580582e-06	-5.773263e-10	-1.095968e+01	-4.237862e+01
1.510000e-06	-1.535458e-06	-5.710660e-10	-1.064680e+01	-4.171140e+01
1.520000e-06	-1.490336e-06	-5.651729e-10	-1.033392e+01	-4.103158e+01
1.530000e-06	-1.445107e-06	-5.561699e-10	-1.002031e+01	-4.033864e+01
1.540000e-06	-1.399730e-06	-5.442029e-10	-9.705660e+00	-3.963208e+01
1.550000e-06	-1.354192e-06	-5.282605e-10	-9.389906e+00	-3.891141e+01
1.560000e-06	-1.308522e-06	-5.124190e-10	-9.073233e+00	-3.817612e+01
1.570000e-06	-1.262788e-06	-4.976435e-10	-8.756110e+00	-3.742574e+01
1.580000e-06	-1.216989e-06	-4.881103e-10	-8.438542e+00	-3.665978e+01
1.590000e-06	-1.171137e-06	-4.816359e-10	-8.120610e+00	-3.587780e+01
1.600000e-06	-1.125231e-06	-4.725860e-10	-7.802299e+00	-3.507933e+01
1.610000e-06	-1.079259e-06	-4.600823e-10	-7.483530e+00	-3.426395e+01
1.620000e-06	-1.033129e-06	-4.486145e-10	-7.163666e+00	-3.343126e+01
1.630000e-06	-9.868114e-07	-4.372127e-10	-6.842504e+00	-3.258087e+01
1.640000e-06	-9.404487e-07	-4.236266e-10	-6.521027e+00	-3.171241e+01
1.650000e-06	-8.940915e-07	-4.066406e-10	-6.199589e+00	-3.082556e+01
1.660000e-06	-8.477451e-07	-3.916416e-10	-5.878225e+00	-2.992001e+01
1.670000e-06	-8.012631e-07	-3.772834e-10	-5.555921e+00	-2.899548e+01
1.680000e-06	-7.546603e-07	-3.616571e-10	-5.232779e+00	-2.805175e+01
1.690000e-06	-7.080429e-07	-3.499980e-10	-4.909536e+00	-2.708860e+01
1.700000e-06	-6.613756e-07	-3.369046e-10	-4.585947e+00	-2.610587e+01
1.710000e-06	-6.146489e-07	-3.223276e-10	-4.261947e+00	-2.510345e+01
1.720000e-06	-5.678451e-07	-3.043961e-10	-3.937411e+00	-2.408124e+01
1.730000e-06	-5.210525e-07	-2.832558e-10	-3.612954e+00	-2.303921e+01
1.740000e-06	-4.743160e-07	-2.620940e-10	-3.288885e+00	-2.197737e+01
1.750000e-06	-4.275368e-07	-2.443071e-10	-2.964520e+00	-2.089576e+01
1.760000e-06	-3.806114e-07	-2.297792e-10	-2.639142e+00	-1.979449e+01
1.770000e-06	-3.337184e-07	-2.175809e-10	-2.313988e+00	-1.867372e+01
1.780000e-06	-2.869167e-07	-2.066437e-10	-1.989467e+00	-1.753364e+01
1.790000e-06	-2.399535e-07	-1.928081e-10	-1.663826e+00	-1.637450e+01
1.800000e-06	-1.929089e-07	-1.739204e-10	-1.337621e+00	-1.519660e+01
1.810000e-06	-1.459899e-07	-1.541812e-10	-1.012287e+00	-1.400031e+01
1.820000e-06	-9.907623e-08	-1.376466e-10	-6.869899e-01	-1.278602e+01
1.830000e-06	-5.208968e-08	-1.243918e-10	-3.611874e-01	-1.155420e+01
1.840000e-06	-5.109119e-09	-1.115752e-10	-3.542639e-02	-1.030535e+01
1.850000e-06	4.194037e-08	-9.695129e-11	2.908125e-01	-9.040046e+00
1.860000e-06	8.909531e-08	-8.042070e-11	6.177827e-01	-7.758888e+00
1.870000e-06	1.361884e-07	-6.101083e-11	9.443238e-01	-6.462540e+00
1.880000e-06	1.832968e-07	-3.894488e-11	1.270971e+00	-5.151715e+00
1.890000e-06	2.304625e-07	-1.765374e-11	1.598016e+00	-3.827167e+00
1.900000e-06	2.775003e-07	2.844559e-12	1.924174e+00	-2.489701e+00
1.910000e-06	3.244561e-07	2.070908e-11	2.249763e+00	-1.140162e+00
1.920000e-06	3.713886e-07	3.336335e-11	2.575191e+00	2.205634e-01
1.930000e-06	4.182321e-07	4.628724e-11	2.900002e+00	1.591548e+00
1.940000e-06	4.650933e-07	6.448697e-11	3.224935e+00	2.971828e+00
1.950000e-06	5.119842e-07	8.659424e-11	3.550074e+00	4.360407e+00
1.960000e-06	5.587467e-07	1.103119e-10	3.874324e+00	5.756257e+00
1.970000e-06	6.054005e-07	1.331184e-10	4.197819e+00	7.158321e+00
1.980000e-06	6.519798e-07	1.540991e-10	4.520797e+00	8.565519e+00
1.990000e-06	6.985084e-07	1.748943e-10	4.843425e+00	9.976748e+00
2.000000e-06	7.450161e-07	1.922527e-10	5.165907e+00	1.139089e+01
2.010000e-06	7.914434e-07	2.116825e-10	5.487832e+00	1.280681e+01
2.020000e-06	8.378047e-07	2.321001e-10	5.809299e+00	1.422335e+01
2.030000e-06	8.841765e-07	2.537020e-10	6.130839e+00	1.563938e+01
2.040000e-06	9.304974e-07	2.738037e-10	6.452025e+00	1.705374e+01
2.050000e-06	9.766381e-07	2.926966e-10	6.771963e+00	1.846527e+01
2.060000e-06	1.022701e-06	3.123944e-10	7.091364e+00	1.987282e+01
2.070000e-06	1.068752e-06	3.346133e-10	7.410676e+00	2.127526e+01
2.080000e-06	1.114724e-06	3.586873e-10	7.729441e+00	2.267146e+01
2.090000e-06	1.160557e-06	3.824106e-10	8.047250e+00	2.406031e+01
2.100000e-06	1.206262e-06	4.049222e-10	8.364162e+00	2.544071e+01
2.110000e-06	1.251960e-06	4.207811e-10	8.681029e+00	2.681162e+01
2.120000e-06	1.297639e-06	4.342021e-10	8.997766e+00	2.817198e+01
2.130000e-06	1.343195e-06	4.500413e-10	9.313654e+00	2.952079e+01
2.140000e-06	1.388640e-06	4.697798e-10	9.628762e+00	3.085708e+01
2.150000e-06	1.434007e-06	4.918252e-10	9.943340e+00	3.217992e+01
2.160000e-06	1.479290e-06	5.154894e-10	1.025733e+01	3.348841e+01
2.170000e-06	1.524491e-06	5.391335e-10	1.057075e+01	3.478171e+01
2.180000e-06	1.569583e-06	5.625933e-10	1.088341e+01	3.605901e+01
2.190000e-06	1.614520e-06	5.810882e-10	1.119501e+01	3.731955e+01
2.200000e-06	1.659308e-06	5.953441e-10	1.150556e+01	3.856263e+01
2.210000e-06	1.703995e-06	6.064652e-10	1.181542e+01	3.978760e+01
2.220000e-06	1.748528e-06	6.187634e-10	1.212421e+01	4.099386e+01
2.230000e-06	1.792914e-06	6.340796e-10	1.243198e+01	4.218085e+01
2.240000e-06	1.837143e-06	6.486880e-10	1.273867e+01	4.334810e+01
2.250000e-06	1.881208e-06	6.667587e-10	1.304421e+01	4.449517e+01
2.260000e-06	1.925241e-06	6.849949e-10	1.334953e+01	4.562168e+01
2.270000e-06	1.969153e-06	7.051361e-10	1.365401e+01	4.672732e+01
2.280000e-06	2.012955e-06	7.230716e-10	1.395773e+01	4.781182e+01
2.290000e-06	2.056689e-06	7.366852e-10	1.426098e+01	4.887497e+01
2.300000e-06	2.100341e-06	7.436148e-10	1.456367e+01	4.991663e+01
2.310000e-06	2.143958e-06	7.494132e-10	1.486610e+01	5.093669e+01
2.320000e-06	2.187508e-06	7.620653e-10	1.516808e+01	5.193512e+01
2.330000e-06	2.230998e-06	7.784023e-10	1.546964e+01	5.291192e+01
2.340000e-06	2.274365e-06	7.968387e-10	1.577034e+01	5.386715e+01
2.350000e-06	2.317581e-06	8.167565e-10	1.607000e+01	5.480091e+01
2.360000e-06	2.360627e-06	8.364059e-10	1.636848e+01	5.571335e+01
2.370000e-06	2.403419e-06	8.495760e-10	1.666520e+01	5.660468e+01
2.380000e-06	2.445934e-06	8.564844e-10	1.695999e+01	5.747511e+01
2.390000e-06	2.488087e-06	8.592606e-10	1.725228e+01	5.832493e+01
2.400000e-06	2.529902e-06	8.628559e-10	1.754222e+01	5.915444e+01
2.410000e-06	2.571470e-06	8.726835e-10	1.783045e+01	5.996398e+01
2.420000e-06	2.612686e-06	8.889031e-10	1.811625e+01	6.075392e+01
2.430000e-06	2.653638e-06	9.065031e-10	1.840021e+01	6.152465e+01
2.440000e-06	2.694419e-06	9.212981e-10	1.868298e+01	6.227659e+01
2.450000e-06	2.734931e-06	9.320750e-10	1.896388e+01	6.301017e+01
2.460000e-06	2.775183e-06	9.413460e-10	1.924299e+01	6.372586e+01
2.470000e-06	2.815196e-06	9.483830e-10	1.952044e+01	6.442411e+01
2.480000e-06	2.855095e-06	9.559011e-10	1.979709e+01	6.510540e+01
2.490000e-06	2.894892e-06	9.649504e-10	2.007305e+01	6.577021e+01
2.500000e-06	2.934495e-06	9.741479e-10	2.034765e+01	6.641904e+01
2.510000e-06	2.973989e-06	9.838908e-10	2.062150e+01	6.705237e+01
2.520000e-06	3.013383e-06	9.938763e-10	2.089466e+01	6.767070e+01
2.530000e-06	3.052597e-06	1.002368e-09	2.116657e+01	6.827450e+01
2.540000e-06	3.091518e-06	1.010026e-09	2.143644e+01	6.886425e+01
2.550000e-06	3.130186e-06	1.017692e-09	2.170456e+01	6.944043e+01
2.560000e-06	3.168693e-06	1.023672e-09	2.197157e+01	7.000349e+01
2.570000e-06	3.206985e-06	1.031444e-09	2.223708e+01	7.055389e+01
2.580000e-06	3.245044e-06	1.040009e-09	2.250098e+01	7.109204e+01
2.590000e-06	3.282853e-06	1.047693e-09	2.276315e+01	7.161838e+01
2.600000e-06	3.320480e-06	1.053868e-09	2.302406e+01	7.213330e+01
2.610000e-06	3.357913e-06	1.057840e-09	2.328361e+01	7.263718e+01
2.620000e-06	3.395125e-06	1.061947e-09	2.354164e+01	7.313039e+01
2.630000e-06	3.432098e-06	1.065330e-09	2.379801e+01	7.361326e+01
2.640000e-06	3.468776e-06	1.073235e-09	2.405233e+01	7.408613e+01
2.650000e-06	3.505074e-06	1.082824e-09	2.430402e+01	7.454928e+01
2.660000e-06	3.541041e-06	1.090604e-09	2.455341e+01	7.500302e+01
2.670000e-06	3.576862e-06	1.096326e-09	2.480179e+01	7.544758e+01
2.680000e-06	3.612597e-06	1.102253e-09	2.504958e+01	7.588323e+01
2.690000e-06	3.648211e-06	1.107828e-09	2.529652e+01	7.631016e+01
2.700000e-06	3.683709e-06	1.113208e-09	2.554266e+01	7.672860e+01
2.710000e-06	3.719055e-06	1.119976e-09	2.578775e+01	7.713871e+01
2.720000e-06	3.754232e-06	1.126471e-09	2.603167e+01	7.754066e+01
2.730000e-06	3.789107e-06	1.132167e-09	2.627349e+01	7.793459e+01
2.740000e-06	3.823586e-06	1.137069e-09	2.651257e+01	7.832064e+01
2.750000e-06	3.857570e-06	1.141258e-09	2.674821e+01	7.869892e+01
2.760000e-06	3.890952e-06	1.146479e-09	2.697968e+01	7.906954e+01
2.770000e-06	3.923874e-06	1.154028e-09	2.720796e+01	7.943256e+01
2.780000e-06	3.956419e-06	1.162974e-09	2.743363e+01	7.978809e+01
2.790000e-06	3.988612e-06	1.172508e-09	2.765685e+01	8.013617e+01
2.800000e-06	4.020503e-06	1.177332e-09	2.787798e+01	8.047686e+01
2.810000e-06	4.052236e-06	1.178464e-09	2.809802e+01	8.081022e+01
2.820000e-06	4.083827e-06	1.178733e-09	2.831707e+01	8.113628e+01
2.830000e-06	4.115295e-06	1.180437e-09	2.853527e+01	8.145508e+01
2.840000e-06	4.146562e-06	1.187083e-09	2.875207e+01	8.176665e+01
2.850000e-06	4.177517e-06	1.197216e-09	2.896671e+01	8.207102e+01
2.860000e-06	4.208138e-06	1.207526e-09	2.917903e+01	8.236821e+01
2.870000e-06	4.238471e-06	1.212792e-09	2.938936e+01	8.265825e+01
2.880000e-06	4.268510e-06	1.213427e-09	2.959765e+01	8.294117e+01
2.890000e-06	4.298255e-06	1.213079e-09	2.980390e+01	8.321698e+01
2.900000e-06	4.327771e-06	1.214487e-09	3.000856e+01	8.348571e+01
2.910000e-06	4.357001e-06	1.220296e-09	3.021124e+01	8.374740e+01
