# Temperatura_=_-4.8
# Concentracion g/m^3_=_1620.0
# C_Vs_to_Am_M_A/Vsm_=_65563218390.804596
# pendiente_HvsI_1/m_=_3716.3
# ordenada_HvsI_A/m_=_1297.0
# frecuencia_Hz_=_135105.3448599252

Tiempo_(s)	Campo_(V.s)	Magnetizacion_(V.s)	Campo_(kA/m)	Magnetizacion_(A/m)
0.000000e+00	-5.494057e-06	-7.230423e-10	-3.835875e+01	-4.890248e+01
1.000000e-08	-5.494241e-06	-7.190476e-10	-3.836003e+01	-4.883152e+01
2.000000e-08	-5.494240e-06	-7.169709e-10	-3.836002e+01	-4.875842e+01
3.000000e-08	-5.493997e-06	-7.147970e-10	-3.835833e+01	-4.868334e+01
4.000000e-08	-5.493289e-06	-7.112503e-10	-3.835339e+01	-4.860642e+01
5.000000e-08	-5.492039e-06	-7.029280e-10	-3.834466e+01	-4.852787e+01
6.000000e-08	-5.490236e-06	-6.928376e-10	-3.833207e+01	-4.844789e+01
7.000000e-08	-5.487877e-06	-7.109437e-10	-3.831560e+01	-4.836671e+01
8.000000e-08	-5.484932e-06	-7.478182e-10	-3.829504e+01	-4.828456e+01
9.000000e-08	-5.481452e-06	-7.517938e-10	-3.827074e+01	-4.820170e+01
1.000000e-07	-5.477623e-06	-7.277263e-10	-3.824401e+01	-4.811840e+01
1.100000e-07	-5.473442e-06	-7.257301e-10	-3.821482e+01	-4.803492e+01
1.200000e-07	-5.468966e-06	-6.818806e-10	-3.818357e+01	-4.795155e+01
1.300000e-07	-5.464268e-06	-6.650795e-10	-3.815076e+01	-4.786857e+01
1.400000e-07	-5.459205e-06	-6.538960e-10	-3.811541e+01	-4.778624e+01
1.500000e-07	-5.453717e-06	-7.034235e-10	-3.807710e+01	-4.770486e+01
1.600000e-07	-5.447813e-06	-7.133158e-10	-3.803588e+01	-4.762469e+01
1.700000e-07	-5.441501e-06	-7.036141e-10	-3.799181e+01	-4.754599e+01
1.800000e-07	-5.434780e-06	-7.200828e-10	-3.794488e+01	-4.746901e+01
1.900000e-07	-5.427619e-06	-7.196590e-10	-3.789488e+01	-4.739399e+01
2.000000e-07	-5.420140e-06	-6.792119e-10	-3.784267e+01	-4.732113e+01
2.100000e-07	-5.412506e-06	-6.302907e-10	-3.778937e+01	-4.725064e+01
2.200000e-07	-5.404707e-06	-6.541696e-10	-3.773492e+01	-4.718270e+01
2.300000e-07	-5.396664e-06	-6.727799e-10	-3.767876e+01	-4.711744e+01
2.400000e-07	-5.388205e-06	-6.695871e-10	-3.761971e+01	-4.705500e+01
2.500000e-07	-5.379172e-06	-6.397257e-10	-3.755664e+01	-4.699547e+01
2.600000e-07	-5.369464e-06	-6.534552e-10	-3.748886e+01	-4.693892e+01
2.700000e-07	-5.359138e-06	-6.416650e-10	-3.741676e+01	-4.688538e+01
2.800000e-07	-5.348358e-06	-6.452322e-10	-3.734150e+01	-4.683487e+01
2.900000e-07	-5.337075e-06	-6.526933e-10	-3.726272e+01	-4.678734e+01
3.000000e-07	-5.325254e-06	-6.756137e-10	-3.718019e+01	-4.674276e+01
3.100000e-07	-5.313024e-06	-6.607479e-10	-3.709480e+01	-4.670102e+01
3.200000e-07	-5.300429e-06	-6.754006e-10	-3.700686e+01	-4.666201e+01
3.300000e-07	-5.287448e-06	-6.830585e-10	-3.691623e+01	-4.662558e+01
3.400000e-07	-5.274052e-06	-6.746591e-10	-3.682270e+01	-4.659154e+01
3.500000e-07	-5.260290e-06	-6.713876e-10	-3.672662e+01	-4.655970e+01
3.600000e-07	-5.246212e-06	-6.967888e-10	-3.662833e+01	-4.652981e+01
3.700000e-07	-5.231671e-06	-6.851215e-10	-3.652681e+01	-4.650162e+01
3.800000e-07	-5.216620e-06	-6.795375e-10	-3.642172e+01	-4.647484e+01
3.900000e-07	-5.201065e-06	-7.111787e-10	-3.631312e+01	-4.644919e+01
4.000000e-07	-5.184942e-06	-7.046136e-10	-3.620055e+01	-4.642433e+01
4.100000e-07	-5.168356e-06	-6.666839e-10	-3.608475e+01	-4.639995e+01
4.200000e-07	-5.151359e-06	-6.863860e-10	-3.596608e+01	-4.637569e+01
4.300000e-07	-5.134054e-06	-7.138009e-10	-3.584525e+01	-4.635121e+01
4.400000e-07	-5.116567e-06	-6.674974e-10	-3.572316e+01	-4.632615e+01
4.500000e-07	-5.098772e-06	-6.747708e-10	-3.559892e+01	-4.630016e+01
4.600000e-07	-5.080553e-06	-7.180652e-10	-3.547172e+01	-4.627287e+01
4.700000e-07	-5.061898e-06	-6.918552e-10	-3.534147e+01	-4.624393e+01
4.800000e-07	-5.042886e-06	-6.538045e-10	-3.520873e+01	-4.621300e+01
4.900000e-07	-5.023526e-06	-7.056858e-10	-3.507356e+01	-4.617974e+01
5.000000e-07	-5.003862e-06	-7.015933e-10	-3.493627e+01	-4.614383e+01
5.100000e-07	-4.983966e-06	-6.541170e-10	-3.479736e+01	-4.610498e+01
5.200000e-07	-4.963863e-06	-6.773085e-10	-3.465700e+01	-4.606288e+01
5.300000e-07	-4.943535e-06	-7.153481e-10	-3.451508e+01	-4.601729e+01
5.400000e-07	-4.922863e-06	-6.685463e-10	-3.437075e+01	-4.596795e+01
5.500000e-07	-4.901730e-06	-6.717586e-10	-3.422320e+01	-4.591466e+01
5.600000e-07	-4.880236e-06	-7.046101e-10	-3.407313e+01	-4.585722e+01
5.700000e-07	-4.858567e-06	-6.738565e-10	-3.392184e+01	-4.579549e+01
5.800000e-07	-4.836474e-06	-6.487562e-10	-3.376759e+01	-4.572934e+01
5.900000e-07	-4.813998e-06	-6.932535e-10	-3.361067e+01	-4.565866e+01
6.000000e-07	-4.791220e-06	-6.864379e-10	-3.345164e+01	-4.558339e+01
6.100000e-07	-4.768073e-06	-6.562365e-10	-3.329003e+01	-4.550351e+01
6.200000e-07	-4.744677e-06	-6.759422e-10	-3.312668e+01	-4.541902e+01
6.300000e-07	-4.721088e-06	-6.816856e-10	-3.296198e+01	-4.532994e+01
6.400000e-07	-4.697261e-06	-6.493699e-10	-3.279563e+01	-4.523633e+01
6.500000e-07	-4.673166e-06	-6.593491e-10	-3.262740e+01	-4.513830e+01
6.600000e-07	-4.648731e-06	-6.786731e-10	-3.245680e+01	-4.503595e+01
6.700000e-07	-4.623884e-06	-6.620069e-10	-3.228332e+01	-4.492945e+01
6.800000e-07	-4.598555e-06	-6.613296e-10	-3.210647e+01	-4.481896e+01
6.900000e-07	-4.572532e-06	-6.773428e-10	-3.192479e+01	-4.470467e+01
7.000000e-07	-4.545945e-06	-6.652463e-10	-3.173916e+01	-4.458681e+01
7.100000e-07	-4.518947e-06	-6.481423e-10	-3.155066e+01	-4.446561e+01
7.200000e-07	-4.491624e-06	-6.559083e-10	-3.135990e+01	-4.434133e+01
7.300000e-07	-4.464061e-06	-6.528583e-10	-3.116745e+01	-4.421421e+01
7.400000e-07	-4.436285e-06	-6.446258e-10	-3.097353e+01	-4.408454e+01
7.500000e-07	-4.408346e-06	-6.468260e-10	-3.077846e+01	-4.395260e+01
7.600000e-07	-4.380199e-06	-6.498855e-10	-3.058195e+01	-4.381868e+01
7.700000e-07	-4.351775e-06	-6.377309e-10	-3.038349e+01	-4.368305e+01
7.800000e-07	-4.323025e-06	-6.368593e-10	-3.018276e+01	-4.354599e+01
7.900000e-07	-4.293945e-06	-6.365006e-10	-2.997973e+01	-4.340779e+01
8.000000e-07	-4.264563e-06	-6.309335e-10	-2.977459e+01	-4.326872e+01
8.100000e-07	-4.234882e-06	-6.250846e-10	-2.956736e+01	-4.312903e+01
8.200000e-07	-4.204943e-06	-6.295067e-10	-2.935833e+01	-4.298896e+01
8.300000e-07	-4.174772e-06	-6.243509e-10	-2.914768e+01	-4.284874e+01
8.400000e-07	-4.144257e-06	-6.210083e-10	-2.893463e+01	-4.270859e+01
8.500000e-07	-4.113375e-06	-6.217163e-10	-2.871902e+01	-4.256868e+01
8.600000e-07	-4.082313e-06	-6.215354e-10	-2.850214e+01	-4.242919e+01
8.700000e-07	-4.051065e-06	-6.148323e-10	-2.828397e+01	-4.229024e+01
8.800000e-07	-4.019544e-06	-6.169068e-10	-2.806390e+01	-4.215197e+01
8.900000e-07	-3.987827e-06	-6.193893e-10	-2.784246e+01	-4.201445e+01
9.000000e-07	-3.955954e-06	-6.163167e-10	-2.761992e+01	-4.187774e+01
9.100000e-07	-3.923897e-06	-6.123207e-10	-2.739611e+01	-4.174188e+01
9.200000e-07	-3.891574e-06	-6.121086e-10	-2.717043e+01	-4.160687e+01
9.300000e-07	-3.858837e-06	-6.057355e-10	-2.694187e+01	-4.147268e+01
9.400000e-07	-3.825671e-06	-6.000206e-10	-2.671031e+01	-4.133925e+01
9.500000e-07	-3.792091e-06	-6.005219e-10	-2.647586e+01	-4.120651e+01
9.600000e-07	-3.758108e-06	-5.985765e-10	-2.623859e+01	-4.107434e+01
9.700000e-07	-3.723628e-06	-5.926260e-10	-2.599786e+01	-4.094260e+01
9.800000e-07	-3.688647e-06	-5.912983e-10	-2.575363e+01	-4.081114e+01
9.900000e-07	-3.653374e-06	-5.924275e-10	-2.550735e+01	-4.067977e+01
1.000000e-06	-3.617878e-06	-5.886183e-10	-2.525953e+01	-4.054828e+01
1.010000e-06	-3.582228e-06	-5.873448e-10	-2.501062e+01	-4.041645e+01
1.020000e-06	-3.546434e-06	-5.885469e-10	-2.476071e+01	-4.028404e+01
1.030000e-06	-3.510507e-06	-5.875930e-10	-2.450988e+01	-4.015078e+01
1.040000e-06	-3.474476e-06	-5.830547e-10	-2.425831e+01	-4.001642e+01
1.050000e-06	-3.438297e-06	-5.826559e-10	-2.400572e+01	-3.988065e+01
1.060000e-06	-3.401885e-06	-5.785790e-10	-2.375149e+01	-3.974321e+01
1.070000e-06	-3.365163e-06	-5.743422e-10	-2.349511e+01	-3.960378e+01
1.080000e-06	-3.328122e-06	-5.724104e-10	-2.323649e+01	-3.946207e+01
1.090000e-06	-3.290776e-06	-5.732976e-10	-2.297574e+01	-3.931778e+01
1.100000e-06	-3.253191e-06	-5.696189e-10	-2.271333e+01	-3.917062e+01
1.110000e-06	-3.215456e-06	-5.667731e-10	-2.244987e+01	-3.902028e+01
1.120000e-06	-3.177528e-06	-5.637050e-10	-2.218506e+01	-3.886648e+01
1.130000e-06	-3.139308e-06	-5.604874e-10	-2.191821e+01	-3.870894e+01
1.140000e-06	-3.100812e-06	-5.580285e-10	-2.164944e+01	-3.854738e+01
1.150000e-06	-3.062149e-06	-5.583184e-10	-2.137950e+01	-3.838155e+01
1.160000e-06	-3.023424e-06	-5.544529e-10	-2.110913e+01	-3.821120e+01
1.170000e-06	-2.984533e-06	-5.493101e-10	-2.083760e+01	-3.803609e+01
1.180000e-06	-2.945373e-06	-5.455106e-10	-2.056419e+01	-3.785601e+01
1.190000e-06	-2.905971e-06	-5.431450e-10	-2.028909e+01	-3.767076e+01
1.200000e-06	-2.866438e-06	-5.389277e-10	-2.001308e+01	-3.748014e+01
1.210000e-06	-2.826813e-06	-5.349648e-10	-1.973642e+01	-3.728400e+01
1.220000e-06	-2.786992e-06	-5.317575e-10	-1.945839e+01	-3.708218e+01
1.230000e-06	-2.747004e-06	-5.248592e-10	-1.917920e+01	-3.687455e+01
1.240000e-06	-2.706962e-06	-5.167166e-10	-1.889964e+01	-3.666098e+01
1.250000e-06	-2.666843e-06	-5.115679e-10	-1.861953e+01	-3.644138e+01
1.260000e-06	-2.626570e-06	-5.079723e-10	-1.833835e+01	-3.621565e+01
1.270000e-06	-2.586066e-06	-5.042502e-10	-1.805555e+01	-3.598373e+01
1.280000e-06	-2.545212e-06	-5.018197e-10	-1.777032e+01	-3.574555e+01
1.290000e-06	-2.504002e-06	-5.015116e-10	-1.748259e+01	-3.550106e+01
1.300000e-06	-2.462513e-06	-4.967119e-10	-1.719293e+01	-3.525023e+01
1.310000e-06	-2.420768e-06	-4.879805e-10	-1.690147e+01	-3.499303e+01
1.320000e-06	-2.378692e-06	-4.808070e-10	-1.660770e+01	-3.472942e+01
1.330000e-06	-2.336374e-06	-4.760133e-10	-1.631224e+01	-3.445938e+01
1.340000e-06	-2.293810e-06	-4.737665e-10	-1.601506e+01	-3.418291e+01
1.350000e-06	-2.250946e-06	-4.714437e-10	-1.571579e+01	-3.389997e+01
1.360000e-06	-2.207832e-06	-4.695774e-10	-1.541478e+01	-3.361056e+01
1.370000e-06	-2.164470e-06	-4.665077e-10	-1.511203e+01	-3.331465e+01
1.380000e-06	-2.121038e-06	-4.637880e-10	-1.480879e+01	-3.301221e+01
1.390000e-06	-2.077554e-06	-4.607160e-10	-1.450519e+01	-3.270321e+01
1.400000e-06	-2.033905e-06	-4.561969e-10	-1.420044e+01	-3.238760e+01
1.410000e-06	-1.990139e-06	-4.493318e-10	-1.389488e+01	-3.206533e+01
1.420000e-06	-1.946324e-06	-4.427927e-10	-1.358896e+01	-3.173634e+01
1.430000e-06	-1.902485e-06	-4.367267e-10	-1.328289e+01	-3.140053e+01
1.440000e-06	-1.858578e-06	-4.321308e-10	-1.297633e+01	-3.105782e+01
1.450000e-06	-1.814573e-06	-4.253556e-10	-1.266910e+01	-3.070810e+01
1.460000e-06	-1.770465e-06	-4.186729e-10	-1.236114e+01	-3.035124e+01
1.470000e-06	-1.726204e-06	-4.106724e-10	-1.205212e+01	-2.998709e+01
1.480000e-06	-1.681799e-06	-4.030681e-10	-1.174209e+01	-2.961549e+01
1.490000e-06	-1.637348e-06	-3.967353e-10	-1.143174e+01	-2.923627e+01
1.500000e-06	-1.592787e-06	-3.910036e-10	-1.112062e+01	-2.884922e+01
1.510000e-06	-1.548015e-06	-3.850051e-10	-1.080803e+01	-2.845413e+01
1.520000e-06	-1.503106e-06	-3.782058e-10	-1.049448e+01	-2.805078e+01
1.530000e-06	-1.458078e-06	-3.685485e-10	-1.018010e+01	-2.763891e+01
1.540000e-06	-1.412948e-06	-3.567064e-10	-9.865011e+00	-2.721826e+01
1.550000e-06	-1.367725e-06	-3.453191e-10	-9.549269e+00	-2.678857e+01
1.560000e-06	-1.322371e-06	-3.380716e-10	-9.232613e+00	-2.634954e+01
1.570000e-06	-1.276984e-06	-3.329816e-10	-8.915723e+00	-2.590087e+01
1.580000e-06	-1.231579e-06	-3.285950e-10	-8.598717e+00	-2.544228e+01
1.590000e-06	-1.186069e-06	-3.254805e-10	-8.280970e+00	-2.497343e+01
1.600000e-06	-1.140465e-06	-3.210169e-10	-7.962571e+00	-2.449402e+01
1.610000e-06	-1.094803e-06	-3.140355e-10	-7.643765e+00	-2.400374e+01
1.620000e-06	-1.049036e-06	-3.061900e-10	-7.324223e+00	-2.350227e+01
1.630000e-06	-1.003201e-06	-3.006251e-10	-7.004209e+00	-2.298930e+01
1.640000e-06	-9.573512e-07	-2.969892e-10	-6.684094e+00	-2.246452e+01
1.650000e-06	-9.114139e-07	-2.932083e-10	-6.363366e+00	-2.192764e+01
1.660000e-06	-8.653445e-07	-2.859370e-10	-6.041716e+00	-2.137838e+01
1.670000e-06	-8.191695e-07	-2.752136e-10	-5.719328e+00	-2.081646e+01
1.680000e-06	-7.729751e-07	-2.622652e-10	-5.396806e+00	-2.024164e+01
1.690000e-06	-7.268170e-07	-2.518931e-10	-5.074536e+00	-1.965367e+01
1.700000e-06	-6.806252e-07	-2.444930e-10	-4.752031e+00	-1.905236e+01
1.710000e-06	-6.343951e-07	-2.383307e-10	-4.429259e+00	-1.843752e+01
1.720000e-06	-5.880959e-07	-2.297941e-10	-4.106004e+00	-1.780898e+01
1.730000e-06	-5.417658e-07	-2.193963e-10	-3.782534e+00	-1.716662e+01
1.740000e-06	-4.954422e-07	-2.048360e-10	-3.459109e+00	-1.651034e+01
1.750000e-06	-4.490849e-07	-1.905143e-10	-3.135449e+00	-1.584008e+01
1.760000e-06	-4.027767e-07	-1.802955e-10	-2.812132e+00	-1.515580e+01
1.770000e-06	-3.563295e-07	-1.719697e-10	-2.487844e+00	-1.445752e+01
1.780000e-06	-3.096738e-07	-1.651875e-10	-2.162099e+00	-1.374527e+01
1.790000e-06	-2.630068e-07	-1.591947e-10	-1.836277e+00	-1.301914e+01
1.800000e-06	-2.163684e-07	-1.512603e-10	-1.510654e+00	-1.227925e+01
1.810000e-06	-1.697552e-07	-1.384717e-10	-1.185208e+00	-1.152577e+01
1.820000e-06	-1.231410e-07	-1.246531e-10	-8.597532e-01	-1.075889e+01
1.830000e-06	-7.657487e-08	-1.123381e-10	-5.346352e-01	-9.978862e+00
1.840000e-06	-3.002246e-08	-1.047765e-10	-2.096127e-01	-9.185970e+00
1.850000e-06	1.659864e-08	-9.847655e-11	1.158894e-01	-8.380535e+00
1.860000e-06	6.315396e-08	-9.323431e-11	4.409323e-01	-7.562921e+00
1.870000e-06	1.096867e-07	-8.684306e-11	7.658175e-01	-6.733530e+00
1.880000e-06	1.562809e-07	-7.550265e-11	1.091132e+00	-5.892802e+00
1.890000e-06	2.028589e-07	-5.941115e-11	1.416333e+00	-5.041212e+00
1.900000e-06	2.494176e-07	-4.205697e-11	1.741400e+00	-4.179271e+00
1.910000e-06	2.959500e-07	-2.693683e-11	2.066282e+00	-3.307523e+00
1.920000e-06	3.425104e-07	-1.544484e-11	2.391360e+00	-2.426544e+00
1.930000e-06	3.890388e-07	-9.561461e-12	2.716215e+00	-1.536940e+00
1.940000e-06	4.354302e-07	-2.889936e-12	3.040114e+00	-6.393430e-01
1.950000e-06	4.818357e-07	9.273127e-12	3.364110e+00	2.655878e-01
1.960000e-06	5.282665e-07	2.518062e-11	3.688284e+00	1.177171e+00
1.970000e-06	5.746017e-07	4.139334e-11	4.011790e+00	2.094704e+00
1.980000e-06	6.208840e-07	5.606055e-11	4.334927e+00	3.017465e+00
1.990000e-06	6.670693e-07	7.015558e-11	4.657386e+00	3.944718e+00
2.000000e-06	7.131348e-07	8.175553e-11	4.979008e+00	4.875711e+00
2.010000e-06	7.592001e-07	9.075340e-11	5.300630e+00	5.809684e+00
2.020000e-06	8.051842e-07	1.025082e-10	5.621685e+00	6.745867e+00
2.030000e-06	8.511364e-07	1.174368e-10	5.942517e+00	7.683482e+00
2.040000e-06	8.971466e-07	1.337280e-10	6.263754e+00	8.621752e+00
2.050000e-06	9.430655e-07	1.475809e-10	6.584354e+00	9.559895e+00
2.060000e-06	9.889337e-07	1.596556e-10	6.904599e+00	1.049713e+01
2.070000e-06	1.034786e-06	1.721608e-10	7.224734e+00	1.143269e+01
2.080000e-06	1.080542e-06	1.866426e-10	7.544196e+00	1.236579e+01
2.090000e-06	1.126206e-06	2.005805e-10	7.863018e+00	1.329568e+01
2.100000e-06	1.171813e-06	2.141943e-10	8.181434e+00	1.422161e+01
2.110000e-06	1.217296e-06	2.270544e-10	8.498991e+00	1.514283e+01
2.120000e-06	1.262688e-06	2.385926e-10	8.815914e+00	1.605862e+01
2.130000e-06	1.308031e-06	2.506791e-10	9.132493e+00	1.696828e+01
2.140000e-06	1.353322e-06	2.630469e-10	9.448706e+00	1.787110e+01
2.150000e-06	1.398495e-06	2.750062e-10	9.764097e+00	1.876641e+01
2.160000e-06	1.443481e-06	2.868726e-10	1.007819e+01	1.965357e+01
2.170000e-06	1.488377e-06	2.971672e-10	1.039164e+01	2.053193e+01
2.180000e-06	1.533130e-06	3.082767e-10	1.070410e+01	2.140090e+01
2.190000e-06	1.577741e-06	3.222759e-10	1.101557e+01	2.225989e+01
2.200000e-06	1.622300e-06	3.353548e-10	1.132667e+01	2.310833e+01
2.210000e-06	1.666733e-06	3.461233e-10	1.163690e+01	2.394570e+01
2.220000e-06	1.710964e-06	3.537010e-10	1.194572e+01	2.477148e+01
2.230000e-06	1.755041e-06	3.642794e-10	1.225345e+01	2.558521e+01
2.240000e-06	1.799020e-06	3.745705e-10	1.256051e+01	2.638642e+01
2.250000e-06	1.842911e-06	3.827099e-10	1.286695e+01	2.717470e+01
2.260000e-06	1.886739e-06	3.903362e-10	1.317295e+01	2.794965e+01
2.270000e-06	1.930539e-06	4.000149e-10	1.347876e+01	2.871091e+01
2.280000e-06	1.974335e-06	4.133293e-10	1.378454e+01	2.945815e+01
2.290000e-06	2.018075e-06	4.265697e-10	1.408992e+01	3.019106e+01
2.300000e-06	2.061702e-06	4.391030e-10	1.439452e+01	3.090937e+01
2.310000e-06	2.105258e-06	4.480425e-10	1.469862e+01	3.161284e+01
2.320000e-06	2.148779e-06	4.547154e-10	1.500248e+01	3.230125e+01
2.330000e-06	2.192211e-06	4.599571e-10	1.530571e+01	3.297441e+01
2.340000e-06	2.235536e-06	4.650742e-10	1.560820e+01	3.363219e+01
2.350000e-06	2.278666e-06	4.734782e-10	1.590934e+01	3.427445e+01
2.360000e-06	2.321462e-06	4.851638e-10	1.620813e+01	3.490109e+01
2.370000e-06	2.363909e-06	4.978813e-10	1.650449e+01	3.551206e+01
2.380000e-06	2.406046e-06	5.072690e-10	1.679868e+01	3.610732e+01
2.390000e-06	2.447829e-06	5.139759e-10	1.709041e+01	3.668687e+01
2.400000e-06	2.489180e-06	5.174871e-10	1.737911e+01	3.725072e+01
2.410000e-06	2.530178e-06	5.173535e-10	1.766536e+01	3.779891e+01
2.420000e-06	2.570966e-06	5.194396e-10	1.795013e+01	3.833154e+01
2.430000e-06	2.611528e-06	5.255735e-10	1.823333e+01	3.884869e+01
2.440000e-06	2.651838e-06	5.385698e-10	1.851477e+01	3.935049e+01
2.450000e-06	2.692050e-06	5.512996e-10	1.879552e+01	3.983709e+01
2.460000e-06	2.732131e-06	5.609676e-10	1.907536e+01	4.030867e+01
2.470000e-06	2.772022e-06	5.680452e-10	1.935387e+01	4.076542e+01
2.480000e-06	2.811848e-06	5.703298e-10	1.963193e+01	4.120756e+01
2.490000e-06	2.851568e-06	5.712567e-10	1.990925e+01	4.163532e+01
2.500000e-06	2.891101e-06	5.737099e-10	2.018527e+01	4.204897e+01
2.510000e-06	2.930499e-06	5.792319e-10	2.046034e+01	4.244877e+01
2.520000e-06	2.969770e-06	5.891934e-10	2.073452e+01	4.283502e+01
2.530000e-06	3.008867e-06	6.000615e-10	2.100750e+01	4.320801e+01
2.540000e-06	3.047750e-06	6.078648e-10	2.127897e+01	4.356808e+01
2.550000e-06	3.086342e-06	6.120226e-10	2.154841e+01	4.391555e+01
2.560000e-06	3.124648e-06	6.128524e-10	2.181586e+01	4.425075e+01
2.570000e-06	3.162728e-06	6.124822e-10	2.208173e+01	4.457404e+01
2.580000e-06	3.200599e-06	6.146172e-10	2.234614e+01	4.488578e+01
2.590000e-06	3.238271e-06	6.196524e-10	2.260916e+01	4.518632e+01
2.600000e-06	3.275777e-06	6.267554e-10	2.287102e+01	4.547603e+01
2.610000e-06	3.313176e-06	6.342570e-10	2.313214e+01	4.575528e+01
2.620000e-06	3.350366e-06	6.380435e-10	2.339179e+01	4.602443e+01
2.630000e-06	3.387200e-06	6.389641e-10	2.364896e+01	4.628385e+01
2.640000e-06	3.423648e-06	6.394162e-10	2.390344e+01	4.653390e+01
2.650000e-06	3.459823e-06	6.433556e-10	2.415601e+01	4.677493e+01
2.660000e-06	3.495844e-06	6.495897e-10	2.440750e+01	4.700729e+01
2.670000e-06	3.531716e-06	6.543446e-10	2.465795e+01	4.723133e+01
2.680000e-06	3.567437e-06	6.558774e-10	2.490735e+01	4.744738e+01
2.690000e-06	3.603064e-06	6.576172e-10	2.515610e+01	4.765576e+01
2.700000e-06	3.638614e-06	6.598702e-10	2.540430e+01	4.785676e+01
2.710000e-06	3.673954e-06	6.620905e-10	2.565104e+01	4.805070e+01
2.720000e-06	3.709002e-06	6.657044e-10	2.589574e+01	4.823784e+01
2.730000e-06	3.743692e-06	6.715720e-10	2.613794e+01	4.841845e+01
2.740000e-06	3.777952e-06	6.760469e-10	2.637714e+01	4.859277e+01
2.750000e-06	3.811744e-06	6.766629e-10	2.661307e+01	4.876104e+01
2.760000e-06	3.845068e-06	6.762262e-10	2.684574e+01	4.892345e+01
2.770000e-06	3.877931e-06	6.773397e-10	2.707518e+01	4.908021e+01
2.780000e-06	3.910382e-06	6.806166e-10	2.730175e+01	4.923149e+01
2.790000e-06	3.942584e-06	6.846777e-10	2.752658e+01	4.937743e+01
2.800000e-06	3.974572e-06	6.871008e-10	2.774991e+01	4.951818e+01
2.810000e-06	4.006383e-06	6.875547e-10	2.797201e+01	4.965385e+01
2.820000e-06	4.038073e-06	6.873235e-10	2.819327e+01	4.978454e+01
2.830000e-06	4.069627e-06	6.883954e-10	2.841357e+01	4.991032e+01
2.840000e-06	4.100977e-06	6.915925e-10	2.863246e+01	5.003127e+01
2.850000e-06	4.131953e-06	6.963574e-10	2.884873e+01	5.014743e+01
2.860000e-06	4.162531e-06	7.020388e-10	2.906222e+01	5.025884e+01
2.870000e-06	4.192788e-06	7.055753e-10	2.927347e+01	5.036551e+01
2.880000e-06	4.222770e-06	7.057931e-10	2.948280e+01	5.046746e+01
2.890000e-06	4.252508e-06	7.055266e-10	2.969042e+01	5.056467e+01
2.900000e-06	4.281978e-06	7.057790e-10	2.989618e+01	5.065714e+01
