# Temperatura_=_-0.7
# Concentracion g/m^3_=_1620.0
# C_Vs_to_Am_M_A/Vsm_=_65563218390.804596
# pendiente_HvsI_1/m_=_3716.3
# ordenada_HvsI_A/m_=_1297.0
# frecuencia_Hz_=_135101.97606779807

Tiempo_(s)	Campo_(V.s)	Magnetizacion_(V.s)	Campo_(kA/m)	Magnetizacion_(A/m)
0.000000e+00	-5.514230e-06	-1.291477e-09	-3.837096e+01	-8.784783e+01
1.000000e-08	-5.514395e-06	-1.291716e-09	-3.837211e+01	-8.782204e+01
2.000000e-08	-5.514242e-06	-1.296173e-09	-3.837104e+01	-8.779479e+01
3.000000e-08	-5.513671e-06	-1.299683e-09	-3.836707e+01	-8.776590e+01
4.000000e-08	-5.512619e-06	-1.294664e-09	-3.835975e+01	-8.773520e+01
5.000000e-08	-5.510977e-06	-1.276970e-09	-3.834832e+01	-8.770247e+01
6.000000e-08	-5.508782e-06	-1.262198e-09	-3.833304e+01	-8.766753e+01
7.000000e-08	-5.506128e-06	-1.284840e-09	-3.831458e+01	-8.763018e+01
8.000000e-08	-5.502986e-06	-1.354502e-09	-3.829272e+01	-8.759021e+01
9.000000e-08	-5.499305e-06	-1.406611e-09	-3.826710e+01	-8.754744e+01
1.000000e-07	-5.495068e-06	-1.328108e-09	-3.823762e+01	-8.750167e+01
1.100000e-07	-5.490564e-06	-1.215088e-09	-3.820628e+01	-8.745272e+01
1.200000e-07	-5.486002e-06	-1.218912e-09	-3.817453e+01	-8.740040e+01
1.300000e-07	-5.481146e-06	-1.313785e-09	-3.814074e+01	-8.734456e+01
1.400000e-07	-5.475846e-06	-1.318007e-09	-3.810386e+01	-8.728502e+01
1.500000e-07	-5.470194e-06	-1.228310e-09	-3.806453e+01	-8.722164e+01
1.600000e-07	-5.464218e-06	-1.234817e-09	-3.802294e+01	-8.715429e+01
1.700000e-07	-5.457885e-06	-1.342767e-09	-3.797888e+01	-8.708283e+01
1.800000e-07	-5.451050e-06	-1.363636e-09	-3.793131e+01	-8.700717e+01
1.900000e-07	-5.443831e-06	-1.267954e-09	-3.788108e+01	-8.692719e+01
2.000000e-07	-5.436430e-06	-1.226419e-09	-3.782958e+01	-8.684283e+01
2.100000e-07	-5.428772e-06	-1.312632e-09	-3.777629e+01	-8.675400e+01
2.200000e-07	-5.420871e-06	-1.365358e-09	-3.772131e+01	-8.666067e+01
2.300000e-07	-5.412680e-06	-1.315892e-09	-3.766432e+01	-8.656279e+01
2.400000e-07	-5.403880e-06	-1.287917e-09	-3.760308e+01	-8.646035e+01
2.500000e-07	-5.394294e-06	-1.329099e-09	-3.753638e+01	-8.635332e+01
2.600000e-07	-5.384043e-06	-1.338904e-09	-3.746505e+01	-8.624173e+01
2.700000e-07	-5.373299e-06	-1.288147e-09	-3.739028e+01	-8.612559e+01
2.800000e-07	-5.362101e-06	-1.281961e-09	-3.731236e+01	-8.600493e+01
2.900000e-07	-5.350466e-06	-1.318490e-09	-3.723140e+01	-8.587980e+01
3.000000e-07	-5.338477e-06	-1.306688e-09	-3.714797e+01	-8.575024e+01
3.100000e-07	-5.326107e-06	-1.257863e-09	-3.706190e+01	-8.561633e+01
3.200000e-07	-5.313301e-06	-1.272689e-09	-3.697278e+01	-8.547813e+01
3.300000e-07	-5.300212e-06	-1.305006e-09	-3.688171e+01	-8.533572e+01
3.400000e-07	-5.286751e-06	-1.291316e-09	-3.678804e+01	-8.518920e+01
3.500000e-07	-5.272717e-06	-1.265453e-09	-3.669038e+01	-8.503864e+01
3.600000e-07	-5.258204e-06	-1.295426e-09	-3.658939e+01	-8.488415e+01
3.700000e-07	-5.243243e-06	-1.299071e-09	-3.648528e+01	-8.472582e+01
3.800000e-07	-5.227733e-06	-1.259163e-09	-3.637736e+01	-8.456374e+01
3.900000e-07	-5.211719e-06	-1.255853e-09	-3.626592e+01	-8.439801e+01
4.000000e-07	-5.195410e-06	-1.293344e-09	-3.615244e+01	-8.422872e+01
4.100000e-07	-5.178753e-06	-1.270180e-09	-3.603653e+01	-8.405597e+01
4.200000e-07	-5.161676e-06	-1.233370e-09	-3.591770e+01	-8.387985e+01
4.300000e-07	-5.144331e-06	-1.273164e-09	-3.579700e+01	-8.370043e+01
4.400000e-07	-5.126700e-06	-1.303030e-09	-3.567432e+01	-8.351780e+01
4.500000e-07	-5.108671e-06	-1.254150e-09	-3.554886e+01	-8.333203e+01
4.600000e-07	-5.090177e-06	-1.236879e-09	-3.542017e+01	-8.314319e+01
4.700000e-07	-5.071284e-06	-1.278348e-09	-3.528870e+01	-8.295132e+01
4.800000e-07	-5.052086e-06	-1.267082e-09	-3.515511e+01	-8.275649e+01
4.900000e-07	-5.032572e-06	-1.240542e-09	-3.501932e+01	-8.255872e+01
5.000000e-07	-5.012904e-06	-1.265145e-09	-3.488247e+01	-8.235806e+01
5.100000e-07	-4.993118e-06	-1.263609e-09	-3.474478e+01	-8.215454e+01
5.200000e-07	-4.972969e-06	-1.224046e-09	-3.460457e+01	-8.194815e+01
5.300000e-07	-4.952397e-06	-1.245329e-09	-3.446142e+01	-8.173893e+01
5.400000e-07	-4.931453e-06	-1.270327e-09	-3.431569e+01	-8.152686e+01
5.500000e-07	-4.910126e-06	-1.229785e-09	-3.416728e+01	-8.131194e+01
5.600000e-07	-4.888460e-06	-1.212491e-09	-3.401651e+01	-8.109416e+01
5.700000e-07	-4.866574e-06	-1.248843e-09	-3.386422e+01	-8.087349e+01
5.800000e-07	-4.844383e-06	-1.239844e-09	-3.370981e+01	-8.064992e+01
5.900000e-07	-4.821700e-06	-1.213425e-09	-3.355196e+01	-8.042341e+01
6.000000e-07	-4.798705e-06	-1.226730e-09	-3.339196e+01	-8.019392e+01
6.100000e-07	-4.775504e-06	-1.225647e-09	-3.323051e+01	-7.996143e+01
6.200000e-07	-4.752046e-06	-1.194258e-09	-3.306727e+01	-7.972589e+01
6.300000e-07	-4.728405e-06	-1.198056e-09	-3.290277e+01	-7.948725e+01
6.400000e-07	-4.704479e-06	-1.210328e-09	-3.273628e+01	-7.924548e+01
6.500000e-07	-4.680039e-06	-1.196047e-09	-3.256621e+01	-7.900053e+01
6.600000e-07	-4.655128e-06	-1.192710e-09	-3.239286e+01	-7.875237e+01
6.700000e-07	-4.629765e-06	-1.206749e-09	-3.221638e+01	-7.850095e+01
6.800000e-07	-4.603807e-06	-1.199184e-09	-3.203575e+01	-7.824623e+01
6.900000e-07	-4.577249e-06	-1.186757e-09	-3.185094e+01	-7.798818e+01
7.000000e-07	-4.550301e-06	-1.186538e-09	-3.166343e+01	-7.772676e+01
7.100000e-07	-4.523125e-06	-1.178796e-09	-3.147432e+01	-7.746196e+01
7.200000e-07	-4.495700e-06	-1.169566e-09	-3.128348e+01	-7.719374e+01
7.300000e-07	-4.468059e-06	-1.171727e-09	-3.109114e+01	-7.692210e+01
7.400000e-07	-4.440244e-06	-1.166227e-09	-3.089759e+01	-7.664701e+01
7.500000e-07	-4.412266e-06	-1.158514e-09	-3.070290e+01	-7.636847e+01
7.600000e-07	-4.383974e-06	-1.158523e-09	-3.050603e+01	-7.608648e+01
7.700000e-07	-4.355305e-06	-1.150104e-09	-3.030654e+01	-7.580103e+01
7.800000e-07	-4.326315e-06	-1.137751e-09	-3.010481e+01	-7.551214e+01
7.900000e-07	-4.296994e-06	-1.136936e-09	-2.990078e+01	-7.521982e+01
8.000000e-07	-4.267433e-06	-1.133019e-09	-2.969508e+01	-7.492409e+01
8.100000e-07	-4.237603e-06	-1.117163e-09	-2.948751e+01	-7.462496e+01
8.200000e-07	-4.207423e-06	-1.113619e-09	-2.927750e+01	-7.432247e+01
8.300000e-07	-4.176875e-06	-1.113237e-09	-2.906493e+01	-7.401663e+01
8.400000e-07	-4.146042e-06	-1.102283e-09	-2.885038e+01	-7.370747e+01
8.500000e-07	-4.115010e-06	-1.092630e-09	-2.863444e+01	-7.339504e+01
8.600000e-07	-4.083789e-06	-1.092758e-09	-2.841719e+01	-7.307935e+01
8.700000e-07	-4.052363e-06	-1.084199e-09	-2.819851e+01	-7.276045e+01
8.800000e-07	-4.020732e-06	-1.077381e-09	-2.797840e+01	-7.243835e+01
8.900000e-07	-3.988921e-06	-1.081343e-09	-2.775705e+01	-7.211310e+01
9.000000e-07	-3.956895e-06	-1.076115e-09	-2.753419e+01	-7.178471e+01
9.100000e-07	-3.924570e-06	-1.060869e-09	-2.730925e+01	-7.145322e+01
9.200000e-07	-3.891770e-06	-1.056048e-09	-2.708101e+01	-7.111863e+01
9.300000e-07	-3.858427e-06	-1.053177e-09	-2.684900e+01	-7.078097e+01
9.400000e-07	-3.824588e-06	-1.042438e-09	-2.661353e+01	-7.044025e+01
9.500000e-07	-3.790304e-06	-1.037246e-09	-2.637496e+01	-7.009646e+01
9.600000e-07	-3.755623e-06	-1.039072e-09	-2.613363e+01	-6.974961e+01
9.700000e-07	-3.720644e-06	-1.032169e-09	-2.589023e+01	-6.939969e+01
9.800000e-07	-3.685468e-06	-1.025104e-09	-2.564546e+01	-6.904667e+01
9.900000e-07	-3.650126e-06	-1.024652e-09	-2.539953e+01	-6.869054e+01
1.000000e-06	-3.614634e-06	-1.018497e-09	-2.515255e+01	-6.833127e+01
1.010000e-06	-3.579014e-06	-1.008810e-09	-2.490469e+01	-6.796880e+01
1.020000e-06	-3.543280e-06	-1.005341e-09	-2.465603e+01	-6.760310e+01
1.030000e-06	-3.507331e-06	-9.999821e-10	-2.440589e+01	-6.723411e+01
1.040000e-06	-3.471087e-06	-9.895915e-10	-2.415367e+01	-6.686176e+01
1.050000e-06	-3.434529e-06	-9.825764e-10	-2.389928e+01	-6.648598e+01
1.060000e-06	-3.397689e-06	-9.770964e-10	-2.364294e+01	-6.610669e+01
1.070000e-06	-3.360624e-06	-9.676392e-10	-2.338501e+01	-6.572381e+01
1.080000e-06	-3.323341e-06	-9.592755e-10	-2.312558e+01	-6.533724e+01
1.090000e-06	-3.285823e-06	-9.565463e-10	-2.286451e+01	-6.494689e+01
1.100000e-06	-3.247998e-06	-9.512354e-10	-2.260131e+01	-6.455264e+01
1.110000e-06	-3.209948e-06	-9.445414e-10	-2.233653e+01	-6.415440e+01
1.120000e-06	-3.171766e-06	-9.395207e-10	-2.207084e+01	-6.375206e+01
1.130000e-06	-3.133399e-06	-9.316511e-10	-2.180386e+01	-6.334548e+01
1.140000e-06	-3.094810e-06	-9.198508e-10	-2.153534e+01	-6.293456e+01
1.150000e-06	-3.055925e-06	-9.111779e-10	-2.126476e+01	-6.251918e+01
1.160000e-06	-3.016833e-06	-9.065711e-10	-2.099274e+01	-6.209921e+01
1.170000e-06	-2.977620e-06	-9.037208e-10	-2.071987e+01	-6.167453e+01
1.180000e-06	-2.938267e-06	-9.013348e-10	-2.044603e+01	-6.124502e+01
1.190000e-06	-2.898780e-06	-8.970176e-10	-2.017126e+01	-6.081054e+01
1.200000e-06	-2.859155e-06	-8.879584e-10	-1.989552e+01	-6.037099e+01
1.210000e-06	-2.819405e-06	-8.792095e-10	-1.961892e+01	-5.992623e+01
1.220000e-06	-2.779572e-06	-8.724514e-10	-1.934174e+01	-5.947614e+01
1.230000e-06	-2.739554e-06	-8.638722e-10	-1.906328e+01	-5.902060e+01
1.240000e-06	-2.699292e-06	-8.532701e-10	-1.878312e+01	-5.855949e+01
1.250000e-06	-2.658833e-06	-8.466473e-10	-1.850158e+01	-5.809270e+01
1.260000e-06	-2.618045e-06	-8.407645e-10	-1.821775e+01	-5.762010e+01
1.270000e-06	-2.577030e-06	-8.322567e-10	-1.793235e+01	-5.714157e+01
1.280000e-06	-2.535856e-06	-8.252452e-10	-1.764584e+01	-5.665701e+01
1.290000e-06	-2.494432e-06	-8.189846e-10	-1.735759e+01	-5.616627e+01
1.300000e-06	-2.452715e-06	-8.117850e-10	-1.706730e+01	-5.566925e+01
1.310000e-06	-2.410565e-06	-8.025131e-10	-1.677400e+01	-5.516583e+01
1.320000e-06	-2.368060e-06	-7.920305e-10	-1.647822e+01	-5.465587e+01
1.330000e-06	-2.325276e-06	-7.836169e-10	-1.618051e+01	-5.413924e+01
1.340000e-06	-2.282286e-06	-7.761978e-10	-1.588137e+01	-5.361581e+01
1.350000e-06	-2.239147e-06	-7.670542e-10	-1.558118e+01	-5.308543e+01
1.360000e-06	-2.195809e-06	-7.578740e-10	-1.527961e+01	-5.254796e+01
1.370000e-06	-2.152323e-06	-7.515936e-10	-1.497702e+01	-5.200323e+01
1.380000e-06	-2.108740e-06	-7.480524e-10	-1.467374e+01	-5.145108e+01
1.390000e-06	-2.065097e-06	-7.407866e-10	-1.437004e+01	-5.089132e+01
1.400000e-06	-2.021403e-06	-7.297931e-10	-1.406600e+01	-5.032377e+01
1.410000e-06	-1.977646e-06	-7.190805e-10	-1.376151e+01	-4.974820e+01
1.420000e-06	-1.933789e-06	-7.096571e-10	-1.345634e+01	-4.916441e+01
1.430000e-06	-1.889865e-06	-6.997238e-10	-1.315069e+01	-4.857215e+01
1.440000e-06	-1.845863e-06	-6.895768e-10	-1.284450e+01	-4.797116e+01
1.450000e-06	-1.801708e-06	-6.806798e-10	-1.253725e+01	-4.736118e+01
1.460000e-06	-1.757412e-06	-6.710016e-10	-1.222901e+01	-4.674192e+01
1.470000e-06	-1.713012e-06	-6.612701e-10	-1.192005e+01	-4.611306e+01
1.480000e-06	-1.668485e-06	-6.517962e-10	-1.161021e+01	-4.547428e+01
1.490000e-06	-1.623778e-06	-6.391232e-10	-1.129911e+01	-4.482522e+01
1.500000e-06	-1.578927e-06	-6.278459e-10	-1.098702e+01	-4.416552e+01
1.510000e-06	-1.533920e-06	-6.191459e-10	-1.067383e+01	-4.349481e+01
1.520000e-06	-1.488747e-06	-6.088576e-10	-1.035949e+01	-4.281266e+01
1.530000e-06	-1.443544e-06	-5.961360e-10	-1.004495e+01	-4.211867e+01
1.540000e-06	-1.398344e-06	-5.822927e-10	-9.730424e+00	-4.141239e+01
1.550000e-06	-1.353071e-06	-5.675927e-10	-9.415388e+00	-4.069338e+01
1.560000e-06	-1.307663e-06	-5.526024e-10	-9.099415e+00	-3.996117e+01
1.570000e-06	-1.262108e-06	-5.388158e-10	-8.782424e+00	-3.921528e+01
1.580000e-06	-1.216412e-06	-5.280564e-10	-8.464446e+00	-3.845524e+01
1.590000e-06	-1.170673e-06	-5.199687e-10	-8.146170e+00	-3.768054e+01
1.600000e-06	-1.124909e-06	-5.111017e-10	-7.827716e+00	-3.689070e+01
1.610000e-06	-1.079043e-06	-5.001054e-10	-7.508555e+00	-3.608522e+01
1.620000e-06	-1.033118e-06	-4.872223e-10	-7.188990e+00	-3.526360e+01
1.630000e-06	-9.871163e-07	-4.756896e-10	-6.868882e+00	-3.442535e+01
1.640000e-06	-9.409973e-07	-4.644893e-10	-6.547962e+00	-3.357000e+01
1.650000e-06	-8.947429e-07	-4.496519e-10	-6.226099e+00	-3.269708e+01
1.660000e-06	-8.484598e-07	-4.350368e-10	-5.904037e+00	-3.180613e+01
1.670000e-06	-8.022168e-07	-4.224307e-10	-5.582253e+00	-3.089672e+01
1.680000e-06	-7.559074e-07	-4.080237e-10	-5.260007e+00	-2.996844e+01
1.690000e-06	-7.095188e-07	-3.929529e-10	-4.937211e+00	-2.902092e+01
1.700000e-06	-6.630811e-07	-3.777604e-10	-4.614073e+00	-2.805379e+01
1.710000e-06	-6.165892e-07	-3.633669e-10	-4.290557e+00	-2.706676e+01
1.720000e-06	-5.700632e-07	-3.465551e-10	-3.966804e+00	-2.605954e+01
1.730000e-06	-5.235581e-07	-3.268797e-10	-3.643197e+00	-2.503190e+01
1.740000e-06	-4.770071e-07	-3.073339e-10	-3.319270e+00	-2.398365e+01
1.750000e-06	-4.303261e-07	-2.902763e-10	-2.994439e+00	-2.291467e+01
1.760000e-06	-3.834997e-07	-2.765292e-10	-2.668596e+00	-2.182486e+01
1.770000e-06	-3.366869e-07	-2.638924e-10	-2.342847e+00	-2.071421e+01
1.780000e-06	-2.899410e-07	-2.505706e-10	-2.017564e+00	-1.958274e+01
1.790000e-06	-2.431980e-07	-2.370430e-10	-1.692302e+00	-1.843055e+01
1.800000e-06	-1.964626e-07	-2.215693e-10	-1.367092e+00	-1.725780e+01
1.810000e-06	-1.496941e-07	-2.027620e-10	-1.041651e+00	-1.606472e+01
1.820000e-06	-1.029565e-07	-1.833712e-10	-7.164265e-01	-1.485159e+01
1.830000e-06	-5.618008e-08	-1.677020e-10	-3.909310e-01	-1.361877e+01
1.840000e-06	-9.386260e-09	-1.524922e-10	-6.531461e-02	-1.236669e+01
1.850000e-06	3.739531e-08	-1.343540e-10	2.602165e-01	-1.109585e+01
1.860000e-06	8.417260e-08	-1.169790e-10	5.857179e-01	-9.806812e+00
1.870000e-06	1.309776e-07	-9.902746e-11	9.114120e-01	-8.500208e+00
1.880000e-06	1.778485e-07	-7.958294e-11	1.237565e+00	-7.176738e+00
1.890000e-06	2.246575e-07	-5.907548e-11	1.563287e+00	-5.837169e+00
1.900000e-06	2.714298e-07	-3.821603e-11	1.888754e+00	-4.482330e+00
1.910000e-06	3.181492e-07	-1.793233e-11	2.213852e+00	-3.113110e+00
1.920000e-06	3.647934e-07	7.131490e-13	2.538427e+00	-1.730460e+00
1.930000e-06	4.114129e-07	1.832741e-11	2.862831e+00	-3.353841e-01
1.940000e-06	4.580075e-07	3.768442e-11	3.187061e+00	1.071061e+00
1.950000e-06	5.044914e-07	5.817729e-11	3.510520e+00	2.487771e+00
1.960000e-06	5.509522e-07	7.941764e-11	3.833820e+00	3.913597e+00
1.970000e-06	5.974482e-07	9.936144e-11	4.157363e+00	5.347350e+00
1.980000e-06	6.438065e-07	1.172277e-10	4.479949e+00	6.787808e+00
1.990000e-06	6.900139e-07	1.381014e-10	4.801485e+00	8.233718e+00
2.000000e-06	7.362388e-07	1.577453e-10	5.123142e+00	9.683803e+00
2.010000e-06	7.825348e-07	1.770074e-10	5.445295e+00	1.113677e+01
2.020000e-06	8.288251e-07	1.989037e-10	5.767408e+00	1.259130e+01
2.030000e-06	8.750610e-07	2.232832e-10	6.089142e+00	1.404607e+01
2.040000e-06	9.211497e-07	2.461238e-10	6.409851e+00	1.549978e+01
2.050000e-06	9.671042e-07	2.671494e-10	6.729628e+00	1.695109e+01
2.060000e-06	1.013017e-06	2.862314e-10	7.049114e+00	1.839871e+01
2.070000e-06	1.058904e-06	3.035900e-10	7.368421e+00	1.984132e+01
2.080000e-06	1.104711e-06	3.216960e-10	7.687170e+00	2.127767e+01
2.090000e-06	1.150431e-06	3.410993e-10	8.005310e+00	2.270648e+01
2.100000e-06	1.196171e-06	3.625852e-10	8.323596e+00	2.412654e+01
2.110000e-06	1.241818e-06	3.833931e-10	8.641230e+00	2.553667e+01
2.120000e-06	1.287271e-06	4.043937e-10	8.957516e+00	2.693571e+01
2.130000e-06	1.332635e-06	4.257464e-10	9.273183e+00	2.832255e+01
2.140000e-06	1.377935e-06	4.461997e-10	9.588409e+00	2.969614e+01
2.150000e-06	1.423169e-06	4.651347e-10	9.903168e+00	3.105546e+01
2.160000e-06	1.468238e-06	4.837954e-10	1.021679e+01	3.239956e+01
2.170000e-06	1.513165e-06	5.015136e-10	1.052941e+01	3.372755e+01
2.180000e-06	1.558078e-06	5.212453e-10	1.084194e+01	3.503857e+01
2.190000e-06	1.602920e-06	5.403429e-10	1.115398e+01	3.633186e+01
2.200000e-06	1.647569e-06	5.580465e-10	1.146466e+01	3.760670e+01
2.210000e-06	1.692025e-06	5.744341e-10	1.177402e+01	3.886243e+01
2.220000e-06	1.736397e-06	5.895997e-10	1.208278e+01	4.009847e+01
2.230000e-06	1.780678e-06	6.069250e-10	1.239091e+01	4.131430e+01
2.240000e-06	1.824740e-06	6.236127e-10	1.269751e+01	4.250947e+01
2.250000e-06	1.868662e-06	6.399471e-10	1.300315e+01	4.368357e+01
2.260000e-06	1.912535e-06	6.550694e-10	1.330844e+01	4.483628e+01
2.270000e-06	1.956321e-06	6.719952e-10	1.361312e+01	4.596733e+01
2.280000e-06	2.000028e-06	6.886568e-10	1.391726e+01	4.707654e+01
2.290000e-06	2.043696e-06	7.048277e-10	1.422113e+01	4.816374e+01
2.300000e-06	2.087331e-06	7.203565e-10	1.452476e+01	4.922885e+01
2.310000e-06	2.130910e-06	7.336544e-10	1.482801e+01	5.027184e+01
2.320000e-06	2.174408e-06	7.471494e-10	1.513069e+01	5.129273e+01
2.330000e-06	2.217824e-06	7.606612e-10	1.543280e+01	5.229159e+01
2.340000e-06	2.261204e-06	7.753501e-10	1.573467e+01	5.326854e+01
2.350000e-06	2.304365e-06	7.937599e-10	1.603500e+01	5.422373e+01
2.360000e-06	2.347191e-06	8.145842e-10	1.633301e+01	5.515736e+01
2.370000e-06	2.389771e-06	8.308408e-10	1.662930e+01	5.606967e+01
2.380000e-06	2.432054e-06	8.425295e-10	1.692353e+01	5.696092e+01
2.390000e-06	2.474052e-06	8.518159e-10	1.721578e+01	5.783142e+01
2.400000e-06	2.515756e-06	8.598151e-10	1.750598e+01	5.868148e+01
2.410000e-06	2.557110e-06	8.679792e-10	1.779374e+01	5.951144e+01
2.420000e-06	2.598146e-06	8.794036e-10	1.807929e+01	6.032168e+01
2.430000e-06	2.638836e-06	8.949005e-10	1.836243e+01	6.111257e+01
2.440000e-06	2.679221e-06	9.117625e-10	1.864345e+01	6.188451e+01
2.450000e-06	2.719419e-06	9.254751e-10	1.892317e+01	6.263788e+01
2.460000e-06	2.759431e-06	9.341389e-10	1.920160e+01	6.337311e+01
2.470000e-06	2.799315e-06	9.402936e-10	1.947913e+01	6.409060e+01
2.480000e-06	2.839077e-06	9.466583e-10	1.975581e+01	6.479075e+01
2.490000e-06	2.878725e-06	9.547401e-10	2.003170e+01	6.547399e+01
2.500000e-06	2.918307e-06	9.637012e-10	2.030714e+01	6.614072e+01
2.510000e-06	2.957779e-06	9.756996e-10	2.058180e+01	6.679135e+01
2.520000e-06	2.997123e-06	9.894850e-10	2.085558e+01	6.742625e+01
2.530000e-06	3.036283e-06	9.998251e-10	2.112808e+01	6.804583e+01
2.540000e-06	3.075251e-06	1.006445e-09	2.139924e+01	6.865046e+01
2.550000e-06	3.113922e-06	1.011729e-09	2.166833e+01	6.924051e+01
2.560000e-06	3.152206e-06	1.017190e-09	2.193473e+01	6.981633e+01
2.570000e-06	3.190256e-06	1.023747e-09	2.219951e+01	7.037826e+01
2.580000e-06	3.228219e-06	1.031760e-09	2.246367e+01	7.092665e+01
2.590000e-06	3.265984e-06	1.040959e-09	2.272646e+01	7.146180e+01
2.600000e-06	3.303509e-06	1.050423e-09	2.298758e+01	7.198402e+01
2.610000e-06	3.340882e-06	1.056807e-09	2.324764e+01	7.249362e+01
2.620000e-06	3.377993e-06	1.060109e-09	2.350588e+01	7.299087e+01
2.630000e-06	3.414749e-06	1.063394e-09	2.376165e+01	7.347605e+01
2.640000e-06	3.451214e-06	1.069572e-09	2.401539e+01	7.394943e+01
2.650000e-06	3.487397e-06	1.077623e-09	2.426717e+01	7.441125e+01
2.660000e-06	3.523347e-06	1.085286e-09	2.451733e+01	7.486176e+01
2.670000e-06	3.559156e-06	1.092204e-09	2.476651e+01	7.530120e+01
2.680000e-06	3.594840e-06	1.098751e-09	2.501482e+01	7.572979e+01
2.690000e-06	3.630431e-06	1.104555e-09	2.526248e+01	7.614776e+01
2.700000e-06	3.665943e-06	1.107749e-09	2.550959e+01	7.655533e+01
2.710000e-06	3.701304e-06	1.108582e-09	2.575565e+01	7.695271e+01
2.720000e-06	3.736471e-06	1.111757e-09	2.600036e+01	7.734011e+01
2.730000e-06	3.771348e-06	1.118203e-09	2.624305e+01	7.771773e+01
2.740000e-06	3.805756e-06	1.125960e-09	2.648248e+01	7.808578e+01
2.750000e-06	3.839676e-06	1.133058e-09	2.671852e+01	7.844445e+01
2.760000e-06	3.873155e-06	1.139102e-09	2.695148e+01	7.879396e+01
2.770000e-06	3.906140e-06	1.144410e-09	2.718101e+01	7.913450e+01
2.780000e-06	3.938636e-06	1.149407e-09	2.740713e+01	7.946626e+01
2.790000e-06	3.970775e-06	1.154502e-09	2.763077e+01	7.978945e+01
2.800000e-06	4.002652e-06	1.157966e-09	2.785259e+01	8.010427e+01
2.810000e-06	4.034356e-06	1.160791e-09	2.807320e+01	8.041091e+01
2.820000e-06	4.065934e-06	1.165771e-09	2.829294e+01	8.070957e+01
2.830000e-06	4.097352e-06	1.172790e-09	2.851156e+01	8.100045e+01
2.840000e-06	4.128544e-06	1.182165e-09	2.872861e+01	8.128374e+01
2.850000e-06	4.159404e-06	1.192750e-09	2.894335e+01	8.155964e+01
2.860000e-06	4.189915e-06	1.200652e-09	2.915567e+01	8.182834e+01
2.870000e-06	4.220145e-06	1.204697e-09	2.936603e+01	8.209003e+01
2.880000e-06	4.250101e-06	1.205447e-09	2.957447e+01	8.234490e+01
2.890000e-06	4.279785e-06	1.207139e-09	2.978103e+01	8.259314e+01
2.900000e-06	4.309183e-06	1.211273e-09	2.998560e+01	8.283491e+01
