# Temperatura_=_-10.6
# Concentracion g/m^3_=_1620.0
# C_Vs_to_Am_M_A/Vsm_=_65563218390.804596
# pendiente_HvsI_1/m_=_3716.3
# ordenada_HvsI_A/m_=_1297.0
# frecuencia_Hz_=_135107.34645521507

Tiempo_(s)	Campo_(V.s)	Magnetizacion_(V.s)	Campo_(kA/m)	Magnetizacion_(A/m)
0.000000e+00	-5.498559e-06	-5.638317e-10	-3.836597e+01	-3.833632e+01
1.000000e-08	-5.498716e-06	-5.628604e-10	-3.836707e+01	-3.832387e+01
2.000000e-08	-5.498521e-06	-5.631732e-10	-3.836571e+01	-3.831681e+01
3.000000e-08	-5.497944e-06	-5.610863e-10	-3.836168e+01	-3.831515e+01
4.000000e-08	-5.496832e-06	-5.540252e-10	-3.835392e+01	-3.831885e+01
5.000000e-08	-5.495056e-06	-5.438676e-10	-3.834153e+01	-3.832784e+01
6.000000e-08	-5.492647e-06	-5.426598e-10	-3.832472e+01	-3.834204e+01
7.000000e-08	-5.489667e-06	-5.508140e-10	-3.830393e+01	-3.836131e+01
8.000000e-08	-5.486280e-06	-5.667694e-10	-3.828030e+01	-3.838548e+01
9.000000e-08	-5.482521e-06	-6.244674e-10	-3.825406e+01	-3.841436e+01
1.000000e-07	-5.478330e-06	-6.558379e-10	-3.822482e+01	-3.844771e+01
1.100000e-07	-5.473786e-06	-5.576950e-10	-3.819312e+01	-3.848528e+01
1.200000e-07	-5.469072e-06	-4.396437e-10	-3.816022e+01	-3.852679e+01
1.300000e-07	-5.464152e-06	-4.956657e-10	-3.812589e+01	-3.857191e+01
1.400000e-07	-5.458875e-06	-6.059836e-10	-3.808908e+01	-3.862032e+01
1.500000e-07	-5.453183e-06	-5.616644e-10	-3.804936e+01	-3.867165e+01
1.600000e-07	-5.447093e-06	-4.647548e-10	-3.800687e+01	-3.872553e+01
1.700000e-07	-5.440674e-06	-5.354690e-10	-3.796208e+01	-3.878155e+01
1.800000e-07	-5.433858e-06	-6.886648e-10	-3.791452e+01	-3.883931e+01
1.900000e-07	-5.426619e-06	-6.201186e-10	-3.786401e+01	-3.889839e+01
2.000000e-07	-5.419146e-06	-4.921212e-10	-3.781187e+01	-3.895835e+01
2.100000e-07	-5.411449e-06	-4.959427e-10	-3.775817e+01	-3.901875e+01
2.200000e-07	-5.403436e-06	-6.328421e-10	-3.770225e+01	-3.907917e+01
2.300000e-07	-5.395118e-06	-6.352986e-10	-3.764421e+01	-3.913916e+01
2.400000e-07	-5.386373e-06	-5.825815e-10	-3.758320e+01	-3.919829e+01
2.500000e-07	-5.376923e-06	-5.828949e-10	-3.751726e+01	-3.925613e+01
2.600000e-07	-5.366664e-06	-6.283082e-10	-3.744568e+01	-3.931226e+01
2.700000e-07	-5.355822e-06	-6.035528e-10	-3.737003e+01	-3.936629e+01
2.800000e-07	-5.344530e-06	-5.711762e-10	-3.729124e+01	-3.941782e+01
2.900000e-07	-5.332825e-06	-5.937578e-10	-3.720957e+01	-3.946648e+01
3.000000e-07	-5.320792e-06	-6.183251e-10	-3.712560e+01	-3.951192e+01
3.100000e-07	-5.308376e-06	-6.160713e-10	-3.703898e+01	-3.955383e+01
3.200000e-07	-5.295521e-06	-5.970002e-10	-3.694928e+01	-3.959189e+01
3.300000e-07	-5.282237e-06	-6.110924e-10	-3.685659e+01	-3.962584e+01
3.400000e-07	-5.268562e-06	-6.196556e-10	-3.676117e+01	-3.965543e+01
3.500000e-07	-5.254498e-06	-6.218020e-10	-3.666305e+01	-3.968046e+01
3.600000e-07	-5.239965e-06	-5.877129e-10	-3.656164e+01	-3.970073e+01
3.700000e-07	-5.224993e-06	-6.132796e-10	-3.645718e+01	-3.971610e+01
3.800000e-07	-5.209576e-06	-6.388992e-10	-3.634960e+01	-3.972645e+01
3.900000e-07	-5.193579e-06	-6.137170e-10	-3.623799e+01	-3.973171e+01
4.000000e-07	-5.177109e-06	-5.778723e-10	-3.612307e+01	-3.973182e+01
4.100000e-07	-5.160342e-06	-6.379511e-10	-3.600608e+01	-3.972677e+01
4.200000e-07	-5.143248e-06	-6.324417e-10	-3.588680e+01	-3.971658e+01
4.300000e-07	-5.125869e-06	-5.701582e-10	-3.576554e+01	-3.970130e+01
4.400000e-07	-5.108220e-06	-6.058203e-10	-3.564240e+01	-3.968101e+01
4.500000e-07	-5.090206e-06	-6.830371e-10	-3.551670e+01	-3.965582e+01
4.600000e-07	-5.071708e-06	-6.010349e-10	-3.538764e+01	-3.962587e+01
4.700000e-07	-5.052771e-06	-5.591265e-10	-3.525550e+01	-3.959133e+01
4.800000e-07	-5.033513e-06	-6.448164e-10	-3.512113e+01	-3.955239e+01
4.900000e-07	-5.013969e-06	-6.445482e-10	-3.498476e+01	-3.950927e+01
5.000000e-07	-4.994204e-06	-5.571115e-10	-3.484685e+01	-3.946219e+01
5.100000e-07	-4.974233e-06	-6.078191e-10	-3.470751e+01	-3.941142e+01
5.200000e-07	-4.953983e-06	-6.485580e-10	-3.456621e+01	-3.935722e+01
5.300000e-07	-4.933359e-06	-5.810631e-10	-3.442231e+01	-3.929987e+01
5.400000e-07	-4.912364e-06	-5.963844e-10	-3.427582e+01	-3.923967e+01
5.500000e-07	-4.891046e-06	-6.594991e-10	-3.412707e+01	-3.917690e+01
5.600000e-07	-4.869347e-06	-5.902515e-10	-3.397567e+01	-3.911188e+01
5.700000e-07	-4.847310e-06	-5.532884e-10	-3.382191e+01	-3.904490e+01
5.800000e-07	-4.824920e-06	-6.335951e-10	-3.366568e+01	-3.897628e+01
5.900000e-07	-4.802090e-06	-6.264725e-10	-3.350638e+01	-3.890632e+01
6.000000e-07	-4.778926e-06	-5.672384e-10	-3.334476e+01	-3.883530e+01
6.100000e-07	-4.755502e-06	-6.045950e-10	-3.318132e+01	-3.876351e+01
6.200000e-07	-4.731871e-06	-6.242571e-10	-3.301643e+01	-3.869123e+01
6.300000e-07	-4.708080e-06	-5.675988e-10	-3.285043e+01	-3.861871e+01
6.400000e-07	-4.684057e-06	-5.803019e-10	-3.268282e+01	-3.854621e+01
6.500000e-07	-4.659696e-06	-6.118067e-10	-3.251284e+01	-3.847395e+01
6.600000e-07	-4.634908e-06	-5.866374e-10	-3.233988e+01	-3.840214e+01
6.700000e-07	-4.609594e-06	-5.816149e-10	-3.216326e+01	-3.833097e+01
6.800000e-07	-4.583627e-06	-6.142930e-10	-3.198207e+01	-3.826061e+01
6.900000e-07	-4.557066e-06	-5.958133e-10	-3.179674e+01	-3.819120e+01
7.000000e-07	-4.530100e-06	-5.802317e-10	-3.160859e+01	-3.812286e+01
7.100000e-07	-4.502831e-06	-5.931767e-10	-3.141832e+01	-3.805568e+01
7.200000e-07	-4.475349e-06	-5.929079e-10	-3.122656e+01	-3.798974e+01
7.300000e-07	-4.447687e-06	-5.767994e-10	-3.103355e+01	-3.792509e+01
7.400000e-07	-4.419877e-06	-5.922358e-10	-3.083951e+01	-3.786174e+01
7.500000e-07	-4.391887e-06	-5.948358e-10	-3.064421e+01	-3.779969e+01
7.600000e-07	-4.363591e-06	-5.844989e-10	-3.044678e+01	-3.773891e+01
7.700000e-07	-4.334931e-06	-5.795757e-10	-3.024680e+01	-3.767936e+01
7.800000e-07	-4.305910e-06	-5.815608e-10	-3.004431e+01	-3.762096e+01
7.900000e-07	-4.276527e-06	-5.742014e-10	-2.983929e+01	-3.756361e+01
8.000000e-07	-4.246882e-06	-5.780176e-10	-2.963244e+01	-3.750720e+01
8.100000e-07	-4.217065e-06	-5.780764e-10	-2.942439e+01	-3.745160e+01
8.200000e-07	-4.186964e-06	-5.687174e-10	-2.921437e+01	-3.739665e+01
8.300000e-07	-4.156545e-06	-5.661181e-10	-2.900212e+01	-3.734219e+01
8.400000e-07	-4.125844e-06	-5.729860e-10	-2.878791e+01	-3.728804e+01
8.500000e-07	-4.094755e-06	-5.668411e-10	-2.857099e+01	-3.723401e+01
8.600000e-07	-4.063382e-06	-5.582106e-10	-2.835208e+01	-3.717988e+01
8.700000e-07	-4.031881e-06	-5.620627e-10	-2.813228e+01	-3.712546e+01
8.800000e-07	-4.000223e-06	-5.619735e-10	-2.791139e+01	-3.707053e+01
8.900000e-07	-3.968420e-06	-5.557193e-10	-2.768949e+01	-3.701485e+01
9.000000e-07	-3.936403e-06	-5.559163e-10	-2.746609e+01	-3.695821e+01
9.100000e-07	-3.904040e-06	-5.558618e-10	-2.724028e+01	-3.690039e+01
9.200000e-07	-3.871373e-06	-5.444825e-10	-2.701235e+01	-3.684116e+01
9.300000e-07	-3.838430e-06	-5.434588e-10	-2.678249e+01	-3.678029e+01
9.400000e-07	-3.805025e-06	-5.480449e-10	-2.654941e+01	-3.671758e+01
9.500000e-07	-3.771065e-06	-5.467480e-10	-2.631245e+01	-3.665282e+01
9.600000e-07	-3.736559e-06	-5.404048e-10	-2.607169e+01	-3.658579e+01
9.700000e-07	-3.701668e-06	-5.445840e-10	-2.582823e+01	-3.651631e+01
9.800000e-07	-3.666517e-06	-5.427915e-10	-2.558297e+01	-3.644419e+01
9.900000e-07	-3.631127e-06	-5.391310e-10	-2.533604e+01	-3.636927e+01
1.000000e-06	-3.595610e-06	-5.369910e-10	-2.508822e+01	-3.629137e+01
1.010000e-06	-3.559958e-06	-5.368204e-10	-2.483946e+01	-3.621036e+01
1.020000e-06	-3.524132e-06	-5.300853e-10	-2.458949e+01	-3.612609e+01
1.030000e-06	-3.488139e-06	-5.300965e-10	-2.433834e+01	-3.603845e+01
1.040000e-06	-3.451989e-06	-5.346164e-10	-2.408611e+01	-3.594733e+01
1.050000e-06	-3.415602e-06	-5.354255e-10	-2.383223e+01	-3.585264e+01
1.060000e-06	-3.378927e-06	-5.309149e-10	-2.357632e+01	-3.575429e+01
1.070000e-06	-3.341951e-06	-5.300956e-10	-2.331832e+01	-3.565221e+01
1.080000e-06	-3.304680e-06	-5.245968e-10	-2.305827e+01	-3.554636e+01
1.090000e-06	-3.267195e-06	-5.171032e-10	-2.279672e+01	-3.543670e+01
1.100000e-06	-3.229514e-06	-5.131000e-10	-2.253380e+01	-3.532318e+01
1.110000e-06	-3.191636e-06	-5.141175e-10	-2.226951e+01	-3.520580e+01
1.120000e-06	-3.153505e-06	-5.143875e-10	-2.200345e+01	-3.508454e+01
1.130000e-06	-3.115107e-06	-5.160888e-10	-2.173553e+01	-3.495941e+01
1.140000e-06	-3.076548e-06	-5.176306e-10	-2.146649e+01	-3.483041e+01
1.150000e-06	-3.037769e-06	-5.135191e-10	-2.119591e+01	-3.469756e+01
1.160000e-06	-2.998744e-06	-5.046913e-10	-2.092361e+01	-3.456087e+01
1.170000e-06	-2.959509e-06	-4.968018e-10	-2.064985e+01	-3.442037e+01
1.180000e-06	-2.920120e-06	-4.947913e-10	-2.037502e+01	-3.427609e+01
1.190000e-06	-2.880644e-06	-4.952938e-10	-2.009957e+01	-3.412805e+01
1.200000e-06	-2.841001e-06	-4.979009e-10	-1.982297e+01	-3.397628e+01
1.210000e-06	-2.801206e-06	-5.004018e-10	-1.954530e+01	-3.382080e+01
1.220000e-06	-2.761300e-06	-5.017106e-10	-1.926685e+01	-3.366165e+01
1.230000e-06	-2.721250e-06	-4.993927e-10	-1.898741e+01	-3.349883e+01
1.240000e-06	-2.680982e-06	-4.949587e-10	-1.870644e+01	-3.333236e+01
1.250000e-06	-2.640535e-06	-4.870519e-10	-1.842423e+01	-3.316226e+01
1.260000e-06	-2.599890e-06	-4.823404e-10	-1.814063e+01	-3.298850e+01
1.270000e-06	-2.558923e-06	-4.790675e-10	-1.785478e+01	-3.281110e+01
1.280000e-06	-2.517726e-06	-4.803658e-10	-1.756733e+01	-3.263001e+01
1.290000e-06	-2.476278e-06	-4.826251e-10	-1.727813e+01	-3.244523e+01
1.300000e-06	-2.434459e-06	-4.829625e-10	-1.698634e+01	-3.225669e+01
1.310000e-06	-2.392319e-06	-4.794143e-10	-1.669231e+01	-3.206435e+01
1.320000e-06	-2.349975e-06	-4.742220e-10	-1.639685e+01	-3.186814e+01
1.330000e-06	-2.307429e-06	-4.671516e-10	-1.609999e+01	-3.166797e+01
1.340000e-06	-2.264683e-06	-4.626004e-10	-1.580173e+01	-3.146376e+01
1.350000e-06	-2.221681e-06	-4.596239e-10	-1.550168e+01	-3.125538e+01
1.360000e-06	-2.178372e-06	-4.572014e-10	-1.519950e+01	-3.104271e+01
1.370000e-06	-2.134953e-06	-4.554554e-10	-1.489655e+01	-3.082562e+01
1.380000e-06	-2.091458e-06	-4.561244e-10	-1.459306e+01	-3.060395e+01
1.390000e-06	-2.047818e-06	-4.566719e-10	-1.428857e+01	-3.037753e+01
1.400000e-06	-2.004087e-06	-4.537311e-10	-1.398343e+01	-3.014617e+01
1.410000e-06	-1.960330e-06	-4.481074e-10	-1.367812e+01	-2.990969e+01
1.420000e-06	-1.916528e-06	-4.432046e-10	-1.337249e+01	-2.966786e+01
1.430000e-06	-1.872616e-06	-4.379332e-10	-1.306610e+01	-2.942048e+01
1.440000e-06	-1.828579e-06	-4.336912e-10	-1.275883e+01	-2.916729e+01
1.450000e-06	-1.784435e-06	-4.309436e-10	-1.245082e+01	-2.890806e+01
1.460000e-06	-1.740253e-06	-4.273588e-10	-1.214255e+01	-2.864252e+01
1.470000e-06	-1.695965e-06	-4.214876e-10	-1.183353e+01	-2.837041e+01
1.480000e-06	-1.651525e-06	-4.148249e-10	-1.152345e+01	-2.809146e+01
1.490000e-06	-1.606984e-06	-4.091246e-10	-1.121267e+01	-2.780538e+01
1.500000e-06	-1.562275e-06	-4.018087e-10	-1.090071e+01	-2.751187e+01
1.510000e-06	-1.517389e-06	-3.959907e-10	-1.058752e+01	-2.721064e+01
1.520000e-06	-1.472324e-06	-3.911098e-10	-1.027308e+01	-2.690139e+01
1.530000e-06	-1.427176e-06	-3.838178e-10	-9.958060e+00	-2.658382e+01
1.540000e-06	-1.382052e-06	-3.742612e-10	-9.643215e+00	-2.625761e+01
1.550000e-06	-1.336922e-06	-3.663485e-10	-9.328322e+00	-2.592246e+01
1.560000e-06	-1.291658e-06	-3.594474e-10	-9.012493e+00	-2.557806e+01
1.570000e-06	-1.246200e-06	-3.534406e-10	-8.695307e+00	-2.522411e+01
1.580000e-06	-1.200673e-06	-3.490193e-10	-8.377649e+00	-2.486030e+01
1.590000e-06	-1.155070e-06	-3.450362e-10	-8.059454e+00	-2.448633e+01
1.600000e-06	-1.109342e-06	-3.400245e-10	-7.740387e+00	-2.410191e+01
1.610000e-06	-1.063530e-06	-3.355722e-10	-7.420739e+00	-2.370676e+01
1.620000e-06	-1.017640e-06	-3.300218e-10	-7.100542e+00	-2.330059e+01
1.630000e-06	-9.716892e-07	-3.255446e-10	-6.779922e+00	-2.288314e+01
1.640000e-06	-9.256815e-07	-3.201706e-10	-6.458905e+00	-2.245415e+01
1.650000e-06	-8.796782e-07	-3.116767e-10	-6.137918e+00	-2.201337e+01
1.660000e-06	-8.336130e-07	-3.033446e-10	-5.816501e+00	-2.156057e+01
1.670000e-06	-7.874252e-07	-2.955219e-10	-5.494227e+00	-2.109554e+01
1.680000e-06	-7.412028e-07	-2.866951e-10	-5.171712e+00	-2.061807e+01
1.690000e-06	-6.949851e-07	-2.789352e-10	-4.849230e+00	-2.012798e+01
1.700000e-06	-6.486971e-07	-2.718685e-10	-4.526258e+00	-1.962510e+01
1.710000e-06	-6.022773e-07	-2.656203e-10	-4.202365e+00	-1.910929e+01
1.720000e-06	-5.559344e-07	-2.582255e-10	-3.879009e+00	-1.858043e+01
1.730000e-06	-5.095812e-07	-2.487008e-10	-3.555582e+00	-1.803840e+01
1.740000e-06	-4.630542e-07	-2.399937e-10	-3.230942e+00	-1.748313e+01
1.750000e-06	-4.164892e-07	-2.333349e-10	-2.906036e+00	-1.691456e+01
1.760000e-06	-3.699201e-07	-2.274279e-10	-2.581102e+00	-1.633267e+01
1.770000e-06	-3.233349e-07	-2.219316e-10	-2.256056e+00	-1.573744e+01
1.780000e-06	-2.767412e-07	-2.148467e-10	-1.930950e+00	-1.512890e+01
1.790000e-06	-2.301419e-07	-2.055927e-10	-1.605805e+00	-1.450709e+01
1.800000e-06	-1.835481e-07	-1.947166e-10	-1.280700e+00	-1.387211e+01
1.810000e-06	-1.369433e-07	-1.829386e-10	-9.555160e-01	-1.322404e+01
1.820000e-06	-9.033390e-08	-1.746436e-10	-6.303011e-01	-1.256303e+01
1.830000e-06	-4.372347e-08	-1.693839e-10	-3.050787e-01	-1.188925e+01
1.840000e-06	2.890563e-09	-1.631600e-10	2.016878e-02	-1.120289e+01
1.850000e-06	4.949788e-08	-1.537330e-10	3.453694e-01	-1.050419e+01
1.860000e-06	9.610566e-08	-1.430547e-10	6.705733e-01	-9.793393e+00
1.870000e-06	1.427353e-07	-1.311954e-10	9.959300e-01	-9.070803e+00
1.880000e-06	1.893927e-07	-1.184862e-10	1.321480e+00	-8.336740e+00
1.890000e-06	2.360557e-07	-1.051094e-10	1.647069e+00	-7.591558e+00
1.900000e-06	2.827191e-07	-9.382475e-11	1.972661e+00	-6.835644e+00
1.910000e-06	3.293197e-07	-8.521274e-11	2.297815e+00	-6.069415e+00
1.920000e-06	3.758877e-07	-7.684586e-11	2.622741e+00	-5.293318e+00
1.930000e-06	4.224097e-07	-6.699008e-11	2.947346e+00	-4.507831e+00
1.940000e-06	4.688986e-07	-5.536216e-11	3.271721e+00	-3.713461e+00
1.950000e-06	5.154040e-07	-4.190537e-11	3.596211e+00	-2.910743e+00
1.960000e-06	5.618071e-07	-2.779647e-11	3.919986e+00	-2.100240e+00
1.970000e-06	6.081614e-07	-1.569727e-11	4.243421e+00	-1.282542e+00
1.980000e-06	6.544897e-07	-5.671062e-12	4.566675e+00	-4.582629e-01
1.990000e-06	7.007192e-07	4.196630e-12	4.889239e+00	3.719579e-01
2.000000e-06	7.468709e-07	1.248721e-11	5.211261e+00	1.207460e+00
2.010000e-06	7.929741e-07	2.374876e-11	5.532944e+00	2.047561e+00
2.020000e-06	8.390497e-07	3.916636e-11	5.854435e+00	2.891561e+00
2.030000e-06	8.850724e-07	5.409635e-11	6.175556e+00	3.738741e+00
2.040000e-06	9.309947e-07	6.468931e-11	6.495977e+00	4.588370e+00
2.050000e-06	9.768710e-07	7.469422e-11	6.816077e+00	5.439699e+00
2.060000e-06	1.022727e-06	8.471041e-11	7.136034e+00	6.291973e+00
2.070000e-06	1.068551e-06	9.464870e-11	7.455772e+00	7.144425e+00
2.080000e-06	1.114325e-06	1.071797e-10	7.775158e+00	7.996283e+00
2.090000e-06	1.159973e-06	1.223860e-10	8.093664e+00	8.846771e+00
2.100000e-06	1.205480e-06	1.376758e-10	8.411185e+00	9.695111e+00
2.110000e-06	1.250879e-06	1.473563e-10	8.727955e+00	1.054053e+01
2.120000e-06	1.296212e-06	1.564977e-10	9.044265e+00	1.138224e+01
2.130000e-06	1.341515e-06	1.672176e-10	9.360369e+00	1.221949e+01
2.140000e-06	1.386729e-06	1.796611e-10	9.675843e+00	1.305152e+01
2.150000e-06	1.431796e-06	1.921391e-10	9.990298e+00	1.387757e+01
2.160000e-06	1.476733e-06	2.070964e-10	1.030384e+01	1.469692e+01
2.170000e-06	1.521615e-06	2.220969e-10	1.061700e+01	1.550884e+01
2.180000e-06	1.566406e-06	2.359619e-10	1.092953e+01	1.631264e+01
2.190000e-06	1.611034e-06	2.443409e-10	1.124092e+01	1.710763e+01
2.200000e-06	1.655544e-06	2.499978e-10	1.155149e+01	1.789315e+01
2.210000e-06	1.699939e-06	2.566918e-10	1.186125e+01	1.866858e+01
2.220000e-06	1.744182e-06	2.651055e-10	1.216996e+01	1.943331e+01
2.230000e-06	1.788294e-06	2.776804e-10	1.247775e+01	2.018676e+01
2.240000e-06	1.832346e-06	2.907592e-10	1.278512e+01	2.092838e+01
2.250000e-06	1.876301e-06	3.022957e-10	1.309181e+01	2.165767e+01
2.260000e-06	1.920097e-06	3.095647e-10	1.339740e+01	2.237413e+01
2.270000e-06	1.963809e-06	3.174760e-10	1.370240e+01	2.307732e+01
2.280000e-06	2.007467e-06	3.262478e-10	1.400702e+01	2.376684e+01
2.290000e-06	2.051067e-06	3.367443e-10	1.431124e+01	2.444229e+01
2.300000e-06	2.094602e-06	3.480621e-10	1.461500e+01	2.510335e+01
2.310000e-06	2.138014e-06	3.579985e-10	1.491790e+01	2.574972e+01
2.320000e-06	2.181347e-06	3.689069e-10	1.522026e+01	2.638112e+01
2.330000e-06	2.224590e-06	3.792167e-10	1.552199e+01	2.699733e+01
2.340000e-06	2.267655e-06	3.874333e-10	1.582247e+01	2.759818e+01
2.350000e-06	2.310569e-06	3.978390e-10	1.612190e+01	2.818349e+01
2.360000e-06	2.353255e-06	4.079088e-10	1.641974e+01	2.875317e+01
2.370000e-06	2.395648e-06	4.146774e-10	1.671554e+01	2.930713e+01
2.380000e-06	2.437734e-06	4.181007e-10	1.700919e+01	2.984533e+01
2.390000e-06	2.479483e-06	4.232246e-10	1.730049e+01	3.036776e+01
2.400000e-06	2.520876e-06	4.291173e-10	1.758931e+01	3.087444e+01
2.410000e-06	2.561933e-06	4.356682e-10	1.787578e+01	3.136544e+01
2.420000e-06	2.602757e-06	4.452087e-10	1.816063e+01	3.184084e+01
2.430000e-06	2.643316e-06	4.556134e-10	1.844363e+01	3.230075e+01
2.440000e-06	2.683522e-06	4.631921e-10	1.872417e+01	3.274532e+01
2.450000e-06	2.723536e-06	4.682612e-10	1.900336e+01	3.317473e+01
2.460000e-06	2.763471e-06	4.766772e-10	1.928201e+01	3.358915e+01
2.470000e-06	2.803273e-06	4.857554e-10	1.955972e+01	3.398880e+01
2.480000e-06	2.842996e-06	4.907044e-10	1.983689e+01	3.437393e+01
2.490000e-06	2.882596e-06	4.943222e-10	2.011319e+01	3.474478e+01
2.500000e-06	2.921996e-06	4.977053e-10	2.038811e+01	3.510161e+01
2.510000e-06	2.961254e-06	5.019698e-10	2.066203e+01	3.544472e+01
2.520000e-06	3.000358e-06	5.079902e-10	2.093487e+01	3.577440e+01
2.530000e-06	3.039209e-06	5.154656e-10	2.120596e+01	3.609095e+01
2.540000e-06	3.077826e-06	5.235411e-10	2.147540e+01	3.639468e+01
2.550000e-06	3.116274e-06	5.270651e-10	2.174367e+01	3.668592e+01
2.560000e-06	3.154494e-06	5.291052e-10	2.201035e+01	3.696499e+01
2.570000e-06	3.192431e-06	5.300546e-10	2.227506e+01	3.723222e+01
2.580000e-06	3.230120e-06	5.312818e-10	2.253803e+01	3.748794e+01
2.590000e-06	3.267650e-06	5.351504e-10	2.279990e+01	3.773248e+01
2.600000e-06	3.305061e-06	5.417169e-10	2.306093e+01	3.796617e+01
2.610000e-06	3.342283e-06	5.465478e-10	2.332064e+01	3.818934e+01
2.620000e-06	3.379253e-06	5.483046e-10	2.357860e+01	3.840232e+01
2.630000e-06	3.415872e-06	5.492848e-10	2.383411e+01	3.860542e+01
2.640000e-06	3.452159e-06	5.502562e-10	2.408730e+01	3.879897e+01
2.650000e-06	3.488247e-06	5.522947e-10	2.433910e+01	3.898326e+01
2.660000e-06	3.524163e-06	5.559489e-10	2.458970e+01	3.915861e+01
2.670000e-06	3.559902e-06	5.589757e-10	2.483907e+01	3.932531e+01
2.680000e-06	3.595512e-06	5.634224e-10	2.508754e+01	3.948365e+01
2.690000e-06	3.631009e-06	5.684989e-10	2.533522e+01	3.963392e+01
2.700000e-06	3.666413e-06	5.710082e-10	2.558224e+01	3.977639e+01
2.710000e-06	3.701671e-06	5.712681e-10	2.582826e+01	3.991133e+01
2.720000e-06	3.736550e-06	5.719426e-10	2.607163e+01	4.003899e+01
2.730000e-06	3.770965e-06	5.739082e-10	2.631176e+01	4.015963e+01
2.740000e-06	3.805038e-06	5.752171e-10	2.654950e+01	4.027350e+01
2.750000e-06	3.838646e-06	5.754874e-10	2.678399e+01	4.038083e+01
2.760000e-06	3.871615e-06	5.769242e-10	2.701403e+01	4.048185e+01
2.770000e-06	3.904142e-06	5.802657e-10	2.724099e+01	4.057680e+01
2.780000e-06	3.936444e-06	5.836871e-10	2.746638e+01	4.066589e+01
2.790000e-06	3.968519e-06	5.859585e-10	2.769018e+01	4.074932e+01
2.800000e-06	4.000368e-06	5.867629e-10	2.791240e+01	4.082732e+01
2.810000e-06	4.032047e-06	5.858198e-10	2.813344e+01	4.090008e+01
2.820000e-06	4.063562e-06	5.842285e-10	2.835334e+01	4.096781e+01
2.830000e-06	4.094804e-06	5.858920e-10	2.857132e+01	4.103069e+01
2.840000e-06	4.125755e-06	5.891517e-10	2.878728e+01	4.108891e+01
2.850000e-06	4.156512e-06	5.938536e-10	2.900189e+01	4.114267e+01
2.860000e-06	4.187045e-06	5.976136e-10	2.921493e+01	4.119214e+01
2.870000e-06	4.217186e-06	5.969797e-10	2.942524e+01	4.123751e+01
2.880000e-06	4.246941e-06	5.945297e-10	2.963286e+01	4.127895e+01
2.890000e-06	4.276412e-06	5.938119e-10	2.983849e+01	4.131663e+01
2.900000e-06	4.305621e-06	5.942070e-10	3.004229e+01	4.135071e+01
