# Temperatura_=_-0.53
# Concentracion g/m^3_=_1620.0
# C_Vs_to_Am_M_A/Vsm_=_65563218390.804596
# pendiente_HvsI_1/m_=_3716.3
# ordenada_HvsI_A/m_=_1297.0
# frecuencia_Hz_=_135096.04454446692

Tiempo_(s)	Campo_(V.s)	Magnetizacion_(V.s)	Campo_(kA/m)	Magnetizacion_(A/m)
0.000000e+00	-5.523046e-06	-1.353962e-09	-3.837596e+01	-9.030767e+01
1.000000e-08	-5.523326e-06	-1.353027e-09	-3.837790e+01	-9.026861e+01
2.000000e-08	-5.523286e-06	-1.353771e-09	-3.837762e+01	-9.023084e+01
3.000000e-08	-5.522808e-06	-1.354103e-09	-3.837430e+01	-9.019426e+01
4.000000e-08	-5.521859e-06	-1.349970e-09	-3.836771e+01	-9.015877e+01
5.000000e-08	-5.520341e-06	-1.337090e-09	-3.835716e+01	-9.012421e+01
6.000000e-08	-5.518196e-06	-1.318186e-09	-3.834225e+01	-9.009040e+01
7.000000e-08	-5.515484e-06	-1.321512e-09	-3.832341e+01	-9.005715e+01
8.000000e-08	-5.512305e-06	-1.382875e-09	-3.830132e+01	-9.002423e+01
9.000000e-08	-5.508703e-06	-1.452017e-09	-3.827629e+01	-8.999140e+01
1.000000e-07	-5.504685e-06	-1.426610e-09	-3.824838e+01	-8.995840e+01
1.100000e-07	-5.500393e-06	-1.349898e-09	-3.821856e+01	-8.992495e+01
1.200000e-07	-5.495897e-06	-1.277927e-09	-3.818731e+01	-8.989077e+01
1.300000e-07	-5.491107e-06	-1.332636e-09	-3.815403e+01	-8.985555e+01
1.400000e-07	-5.485940e-06	-1.370907e-09	-3.811813e+01	-8.981898e+01
1.500000e-07	-5.480393e-06	-1.323871e-09	-3.807959e+01	-8.978076e+01
1.600000e-07	-5.474461e-06	-1.292827e-09	-3.803837e+01	-8.974056e+01
1.700000e-07	-5.468159e-06	-1.341656e-09	-3.799458e+01	-8.969808e+01
1.800000e-07	-5.461399e-06	-1.431697e-09	-3.794761e+01	-8.965300e+01
1.900000e-07	-5.454212e-06	-1.379852e-09	-3.789767e+01	-8.960501e+01
2.000000e-07	-5.446776e-06	-1.318213e-09	-3.784601e+01	-8.955382e+01
2.100000e-07	-5.439097e-06	-1.322753e-09	-3.779265e+01	-8.949913e+01
2.200000e-07	-5.431133e-06	-1.402888e-09	-3.773731e+01	-8.944066e+01
2.300000e-07	-5.422940e-06	-1.395184e-09	-3.768038e+01	-8.937817e+01
2.400000e-07	-5.414261e-06	-1.370077e-09	-3.762008e+01	-8.931138e+01
2.500000e-07	-5.404866e-06	-1.360135e-09	-3.755480e+01	-8.924008e+01
2.600000e-07	-5.394774e-06	-1.396628e-09	-3.748468e+01	-8.916404e+01
2.700000e-07	-5.384007e-06	-1.377751e-09	-3.740986e+01	-8.908309e+01
2.800000e-07	-5.372836e-06	-1.354676e-09	-3.733225e+01	-8.899702e+01
2.900000e-07	-5.361286e-06	-1.366247e-09	-3.725199e+01	-8.890571e+01
3.000000e-07	-5.349345e-06	-1.380165e-09	-3.716902e+01	-8.880900e+01
3.100000e-07	-5.336978e-06	-1.356258e-09	-3.708309e+01	-8.870679e+01
3.200000e-07	-5.324176e-06	-1.338575e-09	-3.699414e+01	-8.859899e+01
3.300000e-07	-5.311064e-06	-1.369580e-09	-3.690303e+01	-8.848551e+01
3.400000e-07	-5.297689e-06	-1.371419e-09	-3.681010e+01	-8.836631e+01
3.500000e-07	-5.283800e-06	-1.355561e-09	-3.671360e+01	-8.824135e+01
3.600000e-07	-5.269314e-06	-1.353008e-09	-3.661294e+01	-8.811062e+01
3.700000e-07	-5.254516e-06	-1.362250e-09	-3.651012e+01	-8.797411e+01
3.800000e-07	-5.239332e-06	-1.337314e-09	-3.640462e+01	-8.783183e+01
3.900000e-07	-5.223564e-06	-1.340173e-09	-3.629505e+01	-8.768383e+01
4.000000e-07	-5.207297e-06	-1.352287e-09	-3.618202e+01	-8.753013e+01
4.100000e-07	-5.190648e-06	-1.345506e-09	-3.606634e+01	-8.737080e+01
4.200000e-07	-5.173563e-06	-1.316134e-09	-3.594763e+01	-8.720589e+01
4.300000e-07	-5.156209e-06	-1.339853e-09	-3.582705e+01	-8.703548e+01
4.400000e-07	-5.138669e-06	-1.346050e-09	-3.570517e+01	-8.685964e+01
4.500000e-07	-5.120729e-06	-1.336430e-09	-3.558052e+01	-8.667846e+01
4.600000e-07	-5.102295e-06	-1.322115e-09	-3.545244e+01	-8.649201e+01
4.700000e-07	-5.083383e-06	-1.329335e-09	-3.532103e+01	-8.630040e+01
4.800000e-07	-5.064110e-06	-1.312000e-09	-3.518711e+01	-8.610370e+01
4.900000e-07	-5.044656e-06	-1.318703e-09	-3.505194e+01	-8.590200e+01
5.000000e-07	-5.025036e-06	-1.321922e-09	-3.491561e+01	-8.569539e+01
5.100000e-07	-5.005199e-06	-1.308413e-09	-3.477778e+01	-8.548396e+01
5.200000e-07	-4.985016e-06	-1.289959e-09	-3.463754e+01	-8.526777e+01
5.300000e-07	-4.964443e-06	-1.305788e-09	-3.449460e+01	-8.504691e+01
5.400000e-07	-4.943551e-06	-1.304477e-09	-3.434943e+01	-8.482144e+01
5.500000e-07	-4.922311e-06	-1.291591e-09	-3.420185e+01	-8.459143e+01
5.600000e-07	-4.900658e-06	-1.280404e-09	-3.405139e+01	-8.435694e+01
5.700000e-07	-4.878659e-06	-1.278288e-09	-3.389854e+01	-8.411801e+01
5.800000e-07	-4.856389e-06	-1.275129e-09	-3.374380e+01	-8.387469e+01
5.900000e-07	-4.833824e-06	-1.279807e-09	-3.358701e+01	-8.362703e+01
6.000000e-07	-4.810897e-06	-1.277119e-09	-3.342771e+01	-8.337505e+01
6.100000e-07	-4.787632e-06	-1.265288e-09	-3.326606e+01	-8.311878e+01
6.200000e-07	-4.764140e-06	-1.263882e-09	-3.310282e+01	-8.285825e+01
6.300000e-07	-4.740429e-06	-1.255685e-09	-3.293807e+01	-8.259348e+01
6.400000e-07	-4.716467e-06	-1.245461e-09	-3.277157e+01	-8.232447e+01
6.500000e-07	-4.692234e-06	-1.245078e-09	-3.260320e+01	-8.205125e+01
6.600000e-07	-4.667613e-06	-1.249818e-09	-3.243212e+01	-8.177383e+01
6.700000e-07	-4.642410e-06	-1.240158e-09	-3.225701e+01	-8.149221e+01
6.800000e-07	-4.616606e-06	-1.243304e-09	-3.207771e+01	-8.120641e+01
6.900000e-07	-4.590212e-06	-1.240306e-09	-3.189431e+01	-8.091643e+01
7.000000e-07	-4.563326e-06	-1.228970e-09	-3.170750e+01	-8.062229e+01
7.100000e-07	-4.536080e-06	-1.217986e-09	-3.151818e+01	-8.032401e+01
7.200000e-07	-4.508595e-06	-1.220635e-09	-3.132721e+01	-8.002159e+01
7.300000e-07	-4.480992e-06	-1.208494e-09	-3.113542e+01	-7.971507e+01
7.400000e-07	-4.453247e-06	-1.202968e-09	-3.094264e+01	-7.940447e+01
7.500000e-07	-4.425233e-06	-1.202102e-09	-3.074798e+01	-7.908981e+01
7.600000e-07	-4.396881e-06	-1.200250e-09	-3.055099e+01	-7.877115e+01
7.700000e-07	-4.368188e-06	-1.186139e-09	-3.035162e+01	-7.844851e+01
7.800000e-07	-4.339184e-06	-1.186926e-09	-3.015009e+01	-7.812196e+01
7.900000e-07	-4.309872e-06	-1.188088e-09	-2.994642e+01	-7.779154e+01
8.000000e-07	-4.280275e-06	-1.185952e-09	-2.974077e+01	-7.745732e+01
8.100000e-07	-4.250427e-06	-1.177951e-09	-2.953338e+01	-7.711936e+01
8.200000e-07	-4.220276e-06	-1.171093e-09	-2.932387e+01	-7.677774e+01
8.300000e-07	-4.189790e-06	-1.160289e-09	-2.911205e+01	-7.643253e+01
8.400000e-07	-4.159001e-06	-1.154267e-09	-2.889812e+01	-7.608382e+01
8.500000e-07	-4.127966e-06	-1.148324e-09	-2.868248e+01	-7.573169e+01
8.600000e-07	-4.096743e-06	-1.144475e-09	-2.846553e+01	-7.537624e+01
8.700000e-07	-4.065354e-06	-1.139043e-09	-2.824742e+01	-7.501754e+01
8.800000e-07	-4.033765e-06	-1.133384e-09	-2.802793e+01	-7.465570e+01
8.900000e-07	-4.001947e-06	-1.127642e-09	-2.780685e+01	-7.429081e+01
9.000000e-07	-3.969945e-06	-1.116901e-09	-2.758450e+01	-7.392294e+01
9.100000e-07	-3.937651e-06	-1.106284e-09	-2.736010e+01	-7.355220e+01
9.200000e-07	-3.904955e-06	-1.098376e-09	-2.713292e+01	-7.317866e+01
9.300000e-07	-3.871844e-06	-1.095503e-09	-2.690286e+01	-7.280240e+01
9.400000e-07	-3.838075e-06	-1.089892e-09	-2.666822e+01	-7.242348e+01
9.500000e-07	-3.803867e-06	-1.085486e-09	-2.643053e+01	-7.204198e+01
9.600000e-07	-3.769390e-06	-1.078109e-09	-2.619097e+01	-7.165795e+01
9.700000e-07	-3.734518e-06	-1.068440e-09	-2.594867e+01	-7.127142e+01
9.800000e-07	-3.699399e-06	-1.057156e-09	-2.570465e+01	-7.088244e+01
9.900000e-07	-3.664086e-06	-1.053998e-09	-2.545929e+01	-7.049101e+01
1.000000e-06	-3.628621e-06	-1.050213e-09	-2.521286e+01	-7.009715e+01
1.010000e-06	-3.593027e-06	-1.046545e-09	-2.496554e+01	-6.970084e+01
1.020000e-06	-3.557261e-06	-1.041529e-09	-2.471703e+01	-6.930207e+01
1.030000e-06	-3.521294e-06	-1.037588e-09	-2.446712e+01	-6.890080e+01
1.040000e-06	-3.485072e-06	-1.025750e-09	-2.421544e+01	-6.849697e+01
1.050000e-06	-3.448600e-06	-1.014529e-09	-2.396202e+01	-6.809052e+01
1.060000e-06	-3.411800e-06	-1.003727e-09	-2.370632e+01	-6.768135e+01
1.070000e-06	-3.374684e-06	-9.961564e-10	-2.344842e+01	-6.726938e+01
1.080000e-06	-3.337380e-06	-9.893599e-10	-2.318922e+01	-6.685449e+01
1.090000e-06	-3.299854e-06	-9.856096e-10	-2.292848e+01	-6.643654e+01
1.100000e-06	-3.262152e-06	-9.786266e-10	-2.266652e+01	-6.601540e+01
1.110000e-06	-3.224247e-06	-9.705702e-10	-2.240314e+01	-6.559091e+01
1.120000e-06	-3.186093e-06	-9.610318e-10	-2.213803e+01	-6.516290e+01
1.130000e-06	-3.147772e-06	-9.532183e-10	-2.187177e+01	-6.473120e+01
1.140000e-06	-3.109218e-06	-9.434926e-10	-2.160388e+01	-6.429561e+01
1.150000e-06	-3.070376e-06	-9.313522e-10	-2.133399e+01	-6.385594e+01
1.160000e-06	-3.031291e-06	-9.199391e-10	-2.106241e+01	-6.341198e+01
1.170000e-06	-2.991991e-06	-9.111852e-10	-2.078934e+01	-6.296353e+01
1.180000e-06	-2.952596e-06	-9.062302e-10	-2.051562e+01	-6.251036e+01
1.190000e-06	-2.913108e-06	-9.029727e-10	-2.024124e+01	-6.205227e+01
1.200000e-06	-2.873459e-06	-8.967562e-10	-1.996575e+01	-6.158904e+01
1.210000e-06	-2.833684e-06	-8.874521e-10	-1.968937e+01	-6.112044e+01
1.220000e-06	-2.793796e-06	-8.797045e-10	-1.941222e+01	-6.064626e+01
1.230000e-06	-2.753743e-06	-8.696654e-10	-1.913392e+01	-6.016629e+01
1.240000e-06	-2.713499e-06	-8.594175e-10	-1.885429e+01	-5.968031e+01
1.250000e-06	-2.673026e-06	-8.482173e-10	-1.857307e+01	-5.918813e+01
1.260000e-06	-2.632234e-06	-8.390983e-10	-1.828964e+01	-5.868953e+01
1.270000e-06	-2.591221e-06	-8.317954e-10	-1.800466e+01	-5.818434e+01
1.280000e-06	-2.549890e-06	-8.273191e-10	-1.771748e+01	-5.767237e+01
1.290000e-06	-2.508192e-06	-8.213149e-10	-1.742775e+01	-5.715343e+01
1.300000e-06	-2.466184e-06	-8.130276e-10	-1.713586e+01	-5.662736e+01
1.310000e-06	-2.423856e-06	-8.021729e-10	-1.684175e+01	-5.609401e+01
1.320000e-06	-2.381189e-06	-7.907638e-10	-1.654529e+01	-5.555321e+01
1.330000e-06	-2.338222e-06	-7.779312e-10	-1.624674e+01	-5.500482e+01
1.340000e-06	-2.295159e-06	-7.674352e-10	-1.594753e+01	-5.444871e+01
1.350000e-06	-2.251950e-06	-7.591776e-10	-1.564729e+01	-5.388475e+01
1.360000e-06	-2.208547e-06	-7.516533e-10	-1.534572e+01	-5.331280e+01
1.370000e-06	-2.165071e-06	-7.429020e-10	-1.504363e+01	-5.273276e+01
1.380000e-06	-2.121542e-06	-7.364727e-10	-1.474118e+01	-5.214449e+01
1.390000e-06	-2.077970e-06	-7.298104e-10	-1.443842e+01	-5.154788e+01
1.400000e-06	-2.034347e-06	-7.218367e-10	-1.413532e+01	-5.094283e+01
1.410000e-06	-1.990614e-06	-7.115595e-10	-1.383145e+01	-5.032920e+01
1.420000e-06	-1.946659e-06	-7.009985e-10	-1.352603e+01	-4.970687e+01
1.430000e-06	-1.902616e-06	-6.907494e-10	-1.322000e+01	-4.907572e+01
1.440000e-06	-1.858562e-06	-6.825321e-10	-1.291390e+01	-4.843562e+01
1.450000e-06	-1.814369e-06	-6.734486e-10	-1.260684e+01	-4.778641e+01
1.460000e-06	-1.770118e-06	-6.607651e-10	-1.229937e+01	-4.712794e+01
1.470000e-06	-1.725642e-06	-6.471713e-10	-1.199033e+01	-4.646005e+01
1.480000e-06	-1.680915e-06	-6.338066e-10	-1.167955e+01	-4.578254e+01
1.490000e-06	-1.636104e-06	-6.217178e-10	-1.136819e+01	-4.509522e+01
1.500000e-06	-1.591267e-06	-6.126079e-10	-1.105665e+01	-4.439787e+01
1.510000e-06	-1.546374e-06	-6.046889e-10	-1.074472e+01	-4.369025e+01
1.520000e-06	-1.501312e-06	-5.940224e-10	-1.043161e+01	-4.297209e+01
1.530000e-06	-1.456115e-06	-5.826267e-10	-1.011757e+01	-4.224313e+01
1.540000e-06	-1.410791e-06	-5.698609e-10	-9.802642e+00	-4.150304e+01
1.550000e-06	-1.365373e-06	-5.555648e-10	-9.487061e+00	-4.075152e+01
1.560000e-06	-1.319860e-06	-5.427658e-10	-9.170826e+00	-3.998821e+01
1.570000e-06	-1.274275e-06	-5.314343e-10	-8.854084e+00	-3.921274e+01
1.580000e-06	-1.228701e-06	-5.198641e-10	-8.537424e+00	-3.842472e+01
1.590000e-06	-1.183063e-06	-5.093504e-10	-8.220312e+00	-3.762373e+01
1.600000e-06	-1.137354e-06	-4.989225e-10	-7.902711e+00	-3.680934e+01
1.610000e-06	-1.091573e-06	-4.863286e-10	-7.584611e+00	-3.598111e+01
1.620000e-06	-1.045609e-06	-4.714334e-10	-7.265239e+00	-3.513857e+01
1.630000e-06	-9.995387e-07	-4.595032e-10	-6.945126e+00	-3.428124e+01
1.640000e-06	-9.534553e-07	-4.491479e-10	-6.624924e+00	-3.340864e+01
1.650000e-06	-9.072805e-07	-4.362451e-10	-6.304086e+00	-3.252026e+01
1.660000e-06	-8.610055e-07	-4.206693e-10	-5.982552e+00	-3.161562e+01
1.670000e-06	-8.146983e-07	-4.033567e-10	-5.660794e+00	-3.069421e+01
1.680000e-06	-7.683004e-07	-3.844197e-10	-5.338405e+00	-2.975554e+01
1.690000e-06	-7.218049e-07	-3.682682e-10	-5.015340e+00	-2.879914e+01
1.700000e-06	-6.752934e-07	-3.540031e-10	-4.692162e+00	-2.782452e+01
1.710000e-06	-6.287928e-07	-3.414244e-10	-4.369061e+00	-2.683124e+01
1.720000e-06	-5.821937e-07	-3.272557e-10	-4.045275e+00	-2.581887e+01
1.730000e-06	-5.355114e-07	-3.114479e-10	-3.720911e+00	-2.478701e+01
1.740000e-06	-4.888244e-07	-2.932626e-10	-3.396514e+00	-2.373529e+01
1.750000e-06	-4.421100e-07	-2.730286e-10	-3.071927e+00	-2.266339e+01
1.760000e-06	-3.952669e-07	-2.555357e-10	-2.746446e+00	-2.157102e+01
1.770000e-06	-3.483814e-07	-2.413614e-10	-2.420669e+00	-2.045794e+01
1.780000e-06	-3.015877e-07	-2.284069e-10	-2.095531e+00	-1.932396e+01
1.790000e-06	-2.547680e-07	-2.141993e-10	-1.770212e+00	-1.816898e+01
1.800000e-06	-2.079389e-07	-1.980897e-10	-1.444828e+00	-1.699291e+01
1.810000e-06	-1.610977e-07	-1.783381e-10	-1.119360e+00	-1.579576e+01
1.820000e-06	-1.141504e-07	-1.573957e-10	-7.931546e-01	-1.457761e+01
1.830000e-06	-6.723066e-08	-1.390005e-10	-4.671409e-01	-1.333859e+01
1.840000e-06	-2.027974e-08	-1.217247e-10	-1.409104e-01	-1.207894e+01
1.850000e-06	2.673441e-08	-1.034582e-10	1.857595e-01	-1.079894e+01
1.860000e-06	7.362440e-08	-8.634628e-11	5.115667e-01	-9.498978e+00
1.870000e-06	1.204700e-07	-7.009480e-11	8.370655e-01	-8.179517e+00
1.880000e-06	1.672513e-07	-5.162921e-11	1.162117e+00	-6.841101e+00
1.890000e-06	2.139675e-07	-3.124435e-11	1.486717e+00	-5.484357e+00
1.900000e-06	2.607066e-07	-1.189627e-11	1.811475e+00	-4.109996e+00
1.910000e-06	3.075365e-07	7.975916e-12	2.136865e+00	-2.718811e+00
1.920000e-06	3.544018e-07	2.727998e-11	2.462501e+00	-1.311674e+00
1.930000e-06	4.012108e-07	4.456959e-11	2.787746e+00	1.104628e-01
1.940000e-06	4.479490e-07	6.302370e-11	3.112498e+00	1.546571e+00
1.950000e-06	4.946300e-07	8.424753e-11	3.436853e+00	2.995552e+00
1.960000e-06	5.412601e-07	1.055690e-10	3.760854e+00	4.456235e+00
1.970000e-06	5.877809e-07	1.260110e-10	4.084096e+00	5.927388e+00
1.980000e-06	6.342465e-07	1.463449e-10	4.406955e+00	7.407718e+00
1.990000e-06	6.807476e-07	1.674914e-10	4.730060e+00	8.895877e+00
2.000000e-06	7.271563e-07	1.859950e-10	5.052523e+00	1.039047e+01
2.010000e-06	7.734353e-07	2.040300e-10	5.374085e+00	1.189006e+01
2.020000e-06	8.196852e-07	2.238054e-10	5.695445e+00	1.339318e+01
2.030000e-06	8.658829e-07	2.446329e-10	6.016441e+00	1.489832e+01
2.040000e-06	9.120118e-07	2.656315e-10	6.336960e+00	1.640396e+01
2.050000e-06	9.580788e-07	2.855744e-10	6.657049e+00	1.790857e+01
2.060000e-06	1.004123e-06	3.051688e-10	6.976976e+00	1.941060e+01
2.070000e-06	1.050134e-06	3.259522e-10	7.296676e+00	2.090851e+01
2.080000e-06	1.096025e-06	3.473229e-10	7.615545e+00	2.240078e+01
2.090000e-06	1.141795e-06	3.683368e-10	7.933571e+00	2.388587e+01
2.100000e-06	1.187547e-06	3.891156e-10	8.251467e+00	2.536230e+01
2.110000e-06	1.233216e-06	4.079624e-10	8.568793e+00	2.682862e+01
2.120000e-06	1.278703e-06	4.259890e-10	8.884849e+00	2.828339e+01
2.130000e-06	1.324151e-06	4.435003e-10	9.200637e+00	2.972525e+01
2.140000e-06	1.369571e-06	4.629610e-10	9.516231e+00	3.115286e+01
2.150000e-06	1.414772e-06	4.846590e-10	9.830306e+00	3.256496e+01
2.160000e-06	1.459896e-06	5.056312e-10	1.014384e+01	3.396036e+01
2.170000e-06	1.505059e-06	5.257760e-10	1.045765e+01	3.533790e+01
2.180000e-06	1.550079e-06	5.439739e-10	1.077046e+01	3.669654e+01
2.190000e-06	1.594892e-06	5.595743e-10	1.108184e+01	3.803529e+01
2.200000e-06	1.639489e-06	5.745849e-10	1.139171e+01	3.935325e+01
2.210000e-06	1.683973e-06	5.896676e-10	1.170080e+01	4.064961e+01
2.220000e-06	1.728310e-06	6.051207e-10	1.200887e+01	4.192363e+01
2.230000e-06	1.772545e-06	6.248318e-10	1.231623e+01	4.317468e+01
2.240000e-06	1.816761e-06	6.451753e-10	1.262346e+01	4.440220e+01
2.250000e-06	1.860820e-06	6.618551e-10	1.292959e+01	4.560574e+01
2.260000e-06	1.904751e-06	6.748718e-10	1.323484e+01	4.678491e+01
2.270000e-06	1.948643e-06	6.885080e-10	1.353981e+01	4.793945e+01
2.280000e-06	1.992494e-06	7.064597e-10	1.384451e+01	4.906915e+01
2.290000e-06	2.036259e-06	7.254393e-10	1.414860e+01	5.017390e+01
2.300000e-06	2.079912e-06	7.431784e-10	1.445192e+01	5.125369e+01
2.310000e-06	2.123484e-06	7.584026e-10	1.475467e+01	5.230855e+01
2.320000e-06	2.167018e-06	7.717295e-10	1.505716e+01	5.333862e+01
2.330000e-06	2.210521e-06	7.827812e-10	1.535943e+01	5.434411e+01
2.340000e-06	2.253950e-06	7.946224e-10	1.566119e+01	5.532527e+01
2.350000e-06	2.297291e-06	8.106104e-10	1.596234e+01	5.628244e+01
2.360000e-06	2.340430e-06	8.322134e-10	1.626209e+01	5.721600e+01
2.370000e-06	2.383255e-06	8.513885e-10	1.655965e+01	5.812639e+01
2.380000e-06	2.425764e-06	8.635869e-10	1.685501e+01	5.901410e+01
2.390000e-06	2.467883e-06	8.726022e-10	1.714767e+01	5.987966e+01
2.400000e-06	2.509665e-06	8.814072e-10	1.743798e+01	6.072361e+01
2.410000e-06	2.551102e-06	8.896344e-10	1.772590e+01	6.154654e+01
2.420000e-06	2.592223e-06	9.010024e-10	1.801163e+01	6.234907e+01
2.430000e-06	2.633216e-06	9.169603e-10	1.829646e+01	6.313181e+01
2.440000e-06	2.673888e-06	9.338418e-10	1.857906e+01	6.389541e+01
2.450000e-06	2.714197e-06	9.476817e-10	1.885914e+01	6.464049e+01
2.460000e-06	2.754378e-06	9.586718e-10	1.913833e+01	6.536771e+01
2.470000e-06	2.794435e-06	9.681718e-10	1.941666e+01	6.607769e+01
2.480000e-06	2.834280e-06	9.765798e-10	1.969351e+01	6.677105e+01
2.490000e-06	2.873963e-06	9.846442e-10	1.996925e+01	6.744840e+01
2.500000e-06	2.913579e-06	9.925371e-10	2.024451e+01	6.811034e+01
2.510000e-06	2.953049e-06	1.002167e-09	2.051876e+01	6.875743e+01
2.520000e-06	2.992390e-06	1.013608e-09	2.079212e+01	6.939021e+01
2.530000e-06	3.031605e-06	1.023951e-09	2.106460e+01	7.000919e+01
2.540000e-06	3.070541e-06	1.032177e-09	2.133514e+01	7.061486e+01
2.550000e-06	3.109205e-06	1.041041e-09	2.160379e+01	7.120766e+01
2.560000e-06	3.147661e-06	1.049279e-09	2.187099e+01	7.178801e+01
2.570000e-06	3.185855e-06	1.056591e-09	2.213638e+01	7.235630e+01
2.580000e-06	3.223891e-06	1.062452e-09	2.240067e+01	7.291287e+01
2.590000e-06	3.261773e-06	1.068841e-09	2.266388e+01	7.345803e+01
2.600000e-06	3.299371e-06	1.079686e-09	2.292512e+01	7.399206e+01
2.610000e-06	3.336769e-06	1.089571e-09	2.318498e+01	7.451520e+01
2.620000e-06	3.373959e-06	1.096371e-09	2.344338e+01	7.502767e+01
2.630000e-06	3.410857e-06	1.101150e-09	2.369977e+01	7.552965e+01
2.640000e-06	3.447534e-06	1.103620e-09	2.395461e+01	7.602130e+01
2.650000e-06	3.483990e-06	1.107504e-09	2.420792e+01	7.650273e+01
2.660000e-06	3.520175e-06	1.113326e-09	2.445934e+01	7.697406e+01
2.670000e-06	3.556159e-06	1.123125e-09	2.470937e+01	7.743537e+01
2.680000e-06	3.592011e-06	1.133043e-09	2.495848e+01	7.788673e+01
2.690000e-06	3.627724e-06	1.143011e-09	2.520663e+01	7.832818e+01
2.700000e-06	3.663326e-06	1.149423e-09	2.545400e+01	7.875976e+01
2.710000e-06	3.698718e-06	1.151241e-09	2.569992e+01	7.918152e+01
2.720000e-06	3.733810e-06	1.151261e-09	2.594375e+01	7.959346e+01
2.730000e-06	3.768670e-06	1.151817e-09	2.618597e+01	7.999561e+01
2.740000e-06	3.803246e-06	1.155571e-09	2.642621e+01	8.038800e+01
2.750000e-06	3.837466e-06	1.163202e-09	2.666398e+01	8.077065e+01
2.760000e-06	3.871228e-06	1.172423e-09	2.689858e+01	8.114360e+01
2.770000e-06	3.904404e-06	1.180953e-09	2.712909e+01	8.150688e+01
2.780000e-06	3.937071e-06	1.188423e-09	2.735607e+01	8.186055e+01
2.790000e-06	3.969410e-06	1.192049e-09	2.758078e+01	8.220467e+01
2.800000e-06	4.001471e-06	1.191687e-09	2.780355e+01	8.253932e+01
2.810000e-06	4.033292e-06	1.191799e-09	2.802465e+01	8.286460e+01
2.820000e-06	4.064946e-06	1.195290e-09	2.824459e+01	8.318061e+01
2.830000e-06	4.096487e-06	1.201627e-09	2.846375e+01	8.348748e+01
2.840000e-06	4.127866e-06	1.209434e-09	2.868178e+01	8.378537e+01
2.850000e-06	4.158979e-06	1.218525e-09	2.889796e+01	8.407444e+01
2.860000e-06	4.189709e-06	1.226356e-09	2.911149e+01	8.435486e+01
2.870000e-06	4.219992e-06	1.231219e-09	2.932191e+01	8.462685e+01
2.880000e-06	4.249988e-06	1.234596e-09	2.953032e+01	8.489061e+01
2.890000e-06	4.279748e-06	1.235282e-09	2.973710e+01	8.514638e+01
2.900000e-06	4.309268e-06	1.235703e-09	2.994222e+01	8.539441e+01
