# Temperatura_=_0.44
# Concentracion g/m^3_=_1620.0
# C_Vs_to_Am_M_A/Vsm_=_65563218390.804596
# pendiente_HvsI_1/m_=_3716.3
# ordenada_HvsI_A/m_=_1297.0
# frecuencia_Hz_=_135091.91967335608

Tiempo_(s)	Campo_(V.s)	Magnetizacion_(V.s)	Campo_(kA/m)	Magnetizacion_(A/m)
0.000000e+00	-5.516187e-06	-1.318438e-09	-3.837142e+01	-8.880421e+01
1.000000e-08	-5.516259e-06	-1.318830e-09	-3.837192e+01	-8.878151e+01
2.000000e-08	-5.516092e-06	-1.320542e-09	-3.837076e+01	-8.876051e+01
3.000000e-08	-5.515573e-06	-1.323674e-09	-3.836715e+01	-8.874118e+01
4.000000e-08	-5.514563e-06	-1.319592e-09	-3.836012e+01	-8.872345e+01
5.000000e-08	-5.513033e-06	-1.301711e-09	-3.834948e+01	-8.870721e+01
6.000000e-08	-5.510920e-06	-1.286813e-09	-3.833478e+01	-8.869231e+01
7.000000e-08	-5.508158e-06	-1.314283e-09	-3.831557e+01	-8.867859e+01
8.000000e-08	-5.504858e-06	-1.385812e-09	-3.829262e+01	-8.866583e+01
9.000000e-08	-5.501045e-06	-1.450057e-09	-3.826610e+01	-8.865379e+01
1.000000e-07	-5.496748e-06	-1.377779e-09	-3.823621e+01	-8.864221e+01
1.100000e-07	-5.492254e-06	-1.249900e-09	-3.820494e+01	-8.863078e+01
1.200000e-07	-5.487714e-06	-1.248480e-09	-3.817336e+01	-8.861918e+01
1.300000e-07	-5.482831e-06	-1.342833e-09	-3.813939e+01	-8.860707e+01
1.400000e-07	-5.477452e-06	-1.366929e-09	-3.810198e+01	-8.859407e+01
1.500000e-07	-5.471783e-06	-1.261105e-09	-3.806254e+01	-8.857980e+01
1.600000e-07	-5.465791e-06	-1.248620e-09	-3.802086e+01	-8.856387e+01
1.700000e-07	-5.459287e-06	-1.366543e-09	-3.797562e+01	-8.854584e+01
1.800000e-07	-5.452299e-06	-1.424696e-09	-3.792701e+01	-8.852531e+01
1.900000e-07	-5.444929e-06	-1.307016e-09	-3.787574e+01	-8.850184e+01
2.000000e-07	-5.437286e-06	-1.228966e-09	-3.782258e+01	-8.847499e+01
2.100000e-07	-5.429389e-06	-1.311404e-09	-3.776764e+01	-8.844434e+01
2.200000e-07	-5.421243e-06	-1.414407e-09	-3.771098e+01	-8.840945e+01
2.300000e-07	-5.412866e-06	-1.370746e-09	-3.765270e+01	-8.836991e+01
2.400000e-07	-5.404028e-06	-1.320610e-09	-3.759123e+01	-8.832530e+01
2.500000e-07	-5.394328e-06	-1.352144e-09	-3.752375e+01	-8.827523e+01
2.600000e-07	-5.383917e-06	-1.367226e-09	-3.745133e+01	-8.821930e+01
2.700000e-07	-5.373029e-06	-1.320397e-09	-3.737559e+01	-8.815716e+01
2.800000e-07	-5.361670e-06	-1.308770e-09	-3.729658e+01	-8.808847e+01
2.900000e-07	-5.349939e-06	-1.359682e-09	-3.721497e+01	-8.801289e+01
3.000000e-07	-5.337881e-06	-1.362477e-09	-3.713110e+01	-8.793015e+01
3.100000e-07	-5.325450e-06	-1.324555e-09	-3.704462e+01	-8.783997e+01
3.200000e-07	-5.312557e-06	-1.322339e-09	-3.695494e+01	-8.774212e+01
3.300000e-07	-5.299299e-06	-1.357226e-09	-3.686271e+01	-8.763639e+01
3.400000e-07	-5.285697e-06	-1.345417e-09	-3.676810e+01	-8.752261e+01
3.500000e-07	-5.271670e-06	-1.326255e-09	-3.667053e+01	-8.740063e+01
3.600000e-07	-5.257198e-06	-1.329440e-09	-3.656986e+01	-8.727036e+01
3.700000e-07	-5.242416e-06	-1.347680e-09	-3.646703e+01	-8.713170e+01
3.800000e-07	-5.226957e-06	-1.324321e-09	-3.635950e+01	-8.698464e+01
3.900000e-07	-5.210894e-06	-1.321273e-09	-3.624776e+01	-8.682915e+01
4.000000e-07	-5.194517e-06	-1.330977e-09	-3.613384e+01	-8.666525e+01
4.100000e-07	-5.177739e-06	-1.322045e-09	-3.601713e+01	-8.649302e+01
4.200000e-07	-5.160650e-06	-1.290776e-09	-3.589825e+01	-8.631253e+01
4.300000e-07	-5.143237e-06	-1.307601e-09	-3.577713e+01	-8.612390e+01
4.400000e-07	-5.125547e-06	-1.337187e-09	-3.565408e+01	-8.592727e+01
4.500000e-07	-5.107434e-06	-1.316572e-09	-3.552807e+01	-8.572280e+01
4.600000e-07	-5.088757e-06	-1.282955e-09	-3.539816e+01	-8.551070e+01
4.700000e-07	-5.069698e-06	-1.299874e-09	-3.526558e+01	-8.529117e+01
4.800000e-07	-5.050342e-06	-1.312366e-09	-3.513093e+01	-8.506445e+01
4.900000e-07	-5.030756e-06	-1.293288e-09	-3.499469e+01	-8.483077e+01
5.000000e-07	-5.011002e-06	-1.291006e-09	-3.485728e+01	-8.459041e+01
5.100000e-07	-4.990981e-06	-1.295539e-09	-3.471801e+01	-8.434363e+01
5.200000e-07	-4.970624e-06	-1.277619e-09	-3.457640e+01	-8.409072e+01
5.300000e-07	-4.949881e-06	-1.283902e-09	-3.443211e+01	-8.383195e+01
5.400000e-07	-4.928810e-06	-1.308618e-09	-3.428554e+01	-8.356763e+01
5.500000e-07	-4.907423e-06	-1.284564e-09	-3.413677e+01	-8.329802e+01
5.600000e-07	-4.885675e-06	-1.253721e-09	-3.398549e+01	-8.302344e+01
5.700000e-07	-4.863639e-06	-1.266746e-09	-3.383220e+01	-8.274414e+01
5.800000e-07	-4.841233e-06	-1.279772e-09	-3.367634e+01	-8.246041e+01
5.900000e-07	-4.818377e-06	-1.257426e-09	-3.351735e+01	-8.217252e+01
6.000000e-07	-4.795216e-06	-1.254834e-09	-3.335624e+01	-8.188071e+01
6.100000e-07	-4.771733e-06	-1.263214e-09	-3.319289e+01	-8.158522e+01
6.200000e-07	-4.748053e-06	-1.247988e-09	-3.302817e+01	-8.128627e+01
6.300000e-07	-4.724298e-06	-1.232698e-09	-3.286293e+01	-8.098408e+01
6.400000e-07	-4.700265e-06	-1.242169e-09	-3.269575e+01	-8.067883e+01
6.500000e-07	-4.675861e-06	-1.233906e-09	-3.252599e+01	-8.037069e+01
6.600000e-07	-4.650981e-06	-1.221210e-09	-3.235292e+01	-8.005980e+01
6.700000e-07	-4.625534e-06	-1.227283e-09	-3.217591e+01	-7.974630e+01
6.800000e-07	-4.599584e-06	-1.229473e-09	-3.199539e+01	-7.943029e+01
6.900000e-07	-4.573032e-06	-1.214893e-09	-3.181070e+01	-7.911185e+01
7.000000e-07	-4.545914e-06	-1.212114e-09	-3.162206e+01	-7.879104e+01
7.100000e-07	-4.518533e-06	-1.206904e-09	-3.143159e+01	-7.846791e+01
7.200000e-07	-4.490992e-06	-1.194484e-09	-3.124001e+01	-7.814248e+01
7.300000e-07	-4.463254e-06	-1.187740e-09	-3.104706e+01	-7.781474e+01
7.400000e-07	-4.435334e-06	-1.191467e-09	-3.085285e+01	-7.748468e+01
7.500000e-07	-4.407246e-06	-1.187281e-09	-3.065746e+01	-7.715226e+01
7.600000e-07	-4.378901e-06	-1.180043e-09	-3.046029e+01	-7.681742e+01
7.700000e-07	-4.350193e-06	-1.171870e-09	-3.026060e+01	-7.648010e+01
7.800000e-07	-4.321101e-06	-1.164334e-09	-3.005822e+01	-7.614021e+01
7.900000e-07	-4.291649e-06	-1.162471e-09	-2.985336e+01	-7.579765e+01
8.000000e-07	-4.261857e-06	-1.157860e-09	-2.964611e+01	-7.545231e+01
8.100000e-07	-4.231777e-06	-1.143766e-09	-2.943687e+01	-7.510408e+01
8.200000e-07	-4.201446e-06	-1.134985e-09	-2.922589e+01	-7.475284e+01
8.300000e-07	-4.170874e-06	-1.134034e-09	-2.901322e+01	-7.439845e+01
8.400000e-07	-4.140015e-06	-1.125243e-09	-2.879856e+01	-7.404078e+01
8.500000e-07	-4.108862e-06	-1.112690e-09	-2.858186e+01	-7.367970e+01
8.600000e-07	-4.077517e-06	-1.104640e-09	-2.836382e+01	-7.331507e+01
8.700000e-07	-4.045988e-06	-1.096605e-09	-2.814450e+01	-7.294675e+01
8.800000e-07	-4.014307e-06	-1.087681e-09	-2.792412e+01	-7.257463e+01
8.900000e-07	-3.982403e-06	-1.085983e-09	-2.770219e+01	-7.219857e+01
9.000000e-07	-3.950209e-06	-1.077857e-09	-2.747825e+01	-7.181846e+01
9.100000e-07	-3.917803e-06	-1.067241e-09	-2.725283e+01	-7.143418e+01
9.200000e-07	-3.885152e-06	-1.060865e-09	-2.702570e+01	-7.104564e+01
9.300000e-07	-3.852090e-06	-1.058014e-09	-2.679572e+01	-7.065274e+01
9.400000e-07	-3.818470e-06	-1.048061e-09	-2.656185e+01	-7.025541e+01
9.500000e-07	-3.784316e-06	-1.040139e-09	-2.632427e+01	-6.985357e+01
9.600000e-07	-3.749700e-06	-1.032016e-09	-2.608347e+01	-6.944717e+01
9.700000e-07	-3.714658e-06	-1.022997e-09	-2.583972e+01	-6.903617e+01
9.800000e-07	-3.679316e-06	-1.014890e-09	-2.559388e+01	-6.862054e+01
9.900000e-07	-3.643794e-06	-1.012773e-09	-2.534677e+01	-6.820026e+01
1.000000e-06	-3.608098e-06	-1.008013e-09	-2.509847e+01	-6.777532e+01
1.010000e-06	-3.572270e-06	-1.000263e-09	-2.484925e+01	-6.734574e+01
1.020000e-06	-3.536336e-06	-9.944604e-10	-2.459928e+01	-6.691153e+01
1.030000e-06	-3.500233e-06	-9.884357e-10	-2.434814e+01	-6.647273e+01
1.040000e-06	-3.463956e-06	-9.798395e-10	-2.409580e+01	-6.602938e+01
1.050000e-06	-3.427506e-06	-9.726934e-10	-2.384225e+01	-6.558152e+01
1.060000e-06	-3.390776e-06	-9.653437e-10	-2.358674e+01	-6.512923e+01
1.070000e-06	-3.353701e-06	-9.566369e-10	-2.332885e+01	-6.467256e+01
1.080000e-06	-3.316332e-06	-9.486362e-10	-2.306891e+01	-6.421160e+01
1.090000e-06	-3.278694e-06	-9.410481e-10	-2.280709e+01	-6.374642e+01
1.100000e-06	-3.240831e-06	-9.319863e-10	-2.254370e+01	-6.327710e+01
1.110000e-06	-3.202634e-06	-9.231060e-10	-2.227800e+01	-6.280373e+01
1.120000e-06	-3.164215e-06	-9.180557e-10	-2.201075e+01	-6.232638e+01
1.130000e-06	-3.125739e-06	-9.137581e-10	-2.174311e+01	-6.184516e+01
1.140000e-06	-3.087037e-06	-9.072121e-10	-2.147389e+01	-6.136012e+01
1.150000e-06	-3.048080e-06	-8.962151e-10	-2.120290e+01	-6.087136e+01
1.160000e-06	-3.008959e-06	-8.865816e-10	-2.093077e+01	-6.037893e+01
1.170000e-06	-2.969662e-06	-8.787110e-10	-2.065741e+01	-5.988290e+01
1.180000e-06	-2.930193e-06	-8.734329e-10	-2.038286e+01	-5.938332e+01
1.190000e-06	-2.890637e-06	-8.665572e-10	-2.010771e+01	-5.888022e+01
1.200000e-06	-2.850977e-06	-8.568186e-10	-1.983182e+01	-5.837365e+01
1.210000e-06	-2.811120e-06	-8.471443e-10	-1.955457e+01	-5.786361e+01
1.220000e-06	-2.771124e-06	-8.394527e-10	-1.927636e+01	-5.735011e+01
1.230000e-06	-2.731003e-06	-8.291498e-10	-1.899726e+01	-5.683312e+01
1.240000e-06	-2.690702e-06	-8.168923e-10	-1.871693e+01	-5.631262e+01
1.250000e-06	-2.650261e-06	-8.060964e-10	-1.843561e+01	-5.578856e+01
1.260000e-06	-2.609641e-06	-7.960801e-10	-1.815305e+01	-5.526086e+01
1.270000e-06	-2.568781e-06	-7.859269e-10	-1.786882e+01	-5.472943e+01
1.280000e-06	-2.527532e-06	-7.795214e-10	-1.758189e+01	-5.419418e+01
1.290000e-06	-2.485896e-06	-7.722698e-10	-1.729227e+01	-5.365496e+01
1.300000e-06	-2.444065e-06	-7.626833e-10	-1.700128e+01	-5.311164e+01
1.310000e-06	-2.402044e-06	-7.525653e-10	-1.670898e+01	-5.256404e+01
1.320000e-06	-2.359734e-06	-7.435598e-10	-1.641466e+01	-5.201196e+01
1.330000e-06	-2.317097e-06	-7.339775e-10	-1.611807e+01	-5.145521e+01
1.340000e-06	-2.274115e-06	-7.252933e-10	-1.581909e+01	-5.089354e+01
1.350000e-06	-2.230795e-06	-7.169887e-10	-1.551775e+01	-5.032671e+01
1.360000e-06	-2.187324e-06	-7.074405e-10	-1.521536e+01	-4.975444e+01
1.370000e-06	-2.143784e-06	-6.977843e-10	-1.491248e+01	-4.917645e+01
1.380000e-06	-2.100142e-06	-6.908227e-10	-1.460891e+01	-4.859242e+01
1.390000e-06	-2.056452e-06	-6.829423e-10	-1.430499e+01	-4.800204e+01
1.400000e-06	-2.012710e-06	-6.723573e-10	-1.400071e+01	-4.740496e+01
1.410000e-06	-1.968874e-06	-6.626028e-10	-1.369578e+01	-4.680082e+01
1.420000e-06	-1.924942e-06	-6.546615e-10	-1.339018e+01	-4.618926e+01
1.430000e-06	-1.880971e-06	-6.458188e-10	-1.308432e+01	-4.556988e+01
1.440000e-06	-1.836864e-06	-6.329906e-10	-1.277750e+01	-4.494230e+01
1.450000e-06	-1.792625e-06	-6.202303e-10	-1.246977e+01	-4.430611e+01
1.460000e-06	-1.748282e-06	-6.090676e-10	-1.216131e+01	-4.366089e+01
1.470000e-06	-1.703792e-06	-5.974298e-10	-1.185183e+01	-4.300623e+01
1.480000e-06	-1.659207e-06	-5.834828e-10	-1.154169e+01	-4.234169e+01
1.490000e-06	-1.614505e-06	-5.719381e-10	-1.123074e+01	-4.166684e+01
1.500000e-06	-1.569679e-06	-5.616224e-10	-1.091892e+01	-4.098125e+01
1.510000e-06	-1.524728e-06	-5.496109e-10	-1.060624e+01	-4.028448e+01
1.520000e-06	-1.479591e-06	-5.380365e-10	-1.029226e+01	-3.957609e+01
1.530000e-06	-1.434365e-06	-5.246271e-10	-9.977661e+00	-3.885566e+01
1.540000e-06	-1.389102e-06	-5.089105e-10	-9.662800e+00	-3.812275e+01
1.550000e-06	-1.343721e-06	-4.917574e-10	-9.347122e+00	-3.737694e+01
1.560000e-06	-1.298122e-06	-4.796310e-10	-9.029932e+00	-3.661781e+01
1.570000e-06	-1.252357e-06	-4.726958e-10	-8.711585e+00	-3.584496e+01
1.580000e-06	-1.206592e-06	-4.652501e-10	-8.393236e+00	-3.505800e+01
1.590000e-06	-1.160762e-06	-4.594562e-10	-8.074431e+00	-3.425654e+01
1.600000e-06	-1.114808e-06	-4.484806e-10	-7.754770e+00	-3.344021e+01
1.610000e-06	-1.068806e-06	-4.351863e-10	-7.434775e+00	-3.260866e+01
1.620000e-06	-1.022767e-06	-4.228971e-10	-7.114520e+00	-3.176156e+01
1.630000e-06	-9.766616e-07	-4.143936e-10	-6.793804e+00	-3.089860e+01
1.640000e-06	-9.305292e-07	-4.028742e-10	-6.472901e+00	-3.001949e+01
1.650000e-06	-8.844090e-07	-3.883391e-10	-6.152081e+00	-2.912396e+01
1.660000e-06	-8.381824e-07	-3.726284e-10	-5.830522e+00	-2.821177e+01
1.670000e-06	-7.918840e-07	-3.561131e-10	-5.508463e+00	-2.728270e+01
1.680000e-06	-7.456733e-07	-3.408108e-10	-5.187015e+00	-2.633657e+01
1.690000e-06	-6.993985e-07	-3.260795e-10	-4.865121e+00	-2.537323e+01
1.700000e-06	-6.528957e-07	-3.137292e-10	-4.541641e+00	-2.439255e+01
1.710000e-06	-6.063255e-07	-3.010308e-10	-4.217691e+00	-2.339444e+01
1.720000e-06	-5.597434e-07	-2.848427e-10	-3.893659e+00	-2.237885e+01
1.730000e-06	-5.130707e-07	-2.649528e-10	-3.568997e+00	-2.134576e+01
1.740000e-06	-4.664070e-07	-2.442234e-10	-3.244397e+00	-2.029519e+01
1.750000e-06	-4.198173e-07	-2.283720e-10	-2.920312e+00	-1.922720e+01
1.760000e-06	-3.731915e-07	-2.141276e-10	-2.595976e+00	-1.814189e+01
1.770000e-06	-3.264502e-07	-2.000589e-10	-2.270836e+00	-1.703940e+01
1.780000e-06	-2.796184e-07	-1.850140e-10	-1.945068e+00	-1.591991e+01
1.790000e-06	-2.328165e-07	-1.680258e-10	-1.619507e+00	-1.478364e+01
1.800000e-06	-1.860630e-07	-1.517814e-10	-1.294282e+00	-1.363088e+01
1.810000e-06	-1.392562e-07	-1.366698e-10	-9.686870e-01	-1.246192e+01
1.820000e-06	-9.246962e-08	-1.255403e-10	-6.432325e-01	-1.127714e+01
1.830000e-06	-4.568050e-08	-1.148052e-10	-3.177604e-01	-1.007693e+01
1.840000e-06	1.062748e-09	-1.007016e-10	7.392632e-03	-8.861740e+00
1.850000e-06	4.775141e-08	-8.126580e-11	3.321659e-01	-7.632069e+00
1.860000e-06	9.448643e-08	-6.315586e-11	6.572617e-01	-6.388452e+00
1.870000e-06	1.412993e-07	-4.597776e-11	9.828994e-01	-5.131472e+00
1.880000e-06	1.881054e-07	-2.851372e-11	1.308489e+00	-3.861756e+00
1.890000e-06	2.348668e-07	-1.070699e-11	1.633769e+00	-2.579971e+00
1.900000e-06	2.816083e-07	9.152441e-12	1.958909e+00	-1.286828e+00
1.910000e-06	3.282506e-07	2.768821e-11	2.283360e+00	1.692231e-02
1.920000e-06	3.748728e-07	4.141658e-11	2.607672e+00	1.330492e+00
1.930000e-06	4.215494e-07	5.609199e-11	2.932361e+00	2.653054e+00
1.940000e-06	4.682491e-07	7.398793e-11	3.257211e+00	3.983747e+00
1.950000e-06	5.149029e-07	9.415294e-11	3.581741e+00	5.321679e+00
1.960000e-06	5.614708e-07	1.164897e-10	3.905675e+00	6.665924e+00
1.970000e-06	6.079303e-07	1.381029e-10	4.228854e+00	8.015530e+00
1.980000e-06	6.543419e-07	1.559016e-10	4.551700e+00	9.369519e+00
1.990000e-06	7.007342e-07	1.726608e-10	4.874412e+00	1.072689e+01
2.000000e-06	7.470664e-07	1.887530e-10	5.196705e+00	1.208663e+01
2.010000e-06	7.933770e-07	2.076446e-10	5.518849e+00	1.344769e+01
2.020000e-06	8.395765e-07	2.293963e-10	5.840220e+00	1.480904e+01
2.030000e-06	8.856494e-07	2.515985e-10	6.160710e+00	1.616961e+01
2.040000e-06	9.317087e-07	2.717440e-10	6.481105e+00	1.752834e+01
2.050000e-06	9.777168e-07	2.885543e-10	6.801145e+00	1.888417e+01
2.060000e-06	1.023682e-06	3.037116e-10	7.120888e+00	2.023603e+01
2.070000e-06	1.069609e-06	3.205520e-10	7.440358e+00	2.158287e+01
2.080000e-06	1.115438e-06	3.407599e-10	7.759151e+00	2.292364e+01
2.090000e-06	1.161177e-06	3.632488e-10	8.077322e+00	2.425730e+01
2.100000e-06	1.206872e-06	3.881226e-10	8.395184e+00	2.558285e+01
2.110000e-06	1.252470e-06	4.082102e-10	8.712369e+00	2.689927e+01
2.120000e-06	1.297929e-06	4.228356e-10	9.028588e+00	2.820560e+01
2.130000e-06	1.343263e-06	4.391234e-10	9.343940e+00	2.950090e+01
2.140000e-06	1.388490e-06	4.579114e-10	9.658546e+00	3.078425e+01
2.150000e-06	1.433596e-06	4.764684e-10	9.972309e+00	3.205477e+01
2.160000e-06	1.478630e-06	4.958988e-10	1.028557e+01	3.331163e+01
2.170000e-06	1.523650e-06	5.154266e-10	1.059874e+01	3.455402e+01
2.180000e-06	1.568540e-06	5.358382e-10	1.091100e+01	3.578119e+01
2.190000e-06	1.613259e-06	5.515779e-10	1.122207e+01	3.699243e+01
2.200000e-06	1.657764e-06	5.652225e-10	1.153165e+01	3.818708e+01
2.210000e-06	1.702105e-06	5.784830e-10	1.184010e+01	3.936453e+01
2.220000e-06	1.746419e-06	5.931923e-10	1.214835e+01	4.052421e+01
2.230000e-06	1.790698e-06	6.116710e-10	1.245636e+01	4.166562e+01
2.240000e-06	1.834937e-06	6.285452e-10	1.276410e+01	4.278830e+01
2.250000e-06	1.879087e-06	6.434105e-10	1.307121e+01	4.389187e+01
2.260000e-06	1.923055e-06	6.557869e-10	1.337706e+01	4.497598e+01
2.270000e-06	1.966900e-06	6.700530e-10	1.368205e+01	4.604034e+01
2.280000e-06	2.010717e-06	6.845012e-10	1.398685e+01	4.708472e+01
2.290000e-06	2.054496e-06	7.014300e-10	1.429138e+01	4.810895e+01
2.300000e-06	2.098172e-06	7.168282e-10	1.459520e+01	4.911291e+01
2.310000e-06	2.141734e-06	7.287446e-10	1.489822e+01	5.009653e+01
2.320000e-06	2.185219e-06	7.411400e-10	1.520071e+01	5.105979e+01
2.330000e-06	2.228691e-06	7.523094e-10	1.550311e+01	5.200273e+01
2.340000e-06	2.271981e-06	7.637874e-10	1.580424e+01	5.292544e+01
2.350000e-06	2.315013e-06	7.776911e-10	1.610358e+01	5.382803e+01
2.360000e-06	2.357892e-06	7.939099e-10	1.640185e+01	5.471069e+01
2.370000e-06	2.400545e-06	8.066203e-10	1.669855e+01	5.557362e+01
2.380000e-06	2.442785e-06	8.163662e-10	1.699238e+01	5.641708e+01
2.390000e-06	2.484585e-06	8.294468e-10	1.728315e+01	5.724136e+01
2.400000e-06	2.526054e-06	8.408105e-10	1.757161e+01	5.804677e+01
2.410000e-06	2.567255e-06	8.519645e-10	1.785821e+01	5.883366e+01
2.420000e-06	2.608223e-06	8.635907e-10	1.814319e+01	5.960242e+01
2.430000e-06	2.648865e-06	8.745224e-10	1.842590e+01	6.035342e+01
2.440000e-06	2.689248e-06	8.847470e-10	1.870681e+01	6.108709e+01
2.450000e-06	2.729473e-06	8.903754e-10	1.898662e+01	6.180386e+01
2.460000e-06	2.769557e-06	9.019250e-10	1.926545e+01	6.250418e+01
2.470000e-06	2.809497e-06	9.151852e-10	1.954328e+01	6.318848e+01
2.480000e-06	2.849314e-06	9.281932e-10	1.982026e+01	6.385724e+01
2.490000e-06	2.889022e-06	9.382134e-10	2.009647e+01	6.451090e+01
2.500000e-06	2.928560e-06	9.441721e-10	2.037150e+01	6.514993e+01
2.510000e-06	2.967942e-06	9.487364e-10	2.064545e+01	6.577479e+01
2.520000e-06	3.007162e-06	9.545969e-10	2.091827e+01	6.638591e+01
2.530000e-06	3.046243e-06	9.616120e-10	2.119012e+01	6.698376e+01
2.540000e-06	3.085091e-06	9.711484e-10	2.146036e+01	6.756874e+01
2.550000e-06	3.123602e-06	9.815167e-10	2.172824e+01	6.814129e+01
2.560000e-06	3.161866e-06	9.931757e-10	2.199441e+01	6.870181e+01
2.570000e-06	3.199979e-06	1.005374e-09	2.225953e+01	6.925067e+01
2.580000e-06	3.237910e-06	1.012215e-09	2.252339e+01	6.978825e+01
2.590000e-06	3.275630e-06	1.016684e-09	2.278577e+01	7.031490e+01
2.600000e-06	3.313174e-06	1.022504e-09	2.304694e+01	7.083095e+01
2.610000e-06	3.350514e-06	1.026322e-09	2.330668e+01	7.133671e+01
2.620000e-06	3.387562e-06	1.031432e-09	2.356439e+01	7.183246e+01
2.630000e-06	3.424376e-06	1.038819e-09	2.382047e+01	7.231848e+01
2.640000e-06	3.460937e-06	1.047790e-09	2.407480e+01	7.279502e+01
2.650000e-06	3.497188e-06	1.056969e-09	2.432696e+01	7.326230e+01
2.660000e-06	3.533196e-06	1.063420e-09	2.457744e+01	7.372053e+01
2.670000e-06	3.569059e-06	1.069716e-09	2.482691e+01	7.416991e+01
2.680000e-06	3.604852e-06	1.076536e-09	2.507589e+01	7.461060e+01
2.690000e-06	3.640546e-06	1.084002e-09	2.532418e+01	7.504275e+01
2.700000e-06	3.676089e-06	1.088302e-09	2.557143e+01	7.546652e+01
2.710000e-06	3.711430e-06	1.092457e-09	2.581727e+01	7.588202e+01
2.720000e-06	3.746305e-06	1.099245e-09	2.605986e+01	7.628937e+01
2.730000e-06	3.780742e-06	1.107741e-09	2.629941e+01	7.668866e+01
2.740000e-06	3.814845e-06	1.114339e-09	2.653663e+01	7.708000e+01
2.750000e-06	3.848442e-06	1.120301e-09	2.677034e+01	7.746347e+01
2.760000e-06	3.881544e-06	1.126098e-09	2.700060e+01	7.783914e+01
2.770000e-06	3.914295e-06	1.132021e-09	2.722842e+01	7.820708e+01
2.780000e-06	3.946787e-06	1.137022e-09	2.745444e+01	7.856738e+01
2.790000e-06	3.978936e-06	1.143342e-09	2.767807e+01	7.892009e+01
2.800000e-06	4.010831e-06	1.150022e-09	2.789994e+01	7.926528e+01
2.810000e-06	4.042602e-06	1.157786e-09	2.812094e+01	7.960303e+01
2.820000e-06	4.074175e-06	1.165427e-09	2.834057e+01	7.993340e+01
2.830000e-06	4.105626e-06	1.171058e-09	2.855935e+01	8.025647e+01
2.840000e-06	4.136952e-06	1.175673e-09	2.877726e+01	8.057231e+01
2.850000e-06	4.167871e-06	1.182767e-09	2.899233e+01	8.088103e+01
2.860000e-06	4.198441e-06	1.189552e-09	2.920499e+01	8.118269e+01
2.870000e-06	4.228791e-06	1.193633e-09	2.941610e+01	8.147740e+01
2.880000e-06	4.258806e-06	1.198100e-09	2.962489e+01	8.176526e+01
2.890000e-06	4.288446e-06	1.203752e-09	2.983107e+01	8.204638e+01
2.900000e-06	4.317734e-06	1.208013e-09	3.003481e+01	8.232088e+01
2.910000e-06	4.346774e-06	1.211063e-09	3.023681e+01	8.258887e+01
