# Temperatura_=_-0.7
# Concentracion g/m^3_=_1620.0
# C_Vs_to_Am_M_A/Vsm_=_65563218390.804596
# pendiente_HvsI_1/m_=_3716.3
# ordenada_HvsI_A/m_=_1297.0
# frecuencia_Hz_=_135102.2420156253

Tiempo_(s)	Campo_(V.s)	Magnetizacion_(V.s)	Campo_(kA/m)	Magnetizacion_(A/m)
0.000000e+00	-5.511614e-06	-1.307710e-09	-3.837188e+01	-8.531544e+01
1.000000e-08	-5.511854e-06	-1.306542e-09	-3.837356e+01	-8.525625e+01
2.000000e-08	-5.511875e-06	-1.307108e-09	-3.837370e+01	-8.519322e+01
3.000000e-08	-5.511513e-06	-1.309959e-09	-3.837118e+01	-8.512624e+01
4.000000e-08	-5.510601e-06	-1.309035e-09	-3.836484e+01	-8.505523e+01
5.000000e-08	-5.509115e-06	-1.296787e-09	-3.835449e+01	-8.498011e+01
6.000000e-08	-5.507054e-06	-1.278201e-09	-3.834014e+01	-8.490083e+01
7.000000e-08	-5.504390e-06	-1.283230e-09	-3.832159e+01	-8.481735e+01
8.000000e-08	-5.501228e-06	-1.328609e-09	-3.829958e+01	-8.472966e+01
9.000000e-08	-5.497612e-06	-1.386181e-09	-3.827440e+01	-8.463776e+01
1.000000e-07	-5.493560e-06	-1.401332e-09	-3.824620e+01	-8.454167e+01
1.100000e-07	-5.489139e-06	-1.359581e-09	-3.821541e+01	-8.444144e+01
1.200000e-07	-5.484469e-06	-1.229115e-09	-3.818290e+01	-8.433713e+01
1.300000e-07	-5.479628e-06	-1.243090e-09	-3.814920e+01	-8.422882e+01
1.400000e-07	-5.474506e-06	-1.315292e-09	-3.811354e+01	-8.411661e+01
1.500000e-07	-5.468941e-06	-1.325049e-09	-3.807480e+01	-8.400062e+01
1.600000e-07	-5.462961e-06	-1.258851e-09	-3.803316e+01	-8.388097e+01
1.700000e-07	-5.456602e-06	-1.251090e-09	-3.798889e+01	-8.375783e+01
1.800000e-07	-5.449780e-06	-1.381237e-09	-3.794140e+01	-8.363135e+01
1.900000e-07	-5.442513e-06	-1.343816e-09	-3.789081e+01	-8.350170e+01
2.000000e-07	-5.435040e-06	-1.244118e-09	-3.783878e+01	-8.336908e+01
2.100000e-07	-5.427415e-06	-1.183807e-09	-3.778569e+01	-8.323366e+01
2.200000e-07	-5.419460e-06	-1.285578e-09	-3.773031e+01	-8.309566e+01
2.300000e-07	-5.411179e-06	-1.293613e-09	-3.767265e+01	-8.295528e+01
2.400000e-07	-5.402501e-06	-1.261185e-09	-3.761224e+01	-8.281271e+01
2.500000e-07	-5.393167e-06	-1.218416e-09	-3.754726e+01	-8.266817e+01
2.600000e-07	-5.383081e-06	-1.248943e-09	-3.747704e+01	-8.252186e+01
2.700000e-07	-5.372300e-06	-1.229995e-09	-3.740198e+01	-8.237397e+01
2.800000e-07	-5.361013e-06	-1.213076e-09	-3.732340e+01	-8.222470e+01
2.900000e-07	-5.349399e-06	-1.222542e-09	-3.724255e+01	-8.207422e+01
3.000000e-07	-5.337479e-06	-1.232708e-09	-3.715956e+01	-8.192271e+01
3.100000e-07	-5.325131e-06	-1.222236e-09	-3.707359e+01	-8.177033e+01
3.200000e-07	-5.312312e-06	-1.212251e-09	-3.698434e+01	-8.161721e+01
3.300000e-07	-5.299132e-06	-1.220172e-09	-3.689258e+01	-8.146350e+01
3.400000e-07	-5.285645e-06	-1.202871e-09	-3.679869e+01	-8.130929e+01
3.500000e-07	-5.271731e-06	-1.224998e-09	-3.670182e+01	-8.115468e+01
3.600000e-07	-5.257353e-06	-1.223947e-09	-3.660172e+01	-8.099974e+01
3.700000e-07	-5.242503e-06	-1.209611e-09	-3.649833e+01	-8.084452e+01
3.800000e-07	-5.227107e-06	-1.201064e-09	-3.639115e+01	-8.068905e+01
3.900000e-07	-5.211169e-06	-1.229847e-09	-3.628018e+01	-8.053334e+01
4.000000e-07	-5.194748e-06	-1.189610e-09	-3.616587e+01	-8.037738e+01
4.100000e-07	-5.177996e-06	-1.187517e-09	-3.604924e+01	-8.022113e+01
4.200000e-07	-5.160961e-06	-1.215127e-09	-3.593064e+01	-8.006453e+01
4.300000e-07	-5.143613e-06	-1.208598e-09	-3.580986e+01	-7.990750e+01
4.400000e-07	-5.125946e-06	-1.159324e-09	-3.568686e+01	-7.974996e+01
4.500000e-07	-5.107937e-06	-1.221969e-09	-3.556149e+01	-7.959177e+01
4.600000e-07	-5.089592e-06	-1.228790e-09	-3.543377e+01	-7.943281e+01
4.700000e-07	-5.070823e-06	-1.162117e-09	-3.530310e+01	-7.927293e+01
4.800000e-07	-5.051592e-06	-1.167317e-09	-3.516921e+01	-7.911195e+01
4.900000e-07	-5.032157e-06	-1.242285e-09	-3.503391e+01	-7.894969e+01
5.000000e-07	-5.012580e-06	-1.181111e-09	-3.489761e+01	-7.878597e+01
5.100000e-07	-4.992730e-06	-1.147693e-09	-3.475941e+01	-7.862059e+01
5.200000e-07	-4.972543e-06	-1.204419e-09	-3.461887e+01	-7.845332e+01
5.300000e-07	-4.952021e-06	-1.198940e-09	-3.447600e+01	-7.828395e+01
5.400000e-07	-4.931104e-06	-1.144780e-09	-3.433037e+01	-7.811228e+01
5.500000e-07	-4.909796e-06	-1.199691e-09	-3.418203e+01	-7.793806e+01
5.600000e-07	-4.888195e-06	-1.205220e-09	-3.403164e+01	-7.776109e+01
5.700000e-07	-4.866234e-06	-1.132663e-09	-3.387875e+01	-7.758114e+01
5.800000e-07	-4.843927e-06	-1.156993e-09	-3.372344e+01	-7.739800e+01
5.900000e-07	-4.821388e-06	-1.206979e-09	-3.356653e+01	-7.721146e+01
6.000000e-07	-4.798516e-06	-1.149866e-09	-3.340729e+01	-7.702132e+01
6.100000e-07	-4.775282e-06	-1.131674e-09	-3.324554e+01	-7.682740e+01
6.200000e-07	-4.751846e-06	-1.181976e-09	-3.308238e+01	-7.662950e+01
6.300000e-07	-4.728251e-06	-1.147237e-09	-3.291811e+01	-7.642748e+01
6.400000e-07	-4.704422e-06	-1.112621e-09	-3.275221e+01	-7.622118e+01
6.500000e-07	-4.680201e-06	-1.148245e-09	-3.258358e+01	-7.601046e+01
6.600000e-07	-4.655476e-06	-1.151044e-09	-3.241145e+01	-7.579521e+01
6.700000e-07	-4.630227e-06	-1.111216e-09	-3.223567e+01	-7.557532e+01
6.800000e-07	-4.604439e-06	-1.135087e-09	-3.205613e+01	-7.535072e+01
6.900000e-07	-4.578088e-06	-1.138602e-09	-3.187267e+01	-7.512133e+01
7.000000e-07	-4.551144e-06	-1.105708e-09	-3.168509e+01	-7.488710e+01
7.100000e-07	-4.523792e-06	-1.099123e-09	-3.149466e+01	-7.464802e+01
7.200000e-07	-4.496275e-06	-1.119337e-09	-3.130309e+01	-7.440406e+01
7.300000e-07	-4.468615e-06	-1.093841e-09	-3.111052e+01	-7.415523e+01
7.400000e-07	-4.440825e-06	-1.089941e-09	-3.091705e+01	-7.390155e+01
7.500000e-07	-4.412888e-06	-1.102243e-09	-3.072255e+01	-7.364306e+01
7.600000e-07	-4.384691e-06	-1.096542e-09	-3.052624e+01	-7.337982e+01
7.700000e-07	-4.356111e-06	-1.074977e-09	-3.032727e+01	-7.311187e+01
7.800000e-07	-4.327163e-06	-1.080820e-09	-3.012573e+01	-7.283931e+01
7.900000e-07	-4.297914e-06	-1.074186e-09	-2.992210e+01	-7.256223e+01
8.000000e-07	-4.268420e-06	-1.063049e-09	-2.971676e+01	-7.228070e+01
8.100000e-07	-4.238649e-06	-1.059267e-09	-2.950950e+01	-7.199485e+01
8.200000e-07	-4.208608e-06	-1.058894e-09	-2.930035e+01	-7.170478e+01
8.300000e-07	-4.178262e-06	-1.043885e-09	-2.908908e+01	-7.141061e+01
8.400000e-07	-4.147489e-06	-1.042360e-09	-2.887484e+01	-7.111244e+01
8.500000e-07	-4.116392e-06	-1.042035e-09	-2.865834e+01	-7.081041e+01
8.600000e-07	-4.085124e-06	-1.031175e-09	-2.844066e+01	-7.050462e+01
8.700000e-07	-4.053721e-06	-1.021844e-09	-2.822203e+01	-7.019519e+01
8.800000e-07	-4.022166e-06	-1.023513e-09	-2.800234e+01	-6.988223e+01
8.900000e-07	-3.990450e-06	-1.019420e-09	-2.778153e+01	-6.956584e+01
9.000000e-07	-3.958548e-06	-1.008090e-09	-2.755943e+01	-6.924612e+01
9.100000e-07	-3.926341e-06	-1.006647e-09	-2.733521e+01	-6.892316e+01
9.200000e-07	-3.893719e-06	-9.995832e-10	-2.710809e+01	-6.859703e+01
9.300000e-07	-3.860631e-06	-9.896307e-10	-2.687773e+01	-6.826781e+01
9.400000e-07	-3.826954e-06	-9.864059e-10	-2.664327e+01	-6.793556e+01
9.500000e-07	-3.792822e-06	-9.877855e-10	-2.640565e+01	-6.760031e+01
9.600000e-07	-3.758380e-06	-9.750746e-10	-2.616586e+01	-6.726211e+01
9.700000e-07	-3.723610e-06	-9.686454e-10	-2.592379e+01	-6.692097e+01
9.800000e-07	-3.688513e-06	-9.659748e-10	-2.567944e+01	-6.657691e+01
9.900000e-07	-3.653109e-06	-9.607909e-10	-2.543296e+01	-6.622992e+01
1.000000e-06	-3.617580e-06	-9.503010e-10	-2.518561e+01	-6.587997e+01
1.010000e-06	-3.581984e-06	-9.513292e-10	-2.493779e+01	-6.552705e+01
1.020000e-06	-3.546237e-06	-9.469647e-10	-2.468892e+01	-6.517111e+01
1.030000e-06	-3.510333e-06	-9.382156e-10	-2.443895e+01	-6.481209e+01
1.040000e-06	-3.474246e-06	-9.305149e-10	-2.418772e+01	-6.444994e+01
1.050000e-06	-3.437886e-06	-9.291034e-10	-2.393458e+01	-6.408458e+01
1.060000e-06	-3.401160e-06	-9.182568e-10	-2.367890e+01	-6.371592e+01
1.070000e-06	-3.364089e-06	-9.116753e-10	-2.342081e+01	-6.334389e+01
1.080000e-06	-3.326810e-06	-9.073144e-10	-2.316127e+01	-6.296838e+01
1.090000e-06	-3.289401e-06	-9.011820e-10	-2.290083e+01	-6.258928e+01
1.100000e-06	-3.251773e-06	-8.914508e-10	-2.263886e+01	-6.220651e+01
1.110000e-06	-3.213898e-06	-8.874741e-10	-2.237518e+01	-6.181993e+01
1.120000e-06	-3.175802e-06	-8.806989e-10	-2.210995e+01	-6.142944e+01
1.130000e-06	-3.137415e-06	-8.717872e-10	-2.184270e+01	-6.103493e+01
1.140000e-06	-3.098689e-06	-8.661380e-10	-2.157309e+01	-6.063629e+01
1.150000e-06	-3.059765e-06	-8.609255e-10	-2.130210e+01	-6.023339e+01
1.160000e-06	-3.020768e-06	-8.514039e-10	-2.103061e+01	-5.982614e+01
1.170000e-06	-2.981613e-06	-8.439297e-10	-2.075800e+01	-5.941441e+01
1.180000e-06	-2.942228e-06	-8.408215e-10	-2.048381e+01	-5.899810e+01
1.190000e-06	-2.902676e-06	-8.354658e-10	-2.020845e+01	-5.857711e+01
1.200000e-06	-2.863055e-06	-8.280173e-10	-1.993261e+01	-5.815134e+01
1.210000e-06	-2.823376e-06	-8.220135e-10	-1.965636e+01	-5.772069e+01
1.220000e-06	-2.783595e-06	-8.168348e-10	-1.937941e+01	-5.728507e+01
1.230000e-06	-2.743625e-06	-8.074489e-10	-1.910113e+01	-5.684439e+01
1.240000e-06	-2.703370e-06	-7.990607e-10	-1.882088e+01	-5.639857e+01
1.250000e-06	-2.662815e-06	-7.914649e-10	-1.853853e+01	-5.594752e+01
1.260000e-06	-2.622086e-06	-7.851073e-10	-1.825498e+01	-5.549116e+01
1.270000e-06	-2.581209e-06	-7.761065e-10	-1.797039e+01	-5.502941e+01
1.280000e-06	-2.539988e-06	-7.705621e-10	-1.768341e+01	-5.456218e+01
1.290000e-06	-2.498378e-06	-7.640855e-10	-1.739372e+01	-5.408941e+01
1.300000e-06	-2.456494e-06	-7.554323e-10	-1.710213e+01	-5.361101e+01
1.310000e-06	-2.414366e-06	-7.440634e-10	-1.680883e+01	-5.312688e+01
1.320000e-06	-2.371979e-06	-7.339836e-10	-1.651373e+01	-5.263695e+01
1.330000e-06	-2.329334e-06	-7.230366e-10	-1.621684e+01	-5.214110e+01
1.340000e-06	-2.286409e-06	-7.159037e-10	-1.591799e+01	-5.163923e+01
1.350000e-06	-2.243228e-06	-7.114752e-10	-1.561736e+01	-5.113122e+01
1.360000e-06	-2.199886e-06	-7.053961e-10	-1.531562e+01	-5.061695e+01
1.370000e-06	-2.156436e-06	-6.946848e-10	-1.501312e+01	-5.009628e+01
1.380000e-06	-2.112885e-06	-6.882218e-10	-1.470991e+01	-4.956904e+01
1.390000e-06	-2.069222e-06	-6.799423e-10	-1.440593e+01	-4.903507e+01
1.400000e-06	-2.025517e-06	-6.700753e-10	-1.410166e+01	-4.849417e+01
1.410000e-06	-1.981823e-06	-6.620811e-10	-1.379746e+01	-4.794614e+01
1.420000e-06	-1.938095e-06	-6.561941e-10	-1.349303e+01	-4.739074e+01
1.430000e-06	-1.894249e-06	-6.481997e-10	-1.318777e+01	-4.682773e+01
1.440000e-06	-1.850241e-06	-6.384943e-10	-1.288139e+01	-4.625683e+01
1.450000e-06	-1.806128e-06	-6.279970e-10	-1.257427e+01	-4.567774e+01
1.460000e-06	-1.761919e-06	-6.157315e-10	-1.226649e+01	-4.509015e+01
1.470000e-06	-1.717518e-06	-6.019447e-10	-1.195737e+01	-4.449371e+01
1.480000e-06	-1.673033e-06	-5.895242e-10	-1.164766e+01	-4.388806e+01
1.490000e-06	-1.628440e-06	-5.798181e-10	-1.133720e+01	-4.327282e+01
1.500000e-06	-1.583647e-06	-5.728162e-10	-1.102536e+01	-4.264757e+01
1.510000e-06	-1.538719e-06	-5.666324e-10	-1.071257e+01	-4.201187e+01
1.520000e-06	-1.493678e-06	-5.584614e-10	-1.039899e+01	-4.136529e+01
1.530000e-06	-1.448502e-06	-5.501618e-10	-1.008448e+01	-4.070735e+01
1.540000e-06	-1.403123e-06	-5.395762e-10	-9.768549e+00	-4.003756e+01
1.550000e-06	-1.357706e-06	-5.275789e-10	-9.452353e+00	-3.935542e+01
1.560000e-06	-1.312269e-06	-5.137732e-10	-9.136021e+00	-3.866043e+01
1.570000e-06	-1.266803e-06	-5.024734e-10	-8.819487e+00	-3.795205e+01
1.580000e-06	-1.221327e-06	-4.937108e-10	-8.502884e+00	-3.722976e+01
1.590000e-06	-1.175706e-06	-4.872189e-10	-8.185270e+00	-3.649302e+01
1.600000e-06	-1.129940e-06	-4.784433e-10	-7.866648e+00	-3.574131e+01
1.610000e-06	-1.084107e-06	-4.661594e-10	-7.547559e+00	-3.497409e+01
1.620000e-06	-1.038258e-06	-4.519399e-10	-7.228355e+00	-3.419084e+01
1.630000e-06	-9.923317e-07	-4.401660e-10	-6.908618e+00	-3.339104e+01
1.640000e-06	-9.462922e-07	-4.296309e-10	-6.588091e+00	-3.257419e+01
1.650000e-06	-9.000881e-07	-4.187444e-10	-6.266418e+00	-3.173982e+01
1.660000e-06	-8.538678e-07	-4.086147e-10	-5.944632e+00	-3.088746e+01
1.670000e-06	-8.076936e-07	-3.977603e-10	-5.623167e+00	-3.001669e+01
1.680000e-06	-7.614346e-07	-3.826667e-10	-5.301112e+00	-2.912709e+01
1.690000e-06	-7.151966e-07	-3.663596e-10	-4.979202e+00	-2.821831e+01
1.700000e-06	-6.689588e-07	-3.507820e-10	-4.657295e+00	-2.729001e+01
1.710000e-06	-6.225365e-07	-3.363452e-10	-4.334103e+00	-2.634190e+01
1.720000e-06	-5.760224e-07	-3.210818e-10	-4.010271e+00	-2.537374e+01
1.730000e-06	-5.295722e-07	-3.043782e-10	-3.686884e+00	-2.438532e+01
1.740000e-06	-4.830453e-07	-2.856508e-10	-3.362964e+00	-2.337651e+01
1.750000e-06	-4.364414e-07	-2.679688e-10	-3.038508e+00	-2.234722e+01
1.760000e-06	-3.898256e-07	-2.530653e-10	-2.713968e+00	-2.129741e+01
1.770000e-06	-3.430897e-07	-2.396890e-10	-2.388592e+00	-2.022710e+01
1.780000e-06	-2.962913e-07	-2.274176e-10	-2.062781e+00	-1.913639e+01
1.790000e-06	-2.494878e-07	-2.139217e-10	-1.736936e+00	-1.802541e+01
1.800000e-06	-2.026689e-07	-1.977081e-10	-1.410982e+00	-1.689439e+01
1.810000e-06	-1.559150e-07	-1.798497e-10	-1.085481e+00	-1.574359e+01
1.820000e-06	-1.092083e-07	-1.633653e-10	-7.603088e-01	-1.457336e+01
1.830000e-06	-6.249486e-08	-1.494809e-10	-4.350895e-01	-1.338410e+01
1.840000e-06	-1.568997e-08	-1.361243e-10	-1.092336e-01	-1.217628e+01
1.850000e-06	3.113944e-08	-1.214194e-10	2.167930e-01	-1.095045e+01
1.860000e-06	7.793395e-08	-1.070036e-10	5.425765e-01	-9.707181e+00
1.870000e-06	1.246699e-07	-8.925178e-11	8.679525e-01	-8.447148e+00
1.880000e-06	1.713702e-07	-6.916373e-11	1.193080e+00	-7.171065e+00
1.890000e-06	2.181034e-07	-4.889817e-11	1.518437e+00	-5.879704e+00
1.900000e-06	2.648192e-07	-2.987997e-11	1.843672e+00	-4.573896e+00
1.910000e-06	3.114925e-07	-1.173180e-11	2.168613e+00	-3.254518e+00
1.920000e-06	3.581819e-07	5.708513e-12	2.493664e+00	-1.922501e+00
1.930000e-06	4.048305e-07	2.254830e-11	2.818432e+00	-5.788163e-01
1.940000e-06	4.513551e-07	4.003278e-11	3.142337e+00	7.755217e-01
1.950000e-06	4.978626e-07	5.809834e-11	3.466122e+00	2.139462e+00
1.960000e-06	5.443182e-07	7.610991e-11	3.789546e+00	3.511922e+00
1.970000e-06	5.907036e-07	9.425311e-11	4.112481e+00	4.891788e+00
1.980000e-06	6.370759e-07	1.117925e-10	4.435326e+00	6.277925e+00
1.990000e-06	6.833357e-07	1.309977e-10	4.757386e+00	7.669177e+00
2.000000e-06	7.295056e-07	1.480056e-10	5.078822e+00	9.064375e+00
2.010000e-06	7.756871e-07	1.645371e-10	5.400338e+00	1.046234e+01
2.020000e-06	8.218340e-07	1.855958e-10	5.721613e+00	1.186188e+01
2.030000e-06	8.679222e-07	2.104871e-10	6.042479e+00	1.326181e+01
2.040000e-06	9.139497e-07	2.342295e-10	6.362923e+00	1.466096e+01
2.050000e-06	9.599744e-07	2.551992e-10	6.683347e+00	1.605814e+01
2.060000e-06	1.005961e-06	2.733161e-10	7.003508e+00	1.745219e+01
2.070000e-06	1.051849e-06	2.897795e-10	7.322982e+00	1.884197e+01
2.080000e-06	1.097672e-06	3.077237e-10	7.641995e+00	2.022635e+01
2.090000e-06	1.143417e-06	3.279211e-10	7.960477e+00	2.160423e+01
2.100000e-06	1.189094e-06	3.515531e-10	8.278481e+00	2.297454e+01
2.110000e-06	1.234691e-06	3.740693e-10	8.595924e+00	2.433624e+01
2.120000e-06	1.280149e-06	3.937634e-10	8.912401e+00	2.568832e+01
2.130000e-06	1.325531e-06	4.120532e-10	9.228355e+00	2.702981e+01
2.140000e-06	1.370865e-06	4.294621e-10	9.543966e+00	2.835977e+01
2.150000e-06	1.416072e-06	4.458605e-10	9.858702e+00	2.967733e+01
2.160000e-06	1.461247e-06	4.623195e-10	1.017321e+01	3.098162e+01
2.170000e-06	1.506310e-06	4.800946e-10	1.048694e+01	3.227186e+01
2.180000e-06	1.551189e-06	5.019668e-10	1.079938e+01	3.354729e+01
2.190000e-06	1.595963e-06	5.226914e-10	1.111110e+01	3.480720e+01
2.200000e-06	1.640576e-06	5.406590e-10	1.142170e+01	3.605092e+01
2.210000e-06	1.685104e-06	5.562033e-10	1.173171e+01	3.727786e+01
2.220000e-06	1.729478e-06	5.708197e-10	1.204063e+01	3.848744e+01
2.230000e-06	1.773677e-06	5.866674e-10	1.234835e+01	3.967915e+01
2.240000e-06	1.817759e-06	6.020621e-10	1.265525e+01	4.085252e+01
2.250000e-06	1.861672e-06	6.184085e-10	1.296097e+01	4.200714e+01
2.260000e-06	1.905507e-06	6.333860e-10	1.326615e+01	4.314264e+01
2.270000e-06	1.949296e-06	6.503325e-10	1.357101e+01	4.425867e+01
2.280000e-06	1.993074e-06	6.692170e-10	1.387579e+01	4.535497e+01
2.290000e-06	2.036803e-06	6.871191e-10	1.418023e+01	4.643130e+01
2.300000e-06	2.080406e-06	7.012804e-10	1.448380e+01	4.748744e+01
2.310000e-06	2.123958e-06	7.121374e-10	1.478700e+01	4.852326e+01
2.320000e-06	2.167421e-06	7.241451e-10	1.508960e+01	4.953862e+01
2.330000e-06	2.210735e-06	7.370350e-10	1.539115e+01	5.053344e+01
2.340000e-06	2.253870e-06	7.507535e-10	1.569145e+01	5.150768e+01
2.350000e-06	2.296878e-06	7.667753e-10	1.599088e+01	5.246132e+01
2.360000e-06	2.339696e-06	7.846702e-10	1.628898e+01	5.339437e+01
2.370000e-06	2.382246e-06	7.986695e-10	1.658521e+01	5.430689e+01
2.380000e-06	2.424562e-06	8.090925e-10	1.687981e+01	5.519895e+01
2.390000e-06	2.466653e-06	8.192500e-10	1.717285e+01	5.607065e+01
2.400000e-06	2.508527e-06	8.291243e-10	1.746438e+01	5.692211e+01
2.410000e-06	2.550095e-06	8.393478e-10	1.775378e+01	5.775348e+01
2.420000e-06	2.591216e-06	8.504534e-10	1.804006e+01	5.856493e+01
2.430000e-06	2.631974e-06	8.639143e-10	1.832382e+01	5.935665e+01
2.440000e-06	2.672531e-06	8.772075e-10	1.860618e+01	6.012886e+01
2.450000e-06	2.712823e-06	8.875405e-10	1.888669e+01	6.088176e+01
2.460000e-06	2.752892e-06	8.972620e-10	1.916565e+01	6.161561e+01
2.470000e-06	2.792782e-06	9.066098e-10	1.944336e+01	6.233067e+01
2.480000e-06	2.832480e-06	9.160662e-10	1.971974e+01	6.302720e+01
2.490000e-06	2.872134e-06	9.249448e-10	1.999581e+01	6.370549e+01
2.500000e-06	2.911773e-06	9.323095e-10	2.027178e+01	6.436583e+01
2.510000e-06	2.951219e-06	9.423327e-10	2.054640e+01	6.500854e+01
2.520000e-06	2.990446e-06	9.538602e-10	2.081950e+01	6.563392e+01
2.530000e-06	3.029559e-06	9.652122e-10	2.109180e+01	6.624232e+01
2.540000e-06	3.068555e-06	9.723211e-10	2.136330e+01	6.683407e+01
2.550000e-06	3.107295e-06	9.760317e-10	2.163300e+01	6.740951e+01
2.560000e-06	3.145778e-06	9.817242e-10	2.190092e+01	6.796900e+01
2.570000e-06	3.184009e-06	9.885922e-10	2.216709e+01	6.851291e+01
2.580000e-06	3.221985e-06	9.968975e-10	2.243147e+01	6.904161e+01
2.590000e-06	3.259727e-06	1.004881e-09	2.269424e+01	6.955546e+01
2.600000e-06	3.297192e-06	1.014173e-09	2.295506e+01	7.005487e+01
2.610000e-06	3.334444e-06	1.021165e-09	2.321441e+01	7.054020e+01
2.620000e-06	3.371573e-06	1.025052e-09	2.347291e+01	7.101187e+01
2.630000e-06	3.408487e-06	1.028973e-09	2.372990e+01	7.147026e+01
2.640000e-06	3.445091e-06	1.034827e-09	2.398474e+01	7.191578e+01
2.650000e-06	3.481399e-06	1.041388e-09	2.423752e+01	7.234884e+01
2.660000e-06	3.517471e-06	1.048153e-09	2.448865e+01	7.276983e+01
2.670000e-06	3.553351e-06	1.054257e-09	2.473845e+01	7.317917e+01
2.680000e-06	3.589085e-06	1.059271e-09	2.498723e+01	7.357726e+01
2.690000e-06	3.624732e-06	1.064758e-09	2.523541e+01	7.396451e+01
2.700000e-06	3.660215e-06	1.070535e-09	2.548243e+01	7.434133e+01
2.710000e-06	3.695512e-06	1.075429e-09	2.572818e+01	7.470811e+01
2.720000e-06	3.730587e-06	1.081751e-09	2.597236e+01	7.506526e+01
2.730000e-06	3.765355e-06	1.090027e-09	2.621442e+01	7.541317e+01
2.740000e-06	3.799692e-06	1.096986e-09	2.645347e+01	7.575221e+01
2.750000e-06	3.833631e-06	1.101272e-09	2.668976e+01	7.608278e+01
2.760000e-06	3.867147e-06	1.104789e-09	2.692310e+01	7.640523e+01
2.770000e-06	3.900121e-06	1.109082e-09	2.715266e+01	7.671993e+01
2.780000e-06	3.932716e-06	1.114250e-09	2.737959e+01	7.702722e+01
2.790000e-06	3.965028e-06	1.120295e-09	2.760455e+01	7.732745e+01
2.800000e-06	3.997070e-06	1.126721e-09	2.782762e+01	7.762092e+01
2.810000e-06	4.028866e-06	1.133230e-09	2.804899e+01	7.790794e+01
2.820000e-06	4.060471e-06	1.137377e-09	2.826902e+01	7.818880e+01
2.830000e-06	4.091878e-06	1.140356e-09	2.848768e+01	7.846378e+01
2.840000e-06	4.123038e-06	1.143850e-09	2.870461e+01	7.873312e+01
2.850000e-06	4.153958e-06	1.150409e-09	2.891988e+01	7.899706e+01
2.860000e-06	4.184644e-06	1.155620e-09	2.913351e+01	7.925581e+01
2.870000e-06	4.215006e-06	1.158367e-09	2.934490e+01	7.950957e+01
2.880000e-06	4.244954e-06	1.159803e-09	2.955339e+01	7.975852e+01
2.890000e-06	4.274569e-06	1.161029e-09	2.975957e+01	8.000279e+01
2.900000e-06	4.303970e-06	1.162930e-09	2.996426e+01	8.024253e+01
