# Temperatura_=_-0.9
# Concentracion g/m^3_=_1620.0
# C_Vs_to_Am_M_A/Vsm_=_65563218390.804596
# pendiente_HvsI_1/m_=_3716.3
# ordenada_HvsI_A/m_=_1297.0
# frecuencia_Hz_=_135102.01063754942

Tiempo_(s)	Campo_(V.s)	Magnetizacion_(V.s)	Campo_(kA/m)	Magnetizacion_(A/m)
0.000000e+00	-5.509789e-06	-1.178106e-09	-3.836461e+01	-7.720680e+01
1.000000e-08	-5.509925e-06	-1.175189e-09	-3.836555e+01	-7.716448e+01
2.000000e-08	-5.509833e-06	-1.174155e-09	-3.836491e+01	-7.712302e+01
3.000000e-08	-5.509319e-06	-1.175855e-09	-3.836133e+01	-7.708236e+01
4.000000e-08	-5.508284e-06	-1.175306e-09	-3.835413e+01	-7.704243e+01
5.000000e-08	-5.506681e-06	-1.162566e-09	-3.834297e+01	-7.700312e+01
6.000000e-08	-5.504409e-06	-1.145820e-09	-3.832715e+01	-7.696431e+01
7.000000e-08	-5.501614e-06	-1.153281e-09	-3.830768e+01	-7.692585e+01
8.000000e-08	-5.498372e-06	-1.198284e-09	-3.828511e+01	-7.688758e+01
9.000000e-08	-5.494663e-06	-1.284518e-09	-3.825928e+01	-7.684932e+01
1.000000e-07	-5.490565e-06	-1.291588e-09	-3.823075e+01	-7.681086e+01
1.100000e-07	-5.486120e-06	-1.154683e-09	-3.819980e+01	-7.677198e+01
1.200000e-07	-5.481479e-06	-1.031903e-09	-3.816749e+01	-7.673246e+01
1.300000e-07	-5.476665e-06	-1.145913e-09	-3.813396e+01	-7.669205e+01
1.400000e-07	-5.471411e-06	-1.248413e-09	-3.809738e+01	-7.665050e+01
1.500000e-07	-5.465721e-06	-1.182967e-09	-3.805776e+01	-7.660754e+01
1.600000e-07	-5.459770e-06	-1.053499e-09	-3.801633e+01	-7.656292e+01
1.700000e-07	-5.453355e-06	-1.164315e-09	-3.797166e+01	-7.651636e+01
1.800000e-07	-5.446349e-06	-1.305856e-09	-3.792287e+01	-7.646760e+01
1.900000e-07	-5.438990e-06	-1.209974e-09	-3.787164e+01	-7.641636e+01
2.000000e-07	-5.431419e-06	-1.055445e-09	-3.781892e+01	-7.636237e+01
2.100000e-07	-5.423616e-06	-1.103451e-09	-3.776459e+01	-7.630539e+01
2.200000e-07	-5.415549e-06	-1.254079e-09	-3.770841e+01	-7.624515e+01
2.300000e-07	-5.407280e-06	-1.230945e-09	-3.765084e+01	-7.618141e+01
2.400000e-07	-5.398658e-06	-1.150936e-09	-3.759080e+01	-7.611393e+01
2.500000e-07	-5.389186e-06	-1.149442e-09	-3.752485e+01	-7.604250e+01
2.600000e-07	-5.378878e-06	-1.207228e-09	-3.745307e+01	-7.596690e+01
2.700000e-07	-5.368108e-06	-1.153487e-09	-3.737808e+01	-7.588695e+01
2.800000e-07	-5.356899e-06	-1.121253e-09	-3.730004e+01	-7.580247e+01
2.900000e-07	-5.345273e-06	-1.149784e-09	-3.721908e+01	-7.571331e+01
3.000000e-07	-5.333333e-06	-1.188223e-09	-3.713594e+01	-7.561932e+01
3.100000e-07	-5.321000e-06	-1.136953e-09	-3.705007e+01	-7.552039e+01
3.200000e-07	-5.308126e-06	-1.120889e-09	-3.696043e+01	-7.541641e+01
3.300000e-07	-5.294821e-06	-1.132411e-09	-3.686779e+01	-7.530732e+01
3.400000e-07	-5.281214e-06	-1.158947e-09	-3.677304e+01	-7.519304e+01
3.500000e-07	-5.267206e-06	-1.133899e-09	-3.667550e+01	-7.507355e+01
3.600000e-07	-5.252699e-06	-1.121455e-09	-3.657449e+01	-7.494882e+01
3.700000e-07	-5.237864e-06	-1.140310e-09	-3.647120e+01	-7.481887e+01
3.800000e-07	-5.222658e-06	-1.163347e-09	-3.636531e+01	-7.468370e+01
3.900000e-07	-5.206734e-06	-1.121312e-09	-3.625444e+01	-7.454336e+01
4.000000e-07	-5.190254e-06	-1.108117e-09	-3.613969e+01	-7.439792e+01
4.100000e-07	-5.173430e-06	-1.157983e-09	-3.602254e+01	-7.424744e+01
4.200000e-07	-5.156317e-06	-1.136806e-09	-3.590339e+01	-7.409203e+01
4.300000e-07	-5.138819e-06	-1.077914e-09	-3.578155e+01	-7.393178e+01
4.400000e-07	-5.121062e-06	-1.135925e-09	-3.565791e+01	-7.376681e+01
4.500000e-07	-5.103043e-06	-1.196443e-09	-3.553244e+01	-7.359727e+01
4.600000e-07	-5.084443e-06	-1.096382e-09	-3.540292e+01	-7.342329e+01
4.700000e-07	-5.065390e-06	-1.072501e-09	-3.527026e+01	-7.324504e+01
4.800000e-07	-5.046010e-06	-1.162120e-09	-3.513532e+01	-7.306266e+01
4.900000e-07	-5.026374e-06	-1.140103e-09	-3.499860e+01	-7.287633e+01
5.000000e-07	-5.006597e-06	-1.055359e-09	-3.486089e+01	-7.268622e+01
5.100000e-07	-4.986654e-06	-1.124055e-09	-3.472203e+01	-7.249251e+01
5.200000e-07	-4.966425e-06	-1.138599e-09	-3.458117e+01	-7.229538e+01
5.300000e-07	-4.945829e-06	-1.067115e-09	-3.443776e+01	-7.209500e+01
5.400000e-07	-4.924874e-06	-1.105984e-09	-3.429185e+01	-7.189156e+01
5.500000e-07	-4.903616e-06	-1.167238e-09	-3.414383e+01	-7.168522e+01
5.600000e-07	-4.882035e-06	-1.068030e-09	-3.399356e+01	-7.147617e+01
5.700000e-07	-4.860098e-06	-1.051426e-09	-3.384082e+01	-7.126456e+01
5.800000e-07	-4.837729e-06	-1.135504e-09	-3.368506e+01	-7.105057e+01
5.900000e-07	-4.814874e-06	-1.103415e-09	-3.352592e+01	-7.083434e+01
6.000000e-07	-4.791762e-06	-1.038728e-09	-3.336499e+01	-7.061602e+01
6.100000e-07	-4.768536e-06	-1.100183e-09	-3.320327e+01	-7.039574e+01
6.200000e-07	-4.744995e-06	-1.099741e-09	-3.303935e+01	-7.017364e+01
6.300000e-07	-4.721145e-06	-1.038280e-09	-3.287329e+01	-6.994982e+01
6.400000e-07	-4.697102e-06	-1.063807e-09	-3.270587e+01	-6.972440e+01
6.500000e-07	-4.672713e-06	-1.091917e-09	-3.253606e+01	-6.949747e+01
6.600000e-07	-4.647795e-06	-1.043279e-09	-3.236255e+01	-6.926911e+01
6.700000e-07	-4.622428e-06	-1.046919e-09	-3.218592e+01	-6.903938e+01
6.800000e-07	-4.596665e-06	-1.079204e-09	-3.200653e+01	-6.880836e+01
6.900000e-07	-4.570313e-06	-1.050724e-09	-3.182304e+01	-6.857607e+01
7.000000e-07	-4.543411e-06	-1.034129e-09	-3.163572e+01	-6.834255e+01
7.100000e-07	-4.516160e-06	-1.053367e-09	-3.144598e+01	-6.810783e+01
7.200000e-07	-4.488632e-06	-1.042955e-09	-3.125430e+01	-6.787191e+01
7.300000e-07	-4.460926e-06	-1.024633e-09	-3.106138e+01	-6.763478e+01
7.400000e-07	-4.433106e-06	-1.038899e-09	-3.086767e+01	-6.739642e+01
7.500000e-07	-4.405049e-06	-1.037286e-09	-3.067231e+01	-6.715682e+01
7.600000e-07	-4.376697e-06	-1.024821e-09	-3.047490e+01	-6.691592e+01
7.700000e-07	-4.348089e-06	-1.021705e-09	-3.027570e+01	-6.667368e+01
7.800000e-07	-4.319146e-06	-1.019724e-09	-3.007417e+01	-6.643005e+01
7.900000e-07	-4.289851e-06	-1.008272e-09	-2.987019e+01	-6.618495e+01
8.000000e-07	-4.260251e-06	-1.012011e-09	-2.966408e+01	-6.593831e+01
8.100000e-07	-4.230438e-06	-1.006347e-09	-2.945650e+01	-6.569003e+01
8.200000e-07	-4.200351e-06	-9.948380e-10	-2.924700e+01	-6.544004e+01
8.300000e-07	-4.169849e-06	-9.906109e-10	-2.903462e+01	-6.518822e+01
8.400000e-07	-4.139020e-06	-9.939312e-10	-2.881996e+01	-6.493448e+01
8.500000e-07	-4.107881e-06	-9.769025e-10	-2.860313e+01	-6.467870e+01
8.600000e-07	-4.076517e-06	-9.694808e-10	-2.838475e+01	-6.442076e+01
8.700000e-07	-4.044991e-06	-9.697256e-10	-2.816523e+01	-6.416056e+01
8.800000e-07	-4.013311e-06	-9.659361e-10	-2.794464e+01	-6.389797e+01
8.900000e-07	-3.981485e-06	-9.562198e-10	-2.772304e+01	-6.363285e+01
9.000000e-07	-3.949459e-06	-9.553662e-10	-2.750004e+01	-6.336509e+01
9.100000e-07	-3.917157e-06	-9.466826e-10	-2.727513e+01	-6.309456e+01
9.200000e-07	-3.884444e-06	-9.312250e-10	-2.704735e+01	-6.282113e+01
9.300000e-07	-3.851329e-06	-9.269777e-10	-2.681677e+01	-6.254467e+01
9.400000e-07	-3.817736e-06	-9.302218e-10	-2.658286e+01	-6.226505e+01
9.500000e-07	-3.783589e-06	-9.211405e-10	-2.634509e+01	-6.198214e+01
9.600000e-07	-3.749075e-06	-9.132608e-10	-2.610477e+01	-6.169583e+01
9.700000e-07	-3.714249e-06	-9.132329e-10	-2.586228e+01	-6.140598e+01
9.800000e-07	-3.679055e-06	-9.072390e-10	-2.561723e+01	-6.111248e+01
9.900000e-07	-3.643573e-06	-8.996865e-10	-2.537017e+01	-6.081521e+01
1.000000e-06	-3.607909e-06	-8.987517e-10	-2.512183e+01	-6.051406e+01
1.010000e-06	-3.572139e-06	-8.945483e-10	-2.487277e+01	-6.020892e+01
1.020000e-06	-3.536257e-06	-8.847693e-10	-2.462292e+01	-5.989968e+01
1.030000e-06	-3.500236e-06	-8.823360e-10	-2.437211e+01	-5.958625e+01
1.040000e-06	-3.464031e-06	-8.818005e-10	-2.412001e+01	-5.926852e+01
1.050000e-06	-3.427552e-06	-8.761033e-10	-2.386601e+01	-5.894642e+01
1.060000e-06	-3.390760e-06	-8.665954e-10	-2.360983e+01	-5.861984e+01
1.070000e-06	-3.353671e-06	-8.633313e-10	-2.335158e+01	-5.828873e+01
1.080000e-06	-3.316322e-06	-8.561809e-10	-2.309152e+01	-5.795300e+01
1.090000e-06	-3.278763e-06	-8.491472e-10	-2.282999e+01	-5.761259e+01
1.100000e-06	-3.241058e-06	-8.426348e-10	-2.256746e+01	-5.726743e+01
1.110000e-06	-3.203144e-06	-8.366194e-10	-2.230346e+01	-5.691748e+01
1.120000e-06	-3.164940e-06	-8.270097e-10	-2.203745e+01	-5.656268e+01
1.130000e-06	-3.126489e-06	-8.223932e-10	-2.176971e+01	-5.620300e+01
1.140000e-06	-3.087885e-06	-8.184374e-10	-2.150091e+01	-5.583839e+01
1.150000e-06	-3.049120e-06	-8.124801e-10	-2.123099e+01	-5.546882e+01
1.160000e-06	-3.010158e-06	-8.050741e-10	-2.095970e+01	-5.509427e+01
1.170000e-06	-2.971006e-06	-8.013159e-10	-2.068709e+01	-5.471471e+01
1.180000e-06	-2.931665e-06	-7.966173e-10	-2.041316e+01	-5.433013e+01
1.190000e-06	-2.892113e-06	-7.915878e-10	-2.013776e+01	-5.394051e+01
1.200000e-06	-2.852389e-06	-7.850486e-10	-1.986115e+01	-5.354584e+01
1.210000e-06	-2.812586e-06	-7.785426e-10	-1.958401e+01	-5.314611e+01
1.220000e-06	-2.772659e-06	-7.709722e-10	-1.930600e+01	-5.274131e+01
1.230000e-06	-2.732539e-06	-7.665839e-10	-1.902664e+01	-5.233145e+01
1.240000e-06	-2.692291e-06	-7.611292e-10	-1.874639e+01	-5.191651e+01
1.250000e-06	-2.651876e-06	-7.523325e-10	-1.846498e+01	-5.149648e+01
1.260000e-06	-2.611199e-06	-7.446896e-10	-1.818176e+01	-5.107135e+01
1.270000e-06	-2.570253e-06	-7.375926e-10	-1.789665e+01	-5.064112e+01
1.280000e-06	-2.529013e-06	-7.321312e-10	-1.760949e+01	-5.020577e+01
1.290000e-06	-2.487462e-06	-7.259528e-10	-1.732017e+01	-4.976526e+01
1.300000e-06	-2.445648e-06	-7.193797e-10	-1.702903e+01	-4.931958e+01
1.310000e-06	-2.403587e-06	-7.114259e-10	-1.673615e+01	-4.886869e+01
1.320000e-06	-2.361252e-06	-7.030891e-10	-1.644137e+01	-4.841254e+01
1.330000e-06	-2.318527e-06	-6.952496e-10	-1.614388e+01	-4.795108e+01
1.340000e-06	-2.275559e-06	-6.880865e-10	-1.584469e+01	-4.748424e+01
1.350000e-06	-2.232426e-06	-6.800790e-10	-1.554436e+01	-4.701193e+01
1.360000e-06	-2.189060e-06	-6.728876e-10	-1.524241e+01	-4.653406e+01
1.370000e-06	-2.145598e-06	-6.663472e-10	-1.493978e+01	-4.605052e+01
1.380000e-06	-2.102037e-06	-6.626449e-10	-1.463646e+01	-4.556118e+01
1.390000e-06	-2.058367e-06	-6.557948e-10	-1.433239e+01	-4.506591e+01
1.400000e-06	-2.014621e-06	-6.449582e-10	-1.402779e+01	-4.456452e+01
1.410000e-06	-1.970772e-06	-6.340149e-10	-1.372247e+01	-4.405685e+01
1.420000e-06	-1.926827e-06	-6.253482e-10	-1.341648e+01	-4.354268e+01
1.430000e-06	-1.882786e-06	-6.175084e-10	-1.310982e+01	-4.302179e+01
1.440000e-06	-1.838681e-06	-6.113515e-10	-1.280272e+01	-4.249394e+01
1.450000e-06	-1.794536e-06	-6.055816e-10	-1.249534e+01	-4.195885e+01
1.460000e-06	-1.750227e-06	-5.976502e-10	-1.218681e+01	-4.141624e+01
1.470000e-06	-1.705799e-06	-5.865040e-10	-1.187746e+01	-4.086578e+01
1.480000e-06	-1.661277e-06	-5.758512e-10	-1.156746e+01	-4.030715e+01
1.490000e-06	-1.616681e-06	-5.645735e-10	-1.125693e+01	-3.973999e+01
1.500000e-06	-1.571926e-06	-5.543057e-10	-1.094531e+01	-3.916391e+01
1.510000e-06	-1.526947e-06	-5.462897e-10	-1.063212e+01	-3.857852e+01
1.520000e-06	-1.481918e-06	-5.375787e-10	-1.031858e+01	-3.798340e+01
1.530000e-06	-1.436924e-06	-5.286857e-10	-1.000529e+01	-3.737810e+01
1.540000e-06	-1.391910e-06	-5.181636e-10	-9.691855e+00	-3.676218e+01
1.550000e-06	-1.346747e-06	-5.053368e-10	-9.377384e+00	-3.613516e+01
1.560000e-06	-1.301348e-06	-4.937041e-10	-9.061274e+00	-3.549656e+01
1.570000e-06	-1.255753e-06	-4.811228e-10	-8.743797e+00	-3.484589e+01
1.580000e-06	-1.210107e-06	-4.704414e-10	-8.425961e+00	-3.418263e+01
1.590000e-06	-1.164468e-06	-4.627805e-10	-8.108182e+00	-3.350629e+01
1.600000e-06	-1.118738e-06	-4.517137e-10	-7.789759e+00	-3.281635e+01
1.610000e-06	-1.072877e-06	-4.385057e-10	-7.470432e+00	-3.211229e+01
1.620000e-06	-1.026978e-06	-4.288632e-10	-7.150841e+00	-3.139360e+01
1.630000e-06	-9.809905e-07	-4.226712e-10	-6.830627e+00	-3.065978e+01
1.640000e-06	-9.349015e-07	-4.153388e-10	-6.509710e+00	-2.991032e+01
1.650000e-06	-8.887445e-07	-4.032873e-10	-6.188319e+00	-2.914475e+01
1.660000e-06	-8.425403e-07	-3.912048e-10	-5.866600e+00	-2.836260e+01
1.670000e-06	-7.963052e-07	-3.763219e-10	-5.544666e+00	-2.756341e+01
1.680000e-06	-7.500722e-07	-3.589300e-10	-5.222745e+00	-2.674677e+01
1.690000e-06	-7.038162e-07	-3.453399e-10	-4.900665e+00	-2.591228e+01
1.700000e-06	-6.574760e-07	-3.326340e-10	-4.577999e+00	-2.505958e+01
1.710000e-06	-6.110943e-07	-3.205179e-10	-4.255044e+00	-2.418833e+01
1.720000e-06	-5.645722e-07	-3.066213e-10	-3.931111e+00	-2.329824e+01
1.730000e-06	-5.180048e-07	-2.905630e-10	-3.606862e+00	-2.238907e+01
1.740000e-06	-4.715229e-07	-2.723540e-10	-3.283209e+00	-2.146061e+01
1.750000e-06	-4.250568e-07	-2.549449e-10	-2.959666e+00	-2.051271e+01
1.760000e-06	-3.785561e-07	-2.400258e-10	-2.635883e+00	-1.954526e+01
1.770000e-06	-3.319572e-07	-2.281755e-10	-2.311415e+00	-1.855822e+01
1.780000e-06	-2.852386e-07	-2.174244e-10	-1.986113e+00	-1.755160e+01
1.790000e-06	-2.384144e-07	-2.040761e-10	-1.660077e+00	-1.652545e+01
1.800000e-06	-1.915972e-07	-1.862193e-10	-1.334089e+00	-1.547993e+01
1.810000e-06	-1.448817e-07	-1.686301e-10	-1.008810e+00	-1.441521e+01
1.820000e-06	-9.816054e-08	-1.529178e-10	-6.834909e-01	-1.333157e+01
1.830000e-06	-5.134090e-08	-1.393005e-10	-3.574862e-01	-1.222931e+01
1.840000e-06	-4.578247e-09	-1.270230e-10	-3.187829e-02	-1.110884e+01
1.850000e-06	4.212489e-08	-1.130858e-10	2.933152e-01	-9.970610e+00
1.860000e-06	8.879453e-08	-9.831635e-11	6.182755e-01	-8.815143e+00
1.870000e-06	1.354733e-07	-8.175492e-11	9.432992e-01	-7.643029e+00
1.880000e-06	1.822042e-07	-6.214505e-11	1.268686e+00	-6.454921e+00
1.890000e-06	2.288895e-07	-4.223922e-11	1.593755e+00	-5.251538e+00
1.900000e-06	2.755613e-07	-2.404462e-11	1.918731e+00	-4.033658e+00
1.910000e-06	3.222147e-07	-9.308760e-12	2.243578e+00	-2.802119e+00
1.920000e-06	3.688679e-07	4.284333e-12	2.568424e+00	-1.557817e+00
1.930000e-06	4.154588e-07	1.909218e-11	2.892836e+00	-3.016998e-01
1.940000e-06	4.619533e-07	3.468369e-11	3.216576e+00	9.652321e-01
1.950000e-06	5.084332e-07	5.081646e-11	3.540215e+00	2.241933e+00
1.960000e-06	5.549126e-07	6.945254e-11	3.863851e+00	3.527314e+00
1.970000e-06	6.013265e-07	8.787135e-11	4.187031e+00	4.820248e+00
1.980000e-06	6.476054e-07	1.051896e-10	4.509270e+00	6.119573e+00
1.990000e-06	6.938847e-07	1.258034e-10	4.831513e+00	7.424099e+00
2.000000e-06	7.402303e-07	1.432998e-10	5.154217e+00	8.732610e+00
2.010000e-06	7.865437e-07	1.603744e-10	5.476696e+00	1.004387e+01
2.020000e-06	8.328588e-07	1.801853e-10	5.799188e+00	1.135664e+01
2.030000e-06	8.790691e-07	1.996498e-10	6.120949e+00	1.266966e+01
2.040000e-06	9.250733e-07	2.178026e-10	6.441276e+00	1.398168e+01
2.050000e-06	9.710158e-07	2.368843e-10	6.761173e+00	1.529143e+01
2.060000e-06	1.016967e-06	2.558820e-10	7.081134e+00	1.659766e+01
2.070000e-06	1.062897e-06	2.743118e-10	7.400943e+00	1.789916e+01
2.080000e-06	1.108757e-06	2.941702e-10	7.720262e+00	1.919469e+01
2.090000e-06	1.154506e-06	3.138565e-10	8.038816e+00	2.048308e+01
2.100000e-06	1.200138e-06	3.315288e-10	8.356549e+00	2.176316e+01
2.110000e-06	1.245667e-06	3.457385e-10	8.673568e+00	2.303380e+01
2.120000e-06	1.291156e-06	3.604418e-10	8.990304e+00	2.429391e+01
2.130000e-06	1.336569e-06	3.784950e-10	9.306517e+00	2.554245e+01
2.140000e-06	1.381803e-06	3.987523e-10	9.621482e+00	2.677842e+01
2.150000e-06	1.426900e-06	4.183866e-10	9.935493e+00	2.800087e+01
2.160000e-06	1.471923e-06	4.358676e-10	1.024898e+01	2.920891e+01
2.170000e-06	1.516898e-06	4.508582e-10	1.056214e+01	3.040170e+01
2.180000e-06	1.561752e-06	4.680607e-10	1.087446e+01	3.157845e+01
2.190000e-06	1.606477e-06	4.867056e-10	1.118588e+01	3.273845e+01
2.200000e-06	1.651100e-06	5.040174e-10	1.149659e+01	3.388105e+01
2.210000e-06	1.695576e-06	5.209776e-10	1.180628e+01	3.500565e+01
2.220000e-06	1.739928e-06	5.360404e-10	1.211510e+01	3.611174e+01
2.230000e-06	1.784199e-06	5.503647e-10	1.242336e+01	3.719884e+01
2.240000e-06	1.828369e-06	5.633452e-10	1.273092e+01	3.826656e+01
2.250000e-06	1.872440e-06	5.768052e-10	1.303778e+01	3.931457e+01
2.260000e-06	1.916470e-06	5.897856e-10	1.334436e+01	4.034262e+01
2.270000e-06	1.960401e-06	6.055200e-10	1.365026e+01	4.135048e+01
2.280000e-06	2.004230e-06	6.219581e-10	1.395543e+01	4.233803e+01
2.290000e-06	2.047940e-06	6.384512e-10	1.425979e+01	4.330518e+01
2.300000e-06	2.091547e-06	6.523397e-10	1.456342e+01	4.425189e+01
2.310000e-06	2.135131e-06	6.636193e-10	1.486690e+01	4.517821e+01
2.320000e-06	2.178670e-06	6.774976e-10	1.517006e+01	4.608421e+01
2.330000e-06	2.222017e-06	6.907786e-10	1.547188e+01	4.697001e+01
2.340000e-06	2.265161e-06	7.052369e-10	1.577229e+01	4.783578e+01
2.350000e-06	2.308089e-06	7.212463e-10	1.607120e+01	4.868175e+01
2.360000e-06	2.350659e-06	7.377763e-10	1.636762e+01	4.950815e+01
2.370000e-06	2.393002e-06	7.507536e-10	1.666245e+01	5.031528e+01
2.380000e-06	2.435099e-06	7.612549e-10	1.695557e+01	5.110344e+01
2.390000e-06	2.476927e-06	7.707723e-10	1.724682e+01	5.187298e+01
2.400000e-06	2.518523e-06	7.798726e-10	1.753645e+01	5.262425e+01
2.410000e-06	2.559699e-06	7.897754e-10	1.782316e+01	5.335763e+01
2.420000e-06	2.600551e-06	8.009733e-10	1.810761e+01	5.407351e+01
2.430000e-06	2.641243e-06	8.133529e-10	1.839095e+01	5.477230e+01
2.440000e-06	2.681611e-06	8.244662e-10	1.867203e+01	5.545441e+01
2.450000e-06	2.721718e-06	8.313283e-10	1.895130e+01	5.612024e+01
2.460000e-06	2.761740e-06	8.394679e-10	1.922997e+01	5.677021e+01
2.470000e-06	2.801613e-06	8.500532e-10	1.950761e+01	5.740473e+01
2.480000e-06	2.841406e-06	8.606743e-10	1.978469e+01	5.802419e+01
2.490000e-06	2.881104e-06	8.698517e-10	2.006110e+01	5.862900e+01
2.500000e-06	2.920661e-06	8.770463e-10	2.033653e+01	5.921953e+01
2.510000e-06	2.960121e-06	8.847322e-10	2.061129e+01	5.979615e+01
2.520000e-06	2.999429e-06	8.935889e-10	2.088499e+01	6.035922e+01
2.530000e-06	3.038486e-06	9.025410e-10	2.115695e+01	6.090909e+01
2.540000e-06	3.077241e-06	9.103227e-10	2.142680e+01	6.144606e+01
2.550000e-06	3.115762e-06	9.173956e-10	2.169502e+01	6.197044e+01
2.560000e-06	3.154073e-06	9.245749e-10	2.196178e+01	6.248252e+01
2.570000e-06	3.192160e-06	9.320420e-10	2.222698e+01	6.298257e+01
2.580000e-06	3.230049e-06	9.401761e-10	2.249080e+01	6.347083e+01
2.590000e-06	3.267758e-06	9.479467e-10	2.275337e+01	6.394753e+01
2.600000e-06	3.305212e-06	9.550033e-10	2.301416e+01	6.441287e+01
2.610000e-06	3.342390e-06	9.596538e-10	2.327303e+01	6.486707e+01
2.620000e-06	3.379361e-06	9.616349e-10	2.353045e+01	6.531028e+01
2.630000e-06	3.416173e-06	9.651008e-10	2.378678e+01	6.574268e+01
2.640000e-06	3.452778e-06	9.719017e-10	2.404166e+01	6.616442e+01
2.650000e-06	3.489028e-06	9.809170e-10	2.429407e+01	6.657562e+01
2.660000e-06	3.525061e-06	9.880536e-10	2.454497e+01	6.697643e+01
2.670000e-06	3.560985e-06	9.921780e-10	2.479511e+01	6.736695e+01
2.680000e-06	3.596781e-06	9.956561e-10	2.504435e+01	6.774730e+01
2.690000e-06	3.632509e-06	9.981924e-10	2.529312e+01	6.811758e+01
2.700000e-06	3.668118e-06	1.000251e-09	2.554107e+01	6.847791e+01
2.710000e-06	3.703484e-06	1.004094e-09	2.578732e+01	6.882838e+01
2.720000e-06	3.738514e-06	1.009584e-09	2.603124e+01	6.916909e+01
2.730000e-06	3.773050e-06	1.015667e-09	2.627171e+01	6.950015e+01
2.740000e-06	3.807140e-06	1.021114e-09	2.650908e+01	6.982168e+01
2.750000e-06	3.840820e-06	1.025172e-09	2.674359e+01	7.013378e+01
2.760000e-06	3.873971e-06	1.028160e-09	2.697442e+01	7.043657e+01
2.770000e-06	3.906692e-06	1.030975e-09	2.720226e+01	7.073020e+01
2.780000e-06	3.939151e-06	1.032977e-09	2.742827e+01	7.101480e+01
2.790000e-06	3.971341e-06	1.036641e-09	2.765241e+01	7.129051e+01
2.800000e-06	4.003273e-06	1.041711e-09	2.787475e+01	7.155750e+01
2.810000e-06	4.035074e-06	1.047166e-09	2.809618e+01	7.181594e+01
2.820000e-06	4.066712e-06	1.053255e-09	2.831647e+01	7.206602e+01
2.830000e-06	4.098109e-06	1.059015e-09	2.853509e+01	7.230792e+01
2.840000e-06	4.129270e-06	1.064787e-09	2.875206e+01	7.254186e+01
2.850000e-06	4.160141e-06	1.070793e-09	2.896702e+01	7.276806e+01
2.860000e-06	4.190693e-06	1.074168e-09	2.917975e+01	7.298673e+01
2.870000e-06	4.221008e-06	1.076067e-09	2.939084e+01	7.319813e+01
2.880000e-06	4.251031e-06	1.077821e-09	2.959989e+01	7.340249e+01
2.890000e-06	4.280748e-06	1.080606e-09	2.980681e+01	7.360007e+01
2.900000e-06	4.310175e-06	1.084083e-09	3.001171e+01	7.379114e+01
