# Temperatura_=_-0.62
# Concentracion g/m^3_=_1620.0
# C_Vs_to_Am_M_A/Vsm_=_65563218390.804596
# pendiente_HvsI_1/m_=_3716.3
# ordenada_HvsI_A/m_=_1297.0
# frecuencia_Hz_=_135097.19245387625

Tiempo_(s)	Campo_(V.s)	Magnetizacion_(V.s)	Campo_(kA/m)	Magnetizacion_(A/m)
0.000000e+00	-5.519447e-06	-1.302401e-09	-3.836026e+01	-8.734565e+01
1.000000e-08	-5.519796e-06	-1.295967e-09	-3.836268e+01	-8.728737e+01
2.000000e-08	-5.519887e-06	-1.290212e-09	-3.836331e+01	-8.722788e+01
3.000000e-08	-5.519630e-06	-1.289185e-09	-3.836153e+01	-8.716711e+01
4.000000e-08	-5.518934e-06	-1.291530e-09	-3.835669e+01	-8.710501e+01
5.000000e-08	-5.517645e-06	-1.289002e-09	-3.834773e+01	-8.704151e+01
6.000000e-08	-5.515747e-06	-1.280644e-09	-3.833454e+01	-8.697655e+01
7.000000e-08	-5.513284e-06	-1.292213e-09	-3.831742e+01	-8.691007e+01
8.000000e-08	-5.510340e-06	-1.318826e-09	-3.829696e+01	-8.684199e+01
9.000000e-08	-5.506938e-06	-1.316366e-09	-3.827332e+01	-8.677226e+01
1.000000e-07	-5.503068e-06	-1.342895e-09	-3.824642e+01	-8.670079e+01
1.100000e-07	-5.498826e-06	-1.390084e-09	-3.821694e+01	-8.662752e+01
1.200000e-07	-5.494234e-06	-1.314766e-09	-3.818502e+01	-8.655238e+01
1.300000e-07	-5.489452e-06	-1.209068e-09	-3.815179e+01	-8.647530e+01
1.400000e-07	-5.484519e-06	-1.238579e-09	-3.811750e+01	-8.639621e+01
1.500000e-07	-5.479118e-06	-1.336557e-09	-3.807997e+01	-8.631505e+01
1.600000e-07	-5.473217e-06	-1.324290e-09	-3.803895e+01	-8.623175e+01
1.700000e-07	-5.467057e-06	-1.210608e-09	-3.799614e+01	-8.614624e+01
1.800000e-07	-5.460586e-06	-1.286899e-09	-3.795117e+01	-8.605848e+01
1.900000e-07	-5.453600e-06	-1.381096e-09	-3.790262e+01	-8.596839e+01
2.000000e-07	-5.446231e-06	-1.334086e-09	-3.785140e+01	-8.587592e+01
2.100000e-07	-5.438716e-06	-1.198722e-09	-3.779917e+01	-8.578101e+01
2.200000e-07	-5.430972e-06	-1.230436e-09	-3.774535e+01	-8.568361e+01
2.300000e-07	-5.422852e-06	-1.308164e-09	-3.768892e+01	-8.558367e+01
2.400000e-07	-5.414318e-06	-1.296941e-09	-3.762960e+01	-8.548114e+01
2.500000e-07	-5.405265e-06	-1.237461e-09	-3.756669e+01	-8.537597e+01
2.600000e-07	-5.395563e-06	-1.244274e-09	-3.749926e+01	-8.526811e+01
2.700000e-07	-5.385092e-06	-1.270120e-09	-3.742649e+01	-8.515751e+01
2.800000e-07	-5.374025e-06	-1.249984e-09	-3.734957e+01	-8.504414e+01
2.900000e-07	-5.362577e-06	-1.245282e-09	-3.727001e+01	-8.492794e+01
3.000000e-07	-5.350717e-06	-1.247637e-09	-3.718758e+01	-8.480888e+01
3.100000e-07	-5.338535e-06	-1.259492e-09	-3.710291e+01	-8.468692e+01
3.200000e-07	-5.326133e-06	-1.252979e-09	-3.701672e+01	-8.456200e+01
3.300000e-07	-5.313304e-06	-1.260497e-09	-3.692755e+01	-8.443410e+01
3.400000e-07	-5.299894e-06	-1.225964e-09	-3.683435e+01	-8.430316e+01
3.500000e-07	-5.286009e-06	-1.252871e-09	-3.673786e+01	-8.416914e+01
3.600000e-07	-5.271744e-06	-1.266410e-09	-3.663872e+01	-8.403201e+01
3.700000e-07	-5.257036e-06	-1.236714e-09	-3.653649e+01	-8.389172e+01
3.800000e-07	-5.241863e-06	-1.214207e-09	-3.643104e+01	-8.374823e+01
3.900000e-07	-5.226315e-06	-1.277748e-09	-3.632298e+01	-8.360150e+01
4.000000e-07	-5.210180e-06	-1.242769e-09	-3.621084e+01	-8.345148e+01
4.100000e-07	-5.193488e-06	-1.189680e-09	-3.609483e+01	-8.329813e+01
4.200000e-07	-5.176547e-06	-1.250852e-09	-3.597710e+01	-8.314140e+01
4.300000e-07	-5.159365e-06	-1.280696e-09	-3.585768e+01	-8.298126e+01
4.400000e-07	-5.141813e-06	-1.175634e-09	-3.573569e+01	-8.281766e+01
4.500000e-07	-5.123928e-06	-1.204875e-09	-3.561139e+01	-8.265055e+01
4.600000e-07	-5.105769e-06	-1.300418e-09	-3.548519e+01	-8.247990e+01
4.700000e-07	-5.087159e-06	-1.211752e-09	-3.535585e+01	-8.230566e+01
4.800000e-07	-5.068055e-06	-1.149571e-09	-3.522307e+01	-8.212779e+01
4.900000e-07	-5.048695e-06	-1.272583e-09	-3.508852e+01	-8.194625e+01
5.000000e-07	-5.029121e-06	-1.264786e-09	-3.495248e+01	-8.176100e+01
5.100000e-07	-5.009306e-06	-1.154122e-09	-3.481477e+01	-8.157202e+01
5.200000e-07	-4.989317e-06	-1.226085e-09	-3.467584e+01	-8.137926e+01
5.300000e-07	-4.968991e-06	-1.270638e-09	-3.453458e+01	-8.118269e+01
5.400000e-07	-4.948171e-06	-1.159048e-09	-3.438988e+01	-8.098228e+01
5.500000e-07	-4.927061e-06	-1.182271e-09	-3.424316e+01	-8.077801e+01
5.600000e-07	-4.905651e-06	-1.272610e-09	-3.409436e+01	-8.056986e+01
5.700000e-07	-4.883802e-06	-1.175739e-09	-3.394251e+01	-8.035781e+01
5.800000e-07	-4.861595e-06	-1.138700e-09	-3.378817e+01	-8.014184e+01
5.900000e-07	-4.839118e-06	-1.239615e-09	-3.363196e+01	-7.992195e+01
6.000000e-07	-4.816329e-06	-1.210569e-09	-3.347358e+01	-7.969812e+01
6.100000e-07	-4.793178e-06	-1.130609e-09	-3.331267e+01	-7.947035e+01
6.200000e-07	-4.769790e-06	-1.198314e-09	-3.315012e+01	-7.923864e+01
6.300000e-07	-4.746175e-06	-1.201384e-09	-3.298600e+01	-7.900301e+01
6.400000e-07	-4.722280e-06	-1.127214e-09	-3.281993e+01	-7.876345e+01
6.500000e-07	-4.698112e-06	-1.156033e-09	-3.265196e+01	-7.851999e+01
6.600000e-07	-4.673547e-06	-1.193686e-09	-3.248123e+01	-7.827263e+01
6.700000e-07	-4.648425e-06	-1.138119e-09	-3.230664e+01	-7.802141e+01
6.800000e-07	-4.622819e-06	-1.147902e-09	-3.212868e+01	-7.776635e+01
6.900000e-07	-4.596722e-06	-1.183262e-09	-3.194730e+01	-7.750748e+01
7.000000e-07	-4.570019e-06	-1.147963e-09	-3.176171e+01	-7.724482e+01
7.100000e-07	-4.542846e-06	-1.126203e-09	-3.157286e+01	-7.697842e+01
7.200000e-07	-4.515471e-06	-1.152794e-09	-3.138261e+01	-7.670830e+01
7.300000e-07	-4.487918e-06	-1.130412e-09	-3.119111e+01	-7.643451e+01
7.400000e-07	-4.460146e-06	-1.107284e-09	-3.099809e+01	-7.615708e+01
7.500000e-07	-4.432191e-06	-1.123144e-09	-3.080381e+01	-7.587606e+01
7.600000e-07	-4.403993e-06	-1.120349e-09	-3.060783e+01	-7.559148e+01
7.700000e-07	-4.375521e-06	-1.097537e-09	-3.040995e+01	-7.530338e+01
7.800000e-07	-4.346766e-06	-1.100829e-09	-3.021010e+01	-7.501181e+01
7.900000e-07	-4.317711e-06	-1.099480e-09	-3.000817e+01	-7.471679e+01
8.000000e-07	-4.288306e-06	-1.081745e-09	-2.980380e+01	-7.441837e+01
8.100000e-07	-4.258570e-06	-1.083136e-09	-2.959714e+01	-7.411657e+01
8.200000e-07	-4.228538e-06	-1.085343e-09	-2.938841e+01	-7.381143e+01
8.300000e-07	-4.198262e-06	-1.066969e-09	-2.917800e+01	-7.350298e+01
8.400000e-07	-4.167720e-06	-1.058729e-09	-2.896573e+01	-7.319123e+01
8.500000e-07	-4.136793e-06	-1.064612e-09	-2.875078e+01	-7.287620e+01
8.600000e-07	-4.105587e-06	-1.049433e-09	-2.853390e+01	-7.255790e+01
8.700000e-07	-4.074194e-06	-1.035412e-09	-2.831572e+01	-7.223635e+01
8.800000e-07	-4.042600e-06	-1.039674e-09	-2.809614e+01	-7.191155e+01
8.900000e-07	-4.010844e-06	-1.040643e-09	-2.787544e+01	-7.158349e+01
9.000000e-07	-3.978883e-06	-1.025790e-09	-2.765331e+01	-7.125217e+01
9.100000e-07	-3.946629e-06	-1.024841e-09	-2.742914e+01	-7.091757e+01
9.200000e-07	-3.914046e-06	-1.021478e-09	-2.720269e+01	-7.057967e+01
9.300000e-07	-3.881021e-06	-1.006033e-09	-2.697316e+01	-7.023846e+01
9.400000e-07	-3.847517e-06	-9.976174e-10	-2.674031e+01	-6.989390e+01
9.500000e-07	-3.813698e-06	-1.003732e-09	-2.650527e+01	-6.954595e+01
9.600000e-07	-3.779499e-06	-9.956556e-10	-2.626758e+01	-6.919458e+01
9.700000e-07	-3.744794e-06	-9.857239e-10	-2.602639e+01	-6.883974e+01
9.800000e-07	-3.709704e-06	-9.871976e-10	-2.578251e+01	-6.848138e+01
9.900000e-07	-3.674399e-06	-9.849868e-10	-2.553714e+01	-6.811946e+01
1.000000e-06	-3.638971e-06	-9.713474e-10	-2.529091e+01	-6.775391e+01
1.010000e-06	-3.603329e-06	-9.701016e-10	-2.504320e+01	-6.738468e+01
1.020000e-06	-3.567486e-06	-9.694554e-10	-2.479409e+01	-6.701170e+01
1.030000e-06	-3.531554e-06	-9.585337e-10	-2.454436e+01	-6.663493e+01
1.040000e-06	-3.495462e-06	-9.500559e-10	-2.429353e+01	-6.625428e+01
1.050000e-06	-3.459167e-06	-9.496915e-10	-2.404127e+01	-6.586971e+01
1.060000e-06	-3.422616e-06	-9.411491e-10	-2.378724e+01	-6.548114e+01
1.070000e-06	-3.385691e-06	-9.303698e-10	-2.353061e+01	-6.508851e+01
1.080000e-06	-3.348434e-06	-9.281206e-10	-2.327167e+01	-6.469176e+01
1.090000e-06	-3.310961e-06	-9.242311e-10	-2.301124e+01	-6.429084e+01
1.100000e-06	-3.273276e-06	-9.148530e-10	-2.274933e+01	-6.388567e+01
1.110000e-06	-3.235353e-06	-9.088469e-10	-2.248576e+01	-6.347621e+01
1.120000e-06	-3.197198e-06	-9.038982e-10	-2.222058e+01	-6.306240e+01
1.130000e-06	-3.158905e-06	-8.933496e-10	-2.195445e+01	-6.264419e+01
1.140000e-06	-3.120454e-06	-8.859823e-10	-2.168721e+01	-6.222153e+01
1.150000e-06	-3.081688e-06	-8.814105e-10	-2.141778e+01	-6.179437e+01
1.160000e-06	-3.042701e-06	-8.728947e-10	-2.114683e+01	-6.136268e+01
1.170000e-06	-3.003561e-06	-8.634747e-10	-2.087481e+01	-6.092641e+01
1.180000e-06	-2.964233e-06	-8.608653e-10	-2.060147e+01	-6.048553e+01
1.190000e-06	-2.924770e-06	-8.568212e-10	-2.032720e+01	-6.003999e+01
1.200000e-06	-2.885200e-06	-8.508378e-10	-2.005219e+01	-5.958977e+01
1.210000e-06	-2.845533e-06	-8.432070e-10	-1.977651e+01	-5.913483e+01
1.220000e-06	-2.805746e-06	-8.350485e-10	-1.949999e+01	-5.867513e+01
1.230000e-06	-2.765758e-06	-8.245492e-10	-1.922207e+01	-5.821065e+01
1.240000e-06	-2.725594e-06	-8.181648e-10	-1.894293e+01	-5.774135e+01
1.250000e-06	-2.685231e-06	-8.109495e-10	-1.866240e+01	-5.726718e+01
1.260000e-06	-2.644571e-06	-8.021180e-10	-1.837981e+01	-5.678811e+01
1.270000e-06	-2.603584e-06	-7.935216e-10	-1.809495e+01	-5.630408e+01
1.280000e-06	-2.562333e-06	-7.871046e-10	-1.780826e+01	-5.581505e+01
1.290000e-06	-2.520787e-06	-7.821746e-10	-1.751952e+01	-5.532096e+01
1.300000e-06	-2.478845e-06	-7.767765e-10	-1.722802e+01	-5.482172e+01
1.310000e-06	-2.436621e-06	-7.677541e-10	-1.693456e+01	-5.431727e+01
1.320000e-06	-2.394152e-06	-7.580554e-10	-1.663940e+01	-5.380751e+01
1.330000e-06	-2.351413e-06	-7.484427e-10	-1.634236e+01	-5.329233e+01
1.340000e-06	-2.308449e-06	-7.393088e-10	-1.604376e+01	-5.277161e+01
1.350000e-06	-2.265304e-06	-7.317085e-10	-1.574391e+01	-5.224522e+01
1.360000e-06	-2.222014e-06	-7.239730e-10	-1.544304e+01	-5.171300e+01
1.370000e-06	-2.178565e-06	-7.138245e-10	-1.514106e+01	-5.117479e+01
1.380000e-06	-2.135028e-06	-7.071013e-10	-1.483848e+01	-5.063039e+01
1.390000e-06	-2.091461e-06	-7.035306e-10	-1.453569e+01	-5.007959e+01
1.400000e-06	-2.047812e-06	-6.964846e-10	-1.423233e+01	-4.952215e+01
1.410000e-06	-2.004002e-06	-6.855962e-10	-1.392785e+01	-4.895782e+01
1.420000e-06	-1.960083e-06	-6.744208e-10	-1.362261e+01	-4.838632e+01
1.430000e-06	-1.916140e-06	-6.651461e-10	-1.331721e+01	-4.780736e+01
1.440000e-06	-1.872073e-06	-6.556757e-10	-1.301094e+01	-4.722059e+01
1.450000e-06	-1.827886e-06	-6.462109e-10	-1.270384e+01	-4.662569e+01
1.460000e-06	-1.783663e-06	-6.383215e-10	-1.239649e+01	-4.602226e+01
1.470000e-06	-1.739301e-06	-6.296214e-10	-1.208817e+01	-4.540992e+01
1.480000e-06	-1.694743e-06	-6.183699e-10	-1.177849e+01	-4.478824e+01
1.490000e-06	-1.650128e-06	-6.077702e-10	-1.146842e+01	-4.415680e+01
1.500000e-06	-1.605358e-06	-5.966116e-10	-1.115727e+01	-4.351511e+01
1.510000e-06	-1.560375e-06	-5.866638e-10	-1.084463e+01	-4.286272e+01
1.520000e-06	-1.515278e-06	-5.777183e-10	-1.053121e+01	-4.219911e+01
1.530000e-06	-1.469992e-06	-5.666457e-10	-1.021647e+01	-4.152377e+01
1.540000e-06	-1.424577e-06	-5.535730e-10	-9.900833e+00	-4.083618e+01
1.550000e-06	-1.379127e-06	-5.413911e-10	-9.584956e+00	-4.013579e+01
1.560000e-06	-1.333658e-06	-5.286740e-10	-9.268948e+00	-3.942206e+01
1.570000e-06	-1.288178e-06	-5.165673e-10	-8.952859e+00	-3.869443e+01
1.580000e-06	-1.242600e-06	-5.049459e-10	-8.636095e+00	-3.795233e+01
1.590000e-06	-1.196964e-06	-4.970079e-10	-8.318919e+00	-3.719521e+01
1.600000e-06	-1.151192e-06	-4.869332e-10	-8.000802e+00	-3.642252e+01
1.610000e-06	-1.105255e-06	-4.750223e-10	-7.681544e+00	-3.563368e+01
1.620000e-06	-1.059266e-06	-4.646162e-10	-7.361920e+00	-3.482817e+01
1.630000e-06	-1.013145e-06	-4.564468e-10	-7.041378e+00	-3.400546e+01
1.640000e-06	-9.669456e-07	-4.478763e-10	-6.720289e+00	-3.316502e+01
1.650000e-06	-9.207346e-07	-4.349466e-10	-6.399122e+00	-3.230636e+01
1.660000e-06	-8.744454e-07	-4.192978e-10	-6.077411e+00	-3.142902e+01
1.670000e-06	-8.280031e-07	-4.041090e-10	-5.754637e+00	-3.053255e+01
1.680000e-06	-7.814847e-07	-3.900795e-10	-5.431333e+00	-2.961653e+01
1.690000e-06	-7.349750e-07	-3.773120e-10	-5.108089e+00	-2.868060e+01
1.700000e-06	-6.884434e-07	-3.670772e-10	-4.784694e+00	-2.772441e+01
1.710000e-06	-6.418797e-07	-3.564046e-10	-4.461075e+00	-2.674766e+01
1.720000e-06	-5.953465e-07	-3.439238e-10	-4.137669e+00	-2.575010e+01
1.730000e-06	-5.488773e-07	-3.268168e-10	-3.814707e+00	-2.473153e+01
1.740000e-06	-5.023265e-07	-3.069484e-10	-3.491178e+00	-2.369180e+01
1.750000e-06	-4.556752e-07	-2.863865e-10	-3.166951e+00	-2.263079e+01
1.760000e-06	-4.089138e-07	-2.682211e-10	-2.841958e+00	-2.154848e+01
1.770000e-06	-3.619944e-07	-2.556049e-10	-2.515868e+00	-2.044488e+01
1.780000e-06	-3.151416e-07	-2.452850e-10	-2.190240e+00	-1.932006e+01
1.790000e-06	-2.683533e-07	-2.341835e-10	-1.865060e+00	-1.817416e+01
1.800000e-06	-2.214835e-07	-2.198811e-10	-1.539315e+00	-1.700737e+01
1.810000e-06	-1.745325e-07	-1.998842e-10	-1.213004e+00	-1.581997e+01
1.820000e-06	-1.276423e-07	-1.787889e-10	-8.871165e-01	-1.461229e+01
1.830000e-06	-8.087320e-08	-1.609224e-10	-5.620701e-01	-1.338471e+01
1.840000e-06	-3.408726e-08	-1.470020e-10	-2.369071e-01	-1.213770e+01
1.850000e-06	1.278174e-08	-1.328387e-10	8.883329e-02	-1.087179e+01
1.860000e-06	5.969229e-08	-1.164763e-10	4.148625e-01	-9.587558e+00
1.870000e-06	1.066010e-07	-1.004877e-10	7.408790e-01	-8.285660e+00
1.880000e-06	1.535137e-07	-8.217897e-11	1.066923e+00	-6.966808e+00
1.890000e-06	2.004510e-07	-6.136468e-11	1.393138e+00	-5.631776e+00
1.900000e-06	2.473738e-07	-4.238889e-11	1.719253e+00	-4.281394e+00
1.910000e-06	2.941639e-07	-2.467663e-11	2.044444e+00	-2.916546e+00
1.920000e-06	3.409464e-07	-7.401258e-12	2.369583e+00	-1.538171e+00
1.930000e-06	3.877298e-07	8.400431e-12	2.694729e+00	-1.472530e-01
1.940000e-06	4.343994e-07	2.466586e-11	3.019084e+00	1.255174e+00
1.950000e-06	4.810442e-07	4.430299e-11	3.343266e+00	2.668037e+00
1.960000e-06	5.277067e-07	6.555339e-11	3.667571e+00	4.090222e+00
1.970000e-06	5.743452e-07	8.706471e-11	3.991710e+00	5.520582e+00
1.980000e-06	6.208676e-07	1.076146e-10	4.315041e+00	6.957941e+00
1.990000e-06	6.673331e-07	1.260095e-10	4.637977e+00	8.401094e+00
2.000000e-06	7.138128e-07	1.428084e-10	4.961012e+00	9.848817e+00
2.010000e-06	7.601131e-07	1.601582e-10	5.282799e+00	1.129987e+01
2.020000e-06	8.062564e-07	1.825207e-10	5.603496e+00	1.275300e+01
2.030000e-06	8.524469e-07	2.078475e-10	5.924521e+00	1.420694e+01
2.040000e-06	8.987093e-07	2.345161e-10	6.246045e+00	1.566043e+01
2.050000e-06	9.449164e-07	2.576454e-10	6.567185e+00	1.711222e+01
2.060000e-06	9.909382e-07	2.785606e-10	6.887038e+00	1.856103e+01
2.070000e-06	1.036809e-06	2.963645e-10	7.205838e+00	2.000564e+01
2.080000e-06	1.082654e-06	3.107231e-10	7.524466e+00	2.144480e+01
2.090000e-06	1.128530e-06	3.283058e-10	7.843302e+00	2.287731e+01
2.100000e-06	1.174267e-06	3.494592e-10	8.161177e+00	2.430199e+01
2.110000e-06	1.219869e-06	3.749134e-10	8.478112e+00	2.571768e+01
2.120000e-06	1.265432e-06	3.971500e-10	8.794776e+00	2.712324e+01
2.130000e-06	1.310920e-06	4.177122e-10	9.110916e+00	2.851759e+01
2.140000e-06	1.356291e-06	4.375470e-10	9.426246e+00	2.989968e+01
2.150000e-06	1.401527e-06	4.542897e-10	9.740637e+00	3.126849e+01
2.160000e-06	1.446698e-06	4.701340e-10	1.005458e+01	3.262305e+01
2.170000e-06	1.491794e-06	4.867820e-10	1.036800e+01	3.396245e+01
2.180000e-06	1.536797e-06	5.062036e-10	1.068077e+01	3.528581e+01
2.190000e-06	1.581679e-06	5.274139e-10	1.099270e+01	3.659231e+01
2.200000e-06	1.626426e-06	5.454997e-10	1.130369e+01	3.788119e+01
2.210000e-06	1.670989e-06	5.630624e-10	1.161340e+01	3.915172e+01
2.220000e-06	1.715379e-06	5.815201e-10	1.192191e+01	4.040326e+01
2.230000e-06	1.759745e-06	5.980803e-10	1.223026e+01	4.163518e+01
2.240000e-06	1.804070e-06	6.118815e-10	1.253832e+01	4.284696e+01
2.250000e-06	1.848178e-06	6.255380e-10	1.284487e+01	4.403809e+01
2.260000e-06	1.892100e-06	6.398603e-10	1.315013e+01	4.520813e+01
2.270000e-06	1.935942e-06	6.563629e-10	1.345483e+01	4.635672e+01
2.280000e-06	1.979697e-06	6.771294e-10	1.375893e+01	4.748352e+01
2.290000e-06	2.023424e-06	6.987142e-10	1.406283e+01	4.858827e+01
2.300000e-06	2.067145e-06	7.181987e-10	1.436669e+01	4.967074e+01
2.310000e-06	2.110795e-06	7.324610e-10	1.467006e+01	5.073078e+01
2.320000e-06	2.154307e-06	7.439951e-10	1.497247e+01	5.176827e+01
2.330000e-06	2.197735e-06	7.537871e-10	1.527430e+01	5.278315e+01
2.340000e-06	2.241136e-06	7.641633e-10	1.557594e+01	5.377539e+01
2.350000e-06	2.284423e-06	7.768533e-10	1.587678e+01	5.474503e+01
2.360000e-06	2.327552e-06	7.962060e-10	1.617653e+01	5.569213e+01
2.370000e-06	2.370477e-06	8.184353e-10	1.647486e+01	5.661681e+01
2.380000e-06	2.413097e-06	8.336771e-10	1.677107e+01	5.751922e+01
2.390000e-06	2.455335e-06	8.421782e-10	1.706462e+01	5.839954e+01
2.400000e-06	2.497201e-06	8.480378e-10	1.735559e+01	5.925800e+01
2.410000e-06	2.538754e-06	8.533839e-10	1.764438e+01	6.009485e+01
2.420000e-06	2.579943e-06	8.596150e-10	1.793065e+01	6.091037e+01
2.430000e-06	2.620804e-06	8.705967e-10	1.821464e+01	6.170486e+01
2.440000e-06	2.661511e-06	8.871725e-10	1.849755e+01	6.247866e+01
2.450000e-06	2.701990e-06	9.029809e-10	1.877888e+01	6.323213e+01
2.460000e-06	2.742143e-06	9.166850e-10	1.905795e+01	6.396564e+01
2.470000e-06	2.782084e-06	9.284161e-10	1.933554e+01	6.467958e+01
2.480000e-06	2.821909e-06	9.361324e-10	1.961232e+01	6.537436e+01
2.490000e-06	2.861648e-06	9.407121e-10	1.988851e+01	6.605040e+01
2.500000e-06	2.901247e-06	9.457021e-10	2.016372e+01	6.670813e+01
2.510000e-06	2.940728e-06	9.520752e-10	2.043811e+01	6.734800e+01
2.520000e-06	2.980163e-06	9.628562e-10	2.071219e+01	6.797044e+01
2.530000e-06	3.019423e-06	9.765038e-10	2.098504e+01	6.857592e+01
2.540000e-06	3.058481e-06	9.889378e-10	2.125650e+01	6.916488e+01
2.550000e-06	3.097372e-06	9.991061e-10	2.152679e+01	6.973780e+01
2.560000e-06	3.135964e-06	1.005044e-09	2.179501e+01	7.029512e+01
2.570000e-06	3.174276e-06	1.011175e-09	2.206128e+01	7.083731e+01
2.580000e-06	3.212405e-06	1.016939e-09	2.232627e+01	7.136482e+01
2.590000e-06	3.250307e-06	1.023866e-09	2.258969e+01	7.187812e+01
2.600000e-06	3.288025e-06	1.031807e-09	2.285183e+01	7.237764e+01
2.610000e-06	3.325579e-06	1.040922e-09	2.311284e+01	7.286383e+01
2.620000e-06	3.362842e-06	1.047786e-09	2.337181e+01	7.333713e+01
2.630000e-06	3.399810e-06	1.050231e-09	2.362874e+01	7.379798e+01
2.640000e-06	3.436598e-06	1.054298e-09	2.388442e+01	7.424678e+01
2.650000e-06	3.473042e-06	1.059307e-09	2.413771e+01	7.468397e+01
2.660000e-06	3.509191e-06	1.065167e-09	2.438894e+01	7.510993e+01
2.670000e-06	3.545152e-06	1.073305e-09	2.463887e+01	7.552508e+01
2.680000e-06	3.580911e-06	1.079492e-09	2.488739e+01	7.592978e+01
2.690000e-06	3.616638e-06	1.084955e-09	2.513570e+01	7.632442e+01
2.700000e-06	3.652274e-06	1.089794e-09	2.538337e+01	7.670937e+01
2.710000e-06	3.687757e-06	1.094617e-09	2.562998e+01	7.708496e+01
2.720000e-06	3.723026e-06	1.100368e-09	2.587509e+01	7.745155e+01
2.730000e-06	3.757993e-06	1.106955e-09	2.611812e+01	7.780945e+01
2.740000e-06	3.792591e-06	1.114639e-09	2.635858e+01	7.815898e+01
2.750000e-06	3.826815e-06	1.120801e-09	2.659643e+01	7.850045e+01
2.760000e-06	3.860522e-06	1.124985e-09	2.683069e+01	7.883414e+01
2.770000e-06	3.893714e-06	1.128178e-09	2.706138e+01	7.916033e+01
2.780000e-06	3.926424e-06	1.133629e-09	2.728872e+01	7.947928e+01
2.790000e-06	3.958695e-06	1.139580e-09	2.751300e+01	7.979124e+01
2.800000e-06	3.990767e-06	1.144854e-09	2.773590e+01	8.009644e+01
2.810000e-06	4.022610e-06	1.149909e-09	2.795721e+01	8.039510e+01
2.820000e-06	4.054255e-06	1.155730e-09	2.817715e+01	8.068744e+01
2.830000e-06	4.085780e-06	1.160710e-09	2.839624e+01	8.097364e+01
2.840000e-06	4.117131e-06	1.165488e-09	2.861413e+01	8.125389e+01
2.850000e-06	4.148305e-06	1.172140e-09	2.883079e+01	8.152835e+01
2.860000e-06	4.179163e-06	1.180863e-09	2.904526e+01	8.179716e+01
2.870000e-06	4.209586e-06	1.187357e-09	2.925670e+01	8.206048e+01
2.880000e-06	4.239659e-06	1.191676e-09	2.946570e+01	8.231842e+01
2.890000e-06	4.269435e-06	1.196241e-09	2.967265e+01	8.257109e+01
2.900000e-06	4.298900e-06	1.202773e-09	2.987743e+01	8.281859e+01
