# Temperatura_=_-0.7
# Concentracion g/m^3_=_1620.0
# C_Vs_to_Am_M_A/Vsm_=_65563218390.804596
# pendiente_HvsI_1/m_=_3716.3
# ordenada_HvsI_A/m_=_1297.0
# frecuencia_Hz_=_135100.0276847255

Tiempo_(s)	Campo_(V.s)	Magnetizacion_(V.s)	Campo_(kA/m)	Magnetizacion_(A/m)
0.000000e+00	-5.526655e-06	-1.326306e-09	-3.837334e+01	-8.852634e+01
1.000000e-08	-5.526824e-06	-1.324213e-09	-3.837451e+01	-8.852388e+01
2.000000e-08	-5.526810e-06	-1.323560e-09	-3.837442e+01	-8.852008e+01
3.000000e-08	-5.526517e-06	-1.326622e-09	-3.837238e+01	-8.851467e+01
4.000000e-08	-5.525817e-06	-1.327530e-09	-3.836752e+01	-8.850735e+01
5.000000e-08	-5.524603e-06	-1.319164e-09	-3.835909e+01	-8.849781e+01
6.000000e-08	-5.522735e-06	-1.302580e-09	-3.834612e+01	-8.848575e+01
7.000000e-08	-5.520262e-06	-1.298418e-09	-3.832895e+01	-8.847088e+01
8.000000e-08	-5.517199e-06	-1.326271e-09	-3.830768e+01	-8.845290e+01
9.000000e-08	-5.513611e-06	-1.400851e-09	-3.828277e+01	-8.843153e+01
1.000000e-07	-5.509648e-06	-1.453121e-09	-3.825525e+01	-8.840649e+01
1.100000e-07	-5.505358e-06	-1.371914e-09	-3.822547e+01	-8.837751e+01
1.200000e-07	-5.500850e-06	-1.218251e-09	-3.819417e+01	-8.834433e+01
1.300000e-07	-5.496158e-06	-1.238066e-09	-3.816159e+01	-8.830673e+01
1.400000e-07	-5.491119e-06	-1.356522e-09	-3.812660e+01	-8.826447e+01
1.500000e-07	-5.485610e-06	-1.372942e-09	-3.808835e+01	-8.821735e+01
1.600000e-07	-5.479753e-06	-1.252009e-09	-3.804769e+01	-8.816520e+01
1.700000e-07	-5.473519e-06	-1.254222e-09	-3.800440e+01	-8.810785e+01
1.800000e-07	-5.466764e-06	-1.391104e-09	-3.795749e+01	-8.804516e+01
1.900000e-07	-5.459574e-06	-1.399902e-09	-3.790757e+01	-8.797701e+01
2.000000e-07	-5.452129e-06	-1.276588e-09	-3.785588e+01	-8.790331e+01
2.100000e-07	-5.444449e-06	-1.244630e-09	-3.780256e+01	-8.782400e+01
2.200000e-07	-5.436513e-06	-1.362576e-09	-3.774746e+01	-8.773902e+01
2.300000e-07	-5.428325e-06	-1.402221e-09	-3.769061e+01	-8.764837e+01
2.400000e-07	-5.419694e-06	-1.336493e-09	-3.763068e+01	-8.755203e+01
2.500000e-07	-5.410468e-06	-1.298322e-09	-3.756661e+01	-8.745003e+01
2.600000e-07	-5.400534e-06	-1.348433e-09	-3.749764e+01	-8.734243e+01
2.700000e-07	-5.389909e-06	-1.344837e-09	-3.742387e+01	-8.722928e+01
2.800000e-07	-5.378745e-06	-1.309435e-09	-3.734635e+01	-8.711068e+01
2.900000e-07	-5.367177e-06	-1.306178e-09	-3.726603e+01	-8.698673e+01
3.000000e-07	-5.355263e-06	-1.340033e-09	-3.718331e+01	-8.685756e+01
3.100000e-07	-5.342936e-06	-1.325739e-09	-3.709772e+01	-8.672329e+01
3.200000e-07	-5.330183e-06	-1.297341e-09	-3.700917e+01	-8.658409e+01
3.300000e-07	-5.316974e-06	-1.291014e-09	-3.691746e+01	-8.644012e+01
3.400000e-07	-5.303419e-06	-1.317148e-09	-3.682334e+01	-8.629154e+01
3.500000e-07	-5.289588e-06	-1.326078e-09	-3.672731e+01	-8.613854e+01
3.600000e-07	-5.275385e-06	-1.309777e-09	-3.662869e+01	-8.598129e+01
3.700000e-07	-5.260765e-06	-1.306980e-09	-3.652718e+01	-8.581999e+01
3.800000e-07	-5.245688e-06	-1.327317e-09	-3.642249e+01	-8.565482e+01
3.900000e-07	-5.229957e-06	-1.305151e-09	-3.631327e+01	-8.548597e+01
4.000000e-07	-5.213585e-06	-1.272589e-09	-3.619959e+01	-8.531362e+01
4.100000e-07	-5.196823e-06	-1.310155e-09	-3.608321e+01	-8.513795e+01
4.200000e-07	-5.179816e-06	-1.325750e-09	-3.596512e+01	-8.495913e+01
4.300000e-07	-5.162504e-06	-1.271069e-09	-3.584492e+01	-8.477732e+01
4.400000e-07	-5.144886e-06	-1.278413e-09	-3.572260e+01	-8.459267e+01
4.500000e-07	-5.126945e-06	-1.351930e-09	-3.559803e+01	-8.440533e+01
4.600000e-07	-5.108580e-06	-1.305555e-09	-3.547051e+01	-8.421541e+01
4.700000e-07	-5.089767e-06	-1.243115e-09	-3.533989e+01	-8.402303e+01
4.800000e-07	-5.070547e-06	-1.304360e-09	-3.520644e+01	-8.382829e+01
4.900000e-07	-5.051032e-06	-1.335692e-09	-3.507094e+01	-8.363126e+01
5.000000e-07	-5.031308e-06	-1.259903e-09	-3.493398e+01	-8.343202e+01
5.100000e-07	-5.011423e-06	-1.274533e-09	-3.479592e+01	-8.323060e+01
5.200000e-07	-4.991240e-06	-1.319486e-09	-3.465578e+01	-8.302704e+01
5.300000e-07	-4.970671e-06	-1.267596e-09	-3.451297e+01	-8.282135e+01
5.400000e-07	-4.949729e-06	-1.256823e-09	-3.436756e+01	-8.261353e+01
5.500000e-07	-4.928414e-06	-1.325113e-09	-3.421956e+01	-8.240355e+01
5.600000e-07	-4.906732e-06	-1.282798e-09	-3.406901e+01	-8.219137e+01
5.700000e-07	-4.884756e-06	-1.228673e-09	-3.391643e+01	-8.197696e+01
5.800000e-07	-4.862539e-06	-1.286009e-09	-3.376217e+01	-8.176023e+01
5.900000e-07	-4.839973e-06	-1.300308e-09	-3.360548e+01	-8.154111e+01
6.000000e-07	-4.816987e-06	-1.236340e-09	-3.344589e+01	-8.131951e+01
6.100000e-07	-4.793712e-06	-1.255482e-09	-3.328428e+01	-8.109532e+01
6.200000e-07	-4.770171e-06	-1.280020e-09	-3.312083e+01	-8.086844e+01
6.300000e-07	-4.746356e-06	-1.229879e-09	-3.295548e+01	-8.063875e+01
6.400000e-07	-4.722270e-06	-1.224723e-09	-3.278824e+01	-8.040613e+01
6.500000e-07	-4.697909e-06	-1.258447e-09	-3.261909e+01	-8.017043e+01
6.600000e-07	-4.673287e-06	-1.231980e-09	-3.244813e+01	-7.993154e+01
6.700000e-07	-4.648268e-06	-1.217201e-09	-3.227442e+01	-7.968932e+01
6.800000e-07	-4.622554e-06	-1.244940e-09	-3.209588e+01	-7.944364e+01
6.900000e-07	-4.596191e-06	-1.228358e-09	-3.191283e+01	-7.919437e+01
7.000000e-07	-4.569358e-06	-1.200718e-09	-3.172652e+01	-7.894137e+01
7.100000e-07	-4.542053e-06	-1.210444e-09	-3.153693e+01	-7.868454e+01
7.200000e-07	-4.514403e-06	-1.207355e-09	-3.134495e+01	-7.842376e+01
7.300000e-07	-4.486584e-06	-1.190505e-09	-3.115180e+01	-7.815891e+01
7.400000e-07	-4.458687e-06	-1.199325e-09	-3.095810e+01	-7.788990e+01
7.500000e-07	-4.430621e-06	-1.197020e-09	-3.076322e+01	-7.761665e+01
7.600000e-07	-4.402311e-06	-1.180420e-09	-3.056666e+01	-7.733908e+01
7.700000e-07	-4.373696e-06	-1.176622e-09	-3.036797e+01	-7.705712e+01
7.800000e-07	-4.344710e-06	-1.172953e-09	-3.016672e+01	-7.677072e+01
7.900000e-07	-4.315429e-06	-1.155294e-09	-2.996341e+01	-7.647984e+01
8.000000e-07	-4.285917e-06	-1.154875e-09	-2.975850e+01	-7.618446e+01
8.100000e-07	-4.256090e-06	-1.155131e-09	-2.955140e+01	-7.588456e+01
8.200000e-07	-4.225936e-06	-1.139917e-09	-2.934203e+01	-7.558013e+01
8.300000e-07	-4.195542e-06	-1.131500e-09	-2.913100e+01	-7.527121e+01
8.400000e-07	-4.164862e-06	-1.137500e-09	-2.891797e+01	-7.495780e+01
8.500000e-07	-4.133802e-06	-1.126216e-09	-2.870231e+01	-7.463994e+01
8.600000e-07	-4.102490e-06	-1.112166e-09	-2.848490e+01	-7.431769e+01
8.700000e-07	-4.070974e-06	-1.109989e-09	-2.826608e+01	-7.399111e+01
8.800000e-07	-4.039255e-06	-1.104959e-09	-2.804584e+01	-7.366025e+01
8.900000e-07	-4.007407e-06	-1.092410e-09	-2.782472e+01	-7.332521e+01
9.000000e-07	-3.975442e-06	-1.089691e-09	-2.760277e+01	-7.298606e+01
9.100000e-07	-3.943175e-06	-1.086305e-09	-2.737873e+01	-7.264289e+01
9.200000e-07	-3.910483e-06	-1.072289e-09	-2.715174e+01	-7.229580e+01
9.300000e-07	-3.877430e-06	-1.064929e-09	-2.692224e+01	-7.194489e+01
9.400000e-07	-3.843996e-06	-1.067037e-09	-2.669010e+01	-7.159026e+01
9.500000e-07	-3.810092e-06	-1.059173e-09	-2.645469e+01	-7.123201e+01
9.600000e-07	-3.775703e-06	-1.048200e-09	-2.621592e+01	-7.087024e+01
9.700000e-07	-3.740893e-06	-1.045709e-09	-2.597422e+01	-7.050504e+01
9.800000e-07	-3.705730e-06	-1.039922e-09	-2.573007e+01	-7.013653e+01
9.900000e-07	-3.670251e-06	-1.028343e-09	-2.548373e+01	-6.976478e+01
1.000000e-06	-3.634561e-06	-1.023896e-09	-2.523593e+01	-6.938988e+01
1.010000e-06	-3.598749e-06	-1.022178e-09	-2.498727e+01	-6.901190e+01
1.020000e-06	-3.562779e-06	-1.013225e-09	-2.473752e+01	-6.863093e+01
1.030000e-06	-3.526654e-06	-1.006965e-09	-2.448669e+01	-6.824700e+01
1.040000e-06	-3.490361e-06	-1.004374e-09	-2.423470e+01	-6.786018e+01
1.050000e-06	-3.453861e-06	-9.979856e-10	-2.398127e+01	-6.747049e+01
1.060000e-06	-3.417123e-06	-9.897807e-10	-2.372618e+01	-6.707797e+01
1.070000e-06	-3.380158e-06	-9.873181e-10	-2.346952e+01	-6.668262e+01
1.080000e-06	-3.342888e-06	-9.811308e-10	-2.321074e+01	-6.628444e+01
1.090000e-06	-3.305323e-06	-9.714374e-10	-2.294992e+01	-6.588343e+01
1.100000e-06	-3.267529e-06	-9.632480e-10	-2.268750e+01	-6.547954e+01
1.110000e-06	-3.229470e-06	-9.577842e-10	-2.242325e+01	-6.507274e+01
1.120000e-06	-3.191204e-06	-9.491209e-10	-2.215756e+01	-6.466297e+01
1.130000e-06	-3.152811e-06	-9.424552e-10	-2.189098e+01	-6.425016e+01
1.140000e-06	-3.114237e-06	-9.379885e-10	-2.162315e+01	-6.383422e+01
1.150000e-06	-3.075372e-06	-9.313077e-10	-2.135330e+01	-6.341506e+01
1.160000e-06	-3.036296e-06	-9.213806e-10	-2.108198e+01	-6.299256e+01
1.170000e-06	-2.997110e-06	-9.139400e-10	-2.080990e+01	-6.256660e+01
1.180000e-06	-2.957731e-06	-9.081491e-10	-2.053648e+01	-6.213705e+01
1.190000e-06	-2.918123e-06	-9.028928e-10	-2.026146e+01	-6.170374e+01
1.200000e-06	-2.878359e-06	-8.963691e-10	-1.998537e+01	-6.126653e+01
1.210000e-06	-2.838472e-06	-8.894677e-10	-1.970842e+01	-6.082525e+01
1.220000e-06	-2.798457e-06	-8.826878e-10	-1.943059e+01	-6.037971e+01
1.230000e-06	-2.758294e-06	-8.759187e-10	-1.915172e+01	-5.992972e+01
1.240000e-06	-2.717958e-06	-8.682416e-10	-1.887165e+01	-5.947510e+01
1.250000e-06	-2.677479e-06	-8.577009e-10	-1.859060e+01	-5.901562e+01
1.260000e-06	-2.636820e-06	-8.479340e-10	-1.830829e+01	-5.855108e+01
1.270000e-06	-2.595945e-06	-8.395653e-10	-1.802448e+01	-5.808127e+01
1.280000e-06	-2.554773e-06	-8.322777e-10	-1.773861e+01	-5.760594e+01
1.290000e-06	-2.513293e-06	-8.252413e-10	-1.745060e+01	-5.712488e+01
1.300000e-06	-2.471513e-06	-8.180690e-10	-1.716051e+01	-5.663784e+01
1.310000e-06	-2.429394e-06	-8.107043e-10	-1.686806e+01	-5.614459e+01
1.320000e-06	-2.386999e-06	-8.011036e-10	-1.657370e+01	-5.564487e+01
1.330000e-06	-2.344350e-06	-7.888459e-10	-1.627757e+01	-5.513843e+01
1.340000e-06	-2.301430e-06	-7.771501e-10	-1.597957e+01	-5.462503e+01
1.350000e-06	-2.258243e-06	-7.681624e-10	-1.567970e+01	-5.410439e+01
1.360000e-06	-2.214764e-06	-7.605169e-10	-1.537782e+01	-5.357626e+01
1.370000e-06	-2.171103e-06	-7.533271e-10	-1.507467e+01	-5.304036e+01
1.380000e-06	-2.127400e-06	-7.498379e-10	-1.477122e+01	-5.249643e+01
1.390000e-06	-2.083586e-06	-7.459061e-10	-1.446701e+01	-5.194419e+01
1.400000e-06	-2.039656e-06	-7.372352e-10	-1.416199e+01	-5.138335e+01
1.410000e-06	-1.995689e-06	-7.257538e-10	-1.385671e+01	-5.081362e+01
1.420000e-06	-1.951718e-06	-7.145365e-10	-1.355141e+01	-5.023472e+01
1.430000e-06	-1.907654e-06	-7.028854e-10	-1.324546e+01	-4.964634e+01
1.440000e-06	-1.863468e-06	-6.926366e-10	-1.293866e+01	-4.904818e+01
1.450000e-06	-1.819220e-06	-6.840061e-10	-1.263143e+01	-4.843994e+01
1.460000e-06	-1.774876e-06	-6.746869e-10	-1.232354e+01	-4.782129e+01
1.470000e-06	-1.730458e-06	-6.629982e-10	-1.201512e+01	-4.719190e+01
1.480000e-06	-1.685903e-06	-6.506810e-10	-1.170577e+01	-4.655146e+01
1.490000e-06	-1.641177e-06	-6.389068e-10	-1.139522e+01	-4.589963e+01
1.500000e-06	-1.596364e-06	-6.279963e-10	-1.108407e+01	-4.523605e+01
1.510000e-06	-1.551416e-06	-6.176963e-10	-1.077198e+01	-4.456039e+01
1.520000e-06	-1.506327e-06	-6.065518e-10	-1.045891e+01	-4.387229e+01
1.530000e-06	-1.461093e-06	-5.938899e-10	-1.014484e+01	-4.317138e+01
1.540000e-06	-1.415722e-06	-5.805255e-10	-9.829809e+00	-4.245730e+01
1.550000e-06	-1.370252e-06	-5.660976e-10	-9.514100e+00	-4.172969e+01
1.560000e-06	-1.324659e-06	-5.519642e-10	-9.197534e+00	-4.098815e+01
1.570000e-06	-1.279004e-06	-5.402770e-10	-8.880537e+00	-4.023233e+01
1.580000e-06	-1.233305e-06	-5.309344e-10	-8.563233e+00	-3.946184e+01
1.590000e-06	-1.187479e-06	-5.225029e-10	-8.245046e+00	-3.867629e+01
1.600000e-06	-1.141512e-06	-5.122222e-10	-7.925883e+00	-3.787533e+01
1.610000e-06	-1.095447e-06	-4.984651e-10	-7.606038e+00	-3.705856e+01
1.620000e-06	-1.049397e-06	-4.860642e-10	-7.286303e+00	-3.622562e+01
1.630000e-06	-1.003343e-06	-4.769559e-10	-6.966532e+00	-3.537615e+01
1.640000e-06	-9.571879e-07	-4.686054e-10	-6.646063e+00	-3.450980e+01
1.650000e-06	-9.108616e-07	-4.568159e-10	-6.324405e+00	-3.362622e+01
1.660000e-06	-8.644032e-07	-4.427323e-10	-6.001829e+00	-3.272509e+01
1.670000e-06	-8.180024e-07	-4.279181e-10	-5.679653e+00	-3.180609e+01
1.680000e-06	-7.716282e-07	-4.112875e-10	-5.357662e+00	-3.086893e+01
1.690000e-06	-7.251882e-07	-3.951862e-10	-5.035214e+00	-2.991334e+01
1.700000e-06	-6.786479e-07	-3.819899e-10	-4.712070e+00	-2.893907e+01
1.710000e-06	-6.320256e-07	-3.704042e-10	-4.388357e+00	-2.794590e+01
1.720000e-06	-5.854071e-07	-3.572384e-10	-4.064670e+00	-2.693364e+01
1.730000e-06	-5.387887e-07	-3.415156e-10	-3.740983e+00	-2.590212e+01
1.740000e-06	-4.921488e-07	-3.219221e-10	-3.417147e+00	-2.485124e+01
1.750000e-06	-4.455086e-07	-3.020674e-10	-3.093309e+00	-2.378090e+01
1.760000e-06	-3.987668e-07	-2.852276e-10	-2.768766e+00	-2.269106e+01
1.770000e-06	-3.519440e-07	-2.720734e-10	-2.443660e+00	-2.158172e+01
1.780000e-06	-3.051548e-07	-2.603318e-10	-2.118788e+00	-2.045293e+01
1.790000e-06	-2.583017e-07	-2.464718e-10	-1.793471e+00	-1.930476e+01
1.800000e-06	-2.114229e-07	-2.299302e-10	-1.467977e+00	-1.813738e+01
1.810000e-06	-1.645780e-07	-2.119289e-10	-1.142718e+00	-1.695097e+01
1.820000e-06	-1.176392e-07	-1.943999e-10	-8.168066e-01	-1.574577e+01
1.830000e-06	-7.068242e-08	-1.793386e-10	-4.907708e-01	-1.452209e+01
1.840000e-06	-2.380085e-08	-1.656206e-10	-1.652570e-01	-1.328028e+01
1.850000e-06	2.306321e-08	-1.513732e-10	1.601352e-01	-1.202077e+01
1.860000e-06	6.992065e-08	-1.355538e-10	4.854815e-01	-1.074401e+01
1.870000e-06	1.167639e-07	-1.184286e-10	8.107295e-01	-9.450528e+00
1.880000e-06	1.635786e-07	-9.856212e-11	1.135779e+00	-8.140917e+00
1.890000e-06	2.104849e-07	-7.655737e-11	1.461464e+00	-6.815811e+00
1.900000e-06	2.574228e-07	-5.541358e-11	1.787369e+00	-5.475905e+00
1.910000e-06	3.042422e-07	-3.580998e-11	2.112451e+00	-4.121949e+00
1.920000e-06	3.510050e-07	-1.708628e-11	2.437141e+00	-2.754745e+00
1.930000e-06	3.978059e-07	5.020241e-13	2.762094e+00	-1.375145e+00
1.940000e-06	4.445735e-07	1.794377e-11	3.086816e+00	1.594875e-02
1.950000e-06	4.911678e-07	3.574128e-11	3.410336e+00	1.417588e+00
1.960000e-06	5.377343e-07	5.562259e-11	3.733662e+00	2.828781e+00
1.970000e-06	5.843485e-07	7.787444e-11	4.057319e+00	4.248496e+00
1.980000e-06	6.309547e-07	9.915870e-11	4.380921e+00	5.675663e+00
1.990000e-06	6.775305e-07	1.184886e-10	4.704311e+00	7.109180e+00
2.000000e-06	7.239845e-07	1.365484e-10	5.026857e+00	8.547913e+00
2.010000e-06	7.703555e-07	1.556704e-10	5.348826e+00	9.990703e+00
2.020000e-06	8.167644e-07	1.767163e-10	5.671057e+00	1.143637e+01
2.030000e-06	8.631353e-07	1.995019e-10	5.993025e+00	1.288372e+01
2.040000e-06	9.093658e-07	2.224661e-10	6.314019e+00	1.433154e+01
2.050000e-06	9.554727e-07	2.437887e-10	6.634154e+00	1.577860e+01
2.060000e-06	1.001459e-06	2.631903e-10	6.953451e+00	1.722370e+01
2.070000e-06	1.047404e-06	2.822767e-10	7.272461e+00	1.866561e+01
2.080000e-06	1.093306e-06	3.034605e-10	7.591174e+00	2.010311e+01
2.090000e-06	1.139111e-06	3.259472e-10	7.909213e+00	2.153500e+01
2.100000e-06	1.184850e-06	3.483770e-10	8.226796e+00	2.296008e+01
2.110000e-06	1.230566e-06	3.709490e-10	8.544217e+00	2.437720e+01
2.120000e-06	1.276229e-06	3.927397e-10	8.861268e+00	2.578520e+01
2.130000e-06	1.321714e-06	4.136057e-10	9.177081e+00	2.718296e+01
2.140000e-06	1.367111e-06	4.338874e-10	9.492291e+00	2.856940e+01
2.150000e-06	1.412533e-06	4.526393e-10	9.807673e+00	2.994346e+01
2.160000e-06	1.457866e-06	4.714085e-10	1.012243e+01	3.130414e+01
2.170000e-06	1.503016e-06	4.899723e-10	1.043592e+01	3.265047e+01
2.180000e-06	1.547984e-06	5.092701e-10	1.074815e+01	3.398152e+01
2.190000e-06	1.592826e-06	5.289127e-10	1.105950e+01	3.529642e+01
2.200000e-06	1.637553e-06	5.464932e-10	1.137006e+01	3.659435e+01
2.210000e-06	1.682107e-06	5.633749e-10	1.167941e+01	3.787453e+01
2.220000e-06	1.726569e-06	5.797050e-10	1.198813e+01	3.913626e+01
2.230000e-06	1.770931e-06	5.968839e-10	1.229615e+01	4.037887e+01
2.240000e-06	1.815116e-06	6.121214e-10	1.260293e+01	4.160176e+01
2.250000e-06	1.859216e-06	6.260413e-10	1.290913e+01	4.280440e+01
2.260000e-06	1.903271e-06	6.395844e-10	1.321502e+01	4.398629e+01
2.270000e-06	1.947260e-06	6.559540e-10	1.352045e+01	4.514702e+01
2.280000e-06	1.991228e-06	6.770440e-10	1.382573e+01	4.628622e+01
2.290000e-06	2.035143e-06	6.987669e-10	1.413065e+01	4.740358e+01
2.300000e-06	2.078980e-06	7.175595e-10	1.443503e+01	4.849886e+01
2.310000e-06	2.122761e-06	7.301868e-10	1.473901e+01	4.957187e+01
2.320000e-06	2.166490e-06	7.403497e-10	1.504264e+01	5.062246e+01
2.330000e-06	2.210149e-06	7.504904e-10	1.534577e+01	5.165056e+01
2.340000e-06	2.253655e-06	7.641902e-10	1.564785e+01	5.265614e+01
2.350000e-06	2.296900e-06	7.803223e-10	1.594812e+01	5.363921e+01
2.360000e-06	2.339817e-06	8.000462e-10	1.624610e+01	5.459985e+01
2.370000e-06	2.382436e-06	8.192347e-10	1.654202e+01	5.553817e+01
2.380000e-06	2.424704e-06	8.320768e-10	1.683550e+01	5.645432e+01
2.390000e-06	2.466557e-06	8.400235e-10	1.712610e+01	5.734850e+01
2.400000e-06	2.508139e-06	8.464142e-10	1.741481e+01	5.822096e+01
2.410000e-06	2.549426e-06	8.534903e-10	1.770148e+01	5.907194e+01
2.420000e-06	2.590343e-06	8.631768e-10	1.798558e+01	5.990176e+01
2.430000e-06	2.631054e-06	8.752878e-10	1.826825e+01	6.071075e+01
2.440000e-06	2.671613e-06	8.892549e-10	1.854986e+01	6.149926e+01
2.450000e-06	2.712006e-06	9.029014e-10	1.883033e+01	6.226767e+01
2.460000e-06	2.752236e-06	9.155476e-10	1.910966e+01	6.301638e+01
2.470000e-06	2.792322e-06	9.285419e-10	1.938799e+01	6.374581e+01
2.480000e-06	2.832329e-06	9.399687e-10	1.966577e+01	6.445638e+01
2.490000e-06	2.872194e-06	9.494535e-10	1.994256e+01	6.514855e+01
2.500000e-06	2.911960e-06	9.550288e-10	2.021867e+01	6.582276e+01
2.510000e-06	2.951585e-06	9.621070e-10	2.049380e+01	6.647948e+01
2.520000e-06	2.990982e-06	9.741586e-10	2.076735e+01	6.711917e+01
2.530000e-06	3.030229e-06	9.871006e-10	2.103986e+01	6.774230e+01
2.540000e-06	3.069245e-06	9.977825e-10	2.131076e+01	6.834933e+01
2.550000e-06	3.108009e-06	1.006661e-09	2.157990e+01	6.894075e+01
2.560000e-06	3.146584e-06	1.013957e-09	2.184774e+01	6.951700e+01
2.570000e-06	3.184898e-06	1.019783e-09	2.211377e+01	7.007856e+01
2.580000e-06	3.222973e-06	1.024293e-09	2.237813e+01	7.062588e+01
2.590000e-06	3.260856e-06	1.030525e-09	2.264117e+01	7.115941e+01
2.600000e-06	3.298575e-06	1.038771e-09	2.290307e+01	7.167958e+01
2.610000e-06	3.336120e-06	1.048182e-09	2.316375e+01	7.218683e+01
2.620000e-06	3.373414e-06	1.057573e-09	2.342270e+01	7.268158e+01
2.630000e-06	3.410363e-06	1.064406e-09	2.367925e+01	7.316424e+01
2.640000e-06	3.446941e-06	1.068210e-09	2.393322e+01	7.363521e+01
2.650000e-06	3.483311e-06	1.071643e-09	2.418574e+01	7.409487e+01
2.660000e-06	3.519594e-06	1.077114e-09	2.443767e+01	7.454361e+01
2.670000e-06	3.555740e-06	1.084016e-09	2.468864e+01	7.498179e+01
2.680000e-06	3.591711e-06	1.092500e-09	2.493840e+01	7.540975e+01
2.690000e-06	3.627569e-06	1.103142e-09	2.518738e+01	7.582783e+01
2.700000e-06	3.663341e-06	1.112308e-09	2.543575e+01	7.623637e+01
2.710000e-06	3.698944e-06	1.117912e-09	2.568296e+01	7.663567e+01
2.720000e-06	3.734298e-06	1.122632e-09	2.592843e+01	7.702603e+01
2.730000e-06	3.769333e-06	1.127710e-09	2.617169e+01	7.740774e+01
2.740000e-06	3.803885e-06	1.131039e-09	2.641159e+01	7.778107e+01
2.750000e-06	3.837921e-06	1.133418e-09	2.664792e+01	7.814629e+01
2.760000e-06	3.871456e-06	1.138384e-09	2.688076e+01	7.850365e+01
2.770000e-06	3.904568e-06	1.146362e-09	2.711067e+01	7.885337e+01
2.780000e-06	3.937274e-06	1.156015e-09	2.733776e+01	7.919569e+01
2.790000e-06	3.969600e-06	1.165618e-09	2.756221e+01	7.953082e+01
2.800000e-06	4.001694e-06	1.172065e-09	2.778505e+01	7.985896e+01
2.810000e-06	4.033628e-06	1.175201e-09	2.800678e+01	8.018029e+01
2.820000e-06	4.065448e-06	1.178445e-09	2.822771e+01	8.049499e+01
2.830000e-06	4.097161e-06	1.182025e-09	2.844790e+01	8.080323e+01
2.840000e-06	4.128685e-06	1.187360e-09	2.866679e+01	8.110515e+01
2.850000e-06	4.159803e-06	1.196057e-09	2.888285e+01	8.140090e+01
2.860000e-06	4.190500e-06	1.205911e-09	2.909599e+01	8.169060e+01
2.870000e-06	4.220937e-06	1.213034e-09	2.930732e+01	8.197436e+01
2.880000e-06	4.251070e-06	1.217836e-09	2.951654e+01	8.225230e+01
2.890000e-06	4.280926e-06	1.222283e-09	2.972384e+01	8.252451e+01
2.900000e-06	4.310558e-06	1.225442e-09	2.992959e+01	8.279105e+01
