# Temperatura_=_9.02
# Concentracion g/m^3_=_1620.0
# C_Vs_to_Am_M_A/Vsm_=_65563218390.804596
# pendiente_HvsI_1/m_=_3716.3
# ordenada_HvsI_A/m_=_1297.0
# frecuencia_Hz_=_135087.16340804962

Tiempo_(s)	Campo_(V.s)	Magnetizacion_(V.s)	Campo_(kA/m)	Magnetizacion_(A/m)
0.000000e+00	-5.504839e-06	-1.434688e-09	-3.838110e+01	-9.337413e+01
1.000000e-08	-5.505036e-06	-1.433200e-09	-3.838247e+01	-9.338312e+01
2.000000e-08	-5.504930e-06	-1.434195e-09	-3.838173e+01	-9.339063e+01
3.000000e-08	-5.504468e-06	-1.435878e-09	-3.837851e+01	-9.339656e+01
4.000000e-08	-5.503737e-06	-1.433530e-09	-3.837342e+01	-9.340075e+01
5.000000e-08	-5.502470e-06	-1.424927e-09	-3.836458e+01	-9.340307e+01
6.000000e-08	-5.500506e-06	-1.427461e-09	-3.835089e+01	-9.340333e+01
7.000000e-08	-5.498041e-06	-1.457895e-09	-3.833370e+01	-9.340135e+01
8.000000e-08	-5.495012e-06	-1.470484e-09	-3.831259e+01	-9.339694e+01
9.000000e-08	-5.491412e-06	-1.433629e-09	-3.828748e+01	-9.338988e+01
1.000000e-07	-5.487412e-06	-1.432167e-09	-3.825959e+01	-9.337996e+01
1.100000e-07	-5.483114e-06	-1.439709e-09	-3.822963e+01	-9.336695e+01
1.200000e-07	-5.478609e-06	-1.415261e-09	-3.819821e+01	-9.335060e+01
1.300000e-07	-5.473814e-06	-1.379327e-09	-3.816478e+01	-9.333068e+01
1.400000e-07	-5.468540e-06	-1.404982e-09	-3.812801e+01	-9.330695e+01
1.500000e-07	-5.462866e-06	-1.421836e-09	-3.808845e+01	-9.327916e+01
1.600000e-07	-5.456950e-06	-1.411680e-09	-3.804720e+01	-9.324707e+01
1.700000e-07	-5.450711e-06	-1.391340e-09	-3.800371e+01	-9.321042e+01
1.800000e-07	-5.444066e-06	-1.438547e-09	-3.795738e+01	-9.316898e+01
1.900000e-07	-5.436904e-06	-1.451233e-09	-3.790744e+01	-9.312252e+01
2.000000e-07	-5.429358e-06	-1.417706e-09	-3.785483e+01	-9.307080e+01
2.100000e-07	-5.421619e-06	-1.409433e-09	-3.780087e+01	-9.301362e+01
2.200000e-07	-5.413678e-06	-1.448022e-09	-3.774550e+01	-9.295074e+01
2.300000e-07	-5.405465e-06	-1.463921e-09	-3.768824e+01	-9.288199e+01
2.400000e-07	-5.396825e-06	-1.421959e-09	-3.762800e+01	-9.280716e+01
2.500000e-07	-5.387620e-06	-1.418963e-09	-3.756382e+01	-9.272610e+01
2.600000e-07	-5.377738e-06	-1.430222e-09	-3.749492e+01	-9.263863e+01
2.700000e-07	-5.367304e-06	-1.434730e-09	-3.742217e+01	-9.254462e+01
2.800000e-07	-5.356290e-06	-1.405671e-09	-3.734538e+01	-9.244394e+01
2.900000e-07	-5.344793e-06	-1.417485e-09	-3.726522e+01	-9.233649e+01
3.000000e-07	-5.332947e-06	-1.405339e-09	-3.718263e+01	-9.222216e+01
3.100000e-07	-5.320728e-06	-1.399052e-09	-3.709743e+01	-9.210089e+01
3.200000e-07	-5.308128e-06	-1.398215e-09	-3.700958e+01	-9.197261e+01
3.300000e-07	-5.295056e-06	-1.412321e-09	-3.691844e+01	-9.183730e+01
3.400000e-07	-5.281615e-06	-1.392499e-09	-3.682473e+01	-9.169492e+01
3.500000e-07	-5.267784e-06	-1.406443e-09	-3.672829e+01	-9.154549e+01
3.600000e-07	-5.253464e-06	-1.408864e-09	-3.662845e+01	-9.138900e+01
3.700000e-07	-5.238774e-06	-1.392944e-09	-3.652603e+01	-9.122550e+01
3.800000e-07	-5.223569e-06	-1.396347e-09	-3.642001e+01	-9.105504e+01
3.900000e-07	-5.207750e-06	-1.417108e-09	-3.630972e+01	-9.087768e+01
4.000000e-07	-5.191473e-06	-1.375549e-09	-3.619624e+01	-9.069349e+01
4.100000e-07	-5.174810e-06	-1.359838e-09	-3.608005e+01	-9.050258e+01
4.200000e-07	-5.157825e-06	-1.410787e-09	-3.596163e+01	-9.030505e+01
4.300000e-07	-5.140499e-06	-1.396336e-09	-3.584083e+01	-9.010103e+01
4.400000e-07	-5.122826e-06	-1.347030e-09	-3.571761e+01	-8.989064e+01
4.500000e-07	-5.104725e-06	-1.392179e-09	-3.559140e+01	-8.967403e+01
4.600000e-07	-5.086201e-06	-1.421108e-09	-3.546225e+01	-8.945136e+01
4.700000e-07	-5.067387e-06	-1.342338e-09	-3.533108e+01	-8.922278e+01
4.800000e-07	-5.048276e-06	-1.353478e-09	-3.519783e+01	-8.898846e+01
4.900000e-07	-5.028892e-06	-1.414150e-09	-3.506268e+01	-8.874857e+01
5.000000e-07	-5.009233e-06	-1.360381e-09	-3.492561e+01	-8.850329e+01
5.100000e-07	-4.989315e-06	-1.314252e-09	-3.478674e+01	-8.825280e+01
5.200000e-07	-4.969162e-06	-1.388449e-09	-3.464622e+01	-8.799729e+01
5.300000e-07	-4.948667e-06	-1.373237e-09	-3.450333e+01	-8.773693e+01
5.400000e-07	-4.927829e-06	-1.310910e-09	-3.435804e+01	-8.747191e+01
5.500000e-07	-4.906697e-06	-1.351396e-09	-3.421071e+01	-8.720242e+01
5.600000e-07	-4.885279e-06	-1.374484e-09	-3.406138e+01	-8.692862e+01
5.700000e-07	-4.863406e-06	-1.301088e-09	-3.390887e+01	-8.665070e+01
5.800000e-07	-4.841172e-06	-1.319403e-09	-3.375385e+01	-8.636883e+01
5.900000e-07	-4.818679e-06	-1.361462e-09	-3.359702e+01	-8.608316e+01
6.000000e-07	-4.795854e-06	-1.310877e-09	-3.343788e+01	-8.579386e+01
6.100000e-07	-4.772724e-06	-1.288572e-09	-3.327661e+01	-8.550108e+01
6.200000e-07	-4.749251e-06	-1.333352e-09	-3.311295e+01	-8.520495e+01
6.300000e-07	-4.725434e-06	-1.303748e-09	-3.294689e+01	-8.490561e+01
6.400000e-07	-4.701370e-06	-1.272370e-09	-3.277912e+01	-8.460318e+01
6.500000e-07	-4.677029e-06	-1.304610e-09	-3.260940e+01	-8.429777e+01
6.600000e-07	-4.652338e-06	-1.299512e-09	-3.243725e+01	-8.398948e+01
6.700000e-07	-4.627184e-06	-1.267149e-09	-3.226187e+01	-8.367841e+01
6.800000e-07	-4.601471e-06	-1.290631e-09	-3.208260e+01	-8.336462e+01
6.900000e-07	-4.575337e-06	-1.297910e-09	-3.190038e+01	-8.304819e+01
7.000000e-07	-4.548734e-06	-1.268390e-09	-3.171490e+01	-8.272916e+01
7.100000e-07	-4.521648e-06	-1.270572e-09	-3.152605e+01	-8.240757e+01
7.200000e-07	-4.494273e-06	-1.277374e-09	-3.133518e+01	-8.208346e+01
7.300000e-07	-4.466718e-06	-1.254335e-09	-3.114306e+01	-8.175684e+01
7.400000e-07	-4.438960e-06	-1.243676e-09	-3.094953e+01	-8.142771e+01
7.500000e-07	-4.410963e-06	-1.250568e-09	-3.075433e+01	-8.109605e+01
7.600000e-07	-4.382737e-06	-1.237098e-09	-3.055753e+01	-8.076185e+01
7.700000e-07	-4.354203e-06	-1.231874e-09	-3.035858e+01	-8.042508e+01
7.800000e-07	-4.325387e-06	-1.238406e-09	-3.015767e+01	-8.008568e+01
7.900000e-07	-4.296297e-06	-1.231692e-09	-2.995484e+01	-7.974359e+01
8.000000e-07	-4.266894e-06	-1.218278e-09	-2.974984e+01	-7.939876e+01
8.100000e-07	-4.237201e-06	-1.218835e-09	-2.954281e+01	-7.905110e+01
8.200000e-07	-4.207168e-06	-1.208377e-09	-2.933342e+01	-7.870052e+01
8.300000e-07	-4.176783e-06	-1.195083e-09	-2.912156e+01	-7.834693e+01
8.400000e-07	-4.146097e-06	-1.194234e-09	-2.890761e+01	-7.799023e+01
8.500000e-07	-4.115181e-06	-1.194080e-09	-2.869206e+01	-7.763029e+01
8.600000e-07	-4.084025e-06	-1.179615e-09	-2.847483e+01	-7.726701e+01
8.700000e-07	-4.052604e-06	-1.174821e-09	-2.825576e+01	-7.690025e+01
8.800000e-07	-4.020988e-06	-1.172971e-09	-2.803532e+01	-7.652989e+01
8.900000e-07	-3.989177e-06	-1.165960e-09	-2.781353e+01	-7.615579e+01
9.000000e-07	-3.957104e-06	-1.155608e-09	-2.758991e+01	-7.577782e+01
9.100000e-07	-3.924799e-06	-1.153854e-09	-2.736467e+01	-7.539584e+01
9.200000e-07	-3.892212e-06	-1.144281e-09	-2.713747e+01	-7.500970e+01
9.300000e-07	-3.859267e-06	-1.131567e-09	-2.690776e+01	-7.461928e+01
9.400000e-07	-3.825839e-06	-1.126944e-09	-2.667470e+01	-7.422442e+01
9.500000e-07	-3.791888e-06	-1.124097e-09	-2.643798e+01	-7.382500e+01
9.600000e-07	-3.757559e-06	-1.113911e-09	-2.619863e+01	-7.342087e+01
9.700000e-07	-3.723008e-06	-1.105730e-09	-2.595773e+01	-7.301192e+01
9.800000e-07	-3.688119e-06	-1.103897e-09	-2.571448e+01	-7.259800e+01
9.900000e-07	-3.652803e-06	-1.100570e-09	-2.546824e+01	-7.217902e+01
1.000000e-06	-3.617293e-06	-1.093349e-09	-2.522066e+01	-7.175484e+01
1.010000e-06	-3.581623e-06	-1.088693e-09	-2.497196e+01	-7.132538e+01
1.020000e-06	-3.545816e-06	-1.081993e-09	-2.472231e+01	-7.089052e+01
1.030000e-06	-3.509874e-06	-1.071287e-09	-2.447171e+01	-7.045019e+01
1.040000e-06	-3.473700e-06	-1.064900e-09	-2.421950e+01	-7.000430e+01
1.050000e-06	-3.437278e-06	-1.056665e-09	-2.396555e+01	-6.955280e+01
1.060000e-06	-3.400636e-06	-1.043920e-09	-2.371008e+01	-6.909562e+01
1.070000e-06	-3.363791e-06	-1.033953e-09	-2.345318e+01	-6.863271e+01
1.080000e-06	-3.326695e-06	-1.030839e-09	-2.319454e+01	-6.816406e+01
1.090000e-06	-3.289356e-06	-1.023922e-09	-2.293420e+01	-6.768962e+01
1.100000e-06	-3.251677e-06	-1.016002e-09	-2.267149e+01	-6.720941e+01
1.110000e-06	-3.213770e-06	-1.008703e-09	-2.240720e+01	-6.672341e+01
1.120000e-06	-3.175675e-06	-1.001468e-09	-2.214159e+01	-6.623165e+01
1.130000e-06	-3.137374e-06	-9.895066e-10	-2.187455e+01	-6.573414e+01
1.140000e-06	-3.098925e-06	-9.796127e-10	-2.160647e+01	-6.523093e+01
1.150000e-06	-3.060265e-06	-9.698053e-10	-2.133693e+01	-6.472207e+01
1.160000e-06	-3.021407e-06	-9.587273e-10	-2.106600e+01	-6.420760e+01
1.170000e-06	-2.982330e-06	-9.480409e-10	-2.079354e+01	-6.368761e+01
1.180000e-06	-2.943022e-06	-9.415102e-10	-2.051948e+01	-6.316215e+01
1.190000e-06	-2.903554e-06	-9.351566e-10	-2.024430e+01	-6.263133e+01
1.200000e-06	-2.863920e-06	-9.285558e-10	-1.996796e+01	-6.209521e+01
1.210000e-06	-2.824190e-06	-9.219183e-10	-1.969095e+01	-6.155390e+01
1.220000e-06	-2.784368e-06	-9.142709e-10	-1.941330e+01	-6.100748e+01
1.230000e-06	-2.744355e-06	-9.015151e-10	-1.913432e+01	-6.045607e+01
1.240000e-06	-2.704116e-06	-8.880988e-10	-1.885376e+01	-5.989974e+01
1.250000e-06	-2.663711e-06	-8.771428e-10	-1.857205e+01	-5.933860e+01
1.260000e-06	-2.623222e-06	-8.697304e-10	-1.828975e+01	-5.877274e+01
1.270000e-06	-2.582401e-06	-8.620301e-10	-1.800514e+01	-5.820224e+01
1.280000e-06	-2.541246e-06	-8.573417e-10	-1.771819e+01	-5.762718e+01
1.290000e-06	-2.499958e-06	-8.537245e-10	-1.743032e+01	-5.704763e+01
1.300000e-06	-2.458383e-06	-8.432724e-10	-1.714045e+01	-5.646365e+01
1.310000e-06	-2.416438e-06	-8.301959e-10	-1.684800e+01	-5.587527e+01
1.320000e-06	-2.374323e-06	-8.149050e-10	-1.655437e+01	-5.528253e+01
1.330000e-06	-2.331943e-06	-8.029065e-10	-1.625889e+01	-5.468544e+01
1.340000e-06	-2.289280e-06	-7.977500e-10	-1.596143e+01	-5.408399e+01
1.350000e-06	-2.246434e-06	-7.926584e-10	-1.566269e+01	-5.347814e+01
1.360000e-06	-2.203310e-06	-7.837181e-10	-1.536202e+01	-5.286785e+01
1.370000e-06	-2.159959e-06	-7.715409e-10	-1.505977e+01	-5.225305e+01
1.380000e-06	-2.116435e-06	-7.621150e-10	-1.475631e+01	-5.163362e+01
1.390000e-06	-2.072805e-06	-7.499479e-10	-1.445211e+01	-5.100945e+01
1.400000e-06	-2.029072e-06	-7.387161e-10	-1.414719e+01	-5.038036e+01
1.410000e-06	-1.985247e-06	-7.328097e-10	-1.384163e+01	-4.974619e+01
1.420000e-06	-1.941373e-06	-7.266059e-10	-1.353573e+01	-4.910671e+01
1.430000e-06	-1.897370e-06	-7.169606e-10	-1.322893e+01	-4.846168e+01
1.440000e-06	-1.853307e-06	-7.029350e-10	-1.292171e+01	-4.781082e+01
1.450000e-06	-1.809241e-06	-6.881934e-10	-1.261448e+01	-4.715383e+01
1.460000e-06	-1.765107e-06	-6.743662e-10	-1.230676e+01	-4.649036e+01
1.470000e-06	-1.720777e-06	-6.607972e-10	-1.199768e+01	-4.582007e+01
1.480000e-06	-1.676251e-06	-6.481673e-10	-1.168724e+01	-4.514254e+01
1.490000e-06	-1.631683e-06	-6.417060e-10	-1.137650e+01	-4.445736e+01
1.500000e-06	-1.586994e-06	-6.362318e-10	-1.106491e+01	-4.376409e+01
1.510000e-06	-1.542141e-06	-6.298261e-10	-1.075219e+01	-4.306224e+01
1.520000e-06	-1.497238e-06	-6.202200e-10	-1.043911e+01	-4.235132e+01
1.530000e-06	-1.452283e-06	-6.066323e-10	-1.012568e+01	-4.163082e+01
1.540000e-06	-1.407206e-06	-5.871731e-10	-9.811390e+00	-4.090020e+01
1.550000e-06	-1.362044e-06	-5.670018e-10	-9.496507e+00	-4.015892e+01
1.560000e-06	-1.316858e-06	-5.517114e-10	-9.181463e+00	-3.940641e+01
1.570000e-06	-1.271488e-06	-5.430873e-10	-8.865128e+00	-3.864209e+01
1.580000e-06	-1.225955e-06	-5.366977e-10	-8.547658e+00	-3.786541e+01
1.590000e-06	-1.180342e-06	-5.320921e-10	-8.229639e+00	-3.707577e+01
1.600000e-06	-1.134671e-06	-5.230300e-10	-7.911205e+00	-3.627260e+01
1.610000e-06	-1.088875e-06	-5.073037e-10	-7.591904e+00	-3.545532e+01
1.620000e-06	-1.042967e-06	-4.881871e-10	-7.271823e+00	-3.462338e+01
1.630000e-06	-9.970786e-07	-4.723143e-10	-6.951879e+00	-3.377624e+01
1.640000e-06	-9.510465e-07	-4.587846e-10	-6.630931e+00	-3.291335e+01
1.650000e-06	-9.049159e-07	-4.456093e-10	-6.309297e+00	-3.203421e+01
1.660000e-06	-8.587517e-07	-4.340987e-10	-5.987429e+00	-3.113835e+01
1.670000e-06	-8.125032e-07	-4.222865e-10	-5.664973e+00	-3.022530e+01
1.680000e-06	-7.662457e-07	-4.083668e-10	-5.342455e+00	-2.929466e+01
1.690000e-06	-7.200163e-07	-3.938354e-10	-5.020132e+00	-2.834605e+01
1.700000e-06	-6.737473e-07	-3.795648e-10	-4.697533e+00	-2.737914e+01
1.710000e-06	-6.274021e-07	-3.625869e-10	-4.374402e+00	-2.639363e+01
1.720000e-06	-5.809486e-07	-3.447758e-10	-4.050518e+00	-2.538929e+01
1.730000e-06	-5.344741e-07	-3.258739e-10	-3.726485e+00	-2.436593e+01
1.740000e-06	-4.880634e-07	-3.058935e-10	-3.402899e+00	-2.332343e+01
1.750000e-06	-4.415308e-07	-2.896020e-10	-3.078462e+00	-2.226172e+01
1.760000e-06	-3.949047e-07	-2.775811e-10	-2.753373e+00	-2.118080e+01
1.770000e-06	-3.482505e-07	-2.647956e-10	-2.428089e+00	-2.008071e+01
1.780000e-06	-3.015684e-07	-2.506932e-10	-2.102610e+00	-1.896158e+01
1.790000e-06	-2.549019e-07	-2.353757e-10	-1.777239e+00	-1.782361e+01
1.800000e-06	-2.082225e-07	-2.181795e-10	-1.451779e+00	-1.666704e+01
1.810000e-06	-1.615144e-07	-1.993698e-10	-1.126119e+00	-1.549221e+01
1.820000e-06	-1.147919e-07	-1.830445e-10	-8.003576e-01	-1.429952e+01
1.830000e-06	-6.805180e-08	-1.702350e-10	-4.744740e-01	-1.308941e+01
1.840000e-06	-2.135429e-08	-1.581629e-10	-1.488874e-01	-1.186244e+01
1.850000e-06	2.527785e-08	-1.425721e-10	1.762434e-01	-1.061919e+01
1.860000e-06	7.193938e-08	-1.234969e-10	5.015792e-01	-9.360327e+00
1.870000e-06	1.186744e-07	-1.032030e-10	8.274270e-01	-8.086586e+00
1.880000e-06	1.654073e-07	-8.294018e-11	1.153261e+00	-6.798751e+00
1.890000e-06	2.120528e-07	-6.223580e-11	1.478485e+00	-5.497672e+00
1.900000e-06	2.586544e-07	-4.318022e-11	1.803402e+00	-4.184249e+00
1.910000e-06	3.052766e-07	-2.729897e-11	2.128464e+00	-2.859438e+00
1.920000e-06	3.518964e-07	-1.241287e-11	2.453509e+00	-1.524242e+00
1.930000e-06	3.984686e-07	3.091086e-12	2.778222e+00	-1.797050e-01
1.940000e-06	4.450475e-07	1.993706e-11	3.102981e+00	1.173085e+00
1.950000e-06	4.915460e-07	3.932837e-11	3.427180e+00	2.533009e+00
1.960000e-06	5.379207e-07	6.168778e-11	3.750516e+00	3.898917e+00
1.970000e-06	5.842457e-07	8.345014e-11	4.073506e+00	5.269633e+00
1.980000e-06	6.305323e-07	1.011637e-10	4.396227e+00	6.643963e+00
1.990000e-06	6.767530e-07	1.180690e-10	4.718489e+00	8.020699e+00
2.000000e-06	7.229346e-07	1.337928e-10	5.040479e+00	9.398624e+00
2.010000e-06	7.691828e-07	1.501438e-10	5.362933e+00	1.077652e+01
2.020000e-06	8.153540e-07	1.701053e-10	5.684850e+00	1.215316e+01
2.030000e-06	8.613667e-07	1.936533e-10	6.005661e+00	1.352735e+01
2.040000e-06	9.073111e-07	2.170025e-10	6.325997e+00	1.489788e+01
2.050000e-06	9.532747e-07	2.378601e-10	6.646467e+00	1.626357e+01
2.060000e-06	9.991913e-07	2.571963e-10	6.966609e+00	1.762328e+01
2.070000e-06	1.044985e-06	2.755637e-10	7.285892e+00	1.897587e+01
2.080000e-06	1.090705e-06	2.943620e-10	7.604667e+00	2.032026e+01
2.090000e-06	1.136342e-06	3.126857e-10	7.922858e+00	2.165538e+01
2.100000e-06	1.181955e-06	3.327905e-10	8.240881e+00	2.298022e+01
2.110000e-06	1.227550e-06	3.531450e-10	8.558783e+00	2.429382e+01
2.120000e-06	1.273041e-06	3.718722e-10	8.875960e+00	2.559526e+01
2.130000e-06	1.318399e-06	3.916933e-10	9.192205e+00	2.688366e+01
2.140000e-06	1.363666e-06	4.121383e-10	9.507819e+00	2.815822e+01
2.150000e-06	1.408823e-06	4.321352e-10	9.822665e+00	2.941819e+01
2.160000e-06	1.453866e-06	4.503194e-10	1.013672e+01	3.066286e+01
2.170000e-06	1.498843e-06	4.661288e-10	1.045031e+01	3.189161e+01
2.180000e-06	1.543668e-06	4.847171e-10	1.076284e+01	3.310386e+01
2.190000e-06	1.588297e-06	5.028875e-10	1.107400e+01	3.429911e+01
2.200000e-06	1.632892e-06	5.192344e-10	1.138493e+01	3.547690e+01
2.210000e-06	1.677362e-06	5.345475e-10	1.169498e+01	3.663685e+01
2.220000e-06	1.721650e-06	5.484160e-10	1.200377e+01	3.777865e+01
2.230000e-06	1.765865e-06	5.642457e-10	1.231205e+01	3.890203e+01
2.240000e-06	1.809950e-06	5.806771e-10	1.261942e+01	4.000679e+01
2.250000e-06	1.853876e-06	5.972095e-10	1.292568e+01	4.109279e+01
2.260000e-06	1.897735e-06	6.119064e-10	1.323148e+01	4.215996e+01
2.270000e-06	1.941555e-06	6.269186e-10	1.353700e+01	4.320824e+01
2.280000e-06	1.985312e-06	6.451560e-10	1.384209e+01	4.423768e+01
2.290000e-06	2.029030e-06	6.611907e-10	1.414690e+01	4.524833e+01
2.300000e-06	2.072716e-06	6.766302e-10	1.445149e+01	4.624032e+01
2.310000e-06	2.116398e-06	6.892756e-10	1.475605e+01	4.721380e+01
2.320000e-06	2.159975e-06	7.002310e-10	1.505988e+01	4.816897e+01
2.330000e-06	2.203406e-06	7.124712e-10	1.536269e+01	4.910606e+01
2.340000e-06	2.246709e-06	7.268569e-10	1.566461e+01	5.002534e+01
2.350000e-06	2.289694e-06	7.444571e-10	1.596431e+01	5.092709e+01
2.360000e-06	2.332418e-06	7.650750e-10	1.626219e+01	5.181164e+01
2.370000e-06	2.374905e-06	7.840854e-10	1.655842e+01	5.267932e+01
2.380000e-06	2.416940e-06	7.954088e-10	1.685150e+01	5.353048e+01
2.390000e-06	2.458679e-06	8.036035e-10	1.714252e+01	5.436549e+01
2.400000e-06	2.500164e-06	8.121163e-10	1.743176e+01	5.518473e+01
2.410000e-06	2.541291e-06	8.191840e-10	1.771851e+01	5.598858e+01
2.420000e-06	2.582137e-06	8.282081e-10	1.800330e+01	5.677743e+01
2.430000e-06	2.622741e-06	8.420530e-10	1.828640e+01	5.755166e+01
2.440000e-06	2.663159e-06	8.582469e-10	1.856820e+01	5.831165e+01
2.450000e-06	2.703357e-06	8.744075e-10	1.884847e+01	5.905779e+01
2.460000e-06	2.743410e-06	8.878094e-10	1.912773e+01	5.979043e+01
2.470000e-06	2.783393e-06	8.992643e-10	1.940651e+01	6.050994e+01
2.480000e-06	2.823250e-06	9.083743e-10	1.968439e+01	6.121666e+01
2.490000e-06	2.863025e-06	9.162004e-10	1.996172e+01	6.191093e+01
2.500000e-06	2.902690e-06	9.227550e-10	2.023827e+01	6.259307e+01
2.510000e-06	2.942155e-06	9.309687e-10	2.051343e+01	6.326337e+01
2.520000e-06	2.981454e-06	9.421098e-10	2.078744e+01	6.392211e+01
2.530000e-06	3.020505e-06	9.538678e-10	2.105970e+01	6.456957e+01
2.540000e-06	3.059193e-06	9.649651e-10	2.132945e+01	6.520599e+01
2.550000e-06	3.097701e-06	9.753476e-10	2.159794e+01	6.583160e+01
2.560000e-06	3.135981e-06	9.857790e-10	2.186484e+01	6.644661e+01
2.570000e-06	3.174049e-06	9.950171e-10	2.213025e+01	6.705122e+01
2.580000e-06	3.212008e-06	1.000420e-09	2.239491e+01	6.764560e+01
2.590000e-06	3.249748e-06	1.004585e-09	2.265804e+01	6.822993e+01
2.600000e-06	3.287225e-06	1.011102e-09	2.291935e+01	6.880434e+01
2.610000e-06	3.324458e-06	1.018658e-09	2.317894e+01	6.936897e+01
2.620000e-06	3.361509e-06	1.026650e-09	2.343727e+01	6.992393e+01
2.630000e-06	3.398305e-06	1.033666e-09	2.369382e+01	7.046935e+01
2.640000e-06	3.434842e-06	1.039885e-09	2.394857e+01	7.100532e+01
2.650000e-06	3.471176e-06	1.048090e-09	2.420190e+01	7.153194e+01
2.660000e-06	3.507295e-06	1.055563e-09	2.445373e+01	7.204929e+01
2.670000e-06	3.543254e-06	1.061192e-09	2.470444e+01	7.255745e+01
2.680000e-06	3.579084e-06	1.067543e-09	2.495426e+01	7.305651e+01
2.690000e-06	3.614814e-06	1.076217e-09	2.520338e+01	7.354654e+01
2.700000e-06	3.650347e-06	1.084828e-09	2.545112e+01	7.402762e+01
2.710000e-06	3.685632e-06	1.093048e-09	2.569714e+01	7.449984e+01
2.720000e-06	3.720607e-06	1.102682e-09	2.594100e+01	7.496327e+01
2.730000e-06	3.755223e-06	1.111160e-09	2.618234e+01	7.541800e+01
2.740000e-06	3.789485e-06	1.117848e-09	2.642122e+01	7.586412e+01
2.750000e-06	3.823244e-06	1.121055e-09	2.665660e+01	7.630174e+01
2.760000e-06	3.856523e-06	1.123644e-09	2.688863e+01	7.673096e+01
2.770000e-06	3.889314e-06	1.131317e-09	2.711726e+01	7.715189e+01
2.780000e-06	3.921702e-06	1.140526e-09	2.734307e+01	7.756465e+01
2.790000e-06	3.953870e-06	1.148898e-09	2.756736e+01	7.796938e+01
2.800000e-06	3.985836e-06	1.157114e-09	2.779023e+01	7.836621e+01
2.810000e-06	4.017624e-06	1.163505e-09	2.801187e+01	7.875529e+01
2.820000e-06	4.049270e-06	1.169804e-09	2.823251e+01	7.913679e+01
2.830000e-06	4.080701e-06	1.176770e-09	2.845165e+01	7.951085e+01
2.840000e-06	4.111913e-06	1.183910e-09	2.866927e+01	7.987766e+01
2.850000e-06	4.142889e-06	1.193090e-09	2.888525e+01	8.023739e+01
2.860000e-06	4.173457e-06	1.202689e-09	2.909837e+01	8.059023e+01
2.870000e-06	4.203637e-06	1.208313e-09	2.930880e+01	8.093637e+01
2.880000e-06	4.233513e-06	1.211774e-09	2.951710e+01	8.127600e+01
2.890000e-06	4.263164e-06	1.216080e-09	2.972384e+01	8.160931e+01
2.900000e-06	4.292611e-06	1.221823e-09	2.992915e+01	8.193650e+01
