# Temperatura_=_-0.6
# Concentracion g/m^3_=_1620.0
# C_Vs_to_Am_M_A/Vsm_=_65563218390.804596
# pendiente_HvsI_1/m_=_3716.3
# ordenada_HvsI_A/m_=_1297.0
# frecuencia_Hz_=_135097.14621819372

Tiempo_(s)	Campo_(V.s)	Magnetizacion_(V.s)	Campo_(kA/m)	Magnetizacion_(A/m)
0.000000e+00	-5.517106e-06	-1.355023e-09	-3.837659e+01	-8.944018e+01
1.000000e-08	-5.517380e-06	-1.355787e-09	-3.837850e+01	-8.934101e+01
2.000000e-08	-5.517425e-06	-1.357086e-09	-3.837881e+01	-8.923748e+01
3.000000e-08	-5.517186e-06	-1.358327e-09	-3.837715e+01	-8.912974e+01
4.000000e-08	-5.516561e-06	-1.356501e-09	-3.837280e+01	-8.901798e+01
5.000000e-08	-5.515318e-06	-1.345109e-09	-3.836416e+01	-8.890238e+01
6.000000e-08	-5.513401e-06	-1.331562e-09	-3.835082e+01	-8.878315e+01
7.000000e-08	-5.510992e-06	-1.349449e-09	-3.833407e+01	-8.866053e+01
8.000000e-08	-5.508016e-06	-1.387606e-09	-3.831337e+01	-8.853476e+01
9.000000e-08	-5.504454e-06	-1.405030e-09	-3.828859e+01	-8.840609e+01
1.000000e-07	-5.500520e-06	-1.405348e-09	-3.826123e+01	-8.827480e+01
1.100000e-07	-5.496278e-06	-1.380255e-09	-3.823171e+01	-8.814114e+01
1.200000e-07	-5.491726e-06	-1.306631e-09	-3.820005e+01	-8.800541e+01
1.300000e-07	-5.486900e-06	-1.308047e-09	-3.816648e+01	-8.786789e+01
1.400000e-07	-5.481771e-06	-1.324040e-09	-3.813081e+01	-8.772886e+01
1.500000e-07	-5.476302e-06	-1.376945e-09	-3.809276e+01	-8.758861e+01
1.600000e-07	-5.470402e-06	-1.336266e-09	-3.805172e+01	-8.744741e+01
1.700000e-07	-5.464124e-06	-1.331216e-09	-3.800806e+01	-8.730553e+01
1.800000e-07	-5.457496e-06	-1.361010e-09	-3.796195e+01	-8.716324e+01
1.900000e-07	-5.450372e-06	-1.357139e-09	-3.791240e+01	-8.702078e+01
2.000000e-07	-5.442894e-06	-1.313816e-09	-3.786038e+01	-8.687839e+01
2.100000e-07	-5.435158e-06	-1.286925e-09	-3.780657e+01	-8.673629e+01
2.200000e-07	-5.427224e-06	-1.335121e-09	-3.775138e+01	-8.659467e+01
2.300000e-07	-5.419177e-06	-1.339266e-09	-3.769541e+01	-8.645370e+01
2.400000e-07	-5.410679e-06	-1.315013e-09	-3.763629e+01	-8.631355e+01
2.500000e-07	-5.401499e-06	-1.268076e-09	-3.757244e+01	-8.617432e+01
2.600000e-07	-5.391717e-06	-1.288509e-09	-3.750439e+01	-8.603613e+01
2.700000e-07	-5.381167e-06	-1.281679e-09	-3.743101e+01	-8.589903e+01
2.800000e-07	-5.369929e-06	-1.296378e-09	-3.735284e+01	-8.576306e+01
2.900000e-07	-5.358406e-06	-1.289388e-09	-3.727269e+01	-8.562824e+01
3.000000e-07	-5.346631e-06	-1.303072e-09	-3.719078e+01	-8.549453e+01
3.100000e-07	-5.334481e-06	-1.281711e-09	-3.710627e+01	-8.536188e+01
3.200000e-07	-5.321927e-06	-1.289654e-09	-3.701894e+01	-8.523020e+01
3.300000e-07	-5.308876e-06	-1.278467e-09	-3.692816e+01	-8.509937e+01
3.400000e-07	-5.295379e-06	-1.277193e-09	-3.683428e+01	-8.496923e+01
3.500000e-07	-5.281479e-06	-1.286123e-09	-3.673759e+01	-8.483961e+01
3.600000e-07	-5.267227e-06	-1.303148e-09	-3.663845e+01	-8.471028e+01
3.700000e-07	-5.252517e-06	-1.286246e-09	-3.653613e+01	-8.458102e+01
3.800000e-07	-5.237280e-06	-1.291045e-09	-3.643014e+01	-8.445155e+01
3.900000e-07	-5.221585e-06	-1.299639e-09	-3.632097e+01	-8.432159e+01
4.000000e-07	-5.205426e-06	-1.270907e-09	-3.620857e+01	-8.419082e+01
4.100000e-07	-5.188780e-06	-1.257917e-09	-3.609278e+01	-8.405892e+01
4.200000e-07	-5.171834e-06	-1.287241e-09	-3.597491e+01	-8.392555e+01
4.300000e-07	-5.154631e-06	-1.283150e-09	-3.585525e+01	-8.379033e+01
4.400000e-07	-5.137002e-06	-1.249222e-09	-3.573262e+01	-8.365291e+01
4.500000e-07	-5.118905e-06	-1.287681e-09	-3.560674e+01	-8.351291e+01
4.600000e-07	-5.100520e-06	-1.295031e-09	-3.547885e+01	-8.336995e+01
4.700000e-07	-5.081884e-06	-1.248605e-09	-3.534922e+01	-8.322365e+01
4.800000e-07	-5.062828e-06	-1.247297e-09	-3.521667e+01	-8.307364e+01
4.900000e-07	-5.043456e-06	-1.294781e-09	-3.508192e+01	-8.291954e+01
5.000000e-07	-5.023849e-06	-1.251900e-09	-3.494553e+01	-8.276101e+01
5.100000e-07	-5.004044e-06	-1.230565e-09	-3.480778e+01	-8.259769e+01
5.200000e-07	-4.984014e-06	-1.266472e-09	-3.466845e+01	-8.242925e+01
5.300000e-07	-4.963610e-06	-1.263442e-09	-3.452652e+01	-8.225540e+01
5.400000e-07	-4.942786e-06	-1.215847e-09	-3.438167e+01	-8.207584e+01
5.500000e-07	-4.921643e-06	-1.246830e-09	-3.423459e+01	-8.189032e+01
5.600000e-07	-4.900154e-06	-1.249106e-09	-3.408512e+01	-8.169861e+01
5.700000e-07	-4.878329e-06	-1.208522e-09	-3.393331e+01	-8.150050e+01
5.800000e-07	-4.856143e-06	-1.217400e-09	-3.377898e+01	-8.129584e+01
5.900000e-07	-4.833541e-06	-1.251573e-09	-3.362177e+01	-8.108448e+01
6.000000e-07	-4.810514e-06	-1.210112e-09	-3.346159e+01	-8.086632e+01
6.100000e-07	-4.787181e-06	-1.195709e-09	-3.329929e+01	-8.064132e+01
6.200000e-07	-4.763627e-06	-1.218425e-09	-3.313545e+01	-8.040944e+01
6.300000e-07	-4.739852e-06	-1.203004e-09	-3.297007e+01	-8.017070e+01
6.400000e-07	-4.715902e-06	-1.180216e-09	-3.280348e+01	-7.992515e+01
6.500000e-07	-4.691803e-06	-1.202911e-09	-3.263585e+01	-7.967287e+01
6.600000e-07	-4.667359e-06	-1.200171e-09	-3.246581e+01	-7.941399e+01
6.700000e-07	-4.642291e-06	-1.177923e-09	-3.229144e+01	-7.914867e+01
6.800000e-07	-4.616641e-06	-1.188079e-09	-3.211302e+01	-7.887710e+01
6.900000e-07	-4.590415e-06	-1.192475e-09	-3.193060e+01	-7.859950e+01
7.000000e-07	-4.563662e-06	-1.172748e-09	-3.174451e+01	-7.831613e+01
7.100000e-07	-4.536500e-06	-1.169806e-09	-3.155557e+01	-7.802726e+01
7.200000e-07	-4.509034e-06	-1.178376e-09	-3.136452e+01	-7.773319e+01
7.300000e-07	-4.481423e-06	-1.163611e-09	-3.117246e+01	-7.743426e+01
7.400000e-07	-4.453656e-06	-1.154489e-09	-3.097931e+01	-7.713079e+01
7.500000e-07	-4.425614e-06	-1.152885e-09	-3.078426e+01	-7.682314e+01
7.600000e-07	-4.397330e-06	-1.147027e-09	-3.058751e+01	-7.651168e+01
7.700000e-07	-4.368790e-06	-1.134953e-09	-3.038899e+01	-7.619677e+01
7.800000e-07	-4.339926e-06	-1.138784e-09	-3.018822e+01	-7.587879e+01
7.900000e-07	-4.310717e-06	-1.136996e-09	-2.998504e+01	-7.555810e+01
8.000000e-07	-4.281170e-06	-1.133233e-09	-2.977951e+01	-7.523508e+01
8.100000e-07	-4.251343e-06	-1.127263e-09	-2.957204e+01	-7.491007e+01
8.200000e-07	-4.221303e-06	-1.123916e-09	-2.936308e+01	-7.458342e+01
8.300000e-07	-4.190964e-06	-1.109569e-09	-2.915204e+01	-7.425545e+01
8.400000e-07	-4.160195e-06	-1.104713e-09	-2.893802e+01	-7.392647e+01
8.500000e-07	-4.129148e-06	-1.100583e-09	-2.872206e+01	-7.359675e+01
8.600000e-07	-4.097906e-06	-1.095887e-09	-2.850474e+01	-7.326655e+01
8.700000e-07	-4.066405e-06	-1.089250e-09	-2.828562e+01	-7.293609e+01
8.800000e-07	-4.034725e-06	-1.091200e-09	-2.806526e+01	-7.260556e+01
8.900000e-07	-4.002990e-06	-1.084253e-09	-2.784451e+01	-7.227511e+01
9.000000e-07	-3.971092e-06	-1.076488e-09	-2.762263e+01	-7.194486e+01
9.100000e-07	-3.938811e-06	-1.072931e-09	-2.739809e+01	-7.161488e+01
9.200000e-07	-3.906116e-06	-1.069079e-09	-2.717067e+01	-7.128522e+01
9.300000e-07	-3.873093e-06	-1.060744e-09	-2.694096e+01	-7.095586e+01
9.400000e-07	-3.839725e-06	-1.061888e-09	-2.670885e+01	-7.062678e+01
9.500000e-07	-3.805907e-06	-1.064566e-09	-2.647362e+01	-7.029787e+01
9.600000e-07	-3.771534e-06	-1.058106e-09	-2.623452e+01	-6.996901e+01
9.700000e-07	-3.736689e-06	-1.049719e-09	-2.599214e+01	-6.964005e+01
9.800000e-07	-3.701569e-06	-1.045377e-09	-2.574785e+01	-6.931076e+01
9.900000e-07	-3.666288e-06	-1.038874e-09	-2.550244e+01	-6.898090e+01
1.000000e-06	-3.630813e-06	-1.030933e-09	-2.525567e+01	-6.865021e+01
1.010000e-06	-3.595145e-06	-1.030078e-09	-2.500757e+01	-6.831835e+01
1.020000e-06	-3.559380e-06	-1.026895e-09	-2.475879e+01	-6.798500e+01
1.030000e-06	-3.523504e-06	-1.021276e-09	-2.450924e+01	-6.764979e+01
1.040000e-06	-3.487404e-06	-1.014534e-09	-2.425813e+01	-6.731230e+01
1.050000e-06	-3.451033e-06	-1.008337e-09	-2.400514e+01	-6.697214e+01
1.060000e-06	-3.414338e-06	-9.971741e-10	-2.374989e+01	-6.662887e+01
1.070000e-06	-3.377295e-06	-9.902103e-10	-2.349222e+01	-6.628204e+01
1.080000e-06	-3.340005e-06	-9.854701e-10	-2.323284e+01	-6.593119e+01
1.090000e-06	-3.302498e-06	-9.798957e-10	-2.297194e+01	-6.557587e+01
1.100000e-06	-3.264809e-06	-9.721434e-10	-2.270978e+01	-6.521560e+01
1.110000e-06	-3.226947e-06	-9.696087e-10	-2.244641e+01	-6.484993e+01
1.120000e-06	-3.188866e-06	-9.618681e-10	-2.218153e+01	-6.447841e+01
1.130000e-06	-3.150553e-06	-9.518343e-10	-2.191502e+01	-6.410057e+01
1.140000e-06	-3.112027e-06	-9.414297e-10	-2.164704e+01	-6.371601e+01
1.150000e-06	-3.073248e-06	-9.326784e-10	-2.137730e+01	-6.332429e+01
1.160000e-06	-3.034293e-06	-9.204314e-10	-2.110633e+01	-6.292504e+01
1.170000e-06	-2.995175e-06	-9.119477e-10	-2.083422e+01	-6.251787e+01
1.180000e-06	-2.955823e-06	-9.061019e-10	-2.056049e+01	-6.210244e+01
1.190000e-06	-2.916281e-06	-9.004509e-10	-2.028544e+01	-6.167844e+01
1.200000e-06	-2.876600e-06	-8.934063e-10	-2.000942e+01	-6.124559e+01
1.210000e-06	-2.836841e-06	-8.858777e-10	-1.973287e+01	-6.080364e+01
1.220000e-06	-2.796964e-06	-8.761975e-10	-1.945548e+01	-6.035236e+01
1.230000e-06	-2.756929e-06	-8.671024e-10	-1.917700e+01	-5.989157e+01
1.240000e-06	-2.716766e-06	-8.585311e-10	-1.889763e+01	-5.942113e+01
1.250000e-06	-2.676478e-06	-8.500975e-10	-1.861739e+01	-5.894093e+01
1.260000e-06	-2.635932e-06	-8.410445e-10	-1.833535e+01	-5.845089e+01
1.270000e-06	-2.595054e-06	-8.325001e-10	-1.805101e+01	-5.795096e+01
1.280000e-06	-2.553878e-06	-8.265515e-10	-1.776460e+01	-5.744113e+01
1.290000e-06	-2.512562e-06	-8.199051e-10	-1.747720e+01	-5.692143e+01
1.300000e-06	-2.470928e-06	-8.106075e-10	-1.718759e+01	-5.639190e+01
1.310000e-06	-2.428805e-06	-8.002663e-10	-1.689459e+01	-5.585262e+01
1.320000e-06	-2.386316e-06	-7.906177e-10	-1.659904e+01	-5.530368e+01
1.330000e-06	-2.343591e-06	-7.804743e-10	-1.630185e+01	-5.474521e+01
1.340000e-06	-2.300686e-06	-7.717102e-10	-1.600341e+01	-5.417734e+01
1.350000e-06	-2.257457e-06	-7.637298e-10	-1.570271e+01	-5.360023e+01
1.360000e-06	-2.213979e-06	-7.551730e-10	-1.540028e+01	-5.301403e+01
1.370000e-06	-2.170441e-06	-7.455001e-10	-1.509743e+01	-5.241890e+01
1.380000e-06	-2.126893e-06	-7.393055e-10	-1.479451e+01	-5.181502e+01
1.390000e-06	-2.083296e-06	-7.333337e-10	-1.449126e+01	-5.120254e+01
1.400000e-06	-2.039592e-06	-7.256479e-10	-1.418726e+01	-5.058162e+01
1.410000e-06	-1.995787e-06	-7.159462e-10	-1.388255e+01	-4.995240e+01
1.420000e-06	-1.951907e-06	-7.057783e-10	-1.357732e+01	-4.931501e+01
1.430000e-06	-1.907986e-06	-6.950304e-10	-1.327182e+01	-4.866957e+01
1.440000e-06	-1.864031e-06	-6.859026e-10	-1.296606e+01	-4.801614e+01
1.450000e-06	-1.819882e-06	-6.768294e-10	-1.265897e+01	-4.735479e+01
1.460000e-06	-1.775597e-06	-6.674745e-10	-1.235093e+01	-4.668555e+01
1.470000e-06	-1.731262e-06	-6.558080e-10	-1.204254e+01	-4.600840e+01
1.480000e-06	-1.686792e-06	-6.436692e-10	-1.173321e+01	-4.532330e+01
1.490000e-06	-1.642283e-06	-6.298711e-10	-1.142360e+01	-4.463016e+01
1.500000e-06	-1.597649e-06	-6.184323e-10	-1.111313e+01	-4.392886e+01
1.510000e-06	-1.552776e-06	-6.103754e-10	-1.080100e+01	-4.321923e+01
1.520000e-06	-1.507702e-06	-6.029142e-10	-1.048747e+01	-4.250105e+01
1.530000e-06	-1.462442e-06	-5.915051e-10	-1.017264e+01	-4.177406e+01
1.540000e-06	-1.417098e-06	-5.786681e-10	-9.857235e+00	-4.103797e+01
1.550000e-06	-1.371708e-06	-5.644320e-10	-9.541502e+00	-4.029242e+01
1.560000e-06	-1.326184e-06	-5.512486e-10	-9.224841e+00	-3.953703e+01
1.570000e-06	-1.280525e-06	-5.402558e-10	-8.907243e+00	-3.877136e+01
1.580000e-06	-1.234809e-06	-5.311089e-10	-8.589244e+00	-3.799493e+01
1.590000e-06	-1.189057e-06	-5.228987e-10	-8.270992e+00	-3.720725e+01
1.600000e-06	-1.143277e-06	-5.134057e-10	-7.952551e+00	-3.640776e+01
1.610000e-06	-1.097450e-06	-5.017351e-10	-7.633786e+00	-3.559588e+01
1.620000e-06	-1.051555e-06	-4.887048e-10	-7.314539e+00	-3.477103e+01
1.630000e-06	-1.005466e-06	-4.781555e-10	-6.993953e+00	-3.393257e+01
1.640000e-06	-9.592815e-07	-4.690454e-10	-6.672694e+00	-3.307986e+01
1.650000e-06	-9.130611e-07	-4.580993e-10	-6.351187e+00	-3.221225e+01
1.660000e-06	-8.667547e-07	-4.445492e-10	-6.029084e+00	-3.132907e+01
1.670000e-06	-8.205340e-07	-4.294239e-10	-5.707576e+00	-3.042967e+01
1.680000e-06	-7.743313e-07	-4.112142e-10	-5.386193e+00	-2.951337e+01
1.690000e-06	-7.280036e-07	-3.958062e-10	-5.063941e+00	-2.857955e+01
1.700000e-06	-6.814807e-07	-3.832500e-10	-4.740331e+00	-2.762756e+01
1.710000e-06	-6.349205e-07	-3.718812e-10	-4.416461e+00	-2.665680e+01
1.720000e-06	-5.884332e-07	-3.585411e-10	-4.093099e+00	-2.566669e+01
1.730000e-06	-5.419138e-07	-3.415570e-10	-3.769514e+00	-2.465669e+01
1.740000e-06	-4.953258e-07	-3.199979e-10	-3.445451e+00	-2.362630e+01
1.750000e-06	-4.486326e-07	-2.979843e-10	-3.120657e+00	-2.257507e+01
1.760000e-06	-4.019639e-07	-2.790557e-10	-2.796032e+00	-2.150259e+01
1.770000e-06	-3.552965e-07	-2.632187e-10	-2.471417e+00	-2.040855e+01
1.780000e-06	-3.085424e-07	-2.487410e-10	-2.146199e+00	-1.929265e+01
1.790000e-06	-2.617669e-07	-2.350452e-10	-1.820832e+00	-1.815470e+01
1.800000e-06	-2.149264e-07	-2.184532e-10	-1.495012e+00	-1.699457e+01
1.810000e-06	-1.681097e-07	-1.978325e-10	-1.169359e+00	-1.581220e+01
1.820000e-06	-1.212774e-07	-1.788335e-10	-8.435970e-01	-1.460763e+01
1.830000e-06	-7.440825e-08	-1.633775e-10	-5.175784e-01	-1.338097e+01
1.840000e-06	-2.758575e-08	-1.486949e-10	-1.918845e-01	-1.213242e+01
1.850000e-06	1.916183e-08	-1.339669e-10	1.332883e-01	-1.086228e+01
1.860000e-06	6.582545e-08	-1.190008e-10	4.578771e-01	-9.570919e+00
1.870000e-06	1.125599e-07	-1.024318e-10	7.829587e-01	-8.258818e+00
1.880000e-06	1.593953e-07	-8.264259e-11	1.108742e+00	-6.926537e+00
1.890000e-06	2.062306e-07	-6.138235e-11	1.434525e+00	-5.574729e+00
1.900000e-06	2.529875e-07	-4.053897e-11	1.759763e+00	-4.204137e+00
1.910000e-06	2.997432e-07	-1.998963e-11	2.084992e+00	-2.815590e+00
1.920000e-06	3.465921e-07	-1.782233e-12	2.410870e+00	-1.410002e+00
1.930000e-06	3.934177e-07	1.472313e-11	2.736586e+00	1.162890e-02
1.940000e-06	4.401584e-07	3.346008e-11	3.061710e+00	1.448230e+00
1.950000e-06	4.868807e-07	5.505832e-11	3.386707e+00	2.898651e+00
1.960000e-06	5.335096e-07	7.695333e-11	3.711055e+00	4.361675e+00
1.970000e-06	5.800155e-07	9.945522e-11	4.034547e+00	5.836020e+00
1.980000e-06	6.264439e-07	1.209848e-10	4.357499e+00	7.320344e+00
1.990000e-06	6.728881e-07	1.416726e-10	4.680562e+00	8.813254e+00
2.000000e-06	7.192538e-07	1.604002e-10	5.003078e+00	1.031331e+01
2.010000e-06	7.655256e-07	1.776909e-10	5.324941e+00	1.181903e+01
2.020000e-06	8.117714e-07	1.981166e-10	5.646624e+00	1.332891e+01
2.030000e-06	8.579339e-07	2.209883e-10	5.967727e+00	1.484140e+01
2.040000e-06	9.040793e-07	2.430432e-10	6.288711e+00	1.635494e+01
2.050000e-06	9.501878e-07	2.656521e-10	6.609438e+00	1.786798e+01
2.060000e-06	9.961831e-07	2.875108e-10	6.929378e+00	1.937894e+01
2.070000e-06	1.042050e-06	3.084342e-10	7.248424e+00	2.088624e+01
2.080000e-06	1.087827e-06	3.275149e-10	7.566844e+00	2.238834e+01
2.090000e-06	1.133541e-06	3.473331e-10	7.884830e+00	2.388369e+01
2.100000e-06	1.179235e-06	3.698948e-10	8.202675e+00	2.537078e+01
2.110000e-06	1.224839e-06	3.924042e-10	8.519893e+00	2.684812e+01
2.120000e-06	1.270293e-06	4.117324e-10	8.836070e+00	2.831427e+01
2.130000e-06	1.315687e-06	4.303024e-10	9.151823e+00	2.976784e+01
2.140000e-06	1.361032e-06	4.491873e-10	9.467242e+00	3.120748e+01
2.150000e-06	1.406330e-06	4.667257e-10	9.782329e+00	3.263188e+01
2.160000e-06	1.451576e-06	4.862391e-10	1.009706e+01	3.403982e+01
2.170000e-06	1.496692e-06	5.036530e-10	1.041089e+01	3.543014e+01
2.180000e-06	1.541624e-06	5.244564e-10	1.072343e+01	3.680174e+01
2.190000e-06	1.586494e-06	5.455774e-10	1.103554e+01	3.815359e+01
2.200000e-06	1.631266e-06	5.603650e-10	1.134697e+01	3.948476e+01
2.210000e-06	1.675822e-06	5.735393e-10	1.165689e+01	4.079438e+01
2.220000e-06	1.720257e-06	5.855947e-10	1.196599e+01	4.208165e+01
2.230000e-06	1.764552e-06	6.009753e-10	1.227410e+01	4.334589e+01
2.240000e-06	1.808687e-06	6.175633e-10	1.258109e+01	4.458648e+01
2.250000e-06	1.852693e-06	6.354989e-10	1.288720e+01	4.580288e+01
2.260000e-06	1.896603e-06	6.520311e-10	1.319264e+01	4.699464e+01
2.270000e-06	1.940493e-06	6.675571e-10	1.349793e+01	4.816141e+01
2.280000e-06	1.984305e-06	6.852564e-10	1.380268e+01	4.930291e+01
2.290000e-06	2.028020e-06	7.007274e-10	1.410676e+01	5.041893e+01
2.300000e-06	2.071660e-06	7.145059e-10	1.441032e+01	5.150936e+01
2.310000e-06	2.115224e-06	7.262861e-10	1.471335e+01	5.257416e+01
2.320000e-06	2.158746e-06	7.401336e-10	1.501609e+01	5.361336e+01
2.330000e-06	2.202223e-06	7.558593e-10	1.531851e+01	5.462706e+01
2.340000e-06	2.245569e-06	7.715188e-10	1.562002e+01	5.561544e+01
2.350000e-06	2.288677e-06	7.876005e-10	1.591988e+01	5.657874e+01
2.360000e-06	2.331612e-06	8.025629e-10	1.621852e+01	5.751725e+01
2.370000e-06	2.374360e-06	8.162226e-10	1.651588e+01	5.843132e+01
2.380000e-06	2.416790e-06	8.266934e-10	1.681102e+01	5.932137e+01
2.390000e-06	2.458954e-06	8.366710e-10	1.710431e+01	6.018784e+01
2.400000e-06	2.500684e-06	8.472005e-10	1.739458e+01	6.103122e+01
2.410000e-06	2.541967e-06	8.590109e-10	1.768174e+01	6.185205e+01
2.420000e-06	2.582956e-06	8.739124e-10	1.796686e+01	6.265089e+01
2.430000e-06	2.623744e-06	8.904649e-10	1.825058e+01	6.342833e+01
2.440000e-06	2.664288e-06	9.063226e-10	1.853260e+01	6.418499e+01
2.450000e-06	2.704558e-06	9.175318e-10	1.881271e+01	6.492150e+01
2.460000e-06	2.744747e-06	9.258916e-10	1.909226e+01	6.563850e+01
2.470000e-06	2.784845e-06	9.340520e-10	1.937118e+01	6.633665e+01
2.480000e-06	2.824803e-06	9.435440e-10	1.964913e+01	6.701662e+01
2.490000e-06	2.864611e-06	9.543795e-10	1.992603e+01	6.767905e+01
2.500000e-06	2.904250e-06	9.642993e-10	2.020176e+01	6.832462e+01
2.510000e-06	2.943774e-06	9.730961e-10	2.047668e+01	6.895397e+01
2.520000e-06	2.983155e-06	9.820734e-10	2.075061e+01	6.956774e+01
2.530000e-06	3.022346e-06	9.914308e-10	2.102322e+01	7.016656e+01
2.540000e-06	3.061365e-06	1.000105e-09	2.129464e+01	7.075104e+01
2.550000e-06	3.100139e-06	1.007846e-09	2.156435e+01	7.132177e+01
2.560000e-06	3.138617e-06	1.015392e-09	2.183200e+01	7.187932e+01
2.570000e-06	3.176886e-06	1.024150e-09	2.209819e+01	7.242424e+01
2.580000e-06	3.214994e-06	1.033825e-09	2.236327e+01	7.295705e+01
2.590000e-06	3.252836e-06	1.042774e-09	2.262650e+01	7.347824e+01
2.600000e-06	3.290422e-06	1.051403e-09	2.288794e+01	7.398828e+01
2.610000e-06	3.327764e-06	1.058664e-09	2.314769e+01	7.448760e+01
2.620000e-06	3.364955e-06	1.064602e-09	2.340639e+01	7.497661e+01
2.630000e-06	3.402005e-06	1.069381e-09	2.366410e+01	7.545569e+01
2.640000e-06	3.438756e-06	1.073204e-09	2.391974e+01	7.592518e+01
2.650000e-06	3.475201e-06	1.078813e-09	2.417325e+01	7.638539e+01
2.660000e-06	3.511413e-06	1.086590e-09	2.442514e+01	7.683662e+01
2.670000e-06	3.547413e-06	1.093607e-09	2.467555e+01	7.727912e+01
2.680000e-06	3.583262e-06	1.099027e-09	2.492492e+01	7.771311e+01
2.690000e-06	3.618990e-06	1.105092e-09	2.517343e+01	7.813880e+01
2.700000e-06	3.654562e-06	1.110977e-09	2.542087e+01	7.855636e+01
2.710000e-06	3.689982e-06	1.115094e-09	2.566725e+01	7.896593e+01
2.720000e-06	3.725169e-06	1.118666e-09	2.591201e+01	7.936764e+01
2.730000e-06	3.760025e-06	1.124706e-09	2.615446e+01	7.976159e+01
2.740000e-06	3.794462e-06	1.131524e-09	2.639400e+01	8.014786e+01
2.750000e-06	3.828352e-06	1.135709e-09	2.662974e+01	8.052651e+01
2.760000e-06	3.861743e-06	1.139465e-09	2.686201e+01	8.089758e+01
2.770000e-06	3.894822e-06	1.144987e-09	2.709210e+01	8.126110e+01
2.780000e-06	3.927576e-06	1.151500e-09	2.731993e+01	8.161709e+01
2.790000e-06	3.959910e-06	1.156614e-09	2.754485e+01	8.196553e+01
2.800000e-06	3.991930e-06	1.159434e-09	2.776758e+01	8.230643e+01
2.810000e-06	4.023735e-06	1.162139e-09	2.798881e+01	8.263977e+01
2.820000e-06	4.055333e-06	1.166626e-09	2.820860e+01	8.296552e+01
2.830000e-06	4.086856e-06	1.171432e-09	2.842788e+01	8.328364e+01
2.840000e-06	4.118200e-06	1.177615e-09	2.864590e+01	8.359412e+01
2.850000e-06	4.149238e-06	1.185263e-09	2.886180e+01	8.389691e+01
2.860000e-06	4.179982e-06	1.192114e-09	2.907566e+01	8.419198e+01
2.870000e-06	4.210398e-06	1.197603e-09	2.928723e+01	8.447930e+01
2.880000e-06	4.240469e-06	1.201489e-09	2.949640e+01	8.475883e+01
2.890000e-06	4.270211e-06	1.204365e-09	2.970328e+01	8.503055e+01
2.900000e-06	4.299726e-06	1.207720e-09	2.990858e+01	8.529444e+01
