# Temperatura_=_-1.82
# Concentracion g/m^3_=_1620.0
# C_Vs_to_Am_M_A/Vsm_=_65563218390.804596
# pendiente_HvsI_1/m_=_3716.3
# ordenada_HvsI_A/m_=_1297.0
# frecuencia_Hz_=_135106.07782727064

Tiempo_(s)	Campo_(V.s)	Magnetizacion_(V.s)	Campo_(kA/m)	Magnetizacion_(A/m)
0.000000e+00	-5.509902e-06	-9.355786e-10	-3.837275e+01	-6.182389e+01
1.000000e-08	-5.510121e-06	-9.317219e-10	-3.837427e+01	-6.178125e+01
2.000000e-08	-5.509966e-06	-9.322100e-10	-3.837319e+01	-6.173726e+01
3.000000e-08	-5.509295e-06	-9.323780e-10	-3.836852e+01	-6.169182e+01
4.000000e-08	-5.508109e-06	-9.244220e-10	-3.836026e+01	-6.164480e+01
5.000000e-08	-5.506297e-06	-9.075430e-10	-3.834764e+01	-6.159610e+01
6.000000e-08	-5.503881e-06	-8.977367e-10	-3.833081e+01	-6.154559e+01
7.000000e-08	-5.501020e-06	-9.390786e-10	-3.831089e+01	-6.149318e+01
8.000000e-08	-5.497733e-06	-1.017277e-09	-3.828800e+01	-6.143878e+01
9.000000e-08	-5.493898e-06	-1.025272e-09	-3.826129e+01	-6.138230e+01
1.000000e-07	-5.489675e-06	-9.190395e-10	-3.823188e+01	-6.132367e+01
1.100000e-07	-5.485290e-06	-8.676636e-10	-3.820134e+01	-6.126280e+01
1.200000e-07	-5.480727e-06	-9.008182e-10	-3.816956e+01	-6.119966e+01
1.300000e-07	-5.475779e-06	-9.526298e-10	-3.813510e+01	-6.113418e+01
1.400000e-07	-5.470399e-06	-8.995888e-10	-3.809764e+01	-6.106632e+01
1.500000e-07	-5.464757e-06	-8.717148e-10	-3.805834e+01	-6.099605e+01
1.600000e-07	-5.458793e-06	-9.402276e-10	-3.801680e+01	-6.092336e+01
1.700000e-07	-5.452282e-06	-9.930827e-10	-3.797146e+01	-6.084823e+01
1.800000e-07	-5.445259e-06	-9.471522e-10	-3.792255e+01	-6.077065e+01
1.900000e-07	-5.437978e-06	-8.781489e-10	-3.787185e+01	-6.069064e+01
2.000000e-07	-5.430429e-06	-9.133640e-10	-3.781927e+01	-6.060821e+01
2.100000e-07	-5.422579e-06	-9.725791e-10	-3.776460e+01	-6.052338e+01
2.200000e-07	-5.414553e-06	-9.762545e-10	-3.770870e+01	-6.043617e+01
2.300000e-07	-5.406186e-06	-9.285840e-10	-3.765044e+01	-6.034663e+01
2.400000e-07	-5.397213e-06	-9.374739e-10	-3.758794e+01	-6.025480e+01
2.500000e-07	-5.387514e-06	-9.422113e-10	-3.752039e+01	-6.016071e+01
2.600000e-07	-5.377148e-06	-9.179846e-10	-3.744820e+01	-6.006444e+01
2.700000e-07	-5.366227e-06	-8.889498e-10	-3.737214e+01	-5.996601e+01
2.800000e-07	-5.354894e-06	-9.202237e-10	-3.729322e+01	-5.986550e+01
2.900000e-07	-5.343268e-06	-9.317614e-10	-3.721226e+01	-5.976296e+01
3.000000e-07	-5.331341e-06	-8.968264e-10	-3.712919e+01	-5.965845e+01
3.100000e-07	-5.318901e-06	-8.711185e-10	-3.704256e+01	-5.955202e+01
3.200000e-07	-5.305981e-06	-9.085993e-10	-3.695257e+01	-5.944373e+01
3.300000e-07	-5.292800e-06	-9.169885e-10	-3.686078e+01	-5.933363e+01
3.400000e-07	-5.279289e-06	-8.843523e-10	-3.676668e+01	-5.922178e+01
3.500000e-07	-5.265245e-06	-8.913313e-10	-3.666888e+01	-5.910823e+01
3.600000e-07	-5.250741e-06	-9.378644e-10	-3.656786e+01	-5.899301e+01
3.700000e-07	-5.235752e-06	-9.112417e-10	-3.646348e+01	-5.887616e+01
3.800000e-07	-5.220152e-06	-8.712538e-10	-3.635483e+01	-5.875772e+01
3.900000e-07	-5.204157e-06	-9.120153e-10	-3.624344e+01	-5.863771e+01
4.000000e-07	-5.187869e-06	-9.343320e-10	-3.613001e+01	-5.851616e+01
4.100000e-07	-5.171129e-06	-8.771048e-10	-3.601342e+01	-5.839307e+01
4.200000e-07	-5.153976e-06	-8.743520e-10	-3.589396e+01	-5.826846e+01
4.300000e-07	-5.136629e-06	-9.388421e-10	-3.577315e+01	-5.814232e+01
4.400000e-07	-5.118966e-06	-9.124651e-10	-3.565014e+01	-5.801465e+01
4.500000e-07	-5.100831e-06	-8.688726e-10	-3.552384e+01	-5.788543e+01
4.600000e-07	-5.082286e-06	-9.069542e-10	-3.539469e+01	-5.775465e+01
4.700000e-07	-5.063360e-06	-9.271660e-10	-3.526288e+01	-5.762227e+01
4.800000e-07	-5.044068e-06	-8.770628e-10	-3.512852e+01	-5.748826e+01
4.900000e-07	-5.024560e-06	-8.926583e-10	-3.499267e+01	-5.735259e+01
5.000000e-07	-5.004913e-06	-9.160704e-10	-3.485584e+01	-5.721521e+01
5.100000e-07	-4.984994e-06	-8.759380e-10	-3.471712e+01	-5.707608e+01
5.200000e-07	-4.964634e-06	-8.695144e-10	-3.457533e+01	-5.693514e+01
5.300000e-07	-4.943895e-06	-9.214948e-10	-3.443089e+01	-5.679234e+01
5.400000e-07	-4.922811e-06	-8.931975e-10	-3.428406e+01	-5.664764e+01
5.500000e-07	-4.901318e-06	-8.573317e-10	-3.413437e+01	-5.650096e+01
5.600000e-07	-4.879521e-06	-8.872517e-10	-3.398257e+01	-5.635225e+01
5.700000e-07	-4.857496e-06	-8.963614e-10	-3.382918e+01	-5.620146e+01
5.800000e-07	-4.835102e-06	-8.620943e-10	-3.367322e+01	-5.604854e+01
5.900000e-07	-4.812225e-06	-8.794255e-10	-3.351390e+01	-5.589342e+01
6.000000e-07	-4.789051e-06	-8.931856e-10	-3.335251e+01	-5.573606e+01
6.100000e-07	-4.765643e-06	-8.633239e-10	-3.318949e+01	-5.557641e+01
6.200000e-07	-4.742054e-06	-8.579405e-10	-3.302520e+01	-5.541444e+01
6.300000e-07	-4.718312e-06	-8.705597e-10	-3.285986e+01	-5.525010e+01
6.400000e-07	-4.694295e-06	-8.492354e-10	-3.269259e+01	-5.508337e+01
6.500000e-07	-4.669880e-06	-8.440336e-10	-3.252256e+01	-5.491423e+01
6.600000e-07	-4.644980e-06	-8.599717e-10	-3.234915e+01	-5.474264e+01
6.700000e-07	-4.619542e-06	-8.497100e-10	-3.217199e+01	-5.456862e+01
6.800000e-07	-4.593485e-06	-8.420422e-10	-3.199052e+01	-5.439215e+01
6.900000e-07	-4.566922e-06	-8.515112e-10	-3.180552e+01	-5.421325e+01
7.000000e-07	-4.539978e-06	-8.422410e-10	-3.161788e+01	-5.403192e+01
7.100000e-07	-4.512667e-06	-8.278235e-10	-3.142768e+01	-5.384819e+01
7.200000e-07	-4.485147e-06	-8.371029e-10	-3.123602e+01	-5.366210e+01
7.300000e-07	-4.457540e-06	-8.323871e-10	-3.104375e+01	-5.347368e+01
7.400000e-07	-4.429739e-06	-8.179532e-10	-3.085014e+01	-5.328297e+01
7.500000e-07	-4.401709e-06	-8.213827e-10	-3.065493e+01	-5.309004e+01
7.600000e-07	-4.373351e-06	-8.243881e-10	-3.045744e+01	-5.289493e+01
7.700000e-07	-4.344549e-06	-8.061836e-10	-3.025685e+01	-5.269773e+01
7.800000e-07	-4.315456e-06	-8.066540e-10	-3.005424e+01	-5.249849e+01
7.900000e-07	-4.286147e-06	-8.133827e-10	-2.985012e+01	-5.229730e+01
8.000000e-07	-4.256552e-06	-8.013770e-10	-2.964401e+01	-5.209424e+01
8.100000e-07	-4.226639e-06	-7.898212e-10	-2.943569e+01	-5.188938e+01
8.200000e-07	-4.196493e-06	-7.958161e-10	-2.922574e+01	-5.168281e+01
8.300000e-07	-4.166110e-06	-7.855422e-10	-2.901414e+01	-5.147462e+01
8.400000e-07	-4.135318e-06	-7.730277e-10	-2.879970e+01	-5.126489e+01
8.500000e-07	-4.104221e-06	-7.745886e-10	-2.858312e+01	-5.105371e+01
8.600000e-07	-4.072955e-06	-7.759351e-10	-2.836538e+01	-5.084115e+01
8.700000e-07	-4.041547e-06	-7.649376e-10	-2.814664e+01	-5.062729e+01
8.800000e-07	-4.009959e-06	-7.650978e-10	-2.792665e+01	-5.041221e+01
8.900000e-07	-3.978145e-06	-7.657033e-10	-2.770509e+01	-5.019598e+01
9.000000e-07	-3.946104e-06	-7.529580e-10	-2.748195e+01	-4.997865e+01
9.100000e-07	-3.913769e-06	-7.464044e-10	-2.725676e+01	-4.976027e+01
9.200000e-07	-3.880961e-06	-7.510041e-10	-2.702827e+01	-4.954090e+01
9.300000e-07	-3.847659e-06	-7.463420e-10	-2.679635e+01	-4.932057e+01
9.400000e-07	-3.813975e-06	-7.391693e-10	-2.656176e+01	-4.909929e+01
9.500000e-07	-3.779883e-06	-7.417601e-10	-2.632433e+01	-4.887709e+01
9.600000e-07	-3.745352e-06	-7.380868e-10	-2.608385e+01	-4.865397e+01
9.700000e-07	-3.710410e-06	-7.263767e-10	-2.584050e+01	-4.842992e+01
9.800000e-07	-3.675266e-06	-7.233964e-10	-2.559574e+01	-4.820492e+01
9.900000e-07	-3.639984e-06	-7.246765e-10	-2.535003e+01	-4.797893e+01
1.000000e-06	-3.604490e-06	-7.177800e-10	-2.510284e+01	-4.775190e+01
1.010000e-06	-3.568861e-06	-7.151546e-10	-2.485471e+01	-4.752378e+01
1.020000e-06	-3.533034e-06	-7.158119e-10	-2.460520e+01	-4.729450e+01
1.030000e-06	-3.497009e-06	-7.091207e-10	-2.435431e+01	-4.706397e+01
1.040000e-06	-3.460789e-06	-7.006300e-10	-2.410206e+01	-4.683209e+01
1.050000e-06	-3.424302e-06	-6.997998e-10	-2.384795e+01	-4.659875e+01
1.060000e-06	-3.387541e-06	-6.963331e-10	-2.359193e+01	-4.636383e+01
1.070000e-06	-3.350466e-06	-6.921001e-10	-2.333374e+01	-4.612721e+01
1.080000e-06	-3.313141e-06	-6.890067e-10	-2.307379e+01	-4.588873e+01
1.090000e-06	-3.275580e-06	-6.846247e-10	-2.281220e+01	-4.564826e+01
1.100000e-06	-3.237627e-06	-6.759302e-10	-2.254789e+01	-4.540562e+01
1.110000e-06	-3.199449e-06	-6.721188e-10	-2.228200e+01	-4.516065e+01
1.120000e-06	-3.161217e-06	-6.695709e-10	-2.201574e+01	-4.491318e+01
1.130000e-06	-3.122837e-06	-6.644576e-10	-2.174845e+01	-4.466303e+01
1.140000e-06	-3.084225e-06	-6.587448e-10	-2.147954e+01	-4.441001e+01
1.150000e-06	-3.045376e-06	-6.552579e-10	-2.120899e+01	-4.415393e+01
1.160000e-06	-3.006401e-06	-6.506542e-10	-2.093755e+01	-4.389459e+01
1.170000e-06	-2.967250e-06	-6.473608e-10	-2.066489e+01	-4.363181e+01
1.180000e-06	-2.927902e-06	-6.454723e-10	-2.039086e+01	-4.336539e+01
1.190000e-06	-2.888432e-06	-6.405148e-10	-2.011598e+01	-4.309513e+01
1.200000e-06	-2.848817e-06	-6.324909e-10	-1.984009e+01	-4.282084e+01
1.210000e-06	-2.808986e-06	-6.268439e-10	-1.956269e+01	-4.254231e+01
1.220000e-06	-2.769000e-06	-6.205291e-10	-1.928421e+01	-4.225936e+01
1.230000e-06	-2.728888e-06	-6.128534e-10	-1.900486e+01	-4.197179e+01
1.240000e-06	-2.688578e-06	-6.073376e-10	-1.872413e+01	-4.167942e+01
1.250000e-06	-2.648027e-06	-6.024839e-10	-1.844172e+01	-4.138207e+01
1.260000e-06	-2.607225e-06	-5.956028e-10	-1.815756e+01	-4.107954e+01
1.270000e-06	-2.566141e-06	-5.877183e-10	-1.787144e+01	-4.077167e+01
1.280000e-06	-2.524792e-06	-5.842025e-10	-1.758347e+01	-4.045829e+01
1.290000e-06	-2.483093e-06	-5.804700e-10	-1.729306e+01	-4.013921e+01
1.300000e-06	-2.441011e-06	-5.739942e-10	-1.700000e+01	-3.981428e+01
1.310000e-06	-2.398674e-06	-5.669838e-10	-1.670515e+01	-3.948334e+01
1.320000e-06	-2.356093e-06	-5.609310e-10	-1.640860e+01	-3.914623e+01
1.330000e-06	-2.313305e-06	-5.548059e-10	-1.611061e+01	-3.880279e+01
1.340000e-06	-2.270364e-06	-5.494880e-10	-1.581155e+01	-3.845287e+01
1.350000e-06	-2.227259e-06	-5.437808e-10	-1.551135e+01	-3.809632e+01
1.360000e-06	-2.183982e-06	-5.374799e-10	-1.520996e+01	-3.773298e+01
1.370000e-06	-2.140556e-06	-5.332540e-10	-1.490753e+01	-3.736272e+01
1.380000e-06	-2.096995e-06	-5.319407e-10	-1.460415e+01	-3.698538e+01
1.390000e-06	-2.053334e-06	-5.273336e-10	-1.430009e+01	-3.660081e+01
1.400000e-06	-2.009588e-06	-5.179602e-10	-1.399542e+01	-3.620886e+01
1.410000e-06	-1.965733e-06	-5.066926e-10	-1.369000e+01	-3.580937e+01
1.420000e-06	-1.921829e-06	-4.980274e-10	-1.338424e+01	-3.540218e+01
1.430000e-06	-1.877858e-06	-4.916687e-10	-1.307801e+01	-3.498713e+01
1.440000e-06	-1.833812e-06	-4.874487e-10	-1.277126e+01	-3.456405e+01
1.450000e-06	-1.789666e-06	-4.841346e-10	-1.246382e+01	-3.413276e+01
1.460000e-06	-1.745415e-06	-4.796375e-10	-1.215564e+01	-3.369309e+01
1.470000e-06	-1.701070e-06	-4.719998e-10	-1.184681e+01	-3.324485e+01
1.480000e-06	-1.656543e-06	-4.613799e-10	-1.153670e+01	-3.278783e+01
1.490000e-06	-1.611927e-06	-4.504561e-10	-1.122598e+01	-3.232183e+01
1.500000e-06	-1.567188e-06	-4.419160e-10	-1.091440e+01	-3.184664e+01
1.510000e-06	-1.522258e-06	-4.346866e-10	-1.060150e+01	-3.136203e+01
1.520000e-06	-1.477159e-06	-4.291407e-10	-1.028741e+01	-3.086778e+01
1.530000e-06	-1.432013e-06	-4.242053e-10	-9.973004e+00	-3.036364e+01
1.540000e-06	-1.386761e-06	-4.146773e-10	-9.657854e+00	-2.984936e+01
1.550000e-06	-1.341327e-06	-4.009130e-10	-9.341438e+00	-2.932470e+01
1.560000e-06	-1.295901e-06	-3.882709e-10	-9.025072e+00	-2.878938e+01
1.570000e-06	-1.250450e-06	-3.776734e-10	-8.708538e+00	-2.824313e+01
1.580000e-06	-1.204865e-06	-3.706292e-10	-8.391069e+00	-2.768568e+01
1.590000e-06	-1.159199e-06	-3.661460e-10	-8.073037e+00	-2.711675e+01
1.600000e-06	-1.113467e-06	-3.597866e-10	-7.754548e+00	-2.653606e+01
1.610000e-06	-1.067611e-06	-3.506924e-10	-7.435191e+00	-2.594332e+01
1.620000e-06	-1.021676e-06	-3.401929e-10	-7.115287e+00	-2.533824e+01
1.630000e-06	-9.756898e-07	-3.319425e-10	-6.795020e+00	-2.472055e+01
1.640000e-06	-9.295928e-07	-3.242113e-10	-6.473986e+00	-2.408997e+01
1.650000e-06	-8.834264e-07	-3.141280e-10	-6.152468e+00	-2.344621e+01
1.660000e-06	-8.372321e-07	-3.039125e-10	-5.830756e+00	-2.278902e+01
1.670000e-06	-7.909896e-07	-2.946438e-10	-5.508708e+00	-2.211815e+01
1.680000e-06	-7.447386e-07	-2.835244e-10	-5.186601e+00	-2.143334e+01
1.690000e-06	-6.984505e-07	-2.727704e-10	-4.864236e+00	-2.073437e+01
1.700000e-06	-6.520950e-07	-2.632147e-10	-4.541401e+00	-2.002103e+01
1.710000e-06	-6.056625e-07	-2.541036e-10	-4.218030e+00	-1.929314e+01
1.720000e-06	-5.591980e-07	-2.416011e-10	-3.894437e+00	-1.855051e+01
1.730000e-06	-5.127219e-07	-2.261474e-10	-3.570762e+00	-1.779301e+01
1.740000e-06	-4.661608e-07	-2.104934e-10	-3.246495e+00	-1.702053e+01
1.750000e-06	-4.195138e-07	-1.976802e-10	-2.921631e+00	-1.623297e+01
1.760000e-06	-3.728415e-07	-1.886489e-10	-2.596589e+00	-1.543028e+01
1.770000e-06	-3.261202e-07	-1.815263e-10	-2.271207e+00	-1.461245e+01
1.780000e-06	-2.794067e-07	-1.731252e-10	-1.945879e+00	-1.377947e+01
1.790000e-06	-2.327215e-07	-1.617641e-10	-1.620748e+00	-1.293142e+01
1.800000e-06	-1.860241e-07	-1.471395e-10	-1.295532e+00	-1.206838e+01
1.810000e-06	-1.393089e-07	-1.311224e-10	-9.701924e-01	-1.119048e+01
1.820000e-06	-9.259794e-08	-1.169500e-10	-6.448821e-01	-1.029790e+01
1.830000e-06	-4.590268e-08	-1.056565e-10	-3.196812e-01	-9.390870e+00
1.840000e-06	7.661519e-10	-9.613622e-11	5.335731e-03	-8.469641e+00
1.850000e-06	4.747797e-08	-8.554801e-11	3.306520e-01	-7.534527e+00
1.860000e-06	9.424795e-08	-7.351343e-11	6.563733e-01	-6.585884e+00
1.870000e-06	1.410490e-07	-6.009023e-11	9.823111e-01	-5.624112e+00
1.880000e-06	1.878291e-07	-4.356436e-11	1.308103e+00	-4.649658e+00
1.890000e-06	2.345129e-07	-2.510517e-11	1.633224e+00	-3.663014e+00
1.900000e-06	2.811970e-07	-7.916710e-12	1.958347e+00	-2.664714e+00
1.910000e-06	3.279281e-07	6.747755e-12	2.283797e+00	-1.655339e+00
1.920000e-06	3.746157e-07	1.857924e-11	2.608945e+00	-6.355096e-01
1.930000e-06	4.212514e-07	2.929854e-11	2.933731e+00	3.941108e-01
1.940000e-06	4.678438e-07	4.183792e-11	3.258216e+00	1.432821e+00
1.950000e-06	5.143561e-07	5.619104e-11	3.582143e+00	2.479883e+00
1.960000e-06	5.608043e-07	7.103060e-11	3.905623e+00	3.534523e+00
1.970000e-06	6.072387e-07	8.664891e-11	4.229007e+00	4.595936e+00
1.980000e-06	6.536073e-07	1.003927e-10	4.551933e+00	5.663287e+00
1.990000e-06	6.998697e-07	1.136235e-10	4.874119e+00	6.735714e+00
2.000000e-06	7.461885e-07	1.246949e-10	5.196699e+00	7.812332e+00
2.010000e-06	7.925227e-07	1.393046e-10	5.519385e+00	8.892235e+00
2.020000e-06	8.387782e-07	1.609213e-10	5.841524e+00	9.974499e+00
2.030000e-06	8.849711e-07	1.829552e-10	6.163226e+00	1.105819e+01
2.040000e-06	9.310673e-07	2.004395e-10	6.484255e+00	1.214236e+01
2.050000e-06	9.770700e-07	2.136398e-10	6.804633e+00	1.322605e+01
2.060000e-06	1.022964e-06	2.260854e-10	7.124254e+00	1.430832e+01
2.070000e-06	1.068715e-06	2.391247e-10	7.442878e+00	1.538819e+01
2.080000e-06	1.114404e-06	2.540183e-10	7.761068e+00	1.646473e+01
2.090000e-06	1.160075e-06	2.711127e-10	8.079137e+00	1.753699e+01
2.100000e-06	1.205671e-06	2.905122e-10	8.396681e+00	1.860405e+01
2.110000e-06	1.251133e-06	3.066154e-10	8.713296e+00	1.966497e+01
2.120000e-06	1.296472e-06	3.200380e-10	9.029054e+00	2.071887e+01
2.130000e-06	1.341774e-06	3.339000e-10	9.344552e+00	2.176488e+01
2.140000e-06	1.387025e-06	3.483421e-10	9.659694e+00	2.280213e+01
2.150000e-06	1.432227e-06	3.639629e-10	9.974497e+00	2.382982e+01
2.160000e-06	1.477331e-06	3.793337e-10	1.028861e+01	2.484714e+01
2.170000e-06	1.522277e-06	3.928428e-10	1.060163e+01	2.585334e+01
2.180000e-06	1.567128e-06	4.075334e-10	1.091399e+01	2.684770e+01
2.190000e-06	1.611865e-06	4.207004e-10	1.122555e+01	2.782952e+01
2.200000e-06	1.656447e-06	4.310294e-10	1.153603e+01	2.879818e+01
2.210000e-06	1.700862e-06	4.424356e-10	1.184536e+01	2.975306e+01
2.220000e-06	1.745113e-06	4.580172e-10	1.215354e+01	3.069360e+01
2.230000e-06	1.789278e-06	4.751424e-10	1.246111e+01	3.161928e+01
2.240000e-06	1.833329e-06	4.873486e-10	1.276790e+01	3.252964e+01
2.250000e-06	1.877230e-06	4.973238e-10	1.307364e+01	3.342425e+01
2.260000e-06	1.921047e-06	5.047696e-10	1.337879e+01	3.430272e+01
2.270000e-06	1.964799e-06	5.144506e-10	1.368350e+01	3.516474e+01
2.280000e-06	2.008490e-06	5.272150e-10	1.398778e+01	3.600999e+01
2.290000e-06	2.052132e-06	5.418227e-10	1.429171e+01	3.683826e+01
2.300000e-06	2.095709e-06	5.562498e-10	1.459520e+01	3.764933e+01
2.310000e-06	2.139203e-06	5.688329e-10	1.489810e+01	3.844306e+01
2.320000e-06	2.182631e-06	5.790620e-10	1.520055e+01	3.921933e+01
2.330000e-06	2.226007e-06	5.886726e-10	1.550264e+01	3.997809e+01
2.340000e-06	2.269149e-06	6.003725e-10	1.580309e+01	4.071930e+01
2.350000e-06	2.312022e-06	6.134247e-10	1.610167e+01	4.144298e+01
2.360000e-06	2.354775e-06	6.277367e-10	1.639942e+01	4.214918e+01
2.370000e-06	2.397365e-06	6.401307e-10	1.669603e+01	4.283798e+01
2.380000e-06	2.439661e-06	6.503597e-10	1.699059e+01	4.350952e+01
2.390000e-06	2.481573e-06	6.581518e-10	1.728248e+01	4.416393e+01
2.400000e-06	2.523097e-06	6.629453e-10	1.757167e+01	4.480141e+01
2.410000e-06	2.564252e-06	6.681039e-10	1.785828e+01	4.542215e+01
2.420000e-06	2.605101e-06	6.767517e-10	1.814277e+01	4.602640e+01
2.430000e-06	2.645749e-06	6.895752e-10	1.842585e+01	4.661441e+01
2.440000e-06	2.686099e-06	7.029364e-10	1.870686e+01	4.718646e+01
2.450000e-06	2.726165e-06	7.133051e-10	1.898590e+01	4.774285e+01
2.460000e-06	2.766114e-06	7.231834e-10	1.926412e+01	4.828388e+01
2.470000e-06	2.805962e-06	7.315656e-10	1.954163e+01	4.880988e+01
2.480000e-06	2.845749e-06	7.374494e-10	1.981872e+01	4.932119e+01
2.490000e-06	2.885416e-06	7.421312e-10	2.009497e+01	4.981816e+01
2.500000e-06	2.924993e-06	7.477488e-10	2.037060e+01	5.030113e+01
2.510000e-06	2.964396e-06	7.546579e-10	2.064502e+01	5.077046e+01
2.520000e-06	3.003467e-06	7.633839e-10	2.091712e+01	5.122652e+01
2.530000e-06	3.042335e-06	7.725609e-10	2.118781e+01	5.166967e+01
2.540000e-06	3.081040e-06	7.807691e-10	2.145736e+01	5.210026e+01
2.550000e-06	3.119538e-06	7.875560e-10	2.172547e+01	5.251867e+01
2.560000e-06	3.157859e-06	7.912785e-10	2.199236e+01	5.292524e+01
2.570000e-06	3.195951e-06	7.918188e-10	2.225764e+01	5.332032e+01
2.580000e-06	3.233766e-06	7.936676e-10	2.252100e+01	5.370427e+01
2.590000e-06	3.271396e-06	7.992627e-10	2.278306e+01	5.407742e+01
2.600000e-06	3.308902e-06	8.084488e-10	2.304427e+01	5.444009e+01
2.610000e-06	3.346190e-06	8.146286e-10	2.330395e+01	5.479262e+01
2.620000e-06	3.383223e-06	8.172680e-10	2.356186e+01	5.513531e+01
2.630000e-06	3.419976e-06	8.196248e-10	2.381782e+01	5.546845e+01
2.640000e-06	3.456445e-06	8.216887e-10	2.407181e+01	5.579235e+01
2.650000e-06	3.492671e-06	8.267199e-10	2.432410e+01	5.610727e+01
2.660000e-06	3.528657e-06	8.333022e-10	2.457472e+01	5.641348e+01
2.670000e-06	3.564458e-06	8.381567e-10	2.482404e+01	5.671123e+01
2.680000e-06	3.600099e-06	8.408238e-10	2.507226e+01	5.700077e+01
2.690000e-06	3.635610e-06	8.456960e-10	2.531957e+01	5.728233e+01
2.700000e-06	3.671004e-06	8.495905e-10	2.556606e+01	5.755611e+01
2.710000e-06	3.706227e-06	8.520159e-10	2.581137e+01	5.782232e+01
2.720000e-06	3.741172e-06	8.554375e-10	2.605473e+01	5.808116e+01
2.730000e-06	3.775667e-06	8.602454e-10	2.629497e+01	5.833279e+01
2.740000e-06	3.809698e-06	8.654519e-10	2.653197e+01	5.857740e+01
2.750000e-06	3.843308e-06	8.697234e-10	2.676604e+01	5.881514e+01
2.760000e-06	3.876493e-06	8.718274e-10	2.699715e+01	5.904615e+01
2.770000e-06	3.909350e-06	8.725720e-10	2.722598e+01	5.927057e+01
2.780000e-06	3.941883e-06	8.761092e-10	2.745255e+01	5.948852e+01
2.790000e-06	3.974023e-06	8.826306e-10	2.767639e+01	5.970012e+01
2.800000e-06	4.005893e-06	8.871536e-10	2.789834e+01	5.990547e+01
2.810000e-06	4.037606e-06	8.898521e-10	2.811920e+01	6.010468e+01
2.820000e-06	4.069141e-06	8.923473e-10	2.833882e+01	6.029783e+01
2.830000e-06	4.100481e-06	8.968930e-10	2.855708e+01	6.048501e+01
2.840000e-06	4.131619e-06	9.040868e-10	2.877394e+01	6.066628e+01
2.850000e-06	4.162527e-06	9.108262e-10	2.898919e+01	6.084173e+01
2.860000e-06	4.193111e-06	9.120559e-10	2.920218e+01	6.101140e+01
2.870000e-06	4.223351e-06	9.090711e-10	2.941279e+01	6.117536e+01
2.880000e-06	4.253264e-06	9.092098e-10	2.962111e+01	6.133366e+01
2.890000e-06	4.282834e-06	9.112833e-10	2.982705e+01	6.148635e+01
2.900000e-06	4.312186e-06	9.143565e-10	3.003146e+01	6.163347e+01
2.910000e-06	4.341304e-06	9.202187e-10	3.023425e+01	6.177506e+01
