# Temperatura_=_8.1
# Concentracion g/m^3_=_1620.0
# C_Vs_to_Am_M_A/Vsm_=_65563218390.804596
# pendiente_HvsI_1/m_=_3716.3
# ordenada_HvsI_A/m_=_1297.0
# frecuencia_Hz_=_135091.4958547275

Tiempo_(s)	Campo_(V.s)	Magnetizacion_(V.s)	Campo_(kA/m)	Magnetizacion_(A/m)
0.000000e+00	-5.515555e-06	-1.336780e-09	-3.838361e+01	-8.834909e+01
1.000000e-08	-5.515794e-06	-1.335645e-09	-3.838527e+01	-8.833886e+01
2.000000e-08	-5.515777e-06	-1.335906e-09	-3.838515e+01	-8.832660e+01
3.000000e-08	-5.515485e-06	-1.336464e-09	-3.838312e+01	-8.831207e+01
4.000000e-08	-5.514731e-06	-1.334728e-09	-3.837787e+01	-8.829502e+01
5.000000e-08	-5.513433e-06	-1.324460e-09	-3.836884e+01	-8.827519e+01
6.000000e-08	-5.511555e-06	-1.306445e-09	-3.835577e+01	-8.825234e+01
7.000000e-08	-5.509132e-06	-1.304199e-09	-3.833891e+01	-8.822622e+01
8.000000e-08	-5.506201e-06	-1.351990e-09	-3.831851e+01	-8.819658e+01
9.000000e-08	-5.502802e-06	-1.398596e-09	-3.829486e+01	-8.816317e+01
1.000000e-07	-5.498975e-06	-1.417684e-09	-3.826823e+01	-8.812578e+01
1.100000e-07	-5.494789e-06	-1.373308e-09	-3.823910e+01	-8.808419e+01
1.200000e-07	-5.490322e-06	-1.273492e-09	-3.820801e+01	-8.803818e+01
1.300000e-07	-5.485626e-06	-1.234881e-09	-3.817533e+01	-8.798757e+01
1.400000e-07	-5.480624e-06	-1.309562e-09	-3.814051e+01	-8.793219e+01
1.500000e-07	-5.475161e-06	-1.334242e-09	-3.810250e+01	-8.787187e+01
1.600000e-07	-5.469333e-06	-1.303732e-09	-3.806194e+01	-8.780649e+01
1.700000e-07	-5.463172e-06	-1.248426e-09	-3.801907e+01	-8.773591e+01
1.800000e-07	-5.456610e-06	-1.374592e-09	-3.797340e+01	-8.766005e+01
1.900000e-07	-5.449495e-06	-1.373356e-09	-3.792388e+01	-8.757883e+01
2.000000e-07	-5.442035e-06	-1.305995e-09	-3.787197e+01	-8.749218e+01
2.100000e-07	-5.434436e-06	-1.217447e-09	-3.781909e+01	-8.740008e+01
2.200000e-07	-5.426581e-06	-1.308230e-09	-3.776442e+01	-8.730250e+01
2.300000e-07	-5.418467e-06	-1.348447e-09	-3.770795e+01	-8.719945e+01
2.400000e-07	-5.410000e-06	-1.321553e-09	-3.764903e+01	-8.709095e+01
2.500000e-07	-5.400764e-06	-1.278413e-09	-3.758475e+01	-8.697704e+01
2.600000e-07	-5.390798e-06	-1.288705e-09	-3.751540e+01	-8.685778e+01
2.700000e-07	-5.380275e-06	-1.294081e-09	-3.744217e+01	-8.673323e+01
2.800000e-07	-5.369254e-06	-1.259123e-09	-3.736548e+01	-8.660349e+01
2.900000e-07	-5.357876e-06	-1.275764e-09	-3.728629e+01	-8.646865e+01
3.000000e-07	-5.346069e-06	-1.284171e-09	-3.720413e+01	-8.632882e+01
3.100000e-07	-5.333879e-06	-1.301896e-09	-3.711930e+01	-8.618412e+01
3.200000e-07	-5.321256e-06	-1.252699e-09	-3.703145e+01	-8.603468e+01
3.300000e-07	-5.308214e-06	-1.279220e-09	-3.694069e+01	-8.588064e+01
3.400000e-07	-5.294792e-06	-1.249472e-09	-3.684728e+01	-8.572211e+01
3.500000e-07	-5.280935e-06	-1.279307e-09	-3.675085e+01	-8.555925e+01
3.600000e-07	-5.266739e-06	-1.256243e-09	-3.665206e+01	-8.539220e+01
3.700000e-07	-5.252145e-06	-1.272789e-09	-3.655049e+01	-8.522109e+01
3.800000e-07	-5.236924e-06	-1.252506e-09	-3.644457e+01	-8.504605e+01
3.900000e-07	-5.221169e-06	-1.293471e-09	-3.633493e+01	-8.486723e+01
4.000000e-07	-5.204976e-06	-1.256025e-09	-3.622224e+01	-8.468474e+01
4.100000e-07	-5.188352e-06	-1.245427e-09	-3.610655e+01	-8.449870e+01
4.200000e-07	-5.171447e-06	-1.261570e-09	-3.598890e+01	-8.430923e+01
4.300000e-07	-5.154241e-06	-1.273143e-09	-3.586917e+01	-8.411643e+01
4.400000e-07	-5.136663e-06	-1.218332e-09	-3.574684e+01	-8.392039e+01
4.500000e-07	-5.118725e-06	-1.257131e-09	-3.562201e+01	-8.372120e+01
4.600000e-07	-5.100362e-06	-1.288538e-09	-3.549421e+01	-8.351893e+01
4.700000e-07	-5.081577e-06	-1.228795e-09	-3.536348e+01	-8.331363e+01
4.800000e-07	-5.062538e-06	-1.208060e-09	-3.523099e+01	-8.310537e+01
4.900000e-07	-5.043310e-06	-1.291175e-09	-3.509718e+01	-8.289417e+01
5.000000e-07	-5.023771e-06	-1.264753e-09	-3.496120e+01	-8.268007e+01
5.100000e-07	-5.003974e-06	-1.194996e-09	-3.482343e+01	-8.246308e+01
5.200000e-07	-4.983898e-06	-1.245040e-09	-3.468372e+01	-8.224322e+01
5.300000e-07	-4.963457e-06	-1.263533e-09	-3.454147e+01	-8.202047e+01
5.400000e-07	-4.942649e-06	-1.198575e-09	-3.439666e+01	-8.179483e+01
5.500000e-07	-4.921539e-06	-1.222546e-09	-3.424976e+01	-8.156627e+01
5.600000e-07	-4.900067e-06	-1.268727e-09	-3.410033e+01	-8.133477e+01
5.700000e-07	-4.878223e-06	-1.196718e-09	-3.394831e+01	-8.110029e+01
5.800000e-07	-4.856048e-06	-1.199213e-09	-3.379400e+01	-8.086279e+01
5.900000e-07	-4.833542e-06	-1.266818e-09	-3.363737e+01	-8.062222e+01
6.000000e-07	-4.810692e-06	-1.230682e-09	-3.347835e+01	-8.037854e+01
6.100000e-07	-4.787512e-06	-1.171082e-09	-3.331704e+01	-8.013169e+01
6.200000e-07	-4.764032e-06	-1.227224e-09	-3.315364e+01	-7.988161e+01
6.300000e-07	-4.740297e-06	-1.213715e-09	-3.298846e+01	-7.962825e+01
6.400000e-07	-4.716355e-06	-1.170229e-09	-3.282185e+01	-7.937156e+01
6.500000e-07	-4.692111e-06	-1.198807e-09	-3.265313e+01	-7.911147e+01
6.600000e-07	-4.667422e-06	-1.227475e-09	-3.248132e+01	-7.884793e+01
6.700000e-07	-4.642307e-06	-1.173305e-09	-3.230654e+01	-7.858090e+01
6.800000e-07	-4.616769e-06	-1.190495e-09	-3.212882e+01	-7.831032e+01
6.900000e-07	-4.590605e-06	-1.210637e-09	-3.194673e+01	-7.803614e+01
7.000000e-07	-4.563891e-06	-1.178236e-09	-3.176083e+01	-7.775832e+01
7.100000e-07	-4.536786e-06	-1.156620e-09	-3.157220e+01	-7.747683e+01
7.200000e-07	-4.509347e-06	-1.190183e-09	-3.138125e+01	-7.719162e+01
7.300000e-07	-4.481702e-06	-1.172714e-09	-3.118886e+01	-7.690267e+01
7.400000e-07	-4.453926e-06	-1.159423e-09	-3.099556e+01	-7.660995e+01
7.500000e-07	-4.425964e-06	-1.171486e-09	-3.080098e+01	-7.631343e+01
7.600000e-07	-4.397760e-06	-1.166143e-09	-3.060470e+01	-7.601310e+01
7.700000e-07	-4.369270e-06	-1.135683e-09	-3.040643e+01	-7.570893e+01
7.800000e-07	-4.340504e-06	-1.137045e-09	-3.020624e+01	-7.540093e+01
7.900000e-07	-4.311367e-06	-1.138488e-09	-3.000348e+01	-7.508907e+01
8.000000e-07	-4.281823e-06	-1.127688e-09	-2.979787e+01	-7.477335e+01
8.100000e-07	-4.252009e-06	-1.131075e-09	-2.959039e+01	-7.445376e+01
8.200000e-07	-4.221973e-06	-1.134843e-09	-2.938137e+01	-7.413029e+01
8.300000e-07	-4.191649e-06	-1.118179e-09	-2.917034e+01	-7.380295e+01
8.400000e-07	-4.160988e-06	-1.105695e-09	-2.895696e+01	-7.347171e+01
8.500000e-07	-4.130064e-06	-1.106577e-09	-2.874176e+01	-7.313659e+01
8.600000e-07	-4.098921e-06	-1.088562e-09	-2.852503e+01	-7.279756e+01
8.700000e-07	-4.067551e-06	-1.077588e-09	-2.830672e+01	-7.245462e+01
8.800000e-07	-4.035991e-06	-1.081297e-09	-2.808709e+01	-7.210775e+01
8.900000e-07	-4.004234e-06	-1.084531e-09	-2.786609e+01	-7.175694e+01
9.000000e-07	-3.972229e-06	-1.070867e-09	-2.764336e+01	-7.140217e+01
9.100000e-07	-3.940010e-06	-1.070642e-09	-2.741914e+01	-7.104342e+01
9.200000e-07	-3.907522e-06	-1.061159e-09	-2.719305e+01	-7.068066e+01
9.300000e-07	-3.874625e-06	-1.045295e-09	-2.696412e+01	-7.031385e+01
9.400000e-07	-3.841200e-06	-1.032832e-09	-2.673151e+01	-6.994297e+01
9.500000e-07	-3.807266e-06	-1.036153e-09	-2.649536e+01	-6.956796e+01
9.600000e-07	-3.772918e-06	-1.021422e-09	-2.625632e+01	-6.918880e+01
9.700000e-07	-3.738186e-06	-1.012859e-09	-2.601462e+01	-6.880544e+01
9.800000e-07	-3.703186e-06	-1.011774e-09	-2.577105e+01	-6.841781e+01
9.900000e-07	-3.667971e-06	-1.011410e-09	-2.552598e+01	-6.802588e+01
1.000000e-06	-3.632482e-06	-9.995884e-10	-2.527901e+01	-6.762959e+01
1.010000e-06	-3.596816e-06	-9.981483e-10	-2.503080e+01	-6.722888e+01
1.020000e-06	-3.561009e-06	-9.913307e-10	-2.478161e+01	-6.682369e+01
1.030000e-06	-3.525043e-06	-9.811495e-10	-2.453132e+01	-6.641396e+01
1.040000e-06	-3.488898e-06	-9.719904e-10	-2.427978e+01	-6.599965e+01
1.050000e-06	-3.452508e-06	-9.704225e-10	-2.402654e+01	-6.558069e+01
1.060000e-06	-3.415860e-06	-9.602436e-10	-2.377150e+01	-6.515704e+01
1.070000e-06	-3.378944e-06	-9.515664e-10	-2.351459e+01	-6.472864e+01
1.080000e-06	-3.341772e-06	-9.484186e-10	-2.325591e+01	-6.429545e+01
1.090000e-06	-3.304345e-06	-9.412535e-10	-2.299545e+01	-6.385742e+01
1.100000e-06	-3.266679e-06	-9.304555e-10	-2.273333e+01	-6.341453e+01
1.110000e-06	-3.228797e-06	-9.252207e-10	-2.246970e+01	-6.296674e+01
1.120000e-06	-3.190759e-06	-9.184520e-10	-2.220499e+01	-6.251403e+01
1.130000e-06	-3.152542e-06	-9.069714e-10	-2.193903e+01	-6.205640e+01
1.140000e-06	-3.114011e-06	-9.015106e-10	-2.167089e+01	-6.159382e+01
1.150000e-06	-3.075238e-06	-8.933327e-10	-2.140106e+01	-6.112630e+01
1.160000e-06	-3.036260e-06	-8.831246e-10	-2.112981e+01	-6.065385e+01
1.170000e-06	-2.997069e-06	-8.756037e-10	-2.085707e+01	-6.017648e+01
1.180000e-06	-2.957782e-06	-8.756427e-10	-2.058367e+01	-5.969423e+01
1.190000e-06	-2.918414e-06	-8.706594e-10	-2.030970e+01	-5.920711e+01
1.200000e-06	-2.878904e-06	-8.661831e-10	-2.003474e+01	-5.871517e+01
1.210000e-06	-2.839223e-06	-8.596954e-10	-1.975859e+01	-5.821844e+01
1.220000e-06	-2.799360e-06	-8.523122e-10	-1.948118e+01	-5.771698e+01
1.230000e-06	-2.759291e-06	-8.398409e-10	-1.920234e+01	-5.721083e+01
1.240000e-06	-2.719124e-06	-8.323402e-10	-1.892281e+01	-5.670005e+01
1.250000e-06	-2.678720e-06	-8.230880e-10	-1.864163e+01	-5.618469e+01
1.260000e-06	-2.638070e-06	-8.135817e-10	-1.835874e+01	-5.566480e+01
1.270000e-06	-2.597231e-06	-8.024565e-10	-1.807453e+01	-5.514043e+01
1.280000e-06	-2.556118e-06	-7.953874e-10	-1.778842e+01	-5.461162e+01
1.290000e-06	-2.514745e-06	-7.876088e-10	-1.750050e+01	-5.407840e+01
1.300000e-06	-2.472935e-06	-7.829157e-10	-1.720954e+01	-5.354081e+01
1.310000e-06	-2.430866e-06	-7.747870e-10	-1.691677e+01	-5.299886e+01
1.320000e-06	-2.388601e-06	-7.637135e-10	-1.662265e+01	-5.245255e+01
1.330000e-06	-2.345993e-06	-7.506157e-10	-1.632613e+01	-5.190186e+01
1.340000e-06	-2.303151e-06	-7.406208e-10	-1.602799e+01	-5.134677e+01
1.350000e-06	-2.260164e-06	-7.315971e-10	-1.572884e+01	-5.078721e+01
1.360000e-06	-2.217081e-06	-7.220643e-10	-1.542901e+01	-5.022312e+01
1.370000e-06	-2.173823e-06	-7.133155e-10	-1.512797e+01	-4.965440e+01
1.380000e-06	-2.130287e-06	-7.092155e-10	-1.482500e+01	-4.908090e+01
1.390000e-06	-2.086581e-06	-7.049370e-10	-1.452084e+01	-4.850249e+01
1.400000e-06	-2.042803e-06	-6.978239e-10	-1.421619e+01	-4.791898e+01
1.410000e-06	-1.998973e-06	-6.890197e-10	-1.391116e+01	-4.733014e+01
1.420000e-06	-1.955049e-06	-6.786195e-10	-1.360549e+01	-4.673573e+01
1.430000e-06	-1.911075e-06	-6.681832e-10	-1.329947e+01	-4.613548e+01
1.440000e-06	-1.867128e-06	-6.582298e-10	-1.299364e+01	-4.552905e+01
1.450000e-06	-1.823034e-06	-6.499429e-10	-1.268678e+01	-4.491612e+01
1.460000e-06	-1.778717e-06	-6.403125e-10	-1.237837e+01	-4.429628e+01
1.470000e-06	-1.734280e-06	-6.279953e-10	-1.206912e+01	-4.366913e+01
1.480000e-06	-1.689803e-06	-6.138610e-10	-1.175960e+01	-4.303423e+01
1.490000e-06	-1.645189e-06	-6.015360e-10	-1.144912e+01	-4.239108e+01
1.500000e-06	-1.600351e-06	-5.895054e-10	-1.113709e+01	-4.173919e+01
1.510000e-06	-1.555375e-06	-5.820343e-10	-1.082410e+01	-4.107802e+01
1.520000e-06	-1.510352e-06	-5.752596e-10	-1.051078e+01	-4.040701e+01
1.530000e-06	-1.465195e-06	-5.669792e-10	-1.019652e+01	-3.972558e+01
1.540000e-06	-1.419974e-06	-5.533732e-10	-9.881821e+00	-3.903312e+01
1.550000e-06	-1.374689e-06	-5.356354e-10	-9.566674e+00	-3.832902e+01
1.560000e-06	-1.329215e-06	-5.154653e-10	-9.250212e+00	-3.761265e+01
1.570000e-06	-1.283677e-06	-4.988248e-10	-8.933307e+00	-3.688338e+01
1.580000e-06	-1.238040e-06	-4.840003e-10	-8.615710e+00	-3.614055e+01
1.590000e-06	-1.192362e-06	-4.768176e-10	-8.297831e+00	-3.538354e+01
1.600000e-06	-1.146622e-06	-4.712235e-10	-7.979521e+00	-3.461170e+01
1.610000e-06	-1.100701e-06	-4.613003e-10	-7.659947e+00	-3.382442e+01
1.620000e-06	-1.054738e-06	-4.451393e-10	-7.340089e+00	-3.302108e+01
1.630000e-06	-1.008735e-06	-4.283278e-10	-7.019941e+00	-3.220109e+01
1.640000e-06	-9.626155e-07	-4.151014e-10	-6.698991e+00	-3.136389e+01
1.650000e-06	-9.163882e-07	-4.013124e-10	-6.377288e+00	-3.050895e+01
1.660000e-06	-8.701277e-07	-3.863532e-10	-6.055354e+00	-2.963577e+01
1.670000e-06	-8.238804e-07	-3.734694e-10	-5.733512e+00	-2.874390e+01
1.680000e-06	-7.775611e-07	-3.589681e-10	-5.411169e+00	-2.783292e+01
1.690000e-06	-7.312039e-07	-3.434542e-10	-5.088562e+00	-2.690247e+01
1.700000e-06	-6.847971e-07	-3.315104e-10	-4.765610e+00	-2.595226e+01
1.710000e-06	-6.382741e-07	-3.191427e-10	-4.441849e+00	-2.498203e+01
1.720000e-06	-5.916955e-07	-3.037007e-10	-4.117701e+00	-2.399160e+01
1.730000e-06	-5.450912e-07	-2.850915e-10	-3.793374e+00	-2.298085e+01
1.740000e-06	-4.983688e-07	-2.654275e-10	-3.468226e+00	-2.194974e+01
1.750000e-06	-4.515433e-07	-2.450125e-10	-3.142360e+00	-2.089828e+01
1.760000e-06	-4.048323e-07	-2.281556e-10	-2.817291e+00	-1.982658e+01
1.770000e-06	-3.581233e-07	-2.148916e-10	-2.492236e+00	-1.873481e+01
1.780000e-06	-3.113409e-07	-2.027599e-10	-2.166670e+00	-1.762321e+01
1.790000e-06	-2.645475e-07	-1.903594e-10	-1.841027e+00	-1.649213e+01
1.800000e-06	-2.178194e-07	-1.771040e-10	-1.515839e+00	-1.534196e+01
1.810000e-06	-1.710780e-07	-1.598411e-10	-1.190558e+00	-1.417319e+01
1.820000e-06	-1.242450e-07	-1.400084e-10	-8.646400e-01	-1.298639e+01
1.830000e-06	-7.743618e-08	-1.221353e-10	-5.388905e-01	-1.178218e+01
1.840000e-06	-3.067881e-08	-1.067916e-10	-2.134986e-01	-1.056127e+01
1.850000e-06	1.604139e-08	-9.049988e-11	1.116345e-01	-9.324456e+00
1.860000e-06	6.284507e-08	-7.395129e-11	4.373486e-01	-8.072571e+00
1.870000e-06	1.096052e-07	-5.818706e-11	7.627595e-01	-6.806531e+00
1.880000e-06	1.563344e-07	-4.043096e-11	1.087955e+00	-5.527306e+00
1.890000e-06	2.031913e-07	-1.983975e-11	1.414040e+00	-4.235924e+00
1.900000e-06	2.500295e-07	-1.769779e-12	1.739994e+00	-2.933462e+00
1.910000e-06	2.967744e-07	1.600022e-11	2.065299e+00	-1.621042e+00
1.920000e-06	3.434024e-07	3.396143e-11	2.389791e+00	-2.998278e-01
1.930000e-06	3.899498e-07	5.020870e-11	2.713721e+00	1.028985e+00
1.940000e-06	4.365244e-07	6.680836e-11	3.037841e+00	2.364171e+00
1.950000e-06	4.830897e-07	8.683431e-11	3.361896e+00	3.704485e+00
1.960000e-06	5.296287e-07	1.070359e-10	3.685768e+00	5.048664e+00
1.970000e-06	5.762175e-07	1.255516e-10	4.009987e+00	6.395438e+00
1.980000e-06	6.227465e-07	1.426145e-10	4.333790e+00	7.743533e+00
1.990000e-06	6.691391e-07	1.579853e-10	4.656643e+00	9.091680e+00
2.000000e-06	7.154653e-07	1.748521e-10	4.979035e+00	1.043862e+01
2.010000e-06	7.617421e-07	1.919271e-10	5.301082e+00	1.178311e+01
2.020000e-06	8.079907e-07	2.095913e-10	5.622933e+00	1.312393e+01
2.030000e-06	8.541608e-07	2.296954e-10	5.944238e+00	1.445988e+01
2.040000e-06	9.002945e-07	2.512197e-10	6.265289e+00	1.578981e+01
2.050000e-06	9.464010e-07	2.708855e-10	6.586152e+00	1.711260e+01
2.060000e-06	9.924036e-07	2.889345e-10	6.906291e+00	1.842718e+01
2.070000e-06	1.038349e-06	3.080930e-10	7.226033e+00	1.973251e+01
2.080000e-06	1.084245e-06	3.271446e-10	7.545431e+00	2.102761e+01
2.090000e-06	1.130028e-06	3.449146e-10	7.864044e+00	2.231158e+01
2.100000e-06	1.175734e-06	3.649549e-10	8.182113e+00	2.358354e+01
2.110000e-06	1.221357e-06	3.842385e-10	8.499610e+00	2.484269e+01
2.120000e-06	1.266873e-06	4.019240e-10	8.816369e+00	2.608830e+01
2.130000e-06	1.312266e-06	4.185719e-10	9.132265e+00	2.731970e+01
2.140000e-06	1.357483e-06	4.384360e-10	9.446936e+00	2.853628e+01
2.150000e-06	1.402640e-06	4.597927e-10	9.761187e+00	2.973748e+01
2.160000e-06	1.447813e-06	4.785922e-10	1.007556e+01	3.092285e+01
2.170000e-06	1.492867e-06	4.952649e-10	1.038909e+01	3.209197e+01
2.180000e-06	1.537793e-06	5.132544e-10	1.070174e+01	3.324449e+01
2.190000e-06	1.582644e-06	5.331681e-10	1.101387e+01	3.438014e+01
2.200000e-06	1.627373e-06	5.481214e-10	1.132514e+01	3.549868e+01
2.210000e-06	1.671942e-06	5.606182e-10	1.163530e+01	3.659996e+01
2.220000e-06	1.716386e-06	5.726351e-10	1.194460e+01	3.768386e+01
2.230000e-06	1.760681e-06	5.876412e-10	1.225285e+01	3.875033e+01
2.240000e-06	1.804798e-06	6.022049e-10	1.255987e+01	3.979937e+01
2.250000e-06	1.848816e-06	6.149757e-10	1.286620e+01	4.083101e+01
2.260000e-06	1.892755e-06	6.294992e-10	1.317198e+01	4.184533e+01
2.270000e-06	1.936580e-06	6.442511e-10	1.347696e+01	4.284246e+01
2.280000e-06	1.980334e-06	6.630054e-10	1.378145e+01	4.382254e+01
2.290000e-06	2.024071e-06	6.807389e-10	1.408583e+01	4.478575e+01
2.300000e-06	2.067767e-06	6.960629e-10	1.438991e+01	4.573230e+01
2.310000e-06	2.111431e-06	7.054906e-10	1.469378e+01	4.666242e+01
2.320000e-06	2.155049e-06	7.140043e-10	1.499732e+01	4.757635e+01
2.330000e-06	2.198570e-06	7.250598e-10	1.530019e+01	4.847433e+01
2.340000e-06	2.241942e-06	7.363927e-10	1.560202e+01	4.935665e+01
2.350000e-06	2.285151e-06	7.516121e-10	1.590272e+01	5.022356e+01
2.360000e-06	2.328179e-06	7.690402e-10	1.620216e+01	5.107533e+01
2.370000e-06	2.370910e-06	7.871185e-10	1.649953e+01	5.191223e+01
2.380000e-06	2.413356e-06	7.998375e-10	1.679492e+01	5.273452e+01
2.390000e-06	2.455483e-06	8.085617e-10	1.708809e+01	5.354246e+01
2.400000e-06	2.497135e-06	8.155173e-10	1.737795e+01	5.433628e+01
2.410000e-06	2.538468e-06	8.196979e-10	1.766559e+01	5.511623e+01
2.420000e-06	2.579683e-06	8.272372e-10	1.795242e+01	5.588251e+01
2.430000e-06	2.620587e-06	8.395546e-10	1.823707e+01	5.663532e+01
2.440000e-06	2.661040e-06	8.542432e-10	1.851860e+01	5.737487e+01
2.450000e-06	2.701315e-06	8.667502e-10	1.879887e+01	5.810130e+01
2.460000e-06	2.741479e-06	8.760285e-10	1.907838e+01	5.881478e+01
2.470000e-06	2.781477e-06	8.881322e-10	1.935673e+01	5.951544e+01
2.480000e-06	2.821369e-06	8.976144e-10	1.963435e+01	6.020340e+01
2.490000e-06	2.861104e-06	9.044587e-10	1.991087e+01	6.087876e+01
2.500000e-06	2.900714e-06	9.112960e-10	2.018652e+01	6.154161e+01
2.510000e-06	2.940181e-06	9.164435e-10	2.046118e+01	6.219203e+01
2.520000e-06	2.979475e-06	9.246055e-10	2.073463e+01	6.283009e+01
2.530000e-06	3.018620e-06	9.366654e-10	2.100704e+01	6.345583e+01
2.540000e-06	3.057525e-06	9.451399e-10	2.127779e+01	6.406931e+01
2.550000e-06	3.096234e-06	9.534635e-10	2.154717e+01	6.467058e+01
2.560000e-06	3.134720e-06	9.626297e-10	2.181500e+01	6.525967e+01
2.570000e-06	3.172928e-06	9.727883e-10	2.208090e+01	6.583662e+01
2.580000e-06	3.210890e-06	9.796828e-10	2.234508e+01	6.640148e+01
2.590000e-06	3.248623e-06	9.825005e-10	2.260767e+01	6.695429e+01
2.600000e-06	3.286248e-06	9.882413e-10	2.286951e+01	6.749510e+01
2.610000e-06	3.323772e-06	9.961454e-10	2.313065e+01	6.802398e+01
2.620000e-06	3.361023e-06	1.005211e-09	2.338988e+01	6.854101e+01
2.630000e-06	3.397991e-06	1.011183e-09	2.364715e+01	6.904627e+01
2.640000e-06	3.434696e-06	1.018730e-09	2.390258e+01	6.953986e+01
2.650000e-06	3.471055e-06	1.024771e-09	2.415561e+01	7.002190e+01
2.660000e-06	3.507180e-06	1.030033e-09	2.440701e+01	7.049253e+01
2.670000e-06	3.543188e-06	1.035737e-09	2.465760e+01	7.095191e+01
2.680000e-06	3.579071e-06	1.043237e-09	2.490731e+01	7.140022e+01
2.690000e-06	3.614805e-06	1.054060e-09	2.515599e+01	7.183765e+01
2.700000e-06	3.650361e-06	1.063006e-09	2.540343e+01	7.226442e+01
2.710000e-06	3.685789e-06	1.066134e-09	2.564998e+01	7.268079e+01
2.720000e-06	3.721078e-06	1.064630e-09	2.589556e+01	7.308700e+01
2.730000e-06	3.756050e-06	1.064859e-09	2.613893e+01	7.348334e+01
2.740000e-06	3.790675e-06	1.068591e-09	2.637990e+01	7.387012e+01
2.750000e-06	3.824907e-06	1.075054e-09	2.661813e+01	7.424766e+01
2.760000e-06	3.858497e-06	1.084890e-09	2.685188e+01	7.461630e+01
2.770000e-06	3.891526e-06	1.094699e-09	2.708174e+01	7.497638e+01
2.780000e-06	3.924205e-06	1.101269e-09	2.730915e+01	7.532827e+01
2.790000e-06	3.956496e-06	1.105118e-09	2.753387e+01	7.567236e+01
2.800000e-06	3.988451e-06	1.109485e-09	2.775625e+01	7.600903e+01
2.810000e-06	4.020191e-06	1.113800e-09	2.797713e+01	7.633866e+01
2.820000e-06	4.051811e-06	1.119762e-09	2.819718e+01	7.666166e+01
2.830000e-06	4.083342e-06	1.127423e-09	2.841661e+01	7.697842e+01
2.840000e-06	4.114702e-06	1.134261e-09	2.863485e+01	7.728932e+01
2.850000e-06	4.145765e-06	1.142331e-09	2.885103e+01	7.759475e+01
2.860000e-06	4.176479e-06	1.150810e-09	2.906477e+01	7.789509e+01
2.870000e-06	4.206865e-06	1.157995e-09	2.927623e+01	7.819070e+01
2.880000e-06	4.236910e-06	1.161815e-09	2.948532e+01	7.848194e+01
2.890000e-06	4.266727e-06	1.166047e-09	2.969282e+01	7.876913e+01
2.900000e-06	4.296352e-06	1.171204e-09	2.989898e+01	7.905258e+01
2.910000e-06	4.325631e-06	1.176477e-09	3.010274e+01	7.933259e+01
