# Temperatura_=_-0.6
# Concentracion g/m^3_=_1620.0
# C_Vs_to_Am_M_A/Vsm_=_65563218390.804596
# pendiente_HvsI_1/m_=_3716.3
# ordenada_HvsI_A/m_=_1297.0
# frecuencia_Hz_=_135100.8152216128

Tiempo_(s)	Campo_(V.s)	Magnetizacion_(V.s)	Campo_(kA/m)	Magnetizacion_(A/m)
0.000000e+00	-5.517352e-06	-1.360029e-09	-3.837176e+01	-8.880905e+01
1.000000e-08	-5.517479e-06	-1.359391e-09	-3.837264e+01	-8.874980e+01
2.000000e-08	-5.517270e-06	-1.362252e-09	-3.837119e+01	-8.868945e+01
3.000000e-08	-5.516701e-06	-1.364589e-09	-3.836723e+01	-8.862804e+01
4.000000e-08	-5.515603e-06	-1.361270e-09	-3.835959e+01	-8.856565e+01
5.000000e-08	-5.513833e-06	-1.348965e-09	-3.834728e+01	-8.850229e+01
6.000000e-08	-5.511417e-06	-1.344753e-09	-3.833048e+01	-8.843803e+01
7.000000e-08	-5.508538e-06	-1.372615e-09	-3.831046e+01	-8.837287e+01
8.000000e-08	-5.505239e-06	-1.419902e-09	-3.828751e+01	-8.830685e+01
9.000000e-08	-5.501376e-06	-1.451341e-09	-3.826064e+01	-8.823996e+01
1.000000e-07	-5.497054e-06	-1.424228e-09	-3.823059e+01	-8.817222e+01
1.100000e-07	-5.492586e-06	-1.329793e-09	-3.819952e+01	-8.810361e+01
1.200000e-07	-5.488015e-06	-1.279402e-09	-3.816772e+01	-8.803410e+01
1.300000e-07	-5.483107e-06	-1.336146e-09	-3.813359e+01	-8.796367e+01
1.400000e-07	-5.477805e-06	-1.392295e-09	-3.809671e+01	-8.789228e+01
1.500000e-07	-5.472105e-06	-1.352294e-09	-3.805707e+01	-8.781986e+01
1.600000e-07	-5.465963e-06	-1.312036e-09	-3.801436e+01	-8.774636e+01
1.700000e-07	-5.459342e-06	-1.359179e-09	-3.796831e+01	-8.767170e+01
1.800000e-07	-5.452267e-06	-1.414504e-09	-3.791911e+01	-8.759578e+01
1.900000e-07	-5.444891e-06	-1.334749e-09	-3.786781e+01	-8.751852e+01
2.000000e-07	-5.437309e-06	-1.274107e-09	-3.781508e+01	-8.743980e+01
2.100000e-07	-5.429518e-06	-1.306785e-09	-3.776089e+01	-8.735951e+01
2.200000e-07	-5.421500e-06	-1.379403e-09	-3.770513e+01	-8.727751e+01
2.300000e-07	-5.413127e-06	-1.349657e-09	-3.764690e+01	-8.719368e+01
2.400000e-07	-5.404129e-06	-1.298910e-09	-3.758432e+01	-8.710787e+01
2.500000e-07	-5.394336e-06	-1.294465e-09	-3.751621e+01	-8.701993e+01
2.600000e-07	-5.383857e-06	-1.308423e-09	-3.744333e+01	-8.692970e+01
2.700000e-07	-5.372871e-06	-1.295739e-09	-3.736692e+01	-8.683703e+01
2.800000e-07	-5.361518e-06	-1.289852e-09	-3.728797e+01	-8.674174e+01
2.900000e-07	-5.349858e-06	-1.307556e-09	-3.720688e+01	-8.664368e+01
3.000000e-07	-5.337836e-06	-1.304135e-09	-3.712327e+01	-8.654266e+01
3.100000e-07	-5.325354e-06	-1.296351e-09	-3.703646e+01	-8.643853e+01
3.200000e-07	-5.312458e-06	-1.283801e-09	-3.694677e+01	-8.633111e+01
3.300000e-07	-5.299165e-06	-1.287587e-09	-3.685432e+01	-8.622023e+01
3.400000e-07	-5.285459e-06	-1.289007e-09	-3.675900e+01	-8.610573e+01
3.500000e-07	-5.271332e-06	-1.309775e-09	-3.666075e+01	-8.598746e+01
3.600000e-07	-5.256720e-06	-1.295809e-09	-3.655913e+01	-8.586525e+01
3.700000e-07	-5.241688e-06	-1.292398e-09	-3.645458e+01	-8.573897e+01
3.800000e-07	-5.226156e-06	-1.291761e-09	-3.634656e+01	-8.560846e+01
3.900000e-07	-5.210089e-06	-1.283971e-09	-3.623482e+01	-8.547361e+01
4.000000e-07	-5.193612e-06	-1.255793e-09	-3.612023e+01	-8.533428e+01
4.100000e-07	-5.176790e-06	-1.276789e-09	-3.600324e+01	-8.519038e+01
4.200000e-07	-5.159643e-06	-1.283470e-09	-3.588399e+01	-8.504180e+01
4.300000e-07	-5.142187e-06	-1.260651e-09	-3.576258e+01	-8.488846e+01
4.400000e-07	-5.124417e-06	-1.273990e-09	-3.563899e+01	-8.473028e+01
4.500000e-07	-5.106215e-06	-1.311479e-09	-3.551240e+01	-8.456722e+01
4.600000e-07	-5.087560e-06	-1.265863e-09	-3.538267e+01	-8.439921e+01
4.700000e-07	-5.068580e-06	-1.230576e-09	-3.525067e+01	-8.422625e+01
4.800000e-07	-5.049313e-06	-1.272027e-09	-3.511667e+01	-8.404830e+01
4.900000e-07	-5.029758e-06	-1.274981e-09	-3.498067e+01	-8.386537e+01
5.000000e-07	-5.009969e-06	-1.223923e-09	-3.484304e+01	-8.367748e+01
5.100000e-07	-4.989877e-06	-1.248011e-09	-3.470331e+01	-8.348465e+01
5.200000e-07	-4.969461e-06	-1.277180e-09	-3.456132e+01	-8.328692e+01
5.300000e-07	-4.948731e-06	-1.236623e-09	-3.441714e+01	-8.308436e+01
5.400000e-07	-4.927666e-06	-1.235732e-09	-3.427065e+01	-8.287703e+01
5.500000e-07	-4.906269e-06	-1.267481e-09	-3.412183e+01	-8.266501e+01
5.600000e-07	-4.884530e-06	-1.229431e-09	-3.397064e+01	-8.244840e+01
5.700000e-07	-4.862451e-06	-1.204972e-09	-3.381709e+01	-8.222730e+01
5.800000e-07	-4.840000e-06	-1.254220e-09	-3.366095e+01	-8.200183e+01
5.900000e-07	-4.817208e-06	-1.243793e-09	-3.350243e+01	-8.177210e+01
6.000000e-07	-4.794144e-06	-1.197259e-09	-3.334203e+01	-8.153825e+01
6.100000e-07	-4.770787e-06	-1.214417e-09	-3.317959e+01	-8.130041e+01
6.200000e-07	-4.747122e-06	-1.227243e-09	-3.301501e+01	-8.105872e+01
6.300000e-07	-4.723261e-06	-1.188325e-09	-3.284906e+01	-8.081332e+01
6.400000e-07	-4.699141e-06	-1.196286e-09	-3.268131e+01	-8.056436e+01
6.500000e-07	-4.674582e-06	-1.219641e-09	-3.251051e+01	-8.031198e+01
6.600000e-07	-4.649510e-06	-1.195245e-09	-3.233614e+01	-8.005633e+01
6.700000e-07	-4.623942e-06	-1.180731e-09	-3.215832e+01	-7.979753e+01
6.800000e-07	-4.597869e-06	-1.201327e-09	-3.197699e+01	-7.953574e+01
6.900000e-07	-4.571261e-06	-1.184633e-09	-3.179194e+01	-7.927109e+01
7.000000e-07	-4.544149e-06	-1.166585e-09	-3.160338e+01	-7.900369e+01
7.100000e-07	-4.516664e-06	-1.181993e-09	-3.141223e+01	-7.873366e+01
7.200000e-07	-4.489006e-06	-1.184532e-09	-3.121988e+01	-7.846112e+01
7.300000e-07	-4.461209e-06	-1.160696e-09	-3.102655e+01	-7.818615e+01
7.400000e-07	-4.433229e-06	-1.160751e-09	-3.083196e+01	-7.790884e+01
7.500000e-07	-4.405054e-06	-1.162446e-09	-3.063601e+01	-7.762926e+01
7.600000e-07	-4.376619e-06	-1.147256e-09	-3.043825e+01	-7.734748e+01
7.700000e-07	-4.347815e-06	-1.140802e-09	-3.023793e+01	-7.706355e+01
7.800000e-07	-4.318648e-06	-1.149090e-09	-3.003508e+01	-7.677748e+01
7.900000e-07	-4.289210e-06	-1.143455e-09	-2.983035e+01	-7.648930e+01
8.000000e-07	-4.259515e-06	-1.135289e-09	-2.962383e+01	-7.619902e+01
8.100000e-07	-4.229539e-06	-1.130605e-09	-2.941535e+01	-7.590661e+01
8.200000e-07	-4.199214e-06	-1.116339e-09	-2.920445e+01	-7.561205e+01
8.300000e-07	-4.168564e-06	-1.105487e-09	-2.899129e+01	-7.531530e+01
8.400000e-07	-4.137630e-06	-1.107923e-09	-2.877615e+01	-7.501630e+01
8.500000e-07	-4.106442e-06	-1.108336e-09	-2.855924e+01	-7.471498e+01
8.600000e-07	-4.075067e-06	-1.100268e-09	-2.834103e+01	-7.441125e+01
8.700000e-07	-4.043521e-06	-1.097765e-09	-2.812164e+01	-7.410503e+01
8.800000e-07	-4.011790e-06	-1.093010e-09	-2.790096e+01	-7.379619e+01
8.900000e-07	-3.979896e-06	-1.079557e-09	-2.767915e+01	-7.348463e+01
9.000000e-07	-3.947736e-06	-1.067695e-09	-2.745548e+01	-7.317021e+01
9.100000e-07	-3.915214e-06	-1.062323e-09	-2.722930e+01	-7.285279e+01
9.200000e-07	-3.882364e-06	-1.053213e-09	-2.700084e+01	-7.253224e+01
9.300000e-07	-3.849129e-06	-1.050852e-09	-2.676970e+01	-7.220840e+01
9.400000e-07	-3.815407e-06	-1.053426e-09	-2.653517e+01	-7.188112e+01
9.500000e-07	-3.781183e-06	-1.049845e-09	-2.629715e+01	-7.155024e+01
9.600000e-07	-3.746580e-06	-1.037878e-09	-2.605649e+01	-7.121561e+01
9.700000e-07	-3.711620e-06	-1.031834e-09	-2.581336e+01	-7.087707e+01
9.800000e-07	-3.676311e-06	-1.024646e-09	-2.556779e+01	-7.053445e+01
9.900000e-07	-3.640769e-06	-1.015447e-09	-2.532061e+01	-7.018761e+01
1.000000e-06	-3.605108e-06	-1.009245e-09	-2.507259e+01	-6.983640e+01
1.010000e-06	-3.569384e-06	-1.006716e-09	-2.482414e+01	-6.948067e+01
1.020000e-06	-3.533515e-06	-9.987767e-10	-2.457468e+01	-6.912029e+01
1.030000e-06	-3.497417e-06	-9.901520e-10	-2.432363e+01	-6.875513e+01
1.040000e-06	-3.461075e-06	-9.856251e-10	-2.407088e+01	-6.838508e+01
1.050000e-06	-3.424503e-06	-9.786283e-10	-2.381653e+01	-6.801001e+01
1.060000e-06	-3.387670e-06	-9.699865e-10	-2.356037e+01	-6.762984e+01
1.070000e-06	-3.350573e-06	-9.668179e-10	-2.330237e+01	-6.724447e+01
1.080000e-06	-3.313185e-06	-9.602219e-10	-2.304235e+01	-6.685383e+01
1.090000e-06	-3.275570e-06	-9.493096e-10	-2.278074e+01	-6.645787e+01
1.100000e-06	-3.237852e-06	-9.400232e-10	-2.251842e+01	-6.605652e+01
1.110000e-06	-3.199833e-06	-9.328714e-10	-2.225401e+01	-6.564975e+01
1.120000e-06	-3.161530e-06	-9.252700e-10	-2.198763e+01	-6.523754e+01
1.130000e-06	-3.123028e-06	-9.211033e-10	-2.171985e+01	-6.481988e+01
1.140000e-06	-3.084289e-06	-9.206330e-10	-2.145043e+01	-6.439675e+01
1.150000e-06	-3.045382e-06	-9.151186e-10	-2.117985e+01	-6.396817e+01
1.160000e-06	-3.006290e-06	-9.085350e-10	-2.090797e+01	-6.353416e+01
1.170000e-06	-2.966994e-06	-9.028443e-10	-2.063468e+01	-6.309474e+01
1.180000e-06	-2.927581e-06	-8.963496e-10	-2.036057e+01	-6.264994e+01
1.190000e-06	-2.888022e-06	-8.868122e-10	-2.008545e+01	-6.219982e+01
1.200000e-06	-2.848316e-06	-8.791792e-10	-1.980930e+01	-6.174440e+01
1.210000e-06	-2.808487e-06	-8.742642e-10	-1.953230e+01	-6.128375e+01
1.220000e-06	-2.768543e-06	-8.689109e-10	-1.925450e+01	-6.081790e+01
1.230000e-06	-2.728467e-06	-8.628595e-10	-1.897578e+01	-6.034690e+01
1.240000e-06	-2.688131e-06	-8.563724e-10	-1.869525e+01	-5.987080e+01
1.250000e-06	-2.647585e-06	-8.482393e-10	-1.841327e+01	-5.938963e+01
1.260000e-06	-2.606786e-06	-8.398963e-10	-1.812952e+01	-5.890343e+01
1.270000e-06	-2.565689e-06	-8.320165e-10	-1.784370e+01	-5.841222e+01
1.280000e-06	-2.524281e-06	-8.251972e-10	-1.755572e+01	-5.791601e+01
1.290000e-06	-2.482540e-06	-8.167804e-10	-1.726542e+01	-5.741480e+01
1.300000e-06	-2.440501e-06	-8.082626e-10	-1.697305e+01	-5.690857e+01
1.310000e-06	-2.398220e-06	-7.985750e-10	-1.667900e+01	-5.639729e+01
1.320000e-06	-2.355676e-06	-7.900975e-10	-1.638312e+01	-5.588089e+01
1.330000e-06	-2.312844e-06	-7.819938e-10	-1.608523e+01	-5.535931e+01
1.340000e-06	-2.269829e-06	-7.737173e-10	-1.578608e+01	-5.483244e+01
1.350000e-06	-2.226605e-06	-7.663969e-10	-1.548546e+01	-5.430016e+01
1.360000e-06	-2.183193e-06	-7.601371e-10	-1.518354e+01	-5.376233e+01
1.370000e-06	-2.139705e-06	-7.541299e-10	-1.488109e+01	-5.321875e+01
1.380000e-06	-2.096127e-06	-7.474406e-10	-1.457802e+01	-5.266923e+01
1.390000e-06	-2.052426e-06	-7.373320e-10	-1.427409e+01	-5.211353e+01
1.400000e-06	-2.008595e-06	-7.253475e-10	-1.396926e+01	-5.155138e+01
1.410000e-06	-1.964695e-06	-7.155771e-10	-1.366394e+01	-5.098250e+01
1.420000e-06	-1.920786e-06	-7.081182e-10	-1.335857e+01	-5.040655e+01
1.430000e-06	-1.876779e-06	-7.005000e-10	-1.305251e+01	-4.982317e+01
1.440000e-06	-1.832664e-06	-6.930068e-10	-1.274570e+01	-4.923199e+01
1.450000e-06	-1.788487e-06	-6.856407e-10	-1.243846e+01	-4.863259e+01
1.460000e-06	-1.744195e-06	-6.755310e-10	-1.213042e+01	-4.802452e+01
1.470000e-06	-1.699758e-06	-6.620008e-10	-1.182138e+01	-4.740731e+01
1.480000e-06	-1.655206e-06	-6.478523e-10	-1.151153e+01	-4.678047e+01
1.490000e-06	-1.610486e-06	-6.355004e-10	-1.120051e+01	-4.614347e+01
1.500000e-06	-1.565545e-06	-6.238467e-10	-1.088796e+01	-4.549578e+01
1.510000e-06	-1.520555e-06	-6.130366e-10	-1.057507e+01	-4.483683e+01
1.520000e-06	-1.475531e-06	-6.032595e-10	-1.026194e+01	-4.416604e+01
1.530000e-06	-1.430321e-06	-5.946328e-10	-9.947516e+00	-4.348282e+01
1.540000e-06	-1.384966e-06	-5.839557e-10	-9.632080e+00	-4.278656e+01
1.550000e-06	-1.339555e-06	-5.731825e-10	-9.316257e+00	-4.207665e+01
1.560000e-06	-1.294027e-06	-5.616495e-10	-8.999626e+00	-4.135248e+01
1.570000e-06	-1.248379e-06	-5.490631e-10	-8.682151e+00	-4.061341e+01
1.580000e-06	-1.202637e-06	-5.370302e-10	-8.364029e+00	-3.985883e+01
1.590000e-06	-1.156761e-06	-5.252220e-10	-8.044976e+00	-3.908813e+01
1.600000e-06	-1.110847e-06	-5.124688e-10	-7.725654e+00	-3.830069e+01
1.610000e-06	-1.064953e-06	-4.987763e-10	-7.406469e+00	-3.749594e+01
1.620000e-06	-1.018956e-06	-4.873779e-10	-7.086573e+00	-3.667329e+01
1.630000e-06	-9.728424e-07	-4.797882e-10	-6.765867e+00	-3.583220e+01
1.640000e-06	-9.267013e-07	-4.696983e-10	-6.444968e+00	-3.497212e+01
1.650000e-06	-8.804917e-07	-4.555862e-10	-6.123592e+00	-3.409257e+01
1.660000e-06	-8.342351e-07	-4.413796e-10	-5.801890e+00	-3.319307e+01
1.670000e-06	-7.879509e-07	-4.254402e-10	-5.479995e+00	-3.227320e+01
1.680000e-06	-7.415924e-07	-4.081127e-10	-5.157584e+00	-3.133255e+01
1.690000e-06	-6.951858e-07	-3.938157e-10	-4.834837e+00	-3.037079e+01
1.700000e-06	-6.487700e-07	-3.818653e-10	-4.512027e+00	-2.938760e+01
1.710000e-06	-6.022832e-07	-3.690992e-10	-4.188724e+00	-2.838275e+01
1.720000e-06	-5.557776e-07	-3.537726e-10	-3.865290e+00	-2.735601e+01
1.730000e-06	-5.092141e-07	-3.356868e-10	-3.541452e+00	-2.630726e+01
1.740000e-06	-4.625033e-07	-3.153689e-10	-3.216591e+00	-2.523639e+01
1.750000e-06	-4.157015e-07	-2.961883e-10	-2.891096e+00	-2.414339e+01
1.760000e-06	-3.688403e-07	-2.806998e-10	-2.565189e+00	-2.302829e+01
1.770000e-06	-3.220677e-07	-2.688270e-10	-2.239898e+00	-2.189117e+01
1.780000e-06	-2.753249e-07	-2.581512e-10	-1.914813e+00	-2.073221e+01
1.790000e-06	-2.285135e-07	-2.441934e-10	-1.589252e+00	-1.955162e+01
1.800000e-06	-1.817781e-07	-2.258763e-10	-1.264220e+00	-1.834969e+01
1.810000e-06	-1.350917e-07	-2.054531e-10	-9.395276e-01	-1.712679e+01
1.820000e-06	-8.837648e-08	-1.860222e-10	-6.146356e-01	-1.588333e+01
1.830000e-06	-4.162464e-08	-1.691302e-10	-2.894886e-01	-1.461981e+01
1.840000e-06	5.228284e-09	-1.539379e-10	3.636136e-02	-1.333676e+01
1.850000e-06	5.206020e-08	-1.387371e-10	3.620652e-01	-1.203482e+01
1.860000e-06	9.886350e-08	-1.250601e-10	6.875701e-01	-1.071465e+01
1.870000e-06	1.456789e-07	-1.095882e-10	1.013159e+00	-9.377004e+00
1.880000e-06	1.924156e-07	-9.115679e-11	1.338200e+00	-8.022665e+00
1.890000e-06	2.392144e-07	-6.961343e-11	1.663674e+00	-6.652492e+00
1.900000e-06	2.859915e-07	-4.516945e-11	1.988997e+00	-5.267389e+00
1.910000e-06	3.326868e-07	-2.197711e-11	2.313750e+00	-3.868314e+00
1.920000e-06	3.793358e-07	-2.444850e-12	2.638182e+00	-2.456270e+00
1.930000e-06	4.258491e-07	1.376006e-11	2.961670e+00	-1.032306e+00
1.940000e-06	4.724047e-07	2.898236e-11	3.285452e+00	4.024894e-01
1.950000e-06	5.189214e-07	4.487411e-11	3.608964e+00	1.846992e+00
1.960000e-06	5.652825e-07	6.433540e-11	3.931394e+00	3.300044e+00
1.970000e-06	6.116250e-07	8.576704e-11	4.253693e+00	4.760458e+00
1.980000e-06	6.580324e-07	1.077091e-10	4.576445e+00	6.227024e+00
1.990000e-06	7.044438e-07	1.309475e-10	4.899225e+00	7.698510e+00
2.000000e-06	7.507460e-07	1.518795e-10	5.221245e+00	9.173671e+00
2.010000e-06	7.969376e-07	1.722604e-10	5.542495e+00	1.065125e+01
2.020000e-06	8.430861e-07	1.927192e-10	5.863446e+00	1.212998e+01
2.030000e-06	8.891867e-07	2.112575e-10	6.184064e+00	1.360859e+01
2.040000e-06	9.352054e-07	2.277306e-10	6.504112e+00	1.508582e+01
2.050000e-06	9.811964e-07	2.452824e-10	6.823967e+00	1.656042e+01
2.060000e-06	1.027156e-06	2.642948e-10	7.143602e+00	1.803113e+01
2.070000e-06	1.073066e-06	2.856571e-10	7.462896e+00	1.949672e+01
2.080000e-06	1.118875e-06	3.100296e-10	7.781484e+00	2.095597e+01
2.090000e-06	1.164610e-06	3.360598e-10	8.099562e+00	2.240771e+01
2.100000e-06	1.210320e-06	3.605174e-10	8.417463e+00	2.385076e+01
2.110000e-06	1.255978e-06	3.787610e-10	8.735002e+00	2.528399e+01
2.120000e-06	1.301567e-06	3.942472e-10	9.052064e+00	2.670631e+01
2.130000e-06	1.347011e-06	4.110487e-10	9.368114e+00	2.811665e+01
2.140000e-06	1.392299e-06	4.306640e-10	9.683079e+00	2.951400e+01
2.150000e-06	1.437564e-06	4.518521e-10	9.997889e+00	3.089736e+01
2.160000e-06	1.482713e-06	4.736582e-10	1.031189e+01	3.226582e+01
2.170000e-06	1.527713e-06	4.943361e-10	1.062485e+01	3.361850e+01
2.180000e-06	1.572690e-06	5.140001e-10	1.093765e+01	3.495454e+01
2.190000e-06	1.617463e-06	5.319835e-10	1.124903e+01	3.627318e+01
2.200000e-06	1.662033e-06	5.478626e-10	1.155901e+01	3.757369e+01
2.210000e-06	1.706517e-06	5.625208e-10	1.186838e+01	3.885538e+01
2.220000e-06	1.750871e-06	5.797771e-10	1.217685e+01	4.011765e+01
2.230000e-06	1.795055e-06	5.985255e-10	1.248415e+01	4.135994e+01
2.240000e-06	1.839134e-06	6.138597e-10	1.279070e+01	4.258173e+01
2.250000e-06	1.883119e-06	6.288722e-10	1.309660e+01	4.378257e+01
2.260000e-06	1.926947e-06	6.449663e-10	1.340142e+01	4.496209e+01
2.270000e-06	1.970715e-06	6.638617e-10	1.370581e+01	4.611994e+01
2.280000e-06	2.014480e-06	6.812172e-10	1.401019e+01	4.725584e+01
2.290000e-06	2.058211e-06	6.985510e-10	1.431432e+01	4.836957e+01
2.300000e-06	2.101914e-06	7.155317e-10	1.461827e+01	4.946096e+01
2.310000e-06	2.145518e-06	7.303977e-10	1.492153e+01	5.052990e+01
2.320000e-06	2.188950e-06	7.440534e-10	1.522358e+01	5.157631e+01
2.330000e-06	2.232283e-06	7.569584e-10	1.552495e+01	5.260018e+01
2.340000e-06	2.275489e-06	7.718350e-10	1.582544e+01	5.360155e+01
2.350000e-06	2.318509e-06	7.891375e-10	1.612463e+01	5.458048e+01
2.360000e-06	2.361307e-06	8.065458e-10	1.642228e+01	5.553711e+01
2.370000e-06	2.403931e-06	8.192252e-10	1.671872e+01	5.647159e+01
2.380000e-06	2.446335e-06	8.299012e-10	1.701363e+01	5.738413e+01
2.390000e-06	2.488341e-06	8.409128e-10	1.730577e+01	5.827496e+01
2.400000e-06	2.530004e-06	8.520105e-10	1.759552e+01	5.914436e+01
2.410000e-06	2.571340e-06	8.629401e-10	1.788301e+01	5.999263e+01
2.420000e-06	2.612350e-06	8.766254e-10	1.816822e+01	6.082010e+01
2.430000e-06	2.653066e-06	8.936636e-10	1.845139e+01	6.162714e+01
2.440000e-06	2.693488e-06	9.074998e-10	1.873251e+01	6.241412e+01
2.450000e-06	2.733661e-06	9.165765e-10	1.901190e+01	6.318145e+01
2.460000e-06	2.773682e-06	9.273317e-10	1.929024e+01	6.392955e+01
2.470000e-06	2.813607e-06	9.394877e-10	1.956791e+01	6.465885e+01
2.480000e-06	2.853402e-06	9.502048e-10	1.984467e+01	6.536981e+01
2.490000e-06	2.893119e-06	9.581872e-10	2.012090e+01	6.606289e+01
2.500000e-06	2.932763e-06	9.648187e-10	2.039661e+01	6.673854e+01
2.510000e-06	2.972183e-06	9.744235e-10	2.067077e+01	6.739726e+01
2.520000e-06	3.011391e-06	9.859661e-10	2.094344e+01	6.803950e+01
2.530000e-06	3.050470e-06	9.957724e-10	2.121523e+01	6.866574e+01
2.540000e-06	3.089288e-06	1.005266e-09	2.148520e+01	6.927647e+01
2.550000e-06	3.127750e-06	1.013124e-09	2.175269e+01	6.987214e+01
2.560000e-06	3.166011e-06	1.018785e-09	2.201879e+01	7.045324e+01
2.570000e-06	3.204135e-06	1.024462e-09	2.228393e+01	7.102021e+01
2.580000e-06	3.242084e-06	1.031716e-09	2.254786e+01	7.157350e+01
2.590000e-06	3.279766e-06	1.040183e-09	2.280992e+01	7.211356e+01
2.600000e-06	3.317138e-06	1.049231e-09	2.306984e+01	7.264081e+01
2.610000e-06	3.354361e-06	1.056153e-09	2.332871e+01	7.315566e+01
2.620000e-06	3.391432e-06	1.060158e-09	2.358654e+01	7.365853e+01
2.630000e-06	3.428204e-06	1.063887e-09	2.384227e+01	7.414979e+01
2.640000e-06	3.464742e-06	1.070586e-09	2.409639e+01	7.462981e+01
2.650000e-06	3.501035e-06	1.078564e-09	2.434879e+01	7.509895e+01
2.660000e-06	3.537056e-06	1.084877e-09	2.459931e+01	7.555754e+01
2.670000e-06	3.572953e-06	1.091383e-09	2.484896e+01	7.600591e+01
2.680000e-06	3.608734e-06	1.099138e-09	2.509781e+01	7.644436e+01
2.690000e-06	3.644334e-06	1.106466e-09	2.534540e+01	7.687317e+01
2.700000e-06	3.679742e-06	1.112810e-09	2.559165e+01	7.729262e+01
2.710000e-06	3.715001e-06	1.118237e-09	2.583687e+01	7.770294e+01
2.720000e-06	3.750015e-06	1.122912e-09	2.608038e+01	7.810437e+01
2.730000e-06	3.784683e-06	1.128620e-09	2.632149e+01	7.849714e+01
2.740000e-06	3.819009e-06	1.134748e-09	2.656022e+01	7.888144e+01
2.750000e-06	3.852926e-06	1.140822e-09	2.679611e+01	7.925745e+01
2.760000e-06	3.886233e-06	1.146291e-09	2.702774e+01	7.962534e+01
2.770000e-06	3.918970e-06	1.151176e-09	2.725543e+01	7.998527e+01
2.780000e-06	3.951402e-06	1.155963e-09	2.748098e+01	8.033738e+01
2.790000e-06	3.983544e-06	1.161673e-09	2.770452e+01	8.068179e+01
2.800000e-06	4.015434e-06	1.168431e-09	2.792630e+01	8.101862e+01
2.810000e-06	4.047184e-06	1.176645e-09	2.814712e+01	8.134798e+01
2.820000e-06	4.078788e-06	1.183083e-09	2.836692e+01	8.166996e+01
2.830000e-06	4.110181e-06	1.187796e-09	2.858524e+01	8.198465e+01
2.840000e-06	4.141295e-06	1.191768e-09	2.880164e+01	8.229211e+01
2.850000e-06	4.172106e-06	1.196438e-09	2.901592e+01	8.259243e+01
2.860000e-06	4.202612e-06	1.200502e-09	2.922808e+01	8.288566e+01
2.870000e-06	4.232800e-06	1.203554e-09	2.943803e+01	8.317186e+01
2.880000e-06	4.262716e-06	1.208000e-09	2.964609e+01	8.345108e+01
2.890000e-06	4.292365e-06	1.215487e-09	2.985229e+01	8.372338e+01
2.900000e-06	4.321765e-06	1.224453e-09	3.005676e+01	8.398879e+01
