# Temperatura_=_15.0
# Concentracion g/m^3_=_1620.0
# C_Vs_to_Am_M_A/Vsm_=_65563218390.804596
# pendiente_HvsI_1/m_=_3716.3
# ordenada_HvsI_A/m_=_1297.0
# frecuencia_Hz_=_135102.4220177162

Tiempo_(s)	Campo_(V.s)	Magnetizacion_(V.s)	Campo_(kA/m)	Magnetizacion_(A/m)
0.000000e+00	-5.508649e-06	-1.500564e-09	-3.837437e+01	-9.754909e+01
1.000000e-08	-5.508833e-06	-1.498040e-09	-3.837565e+01	-9.755407e+01
2.000000e-08	-5.508780e-06	-1.498186e-09	-3.837529e+01	-9.755666e+01
3.000000e-08	-5.508424e-06	-1.500298e-09	-3.837281e+01	-9.755670e+01
4.000000e-08	-5.507621e-06	-1.499614e-09	-3.836721e+01	-9.755402e+01
5.000000e-08	-5.506301e-06	-1.489435e-09	-3.835802e+01	-9.754844e+01
6.000000e-08	-5.504376e-06	-1.473911e-09	-3.834460e+01	-9.753979e+01
7.000000e-08	-5.501909e-06	-1.482852e-09	-3.832742e+01	-9.752788e+01
8.000000e-08	-5.498948e-06	-1.532248e-09	-3.830679e+01	-9.751253e+01
9.000000e-08	-5.495450e-06	-1.578057e-09	-3.828243e+01	-9.749355e+01
1.000000e-07	-5.491549e-06	-1.549210e-09	-3.825525e+01	-9.747078e+01
1.100000e-07	-5.487310e-06	-1.462577e-09	-3.822572e+01	-9.744402e+01
1.200000e-07	-5.482844e-06	-1.403210e-09	-3.819461e+01	-9.741310e+01
1.300000e-07	-5.478147e-06	-1.474534e-09	-3.816189e+01	-9.737786e+01
1.400000e-07	-5.472992e-06	-1.526240e-09	-3.812597e+01	-9.733813e+01
1.500000e-07	-5.467398e-06	-1.472833e-09	-3.808701e+01	-9.729375e+01
1.600000e-07	-5.461532e-06	-1.419582e-09	-3.804614e+01	-9.724459e+01
1.700000e-07	-5.455271e-06	-1.472025e-09	-3.800253e+01	-9.719049e+01
1.800000e-07	-5.448541e-06	-1.558418e-09	-3.795565e+01	-9.713132e+01
1.900000e-07	-5.441413e-06	-1.494390e-09	-3.790599e+01	-9.706697e+01
2.000000e-07	-5.433989e-06	-1.405227e-09	-3.785427e+01	-9.699733e+01
2.100000e-07	-5.426319e-06	-1.417325e-09	-3.780084e+01	-9.692228e+01
2.200000e-07	-5.418354e-06	-1.499109e-09	-3.774536e+01	-9.684174e+01
2.300000e-07	-5.410116e-06	-1.478407e-09	-3.768797e+01	-9.675562e+01
2.400000e-07	-5.401470e-06	-1.417023e-09	-3.762774e+01	-9.666385e+01
2.500000e-07	-5.392300e-06	-1.413057e-09	-3.756386e+01	-9.656637e+01
2.600000e-07	-5.382488e-06	-1.453882e-09	-3.749551e+01	-9.646312e+01
2.700000e-07	-5.372083e-06	-1.439831e-09	-3.742303e+01	-9.635406e+01
2.800000e-07	-5.361210e-06	-1.414738e-09	-3.734728e+01	-9.623914e+01
2.900000e-07	-5.349815e-06	-1.431782e-09	-3.726790e+01	-9.611833e+01
3.000000e-07	-5.337960e-06	-1.446916e-09	-3.718532e+01	-9.599162e+01
3.100000e-07	-5.325683e-06	-1.418930e-09	-3.709979e+01	-9.585898e+01
3.200000e-07	-5.312947e-06	-1.396988e-09	-3.701107e+01	-9.572041e+01
3.300000e-07	-5.299823e-06	-1.419148e-09	-3.691965e+01	-9.557589e+01
3.400000e-07	-5.286383e-06	-1.433000e-09	-3.682602e+01	-9.542543e+01
3.500000e-07	-5.272636e-06	-1.428176e-09	-3.673026e+01	-9.526903e+01
3.600000e-07	-5.258449e-06	-1.415940e-09	-3.663143e+01	-9.510670e+01
3.700000e-07	-5.243710e-06	-1.414354e-09	-3.652875e+01	-9.493844e+01
3.800000e-07	-5.228575e-06	-1.411497e-09	-3.642332e+01	-9.476427e+01
3.900000e-07	-5.212981e-06	-1.410223e-09	-3.631469e+01	-9.458420e+01
4.000000e-07	-5.196784e-06	-1.404291e-09	-3.620186e+01	-9.439825e+01
4.100000e-07	-5.180143e-06	-1.409380e-09	-3.608593e+01	-9.420642e+01
4.200000e-07	-5.163237e-06	-1.405736e-09	-3.596816e+01	-9.400874e+01
4.300000e-07	-5.146056e-06	-1.399021e-09	-3.584847e+01	-9.380523e+01
4.400000e-07	-5.128555e-06	-1.403859e-09	-3.572656e+01	-9.359590e+01
4.500000e-07	-5.110680e-06	-1.425175e-09	-3.560204e+01	-9.338076e+01
4.600000e-07	-5.092278e-06	-1.402132e-09	-3.547385e+01	-9.315985e+01
4.700000e-07	-5.073392e-06	-1.377573e-09	-3.534228e+01	-9.293317e+01
4.800000e-07	-5.054229e-06	-1.399979e-09	-3.520879e+01	-9.270074e+01
4.900000e-07	-5.034821e-06	-1.418969e-09	-3.507359e+01	-9.246258e+01
5.000000e-07	-5.015149e-06	-1.379858e-09	-3.493655e+01	-9.221872e+01
5.100000e-07	-4.995280e-06	-1.370211e-09	-3.479814e+01	-9.196917e+01
5.200000e-07	-4.975194e-06	-1.387965e-09	-3.465821e+01	-9.171395e+01
5.300000e-07	-4.954721e-06	-1.372434e-09	-3.451560e+01	-9.145309e+01
5.400000e-07	-4.933809e-06	-1.362076e-09	-3.436992e+01	-9.118662e+01
5.500000e-07	-4.912557e-06	-1.387319e-09	-3.422187e+01	-9.091455e+01
5.600000e-07	-4.891013e-06	-1.368013e-09	-3.407179e+01	-9.063692e+01
5.700000e-07	-4.869157e-06	-1.337606e-09	-3.391954e+01	-9.035376e+01
5.800000e-07	-4.846936e-06	-1.364778e-09	-3.376474e+01	-9.006511e+01
5.900000e-07	-4.824322e-06	-1.373045e-09	-3.360721e+01	-8.977101e+01
6.000000e-07	-4.801306e-06	-1.331929e-09	-3.344688e+01	-8.947150e+01
6.100000e-07	-4.777987e-06	-1.332269e-09	-3.328443e+01	-8.916663e+01
6.200000e-07	-4.754469e-06	-1.349143e-09	-3.312060e+01	-8.885645e+01
6.300000e-07	-4.730733e-06	-1.318015e-09	-3.295525e+01	-8.854101e+01
6.400000e-07	-4.706809e-06	-1.307197e-09	-3.278859e+01	-8.822039e+01
6.500000e-07	-4.682671e-06	-1.328839e-09	-3.262044e+01	-8.789464e+01
6.600000e-07	-4.658079e-06	-1.317399e-09	-3.244913e+01	-8.756383e+01
6.700000e-07	-4.632954e-06	-1.299093e-09	-3.227410e+01	-8.722805e+01
6.800000e-07	-4.607303e-06	-1.315516e-09	-3.209541e+01	-8.688736e+01
6.900000e-07	-4.581160e-06	-1.308642e-09	-3.191330e+01	-8.654185e+01
7.000000e-07	-4.554599e-06	-1.285419e-09	-3.172827e+01	-8.619162e+01
7.100000e-07	-4.527590e-06	-1.284839e-09	-3.154011e+01	-8.583674e+01
7.200000e-07	-4.500152e-06	-1.284275e-09	-3.134897e+01	-8.547731e+01
7.300000e-07	-4.472463e-06	-1.263894e-09	-3.115609e+01	-8.511342e+01
7.400000e-07	-4.444643e-06	-1.262873e-09	-3.096229e+01	-8.474518e+01
7.500000e-07	-4.416563e-06	-1.267452e-09	-3.076668e+01	-8.437267e+01
7.600000e-07	-4.388234e-06	-1.258158e-09	-3.056933e+01	-8.399600e+01
7.700000e-07	-4.359683e-06	-1.249513e-09	-3.037044e+01	-8.361525e+01
7.800000e-07	-4.330784e-06	-1.248688e-09	-3.016913e+01	-8.323052e+01
7.900000e-07	-4.301568e-06	-1.238321e-09	-2.996560e+01	-8.284190e+01
8.000000e-07	-4.272124e-06	-1.229047e-09	-2.976049e+01	-8.244949e+01
8.100000e-07	-4.242454e-06	-1.222051e-09	-2.955380e+01	-8.205335e+01
8.200000e-07	-4.212445e-06	-1.212043e-09	-2.934475e+01	-8.165358e+01
8.300000e-07	-4.182075e-06	-1.203902e-09	-2.913319e+01	-8.125024e+01
8.400000e-07	-4.151395e-06	-1.204454e-09	-2.891947e+01	-8.084339e+01
8.500000e-07	-4.120337e-06	-1.197591e-09	-2.870310e+01	-8.043310e+01
8.600000e-07	-4.089020e-06	-1.185258e-09	-2.848495e+01	-8.001942e+01
8.700000e-07	-4.057539e-06	-1.178953e-09	-2.826564e+01	-7.960237e+01
8.800000e-07	-4.025867e-06	-1.172586e-09	-2.804501e+01	-7.918200e+01
8.900000e-07	-3.994077e-06	-1.161167e-09	-2.782355e+01	-7.875833e+01
9.000000e-07	-3.962157e-06	-1.151966e-09	-2.760120e+01	-7.833136e+01
9.100000e-07	-3.930010e-06	-1.146804e-09	-2.737725e+01	-7.790110e+01
9.200000e-07	-3.897592e-06	-1.138856e-09	-2.715142e+01	-7.746753e+01
9.300000e-07	-3.864804e-06	-1.132656e-09	-2.692301e+01	-7.703064e+01
9.400000e-07	-3.831477e-06	-1.128356e-09	-2.669085e+01	-7.659039e+01
9.500000e-07	-3.797688e-06	-1.121883e-09	-2.645547e+01	-7.614674e+01
9.600000e-07	-3.763483e-06	-1.113376e-09	-2.621719e+01	-7.569963e+01
9.700000e-07	-3.728768e-06	-1.107730e-09	-2.597535e+01	-7.524901e+01
9.800000e-07	-3.693698e-06	-1.101396e-09	-2.573105e+01	-7.479481e+01
9.900000e-07	-3.658390e-06	-1.094978e-09	-2.548509e+01	-7.433694e+01
1.000000e-06	-3.622905e-06	-1.088327e-09	-2.523789e+01	-7.387531e+01
1.010000e-06	-3.587278e-06	-1.080930e-09	-2.498971e+01	-7.340984e+01
1.020000e-06	-3.551413e-06	-1.069344e-09	-2.473986e+01	-7.294042e+01
1.030000e-06	-3.515391e-06	-1.062833e-09	-2.448893e+01	-7.246694e+01
1.040000e-06	-3.479210e-06	-1.058377e-09	-2.423689e+01	-7.198930e+01
1.050000e-06	-3.442783e-06	-1.052979e-09	-2.398313e+01	-7.150738e+01
1.060000e-06	-3.406147e-06	-1.044751e-09	-2.372791e+01	-7.102107e+01
1.070000e-06	-3.369253e-06	-1.039406e-09	-2.347090e+01	-7.053026e+01
1.080000e-06	-3.332036e-06	-1.030723e-09	-2.321164e+01	-7.003483e+01
1.090000e-06	-3.294544e-06	-1.018891e-09	-2.295047e+01	-6.953466e+01
1.100000e-06	-3.256832e-06	-1.010180e-09	-2.268775e+01	-6.902965e+01
1.110000e-06	-3.218903e-06	-1.003671e-09	-2.242353e+01	-6.851968e+01
1.120000e-06	-3.180756e-06	-9.962498e-10	-2.215780e+01	-6.800466e+01
1.130000e-06	-3.142425e-06	-9.889339e-10	-2.189077e+01	-6.748449e+01
1.140000e-06	-3.103842e-06	-9.822353e-10	-2.162200e+01	-6.695907e+01
1.150000e-06	-3.065016e-06	-9.730531e-10	-2.135153e+01	-6.642833e+01
1.160000e-06	-3.026122e-06	-9.630173e-10	-2.108058e+01	-6.589218e+01
1.170000e-06	-2.987068e-06	-9.549930e-10	-2.080852e+01	-6.535055e+01
1.180000e-06	-2.947723e-06	-9.480640e-10	-2.053444e+01	-6.480339e+01
1.190000e-06	-2.908147e-06	-9.425587e-10	-2.025874e+01	-6.425063e+01
1.200000e-06	-2.868460e-06	-9.362087e-10	-1.998228e+01	-6.369223e+01
1.210000e-06	-2.828742e-06	-9.274281e-10	-1.970559e+01	-6.312815e+01
1.220000e-06	-2.788885e-06	-9.166598e-10	-1.942794e+01	-6.255836e+01
1.230000e-06	-2.748830e-06	-9.053061e-10	-1.914891e+01	-6.198283e+01
1.240000e-06	-2.708605e-06	-8.983480e-10	-1.886870e+01	-6.140154e+01
1.250000e-06	-2.668220e-06	-8.899899e-10	-1.858736e+01	-6.081447e+01
1.260000e-06	-2.627690e-06	-8.818449e-10	-1.830502e+01	-6.022162e+01
1.270000e-06	-2.586931e-06	-8.698661e-10	-1.802109e+01	-5.962296e+01
1.280000e-06	-2.545937e-06	-8.571082e-10	-1.773552e+01	-5.901850e+01
1.290000e-06	-2.504750e-06	-8.463653e-10	-1.744860e+01	-5.840821e+01
1.300000e-06	-2.463270e-06	-8.373183e-10	-1.715964e+01	-5.779209e+01
1.310000e-06	-2.421435e-06	-8.268505e-10	-1.686821e+01	-5.717012e+01
1.320000e-06	-2.379310e-06	-8.170178e-10	-1.657476e+01	-5.654227e+01
1.330000e-06	-2.336941e-06	-8.097002e-10	-1.627961e+01	-5.590852e+01
1.340000e-06	-2.294373e-06	-8.013514e-10	-1.598307e+01	-5.526882e+01
1.350000e-06	-2.251457e-06	-7.892376e-10	-1.568411e+01	-5.462311e+01
1.360000e-06	-2.208118e-06	-7.771666e-10	-1.538220e+01	-5.397134e+01
1.370000e-06	-2.164611e-06	-7.677240e-10	-1.507912e+01	-5.331342e+01
1.380000e-06	-2.121038e-06	-7.616885e-10	-1.477559e+01	-5.264926e+01
1.390000e-06	-2.077361e-06	-7.573332e-10	-1.447132e+01	-5.197872e+01
1.400000e-06	-2.033577e-06	-7.494237e-10	-1.416631e+01	-5.130168e+01
1.410000e-06	-1.989704e-06	-7.357813e-10	-1.386068e+01	-5.061798e+01
1.420000e-06	-1.945760e-06	-7.205407e-10	-1.355456e+01	-4.992742e+01
1.430000e-06	-1.901719e-06	-7.065570e-10	-1.324776e+01	-4.922982e+01
1.440000e-06	-1.857611e-06	-6.949654e-10	-1.294049e+01	-4.852492e+01
1.450000e-06	-1.813464e-06	-6.862383e-10	-1.263296e+01	-4.781248e+01
1.460000e-06	-1.769249e-06	-6.775376e-10	-1.232495e+01	-4.709221e+01
1.470000e-06	-1.724967e-06	-6.685200e-10	-1.201647e+01	-4.636380e+01
1.480000e-06	-1.680550e-06	-6.576612e-10	-1.170705e+01	-4.562691e+01
1.490000e-06	-1.635923e-06	-6.449694e-10	-1.139618e+01	-4.488119e+01
1.500000e-06	-1.591201e-06	-6.307871e-10	-1.108463e+01	-4.412625e+01
1.510000e-06	-1.546392e-06	-6.164817e-10	-1.077248e+01	-4.336168e+01
1.520000e-06	-1.501412e-06	-6.035611e-10	-1.045914e+01	-4.258705e+01
1.530000e-06	-1.456318e-06	-5.920451e-10	-1.014501e+01	-4.180191e+01
1.540000e-06	-1.411131e-06	-5.790259e-10	-9.830228e+00	-4.100579e+01
1.550000e-06	-1.365794e-06	-5.644957e-10	-9.514401e+00	-4.019821e+01
1.560000e-06	-1.320344e-06	-5.492340e-10	-9.197789e+00	-3.937867e+01
1.570000e-06	-1.274819e-06	-5.326004e-10	-8.880647e+00	-3.854666e+01
1.580000e-06	-1.229180e-06	-5.171666e-10	-8.562717e+00	-3.770168e+01
1.590000e-06	-1.183537e-06	-5.052462e-10	-8.244758e+00	-3.684319e+01
1.600000e-06	-1.137878e-06	-4.912081e-10	-7.926691e+00	-3.597069e+01
1.610000e-06	-1.092076e-06	-4.753499e-10	-7.607622e+00	-3.508366e+01
1.620000e-06	-1.046153e-06	-4.600186e-10	-7.287717e+00	-3.418160e+01
1.630000e-06	-1.000181e-06	-4.461000e-10	-6.967463e+00	-3.326400e+01
1.640000e-06	-9.541227e-07	-4.334550e-10	-6.646614e+00	-3.233041e+01
1.650000e-06	-9.079980e-07	-4.204525e-10	-6.325299e+00	-3.138035e+01
1.660000e-06	-8.618307e-07	-4.050306e-10	-6.003689e+00	-3.041340e+01
1.670000e-06	-8.156413e-07	-3.881622e-10	-5.681923e+00	-2.942915e+01
1.680000e-06	-7.694290e-07	-3.716570e-10	-5.359999e+00	-2.842725e+01
1.690000e-06	-7.229852e-07	-3.582762e-10	-5.036462e+00	-2.740735e+01
1.700000e-06	-6.764776e-07	-3.467640e-10	-4.712481e+00	-2.636918e+01
1.710000e-06	-6.300508e-07	-3.344968e-10	-4.389062e+00	-2.531248e+01
1.720000e-06	-5.835925e-07	-3.195572e-10	-4.065424e+00	-2.423708e+01
1.730000e-06	-5.371296e-07	-3.012883e-10	-3.741754e+00	-2.314282e+01
1.740000e-06	-4.905144e-07	-2.801445e-10	-3.417024e+00	-2.202963e+01
1.750000e-06	-4.438566e-07	-2.592098e-10	-3.091995e+00	-2.089748e+01
1.760000e-06	-3.972129e-07	-2.431231e-10	-2.767066e+00	-1.974642e+01
1.770000e-06	-3.505280e-07	-2.306837e-10	-2.441849e+00	-1.857654e+01
1.780000e-06	-3.038699e-07	-2.187273e-10	-2.116819e+00	-1.738802e+01
1.790000e-06	-2.571958e-07	-2.052621e-10	-1.791678e+00	-1.618111e+01
1.800000e-06	-2.105326e-07	-1.897971e-10	-1.466613e+00	-1.495609e+01
1.810000e-06	-1.638732e-07	-1.719472e-10	-1.141574e+00	-1.371336e+01
1.820000e-06	-1.171394e-07	-1.532114e-10	-8.160169e-01	-1.245336e+01
1.830000e-06	-7.031290e-08	-1.349236e-10	-4.898140e-01	-1.117660e+01
1.840000e-06	-2.354669e-08	-1.175320e-10	-1.640311e-01	-9.883671e+00
1.850000e-06	2.311869e-08	-1.002147e-10	1.610495e-01	-8.575227e+00
1.860000e-06	6.985280e-08	-8.407477e-11	4.866088e-01	-7.251986e+00
1.870000e-06	1.166397e-07	-6.788013e-11	8.125356e-01	-5.914730e+00
1.880000e-06	1.633597e-07	-4.967200e-11	1.137997e+00	-4.564305e+00
1.890000e-06	2.100673e-07	-2.962183e-11	1.463372e+00	-3.201612e+00
1.900000e-06	2.567029e-07	-9.100000e-12	1.788245e+00	-1.827610e+00
1.910000e-06	3.032582e-07	1.153366e-11	2.112558e+00	-4.433069e-01
1.920000e-06	3.498100e-07	3.148016e-11	2.436848e+00	9.502398e-01
1.930000e-06	3.963594e-07	4.995412e-11	2.761121e+00	2.351932e+00
1.940000e-06	4.429057e-07	6.869088e-11	3.085371e+00	3.760631e+00
1.950000e-06	4.894611e-07	8.840606e-11	3.409686e+00	5.175169e+00
1.960000e-06	5.360184e-07	1.081501e-10	3.734013e+00	6.594347e+00
1.970000e-06	5.825231e-07	1.288127e-10	4.057975e+00	8.016945e+00
1.980000e-06	6.290084e-07	1.498608e-10	4.381801e+00	9.441726e+00
1.990000e-06	6.753733e-07	1.710023e-10	4.704788e+00	1.086744e+01
2.000000e-06	7.215950e-07	1.909709e-10	5.026778e+00	1.229284e+01
2.010000e-06	7.677447e-07	2.105897e-10	5.348266e+00	1.371666e+01
2.020000e-06	8.138823e-07	2.312659e-10	5.669670e+00	1.513767e+01
2.030000e-06	8.600953e-07	2.536081e-10	5.991599e+00	1.655461e+01
2.040000e-06	9.062823e-07	2.750935e-10	6.313348e+00	1.796629e+01
2.050000e-06	9.523817e-07	2.956873e-10	6.634485e+00	1.937149e+01
2.060000e-06	9.984270e-07	3.156119e-10	6.955246e+00	2.076906e+01
2.070000e-06	1.044392e-06	3.319956e-10	7.275445e+00	2.215785e+01
2.080000e-06	1.090274e-06	3.487035e-10	7.595074e+00	2.353677e+01
2.090000e-06	1.136123e-06	3.677792e-10	7.914463e+00	2.490477e+01
2.100000e-06	1.181876e-06	3.890085e-10	8.233192e+00	2.626082e+01
2.110000e-06	1.227512e-06	4.100386e-10	8.551101e+00	2.760398e+01
2.120000e-06	1.273120e-06	4.307820e-10	8.868817e+00	2.893332e+01
2.130000e-06	1.318609e-06	4.512601e-10	9.185701e+00	3.024801e+01
2.140000e-06	1.363903e-06	4.703948e-10	9.501224e+00	3.154725e+01
2.150000e-06	1.409124e-06	4.881265e-10	9.816246e+00	3.283031e+01
2.160000e-06	1.454301e-06	5.050159e-10	1.013096e+01	3.409651e+01
2.170000e-06	1.499329e-06	5.209247e-10	1.044463e+01	3.534526e+01
2.180000e-06	1.544207e-06	5.391116e-10	1.075726e+01	3.657601e+01
2.190000e-06	1.588993e-06	5.594070e-10	1.106925e+01	3.778828e+01
2.200000e-06	1.633686e-06	5.789912e-10	1.138059e+01	3.898166e+01
2.210000e-06	1.678242e-06	5.969678e-10	1.169097e+01	4.015581e+01
2.220000e-06	1.722579e-06	6.118992e-10	1.199984e+01	4.131044e+01
2.230000e-06	1.766787e-06	6.252285e-10	1.230780e+01	4.244534e+01
2.240000e-06	1.810956e-06	6.385660e-10	1.261549e+01	4.356034e+01
2.250000e-06	1.854998e-06	6.532647e-10	1.292230e+01	4.465535e+01
2.260000e-06	1.898968e-06	6.673886e-10	1.322860e+01	4.573032e+01
2.270000e-06	1.942949e-06	6.833613e-10	1.353498e+01	4.678526e+01
2.280000e-06	1.986874e-06	7.016388e-10	1.384097e+01	4.782023e+01
2.290000e-06	2.030722e-06	7.182736e-10	1.414642e+01	4.883536e+01
2.300000e-06	2.074479e-06	7.322870e-10	1.445124e+01	4.983078e+01
2.310000e-06	2.118096e-06	7.467957e-10	1.475509e+01	5.080670e+01
2.320000e-06	2.161568e-06	7.604401e-10	1.505792e+01	5.176337e+01
2.330000e-06	2.204933e-06	7.747054e-10	1.536001e+01	5.270104e+01
2.340000e-06	2.248141e-06	7.884273e-10	1.566101e+01	5.362002e+01
2.350000e-06	2.291202e-06	8.002345e-10	1.596098e+01	5.452065e+01
2.360000e-06	2.334025e-06	8.133223e-10	1.625930e+01	5.540327e+01
2.370000e-06	2.376482e-06	8.257120e-10	1.655506e+01	5.626827e+01
2.380000e-06	2.418610e-06	8.370048e-10	1.684853e+01	5.711603e+01
2.390000e-06	2.460371e-06	8.495234e-10	1.713945e+01	5.794695e+01
2.400000e-06	2.501826e-06	8.631507e-10	1.742823e+01	5.876145e+01
2.410000e-06	2.542976e-06	8.726309e-10	1.771489e+01	5.955996e+01
2.420000e-06	2.583849e-06	8.802718e-10	1.799962e+01	6.034289e+01
2.430000e-06	2.624528e-06	8.893850e-10	1.828300e+01	6.111067e+01
2.440000e-06	2.664980e-06	8.997104e-10	1.856480e+01	6.186372e+01
2.450000e-06	2.705230e-06	9.089658e-10	1.884518e+01	6.260247e+01
2.460000e-06	2.745346e-06	9.211299e-10	1.912464e+01	6.332733e+01
2.470000e-06	2.785362e-06	9.385528e-10	1.940340e+01	6.403869e+01
2.480000e-06	2.825249e-06	9.553551e-10	1.968126e+01	6.473696e+01
2.490000e-06	2.865045e-06	9.683754e-10	1.995849e+01	6.542251e+01
2.500000e-06	2.904738e-06	9.755219e-10	2.023500e+01	6.609573e+01
2.510000e-06	2.944209e-06	9.782321e-10	2.050996e+01	6.675695e+01
2.520000e-06	2.983424e-06	9.850621e-10	2.078314e+01	6.740654e+01
2.530000e-06	3.022495e-06	9.946282e-10	2.105531e+01	6.804481e+01
2.540000e-06	3.061384e-06	1.004681e-09	2.132623e+01	6.867208e+01
2.550000e-06	3.100008e-06	1.016113e-09	2.159529e+01	6.928864e+01
2.560000e-06	3.138384e-06	1.028920e-09	2.186262e+01	6.989478e+01
2.570000e-06	3.176560e-06	1.039273e-09	2.212857e+01	7.049076e+01
2.580000e-06	3.214577e-06	1.046309e-09	2.239340e+01	7.107685e+01
2.590000e-06	3.252420e-06	1.052540e-09	2.265702e+01	7.165327e+01
2.600000e-06	3.290039e-06	1.057467e-09	2.291908e+01	7.222027e+01
2.610000e-06	3.327420e-06	1.062376e-09	2.317949e+01	7.277805e+01
2.620000e-06	3.364546e-06	1.067419e-09	2.343811e+01	7.332682e+01
2.630000e-06	3.401385e-06	1.075238e-09	2.369474e+01	7.386677e+01
2.640000e-06	3.438003e-06	1.086842e-09	2.394983e+01	7.439810e+01
2.650000e-06	3.474362e-06	1.099442e-09	2.420311e+01	7.492097e+01
2.660000e-06	3.510470e-06	1.109828e-09	2.445465e+01	7.543556e+01
2.670000e-06	3.546449e-06	1.116572e-09	2.470528e+01	7.594204e+01
2.680000e-06	3.582303e-06	1.121020e-09	2.495505e+01	7.644055e+01
2.690000e-06	3.618045e-06	1.125032e-09	2.520404e+01	7.693127e+01
2.700000e-06	3.653648e-06	1.128873e-09	2.545206e+01	7.741434e+01
2.710000e-06	3.688986e-06	1.136007e-09	2.569823e+01	7.788990e+01
2.720000e-06	3.723932e-06	1.145967e-09	2.594167e+01	7.835811e+01
2.730000e-06	3.758453e-06	1.156453e-09	2.618215e+01	7.881911e+01
2.740000e-06	3.792532e-06	1.165246e-09	2.641955e+01	7.927304e+01
2.750000e-06	3.826179e-06	1.171661e-09	2.665394e+01	7.972005e+01
2.760000e-06	3.859453e-06	1.174741e-09	2.688573e+01	8.016028e+01
2.770000e-06	3.892400e-06	1.175551e-09	2.711525e+01	8.059386e+01
2.780000e-06	3.925016e-06	1.179072e-09	2.734246e+01	8.102095e+01
2.790000e-06	3.957311e-06	1.186909e-09	2.756743e+01	8.144167e+01
2.800000e-06	3.989362e-06	1.196817e-09	2.779071e+01	8.185618e+01
2.810000e-06	4.021243e-06	1.207744e-09	2.801280e+01	8.226459e+01
2.820000e-06	4.053010e-06	1.217213e-09	2.823409e+01	8.266705e+01
2.830000e-06	4.084604e-06	1.225304e-09	2.845418e+01	8.306369e+01
2.840000e-06	4.115858e-06	1.232669e-09	2.867190e+01	8.345463e+01
2.850000e-06	4.146721e-06	1.239187e-09	2.888690e+01	8.383999e+01
2.860000e-06	4.177307e-06	1.244021e-09	2.909997e+01	8.421990e+01
2.870000e-06	4.207636e-06	1.247019e-09	2.931125e+01	8.459447e+01
2.880000e-06	4.237685e-06	1.250135e-09	2.952058e+01	8.496379e+01
2.890000e-06	4.267436e-06	1.254580e-09	2.972783e+01	8.532797e+01
2.900000e-06	4.296837e-06	1.260902e-09	2.993264e+01	8.568710e+01
2.910000e-06	4.325929e-06	1.268515e-09	3.013530e+01	8.604126e+01
