# Temperatura_=_-0.69
# Concentracion g/m^3_=_1620.0
# C_Vs_to_Am_M_A/Vsm_=_65563218390.804596
# pendiente_HvsI_1/m_=_3716.3
# ordenada_HvsI_A/m_=_1297.0
# frecuencia_Hz_=_135098.8834390803

Tiempo_(s)	Campo_(V.s)	Magnetizacion_(V.s)	Campo_(kA/m)	Magnetizacion_(A/m)
0.000000e+00	-5.522620e-06	-1.451585e-09	-3.838203e+01	-9.514759e+01
1.000000e-08	-5.522832e-06	-1.448635e-09	-3.838350e+01	-9.510517e+01
2.000000e-08	-5.522763e-06	-1.449717e-09	-3.838302e+01	-9.505957e+01
3.000000e-08	-5.522308e-06	-1.452482e-09	-3.837986e+01	-9.501063e+01
4.000000e-08	-5.521425e-06	-1.449456e-09	-3.837372e+01	-9.495821e+01
5.000000e-08	-5.519937e-06	-1.436525e-09	-3.836338e+01	-9.490219e+01
6.000000e-08	-5.517787e-06	-1.432183e-09	-3.834844e+01	-9.484244e+01
7.000000e-08	-5.515112e-06	-1.474234e-09	-3.832985e+01	-9.477887e+01
8.000000e-08	-5.511889e-06	-1.510360e-09	-3.830744e+01	-9.471136e+01
9.000000e-08	-5.508104e-06	-1.500500e-09	-3.828114e+01	-9.463985e+01
1.000000e-07	-5.503954e-06	-1.468068e-09	-3.825230e+01	-9.456426e+01
1.100000e-07	-5.499618e-06	-1.457300e-09	-3.822216e+01	-9.448455e+01
1.200000e-07	-5.495088e-06	-1.437934e-09	-3.819068e+01	-9.440067e+01
1.300000e-07	-5.490161e-06	-1.442458e-09	-3.815644e+01	-9.431260e+01
1.400000e-07	-5.484745e-06	-1.423882e-09	-3.811880e+01	-9.422033e+01
1.500000e-07	-5.479038e-06	-1.461383e-09	-3.807913e+01	-9.412387e+01
1.600000e-07	-5.473000e-06	-1.445131e-09	-3.803717e+01	-9.402323e+01
1.700000e-07	-5.466539e-06	-1.468244e-09	-3.799227e+01	-9.391846e+01
1.800000e-07	-5.459698e-06	-1.450624e-09	-3.794472e+01	-9.380958e+01
1.900000e-07	-5.452557e-06	-1.431008e-09	-3.789509e+01	-9.369666e+01
2.000000e-07	-5.445142e-06	-1.382290e-09	-3.784356e+01	-9.357977e+01
2.100000e-07	-5.437399e-06	-1.397573e-09	-3.778974e+01	-9.345898e+01
2.200000e-07	-5.429343e-06	-1.428308e-09	-3.773375e+01	-9.333436e+01
2.300000e-07	-5.420956e-06	-1.417649e-09	-3.767547e+01	-9.320603e+01
2.400000e-07	-5.412134e-06	-1.389802e-09	-3.761415e+01	-9.307405e+01
2.500000e-07	-5.402692e-06	-1.372180e-09	-3.754853e+01	-9.293854e+01
2.600000e-07	-5.392589e-06	-1.382583e-09	-3.747831e+01	-9.279960e+01
2.700000e-07	-5.381904e-06	-1.358954e-09	-3.740405e+01	-9.265732e+01
2.800000e-07	-5.370697e-06	-1.379211e-09	-3.732617e+01	-9.251181e+01
2.900000e-07	-5.359049e-06	-1.385865e-09	-3.724522e+01	-9.236315e+01
3.000000e-07	-5.347106e-06	-1.393409e-09	-3.716221e+01	-9.221145e+01
3.100000e-07	-5.334815e-06	-1.350003e-09	-3.707679e+01	-9.205680e+01
3.200000e-07	-5.322071e-06	-1.374941e-09	-3.698822e+01	-9.189926e+01
3.300000e-07	-5.308856e-06	-1.355554e-09	-3.689637e+01	-9.173893e+01
3.400000e-07	-5.295204e-06	-1.354723e-09	-3.680149e+01	-9.157586e+01
3.500000e-07	-5.281078e-06	-1.347738e-09	-3.670332e+01	-9.141011e+01
3.600000e-07	-5.266489e-06	-1.378746e-09	-3.660192e+01	-9.124173e+01
3.700000e-07	-5.251574e-06	-1.350012e-09	-3.649827e+01	-9.107076e+01
3.800000e-07	-5.236193e-06	-1.363160e-09	-3.639137e+01	-9.089721e+01
3.900000e-07	-5.220268e-06	-1.366429e-09	-3.628069e+01	-9.072110e+01
4.000000e-07	-5.203871e-06	-1.338757e-09	-3.616673e+01	-9.054243e+01
4.100000e-07	-5.187117e-06	-1.315656e-09	-3.605029e+01	-9.036120e+01
4.200000e-07	-5.170098e-06	-1.363070e-09	-3.593201e+01	-9.017738e+01
4.300000e-07	-5.152739e-06	-1.363707e-09	-3.581137e+01	-8.999094e+01
4.400000e-07	-5.135007e-06	-1.331897e-09	-3.568813e+01	-8.980183e+01
4.500000e-07	-5.117009e-06	-1.356380e-09	-3.556304e+01	-8.961001e+01
4.600000e-07	-5.098670e-06	-1.370109e-09	-3.543559e+01	-8.941541e+01
4.700000e-07	-5.079867e-06	-1.321661e-09	-3.530491e+01	-8.921797e+01
4.800000e-07	-5.060656e-06	-1.323522e-09	-3.517139e+01	-8.901760e+01
4.900000e-07	-5.041125e-06	-1.367999e-09	-3.503565e+01	-8.881422e+01
5.000000e-07	-5.021363e-06	-1.331363e-09	-3.489830e+01	-8.860774e+01
5.100000e-07	-5.001357e-06	-1.309077e-09	-3.475927e+01	-8.839807e+01
5.200000e-07	-4.981101e-06	-1.346497e-09	-3.461849e+01	-8.818512e+01
5.300000e-07	-4.960488e-06	-1.344328e-09	-3.447523e+01	-8.796878e+01
5.400000e-07	-4.939503e-06	-1.299457e-09	-3.432938e+01	-8.774897e+01
5.500000e-07	-4.918179e-06	-1.324645e-09	-3.418118e+01	-8.752558e+01
5.600000e-07	-4.896468e-06	-1.327843e-09	-3.403029e+01	-8.729853e+01
5.700000e-07	-4.874399e-06	-1.299364e-09	-3.387691e+01	-8.706771e+01
5.800000e-07	-4.852054e-06	-1.307977e-09	-3.372162e+01	-8.683305e+01
5.900000e-07	-4.829406e-06	-1.337320e-09	-3.356421e+01	-8.659446e+01
6.000000e-07	-4.806386e-06	-1.298607e-09	-3.340422e+01	-8.635188e+01
6.100000e-07	-4.783103e-06	-1.285539e-09	-3.324241e+01	-8.610523e+01
6.200000e-07	-4.759548e-06	-1.292620e-09	-3.307870e+01	-8.585446e+01
6.300000e-07	-4.735717e-06	-1.279029e-09	-3.291307e+01	-8.559951e+01
6.400000e-07	-4.711675e-06	-1.263485e-09	-3.274598e+01	-8.534035e+01
6.500000e-07	-4.687276e-06	-1.290230e-09	-3.257641e+01	-8.507694e+01
6.600000e-07	-4.662428e-06	-1.286221e-09	-3.240372e+01	-8.480926e+01
6.700000e-07	-4.637090e-06	-1.274623e-09	-3.222762e+01	-8.453731e+01
6.800000e-07	-4.611154e-06	-1.276560e-09	-3.204737e+01	-8.426107e+01
6.900000e-07	-4.584591e-06	-1.275675e-09	-3.186276e+01	-8.398055e+01
7.000000e-07	-4.557590e-06	-1.254154e-09	-3.167510e+01	-8.369577e+01
7.100000e-07	-4.530330e-06	-1.255545e-09	-3.148565e+01	-8.340675e+01
7.200000e-07	-4.502786e-06	-1.257051e-09	-3.129421e+01	-8.311353e+01
7.300000e-07	-4.475074e-06	-1.247542e-09	-3.110162e+01	-8.281614e+01
7.400000e-07	-4.447164e-06	-1.241963e-09	-3.090764e+01	-8.251462e+01
7.500000e-07	-4.418952e-06	-1.241936e-09	-3.071157e+01	-8.220903e+01
7.600000e-07	-4.390473e-06	-1.232337e-09	-3.051365e+01	-8.189942e+01
7.700000e-07	-4.361759e-06	-1.221791e-09	-3.031408e+01	-8.158584e+01
7.800000e-07	-4.332754e-06	-1.219637e-09	-3.011250e+01	-8.126836e+01
7.900000e-07	-4.303378e-06	-1.210899e-09	-2.990833e+01	-8.094704e+01
8.000000e-07	-4.273742e-06	-1.200650e-09	-2.970237e+01	-8.062193e+01
8.100000e-07	-4.243772e-06	-1.193409e-09	-2.949407e+01	-8.029310e+01
8.200000e-07	-4.213490e-06	-1.191461e-09	-2.928361e+01	-7.996059e+01
8.300000e-07	-4.183017e-06	-1.180713e-09	-2.907183e+01	-7.962446e+01
8.400000e-07	-4.152318e-06	-1.177775e-09	-2.885847e+01	-7.928477e+01
8.500000e-07	-4.121294e-06	-1.172836e-09	-2.864286e+01	-7.894154e+01
8.600000e-07	-4.089949e-06	-1.167881e-09	-2.842501e+01	-7.859481e+01
8.700000e-07	-4.058403e-06	-1.158710e-09	-2.820577e+01	-7.824462e+01
8.800000e-07	-4.026760e-06	-1.156740e-09	-2.798585e+01	-7.789097e+01
8.900000e-07	-3.994956e-06	-1.145011e-09	-2.776482e+01	-7.753389e+01
9.000000e-07	-3.962814e-06	-1.135225e-09	-2.754142e+01	-7.717337e+01
9.100000e-07	-3.930361e-06	-1.128525e-09	-2.731588e+01	-7.680940e+01
9.200000e-07	-3.897616e-06	-1.124683e-09	-2.708831e+01	-7.644197e+01
9.300000e-07	-3.864522e-06	-1.115761e-09	-2.685830e+01	-7.607104e+01
9.400000e-07	-3.831008e-06	-1.115453e-09	-2.662538e+01	-7.569659e+01
9.500000e-07	-3.796958e-06	-1.111406e-09	-2.638873e+01	-7.531856e+01
9.600000e-07	-3.762437e-06	-1.102625e-09	-2.614881e+01	-7.493691e+01
9.700000e-07	-3.727595e-06	-1.091655e-09	-2.590666e+01	-7.455156e+01
9.800000e-07	-3.692437e-06	-1.087749e-09	-2.566232e+01	-7.416245e+01
9.900000e-07	-3.657017e-06	-1.081603e-09	-2.541615e+01	-7.376949e+01
1.000000e-06	-3.621435e-06	-1.075666e-09	-2.516885e+01	-7.337261e+01
1.010000e-06	-3.585688e-06	-1.069832e-09	-2.492041e+01	-7.297171e+01
1.020000e-06	-3.549699e-06	-1.066010e-09	-2.467029e+01	-7.256669e+01
1.030000e-06	-3.513538e-06	-1.059181e-09	-2.441897e+01	-7.215747e+01
1.040000e-06	-3.477289e-06	-1.052819e-09	-2.416704e+01	-7.174394e+01
1.050000e-06	-3.440789e-06	-1.046503e-09	-2.391337e+01	-7.132600e+01
1.060000e-06	-3.404049e-06	-1.036182e-09	-2.365803e+01	-7.090354e+01
1.070000e-06	-3.367084e-06	-1.028258e-09	-2.340112e+01	-7.047649e+01
1.080000e-06	-3.329759e-06	-1.021678e-09	-2.314171e+01	-7.004472e+01
1.090000e-06	-3.292162e-06	-1.015048e-09	-2.288042e+01	-6.960816e+01
1.100000e-06	-3.254328e-06	-1.006955e-09	-2.261747e+01	-6.916671e+01
1.110000e-06	-3.216269e-06	-1.000584e-09	-2.235297e+01	-6.872029e+01
1.120000e-06	-3.178022e-06	-9.912367e-10	-2.208715e+01	-6.826882e+01
1.130000e-06	-3.139521e-06	-9.825554e-10	-2.181957e+01	-6.781223e+01
1.140000e-06	-3.100787e-06	-9.733133e-10	-2.155037e+01	-6.735046e+01
1.150000e-06	-3.061886e-06	-9.664569e-10	-2.128000e+01	-6.688345e+01
1.160000e-06	-3.022811e-06	-9.603410e-10	-2.100844e+01	-6.641115e+01
1.170000e-06	-2.983520e-06	-9.579366e-10	-2.073537e+01	-6.593352e+01
1.180000e-06	-2.944029e-06	-9.542856e-10	-2.046090e+01	-6.545053e+01
1.190000e-06	-2.904385e-06	-9.489911e-10	-2.018538e+01	-6.496215e+01
1.200000e-06	-2.864654e-06	-9.389461e-10	-1.990925e+01	-6.446836e+01
1.210000e-06	-2.824800e-06	-9.304612e-10	-1.963226e+01	-6.396915e+01
1.220000e-06	-2.784803e-06	-9.200743e-10	-1.935429e+01	-6.346451e+01
1.230000e-06	-2.744660e-06	-9.129483e-10	-1.907529e+01	-6.295443e+01
1.240000e-06	-2.704247e-06	-9.056257e-10	-1.879443e+01	-6.243891e+01
1.250000e-06	-2.663629e-06	-8.993539e-10	-1.851213e+01	-6.191796e+01
1.260000e-06	-2.622743e-06	-8.927390e-10	-1.822797e+01	-6.139156e+01
1.270000e-06	-2.581675e-06	-8.838315e-10	-1.794255e+01	-6.085971e+01
1.280000e-06	-2.540403e-06	-8.747045e-10	-1.765571e+01	-6.032241e+01
1.290000e-06	-2.498805e-06	-8.665600e-10	-1.736661e+01	-5.977964e+01
1.300000e-06	-2.456938e-06	-8.552084e-10	-1.707564e+01	-5.923139e+01
1.310000e-06	-2.414763e-06	-8.403983e-10	-1.678252e+01	-5.867760e+01
1.320000e-06	-2.372291e-06	-8.262159e-10	-1.648734e+01	-5.811826e+01
1.330000e-06	-2.329568e-06	-8.161897e-10	-1.619042e+01	-5.755329e+01
1.340000e-06	-2.286612e-06	-8.081193e-10	-1.589188e+01	-5.698261e+01
1.350000e-06	-2.243384e-06	-8.017904e-10	-1.559144e+01	-5.640615e+01
1.360000e-06	-2.199912e-06	-7.949985e-10	-1.528932e+01	-5.582377e+01
1.370000e-06	-2.156318e-06	-7.876191e-10	-1.498634e+01	-5.523536e+01
1.380000e-06	-2.112705e-06	-7.794398e-10	-1.468323e+01	-5.464074e+01
1.390000e-06	-2.069021e-06	-7.684205e-10	-1.437962e+01	-5.403973e+01
1.400000e-06	-2.025231e-06	-7.565018e-10	-1.407529e+01	-5.343212e+01
1.410000e-06	-1.981364e-06	-7.448072e-10	-1.377041e+01	-5.281767e+01
1.420000e-06	-1.937352e-06	-7.354865e-10	-1.346453e+01	-5.219610e+01
1.430000e-06	-1.893192e-06	-7.279717e-10	-1.315762e+01	-5.156713e+01
1.440000e-06	-1.849015e-06	-7.202576e-10	-1.285059e+01	-5.093042e+01
1.450000e-06	-1.804716e-06	-7.109714e-10	-1.254272e+01	-5.028561e+01
1.460000e-06	-1.760248e-06	-7.012899e-10	-1.223367e+01	-4.963231e+01
1.470000e-06	-1.715712e-06	-6.883589e-10	-1.192415e+01	-4.897010e+01
1.480000e-06	-1.671061e-06	-6.738992e-10	-1.161382e+01	-4.829853e+01
1.490000e-06	-1.626288e-06	-6.589783e-10	-1.130265e+01	-4.761713e+01
1.500000e-06	-1.581457e-06	-6.472057e-10	-1.099107e+01	-4.692539e+01
1.510000e-06	-1.536463e-06	-6.375767e-10	-1.067837e+01	-4.622280e+01
1.520000e-06	-1.491355e-06	-6.276632e-10	-1.036487e+01	-4.550879e+01
1.530000e-06	-1.446266e-06	-6.135769e-10	-1.005150e+01	-4.478280e+01
1.540000e-06	-1.400981e-06	-5.976253e-10	-9.736770e+00	-4.404425e+01
1.550000e-06	-1.355535e-06	-5.808543e-10	-9.420922e+00	-4.329253e+01
1.560000e-06	-1.310045e-06	-5.668448e-10	-9.104767e+00	-4.252704e+01
1.570000e-06	-1.264445e-06	-5.527363e-10	-8.787849e+00	-4.174714e+01
1.580000e-06	-1.218758e-06	-5.410836e-10	-8.470325e+00	-4.095223e+01
1.590000e-06	-1.172987e-06	-5.320966e-10	-8.152223e+00	-4.014168e+01
1.600000e-06	-1.127180e-06	-5.222673e-10	-7.833865e+00	-3.931488e+01
1.610000e-06	-1.081283e-06	-5.087838e-10	-7.514879e+00	-3.847120e+01
1.620000e-06	-1.035198e-06	-4.952427e-10	-7.194592e+00	-3.761006e+01
1.630000e-06	-9.890765e-07	-4.834430e-10	-6.874049e+00	-3.673088e+01
1.640000e-06	-9.429293e-07	-4.721435e-10	-6.553327e+00	-3.583310e+01
1.650000e-06	-8.966236e-07	-4.604492e-10	-6.231504e+00	-3.491619e+01
1.660000e-06	-8.502628e-07	-4.464365e-10	-5.909298e+00	-3.397965e+01
1.670000e-06	-8.039000e-07	-4.312900e-10	-5.587079e+00	-3.302302e+01
1.680000e-06	-7.575451e-07	-4.147279e-10	-5.264913e+00	-3.204587e+01
1.690000e-06	-7.111542e-07	-3.990023e-10	-4.942499e+00	-3.104782e+01
1.700000e-06	-6.646370e-07	-3.839471e-10	-4.619205e+00	-3.002854e+01
1.710000e-06	-6.180618e-07	-3.709397e-10	-4.295509e+00	-2.898774e+01
1.720000e-06	-5.714590e-07	-3.556261e-10	-3.971621e+00	-2.792518e+01
1.730000e-06	-5.248470e-07	-3.359960e-10	-3.647669e+00	-2.684071e+01
1.740000e-06	-4.782251e-07	-3.142689e-10	-3.323649e+00	-2.573421e+01
1.750000e-06	-4.315419e-07	-2.948629e-10	-2.999202e+00	-2.460563e+01
1.760000e-06	-3.847488e-07	-2.792988e-10	-2.673991e+00	-2.345498e+01
1.770000e-06	-3.379461e-07	-2.665807e-10	-2.348714e+00	-2.228235e+01
1.780000e-06	-2.910696e-07	-2.542002e-10	-2.022924e+00	-2.108789e+01
1.790000e-06	-2.441337e-07	-2.400070e-10	-1.696721e+00	-1.987183e+01
1.800000e-06	-1.973022e-07	-2.217441e-10	-1.371244e+00	-1.863444e+01
1.810000e-06	-1.504716e-07	-2.020258e-10	-1.045773e+00	-1.737610e+01
1.820000e-06	-1.036860e-07	-1.827279e-10	-7.206143e-01	-1.609722e+01
1.830000e-06	-5.689325e-08	-1.659547e-10	-3.954062e-01	-1.479831e+01
1.840000e-06	-1.003126e-08	-1.505131e-10	-6.971691e-02	-1.347994e+01
1.850000e-06	3.683050e-08	-1.350930e-10	2.559708e-01	-1.214272e+01
1.860000e-06	8.370242e-08	-1.207444e-10	5.817291e-01	-1.078736e+01
1.870000e-06	1.305603e-07	-1.038461e-10	9.073899e-01	-9.414617e+00
1.880000e-06	1.774547e-07	-8.314810e-11	1.233304e+00	-8.025301e+00
1.890000e-06	2.243192e-07	-6.085282e-11	1.559011e+00	-6.620283e+00
1.900000e-06	2.711642e-07	-3.869037e-11	1.884582e+00	-5.200488e+00
1.910000e-06	3.180477e-07	-1.844128e-11	2.210421e+00	-3.766887e+00
1.920000e-06	3.649440e-07	-1.793115e-13	2.536349e+00	-2.320498e+00
1.930000e-06	4.118085e-07	1.674680e-11	2.862056e+00	-8.623773e-01
1.940000e-06	4.586123e-07	3.565634e-11	3.187341e+00	6.063809e-01
1.950000e-06	5.053153e-07	5.471511e-11	3.511925e+00	2.084651e+00
1.960000e-06	5.518789e-07	7.297138e-11	3.835540e+00	3.571282e+00
1.970000e-06	5.984055e-07	9.173934e-11	4.158898e+00	5.065097e+00
1.980000e-06	6.448632e-07	1.100521e-10	4.481778e+00	6.564904e+00
1.990000e-06	6.912157e-07	1.317228e-10	4.803927e+00	8.069499e+00
2.000000e-06	7.374965e-07	1.525060e-10	5.125576e+00	9.577669e+00
2.010000e-06	7.837405e-07	1.728735e-10	5.446970e+00	1.108820e+01
2.020000e-06	8.300358e-07	1.941013e-10	5.768721e+00	1.259987e+01
2.030000e-06	8.763670e-07	2.160859e-10	6.090722e+00	1.411147e+01
2.040000e-06	9.225919e-07	2.372139e-10	6.411983e+00	1.562181e+01
2.050000e-06	9.687202e-07	2.586740e-10	6.732573e+00	1.712971e+01
2.060000e-06	1.014796e-06	2.798240e-10	7.052796e+00	1.863399e+01
2.070000e-06	1.060746e-06	3.011881e-10	7.372151e+00	2.013351e+01
2.080000e-06	1.106625e-06	3.234893e-10	7.691007e+00	2.162716e+01
2.090000e-06	1.152486e-06	3.455040e-10	8.009738e+00	2.311385e+01
2.100000e-06	1.198296e-06	3.684442e-10	8.328117e+00	2.459253e+01
2.110000e-06	1.244051e-06	3.896439e-10	8.646110e+00	2.606217e+01
2.120000e-06	1.289670e-06	4.097144e-10	8.963167e+00	2.752179e+01
2.130000e-06	1.335114e-06	4.307812e-10	9.278996e+00	2.897045e+01
2.140000e-06	1.380438e-06	4.514848e-10	9.594000e+00	3.040725e+01
2.150000e-06	1.425655e-06	4.712593e-10	9.908252e+00	3.183132e+01
2.160000e-06	1.470866e-06	4.915071e-10	1.022247e+01	3.324185e+01
2.170000e-06	1.516005e-06	5.115229e-10	1.053619e+01	3.463807e+01
2.180000e-06	1.560998e-06	5.332046e-10	1.084889e+01	3.601925e+01
2.190000e-06	1.605860e-06	5.525163e-10	1.116067e+01	3.738471e+01
2.200000e-06	1.650541e-06	5.705685e-10	1.147120e+01	3.873383e+01
2.210000e-06	1.695140e-06	5.888295e-10	1.178117e+01	4.006600e+01
2.220000e-06	1.739626e-06	6.061949e-10	1.209034e+01	4.138068e+01
2.230000e-06	1.783888e-06	6.244306e-10	1.239796e+01	4.267738e+01
2.240000e-06	1.827993e-06	6.404449e-10	1.270449e+01	4.395563e+01
2.250000e-06	1.872041e-06	6.556067e-10	1.301062e+01	4.521503e+01
2.260000e-06	1.916022e-06	6.703492e-10	1.331629e+01	4.645520e+01
2.270000e-06	1.959891e-06	6.911902e-10	1.362118e+01	4.767580e+01
2.280000e-06	2.003701e-06	7.140150e-10	1.392565e+01	4.887655e+01
2.290000e-06	2.047482e-06	7.338469e-10	1.422993e+01	5.005717e+01
2.300000e-06	2.091191e-06	7.499281e-10	1.453371e+01	5.121746e+01
2.310000e-06	2.134847e-06	7.630165e-10	1.483711e+01	5.235722e+01
2.320000e-06	2.178452e-06	7.770632e-10	1.514017e+01	5.347630e+01
2.330000e-06	2.221972e-06	7.911731e-10	1.544263e+01	5.457456e+01
2.340000e-06	2.265294e-06	8.073447e-10	1.574372e+01	5.565192e+01
2.350000e-06	2.308472e-06	8.257686e-10	1.604380e+01	5.670830e+01
2.360000e-06	2.351497e-06	8.451975e-10	1.634282e+01	5.774367e+01
2.370000e-06	2.394137e-06	8.618666e-10	1.663917e+01	5.875799e+01
2.380000e-06	2.436445e-06	8.724698e-10	1.693321e+01	5.975129e+01
2.390000e-06	2.478508e-06	8.824287e-10	1.722555e+01	6.072358e+01
2.400000e-06	2.520246e-06	8.926377e-10	1.751563e+01	6.167493e+01
2.410000e-06	2.561588e-06	8.998210e-10	1.780295e+01	6.260538e+01
2.420000e-06	2.602594e-06	9.083900e-10	1.808794e+01	6.351504e+01
2.430000e-06	2.643441e-06	9.219936e-10	1.837183e+01	6.440402e+01
2.440000e-06	2.684115e-06	9.392835e-10	1.865451e+01	6.527243e+01
2.450000e-06	2.724517e-06	9.532082e-10	1.893530e+01	6.612042e+01
2.460000e-06	2.764676e-06	9.660344e-10	1.921441e+01	6.694816e+01
2.470000e-06	2.804665e-06	9.772082e-10	1.949233e+01	6.775581e+01
2.480000e-06	2.844500e-06	9.857162e-10	1.976918e+01	6.854357e+01
2.490000e-06	2.884192e-06	9.926883e-10	2.004504e+01	6.931165e+01
2.500000e-06	2.923796e-06	1.000183e-09	2.032029e+01	7.006027e+01
2.510000e-06	2.963309e-06	1.009812e-09	2.059490e+01	7.078968e+01
2.520000e-06	3.002676e-06	1.023214e-09	2.086850e+01	7.150013e+01
2.530000e-06	3.041819e-06	1.037838e-09	2.114054e+01	7.219189e+01
2.540000e-06	3.080717e-06	1.050274e-09	2.141088e+01	7.286525e+01
2.550000e-06	3.119392e-06	1.060721e-09	2.167967e+01	7.352051e+01
2.560000e-06	3.157813e-06	1.067956e-09	2.194670e+01	7.415800e+01
2.570000e-06	3.196021e-06	1.071371e-09	2.221224e+01	7.477803e+01
2.580000e-06	3.234066e-06	1.074671e-09	2.247665e+01	7.538097e+01
2.590000e-06	3.271878e-06	1.078214e-09	2.273945e+01	7.596717e+01
2.600000e-06	3.309417e-06	1.087305e-09	2.300034e+01	7.653700e+01
2.610000e-06	3.346832e-06	1.099777e-09	2.326037e+01	7.709087e+01
2.620000e-06	3.384066e-06	1.109924e-09	2.351914e+01	7.762917e+01
2.630000e-06	3.420905e-06	1.117485e-09	2.377517e+01	7.815232e+01
2.640000e-06	3.457412e-06	1.121575e-09	2.402890e+01	7.866075e+01
2.650000e-06	3.493712e-06	1.126044e-09	2.428118e+01	7.915489e+01
2.660000e-06	3.529833e-06	1.129151e-09	2.453222e+01	7.963519e+01
2.670000e-06	3.565761e-06	1.130725e-09	2.478192e+01	8.010211e+01
2.680000e-06	3.601562e-06	1.134499e-09	2.503074e+01	8.055610e+01
2.690000e-06	3.637257e-06	1.142792e-09	2.527882e+01	8.099765e+01
2.700000e-06	3.672811e-06	1.153217e-09	2.552591e+01	8.142722e+01
2.710000e-06	3.708180e-06	1.163454e-09	2.577173e+01	8.184528e+01
2.720000e-06	3.743312e-06	1.172841e-09	2.601590e+01	8.225232e+01
2.730000e-06	3.778056e-06	1.180188e-09	2.625736e+01	8.264880e+01
2.740000e-06	3.812329e-06	1.183943e-09	2.649556e+01	8.303520e+01
2.750000e-06	3.846138e-06	1.185958e-09	2.673053e+01	8.341199e+01
2.760000e-06	3.879400e-06	1.189232e-09	2.696170e+01	8.377962e+01
2.770000e-06	3.912210e-06	1.195166e-09	2.718973e+01	8.413854e+01
2.780000e-06	3.944705e-06	1.203418e-09	2.741557e+01	8.448920e+01
2.790000e-06	3.976934e-06	1.213903e-09	2.763956e+01	8.483203e+01
2.800000e-06	4.008915e-06	1.223522e-09	2.786183e+01	8.516742e+01
2.810000e-06	4.040715e-06	1.231394e-09	2.808284e+01	8.549579e+01
2.820000e-06	4.072358e-06	1.236251e-09	2.830276e+01	8.581750e+01
2.830000e-06	4.103836e-06	1.240883e-09	2.852153e+01	8.613292e+01
2.840000e-06	4.135109e-06	1.246716e-09	2.873887e+01	8.644238e+01
2.850000e-06	4.166106e-06	1.255235e-09	2.895430e+01	8.674619e+01
2.860000e-06	4.196801e-06	1.263928e-09	2.916763e+01	8.704464e+01
2.870000e-06	4.227171e-06	1.269560e-09	2.937870e+01	8.733799e+01
2.880000e-06	4.257188e-06	1.272945e-09	2.958732e+01	8.762648e+01
2.890000e-06	4.286880e-06	1.274990e-09	2.979367e+01	8.791032e+01
2.900000e-06	4.316321e-06	1.278352e-09	2.999829e+01	8.818968e+01
