# Temperatura_=_-0.5
# Concentracion g/m^3_=_1620.0
# C_Vs_to_Am_M_A/Vsm_=_65563218390.804596
# pendiente_HvsI_1/m_=_3716.3
# ordenada_HvsI_A/m_=_1297.0
# frecuencia_Hz_=_135093.31095795622

Tiempo_(s)	Campo_(V.s)	Magnetizacion_(V.s)	Campo_(kA/m)	Magnetizacion_(A/m)
0.000000e+00	-5.524238e-06	-1.289914e-09	-3.837112e+01	-8.640562e+01
1.000000e-08	-5.524418e-06	-1.286761e-09	-3.837237e+01	-8.636197e+01
2.000000e-08	-5.524287e-06	-1.286674e-09	-3.837147e+01	-8.632166e+01
3.000000e-08	-5.523837e-06	-1.286302e-09	-3.836834e+01	-8.628466e+01
4.000000e-08	-5.522932e-06	-1.283041e-09	-3.836205e+01	-8.625093e+01
5.000000e-08	-5.521311e-06	-1.270469e-09	-3.835080e+01	-8.622034e+01
6.000000e-08	-5.519132e-06	-1.255319e-09	-3.833566e+01	-8.619277e+01
7.000000e-08	-5.516438e-06	-1.277581e-09	-3.831694e+01	-8.616800e+01
8.000000e-08	-5.513205e-06	-1.342969e-09	-3.829449e+01	-8.614581e+01
9.000000e-08	-5.509429e-06	-1.367141e-09	-3.826826e+01	-8.612593e+01
1.000000e-07	-5.505232e-06	-1.308681e-09	-3.823911e+01	-8.610805e+01
1.100000e-07	-5.500914e-06	-1.313299e-09	-3.820911e+01	-8.609181e+01
1.200000e-07	-5.496434e-06	-1.250732e-09	-3.817800e+01	-8.607686e+01
1.300000e-07	-5.491660e-06	-1.289923e-09	-3.814484e+01	-8.606277e+01
1.400000e-07	-5.486525e-06	-1.265365e-09	-3.810917e+01	-8.604912e+01
1.500000e-07	-5.481001e-06	-1.280458e-09	-3.807080e+01	-8.603545e+01
1.600000e-07	-5.475024e-06	-1.279339e-09	-3.802929e+01	-8.602129e+01
1.700000e-07	-5.468589e-06	-1.264819e-09	-3.798459e+01	-8.600616e+01
1.800000e-07	-5.461737e-06	-1.339135e-09	-3.793699e+01	-8.598955e+01
1.900000e-07	-5.454512e-06	-1.306272e-09	-3.788681e+01	-8.597095e+01
2.000000e-07	-5.446995e-06	-1.304090e-09	-3.783459e+01	-8.594986e+01
2.100000e-07	-5.439223e-06	-1.258340e-09	-3.778062e+01	-8.592576e+01
2.200000e-07	-5.431240e-06	-1.343386e-09	-3.772516e+01	-8.589816e+01
2.300000e-07	-5.422950e-06	-1.324414e-09	-3.766758e+01	-8.586654e+01
2.400000e-07	-5.414195e-06	-1.340322e-09	-3.760677e+01	-8.583044e+01
2.500000e-07	-5.404794e-06	-1.299626e-09	-3.754147e+01	-8.578938e+01
2.600000e-07	-5.394723e-06	-1.340222e-09	-3.747152e+01	-8.574291e+01
2.700000e-07	-5.384011e-06	-1.304518e-09	-3.739711e+01	-8.569060e+01
2.800000e-07	-5.372806e-06	-1.307536e-09	-3.731928e+01	-8.563205e+01
2.900000e-07	-5.361258e-06	-1.306586e-09	-3.723907e+01	-8.556688e+01
3.000000e-07	-5.349295e-06	-1.315084e-09	-3.715598e+01	-8.549475e+01
3.100000e-07	-5.336898e-06	-1.296093e-09	-3.706987e+01	-8.541535e+01
3.200000e-07	-5.324156e-06	-1.303953e-09	-3.698136e+01	-8.532841e+01
3.300000e-07	-5.311019e-06	-1.319695e-09	-3.689012e+01	-8.523367e+01
3.400000e-07	-5.297434e-06	-1.291735e-09	-3.679575e+01	-8.513094e+01
3.500000e-07	-5.283394e-06	-1.300007e-09	-3.669823e+01	-8.502004e+01
3.600000e-07	-5.269057e-06	-1.311800e-09	-3.659865e+01	-8.490086e+01
3.700000e-07	-5.254262e-06	-1.290177e-09	-3.649588e+01	-8.477330e+01
3.800000e-07	-5.238809e-06	-1.266366e-09	-3.638855e+01	-8.463731e+01
3.900000e-07	-5.222979e-06	-1.324779e-09	-3.627859e+01	-8.449288e+01
4.000000e-07	-5.206678e-06	-1.297372e-09	-3.616537e+01	-8.434003e+01
4.100000e-07	-5.189856e-06	-1.255513e-09	-3.604852e+01	-8.417882e+01
4.200000e-07	-5.172764e-06	-1.275419e-09	-3.592980e+01	-8.400935e+01
4.300000e-07	-5.155458e-06	-1.325109e-09	-3.580959e+01	-8.383175e+01
4.400000e-07	-5.137780e-06	-1.242267e-09	-3.568680e+01	-8.364617e+01
4.500000e-07	-5.119708e-06	-1.269112e-09	-3.556128e+01	-8.345281e+01
4.600000e-07	-5.101299e-06	-1.312606e-09	-3.543341e+01	-8.325188e+01
4.700000e-07	-5.082503e-06	-1.272971e-09	-3.530285e+01	-8.304362e+01
4.800000e-07	-5.063298e-06	-1.220666e-09	-3.516946e+01	-8.282830e+01
4.900000e-07	-5.043789e-06	-1.316553e-09	-3.503394e+01	-8.260618e+01
5.000000e-07	-5.024082e-06	-1.281674e-09	-3.489706e+01	-8.237757e+01
5.100000e-07	-5.004113e-06	-1.212097e-09	-3.475836e+01	-8.214278e+01
5.200000e-07	-4.983796e-06	-1.253476e-09	-3.461724e+01	-8.190212e+01
5.300000e-07	-4.963151e-06	-1.303401e-09	-3.447384e+01	-8.165593e+01
5.400000e-07	-4.942192e-06	-1.219695e-09	-3.432826e+01	-8.140453e+01
5.500000e-07	-4.920870e-06	-1.244407e-09	-3.418015e+01	-8.114825e+01
5.600000e-07	-4.899199e-06	-1.285633e-09	-3.402963e+01	-8.088742e+01
5.700000e-07	-4.877273e-06	-1.222976e-09	-3.387733e+01	-8.062238e+01
5.800000e-07	-4.854943e-06	-1.203704e-09	-3.372223e+01	-8.035343e+01
5.900000e-07	-4.832237e-06	-1.277999e-09	-3.356452e+01	-8.008088e+01
6.000000e-07	-4.809178e-06	-1.237979e-09	-3.340435e+01	-7.980504e+01
6.100000e-07	-4.785821e-06	-1.188943e-09	-3.324211e+01	-7.952619e+01
6.200000e-07	-4.762303e-06	-1.238888e-09	-3.307875e+01	-7.924459e+01
6.300000e-07	-4.738569e-06	-1.229512e-09	-3.291390e+01	-7.896050e+01
6.400000e-07	-4.714533e-06	-1.177877e-09	-3.274695e+01	-7.867414e+01
6.500000e-07	-4.690155e-06	-1.204079e-09	-3.257762e+01	-7.838573e+01
6.600000e-07	-4.665406e-06	-1.223919e-09	-3.240572e+01	-7.809545e+01
6.700000e-07	-4.640177e-06	-1.175712e-09	-3.223047e+01	-7.780348e+01
6.800000e-07	-4.614516e-06	-1.195771e-09	-3.205223e+01	-7.750995e+01
6.900000e-07	-4.588286e-06	-1.217170e-09	-3.187004e+01	-7.721498e+01
7.000000e-07	-4.561417e-06	-1.189908e-09	-3.168341e+01	-7.691868e+01
7.100000e-07	-4.534194e-06	-1.172933e-09	-3.149432e+01	-7.662111e+01
7.200000e-07	-4.506777e-06	-1.200709e-09	-3.130388e+01	-7.632233e+01
7.300000e-07	-4.479110e-06	-1.170660e-09	-3.111171e+01	-7.602236e+01
7.400000e-07	-4.451127e-06	-1.158328e-09	-3.091734e+01	-7.572120e+01
7.500000e-07	-4.422926e-06	-1.167820e-09	-3.072146e+01	-7.541885e+01
7.600000e-07	-4.394532e-06	-1.166037e-09	-3.052423e+01	-7.511526e+01
7.700000e-07	-4.365820e-06	-1.135999e-09	-3.032480e+01	-7.481037e+01
7.800000e-07	-4.336726e-06	-1.150113e-09	-3.012272e+01	-7.450412e+01
7.900000e-07	-4.307324e-06	-1.147753e-09	-2.991849e+01	-7.419641e+01
8.000000e-07	-4.277664e-06	-1.135637e-09	-2.971247e+01	-7.388714e+01
8.100000e-07	-4.247744e-06	-1.127928e-09	-2.950465e+01	-7.357618e+01
8.200000e-07	-4.217578e-06	-1.134241e-09	-2.929512e+01	-7.326340e+01
8.300000e-07	-4.187126e-06	-1.112212e-09	-2.908360e+01	-7.294866e+01
8.400000e-07	-4.156397e-06	-1.107927e-09	-2.887016e+01	-7.263181e+01
8.500000e-07	-4.125342e-06	-1.110496e-09	-2.865445e+01	-7.231268e+01
8.600000e-07	-4.094012e-06	-1.102330e-09	-2.843684e+01	-7.199112e+01
8.700000e-07	-4.062455e-06	-1.087982e-09	-2.821764e+01	-7.166695e+01
8.800000e-07	-4.030679e-06	-1.093974e-09	-2.799692e+01	-7.134000e+01
8.900000e-07	-3.998750e-06	-1.090055e-09	-2.777515e+01	-7.101010e+01
9.000000e-07	-3.966609e-06	-1.072217e-09	-2.755190e+01	-7.067707e+01
9.100000e-07	-3.934150e-06	-1.067896e-09	-2.732644e+01	-7.034075e+01
9.200000e-07	-3.901349e-06	-1.064300e-09	-2.709861e+01	-7.000096e+01
9.300000e-07	-3.868089e-06	-1.050791e-09	-2.686758e+01	-6.965753e+01
9.400000e-07	-3.834350e-06	-1.043972e-09	-2.663323e+01	-6.931032e+01
9.500000e-07	-3.800291e-06	-1.050591e-09	-2.639666e+01	-6.895916e+01
9.600000e-07	-3.765820e-06	-1.039629e-09	-2.615723e+01	-6.860392e+01
9.700000e-07	-3.730920e-06	-1.029443e-09	-2.591481e+01	-6.824444e+01
9.800000e-07	-3.695733e-06	-1.025123e-09	-2.567041e+01	-6.788060e+01
9.900000e-07	-3.660329e-06	-1.021932e-09	-2.542449e+01	-6.751228e+01
1.000000e-06	-3.624719e-06	-1.006333e-09	-2.517715e+01	-6.713937e+01
1.010000e-06	-3.588951e-06	-1.005235e-09	-2.492870e+01	-6.676175e+01
1.020000e-06	-3.553053e-06	-1.000823e-09	-2.467935e+01	-6.637934e+01
1.030000e-06	-3.516983e-06	-9.939720e-10	-2.442882e+01	-6.599206e+01
1.040000e-06	-3.480726e-06	-9.846928e-10	-2.417698e+01	-6.559981e+01
1.050000e-06	-3.444208e-06	-9.841578e-10	-2.392332e+01	-6.520255e+01
1.060000e-06	-3.407358e-06	-9.687147e-10	-2.366736e+01	-6.480021e+01
1.070000e-06	-3.370242e-06	-9.592922e-10	-2.340956e+01	-6.439275e+01
1.080000e-06	-3.332889e-06	-9.540114e-10	-2.315011e+01	-6.398012e+01
1.090000e-06	-3.295285e-06	-9.517187e-10	-2.288891e+01	-6.356229e+01
1.100000e-06	-3.257447e-06	-9.429385e-10	-2.262609e+01	-6.313924e+01
1.110000e-06	-3.219428e-06	-9.407757e-10	-2.236201e+01	-6.271094e+01
1.120000e-06	-3.181249e-06	-9.315843e-10	-2.209682e+01	-6.227739e+01
1.130000e-06	-3.142820e-06	-9.199717e-10	-2.182990e+01	-6.183858e+01
1.140000e-06	-3.104173e-06	-9.103202e-10	-2.156146e+01	-6.139450e+01
1.150000e-06	-3.065192e-06	-9.051153e-10	-2.129070e+01	-6.094515e+01
1.160000e-06	-3.025986e-06	-8.963115e-10	-2.101837e+01	-6.049054e+01
1.170000e-06	-2.986707e-06	-8.900918e-10	-2.074554e+01	-6.003067e+01
1.180000e-06	-2.947282e-06	-8.877500e-10	-2.047170e+01	-5.956555e+01
1.190000e-06	-2.907665e-06	-8.813274e-10	-2.019652e+01	-5.909518e+01
1.200000e-06	-2.867848e-06	-8.708600e-10	-1.991995e+01	-5.861957e+01
1.210000e-06	-2.827939e-06	-8.627651e-10	-1.964275e+01	-5.813872e+01
1.220000e-06	-2.787884e-06	-8.555927e-10	-1.936453e+01	-5.765264e+01
1.230000e-06	-2.747753e-06	-8.431580e-10	-1.908577e+01	-5.716131e+01
1.240000e-06	-2.707470e-06	-8.341539e-10	-1.880597e+01	-5.666474e+01
1.250000e-06	-2.666927e-06	-8.266313e-10	-1.852436e+01	-5.616290e+01
1.260000e-06	-2.626090e-06	-8.195611e-10	-1.824071e+01	-5.565579e+01
1.270000e-06	-2.584997e-06	-8.090818e-10	-1.795528e+01	-5.514337e+01
1.280000e-06	-2.543625e-06	-8.013794e-10	-1.766791e+01	-5.462562e+01
1.290000e-06	-2.501976e-06	-7.928356e-10	-1.737862e+01	-5.410248e+01
1.300000e-06	-2.460087e-06	-7.851476e-10	-1.708766e+01	-5.357392e+01
1.310000e-06	-2.417906e-06	-7.740413e-10	-1.679467e+01	-5.303985e+01
1.320000e-06	-2.375466e-06	-7.642627e-10	-1.649989e+01	-5.250022e+01
1.330000e-06	-2.332806e-06	-7.539576e-10	-1.620357e+01	-5.195493e+01
1.340000e-06	-2.289877e-06	-7.454943e-10	-1.590539e+01	-5.140389e+01
1.350000e-06	-2.246661e-06	-7.343090e-10	-1.560521e+01	-5.084697e+01
1.360000e-06	-2.203327e-06	-7.245650e-10	-1.530422e+01	-5.028407e+01
1.370000e-06	-2.159852e-06	-7.136091e-10	-1.500224e+01	-4.971503e+01
1.380000e-06	-2.116194e-06	-7.088844e-10	-1.469899e+01	-4.913969e+01
1.390000e-06	-2.072507e-06	-7.037505e-10	-1.439554e+01	-4.855789e+01
1.400000e-06	-2.028730e-06	-6.965737e-10	-1.409147e+01	-4.796943e+01
1.410000e-06	-1.984796e-06	-6.870211e-10	-1.378631e+01	-4.737411e+01
1.420000e-06	-1.940749e-06	-6.801955e-10	-1.348036e+01	-4.677170e+01
1.430000e-06	-1.896537e-06	-6.716408e-10	-1.317327e+01	-4.616197e+01
1.440000e-06	-1.852256e-06	-6.624171e-10	-1.286569e+01	-4.554464e+01
1.450000e-06	-1.808012e-06	-6.511778e-10	-1.255837e+01	-4.491946e+01
1.460000e-06	-1.763667e-06	-6.403582e-10	-1.225036e+01	-4.428611e+01
1.470000e-06	-1.719127e-06	-6.289382e-10	-1.194098e+01	-4.364430e+01
1.480000e-06	-1.674537e-06	-6.171250e-10	-1.163127e+01	-4.299369e+01
1.490000e-06	-1.629771e-06	-6.058509e-10	-1.132032e+01	-4.233393e+01
1.500000e-06	-1.584786e-06	-5.961096e-10	-1.100785e+01	-4.166466e+01
1.510000e-06	-1.539734e-06	-5.859967e-10	-1.069493e+01	-4.098551e+01
1.520000e-06	-1.494666e-06	-5.738638e-10	-1.038189e+01	-4.029608e+01
1.530000e-06	-1.449471e-06	-5.620980e-10	-1.006796e+01	-3.959596e+01
1.540000e-06	-1.404115e-06	-5.479360e-10	-9.752924e+00	-3.888474e+01
1.550000e-06	-1.358672e-06	-5.330512e-10	-9.437276e+00	-3.816198e+01
1.560000e-06	-1.313096e-06	-5.173212e-10	-9.120711e+00	-3.742724e+01
1.570000e-06	-1.267512e-06	-5.029884e-10	-8.804086e+00	-3.668008e+01
1.580000e-06	-1.221860e-06	-4.923307e-10	-8.486989e+00	-3.592004e+01
1.590000e-06	-1.176036e-06	-4.845276e-10	-8.168693e+00	-3.514666e+01
1.600000e-06	-1.130127e-06	-4.737724e-10	-7.849815e+00	-3.435947e+01
1.610000e-06	-1.084101e-06	-4.604583e-10	-7.530119e+00	-3.355803e+01
1.620000e-06	-1.038078e-06	-4.459167e-10	-7.210445e+00	-3.274185e+01
1.630000e-06	-9.919468e-07	-4.348852e-10	-6.890021e+00	-3.191051e+01
1.640000e-06	-9.456649e-07	-4.234876e-10	-6.568548e+00	-3.106354e+01
1.650000e-06	-8.993657e-07	-4.111514e-10	-6.246956e+00	-3.020051e+01
1.660000e-06	-8.529507e-07	-3.974073e-10	-5.924560e+00	-2.932101e+01
1.670000e-06	-8.065780e-07	-3.829894e-10	-5.602457e+00	-2.842464e+01
1.680000e-06	-7.602331e-07	-3.646432e-10	-5.280547e+00	-2.751100e+01
1.690000e-06	-7.137737e-07	-3.482164e-10	-4.957842e+00	-2.657974e+01
1.700000e-06	-6.672397e-07	-3.333473e-10	-4.634618e+00	-2.563053e+01
1.710000e-06	-6.205999e-07	-3.215471e-10	-4.310661e+00	-2.466306e+01
1.720000e-06	-5.739719e-07	-3.083149e-10	-3.986785e+00	-2.367708e+01
1.730000e-06	-5.274290e-07	-2.921866e-10	-3.663500e+00	-2.267235e+01
1.740000e-06	-4.808485e-07	-2.731054e-10	-3.339954e+00	-2.164867e+01
1.750000e-06	-4.341651e-07	-2.537291e-10	-3.015692e+00	-2.060591e+01
1.760000e-06	-3.874180e-07	-2.342829e-10	-2.690989e+00	-1.954397e+01
1.770000e-06	-3.406349e-07	-2.167171e-10	-2.366035e+00	-1.846278e+01
1.780000e-06	-2.937633e-07	-2.051381e-10	-2.040468e+00	-1.736236e+01
1.790000e-06	-2.469150e-07	-1.950366e-10	-1.715061e+00	-1.624276e+01
1.800000e-06	-2.000678e-07	-1.818748e-10	-1.389662e+00	-1.510410e+01
1.810000e-06	-1.532041e-07	-1.655097e-10	-1.064149e+00	-1.394654e+01
1.820000e-06	-1.062617e-07	-1.478660e-10	-7.380893e-01	-1.277033e+01
1.830000e-06	-5.930590e-08	-1.321849e-10	-4.119363e-01	-1.157575e+01
1.840000e-06	-1.245808e-08	-1.179195e-10	-8.653328e-02	-1.036317e+01
1.850000e-06	3.434826e-08	-1.005270e-10	2.385816e-01	-9.133016e+00
1.860000e-06	8.121343e-08	-8.388405e-11	5.641050e-01	-7.885774e+00
1.870000e-06	1.281178e-07	-6.736279e-11	8.899011e-01	-6.622003e+00
1.880000e-06	1.749745e-07	-5.199118e-11	1.215365e+00	-5.342324e+00
1.890000e-06	2.218205e-07	-3.622486e-11	1.540756e+00	-4.047422e+00
1.900000e-06	2.686064e-07	-1.920839e-11	1.865729e+00	-2.738047e+00
1.910000e-06	3.154611e-07	-2.505672e-13	2.191179e+00	-1.415012e+00
1.920000e-06	3.622923e-07	1.880749e-11	2.516467e+00	-7.918815e-02
1.930000e-06	4.090298e-07	3.920717e-11	2.841104e+00	1.268493e+00
1.940000e-06	4.557069e-07	6.041929e-11	3.165321e+00	2.627046e+00
1.950000e-06	5.023739e-07	8.163765e-11	3.489468e+00	3.995432e+00
1.960000e-06	5.490066e-07	1.001968e-10	3.813376e+00	5.372562e+00
1.970000e-06	5.955035e-07	1.158372e-10	4.136342e+00	6.757304e+00
1.980000e-06	6.419482e-07	1.324409e-10	4.458945e+00	8.148482e+00
1.990000e-06	6.884222e-07	1.523582e-10	4.781752e+00	9.544883e+00
2.000000e-06	7.348275e-07	1.717483e-10	5.104081e+00	1.094527e+01
2.010000e-06	7.811269e-07	1.931341e-10	5.425674e+00	1.234836e+01
2.020000e-06	8.273751e-07	2.174136e-10	5.746913e+00	1.375286e+01
2.030000e-06	8.735565e-07	2.403924e-10	6.067687e+00	1.515747e+01
2.040000e-06	9.197258e-07	2.600472e-10	6.388376e+00	1.656087e+01
2.050000e-06	9.658303e-07	2.784101e-10	6.708617e+00	1.796172e+01
2.060000e-06	1.011948e-06	2.960437e-10	7.028951e+00	1.935870e+01
2.070000e-06	1.058054e-06	3.141983e-10	7.349200e+00	2.075050e+01
2.080000e-06	1.104006e-06	3.334637e-10	7.668378e+00	2.213579e+01
2.090000e-06	1.149815e-06	3.541882e-10	7.986565e+00	2.351330e+01
2.100000e-06	1.195460e-06	3.765242e-10	8.303617e+00	2.488176e+01
2.110000e-06	1.241005e-06	3.974970e-10	8.619968e+00	2.623992e+01
2.120000e-06	1.286516e-06	4.171328e-10	8.936089e+00	2.758660e+01
2.130000e-06	1.331974e-06	4.359430e-10	9.251833e+00	2.892062e+01
2.140000e-06	1.377349e-06	4.523903e-10	9.567011e+00	3.024087e+01
2.150000e-06	1.422685e-06	4.687897e-10	9.881911e+00	3.154628e+01
2.160000e-06	1.468044e-06	4.855307e-10	1.019697e+01	3.283584e+01
2.170000e-06	1.513236e-06	5.037023e-10	1.051087e+01	3.410859e+01
2.180000e-06	1.558221e-06	5.270905e-10	1.082334e+01	3.536365e+01
2.190000e-06	1.603141e-06	5.488309e-10	1.113535e+01	3.660017e+01
2.200000e-06	1.647903e-06	5.673754e-10	1.144626e+01	3.781742e+01
2.210000e-06	1.692465e-06	5.800570e-10	1.175579e+01	3.901468e+01
2.220000e-06	1.736854e-06	5.918300e-10	1.206412e+01	4.019136e+01
2.230000e-06	1.781102e-06	6.065677e-10	1.237146e+01	4.134691e+01
2.240000e-06	1.825299e-06	6.214739e-10	1.267845e+01	4.248086e+01
2.250000e-06	1.869356e-06	6.377871e-10	1.298447e+01	4.359281e+01
2.260000e-06	1.913273e-06	6.547180e-10	1.328951e+01	4.468246e+01
2.270000e-06	1.957171e-06	6.739404e-10	1.359442e+01	4.574957e+01
2.280000e-06	2.001009e-06	6.936120e-10	1.389892e+01	4.679396e+01
2.290000e-06	2.044780e-06	7.098629e-10	1.420296e+01	4.781554e+01
2.300000e-06	2.088511e-06	7.214620e-10	1.450671e+01	4.881429e+01
2.310000e-06	2.132204e-06	7.305193e-10	1.481020e+01	4.979025e+01
2.320000e-06	2.175779e-06	7.423371e-10	1.511287e+01	5.074354e+01
2.330000e-06	2.219231e-06	7.555726e-10	1.541468e+01	5.167433e+01
2.340000e-06	2.262551e-06	7.715981e-10	1.571558e+01	5.258284e+01
2.350000e-06	2.305711e-06	7.908806e-10	1.601537e+01	5.346938e+01
2.360000e-06	2.348772e-06	8.113929e-10	1.631447e+01	5.433427e+01
2.370000e-06	2.391554e-06	8.268028e-10	1.661163e+01	5.517791e+01
2.380000e-06	2.433864e-06	8.354172e-10	1.690552e+01	5.600072e+01
2.390000e-06	2.475841e-06	8.427069e-10	1.719709e+01	5.680318e+01
2.400000e-06	2.517536e-06	8.490773e-10	1.748670e+01	5.758577e+01
2.410000e-06	2.558837e-06	8.548355e-10	1.777357e+01	5.834903e+01
2.420000e-06	2.599897e-06	8.652396e-10	1.805877e+01	5.909351e+01
2.430000e-06	2.640809e-06	8.814986e-10	1.834295e+01	5.981977e+01
2.440000e-06	2.681483e-06	8.980702e-10	1.862547e+01	6.052841e+01
2.450000e-06	2.721891e-06	9.115694e-10	1.890614e+01	6.122002e+01
2.460000e-06	2.762024e-06	9.222287e-10	1.918490e+01	6.189518e+01
2.470000e-06	2.802006e-06	9.299240e-10	1.946262e+01	6.255450e+01
2.480000e-06	2.841941e-06	9.364148e-10	1.974000e+01	6.319857e+01
2.490000e-06	2.881775e-06	9.437178e-10	2.001669e+01	6.382797e+01
2.500000e-06	2.921466e-06	9.513094e-10	2.029238e+01	6.444327e+01
2.510000e-06	2.960950e-06	9.614599e-10	2.056663e+01	6.504503e+01
2.520000e-06	3.000273e-06	9.738512e-10	2.083977e+01	6.563378e+01
2.530000e-06	3.039383e-06	9.849564e-10	2.111143e+01	6.621004e+01
2.540000e-06	3.078285e-06	9.938089e-10	2.138164e+01	6.677430e+01
2.550000e-06	3.116902e-06	1.000703e-09	2.164987e+01	6.732703e+01
2.560000e-06	3.155260e-06	1.006570e-09	2.191631e+01	6.786865e+01
2.570000e-06	3.193438e-06	1.012703e-09	2.218149e+01	6.839958e+01
2.580000e-06	3.231361e-06	1.020022e-09	2.244490e+01	6.892021e+01
2.590000e-06	3.269116e-06	1.029650e-09	2.270714e+01	6.943086e+01
2.600000e-06	3.306668e-06	1.038208e-09	2.296798e+01	6.993187e+01
2.610000e-06	3.344045e-06	1.044664e-09	2.322760e+01	7.042351e+01
2.620000e-06	3.381238e-06	1.050067e-09	2.348594e+01	7.090605e+01
2.630000e-06	3.418070e-06	1.054376e-09	2.374177e+01	7.137972e+01
2.640000e-06	3.454630e-06	1.058841e-09	2.399571e+01	7.184470e+01
2.650000e-06	3.491021e-06	1.065335e-09	2.424848e+01	7.230117e+01
2.660000e-06	3.527162e-06	1.072333e-09	2.449952e+01	7.274929e+01
2.670000e-06	3.563118e-06	1.078308e-09	2.474926e+01	7.318917e+01
2.680000e-06	3.598948e-06	1.084864e-09	2.499814e+01	7.362093e+01
2.690000e-06	3.634669e-06	1.090215e-09	2.524626e+01	7.404464e+01
2.700000e-06	3.670276e-06	1.093911e-09	2.549358e+01	7.446038e+01
2.710000e-06	3.705753e-06	1.098437e-09	2.574000e+01	7.486820e+01
2.720000e-06	3.740985e-06	1.104556e-09	2.598473e+01	7.526814e+01
2.730000e-06	3.775865e-06	1.112585e-09	2.622700e+01	7.566025e+01
2.740000e-06	3.810278e-06	1.118913e-09	2.646603e+01	7.604454e+01
2.750000e-06	3.844186e-06	1.123804e-09	2.670155e+01	7.642106e+01
2.760000e-06	3.877556e-06	1.130120e-09	2.693334e+01	7.678982e+01
2.770000e-06	3.910458e-06	1.136984e-09	2.716188e+01	7.715084e+01
2.780000e-06	3.943046e-06	1.144131e-09	2.738823e+01	7.750416e+01
2.790000e-06	3.975293e-06	1.150499e-09	2.761222e+01	7.784981e+01
2.800000e-06	4.007258e-06	1.155882e-09	2.783425e+01	7.818783e+01
2.810000e-06	4.039084e-06	1.159819e-09	2.805531e+01	7.851827e+01
2.820000e-06	4.070793e-06	1.162715e-09	2.827556e+01	7.884119e+01
2.830000e-06	4.102321e-06	1.167402e-09	2.849455e+01	7.915666e+01
2.840000e-06	4.133659e-06	1.176106e-09	2.871222e+01	7.946476e+01
2.850000e-06	4.164746e-06	1.185894e-09	2.892815e+01	7.976558e+01
2.860000e-06	4.195476e-06	1.193228e-09	2.914160e+01	8.005924e+01
2.870000e-06	4.225801e-06	1.197460e-09	2.935224e+01	8.034584e+01
2.880000e-06	4.255816e-06	1.200535e-09	2.956072e+01	8.062552e+01
2.890000e-06	4.285589e-06	1.204154e-09	2.976752e+01	8.089844e+01
2.900000e-06	4.315152e-06	1.207700e-09	2.997287e+01	8.116472e+01
