# Temperatura_=_-0.7
# Concentracion g/m^3_=_1620.0
# C_Vs_to_Am_M_A/Vsm_=_65563218390.804596
# pendiente_HvsI_1/m_=_3716.3
# ordenada_HvsI_A/m_=_1297.0
# frecuencia_Hz_=_135103.0115284824

Tiempo_(s)	Campo_(V.s)	Magnetizacion_(V.s)	Campo_(kA/m)	Magnetizacion_(A/m)
0.000000e+00	-5.498087e-06	-1.255062e-09	-3.836733e+01	-8.418520e+01
1.000000e-08	-5.498263e-06	-1.258304e-09	-3.836856e+01	-8.416219e+01
2.000000e-08	-5.498020e-06	-1.261474e-09	-3.836687e+01	-8.413938e+01
3.000000e-08	-5.497238e-06	-1.258993e-09	-3.836141e+01	-8.411652e+01
4.000000e-08	-5.495914e-06	-1.245472e-09	-3.835217e+01	-8.409334e+01
5.000000e-08	-5.494021e-06	-1.221145e-09	-3.833896e+01	-8.406958e+01
6.000000e-08	-5.491619e-06	-1.207677e-09	-3.832220e+01	-8.404493e+01
7.000000e-08	-5.488731e-06	-1.245559e-09	-3.830204e+01	-8.401910e+01
8.000000e-08	-5.485326e-06	-1.316422e-09	-3.827828e+01	-8.399179e+01
9.000000e-08	-5.481450e-06	-1.350647e-09	-3.825123e+01	-8.396269e+01
1.000000e-07	-5.477254e-06	-1.290576e-09	-3.822196e+01	-8.393150e+01
1.100000e-07	-5.472888e-06	-1.207020e-09	-3.819149e+01	-8.389791e+01
1.200000e-07	-5.468328e-06	-1.181986e-09	-3.815967e+01	-8.386162e+01
1.300000e-07	-5.463357e-06	-1.263866e-09	-3.812497e+01	-8.382233e+01
1.400000e-07	-5.457898e-06	-1.269704e-09	-3.808688e+01	-8.377977e+01
1.500000e-07	-5.452164e-06	-1.212696e-09	-3.804687e+01	-8.373365e+01
1.600000e-07	-5.446071e-06	-1.186330e-09	-3.800435e+01	-8.368372e+01
1.700000e-07	-5.439523e-06	-1.282056e-09	-3.795866e+01	-8.362974e+01
1.800000e-07	-5.432511e-06	-1.325248e-09	-3.790973e+01	-8.357146e+01
1.900000e-07	-5.425166e-06	-1.250247e-09	-3.785847e+01	-8.350869e+01
2.000000e-07	-5.417663e-06	-1.196779e-09	-3.780611e+01	-8.344123e+01
2.100000e-07	-5.409910e-06	-1.265438e-09	-3.775201e+01	-8.336891e+01
2.200000e-07	-5.401882e-06	-1.343099e-09	-3.769598e+01	-8.329158e+01
2.300000e-07	-5.393487e-06	-1.313541e-09	-3.763741e+01	-8.320912e+01
2.400000e-07	-5.384412e-06	-1.277845e-09	-3.757407e+01	-8.312143e+01
2.500000e-07	-5.374640e-06	-1.291347e-09	-3.750589e+01	-8.302842e+01
2.600000e-07	-5.364313e-06	-1.309476e-09	-3.743382e+01	-8.293004e+01
2.700000e-07	-5.353445e-06	-1.254922e-09	-3.735798e+01	-8.282626e+01
2.800000e-07	-5.342157e-06	-1.244338e-09	-3.727921e+01	-8.271707e+01
2.900000e-07	-5.330484e-06	-1.268647e-09	-3.719775e+01	-8.260247e+01
3.000000e-07	-5.318435e-06	-1.281520e-09	-3.711367e+01	-8.248251e+01
3.100000e-07	-5.305926e-06	-1.240867e-09	-3.702637e+01	-8.235723e+01
3.200000e-07	-5.292949e-06	-1.253941e-09	-3.693582e+01	-8.222671e+01
3.300000e-07	-5.279703e-06	-1.264485e-09	-3.684338e+01	-8.209103e+01
3.400000e-07	-5.266134e-06	-1.259287e-09	-3.674869e+01	-8.195031e+01
3.500000e-07	-5.252045e-06	-1.233126e-09	-3.665038e+01	-8.180465e+01
3.600000e-07	-5.237587e-06	-1.243160e-09	-3.654949e+01	-8.165420e+01
3.700000e-07	-5.222759e-06	-1.232654e-09	-3.644601e+01	-8.149909e+01
3.800000e-07	-5.207270e-06	-1.230114e-09	-3.633793e+01	-8.133948e+01
3.900000e-07	-5.191247e-06	-1.239441e-09	-3.622611e+01	-8.117552e+01
4.000000e-07	-5.174781e-06	-1.244811e-09	-3.611120e+01	-8.100738e+01
4.100000e-07	-5.157917e-06	-1.230150e-09	-3.599352e+01	-8.083522e+01
4.200000e-07	-5.140849e-06	-1.225872e-09	-3.587441e+01	-8.065921e+01
4.300000e-07	-5.123418e-06	-1.231611e-09	-3.575278e+01	-8.047952e+01
4.400000e-07	-5.105568e-06	-1.230432e-09	-3.562822e+01	-8.029630e+01
4.500000e-07	-5.087386e-06	-1.227646e-09	-3.550134e+01	-8.010972e+01
4.600000e-07	-5.068801e-06	-1.212975e-09	-3.537164e+01	-7.991992e+01
4.700000e-07	-5.049800e-06	-1.208494e-09	-3.523905e+01	-7.972705e+01
4.800000e-07	-5.030483e-06	-1.224347e-09	-3.510425e+01	-7.953125e+01
4.900000e-07	-5.010977e-06	-1.233513e-09	-3.496813e+01	-7.933264e+01
5.000000e-07	-4.991276e-06	-1.206938e-09	-3.483065e+01	-7.913132e+01
5.100000e-07	-4.971316e-06	-1.204144e-09	-3.469136e+01	-7.892741e+01
5.200000e-07	-4.950996e-06	-1.213441e-09	-3.454956e+01	-7.872098e+01
5.300000e-07	-4.930291e-06	-1.211464e-09	-3.440508e+01	-7.851212e+01
5.400000e-07	-4.909257e-06	-1.208788e-09	-3.425830e+01	-7.830087e+01
5.500000e-07	-4.887889e-06	-1.218026e-09	-3.410919e+01	-7.808728e+01
5.600000e-07	-4.866197e-06	-1.188362e-09	-3.395781e+01	-7.787139e+01
5.700000e-07	-4.844192e-06	-1.176043e-09	-3.380425e+01	-7.765320e+01
5.800000e-07	-4.821867e-06	-1.199281e-09	-3.364846e+01	-7.743273e+01
5.900000e-07	-4.799132e-06	-1.199650e-09	-3.348981e+01	-7.720996e+01
6.000000e-07	-4.776063e-06	-1.170325e-09	-3.332883e+01	-7.698487e+01
6.100000e-07	-4.752774e-06	-1.187058e-09	-3.316631e+01	-7.675741e+01
6.200000e-07	-4.729226e-06	-1.192439e-09	-3.300198e+01	-7.652756e+01
6.300000e-07	-4.705475e-06	-1.163182e-09	-3.283624e+01	-7.629524e+01
6.400000e-07	-4.681391e-06	-1.158286e-09	-3.266818e+01	-7.606041e+01
6.500000e-07	-4.656865e-06	-1.175688e-09	-3.249703e+01	-7.582297e+01
6.600000e-07	-4.631954e-06	-1.153039e-09	-3.232319e+01	-7.558287e+01
6.700000e-07	-4.606597e-06	-1.144245e-09	-3.214624e+01	-7.534001e+01
6.800000e-07	-4.580637e-06	-1.164223e-09	-3.196508e+01	-7.509432e+01
6.900000e-07	-4.554121e-06	-1.157094e-09	-3.178005e+01	-7.484570e+01
7.000000e-07	-4.527236e-06	-1.137911e-09	-3.159244e+01	-7.459407e+01
7.100000e-07	-4.500030e-06	-1.150437e-09	-3.140258e+01	-7.433934e+01
7.200000e-07	-4.472578e-06	-1.148965e-09	-3.121101e+01	-7.408143e+01
7.300000e-07	-4.444946e-06	-1.123256e-09	-3.101819e+01	-7.382025e+01
7.400000e-07	-4.417107e-06	-1.122721e-09	-3.082392e+01	-7.355574e+01
7.500000e-07	-4.389049e-06	-1.129179e-09	-3.062813e+01	-7.328782e+01
7.600000e-07	-4.360690e-06	-1.112145e-09	-3.043023e+01	-7.301643e+01
7.700000e-07	-4.331955e-06	-1.101815e-09	-3.022971e+01	-7.274151e+01
7.800000e-07	-4.302858e-06	-1.110762e-09	-3.002666e+01	-7.246302e+01
7.900000e-07	-4.273461e-06	-1.103701e-09	-2.982152e+01	-7.218091e+01
8.000000e-07	-4.243815e-06	-1.093467e-09	-2.961464e+01	-7.189516e+01
8.100000e-07	-4.213909e-06	-1.093246e-09	-2.940595e+01	-7.160574e+01
8.200000e-07	-4.183684e-06	-1.091079e-09	-2.919503e+01	-7.131266e+01
8.300000e-07	-4.153129e-06	-1.079235e-09	-2.898181e+01	-7.101589e+01
8.400000e-07	-4.122337e-06	-1.078010e-09	-2.876693e+01	-7.071546e+01
8.500000e-07	-4.091276e-06	-1.071894e-09	-2.855017e+01	-7.041139e+01
8.600000e-07	-4.059991e-06	-1.060450e-09	-2.833186e+01	-7.010369e+01
8.700000e-07	-4.028545e-06	-1.051394e-09	-2.811242e+01	-6.979240e+01
8.800000e-07	-3.996968e-06	-1.049711e-09	-2.789207e+01	-6.947756e+01
8.900000e-07	-3.965232e-06	-1.042314e-09	-2.767060e+01	-6.915923e+01
9.000000e-07	-3.933187e-06	-1.038471e-09	-2.744698e+01	-6.883745e+01
9.100000e-07	-3.900800e-06	-1.037405e-09	-2.722097e+01	-6.851228e+01
9.200000e-07	-3.868044e-06	-1.033676e-09	-2.699240e+01	-6.818379e+01
9.300000e-07	-3.834853e-06	-1.026301e-09	-2.676078e+01	-6.785204e+01
9.400000e-07	-3.801230e-06	-1.023265e-09	-2.652615e+01	-6.751708e+01
9.500000e-07	-3.767104e-06	-1.016558e-09	-2.628800e+01	-6.717899e+01
9.600000e-07	-3.732540e-06	-1.007976e-09	-2.604680e+01	-6.683783e+01
9.700000e-07	-3.697589e-06	-1.002265e-09	-2.580291e+01	-6.649365e+01
9.800000e-07	-3.662303e-06	-9.992436e-10	-2.555667e+01	-6.614652e+01
9.900000e-07	-3.626893e-06	-9.930250e-10	-2.530957e+01	-6.579647e+01
1.000000e-06	-3.591356e-06	-9.893547e-10	-2.506158e+01	-6.544357e+01
1.010000e-06	-3.555669e-06	-9.863770e-10	-2.481254e+01	-6.508783e+01
1.020000e-06	-3.519848e-06	-9.808455e-10	-2.456258e+01	-6.472929e+01
1.030000e-06	-3.483881e-06	-9.758053e-10	-2.431158e+01	-6.436797e+01
1.040000e-06	-3.447714e-06	-9.706551e-10	-2.405920e+01	-6.400387e+01
1.050000e-06	-3.411261e-06	-9.620519e-10	-2.380482e+01	-6.363699e+01
1.060000e-06	-3.374528e-06	-9.522139e-10	-2.354849e+01	-6.326731e+01
1.070000e-06	-3.337551e-06	-9.484324e-10	-2.329046e+01	-6.289480e+01
1.080000e-06	-3.300348e-06	-9.431337e-10	-2.303084e+01	-6.251943e+01
1.090000e-06	-3.262913e-06	-9.373341e-10	-2.276960e+01	-6.214113e+01
1.100000e-06	-3.225268e-06	-9.336921e-10	-2.250690e+01	-6.175985e+01
1.110000e-06	-3.187364e-06	-9.304917e-10	-2.224240e+01	-6.137549e+01
1.120000e-06	-3.149196e-06	-9.231039e-10	-2.197605e+01	-6.098797e+01
1.130000e-06	-3.110782e-06	-9.168275e-10	-2.170799e+01	-6.059719e+01
1.140000e-06	-3.072137e-06	-9.088949e-10	-2.143831e+01	-6.020301e+01
1.150000e-06	-3.033342e-06	-8.986113e-10	-2.116759e+01	-5.980531e+01
1.160000e-06	-2.994356e-06	-8.886181e-10	-2.089554e+01	-5.940395e+01
1.170000e-06	-2.955190e-06	-8.844951e-10	-2.062222e+01	-5.899878e+01
1.180000e-06	-2.915901e-06	-8.805358e-10	-2.034805e+01	-5.858963e+01
1.190000e-06	-2.876433e-06	-8.756681e-10	-2.007263e+01	-5.817632e+01
1.200000e-06	-2.836827e-06	-8.677329e-10	-1.979625e+01	-5.775868e+01
1.210000e-06	-2.797171e-06	-8.601934e-10	-1.951951e+01	-5.733652e+01
1.220000e-06	-2.757412e-06	-8.523226e-10	-1.924206e+01	-5.690963e+01
1.230000e-06	-2.717428e-06	-8.444530e-10	-1.896304e+01	-5.647782e+01
1.240000e-06	-2.677187e-06	-8.355093e-10	-1.868223e+01	-5.604088e+01
1.250000e-06	-2.636737e-06	-8.256491e-10	-1.839995e+01	-5.559860e+01
1.260000e-06	-2.596096e-06	-8.145117e-10	-1.811636e+01	-5.515076e+01
1.270000e-06	-2.555285e-06	-8.042847e-10	-1.783156e+01	-5.469713e+01
1.280000e-06	-2.514147e-06	-7.958681e-10	-1.754449e+01	-5.423750e+01
1.290000e-06	-2.472558e-06	-7.883732e-10	-1.725426e+01	-5.377165e+01
1.300000e-06	-2.430625e-06	-7.801671e-10	-1.696164e+01	-5.329934e+01
1.310000e-06	-2.388416e-06	-7.701441e-10	-1.666710e+01	-5.282036e+01
1.320000e-06	-2.345930e-06	-7.622406e-10	-1.637062e+01	-5.233448e+01
1.330000e-06	-2.303231e-06	-7.580059e-10	-1.607265e+01	-5.184146e+01
1.340000e-06	-2.260335e-06	-7.521833e-10	-1.577331e+01	-5.134109e+01
1.350000e-06	-2.217191e-06	-7.412607e-10	-1.547224e+01	-5.083314e+01
1.360000e-06	-2.173862e-06	-7.296986e-10	-1.516987e+01	-5.031737e+01
1.370000e-06	-2.130447e-06	-7.203785e-10	-1.486691e+01	-4.979357e+01
1.380000e-06	-2.086944e-06	-7.126630e-10	-1.456333e+01	-4.926150e+01
1.390000e-06	-2.043370e-06	-7.050952e-10	-1.425926e+01	-4.872093e+01
1.400000e-06	-1.999696e-06	-6.974687e-10	-1.395449e+01	-4.817163e+01
1.410000e-06	-1.955906e-06	-6.892222e-10	-1.364891e+01	-4.761338e+01
1.420000e-06	-1.912066e-06	-6.815555e-10	-1.334298e+01	-4.704593e+01
1.430000e-06	-1.868206e-06	-6.735186e-10	-1.303692e+01	-4.646904e+01
1.440000e-06	-1.824290e-06	-6.634105e-10	-1.273045e+01	-4.588248e+01
1.450000e-06	-1.780252e-06	-6.501507e-10	-1.242314e+01	-4.528600e+01
1.460000e-06	-1.736056e-06	-6.370205e-10	-1.211473e+01	-4.467934e+01
1.470000e-06	-1.691721e-06	-6.238031e-10	-1.180535e+01	-4.406225e+01
1.480000e-06	-1.647244e-06	-6.116744e-10	-1.149497e+01	-4.343446e+01
1.490000e-06	-1.602627e-06	-6.005678e-10	-1.118362e+01	-4.279571e+01
1.500000e-06	-1.557910e-06	-5.927416e-10	-1.087157e+01	-4.214571e+01
1.510000e-06	-1.513037e-06	-5.860218e-10	-1.055843e+01	-4.148419e+01
1.520000e-06	-1.468092e-06	-5.776294e-10	-1.024480e+01	-4.081085e+01
1.530000e-06	-1.423065e-06	-5.666527e-10	-9.930582e+00	-4.012539e+01
1.540000e-06	-1.377888e-06	-5.521533e-10	-9.615327e+00	-3.942750e+01
1.550000e-06	-1.332630e-06	-5.356696e-10	-9.299502e+00	-3.871686e+01
1.560000e-06	-1.287257e-06	-5.212682e-10	-8.982872e+00	-3.799317e+01
1.570000e-06	-1.241810e-06	-5.077175e-10	-8.665731e+00	-3.725607e+01
1.580000e-06	-1.196289e-06	-4.958479e-10	-8.348067e+00	-3.650526e+01
1.590000e-06	-1.150664e-06	-4.852084e-10	-8.029688e+00	-3.574037e+01
1.600000e-06	-1.105008e-06	-4.744362e-10	-7.711085e+00	-3.496107e+01
1.610000e-06	-1.059368e-06	-4.648615e-10	-7.392596e+00	-3.416703e+01
1.620000e-06	-1.013681e-06	-4.569376e-10	-7.073774e+00	-3.335788e+01
1.630000e-06	-9.678005e-07	-4.473257e-10	-6.753608e+00	-3.253329e+01
1.640000e-06	-9.217749e-07	-4.346525e-10	-6.432427e+00	-3.169291e+01
1.650000e-06	-8.756862e-07	-4.186692e-10	-6.110806e+00	-3.083642e+01
1.660000e-06	-8.295615e-07	-4.022047e-10	-5.788934e+00	-2.996348e+01
1.670000e-06	-7.833326e-07	-3.899687e-10	-5.466335e+00	-2.907377e+01
1.680000e-06	-7.371036e-07	-3.781173e-10	-5.143735e+00	-2.816700e+01
1.690000e-06	-6.910094e-07	-3.664375e-10	-4.822075e+00	-2.724288e+01
1.700000e-06	-6.448308e-07	-3.530528e-10	-4.499827e+00	-2.630112e+01
1.710000e-06	-5.985754e-07	-3.404043e-10	-4.177042e+00	-2.534150e+01
1.720000e-06	-5.522291e-07	-3.244012e-10	-3.853624e+00	-2.436378e+01
1.730000e-06	-5.057449e-07	-3.040350e-10	-3.529242e+00	-2.336776e+01
1.740000e-06	-4.593221e-07	-2.839307e-10	-3.205290e+00	-2.235330e+01
1.750000e-06	-4.129512e-07	-2.680095e-10	-2.881700e+00	-2.132025e+01
1.760000e-06	-3.665385e-07	-2.546830e-10	-2.557818e+00	-2.026853e+01
1.770000e-06	-3.200258e-07	-2.403573e-10	-2.233238e+00	-1.919808e+01
1.780000e-06	-2.733881e-07	-2.247908e-10	-1.907786e+00	-1.810889e+01
1.790000e-06	-2.267162e-07	-2.087696e-10	-1.582095e+00	-1.700101e+01
1.800000e-06	-1.800748e-07	-1.917298e-10	-1.256617e+00	-1.587452e+01
1.810000e-06	-1.333929e-07	-1.758657e-10	-9.308565e-01	-1.472956e+01
1.820000e-06	-8.668747e-08	-1.630528e-10	-6.049317e-01	-1.356631e+01
1.830000e-06	-3.997785e-08	-1.513344e-10	-2.789777e-01	-1.238503e+01
1.840000e-06	6.702757e-09	-1.383421e-10	4.677389e-02	-1.118602e+01
1.850000e-06	5.336580e-08	-1.214407e-10	3.724029e-01	-9.969632e+00
1.860000e-06	1.000744e-07	-1.034333e-10	6.983498e-01	-8.736295e+00
1.870000e-06	1.467602e-07	-8.455131e-11	1.024138e+00	-7.486486e+00
1.880000e-06	1.934532e-07	-6.405950e-11	1.349976e+00	-6.220746e+00
1.890000e-06	2.401463e-07	-4.430104e-11	1.675815e+00	-4.939675e+00
1.900000e-06	2.867240e-07	-2.727366e-11	2.000848e+00	-3.643933e+00
1.910000e-06	3.331921e-07	-1.141669e-11	2.325116e+00	-2.334239e+00
1.920000e-06	3.796506e-07	3.658497e-12	2.649318e+00	-1.011369e+00
1.930000e-06	4.261863e-07	1.966057e-11	2.974059e+00	3.238442e-01
1.940000e-06	4.727332e-07	3.844031e-11	3.298877e+00	1.670513e+00
1.950000e-06	5.191527e-07	5.926716e-11	3.622807e+00	3.027699e+00
1.960000e-06	5.655151e-07	8.219028e-11	3.946338e+00	4.394414e+00
1.970000e-06	6.118069e-07	1.052924e-10	4.269375e+00	5.769626e+00
1.980000e-06	6.580001e-07	1.258851e-10	4.591726e+00	7.152258e+00
1.990000e-06	7.041743e-07	1.455470e-10	4.913944e+00	8.541195e+00
2.000000e-06	7.502782e-07	1.624743e-10	5.235671e+00	9.935288e+00
2.010000e-06	7.963073e-07	1.805614e-10	5.556876e+00	1.133336e+01
2.020000e-06	8.423162e-07	1.992712e-10	5.877940e+00	1.273420e+01
2.030000e-06	8.883535e-07	2.189019e-10	6.199202e+00	1.413658e+01
2.040000e-06	9.343439e-07	2.395145e-10	6.520137e+00	1.553926e+01
2.050000e-06	9.801489e-07	2.636289e-10	6.839779e+00	1.694099e+01
2.060000e-06	1.025821e-06	2.863786e-10	7.158493e+00	1.834052e+01
2.070000e-06	1.071494e-06	3.052802e-10	7.477211e+00	1.973656e+01
2.080000e-06	1.117157e-06	3.252350e-10	7.795864e+00	2.112789e+01
2.090000e-06	1.162701e-06	3.449393e-10	8.113681e+00	2.251324e+01
2.100000e-06	1.208160e-06	3.650954e-10	8.430913e+00	2.389139e+01
2.110000e-06	1.253569e-06	3.836650e-10	8.747788e+00	2.526113e+01
2.120000e-06	1.298925e-06	4.010821e-10	9.064295e+00	2.662128e+01
2.130000e-06	1.344172e-06	4.209165e-10	9.380043e+00	2.797068e+01
2.140000e-06	1.389363e-06	4.421261e-10	9.695400e+00	2.930822e+01
2.150000e-06	1.434501e-06	4.619738e-10	1.001039e+01	3.063283e+01
2.160000e-06	1.479443e-06	4.810083e-10	1.032401e+01	3.194345e+01
2.170000e-06	1.524328e-06	4.991497e-10	1.063723e+01	3.323912e+01
2.180000e-06	1.569111e-06	5.179861e-10	1.094974e+01	3.451889e+01
2.190000e-06	1.613669e-06	5.361723e-10	1.126068e+01	3.578189e+01
2.200000e-06	1.658161e-06	5.556397e-10	1.157116e+01	3.702729e+01
2.210000e-06	1.702597e-06	5.732017e-10	1.188125e+01	3.825433e+01
2.220000e-06	1.746864e-06	5.881452e-10	1.219015e+01	3.946230e+01
2.230000e-06	1.790941e-06	6.008708e-10	1.249773e+01	4.065059e+01
2.240000e-06	1.834868e-06	6.126078e-10	1.280427e+01	4.181860e+01
2.250000e-06	1.878687e-06	6.258256e-10	1.311005e+01	4.296584e+01
2.260000e-06	1.922459e-06	6.409730e-10	1.341550e+01	4.409187e+01
2.270000e-06	1.966175e-06	6.607069e-10	1.372057e+01	4.519631e+01
2.280000e-06	2.009794e-06	6.804969e-10	1.402496e+01	4.627887e+01
2.290000e-06	2.053387e-06	6.983424e-10	1.432916e+01	4.733930e+01
2.300000e-06	2.096943e-06	7.129008e-10	1.463311e+01	4.837742e+01
2.310000e-06	2.140438e-06	7.226112e-10	1.493663e+01	4.939312e+01
2.320000e-06	2.183867e-06	7.311326e-10	1.523969e+01	5.038635e+01
2.330000e-06	2.227198e-06	7.418188e-10	1.554207e+01	5.135712e+01
2.340000e-06	2.270351e-06	7.554872e-10	1.584321e+01	5.230549e+01
2.350000e-06	2.313308e-06	7.725115e-10	1.614297e+01	5.323158e+01
2.360000e-06	2.355932e-06	7.916861e-10	1.644042e+01	5.413555e+01
2.370000e-06	2.398181e-06	8.052156e-10	1.673524e+01	5.501762e+01
2.380000e-06	2.440242e-06	8.148256e-10	1.702876e+01	5.587806e+01
2.390000e-06	2.481922e-06	8.261146e-10	1.731961e+01	5.671715e+01
2.400000e-06	2.523153e-06	8.371135e-10	1.760733e+01	5.753525e+01
2.410000e-06	2.564124e-06	8.460574e-10	1.789324e+01	5.833271e+01
2.420000e-06	2.604793e-06	8.550951e-10	1.817704e+01	5.910994e+01
2.430000e-06	2.645188e-06	8.678562e-10	1.845893e+01	5.986736e+01
2.440000e-06	2.685431e-06	8.790561e-10	1.873976e+01	6.060543e+01
2.450000e-06	2.725521e-06	8.895006e-10	1.901952e+01	6.132460e+01
2.460000e-06	2.765430e-06	8.999431e-10	1.929802e+01	6.202536e+01
2.470000e-06	2.805182e-06	9.085316e-10	1.957542e+01	6.270820e+01
2.480000e-06	2.844804e-06	9.189748e-10	1.985192e+01	6.337362e+01
2.490000e-06	2.884287e-06	9.290509e-10	2.012744e+01	6.402211e+01
2.500000e-06	2.923653e-06	9.382479e-10	2.040215e+01	6.465419e+01
2.510000e-06	2.962896e-06	9.469991e-10	2.067600e+01	6.527035e+01
2.520000e-06	3.001979e-06	9.571603e-10	2.094873e+01	6.587110e+01
2.530000e-06	3.040865e-06	9.659222e-10	2.122009e+01	6.645692e+01
2.540000e-06	3.079538e-06	9.726725e-10	2.148996e+01	6.702829e+01
2.550000e-06	3.118061e-06	9.805448e-10	2.175878e+01	6.758568e+01
2.560000e-06	3.156313e-06	9.897460e-10	2.202572e+01	6.812956e+01
2.570000e-06	3.194194e-06	9.981125e-10	2.229006e+01	6.866035e+01
2.580000e-06	3.231852e-06	1.006205e-09	2.255285e+01	6.917849e+01
2.590000e-06	3.269353e-06	1.017761e-09	2.281454e+01	6.968439e+01
2.600000e-06	3.306682e-06	1.030245e-09	2.307504e+01	7.017843e+01
2.610000e-06	3.343803e-06	1.036381e-09	2.333408e+01	7.066100e+01
2.620000e-06	3.380707e-06	1.035552e-09	2.359160e+01	7.113243e+01
2.630000e-06	3.417385e-06	1.035426e-09	2.384756e+01	7.159307e+01
2.640000e-06	3.453703e-06	1.041305e-09	2.410100e+01	7.204324e+01
2.650000e-06	3.489721e-06	1.049169e-09	2.435234e+01	7.248323e+01
2.660000e-06	3.525578e-06	1.056884e-09	2.460256e+01	7.291331e+01
2.670000e-06	3.561280e-06	1.065046e-09	2.485170e+01	7.333376e+01
2.680000e-06	3.596875e-06	1.075361e-09	2.510009e+01	7.374482e+01
2.690000e-06	3.632395e-06	1.086280e-09	2.534796e+01	7.414672e+01
2.700000e-06	3.667808e-06	1.093637e-09	2.559509e+01	7.453966e+01
2.710000e-06	3.703077e-06	1.096618e-09	2.584121e+01	7.492386e+01
2.720000e-06	3.738092e-06	1.097753e-09	2.608555e+01	7.529949e+01
2.730000e-06	3.772669e-06	1.100634e-09	2.632684e+01	7.566673e+01
2.740000e-06	3.806749e-06	1.103487e-09	2.656466e+01	7.602574e+01
2.750000e-06	3.840335e-06	1.108111e-09	2.679903e+01	7.637669e+01
2.760000e-06	3.873449e-06	1.116721e-09	2.703011e+01	7.671970e+01
2.770000e-06	3.906042e-06	1.126065e-09	2.725756e+01	7.705491e+01
2.780000e-06	3.938202e-06	1.131764e-09	2.748198e+01	7.738246e+01
2.790000e-06	3.970168e-06	1.136028e-09	2.770504e+01	7.770246e+01
2.800000e-06	4.001969e-06	1.141151e-09	2.792696e+01	7.801504e+01
2.810000e-06	4.033559e-06	1.145306e-09	2.814741e+01	7.832030e+01
2.820000e-06	4.065012e-06	1.147715e-09	2.836690e+01	7.861834e+01
2.830000e-06	4.096323e-06	1.151460e-09	2.858539e+01	7.890928e+01
2.840000e-06	4.127378e-06	1.158190e-09	2.880211e+01	7.919321e+01
2.850000e-06	4.158074e-06	1.165997e-09	2.901631e+01	7.947023e+01
2.860000e-06	4.188399e-06	1.170903e-09	2.922793e+01	7.974044e+01
2.870000e-06	4.218479e-06	1.173511e-09	2.943784e+01	8.000392e+01
2.880000e-06	4.248289e-06	1.175532e-09	2.964586e+01	8.026076e+01
2.890000e-06	4.277768e-06	1.181292e-09	2.985157e+01	8.051104e+01
2.900000e-06	4.307058e-06	1.188887e-09	3.005597e+01	8.075487e+01
2.910000e-06	4.336059e-06	1.195438e-09	3.025835e+01	8.099230e+01
