# Temperatura_=_12.63
# Concentracion g/m^3_=_1620.0
# C_Vs_to_Am_M_A/Vsm_=_65563218390.804596
# pendiente_HvsI_1/m_=_3716.3
# ordenada_HvsI_A/m_=_1297.0
# frecuencia_Hz_=_135091.83071388231

Tiempo_(s)	Campo_(V.s)	Magnetizacion_(V.s)	Campo_(kA/m)	Magnetizacion_(A/m)
0.000000e+00	-5.526233e-06	-1.606403e-09	-3.838137e+01	-1.041316e+02
1.000000e-08	-5.526537e-06	-1.604002e-09	-3.838348e+01	-1.041374e+02
2.000000e-08	-5.526650e-06	-1.602646e-09	-3.838426e+01	-1.041402e+02
3.000000e-08	-5.526373e-06	-1.603461e-09	-3.838234e+01	-1.041399e+02
4.000000e-08	-5.525647e-06	-1.603055e-09	-3.837730e+01	-1.041363e+02
5.000000e-08	-5.524294e-06	-1.598318e-09	-3.836790e+01	-1.041291e+02
6.000000e-08	-5.522309e-06	-1.595514e-09	-3.835412e+01	-1.041181e+02
7.000000e-08	-5.519802e-06	-1.602505e-09	-3.833671e+01	-1.041031e+02
8.000000e-08	-5.516788e-06	-1.606315e-09	-3.831577e+01	-1.040840e+02
9.000000e-08	-5.513359e-06	-1.589308e-09	-3.829196e+01	-1.040604e+02
1.000000e-07	-5.509573e-06	-1.623571e-09	-3.826566e+01	-1.040322e+02
1.100000e-07	-5.505370e-06	-1.677186e-09	-3.823647e+01	-1.039990e+02
1.200000e-07	-5.500797e-06	-1.659835e-09	-3.820471e+01	-1.039608e+02
1.300000e-07	-5.495984e-06	-1.494173e-09	-3.817128e+01	-1.039173e+02
1.400000e-07	-5.490922e-06	-1.527670e-09	-3.813612e+01	-1.038683e+02
1.500000e-07	-5.485483e-06	-1.604674e-09	-3.809835e+01	-1.038136e+02
1.600000e-07	-5.479552e-06	-1.636914e-09	-3.805716e+01	-1.037530e+02
1.700000e-07	-5.473266e-06	-1.537318e-09	-3.801350e+01	-1.036864e+02
1.800000e-07	-5.466589e-06	-1.549984e-09	-3.796712e+01	-1.036137e+02
1.900000e-07	-5.459596e-06	-1.651492e-09	-3.791855e+01	-1.035347e+02
2.000000e-07	-5.452228e-06	-1.606398e-09	-3.786738e+01	-1.034493e+02
2.100000e-07	-5.444545e-06	-1.550472e-09	-3.781402e+01	-1.033574e+02
2.200000e-07	-5.436687e-06	-1.547600e-09	-3.775945e+01	-1.032590e+02
2.300000e-07	-5.428523e-06	-1.648756e-09	-3.770274e+01	-1.031539e+02
2.400000e-07	-5.419920e-06	-1.621425e-09	-3.764299e+01	-1.030422e+02
2.500000e-07	-5.410828e-06	-1.600424e-09	-3.757985e+01	-1.029238e+02
2.600000e-07	-5.401053e-06	-1.547935e-09	-3.751195e+01	-1.027987e+02
2.700000e-07	-5.390547e-06	-1.576711e-09	-3.743899e+01	-1.026670e+02
2.800000e-07	-5.379544e-06	-1.552471e-09	-3.736257e+01	-1.025286e+02
2.900000e-07	-5.368062e-06	-1.570944e-09	-3.728282e+01	-1.023836e+02
3.000000e-07	-5.356192e-06	-1.547316e-09	-3.720039e+01	-1.022321e+02
3.100000e-07	-5.343974e-06	-1.557900e-09	-3.711552e+01	-1.020741e+02
3.200000e-07	-5.331395e-06	-1.548172e-09	-3.702816e+01	-1.019097e+02
3.300000e-07	-5.318413e-06	-1.547740e-09	-3.693800e+01	-1.017391e+02
3.400000e-07	-5.304965e-06	-1.511232e-09	-3.684460e+01	-1.015621e+02
3.500000e-07	-5.291146e-06	-1.526565e-09	-3.674862e+01	-1.013791e+02
3.600000e-07	-5.276940e-06	-1.547671e-09	-3.664995e+01	-1.011901e+02
3.700000e-07	-5.262339e-06	-1.529086e-09	-3.654854e+01	-1.009952e+02
3.800000e-07	-5.247227e-06	-1.520003e-09	-3.644359e+01	-1.007945e+02
3.900000e-07	-5.231506e-06	-1.554549e-09	-3.633440e+01	-1.005881e+02
4.000000e-07	-5.215301e-06	-1.521208e-09	-3.622185e+01	-1.003761e+02
4.100000e-07	-5.198720e-06	-1.461833e-09	-3.610669e+01	-1.001587e+02
4.200000e-07	-5.181842e-06	-1.530417e-09	-3.598947e+01	-9.993591e+01
4.300000e-07	-5.164562e-06	-1.550418e-09	-3.586946e+01	-9.970784e+01
4.400000e-07	-5.146898e-06	-1.471244e-09	-3.574677e+01	-9.947460e+01
4.500000e-07	-5.128920e-06	-1.471183e-09	-3.562191e+01	-9.923625e+01
4.600000e-07	-5.110599e-06	-1.575132e-09	-3.549466e+01	-9.899287e+01
4.700000e-07	-5.091899e-06	-1.487485e-09	-3.536479e+01	-9.874453e+01
4.800000e-07	-5.072815e-06	-1.429107e-09	-3.523224e+01	-9.849127e+01
4.900000e-07	-5.053461e-06	-1.518527e-09	-3.509782e+01	-9.823315e+01
5.000000e-07	-5.033930e-06	-1.541231e-09	-3.496218e+01	-9.797019e+01
5.100000e-07	-5.014172e-06	-1.419305e-09	-3.482495e+01	-9.770244e+01
5.200000e-07	-4.994158e-06	-1.478208e-09	-3.468594e+01	-9.742989e+01
5.300000e-07	-4.973793e-06	-1.528133e-09	-3.454451e+01	-9.715257e+01
5.400000e-07	-4.953038e-06	-1.442090e-09	-3.440036e+01	-9.687047e+01
5.500000e-07	-4.931944e-06	-1.423305e-09	-3.425385e+01	-9.658359e+01
5.600000e-07	-4.910519e-06	-1.522127e-09	-3.410504e+01	-9.629192e+01
5.700000e-07	-4.888790e-06	-1.454486e-09	-3.395413e+01	-9.599542e+01
5.800000e-07	-4.866721e-06	-1.406824e-09	-3.380086e+01	-9.569409e+01
5.900000e-07	-4.844289e-06	-1.484258e-09	-3.364506e+01	-9.538789e+01
6.000000e-07	-4.821449e-06	-1.482600e-09	-3.348643e+01	-9.507680e+01
6.100000e-07	-4.798256e-06	-1.395197e-09	-3.332535e+01	-9.476078e+01
6.200000e-07	-4.774847e-06	-1.437582e-09	-3.316276e+01	-9.443980e+01
6.300000e-07	-4.751256e-06	-1.460191e-09	-3.299891e+01	-9.411383e+01
6.400000e-07	-4.727477e-06	-1.396968e-09	-3.283376e+01	-9.378285e+01
6.500000e-07	-4.703408e-06	-1.407640e-09	-3.266660e+01	-9.344682e+01
6.600000e-07	-4.678853e-06	-1.447547e-09	-3.249606e+01	-9.310574e+01
6.700000e-07	-4.653749e-06	-1.404466e-09	-3.232170e+01	-9.275958e+01
6.800000e-07	-4.628113e-06	-1.390855e-09	-3.214365e+01	-9.240834e+01
6.900000e-07	-4.601924e-06	-1.428375e-09	-3.196176e+01	-9.205202e+01
7.000000e-07	-4.575196e-06	-1.398959e-09	-3.177613e+01	-9.169063e+01
7.100000e-07	-4.548049e-06	-1.373821e-09	-3.158759e+01	-9.132417e+01
7.200000e-07	-4.520624e-06	-1.393351e-09	-3.139711e+01	-9.095267e+01
7.300000e-07	-4.493008e-06	-1.392157e-09	-3.120531e+01	-9.057618e+01
7.400000e-07	-4.465254e-06	-1.361116e-09	-3.101255e+01	-9.019472e+01
7.500000e-07	-4.437276e-06	-1.374405e-09	-3.081823e+01	-8.980835e+01
7.600000e-07	-4.409020e-06	-1.367677e-09	-3.062198e+01	-8.941713e+01
7.700000e-07	-4.380465e-06	-1.350192e-09	-3.042366e+01	-8.902113e+01
7.800000e-07	-4.351527e-06	-1.345655e-09	-3.022268e+01	-8.862042e+01
7.900000e-07	-4.322302e-06	-1.351248e-09	-3.001971e+01	-8.821509e+01
8.000000e-07	-4.292844e-06	-1.327344e-09	-2.981511e+01	-8.780523e+01
8.100000e-07	-4.263067e-06	-1.327651e-09	-2.960830e+01	-8.739093e+01
8.200000e-07	-4.233015e-06	-1.326630e-09	-2.939958e+01	-8.697229e+01
8.300000e-07	-4.202628e-06	-1.312682e-09	-2.918853e+01	-8.654942e+01
8.400000e-07	-4.171909e-06	-1.295232e-09	-2.897518e+01	-8.612241e+01
8.500000e-07	-4.140946e-06	-1.304507e-09	-2.876013e+01	-8.569139e+01
8.600000e-07	-4.109768e-06	-1.290855e-09	-2.854359e+01	-8.525644e+01
8.700000e-07	-4.078385e-06	-1.276806e-09	-2.832563e+01	-8.481767e+01
8.800000e-07	-4.046811e-06	-1.275875e-09	-2.810633e+01	-8.437518e+01
8.900000e-07	-4.015034e-06	-1.276081e-09	-2.788563e+01	-8.392907e+01
9.000000e-07	-3.983030e-06	-1.256349e-09	-2.766336e+01	-8.347942e+01
9.100000e-07	-3.950795e-06	-1.251340e-09	-2.743947e+01	-8.302632e+01
9.200000e-07	-3.918302e-06	-1.249707e-09	-2.721380e+01	-8.256983e+01
9.300000e-07	-3.885402e-06	-1.233305e-09	-2.698530e+01	-8.211001e+01
9.400000e-07	-3.851963e-06	-1.221532e-09	-2.675306e+01	-8.164691e+01
9.500000e-07	-3.818044e-06	-1.223937e-09	-2.651747e+01	-8.118058e+01
9.600000e-07	-3.783615e-06	-1.214098e-09	-2.627836e+01	-8.071103e+01
9.700000e-07	-3.748705e-06	-1.192677e-09	-2.603590e+01	-8.023828e+01
9.800000e-07	-3.713533e-06	-1.188874e-09	-2.579162e+01	-7.976232e+01
9.900000e-07	-3.678172e-06	-1.185679e-09	-2.554602e+01	-7.928314e+01
1.000000e-06	-3.642643e-06	-1.172654e-09	-2.529927e+01	-7.880071e+01
1.010000e-06	-3.607020e-06	-1.163420e-09	-2.505185e+01	-7.831496e+01
1.020000e-06	-3.571300e-06	-1.164785e-09	-2.480376e+01	-7.782586e+01
1.030000e-06	-3.535426e-06	-1.153186e-09	-2.455461e+01	-7.733331e+01
1.040000e-06	-3.499343e-06	-1.145245e-09	-2.430400e+01	-7.683723e+01
1.050000e-06	-3.463030e-06	-1.139478e-09	-2.405180e+01	-7.633751e+01
1.060000e-06	-3.426365e-06	-1.131206e-09	-2.379715e+01	-7.583404e+01
1.070000e-06	-3.389325e-06	-1.113646e-09	-2.353989e+01	-7.532669e+01
1.080000e-06	-3.352029e-06	-1.109613e-09	-2.328086e+01	-7.481533e+01
1.090000e-06	-3.314531e-06	-1.103139e-09	-2.302043e+01	-7.429980e+01
1.100000e-06	-3.276893e-06	-1.093593e-09	-2.275902e+01	-7.377996e+01
1.110000e-06	-3.239086e-06	-1.082065e-09	-2.249644e+01	-7.325564e+01
1.120000e-06	-3.200996e-06	-1.077325e-09	-2.223189e+01	-7.272668e+01
1.130000e-06	-3.162674e-06	-1.065426e-09	-2.196574e+01	-7.219291e+01
1.140000e-06	-3.124082e-06	-1.055561e-09	-2.169770e+01	-7.165415e+01
1.150000e-06	-3.085305e-06	-1.047826e-09	-2.142838e+01	-7.111024e+01
1.160000e-06	-3.046363e-06	-1.040948e-09	-2.115792e+01	-7.056100e+01
1.170000e-06	-3.007181e-06	-1.029128e-09	-2.088579e+01	-7.000627e+01
1.180000e-06	-2.967831e-06	-1.022956e-09	-2.061249e+01	-6.944587e+01
1.190000e-06	-2.928311e-06	-1.017224e-09	-2.033801e+01	-6.887966e+01
1.200000e-06	-2.888707e-06	-1.009104e-09	-2.006295e+01	-6.830747e+01
1.210000e-06	-2.848954e-06	-1.001272e-09	-1.978685e+01	-6.772916e+01
1.220000e-06	-2.809033e-06	-9.943776e-10	-1.950959e+01	-6.714459e+01
1.230000e-06	-2.769029e-06	-9.812560e-10	-1.923175e+01	-6.655362e+01
1.240000e-06	-2.728879e-06	-9.687177e-10	-1.895289e+01	-6.595614e+01
1.250000e-06	-2.688405e-06	-9.598631e-10	-1.867179e+01	-6.535203e+01
1.260000e-06	-2.647711e-06	-9.489652e-10	-1.838916e+01	-6.474118e+01
1.270000e-06	-2.606790e-06	-9.368018e-10	-1.810495e+01	-6.412350e+01
1.280000e-06	-2.565501e-06	-9.264713e-10	-1.781819e+01	-6.349890e+01
1.290000e-06	-2.523876e-06	-9.202993e-10	-1.752908e+01	-6.286730e+01
1.300000e-06	-2.481970e-06	-9.106152e-10	-1.723803e+01	-6.222864e+01
1.310000e-06	-2.439899e-06	-8.982833e-10	-1.694584e+01	-6.158284e+01
1.320000e-06	-2.397538e-06	-8.833186e-10	-1.665163e+01	-6.092984e+01
1.330000e-06	-2.354841e-06	-8.710686e-10	-1.635508e+01	-6.026958e+01
1.340000e-06	-2.311858e-06	-8.607786e-10	-1.605656e+01	-5.960201e+01
1.350000e-06	-2.268659e-06	-8.548817e-10	-1.575653e+01	-5.892707e+01
1.360000e-06	-2.225293e-06	-8.446890e-10	-1.545534e+01	-5.824471e+01
1.370000e-06	-2.181819e-06	-8.339926e-10	-1.515340e+01	-5.755486e+01
1.380000e-06	-2.138289e-06	-8.232910e-10	-1.485107e+01	-5.685746e+01
1.390000e-06	-2.094664e-06	-8.147476e-10	-1.454808e+01	-5.615243e+01
1.400000e-06	-2.050957e-06	-8.005135e-10	-1.424452e+01	-5.543969e+01
1.410000e-06	-2.007192e-06	-7.868136e-10	-1.394056e+01	-5.471914e+01
1.420000e-06	-1.963402e-06	-7.750505e-10	-1.363642e+01	-5.399067e+01
1.430000e-06	-1.919525e-06	-7.667858e-10	-1.333168e+01	-5.325416e+01
1.440000e-06	-1.875566e-06	-7.576183e-10	-1.302637e+01	-5.250947e+01
1.450000e-06	-1.831451e-06	-7.489374e-10	-1.271998e+01	-5.175642e+01
1.460000e-06	-1.787170e-06	-7.386660e-10	-1.241244e+01	-5.099484e+01
1.470000e-06	-1.742738e-06	-7.246593e-10	-1.210385e+01	-5.022453e+01
1.480000e-06	-1.698180e-06	-7.069886e-10	-1.179438e+01	-4.944524e+01
1.490000e-06	-1.653584e-06	-6.918155e-10	-1.148464e+01	-4.865673e+01
1.500000e-06	-1.608775e-06	-6.784401e-10	-1.117343e+01	-4.785872e+01
1.510000e-06	-1.563699e-06	-6.663607e-10	-1.086037e+01	-4.705091e+01
1.520000e-06	-1.518550e-06	-6.548806e-10	-1.054679e+01	-4.623296e+01
1.530000e-06	-1.473316e-06	-6.453178e-10	-1.023262e+01	-4.540453e+01
1.540000e-06	-1.427935e-06	-6.328164e-10	-9.917440e+00	-4.456523e+01
1.550000e-06	-1.382562e-06	-6.156976e-10	-9.602313e+00	-4.371467e+01
1.560000e-06	-1.337159e-06	-5.983871e-10	-9.286978e+00	-4.285242e+01
1.570000e-06	-1.291724e-06	-5.799177e-10	-8.971419e+00	-4.197805e+01
1.580000e-06	-1.246243e-06	-5.622328e-10	-8.655535e+00	-4.109109e+01
1.590000e-06	-1.200574e-06	-5.484938e-10	-8.338351e+00	-4.019107e+01
1.600000e-06	-1.154813e-06	-5.402844e-10	-8.020526e+00	-3.927750e+01
1.610000e-06	-1.108930e-06	-5.284137e-10	-7.701855e+00	-3.834990e+01
1.620000e-06	-1.062928e-06	-5.121294e-10	-7.382359e+00	-3.740777e+01
1.630000e-06	-1.016850e-06	-4.971690e-10	-7.062333e+00	-3.645060e+01
1.640000e-06	-9.706279e-07	-4.842880e-10	-6.741306e+00	-3.547790e+01
1.650000e-06	-9.243017e-07	-4.670328e-10	-6.419556e+00	-3.448918e+01
1.660000e-06	-8.778688e-07	-4.498121e-10	-6.097066e+00	-3.348397e+01
1.670000e-06	-8.314650e-07	-4.336001e-10	-5.774777e+00	-3.246180e+01
1.680000e-06	-7.850458e-07	-4.160869e-10	-5.452382e+00	-3.142223e+01
1.690000e-06	-7.385463e-07	-3.987180e-10	-5.129429e+00	-3.036486e+01
1.700000e-06	-6.920338e-07	-3.848919e-10	-4.806386e+00	-2.928931e+01
1.710000e-06	-6.454261e-07	-3.706917e-10	-4.482681e+00	-2.819522e+01
1.720000e-06	-5.988050e-07	-3.553547e-10	-4.158883e+00	-2.708229e+01
1.730000e-06	-5.522461e-07	-3.352676e-10	-3.835517e+00	-2.595028e+01
1.740000e-06	-5.055707e-07	-3.129189e-10	-3.511342e+00	-2.479896e+01
1.750000e-06	-4.588399e-07	-2.908902e-10	-3.186783e+00	-2.362820e+01
1.760000e-06	-4.120878e-07	-2.732828e-10	-2.862075e+00	-2.243789e+01
1.770000e-06	-3.652279e-07	-2.581564e-10	-2.536619e+00	-2.122800e+01
1.780000e-06	-3.183603e-07	-2.418019e-10	-2.211109e+00	-1.999858e+01
1.790000e-06	-2.714965e-07	-2.247713e-10	-1.885626e+00	-1.874972e+01
1.800000e-06	-2.246876e-07	-2.077462e-10	-1.560524e+00	-1.748160e+01
1.810000e-06	-1.778743e-07	-1.883494e-10	-1.235391e+00	-1.619448e+01
1.820000e-06	-1.310089e-07	-1.668915e-10	-9.098968e-01	-1.488868e+01
1.830000e-06	-8.417403e-08	-1.476238e-10	-5.846143e-01	-1.356461e+01
1.840000e-06	-3.728169e-08	-1.315713e-10	-2.589327e-01	-1.222274e+01
1.850000e-06	9.646797e-09	-1.157701e-10	6.699994e-02	-1.086364e+01
1.860000e-06	5.651597e-08	-9.829792e-11	3.925206e-01	-9.487940e+00
1.870000e-06	1.033648e-07	-8.041998e-11	7.179003e-01	-8.096361e+00
1.880000e-06	1.502143e-07	-5.971270e-11	1.043284e+00	-6.689688e+00
1.890000e-06	1.970753e-07	-3.669675e-11	1.368748e+00	-5.268783e+00
1.900000e-06	2.439553e-07	-1.366262e-11	1.694344e+00	-3.834576e+00
1.910000e-06	2.908193e-07	7.245419e-12	2.019829e+00	-2.388066e+00
1.920000e-06	3.376146e-07	2.628301e-11	2.344836e+00	-9.303138e-01
1.930000e-06	3.843632e-07	4.222446e-11	2.669520e+00	5.375618e-01
1.940000e-06	4.311090e-07	5.994915e-11	2.994183e+00	2.014387e+00
1.950000e-06	4.778074e-07	8.233323e-11	3.318517e+00	3.498941e+00
1.960000e-06	5.244302e-07	1.054430e-10	3.642327e+00	4.989958e+00
1.970000e-06	5.709448e-07	1.278730e-10	3.965386e+00	6.486136e+00
1.980000e-06	6.174408e-07	1.488207e-10	4.288314e+00	7.986142e+00
1.990000e-06	6.639666e-07	1.677181e-10	4.611450e+00	9.488621e+00
2.000000e-06	7.104963e-07	1.875526e-10	4.934613e+00	1.099220e+01
2.010000e-06	7.568993e-07	2.066807e-10	5.256896e+00	1.249549e+01
2.020000e-06	8.031546e-07	2.278969e-10	5.578153e+00	1.399710e+01
2.030000e-06	8.494106e-07	2.517065e-10	5.899415e+00	1.549565e+01
2.040000e-06	8.955980e-07	2.751317e-10	6.220200e+00	1.698977e+01
2.050000e-06	9.417773e-07	2.966195e-10	6.540930e+00	1.847809e+01
2.060000e-06	9.879274e-07	3.172403e-10	6.861456e+00	1.995930e+01
2.070000e-06	1.033944e-06	3.365762e-10	7.181058e+00	2.143208e+01
2.080000e-06	1.079884e-06	3.564128e-10	7.500124e+00	2.289517e+01
2.090000e-06	1.125833e-06	3.764026e-10	7.819254e+00	2.434735e+01
2.100000e-06	1.171734e-06	3.977971e-10	8.138052e+00	2.578745e+01
2.110000e-06	1.217426e-06	4.193177e-10	8.455391e+00	2.721436e+01
2.120000e-06	1.262924e-06	4.363600e-10	8.771392e+00	2.862702e+01
2.130000e-06	1.308468e-06	4.526345e-10	9.087707e+00	3.002444e+01
2.140000e-06	1.353960e-06	4.706969e-10	9.403661e+00	3.140570e+01
2.150000e-06	1.399308e-06	4.914716e-10	9.718619e+00	3.276994e+01
2.160000e-06	1.444568e-06	5.137471e-10	1.003296e+01	3.411640e+01
2.170000e-06	1.489709e-06	5.359137e-10	1.034648e+01	3.544436e+01
2.180000e-06	1.534688e-06	5.571504e-10	1.065888e+01	3.675321e+01
2.190000e-06	1.579591e-06	5.797978e-10	1.097074e+01	3.804241e+01
2.200000e-06	1.624466e-06	5.964020e-10	1.128241e+01	3.931151e+01
2.210000e-06	1.669146e-06	6.114218e-10	1.159272e+01	4.056011e+01
2.220000e-06	1.713726e-06	6.239684e-10	1.190235e+01	4.178793e+01
2.230000e-06	1.758201e-06	6.366303e-10	1.221124e+01	4.299474e+01
2.240000e-06	1.802469e-06	6.536040e-10	1.251870e+01	4.418041e+01
2.250000e-06	1.846592e-06	6.728937e-10	1.282514e+01	4.534486e+01
2.260000e-06	1.890620e-06	6.953768e-10	1.313093e+01	4.648809e+01
2.270000e-06	1.934576e-06	7.148445e-10	1.343622e+01	4.761018e+01
2.280000e-06	1.978447e-06	7.355583e-10	1.374092e+01	4.871128e+01
2.290000e-06	2.022212e-06	7.502141e-10	1.404488e+01	4.979157e+01
2.300000e-06	2.065897e-06	7.630538e-10	1.434828e+01	5.085131e+01
2.310000e-06	2.109528e-06	7.724949e-10	1.465131e+01	5.189082e+01
2.320000e-06	2.153142e-06	7.847205e-10	1.495423e+01	5.291044e+01
2.330000e-06	2.196637e-06	8.020724e-10	1.525631e+01	5.391057e+01
2.340000e-06	2.239995e-06	8.186469e-10	1.555745e+01	5.489165e+01
2.350000e-06	2.283338e-06	8.362856e-10	1.585848e+01	5.585414e+01
2.360000e-06	2.326511e-06	8.537608e-10	1.615832e+01	5.679853e+01
2.370000e-06	2.369379e-06	8.707361e-10	1.645606e+01	5.772534e+01
2.380000e-06	2.412083e-06	8.781417e-10	1.675265e+01	5.863508e+01
2.390000e-06	2.454522e-06	8.811574e-10	1.704740e+01	5.952829e+01
2.400000e-06	2.496491e-06	8.908009e-10	1.733889e+01	6.040552e+01
2.410000e-06	2.538121e-06	9.030009e-10	1.762802e+01	6.126730e+01
2.420000e-06	2.579463e-06	9.171876e-10	1.791515e+01	6.211417e+01
2.430000e-06	2.620539e-06	9.336825e-10	1.820044e+01	6.294665e+01
2.440000e-06	2.661298e-06	9.512594e-10	1.848352e+01	6.376525e+01
2.450000e-06	2.701682e-06	9.630010e-10	1.876400e+01	6.457048e+01
2.460000e-06	2.741842e-06	9.686546e-10	1.904293e+01	6.536280e+01
2.470000e-06	2.781832e-06	9.793765e-10	1.932067e+01	6.614267e+01
2.480000e-06	2.821760e-06	9.898315e-10	1.959798e+01	6.691052e+01
2.490000e-06	2.861563e-06	1.001047e-09	1.987442e+01	6.766674e+01
2.500000e-06	2.901271e-06	1.013768e-09	2.015021e+01	6.841169e+01
2.510000e-06	2.940834e-06	1.026063e-09	2.042499e+01	6.914573e+01
2.520000e-06	2.980192e-06	1.037709e-09	2.069834e+01	6.986915e+01
2.530000e-06	3.019404e-06	1.048569e-09	2.097068e+01	7.058223e+01
2.540000e-06	3.058397e-06	1.056502e-09	2.124150e+01	7.128521e+01
2.550000e-06	3.097250e-06	1.062136e-09	2.151135e+01	7.197831e+01
2.560000e-06	3.135893e-06	1.069264e-09	2.177973e+01	7.266170e+01
2.570000e-06	3.174282e-06	1.079228e-09	2.204635e+01	7.333554e+01
2.580000e-06	3.212452e-06	1.090094e-09	2.231145e+01	7.399995e+01
2.590000e-06	3.250342e-06	1.103609e-09	2.257461e+01	7.465503e+01
2.600000e-06	3.287986e-06	1.115563e-09	2.283606e+01	7.530085e+01
2.610000e-06	3.325445e-06	1.123623e-09	2.309622e+01	7.593747e+01
2.620000e-06	3.362721e-06	1.126641e-09	2.335512e+01	7.656491e+01
2.630000e-06	3.399801e-06	1.128758e-09	2.361265e+01	7.718320e+01
2.640000e-06	3.436577e-06	1.133166e-09	2.386807e+01	7.779234e+01
2.650000e-06	3.473045e-06	1.142121e-09	2.412135e+01	7.839233e+01
2.660000e-06	3.509254e-06	1.154932e-09	2.437284e+01	7.898314e+01
2.670000e-06	3.545261e-06	1.166466e-09	2.462292e+01	7.956475e+01
2.680000e-06	3.581157e-06	1.176781e-09	2.487222e+01	8.013715e+01
2.690000e-06	3.616895e-06	1.187386e-09	2.512044e+01	8.070031e+01
2.700000e-06	3.652469e-06	1.195189e-09	2.536751e+01	8.125421e+01
2.710000e-06	3.687831e-06	1.198501e-09	2.561311e+01	8.179884e+01
2.720000e-06	3.723019e-06	1.201738e-09	2.585750e+01	8.233420e+01
2.730000e-06	3.757952e-06	1.207505e-09	2.610012e+01	8.286028e+01
2.740000e-06	3.792537e-06	1.216482e-09	2.634032e+01	8.337711e+01
2.750000e-06	3.826788e-06	1.226545e-09	2.657821e+01	8.388472e+01
2.760000e-06	3.860583e-06	1.237074e-09	2.681292e+01	8.438314e+01
2.770000e-06	3.893896e-06	1.244418e-09	2.704429e+01	8.487245e+01
2.780000e-06	3.926728e-06	1.249274e-09	2.727232e+01	8.535271e+01
2.790000e-06	3.959224e-06	1.253531e-09	2.749802e+01	8.582403e+01
2.800000e-06	3.991414e-06	1.258252e-09	2.772159e+01	8.628651e+01
2.810000e-06	4.023328e-06	1.263398e-09	2.794324e+01	8.674029e+01
2.820000e-06	4.055054e-06	1.270303e-09	2.816358e+01	8.718550e+01
2.830000e-06	4.086572e-06	1.279580e-09	2.838248e+01	8.762231e+01
2.840000e-06	4.117934e-06	1.290109e-09	2.860030e+01	8.805091e+01
2.850000e-06	4.149088e-06	1.299636e-09	2.881668e+01	8.847147e+01
2.860000e-06	4.179946e-06	1.308759e-09	2.903099e+01	8.888420e+01
2.870000e-06	4.210542e-06	1.313331e-09	2.924349e+01	8.928932e+01
2.880000e-06	4.240887e-06	1.313573e-09	2.945425e+01	8.968705e+01
2.890000e-06	4.270967e-06	1.315624e-09	2.966316e+01	9.007761e+01
2.900000e-06	4.300677e-06	1.322556e-09	2.986951e+01	9.046125e+01
