# Temperatura_=_-0.7
# Concentracion g/m^3_=_1620.0
# C_Vs_to_Am_M_A/Vsm_=_65563218390.804596
# pendiente_HvsI_1/m_=_3716.3
# ordenada_HvsI_A/m_=_1297.0
# frecuencia_Hz_=_135100.29024103784

Tiempo_(s)	Campo_(V.s)	Magnetizacion_(V.s)	Campo_(kA/m)	Magnetizacion_(A/m)
0.000000e+00	-5.523025e-06	-1.266142e-09	-3.836737e+01	-8.422038e+01
1.000000e-08	-5.523128e-06	-1.265131e-09	-3.836808e+01	-8.416269e+01
2.000000e-08	-5.523007e-06	-1.266319e-09	-3.836724e+01	-8.410469e+01
3.000000e-08	-5.522508e-06	-1.268670e-09	-3.836377e+01	-8.404641e+01
4.000000e-08	-5.521504e-06	-1.266662e-09	-3.835680e+01	-8.398789e+01
5.000000e-08	-5.520011e-06	-1.252165e-09	-3.834643e+01	-8.392913e+01
6.000000e-08	-5.518009e-06	-1.235369e-09	-3.833252e+01	-8.387014e+01
7.000000e-08	-5.515338e-06	-1.249512e-09	-3.831397e+01	-8.381094e+01
8.000000e-08	-5.512093e-06	-1.305998e-09	-3.829142e+01	-8.375152e+01
9.000000e-08	-5.508383e-06	-1.397241e-09	-3.826565e+01	-8.369186e+01
1.000000e-07	-5.504235e-06	-1.381508e-09	-3.823684e+01	-8.363194e+01
1.100000e-07	-5.499804e-06	-1.200717e-09	-3.820605e+01	-8.357174e+01
1.200000e-07	-5.495261e-06	-1.137384e-09	-3.817450e+01	-8.351121e+01
1.300000e-07	-5.490489e-06	-1.277542e-09	-3.814135e+01	-8.345030e+01
1.400000e-07	-5.485194e-06	-1.350094e-09	-3.810456e+01	-8.338896e+01
1.500000e-07	-5.479384e-06	-1.223755e-09	-3.806420e+01	-8.332712e+01
1.600000e-07	-5.473361e-06	-1.128105e-09	-3.802236e+01	-8.326469e+01
1.700000e-07	-5.466965e-06	-1.305851e-09	-3.797793e+01	-8.320158e+01
1.800000e-07	-5.459967e-06	-1.408031e-09	-3.792932e+01	-8.313768e+01
1.900000e-07	-5.452610e-06	-1.275146e-09	-3.787821e+01	-8.307288e+01
2.000000e-07	-5.445058e-06	-1.136040e-09	-3.782575e+01	-8.300705e+01
2.100000e-07	-5.437283e-06	-1.225939e-09	-3.777174e+01	-8.294006e+01
2.200000e-07	-5.429236e-06	-1.335654e-09	-3.771584e+01	-8.287174e+01
2.300000e-07	-5.420950e-06	-1.277027e-09	-3.765828e+01	-8.280194e+01
2.400000e-07	-5.412303e-06	-1.195907e-09	-3.759820e+01	-8.273049e+01
2.500000e-07	-5.402891e-06	-1.234174e-09	-3.753282e+01	-8.265720e+01
2.600000e-07	-5.392665e-06	-1.282682e-09	-3.746178e+01	-8.258188e+01
2.700000e-07	-5.381988e-06	-1.232621e-09	-3.738761e+01	-8.250433e+01
2.800000e-07	-5.370829e-06	-1.204444e-09	-3.731009e+01	-8.242434e+01
2.900000e-07	-5.359204e-06	-1.238460e-09	-3.722933e+01	-8.234169e+01
3.000000e-07	-5.347265e-06	-1.266176e-09	-3.714640e+01	-8.225616e+01
3.100000e-07	-5.334894e-06	-1.223047e-09	-3.706046e+01	-8.216753e+01
3.200000e-07	-5.321950e-06	-1.207236e-09	-3.697054e+01	-8.207556e+01
3.300000e-07	-5.308643e-06	-1.220286e-09	-3.687810e+01	-8.198002e+01
3.400000e-07	-5.295092e-06	-1.255789e-09	-3.678396e+01	-8.188068e+01
3.500000e-07	-5.281091e-06	-1.238159e-09	-3.668670e+01	-8.177732e+01
3.600000e-07	-5.266670e-06	-1.216994e-09	-3.658652e+01	-8.166969e+01
3.700000e-07	-5.251925e-06	-1.238745e-09	-3.648409e+01	-8.155759e+01
3.800000e-07	-5.236571e-06	-1.262665e-09	-3.637743e+01	-8.144079e+01
3.900000e-07	-5.220461e-06	-1.215325e-09	-3.626551e+01	-8.131909e+01
4.000000e-07	-5.203917e-06	-1.211402e-09	-3.615059e+01	-8.119229e+01
4.100000e-07	-5.187079e-06	-1.256885e-09	-3.603361e+01	-8.106020e+01
4.200000e-07	-5.169831e-06	-1.217321e-09	-3.591380e+01	-8.092265e+01
4.300000e-07	-5.152253e-06	-1.160826e-09	-3.579169e+01	-8.077949e+01
4.400000e-07	-5.134524e-06	-1.243735e-09	-3.566853e+01	-8.063057e+01
4.500000e-07	-5.116421e-06	-1.276102e-09	-3.554277e+01	-8.047577e+01
4.600000e-07	-5.097710e-06	-1.170999e-09	-3.541279e+01	-8.031498e+01
4.700000e-07	-5.078649e-06	-1.176430e-09	-3.528038e+01	-8.014813e+01
4.800000e-07	-5.059380e-06	-1.266947e-09	-3.514652e+01	-7.997516e+01
4.900000e-07	-5.039810e-06	-1.204858e-09	-3.501057e+01	-7.979602e+01
5.000000e-07	-5.019984e-06	-1.148575e-09	-3.487284e+01	-7.961070e+01
5.100000e-07	-5.000020e-06	-1.231301e-09	-3.473416e+01	-7.941922e+01
5.200000e-07	-4.979718e-06	-1.216026e-09	-3.459312e+01	-7.922159e+01
5.300000e-07	-4.958977e-06	-1.145472e-09	-3.444904e+01	-7.901788e+01
5.400000e-07	-4.937959e-06	-1.224486e-09	-3.430303e+01	-7.880818e+01
5.500000e-07	-4.916602e-06	-1.254743e-09	-3.415467e+01	-7.859258e+01
5.600000e-07	-4.894884e-06	-1.138193e-09	-3.400379e+01	-7.837121e+01
5.700000e-07	-4.872899e-06	-1.157796e-09	-3.385107e+01	-7.814422e+01
5.800000e-07	-4.850605e-06	-1.243008e-09	-3.369620e+01	-7.791179e+01
5.900000e-07	-4.827924e-06	-1.176091e-09	-3.353864e+01	-7.767410e+01
6.000000e-07	-4.804899e-06	-1.136789e-09	-3.337869e+01	-7.743136e+01
6.100000e-07	-4.781574e-06	-1.213660e-09	-3.321665e+01	-7.718381e+01
6.200000e-07	-4.757998e-06	-1.181186e-09	-3.305287e+01	-7.693167e+01
6.300000e-07	-4.734183e-06	-1.118155e-09	-3.288744e+01	-7.667521e+01
6.400000e-07	-4.710167e-06	-1.167443e-09	-3.272060e+01	-7.641468e+01
6.500000e-07	-4.685848e-06	-1.182406e-09	-3.255167e+01	-7.615037e+01
6.600000e-07	-4.660982e-06	-1.126951e-09	-3.237892e+01	-7.588255e+01
6.700000e-07	-4.635606e-06	-1.156081e-09	-3.220264e+01	-7.561149e+01
6.800000e-07	-4.609844e-06	-1.185395e-09	-3.202368e+01	-7.533748e+01
6.900000e-07	-4.583491e-06	-1.141647e-09	-3.184061e+01	-7.506081e+01
7.000000e-07	-4.556598e-06	-1.135173e-09	-3.165379e+01	-7.478174e+01
7.100000e-07	-4.529375e-06	-1.164464e-09	-3.146468e+01	-7.450054e+01
7.200000e-07	-4.501832e-06	-1.137297e-09	-3.127334e+01	-7.421748e+01
7.300000e-07	-4.474060e-06	-1.118248e-09	-3.108041e+01	-7.393279e+01
7.400000e-07	-4.446082e-06	-1.138313e-09	-3.088605e+01	-7.364669e+01
7.500000e-07	-4.417911e-06	-1.130902e-09	-3.069036e+01	-7.335942e+01
7.600000e-07	-4.389500e-06	-1.107349e-09	-3.049299e+01	-7.307115e+01
7.700000e-07	-4.360712e-06	-1.111998e-09	-3.029301e+01	-7.278205e+01
7.800000e-07	-4.331598e-06	-1.109847e-09	-3.009076e+01	-7.249227e+01
7.900000e-07	-4.302190e-06	-1.095125e-09	-2.988646e+01	-7.220193e+01
8.000000e-07	-4.272520e-06	-1.098551e-09	-2.968036e+01	-7.191113e+01
8.100000e-07	-4.242633e-06	-1.096914e-09	-2.947274e+01	-7.161992e+01
8.200000e-07	-4.212464e-06	-1.078472e-09	-2.926316e+01	-7.132835e+01
8.300000e-07	-4.181997e-06	-1.074326e-09	-2.905151e+01	-7.103642e+01
8.400000e-07	-4.151080e-06	-1.079218e-09	-2.883674e+01	-7.074410e+01
8.500000e-07	-4.119851e-06	-1.062173e-09	-2.861980e+01	-7.045135e+01
8.600000e-07	-4.088482e-06	-1.055989e-09	-2.840188e+01	-7.015808e+01
8.700000e-07	-4.056880e-06	-1.064240e-09	-2.818235e+01	-6.986418e+01
8.800000e-07	-4.025094e-06	-1.057799e-09	-2.796153e+01	-6.956951e+01
8.900000e-07	-3.993174e-06	-1.045258e-09	-2.773979e+01	-6.927390e+01
9.000000e-07	-3.961094e-06	-1.045303e-09	-2.751694e+01	-6.897717e+01
9.100000e-07	-3.928739e-06	-1.033308e-09	-2.729218e+01	-6.867909e+01
9.200000e-07	-3.896013e-06	-1.013934e-09	-2.706484e+01	-6.837943e+01
9.300000e-07	-3.862775e-06	-1.011801e-09	-2.683394e+01	-6.807793e+01
9.400000e-07	-3.829027e-06	-1.013316e-09	-2.659950e+01	-6.777432e+01
9.500000e-07	-3.794921e-06	-9.995634e-10	-2.636257e+01	-6.746830e+01
9.600000e-07	-3.760377e-06	-9.948712e-10	-2.612260e+01	-6.715959e+01
9.700000e-07	-3.725453e-06	-9.943566e-10	-2.587999e+01	-6.684786e+01
9.800000e-07	-3.690254e-06	-9.833843e-10	-2.563547e+01	-6.653281e+01
9.900000e-07	-3.654744e-06	-9.750232e-10	-2.538879e+01	-6.621412e+01
1.000000e-06	-3.619020e-06	-9.770091e-10	-2.514062e+01	-6.589148e+01
1.010000e-06	-3.583176e-06	-9.707128e-10	-2.489162e+01	-6.556456e+01
1.020000e-06	-3.547225e-06	-9.583580e-10	-2.464187e+01	-6.523306e+01
1.030000e-06	-3.511113e-06	-9.570334e-10	-2.439101e+01	-6.489670e+01
1.040000e-06	-3.474819e-06	-9.573249e-10	-2.413889e+01	-6.455517e+01
1.050000e-06	-3.438284e-06	-9.483741e-10	-2.388508e+01	-6.420822e+01
1.060000e-06	-3.401449e-06	-9.418403e-10	-2.362920e+01	-6.385560e+01
1.070000e-06	-3.364294e-06	-9.379097e-10	-2.337109e+01	-6.349706e+01
1.080000e-06	-3.326816e-06	-9.264661e-10	-2.311074e+01	-6.313242e+01
1.090000e-06	-3.289069e-06	-9.145707e-10	-2.284851e+01	-6.276148e+01
1.100000e-06	-3.251187e-06	-9.101340e-10	-2.258536e+01	-6.238408e+01
1.110000e-06	-3.213170e-06	-9.025934e-10	-2.232126e+01	-6.200009e+01
1.120000e-06	-3.174881e-06	-8.931311e-10	-2.205527e+01	-6.160942e+01
1.130000e-06	-3.136324e-06	-8.913130e-10	-2.178743e+01	-6.121199e+01
1.140000e-06	-3.097572e-06	-8.883033e-10	-2.151822e+01	-6.080775e+01
1.150000e-06	-3.058670e-06	-8.768717e-10	-2.124798e+01	-6.039669e+01
1.160000e-06	-3.019547e-06	-8.659983e-10	-2.097620e+01	-5.997882e+01
1.170000e-06	-2.980199e-06	-8.597244e-10	-2.070286e+01	-5.955418e+01
1.180000e-06	-2.940674e-06	-8.527005e-10	-2.042829e+01	-5.912284e+01
1.190000e-06	-2.901003e-06	-8.483984e-10	-2.015270e+01	-5.868489e+01
1.200000e-06	-2.861215e-06	-8.478588e-10	-1.987630e+01	-5.824044e+01
1.210000e-06	-2.821298e-06	-8.451493e-10	-1.959900e+01	-5.778962e+01
1.220000e-06	-2.781256e-06	-8.373751e-10	-1.932084e+01	-5.733260e+01
1.230000e-06	-2.741088e-06	-8.287625e-10	-1.904180e+01	-5.686952e+01
1.240000e-06	-2.700696e-06	-8.170839e-10	-1.876121e+01	-5.640058e+01
1.250000e-06	-2.660049e-06	-8.050725e-10	-1.847884e+01	-5.592596e+01
1.260000e-06	-2.619261e-06	-7.968755e-10	-1.819549e+01	-5.544585e+01
1.270000e-06	-2.578283e-06	-7.919665e-10	-1.791082e+01	-5.496044e+01
1.280000e-06	-2.537068e-06	-7.896903e-10	-1.762451e+01	-5.446993e+01
1.290000e-06	-2.495603e-06	-7.879287e-10	-1.733646e+01	-5.397449e+01
1.300000e-06	-2.453764e-06	-7.830911e-10	-1.704581e+01	-5.347430e+01
1.310000e-06	-2.411567e-06	-7.734728e-10	-1.675268e+01	-5.296951e+01
1.320000e-06	-2.369043e-06	-7.600502e-10	-1.645727e+01	-5.246027e+01
1.330000e-06	-2.326153e-06	-7.479772e-10	-1.615933e+01	-5.194669e+01
1.340000e-06	-2.283060e-06	-7.382594e-10	-1.585997e+01	-5.142886e+01
1.350000e-06	-2.239880e-06	-7.292804e-10	-1.556000e+01	-5.090684e+01
1.360000e-06	-2.196531e-06	-7.201501e-10	-1.525887e+01	-5.038065e+01
1.370000e-06	-2.152998e-06	-7.152646e-10	-1.495646e+01	-4.985029e+01
1.380000e-06	-2.109321e-06	-7.137104e-10	-1.465304e+01	-4.931570e+01
1.390000e-06	-2.065538e-06	-7.099281e-10	-1.434889e+01	-4.877680e+01
1.400000e-06	-2.021651e-06	-7.006551e-10	-1.404401e+01	-4.823344e+01
1.410000e-06	-1.977683e-06	-6.874837e-10	-1.373857e+01	-4.768545e+01
1.420000e-06	-1.933690e-06	-6.729702e-10	-1.343296e+01	-4.713260e+01
1.430000e-06	-1.889660e-06	-6.613129e-10	-1.312710e+01	-4.657462e+01
1.440000e-06	-1.845551e-06	-6.531471e-10	-1.282068e+01	-4.601117e+01
1.450000e-06	-1.801333e-06	-6.464725e-10	-1.251350e+01	-4.544190e+01
1.460000e-06	-1.757047e-06	-6.409634e-10	-1.220586e+01	-4.486636e+01
1.470000e-06	-1.712600e-06	-6.334960e-10	-1.189710e+01	-4.428411e+01
1.480000e-06	-1.667923e-06	-6.228161e-10	-1.158673e+01	-4.369463e+01
1.490000e-06	-1.623154e-06	-6.099567e-10	-1.127573e+01	-4.309737e+01
1.500000e-06	-1.578282e-06	-5.966802e-10	-1.096402e+01	-4.249172e+01
1.510000e-06	-1.533238e-06	-5.834816e-10	-1.065110e+01	-4.187705e+01
1.520000e-06	-1.488006e-06	-5.713450e-10	-1.033689e+01	-4.125271e+01
1.530000e-06	-1.442637e-06	-5.608945e-10	-1.002171e+01	-4.061798e+01
1.540000e-06	-1.397187e-06	-5.515464e-10	-9.705986e+00	-3.997215e+01
1.550000e-06	-1.351679e-06	-5.411654e-10	-9.389846e+00	-3.931447e+01
1.560000e-06	-1.306187e-06	-5.298360e-10	-9.073821e+00	-3.864417e+01
1.570000e-06	-1.260597e-06	-5.167503e-10	-8.757121e+00	-3.796048e+01
1.580000e-06	-1.214842e-06	-5.056629e-10	-8.439271e+00	-3.726262e+01
1.590000e-06	-1.169104e-06	-4.979262e-10	-8.121535e+00	-3.654980e+01
1.600000e-06	-1.123358e-06	-4.887737e-10	-7.803746e+00	-3.582126e+01
1.610000e-06	-1.077478e-06	-4.770332e-10	-7.485025e+00	-3.507622e+01
1.620000e-06	-1.031468e-06	-4.670631e-10	-7.165407e+00	-3.431393e+01
1.630000e-06	-9.853851e-07	-4.575965e-10	-6.845276e+00	-3.353367e+01
1.640000e-06	-9.392433e-07	-4.469151e-10	-6.524739e+00	-3.273474e+01
1.650000e-06	-8.930142e-07	-4.343726e-10	-6.203594e+00	-3.191648e+01
1.660000e-06	-8.467264e-07	-4.206841e-10	-5.882042e+00	-3.107827e+01
1.670000e-06	-8.004151e-07	-4.061824e-10	-5.560326e+00	-3.021953e+01
1.680000e-06	-7.540958e-07	-3.913134e-10	-5.238555e+00	-2.933974e+01
1.690000e-06	-7.077911e-07	-3.785401e-10	-4.916886e+00	-2.843842e+01
1.700000e-06	-6.613953e-07	-3.655177e-10	-4.594583e+00	-2.751517e+01
1.710000e-06	-6.148632e-07	-3.517877e-10	-4.271334e+00	-2.656964e+01
1.720000e-06	-5.682659e-07	-3.362864e-10	-3.947632e+00	-2.560157e+01
1.730000e-06	-5.216593e-07	-3.172513e-10	-3.623864e+00	-2.461076e+01
1.740000e-06	-4.750687e-07	-2.971194e-10	-3.300209e+00	-2.359706e+01
1.750000e-06	-4.284124e-07	-2.791057e-10	-2.976097e+00	-2.256045e+01
1.760000e-06	-3.816360e-07	-2.637584e-10	-2.651150e+00	-2.150094e+01
1.770000e-06	-3.348332e-07	-2.511665e-10	-2.326020e+00	-2.041867e+01
1.780000e-06	-2.880314e-07	-2.397247e-10	-2.000898e+00	-1.931381e+01
1.790000e-06	-2.412116e-07	-2.278132e-10	-1.675649e+00	-1.818665e+01
1.800000e-06	-1.943704e-07	-2.132050e-10	-1.350253e+00	-1.703755e+01
1.810000e-06	-1.474655e-07	-1.961040e-10	-1.024414e+00	-1.586696e+01
1.820000e-06	-1.005185e-07	-1.785698e-10	-6.982824e-01	-1.467540e+01
1.830000e-06	-5.364292e-08	-1.622857e-10	-3.726468e-01	-1.346347e+01
1.840000e-06	-6.868076e-09	-1.476566e-10	-4.771117e-02	-1.223185e+01
1.850000e-06	3.999870e-08	-1.322647e-10	2.778631e-01	-1.098129e+01
1.860000e-06	8.694068e-08	-1.165090e-10	6.039598e-01	-9.712618e+00
1.870000e-06	1.338577e-07	-9.970358e-11	9.298833e-01	-8.426725e+00
1.880000e-06	1.807109e-07	-8.144711e-11	1.255363e+00	-7.124559e+00
1.890000e-06	2.274390e-07	-6.389333e-11	1.579974e+00	-5.807133e+00
1.900000e-06	2.741403e-07	-4.614041e-11	1.904399e+00	-4.475509e+00
1.910000e-06	3.208742e-07	-2.811409e-11	2.229050e+00	-3.130798e+00
1.920000e-06	3.676564e-07	-1.067039e-11	2.554037e+00	-1.774155e+00
1.930000e-06	4.144820e-07	6.810065e-12	2.879325e+00	-4.067701e-01
1.940000e-06	4.611116e-07	2.456935e-11	3.203252e+00	9.701334e-01
1.950000e-06	5.075545e-07	4.240502e-11	3.525881e+00	2.355308e+00
1.960000e-06	5.540464e-07	6.055160e-11	3.848851e+00	3.747485e+00
1.970000e-06	6.005184e-07	7.810356e-11	4.171683e+00	5.145385e+00
1.980000e-06	6.469682e-07	9.558174e-11	4.494361e+00	6.547718e+00
1.990000e-06	6.934483e-07	1.152256e-10	4.817249e+00	7.953193e+00
2.000000e-06	7.398828e-07	1.340480e-10	5.139820e+00	9.360524e+00
2.010000e-06	7.862594e-07	1.541593e-10	5.461989e+00	1.076843e+01
2.020000e-06	8.325678e-07	1.774073e-10	5.783685e+00	1.217565e+01
2.030000e-06	8.787563e-07	2.004454e-10	6.104547e+00	1.358095e+01
2.040000e-06	9.249430e-07	2.203100e-10	6.425397e+00	1.498309e+01
2.050000e-06	9.711726e-07	2.369032e-10	6.746545e+00	1.638090e+01
2.060000e-06	1.017314e-06	2.524969e-10	7.067082e+00	1.777322e+01
2.070000e-06	1.063275e-06	2.697352e-10	7.386361e+00	1.915892e+01
2.080000e-06	1.109100e-06	2.907250e-10	7.704701e+00	2.053694e+01
2.090000e-06	1.154865e-06	3.120025e-10	8.022620e+00	2.190623e+01
2.100000e-06	1.200617e-06	3.340022e-10	8.340447e+00	2.326581e+01
2.110000e-06	1.246267e-06	3.542493e-10	8.657570e+00	2.461475e+01
2.120000e-06	1.291780e-06	3.694338e-10	8.973742e+00	2.595215e+01
2.130000e-06	1.337295e-06	3.848581e-10	9.289925e+00	2.727718e+01
2.140000e-06	1.382724e-06	4.020286e-10	9.605514e+00	2.858906e+01
2.150000e-06	1.427989e-06	4.198099e-10	9.919961e+00	2.988707e+01
2.160000e-06	1.473215e-06	4.401302e-10	1.023413e+01	3.117053e+01
2.170000e-06	1.518403e-06	4.609677e-10	1.054805e+01	3.243882e+01
2.180000e-06	1.563371e-06	4.831290e-10	1.086043e+01	3.369138e+01
2.190000e-06	1.608136e-06	5.019249e-10	1.117141e+01	3.492769e+01
2.200000e-06	1.652796e-06	5.171564e-10	1.148165e+01	3.614731e+01
2.210000e-06	1.697346e-06	5.304869e-10	1.179113e+01	3.734983e+01
2.220000e-06	1.741849e-06	5.442758e-10	1.210028e+01	3.853487e+01
2.230000e-06	1.786266e-06	5.628819e-10	1.240884e+01	3.970215e+01
2.240000e-06	1.830526e-06	5.798431e-10	1.271630e+01	4.085138e+01
2.250000e-06	1.874671e-06	5.971433e-10	1.302297e+01	4.198234e+01
2.260000e-06	1.918702e-06	6.130404e-10	1.332885e+01	4.309486e+01
2.270000e-06	1.962668e-06	6.314800e-10	1.363427e+01	4.418879e+01
2.280000e-06	2.006611e-06	6.502863e-10	1.393953e+01	4.526402e+01
2.290000e-06	2.050482e-06	6.686222e-10	1.424430e+01	4.632047e+01
2.300000e-06	2.094246e-06	6.846540e-10	1.454831e+01	4.735810e+01
2.310000e-06	2.137901e-06	6.980044e-10	1.485158e+01	4.837690e+01
2.320000e-06	2.181498e-06	7.118734e-10	1.515444e+01	4.937686e+01
2.330000e-06	2.225031e-06	7.252000e-10	1.545685e+01	5.035803e+01
2.340000e-06	2.268433e-06	7.404181e-10	1.575836e+01	5.132044e+01
2.350000e-06	2.311587e-06	7.588119e-10	1.605814e+01	5.226418e+01
2.360000e-06	2.354442e-06	7.782955e-10	1.635585e+01	5.318931e+01
2.370000e-06	2.397100e-06	7.928557e-10	1.665218e+01	5.409595e+01
2.380000e-06	2.439469e-06	8.034709e-10	1.694651e+01	5.498419e+01
2.390000e-06	2.481370e-06	8.120893e-10	1.723759e+01	5.585417e+01
2.400000e-06	2.522903e-06	8.200098e-10	1.752611e+01	5.670599e+01
2.410000e-06	2.564186e-06	8.293558e-10	1.781290e+01	5.753981e+01
2.420000e-06	2.605088e-06	8.415312e-10	1.809704e+01	5.835576e+01
2.430000e-06	2.645811e-06	8.574206e-10	1.837993e+01	5.915399e+01
2.440000e-06	2.686424e-06	8.726966e-10	1.866206e+01	5.993464e+01
2.450000e-06	2.726779e-06	8.844615e-10	1.894240e+01	6.069788e+01
2.460000e-06	2.766966e-06	8.975888e-10	1.922157e+01	6.144385e+01
2.470000e-06	2.806984e-06	9.075077e-10	1.949956e+01	6.217272e+01
2.480000e-06	2.846865e-06	9.148391e-10	1.977661e+01	6.288465e+01
2.490000e-06	2.886685e-06	9.195759e-10	2.005324e+01	6.357981e+01
2.500000e-06	2.926378e-06	9.256224e-10	2.032898e+01	6.425837e+01
2.510000e-06	2.965906e-06	9.345502e-10	2.060356e+01	6.492050e+01
2.520000e-06	3.005260e-06	9.474259e-10	2.087695e+01	6.556638e+01
2.530000e-06	3.044405e-06	9.601224e-10	2.114888e+01	6.619618e+01
2.540000e-06	3.083366e-06	9.693810e-10	2.141954e+01	6.681010e+01
2.550000e-06	3.122052e-06	9.760228e-10	2.168828e+01	6.740833e+01
2.560000e-06	3.160449e-06	9.809712e-10	2.195502e+01	6.799106e+01
2.570000e-06	3.198607e-06	9.865381e-10	2.222009e+01	6.855850e+01
2.580000e-06	3.236533e-06	9.927630e-10	2.248356e+01	6.911086e+01
2.590000e-06	3.274324e-06	1.000946e-09	2.274608e+01	6.964836e+01
2.600000e-06	3.311953e-06	1.011642e-09	2.300749e+01	7.017122e+01
2.610000e-06	3.349329e-06	1.020254e-09	2.326713e+01	7.067969e+01
2.620000e-06	3.386459e-06	1.026104e-09	2.352506e+01	7.117400e+01
2.630000e-06	3.423334e-06	1.030401e-09	2.378123e+01	7.165442e+01
2.640000e-06	3.459932e-06	1.033537e-09	2.403547e+01	7.212120e+01
2.650000e-06	3.496296e-06	1.039257e-09	2.428808e+01	7.257462e+01
2.660000e-06	3.532466e-06	1.046474e-09	2.453934e+01	7.301496e+01
2.670000e-06	3.568510e-06	1.054215e-09	2.478974e+01	7.344251e+01
2.680000e-06	3.604433e-06	1.061227e-09	2.503929e+01	7.385757e+01
2.690000e-06	3.640166e-06	1.067361e-09	2.528751e+01	7.426045e+01
2.700000e-06	3.675764e-06	1.070371e-09	2.553481e+01	7.465147e+01
2.710000e-06	3.711231e-06	1.073843e-09	2.578119e+01	7.503095e+01
2.720000e-06	3.746335e-06	1.080002e-09	2.602505e+01	7.539921e+01
2.730000e-06	3.780936e-06	1.086667e-09	2.626542e+01	7.575660e+01
2.740000e-06	3.815174e-06	1.092428e-09	2.650326e+01	7.610345e+01
2.750000e-06	3.848970e-06	1.097016e-09	2.673804e+01	7.644009e+01
2.760000e-06	3.882339e-06	1.101170e-09	2.696985e+01	7.676688e+01
2.770000e-06	3.915306e-06	1.106560e-09	2.719886e+01	7.708416e+01
2.780000e-06	3.947821e-06	1.112036e-09	2.742473e+01	7.739227e+01
2.790000e-06	3.980054e-06	1.117809e-09	2.764865e+01	7.769155e+01
2.800000e-06	4.012063e-06	1.121091e-09	2.787101e+01	7.798233e+01
2.810000e-06	4.043936e-06	1.124042e-09	2.809243e+01	7.826495e+01
2.820000e-06	4.075671e-06	1.128467e-09	2.831288e+01	7.853974e+01
2.830000e-06	4.107201e-06	1.132950e-09	2.853192e+01	7.880700e+01
2.840000e-06	4.138456e-06	1.137613e-09	2.874904e+01	7.906704e+01
2.850000e-06	4.169382e-06	1.145312e-09	2.896388e+01	7.932017e+01
2.860000e-06	4.199967e-06	1.153302e-09	2.917635e+01	7.956666e+01
2.870000e-06	4.230233e-06	1.158858e-09	2.938660e+01	7.980679e+01
2.880000e-06	4.260281e-06	1.164123e-09	2.959533e+01	8.004081e+01
2.890000e-06	4.290044e-06	1.169095e-09	2.980209e+01	8.026897e+01
2.900000e-06	4.319462e-06	1.173518e-09	3.000645e+01	8.049149e+01
