# Temperatura_=_-0.59
# Concentracion g/m^3_=_1620.0
# C_Vs_to_Am_M_A/Vsm_=_65563218390.804596
# pendiente_HvsI_1/m_=_3716.3
# ordenada_HvsI_A/m_=_1297.0
# frecuencia_Hz_=_135095.7761763335

Tiempo_(s)	Campo_(V.s)	Magnetizacion_(V.s)	Campo_(kA/m)	Magnetizacion_(A/m)
0.000000e+00	-5.509333e-06	-1.344708e-09	-3.837282e+01	-8.861699e+01
1.000000e-08	-5.509583e-06	-1.339483e-09	-3.837456e+01	-8.858636e+01
2.000000e-08	-5.509607e-06	-1.335726e-09	-3.837473e+01	-8.855644e+01
3.000000e-08	-5.509282e-06	-1.334692e-09	-3.837246e+01	-8.852716e+01
4.000000e-08	-5.508583e-06	-1.331595e-09	-3.836760e+01	-8.849841e+01
5.000000e-08	-5.507424e-06	-1.324425e-09	-3.835952e+01	-8.847010e+01
6.000000e-08	-5.505592e-06	-1.317609e-09	-3.834676e+01	-8.844209e+01
7.000000e-08	-5.503116e-06	-1.327924e-09	-3.832952e+01	-8.841421e+01
8.000000e-08	-5.500081e-06	-1.373129e-09	-3.830838e+01	-8.838631e+01
9.000000e-08	-5.496647e-06	-1.394177e-09	-3.828446e+01	-8.835819e+01
1.000000e-07	-5.492802e-06	-1.389005e-09	-3.825768e+01	-8.832965e+01
1.100000e-07	-5.488568e-06	-1.354333e-09	-3.822819e+01	-8.830045e+01
1.200000e-07	-5.484135e-06	-1.342233e-09	-3.819731e+01	-8.827037e+01
1.300000e-07	-5.479499e-06	-1.263694e-09	-3.816502e+01	-8.823915e+01
1.400000e-07	-5.474551e-06	-1.310971e-09	-3.813056e+01	-8.820655e+01
1.500000e-07	-5.469149e-06	-1.315330e-09	-3.809294e+01	-8.817228e+01
1.600000e-07	-5.463327e-06	-1.363324e-09	-3.805238e+01	-8.813609e+01
1.700000e-07	-5.457095e-06	-1.315223e-09	-3.800898e+01	-8.809768e+01
1.800000e-07	-5.450497e-06	-1.346465e-09	-3.796303e+01	-8.805679e+01
1.900000e-07	-5.443540e-06	-1.350020e-09	-3.791457e+01	-8.801313e+01
2.000000e-07	-5.436177e-06	-1.327929e-09	-3.786328e+01	-8.796643e+01
2.100000e-07	-5.428523e-06	-1.306418e-09	-3.780997e+01	-8.791640e+01
2.200000e-07	-5.420651e-06	-1.333418e-09	-3.775515e+01	-8.786277e+01
2.300000e-07	-5.412510e-06	-1.379609e-09	-3.769844e+01	-8.780529e+01
2.400000e-07	-5.403983e-06	-1.352612e-09	-3.763905e+01	-8.774370e+01
2.500000e-07	-5.394965e-06	-1.353172e-09	-3.757624e+01	-8.767774e+01
2.600000e-07	-5.385335e-06	-1.320442e-09	-3.750917e+01	-8.760719e+01
2.700000e-07	-5.375006e-06	-1.334776e-09	-3.743723e+01	-8.753183e+01
2.800000e-07	-5.364004e-06	-1.304357e-09	-3.736060e+01	-8.745145e+01
2.900000e-07	-5.352529e-06	-1.351883e-09	-3.728067e+01	-8.736587e+01
3.000000e-07	-5.340768e-06	-1.323587e-09	-3.719876e+01	-8.727490e+01
3.100000e-07	-5.328694e-06	-1.329950e-09	-3.711466e+01	-8.717839e+01
3.200000e-07	-5.316171e-06	-1.298909e-09	-3.702744e+01	-8.707620e+01
3.300000e-07	-5.303236e-06	-1.342993e-09	-3.693734e+01	-8.696822e+01
3.400000e-07	-5.289884e-06	-1.291189e-09	-3.684435e+01	-8.685433e+01
3.500000e-07	-5.276066e-06	-1.303885e-09	-3.674810e+01	-8.673447e+01
3.600000e-07	-5.261766e-06	-1.313181e-09	-3.664850e+01	-8.660857e+01
3.700000e-07	-5.247152e-06	-1.336918e-09	-3.654671e+01	-8.647658e+01
3.800000e-07	-5.232088e-06	-1.290205e-09	-3.644179e+01	-8.633848e+01
3.900000e-07	-5.216407e-06	-1.323059e-09	-3.633257e+01	-8.619427e+01
4.000000e-07	-5.200283e-06	-1.319081e-09	-3.622027e+01	-8.604395e+01
4.100000e-07	-5.183757e-06	-1.276908e-09	-3.610516e+01	-8.588755e+01
4.200000e-07	-5.166874e-06	-1.287340e-09	-3.598758e+01	-8.572512e+01
4.300000e-07	-5.149666e-06	-1.330934e-09	-3.586772e+01	-8.555673e+01
4.400000e-07	-5.132123e-06	-1.291120e-09	-3.574553e+01	-8.538244e+01
4.500000e-07	-5.114210e-06	-1.266366e-09	-3.562076e+01	-8.520234e+01
4.600000e-07	-5.095884e-06	-1.334838e-09	-3.549312e+01	-8.501654e+01
4.700000e-07	-5.077141e-06	-1.302610e-09	-3.536257e+01	-8.482514e+01
4.800000e-07	-5.058009e-06	-1.245613e-09	-3.522932e+01	-8.462826e+01
4.900000e-07	-5.038590e-06	-1.294791e-09	-3.509406e+01	-8.442604e+01
5.000000e-07	-5.018954e-06	-1.331982e-09	-3.495730e+01	-8.421861e+01
5.100000e-07	-4.999113e-06	-1.234149e-09	-3.481911e+01	-8.400611e+01
5.200000e-07	-4.979050e-06	-1.257787e-09	-3.467937e+01	-8.378869e+01
5.300000e-07	-4.958674e-06	-1.315884e-09	-3.453745e+01	-8.356649e+01
5.400000e-07	-4.937964e-06	-1.266617e-09	-3.439320e+01	-8.333966e+01
5.500000e-07	-4.916873e-06	-1.220487e-09	-3.424630e+01	-8.310836e+01
5.600000e-07	-4.895434e-06	-1.299327e-09	-3.409698e+01	-8.287273e+01
5.700000e-07	-4.873662e-06	-1.262089e-09	-3.394534e+01	-8.263291e+01
5.800000e-07	-4.851438e-06	-1.217318e-09	-3.379055e+01	-8.238906e+01
5.900000e-07	-4.828844e-06	-1.269648e-09	-3.363318e+01	-8.214130e+01
6.000000e-07	-4.805979e-06	-1.290586e-09	-3.347392e+01	-8.188978e+01
6.100000e-07	-4.782759e-06	-1.208775e-09	-3.331219e+01	-8.163461e+01
6.200000e-07	-4.759234e-06	-1.233415e-09	-3.314834e+01	-8.137592e+01
6.300000e-07	-4.735482e-06	-1.253155e-09	-3.298290e+01	-8.111383e+01
6.400000e-07	-4.711577e-06	-1.196174e-09	-3.281640e+01	-8.084842e+01
6.500000e-07	-4.687410e-06	-1.189264e-09	-3.264808e+01	-8.057980e+01
6.600000e-07	-4.662896e-06	-1.244179e-09	-3.247734e+01	-8.030806e+01
6.700000e-07	-4.637934e-06	-1.208812e-09	-3.230347e+01	-8.003326e+01
6.800000e-07	-4.612412e-06	-1.193592e-09	-3.212571e+01	-7.975548e+01
6.900000e-07	-4.586314e-06	-1.229320e-09	-3.194394e+01	-7.947477e+01
7.000000e-07	-4.559717e-06	-1.210839e-09	-3.175869e+01	-7.919118e+01
7.100000e-07	-4.532701e-06	-1.167000e-09	-3.157052e+01	-7.890475e+01
7.200000e-07	-4.505316e-06	-1.191176e-09	-3.137978e+01	-7.861550e+01
7.300000e-07	-4.477676e-06	-1.197849e-09	-3.118727e+01	-7.832345e+01
7.400000e-07	-4.449834e-06	-1.167815e-09	-3.099335e+01	-7.802861e+01
7.500000e-07	-4.421843e-06	-1.181289e-09	-3.079839e+01	-7.773098e+01
7.600000e-07	-4.393696e-06	-1.188783e-09	-3.060234e+01	-7.743056e+01
7.700000e-07	-4.365294e-06	-1.160819e-09	-3.040452e+01	-7.712733e+01
7.800000e-07	-4.336534e-06	-1.151030e-09	-3.020421e+01	-7.682126e+01
7.900000e-07	-4.307429e-06	-1.168069e-09	-3.000149e+01	-7.651234e+01
8.000000e-07	-4.277967e-06	-1.145355e-09	-2.979629e+01	-7.620051e+01
8.100000e-07	-4.248203e-06	-1.135122e-09	-2.958897e+01	-7.588575e+01
8.200000e-07	-4.218225e-06	-1.142122e-09	-2.938018e+01	-7.556800e+01
8.300000e-07	-4.187959e-06	-1.133357e-09	-2.916938e+01	-7.524723e+01
8.400000e-07	-4.157348e-06	-1.106311e-09	-2.895616e+01	-7.492336e+01
8.500000e-07	-4.126442e-06	-1.114251e-09	-2.874091e+01	-7.459635e+01
8.600000e-07	-4.095369e-06	-1.109178e-09	-2.852448e+01	-7.426614e+01
8.700000e-07	-4.064071e-06	-1.094263e-09	-2.830649e+01	-7.393267e+01
8.800000e-07	-4.032496e-06	-1.088170e-09	-2.808656e+01	-7.359587e+01
8.900000e-07	-4.000786e-06	-1.098792e-09	-2.786570e+01	-7.325568e+01
9.000000e-07	-3.968932e-06	-1.079875e-09	-2.764384e+01	-7.291204e+01
9.100000e-07	-3.936852e-06	-1.071098e-09	-2.742040e+01	-7.256488e+01
9.200000e-07	-3.904457e-06	-1.070218e-09	-2.719476e+01	-7.221414e+01
9.300000e-07	-3.871653e-06	-1.061136e-09	-2.696628e+01	-7.185976e+01
9.400000e-07	-3.838421e-06	-1.044574e-09	-2.673482e+01	-7.150167e+01
9.500000e-07	-3.804740e-06	-1.050444e-09	-2.650023e+01	-7.113981e+01
9.600000e-07	-3.770580e-06	-1.046511e-09	-2.626231e+01	-7.077413e+01
9.700000e-07	-3.736002e-06	-1.031445e-09	-2.602147e+01	-7.040457e+01
9.800000e-07	-3.701109e-06	-1.029035e-09	-2.577844e+01	-7.003107e+01
9.900000e-07	-3.665890e-06	-1.033575e-09	-2.553313e+01	-6.965357e+01
1.000000e-06	-3.630351e-06	-1.020986e-09	-2.528560e+01	-6.927204e+01
1.010000e-06	-3.594677e-06	-1.012249e-09	-2.503713e+01	-6.888641e+01
1.020000e-06	-3.558891e-06	-1.013431e-09	-2.478788e+01	-6.849663e+01
1.030000e-06	-3.522961e-06	-1.004756e-09	-2.453763e+01	-6.810267e+01
1.040000e-06	-3.486815e-06	-9.936399e-10	-2.428587e+01	-6.770448e+01
1.050000e-06	-3.450379e-06	-9.900820e-10	-2.403209e+01	-6.730202e+01
1.060000e-06	-3.413782e-06	-9.852595e-10	-2.377718e+01	-6.689524e+01
1.070000e-06	-3.376911e-06	-9.724958e-10	-2.352038e+01	-6.648411e+01
1.080000e-06	-3.339699e-06	-9.709448e-10	-2.326119e+01	-6.606859e+01
1.090000e-06	-3.302327e-06	-9.660451e-10	-2.300089e+01	-6.564864e+01
1.100000e-06	-3.264787e-06	-9.566508e-10	-2.273943e+01	-6.522422e+01
1.110000e-06	-3.227021e-06	-9.487580e-10	-2.247639e+01	-6.479529e+01
1.120000e-06	-3.189010e-06	-9.471805e-10	-2.221164e+01	-6.436183e+01
1.130000e-06	-3.150710e-06	-9.337366e-10	-2.194488e+01	-6.392380e+01
1.140000e-06	-3.112166e-06	-9.225671e-10	-2.167642e+01	-6.348114e+01
1.150000e-06	-3.073475e-06	-9.141680e-10	-2.140693e+01	-6.303384e+01
1.160000e-06	-3.034702e-06	-9.082101e-10	-2.113687e+01	-6.258185e+01
1.170000e-06	-2.995718e-06	-8.995774e-10	-2.086535e+01	-6.212512e+01
1.180000e-06	-2.956452e-06	-8.999061e-10	-2.059186e+01	-6.166362e+01
1.190000e-06	-2.916981e-06	-8.964627e-10	-2.031694e+01	-6.119729e+01
1.200000e-06	-2.877408e-06	-8.880952e-10	-2.004131e+01	-6.072609e+01
1.210000e-06	-2.837754e-06	-8.769626e-10	-1.976512e+01	-6.024996e+01
1.220000e-06	-2.797940e-06	-8.697625e-10	-1.948781e+01	-5.976885e+01
1.230000e-06	-2.758000e-06	-8.579401e-10	-1.920963e+01	-5.928269e+01
1.240000e-06	-2.717896e-06	-8.491466e-10	-1.893030e+01	-5.879142e+01
1.250000e-06	-2.677481e-06	-8.423558e-10	-1.864881e+01	-5.829496e+01
1.260000e-06	-2.636895e-06	-8.350675e-10	-1.836613e+01	-5.779324e+01
1.270000e-06	-2.596191e-06	-8.247408e-10	-1.808262e+01	-5.728617e+01
1.280000e-06	-2.555117e-06	-8.157699e-10	-1.779654e+01	-5.677366e+01
1.290000e-06	-2.513709e-06	-8.086312e-10	-1.750813e+01	-5.625560e+01
1.300000e-06	-2.472119e-06	-8.000451e-10	-1.721845e+01	-5.573189e+01
1.310000e-06	-2.430259e-06	-7.908685e-10	-1.692689e+01	-5.520240e+01
1.320000e-06	-2.388076e-06	-7.826845e-10	-1.663309e+01	-5.466701e+01
1.330000e-06	-2.345661e-06	-7.727608e-10	-1.633766e+01	-5.412558e+01
1.340000e-06	-2.302914e-06	-7.615302e-10	-1.603993e+01	-5.357797e+01
1.350000e-06	-2.259906e-06	-7.508582e-10	-1.574038e+01	-5.302400e+01
1.360000e-06	-2.216750e-06	-7.406719e-10	-1.543979e+01	-5.246351e+01
1.370000e-06	-2.173385e-06	-7.334473e-10	-1.513775e+01	-5.189630e+01
1.380000e-06	-2.129857e-06	-7.284972e-10	-1.483458e+01	-5.132219e+01
1.390000e-06	-2.086218e-06	-7.241916e-10	-1.453063e+01	-5.074096e+01
1.400000e-06	-2.042508e-06	-7.130351e-10	-1.422618e+01	-5.015239e+01
1.410000e-06	-1.998748e-06	-7.010596e-10	-1.392139e+01	-4.955622e+01
1.420000e-06	-1.954900e-06	-6.877384e-10	-1.361599e+01	-4.895222e+01
1.430000e-06	-1.910974e-06	-6.767917e-10	-1.331004e+01	-4.834011e+01
1.440000e-06	-1.866987e-06	-6.650608e-10	-1.300367e+01	-4.771960e+01
1.450000e-06	-1.822870e-06	-6.542029e-10	-1.269640e+01	-4.709040e+01
1.460000e-06	-1.778649e-06	-6.431992e-10	-1.238839e+01	-4.645220e+01
1.470000e-06	-1.734270e-06	-6.327725e-10	-1.207929e+01	-4.580466e+01
1.480000e-06	-1.689748e-06	-6.200239e-10	-1.176919e+01	-4.514744e+01
1.490000e-06	-1.645072e-06	-6.088680e-10	-1.145802e+01	-4.448019e+01
1.500000e-06	-1.600282e-06	-5.990522e-10	-1.114606e+01	-4.380254e+01
1.510000e-06	-1.555375e-06	-5.917469e-10	-1.083328e+01	-4.311411e+01
1.520000e-06	-1.510304e-06	-5.828568e-10	-1.051936e+01	-4.241450e+01
1.530000e-06	-1.465108e-06	-5.707549e-10	-1.020456e+01	-4.170330e+01
1.540000e-06	-1.419766e-06	-5.551960e-10	-9.888751e+00	-4.098011e+01
1.550000e-06	-1.374363e-06	-5.371118e-10	-9.572519e+00	-4.024451e+01
1.560000e-06	-1.328944e-06	-5.203009e-10	-9.256168e+00	-3.949605e+01
1.570000e-06	-1.283502e-06	-5.112405e-10	-8.939663e+00	-3.873430e+01
1.580000e-06	-1.237927e-06	-5.024864e-10	-8.622229e+00	-3.795884e+01
1.590000e-06	-1.192213e-06	-4.936884e-10	-8.303832e+00	-3.716921e+01
1.600000e-06	-1.146464e-06	-4.827106e-10	-7.985185e+00	-3.636498e+01
1.610000e-06	-1.100634e-06	-4.702840e-10	-7.665981e+00	-3.554570e+01
1.620000e-06	-1.054732e-06	-4.525426e-10	-7.346271e+00	-3.471095e+01
1.630000e-06	-1.008764e-06	-4.348724e-10	-7.026099e+00	-3.386030e+01
1.640000e-06	-9.626823e-07	-4.238159e-10	-6.705137e+00	-3.299334e+01
1.650000e-06	-9.164973e-07	-4.154838e-10	-6.383456e+00	-3.210965e+01
1.660000e-06	-8.702907e-07	-4.068554e-10	-6.061625e+00	-3.120886e+01
1.670000e-06	-8.240511e-07	-3.937036e-10	-5.739563e+00	-3.029058e+01
1.680000e-06	-7.777069e-07	-3.766914e-10	-5.416773e+00	-2.935448e+01
1.690000e-06	-7.313821e-07	-3.593050e-10	-5.094118e+00	-2.840023e+01
1.700000e-06	-6.850682e-07	-3.445671e-10	-4.771539e+00	-2.742753e+01
1.710000e-06	-6.386919e-07	-3.279519e-10	-4.448526e+00	-2.643610e+01
1.720000e-06	-5.922842e-07	-3.144000e-10	-4.125294e+00	-2.542572e+01
1.730000e-06	-5.458100e-07	-3.000514e-10	-3.801598e+00	-2.439618e+01
1.740000e-06	-4.992198e-07	-2.823952e-10	-3.477095e+00	-2.334733e+01
1.750000e-06	-4.525931e-07	-2.628833e-10	-3.152337e+00	-2.227904e+01
1.760000e-06	-4.059833e-07	-2.442824e-10	-2.827697e+00	-2.119124e+01
1.770000e-06	-3.593326e-07	-2.275278e-10	-2.502772e+00	-2.008389e+01
1.780000e-06	-3.126573e-07	-2.124982e-10	-2.177676e+00	-1.895701e+01
1.790000e-06	-2.659671e-07	-1.984030e-10	-1.852476e+00	-1.781068e+01
1.800000e-06	-2.192576e-07	-1.853608e-10	-1.527142e+00	-1.664502e+01
1.810000e-06	-1.725274e-07	-1.701558e-10	-1.201664e+00	-1.546021e+01
1.820000e-06	-1.257367e-07	-1.533736e-10	-8.757635e-01	-1.425648e+01
1.830000e-06	-7.891949e-08	-1.363926e-10	-5.496787e-01	-1.303412e+01
1.840000e-06	-3.214370e-08	-1.216541e-10	-2.238827e-01	-1.179349e+01
1.850000e-06	1.457174e-08	-1.038296e-10	1.014930e-01	-1.053499e+01
1.860000e-06	6.126025e-08	-8.425465e-11	4.266812e-01	-9.259100e+00
1.870000e-06	1.079678e-07	-6.632879e-11	7.520018e-01	-7.966345e+00
1.880000e-06	1.546143e-07	-4.727211e-11	1.076898e+00	-6.657316e+00
1.890000e-06	2.013024e-07	-2.792667e-11	1.402082e+00	-5.332665e+00
1.900000e-06	2.480439e-07	-1.219483e-11	1.727640e+00	-3.993098e+00
1.910000e-06	2.947036e-07	5.431806e-12	2.052627e+00	-2.639381e+00
1.920000e-06	3.414251e-07	2.785009e-11	2.378046e+00	-1.272334e+00
1.930000e-06	3.881365e-07	4.819549e-11	2.703393e+00	1.071664e-01
1.940000e-06	4.346921e-07	6.757059e-11	3.027656e+00	1.498195e+00
1.950000e-06	4.812101e-07	9.009322e-11	3.351656e+00	2.899777e+00
1.960000e-06	5.277572e-07	1.109528e-10	3.675859e+00	4.310891e+00
1.970000e-06	5.742439e-07	1.297000e-10	3.999642e+00	5.730473e+00
1.980000e-06	6.206726e-07	1.476156e-10	4.323020e+00	7.157419e+00
1.990000e-06	6.670883e-07	1.646216e-10	4.646308e+00	8.590589e+00
2.000000e-06	7.134258e-07	1.821422e-10	4.969052e+00	1.002881e+01
2.010000e-06	7.596932e-07	1.992808e-10	5.291307e+00	1.147089e+01
2.020000e-06	8.058880e-07	2.206374e-10	5.613056e+00	1.291561e+01
2.030000e-06	8.520545e-07	2.464620e-10	5.934608e+00	1.436171e+01
2.040000e-06	8.981903e-07	2.734473e-10	6.255946e+00	1.580796e+01
2.050000e-06	9.442050e-07	2.969228e-10	6.576442e+00	1.725307e+01
2.060000e-06	9.901202e-07	3.157989e-10	6.896244e+00	1.869580e+01
2.070000e-06	1.036011e-06	3.324564e-10	7.215873e+00	2.013487e+01
2.080000e-06	1.081877e-06	3.497096e-10	7.535336e+00	2.156902e+01
2.090000e-06	1.127622e-06	3.673283e-10	7.853952e+00	2.299700e+01
2.100000e-06	1.173252e-06	3.892623e-10	8.171769e+00	2.441758e+01
2.110000e-06	1.218805e-06	4.136866e-10	8.489046e+00	2.582954e+01
2.120000e-06	1.264294e-06	4.345034e-10	8.805880e+00	2.723169e+01
2.130000e-06	1.309649e-06	4.530620e-10	9.121780e+00	2.862288e+01
2.140000e-06	1.354889e-06	4.723910e-10	9.436881e+00	3.000199e+01
2.150000e-06	1.400134e-06	4.907219e-10	9.752016e+00	3.136793e+01
2.160000e-06	1.445289e-06	5.082681e-10	1.006652e+01	3.271965e+01
2.170000e-06	1.490267e-06	5.264540e-10	1.037980e+01	3.405616e+01
2.180000e-06	1.535179e-06	5.453479e-10	1.069261e+01	3.537652e+01
2.190000e-06	1.579996e-06	5.641983e-10	1.100476e+01	3.667983e+01
2.200000e-06	1.624627e-06	5.823245e-10	1.131562e+01	3.796526e+01
2.210000e-06	1.669134e-06	5.986483e-10	1.162562e+01	3.923203e+01
2.220000e-06	1.713546e-06	6.131456e-10	1.193495e+01	4.047941e+01
2.230000e-06	1.757862e-06	6.295922e-10	1.224361e+01	4.170676e+01
2.240000e-06	1.802042e-06	6.471437e-10	1.255133e+01	4.291349e+01
2.250000e-06	1.846114e-06	6.637178e-10	1.285829e+01	4.409906e+01
2.260000e-06	1.890106e-06	6.786454e-10	1.316470e+01	4.526302e+01
2.270000e-06	1.933975e-06	6.934173e-10	1.347024e+01	4.640497e+01
2.280000e-06	1.977782e-06	7.112074e-10	1.377536e+01	4.752458e+01
2.290000e-06	2.021559e-06	7.265385e-10	1.408027e+01	4.862159e+01
2.300000e-06	2.065306e-06	7.408428e-10	1.438497e+01	4.969580e+01
2.310000e-06	2.108973e-06	7.537820e-10	1.468912e+01	5.074707e+01
2.320000e-06	2.152500e-06	7.653129e-10	1.499228e+01	5.177533e+01
2.330000e-06	2.195937e-06	7.779838e-10	1.529483e+01	5.278055e+01
2.340000e-06	2.239297e-06	7.918515e-10	1.559683e+01	5.376279e+01
2.350000e-06	2.282470e-06	8.078455e-10	1.589754e+01	5.472214e+01
2.360000e-06	2.325245e-06	8.261347e-10	1.619546e+01	5.565876e+01
2.370000e-06	2.367719e-06	8.446891e-10	1.649130e+01	5.657283e+01
2.380000e-06	2.409975e-06	8.573135e-10	1.678562e+01	5.746461e+01
2.390000e-06	2.451913e-06	8.664930e-10	1.707772e+01	5.833439e+01
2.400000e-06	2.493533e-06	8.734906e-10	1.736760e+01	5.918249e+01
2.410000e-06	2.534885e-06	8.799202e-10	1.765562e+01	6.000928e+01
2.420000e-06	2.575993e-06	8.891212e-10	1.794194e+01	6.081516e+01
2.430000e-06	2.616780e-06	9.022868e-10	1.822602e+01	6.160055e+01
2.440000e-06	2.657365e-06	9.175765e-10	1.850870e+01	6.236591e+01
2.450000e-06	2.697770e-06	9.303928e-10	1.879012e+01	6.311170e+01
2.460000e-06	2.737911e-06	9.394542e-10	1.906971e+01	6.383842e+01
2.470000e-06	2.777871e-06	9.500828e-10	1.934803e+01	6.454658e+01
2.480000e-06	2.817733e-06	9.591219e-10	1.962567e+01	6.523667e+01
2.490000e-06	2.857535e-06	9.654224e-10	1.990290e+01	6.590923e+01
2.500000e-06	2.897244e-06	9.714052e-10	2.017947e+01	6.656479e+01
2.510000e-06	2.936791e-06	9.792220e-10	2.045492e+01	6.720386e+01
2.520000e-06	2.976133e-06	9.907526e-10	2.072894e+01	6.782696e+01
2.530000e-06	3.015193e-06	1.002512e-09	2.100099e+01	6.843462e+01
2.540000e-06	3.053976e-06	1.012939e-09	2.127112e+01	6.902735e+01
2.550000e-06	3.092639e-06	1.022637e-09	2.154041e+01	6.960564e+01
2.560000e-06	3.131076e-06	1.030126e-09	2.180812e+01	7.016998e+01
2.570000e-06	3.169220e-06	1.034988e-09	2.207380e+01	7.072084e+01
2.580000e-06	3.207225e-06	1.040134e-09	2.233850e+01	7.125867e+01
2.590000e-06	3.245094e-06	1.046972e-09	2.260226e+01	7.178393e+01
2.600000e-06	3.282767e-06	1.053289e-09	2.286466e+01	7.229702e+01
2.610000e-06	3.320148e-06	1.059617e-09	2.312502e+01	7.279835e+01
2.620000e-06	3.357254e-06	1.064572e-09	2.338347e+01	7.328829e+01
2.630000e-06	3.394055e-06	1.067403e-09	2.363979e+01	7.376722e+01
2.640000e-06	3.430536e-06	1.072901e-09	2.389388e+01	7.423547e+01
2.650000e-06	3.466816e-06	1.081729e-09	2.414657e+01	7.469335e+01
2.660000e-06	3.502984e-06	1.091484e-09	2.439849e+01	7.514117e+01
2.670000e-06	3.539024e-06	1.099915e-09	2.464951e+01	7.557921e+01
2.680000e-06	3.574925e-06	1.105630e-09	2.489956e+01	7.600773e+01
2.690000e-06	3.610713e-06	1.110691e-09	2.514882e+01	7.642696e+01
2.700000e-06	3.646353e-06	1.115909e-09	2.539706e+01	7.683714e+01
2.710000e-06	3.681722e-06	1.119482e-09	2.564340e+01	7.723846e+01
2.720000e-06	3.716794e-06	1.123878e-09	2.588769e+01	7.763112e+01
2.730000e-06	3.751557e-06	1.130427e-09	2.612981e+01	7.801530e+01
2.740000e-06	3.785866e-06	1.137808e-09	2.636878e+01	7.839115e+01
2.750000e-06	3.819620e-06	1.144891e-09	2.660387e+01	7.875884e+01
2.760000e-06	3.852963e-06	1.152160e-09	2.683611e+01	7.911850e+01
2.770000e-06	3.886011e-06	1.159792e-09	2.706629e+01	7.947026e+01
2.780000e-06	3.918706e-06	1.166531e-09	2.729401e+01	7.981425e+01
2.790000e-06	3.951068e-06	1.170013e-09	2.751941e+01	8.015059e+01
2.800000e-06	3.983126e-06	1.170529e-09	2.774270e+01	8.047938e+01
2.810000e-06	4.014988e-06	1.170729e-09	2.796462e+01	8.080073e+01
2.820000e-06	4.046761e-06	1.171844e-09	2.818592e+01	8.111475e+01
2.830000e-06	4.078340e-06	1.174960e-09	2.840587e+01	8.142153e+01
2.840000e-06	4.109656e-06	1.183683e-09	2.862399e+01	8.172117e+01
2.850000e-06	4.140664e-06	1.196678e-09	2.883996e+01	8.201379e+01
2.860000e-06	4.171312e-06	1.207255e-09	2.905343e+01	8.229946e+01
2.870000e-06	4.201668e-06	1.212314e-09	2.926486e+01	8.257829e+01
2.880000e-06	4.231691e-06	1.213395e-09	2.947397e+01	8.285038e+01
2.890000e-06	4.261484e-06	1.212729e-09	2.968148e+01	8.311583e+01
2.900000e-06	4.291080e-06	1.213309e-09	2.988762e+01	8.337475e+01
