# Temperatura_=_7.58
# Concentracion g/m^3_=_1620.0
# C_Vs_to_Am_M_A/Vsm_=_65563218390.804596
# pendiente_HvsI_1/m_=_3716.3
# ordenada_HvsI_A/m_=_1297.0
# frecuencia_Hz_=_135091.11974710334

Tiempo_(s)	Campo_(V.s)	Magnetizacion_(V.s)	Campo_(kA/m)	Magnetizacion_(A/m)
0.000000e+00	-5.528179e-06	-1.264456e-09	-3.838521e+01	-8.390730e+01
1.000000e-08	-5.528398e-06	-1.262258e-09	-3.838673e+01	-8.386188e+01
2.000000e-08	-5.528338e-06	-1.266410e-09	-3.838631e+01	-8.381782e+01
3.000000e-08	-5.527921e-06	-1.270103e-09	-3.838342e+01	-8.377512e+01
4.000000e-08	-5.526957e-06	-1.264791e-09	-3.837672e+01	-8.373374e+01
5.000000e-08	-5.525412e-06	-1.247358e-09	-3.836599e+01	-8.369362e+01
6.000000e-08	-5.523182e-06	-1.231559e-09	-3.835051e+01	-8.365465e+01
7.000000e-08	-5.520286e-06	-1.249282e-09	-3.833040e+01	-8.361670e+01
8.000000e-08	-5.516974e-06	-1.310559e-09	-3.830741e+01	-8.357960e+01
9.000000e-08	-5.513224e-06	-1.382579e-09	-3.828137e+01	-8.354315e+01
1.000000e-07	-5.509028e-06	-1.362626e-09	-3.825223e+01	-8.350712e+01
1.100000e-07	-5.504530e-06	-1.231756e-09	-3.822100e+01	-8.347125e+01
1.200000e-07	-5.499923e-06	-1.161036e-09	-3.818901e+01	-8.343528e+01
1.300000e-07	-5.495072e-06	-1.253634e-09	-3.815533e+01	-8.339889e+01
1.400000e-07	-5.489719e-06	-1.323619e-09	-3.811816e+01	-8.336177e+01
1.500000e-07	-5.483970e-06	-1.251164e-09	-3.807824e+01	-8.332356e+01
1.600000e-07	-5.478013e-06	-1.173077e-09	-3.803688e+01	-8.328392e+01
1.700000e-07	-5.471642e-06	-1.249917e-09	-3.799264e+01	-8.324248e+01
1.800000e-07	-5.464765e-06	-1.377516e-09	-3.794489e+01	-8.319886e+01
1.900000e-07	-5.457518e-06	-1.303422e-09	-3.789457e+01	-8.315267e+01
2.000000e-07	-5.449966e-06	-1.200012e-09	-3.784213e+01	-8.310353e+01
2.100000e-07	-5.442134e-06	-1.215072e-09	-3.778775e+01	-8.305106e+01
2.200000e-07	-5.434055e-06	-1.347436e-09	-3.773165e+01	-8.299487e+01
2.300000e-07	-5.425737e-06	-1.338900e-09	-3.767390e+01	-8.293459e+01
2.400000e-07	-5.416899e-06	-1.278175e-09	-3.761253e+01	-8.286985e+01
2.500000e-07	-5.407275e-06	-1.273333e-09	-3.754571e+01	-8.280028e+01
2.600000e-07	-5.396906e-06	-1.322942e-09	-3.747371e+01	-8.272556e+01
2.700000e-07	-5.385998e-06	-1.298747e-09	-3.739797e+01	-8.264535e+01
2.800000e-07	-5.374684e-06	-1.268161e-09	-3.731941e+01	-8.255935e+01
2.900000e-07	-5.363055e-06	-1.283896e-09	-3.723866e+01	-8.246728e+01
3.000000e-07	-5.351097e-06	-1.294845e-09	-3.715563e+01	-8.236887e+01
3.100000e-07	-5.338716e-06	-1.274841e-09	-3.706966e+01	-8.226388e+01
3.200000e-07	-5.325909e-06	-1.251502e-09	-3.698073e+01	-8.215211e+01
3.300000e-07	-5.312684e-06	-1.272558e-09	-3.688891e+01	-8.203337e+01
3.400000e-07	-5.299039e-06	-1.279535e-09	-3.679416e+01	-8.190749e+01
3.500000e-07	-5.284986e-06	-1.286087e-09	-3.669658e+01	-8.177435e+01
3.600000e-07	-5.270539e-06	-1.261250e-09	-3.659627e+01	-8.163386e+01
3.700000e-07	-5.255721e-06	-1.270891e-09	-3.649338e+01	-8.148593e+01
3.800000e-07	-5.240185e-06	-1.267479e-09	-3.638551e+01	-8.133053e+01
3.900000e-07	-5.223940e-06	-1.258900e-09	-3.627271e+01	-8.116763e+01
4.000000e-07	-5.207377e-06	-1.240198e-09	-3.615770e+01	-8.099725e+01
4.100000e-07	-5.190548e-06	-1.264015e-09	-3.604085e+01	-8.081944e+01
4.200000e-07	-5.173406e-06	-1.244411e-09	-3.592183e+01	-8.063424e+01
4.300000e-07	-5.155974e-06	-1.221294e-09	-3.580078e+01	-8.044175e+01
4.400000e-07	-5.138263e-06	-1.249846e-09	-3.567780e+01	-8.024208e+01
4.500000e-07	-5.120098e-06	-1.290346e-09	-3.555167e+01	-8.003536e+01
4.600000e-07	-5.101391e-06	-1.227822e-09	-3.542178e+01	-7.982174e+01
4.700000e-07	-5.082339e-06	-1.208326e-09	-3.528950e+01	-7.960139e+01
4.800000e-07	-5.063062e-06	-1.256530e-09	-3.515564e+01	-7.937448e+01
4.900000e-07	-5.043561e-06	-1.250031e-09	-3.502024e+01	-7.914121e+01
5.000000e-07	-5.023904e-06	-1.193810e-09	-3.488375e+01	-7.890180e+01
5.100000e-07	-5.004030e-06	-1.226454e-09	-3.474575e+01	-7.865645e+01
5.200000e-07	-4.983734e-06	-1.239449e-09	-3.460483e+01	-7.840539e+01
5.300000e-07	-4.963019e-06	-1.195019e-09	-3.446099e+01	-7.814885e+01
5.400000e-07	-4.941946e-06	-1.211959e-09	-3.431467e+01	-7.788705e+01
5.500000e-07	-4.920525e-06	-1.248051e-09	-3.416593e+01	-7.762023e+01
5.600000e-07	-4.898871e-06	-1.190977e-09	-3.401557e+01	-7.734862e+01
5.700000e-07	-4.876966e-06	-1.169838e-09	-3.386347e+01	-7.707244e+01
5.800000e-07	-4.854611e-06	-1.225865e-09	-3.370825e+01	-7.679191e+01
5.900000e-07	-4.831749e-06	-1.208681e-09	-3.354951e+01	-7.650726e+01
6.000000e-07	-4.808581e-06	-1.162657e-09	-3.338864e+01	-7.621867e+01
6.100000e-07	-4.785199e-06	-1.189761e-09	-3.322629e+01	-7.592637e+01
6.200000e-07	-4.761619e-06	-1.195272e-09	-3.306256e+01	-7.563052e+01
6.300000e-07	-4.737848e-06	-1.143808e-09	-3.289750e+01	-7.533131e+01
6.400000e-07	-4.713815e-06	-1.155098e-09	-3.273063e+01	-7.502889e+01
6.500000e-07	-4.689306e-06	-1.175878e-09	-3.256045e+01	-7.472342e+01
6.600000e-07	-4.664290e-06	-1.149961e-09	-3.238675e+01	-7.441504e+01
6.700000e-07	-4.638846e-06	-1.141401e-09	-3.221008e+01	-7.410386e+01
6.800000e-07	-4.612752e-06	-1.168005e-09	-3.202889e+01	-7.378998e+01
6.900000e-07	-4.586032e-06	-1.144258e-09	-3.184336e+01	-7.347351e+01
7.000000e-07	-4.558897e-06	-1.124290e-09	-3.165495e+01	-7.315451e+01
7.100000e-07	-4.531445e-06	-1.129300e-09	-3.146433e+01	-7.283305e+01
7.200000e-07	-4.503812e-06	-1.124361e-09	-3.127246e+01	-7.250918e+01
7.300000e-07	-4.476119e-06	-1.099343e-09	-3.108017e+01	-7.218293e+01
7.400000e-07	-4.448308e-06	-1.104573e-09	-3.088706e+01	-7.185432e+01
7.500000e-07	-4.420208e-06	-1.105975e-09	-3.069196e+01	-7.152337e+01
7.600000e-07	-4.391739e-06	-1.093870e-09	-3.049427e+01	-7.119005e+01
7.700000e-07	-4.362912e-06	-1.082636e-09	-3.029411e+01	-7.085437e+01
7.800000e-07	-4.333719e-06	-1.081720e-09	-3.009141e+01	-7.051629e+01
7.900000e-07	-4.304209e-06	-1.072110e-09	-2.988651e+01	-7.017578e+01
8.000000e-07	-4.274506e-06	-1.066145e-09	-2.968026e+01	-6.983280e+01
8.100000e-07	-4.244585e-06	-1.058085e-09	-2.947250e+01	-6.948730e+01
8.200000e-07	-4.214355e-06	-1.048797e-09	-2.926260e+01	-6.913922e+01
8.300000e-07	-4.183787e-06	-1.042784e-09	-2.905035e+01	-6.878849e+01
8.400000e-07	-4.152882e-06	-1.044138e-09	-2.883576e+01	-6.843506e+01
8.500000e-07	-4.121657e-06	-1.035319e-09	-2.861895e+01	-6.807884e+01
8.600000e-07	-4.090249e-06	-1.022353e-09	-2.840087e+01	-6.771978e+01
8.700000e-07	-4.058705e-06	-1.017238e-09	-2.818184e+01	-6.735778e+01
8.800000e-07	-4.027015e-06	-1.011959e-09	-2.796179e+01	-6.699279e+01
8.900000e-07	-3.995230e-06	-1.004482e-09	-2.774110e+01	-6.662471e+01
9.000000e-07	-3.963152e-06	-9.969303e-10	-2.751836e+01	-6.625349e+01
9.100000e-07	-3.930736e-06	-9.932010e-10	-2.729328e+01	-6.587904e+01
9.200000e-07	-3.897903e-06	-9.805043e-10	-2.706530e+01	-6.550129e+01
9.300000e-07	-3.864478e-06	-9.726844e-10	-2.683321e+01	-6.512018e+01
9.400000e-07	-3.830612e-06	-9.666509e-10	-2.659806e+01	-6.473564e+01
9.500000e-07	-3.796347e-06	-9.585475e-10	-2.636014e+01	-6.434761e+01
9.600000e-07	-3.761693e-06	-9.452880e-10	-2.611951e+01	-6.395603e+01
9.700000e-07	-3.726680e-06	-9.413666e-10	-2.587641e+01	-6.356084e+01
9.800000e-07	-3.691344e-06	-9.368540e-10	-2.563105e+01	-6.316199e+01
9.900000e-07	-3.655840e-06	-9.323483e-10	-2.538452e+01	-6.275945e+01
1.000000e-06	-3.620257e-06	-9.258157e-10	-2.513745e+01	-6.235316e+01
1.010000e-06	-3.584575e-06	-9.219792e-10	-2.488969e+01	-6.194310e+01
1.020000e-06	-3.548748e-06	-9.115229e-10	-2.464092e+01	-6.152922e+01
1.030000e-06	-3.512746e-06	-9.011178e-10	-2.439094e+01	-6.111151e+01
1.040000e-06	-3.476487e-06	-8.922841e-10	-2.413917e+01	-6.068993e+01
1.050000e-06	-3.439825e-06	-8.864855e-10	-2.388461e+01	-6.026447e+01
1.060000e-06	-3.402813e-06	-8.805620e-10	-2.362761e+01	-5.983511e+01
1.070000e-06	-3.365650e-06	-8.804687e-10	-2.336957e+01	-5.940184e+01
1.080000e-06	-3.328321e-06	-8.765335e-10	-2.311037e+01	-5.896464e+01
1.090000e-06	-3.290765e-06	-8.673233e-10	-2.284961e+01	-5.852352e+01
1.100000e-06	-3.252978e-06	-8.556625e-10	-2.258722e+01	-5.807846e+01
1.110000e-06	-3.214905e-06	-8.427865e-10	-2.232286e+01	-5.762946e+01
1.120000e-06	-3.176614e-06	-8.284556e-10	-2.205699e+01	-5.717653e+01
1.130000e-06	-3.138101e-06	-8.182984e-10	-2.178957e+01	-5.671966e+01
1.140000e-06	-3.099414e-06	-8.166007e-10	-2.152094e+01	-5.625885e+01
1.150000e-06	-3.060501e-06	-8.139526e-10	-2.125075e+01	-5.579411e+01
1.160000e-06	-3.021401e-06	-8.083297e-10	-2.097926e+01	-5.532544e+01
1.170000e-06	-2.982202e-06	-8.021216e-10	-2.070708e+01	-5.485283e+01
1.180000e-06	-2.942763e-06	-7.960685e-10	-2.043323e+01	-5.437629e+01
1.190000e-06	-2.903196e-06	-7.847794e-10	-2.015850e+01	-5.389582e+01
1.200000e-06	-2.863554e-06	-7.733864e-10	-1.988324e+01	-5.341142e+01
1.210000e-06	-2.823767e-06	-7.654710e-10	-1.960697e+01	-5.292307e+01
1.220000e-06	-2.783789e-06	-7.590578e-10	-1.932939e+01	-5.243077e+01
1.230000e-06	-2.743546e-06	-7.510822e-10	-1.904996e+01	-5.193450e+01
1.240000e-06	-2.703088e-06	-7.426265e-10	-1.876904e+01	-5.143425e+01
1.250000e-06	-2.662539e-06	-7.339921e-10	-1.848749e+01	-5.093000e+01
1.260000e-06	-2.621657e-06	-7.268139e-10	-1.820362e+01	-5.042171e+01
1.270000e-06	-2.580357e-06	-7.173954e-10	-1.791685e+01	-4.990936e+01
1.280000e-06	-2.538747e-06	-7.095868e-10	-1.762793e+01	-4.939291e+01
1.290000e-06	-2.496803e-06	-7.021422e-10	-1.733669e+01	-4.887229e+01
1.300000e-06	-2.454669e-06	-6.947064e-10	-1.704413e+01	-4.834747e+01
1.310000e-06	-2.412207e-06	-6.835317e-10	-1.674929e+01	-4.781837e+01
1.320000e-06	-2.369404e-06	-6.707846e-10	-1.645209e+01	-4.728491e+01
1.330000e-06	-2.326429e-06	-6.597897e-10	-1.615369e+01	-4.674701e+01
1.340000e-06	-2.283315e-06	-6.520137e-10	-1.585432e+01	-4.620458e+01
1.350000e-06	-2.240059e-06	-6.434766e-10	-1.555397e+01	-4.565750e+01
1.360000e-06	-2.196641e-06	-6.352788e-10	-1.525250e+01	-4.510566e+01
1.370000e-06	-2.153120e-06	-6.282474e-10	-1.495031e+01	-4.454891e+01
1.380000e-06	-2.109513e-06	-6.218868e-10	-1.464751e+01	-4.398710e+01
1.390000e-06	-2.065885e-06	-6.123846e-10	-1.434459e+01	-4.342007e+01
1.400000e-06	-2.022188e-06	-6.015450e-10	-1.404117e+01	-4.284765e+01
1.410000e-06	-1.978392e-06	-5.895631e-10	-1.373707e+01	-4.226962e+01
1.420000e-06	-1.934532e-06	-5.791698e-10	-1.343253e+01	-4.168578e+01
1.430000e-06	-1.890546e-06	-5.715340e-10	-1.312711e+01	-4.109590e+01
1.440000e-06	-1.846409e-06	-5.636732e-10	-1.282064e+01	-4.049972e+01
1.450000e-06	-1.802079e-06	-5.552110e-10	-1.251283e+01	-3.989699e+01
1.460000e-06	-1.757687e-06	-5.444675e-10	-1.220459e+01	-3.928740e+01
1.470000e-06	-1.713203e-06	-5.333943e-10	-1.189572e+01	-3.867067e+01
1.480000e-06	-1.668488e-06	-5.234066e-10	-1.158523e+01	-3.804646e+01
1.490000e-06	-1.623576e-06	-5.145686e-10	-1.127339e+01	-3.741443e+01
1.500000e-06	-1.578572e-06	-5.064175e-10	-1.096090e+01	-3.677424e+01
1.510000e-06	-1.533506e-06	-4.971668e-10	-1.064798e+01	-3.612549e+01
1.520000e-06	-1.488236e-06	-4.849032e-10	-1.033365e+01	-3.546781e+01
1.530000e-06	-1.442892e-06	-4.721532e-10	-1.001880e+01	-3.480078e+01
1.540000e-06	-1.397524e-06	-4.609609e-10	-9.703784e+00	-3.412398e+01
1.550000e-06	-1.352044e-06	-4.512311e-10	-9.387990e+00	-3.343697e+01
1.560000e-06	-1.306516e-06	-4.404032e-10	-9.071864e+00	-3.273931e+01
1.570000e-06	-1.260930e-06	-4.287300e-10	-8.755334e+00	-3.203054e+01
1.580000e-06	-1.215215e-06	-4.175270e-10	-8.437908e+00	-3.131020e+01
1.590000e-06	-1.169404e-06	-4.086121e-10	-8.119819e+00	-3.057781e+01
1.600000e-06	-1.123489e-06	-3.985779e-10	-7.801007e+00	-2.983289e+01
1.610000e-06	-1.077507e-06	-3.879739e-10	-7.481728e+00	-2.907497e+01
1.620000e-06	-1.031497e-06	-3.775016e-10	-7.162254e+00	-2.830358e+01
1.630000e-06	-9.853596e-07	-3.681861e-10	-6.841897e+00	-2.751823e+01
1.640000e-06	-9.391957e-07	-3.577287e-10	-6.521356e+00	-2.671847e+01
1.650000e-06	-8.930300e-07	-3.459526e-10	-6.200802e+00	-2.590384e+01
1.660000e-06	-8.467764e-07	-3.341705e-10	-5.879638e+00	-2.507390e+01
1.670000e-06	-8.004917e-07	-3.201594e-10	-5.558257e+00	-2.422823e+01
1.680000e-06	-7.541889e-07	-3.050252e-10	-5.236751e+00	-2.336642e+01
1.690000e-06	-7.077411e-07	-2.930146e-10	-4.914238e+00	-2.248808e+01
1.700000e-06	-6.611501e-07	-2.825807e-10	-4.590732e+00	-2.159288e+01
1.710000e-06	-6.145525e-07	-2.698693e-10	-4.267178e+00	-2.068048e+01
1.720000e-06	-5.679035e-07	-2.546293e-10	-3.943269e+00	-1.975061e+01
1.730000e-06	-5.211941e-07	-2.364353e-10	-3.618939e+00	-1.880300e+01
1.740000e-06	-4.745341e-07	-2.159885e-10	-3.294953e+00	-1.783747e+01
1.750000e-06	-4.278868e-07	-1.985449e-10	-2.971055e+00	-1.685383e+01
1.760000e-06	-3.811548e-07	-1.856345e-10	-2.646569e+00	-1.585200e+01
1.770000e-06	-3.342987e-07	-1.742609e-10	-2.321221e+00	-1.483189e+01
1.780000e-06	-2.874014e-07	-1.631637e-10	-1.995587e+00	-1.379350e+01
1.790000e-06	-2.405277e-07	-1.510669e-10	-1.670117e+00	-1.273689e+01
1.800000e-06	-1.936062e-07	-1.351202e-10	-1.344315e+00	-1.166217e+01
1.810000e-06	-1.466815e-07	-1.161914e-10	-1.018491e+00	-1.056951e+01
1.820000e-06	-9.982124e-08	-9.797167e-11	-6.931141e-01	-9.459132e+00
1.830000e-06	-5.293667e-08	-8.332232e-11	-3.675686e-01	-8.331351e+00
1.840000e-06	-5.992920e-09	-7.108932e-11	-4.161217e-02	-7.186529e+00
1.850000e-06	4.102528e-08	-5.664809e-11	2.848612e-01	-6.025099e+00
1.860000e-06	8.805167e-08	-4.290457e-11	6.113915e-01	-4.847563e+00
1.870000e-06	1.349809e-07	-2.814952e-11	9.372472e-01	-3.654487e+00
1.880000e-06	1.818418e-07	-9.443262e-12	1.262628e+00	-2.446508e+00
1.890000e-06	2.287439e-07	1.114667e-11	1.588296e+00	-1.224323e+00
1.900000e-06	2.755999e-07	3.107470e-11	1.913643e+00	1.130043e-02
1.910000e-06	3.223359e-07	5.041022e-11	2.238156e+00	1.259536e+00
1.920000e-06	3.691399e-07	6.613939e-11	2.563143e+00	2.519497e+00
1.930000e-06	4.159025e-07	7.825329e-11	2.887841e+00	3.790236e+00
1.940000e-06	4.626108e-07	9.398576e-11	3.212163e+00	5.070755e+00
1.950000e-06	5.093094e-07	1.136406e-10	3.536417e+00	6.360001e+00
1.960000e-06	5.558629e-07	1.335562e-10	3.859664e+00	7.656877e+00
1.970000e-06	6.023372e-07	1.533842e-10	4.182361e+00	8.960240e+00
1.980000e-06	6.488047e-07	1.727704e-10	4.505010e+00	1.026891e+01
1.990000e-06	6.952002e-07	1.905279e-10	4.827160e+00	1.158168e+01
2.000000e-06	7.415292e-07	2.047976e-10	5.148848e+00	1.289730e+01
2.010000e-06	7.878564e-07	2.219872e-10	5.470523e+00	1.421451e+01
2.020000e-06	8.341063e-07	2.436793e-10	5.791662e+00	1.553203e+01
2.030000e-06	8.802548e-07	2.668675e-10	6.112097e+00	1.684857e+01
2.040000e-06	9.263958e-07	2.882819e-10	6.432479e+00	1.816282e+01
2.050000e-06	9.725811e-07	3.079575e-10	6.753169e+00	1.947350e+01
2.060000e-06	1.018698e-06	3.249269e-10	7.073386e+00	2.077931e+01
2.070000e-06	1.064659e-06	3.403448e-10	7.392517e+00	2.207898e+01
2.080000e-06	1.110485e-06	3.570018e-10	7.710715e+00	2.337125e+01
2.090000e-06	1.156210e-06	3.746788e-10	8.028203e+00	2.465489e+01
2.100000e-06	1.201876e-06	3.953607e-10	8.345294e+00	2.592869e+01
2.110000e-06	1.247518e-06	4.148922e-10	8.662205e+00	2.719150e+01
2.120000e-06	1.293105e-06	4.327188e-10	8.978747e+00	2.844220e+01
2.130000e-06	1.338658e-06	4.492429e-10	9.295044e+00	2.967970e+01
2.140000e-06	1.384119e-06	4.659121e-10	9.610708e+00	3.090300e+01
2.150000e-06	1.429384e-06	4.833817e-10	9.925003e+00	3.211112e+01
2.160000e-06	1.474573e-06	5.006624e-10	1.023877e+01	3.330316e+01
2.170000e-06	1.519683e-06	5.168956e-10	1.055200e+01	3.447828e+01
2.180000e-06	1.564641e-06	5.354288e-10	1.086417e+01	3.563572e+01
2.190000e-06	1.609517e-06	5.513914e-10	1.117577e+01	3.677476e+01
2.200000e-06	1.654292e-06	5.658892e-10	1.148666e+01	3.789480e+01
2.210000e-06	1.698869e-06	5.806469e-10	1.179619e+01	3.899528e+01
2.220000e-06	1.743286e-06	5.948218e-10	1.210460e+01	4.007571e+01
2.230000e-06	1.787491e-06	6.115805e-10	1.241154e+01	4.113571e+01
2.240000e-06	1.831560e-06	6.267640e-10	1.271754e+01	4.217496e+01
2.250000e-06	1.875641e-06	6.399781e-10	1.302362e+01	4.319321e+01
2.260000e-06	1.919709e-06	6.501443e-10	1.332960e+01	4.419029e+01
2.270000e-06	1.963658e-06	6.639252e-10	1.363476e+01	4.516612e+01
2.280000e-06	2.007409e-06	6.796157e-10	1.393855e+01	4.612068e+01
2.290000e-06	2.051088e-06	6.949915e-10	1.424184e+01	4.705401e+01
2.300000e-06	2.094712e-06	7.092494e-10	1.454475e+01	4.796624e+01
2.310000e-06	2.138281e-06	7.209793e-10	1.484727e+01	4.885755e+01
2.320000e-06	2.181812e-06	7.346641e-10	1.514953e+01	4.972819e+01
2.330000e-06	2.225262e-06	7.472785e-10	1.545123e+01	5.057846e+01
2.340000e-06	2.268586e-06	7.588375e-10	1.575205e+01	5.140872e+01
2.350000e-06	2.311795e-06	7.741642e-10	1.605207e+01	5.221937e+01
2.360000e-06	2.354838e-06	7.914405e-10	1.635094e+01	5.301087e+01
2.370000e-06	2.397577e-06	8.035813e-10	1.664771e+01	5.378368e+01
2.380000e-06	2.440020e-06	8.135187e-10	1.694241e+01	5.453835e+01
2.390000e-06	2.482217e-06	8.224362e-10	1.723540e+01	5.527540e+01
2.400000e-06	2.524118e-06	8.284398e-10	1.752635e+01	5.599542e+01
2.410000e-06	2.565613e-06	8.350838e-10	1.781447e+01	5.669898e+01
2.420000e-06	2.606879e-06	8.452734e-10	1.810100e+01	5.738668e+01
2.430000e-06	2.647880e-06	8.592021e-10	1.838570e+01	5.805914e+01
2.440000e-06	2.688553e-06	8.731632e-10	1.866811e+01	5.871695e+01
2.450000e-06	2.729036e-06	8.842510e-10	1.894921e+01	5.936072e+01
2.460000e-06	2.769193e-06	8.959602e-10	1.922804e+01	5.999104e+01
2.470000e-06	2.809134e-06	9.063012e-10	1.950537e+01	6.060849e+01
2.480000e-06	2.849024e-06	9.130767e-10	1.978235e+01	6.121363e+01
2.490000e-06	2.888810e-06	9.195094e-10	2.005861e+01	6.180702e+01
2.500000e-06	2.928426e-06	9.267677e-10	2.033369e+01	6.238916e+01
2.510000e-06	2.967840e-06	9.358030e-10	2.060736e+01	6.296054e+01
2.520000e-06	3.007074e-06	9.466331e-10	2.087978e+01	6.352163e+01
2.530000e-06	3.046147e-06	9.570499e-10	2.115109e+01	6.407286e+01
2.540000e-06	3.084994e-06	9.666286e-10	2.142082e+01	6.461461e+01
2.550000e-06	3.123572e-06	9.751962e-10	2.168869e+01	6.514724e+01
2.560000e-06	3.161915e-06	9.824784e-10	2.195493e+01	6.567108e+01
2.570000e-06	3.200101e-06	9.870071e-10	2.222007e+01	6.618639e+01
2.580000e-06	3.238146e-06	9.901691e-10	2.248424e+01	6.669344e+01
2.590000e-06	3.275923e-06	9.960204e-10	2.274655e+01	6.719242e+01
2.600000e-06	3.313450e-06	1.005041e-09	2.300712e+01	6.768350e+01
2.610000e-06	3.350818e-06	1.013675e-09	2.326658e+01	6.816682e+01
2.620000e-06	3.387967e-06	1.019165e-09	2.352453e+01	6.864248e+01
2.630000e-06	3.424886e-06	1.024888e-09	2.378088e+01	6.911053e+01
2.640000e-06	3.461559e-06	1.031069e-09	2.403552e+01	6.957103e+01
2.650000e-06	3.497967e-06	1.037318e-09	2.428833e+01	7.002397e+01
2.660000e-06	3.534032e-06	1.045058e-09	2.453874e+01	7.046935e+01
2.670000e-06	3.569848e-06	1.050560e-09	2.478743e+01	7.090711e+01
2.680000e-06	3.605574e-06	1.055000e-09	2.503550e+01	7.133721e+01
2.690000e-06	3.641213e-06	1.061141e-09	2.528296e+01	7.175957e+01
2.700000e-06	3.676746e-06	1.065998e-09	2.552968e+01	7.217409e+01
2.710000e-06	3.712110e-06	1.069387e-09	2.577524e+01	7.258070e+01
2.720000e-06	3.747309e-06	1.074753e-09	2.601964e+01	7.297927e+01
2.730000e-06	3.782166e-06	1.083040e-09	2.626167e+01	7.336971e+01
2.740000e-06	3.816591e-06	1.090528e-09	2.650071e+01	7.375191e+01
2.750000e-06	3.850585e-06	1.096028e-09	2.673674e+01	7.412578e+01
2.760000e-06	3.884044e-06	1.101041e-09	2.696907e+01	7.449120e+01
2.770000e-06	3.917084e-06	1.105401e-09	2.719849e+01	7.484812e+01
2.780000e-06	3.949719e-06	1.109086e-09	2.742509e+01	7.519644e+01
2.790000e-06	3.981868e-06	1.113215e-09	2.764832e+01	7.553612e+01
2.800000e-06	4.013715e-06	1.118657e-09	2.786945e+01	7.586711e+01
2.810000e-06	4.045433e-06	1.124427e-09	2.808968e+01	7.618940e+01
2.820000e-06	4.076987e-06	1.132334e-09	2.830878e+01	7.650298e+01
2.830000e-06	4.108363e-06	1.140124e-09	2.852664e+01	7.680788e+01
2.840000e-06	4.139635e-06	1.144211e-09	2.874378e+01	7.710415e+01
2.850000e-06	4.170703e-06	1.149257e-09	2.895950e+01	7.739184e+01
2.860000e-06	4.201441e-06	1.153795e-09	2.917293e+01	7.767106e+01
2.870000e-06	4.231804e-06	1.155090e-09	2.938376e+01	7.794192e+01
2.880000e-06	4.261836e-06	1.157687e-09	2.959229e+01	7.820455e+01
2.890000e-06	4.291606e-06	1.163185e-09	2.979900e+01	7.845913e+01
2.900000e-06	4.321087e-06	1.170395e-09	3.000370e+01	7.870584e+01
2.910000e-06	4.350267e-06	1.177450e-09	3.020631e+01	7.894488e+01
