# Temperatura_=_-1.4
# Concentracion g/m^3_=_1620.0
# C_Vs_to_Am_M_A/Vsm_=_65563218390.804596
# pendiente_HvsI_1/m_=_3716.3
# ordenada_HvsI_A/m_=_1297.0
# frecuencia_Hz_=_135104.75529208334

Tiempo_(s)	Campo_(V.s)	Magnetizacion_(V.s)	Campo_(kA/m)	Magnetizacion_(A/m)
0.000000e+00	-5.511558e-06	-1.008070e-09	-3.836334e+01	-6.706448e+01
1.000000e-08	-5.511800e-06	-1.006181e-09	-3.836503e+01	-6.702663e+01
2.000000e-08	-5.511827e-06	-1.006666e-09	-3.836522e+01	-6.698716e+01
3.000000e-08	-5.511571e-06	-1.008546e-09	-3.836344e+01	-6.694590e+01
4.000000e-08	-5.510887e-06	-1.008119e-09	-3.835868e+01	-6.690271e+01
5.000000e-08	-5.509706e-06	-9.998476e-10	-3.835046e+01	-6.685746e+01
6.000000e-08	-5.507996e-06	-9.822344e-10	-3.833855e+01	-6.681001e+01
7.000000e-08	-5.505678e-06	-9.770163e-10	-3.832242e+01	-6.676025e+01
8.000000e-08	-5.502750e-06	-1.012046e-09	-3.830204e+01	-6.670807e+01
9.000000e-08	-5.499301e-06	-1.064616e-09	-3.827803e+01	-6.665338e+01
1.000000e-07	-5.495442e-06	-1.092816e-09	-3.825118e+01	-6.659608e+01
1.100000e-07	-5.491279e-06	-1.057579e-09	-3.822220e+01	-6.653611e+01
1.200000e-07	-5.486852e-06	-9.576314e-10	-3.819138e+01	-6.647341e+01
1.300000e-07	-5.482151e-06	-9.141089e-10	-3.815866e+01	-6.640793e+01
1.400000e-07	-5.477180e-06	-9.982453e-10	-3.812406e+01	-6.633965e+01
1.500000e-07	-5.471776e-06	-1.026884e-09	-3.808644e+01	-6.626855e+01
1.600000e-07	-5.465909e-06	-9.865491e-10	-3.804560e+01	-6.619461e+01
1.700000e-07	-5.459737e-06	-9.335790e-10	-3.800265e+01	-6.611785e+01
1.800000e-07	-5.453239e-06	-1.038502e-09	-3.795742e+01	-6.603828e+01
1.900000e-07	-5.446262e-06	-1.067373e-09	-3.790886e+01	-6.595595e+01
2.000000e-07	-5.438856e-06	-9.737011e-10	-3.785730e+01	-6.587088e+01
2.100000e-07	-5.431240e-06	-8.821979e-10	-3.780429e+01	-6.578313e+01
2.200000e-07	-5.423442e-06	-9.550012e-10	-3.775001e+01	-6.569277e+01
2.300000e-07	-5.415361e-06	-1.032602e-09	-3.769376e+01	-6.559986e+01
2.400000e-07	-5.406891e-06	-1.011596e-09	-3.763481e+01	-6.550448e+01
2.500000e-07	-5.397866e-06	-9.681126e-10	-3.757199e+01	-6.540671e+01
2.600000e-07	-5.388193e-06	-9.698026e-10	-3.750466e+01	-6.530666e+01
2.700000e-07	-5.377764e-06	-9.831871e-10	-3.743207e+01	-6.520440e+01
2.800000e-07	-5.366682e-06	-9.470965e-10	-3.735493e+01	-6.510004e+01
2.900000e-07	-5.355228e-06	-9.606506e-10	-3.727521e+01	-6.499369e+01
3.000000e-07	-5.343482e-06	-9.746692e-10	-3.719345e+01	-6.488543e+01
3.100000e-07	-5.331377e-06	-9.835873e-10	-3.710920e+01	-6.477537e+01
3.200000e-07	-5.318878e-06	-9.577376e-10	-3.702219e+01	-6.466361e+01
3.300000e-07	-5.305962e-06	-9.758848e-10	-3.693229e+01	-6.455026e+01
3.400000e-07	-5.292552e-06	-9.564396e-10	-3.683895e+01	-6.443540e+01
3.500000e-07	-5.278787e-06	-9.650710e-10	-3.674314e+01	-6.431912e+01
3.600000e-07	-5.264727e-06	-9.596809e-10	-3.664528e+01	-6.420152e+01
3.700000e-07	-5.250183e-06	-9.617107e-10	-3.654404e+01	-6.408267e+01
3.800000e-07	-5.234999e-06	-9.464395e-10	-3.643835e+01	-6.396265e+01
3.900000e-07	-5.219200e-06	-9.740950e-10	-3.632838e+01	-6.384153e+01
4.000000e-07	-5.202877e-06	-9.529559e-10	-3.621477e+01	-6.371936e+01
4.100000e-07	-5.186248e-06	-9.321596e-10	-3.609902e+01	-6.359621e+01
4.200000e-07	-5.169402e-06	-9.505423e-10	-3.598176e+01	-6.347211e+01
4.300000e-07	-5.152220e-06	-9.623333e-10	-3.586217e+01	-6.334710e+01
4.400000e-07	-5.134650e-06	-9.226520e-10	-3.573987e+01	-6.322121e+01
4.500000e-07	-5.116789e-06	-9.480129e-10	-3.561555e+01	-6.309446e+01
4.600000e-07	-5.098561e-06	-9.855288e-10	-3.548867e+01	-6.296686e+01
4.700000e-07	-5.079853e-06	-9.277502e-10	-3.535845e+01	-6.283840e+01
4.800000e-07	-5.060775e-06	-8.979379e-10	-3.522566e+01	-6.270908e+01
4.900000e-07	-5.041379e-06	-9.638319e-10	-3.509066e+01	-6.257888e+01
5.000000e-07	-5.021735e-06	-9.579949e-10	-3.495392e+01	-6.244779e+01
5.100000e-07	-5.001900e-06	-8.959564e-10	-3.481586e+01	-6.231577e+01
5.200000e-07	-4.981784e-06	-9.366305e-10	-3.467584e+01	-6.218277e+01
5.300000e-07	-4.961284e-06	-9.628352e-10	-3.453315e+01	-6.204876e+01
5.400000e-07	-4.940471e-06	-9.127481e-10	-3.438828e+01	-6.191369e+01
5.500000e-07	-4.919381e-06	-9.235357e-10	-3.424149e+01	-6.177748e+01
5.600000e-07	-4.897936e-06	-9.635350e-10	-3.409221e+01	-6.164009e+01
5.700000e-07	-4.876125e-06	-9.009922e-10	-3.394040e+01	-6.150145e+01
5.800000e-07	-4.854013e-06	-8.889384e-10	-3.378649e+01	-6.136148e+01
5.900000e-07	-4.831625e-06	-9.503179e-10	-3.363065e+01	-6.122010e+01
6.000000e-07	-4.808903e-06	-9.372592e-10	-3.347250e+01	-6.107725e+01
6.100000e-07	-4.785738e-06	-8.892496e-10	-3.331126e+01	-6.093284e+01
6.200000e-07	-4.762198e-06	-9.306512e-10	-3.314741e+01	-6.078679e+01
6.300000e-07	-4.738463e-06	-9.268706e-10	-3.298220e+01	-6.063902e+01
6.400000e-07	-4.714568e-06	-8.770894e-10	-3.281588e+01	-6.048945e+01
6.500000e-07	-4.690419e-06	-8.899034e-10	-3.264779e+01	-6.033799e+01
6.600000e-07	-4.665813e-06	-9.192935e-10	-3.247652e+01	-6.018456e+01
6.700000e-07	-4.640727e-06	-8.836830e-10	-3.230190e+01	-6.002908e+01
6.800000e-07	-4.615249e-06	-8.881779e-10	-3.212456e+01	-5.987147e+01
6.900000e-07	-4.589189e-06	-9.136207e-10	-3.194317e+01	-5.971165e+01
7.000000e-07	-4.562515e-06	-8.910673e-10	-3.175751e+01	-5.954955e+01
7.100000e-07	-4.535385e-06	-8.686795e-10	-3.156867e+01	-5.938509e+01
7.200000e-07	-4.507947e-06	-8.892979e-10	-3.137768e+01	-5.921820e+01
7.300000e-07	-4.480355e-06	-8.801061e-10	-3.118563e+01	-5.904881e+01
7.400000e-07	-4.452613e-06	-8.623695e-10	-3.099253e+01	-5.887685e+01
7.500000e-07	-4.424624e-06	-8.753222e-10	-3.079771e+01	-5.870227e+01
7.600000e-07	-4.396388e-06	-8.787339e-10	-3.060118e+01	-5.852499e+01
7.700000e-07	-4.367940e-06	-8.567163e-10	-3.040317e+01	-5.834497e+01
7.800000e-07	-4.339188e-06	-8.527578e-10	-3.020304e+01	-5.816214e+01
7.900000e-07	-4.310095e-06	-8.555508e-10	-3.000053e+01	-5.797646e+01
8.000000e-07	-4.280726e-06	-8.433163e-10	-2.979611e+01	-5.778787e+01
8.100000e-07	-4.251052e-06	-8.425088e-10	-2.958956e+01	-5.759633e+01
8.200000e-07	-4.221091e-06	-8.493913e-10	-2.938102e+01	-5.740178e+01
8.300000e-07	-4.190872e-06	-8.427228e-10	-2.917068e+01	-5.720420e+01
8.400000e-07	-4.160309e-06	-8.325519e-10	-2.895794e+01	-5.700352e+01
8.500000e-07	-4.129409e-06	-8.347987e-10	-2.874286e+01	-5.679972e+01
8.600000e-07	-4.098247e-06	-8.221496e-10	-2.852596e+01	-5.659276e+01
8.700000e-07	-4.066840e-06	-8.086774e-10	-2.830735e+01	-5.638260e+01
8.800000e-07	-4.035258e-06	-8.084235e-10	-2.808752e+01	-5.616921e+01
8.900000e-07	-4.003514e-06	-8.123569e-10	-2.786657e+01	-5.595254e+01
9.000000e-07	-3.971540e-06	-8.031399e-10	-2.764401e+01	-5.573258e+01
9.100000e-07	-3.939378e-06	-8.035447e-10	-2.742015e+01	-5.550927e+01
9.200000e-07	-3.906916e-06	-8.025352e-10	-2.719419e+01	-5.528261e+01
9.300000e-07	-3.874063e-06	-7.931556e-10	-2.696552e+01	-5.505254e+01
9.400000e-07	-3.840868e-06	-7.841711e-10	-2.673447e+01	-5.481904e+01
9.500000e-07	-3.807238e-06	-7.869375e-10	-2.650038e+01	-5.458208e+01
9.600000e-07	-3.773046e-06	-7.791209e-10	-2.626239e+01	-5.434164e+01
9.700000e-07	-3.738328e-06	-7.705221e-10	-2.602073e+01	-5.409767e+01
9.800000e-07	-3.703266e-06	-7.708230e-10	-2.577668e+01	-5.385016e+01
9.900000e-07	-3.667940e-06	-7.721757e-10	-2.553079e+01	-5.359907e+01
1.000000e-06	-3.632381e-06	-7.655294e-10	-2.528328e+01	-5.334438e+01
1.010000e-06	-3.596686e-06	-7.645629e-10	-2.503483e+01	-5.308605e+01
1.020000e-06	-3.560872e-06	-7.635958e-10	-2.478555e+01	-5.282406e+01
1.030000e-06	-3.524950e-06	-7.572767e-10	-2.453551e+01	-5.255838e+01
1.040000e-06	-3.488838e-06	-7.531376e-10	-2.428415e+01	-5.228899e+01
1.050000e-06	-3.452445e-06	-7.544116e-10	-2.403084e+01	-5.201586e+01
1.060000e-06	-3.415821e-06	-7.489926e-10	-2.377592e+01	-5.173896e+01
1.070000e-06	-3.379000e-06	-7.407893e-10	-2.351962e+01	-5.145826e+01
1.080000e-06	-3.341919e-06	-7.377291e-10	-2.326152e+01	-5.117374e+01
1.090000e-06	-3.304528e-06	-7.346030e-10	-2.300126e+01	-5.088538e+01
1.100000e-06	-3.266884e-06	-7.293804e-10	-2.273924e+01	-5.059315e+01
1.110000e-06	-3.229049e-06	-7.246965e-10	-2.247588e+01	-5.029702e+01
1.120000e-06	-3.191060e-06	-7.199564e-10	-2.221146e+01	-4.999697e+01
1.130000e-06	-3.152855e-06	-7.109610e-10	-2.194553e+01	-4.969298e+01
1.140000e-06	-3.114380e-06	-7.060896e-10	-2.167772e+01	-4.938501e+01
1.150000e-06	-3.075630e-06	-7.032214e-10	-2.140800e+01	-4.907304e+01
1.160000e-06	-3.036609e-06	-6.984269e-10	-2.113640e+01	-4.875704e+01
1.170000e-06	-2.997418e-06	-6.920733e-10	-2.086361e+01	-4.843698e+01
1.180000e-06	-2.958143e-06	-6.907559e-10	-2.059024e+01	-4.811282e+01
1.190000e-06	-2.918718e-06	-6.866826e-10	-2.031581e+01	-4.778454e+01
1.200000e-06	-2.879126e-06	-6.816607e-10	-2.004023e+01	-4.745209e+01
1.210000e-06	-2.839418e-06	-6.760056e-10	-1.976385e+01	-4.711543e+01
1.220000e-06	-2.799546e-06	-6.695733e-10	-1.948632e+01	-4.677452e+01
1.230000e-06	-2.759512e-06	-6.596585e-10	-1.920766e+01	-4.642930e+01
1.240000e-06	-2.719348e-06	-6.531443e-10	-1.892809e+01	-4.607971e+01
1.250000e-06	-2.679019e-06	-6.485838e-10	-1.864738e+01	-4.572571e+01
1.260000e-06	-2.638464e-06	-6.435291e-10	-1.836510e+01	-4.536720e+01
1.270000e-06	-2.597705e-06	-6.376907e-10	-1.808139e+01	-4.500412e+01
1.280000e-06	-2.556691e-06	-6.331365e-10	-1.779592e+01	-4.463639e+01
1.290000e-06	-2.515297e-06	-6.287742e-10	-1.750780e+01	-4.426389e+01
1.300000e-06	-2.473550e-06	-6.244278e-10	-1.721721e+01	-4.388654e+01
1.310000e-06	-2.431592e-06	-6.171672e-10	-1.692516e+01	-4.350422e+01
1.320000e-06	-2.389319e-06	-6.090137e-10	-1.663092e+01	-4.311679e+01
1.330000e-06	-2.346687e-06	-5.996244e-10	-1.633418e+01	-4.272413e+01
1.340000e-06	-2.303811e-06	-5.912407e-10	-1.603574e+01	-4.232607e+01
1.350000e-06	-2.260699e-06	-5.856875e-10	-1.573566e+01	-4.192247e+01
1.360000e-06	-2.217421e-06	-5.812061e-10	-1.543442e+01	-4.151314e+01
1.370000e-06	-2.174061e-06	-5.746662e-10	-1.513261e+01	-4.109789e+01
1.380000e-06	-2.130562e-06	-5.687103e-10	-1.482984e+01	-4.067652e+01
1.390000e-06	-2.086943e-06	-5.633788e-10	-1.452622e+01	-4.024882e+01
1.400000e-06	-2.043279e-06	-5.560907e-10	-1.422230e+01	-3.981455e+01
1.410000e-06	-1.999482e-06	-5.478981e-10	-1.391745e+01	-3.937346e+01
1.420000e-06	-1.955581e-06	-5.403277e-10	-1.361187e+01	-3.892531e+01
1.430000e-06	-1.911634e-06	-5.340454e-10	-1.330598e+01	-3.846981e+01
1.440000e-06	-1.867614e-06	-5.280068e-10	-1.299958e+01	-3.800668e+01
1.450000e-06	-1.823465e-06	-5.226807e-10	-1.269227e+01	-3.753562e+01
1.460000e-06	-1.779241e-06	-5.145731e-10	-1.238446e+01	-3.705633e+01
1.470000e-06	-1.735012e-06	-5.033311e-10	-1.207660e+01	-3.656848e+01
1.480000e-06	-1.690689e-06	-4.897055e-10	-1.176809e+01	-3.607174e+01
1.490000e-06	-1.646196e-06	-4.779103e-10	-1.145839e+01	-3.556578e+01
1.500000e-06	-1.601529e-06	-4.704810e-10	-1.114749e+01	-3.505023e+01
1.510000e-06	-1.556729e-06	-4.671447e-10	-1.083566e+01	-3.452475e+01
1.520000e-06	-1.511813e-06	-4.627961e-10	-1.052302e+01	-3.398898e+01
1.530000e-06	-1.466765e-06	-4.549683e-10	-1.020945e+01	-3.344255e+01
1.540000e-06	-1.421577e-06	-4.416140e-10	-9.894923e+00	-3.288509e+01
1.550000e-06	-1.376273e-06	-4.278651e-10	-9.579587e+00	-3.231624e+01
1.560000e-06	-1.330890e-06	-4.160629e-10	-9.263696e+00	-3.173563e+01
1.570000e-06	-1.285435e-06	-4.076339e-10	-8.947304e+00	-3.114290e+01
1.580000e-06	-1.239866e-06	-4.003273e-10	-8.630122e+00	-3.053770e+01
1.590000e-06	-1.194175e-06	-3.939323e-10	-8.312090e+00	-2.991966e+01
1.600000e-06	-1.148388e-06	-3.865269e-10	-7.993384e+00	-2.928846e+01
1.610000e-06	-1.102527e-06	-3.781263e-10	-7.674168e+00	-2.864376e+01
1.620000e-06	-1.056657e-06	-3.686217e-10	-7.354888e+00	-2.798525e+01
1.630000e-06	-1.010701e-06	-3.600435e-10	-7.035012e+00	-2.731262e+01
1.640000e-06	-9.645990e-07	-3.524660e-10	-6.714117e+00	-2.662560e+01
1.650000e-06	-9.184349e-07	-3.423077e-10	-6.392791e+00	-2.592391e+01
1.660000e-06	-8.722350e-07	-3.293638e-10	-6.071215e+00	-2.520733e+01
1.670000e-06	-8.260179e-07	-3.163868e-10	-5.749520e+00	-2.447564e+01
1.680000e-06	-7.797580e-07	-3.036361e-10	-5.427527e+00	-2.372863e+01
1.690000e-06	-7.334653e-07	-2.906291e-10	-5.105305e+00	-2.296616e+01
1.700000e-06	-6.871210e-07	-2.803226e-10	-4.782724e+00	-2.218808e+01
1.710000e-06	-6.407217e-07	-2.709051e-10	-4.459761e+00	-2.139430e+01
1.720000e-06	-5.942248e-07	-2.604828e-10	-4.136118e+00	-2.058474e+01
1.730000e-06	-5.475759e-07	-2.469638e-10	-3.811417e+00	-1.975936e+01
1.740000e-06	-5.008768e-07	-2.296398e-10	-3.486366e+00	-1.891817e+01
1.750000e-06	-4.542487e-07	-2.113980e-10	-3.161810e+00	-1.806120e+01
1.760000e-06	-4.077033e-07	-1.966788e-10	-2.837830e+00	-1.718852e+01
1.770000e-06	-3.611127e-07	-1.857854e-10	-2.513535e+00	-1.630024e+01
1.780000e-06	-3.143995e-07	-1.778395e-10	-2.188386e+00	-1.539651e+01
1.790000e-06	-2.676878e-07	-1.702457e-10	-1.863248e+00	-1.447752e+01
1.800000e-06	-2.209956e-07	-1.610816e-10	-1.538246e+00	-1.354349e+01
1.810000e-06	-1.742509e-07	-1.477004e-10	-1.212878e+00	-1.259469e+01
1.820000e-06	-1.274674e-07	-1.317680e-10	-8.872406e-01	-1.163143e+01
1.830000e-06	-8.067443e-08	-1.172704e-10	-5.615366e-01	-1.065404e+01
1.840000e-06	-3.391299e-08	-1.059531e-10	-2.360523e-01	-9.662918e+00
1.850000e-06	1.285224e-08	-9.523080e-11	8.945838e-02	-8.658471e+00
1.860000e-06	5.963425e-08	-8.468493e-11	4.150858e-01	-7.641160e+00
1.870000e-06	1.063629e-07	-7.397998e-11	7.403420e-01	-6.611475e+00
1.880000e-06	1.530166e-07	-5.975052e-11	1.065076e+00	-5.569944e+00
1.890000e-06	1.996655e-07	-4.206570e-11	1.389777e+00	-4.517127e+00
1.900000e-06	2.463517e-07	-2.468792e-11	1.714738e+00	-3.453615e+00
1.910000e-06	2.931207e-07	-8.261983e-12	2.040275e+00	-2.380029e+00
1.920000e-06	3.399313e-07	6.607298e-12	2.366101e+00	-1.297021e+00
1.930000e-06	3.866166e-07	1.836576e-11	2.691055e+00	-2.052665e-01
1.940000e-06	4.332452e-07	2.943445e-11	3.015615e+00	8.945327e-01
1.950000e-06	4.799199e-07	4.263723e-11	3.340496e+00	2.001652e+00
1.960000e-06	5.264521e-07	5.757770e-11	3.664384e+00	3.115347e+00
1.970000e-06	5.728350e-07	7.352818e-11	3.987234e+00	4.234855e+00
1.980000e-06	6.191929e-07	9.054852e-11	4.309909e+00	5.359396e+00
1.990000e-06	6.654589e-07	1.070706e-10	4.631945e+00	6.488178e+00
2.000000e-06	7.116753e-07	1.214893e-10	4.953635e+00	7.620394e+00
2.010000e-06	7.579283e-07	1.348518e-10	5.275581e+00	8.755232e+00
2.020000e-06	8.041527e-07	1.503978e-10	5.597326e+00	9.891871e+00
2.030000e-06	8.503228e-07	1.683711e-10	5.918695e+00	1.102948e+01
2.040000e-06	8.963961e-07	1.862604e-10	6.239389e+00	1.216724e+01
2.050000e-06	9.424310e-07	2.015581e-10	6.559816e+00	1.330432e+01
2.060000e-06	9.884714e-07	2.155530e-10	6.880282e+00	1.443989e+01
2.070000e-06	1.034431e-06	2.295428e-10	7.200182e+00	1.557313e+01
2.080000e-06	1.080325e-06	2.454809e-10	7.519631e+00	1.670322e+01
2.090000e-06	1.126099e-06	2.622287e-10	7.838246e+00	1.782936e+01
2.100000e-06	1.171705e-06	2.796092e-10	8.155683e+00	1.895075e+01
2.110000e-06	1.217243e-06	2.975472e-10	8.472649e+00	2.006661e+01
2.120000e-06	1.262711e-06	3.118330e-10	8.789133e+00	2.117616e+01
2.130000e-06	1.308067e-06	3.232956e-10	9.104835e+00	2.227865e+01
2.140000e-06	1.353350e-06	3.367322e-10	9.420030e+00	2.337334e+01
2.150000e-06	1.398651e-06	3.529392e-10	9.735351e+00	2.445951e+01
2.160000e-06	1.443830e-06	3.700273e-10	1.004982e+01	2.553647e+01
2.170000e-06	1.488721e-06	3.865003e-10	1.036228e+01	2.660354e+01
2.180000e-06	1.533554e-06	4.035651e-10	1.067434e+01	2.766006e+01
2.190000e-06	1.578363e-06	4.221833e-10	1.098624e+01	2.870540e+01
2.200000e-06	1.623022e-06	4.379996e-10	1.129709e+01	2.973896e+01
2.210000e-06	1.667626e-06	4.509979e-10	1.160755e+01	3.076017e+01
2.220000e-06	1.712119e-06	4.629464e-10	1.191725e+01	3.176846e+01
2.230000e-06	1.756461e-06	4.736062e-10	1.222590e+01	3.276331e+01
2.240000e-06	1.800695e-06	4.848912e-10	1.253379e+01	3.374424e+01
2.250000e-06	1.844754e-06	4.958733e-10	1.284046e+01	3.471076e+01
2.260000e-06	1.888715e-06	5.072051e-10	1.314645e+01	3.566245e+01
2.270000e-06	1.932670e-06	5.197288e-10	1.345240e+01	3.659889e+01
2.280000e-06	1.976556e-06	5.383795e-10	1.375787e+01	3.751972e+01
2.290000e-06	2.020344e-06	5.578842e-10	1.406266e+01	3.842457e+01
2.300000e-06	2.064078e-06	5.735664e-10	1.436707e+01	3.931314e+01
2.310000e-06	2.107760e-06	5.844962e-10	1.467112e+01	4.018513e+01
2.320000e-06	2.151365e-06	5.898323e-10	1.497463e+01	4.104031e+01
2.330000e-06	2.194877e-06	5.960841e-10	1.527750e+01	4.187843e+01
2.340000e-06	2.238228e-06	6.058520e-10	1.557924e+01	4.269930e+01
2.350000e-06	2.281381e-06	6.204429e-10	1.587961e+01	4.350277e+01
2.360000e-06	2.324274e-06	6.387730e-10	1.617818e+01	4.428870e+01
2.370000e-06	2.366866e-06	6.550211e-10	1.647463e+01	4.505700e+01
2.380000e-06	2.409130e-06	6.660122e-10	1.676882e+01	4.580757e+01
2.390000e-06	2.451081e-06	6.736613e-10	1.706082e+01	4.654040e+01
2.400000e-06	2.492650e-06	6.784385e-10	1.735016e+01	4.725545e+01
2.410000e-06	2.533823e-06	6.814666e-10	1.763674e+01	4.795276e+01
2.420000e-06	2.574804e-06	6.846655e-10	1.792199e+01	4.863235e+01
2.430000e-06	2.615650e-06	6.934531e-10	1.820630e+01	4.929430e+01
2.440000e-06	2.656300e-06	7.067188e-10	1.848925e+01	4.993871e+01
2.450000e-06	2.696766e-06	7.194833e-10	1.877091e+01	5.056571e+01
2.460000e-06	2.737057e-06	7.322856e-10	1.905136e+01	5.117544e+01
2.470000e-06	2.777143e-06	7.428633e-10	1.933038e+01	5.176808e+01
2.480000e-06	2.817043e-06	7.490504e-10	1.960811e+01	5.234382e+01
2.490000e-06	2.856793e-06	7.553537e-10	1.988478e+01	5.290290e+01
2.500000e-06	2.896465e-06	7.619955e-10	2.016092e+01	5.344554e+01
2.510000e-06	2.936081e-06	7.682128e-10	2.043667e+01	5.397202e+01
2.520000e-06	2.975492e-06	7.755462e-10	2.071099e+01	5.448262e+01
2.530000e-06	3.014591e-06	7.842896e-10	2.098314e+01	5.497765e+01
2.540000e-06	3.053483e-06	7.910962e-10	2.125385e+01	5.545741e+01
2.550000e-06	3.092172e-06	7.961793e-10	2.152314e+01	5.592226e+01
2.560000e-06	3.130560e-06	8.006979e-10	2.179034e+01	5.637254e+01
2.570000e-06	3.168700e-06	8.047673e-10	2.205582e+01	5.680861e+01
2.580000e-06	3.206657e-06	8.083774e-10	2.232002e+01	5.723085e+01
2.590000e-06	3.244462e-06	8.132348e-10	2.258316e+01	5.763965e+01
2.600000e-06	3.282110e-06	8.204647e-10	2.284521e+01	5.803540e+01
2.610000e-06	3.319616e-06	8.277794e-10	2.310628e+01	5.841852e+01
2.620000e-06	3.356901e-06	8.325622e-10	2.336580e+01	5.878939e+01
2.630000e-06	3.393929e-06	8.351282e-10	2.362354e+01	5.914845e+01
2.640000e-06	3.430692e-06	8.383581e-10	2.387943e+01	5.949610e+01
2.650000e-06	3.467079e-06	8.429838e-10	2.413270e+01	5.983277e+01
2.660000e-06	3.503193e-06	8.482081e-10	2.438407e+01	6.015886e+01
2.670000e-06	3.539165e-06	8.526271e-10	2.463446e+01	6.047479e+01
2.680000e-06	3.575026e-06	8.557419e-10	2.488406e+01	6.078098e+01
2.690000e-06	3.610775e-06	8.597304e-10	2.513290e+01	6.107781e+01
2.700000e-06	3.646418e-06	8.653438e-10	2.538099e+01	6.136570e+01
2.710000e-06	3.681919e-06	8.709465e-10	2.562810e+01	6.164502e+01
2.720000e-06	3.717214e-06	8.754894e-10	2.587377e+01	6.191615e+01
2.730000e-06	3.752148e-06	8.790314e-10	2.611693e+01	6.217946e+01
2.740000e-06	3.786556e-06	8.820659e-10	2.635642e+01	6.243530e+01
2.750000e-06	3.820510e-06	8.843383e-10	2.659277e+01	6.268401e+01
2.760000e-06	3.854025e-06	8.875519e-10	2.682604e+01	6.292590e+01
2.770000e-06	3.887107e-06	8.920055e-10	2.705631e+01	6.316129e+01
2.780000e-06	3.919807e-06	8.986950e-10	2.728392e+01	6.339046e+01
2.790000e-06	3.952114e-06	9.065658e-10	2.750880e+01	6.361367e+01
2.800000e-06	3.984163e-06	9.126469e-10	2.773187e+01	6.383119e+01
2.810000e-06	4.016060e-06	9.159046e-10	2.795389e+01	6.404323e+01
2.820000e-06	4.047817e-06	9.180605e-10	2.817494e+01	6.425000e+01
2.830000e-06	4.079415e-06	9.209076e-10	2.839488e+01	6.445170e+01
2.840000e-06	4.110825e-06	9.241603e-10	2.861351e+01	6.464849e+01
2.850000e-06	4.142003e-06	9.280387e-10	2.883052e+01	6.484052e+01
2.860000e-06	4.172866e-06	9.337027e-10	2.904535e+01	6.502790e+01
2.870000e-06	4.203344e-06	9.377577e-10	2.925749e+01	6.521076e+01
2.880000e-06	4.233430e-06	9.391309e-10	2.946690e+01	6.538916e+01
2.890000e-06	4.263202e-06	9.409671e-10	2.967414e+01	6.556318e+01
2.900000e-06	4.292734e-06	9.445779e-10	2.987969e+01	6.573286e+01
