# Temperatura_=_-1.5
# Concentracion g/m^3_=_1620.0
# C_Vs_to_Am_M_A/Vsm_=_65563218390.804596
# pendiente_HvsI_1/m_=_3716.3
# ordenada_HvsI_A/m_=_1297.0
# frecuencia_Hz_=_135106.76559790748

Tiempo_(s)	Campo_(V.s)	Magnetizacion_(V.s)	Campo_(kA/m)	Magnetizacion_(A/m)
0.000000e+00	-5.511817e-06	-9.654802e-10	-3.837385e+01	-6.514024e+01
1.000000e-08	-5.512154e-06	-9.644482e-10	-3.837620e+01	-6.511295e+01
2.000000e-08	-5.512261e-06	-9.657281e-10	-3.837694e+01	-6.508671e+01
3.000000e-08	-5.512006e-06	-9.693920e-10	-3.837517e+01	-6.506131e+01
4.000000e-08	-5.511256e-06	-9.698926e-10	-3.836994e+01	-6.503651e+01
5.000000e-08	-5.510014e-06	-9.589548e-10	-3.836130e+01	-6.501205e+01
6.000000e-08	-5.508218e-06	-9.418291e-10	-3.834879e+01	-6.498768e+01
7.000000e-08	-5.505781e-06	-9.389607e-10	-3.833183e+01	-6.496314e+01
8.000000e-08	-5.502768e-06	-9.762606e-10	-3.831085e+01	-6.493816e+01
9.000000e-08	-5.499334e-06	-1.064376e-09	-3.828694e+01	-6.491248e+01
1.000000e-07	-5.495444e-06	-1.086308e-09	-3.825986e+01	-6.488584e+01
1.100000e-07	-5.491142e-06	-9.387009e-10	-3.822991e+01	-6.485796e+01
1.200000e-07	-5.486716e-06	-8.387766e-10	-3.819909e+01	-6.482859e+01
1.300000e-07	-5.482151e-06	-9.230117e-10	-3.816731e+01	-6.479750e+01
1.400000e-07	-5.477131e-06	-1.047100e-09	-3.813237e+01	-6.476442e+01
1.500000e-07	-5.471580e-06	-9.824652e-10	-3.809372e+01	-6.472915e+01
1.600000e-07	-5.465753e-06	-8.518453e-10	-3.805315e+01	-6.469146e+01
1.700000e-07	-5.459671e-06	-9.545424e-10	-3.801081e+01	-6.465116e+01
1.800000e-07	-5.453010e-06	-1.054791e-09	-3.796443e+01	-6.460807e+01
1.900000e-07	-5.445864e-06	-1.009766e-09	-3.791468e+01	-6.456203e+01
2.000000e-07	-5.438440e-06	-8.436167e-10	-3.786300e+01	-6.451289e+01
2.100000e-07	-5.430794e-06	-9.075916e-10	-3.780976e+01	-6.446053e+01
2.200000e-07	-5.422924e-06	-1.022565e-09	-3.775497e+01	-6.440484e+01
2.300000e-07	-5.414801e-06	-1.049154e-09	-3.769842e+01	-6.434576e+01
2.400000e-07	-5.406453e-06	-9.441510e-10	-3.764029e+01	-6.428320e+01
2.500000e-07	-5.397496e-06	-9.484685e-10	-3.757794e+01	-6.421714e+01
2.600000e-07	-5.387641e-06	-9.919052e-10	-3.750932e+01	-6.414755e+01
2.700000e-07	-5.377240e-06	-9.748963e-10	-3.743691e+01	-6.407444e+01
2.800000e-07	-5.366368e-06	-9.273862e-10	-3.736122e+01	-6.399782e+01
2.900000e-07	-5.354982e-06	-9.511110e-10	-3.728195e+01	-6.391774e+01
3.000000e-07	-5.343248e-06	-9.992188e-10	-3.720025e+01	-6.383424e+01
3.100000e-07	-5.331161e-06	-9.516434e-10	-3.711611e+01	-6.374740e+01
3.200000e-07	-5.318594e-06	-9.246572e-10	-3.702861e+01	-6.365730e+01
3.300000e-07	-5.305499e-06	-9.435957e-10	-3.693744e+01	-6.356404e+01
3.400000e-07	-5.292050e-06	-1.001003e-09	-3.684381e+01	-6.346773e+01
3.500000e-07	-5.278316e-06	-9.539989e-10	-3.674819e+01	-6.336849e+01
3.600000e-07	-5.264124e-06	-9.492006e-10	-3.664939e+01	-6.326643e+01
3.700000e-07	-5.249492e-06	-9.761353e-10	-3.654752e+01	-6.316169e+01
3.800000e-07	-5.234503e-06	-1.000349e-09	-3.644316e+01	-6.305440e+01
3.900000e-07	-5.218847e-06	-9.276579e-10	-3.633417e+01	-6.294470e+01
4.000000e-07	-5.202586e-06	-9.518681e-10	-3.622096e+01	-6.283270e+01
4.100000e-07	-5.186010e-06	-9.926844e-10	-3.610555e+01	-6.271855e+01
4.200000e-07	-5.168995e-06	-9.586912e-10	-3.598709e+01	-6.260236e+01
4.300000e-07	-5.151618e-06	-9.037844e-10	-3.586611e+01	-6.248425e+01
4.400000e-07	-5.134145e-06	-9.967051e-10	-3.574446e+01	-6.236433e+01
4.500000e-07	-5.116391e-06	-1.014955e-09	-3.562085e+01	-6.224270e+01
4.600000e-07	-5.098095e-06	-9.308296e-10	-3.549347e+01	-6.211943e+01
4.700000e-07	-5.079378e-06	-9.276704e-10	-3.536317e+01	-6.199462e+01
4.800000e-07	-5.060353e-06	-1.006642e-09	-3.523071e+01	-6.186831e+01
4.900000e-07	-5.040916e-06	-9.550841e-10	-3.509539e+01	-6.174054e+01
5.000000e-07	-5.021209e-06	-9.177187e-10	-3.495819e+01	-6.161136e+01
5.100000e-07	-5.001383e-06	-9.742682e-10	-3.482016e+01	-6.148076e+01
5.200000e-07	-4.981323e-06	-9.658858e-10	-3.468050e+01	-6.134875e+01
5.300000e-07	-4.960831e-06	-9.084115e-10	-3.453783e+01	-6.121531e+01
5.400000e-07	-4.939998e-06	-9.656378e-10	-3.439279e+01	-6.108040e+01
5.500000e-07	-4.918883e-06	-9.939313e-10	-3.424578e+01	-6.094397e+01
5.600000e-07	-4.897370e-06	-9.114509e-10	-3.409601e+01	-6.080595e+01
5.700000e-07	-4.875468e-06	-9.145642e-10	-3.394352e+01	-6.066626e+01
5.800000e-07	-4.853265e-06	-9.778424e-10	-3.378894e+01	-6.052481e+01
5.900000e-07	-4.830755e-06	-9.446146e-10	-3.363223e+01	-6.038148e+01
6.000000e-07	-4.807832e-06	-9.051957e-10	-3.347263e+01	-6.023616e+01
6.100000e-07	-4.784518e-06	-9.501641e-10	-3.331032e+01	-6.008871e+01
6.200000e-07	-4.760961e-06	-9.369706e-10	-3.314631e+01	-5.993900e+01
6.300000e-07	-4.737289e-06	-8.984854e-10	-3.298150e+01	-5.978688e+01
6.400000e-07	-4.713441e-06	-9.161803e-10	-3.281547e+01	-5.963221e+01
6.500000e-07	-4.689253e-06	-9.381184e-10	-3.264707e+01	-5.947483e+01
6.600000e-07	-4.664602e-06	-9.052452e-10	-3.247545e+01	-5.931458e+01
6.700000e-07	-4.639578e-06	-9.164786e-10	-3.230123e+01	-5.915132e+01
6.800000e-07	-4.614099e-06	-9.288744e-10	-3.212384e+01	-5.898488e+01
6.900000e-07	-4.588002e-06	-9.146881e-10	-3.194215e+01	-5.881513e+01
7.000000e-07	-4.561388e-06	-8.987162e-10	-3.175686e+01	-5.864191e+01
7.100000e-07	-4.534394e-06	-9.115031e-10	-3.156893e+01	-5.846510e+01
7.200000e-07	-4.507099e-06	-8.961447e-10	-3.137890e+01	-5.828457e+01
7.300000e-07	-4.479527e-06	-8.936421e-10	-3.118694e+01	-5.810021e+01
7.400000e-07	-4.451746e-06	-9.009427e-10	-3.099353e+01	-5.791190e+01
7.500000e-07	-4.423748e-06	-9.045118e-10	-3.079860e+01	-5.771957e+01
7.600000e-07	-4.395474e-06	-8.922796e-10	-3.060175e+01	-5.752313e+01
7.700000e-07	-4.366931e-06	-8.909349e-10	-3.040303e+01	-5.732253e+01
7.800000e-07	-4.338062e-06	-8.783425e-10	-3.020204e+01	-5.711773e+01
7.900000e-07	-4.308889e-06	-8.706654e-10	-2.999894e+01	-5.690868e+01
8.000000e-07	-4.279497e-06	-8.706997e-10	-2.979431e+01	-5.669539e+01
8.100000e-07	-4.249800e-06	-8.677192e-10	-2.958756e+01	-5.647786e+01
8.200000e-07	-4.219777e-06	-8.546128e-10	-2.937854e+01	-5.625612e+01
8.300000e-07	-4.189522e-06	-8.557044e-10	-2.916790e+01	-5.603019e+01
8.400000e-07	-4.158984e-06	-8.586103e-10	-2.895529e+01	-5.580014e+01
8.500000e-07	-4.128127e-06	-8.461192e-10	-2.874046e+01	-5.556603e+01
8.600000e-07	-4.097028e-06	-8.416578e-10	-2.852394e+01	-5.532795e+01
8.700000e-07	-4.065762e-06	-8.452606e-10	-2.830627e+01	-5.508601e+01
8.800000e-07	-4.034261e-06	-8.409514e-10	-2.808695e+01	-5.484030e+01
8.900000e-07	-4.002505e-06	-8.320478e-10	-2.786586e+01	-5.459096e+01
9.000000e-07	-3.970601e-06	-8.336609e-10	-2.764375e+01	-5.433811e+01
9.100000e-07	-3.938448e-06	-8.231887e-10	-2.741989e+01	-5.408189e+01
9.200000e-07	-3.905946e-06	-8.131799e-10	-2.719361e+01	-5.382245e+01
9.300000e-07	-3.873008e-06	-8.120373e-10	-2.696429e+01	-5.355993e+01
9.400000e-07	-3.839606e-06	-8.166177e-10	-2.673174e+01	-5.329449e+01
9.500000e-07	-3.805772e-06	-8.080883e-10	-2.649618e+01	-5.302628e+01
9.600000e-07	-3.771534e-06	-8.083806e-10	-2.625782e+01	-5.275545e+01
9.700000e-07	-3.736890e-06	-8.050579e-10	-2.601662e+01	-5.248216e+01
9.800000e-07	-3.701857e-06	-7.960742e-10	-2.577272e+01	-5.220653e+01
9.900000e-07	-3.666558e-06	-7.836396e-10	-2.552697e+01	-5.192872e+01
1.000000e-06	-3.631032e-06	-7.845513e-10	-2.527963e+01	-5.164885e+01
1.010000e-06	-3.595364e-06	-7.805850e-10	-2.503130e+01	-5.136703e+01
1.020000e-06	-3.559576e-06	-7.764925e-10	-2.478214e+01	-5.108338e+01
1.030000e-06	-3.523646e-06	-7.736237e-10	-2.453200e+01	-5.079798e+01
1.040000e-06	-3.487566e-06	-7.739098e-10	-2.428080e+01	-5.051092e+01
1.050000e-06	-3.451225e-06	-7.661893e-10	-2.402779e+01	-5.022226e+01
1.060000e-06	-3.414565e-06	-7.618571e-10	-2.377256e+01	-4.993204e+01
1.070000e-06	-3.377643e-06	-7.581925e-10	-2.351550e+01	-4.964030e+01
1.080000e-06	-3.340464e-06	-7.531807e-10	-2.325666e+01	-4.934704e+01
1.090000e-06	-3.303021e-06	-7.461385e-10	-2.299598e+01	-4.905226e+01
1.100000e-06	-3.265379e-06	-7.421326e-10	-2.273392e+01	-4.875592e+01
1.110000e-06	-3.227568e-06	-7.348727e-10	-2.247067e+01	-4.845800e+01
1.120000e-06	-3.189517e-06	-7.266718e-10	-2.220575e+01	-4.815841e+01
1.130000e-06	-3.151253e-06	-7.233206e-10	-2.193935e+01	-4.785707e+01
1.140000e-06	-3.112767e-06	-7.213135e-10	-2.167141e+01	-4.755389e+01
1.150000e-06	-3.073969e-06	-7.182088e-10	-2.140129e+01	-4.724874e+01
1.160000e-06	-3.034982e-06	-7.137412e-10	-2.112986e+01	-4.694149e+01
1.170000e-06	-2.995860e-06	-7.102470e-10	-2.085750e+01	-4.663197e+01
1.180000e-06	-2.956567e-06	-7.035539e-10	-2.058393e+01	-4.632003e+01
1.190000e-06	-2.917148e-06	-6.973726e-10	-2.030949e+01	-4.600547e+01
1.200000e-06	-2.877580e-06	-6.897523e-10	-2.003401e+01	-4.568810e+01
1.210000e-06	-2.837817e-06	-6.841284e-10	-1.975718e+01	-4.536771e+01
1.220000e-06	-2.797934e-06	-6.776734e-10	-1.947951e+01	-4.504408e+01
1.230000e-06	-2.757976e-06	-6.731939e-10	-1.920132e+01	-4.471697e+01
1.240000e-06	-2.717859e-06	-6.667963e-10	-1.892202e+01	-4.438616e+01
1.250000e-06	-2.677488e-06	-6.620731e-10	-1.864095e+01	-4.405139e+01
1.260000e-06	-2.636884e-06	-6.551986e-10	-1.835826e+01	-4.371242e+01
1.270000e-06	-2.596208e-06	-6.482944e-10	-1.807508e+01	-4.336899e+01
1.280000e-06	-2.555282e-06	-6.393609e-10	-1.779014e+01	-4.302084e+01
1.290000e-06	-2.513901e-06	-6.321319e-10	-1.750204e+01	-4.266772e+01
1.300000e-06	-2.472170e-06	-6.219635e-10	-1.721151e+01	-4.230936e+01
1.310000e-06	-2.430115e-06	-6.151779e-10	-1.691872e+01	-4.194551e+01
1.320000e-06	-2.387753e-06	-6.098180e-10	-1.662379e+01	-4.157591e+01
1.330000e-06	-2.345160e-06	-6.046413e-10	-1.632725e+01	-4.120030e+01
1.340000e-06	-2.302346e-06	-5.968185e-10	-1.602918e+01	-4.081844e+01
1.350000e-06	-2.259317e-06	-5.902989e-10	-1.572960e+01	-4.043008e+01
1.360000e-06	-2.216110e-06	-5.836681e-10	-1.542879e+01	-4.003497e+01
1.370000e-06	-2.172747e-06	-5.779120e-10	-1.512689e+01	-3.963287e+01
1.380000e-06	-2.129238e-06	-5.743776e-10	-1.482398e+01	-3.922355e+01
1.390000e-06	-2.085663e-06	-5.704762e-10	-1.452060e+01	-3.880679e+01
1.400000e-06	-2.042003e-06	-5.620997e-10	-1.421664e+01	-3.838234e+01
1.410000e-06	-1.998168e-06	-5.538144e-10	-1.391145e+01	-3.795000e+01
1.420000e-06	-1.954261e-06	-5.463090e-10	-1.360577e+01	-3.750955e+01
1.430000e-06	-1.910307e-06	-5.402260e-10	-1.329976e+01	-3.706078e+01
1.440000e-06	-1.866258e-06	-5.349139e-10	-1.299309e+01	-3.660348e+01
1.450000e-06	-1.822153e-06	-5.282627e-10	-1.268602e+01	-3.613744e+01
1.460000e-06	-1.777923e-06	-5.211298e-10	-1.237808e+01	-3.566246e+01
1.470000e-06	-1.733554e-06	-5.128739e-10	-1.206918e+01	-3.517834e+01
1.480000e-06	-1.689101e-06	-5.055514e-10	-1.175970e+01	-3.468488e+01
1.490000e-06	-1.644455e-06	-4.961129e-10	-1.144887e+01	-3.418188e+01
1.500000e-06	-1.599648e-06	-4.866825e-10	-1.113692e+01	-3.366914e+01
1.510000e-06	-1.554717e-06	-4.780125e-10	-1.082410e+01	-3.314646e+01
1.520000e-06	-1.509604e-06	-4.697242e-10	-1.051002e+01	-3.261363e+01
1.530000e-06	-1.464441e-06	-4.606514e-10	-1.019559e+01	-3.207046e+01
1.540000e-06	-1.419268e-06	-4.500639e-10	-9.881091e+00	-3.151674e+01
1.550000e-06	-1.373989e-06	-4.400425e-10	-9.565859e+00	-3.095225e+01
1.560000e-06	-1.328549e-06	-4.305145e-10	-9.249497e+00	-3.037678e+01
1.570000e-06	-1.283118e-06	-4.203214e-10	-8.933201e+00	-2.979013e+01
1.580000e-06	-1.237704e-06	-4.127560e-10	-8.617023e+00	-2.919206e+01
1.590000e-06	-1.192096e-06	-4.042414e-10	-8.299501e+00	-2.858237e+01
1.600000e-06	-1.146350e-06	-3.939792e-10	-7.981008e+00	-2.796082e+01
1.610000e-06	-1.100525e-06	-3.804286e-10	-7.661972e+00	-2.732719e+01
1.620000e-06	-1.054627e-06	-3.692423e-10	-7.342423e+00	-2.668125e+01
1.630000e-06	-1.008636e-06	-3.613829e-10	-7.022229e+00	-2.602278e+01
1.640000e-06	-9.625993e-07	-3.583056e-10	-6.701718e+00	-2.535155e+01
1.650000e-06	-9.165039e-07	-3.538692e-10	-6.380797e+00	-2.466734e+01
1.660000e-06	-8.703574e-07	-3.472090e-10	-6.059520e+00	-2.396992e+01
1.670000e-06	-8.241785e-07	-3.375860e-10	-5.738017e+00	-2.325908e+01
1.680000e-06	-7.778833e-07	-3.225669e-10	-5.415706e+00	-2.253461e+01
1.690000e-06	-7.314662e-07	-3.048766e-10	-5.092545e+00	-2.179632e+01
1.700000e-06	-6.850281e-07	-2.893848e-10	-4.769238e+00	-2.104400e+01
1.710000e-06	-6.386529e-07	-2.768887e-10	-4.446369e+00	-2.027749e+01
1.720000e-06	-5.922451e-07	-2.666625e-10	-4.123273e+00	-1.949662e+01
1.730000e-06	-5.456482e-07	-2.544022e-10	-3.798861e+00	-1.870126e+01
1.740000e-06	-4.989465e-07	-2.412812e-10	-3.473718e+00	-1.789127e+01
1.750000e-06	-4.522531e-07	-2.284514e-10	-3.148634e+00	-1.706656e+01
1.760000e-06	-4.056150e-07	-2.161698e-10	-2.823935e+00	-1.622705e+01
1.770000e-06	-3.589473e-07	-2.039445e-10	-2.499029e+00	-1.537269e+01
1.780000e-06	-3.121593e-07	-1.902615e-10	-2.173286e+00	-1.450347e+01
1.790000e-06	-2.653719e-07	-1.757510e-10	-1.847547e+00	-1.361939e+01
1.800000e-06	-2.185977e-07	-1.600479e-10	-1.521900e+00	-1.272051e+01
1.810000e-06	-1.718400e-07	-1.459023e-10	-1.196368e+00	-1.180691e+01
1.820000e-06	-1.250641e-07	-1.327122e-10	-8.707092e-01	-1.087872e+01
1.830000e-06	-7.825833e-08	-1.209146e-10	-5.448428e-01	-9.936089e+00
1.840000e-06	-3.148604e-08	-1.106838e-10	-2.192091e-01	-8.979234e+00
1.850000e-06	1.536852e-08	-1.001980e-10	1.069972e-01	-8.008401e+00
1.860000e-06	6.226168e-08	-8.799298e-11	4.334724e-01	-7.023885e+00
1.870000e-06	1.089895e-07	-7.436782e-11	7.587964e-01	-6.026025e+00
1.880000e-06	1.556740e-07	-5.747230e-11	1.083819e+00	-5.015207e+00
1.890000e-06	2.024186e-07	-3.892798e-11	1.409259e+00	-3.991865e+00
1.900000e-06	2.491529e-07	-2.032966e-11	1.734629e+00	-2.956478e+00
1.910000e-06	2.958751e-07	-4.110187e-12	2.059913e+00	-1.909573e+00
1.920000e-06	3.426511e-07	8.762559e-12	2.385573e+00	-8.517216e-01
1.930000e-06	3.893856e-07	1.840491e-11	2.710944e+00	2.164574e-01
1.940000e-06	4.360216e-07	3.066920e-11	3.035628e+00	1.294302e+00
1.950000e-06	4.826431e-07	4.687364e-11	3.360212e+00	2.381108e+00
1.960000e-06	5.291823e-07	6.452664e-11	3.684223e+00	3.476130e+00
1.970000e-06	5.756376e-07	8.160787e-11	4.007650e+00	4.578582e+00
1.980000e-06	6.220736e-07	9.758818e-11	4.330942e+00	5.687645e+00
1.990000e-06	6.684558e-07	1.118647e-10	4.653860e+00	6.802464e+00
2.000000e-06	7.147439e-07	1.251594e-10	4.976122e+00	7.922154e+00
2.010000e-06	7.610477e-07	1.400974e-10	5.298494e+00	9.045800e+00
2.020000e-06	8.073760e-07	1.591237e-10	5.621037e+00	1.017247e+01
2.030000e-06	8.536159e-07	1.778337e-10	5.942964e+00	1.130120e+01
2.040000e-06	8.997546e-07	1.932249e-10	6.264186e+00	1.243101e+01
2.050000e-06	9.458184e-07	2.067775e-10	6.584887e+00	1.356093e+01
2.060000e-06	9.918198e-07	2.189648e-10	6.905154e+00	1.468995e+01
2.070000e-06	1.037740e-06	2.307957e-10	7.224853e+00	1.581707e+01
2.080000e-06	1.083627e-06	2.461397e-10	7.544327e+00	1.694129e+01
2.090000e-06	1.129412e-06	2.658553e-10	7.863082e+00	1.806161e+01
2.100000e-06	1.175012e-06	2.878524e-10	8.180558e+00	1.917704e+01
2.110000e-06	1.220578e-06	3.090857e-10	8.497793e+00	2.028660e+01
2.120000e-06	1.266078e-06	3.248373e-10	8.814566e+00	2.138933e+01
2.130000e-06	1.311457e-06	3.366956e-10	9.130500e+00	2.248427e+01
2.140000e-06	1.356819e-06	3.480917e-10	9.446314e+00	2.357052e+01
2.150000e-06	1.402162e-06	3.609828e-10	9.761996e+00	2.464719e+01
2.160000e-06	1.447386e-06	3.757429e-10	1.007685e+01	2.571340e+01
2.170000e-06	1.492488e-06	3.912154e-10	1.039086e+01	2.676833e+01
2.180000e-06	1.537409e-06	4.075716e-10	1.070360e+01	2.781120e+01
2.190000e-06	1.582136e-06	4.257446e-10	1.101500e+01	2.884124e+01
2.200000e-06	1.626815e-06	4.411387e-10	1.132606e+01	2.985776e+01
2.210000e-06	1.671371e-06	4.542293e-10	1.163626e+01	3.086009e+01
2.220000e-06	1.715784e-06	4.664372e-10	1.194547e+01	3.184762e+01
2.230000e-06	1.760124e-06	4.784223e-10	1.225417e+01	3.281977e+01
2.240000e-06	1.804337e-06	4.893534e-10	1.256198e+01	3.377603e+01
2.250000e-06	1.848409e-06	5.005731e-10	1.286882e+01	3.471593e+01
2.260000e-06	1.892452e-06	5.115378e-10	1.317545e+01	3.563906e+01
2.270000e-06	1.936477e-06	5.218081e-10	1.348195e+01	3.654504e+01
2.280000e-06	1.980358e-06	5.360243e-10	1.378746e+01	3.743357e+01
2.290000e-06	2.024114e-06	5.539699e-10	1.409209e+01	3.830437e+01
2.300000e-06	2.067841e-06	5.721215e-10	1.439653e+01	3.915725e+01
2.310000e-06	2.111506e-06	5.864046e-10	1.470053e+01	3.999202e+01
2.320000e-06	2.155100e-06	5.977782e-10	1.500404e+01	4.080859e+01
2.330000e-06	2.198591e-06	6.074032e-10	1.530682e+01	4.160688e+01
2.340000e-06	2.241933e-06	6.147097e-10	1.560857e+01	4.238687e+01
2.350000e-06	2.285126e-06	6.241965e-10	1.590929e+01	4.314857e+01
2.360000e-06	2.328057e-06	6.375268e-10	1.620818e+01	4.389205e+01
2.370000e-06	2.370696e-06	6.500690e-10	1.650504e+01	4.461741e+01
2.380000e-06	2.412997e-06	6.597312e-10	1.679954e+01	4.532478e+01
2.390000e-06	2.454978e-06	6.679349e-10	1.709182e+01	4.601434e+01
2.400000e-06	2.496647e-06	6.753052e-10	1.738192e+01	4.668627e+01
2.410000e-06	2.538015e-06	6.831451e-10	1.766993e+01	4.734082e+01
2.420000e-06	2.579132e-06	6.931317e-10	1.795619e+01	4.797824e+01
2.430000e-06	2.619964e-06	7.055485e-10	1.824046e+01	4.859879e+01
2.440000e-06	2.660548e-06	7.179201e-10	1.852302e+01	4.920279e+01
2.450000e-06	2.700904e-06	7.270176e-10	1.880398e+01	4.979054e+01
2.460000e-06	2.741041e-06	7.330230e-10	1.908342e+01	5.036236e+01
2.470000e-06	2.781006e-06	7.385120e-10	1.936166e+01	5.091861e+01
2.480000e-06	2.820845e-06	7.463050e-10	1.963902e+01	5.145963e+01
2.490000e-06	2.860614e-06	7.559790e-10	1.991589e+01	5.198577e+01
2.500000e-06	2.900308e-06	7.648278e-10	2.019225e+01	5.249740e+01
2.510000e-06	2.939822e-06	7.739313e-10	2.046735e+01	5.299487e+01
2.520000e-06	2.979159e-06	7.852127e-10	2.074122e+01	5.347855e+01
2.530000e-06	3.018295e-06	7.946421e-10	2.101369e+01	5.394881e+01
2.540000e-06	3.057231e-06	8.000105e-10	2.128477e+01	5.440600e+01
2.550000e-06	3.095988e-06	8.030575e-10	2.155460e+01	5.485047e+01
2.560000e-06	3.134473e-06	8.056373e-10	2.182253e+01	5.528257e+01
2.570000e-06	3.172644e-06	8.093476e-10	2.208828e+01	5.570265e+01
2.580000e-06	3.210616e-06	8.156180e-10	2.235265e+01	5.611103e+01
2.590000e-06	3.248455e-06	8.230311e-10	2.261609e+01	5.650804e+01
2.600000e-06	3.286084e-06	8.295653e-10	2.287806e+01	5.689400e+01
2.610000e-06	3.323445e-06	8.358092e-10	2.313817e+01	5.726921e+01
2.620000e-06	3.360555e-06	8.400829e-10	2.339654e+01	5.763396e+01
2.630000e-06	3.397416e-06	8.420616e-10	2.365317e+01	5.798855e+01
2.640000e-06	3.433992e-06	8.453313e-10	2.390781e+01	5.833324e+01
2.650000e-06	3.470352e-06	8.517979e-10	2.416096e+01	5.866831e+01
2.660000e-06	3.506474e-06	8.595716e-10	2.441244e+01	5.899401e+01
2.670000e-06	3.542388e-06	8.651590e-10	2.466248e+01	5.931058e+01
2.680000e-06	3.578244e-06	8.677345e-10	2.491211e+01	5.961826e+01
2.690000e-06	3.613989e-06	8.691313e-10	2.516097e+01	5.991729e+01
2.700000e-06	3.649595e-06	8.716629e-10	2.540887e+01	6.020788e+01
2.710000e-06	3.685084e-06	8.776791e-10	2.565594e+01	6.049024e+01
2.720000e-06	3.720312e-06	8.845947e-10	2.590121e+01	6.076460e+01
2.730000e-06	3.755182e-06	8.920547e-10	2.614397e+01	6.103113e+01
2.740000e-06	3.789755e-06	8.986625e-10	2.638467e+01	6.129005e+01
2.750000e-06	3.823889e-06	9.014191e-10	2.662232e+01	6.154154e+01
2.760000e-06	3.857370e-06	8.991953e-10	2.685541e+01	6.178578e+01
2.770000e-06	3.890321e-06	8.981875e-10	2.708482e+01	6.202295e+01
2.780000e-06	3.922897e-06	9.033985e-10	2.731162e+01	6.225323e+01
2.790000e-06	3.955132e-06	9.094695e-10	2.753604e+01	6.247680e+01
2.800000e-06	3.987123e-06	9.154721e-10	2.775877e+01	6.269382e+01
2.810000e-06	4.018984e-06	9.230533e-10	2.798059e+01	6.290445e+01
2.820000e-06	4.050720e-06	9.283026e-10	2.820154e+01	6.310886e+01
2.830000e-06	4.082327e-06	9.293159e-10	2.842159e+01	6.330720e+01
2.840000e-06	4.113692e-06	9.300729e-10	2.863996e+01	6.349963e+01
2.850000e-06	4.144761e-06	9.328568e-10	2.885626e+01	6.368630e+01
2.860000e-06	4.175591e-06	9.363402e-10	2.907090e+01	6.386736e+01
2.870000e-06	4.206015e-06	9.384904e-10	2.928272e+01	6.404294e+01
2.880000e-06	4.236046e-06	9.395990e-10	2.949180e+01	6.421318e+01
2.890000e-06	4.265812e-06	9.417257e-10	2.969904e+01	6.437822e+01
2.900000e-06	4.295323e-06	9.459394e-10	2.990449e+01	6.453818e+01
