# Temperatura_=_-2.65
# Concentracion g/m^3_=_1620.0
# C_Vs_to_Am_M_A/Vsm_=_65563218390.804596
# pendiente_HvsI_1/m_=_3716.3
# ordenada_HvsI_A/m_=_1297.0
# frecuencia_Hz_=_135108.1200090092

Tiempo_(s)	Campo_(V.s)	Magnetizacion_(V.s)	Campo_(kA/m)	Magnetizacion_(A/m)
0.000000e+00	-5.506321e-06	-8.199290e-10	-3.837381e+01	-5.593005e+01
1.000000e-08	-5.506527e-06	-8.165545e-10	-3.837524e+01	-5.590059e+01
2.000000e-08	-5.506479e-06	-8.160187e-10	-3.837491e+01	-5.587258e+01
3.000000e-08	-5.506006e-06	-8.159672e-10	-3.837161e+01	-5.584593e+01
4.000000e-08	-5.505021e-06	-8.080219e-10	-3.836475e+01	-5.582054e+01
5.000000e-08	-5.503399e-06	-7.875654e-10	-3.835344e+01	-5.579629e+01
6.000000e-08	-5.501129e-06	-7.647039e-10	-3.833762e+01	-5.577304e+01
7.000000e-08	-5.498295e-06	-7.675416e-10	-3.831788e+01	-5.575062e+01
8.000000e-08	-5.494937e-06	-8.664222e-10	-3.829447e+01	-5.572888e+01
9.000000e-08	-5.491114e-06	-1.002798e-09	-3.826783e+01	-5.570762e+01
1.000000e-07	-5.486820e-06	-9.371187e-10	-3.823790e+01	-5.568666e+01
1.100000e-07	-5.482246e-06	-6.862340e-10	-3.820603e+01	-5.566578e+01
1.200000e-07	-5.477630e-06	-6.508338e-10	-3.817386e+01	-5.564477e+01
1.300000e-07	-5.472757e-06	-8.404751e-10	-3.813990e+01	-5.562341e+01
1.400000e-07	-5.467412e-06	-9.233727e-10	-3.810265e+01	-5.560146e+01
1.500000e-07	-5.461701e-06	-7.086476e-10	-3.806285e+01	-5.557869e+01
1.600000e-07	-5.455730e-06	-6.554518e-10	-3.802124e+01	-5.555487e+01
1.700000e-07	-5.449233e-06	-8.684186e-10	-3.797596e+01	-5.552974e+01
1.800000e-07	-5.442158e-06	-9.840490e-10	-3.792665e+01	-5.550308e+01
1.900000e-07	-5.434805e-06	-8.022817e-10	-3.787541e+01	-5.547465e+01
2.000000e-07	-5.427285e-06	-6.857278e-10	-3.782300e+01	-5.544421e+01
2.100000e-07	-5.419515e-06	-8.127519e-10	-3.776885e+01	-5.541154e+01
2.200000e-07	-5.411454e-06	-9.328211e-10	-3.771267e+01	-5.537641e+01
2.300000e-07	-5.403176e-06	-8.552909e-10	-3.765499e+01	-5.533862e+01
2.400000e-07	-5.394490e-06	-7.690826e-10	-3.759445e+01	-5.529796e+01
2.500000e-07	-5.384831e-06	-8.316480e-10	-3.752714e+01	-5.525423e+01
2.600000e-07	-5.374266e-06	-8.758886e-10	-3.745351e+01	-5.520727e+01
2.700000e-07	-5.363313e-06	-8.270861e-10	-3.737718e+01	-5.515691e+01
2.800000e-07	-5.351949e-06	-7.880684e-10	-3.729799e+01	-5.510300e+01
2.900000e-07	-5.340189e-06	-8.571202e-10	-3.721603e+01	-5.504542e+01
3.000000e-07	-5.328123e-06	-8.646796e-10	-3.713194e+01	-5.498404e+01
3.100000e-07	-5.315656e-06	-8.108803e-10	-3.704506e+01	-5.491876e+01
3.200000e-07	-5.302675e-06	-7.710980e-10	-3.695459e+01	-5.484953e+01
3.300000e-07	-5.289369e-06	-8.411704e-10	-3.686186e+01	-5.477626e+01
3.400000e-07	-5.275883e-06	-8.551847e-10	-3.676787e+01	-5.469894e+01
3.500000e-07	-5.261997e-06	-8.131351e-10	-3.667110e+01	-5.461753e+01
3.600000e-07	-5.247686e-06	-8.010224e-10	-3.657137e+01	-5.453204e+01
3.700000e-07	-5.232938e-06	-8.699208e-10	-3.646859e+01	-5.444248e+01
3.800000e-07	-5.217406e-06	-8.250719e-10	-3.636035e+01	-5.434891e+01
3.900000e-07	-5.201131e-06	-7.690952e-10	-3.624692e+01	-5.425137e+01
4.000000e-07	-5.184498e-06	-8.400362e-10	-3.613101e+01	-5.414994e+01
4.100000e-07	-5.167642e-06	-8.830476e-10	-3.601354e+01	-5.404472e+01
4.200000e-07	-5.150461e-06	-7.623705e-10	-3.589381e+01	-5.393582e+01
4.300000e-07	-5.132963e-06	-7.696822e-10	-3.577186e+01	-5.382336e+01
4.400000e-07	-5.115236e-06	-9.084782e-10	-3.564832e+01	-5.370749e+01
4.500000e-07	-5.097081e-06	-8.471182e-10	-3.552179e+01	-5.358837e+01
4.600000e-07	-5.078345e-06	-7.245547e-10	-3.539122e+01	-5.346615e+01
4.700000e-07	-5.059238e-06	-8.258896e-10	-3.525807e+01	-5.334101e+01
4.800000e-07	-5.039869e-06	-8.846346e-10	-3.512309e+01	-5.321315e+01
4.900000e-07	-5.020235e-06	-7.644415e-10	-3.498625e+01	-5.308275e+01
5.000000e-07	-5.000486e-06	-7.902758e-10	-3.484862e+01	-5.295002e+01
5.100000e-07	-4.980628e-06	-8.782976e-10	-3.471023e+01	-5.281515e+01
5.200000e-07	-4.960427e-06	-7.864979e-10	-3.456945e+01	-5.267837e+01
5.300000e-07	-4.939765e-06	-7.533991e-10	-3.442545e+01	-5.253986e+01
5.400000e-07	-4.918711e-06	-8.802341e-10	-3.427872e+01	-5.239985e+01
5.500000e-07	-4.897270e-06	-8.320172e-10	-3.412930e+01	-5.225853e+01
5.600000e-07	-4.875492e-06	-7.246539e-10	-3.397753e+01	-5.211610e+01
5.700000e-07	-4.853458e-06	-8.059756e-10	-3.382397e+01	-5.197276e+01
5.800000e-07	-4.831074e-06	-8.592204e-10	-3.366798e+01	-5.182869e+01
5.900000e-07	-4.808313e-06	-7.679010e-10	-3.350936e+01	-5.168407e+01
6.000000e-07	-4.785194e-06	-7.893420e-10	-3.334824e+01	-5.153907e+01
6.100000e-07	-4.761784e-06	-8.465551e-10	-3.318510e+01	-5.139383e+01
6.200000e-07	-4.738183e-06	-7.897172e-10	-3.302062e+01	-5.124850e+01
6.300000e-07	-4.714394e-06	-7.624313e-10	-3.285483e+01	-5.110322e+01
6.400000e-07	-4.690393e-06	-8.167531e-10	-3.268757e+01	-5.095808e+01
6.500000e-07	-4.665980e-06	-7.939693e-10	-3.251743e+01	-5.081318e+01
6.600000e-07	-4.641091e-06	-7.722530e-10	-3.234398e+01	-5.066861e+01
6.700000e-07	-4.615733e-06	-8.101130e-10	-3.216726e+01	-5.052441e+01
6.800000e-07	-4.589710e-06	-8.100609e-10	-3.198590e+01	-5.038065e+01
6.900000e-07	-4.563065e-06	-7.769268e-10	-3.180022e+01	-5.023733e+01
7.000000e-07	-4.536047e-06	-7.963147e-10	-3.161193e+01	-5.009446e+01
7.100000e-07	-4.508713e-06	-8.008313e-10	-3.142143e+01	-4.995204e+01
7.200000e-07	-4.481154e-06	-7.767700e-10	-3.122937e+01	-4.981003e+01
7.300000e-07	-4.453480e-06	-7.746549e-10	-3.103651e+01	-4.966837e+01
7.400000e-07	-4.425641e-06	-7.784184e-10	-3.084250e+01	-4.952701e+01
7.500000e-07	-4.397512e-06	-7.645732e-10	-3.064647e+01	-4.938585e+01
7.600000e-07	-4.369097e-06	-7.671819e-10	-3.044844e+01	-4.924480e+01
7.700000e-07	-4.340378e-06	-7.733339e-10	-3.024829e+01	-4.910374e+01
7.800000e-07	-4.311268e-06	-7.614584e-10	-3.004542e+01	-4.896254e+01
7.900000e-07	-4.281849e-06	-7.649333e-10	-2.984041e+01	-4.882105e+01
8.000000e-07	-4.252178e-06	-7.714279e-10	-2.963363e+01	-4.867912e+01
8.100000e-07	-4.222185e-06	-7.532816e-10	-2.942461e+01	-4.853657e+01
8.200000e-07	-4.191927e-06	-7.388093e-10	-2.921373e+01	-4.839324e+01
8.300000e-07	-4.161449e-06	-7.501391e-10	-2.900133e+01	-4.824892e+01
8.400000e-07	-4.130649e-06	-7.447815e-10	-2.878669e+01	-4.810344e+01
8.500000e-07	-4.099485e-06	-7.280976e-10	-2.856950e+01	-4.795660e+01
8.600000e-07	-4.068074e-06	-7.283015e-10	-2.835060e+01	-4.780818e+01
8.700000e-07	-4.036552e-06	-7.306389e-10	-2.813092e+01	-4.765800e+01
8.800000e-07	-4.004886e-06	-7.156842e-10	-2.791024e+01	-4.750585e+01
8.900000e-07	-3.972988e-06	-7.205140e-10	-2.768794e+01	-4.735152e+01
9.000000e-07	-3.940791e-06	-7.273708e-10	-2.746356e+01	-4.719481e+01
9.100000e-07	-3.908311e-06	-7.169172e-10	-2.723720e+01	-4.703554e+01
9.200000e-07	-3.875444e-06	-7.073314e-10	-2.700815e+01	-4.687352e+01
9.300000e-07	-3.842141e-06	-7.166675e-10	-2.677606e+01	-4.670855e+01
9.400000e-07	-3.808472e-06	-7.075291e-10	-2.654142e+01	-4.654049e+01
9.500000e-07	-3.774370e-06	-6.896368e-10	-2.630376e+01	-4.636915e+01
9.600000e-07	-3.739821e-06	-6.887779e-10	-2.606299e+01	-4.619439e+01
9.700000e-07	-3.704892e-06	-6.930622e-10	-2.581957e+01	-4.601607e+01
9.800000e-07	-3.669707e-06	-6.835088e-10	-2.557436e+01	-4.583407e+01
9.900000e-07	-3.634303e-06	-6.831227e-10	-2.532763e+01	-4.564828e+01
1.000000e-06	-3.598674e-06	-6.877770e-10	-2.507933e+01	-4.545859e+01
1.010000e-06	-3.562942e-06	-6.819279e-10	-2.483031e+01	-4.526494e+01
1.020000e-06	-3.527103e-06	-6.750404e-10	-2.458055e+01	-4.506724e+01
1.030000e-06	-3.491083e-06	-6.759248e-10	-2.432952e+01	-4.486546e+01
1.040000e-06	-3.454819e-06	-6.697405e-10	-2.407680e+01	-4.465955e+01
1.050000e-06	-3.418201e-06	-6.590357e-10	-2.382160e+01	-4.444950e+01
1.060000e-06	-3.381289e-06	-6.566595e-10	-2.356436e+01	-4.423531e+01
1.070000e-06	-3.344203e-06	-6.559050e-10	-2.330591e+01	-4.401698e+01
1.080000e-06	-3.306848e-06	-6.513565e-10	-2.304558e+01	-4.379453e+01
1.090000e-06	-3.269218e-06	-6.516324e-10	-2.278334e+01	-4.356802e+01
1.100000e-06	-3.231380e-06	-6.558904e-10	-2.251964e+01	-4.333748e+01
1.110000e-06	-3.193351e-06	-6.508928e-10	-2.225461e+01	-4.310298e+01
1.120000e-06	-3.155137e-06	-6.448376e-10	-2.198830e+01	-4.286459e+01
1.130000e-06	-3.116743e-06	-6.409328e-10	-2.172072e+01	-4.262239e+01
1.140000e-06	-3.078112e-06	-6.354077e-10	-2.145150e+01	-4.237646e+01
1.150000e-06	-3.039266e-06	-6.255750e-10	-2.118079e+01	-4.212691e+01
1.160000e-06	-3.000235e-06	-6.210431e-10	-2.090878e+01	-4.187383e+01
1.170000e-06	-2.960934e-06	-6.191473e-10	-2.063489e+01	-4.161731e+01
1.180000e-06	-2.921488e-06	-6.186609e-10	-2.035998e+01	-4.135746e+01
1.190000e-06	-2.881938e-06	-6.171390e-10	-2.008436e+01	-4.109437e+01
1.200000e-06	-2.842250e-06	-6.153099e-10	-1.980778e+01	-4.082815e+01
1.210000e-06	-2.802467e-06	-6.084297e-10	-1.953053e+01	-4.055887e+01
1.220000e-06	-2.762561e-06	-6.017188e-10	-1.925242e+01	-4.028663e+01
1.230000e-06	-2.722471e-06	-5.949095e-10	-1.897303e+01	-4.001149e+01
1.240000e-06	-2.682227e-06	-5.872503e-10	-1.869256e+01	-3.973351e+01
1.250000e-06	-2.641867e-06	-5.795673e-10	-1.841130e+01	-3.945275e+01
1.260000e-06	-2.601216e-06	-5.753635e-10	-1.812800e+01	-3.916925e+01
1.270000e-06	-2.560235e-06	-5.724957e-10	-1.784240e+01	-3.888301e+01
1.280000e-06	-2.519092e-06	-5.706221e-10	-1.755567e+01	-3.859403e+01
1.290000e-06	-2.477716e-06	-5.669719e-10	-1.726732e+01	-3.830231e+01
1.300000e-06	-2.435945e-06	-5.630564e-10	-1.697621e+01	-3.800779e+01
1.310000e-06	-2.393787e-06	-5.567381e-10	-1.668242e+01	-3.771042e+01
1.320000e-06	-2.351365e-06	-5.473722e-10	-1.638677e+01	-3.741011e+01
1.330000e-06	-2.308682e-06	-5.395011e-10	-1.608931e+01	-3.710674e+01
1.340000e-06	-2.265715e-06	-5.350738e-10	-1.578987e+01	-3.680018e+01
1.350000e-06	-2.222465e-06	-5.316862e-10	-1.548846e+01	-3.649027e+01
1.360000e-06	-2.179000e-06	-5.283809e-10	-1.518556e+01	-3.617681e+01
1.370000e-06	-2.135455e-06	-5.261654e-10	-1.488208e+01	-3.585961e+01
1.380000e-06	-2.091839e-06	-5.229109e-10	-1.457812e+01	-3.553840e+01
1.390000e-06	-2.048152e-06	-5.175712e-10	-1.427367e+01	-3.521293e+01
1.400000e-06	-2.004410e-06	-5.115826e-10	-1.396883e+01	-3.488290e+01
1.410000e-06	-1.960589e-06	-5.050469e-10	-1.366344e+01	-3.454799e+01
1.420000e-06	-1.916655e-06	-4.986586e-10	-1.335726e+01	-3.420785e+01
1.430000e-06	-1.872658e-06	-4.918573e-10	-1.305064e+01	-3.386213e+01
1.440000e-06	-1.828634e-06	-4.850680e-10	-1.274383e+01	-3.351041e+01
1.450000e-06	-1.784552e-06	-4.802867e-10	-1.243663e+01	-3.315230e+01
1.460000e-06	-1.740347e-06	-4.717752e-10	-1.212856e+01	-3.278737e+01
1.470000e-06	-1.695944e-06	-4.616207e-10	-1.181912e+01	-3.241515e+01
1.480000e-06	-1.651406e-06	-4.523890e-10	-1.150872e+01	-3.203519e+01
1.490000e-06	-1.606793e-06	-4.451180e-10	-1.119781e+01	-3.164700e+01
1.500000e-06	-1.562042e-06	-4.412447e-10	-1.088595e+01	-3.125009e+01
1.510000e-06	-1.517125e-06	-4.406502e-10	-1.057292e+01	-3.084397e+01
1.520000e-06	-1.472043e-06	-4.371142e-10	-1.025874e+01	-3.042812e+01
1.530000e-06	-1.426867e-06	-4.283429e-10	-9.943906e+00	-3.000203e+01
1.540000e-06	-1.381591e-06	-4.129578e-10	-9.628370e+00	-2.956518e+01
1.550000e-06	-1.336197e-06	-3.973310e-10	-9.312019e+00	-2.911707e+01
1.560000e-06	-1.290735e-06	-3.847982e-10	-8.995196e+00	-2.865719e+01
1.570000e-06	-1.245223e-06	-3.788689e-10	-8.678018e+00	-2.818503e+01
1.580000e-06	-1.199657e-06	-3.776068e-10	-8.360466e+00	-2.770010e+01
1.590000e-06	-1.153987e-06	-3.770159e-10	-8.042192e+00	-2.720193e+01
1.600000e-06	-1.108210e-06	-3.729143e-10	-7.723168e+00	-2.669005e+01
1.610000e-06	-1.062376e-06	-3.649749e-10	-7.403749e+00	-2.616402e+01
1.620000e-06	-1.016501e-06	-3.540873e-10	-7.084041e+00	-2.562341e+01
1.630000e-06	-9.705641e-07	-3.414849e-10	-6.763907e+00	-2.506783e+01
1.640000e-06	-9.245569e-07	-3.298653e-10	-6.443280e+00	-2.449690e+01
1.650000e-06	-8.784500e-07	-3.178943e-10	-6.121959e+00	-2.391029e+01
1.660000e-06	-8.322341e-07	-3.062206e-10	-5.799878e+00	-2.330769e+01
1.670000e-06	-7.858959e-07	-2.960343e-10	-5.476945e+00	-2.268882e+01
1.680000e-06	-7.395632e-07	-2.865343e-10	-5.154051e+00	-2.205344e+01
1.690000e-06	-6.932841e-07	-2.777683e-10	-4.831530e+00	-2.140136e+01
1.700000e-06	-6.470020e-07	-2.688426e-10	-4.508987e+00	-2.073242e+01
1.710000e-06	-6.006187e-07	-2.582174e-10	-4.185740e+00	-2.004650e+01
1.720000e-06	-5.540459e-07	-2.454362e-10	-3.861172e+00	-1.934353e+01
1.730000e-06	-5.074498e-07	-2.310565e-10	-3.536441e+00	-1.862348e+01
1.740000e-06	-4.609645e-07	-2.167777e-10	-3.212483e+00	-1.788638e+01
1.750000e-06	-4.144580e-07	-2.045841e-10	-2.888377e+00	-1.713228e+01
1.760000e-06	-3.678250e-07	-1.961179e-10	-2.563390e+00	-1.636131e+01
1.770000e-06	-3.211236e-07	-1.880792e-10	-2.237925e+00	-1.557363e+01
1.780000e-06	-2.744381e-07	-1.792449e-10	-1.912572e+00	-1.476945e+01
1.790000e-06	-2.277367e-07	-1.689099e-10	-1.587107e+00	-1.394902e+01
1.800000e-06	-1.810187e-07	-1.571348e-10	-1.261528e+00	-1.311266e+01
1.810000e-06	-1.342711e-07	-1.441340e-10	-9.357418e-01	-1.226071e+01
1.820000e-06	-8.748306e-08	-1.326956e-10	-6.096735e-01	-1.139359e+01
1.830000e-06	-4.075458e-08	-1.235720e-10	-2.840206e-01	-1.051173e+01
1.840000e-06	5.971052e-09	-1.129100e-10	4.161254e-02	-9.615619e+00
1.850000e-06	5.271218e-08	-9.989397e-11	3.673537e-01	-8.705800e+00
1.860000e-06	9.943771e-08	-8.768662e-11	6.929860e-01	-7.782843e+00
1.870000e-06	1.462382e-07	-7.464541e-11	1.019141e+00	-6.847361e+00
1.880000e-06	1.931049e-07	-6.062153e-11	1.345757e+00	-5.900007e+00
1.890000e-06	2.398609e-07	-4.711424e-11	1.671602e+00	-4.941466e+00
1.900000e-06	2.865567e-07	-3.497479e-11	1.997027e+00	-3.972456e+00
1.910000e-06	3.332762e-07	-2.311537e-11	2.322618e+00	-2.993728e+00
1.920000e-06	3.799496e-07	-1.325566e-11	2.647886e+00	-2.006057e+00
1.930000e-06	4.265877e-07	-3.816433e-12	2.972910e+00	-1.010247e+00
1.940000e-06	4.731411e-07	9.606074e-12	3.297343e+00	-7.121982e-03
1.950000e-06	5.195840e-07	2.547262e-11	3.621005e+00	1.002475e+00
1.960000e-06	5.659800e-07	4.174884e-11	3.944341e+00	2.017684e+00
1.970000e-06	6.123779e-07	5.768068e-11	4.267690e+00	3.037631e+00
1.980000e-06	6.586698e-07	7.219087e-11	4.590301e+00	4.061432e+00
1.990000e-06	7.048568e-07	8.552453e-11	4.912180e+00	5.088195e+00
2.000000e-06	7.511111e-07	9.741093e-11	5.234528e+00	6.117026e+00
2.010000e-06	7.973422e-07	1.104654e-10	5.556715e+00	7.147026e+00
2.020000e-06	8.435026e-07	1.266628e-10	5.878409e+00	8.177300e+00
2.030000e-06	8.895945e-07	1.452162e-10	6.199626e+00	9.206957e+00
2.040000e-06	9.355583e-07	1.627094e-10	6.519950e+00	1.023511e+01
2.050000e-06	9.813872e-07	1.779377e-10	6.839333e+00	1.126089e+01
2.060000e-06	1.027138e-06	1.922933e-10	7.158175e+00	1.228343e+01
2.070000e-06	1.072884e-06	2.066735e-10	7.476976e+00	1.330189e+01
2.080000e-06	1.118614e-06	2.208215e-10	7.795672e+00	1.431544e+01
2.090000e-06	1.164306e-06	2.350589e-10	8.114104e+00	1.532327e+01
2.100000e-06	1.209957e-06	2.504831e-10	8.432246e+00	1.632459e+01
2.110000e-06	1.255497e-06	2.647585e-10	8.749618e+00	1.731863e+01
2.120000e-06	1.300908e-06	2.793128e-10	9.066092e+00	1.830467e+01
2.130000e-06	1.346279e-06	2.959263e-10	9.382283e+00	1.928200e+01
2.140000e-06	1.391650e-06	3.116923e-10	9.698471e+00	2.024992e+01
2.150000e-06	1.436882e-06	3.240614e-10	1.001370e+01	2.120779e+01
2.160000e-06	1.481855e-06	3.366455e-10	1.032712e+01	2.215500e+01
2.170000e-06	1.526706e-06	3.511904e-10	1.063968e+01	2.309096e+01
2.180000e-06	1.571473e-06	3.675326e-10	1.095167e+01	2.401511e+01
2.190000e-06	1.616128e-06	3.814343e-10	1.126287e+01	2.492693e+01
2.200000e-06	1.660669e-06	3.950718e-10	1.157328e+01	2.582594e+01
2.210000e-06	1.704992e-06	4.076584e-10	1.188217e+01	2.671169e+01
2.220000e-06	1.749170e-06	4.168517e-10	1.219005e+01	2.758377e+01
2.230000e-06	1.793292e-06	4.263571e-10	1.249754e+01	2.844180e+01
2.240000e-06	1.837293e-06	4.374990e-10	1.280418e+01	2.928542e+01
2.250000e-06	1.881190e-06	4.507325e-10	1.311010e+01	3.011434e+01
2.260000e-06	1.925020e-06	4.655096e-10	1.341555e+01	3.092827e+01
2.270000e-06	1.968826e-06	4.828923e-10	1.372084e+01	3.172697e+01
2.280000e-06	2.012600e-06	4.999687e-10	1.402590e+01	3.251023e+01
2.290000e-06	2.056289e-06	5.133393e-10	1.433037e+01	3.327788e+01
2.300000e-06	2.099950e-06	5.216285e-10	1.463465e+01	3.402976e+01
2.310000e-06	2.143575e-06	5.264128e-10	1.493868e+01	3.476577e+01
2.320000e-06	2.187097e-06	5.318587e-10	1.524198e+01	3.548581e+01
2.330000e-06	2.230472e-06	5.407920e-10	1.554426e+01	3.618983e+01
2.340000e-06	2.273620e-06	5.531416e-10	1.584497e+01	3.687779e+01
2.350000e-06	2.316522e-06	5.685538e-10	1.614395e+01	3.754969e+01
2.360000e-06	2.359202e-06	5.857198e-10	1.644139e+01	3.820556e+01
2.370000e-06	2.401650e-06	5.987059e-10	1.673721e+01	3.884542e+01
2.380000e-06	2.443750e-06	6.051794e-10	1.703061e+01	3.946935e+01
2.390000e-06	2.485393e-06	6.071684e-10	1.732082e+01	4.007744e+01
2.400000e-06	2.526659e-06	6.078295e-10	1.760841e+01	4.066979e+01
2.410000e-06	2.567669e-06	6.093131e-10	1.789420e+01	4.124651e+01
2.420000e-06	2.608453e-06	6.142128e-10	1.817843e+01	4.180777e+01
2.430000e-06	2.649043e-06	6.255347e-10	1.846131e+01	4.235370e+01
2.440000e-06	2.689342e-06	6.379460e-10	1.874215e+01	4.288449e+01
2.450000e-06	2.729376e-06	6.484221e-10	1.902115e+01	4.340031e+01
2.460000e-06	2.769299e-06	6.589701e-10	1.929938e+01	4.390138e+01
2.470000e-06	2.809116e-06	6.681968e-10	1.957686e+01	4.438789e+01
2.480000e-06	2.848830e-06	6.739432e-10	1.985363e+01	4.486006e+01
2.490000e-06	2.888453e-06	6.760923e-10	2.012976e+01	4.531813e+01
2.500000e-06	2.927969e-06	6.781238e-10	2.040515e+01	4.576233e+01
2.510000e-06	2.967323e-06	6.844124e-10	2.067941e+01	4.619292e+01
2.520000e-06	3.006443e-06	6.940516e-10	2.095204e+01	4.661013e+01
2.530000e-06	3.045353e-06	7.035822e-10	2.122321e+01	4.701424e+01
2.540000e-06	3.084086e-06	7.112863e-10	2.149314e+01	4.740550e+01
2.550000e-06	3.122513e-06	7.182706e-10	2.176094e+01	4.778418e+01
2.560000e-06	3.160632e-06	7.220653e-10	2.202659e+01	4.815056e+01
2.570000e-06	3.198653e-06	7.221906e-10	2.229156e+01	4.850492e+01
2.580000e-06	3.236551e-06	7.236645e-10	2.255568e+01	4.884752e+01
2.590000e-06	3.274237e-06	7.281108e-10	2.281831e+01	4.917867e+01
2.600000e-06	3.311742e-06	7.348519e-10	2.307969e+01	4.949863e+01
2.610000e-06	3.348997e-06	7.407382e-10	2.333932e+01	4.980770e+01
2.620000e-06	3.385860e-06	7.447268e-10	2.359622e+01	5.010617e+01
2.630000e-06	3.422391e-06	7.462588e-10	2.385081e+01	5.039432e+01
2.640000e-06	3.458747e-06	7.460097e-10	2.410417e+01	5.067244e+01
2.650000e-06	3.494896e-06	7.461237e-10	2.435609e+01	5.094082e+01
2.660000e-06	3.530828e-06	7.481390e-10	2.460650e+01	5.119976e+01
2.670000e-06	3.566611e-06	7.530072e-10	2.485588e+01	5.144955e+01
2.680000e-06	3.602306e-06	7.602982e-10	2.510464e+01	5.169046e+01
2.690000e-06	3.637942e-06	7.675628e-10	2.535299e+01	5.192280e+01
2.700000e-06	3.673455e-06	7.724519e-10	2.560048e+01	5.214684e+01
2.710000e-06	3.708746e-06	7.741557e-10	2.584642e+01	5.236287e+01
2.720000e-06	3.743688e-06	7.730250e-10	2.608994e+01	5.257118e+01
2.730000e-06	3.778248e-06	7.697289e-10	2.633078e+01	5.277204e+01
2.740000e-06	3.812353e-06	7.693845e-10	2.656847e+01	5.296574e+01
2.750000e-06	3.845872e-06	7.733355e-10	2.680206e+01	5.315255e+01
2.760000e-06	3.878885e-06	7.821687e-10	2.703213e+01	5.333273e+01
2.770000e-06	3.911515e-06	7.924092e-10	2.725953e+01	5.350657e+01
2.780000e-06	3.943803e-06	8.003356e-10	2.748455e+01	5.367431e+01
2.790000e-06	3.975833e-06	8.047063e-10	2.770776e+01	5.383622e+01
2.800000e-06	4.007714e-06	8.037911e-10	2.792994e+01	5.399255e+01
2.810000e-06	4.039454e-06	8.003918e-10	2.815115e+01	5.414355e+01
2.820000e-06	4.071056e-06	7.973473e-10	2.837138e+01	5.428946e+01
2.830000e-06	4.102484e-06	8.000155e-10	2.859040e+01	5.443050e+01
2.840000e-06	4.133639e-06	8.090414e-10	2.880753e+01	5.456691e+01
2.850000e-06	4.164443e-06	8.197232e-10	2.902220e+01	5.469891e+01
2.860000e-06	4.194931e-06	8.276355e-10	2.923467e+01	5.482669e+01
2.870000e-06	4.225098e-06	8.307490e-10	2.944491e+01	5.495047e+01
2.880000e-06	4.254937e-06	8.306466e-10	2.965285e+01	5.507043e+01
2.890000e-06	4.284497e-06	8.300054e-10	2.985886e+01	5.518676e+01
2.900000e-06	4.313767e-06	8.300785e-10	3.006284e+01	5.529962e+01
