# Temperatura_=_10.3
# Concentracion g/m^3_=_1620.0
# C_Vs_to_Am_M_A/Vsm_=_65563218390.804596
# pendiente_HvsI_1/m_=_3716.3
# ordenada_HvsI_A/m_=_1297.0
# frecuencia_Hz_=_135089.22078584548

Tiempo_(s)	Campo_(V.s)	Magnetizacion_(V.s)	Campo_(kA/m)	Magnetizacion_(A/m)
0.000000e+00	-5.495264e-06	-1.487886e-09	-3.838283e+01	-9.546737e+01
1.000000e-08	-5.495409e-06	-1.487814e-09	-3.838384e+01	-9.549191e+01
2.000000e-08	-5.495304e-06	-1.489330e-09	-3.838311e+01	-9.551574e+01
3.000000e-08	-5.494748e-06	-1.491477e-09	-3.837923e+01	-9.553856e+01
4.000000e-08	-5.493698e-06	-1.487919e-09	-3.837189e+01	-9.556003e+01
5.000000e-08	-5.492100e-06	-1.475497e-09	-3.836073e+01	-9.557981e+01
6.000000e-08	-5.489944e-06	-1.471472e-09	-3.834567e+01	-9.559754e+01
7.000000e-08	-5.487212e-06	-1.477386e-09	-3.832659e+01	-9.561287e+01
8.000000e-08	-5.483865e-06	-1.515959e-09	-3.830321e+01	-9.562540e+01
9.000000e-08	-5.480087e-06	-1.588964e-09	-3.827682e+01	-9.563479e+01
1.000000e-07	-5.475870e-06	-1.588234e-09	-3.824737e+01	-9.564065e+01
1.100000e-07	-5.471329e-06	-1.458190e-09	-3.821565e+01	-9.564261e+01
1.200000e-07	-5.466783e-06	-1.380096e-09	-3.818390e+01	-9.564031e+01
1.300000e-07	-5.461976e-06	-1.439438e-09	-3.815032e+01	-9.563340e+01
1.400000e-07	-5.456688e-06	-1.547576e-09	-3.811339e+01	-9.562154e+01
1.500000e-07	-5.450947e-06	-1.451042e-09	-3.807329e+01	-9.560439e+01
1.600000e-07	-5.444969e-06	-1.405703e-09	-3.803153e+01	-9.558164e+01
1.700000e-07	-5.438628e-06	-1.481896e-09	-3.798725e+01	-9.555300e+01
1.800000e-07	-5.431729e-06	-1.599337e-09	-3.793906e+01	-9.551819e+01
1.900000e-07	-5.424436e-06	-1.488750e-09	-3.788812e+01	-9.547697e+01
2.000000e-07	-5.416836e-06	-1.388750e-09	-3.783504e+01	-9.542910e+01
2.100000e-07	-5.408986e-06	-1.429642e-09	-3.778020e+01	-9.537438e+01
2.200000e-07	-5.400882e-06	-1.529495e-09	-3.772360e+01	-9.531263e+01
2.300000e-07	-5.392631e-06	-1.493107e-09	-3.766597e+01	-9.524369e+01
2.400000e-07	-5.383982e-06	-1.430801e-09	-3.760556e+01	-9.516745e+01
2.500000e-07	-5.374575e-06	-1.446097e-09	-3.753986e+01	-9.508379e+01
2.600000e-07	-5.364478e-06	-1.460222e-09	-3.746933e+01	-9.499266e+01
2.700000e-07	-5.353811e-06	-1.438511e-09	-3.739483e+01	-9.489400e+01
2.800000e-07	-5.342565e-06	-1.395801e-09	-3.731627e+01	-9.478779e+01
2.900000e-07	-5.330901e-06	-1.437288e-09	-3.723480e+01	-9.467403e+01
3.000000e-07	-5.318892e-06	-1.430498e-09	-3.715093e+01	-9.455277e+01
3.100000e-07	-5.306494e-06	-1.428578e-09	-3.706433e+01	-9.442405e+01
3.200000e-07	-5.293644e-06	-1.385504e-09	-3.697458e+01	-9.428795e+01
3.300000e-07	-5.280400e-06	-1.419039e-09	-3.688207e+01	-9.414456e+01
3.400000e-07	-5.266852e-06	-1.414829e-09	-3.678744e+01	-9.399401e+01
3.500000e-07	-5.252921e-06	-1.424940e-09	-3.669013e+01	-9.383642e+01
3.600000e-07	-5.238474e-06	-1.389198e-09	-3.658923e+01	-9.367195e+01
3.700000e-07	-5.223730e-06	-1.424040e-09	-3.648624e+01	-9.350076e+01
3.800000e-07	-5.208600e-06	-1.412085e-09	-3.638057e+01	-9.332303e+01
3.900000e-07	-5.192669e-06	-1.388160e-09	-3.626929e+01	-9.313895e+01
4.000000e-07	-5.176236e-06	-1.380243e-09	-3.615451e+01	-9.294872e+01
4.100000e-07	-5.159504e-06	-1.427187e-09	-3.603765e+01	-9.275252e+01
4.200000e-07	-5.142406e-06	-1.387485e-09	-3.591822e+01	-9.255059e+01
4.300000e-07	-5.124985e-06	-1.353595e-09	-3.579654e+01	-9.234311e+01
4.400000e-07	-5.107355e-06	-1.404561e-09	-3.567340e+01	-9.213032e+01
4.500000e-07	-5.089377e-06	-1.423612e-09	-3.554783e+01	-9.191240e+01
4.600000e-07	-5.070813e-06	-1.345427e-09	-3.541816e+01	-9.168959e+01
4.700000e-07	-5.051827e-06	-1.352721e-09	-3.528555e+01	-9.146207e+01
4.800000e-07	-5.032575e-06	-1.416708e-09	-3.515108e+01	-9.123004e+01
4.900000e-07	-5.013071e-06	-1.378893e-09	-3.501485e+01	-9.099370e+01
5.000000e-07	-4.993349e-06	-1.345462e-09	-3.487710e+01	-9.075322e+01
5.100000e-07	-4.973425e-06	-1.388390e-09	-3.473793e+01	-9.050879e+01
5.200000e-07	-4.953216e-06	-1.376668e-09	-3.459678e+01	-9.026056e+01
5.300000e-07	-4.932746e-06	-1.326049e-09	-3.445380e+01	-9.000868e+01
5.400000e-07	-4.911937e-06	-1.379393e-09	-3.430846e+01	-8.975329e+01
5.500000e-07	-4.890614e-06	-1.392233e-09	-3.415953e+01	-8.949451e+01
5.600000e-07	-4.868897e-06	-1.331022e-09	-3.400784e+01	-8.923245e+01
5.700000e-07	-4.846952e-06	-1.334152e-09	-3.385456e+01	-8.896722e+01
5.800000e-07	-4.824736e-06	-1.387874e-09	-3.369939e+01	-8.869889e+01
5.900000e-07	-4.802152e-06	-1.340443e-09	-3.354165e+01	-8.842752e+01
6.000000e-07	-4.779104e-06	-1.317555e-09	-3.338066e+01	-8.815318e+01
6.100000e-07	-4.755722e-06	-1.346353e-09	-3.321734e+01	-8.787590e+01
6.200000e-07	-4.732156e-06	-1.336238e-09	-3.305274e+01	-8.759571e+01
6.300000e-07	-4.708376e-06	-1.293995e-09	-3.288665e+01	-8.731261e+01
6.400000e-07	-4.684352e-06	-1.325163e-09	-3.271885e+01	-8.702659e+01
6.500000e-07	-4.660033e-06	-1.326917e-09	-3.254898e+01	-8.673765e+01
6.600000e-07	-4.635292e-06	-1.297535e-09	-3.237618e+01	-8.644575e+01
6.700000e-07	-4.610091e-06	-1.297345e-09	-3.220016e+01	-8.615086e+01
6.800000e-07	-4.584262e-06	-1.313738e-09	-3.201974e+01	-8.585290e+01
6.900000e-07	-4.557815e-06	-1.281248e-09	-3.183502e+01	-8.555183e+01
7.000000e-07	-4.530943e-06	-1.275706e-09	-3.164733e+01	-8.524756e+01
7.100000e-07	-4.503680e-06	-1.289838e-09	-3.145690e+01	-8.494002e+01
7.200000e-07	-4.476206e-06	-1.282544e-09	-3.126501e+01	-8.462910e+01
7.300000e-07	-4.448519e-06	-1.266841e-09	-3.107162e+01	-8.431471e+01
7.400000e-07	-4.420672e-06	-1.275188e-09	-3.087712e+01	-8.399673e+01
7.500000e-07	-4.392646e-06	-1.265543e-09	-3.068136e+01	-8.367506e+01
7.600000e-07	-4.364368e-06	-1.245718e-09	-3.048385e+01	-8.334958e+01
7.700000e-07	-4.335755e-06	-1.242177e-09	-3.028400e+01	-8.302015e+01
7.800000e-07	-4.306775e-06	-1.238247e-09	-3.008158e+01	-8.268666e+01
7.900000e-07	-4.277516e-06	-1.230003e-09	-2.987721e+01	-8.234897e+01
8.000000e-07	-4.247987e-06	-1.234404e-09	-2.967096e+01	-8.200695e+01
8.100000e-07	-4.218183e-06	-1.234601e-09	-2.946279e+01	-8.166047e+01
8.200000e-07	-4.188039e-06	-1.217011e-09	-2.925225e+01	-8.130939e+01
8.300000e-07	-4.157672e-06	-1.208586e-09	-2.904014e+01	-8.095359e+01
8.400000e-07	-4.126966e-06	-1.201828e-09	-2.882566e+01	-8.059292e+01
8.500000e-07	-4.095862e-06	-1.187381e-09	-2.860842e+01	-8.022725e+01
8.600000e-07	-4.064500e-06	-1.174073e-09	-2.838936e+01	-7.985647e+01
8.700000e-07	-4.032949e-06	-1.179735e-09	-2.816898e+01	-7.948044e+01
8.800000e-07	-4.001296e-06	-1.172329e-09	-2.794789e+01	-7.909905e+01
8.900000e-07	-3.969473e-06	-1.167915e-09	-2.772562e+01	-7.871217e+01
9.000000e-07	-3.937431e-06	-1.162677e-09	-2.750182e+01	-7.831971e+01
9.100000e-07	-3.905111e-06	-1.154031e-09	-2.727607e+01	-7.792155e+01
9.200000e-07	-3.872434e-06	-1.132238e-09	-2.704783e+01	-7.751760e+01
9.300000e-07	-3.839384e-06	-1.126291e-09	-2.681699e+01	-7.710778e+01
9.400000e-07	-3.805966e-06	-1.120853e-09	-2.658357e+01	-7.669198e+01
9.500000e-07	-3.772060e-06	-1.113963e-09	-2.634675e+01	-7.627016e+01
9.600000e-07	-3.737791e-06	-1.107439e-09	-2.610739e+01	-7.584223e+01
9.700000e-07	-3.703176e-06	-1.110138e-09	-2.586561e+01	-7.540814e+01
9.800000e-07	-3.668090e-06	-1.098808e-09	-2.562055e+01	-7.496786e+01
9.900000e-07	-3.632727e-06	-1.088701e-09	-2.537355e+01	-7.452134e+01
1.000000e-06	-3.597218e-06	-1.080758e-09	-2.512553e+01	-7.406855e+01
1.010000e-06	-3.561558e-06	-1.070590e-09	-2.487646e+01	-7.360949e+01
1.020000e-06	-3.525759e-06	-1.057901e-09	-2.462641e+01	-7.314416e+01
1.030000e-06	-3.489818e-06	-1.052170e-09	-2.437537e+01	-7.267255e+01
1.040000e-06	-3.453701e-06	-1.048084e-09	-2.412310e+01	-7.219470e+01
1.050000e-06	-3.417390e-06	-1.039613e-09	-2.386948e+01	-7.171063e+01
1.060000e-06	-3.380810e-06	-1.031156e-09	-2.361398e+01	-7.122038e+01
1.070000e-06	-3.343948e-06	-1.027139e-09	-2.335651e+01	-7.072402e+01
1.080000e-06	-3.306772e-06	-1.018632e-09	-2.309685e+01	-7.022160e+01
1.090000e-06	-3.269342e-06	-1.008322e-09	-2.283541e+01	-6.971321e+01
1.100000e-06	-3.231700e-06	-1.003196e-09	-2.257249e+01	-6.919893e+01
1.110000e-06	-3.193818e-06	-9.941716e-10	-2.230789e+01	-6.867885e+01
1.120000e-06	-3.155733e-06	-9.843142e-10	-2.204188e+01	-6.815309e+01
1.130000e-06	-3.117417e-06	-9.759255e-10	-2.177426e+01	-6.762176e+01
1.140000e-06	-3.078925e-06	-9.699956e-10	-2.150540e+01	-6.708497e+01
1.150000e-06	-3.040266e-06	-9.568958e-10	-2.123538e+01	-6.654287e+01
1.160000e-06	-3.001463e-06	-9.468802e-10	-2.096435e+01	-6.599558e+01
1.170000e-06	-2.962397e-06	-9.387904e-10	-2.069149e+01	-6.544324e+01
1.180000e-06	-2.923098e-06	-9.308536e-10	-2.041700e+01	-6.488600e+01
1.190000e-06	-2.883654e-06	-9.210783e-10	-2.014149e+01	-6.432399e+01
1.200000e-06	-2.843973e-06	-9.160375e-10	-1.986433e+01	-6.375737e+01
1.210000e-06	-2.804205e-06	-9.093215e-10	-1.958656e+01	-6.318627e+01
1.220000e-06	-2.764363e-06	-9.022168e-10	-1.930828e+01	-6.261084e+01
1.230000e-06	-2.724388e-06	-8.919319e-10	-1.902906e+01	-6.203120e+01
1.240000e-06	-2.684227e-06	-8.808824e-10	-1.874855e+01	-6.144749e+01
1.250000e-06	-2.643822e-06	-8.679570e-10	-1.846633e+01	-6.085982e+01
1.260000e-06	-2.603245e-06	-8.582858e-10	-1.818292e+01	-6.026830e+01
1.270000e-06	-2.562387e-06	-8.489195e-10	-1.789753e+01	-5.967301e+01
1.280000e-06	-2.521240e-06	-8.450379e-10	-1.761013e+01	-5.907405e+01
1.290000e-06	-2.479970e-06	-8.388408e-10	-1.732187e+01	-5.847147e+01
1.300000e-06	-2.438505e-06	-8.309536e-10	-1.703226e+01	-5.786532e+01
1.310000e-06	-2.396677e-06	-8.197332e-10	-1.674010e+01	-5.725561e+01
1.320000e-06	-2.354463e-06	-8.087423e-10	-1.644525e+01	-5.664235e+01
1.330000e-06	-2.311994e-06	-7.986345e-10	-1.614861e+01	-5.602550e+01
1.340000e-06	-2.269360e-06	-7.884307e-10	-1.585082e+01	-5.540502e+01
1.350000e-06	-2.226469e-06	-7.785022e-10	-1.555125e+01	-5.478082e+01
1.360000e-06	-2.183281e-06	-7.677769e-10	-1.524959e+01	-5.415280e+01
1.370000e-06	-2.139915e-06	-7.591049e-10	-1.494669e+01	-5.352080e+01
1.380000e-06	-2.096420e-06	-7.523216e-10	-1.464289e+01	-5.288467e+01
1.390000e-06	-2.052811e-06	-7.430117e-10	-1.433829e+01	-5.224419e+01
1.400000e-06	-2.009134e-06	-7.304371e-10	-1.403322e+01	-5.159911e+01
1.410000e-06	-1.965407e-06	-7.177519e-10	-1.372780e+01	-5.094918e+01
1.420000e-06	-1.921558e-06	-7.059082e-10	-1.342153e+01	-5.029408e+01
1.430000e-06	-1.877555e-06	-6.957060e-10	-1.311418e+01	-4.963347e+01
1.440000e-06	-1.833506e-06	-6.849034e-10	-1.280651e+01	-4.896696e+01
1.450000e-06	-1.789414e-06	-6.760042e-10	-1.249854e+01	-4.829417e+01
1.460000e-06	-1.745293e-06	-6.640543e-10	-1.219037e+01	-4.761463e+01
1.470000e-06	-1.701035e-06	-6.515983e-10	-1.188124e+01	-4.692789e+01
1.480000e-06	-1.656657e-06	-6.379640e-10	-1.157127e+01	-4.623345e+01
1.490000e-06	-1.612192e-06	-6.242944e-10	-1.126070e+01	-4.553077e+01
1.500000e-06	-1.567493e-06	-6.109018e-10	-1.094849e+01	-4.481930e+01
1.510000e-06	-1.522662e-06	-5.981616e-10	-1.063535e+01	-4.409847e+01
1.520000e-06	-1.477831e-06	-5.876801e-10	-1.032222e+01	-4.336768e+01
1.530000e-06	-1.432887e-06	-5.788261e-10	-1.000830e+01	-4.262633e+01
1.540000e-06	-1.387701e-06	-5.655648e-10	-9.692688e+00	-4.187378e+01
1.550000e-06	-1.342451e-06	-5.518744e-10	-9.376635e+00	-4.110941e+01
1.560000e-06	-1.297267e-06	-5.362299e-10	-9.061038e+00	-4.033257e+01
1.570000e-06	-1.251900e-06	-5.208142e-10	-8.744157e+00	-3.954262e+01
1.580000e-06	-1.206329e-06	-5.075515e-10	-8.425863e+00	-3.873893e+01
1.590000e-06	-1.160731e-06	-4.996975e-10	-8.107371e+00	-3.792085e+01
1.600000e-06	-1.115078e-06	-4.926652e-10	-7.788495e+00	-3.708777e+01
1.610000e-06	-1.069303e-06	-4.816568e-10	-7.468774e+00	-3.623908e+01
1.620000e-06	-1.023451e-06	-4.688445e-10	-7.148507e+00	-3.537418e+01
1.630000e-06	-9.776127e-07	-4.564816e-10	-6.828343e+00	-3.449253e+01
1.640000e-06	-9.316215e-07	-4.420687e-10	-6.507107e+00	-3.359359e+01
1.650000e-06	-8.855533e-07	-4.260014e-10	-6.185334e+00	-3.267685e+01
1.660000e-06	-8.394968e-07	-4.128899e-10	-5.863643e+00	-3.174185e+01
1.670000e-06	-7.933632e-07	-3.983034e-10	-5.541413e+00	-3.078818e+01
1.680000e-06	-7.472083e-07	-3.842175e-10	-5.219034e+00	-2.981547e+01
1.690000e-06	-7.010711e-07	-3.710875e-10	-4.896779e+00	-2.882338e+01
1.700000e-06	-6.549068e-07	-3.578740e-10	-4.574335e+00	-2.781166e+01
1.710000e-06	-6.086782e-07	-3.418438e-10	-4.251441e+00	-2.678010e+01
1.720000e-06	-5.623879e-07	-3.236080e-10	-3.928117e+00	-2.572854e+01
1.730000e-06	-5.160568e-07	-3.028040e-10	-3.604507e+00	-2.465689e+01
1.740000e-06	-4.696349e-07	-2.802976e-10	-3.280264e+00	-2.356515e+01
1.750000e-06	-4.231276e-07	-2.629808e-10	-2.955424e+00	-2.245336e+01
1.760000e-06	-3.766180e-07	-2.509130e-10	-2.630568e+00	-2.132163e+01
1.770000e-06	-3.301028e-07	-2.390473e-10	-2.305673e+00	-2.017015e+01
1.780000e-06	-2.835847e-07	-2.271404e-10	-1.980757e+00	-1.899920e+01
1.790000e-06	-2.369633e-07	-2.116979e-10	-1.655120e+00	-1.780909e+01
1.800000e-06	-1.903093e-07	-1.916332e-10	-1.329255e+00	-1.660025e+01
1.810000e-06	-1.437165e-07	-1.712114e-10	-1.003818e+00	-1.537313e+01
1.820000e-06	-9.709374e-08	-1.546157e-10	-6.781717e-01	-1.412830e+01
1.830000e-06	-5.047098e-08	-1.414068e-10	-3.525252e-01	-1.286637e+01
1.840000e-06	-3.866808e-09	-1.263657e-10	-2.700854e-02	-1.158803e+01
1.850000e-06	4.272832e-08	-1.099050e-10	2.984450e-01	-1.029401e+01
1.860000e-06	8.928088e-08	-9.723773e-11	6.236011e-01	-8.985147e+00
1.870000e-06	1.357116e-07	-8.089233e-11	9.479066e-01	-7.662296e+00
1.880000e-06	1.821463e-07	-5.895905e-11	1.272239e+00	-6.326387e+00
1.890000e-06	2.287341e-07	-3.648487e-11	1.597642e+00	-4.978398e+00
1.900000e-06	2.753098e-07	-1.537152e-11	1.922960e+00	-3.619352e+00
1.910000e-06	3.218321e-07	3.785934e-12	2.247904e+00	-2.250317e+00
1.920000e-06	3.683368e-07	2.183861e-11	2.572726e+00	-8.723974e-01
1.930000e-06	4.148605e-07	3.841103e-11	2.897681e+00	5.132693e-01
1.940000e-06	4.613511e-07	5.441567e-11	3.222404e+00	1.905518e+00
1.950000e-06	5.076958e-07	7.063361e-11	3.546109e+00	3.303163e+00
1.960000e-06	5.540086e-07	8.913724e-11	3.869590e+00	4.704999e+00
1.970000e-06	6.003640e-07	1.113336e-10	4.193369e+00	6.109813e+00
1.980000e-06	6.466728e-07	1.343820e-10	4.516823e+00	7.516385e+00
1.990000e-06	6.927871e-07	1.553542e-10	4.838918e+00	8.923496e+00
2.000000e-06	7.388441e-07	1.726721e-10	5.160613e+00	1.032993e+01
2.010000e-06	7.849889e-07	1.904531e-10	5.482921e+00	1.173449e+01
2.020000e-06	8.310934e-07	2.091376e-10	5.804948e+00	1.313599e+01
2.030000e-06	8.770838e-07	2.287284e-10	6.126177e+00	1.453326e+01
2.040000e-06	9.230268e-07	2.502494e-10	6.447075e+00	1.592517e+01
2.050000e-06	9.689439e-07	2.722657e-10	6.767793e+00	1.731061e+01
2.060000e-06	1.014769e-06	2.928077e-10	7.087870e+00	1.868851e+01
2.070000e-06	1.060510e-06	3.121812e-10	7.407353e+00	2.005784e+01
2.080000e-06	1.106167e-06	3.337199e-10	7.726260e+00	2.141762e+01
2.090000e-06	1.151704e-06	3.551076e-10	8.044323e+00	2.276689e+01
2.100000e-06	1.197101e-06	3.740766e-10	8.361403e+00	2.410478e+01
2.110000e-06	1.242529e-06	3.886712e-10	8.678703e+00	2.543044e+01
2.120000e-06	1.287935e-06	4.020113e-10	8.995855e+00	2.674308e+01
2.130000e-06	1.333101e-06	4.186738e-10	9.311327e+00	2.804199e+01
2.140000e-06	1.378105e-06	4.404180e-10	9.625668e+00	2.932648e+01
2.150000e-06	1.423029e-06	4.629609e-10	9.939448e+00	3.059595e+01
2.160000e-06	1.467892e-06	4.836391e-10	1.025280e+01	3.184984e+01
2.170000e-06	1.512675e-06	5.029553e-10	1.056560e+01	3.308766e+01
2.180000e-06	1.557369e-06	5.229326e-10	1.087777e+01	3.430897e+01
2.190000e-06	1.601983e-06	5.368712e-10	1.118939e+01	3.551340e+01
2.200000e-06	1.646395e-06	5.490293e-10	1.149959e+01	3.670061e+01
2.210000e-06	1.690657e-06	5.642388e-10	1.180875e+01	3.787034e+01
2.220000e-06	1.734831e-06	5.805807e-10	1.211730e+01	3.902238e+01
2.230000e-06	1.778908e-06	5.991019e-10	1.242516e+01	4.015656e+01
2.240000e-06	1.822926e-06	6.164852e-10	1.273261e+01	4.127277e+01
2.250000e-06	1.866843e-06	6.323580e-10	1.303936e+01	4.237094e+01
2.260000e-06	1.910665e-06	6.441283e-10	1.334544e+01	4.345105e+01
2.270000e-06	1.954450e-06	6.592146e-10	1.365127e+01	4.451311e+01
2.280000e-06	1.998166e-06	6.752072e-10	1.395661e+01	4.555718e+01
2.290000e-06	2.041801e-06	6.895237e-10	1.426139e+01	4.658333e+01
2.300000e-06	2.085381e-06	7.035066e-10	1.456578e+01	4.759169e+01
2.310000e-06	2.128941e-06	7.170415e-10	1.487004e+01	4.858241e+01
2.320000e-06	2.172428e-06	7.297153e-10	1.517378e+01	4.955564e+01
2.330000e-06	2.215633e-06	7.408484e-10	1.547556e+01	5.051159e+01
2.340000e-06	2.258640e-06	7.524644e-10	1.577595e+01	5.145046e+01
2.350000e-06	2.301435e-06	7.679483e-10	1.607486e+01	5.237246e+01
2.360000e-06	2.343919e-06	7.860736e-10	1.637160e+01	5.327783e+01
2.370000e-06	2.386147e-06	7.998033e-10	1.666654e+01	5.416682e+01
2.380000e-06	2.428065e-06	8.108497e-10	1.695934e+01	5.503968e+01
2.390000e-06	2.469620e-06	8.208762e-10	1.724958e+01	5.589664e+01
2.400000e-06	2.510860e-06	8.298036e-10	1.753763e+01	5.673797e+01
2.410000e-06	2.551782e-06	8.386501e-10	1.782346e+01	5.756392e+01
2.420000e-06	2.592422e-06	8.499817e-10	1.810732e+01	5.837473e+01
2.430000e-06	2.632958e-06	8.654749e-10	1.839045e+01	5.917066e+01
2.440000e-06	2.673282e-06	8.817231e-10	1.867210e+01	5.995194e+01
2.450000e-06	2.713312e-06	8.941418e-10	1.895170e+01	6.071881e+01
2.460000e-06	2.753203e-06	9.048136e-10	1.923033e+01	6.147150e+01
2.470000e-06	2.793029e-06	9.162637e-10	1.950850e+01	6.221023e+01
2.480000e-06	2.832771e-06	9.271883e-10	1.978609e+01	6.293522e+01
2.490000e-06	2.872334e-06	9.357990e-10	2.006242e+01	6.364666e+01
2.500000e-06	2.911820e-06	9.451579e-10	2.033822e+01	6.434476e+01
2.510000e-06	2.951203e-06	9.564929e-10	2.061330e+01	6.502972e+01
2.520000e-06	2.990363e-06	9.685631e-10	2.088682e+01	6.570171e+01
2.530000e-06	3.029276e-06	9.789898e-10	2.115862e+01	6.636093e+01
2.540000e-06	3.067956e-06	9.864796e-10	2.142878e+01	6.700756e+01
2.550000e-06	3.106339e-06	9.934403e-10	2.169688e+01	6.764176e+01
2.560000e-06	3.144400e-06	1.002516e-09	2.196273e+01	6.826371e+01
2.570000e-06	3.182391e-06	1.011532e-09	2.222808e+01	6.887359e+01
2.580000e-06	3.220260e-06	1.019224e-09	2.249258e+01	6.947158e+01
2.590000e-06	3.257922e-06	1.027766e-09	2.275564e+01	7.005784e+01
2.600000e-06	3.295424e-06	1.037092e-09	2.301759e+01	7.063256e+01
2.610000e-06	3.332661e-06	1.042788e-09	2.327768e+01	7.119593e+01
2.620000e-06	3.369608e-06	1.046254e-09	2.353574e+01	7.174813e+01
2.630000e-06	3.406331e-06	1.052718e-09	2.379224e+01	7.228938e+01
2.640000e-06	3.442751e-06	1.061445e-09	2.404662e+01	7.281986e+01
2.650000e-06	3.478886e-06	1.070598e-09	2.429902e+01	7.333980e+01
2.660000e-06	3.514875e-06	1.078229e-09	2.455039e+01	7.384943e+01
2.670000e-06	3.550687e-06	1.084665e-09	2.480052e+01	7.434897e+01
2.680000e-06	3.586400e-06	1.092185e-09	2.504997e+01	7.483869e+01
2.690000e-06	3.622029e-06	1.101085e-09	2.529883e+01	7.531882e+01
2.700000e-06	3.657494e-06	1.109823e-09	2.554654e+01	7.578965e+01
2.710000e-06	3.692738e-06	1.117666e-09	2.579271e+01	7.625145e+01
2.720000e-06	3.727667e-06	1.125061e-09	2.603668e+01	7.670450e+01
2.730000e-06	3.762185e-06	1.132301e-09	2.627777e+01	7.714911e+01
2.740000e-06	3.796108e-06	1.138867e-09	2.651472e+01	7.758558e+01
2.750000e-06	3.829471e-06	1.144934e-09	2.674775e+01	7.801423e+01
2.760000e-06	3.862452e-06	1.150057e-09	2.697811e+01	7.843536e+01
2.770000e-06	3.895090e-06	1.155773e-09	2.720608e+01	7.884932e+01
2.780000e-06	3.927366e-06	1.164136e-09	2.743152e+01	7.925641e+01
2.790000e-06	3.959331e-06	1.173720e-09	2.765478e+01	7.965697e+01
2.800000e-06	3.991138e-06	1.182157e-09	2.787695e+01	8.005133e+01
2.810000e-06	4.022845e-06	1.189259e-09	2.809841e+01	8.043981e+01
2.820000e-06	4.054457e-06	1.194948e-09	2.831921e+01	8.082272e+01
2.830000e-06	4.085917e-06	1.200976e-09	2.853895e+01	8.120037e+01
2.840000e-06	4.117080e-06	1.209168e-09	2.875661e+01	8.157307e+01
2.850000e-06	4.147819e-06	1.216766e-09	2.897132e+01	8.194111e+01
2.860000e-06	4.178265e-06	1.221631e-09	2.918397e+01	8.230476e+01
2.870000e-06	4.208438e-06	1.224343e-09	2.939473e+01	8.266427e+01
2.880000e-06	4.238293e-06	1.228723e-09	2.960325e+01	8.301990e+01
2.890000e-06	4.267895e-06	1.236168e-09	2.981001e+01	8.337185e+01
2.900000e-06	4.297181e-06	1.245406e-09	3.001457e+01	8.372032e+01
