# Temperatura_=_14.42
# Concentracion g/m^3_=_1620.0
# C_Vs_to_Am_M_A/Vsm_=_65563218390.804596
# pendiente_HvsI_1/m_=_3716.3
# ordenada_HvsI_A/m_=_1297.0
# frecuencia_Hz_=_135099.9426779597

Tiempo_(s)	Campo_(V.s)	Magnetizacion_(V.s)	Campo_(kA/m)	Magnetizacion_(A/m)
0.000000e+00	-5.513511e-06	-1.567645e-09	-3.837237e+01	-1.029628e+02
1.000000e-08	-5.513591e-06	-1.564548e-09	-3.837293e+01	-1.029414e+02
2.000000e-08	-5.513349e-06	-1.564706e-09	-3.837125e+01	-1.029171e+02
3.000000e-08	-5.512718e-06	-1.563555e-09	-3.836686e+01	-1.028898e+02
4.000000e-08	-5.511474e-06	-1.557726e-09	-3.835820e+01	-1.028593e+02
5.000000e-08	-5.509666e-06	-1.549670e-09	-3.834561e+01	-1.028258e+02
6.000000e-08	-5.507376e-06	-1.566490e-09	-3.832967e+01	-1.027889e+02
7.000000e-08	-5.504403e-06	-1.606851e-09	-3.830898e+01	-1.027487e+02
8.000000e-08	-5.500928e-06	-1.585626e-09	-3.828480e+01	-1.027051e+02
9.000000e-08	-5.497083e-06	-1.533435e-09	-3.825804e+01	-1.026579e+02
1.000000e-07	-5.492942e-06	-1.572893e-09	-3.822922e+01	-1.026071e+02
1.100000e-07	-5.488529e-06	-1.594867e-09	-3.819851e+01	-1.025525e+02
1.200000e-07	-5.483718e-06	-1.533731e-09	-3.816502e+01	-1.024940e+02
1.300000e-07	-5.478619e-06	-1.480817e-09	-3.812953e+01	-1.024315e+02
1.400000e-07	-5.473279e-06	-1.532701e-09	-3.809237e+01	-1.023650e+02
1.500000e-07	-5.467583e-06	-1.599426e-09	-3.805273e+01	-1.022942e+02
1.600000e-07	-5.461447e-06	-1.522456e-09	-3.801003e+01	-1.022192e+02
1.700000e-07	-5.454895e-06	-1.487379e-09	-3.796442e+01	-1.021398e+02
1.800000e-07	-5.447971e-06	-1.537730e-09	-3.791623e+01	-1.020559e+02
1.900000e-07	-5.440667e-06	-1.590213e-09	-3.786540e+01	-1.019675e+02
2.000000e-07	-5.433035e-06	-1.541267e-09	-3.781228e+01	-1.018743e+02
2.100000e-07	-5.425197e-06	-1.513027e-09	-3.775773e+01	-1.017764e+02
2.200000e-07	-5.417038e-06	-1.545654e-09	-3.770095e+01	-1.016737e+02
2.300000e-07	-5.408446e-06	-1.572093e-09	-3.764115e+01	-1.015662e+02
2.400000e-07	-5.399344e-06	-1.540044e-09	-3.757781e+01	-1.014536e+02
2.500000e-07	-5.389594e-06	-1.522217e-09	-3.750995e+01	-1.013360e+02
2.600000e-07	-5.379253e-06	-1.542925e-09	-3.743797e+01	-1.012134e+02
2.700000e-07	-5.368313e-06	-1.551698e-09	-3.736184e+01	-1.010856e+02
2.800000e-07	-5.356912e-06	-1.545799e-09	-3.728249e+01	-1.009526e+02
2.900000e-07	-5.345205e-06	-1.532604e-09	-3.720102e+01	-1.008144e+02
3.000000e-07	-5.333107e-06	-1.531625e-09	-3.711681e+01	-1.006710e+02
3.100000e-07	-5.320580e-06	-1.533032e-09	-3.702963e+01	-1.005222e+02
3.200000e-07	-5.307633e-06	-1.542967e-09	-3.693953e+01	-1.003681e+02
3.300000e-07	-5.294332e-06	-1.517110e-09	-3.684695e+01	-1.002087e+02
3.400000e-07	-5.280672e-06	-1.526731e-09	-3.675188e+01	-1.000439e+02
3.500000e-07	-5.266663e-06	-1.553398e-09	-3.665439e+01	-9.987368e+01
3.600000e-07	-5.252112e-06	-1.533182e-09	-3.655311e+01	-9.969804e+01
3.700000e-07	-5.236906e-06	-1.490715e-09	-3.644729e+01	-9.951697e+01
3.800000e-07	-5.221306e-06	-1.537487e-09	-3.633871e+01	-9.933043e+01
3.900000e-07	-5.205212e-06	-1.545245e-09	-3.622670e+01	-9.913842e+01
4.000000e-07	-5.188543e-06	-1.481375e-09	-3.611069e+01	-9.894092e+01
4.100000e-07	-5.171518e-06	-1.501003e-09	-3.599220e+01	-9.873792e+01
4.200000e-07	-5.154285e-06	-1.572152e-09	-3.587227e+01	-9.852941e+01
4.300000e-07	-5.136782e-06	-1.502133e-09	-3.575045e+01	-9.831538e+01
4.400000e-07	-5.118875e-06	-1.455067e-09	-3.562583e+01	-9.809580e+01
4.500000e-07	-5.100627e-06	-1.538688e-09	-3.549882e+01	-9.787068e+01
4.600000e-07	-5.082031e-06	-1.532249e-09	-3.536940e+01	-9.763999e+01
4.700000e-07	-5.063016e-06	-1.439317e-09	-3.523706e+01	-9.740374e+01
4.800000e-07	-5.043665e-06	-1.492835e-09	-3.510238e+01	-9.716192e+01
4.900000e-07	-5.024068e-06	-1.541177e-09	-3.496600e+01	-9.691451e+01
5.000000e-07	-5.004223e-06	-1.450811e-09	-3.482788e+01	-9.666150e+01
5.100000e-07	-4.984114e-06	-1.451909e-09	-3.468793e+01	-9.640290e+01
5.200000e-07	-4.963691e-06	-1.529707e-09	-3.454579e+01	-9.613871e+01
5.300000e-07	-4.942885e-06	-1.464659e-09	-3.440099e+01	-9.586891e+01
5.400000e-07	-4.921712e-06	-1.419225e-09	-3.425363e+01	-9.559351e+01
5.500000e-07	-4.900261e-06	-1.503779e-09	-3.410434e+01	-9.531252e+01
5.600000e-07	-4.878505e-06	-1.482417e-09	-3.395292e+01	-9.502594e+01
5.700000e-07	-4.856402e-06	-1.402166e-09	-3.379909e+01	-9.473379e+01
5.800000e-07	-4.833949e-06	-1.453650e-09	-3.364283e+01	-9.443607e+01
5.900000e-07	-4.811176e-06	-1.481548e-09	-3.348433e+01	-9.413282e+01
6.000000e-07	-4.788065e-06	-1.404617e-09	-3.332349e+01	-9.382405e+01
6.100000e-07	-4.764650e-06	-1.418658e-09	-3.316053e+01	-9.350980e+01
6.200000e-07	-4.741069e-06	-1.461248e-09	-3.299641e+01	-9.319009e+01
6.300000e-07	-4.717294e-06	-1.410352e-09	-3.283094e+01	-9.286497e+01
6.400000e-07	-4.693149e-06	-1.391345e-09	-3.266290e+01	-9.253448e+01
6.500000e-07	-4.668598e-06	-1.434546e-09	-3.249204e+01	-9.219868e+01
6.600000e-07	-4.643648e-06	-1.405984e-09	-3.231839e+01	-9.185761e+01
6.700000e-07	-4.618135e-06	-1.378067e-09	-3.214082e+01	-9.151135e+01
6.800000e-07	-4.592068e-06	-1.410300e-09	-3.195941e+01	-9.115995e+01
6.900000e-07	-4.565502e-06	-1.407256e-09	-3.177452e+01	-9.080349e+01
7.000000e-07	-4.538440e-06	-1.371590e-09	-3.158617e+01	-9.044204e+01
7.100000e-07	-4.511122e-06	-1.386333e-09	-3.139605e+01	-9.007569e+01
7.200000e-07	-4.483659e-06	-1.386880e-09	-3.120491e+01	-8.970452e+01
7.300000e-07	-4.455972e-06	-1.357572e-09	-3.101222e+01	-8.932862e+01
7.400000e-07	-4.428075e-06	-1.360086e-09	-3.081806e+01	-8.894808e+01
7.500000e-07	-4.399897e-06	-1.373237e-09	-3.062195e+01	-8.856299e+01
7.600000e-07	-4.371377e-06	-1.350078e-09	-3.042346e+01	-8.817345e+01
7.700000e-07	-4.342532e-06	-1.340664e-09	-3.022271e+01	-8.777954e+01
7.800000e-07	-4.313397e-06	-1.347456e-09	-3.001994e+01	-8.738137e+01
7.900000e-07	-4.283982e-06	-1.330525e-09	-2.981522e+01	-8.697903e+01
8.000000e-07	-4.254287e-06	-1.316347e-09	-2.960856e+01	-8.657261e+01
8.100000e-07	-4.224240e-06	-1.324507e-09	-2.939944e+01	-8.616219e+01
8.200000e-07	-4.193841e-06	-1.318127e-09	-2.918787e+01	-8.574786e+01
8.300000e-07	-4.163223e-06	-1.300493e-09	-2.897478e+01	-8.532969e+01
8.400000e-07	-4.132321e-06	-1.300639e-09	-2.875971e+01	-8.490777e+01
8.500000e-07	-4.101167e-06	-1.293708e-09	-2.854288e+01	-8.448216e+01
8.600000e-07	-4.069885e-06	-1.272333e-09	-2.832517e+01	-8.405292e+01
8.700000e-07	-4.038395e-06	-1.264779e-09	-2.810601e+01	-8.362009e+01
8.800000e-07	-4.006704e-06	-1.268318e-09	-2.788545e+01	-8.318372e+01
8.900000e-07	-3.974832e-06	-1.257074e-09	-2.766363e+01	-8.274385e+01
9.000000e-07	-3.942675e-06	-1.250762e-09	-2.743983e+01	-8.230048e+01
9.100000e-07	-3.910229e-06	-1.251617e-09	-2.721402e+01	-8.185365e+01
9.200000e-07	-3.877406e-06	-1.238525e-09	-2.698557e+01	-8.140333e+01
9.300000e-07	-3.844072e-06	-1.219664e-09	-2.675358e+01	-8.094953e+01
9.400000e-07	-3.810376e-06	-1.217168e-09	-2.651906e+01	-8.049222e+01
9.500000e-07	-3.776300e-06	-1.209717e-09	-2.628191e+01	-8.003136e+01
9.600000e-07	-3.741750e-06	-1.193918e-09	-2.604145e+01	-7.956691e+01
9.700000e-07	-3.706794e-06	-1.188720e-09	-2.579817e+01	-7.909881e+01
9.800000e-07	-3.671524e-06	-1.190814e-09	-2.555270e+01	-7.862699e+01
9.900000e-07	-3.636073e-06	-1.179854e-09	-2.530597e+01	-7.815137e+01
1.000000e-06	-3.600459e-06	-1.169766e-09	-2.505811e+01	-7.767186e+01
1.010000e-06	-3.564709e-06	-1.164474e-09	-2.480930e+01	-7.718836e+01
1.020000e-06	-3.528788e-06	-1.152018e-09	-2.455930e+01	-7.670076e+01
1.030000e-06	-3.492714e-06	-1.136266e-09	-2.430824e+01	-7.620894e+01
1.040000e-06	-3.456445e-06	-1.131110e-09	-2.405582e+01	-7.571278e+01
1.050000e-06	-3.419912e-06	-1.123483e-09	-2.380156e+01	-7.521215e+01
1.060000e-06	-3.383081e-06	-1.111901e-09	-2.354522e+01	-7.470690e+01
1.070000e-06	-3.345892e-06	-1.106039e-09	-2.328640e+01	-7.419691e+01
1.080000e-06	-3.308438e-06	-1.100210e-09	-2.302573e+01	-7.368202e+01
1.090000e-06	-3.270804e-06	-1.087503e-09	-2.276381e+01	-7.316209e+01
1.100000e-06	-3.233003e-06	-1.077820e-09	-2.250072e+01	-7.263698e+01
1.110000e-06	-3.194985e-06	-1.072057e-09	-2.223613e+01	-7.210653e+01
1.120000e-06	-3.156713e-06	-1.062824e-09	-2.196977e+01	-7.157060e+01
1.130000e-06	-3.118218e-06	-1.053810e-09	-2.170186e+01	-7.102904e+01
1.140000e-06	-3.079535e-06	-1.046727e-09	-2.143263e+01	-7.048172e+01
1.150000e-06	-3.040650e-06	-1.037845e-09	-2.116201e+01	-6.992851e+01
1.160000e-06	-3.001504e-06	-1.026482e-09	-2.088956e+01	-6.936926e+01
1.170000e-06	-2.962194e-06	-1.017254e-09	-2.061598e+01	-6.880386e+01
1.180000e-06	-2.922812e-06	-1.008967e-09	-2.034189e+01	-6.823218e+01
1.190000e-06	-2.883279e-06	-1.000685e-09	-2.006675e+01	-6.765413e+01
1.200000e-06	-2.843583e-06	-9.915376e-10	-1.979048e+01	-6.706958e+01
1.210000e-06	-2.803778e-06	-9.832807e-10	-1.951345e+01	-6.647844e+01
1.220000e-06	-2.763864e-06	-9.716698e-10	-1.923566e+01	-6.588064e+01
1.230000e-06	-2.723743e-06	-9.603120e-10	-1.895643e+01	-6.527607e+01
1.240000e-06	-2.683413e-06	-9.485843e-10	-1.867575e+01	-6.466467e+01
1.250000e-06	-2.642891e-06	-9.376545e-10	-1.839372e+01	-6.404638e+01
1.260000e-06	-2.602113e-06	-9.262464e-10	-1.810992e+01	-6.342112e+01
1.270000e-06	-2.561055e-06	-9.173284e-10	-1.782417e+01	-6.278885e+01
1.280000e-06	-2.519712e-06	-9.110266e-10	-1.753644e+01	-6.214951e+01
1.290000e-06	-2.478097e-06	-9.025208e-10	-1.724681e+01	-6.150306e+01
1.300000e-06	-2.436140e-06	-8.908391e-10	-1.695480e+01	-6.084944e+01
1.310000e-06	-2.393791e-06	-8.781474e-10	-1.666006e+01	-6.018863e+01
1.320000e-06	-2.351123e-06	-8.649051e-10	-1.636311e+01	-5.952056e+01
1.330000e-06	-2.308226e-06	-8.528386e-10	-1.606456e+01	-5.884521e+01
1.340000e-06	-2.265168e-06	-8.417617e-10	-1.576488e+01	-5.816251e+01
1.350000e-06	-2.221955e-06	-8.322798e-10	-1.546414e+01	-5.747242e+01
1.360000e-06	-2.178603e-06	-8.222014e-10	-1.516242e+01	-5.677488e+01
1.370000e-06	-2.135073e-06	-8.145049e-10	-1.485946e+01	-5.606982e+01
1.380000e-06	-2.091444e-06	-8.071410e-10	-1.455582e+01	-5.535716e+01
1.390000e-06	-2.047757e-06	-7.957534e-10	-1.425177e+01	-5.463681e+01
1.400000e-06	-2.003964e-06	-7.831925e-10	-1.394699e+01	-5.390868e+01
1.410000e-06	-1.960124e-06	-7.695891e-10	-1.364187e+01	-5.317265e+01
1.420000e-06	-1.916210e-06	-7.578789e-10	-1.333624e+01	-5.242858e+01
1.430000e-06	-1.872189e-06	-7.465639e-10	-1.302987e+01	-5.167633e+01
1.440000e-06	-1.828135e-06	-7.339492e-10	-1.272327e+01	-5.091574e+01
1.450000e-06	-1.783980e-06	-7.210242e-10	-1.241596e+01	-5.014662e+01
1.460000e-06	-1.739628e-06	-7.077218e-10	-1.210729e+01	-4.936876e+01
1.470000e-06	-1.695119e-06	-6.926342e-10	-1.179752e+01	-4.858194e+01
1.480000e-06	-1.650519e-06	-6.785931e-10	-1.148711e+01	-4.778591e+01
1.490000e-06	-1.605781e-06	-6.670773e-10	-1.117575e+01	-4.698041e+01
1.500000e-06	-1.560859e-06	-6.566667e-10	-1.086311e+01	-4.616515e+01
1.510000e-06	-1.515818e-06	-6.449769e-10	-1.054964e+01	-4.533982e+01
1.520000e-06	-1.470716e-06	-6.307360e-10	-1.023574e+01	-4.450410e+01
1.530000e-06	-1.425463e-06	-6.142896e-10	-9.920789e+00	-4.365763e+01
1.540000e-06	-1.379999e-06	-5.962155e-10	-9.604373e+00	-4.280007e+01
1.550000e-06	-1.334499e-06	-5.789346e-10	-9.287712e+00	-4.193102e+01
1.560000e-06	-1.289014e-06	-5.631811e-10	-8.971150e+00	-4.105010e+01
1.570000e-06	-1.243476e-06	-5.492720e-10	-8.654216e+00	-4.015691e+01
1.580000e-06	-1.197857e-06	-5.395360e-10	-8.336724e+00	-3.925102e+01
1.590000e-06	-1.152095e-06	-5.302529e-10	-8.018236e+00	-3.833202e+01
1.600000e-06	-1.106255e-06	-5.182848e-10	-7.699201e+00	-3.739949e+01
1.610000e-06	-1.060392e-06	-5.036776e-10	-7.380005e+00	-3.645300e+01
1.620000e-06	-1.014384e-06	-4.878149e-10	-7.059808e+00	-3.549212e+01
1.630000e-06	-9.682697e-07	-4.731529e-10	-6.738865e+00	-3.451644e+01
1.640000e-06	-9.221020e-07	-4.587592e-10	-6.417551e+00	-3.352556e+01
1.650000e-06	-8.758976e-07	-4.410038e-10	-6.095983e+00	-3.251907e+01
1.660000e-06	-8.296932e-07	-4.224041e-10	-5.774414e+00	-3.149660e+01
1.670000e-06	-7.834104e-07	-4.038490e-10	-5.452300e+00	-3.045780e+01
1.680000e-06	-7.370745e-07	-3.857623e-10	-5.129816e+00	-2.940234e+01
1.690000e-06	-6.907268e-07	-3.705488e-10	-4.807250e+00	-2.832990e+01
1.700000e-06	-6.443272e-07	-3.564327e-10	-4.484323e+00	-2.724023e+01
1.710000e-06	-5.978782e-07	-3.424054e-10	-4.161052e+00	-2.613308e+01
1.720000e-06	-5.513671e-07	-3.259871e-10	-3.837348e+00	-2.500827e+01
1.730000e-06	-5.047614e-07	-3.045259e-10	-3.512987e+00	-2.386565e+01
1.740000e-06	-4.581046e-07	-2.819433e-10	-3.188269e+00	-2.270511e+01
1.750000e-06	-4.114386e-07	-2.612637e-10	-2.863489e+00	-2.152661e+01
1.760000e-06	-3.647311e-07	-2.434202e-10	-2.538419e+00	-2.033015e+01
1.770000e-06	-3.179438e-07	-2.294553e-10	-2.212793e+00	-1.911578e+01
1.780000e-06	-2.711182e-07	-2.175937e-10	-1.886901e+00	-1.788363e+01
1.790000e-06	-2.243661e-07	-2.044732e-10	-1.561520e+00	-1.663387e+01
1.800000e-06	-1.776971e-07	-1.880425e-10	-1.236718e+00	-1.536675e+01
1.810000e-06	-1.309766e-07	-1.694980e-10	-9.115575e-01	-1.408257e+01
1.820000e-06	-8.422101e-08	-1.496401e-10	-5.861528e-01	-1.278170e+01
1.830000e-06	-3.751701e-08	-1.296090e-10	-2.611071e-01	-1.146457e+01
1.840000e-06	9.230381e-09	-1.108743e-10	6.424067e-02	-1.013168e+01
1.850000e-06	5.594137e-08	-9.294804e-11	3.893351e-01	-8.783604e+00
1.860000e-06	1.026301e-07	-7.444570e-11	7.142748e-01	-7.420966e+00
1.870000e-06	1.493556e-07	-5.536957e-11	1.039470e+00	-6.044461e+00
1.880000e-06	1.960586e-07	-3.578887e-11	1.364509e+00	-4.654841e+00
1.890000e-06	2.427218e-07	-1.512692e-11	1.689270e+00	-3.252921e+00
1.900000e-06	2.893446e-07	6.372848e-12	2.013751e+00	-1.839572e+00
1.910000e-06	3.360274e-07	2.603118e-11	2.338649e+00	-4.157187e-01
1.920000e-06	3.826612e-07	4.283323e-11	2.663207e+00	1.017663e+00
1.930000e-06	4.292457e-07	6.028590e-11	2.987420e+00	2.459550e+00
1.940000e-06	4.759503e-07	8.118570e-11	3.312471e+00	3.908876e+00
1.950000e-06	5.226409e-07	1.029300e-10	3.637423e+00	5.364536e+00
1.960000e-06	5.691625e-07	1.246700e-10	3.961199e+00	6.825389e+00
1.970000e-06	6.155570e-07	1.453072e-10	4.284091e+00	8.290267e+00
1.980000e-06	6.619403e-07	1.645661e-10	4.606905e+00	9.757976e+00
1.990000e-06	7.083026e-07	1.829174e-10	4.929572e+00	1.122730e+01
2.000000e-06	7.545520e-07	1.998494e-10	5.251454e+00	1.269702e+01
2.010000e-06	8.006991e-07	2.193140e-10	5.572624e+00	1.416589e+01
2.020000e-06	8.468646e-07	2.416675e-10	5.893922e+00	1.563268e+01
2.030000e-06	8.930470e-07	2.648654e-10	6.215338e+00	1.709615e+01
2.040000e-06	9.391509e-07	2.870652e-10	6.536207e+00	1.855508e+01
2.050000e-06	9.852195e-07	3.070539e-10	6.856830e+00	2.000825e+01
2.060000e-06	1.031239e-06	3.255349e-10	7.177109e+00	2.145447e+01
2.070000e-06	1.077173e-06	3.452989e-10	7.496798e+00	2.289256e+01
2.080000e-06	1.123015e-06	3.664886e-10	7.815844e+00	2.432140e+01
2.090000e-06	1.168708e-06	3.884030e-10	8.133853e+00	2.573987e+01
2.100000e-06	1.214337e-06	4.108217e-10	8.451420e+00	2.714690e+01
2.110000e-06	1.259957e-06	4.305038e-10	8.768922e+00	2.854149e+01
2.120000e-06	1.305455e-06	4.476287e-10	9.085575e+00	2.992265e+01
2.130000e-06	1.350809e-06	4.661270e-10	9.401224e+00	3.128945e+01
2.140000e-06	1.396034e-06	4.863640e-10	9.715976e+00	3.264103e+01
2.150000e-06	1.441179e-06	5.066951e-10	1.003017e+01	3.397659e+01
2.160000e-06	1.486214e-06	5.271044e-10	1.034360e+01	3.529536e+01
2.170000e-06	1.531124e-06	5.479415e-10	1.065616e+01	3.659666e+01
2.180000e-06	1.575962e-06	5.679670e-10	1.096822e+01	3.787987e+01
2.190000e-06	1.620658e-06	5.842627e-10	1.127929e+01	3.914443e+01
2.200000e-06	1.665220e-06	5.981554e-10	1.158943e+01	4.038984e+01
2.210000e-06	1.709700e-06	6.120394e-10	1.189900e+01	4.161568e+01
2.220000e-06	1.754092e-06	6.278856e-10	1.220795e+01	4.282160e+01
2.230000e-06	1.798352e-06	6.448202e-10	1.251599e+01	4.400729e+01
2.240000e-06	1.842492e-06	6.609358e-10	1.282319e+01	4.517253e+01
2.250000e-06	1.886506e-06	6.770791e-10	1.312951e+01	4.631716e+01
2.260000e-06	1.930441e-06	6.934179e-10	1.343529e+01	4.744108e+01
2.270000e-06	1.974335e-06	7.129198e-10	1.374078e+01	4.854425e+01
2.280000e-06	2.018152e-06	7.308930e-10	1.404573e+01	4.962668e+01
2.290000e-06	2.061898e-06	7.467039e-10	1.435019e+01	5.068846e+01
2.300000e-06	2.105492e-06	7.614191e-10	1.465359e+01	5.172972e+01
2.310000e-06	2.148978e-06	7.747285e-10	1.495624e+01	5.275062e+01
2.320000e-06	2.192397e-06	7.880820e-10	1.525842e+01	5.375140e+01
2.330000e-06	2.235739e-06	8.026315e-10	1.556007e+01	5.473232e+01
2.340000e-06	2.278903e-06	8.191864e-10	1.586048e+01	5.569369e+01
2.350000e-06	2.321780e-06	8.387880e-10	1.615889e+01	5.663586e+01
2.360000e-06	2.364502e-06	8.595009e-10	1.645622e+01	5.755919e+01
2.370000e-06	2.406910e-06	8.748601e-10	1.675136e+01	5.846409e+01
2.380000e-06	2.448882e-06	8.837688e-10	1.704348e+01	5.935098e+01
2.390000e-06	2.490642e-06	8.894594e-10	1.733411e+01	6.022032e+01
2.400000e-06	2.532115e-06	8.948406e-10	1.762276e+01	6.107257e+01
2.410000e-06	2.573217e-06	9.034112e-10	1.790882e+01	6.190819e+01
2.420000e-06	2.614062e-06	9.163735e-10	1.819308e+01	6.272768e+01
2.430000e-06	2.654706e-06	9.321642e-10	1.847595e+01	6.353153e+01
2.440000e-06	2.695165e-06	9.477110e-10	1.875754e+01	6.432022e+01
2.450000e-06	2.735428e-06	9.597250e-10	1.903775e+01	6.509424e+01
2.460000e-06	2.775501e-06	9.717470e-10	1.931665e+01	6.585408e+01
2.470000e-06	2.815420e-06	9.825579e-10	1.959448e+01	6.660022e+01
2.480000e-06	2.855219e-06	9.930080e-10	1.987146e+01	6.733313e+01
2.490000e-06	2.894887e-06	1.003827e-09	2.014754e+01	6.805327e+01
2.500000e-06	2.934392e-06	1.013442e-09	2.042248e+01	6.876107e+01
2.510000e-06	2.973789e-06	1.023767e-09	2.069667e+01	6.945697e+01
2.520000e-06	3.012995e-06	1.033408e-09	2.096953e+01	7.014138e+01
2.530000e-06	3.051976e-06	1.041068e-09	2.124083e+01	7.081469e+01
2.540000e-06	3.090733e-06	1.050460e-09	2.151057e+01	7.147727e+01
2.550000e-06	3.129172e-06	1.061769e-09	2.177809e+01	7.212948e+01
2.560000e-06	3.167377e-06	1.073060e-09	2.204399e+01	7.277165e+01
2.570000e-06	3.205367e-06	1.082825e-09	2.230839e+01	7.340409e+01
2.580000e-06	3.243167e-06	1.091258e-09	2.257147e+01	7.402710e+01
2.590000e-06	3.280775e-06	1.099217e-09	2.283320e+01	7.464094e+01
2.600000e-06	3.318162e-06	1.107103e-09	2.309341e+01	7.524587e+01
2.610000e-06	3.355344e-06	1.113955e-09	2.335218e+01	7.584213e+01
2.620000e-06	3.392244e-06	1.120163e-09	2.360900e+01	7.642992e+01
2.630000e-06	3.428969e-06	1.127498e-09	2.386459e+01	7.700944e+01
2.640000e-06	3.465492e-06	1.138306e-09	2.411878e+01	7.758086e+01
2.650000e-06	3.501707e-06	1.150289e-09	2.437082e+01	7.814437e+01
2.660000e-06	3.537744e-06	1.159372e-09	2.462163e+01	7.870009e+01
2.670000e-06	3.573628e-06	1.165354e-09	2.487137e+01	7.924818e+01
2.680000e-06	3.609370e-06	1.172056e-09	2.512012e+01	7.978875e+01
2.690000e-06	3.644965e-06	1.180072e-09	2.536786e+01	8.032192e+01
2.700000e-06	3.680341e-06	1.188484e-09	2.561406e+01	8.084779e+01
2.710000e-06	3.715472e-06	1.196544e-09	2.585857e+01	8.136646e+01
2.720000e-06	3.750371e-06	1.203310e-09	2.610145e+01	8.187802e+01
2.730000e-06	3.784986e-06	1.211162e-09	2.634236e+01	8.238255e+01
2.740000e-06	3.819145e-06	1.218091e-09	2.658009e+01	8.288014e+01
2.750000e-06	3.852743e-06	1.224013e-09	2.681393e+01	8.337085e+01
2.760000e-06	3.885856e-06	1.232112e-09	2.704438e+01	8.385477e+01
2.770000e-06	3.918583e-06	1.242480e-09	2.727215e+01	8.433196e+01
2.780000e-06	3.950965e-06	1.251940e-09	2.749752e+01	8.480249e+01
2.790000e-06	3.983103e-06	1.260092e-09	2.772120e+01	8.526643e+01
2.800000e-06	4.015036e-06	1.267263e-09	2.794344e+01	8.572386e+01
2.810000e-06	4.046742e-06	1.271757e-09	2.816410e+01	8.617484e+01
2.820000e-06	4.078298e-06	1.276536e-09	2.838372e+01	8.661944e+01
2.830000e-06	4.109626e-06	1.282610e-09	2.860176e+01	8.705774e+01
2.840000e-06	4.140664e-06	1.291986e-09	2.881777e+01	8.748980e+01
2.850000e-06	4.171499e-06	1.303451e-09	2.903237e+01	8.791569e+01
2.860000e-06	4.202064e-06	1.312187e-09	2.924509e+01	8.833549e+01
2.870000e-06	4.232286e-06	1.317223e-09	2.945543e+01	8.874927e+01
2.880000e-06	4.262151e-06	1.319614e-09	2.966328e+01	8.915710e+01
2.890000e-06	4.291663e-06	1.325130e-09	2.986868e+01	8.955904e+01
2.900000e-06	4.320955e-06	1.330641e-09	3.007254e+01	8.995517e+01
2.910000e-06	4.350015e-06	1.336564e-09	3.027479e+01	9.034554e+01
