# Temperatura_=_-1.68
# Concentracion g/m^3_=_1620.0
# C_Vs_to_Am_M_A/Vsm_=_65563218390.804596
# pendiente_HvsI_1/m_=_3716.3
# ordenada_HvsI_A/m_=_1297.0
# frecuencia_Hz_=_135107.932362092

Tiempo_(s)	Campo_(V.s)	Magnetizacion_(V.s)	Campo_(kA/m)	Magnetizacion_(A/m)
0.000000e+00	-5.511592e-06	-9.189790e-10	-3.836756e+01	-6.203096e+01
1.000000e-08	-5.511875e-06	-9.154530e-10	-3.836953e+01	-6.202955e+01
2.000000e-08	-5.511867e-06	-9.158019e-10	-3.836947e+01	-6.203109e+01
3.000000e-08	-5.511407e-06	-9.197923e-10	-3.836627e+01	-6.203528e+01
4.000000e-08	-5.510443e-06	-9.185069e-10	-3.835956e+01	-6.204179e+01
5.000000e-08	-5.508907e-06	-9.059756e-10	-3.834887e+01	-6.205027e+01
6.000000e-08	-5.506697e-06	-8.980164e-10	-3.833349e+01	-6.206037e+01
7.000000e-08	-5.503908e-06	-9.256977e-10	-3.831407e+01	-6.207169e+01
8.000000e-08	-5.500634e-06	-9.734826e-10	-3.829128e+01	-6.208384e+01
9.000000e-08	-5.496888e-06	-9.869569e-10	-3.826520e+01	-6.209638e+01
1.000000e-07	-5.492773e-06	-9.542063e-10	-3.823656e+01	-6.210890e+01
1.100000e-07	-5.488454e-06	-8.990708e-10	-3.820649e+01	-6.212097e+01
1.200000e-07	-5.483913e-06	-8.616338e-10	-3.817488e+01	-6.213214e+01
1.300000e-07	-5.479016e-06	-8.999568e-10	-3.814079e+01	-6.214198e+01
1.400000e-07	-5.473729e-06	-9.150862e-10	-3.810399e+01	-6.215005e+01
1.500000e-07	-5.468069e-06	-8.870229e-10	-3.806458e+01	-6.215592e+01
1.600000e-07	-5.462064e-06	-8.677538e-10	-3.802279e+01	-6.215917e+01
1.700000e-07	-5.455653e-06	-9.236104e-10	-3.797816e+01	-6.215939e+01
1.800000e-07	-5.448792e-06	-1.009847e-09	-3.793039e+01	-6.215618e+01
1.900000e-07	-5.441539e-06	-9.546114e-10	-3.787991e+01	-6.214916e+01
2.000000e-07	-5.434018e-06	-9.000631e-10	-3.782755e+01	-6.213796e+01
2.100000e-07	-5.426302e-06	-9.064234e-10	-3.777384e+01	-6.212226e+01
2.200000e-07	-5.418409e-06	-9.819901e-10	-3.771889e+01	-6.210174e+01
2.300000e-07	-5.410168e-06	-9.541834e-10	-3.766152e+01	-6.207609e+01
2.400000e-07	-5.401274e-06	-9.269636e-10	-3.759961e+01	-6.204507e+01
2.500000e-07	-5.391658e-06	-9.457522e-10	-3.753267e+01	-6.200844e+01
2.600000e-07	-5.381430e-06	-9.753559e-10	-3.746147e+01	-6.196600e+01
2.700000e-07	-5.370702e-06	-9.276124e-10	-3.738679e+01	-6.191757e+01
2.800000e-07	-5.359481e-06	-9.105148e-10	-3.730868e+01	-6.186301e+01
2.900000e-07	-5.347858e-06	-9.433865e-10	-3.722777e+01	-6.180221e+01
3.000000e-07	-5.335888e-06	-9.382895e-10	-3.714445e+01	-6.173510e+01
3.100000e-07	-5.323443e-06	-9.023087e-10	-3.705781e+01	-6.166163e+01
3.200000e-07	-5.310548e-06	-9.107640e-10	-3.696805e+01	-6.158179e+01
3.300000e-07	-5.297331e-06	-9.484601e-10	-3.687604e+01	-6.149560e+01
3.400000e-07	-5.283778e-06	-9.252081e-10	-3.678169e+01	-6.140310e+01
3.500000e-07	-5.269768e-06	-9.240990e-10	-3.668416e+01	-6.130438e+01
3.600000e-07	-5.255252e-06	-9.331371e-10	-3.658312e+01	-6.119955e+01
3.700000e-07	-5.240215e-06	-9.354178e-10	-3.647844e+01	-6.108873e+01
3.800000e-07	-5.224649e-06	-9.253661e-10	-3.637008e+01	-6.097208e+01
3.900000e-07	-5.208607e-06	-9.531726e-10	-3.625841e+01	-6.084980e+01
4.000000e-07	-5.192151e-06	-9.308690e-10	-3.614385e+01	-6.072208e+01
4.100000e-07	-5.175419e-06	-9.089678e-10	-3.602737e+01	-6.058914e+01
4.200000e-07	-5.158367e-06	-9.220619e-10	-3.590868e+01	-6.045123e+01
4.300000e-07	-5.140959e-06	-9.382457e-10	-3.578750e+01	-6.030861e+01
4.400000e-07	-5.123198e-06	-9.115504e-10	-3.566385e+01	-6.016153e+01
4.500000e-07	-5.104951e-06	-9.382855e-10	-3.553684e+01	-6.001029e+01
4.600000e-07	-5.086232e-06	-9.463839e-10	-3.540653e+01	-5.985517e+01
4.700000e-07	-5.067183e-06	-9.080674e-10	-3.527392e+01	-5.969645e+01
4.800000e-07	-5.047935e-06	-9.057790e-10	-3.513993e+01	-5.953445e+01
4.900000e-07	-5.028550e-06	-9.541464e-10	-3.500499e+01	-5.936945e+01
5.000000e-07	-5.008966e-06	-9.157578e-10	-3.486866e+01	-5.920174e+01
5.100000e-07	-4.989030e-06	-8.836180e-10	-3.472987e+01	-5.903163e+01
5.200000e-07	-4.968756e-06	-9.192758e-10	-3.458874e+01	-5.885939e+01
5.300000e-07	-4.948237e-06	-9.261070e-10	-3.444591e+01	-5.868531e+01
5.400000e-07	-4.927416e-06	-8.907011e-10	-3.430097e+01	-5.850965e+01
5.500000e-07	-4.906151e-06	-9.151363e-10	-3.415294e+01	-5.833267e+01
5.600000e-07	-4.884433e-06	-9.191999e-10	-3.400175e+01	-5.815460e+01
5.700000e-07	-4.862443e-06	-8.817177e-10	-3.384868e+01	-5.797569e+01
5.800000e-07	-4.840136e-06	-9.010411e-10	-3.369339e+01	-5.779614e+01
5.900000e-07	-4.817456e-06	-9.289669e-10	-3.353551e+01	-5.761615e+01
6.000000e-07	-4.794452e-06	-8.879487e-10	-3.337537e+01	-5.743589e+01
6.100000e-07	-4.771150e-06	-8.730787e-10	-3.321316e+01	-5.725552e+01
6.200000e-07	-4.747663e-06	-8.993623e-10	-3.304966e+01	-5.707517e+01
6.300000e-07	-4.723966e-06	-8.719241e-10	-3.288470e+01	-5.689497e+01
6.400000e-07	-4.699965e-06	-8.565313e-10	-3.271762e+01	-5.671502e+01
6.500000e-07	-4.675537e-06	-8.895412e-10	-3.254758e+01	-5.653537e+01
6.600000e-07	-4.650649e-06	-8.911144e-10	-3.237432e+01	-5.635610e+01
6.700000e-07	-4.625307e-06	-8.659649e-10	-3.219791e+01	-5.617722e+01
6.800000e-07	-4.599400e-06	-8.857408e-10	-3.201757e+01	-5.599877e+01
6.900000e-07	-4.572965e-06	-8.853981e-10	-3.183355e+01	-5.582072e+01
7.000000e-07	-4.546075e-06	-8.591337e-10	-3.164636e+01	-5.564306e+01
7.100000e-07	-4.518797e-06	-8.533719e-10	-3.145647e+01	-5.546573e+01
7.200000e-07	-4.491292e-06	-8.638958e-10	-3.126500e+01	-5.528868e+01
7.300000e-07	-4.463637e-06	-8.474414e-10	-3.107249e+01	-5.511183e+01
7.400000e-07	-4.435771e-06	-8.518327e-10	-3.087851e+01	-5.493508e+01
7.500000e-07	-4.407685e-06	-8.636684e-10	-3.068299e+01	-5.475832e+01
7.600000e-07	-4.379364e-06	-8.561914e-10	-3.048584e+01	-5.458143e+01
7.700000e-07	-4.350722e-06	-8.388614e-10	-3.028645e+01	-5.440428e+01
7.800000e-07	-4.321720e-06	-8.417790e-10	-3.008456e+01	-5.422672e+01
7.900000e-07	-4.292416e-06	-8.342666e-10	-2.988058e+01	-5.404860e+01
8.000000e-07	-4.262881e-06	-8.218450e-10	-2.967498e+01	-5.386974e+01
8.100000e-07	-4.233061e-06	-8.186045e-10	-2.946739e+01	-5.369000e+01
8.200000e-07	-4.202911e-06	-8.218898e-10	-2.925751e+01	-5.350918e+01
8.300000e-07	-4.172443e-06	-8.149682e-10	-2.904541e+01	-5.332711e+01
8.400000e-07	-4.141720e-06	-8.128554e-10	-2.883154e+01	-5.314362e+01
8.500000e-07	-4.110763e-06	-8.106092e-10	-2.861604e+01	-5.295852e+01
8.600000e-07	-4.079572e-06	-8.021928e-10	-2.839891e+01	-5.277162e+01
8.700000e-07	-4.048177e-06	-7.936052e-10	-2.818036e+01	-5.258275e+01
8.800000e-07	-4.016600e-06	-7.936370e-10	-2.796055e+01	-5.239174e+01
8.900000e-07	-3.984849e-06	-7.926402e-10	-2.773953e+01	-5.219840e+01
9.000000e-07	-3.952848e-06	-7.841065e-10	-2.751676e+01	-5.200256e+01
9.100000e-07	-3.920524e-06	-7.808407e-10	-2.729174e+01	-5.180408e+01
9.200000e-07	-3.887746e-06	-7.760384e-10	-2.706357e+01	-5.160278e+01
9.300000e-07	-3.854518e-06	-7.689583e-10	-2.683226e+01	-5.139852e+01
9.400000e-07	-3.820833e-06	-7.651825e-10	-2.659777e+01	-5.119116e+01
9.500000e-07	-3.786631e-06	-7.685978e-10	-2.635968e+01	-5.098056e+01
9.600000e-07	-3.752015e-06	-7.618537e-10	-2.611871e+01	-5.076660e+01
9.700000e-07	-3.717020e-06	-7.544133e-10	-2.587510e+01	-5.054916e+01
9.800000e-07	-3.681737e-06	-7.523493e-10	-2.562949e+01	-5.032815e+01
9.900000e-07	-3.646306e-06	-7.523305e-10	-2.538284e+01	-5.010346e+01
1.000000e-06	-3.610739e-06	-7.450497e-10	-2.513525e+01	-4.987502e+01
1.010000e-06	-3.575013e-06	-7.430237e-10	-2.488655e+01	-4.964274e+01
1.020000e-06	-3.539198e-06	-7.400824e-10	-2.463724e+01	-4.940656e+01
1.030000e-06	-3.503250e-06	-7.328730e-10	-2.438699e+01	-4.916644e+01
1.040000e-06	-3.467086e-06	-7.255848e-10	-2.413525e+01	-4.892231e+01
1.050000e-06	-3.430707e-06	-7.239842e-10	-2.388200e+01	-4.867415e+01
1.060000e-06	-3.394021e-06	-7.164277e-10	-2.362662e+01	-4.842194e+01
1.070000e-06	-3.356910e-06	-7.119200e-10	-2.336828e+01	-4.816564e+01
1.080000e-06	-3.319520e-06	-7.099655e-10	-2.310801e+01	-4.790525e+01
1.090000e-06	-3.281998e-06	-7.068126e-10	-2.284680e+01	-4.764077e+01
1.100000e-06	-3.244303e-06	-6.987978e-10	-2.258440e+01	-4.737220e+01
1.110000e-06	-3.206378e-06	-6.928425e-10	-2.232039e+01	-4.709954e+01
1.120000e-06	-3.168215e-06	-6.876192e-10	-2.205473e+01	-4.682281e+01
1.130000e-06	-3.129875e-06	-6.803660e-10	-2.178784e+01	-4.654202e+01
1.140000e-06	-3.091328e-06	-6.740830e-10	-2.151950e+01	-4.625720e+01
1.150000e-06	-3.052571e-06	-6.730384e-10	-2.124971e+01	-4.596836e+01
1.160000e-06	-3.013582e-06	-6.732315e-10	-2.097829e+01	-4.567553e+01
1.170000e-06	-2.974372e-06	-6.724317e-10	-2.070534e+01	-4.537872e+01
1.180000e-06	-2.935008e-06	-6.719184e-10	-2.043132e+01	-4.507796e+01
1.190000e-06	-2.895504e-06	-6.685093e-10	-2.015632e+01	-4.477327e+01
1.200000e-06	-2.855854e-06	-6.610048e-10	-1.988031e+01	-4.446466e+01
1.210000e-06	-2.816054e-06	-6.517727e-10	-1.960325e+01	-4.415214e+01
1.220000e-06	-2.776163e-06	-6.445894e-10	-1.932556e+01	-4.383571e+01
1.230000e-06	-2.736164e-06	-6.386976e-10	-1.904712e+01	-4.351538e+01
1.240000e-06	-2.695983e-06	-6.356023e-10	-1.876741e+01	-4.319113e+01
1.250000e-06	-2.655561e-06	-6.328518e-10	-1.848602e+01	-4.286295e+01
1.260000e-06	-2.614916e-06	-6.294976e-10	-1.820308e+01	-4.253081e+01
1.270000e-06	-2.573971e-06	-6.227987e-10	-1.791805e+01	-4.219467e+01
1.280000e-06	-2.532665e-06	-6.200746e-10	-1.763051e+01	-4.185447e+01
1.290000e-06	-2.490994e-06	-6.178949e-10	-1.734043e+01	-4.151016e+01
1.300000e-06	-2.448957e-06	-6.136611e-10	-1.704780e+01	-4.116166e+01
1.310000e-06	-2.406640e-06	-6.060368e-10	-1.675322e+01	-4.080888e+01
1.320000e-06	-2.364000e-06	-5.981310e-10	-1.645639e+01	-4.045170e+01
1.330000e-06	-2.321139e-06	-5.896273e-10	-1.615803e+01	-4.009002e+01
1.340000e-06	-2.278117e-06	-5.832579e-10	-1.585854e+01	-3.972369e+01
1.350000e-06	-2.234914e-06	-5.775645e-10	-1.555779e+01	-3.935255e+01
1.360000e-06	-2.191632e-06	-5.727344e-10	-1.525650e+01	-3.897644e+01
1.370000e-06	-2.148233e-06	-5.699924e-10	-1.495438e+01	-3.859516e+01
1.380000e-06	-2.104677e-06	-5.706880e-10	-1.465118e+01	-3.820852e+01
1.390000e-06	-2.061049e-06	-5.680006e-10	-1.434748e+01	-3.781627e+01
1.400000e-06	-2.017388e-06	-5.596368e-10	-1.404354e+01	-3.741819e+01
1.410000e-06	-1.973637e-06	-5.489592e-10	-1.373898e+01	-3.701401e+01
1.420000e-06	-1.929736e-06	-5.413403e-10	-1.343337e+01	-3.660346e+01
1.430000e-06	-1.885796e-06	-5.354480e-10	-1.312750e+01	-3.618624e+01
1.440000e-06	-1.841865e-06	-5.291355e-10	-1.282168e+01	-3.576204e+01
1.450000e-06	-1.797831e-06	-5.233769e-10	-1.251515e+01	-3.533053e+01
1.460000e-06	-1.753631e-06	-5.168734e-10	-1.220746e+01	-3.489138e+01
1.470000e-06	-1.709208e-06	-5.098060e-10	-1.189823e+01	-3.444423e+01
1.480000e-06	-1.664599e-06	-5.018839e-10	-1.158769e+01	-3.398872e+01
1.490000e-06	-1.619867e-06	-4.944087e-10	-1.127630e+01	-3.352446e+01
1.500000e-06	-1.574996e-06	-4.869685e-10	-1.096394e+01	-3.305107e+01
1.510000e-06	-1.529988e-06	-4.780084e-10	-1.065063e+01	-3.256815e+01
1.520000e-06	-1.484823e-06	-4.666691e-10	-1.033623e+01	-3.207529e+01
1.530000e-06	-1.439602e-06	-4.545630e-10	-1.002143e+01	-3.157208e+01
1.540000e-06	-1.394365e-06	-4.425882e-10	-9.706523e+00	-3.105812e+01
1.550000e-06	-1.349013e-06	-4.318555e-10	-9.390815e+00	-3.053298e+01
1.560000e-06	-1.303555e-06	-4.248528e-10	-9.074369e+00	-2.999625e+01
1.570000e-06	-1.258024e-06	-4.204808e-10	-8.757418e+00	-2.944751e+01
1.580000e-06	-1.212413e-06	-4.147637e-10	-8.439911e+00	-2.888637e+01
1.590000e-06	-1.166764e-06	-4.098541e-10	-8.122135e+00	-2.831242e+01
1.600000e-06	-1.121010e-06	-4.010483e-10	-7.803627e+00	-2.772526e+01
1.610000e-06	-1.075115e-06	-3.878352e-10	-7.484143e+00	-2.712451e+01
1.620000e-06	-1.029126e-06	-3.759159e-10	-7.163999e+00	-2.650982e+01
1.630000e-06	-9.830030e-07	-3.696930e-10	-6.842928e+00	-2.588083e+01
1.640000e-06	-9.368785e-07	-3.656793e-10	-6.521844e+00	-2.523722e+01
1.650000e-06	-8.908042e-07	-3.576882e-10	-6.201110e+00	-2.457866e+01
1.660000e-06	-8.446480e-07	-3.488445e-10	-5.879805e+00	-2.390489e+01
1.670000e-06	-7.983459e-07	-3.378431e-10	-5.557484e+00	-2.321563e+01
1.680000e-06	-7.519298e-07	-3.244293e-10	-5.234370e+00	-2.251067e+01
1.690000e-06	-7.054456e-07	-3.125274e-10	-4.910782e+00	-2.178979e+01
1.700000e-06	-6.590264e-07	-3.022990e-10	-4.587646e+00	-2.105284e+01
1.710000e-06	-6.126282e-07	-2.930776e-10	-4.264657e+00	-2.029968e+01
1.720000e-06	-5.661064e-07	-2.809191e-10	-3.940807e+00	-1.953021e+01
1.730000e-06	-5.195034e-07	-2.657040e-10	-3.616392e+00	-1.874438e+01
1.740000e-06	-4.728572e-07	-2.494625e-10	-3.291676e+00	-1.794217e+01
1.750000e-06	-4.262247e-07	-2.355575e-10	-2.967056e+00	-1.712360e+01
1.760000e-06	-3.795616e-07	-2.237106e-10	-2.642223e+00	-1.628875e+01
1.770000e-06	-3.328230e-07	-2.138221e-10	-2.316864e+00	-1.543772e+01
1.780000e-06	-2.860443e-07	-2.055064e-10	-1.991225e+00	-1.457067e+01
1.790000e-06	-2.392454e-07	-1.957382e-10	-1.665446e+00	-1.368779e+01
1.800000e-06	-1.924722e-07	-1.822886e-10	-1.339847e+00	-1.278933e+01
1.810000e-06	-1.457224e-07	-1.669269e-10	-1.014410e+00	-1.187558e+01
1.820000e-06	-9.899019e-08	-1.529719e-10	-6.890953e-01	-1.094688e+01
1.830000e-06	-5.226902e-08	-1.414639e-10	-3.638576e-01	-1.000361e+01
1.840000e-06	-5.487172e-09	-1.300938e-10	-3.819757e-02	-9.046199e+00
1.850000e-06	4.126769e-08	-1.164156e-10	2.872746e-01	-8.075109e+00
1.860000e-06	8.796456e-08	-1.043934e-10	6.123432e-01	-7.090857e+00
1.870000e-06	1.347309e-07	-9.288875e-11	9.378950e-01	-6.093996e+00
1.880000e-06	1.814851e-07	-7.893461e-11	1.263363e+00	-5.085121e+00
1.890000e-06	2.281928e-07	-6.345155e-11	1.588507e+00	-4.064866e+00
1.900000e-06	2.749019e-07	-4.864172e-11	1.913660e+00	-3.033898e+00
1.910000e-06	3.215778e-07	-3.408729e-11	2.238583e+00	-1.992923e+00
1.920000e-06	3.682643e-07	-1.883473e-11	2.563579e+00	-9.426756e-01
1.930000e-06	4.149424e-07	-4.033606e-12	2.888517e+00	1.160781e-01
1.940000e-06	4.615610e-07	1.150685e-11	3.213041e+00	1.182546e+00
1.950000e-06	5.081380e-07	2.692579e-11	3.537275e+00	2.255910e+00
1.960000e-06	5.546653e-07	4.121656e-11	3.861163e+00	3.335332e+00
1.970000e-06	6.010659e-07	5.444200e-11	4.184169e+00	4.419956e+00
1.980000e-06	6.474063e-07	6.780915e-11	4.506756e+00	5.508909e+00
1.990000e-06	6.937382e-07	8.399912e-11	4.829284e+00	6.601306e+00
2.000000e-06	7.399803e-07	9.809347e-11	5.151186e+00	7.696255e+00
2.010000e-06	7.862708e-07	1.144222e-10	5.473426e+00	8.792855e+00
2.020000e-06	8.325927e-07	1.343284e-10	5.795884e+00	9.890205e+00
2.030000e-06	8.787880e-07	1.547940e-10	6.117462e+00	1.098740e+01
2.040000e-06	9.248913e-07	1.719235e-10	6.438398e+00	1.208355e+01
2.050000e-06	9.709195e-07	1.849159e-10	6.758812e+00	1.317776e+01
2.060000e-06	1.016819e-06	1.958554e-10	7.078330e+00	1.426915e+01
2.070000e-06	1.062612e-06	2.068659e-10	7.397109e+00	1.535684e+01
2.080000e-06	1.108337e-06	2.211026e-10	7.715413e+00	1.644000e+01
2.090000e-06	1.153962e-06	2.388445e-10	8.033019e+00	1.751777e+01
2.100000e-06	1.199599e-06	2.592163e-10	8.350704e+00	1.858935e+01
2.110000e-06	1.245224e-06	2.774465e-10	8.668317e+00	1.965396e+01
2.120000e-06	1.290739e-06	2.931222e-10	8.985158e+00	2.071081e+01
2.130000e-06	1.336184e-06	3.077416e-10	9.301507e+00	2.175918e+01
2.140000e-06	1.381539e-06	3.216356e-10	9.617238e+00	2.279835e+01
2.150000e-06	1.426720e-06	3.349506e-10	9.931755e+00	2.382765e+01
2.160000e-06	1.471719e-06	3.501609e-10	1.024500e+01	2.484644e+01
2.170000e-06	1.516685e-06	3.671120e-10	1.055802e+01	2.585409e+01
2.180000e-06	1.561540e-06	3.864901e-10	1.087027e+01	2.685002e+01
2.190000e-06	1.606256e-06	4.018628e-10	1.118155e+01	2.783371e+01
2.200000e-06	1.650868e-06	4.137303e-10	1.149211e+01	2.880463e+01
2.210000e-06	1.695321e-06	4.261310e-10	1.180155e+01	2.976232e+01
2.220000e-06	1.739625e-06	4.391954e-10	1.210996e+01	3.070634e+01
2.230000e-06	1.783857e-06	4.542545e-10	1.241787e+01	3.163629e+01
2.240000e-06	1.827989e-06	4.680144e-10	1.272508e+01	3.255181e+01
2.250000e-06	1.871908e-06	4.814532e-10	1.303082e+01	3.345256e+01
2.260000e-06	1.915685e-06	4.946182e-10	1.333556e+01	3.433826e+01
2.270000e-06	1.959437e-06	5.106187e-10	1.364013e+01	3.520863e+01
2.280000e-06	2.003169e-06	5.246033e-10	1.394455e+01	3.606346e+01
2.290000e-06	2.046782e-06	5.360201e-10	1.424816e+01	3.690256e+01
2.300000e-06	2.090316e-06	5.474125e-10	1.455121e+01	3.772574e+01
2.310000e-06	2.133847e-06	5.585344e-10	1.485424e+01	3.853288e+01
2.320000e-06	2.177329e-06	5.708510e-10	1.515693e+01	3.932388e+01
2.330000e-06	2.220686e-06	5.836828e-10	1.545875e+01	4.009865e+01
2.340000e-06	2.263904e-06	5.970202e-10	1.575960e+01	4.085713e+01
2.350000e-06	2.306940e-06	6.122375e-10	1.605918e+01	4.159931e+01
2.360000e-06	2.349739e-06	6.282038e-10	1.635712e+01	4.232516e+01
2.370000e-06	2.392277e-06	6.389978e-10	1.665324e+01	4.303470e+01
2.380000e-06	2.434509e-06	6.458495e-10	1.694722e+01	4.372796e+01
2.390000e-06	2.476485e-06	6.516231e-10	1.723943e+01	4.440501e+01
2.400000e-06	2.518193e-06	6.563869e-10	1.752976e+01	4.506589e+01
2.410000e-06	2.559596e-06	6.612647e-10	1.781798e+01	4.571070e+01
2.420000e-06	2.600659e-06	6.697277e-10	1.810384e+01	4.633953e+01
2.430000e-06	2.641419e-06	6.842907e-10	1.838757e+01	4.695249e+01
2.440000e-06	2.681948e-06	6.998704e-10	1.866970e+01	4.754971e+01
2.450000e-06	2.722200e-06	7.101890e-10	1.894991e+01	4.813132e+01
2.460000e-06	2.762262e-06	7.188685e-10	1.922879e+01	4.869745e+01
2.470000e-06	2.802175e-06	7.257400e-10	1.950664e+01	4.924827e+01
2.480000e-06	2.841921e-06	7.299234e-10	1.978332e+01	4.978394e+01
2.490000e-06	2.881568e-06	7.323839e-10	2.005931e+01	5.030462e+01
2.500000e-06	2.921082e-06	7.351144e-10	2.033438e+01	5.081049e+01
2.510000e-06	2.960416e-06	7.419908e-10	2.060819e+01	5.130174e+01
2.520000e-06	2.999610e-06	7.542463e-10	2.088103e+01	5.177855e+01
2.530000e-06	3.038666e-06	7.669111e-10	2.115291e+01	5.224112e+01
2.540000e-06	3.077520e-06	7.756273e-10	2.142338e+01	5.268966e+01
2.550000e-06	3.116108e-06	7.809057e-10	2.169200e+01	5.312437e+01
2.560000e-06	3.154431e-06	7.841196e-10	2.195877e+01	5.354547e+01
2.570000e-06	3.192495e-06	7.847644e-10	2.222375e+01	5.395319e+01
2.580000e-06	3.230338e-06	7.856830e-10	2.248719e+01	5.434775e+01
2.590000e-06	3.268055e-06	7.890458e-10	2.274974e+01	5.472938e+01
2.600000e-06	3.305599e-06	7.965702e-10	2.301110e+01	5.509834e+01
2.610000e-06	3.342873e-06	8.040571e-10	2.327057e+01	5.545486e+01
2.620000e-06	3.379939e-06	8.097659e-10	2.352860e+01	5.579921e+01
2.630000e-06	3.416784e-06	8.138844e-10	2.378508e+01	5.613165e+01
2.640000e-06	3.453302e-06	8.153619e-10	2.403929e+01	5.645245e+01
2.650000e-06	3.489505e-06	8.168092e-10	2.429131e+01	5.676188e+01
2.660000e-06	3.525446e-06	8.190641e-10	2.454150e+01	5.706023e+01
2.670000e-06	3.561228e-06	8.228706e-10	2.479060e+01	5.734779e+01
2.680000e-06	3.596914e-06	8.261734e-10	2.503901e+01	5.762486e+01
2.690000e-06	3.632511e-06	8.318793e-10	2.528681e+01	5.789175e+01
2.700000e-06	3.668016e-06	8.360121e-10	2.553397e+01	5.814876e+01
2.710000e-06	3.703303e-06	8.377094e-10	2.577961e+01	5.839622e+01
2.720000e-06	3.738272e-06	8.400744e-10	2.602304e+01	5.863444e+01
2.730000e-06	3.772908e-06	8.430362e-10	2.626415e+01	5.886375e+01
2.740000e-06	3.807172e-06	8.469240e-10	2.650267e+01	5.908449e+01
2.750000e-06	3.840965e-06	8.518214e-10	2.673791e+01	5.929699e+01
2.760000e-06	3.874260e-06	8.559564e-10	2.696969e+01	5.950159e+01
2.770000e-06	3.907249e-06	8.614493e-10	2.719933e+01	5.969862e+01
2.780000e-06	3.939866e-06	8.665514e-10	2.742639e+01	5.988842e+01
2.790000e-06	3.972052e-06	8.694874e-10	2.765044e+01	6.007132e+01
2.800000e-06	4.003980e-06	8.707374e-10	2.787270e+01	6.024767e+01
2.810000e-06	4.035700e-06	8.715796e-10	2.809351e+01	6.041780e+01
2.820000e-06	4.067237e-06	8.747423e-10	2.831304e+01	6.058202e+01
2.830000e-06	4.098643e-06	8.806470e-10	2.853167e+01	6.074067e+01
2.840000e-06	4.129893e-06	8.886230e-10	2.874921e+01	6.089404e+01
2.850000e-06	4.160829e-06	8.989812e-10	2.896457e+01	6.104244e+01
2.860000e-06	4.191359e-06	9.058132e-10	2.917709e+01	6.118617e+01
2.870000e-06	4.221554e-06	9.053802e-10	2.938728e+01	6.132549e+01
2.880000e-06	4.251499e-06	9.037215e-10	2.959574e+01	6.146068e+01
2.890000e-06	4.281152e-06	9.030619e-10	2.980216e+01	6.159198e+01
2.900000e-06	4.310479e-06	9.047842e-10	3.000631e+01	6.171963e+01
