# Temperatura_=_-1.0
# Concentracion g/m^3_=_1620.0
# C_Vs_to_Am_M_A/Vsm_=_65563218390.804596
# pendiente_HvsI_1/m_=_3716.3
# ordenada_HvsI_A/m_=_1297.0
# frecuencia_Hz_=_135105.68048029815

Tiempo_(s)	Campo_(V.s)	Magnetizacion_(V.s)	Campo_(kA/m)	Magnetizacion_(A/m)
0.000000e+00	-5.508246e-06	-1.110816e-09	-3.837011e+01	-7.425962e+01
1.000000e-08	-5.508265e-06	-1.106321e-09	-3.837024e+01	-7.421733e+01
2.000000e-08	-5.508031e-06	-1.104471e-09	-3.836861e+01	-7.417458e+01
3.000000e-08	-5.507434e-06	-1.102072e-09	-3.836446e+01	-7.413134e+01
4.000000e-08	-5.506305e-06	-1.096149e-09	-3.835659e+01	-7.408754e+01
5.000000e-08	-5.504704e-06	-1.083965e-09	-3.834544e+01	-7.404313e+01
6.000000e-08	-5.502587e-06	-1.089038e-09	-3.833069e+01	-7.399803e+01
7.000000e-08	-5.499894e-06	-1.130021e-09	-3.831193e+01	-7.395216e+01
8.000000e-08	-5.496636e-06	-1.130512e-09	-3.828924e+01	-7.390540e+01
9.000000e-08	-5.492882e-06	-1.105667e-09	-3.826308e+01	-7.385765e+01
1.000000e-07	-5.488771e-06	-1.172342e-09	-3.823445e+01	-7.380878e+01
1.100000e-07	-5.484337e-06	-1.176220e-09	-3.820356e+01	-7.375868e+01
1.200000e-07	-5.479623e-06	-1.045602e-09	-3.817072e+01	-7.370719e+01
1.300000e-07	-5.474699e-06	-1.013119e-09	-3.813642e+01	-7.365417e+01
1.400000e-07	-5.469377e-06	-1.093263e-09	-3.809935e+01	-7.359948e+01
1.500000e-07	-5.463595e-06	-1.190727e-09	-3.805907e+01	-7.354295e+01
1.600000e-07	-5.457436e-06	-1.069154e-09	-3.801617e+01	-7.348443e+01
1.700000e-07	-5.450973e-06	-1.046313e-09	-3.797115e+01	-7.342377e+01
1.800000e-07	-5.444132e-06	-1.144708e-09	-3.792349e+01	-7.336079e+01
1.900000e-07	-5.436825e-06	-1.189349e-09	-3.787260e+01	-7.329534e+01
2.000000e-07	-5.429222e-06	-1.084191e-09	-3.781963e+01	-7.322728e+01
2.100000e-07	-5.421415e-06	-1.043428e-09	-3.776525e+01	-7.315643e+01
2.200000e-07	-5.413350e-06	-1.144270e-09	-3.770907e+01	-7.308265e+01
2.300000e-07	-5.404888e-06	-1.189868e-09	-3.765013e+01	-7.300581e+01
2.400000e-07	-5.395919e-06	-1.137089e-09	-3.758765e+01	-7.292576e+01
2.500000e-07	-5.386427e-06	-1.071809e-09	-3.752153e+01	-7.284238e+01
2.600000e-07	-5.376240e-06	-1.106470e-09	-3.745056e+01	-7.275555e+01
2.700000e-07	-5.365383e-06	-1.104462e-09	-3.737494e+01	-7.266516e+01
2.800000e-07	-5.354111e-06	-1.094913e-09	-3.729641e+01	-7.257111e+01
2.900000e-07	-5.342455e-06	-1.066078e-09	-3.721522e+01	-7.247331e+01
3.000000e-07	-5.330391e-06	-1.091065e-09	-3.713118e+01	-7.237169e+01
3.100000e-07	-5.317931e-06	-1.090733e-09	-3.704439e+01	-7.226618e+01
3.200000e-07	-5.305136e-06	-1.091847e-09	-3.695526e+01	-7.215672e+01
3.300000e-07	-5.291926e-06	-1.039543e-09	-3.686324e+01	-7.204329e+01
3.400000e-07	-5.278244e-06	-1.059073e-09	-3.676793e+01	-7.192585e+01
3.500000e-07	-5.264176e-06	-1.094658e-09	-3.666993e+01	-7.180438e+01
3.600000e-07	-5.249705e-06	-1.068246e-09	-3.656913e+01	-7.167889e+01
3.700000e-07	-5.234723e-06	-1.024607e-09	-3.646476e+01	-7.154937e+01
3.800000e-07	-5.219333e-06	-1.098298e-09	-3.635756e+01	-7.141586e+01
3.900000e-07	-5.203363e-06	-1.095271e-09	-3.624631e+01	-7.127838e+01
4.000000e-07	-5.186682e-06	-9.974753e-10	-3.613011e+01	-7.113698e+01
4.100000e-07	-5.169807e-06	-1.043244e-09	-3.601257e+01	-7.099169e+01
4.200000e-07	-5.152793e-06	-1.136166e-09	-3.589405e+01	-7.084259e+01
4.300000e-07	-5.135430e-06	-1.027008e-09	-3.577310e+01	-7.068975e+01
4.400000e-07	-5.117667e-06	-9.787931e-10	-3.564936e+01	-7.053323e+01
4.500000e-07	-5.099420e-06	-1.128507e-09	-3.552225e+01	-7.037312e+01
4.600000e-07	-5.080814e-06	-1.089598e-09	-3.539264e+01	-7.020952e+01
4.700000e-07	-5.061861e-06	-9.504631e-10	-3.526062e+01	-7.004250e+01
4.800000e-07	-5.042599e-06	-1.057787e-09	-3.512644e+01	-6.987217e+01
4.900000e-07	-5.023099e-06	-1.135511e-09	-3.499061e+01	-6.969862e+01
5.000000e-07	-5.003287e-06	-9.747298e-10	-3.485260e+01	-6.952196e+01
5.100000e-07	-4.983203e-06	-9.986164e-10	-3.471270e+01	-6.934229e+01
5.200000e-07	-4.962933e-06	-1.126668e-09	-3.457149e+01	-6.915971e+01
5.300000e-07	-4.942362e-06	-1.020811e-09	-3.442820e+01	-6.897433e+01
5.400000e-07	-4.921342e-06	-9.573067e-10	-3.428177e+01	-6.878623e+01
5.500000e-07	-4.899931e-06	-1.105096e-09	-3.413263e+01	-6.859551e+01
5.600000e-07	-4.878171e-06	-1.056618e-09	-3.398105e+01	-6.840227e+01
5.700000e-07	-4.856044e-06	-9.393844e-10	-3.382691e+01	-6.820661e+01
5.800000e-07	-4.833591e-06	-1.042400e-09	-3.367050e+01	-6.800859e+01
5.900000e-07	-4.810851e-06	-1.086191e-09	-3.351210e+01	-6.780830e+01
6.000000e-07	-4.787744e-06	-9.590186e-10	-3.335114e+01	-6.760582e+01
6.100000e-07	-4.764307e-06	-9.968184e-10	-3.318787e+01	-6.740122e+01
6.200000e-07	-4.740646e-06	-1.060725e-09	-3.302306e+01	-6.719454e+01
6.300000e-07	-4.716765e-06	-9.732041e-10	-3.285670e+01	-6.698586e+01
6.400000e-07	-4.692643e-06	-9.604409e-10	-3.268867e+01	-6.677521e+01
6.500000e-07	-4.668255e-06	-1.035875e-09	-3.251878e+01	-6.656263e+01
6.600000e-07	-4.643400e-06	-9.855455e-10	-3.234564e+01	-6.634817e+01
6.700000e-07	-4.617965e-06	-9.570600e-10	-3.216847e+01	-6.613184e+01
6.800000e-07	-4.592004e-06	-1.017798e-09	-3.198762e+01	-6.591367e+01
6.900000e-07	-4.565542e-06	-1.001411e-09	-3.180329e+01	-6.569367e+01
7.000000e-07	-4.538622e-06	-9.558061e-10	-3.161577e+01	-6.547184e+01
7.100000e-07	-4.511287e-06	-9.922402e-10	-3.142535e+01	-6.524819e+01
7.200000e-07	-4.483750e-06	-9.952387e-10	-3.123353e+01	-6.502271e+01
7.300000e-07	-4.456024e-06	-9.555068e-10	-3.104039e+01	-6.479538e+01
7.400000e-07	-4.428024e-06	-9.734695e-10	-3.084535e+01	-6.456618e+01
7.500000e-07	-4.399811e-06	-9.835938e-10	-3.064882e+01	-6.433511e+01
7.600000e-07	-4.371376e-06	-9.515036e-10	-3.045074e+01	-6.410211e+01
7.700000e-07	-4.342744e-06	-9.530929e-10	-3.025129e+01	-6.386717e+01
7.800000e-07	-4.313807e-06	-9.686407e-10	-3.004972e+01	-6.363025e+01
7.900000e-07	-4.284478e-06	-9.436055e-10	-2.984542e+01	-6.339130e+01
8.000000e-07	-4.254789e-06	-9.417175e-10	-2.963861e+01	-6.315028e+01
8.100000e-07	-4.224836e-06	-9.597057e-10	-2.942995e+01	-6.290715e+01
8.200000e-07	-4.194659e-06	-9.449788e-10	-2.921974e+01	-6.266185e+01
8.300000e-07	-4.164167e-06	-9.243095e-10	-2.900734e+01	-6.241434e+01
8.400000e-07	-4.133409e-06	-9.416565e-10	-2.879307e+01	-6.216456e+01
8.500000e-07	-4.102316e-06	-9.338524e-10	-2.857649e+01	-6.191246e+01
8.600000e-07	-4.070853e-06	-9.112848e-10	-2.835732e+01	-6.165797e+01
8.700000e-07	-4.039219e-06	-9.192339e-10	-2.813696e+01	-6.140106e+01
8.800000e-07	-4.007483e-06	-9.317018e-10	-2.791588e+01	-6.114165e+01
8.900000e-07	-3.975606e-06	-9.115261e-10	-2.769383e+01	-6.087969e+01
9.000000e-07	-3.943529e-06	-9.081141e-10	-2.747038e+01	-6.061512e+01
9.100000e-07	-3.911176e-06	-9.168284e-10	-2.724502e+01	-6.034788e+01
9.200000e-07	-3.878465e-06	-9.022584e-10	-2.701715e+01	-6.007792e+01
9.300000e-07	-3.845274e-06	-8.883244e-10	-2.678595e+01	-5.980518e+01
9.400000e-07	-3.811640e-06	-9.021773e-10	-2.655165e+01	-5.952959e+01
9.500000e-07	-3.777618e-06	-8.967165e-10	-2.631466e+01	-5.925111e+01
9.600000e-07	-3.743091e-06	-8.747319e-10	-2.607414e+01	-5.896968e+01
9.700000e-07	-3.708151e-06	-8.735534e-10	-2.583075e+01	-5.868523e+01
9.800000e-07	-3.672991e-06	-8.762894e-10	-2.558583e+01	-5.839771e+01
9.900000e-07	-3.637607e-06	-8.615845e-10	-2.533935e+01	-5.810707e+01
1.000000e-06	-3.601987e-06	-8.578063e-10	-2.509122e+01	-5.781325e+01
1.010000e-06	-3.566183e-06	-8.676116e-10	-2.484181e+01	-5.751619e+01
1.020000e-06	-3.530208e-06	-8.636235e-10	-2.459122e+01	-5.721584e+01
1.030000e-06	-3.494060e-06	-8.554672e-10	-2.433941e+01	-5.691214e+01
1.040000e-06	-3.457769e-06	-8.555315e-10	-2.408661e+01	-5.660505e+01
1.050000e-06	-3.421276e-06	-8.472572e-10	-2.383240e+01	-5.629449e+01
1.060000e-06	-3.384480e-06	-8.306308e-10	-2.357609e+01	-5.598042e+01
1.070000e-06	-3.347454e-06	-8.272621e-10	-2.331816e+01	-5.566279e+01
1.080000e-06	-3.310205e-06	-8.256805e-10	-2.305869e+01	-5.534153e+01
1.090000e-06	-3.272694e-06	-8.172013e-10	-2.279739e+01	-5.501658e+01
1.100000e-06	-3.234914e-06	-8.138835e-10	-2.253422e+01	-5.468791e+01
1.110000e-06	-3.196926e-06	-8.153339e-10	-2.226959e+01	-5.435543e+01
1.120000e-06	-3.158813e-06	-8.052007e-10	-2.200410e+01	-5.401910e+01
1.130000e-06	-3.120452e-06	-7.956498e-10	-2.173688e+01	-5.367886e+01
1.140000e-06	-3.081825e-06	-7.918788e-10	-2.146781e+01	-5.333465e+01
1.150000e-06	-3.042924e-06	-7.863961e-10	-2.119682e+01	-5.298640e+01
1.160000e-06	-3.003750e-06	-7.772266e-10	-2.092394e+01	-5.263405e+01
1.170000e-06	-2.964498e-06	-7.751830e-10	-2.065051e+01	-5.227754e+01
1.180000e-06	-2.925159e-06	-7.720841e-10	-2.037648e+01	-5.191680e+01
1.190000e-06	-2.885644e-06	-7.644286e-10	-2.010122e+01	-5.155177e+01
1.200000e-06	-2.845993e-06	-7.590684e-10	-1.982501e+01	-5.118236e+01
1.210000e-06	-2.806213e-06	-7.571603e-10	-1.954791e+01	-5.080852e+01
1.220000e-06	-2.766270e-06	-7.503273e-10	-1.926967e+01	-5.043016e+01
1.230000e-06	-2.726142e-06	-7.436621e-10	-1.899014e+01	-5.004721e+01
1.240000e-06	-2.685906e-06	-7.367314e-10	-1.870986e+01	-4.965958e+01
1.250000e-06	-2.645458e-06	-7.262979e-10	-1.842810e+01	-4.926719e+01
1.260000e-06	-2.604707e-06	-7.150581e-10	-1.814423e+01	-4.886995e+01
1.270000e-06	-2.563803e-06	-7.072332e-10	-1.785929e+01	-4.846775e+01
1.280000e-06	-2.522631e-06	-7.034253e-10	-1.757250e+01	-4.806051e+01
1.290000e-06	-2.481070e-06	-7.007271e-10	-1.728299e+01	-4.764812e+01
1.300000e-06	-2.439181e-06	-6.952736e-10	-1.699119e+01	-4.723045e+01
1.310000e-06	-2.396961e-06	-6.854666e-10	-1.669708e+01	-4.680741e+01
1.320000e-06	-2.354404e-06	-6.739662e-10	-1.640064e+01	-4.637885e+01
1.330000e-06	-2.311653e-06	-6.639370e-10	-1.610284e+01	-4.594464e+01
1.340000e-06	-2.268813e-06	-6.556210e-10	-1.580442e+01	-4.550465e+01
1.350000e-06	-2.225790e-06	-6.490058e-10	-1.550472e+01	-4.505872e+01
1.360000e-06	-2.182498e-06	-6.429195e-10	-1.520315e+01	-4.460669e+01
1.370000e-06	-2.139028e-06	-6.384927e-10	-1.490034e+01	-4.414839e+01
1.380000e-06	-2.095541e-06	-6.351599e-10	-1.459741e+01	-4.368364e+01
1.390000e-06	-2.051960e-06	-6.284168e-10	-1.429383e+01	-4.321224e+01
1.400000e-06	-2.008209e-06	-6.193210e-10	-1.398906e+01	-4.273399e+01
1.410000e-06	-1.964374e-06	-6.098097e-10	-1.368371e+01	-4.224867e+01
1.420000e-06	-1.920476e-06	-6.027036e-10	-1.337792e+01	-4.175605e+01
1.430000e-06	-1.876503e-06	-5.968916e-10	-1.307161e+01	-4.125589e+01
1.440000e-06	-1.832453e-06	-5.904437e-10	-1.276476e+01	-4.074794e+01
1.450000e-06	-1.788250e-06	-5.833885e-10	-1.245684e+01	-4.023191e+01
1.460000e-06	-1.743870e-06	-5.754165e-10	-1.214770e+01	-3.970754e+01
1.470000e-06	-1.699397e-06	-5.631602e-10	-1.183790e+01	-3.917453e+01
1.480000e-06	-1.654868e-06	-5.512452e-10	-1.152771e+01	-3.863256e+01
1.490000e-06	-1.610243e-06	-5.430784e-10	-1.121685e+01	-3.808132e+01
1.500000e-06	-1.565470e-06	-5.377423e-10	-1.090497e+01	-3.752047e+01
1.510000e-06	-1.520520e-06	-5.336878e-10	-1.059185e+01	-3.694966e+01
1.520000e-06	-1.475411e-06	-5.305020e-10	-1.027763e+01	-3.636854e+01
1.530000e-06	-1.430253e-06	-5.221221e-10	-9.963055e+00	-3.577674e+01
1.540000e-06	-1.385075e-06	-5.096612e-10	-9.648351e+00	-3.517388e+01
1.550000e-06	-1.339805e-06	-4.956081e-10	-9.333000e+00	-3.455958e+01
1.560000e-06	-1.294437e-06	-4.830810e-10	-9.016970e+00	-3.393344e+01
1.570000e-06	-1.248997e-06	-4.715220e-10	-8.700436e+00	-3.329507e+01
1.580000e-06	-1.203385e-06	-4.627177e-10	-8.382706e+00	-3.264406e+01
1.590000e-06	-1.157652e-06	-4.560315e-10	-8.064135e+00	-3.198002e+01
1.600000e-06	-1.111845e-06	-4.482973e-10	-7.745048e+00	-3.130255e+01
1.610000e-06	-1.065942e-06	-4.369026e-10	-7.425289e+00	-3.061123e+01
1.620000e-06	-1.020032e-06	-4.257955e-10	-7.105484e+00	-2.990567e+01
1.630000e-06	-9.740009e-07	-4.187243e-10	-6.784831e+00	-2.918549e+01
1.640000e-06	-9.278909e-07	-4.085478e-10	-6.463632e+00	-2.845031e+01
1.650000e-06	-8.817426e-07	-3.946390e-10	-6.142166e+00	-2.769975e+01
1.660000e-06	-8.355003e-07	-3.807912e-10	-5.820045e+00	-2.693347e+01
1.670000e-06	-7.892478e-07	-3.662103e-10	-5.497852e+00	-2.615112e+01
1.680000e-06	-7.430264e-07	-3.500040e-10	-5.175877e+00	-2.535240e+01
1.690000e-06	-6.967245e-07	-3.352979e-10	-4.853341e+00	-2.453701e+01
1.700000e-06	-6.503429e-07	-3.226503e-10	-4.530250e+00	-2.370468e+01
1.710000e-06	-6.039169e-07	-3.127721e-10	-4.206849e+00	-2.285517e+01
1.720000e-06	-5.574949e-07	-2.997590e-10	-3.883476e+00	-2.198828e+01
1.730000e-06	-5.110209e-07	-2.818085e-10	-3.559741e+00	-2.110384e+01
1.740000e-06	-4.643711e-07	-2.624508e-10	-3.234781e+00	-2.020170e+01
1.750000e-06	-4.176813e-07	-2.463131e-10	-2.909543e+00	-1.928178e+01
1.760000e-06	-3.709896e-07	-2.328087e-10	-2.584291e+00	-1.834402e+01
1.770000e-06	-3.242381e-07	-2.216435e-10	-2.258623e+00	-1.738841e+01
1.780000e-06	-2.775508e-07	-2.121294e-10	-1.933402e+00	-1.641500e+01
1.790000e-06	-2.309065e-07	-2.003628e-10	-1.608481e+00	-1.542385e+01
1.800000e-06	-1.842854e-07	-1.847437e-10	-1.283721e+00	-1.441512e+01
1.810000e-06	-1.376545e-07	-1.684009e-10	-9.588931e-01	-1.338899e+01
1.820000e-06	-9.089470e-08	-1.522908e-10	-6.331670e-01	-1.234570e+01
1.830000e-06	-4.411971e-08	-1.391350e-10	-3.073353e-01	-1.128554e+01
1.840000e-06	2.624134e-09	-1.277912e-10	1.827956e-02	-1.020888e+01
1.850000e-06	4.931294e-08	-1.141821e-10	3.435110e-01	-9.116107e+00
1.860000e-06	9.597235e-08	-1.001238e-10	6.685376e-01	-8.007694e+00
1.870000e-06	1.426204e-07	-8.406500e-11	9.934852e-01	-6.884156e+00
1.880000e-06	1.892895e-07	-6.425092e-11	1.318579e+00	-5.746066e+00
1.890000e-06	2.360137e-07	-4.346415e-11	1.644057e+00	-4.594049e+00
1.900000e-06	2.827244e-07	-2.423975e-11	1.969441e+00	-3.428786e+00
1.910000e-06	3.294340e-07	-7.249545e-12	2.294817e+00	-2.251009e+00
1.920000e-06	3.761363e-07	6.734003e-12	2.620143e+00	-1.061498e+00
1.930000e-06	4.227596e-07	2.036970e-11	2.944918e+00	1.389172e-01
1.940000e-06	4.693121e-07	3.671125e-11	3.269200e+00	1.349363e+00
1.950000e-06	5.158673e-07	5.362541e-11	3.593501e+00	2.568924e+00
1.960000e-06	5.623499e-07	7.105495e-11	3.917295e+00	3.796643e+00
1.970000e-06	6.088031e-07	8.911068e-11	4.240886e+00	5.031529e+00
1.980000e-06	6.552374e-07	1.060078e-10	4.564344e+00	6.272556e+00
1.990000e-06	7.015088e-07	1.221358e-10	4.886668e+00	7.518672e+00
2.000000e-06	7.476934e-07	1.373238e-10	5.208387e+00	8.768799e+00
2.010000e-06	7.937973e-07	1.548894e-10	5.529544e+00	1.002184e+01
2.020000e-06	8.398511e-07	1.744680e-10	5.850352e+00	1.127667e+01
2.030000e-06	8.859246e-07	1.949881e-10	6.171297e+00	1.253218e+01
2.040000e-06	9.319799e-07	2.124637e-10	6.492116e+00	1.378722e+01
2.050000e-06	9.779546e-07	2.288995e-10	6.812373e+00	1.504066e+01
2.060000e-06	1.023895e-06	2.451900e-10	7.132393e+00	1.629136e+01
2.070000e-06	1.069827e-06	2.636773e-10	7.452351e+00	1.753820e+01
2.080000e-06	1.115703e-06	2.825245e-10	7.771922e+00	1.878006e+01
2.090000e-06	1.161457e-06	3.021938e-10	8.090642e+00	2.001584e+01
2.100000e-06	1.207010e-06	3.221544e-10	8.407962e+00	2.124446e+01
2.110000e-06	1.252444e-06	3.371149e-10	8.724446e+00	2.246486e+01
2.120000e-06	1.297877e-06	3.490848e-10	9.040932e+00	2.367602e+01
2.130000e-06	1.343274e-06	3.631106e-10	9.357169e+00	2.487694e+01
2.140000e-06	1.388574e-06	3.796509e-10	9.672722e+00	2.606667e+01
2.150000e-06	1.433774e-06	3.982812e-10	9.987581e+00	2.724429e+01
2.160000e-06	1.478799e-06	4.181282e-10	1.030123e+01	2.840893e+01
2.170000e-06	1.523628e-06	4.363152e-10	1.061350e+01	2.955976e+01
2.180000e-06	1.568399e-06	4.542829e-10	1.092537e+01	3.069601e+01
2.190000e-06	1.613071e-06	4.695721e-10	1.123656e+01	3.181695e+01
2.200000e-06	1.657605e-06	4.837303e-10	1.154677e+01	3.292192e+01
2.210000e-06	1.702063e-06	4.958843e-10	1.185647e+01	3.401029e+01
2.220000e-06	1.746368e-06	5.082683e-10	1.216510e+01	3.508151e+01
2.230000e-06	1.790569e-06	5.229736e-10	1.247299e+01	3.613508e+01
2.240000e-06	1.834698e-06	5.368802e-10	1.278040e+01	3.717056e+01
2.250000e-06	1.878694e-06	5.503477e-10	1.308687e+01	3.818757e+01
2.260000e-06	1.922538e-06	5.630256e-10	1.339228e+01	3.918578e+01
2.270000e-06	1.966280e-06	5.771119e-10	1.369699e+01	4.016493e+01
2.280000e-06	2.009987e-06	5.908660e-10	1.400145e+01	4.112480e+01
2.290000e-06	2.053688e-06	6.046050e-10	1.430586e+01	4.206525e+01
2.300000e-06	2.097364e-06	6.184446e-10	1.461011e+01	4.298618e+01
2.310000e-06	2.140961e-06	6.303539e-10	1.491380e+01	4.388755e+01
2.320000e-06	2.184449e-06	6.427590e-10	1.521674e+01	4.476935e+01
2.330000e-06	2.227749e-06	6.542838e-10	1.551837e+01	4.563165e+01
2.340000e-06	2.270924e-06	6.679063e-10	1.581912e+01	4.647455e+01
2.350000e-06	2.313979e-06	6.838265e-10	1.611904e+01	4.729818e+01
2.360000e-06	2.356754e-06	7.006659e-10	1.641700e+01	4.810273e+01
2.370000e-06	2.399185e-06	7.147025e-10	1.671258e+01	4.888843e+01
2.380000e-06	2.441310e-06	7.255589e-10	1.700602e+01	4.965552e+01
2.390000e-06	2.483132e-06	7.350319e-10	1.729735e+01	5.040430e+01
2.400000e-06	2.524573e-06	7.435436e-10	1.758602e+01	5.113506e+01
2.410000e-06	2.565656e-06	7.514218e-10	1.787220e+01	5.184814e+01
2.420000e-06	2.606425e-06	7.607490e-10	1.815620e+01	5.254390e+01
2.430000e-06	2.646967e-06	7.724811e-10	1.843861e+01	5.322270e+01
2.440000e-06	2.687287e-06	7.837407e-10	1.871948e+01	5.388493e+01
2.450000e-06	2.727330e-06	7.926774e-10	1.899841e+01	5.453098e+01
2.460000e-06	2.767296e-06	8.015299e-10	1.927682e+01	5.516124e+01
2.470000e-06	2.807224e-06	8.101300e-10	1.955495e+01	5.577612e+01
2.480000e-06	2.846986e-06	8.192588e-10	1.983193e+01	5.637601e+01
2.490000e-06	2.886581e-06	8.298334e-10	2.010775e+01	5.696131e+01
2.500000e-06	2.926047e-06	8.385979e-10	2.038267e+01	5.753241e+01
2.510000e-06	2.965430e-06	8.470252e-10	2.065700e+01	5.808970e+01
2.520000e-06	3.004617e-06	8.572431e-10	2.092998e+01	5.863354e+01
2.530000e-06	3.043563e-06	8.659325e-10	2.120128e+01	5.916430e+01
2.540000e-06	3.082294e-06	8.716556e-10	2.147107e+01	5.968233e+01
2.550000e-06	3.120841e-06	8.763137e-10	2.173959e+01	6.018796e+01
2.560000e-06	3.159184e-06	8.812106e-10	2.200669e+01	6.068149e+01
2.570000e-06	3.197297e-06	8.871506e-10	2.227218e+01	6.116324e+01
2.580000e-06	3.235257e-06	8.942829e-10	2.253661e+01	6.163349e+01
2.590000e-06	3.272987e-06	9.028177e-10	2.279943e+01	6.209248e+01
2.600000e-06	3.310455e-06	9.120926e-10	2.306043e+01	6.254047e+01
2.610000e-06	3.347714e-06	9.187220e-10	2.331997e+01	6.297769e+01
2.620000e-06	3.384710e-06	9.203656e-10	2.357769e+01	6.340434e+01
2.630000e-06	3.421385e-06	9.214080e-10	2.383316e+01	6.382060e+01
2.640000e-06	3.457835e-06	9.257164e-10	2.408707e+01	6.422666e+01
2.650000e-06	3.494091e-06	9.323787e-10	2.433963e+01	6.462267e+01
2.660000e-06	3.530113e-06	9.393629e-10	2.459056e+01	6.500877e+01
2.670000e-06	3.565959e-06	9.466939e-10	2.484026e+01	6.538510e+01
2.680000e-06	3.601678e-06	9.542200e-10	2.508907e+01	6.575177e+01
2.690000e-06	3.637343e-06	9.613068e-10	2.533751e+01	6.610888e+01
2.700000e-06	3.672887e-06	9.664662e-10	2.558511e+01	6.645653e+01
2.710000e-06	3.708189e-06	9.698933e-10	2.583102e+01	6.679482e+01
2.720000e-06	3.743203e-06	9.724968e-10	2.607493e+01	6.712383e+01
2.730000e-06	3.777852e-06	9.742280e-10	2.631629e+01	6.744364e+01
2.740000e-06	3.812070e-06	9.765931e-10	2.655465e+01	6.775433e+01
2.750000e-06	3.845780e-06	9.811502e-10	2.678947e+01	6.805597e+01
2.760000e-06	3.878968e-06	9.865101e-10	2.702065e+01	6.834865e+01
2.770000e-06	3.911647e-06	9.913772e-10	2.724830e+01	6.863244e+01
2.780000e-06	3.943919e-06	9.966557e-10	2.747310e+01	6.890743e+01
2.790000e-06	3.975941e-06	1.001812e-09	2.769616e+01	6.917370e+01
2.800000e-06	4.007762e-06	1.004875e-09	2.791783e+01	6.943136e+01
2.810000e-06	4.039439e-06	1.007644e-09	2.813849e+01	6.968051e+01
2.820000e-06	4.070999e-06	1.010583e-09	2.835834e+01	6.992125e+01
2.830000e-06	4.102363e-06	1.012427e-09	2.857681e+01	7.015370e+01
2.840000e-06	4.133467e-06	1.015446e-09	2.879348e+01	7.037801e+01
2.850000e-06	4.164277e-06	1.022967e-09	2.900810e+01	7.059429e+01
2.860000e-06	4.194736e-06	1.029898e-09	2.922028e+01	7.080272e+01
2.870000e-06	4.224841e-06	1.032326e-09	2.942999e+01	7.100343e+01
2.880000e-06	4.254618e-06	1.033254e-09	2.963742e+01	7.119662e+01
2.890000e-06	4.284179e-06	1.034423e-09	2.984333e+01	7.138244e+01
2.900000e-06	4.313567e-06	1.035902e-09	3.004805e+01	7.156110e+01
2.910000e-06	4.342686e-06	1.039251e-09	3.025089e+01	7.173279e+01
