# Temperatura_=_-0.7
# Concentracion g/m^3_=_1620.0
# C_Vs_to_Am_M_A/Vsm_=_65563218390.804596
# pendiente_HvsI_1/m_=_3716.3
# ordenada_HvsI_A/m_=_1297.0
# frecuencia_Hz_=_135097.80718303096

Tiempo_(s)	Campo_(V.s)	Magnetizacion_(V.s)	Campo_(kA/m)	Magnetizacion_(A/m)
0.000000e+00	-5.514192e-06	-1.343255e-09	-3.837610e+01	-8.822857e+01
1.000000e-08	-5.514273e-06	-1.344819e-09	-3.837666e+01	-8.818151e+01
2.000000e-08	-5.514173e-06	-1.347656e-09	-3.837597e+01	-8.813214e+01
3.000000e-08	-5.513728e-06	-1.349471e-09	-3.837287e+01	-8.808042e+01
4.000000e-08	-5.512792e-06	-1.345308e-09	-3.836635e+01	-8.802630e+01
5.000000e-08	-5.511284e-06	-1.329333e-09	-3.835586e+01	-8.796975e+01
6.000000e-08	-5.509059e-06	-1.320994e-09	-3.834037e+01	-8.791073e+01
7.000000e-08	-5.506106e-06	-1.346875e-09	-3.831982e+01	-8.784921e+01
8.000000e-08	-5.502681e-06	-1.375609e-09	-3.829599e+01	-8.778517e+01
9.000000e-08	-5.498860e-06	-1.427477e-09	-3.826940e+01	-8.771859e+01
1.000000e-07	-5.494616e-06	-1.468983e-09	-3.823986e+01	-8.764945e+01
1.100000e-07	-5.490169e-06	-1.348535e-09	-3.820891e+01	-8.757775e+01
1.200000e-07	-5.485647e-06	-1.234449e-09	-3.817744e+01	-8.750348e+01
1.300000e-07	-5.480870e-06	-1.300559e-09	-3.814419e+01	-8.742665e+01
1.400000e-07	-5.475671e-06	-1.398883e-09	-3.810801e+01	-8.734725e+01
1.500000e-07	-5.469942e-06	-1.376100e-09	-3.806814e+01	-8.726529e+01
1.600000e-07	-5.463843e-06	-1.248582e-09	-3.802569e+01	-8.718078e+01
1.700000e-07	-5.457411e-06	-1.343173e-09	-3.798093e+01	-8.709374e+01
1.800000e-07	-5.450478e-06	-1.426791e-09	-3.793268e+01	-8.700417e+01
1.900000e-07	-5.443124e-06	-1.365714e-09	-3.788150e+01	-8.691209e+01
2.000000e-07	-5.435510e-06	-1.235073e-09	-3.782851e+01	-8.681752e+01
2.100000e-07	-5.427741e-06	-1.290315e-09	-3.777444e+01	-8.672046e+01
2.200000e-07	-5.419737e-06	-1.382454e-09	-3.771874e+01	-8.662093e+01
2.300000e-07	-5.411395e-06	-1.366174e-09	-3.766068e+01	-8.651894e+01
2.400000e-07	-5.402618e-06	-1.290539e-09	-3.759960e+01	-8.641449e+01
2.500000e-07	-5.393200e-06	-1.290321e-09	-3.753405e+01	-8.630758e+01
2.600000e-07	-5.382999e-06	-1.318148e-09	-3.746305e+01	-8.619821e+01
2.700000e-07	-5.372203e-06	-1.293357e-09	-3.738792e+01	-8.608638e+01
2.800000e-07	-5.361005e-06	-1.292620e-09	-3.730999e+01	-8.597207e+01
2.900000e-07	-5.349392e-06	-1.297501e-09	-3.722917e+01	-8.585526e+01
3.000000e-07	-5.337381e-06	-1.311014e-09	-3.714558e+01	-8.573593e+01
3.100000e-07	-5.324966e-06	-1.290435e-09	-3.705918e+01	-8.561404e+01
3.200000e-07	-5.312087e-06	-1.301688e-09	-3.696955e+01	-8.548956e+01
3.300000e-07	-5.298811e-06	-1.267720e-09	-3.687715e+01	-8.536245e+01
3.400000e-07	-5.285200e-06	-1.291730e-09	-3.678243e+01	-8.523264e+01
3.500000e-07	-5.271199e-06	-1.301736e-09	-3.668499e+01	-8.510008e+01
3.600000e-07	-5.256784e-06	-1.287886e-09	-3.658466e+01	-8.496470e+01
3.700000e-07	-5.241815e-06	-1.266905e-09	-3.648048e+01	-8.482644e+01
3.800000e-07	-5.226220e-06	-1.318945e-09	-3.637195e+01	-8.468521e+01
3.900000e-07	-5.210166e-06	-1.280569e-09	-3.626023e+01	-8.454094e+01
4.000000e-07	-5.193792e-06	-1.234834e-09	-3.614627e+01	-8.439354e+01
4.100000e-07	-5.177010e-06	-1.285261e-09	-3.602947e+01	-8.424291e+01
4.200000e-07	-5.159846e-06	-1.315092e-09	-3.591002e+01	-8.408897e+01
4.300000e-07	-5.142332e-06	-1.222145e-09	-3.578813e+01	-8.393162e+01
4.400000e-07	-5.124542e-06	-1.256913e-09	-3.566432e+01	-8.377077e+01
4.500000e-07	-5.106445e-06	-1.345971e-09	-3.553838e+01	-8.360631e+01
4.600000e-07	-5.087818e-06	-1.260463e-09	-3.540874e+01	-8.343816e+01
4.700000e-07	-5.068765e-06	-1.193772e-09	-3.527614e+01	-8.326622e+01
4.800000e-07	-5.049446e-06	-1.306214e-09	-3.514169e+01	-8.309040e+01
4.900000e-07	-5.029880e-06	-1.299580e-09	-3.500552e+01	-8.291063e+01
5.000000e-07	-5.010051e-06	-1.188681e-09	-3.486752e+01	-8.272681e+01
5.100000e-07	-4.989987e-06	-1.253189e-09	-3.472789e+01	-8.253887e+01
5.200000e-07	-4.969672e-06	-1.307827e-09	-3.458650e+01	-8.234676e+01
5.300000e-07	-4.949005e-06	-1.210328e-09	-3.444267e+01	-8.215040e+01
5.400000e-07	-4.927996e-06	-1.224784e-09	-3.429646e+01	-8.194976e+01
5.500000e-07	-4.906651e-06	-1.310822e-09	-3.414790e+01	-8.174479e+01
5.600000e-07	-4.884961e-06	-1.217691e-09	-3.399695e+01	-8.153546e+01
5.700000e-07	-4.863001e-06	-1.173219e-09	-3.384412e+01	-8.132176e+01
5.800000e-07	-4.840739e-06	-1.269251e-09	-3.368919e+01	-8.110368e+01
5.900000e-07	-4.818012e-06	-1.249140e-09	-3.353102e+01	-8.088122e+01
6.000000e-07	-4.794815e-06	-1.164237e-09	-3.336958e+01	-8.065440e+01
6.100000e-07	-4.771292e-06	-1.228452e-09	-3.320587e+01	-8.042325e+01
6.200000e-07	-4.747544e-06	-1.243213e-09	-3.304060e+01	-8.018781e+01
6.300000e-07	-4.723645e-06	-1.170029e-09	-3.287427e+01	-7.994812e+01
6.400000e-07	-4.699574e-06	-1.185142e-09	-3.270675e+01	-7.970426e+01
6.500000e-07	-4.675205e-06	-1.228452e-09	-3.253715e+01	-7.945629e+01
6.600000e-07	-4.650375e-06	-1.170390e-09	-3.236435e+01	-7.920430e+01
6.700000e-07	-4.625042e-06	-1.166939e-09	-3.218804e+01	-7.894837e+01
6.800000e-07	-4.599232e-06	-1.206379e-09	-3.200842e+01	-7.868860e+01
6.900000e-07	-4.572859e-06	-1.180160e-09	-3.182488e+01	-7.842510e+01
7.000000e-07	-4.545909e-06	-1.147924e-09	-3.163732e+01	-7.815798e+01
7.100000e-07	-4.518500e-06	-1.177848e-09	-3.144656e+01	-7.788736e+01
7.200000e-07	-4.490799e-06	-1.171099e-09	-3.125378e+01	-7.761334e+01
7.300000e-07	-4.462941e-06	-1.145402e-09	-3.105990e+01	-7.733606e+01
7.400000e-07	-4.434925e-06	-1.154700e-09	-3.086493e+01	-7.705562e+01
7.500000e-07	-4.406771e-06	-1.159508e-09	-3.066898e+01	-7.677216e+01
7.600000e-07	-4.378410e-06	-1.132069e-09	-3.047160e+01	-7.648577e+01
7.700000e-07	-4.349753e-06	-1.127257e-09	-3.027217e+01	-7.619657e+01
7.800000e-07	-4.320754e-06	-1.132146e-09	-3.007035e+01	-7.590467e+01
7.900000e-07	-4.291376e-06	-1.119550e-09	-2.986589e+01	-7.561016e+01
8.000000e-07	-4.261707e-06	-1.114501e-09	-2.965941e+01	-7.531313e+01
8.100000e-07	-4.231835e-06	-1.118079e-09	-2.945152e+01	-7.501365e+01
8.200000e-07	-4.201631e-06	-1.104758e-09	-2.924131e+01	-7.471179e+01
8.300000e-07	-4.171133e-06	-1.091202e-09	-2.902906e+01	-7.440761e+01
8.400000e-07	-4.140411e-06	-1.098191e-09	-2.881525e+01	-7.410113e+01
8.500000e-07	-4.109305e-06	-1.090264e-09	-2.859877e+01	-7.379239e+01
8.600000e-07	-4.077817e-06	-1.075353e-09	-2.837962e+01	-7.348139e+01
8.700000e-07	-4.046161e-06	-1.072573e-09	-2.815932e+01	-7.316813e+01
8.800000e-07	-4.014436e-06	-1.072890e-09	-2.793853e+01	-7.285258e+01
8.900000e-07	-3.982528e-06	-1.056309e-09	-2.771646e+01	-7.253470e+01
9.000000e-07	-3.950310e-06	-1.051682e-09	-2.749224e+01	-7.221444e+01
9.100000e-07	-3.917875e-06	-1.051586e-09	-2.726651e+01	-7.189171e+01
9.200000e-07	-3.885198e-06	-1.041729e-09	-2.703909e+01	-7.156642e+01
9.300000e-07	-3.852101e-06	-1.031619e-09	-2.680875e+01	-7.123848e+01
9.400000e-07	-3.818553e-06	-1.036407e-09	-2.657527e+01	-7.090775e+01
9.500000e-07	-3.784460e-06	-1.027322e-09	-2.633800e+01	-7.057410e+01
9.600000e-07	-3.749929e-06	-1.013292e-09	-2.609768e+01	-7.023737e+01
9.700000e-07	-3.715064e-06	-1.009998e-09	-2.585504e+01	-6.989740e+01
9.800000e-07	-3.679797e-06	-1.010223e-09	-2.560960e+01	-6.955403e+01
9.900000e-07	-3.644239e-06	-9.982487e-10	-2.536213e+01	-6.920705e+01
1.000000e-06	-3.608535e-06	-9.951954e-10	-2.511365e+01	-6.885627e+01
1.010000e-06	-3.572714e-06	-9.939028e-10	-2.486436e+01	-6.850151e+01
1.020000e-06	-3.536782e-06	-9.858250e-10	-2.461429e+01	-6.814254e+01
1.030000e-06	-3.500710e-06	-9.773774e-10	-2.436324e+01	-6.777916e+01
1.040000e-06	-3.464471e-06	-9.776342e-10	-2.411103e+01	-6.741115e+01
1.050000e-06	-3.427982e-06	-9.703160e-10	-2.385709e+01	-6.703831e+01
1.060000e-06	-3.391120e-06	-9.578599e-10	-2.360055e+01	-6.666043e+01
1.070000e-06	-3.353970e-06	-9.536819e-10	-2.334200e+01	-6.627729e+01
1.080000e-06	-3.316590e-06	-9.482659e-10	-2.308185e+01	-6.588870e+01
1.090000e-06	-3.278976e-06	-9.368525e-10	-2.282008e+01	-6.549446e+01
1.100000e-06	-3.241206e-06	-9.306485e-10	-2.255722e+01	-6.509439e+01
1.110000e-06	-3.203188e-06	-9.277624e-10	-2.229263e+01	-6.468830e+01
1.120000e-06	-3.164954e-06	-9.190084e-10	-2.202654e+01	-6.427604e+01
1.130000e-06	-3.126542e-06	-9.120004e-10	-2.175921e+01	-6.385745e+01
1.140000e-06	-3.087878e-06	-9.064477e-10	-2.149013e+01	-6.343239e+01
1.150000e-06	-3.048989e-06	-8.949943e-10	-2.121948e+01	-6.300074e+01
1.160000e-06	-3.009892e-06	-8.811046e-10	-2.094738e+01	-6.256237e+01
1.170000e-06	-2.970631e-06	-8.767399e-10	-2.067415e+01	-6.211721e+01
1.180000e-06	-2.931205e-06	-8.728018e-10	-2.039976e+01	-6.166516e+01
1.190000e-06	-2.891583e-06	-8.661285e-10	-2.012401e+01	-6.120617e+01
1.200000e-06	-2.851811e-06	-8.596569e-10	-1.984722e+01	-6.074017e+01
1.210000e-06	-2.811966e-06	-8.554647e-10	-1.956991e+01	-6.026713e+01
1.220000e-06	-2.771963e-06	-8.436566e-10	-1.929152e+01	-5.978704e+01
1.230000e-06	-2.731807e-06	-8.338388e-10	-1.901205e+01	-5.929987e+01
1.240000e-06	-2.691582e-06	-8.267609e-10	-1.873210e+01	-5.880563e+01
1.250000e-06	-2.651149e-06	-8.193894e-10	-1.845071e+01	-5.830434e+01
1.260000e-06	-2.610493e-06	-8.091318e-10	-1.816776e+01	-5.779601e+01
1.270000e-06	-2.569619e-06	-7.996641e-10	-1.788330e+01	-5.728066e+01
1.280000e-06	-2.528391e-06	-7.945795e-10	-1.759637e+01	-5.675834e+01
1.290000e-06	-2.486903e-06	-7.903603e-10	-1.730764e+01	-5.622907e+01
1.300000e-06	-2.445220e-06	-7.818989e-10	-1.701754e+01	-5.569289e+01
1.310000e-06	-2.403174e-06	-7.724191e-10	-1.672492e+01	-5.514984e+01
1.320000e-06	-2.360688e-06	-7.627469e-10	-1.642924e+01	-5.459995e+01
1.330000e-06	-2.317805e-06	-7.534352e-10	-1.613079e+01	-5.404323e+01
1.340000e-06	-2.274662e-06	-7.444847e-10	-1.583054e+01	-5.347970e+01
1.350000e-06	-2.231382e-06	-7.374699e-10	-1.552934e+01	-5.290937e+01
1.360000e-06	-2.187949e-06	-7.297628e-10	-1.522706e+01	-5.233223e+01
1.370000e-06	-2.144380e-06	-7.239238e-10	-1.492384e+01	-5.174826e+01
1.380000e-06	-2.100746e-06	-7.199387e-10	-1.462017e+01	-5.115740e+01
1.390000e-06	-2.057050e-06	-7.114039e-10	-1.431607e+01	-5.055959e+01
1.400000e-06	-2.013276e-06	-6.977902e-10	-1.401142e+01	-4.995476e+01
1.410000e-06	-1.969390e-06	-6.852877e-10	-1.370600e+01	-4.934278e+01
1.420000e-06	-1.925391e-06	-6.752272e-10	-1.339979e+01	-4.872353e+01
1.430000e-06	-1.881318e-06	-6.660629e-10	-1.309306e+01	-4.809684e+01
1.440000e-06	-1.837173e-06	-6.598434e-10	-1.278583e+01	-4.746251e+01
1.450000e-06	-1.792924e-06	-6.554257e-10	-1.247788e+01	-4.682034e+01
1.460000e-06	-1.748636e-06	-6.470776e-10	-1.216966e+01	-4.617007e+01
1.470000e-06	-1.704314e-06	-6.338785e-10	-1.186120e+01	-4.551142e+01
1.480000e-06	-1.659758e-06	-6.202632e-10	-1.155111e+01	-4.484409e+01
1.490000e-06	-1.614992e-06	-6.065192e-10	-1.123956e+01	-4.416773e+01
1.500000e-06	-1.570113e-06	-5.946245e-10	-1.092722e+01	-4.348198e+01
1.510000e-06	-1.525110e-06	-5.834018e-10	-1.061403e+01	-4.278644e+01
1.520000e-06	-1.479992e-06	-5.726376e-10	-1.030003e+01	-4.208070e+01
1.530000e-06	-1.434701e-06	-5.627642e-10	-9.984821e+00	-4.136430e+01
1.540000e-06	-1.389268e-06	-5.525648e-10	-9.668632e+00	-4.063679e+01
1.550000e-06	-1.343800e-06	-5.399075e-10	-9.352196e+00	-3.989766e+01
1.560000e-06	-1.298323e-06	-5.264266e-10	-9.035700e+00	-3.914642e+01
1.570000e-06	-1.252773e-06	-5.113042e-10	-8.718691e+00	-3.838255e+01
1.580000e-06	-1.207120e-06	-5.002601e-10	-8.400972e+00	-3.760550e+01
1.590000e-06	-1.161372e-06	-4.901287e-10	-8.082588e+00	-3.681474e+01
1.600000e-06	-1.115502e-06	-4.782865e-10	-7.763348e+00	-3.600972e+01
1.610000e-06	-1.069542e-06	-4.662888e-10	-7.443491e+00	-3.518991e+01
1.620000e-06	-1.023553e-06	-4.577353e-10	-7.123432e+00	-3.435474e+01
1.630000e-06	-9.775470e-07	-4.515696e-10	-6.803252e+00	-3.350369e+01
1.640000e-06	-9.314787e-07	-4.427489e-10	-6.482639e+00	-3.263623e+01
1.650000e-06	-8.853538e-07	-4.279881e-10	-6.161632e+00	-3.175185e+01
1.660000e-06	-8.391609e-07	-4.111039e-10	-5.840152e+00	-3.085007e+01
1.670000e-06	-7.928441e-07	-3.935747e-10	-5.517809e+00	-2.993041e+01
1.680000e-06	-7.465051e-07	-3.749002e-10	-5.195313e+00	-2.899245e+01
1.690000e-06	-7.001598e-07	-3.593405e-10	-4.872772e+00	-2.803579e+01
1.700000e-06	-6.537554e-07	-3.472794e-10	-4.549820e+00	-2.706005e+01
1.710000e-06	-6.073294e-07	-3.367854e-10	-4.226718e+00	-2.606492e+01
1.720000e-06	-5.609166e-07	-3.249270e-10	-3.903707e+00	-2.505011e+01
1.730000e-06	-5.144447e-07	-3.087835e-10	-3.580285e+00	-2.401540e+01
1.740000e-06	-4.679372e-07	-2.889059e-10	-3.256616e+00	-2.296061e+01
1.750000e-06	-4.213389e-07	-2.689369e-10	-2.932314e+00	-2.188562e+01
1.760000e-06	-3.745908e-07	-2.504130e-10	-2.606970e+00	-2.079036e+01
1.770000e-06	-3.278596e-07	-2.340353e-10	-2.281744e+00	-1.967483e+01
1.780000e-06	-2.811202e-07	-2.207279e-10	-1.956460e+00	-1.853908e+01
1.790000e-06	-2.343540e-07	-2.099548e-10	-1.630990e+00	-1.738325e+01
1.800000e-06	-1.875605e-07	-1.957820e-10	-1.305330e+00	-1.620752e+01
1.810000e-06	-1.407081e-07	-1.791135e-10	-9.792601e-01	-1.501215e+01
1.820000e-06	-9.388858e-08	-1.627230e-10	-6.534189e-01	-1.379745e+01
1.830000e-06	-4.720170e-08	-1.473096e-10	-3.285009e-01	-1.256383e+01
1.840000e-06	-4.950887e-10	-1.321570e-10	-3.445577e-03	-1.131174e+01
1.850000e-06	4.633327e-08	-1.166517e-10	3.224571e-01	-1.004171e+01
1.860000e-06	9.318256e-08	-1.002853e-10	6.485053e-01	-8.754318e+00
1.870000e-06	1.400767e-07	-8.251124e-11	9.748656e-01	-7.450232e+00
1.880000e-06	1.868988e-07	-6.296580e-11	1.300725e+00	-6.130169e+00
1.890000e-06	2.335695e-07	-4.420187e-11	1.625530e+00	-4.794905e+00
1.900000e-06	2.802764e-07	-2.523618e-11	1.950588e+00	-3.445277e+00
1.910000e-06	3.269889e-07	-5.953141e-12	2.275684e+00	-2.082177e+00
1.920000e-06	3.736325e-07	1.085027e-11	2.600301e+00	-7.065473e-01
1.930000e-06	4.202988e-07	2.673658e-11	2.925075e+00	6.806211e-01
1.940000e-06	4.668643e-07	4.485190e-11	3.249149e+00	2.078293e+00
1.950000e-06	5.132830e-07	6.223256e-11	3.572200e+00	3.485393e+00
1.960000e-06	5.596667e-07	8.080110e-11	3.895008e+00	4.900810e+00
1.970000e-06	6.060634e-07	1.026613e-10	4.217907e+00	6.323400e+00
1.980000e-06	6.524711e-07	1.240888e-10	4.540882e+00	7.751995e+00
1.990000e-06	6.988817e-07	1.462363e-10	4.863877e+00	9.185402e+00
2.000000e-06	7.452725e-07	1.669660e-10	5.186734e+00	1.062241e+01
2.010000e-06	7.916191e-07	1.869243e-10	5.509284e+00	1.206180e+01
2.020000e-06	8.379033e-07	2.074853e-10	5.831400e+00	1.350234e+01
2.030000e-06	8.840785e-07	2.298596e-10	6.152757e+00	1.494281e+01
2.040000e-06	9.301381e-07	2.520067e-10	6.473309e+00	1.638196e+01
2.050000e-06	9.761110e-07	2.720384e-10	6.793258e+00	1.781857e+01
2.060000e-06	1.022050e-06	2.902480e-10	7.112969e+00	1.925144e+01
2.070000e-06	1.067929e-06	3.098822e-10	7.432270e+00	2.067937e+01
2.080000e-06	1.113758e-06	3.311484e-10	7.751214e+00	2.210118e+01
2.090000e-06	1.159557e-06	3.531275e-10	8.069953e+00	2.351572e+01
2.100000e-06	1.205287e-06	3.768216e-10	8.388213e+00	2.492186e+01
2.110000e-06	1.250932e-06	3.966709e-10	8.705876e+00	2.631851e+01
2.120000e-06	1.296421e-06	4.120560e-10	9.022463e+00	2.770462e+01
2.130000e-06	1.341680e-06	4.276019e-10	9.337438e+00	2.907916e+01
2.140000e-06	1.386861e-06	4.447375e-10	9.651877e+00	3.044116e+01
2.150000e-06	1.432054e-06	4.635002e-10	9.966401e+00	3.178969e+01
2.160000e-06	1.477155e-06	4.824338e-10	1.028028e+01	3.312385e+01
2.170000e-06	1.522106e-06	5.014590e-10	1.059312e+01	3.444281e+01
2.180000e-06	1.566946e-06	5.215995e-10	1.090518e+01	3.574578e+01
2.190000e-06	1.611626e-06	5.395568e-10	1.121613e+01	3.703201e+01
2.200000e-06	1.656206e-06	5.558855e-10	1.152639e+01	3.830082e+01
2.210000e-06	1.700780e-06	5.703197e-10	1.183660e+01	3.955157e+01
2.220000e-06	1.745148e-06	5.836046e-10	1.214538e+01	4.078369e+01
2.230000e-06	1.789381e-06	5.980512e-10	1.245322e+01	4.199663e+01
2.240000e-06	1.833557e-06	6.128605e-10	1.276067e+01	4.318993e+01
2.250000e-06	1.877574e-06	6.299560e-10	1.306700e+01	4.436317e+01
2.260000e-06	1.921509e-06	6.468318e-10	1.337277e+01	4.551597e+01
2.270000e-06	1.965473e-06	6.659640e-10	1.367873e+01	4.664801e+01
2.280000e-06	2.009362e-06	6.840911e-10	1.398418e+01	4.775902e+01
2.290000e-06	2.053140e-06	7.009371e-10	1.428886e+01	4.884878e+01
2.300000e-06	2.096835e-06	7.161319e-10	1.459295e+01	4.991713e+01
2.310000e-06	2.140466e-06	7.297812e-10	1.489660e+01	5.096392e+01
2.320000e-06	2.184044e-06	7.437748e-10	1.519988e+01	5.198909e+01
2.330000e-06	2.227432e-06	7.566269e-10	1.550184e+01	5.299258e+01
2.340000e-06	2.270683e-06	7.705279e-10	1.580285e+01	5.397440e+01
2.350000e-06	2.313787e-06	7.889471e-10	1.610283e+01	5.493458e+01
2.360000e-06	2.356520e-06	8.091725e-10	1.640023e+01	5.587320e+01
2.370000e-06	2.398932e-06	8.228675e-10	1.669540e+01	5.679037e+01
2.380000e-06	2.441046e-06	8.344424e-10	1.698849e+01	5.768623e+01
2.390000e-06	2.482731e-06	8.464216e-10	1.727860e+01	5.856095e+01
2.400000e-06	2.524110e-06	8.564667e-10	1.756658e+01	5.941472e+01
2.410000e-06	2.565331e-06	8.661490e-10	1.785346e+01	6.024778e+01
2.420000e-06	2.606215e-06	8.784309e-10	1.813799e+01	6.106037e+01
2.430000e-06	2.646707e-06	8.927664e-10	1.841980e+01	6.185276e+01
2.440000e-06	2.687011e-06	9.052526e-10	1.870029e+01	6.262524e+01
2.450000e-06	2.727221e-06	9.142777e-10	1.898013e+01	6.337812e+01
2.460000e-06	2.767301e-06	9.245468e-10	1.925907e+01	6.411172e+01
2.470000e-06	2.807200e-06	9.350543e-10	1.953675e+01	6.482638e+01
2.480000e-06	2.846979e-06	9.452948e-10	1.981359e+01	6.552246e+01
2.490000e-06	2.886684e-06	9.562145e-10	2.008991e+01	6.620031e+01
2.500000e-06	2.926314e-06	9.680354e-10	2.036573e+01	6.686030e+01
2.510000e-06	2.965767e-06	9.805600e-10	2.064030e+01	6.750283e+01
2.520000e-06	3.005015e-06	9.914592e-10	2.091345e+01	6.812826e+01
2.530000e-06	3.044046e-06	9.970409e-10	2.118508e+01	6.873701e+01
2.540000e-06	3.082880e-06	9.996450e-10	2.145534e+01	6.932946e+01
2.550000e-06	3.121460e-06	1.004766e-09	2.172385e+01	6.990601e+01
2.560000e-06	3.159794e-06	1.013579e-09	2.199063e+01	7.046708e+01
2.570000e-06	3.197933e-06	1.022998e-09	2.225606e+01	7.101307e+01
2.580000e-06	3.235816e-06	1.034026e-09	2.251971e+01	7.154438e+01
2.590000e-06	3.273483e-06	1.043834e-09	2.278185e+01	7.206142e+01
2.600000e-06	3.310950e-06	1.053849e-09	2.304261e+01	7.256460e+01
2.610000e-06	3.348222e-06	1.059875e-09	2.330199e+01	7.305432e+01
2.620000e-06	3.385280e-06	1.058160e-09	2.355990e+01	7.353098e+01
2.630000e-06	3.422029e-06	1.057636e-09	2.381566e+01	7.399498e+01
2.640000e-06	3.458479e-06	1.061710e-09	2.406934e+01	7.444672e+01
2.650000e-06	3.494756e-06	1.071431e-09	2.432180e+01	7.488659e+01
2.660000e-06	3.530897e-06	1.080857e-09	2.457332e+01	7.531497e+01
2.670000e-06	3.566870e-06	1.088166e-09	2.482368e+01	7.573224e+01
2.680000e-06	3.602699e-06	1.093205e-09	2.507303e+01	7.613878e+01
2.690000e-06	3.638447e-06	1.097743e-09	2.532182e+01	7.653496e+01
2.700000e-06	3.674079e-06	1.102402e-09	2.556980e+01	7.692113e+01
2.710000e-06	3.709431e-06	1.108022e-09	2.581584e+01	7.729765e+01
2.720000e-06	3.744419e-06	1.115404e-09	2.605934e+01	7.766486e+01
2.730000e-06	3.779028e-06	1.123137e-09	2.630020e+01	7.802309e+01
2.740000e-06	3.813112e-06	1.127450e-09	2.653741e+01	7.837267e+01
2.750000e-06	3.846714e-06	1.128460e-09	2.677126e+01	7.871392e+01
2.760000e-06	3.879912e-06	1.131590e-09	2.700230e+01	7.904713e+01
2.770000e-06	3.912677e-06	1.138242e-09	2.723033e+01	7.937259e+01
2.780000e-06	3.945001e-06	1.145160e-09	2.745529e+01	7.969060e+01
2.790000e-06	3.977044e-06	1.153218e-09	2.767829e+01	8.000140e+01
2.800000e-06	4.009005e-06	1.161257e-09	2.790072e+01	8.030527e+01
2.810000e-06	4.040814e-06	1.167871e-09	2.812210e+01	8.060243e+01
2.820000e-06	4.072464e-06	1.169920e-09	2.834237e+01	8.089311e+01
2.830000e-06	4.103946e-06	1.172254e-09	2.856147e+01	8.117753e+01
2.840000e-06	4.135183e-06	1.178918e-09	2.877887e+01	8.145588e+01
2.850000e-06	4.166089e-06	1.185663e-09	2.899396e+01	8.172835e+01
2.860000e-06	4.196614e-06	1.191464e-09	2.920640e+01	8.199510e+01
2.870000e-06	4.226813e-06	1.195841e-09	2.941656e+01	8.225628e+01
2.880000e-06	4.256695e-06	1.200489e-09	2.962453e+01	8.251205e+01
2.890000e-06	4.286335e-06	1.205338e-09	2.983081e+01	8.276251e+01
2.900000e-06	4.315762e-06	1.210187e-09	3.003560e+01	8.300777e+01
