# Temperatura_=_14.3
# Concentracion g/m^3_=_1620.0
# C_Vs_to_Am_M_A/Vsm_=_65563218390.804596
# pendiente_HvsI_1/m_=_3716.3
# ordenada_HvsI_A/m_=_1297.0
# frecuencia_Hz_=_135099.69355722077

Tiempo_(s)	Campo_(V.s)	Magnetizacion_(V.s)	Campo_(kA/m)	Magnetizacion_(A/m)
0.000000e+00	-5.507129e-06	-1.625126e-09	-3.836468e+01	-1.054218e+02
1.000000e-08	-5.507428e-06	-1.623284e-09	-3.836677e+01	-1.054428e+02
2.000000e-08	-5.507412e-06	-1.624007e-09	-3.836666e+01	-1.054589e+02
3.000000e-08	-5.507119e-06	-1.627106e-09	-3.836462e+01	-1.054698e+02
4.000000e-08	-5.506500e-06	-1.626043e-09	-3.836031e+01	-1.054755e+02
5.000000e-08	-5.505344e-06	-1.614768e-09	-3.835225e+01	-1.054755e+02
6.000000e-08	-5.503601e-06	-1.595783e-09	-3.834011e+01	-1.054698e+02
7.000000e-08	-5.501213e-06	-1.589635e-09	-3.832347e+01	-1.054582e+02
8.000000e-08	-5.498214e-06	-1.632408e-09	-3.830258e+01	-1.054403e+02
9.000000e-08	-5.494759e-06	-1.698443e-09	-3.827851e+01	-1.054161e+02
1.000000e-07	-5.490781e-06	-1.705951e-09	-3.825080e+01	-1.053854e+02
1.100000e-07	-5.486434e-06	-1.619494e-09	-3.822051e+01	-1.053480e+02
1.200000e-07	-5.481952e-06	-1.540975e-09	-3.818929e+01	-1.053038e+02
1.300000e-07	-5.477284e-06	-1.576731e-09	-3.815678e+01	-1.052527e+02
1.400000e-07	-5.472203e-06	-1.631591e-09	-3.812138e+01	-1.051946e+02
1.500000e-07	-5.466700e-06	-1.600678e-09	-3.808304e+01	-1.051295e+02
1.600000e-07	-5.460943e-06	-1.546239e-09	-3.804293e+01	-1.050572e+02
1.700000e-07	-5.454819e-06	-1.581924e-09	-3.800027e+01	-1.049778e+02
1.800000e-07	-5.448106e-06	-1.665801e-09	-3.795351e+01	-1.048913e+02
1.900000e-07	-5.440939e-06	-1.637962e-09	-3.790358e+01	-1.047976e+02
2.000000e-07	-5.433567e-06	-1.564733e-09	-3.785222e+01	-1.046969e+02
2.100000e-07	-5.425981e-06	-1.547237e-09	-3.779938e+01	-1.045891e+02
2.200000e-07	-5.418148e-06	-1.616637e-09	-3.774481e+01	-1.044744e+02
2.300000e-07	-5.410119e-06	-1.626508e-09	-3.768888e+01	-1.043529e+02
2.400000e-07	-5.401724e-06	-1.584780e-09	-3.763039e+01	-1.042247e+02
2.500000e-07	-5.392758e-06	-1.565298e-09	-3.756794e+01	-1.040899e+02
2.600000e-07	-5.383090e-06	-1.591446e-09	-3.750058e+01	-1.039487e+02
2.700000e-07	-5.372764e-06	-1.577799e-09	-3.742865e+01	-1.038013e+02
2.800000e-07	-5.361864e-06	-1.548665e-09	-3.735271e+01	-1.036478e+02
2.900000e-07	-5.350444e-06	-1.565283e-09	-3.727316e+01	-1.034884e+02
3.000000e-07	-5.338720e-06	-1.592107e-09	-3.719148e+01	-1.033233e+02
3.100000e-07	-5.326657e-06	-1.570176e-09	-3.710745e+01	-1.031528e+02
3.200000e-07	-5.314090e-06	-1.537090e-09	-3.701990e+01	-1.029770e+02
3.300000e-07	-5.301068e-06	-1.562779e-09	-3.692919e+01	-1.027961e+02
3.400000e-07	-5.287766e-06	-1.573525e-09	-3.683652e+01	-1.026104e+02
3.500000e-07	-5.274069e-06	-1.558231e-09	-3.674110e+01	-1.024199e+02
3.600000e-07	-5.259892e-06	-1.549178e-09	-3.664234e+01	-1.022251e+02
3.700000e-07	-5.245321e-06	-1.570519e-09	-3.654084e+01	-1.020259e+02
3.800000e-07	-5.230330e-06	-1.553063e-09	-3.643640e+01	-1.018226e+02
3.900000e-07	-5.214693e-06	-1.536788e-09	-3.632747e+01	-1.016153e+02
4.000000e-07	-5.198415e-06	-1.550625e-09	-3.621407e+01	-1.014043e+02
4.100000e-07	-5.181863e-06	-1.559980e-09	-3.609876e+01	-1.011896e+02
4.200000e-07	-5.165072e-06	-1.532106e-09	-3.598179e+01	-1.009713e+02
4.300000e-07	-5.147911e-06	-1.536910e-09	-3.586224e+01	-1.007495e+02
4.400000e-07	-5.130442e-06	-1.559127e-09	-3.574054e+01	-1.005244e+02
4.500000e-07	-5.112639e-06	-1.553683e-09	-3.561653e+01	-1.002960e+02
4.600000e-07	-5.094376e-06	-1.525094e-09	-3.548930e+01	-1.000643e+02
4.700000e-07	-5.075690e-06	-1.526867e-09	-3.535912e+01	-9.982931e+01
4.800000e-07	-5.056639e-06	-1.526092e-09	-3.522641e+01	-9.959108e+01
4.900000e-07	-5.037266e-06	-1.521243e-09	-3.509145e+01	-9.934957e+01
5.000000e-07	-5.017655e-06	-1.521820e-09	-3.495483e+01	-9.910475e+01
5.100000e-07	-4.997813e-06	-1.524399e-09	-3.481660e+01	-9.885655e+01
5.200000e-07	-4.977686e-06	-1.509563e-09	-3.467639e+01	-9.860490e+01
5.300000e-07	-4.957301e-06	-1.512576e-09	-3.453438e+01	-9.834971e+01
5.400000e-07	-4.936616e-06	-1.521652e-09	-3.439028e+01	-9.809086e+01
5.500000e-07	-4.915507e-06	-1.508784e-09	-3.424323e+01	-9.782823e+01
5.600000e-07	-4.893975e-06	-1.486435e-09	-3.409323e+01	-9.756170e+01
5.700000e-07	-4.872138e-06	-1.482925e-09	-3.394111e+01	-9.729111e+01
5.800000e-07	-4.849916e-06	-1.487404e-09	-3.378630e+01	-9.701631e+01
5.900000e-07	-4.827293e-06	-1.485963e-09	-3.362869e+01	-9.673713e+01
6.000000e-07	-4.804438e-06	-1.483706e-09	-3.346948e+01	-9.645342e+01
6.100000e-07	-4.781356e-06	-1.477837e-09	-3.330868e+01	-9.616500e+01
6.200000e-07	-4.757949e-06	-1.471912e-09	-3.314562e+01	-9.587170e+01
6.300000e-07	-4.734269e-06	-1.463321e-09	-3.298066e+01	-9.557335e+01
6.400000e-07	-4.710390e-06	-1.456996e-09	-3.281431e+01	-9.526978e+01
6.500000e-07	-4.686224e-06	-1.453151e-09	-3.264596e+01	-9.496084e+01
6.600000e-07	-4.661668e-06	-1.453152e-09	-3.247489e+01	-9.464637e+01
6.700000e-07	-4.636660e-06	-1.445738e-09	-3.230068e+01	-9.432623e+01
6.800000e-07	-4.611171e-06	-1.442580e-09	-3.212311e+01	-9.400027e+01
6.900000e-07	-4.585193e-06	-1.436458e-09	-3.194214e+01	-9.366839e+01
7.000000e-07	-4.558699e-06	-1.428695e-09	-3.175758e+01	-9.333046e+01
7.100000e-07	-4.531762e-06	-1.418234e-09	-3.156992e+01	-9.298640e+01
7.200000e-07	-4.504482e-06	-1.417074e-09	-3.137988e+01	-9.263612e+01
7.300000e-07	-4.476914e-06	-1.410639e-09	-3.118783e+01	-9.227956e+01
7.400000e-07	-4.449127e-06	-1.401804e-09	-3.099425e+01	-9.191667e+01
7.500000e-07	-4.421167e-06	-1.394776e-09	-3.079947e+01	-9.154743e+01
7.600000e-07	-4.392971e-06	-1.391094e-09	-3.060305e+01	-9.117182e+01
7.700000e-07	-4.364466e-06	-1.377598e-09	-3.040447e+01	-9.078986e+01
7.800000e-07	-4.335663e-06	-1.367487e-09	-3.020382e+01	-9.040155e+01
7.900000e-07	-4.306521e-06	-1.364213e-09	-3.000081e+01	-9.000695e+01
8.000000e-07	-4.277018e-06	-1.361470e-09	-2.979528e+01	-8.960611e+01
8.100000e-07	-4.247287e-06	-1.352759e-09	-2.958816e+01	-8.919911e+01
8.200000e-07	-4.217349e-06	-1.347655e-09	-2.937960e+01	-8.878602e+01
8.300000e-07	-4.187146e-06	-1.342443e-09	-2.916920e+01	-8.836694e+01
8.400000e-07	-4.156658e-06	-1.331750e-09	-2.895681e+01	-8.794200e+01
8.500000e-07	-4.125796e-06	-1.316245e-09	-2.874181e+01	-8.751132e+01
8.600000e-07	-4.094593e-06	-1.308276e-09	-2.852444e+01	-8.707501e+01
8.700000e-07	-4.063155e-06	-1.301091e-09	-2.830543e+01	-8.663323e+01
8.800000e-07	-4.031545e-06	-1.291230e-09	-2.808523e+01	-8.618612e+01
8.900000e-07	-3.999792e-06	-1.288250e-09	-2.786402e+01	-8.573383e+01
9.000000e-07	-3.967905e-06	-1.284520e-09	-2.764189e+01	-8.527651e+01
9.100000e-07	-3.935764e-06	-1.274801e-09	-2.741798e+01	-8.481432e+01
9.200000e-07	-3.903294e-06	-1.263481e-09	-2.719178e+01	-8.434740e+01
9.300000e-07	-3.870409e-06	-1.258319e-09	-2.696269e+01	-8.387591e+01
9.400000e-07	-3.837066e-06	-1.248422e-09	-2.673041e+01	-8.339998e+01
9.500000e-07	-3.803236e-06	-1.239343e-09	-2.649474e+01	-8.291976e+01
9.600000e-07	-3.768903e-06	-1.231597e-09	-2.625556e+01	-8.243538e+01
9.700000e-07	-3.734148e-06	-1.220613e-09	-2.601344e+01	-8.194697e+01
9.800000e-07	-3.699054e-06	-1.207190e-09	-2.576897e+01	-8.145462e+01
9.900000e-07	-3.663748e-06	-1.201370e-09	-2.552301e+01	-8.095845e+01
1.000000e-06	-3.628296e-06	-1.197218e-09	-2.527604e+01	-8.045854e+01
1.010000e-06	-3.592695e-06	-1.191361e-09	-2.502804e+01	-7.995496e+01
1.020000e-06	-3.556894e-06	-1.186113e-09	-2.477863e+01	-7.944779e+01
1.030000e-06	-3.520934e-06	-1.181621e-09	-2.452812e+01	-7.893706e+01
1.040000e-06	-3.484817e-06	-1.168451e-09	-2.427652e+01	-7.842280e+01
1.050000e-06	-3.448516e-06	-1.157558e-09	-2.402363e+01	-7.790504e+01
1.060000e-06	-3.411947e-06	-1.149631e-09	-2.376887e+01	-7.738378e+01
1.070000e-06	-3.375083e-06	-1.140484e-09	-2.351207e+01	-7.685901e+01
1.080000e-06	-3.337935e-06	-1.130837e-09	-2.325328e+01	-7.633068e+01
1.090000e-06	-3.300496e-06	-1.125976e-09	-2.299246e+01	-7.579878e+01
1.100000e-06	-3.262813e-06	-1.120433e-09	-2.272995e+01	-7.526323e+01
1.110000e-06	-3.224948e-06	-1.111847e-09	-2.246617e+01	-7.472398e+01
1.120000e-06	-3.186861e-06	-1.101850e-09	-2.220084e+01	-7.418093e+01
1.130000e-06	-3.148633e-06	-1.090432e-09	-2.193454e+01	-7.363400e+01
1.140000e-06	-3.110247e-06	-1.077192e-09	-2.166712e+01	-7.308308e+01
1.150000e-06	-3.071591e-06	-1.064033e-09	-2.139783e+01	-7.252806e+01
1.160000e-06	-3.032691e-06	-1.054252e-09	-2.112684e+01	-7.196882e+01
1.170000e-06	-2.993579e-06	-1.046089e-09	-2.085437e+01	-7.140523e+01
1.180000e-06	-2.954290e-06	-1.038800e-09	-2.058067e+01	-7.083714e+01
1.190000e-06	-2.914826e-06	-1.031912e-09	-2.030575e+01	-7.026441e+01
1.200000e-06	-2.875244e-06	-1.023942e-09	-2.003001e+01	-6.968690e+01
1.210000e-06	-2.835503e-06	-1.015401e-09	-1.975315e+01	-6.910445e+01
1.220000e-06	-2.795593e-06	-1.008088e-09	-1.947513e+01	-6.851691e+01
1.230000e-06	-2.755542e-06	-9.978456e-10	-1.919612e+01	-6.792410e+01
1.240000e-06	-2.715295e-06	-9.862470e-10	-1.891574e+01	-6.732588e+01
1.250000e-06	-2.674870e-06	-9.752436e-10	-1.863412e+01	-6.672207e+01
1.260000e-06	-2.634364e-06	-9.655702e-10	-1.835195e+01	-6.611251e+01
1.270000e-06	-2.593636e-06	-9.543167e-10	-1.806822e+01	-6.549703e+01
1.280000e-06	-2.552621e-06	-9.438551e-10	-1.778250e+01	-6.487547e+01
1.290000e-06	-2.511326e-06	-9.348973e-10	-1.749482e+01	-6.424765e+01
1.300000e-06	-2.469667e-06	-9.262941e-10	-1.720461e+01	-6.361340e+01
1.310000e-06	-2.427686e-06	-9.151080e-10	-1.691216e+01	-6.297255e+01
1.320000e-06	-2.385450e-06	-9.029708e-10	-1.661792e+01	-6.232492e+01
1.330000e-06	-2.343050e-06	-8.910963e-10	-1.632255e+01	-6.167034e+01
1.340000e-06	-2.300448e-06	-8.801503e-10	-1.602576e+01	-6.100863e+01
1.350000e-06	-2.257528e-06	-8.681775e-10	-1.572677e+01	-6.033960e+01
1.360000e-06	-2.214336e-06	-8.558974e-10	-1.542588e+01	-5.966307e+01
1.370000e-06	-2.170964e-06	-8.440439e-10	-1.512373e+01	-5.897883e+01
1.380000e-06	-2.127496e-06	-8.344960e-10	-1.482092e+01	-5.828670e+01
1.390000e-06	-2.083922e-06	-8.268258e-10	-1.451736e+01	-5.758646e+01
1.400000e-06	-2.040240e-06	-8.176989e-10	-1.421306e+01	-5.687790e+01
1.410000e-06	-1.996503e-06	-8.053414e-10	-1.390837e+01	-5.616080e+01
1.420000e-06	-1.952678e-06	-7.939538e-10	-1.360307e+01	-5.543491e+01
1.430000e-06	-1.908804e-06	-7.842155e-10	-1.329743e+01	-5.470001e+01
1.440000e-06	-1.864877e-06	-7.734256e-10	-1.299142e+01	-5.395582e+01
1.450000e-06	-1.820786e-06	-7.595912e-10	-1.268427e+01	-5.320209e+01
1.460000e-06	-1.776541e-06	-7.431805e-10	-1.237604e+01	-5.243853e+01
1.470000e-06	-1.732179e-06	-7.268840e-10	-1.206700e+01	-5.166485e+01
1.480000e-06	-1.687652e-06	-7.095895e-10	-1.175681e+01	-5.088074e+01
1.490000e-06	-1.642999e-06	-6.938811e-10	-1.144573e+01	-5.008589e+01
1.500000e-06	-1.598230e-06	-6.823094e-10	-1.113386e+01	-4.927997e+01
1.510000e-06	-1.553323e-06	-6.718727e-10	-1.082102e+01	-4.846262e+01
1.520000e-06	-1.508318e-06	-6.621232e-10	-1.050750e+01	-4.763349e+01
1.530000e-06	-1.463246e-06	-6.504710e-10	-1.019351e+01	-4.679221e+01
1.540000e-06	-1.417974e-06	-6.374542e-10	-9.878125e+00	-4.593842e+01
1.550000e-06	-1.372605e-06	-6.211012e-10	-9.562069e+00	-4.507171e+01
1.560000e-06	-1.327253e-06	-6.004135e-10	-9.246132e+00	-4.419170e+01
1.570000e-06	-1.281766e-06	-5.805257e-10	-8.929253e+00	-4.329798e+01
1.580000e-06	-1.236222e-06	-5.619988e-10	-8.611974e+00	-4.239016e+01
1.590000e-06	-1.190630e-06	-5.482013e-10	-8.294363e+00	-4.146784e+01
1.600000e-06	-1.144928e-06	-5.381850e-10	-7.975990e+00	-4.053060e+01
1.610000e-06	-1.099134e-06	-5.285466e-10	-7.656972e+00	-3.957805e+01
1.620000e-06	-1.053195e-06	-5.158240e-10	-7.336947e+00	-3.860980e+01
1.630000e-06	-1.007215e-06	-5.035296e-10	-7.016626e+00	-3.762547e+01
1.640000e-06	-9.613132e-07	-4.904262e-10	-6.696861e+00	-3.662470e+01
1.650000e-06	-9.153189e-07	-4.737756e-10	-6.376448e+00	-3.560713e+01
1.660000e-06	-8.691515e-07	-4.546754e-10	-6.054829e+00	-3.457242e+01
1.670000e-06	-8.229042e-07	-4.350428e-10	-5.732653e+00	-3.352029e+01
1.680000e-06	-7.766398e-07	-4.154220e-10	-5.410358e+00	-3.245044e+01
1.690000e-06	-7.303144e-07	-3.983224e-10	-5.087638e+00	-3.136262e+01
1.700000e-06	-6.839051e-07	-3.855807e-10	-4.764334e+00	-3.025663e+01
1.710000e-06	-6.374731e-07	-3.749810e-10	-4.440872e+00	-2.913228e+01
1.720000e-06	-5.910868e-07	-3.620848e-10	-4.117728e+00	-2.798944e+01
1.730000e-06	-5.446412e-07	-3.463674e-10	-3.794171e+00	-2.682803e+01
1.740000e-06	-4.980773e-07	-3.248572e-10	-3.469790e+00	-2.564799e+01
1.750000e-06	-4.514959e-07	-2.995745e-10	-3.145286e+00	-2.444933e+01
1.760000e-06	-4.049333e-07	-2.775283e-10	-2.820914e+00	-2.323212e+01
1.770000e-06	-3.583605e-07	-2.608227e-10	-2.496471e+00	-2.199647e+01
1.780000e-06	-3.117750e-07	-2.489265e-10	-2.171939e+00	-2.074256e+01
1.790000e-06	-2.651587e-07	-2.380965e-10	-1.847193e+00	-1.947061e+01
1.800000e-06	-2.185924e-07	-2.241343e-10	-1.522795e+00	-1.818093e+01
1.810000e-06	-1.720402e-07	-2.053829e-10	-1.198495e+00	-1.687387e+01
1.820000e-06	-1.254255e-07	-1.845274e-10	-8.737600e-01	-1.554985e+01
1.830000e-06	-7.878331e-08	-1.637973e-10	-5.488335e-01	-1.420935e+01
1.840000e-06	-3.206657e-08	-1.451209e-10	-2.233875e-01	-1.285292e+01
1.850000e-06	1.466977e-08	-1.282273e-10	1.021950e-01	-1.148116e+01
1.860000e-06	6.140865e-08	-1.120896e-10	4.277952e-01	-1.009475e+01
1.870000e-06	1.081875e-07	-9.592422e-11	7.536736e-01	-8.694421e+00
1.880000e-06	1.549960e-07	-7.776401e-11	1.079759e+00	-7.280955e+00
1.890000e-06	2.016942e-07	-5.581362e-11	1.405076e+00	-5.855199e+00
1.900000e-06	2.483277e-07	-3.197856e-11	1.729942e+00	-4.418051e+00
1.910000e-06	2.949675e-07	-8.252206e-12	2.054852e+00	-2.970461e+00
1.920000e-06	3.415746e-07	1.256957e-11	2.379534e+00	-1.513425e+00
1.930000e-06	3.881642e-07	3.099192e-11	2.704094e+00	-4.798163e-02
1.940000e-06	4.347218e-07	4.737919e-11	3.028432e+00	1.424789e+00
1.950000e-06	4.812750e-07	6.461279e-11	3.352739e+00	2.903774e+00
1.960000e-06	5.278017e-07	8.450437e-11	3.676861e+00	4.387828e+00
1.970000e-06	5.742337e-07	1.058382e-10	4.000323e+00	5.875783e+00
1.980000e-06	6.206281e-07	1.287725e-10	4.323523e+00	7.366447e+00
1.990000e-06	6.669877e-07	1.529339e-10	4.646482e+00	8.858617e+00
2.000000e-06	7.132861e-07	1.749594e-10	4.969013e+00	1.035108e+01
2.010000e-06	7.595292e-07	1.931378e-10	5.291160e+00	1.184261e+01
2.020000e-06	8.056997e-07	2.119642e-10	5.612800e+00	1.333199e+01
2.030000e-06	8.518955e-07	2.339843e-10	5.934617e+00	1.481801e+01
2.040000e-06	8.980464e-07	2.562873e-10	6.256122e+00	1.629948e+01
2.050000e-06	9.440538e-07	2.767790e-10	6.576626e+00	1.777521e+01
2.060000e-06	9.900087e-07	2.962568e-10	6.896764e+00	1.924404e+01
2.070000e-06	1.035904e-06	3.165435e-10	7.216491e+00	2.070483e+01
2.080000e-06	1.081671e-06	3.388574e-10	7.535320e+00	2.215650e+01
2.090000e-06	1.127333e-06	3.614979e-10	7.853419e+00	2.359798e+01
2.100000e-06	1.172940e-06	3.840833e-10	8.171129e+00	2.502824e+01
2.110000e-06	1.218530e-06	4.050556e-10	8.488730e+00	2.644632e+01
2.120000e-06	1.264038e-06	4.219354e-10	8.805752e+00	2.785128e+01
2.130000e-06	1.309439e-06	4.367875e-10	9.122033e+00	2.924226e+01
2.140000e-06	1.354739e-06	4.538566e-10	9.437610e+00	3.061843e+01
2.150000e-06	1.399928e-06	4.738369e-10	9.752410e+00	3.197903e+01
2.160000e-06	1.445032e-06	4.949109e-10	1.006662e+01	3.332336e+01
2.170000e-06	1.489983e-06	5.153773e-10	1.037977e+01	3.465078e+01
2.180000e-06	1.534825e-06	5.371015e-10	1.069216e+01	3.596071e+01
2.190000e-06	1.579552e-06	5.590829e-10	1.100374e+01	3.725264e+01
2.200000e-06	1.624108e-06	5.776234e-10	1.131414e+01	3.852613e+01
2.210000e-06	1.668560e-06	5.926992e-10	1.162380e+01	3.978077e+01
2.220000e-06	1.712951e-06	6.070016e-10	1.193305e+01	4.101625e+01
2.230000e-06	1.757279e-06	6.224541e-10	1.224185e+01	4.223231e+01
2.240000e-06	1.801427e-06	6.379449e-10	1.254940e+01	4.342875e+01
2.250000e-06	1.845408e-06	6.528685e-10	1.285579e+01	4.460542e+01
2.260000e-06	1.889389e-06	6.682078e-10	1.316218e+01	4.576225e+01
2.270000e-06	1.933348e-06	6.855766e-10	1.346841e+01	4.689919e+01
2.280000e-06	1.977203e-06	7.062935e-10	1.377392e+01	4.801628e+01
2.290000e-06	2.020989e-06	7.259284e-10	1.407895e+01	4.911358e+01
2.300000e-06	2.064724e-06	7.403553e-10	1.438362e+01	5.019122e+01
2.310000e-06	2.108399e-06	7.511131e-10	1.468788e+01	5.124935e+01
2.320000e-06	2.151988e-06	7.620931e-10	1.499154e+01	5.228818e+01
2.330000e-06	2.195434e-06	7.753622e-10	1.529420e+01	5.330794e+01
2.340000e-06	2.238682e-06	7.902000e-10	1.559548e+01	5.430890e+01
2.350000e-06	2.281796e-06	8.069592e-10	1.589583e+01	5.529135e+01
2.360000e-06	2.324762e-06	8.258916e-10	1.619515e+01	5.625562e+01
2.370000e-06	2.367401e-06	8.441637e-10	1.649218e+01	5.720204e+01
2.380000e-06	2.409632e-06	8.578281e-10	1.678638e+01	5.813098e+01
2.390000e-06	2.451468e-06	8.681156e-10	1.707783e+01	5.904280e+01
2.400000e-06	2.493046e-06	8.775502e-10	1.736747e+01	5.993789e+01
2.410000e-06	2.534275e-06	8.871392e-10	1.765469e+01	6.081664e+01
2.420000e-06	2.575074e-06	8.978029e-10	1.793891e+01	6.167944e+01
2.430000e-06	2.615694e-06	9.113394e-10	1.822188e+01	6.252668e+01
2.440000e-06	2.656208e-06	9.275551e-10	1.850412e+01	6.335876e+01
2.450000e-06	2.696572e-06	9.427907e-10	1.878531e+01	6.417605e+01
2.460000e-06	2.736780e-06	9.546073e-10	1.906542e+01	6.497894e+01
2.470000e-06	2.776787e-06	9.662688e-10	1.934412e+01	6.576781e+01
2.480000e-06	2.816632e-06	9.782413e-10	1.962169e+01	6.654300e+01
2.490000e-06	2.856344e-06	9.884844e-10	1.989834e+01	6.730487e+01
2.500000e-06	2.895924e-06	9.986353e-10	2.017407e+01	6.805376e+01
2.510000e-06	2.935388e-06	1.011032e-09	2.044899e+01	6.878998e+01
2.520000e-06	2.974673e-06	1.024464e-09	2.072267e+01	6.951384e+01
2.530000e-06	3.013812e-06	1.036401e-09	2.099532e+01	7.022564e+01
2.540000e-06	3.052768e-06	1.046644e-09	2.126671e+01	7.092565e+01
2.550000e-06	3.091340e-06	1.055462e-09	2.153541e+01	7.161414e+01
2.560000e-06	3.129598e-06	1.063530e-09	2.180193e+01	7.229135e+01
2.570000e-06	3.167697e-06	1.072682e-09	2.206734e+01	7.295751e+01
2.580000e-06	3.205570e-06	1.082958e-09	2.233118e+01	7.361285e+01
2.590000e-06	3.243281e-06	1.092775e-09	2.259389e+01	7.425758e+01
2.600000e-06	3.280837e-06	1.100726e-09	2.285552e+01	7.489188e+01
2.610000e-06	3.318221e-06	1.107738e-09	2.311595e+01	7.551596e+01
2.620000e-06	3.355456e-06	1.113727e-09	2.337534e+01	7.612998e+01
2.630000e-06	3.392347e-06	1.117696e-09	2.363234e+01	7.673412e+01
2.640000e-06	3.428878e-06	1.123480e-09	2.388682e+01	7.732854e+01
2.650000e-06	3.465218e-06	1.132339e-09	2.413998e+01	7.791340e+01
2.660000e-06	3.501338e-06	1.141589e-09	2.439160e+01	7.848885e+01
2.670000e-06	3.537261e-06	1.150028e-09	2.464186e+01	7.905505e+01
2.680000e-06	3.573100e-06	1.159029e-09	2.489153e+01	7.961215e+01
2.690000e-06	3.608839e-06	1.168765e-09	2.514050e+01	8.016030e+01
2.700000e-06	3.644464e-06	1.177788e-09	2.538867e+01	8.069965e+01
2.710000e-06	3.679927e-06	1.185894e-09	2.563573e+01	8.123035e+01
2.720000e-06	3.715097e-06	1.194121e-09	2.588073e+01	8.175256e+01
2.730000e-06	3.749839e-06	1.203269e-09	2.612276e+01	8.226644e+01
2.740000e-06	3.784167e-06	1.212851e-09	2.636190e+01	8.277216e+01
2.750000e-06	3.818076e-06	1.220828e-09	2.659812e+01	8.326987e+01
2.760000e-06	3.851559e-06	1.227214e-09	2.683138e+01	8.375976e+01
2.770000e-06	3.884542e-06	1.233351e-09	2.706115e+01	8.424199e+01
2.780000e-06	3.917107e-06	1.241123e-09	2.728801e+01	8.471674e+01
2.790000e-06	3.949420e-06	1.251042e-09	2.751311e+01	8.518420e+01
2.800000e-06	3.981464e-06	1.260913e-09	2.773634e+01	8.564455e+01
2.810000e-06	4.013305e-06	1.269440e-09	2.795816e+01	8.609798e+01
2.820000e-06	4.045015e-06	1.277388e-09	2.817906e+01	8.654467e+01
2.830000e-06	4.076553e-06	1.284117e-09	2.839877e+01	8.698483e+01
2.840000e-06	4.107809e-06	1.289360e-09	2.861651e+01	8.741863e+01
2.850000e-06	4.138878e-06	1.294915e-09	2.883295e+01	8.784626e+01
2.860000e-06	4.169640e-06	1.303380e-09	2.904724e+01	8.826792e+01
2.870000e-06	4.199980e-06	1.312261e-09	2.925860e+01	8.868378e+01
2.880000e-06	4.230072e-06	1.319172e-09	2.946823e+01	8.909401e+01
2.890000e-06	4.259913e-06	1.327108e-09	2.967612e+01	8.949879e+01
2.900000e-06	4.289444e-06	1.337370e-09	2.988184e+01	8.989828e+01
