# Temperatura_=_-3.09
# Concentracion g/m^3_=_1620.0
# C_Vs_to_Am_M_A/Vsm_=_65563218390.804596
# pendiente_HvsI_1/m_=_3716.3
# ordenada_HvsI_A/m_=_1297.0
# frecuencia_Hz_=_135110.2509756251

Tiempo_(s)	Campo_(V.s)	Magnetizacion_(V.s)	Campo_(kA/m)	Magnetizacion_(A/m)
0.000000e+00	-5.512923e-06	-7.352828e-10	-3.836299e+01	-5.054993e+01
1.000000e-08	-5.513075e-06	-7.336820e-10	-3.836405e+01	-5.052172e+01
2.000000e-08	-5.512906e-06	-7.342546e-10	-3.836287e+01	-5.049560e+01
3.000000e-08	-5.512334e-06	-7.328032e-10	-3.835889e+01	-5.047137e+01
4.000000e-08	-5.511280e-06	-7.278236e-10	-3.835156e+01	-5.044888e+01
5.000000e-08	-5.509728e-06	-7.238286e-10	-3.834076e+01	-5.042793e+01
6.000000e-08	-5.507548e-06	-7.271986e-10	-3.832559e+01	-5.040832e+01
7.000000e-08	-5.504714e-06	-7.427424e-10	-3.830586e+01	-5.038982e+01
8.000000e-08	-5.501428e-06	-7.466265e-10	-3.828300e+01	-5.037223e+01
9.000000e-08	-5.497743e-06	-7.396135e-10	-3.825735e+01	-5.035532e+01
1.000000e-07	-5.493665e-06	-7.265667e-10	-3.822898e+01	-5.033885e+01
1.100000e-07	-5.489253e-06	-7.257981e-10	-3.819828e+01	-5.032259e+01
1.200000e-07	-5.484617e-06	-7.112742e-10	-3.816601e+01	-5.030631e+01
1.300000e-07	-5.479643e-06	-7.605646e-10	-3.813140e+01	-5.028976e+01
1.400000e-07	-5.474221e-06	-7.248074e-10	-3.809368e+01	-5.027273e+01
1.500000e-07	-5.468565e-06	-7.251761e-10	-3.805431e+01	-5.025497e+01
1.600000e-07	-5.462586e-06	-6.959379e-10	-3.801271e+01	-5.023628e+01
1.700000e-07	-5.456186e-06	-7.571551e-10	-3.796817e+01	-5.021642e+01
1.800000e-07	-5.449329e-06	-7.664962e-10	-3.792046e+01	-5.019520e+01
1.900000e-07	-5.442119e-06	-7.254236e-10	-3.787029e+01	-5.017242e+01
2.000000e-07	-5.434666e-06	-7.161410e-10	-3.781842e+01	-5.014788e+01
2.100000e-07	-5.426895e-06	-7.542495e-10	-3.776435e+01	-5.012141e+01
2.200000e-07	-5.418817e-06	-8.075744e-10	-3.770813e+01	-5.009286e+01
2.300000e-07	-5.410521e-06	-7.618333e-10	-3.765040e+01	-5.006206e+01
2.400000e-07	-5.401685e-06	-7.529655e-10	-3.758892e+01	-5.002888e+01
2.500000e-07	-5.392035e-06	-7.605176e-10	-3.752176e+01	-4.999321e+01
2.600000e-07	-5.381759e-06	-7.997935e-10	-3.745025e+01	-4.995493e+01
2.700000e-07	-5.370982e-06	-7.446179e-10	-3.737526e+01	-4.991396e+01
2.800000e-07	-5.359736e-06	-7.581769e-10	-3.729701e+01	-4.987020e+01
2.900000e-07	-5.348126e-06	-7.720950e-10	-3.721621e+01	-4.982362e+01
3.000000e-07	-5.336197e-06	-7.853350e-10	-3.713320e+01	-4.977414e+01
3.100000e-07	-5.323784e-06	-7.299537e-10	-3.704682e+01	-4.972175e+01
3.200000e-07	-5.310922e-06	-7.607310e-10	-3.695732e+01	-4.966642e+01
3.300000e-07	-5.297664e-06	-7.730486e-10	-3.686506e+01	-4.960815e+01
3.400000e-07	-5.284058e-06	-7.672750e-10	-3.677038e+01	-4.954694e+01
3.500000e-07	-5.270036e-06	-7.342703e-10	-3.667280e+01	-4.948280e+01
3.600000e-07	-5.255528e-06	-7.616162e-10	-3.657185e+01	-4.941578e+01
3.700000e-07	-5.240569e-06	-7.627187e-10	-3.646775e+01	-4.934590e+01
3.800000e-07	-5.225112e-06	-7.584608e-10	-3.636019e+01	-4.927321e+01
3.900000e-07	-5.209060e-06	-7.543120e-10	-3.624849e+01	-4.919777e+01
4.000000e-07	-5.192682e-06	-7.628288e-10	-3.613452e+01	-4.911965e+01
4.100000e-07	-5.176052e-06	-7.525699e-10	-3.601879e+01	-4.903890e+01
4.200000e-07	-5.158972e-06	-7.438816e-10	-3.589994e+01	-4.895561e+01
4.300000e-07	-5.141555e-06	-7.594112e-10	-3.577874e+01	-4.886986e+01
4.400000e-07	-5.123878e-06	-7.641817e-10	-3.565573e+01	-4.878171e+01
4.500000e-07	-5.105855e-06	-7.646218e-10	-3.553031e+01	-4.869126e+01
4.600000e-07	-5.087338e-06	-7.471708e-10	-3.540145e+01	-4.859859e+01
4.700000e-07	-5.068375e-06	-7.630808e-10	-3.526950e+01	-4.850378e+01
4.800000e-07	-5.049141e-06	-7.594589e-10	-3.513566e+01	-4.840691e+01
4.900000e-07	-5.029682e-06	-7.539694e-10	-3.500024e+01	-4.830806e+01
5.000000e-07	-5.010032e-06	-7.388710e-10	-3.486351e+01	-4.820732e+01
5.100000e-07	-4.990108e-06	-7.636862e-10	-3.472486e+01	-4.810476e+01
5.200000e-07	-4.969748e-06	-7.525061e-10	-3.458318e+01	-4.800045e+01
5.300000e-07	-4.949020e-06	-7.519715e-10	-3.443894e+01	-4.789446e+01
5.400000e-07	-4.928004e-06	-7.541238e-10	-3.429269e+01	-4.778685e+01
5.500000e-07	-4.906653e-06	-7.598670e-10	-3.414412e+01	-4.767769e+01
5.600000e-07	-4.884891e-06	-7.218693e-10	-3.399268e+01	-4.756703e+01
5.700000e-07	-4.862872e-06	-7.350463e-10	-3.383945e+01	-4.745492e+01
5.800000e-07	-4.840534e-06	-7.522648e-10	-3.368401e+01	-4.734140e+01
5.900000e-07	-4.817739e-06	-7.446316e-10	-3.352539e+01	-4.722652e+01
6.000000e-07	-4.794697e-06	-7.253042e-10	-3.336504e+01	-4.711032e+01
6.100000e-07	-4.771450e-06	-7.507835e-10	-3.320327e+01	-4.699282e+01
6.200000e-07	-4.747919e-06	-7.383384e-10	-3.303952e+01	-4.687405e+01
6.300000e-07	-4.724105e-06	-7.148321e-10	-3.287381e+01	-4.675404e+01
6.400000e-07	-4.699946e-06	-7.191796e-10	-3.270570e+01	-4.663281e+01
6.500000e-07	-4.675323e-06	-7.304426e-10	-3.253435e+01	-4.651037e+01
6.600000e-07	-4.650198e-06	-7.096498e-10	-3.235952e+01	-4.638675e+01
6.700000e-07	-4.624623e-06	-7.134800e-10	-3.218154e+01	-4.626194e+01
6.800000e-07	-4.598601e-06	-7.305987e-10	-3.200046e+01	-4.613596e+01
6.900000e-07	-4.572177e-06	-7.197396e-10	-3.181659e+01	-4.600883e+01
7.000000e-07	-4.545353e-06	-7.054233e-10	-3.162992e+01	-4.588054e+01
7.100000e-07	-4.518135e-06	-7.087166e-10	-3.144052e+01	-4.575110e+01
7.200000e-07	-4.490647e-06	-7.049924e-10	-3.124924e+01	-4.562053e+01
7.300000e-07	-4.462981e-06	-6.882690e-10	-3.105672e+01	-4.548881e+01
7.400000e-07	-4.435136e-06	-6.914738e-10	-3.086295e+01	-4.535598e+01
7.500000e-07	-4.407077e-06	-6.948748e-10	-3.066770e+01	-4.522201e+01
7.600000e-07	-4.378771e-06	-6.912864e-10	-3.047073e+01	-4.508694e+01
7.700000e-07	-4.350126e-06	-6.819473e-10	-3.027139e+01	-4.495076e+01
7.800000e-07	-4.321119e-06	-6.878351e-10	-3.006954e+01	-4.481348e+01
7.900000e-07	-4.291796e-06	-6.795711e-10	-2.986549e+01	-4.467511e+01
8.000000e-07	-4.262193e-06	-6.722635e-10	-2.965949e+01	-4.453567e+01
8.100000e-07	-4.232305e-06	-6.628480e-10	-2.945150e+01	-4.439515e+01
8.200000e-07	-4.202080e-06	-6.649150e-10	-2.924118e+01	-4.425359e+01
8.300000e-07	-4.171576e-06	-6.574312e-10	-2.902891e+01	-4.411098e+01
8.400000e-07	-4.140838e-06	-6.594278e-10	-2.881501e+01	-4.396734e+01
8.500000e-07	-4.109790e-06	-6.546019e-10	-2.859896e+01	-4.382268e+01
8.600000e-07	-4.078464e-06	-6.539798e-10	-2.838097e+01	-4.367701e+01
8.700000e-07	-4.046931e-06	-6.451528e-10	-2.816153e+01	-4.353034e+01
8.800000e-07	-4.015240e-06	-6.433435e-10	-2.794101e+01	-4.338268e+01
8.900000e-07	-3.983367e-06	-6.371466e-10	-2.771921e+01	-4.323403e+01
9.000000e-07	-3.951279e-06	-6.344329e-10	-2.749592e+01	-4.308439e+01
9.100000e-07	-3.918932e-06	-6.297428e-10	-2.727082e+01	-4.293377e+01
9.200000e-07	-3.886200e-06	-6.288025e-10	-2.704305e+01	-4.278217e+01
9.300000e-07	-3.853028e-06	-6.253436e-10	-2.681222e+01	-4.262956e+01
9.400000e-07	-3.819424e-06	-6.243415e-10	-2.657838e+01	-4.247594e+01
9.500000e-07	-3.785393e-06	-6.191549e-10	-2.634156e+01	-4.232129e+01
9.600000e-07	-3.750923e-06	-6.128674e-10	-2.610170e+01	-4.216559e+01
9.700000e-07	-3.716126e-06	-6.064641e-10	-2.585955e+01	-4.200880e+01
9.800000e-07	-3.681047e-06	-6.018061e-10	-2.561544e+01	-4.185088e+01
9.900000e-07	-3.645732e-06	-6.010931e-10	-2.536970e+01	-4.169179e+01
1.000000e-06	-3.610193e-06	-6.023578e-10	-2.512239e+01	-4.153148e+01
1.010000e-06	-3.574433e-06	-6.034104e-10	-2.487355e+01	-4.136988e+01
1.020000e-06	-3.538523e-06	-6.016271e-10	-2.462365e+01	-4.120694e+01
1.030000e-06	-3.502433e-06	-6.004937e-10	-2.437251e+01	-4.104256e+01
1.040000e-06	-3.466184e-06	-5.938982e-10	-2.412027e+01	-4.087667e+01
1.050000e-06	-3.429708e-06	-5.889073e-10	-2.386644e+01	-4.070918e+01
1.060000e-06	-3.392972e-06	-5.825264e-10	-2.361081e+01	-4.053998e+01
1.070000e-06	-3.355979e-06	-5.801974e-10	-2.335338e+01	-4.036896e+01
1.080000e-06	-3.318708e-06	-5.759768e-10	-2.309403e+01	-4.019601e+01
1.090000e-06	-3.281248e-06	-5.765064e-10	-2.283335e+01	-4.002101e+01
1.100000e-06	-3.243576e-06	-5.746660e-10	-2.257120e+01	-3.984383e+01
1.110000e-06	-3.205633e-06	-5.741317e-10	-2.230716e+01	-3.966432e+01
1.120000e-06	-3.167428e-06	-5.688741e-10	-2.204130e+01	-3.948236e+01
1.130000e-06	-3.128988e-06	-5.657111e-10	-2.177381e+01	-3.929778e+01
1.140000e-06	-3.090288e-06	-5.592463e-10	-2.150451e+01	-3.911043e+01
1.150000e-06	-3.051406e-06	-5.557226e-10	-2.123393e+01	-3.892017e+01
1.160000e-06	-3.012359e-06	-5.512409e-10	-2.096222e+01	-3.872682e+01
1.170000e-06	-2.973173e-06	-5.495825e-10	-2.068953e+01	-3.853022e+01
1.180000e-06	-2.933877e-06	-5.471056e-10	-2.041608e+01	-3.833021e+01
1.190000e-06	-2.894377e-06	-5.450704e-10	-2.014121e+01	-3.812662e+01
1.200000e-06	-2.854737e-06	-5.400061e-10	-1.986537e+01	-3.791927e+01
1.210000e-06	-2.814980e-06	-5.374836e-10	-1.958871e+01	-3.770801e+01
1.220000e-06	-2.775099e-06	-5.341410e-10	-1.931119e+01	-3.749265e+01
1.230000e-06	-2.735063e-06	-5.300822e-10	-1.903259e+01	-3.727303e+01
1.240000e-06	-2.694857e-06	-5.236556e-10	-1.875281e+01	-3.704898e+01
1.250000e-06	-2.654507e-06	-5.193128e-10	-1.847202e+01	-3.682033e+01
1.260000e-06	-2.613830e-06	-5.164269e-10	-1.818896e+01	-3.658691e+01
1.270000e-06	-2.572716e-06	-5.107643e-10	-1.790286e+01	-3.634858e+01
1.280000e-06	-2.531249e-06	-5.072767e-10	-1.761430e+01	-3.610515e+01
1.290000e-06	-2.489571e-06	-5.037914e-10	-1.732428e+01	-3.585649e+01
1.300000e-06	-2.447660e-06	-4.999378e-10	-1.703263e+01	-3.560242e+01
1.310000e-06	-2.405481e-06	-4.943728e-10	-1.673911e+01	-3.534279e+01
1.320000e-06	-2.363070e-06	-4.887950e-10	-1.644399e+01	-3.507747e+01
1.330000e-06	-2.320416e-06	-4.833611e-10	-1.614717e+01	-3.480629e+01
1.340000e-06	-2.277521e-06	-4.789413e-10	-1.584867e+01	-3.452911e+01
1.350000e-06	-2.234342e-06	-4.740623e-10	-1.554820e+01	-3.424579e+01
1.360000e-06	-2.191005e-06	-4.690177e-10	-1.524663e+01	-3.395617e+01
1.370000e-06	-2.147548e-06	-4.649614e-10	-1.494422e+01	-3.366013e+01
1.380000e-06	-2.103987e-06	-4.636995e-10	-1.464109e+01	-3.335752e+01
1.390000e-06	-2.060415e-06	-4.597766e-10	-1.433789e+01	-3.304819e+01
1.400000e-06	-2.016748e-06	-4.555725e-10	-1.403402e+01	-3.273199e+01
1.410000e-06	-1.972972e-06	-4.502437e-10	-1.372940e+01	-3.240879e+01
1.420000e-06	-1.929111e-06	-4.452694e-10	-1.342418e+01	-3.207843e+01
1.430000e-06	-1.885135e-06	-4.379920e-10	-1.311816e+01	-3.174077e+01
1.440000e-06	-1.841024e-06	-4.310858e-10	-1.281121e+01	-3.139563e+01
1.450000e-06	-1.796787e-06	-4.243779e-10	-1.250337e+01	-3.104288e+01
1.460000e-06	-1.752442e-06	-4.193602e-10	-1.219479e+01	-3.068233e+01
1.470000e-06	-1.708008e-06	-4.124565e-10	-1.188558e+01	-3.031381e+01
1.480000e-06	-1.663484e-06	-4.036666e-10	-1.157575e+01	-2.993716e+01
1.490000e-06	-1.618832e-06	-3.944087e-10	-1.126503e+01	-2.955218e+01
1.500000e-06	-1.574003e-06	-3.882381e-10	-1.095308e+01	-2.915867e+01
1.510000e-06	-1.529026e-06	-3.846413e-10	-1.064009e+01	-2.875645e+01
1.520000e-06	-1.483944e-06	-3.820849e-10	-1.032638e+01	-2.834529e+01
1.530000e-06	-1.438790e-06	-3.783199e-10	-1.001217e+01	-2.792499e+01
1.540000e-06	-1.393528e-06	-3.730472e-10	-9.697200e+00	-2.749531e+01
1.550000e-06	-1.348116e-06	-3.644304e-10	-9.381186e+00	-2.705603e+01
1.560000e-06	-1.302589e-06	-3.555753e-10	-9.064375e+00	-2.660691e+01
1.570000e-06	-1.257008e-06	-3.473077e-10	-8.747193e+00	-2.614769e+01
1.580000e-06	-1.211395e-06	-3.423820e-10	-8.429784e+00	-2.567813e+01
1.590000e-06	-1.165713e-06	-3.399079e-10	-8.111892e+00	-2.519796e+01
1.600000e-06	-1.119941e-06	-3.373808e-10	-7.793377e+00	-2.470693e+01
1.610000e-06	-1.074097e-06	-3.312020e-10	-7.474361e+00	-2.420476e+01
1.620000e-06	-1.028176e-06	-3.241723e-10	-7.154807e+00	-2.369118e+01
1.630000e-06	-9.822143e-07	-3.203757e-10	-6.834973e+00	-2.316594e+01
1.640000e-06	-9.362297e-07	-3.168978e-10	-6.514978e+00	-2.262875e+01
1.650000e-06	-8.901534e-07	-3.112059e-10	-6.194345e+00	-2.207935e+01
1.660000e-06	-8.439752e-07	-3.020911e-10	-5.873003e+00	-2.151748e+01
1.670000e-06	-7.977383e-07	-2.915889e-10	-5.551253e+00	-2.094289e+01
1.680000e-06	-7.514072e-07	-2.794038e-10	-5.228846e+00	-2.035532e+01
1.690000e-06	-7.049019e-07	-2.710735e-10	-4.905228e+00	-1.975455e+01
1.700000e-06	-6.583339e-07	-2.630542e-10	-4.581173e+00	-1.914035e+01
1.710000e-06	-6.118064e-07	-2.561159e-10	-4.257401e+00	-1.851251e+01
1.720000e-06	-5.652867e-07	-2.453388e-10	-3.933683e+00	-1.787084e+01
1.730000e-06	-5.187504e-07	-2.313435e-10	-3.609848e+00	-1.721518e+01
1.740000e-06	-4.721456e-07	-2.171624e-10	-3.285538e+00	-1.654537e+01
1.750000e-06	-4.254657e-07	-2.037750e-10	-2.960705e+00	-1.586130e+01
1.760000e-06	-3.787796e-07	-1.928404e-10	-2.635829e+00	-1.516288e+01
1.770000e-06	-3.321264e-07	-1.859435e-10	-2.311181e+00	-1.445003e+01
1.780000e-06	-2.855017e-07	-1.810859e-10	-1.986732e+00	-1.372273e+01
1.790000e-06	-2.388619e-07	-1.743722e-10	-1.662178e+00	-1.298097e+01
1.800000e-06	-1.921431e-07	-1.604324e-10	-1.337074e+00	-1.222480e+01
1.810000e-06	-1.453491e-07	-1.440616e-10	-1.011446e+00	-1.145428e+01
1.820000e-06	-9.851448e-08	-1.302542e-10	-6.855365e-01	-1.066954e+01
1.830000e-06	-5.175260e-08	-1.218747e-10	-3.601328e-01	-9.870724e+00
1.840000e-06	-5.023811e-09	-1.131291e-10	-3.495939e-02	-9.058029e+00
1.850000e-06	4.175353e-08	-1.029572e-10	2.905519e-01	-8.231697e+00
1.860000e-06	8.850827e-08	-9.404357e-11	6.159059e-01	-7.392010e+00
1.870000e-06	1.353224e-07	-8.155407e-11	9.416734e-01	-6.539296e+00
1.880000e-06	1.821717e-07	-6.439059e-11	1.267686e+00	-5.673927e+00
1.890000e-06	2.289444e-07	-4.661899e-11	1.593164e+00	-4.796320e+00
1.900000e-06	2.756252e-07	-3.189554e-11	1.918004e+00	-3.906936e+00
1.910000e-06	3.223162e-07	-2.106564e-11	2.242914e+00	-3.006280e+00
1.920000e-06	3.690325e-07	-1.334659e-11	2.568001e+00	-2.094900e+00
1.930000e-06	4.156957e-07	-6.732612e-12	2.892718e+00	-1.173386e+00
1.940000e-06	4.623598e-07	3.684036e-12	3.217441e+00	-2.423689e-01
1.950000e-06	5.089828e-07	1.842321e-11	3.541878e+00	6.974813e-01
1.960000e-06	5.555063e-07	3.405975e-11	3.865623e+00	1.645458e+00
1.970000e-06	6.019842e-07	4.955650e-11	4.189051e+00	2.600818e+00
1.980000e-06	6.483991e-07	6.446481e-11	4.512040e+00	3.562788e+00
1.990000e-06	6.947260e-07	8.204566e-11	4.834417e+00	4.530563e+00
2.000000e-06	7.410386e-07	9.376604e-11	5.156694e+00	5.503310e+00
2.010000e-06	7.872980e-07	1.048507e-10	5.478601e+00	6.480172e+00
2.020000e-06	8.334443e-07	1.175872e-10	5.799721e+00	7.460272e+00
2.030000e-06	8.796072e-07	1.325447e-10	6.120957e+00	8.442714e+00
2.040000e-06	9.257758e-07	1.473377e-10	6.442232e+00	9.426587e+00
2.050000e-06	9.717863e-07	1.641314e-10	6.762407e+00	1.041097e+01
2.060000e-06	1.017647e-06	1.814689e-10	7.081540e+00	1.139493e+01
2.070000e-06	1.063500e-06	1.976603e-10	7.400620e+00	1.237754e+01
2.080000e-06	1.109301e-06	2.124411e-10	7.719336e+00	1.335787e+01
2.090000e-06	1.155017e-06	2.252958e-10	8.037462e+00	1.433498e+01
2.100000e-06	1.200649e-06	2.387760e-10	8.355001e+00	1.530795e+01
2.110000e-06	1.246218e-06	2.515016e-10	8.672108e+00	1.627588e+01
2.120000e-06	1.291742e-06	2.655840e-10	8.988895e+00	1.723786e+01
2.130000e-06	1.337132e-06	2.815102e-10	9.304753e+00	1.819301e+01
2.140000e-06	1.382434e-06	2.971308e-10	9.619997e+00	1.914048e+01
2.150000e-06	1.427663e-06	3.122869e-10	9.934737e+00	2.007942e+01
2.160000e-06	1.472784e-06	3.262862e-10	1.024872e+01	2.100904e+01
2.170000e-06	1.517723e-06	3.365775e-10	1.056144e+01	2.192856e+01
2.180000e-06	1.562600e-06	3.485103e-10	1.087373e+01	2.283722e+01
2.190000e-06	1.607436e-06	3.606452e-10	1.118573e+01	2.373432e+01
2.200000e-06	1.652031e-06	3.724286e-10	1.149605e+01	2.461919e+01
2.210000e-06	1.696477e-06	3.848528e-10	1.180534e+01	2.549119e+01
2.220000e-06	1.740821e-06	3.976998e-10	1.211392e+01	2.634973e+01
2.230000e-06	1.785068e-06	4.095334e-10	1.242182e+01	2.719425e+01
2.240000e-06	1.829266e-06	4.167339e-10	1.272939e+01	2.802424e+01
2.250000e-06	1.873308e-06	4.234904e-10	1.303586e+01	2.883925e+01
2.260000e-06	1.917203e-06	4.320025e-10	1.334132e+01	2.963886e+01
2.270000e-06	1.961025e-06	4.433515e-10	1.364626e+01	3.042268e+01
2.280000e-06	2.004790e-06	4.572652e-10	1.395081e+01	3.119038e+01
2.290000e-06	2.048478e-06	4.728869e-10	1.425482e+01	3.194170e+01
2.300000e-06	2.092065e-06	4.862620e-10	1.455813e+01	3.267637e+01
2.310000e-06	2.135554e-06	4.938593e-10	1.486076e+01	3.339422e+01
2.320000e-06	2.178953e-06	5.010770e-10	1.516276e+01	3.409508e+01
2.330000e-06	2.222257e-06	5.073508e-10	1.546410e+01	3.477885e+01
2.340000e-06	2.265434e-06	5.145176e-10	1.576456e+01	3.544546e+01
2.350000e-06	2.308409e-06	5.264355e-10	1.606361e+01	3.609488e+01
2.360000e-06	2.351127e-06	5.424504e-10	1.636088e+01	3.672711e+01
2.370000e-06	2.393640e-06	5.565875e-10	1.665672e+01	3.734220e+01
2.380000e-06	2.435927e-06	5.671886e-10	1.695098e+01	3.794023e+01
2.390000e-06	2.477836e-06	5.752772e-10	1.724261e+01	3.852131e+01
2.400000e-06	2.519228e-06	5.814649e-10	1.753065e+01	3.908559e+01
2.410000e-06	2.560345e-06	5.854206e-10	1.781677e+01	3.963322e+01
2.420000e-06	2.601332e-06	5.916228e-10	1.810199e+01	4.016442e+01
2.430000e-06	2.642013e-06	6.004489e-10	1.838508e+01	4.067940e+01
2.440000e-06	2.682403e-06	6.085821e-10	1.866614e+01	4.117840e+01
2.450000e-06	2.722613e-06	6.133267e-10	1.894595e+01	4.166168e+01
2.460000e-06	2.762687e-06	6.207659e-10	1.922482e+01	4.212952e+01
2.470000e-06	2.802592e-06	6.326676e-10	1.950251e+01	4.258223e+01
2.480000e-06	2.842357e-06	6.454569e-10	1.977922e+01	4.302009e+01
2.490000e-06	2.882034e-06	6.560464e-10	2.005532e+01	4.344344e+01
2.500000e-06	2.921606e-06	6.585940e-10	2.033069e+01	4.385261e+01
2.510000e-06	2.960965e-06	6.581002e-10	2.060458e+01	4.424792e+01
2.520000e-06	3.000119e-06	6.594280e-10	2.087704e+01	4.462972e+01
2.530000e-06	3.039136e-06	6.633221e-10	2.114855e+01	4.499836e+01
2.540000e-06	3.077991e-06	6.701698e-10	2.141893e+01	4.535418e+01
2.550000e-06	3.116622e-06	6.799836e-10	2.168776e+01	4.569754e+01
2.560000e-06	3.154982e-06	6.911268e-10	2.195470e+01	4.602878e+01
2.570000e-06	3.193073e-06	6.991871e-10	2.221976e+01	4.634825e+01
2.580000e-06	3.230938e-06	7.028291e-10	2.248325e+01	4.665631e+01
2.590000e-06	3.268621e-06	7.039762e-10	2.274548e+01	4.695328e+01
2.600000e-06	3.306046e-06	7.037047e-10	2.300591e+01	4.723952e+01
2.610000e-06	3.343270e-06	7.030619e-10	2.326494e+01	4.751535e+01
2.620000e-06	3.380391e-06	7.026723e-10	2.352326e+01	4.778110e+01
2.630000e-06	3.417254e-06	7.081277e-10	2.377978e+01	4.803711e+01
2.640000e-06	3.453825e-06	7.147630e-10	2.403427e+01	4.828368e+01
2.650000e-06	3.490103e-06	7.214862e-10	2.428671e+01	4.852112e+01
2.660000e-06	3.526102e-06	7.262409e-10	2.453722e+01	4.874975e+01
2.670000e-06	3.561987e-06	7.276123e-10	2.478693e+01	4.896986e+01
2.680000e-06	3.597718e-06	7.277167e-10	2.503558e+01	4.918173e+01
2.690000e-06	3.633272e-06	7.302886e-10	2.528299e+01	4.938565e+01
2.700000e-06	3.668740e-06	7.339085e-10	2.552981e+01	4.958191e+01
2.710000e-06	3.704053e-06	7.352062e-10	2.577554e+01	4.977076e+01
2.720000e-06	3.739097e-06	7.384060e-10	2.601940e+01	4.995246e+01
2.730000e-06	3.773831e-06	7.431312e-10	2.626110e+01	5.012728e+01
2.740000e-06	3.808188e-06	7.466994e-10	2.650019e+01	5.029546e+01
2.750000e-06	3.842105e-06	7.473537e-10	2.673621e+01	5.045724e+01
2.760000e-06	3.875547e-06	7.457850e-10	2.696892e+01	5.061286e+01
2.770000e-06	3.908492e-06	7.471498e-10	2.719818e+01	5.076254e+01
2.780000e-06	3.941047e-06	7.514509e-10	2.742471e+01	5.090650e+01
2.790000e-06	3.973307e-06	7.567014e-10	2.764920e+01	5.104495e+01
2.800000e-06	4.005294e-06	7.635205e-10	2.787179e+01	5.117810e+01
2.810000e-06	4.037049e-06	7.675949e-10	2.809277e+01	5.130614e+01
2.820000e-06	4.068614e-06	7.680294e-10	2.831242e+01	5.142928e+01
2.830000e-06	4.100029e-06	7.656887e-10	2.853103e+01	5.154768e+01
2.840000e-06	4.131299e-06	7.653360e-10	2.874863e+01	5.166152e+01
2.850000e-06	4.162257e-06	7.677030e-10	2.896406e+01	5.177098e+01
2.860000e-06	4.192811e-06	7.714787e-10	2.917668e+01	5.187621e+01
2.870000e-06	4.223037e-06	7.755787e-10	2.938701e+01	5.197736e+01
2.880000e-06	4.252928e-06	7.799349e-10	2.959501e+01	5.207457e+01
2.890000e-06	4.282562e-06	7.847231e-10	2.980123e+01	5.216797e+01
2.900000e-06	4.311998e-06	7.876670e-10	3.000607e+01	5.225770e+01
