# Temperatura_=_6.03
# Concentracion g/m^3_=_1620.0
# C_Vs_to_Am_M_A/Vsm_=_65563218390.804596
# pendiente_HvsI_1/m_=_3716.3
# ordenada_HvsI_A/m_=_1297.0
# frecuencia_Hz_=_135091.614975371

Tiempo_(s)	Campo_(V.s)	Magnetizacion_(V.s)	Campo_(kA/m)	Magnetizacion_(A/m)
0.000000e+00	-5.507480e-06	-1.242653e-09	-3.837895e+01	-8.210429e+01
1.000000e-08	-5.507665e-06	-1.241961e-09	-3.838024e+01	-8.207410e+01
2.000000e-08	-5.507596e-06	-1.240263e-09	-3.837976e+01	-8.204785e+01
3.000000e-08	-5.507118e-06	-1.238932e-09	-3.837643e+01	-8.202554e+01
4.000000e-08	-5.506119e-06	-1.235479e-09	-3.836947e+01	-8.200711e+01
5.000000e-08	-5.504632e-06	-1.227440e-09	-3.835911e+01	-8.199245e+01
6.000000e-08	-5.502588e-06	-1.235435e-09	-3.834486e+01	-8.198142e+01
7.000000e-08	-5.499870e-06	-1.260904e-09	-3.832592e+01	-8.197381e+01
8.000000e-08	-5.496550e-06	-1.245003e-09	-3.830279e+01	-8.196939e+01
9.000000e-08	-5.492792e-06	-1.204376e-09	-3.827660e+01	-8.196786e+01
1.000000e-07	-5.488738e-06	-1.290829e-09	-3.824835e+01	-8.196890e+01
1.100000e-07	-5.484444e-06	-1.342496e-09	-3.821843e+01	-8.197213e+01
1.200000e-07	-5.479854e-06	-1.234708e-09	-3.818644e+01	-8.197716e+01
1.300000e-07	-5.475047e-06	-1.106133e-09	-3.815294e+01	-8.198354e+01
1.400000e-07	-5.469955e-06	-1.200613e-09	-3.811746e+01	-8.199080e+01
1.500000e-07	-5.464378e-06	-1.325087e-09	-3.807860e+01	-8.199844e+01
1.600000e-07	-5.458424e-06	-1.268874e-09	-3.803711e+01	-8.200594e+01
1.700000e-07	-5.452071e-06	-1.126119e-09	-3.799283e+01	-8.201277e+01
1.800000e-07	-5.445394e-06	-1.225450e-09	-3.794631e+01	-8.201835e+01
1.900000e-07	-5.438329e-06	-1.331604e-09	-3.789707e+01	-8.202211e+01
2.000000e-07	-5.430845e-06	-1.286622e-09	-3.784492e+01	-8.202349e+01
2.100000e-07	-5.423141e-06	-1.170880e-09	-3.779123e+01	-8.202190e+01
2.200000e-07	-5.415159e-06	-1.224338e-09	-3.773561e+01	-8.201674e+01
2.300000e-07	-5.406782e-06	-1.313939e-09	-3.767723e+01	-8.200746e+01
2.400000e-07	-5.398030e-06	-1.299919e-09	-3.761625e+01	-8.199348e+01
2.500000e-07	-5.388840e-06	-1.234161e-09	-3.755220e+01	-8.197424e+01
2.600000e-07	-5.378884e-06	-1.231404e-09	-3.748283e+01	-8.194921e+01
2.700000e-07	-5.368122e-06	-1.277632e-09	-3.740783e+01	-8.191787e+01
2.800000e-07	-5.356872e-06	-1.265430e-09	-3.732944e+01	-8.187972e+01
2.900000e-07	-5.345310e-06	-1.247976e-09	-3.724887e+01	-8.183431e+01
3.000000e-07	-5.333364e-06	-1.221114e-09	-3.716562e+01	-8.178119e+01
3.100000e-07	-5.321058e-06	-1.260607e-09	-3.707987e+01	-8.171997e+01
3.200000e-07	-5.308411e-06	-1.246913e-09	-3.699174e+01	-8.165029e+01
3.300000e-07	-5.295374e-06	-1.228650e-09	-3.690089e+01	-8.157181e+01
3.400000e-07	-5.281901e-06	-1.201446e-09	-3.680700e+01	-8.148426e+01
3.500000e-07	-5.268003e-06	-1.280122e-09	-3.671015e+01	-8.138740e+01
3.600000e-07	-5.253659e-06	-1.257406e-09	-3.661020e+01	-8.128102e+01
3.700000e-07	-5.238738e-06	-1.218609e-09	-3.650622e+01	-8.116497e+01
3.800000e-07	-5.223295e-06	-1.238269e-09	-3.639860e+01	-8.103914e+01
3.900000e-07	-5.207514e-06	-1.277938e-09	-3.628863e+01	-8.090347e+01
4.000000e-07	-5.191224e-06	-1.172234e-09	-3.617512e+01	-8.075795e+01
4.100000e-07	-5.174535e-06	-1.181545e-09	-3.605882e+01	-8.060260e+01
4.200000e-07	-5.157625e-06	-1.293051e-09	-3.594098e+01	-8.043749e+01
4.300000e-07	-5.140361e-06	-1.239381e-09	-3.582067e+01	-8.026273e+01
4.400000e-07	-5.122712e-06	-1.134162e-09	-3.569769e+01	-8.007849e+01
4.500000e-07	-5.104764e-06	-1.254345e-09	-3.557262e+01	-7.988495e+01
4.600000e-07	-5.086516e-06	-1.290906e-09	-3.544546e+01	-7.968234e+01
4.700000e-07	-5.067831e-06	-1.131938e-09	-3.531525e+01	-7.947094e+01
4.800000e-07	-5.048719e-06	-1.158375e-09	-3.518207e+01	-7.925104e+01
4.900000e-07	-5.029285e-06	-1.284272e-09	-3.504664e+01	-7.902297e+01
5.000000e-07	-5.009666e-06	-1.180607e-09	-3.490993e+01	-7.878709e+01
5.100000e-07	-4.989794e-06	-1.115270e-09	-3.477145e+01	-7.854377e+01
5.200000e-07	-4.969633e-06	-1.251529e-09	-3.463096e+01	-7.829341e+01
5.300000e-07	-4.949164e-06	-1.209304e-09	-3.448832e+01	-7.803643e+01
5.400000e-07	-4.928365e-06	-1.097768e-09	-3.434338e+01	-7.777326e+01
5.500000e-07	-4.907199e-06	-1.202561e-09	-3.419589e+01	-7.750433e+01
5.600000e-07	-4.885599e-06	-1.252474e-09	-3.404536e+01	-7.723008e+01
5.700000e-07	-4.863613e-06	-1.110135e-09	-3.389215e+01	-7.695097e+01
5.800000e-07	-4.841444e-06	-1.142127e-09	-3.373767e+01	-7.666743e+01
5.900000e-07	-4.819039e-06	-1.230143e-09	-3.358154e+01	-7.637992e+01
6.000000e-07	-4.796065e-06	-1.143877e-09	-3.342145e+01	-7.608885e+01
6.100000e-07	-4.772684e-06	-1.102128e-09	-3.325851e+01	-7.579465e+01
6.200000e-07	-4.749161e-06	-1.195769e-09	-3.309459e+01	-7.549773e+01
6.300000e-07	-4.725420e-06	-1.156080e-09	-3.292916e+01	-7.519848e+01
6.400000e-07	-4.701452e-06	-1.105604e-09	-3.276213e+01	-7.489726e+01
6.500000e-07	-4.677273e-06	-1.159513e-09	-3.259364e+01	-7.459443e+01
6.600000e-07	-4.652590e-06	-1.160798e-09	-3.242164e+01	-7.429030e+01
6.700000e-07	-4.627247e-06	-1.097381e-09	-3.224503e+01	-7.398518e+01
6.800000e-07	-4.601368e-06	-1.130884e-09	-3.206470e+01	-7.367933e+01
6.900000e-07	-4.575002e-06	-1.145368e-09	-3.188096e+01	-7.337298e+01
7.000000e-07	-4.548153e-06	-1.104358e-09	-3.169387e+01	-7.306635e+01
7.100000e-07	-4.520921e-06	-1.105278e-09	-3.150410e+01	-7.275960e+01
7.200000e-07	-4.493465e-06	-1.127499e-09	-3.131278e+01	-7.245288e+01
7.300000e-07	-4.465839e-06	-1.094069e-09	-3.112026e+01	-7.214629e+01
7.400000e-07	-4.438015e-06	-1.082867e-09	-3.092637e+01	-7.183990e+01
7.500000e-07	-4.410003e-06	-1.097129e-09	-3.073117e+01	-7.153376e+01
7.600000e-07	-4.381765e-06	-1.085009e-09	-3.053439e+01	-7.122787e+01
7.700000e-07	-4.353223e-06	-1.074614e-09	-3.033550e+01	-7.092220e+01
7.800000e-07	-4.324364e-06	-1.080868e-09	-3.013439e+01	-7.061669e+01
7.900000e-07	-4.295128e-06	-1.065008e-09	-2.993066e+01	-7.031126e+01
8.000000e-07	-4.265622e-06	-1.046997e-09	-2.972505e+01	-7.000579e+01
8.100000e-07	-4.235935e-06	-1.056898e-09	-2.951817e+01	-6.970013e+01
8.200000e-07	-4.205939e-06	-1.049947e-09	-2.930915e+01	-6.939411e+01
8.300000e-07	-4.175589e-06	-1.031523e-09	-2.909765e+01	-6.908754e+01
8.400000e-07	-4.144920e-06	-1.035219e-09	-2.888393e+01	-6.878019e+01
8.500000e-07	-4.113928e-06	-1.042541e-09	-2.866796e+01	-6.847183e+01
8.600000e-07	-4.082569e-06	-1.022247e-09	-2.844944e+01	-6.816221e+01
8.700000e-07	-4.051062e-06	-1.018389e-09	-2.822989e+01	-6.785105e+01
8.800000e-07	-4.019503e-06	-1.020614e-09	-2.800996e+01	-6.753808e+01
8.900000e-07	-3.987768e-06	-1.006077e-09	-2.778882e+01	-6.722300e+01
9.000000e-07	-3.955782e-06	-9.868956e-10	-2.756592e+01	-6.690552e+01
9.100000e-07	-3.923456e-06	-9.968301e-10	-2.734066e+01	-6.658532e+01
9.200000e-07	-3.890785e-06	-9.905383e-10	-2.711299e+01	-6.626210e+01
9.300000e-07	-3.857722e-06	-9.745605e-10	-2.688259e+01	-6.593556e+01
9.400000e-07	-3.824201e-06	-9.761430e-10	-2.664900e+01	-6.560540e+01
9.500000e-07	-3.790262e-06	-9.824718e-10	-2.641249e+01	-6.527131e+01
9.600000e-07	-3.755910e-06	-9.610224e-10	-2.617311e+01	-6.493300e+01
9.700000e-07	-3.721127e-06	-9.515205e-10	-2.593073e+01	-6.459019e+01
9.800000e-07	-3.685975e-06	-9.544453e-10	-2.568577e+01	-6.424261e+01
9.900000e-07	-3.650558e-06	-9.471945e-10	-2.543897e+01	-6.389001e+01
1.000000e-06	-3.615023e-06	-9.345467e-10	-2.519134e+01	-6.353214e+01
1.010000e-06	-3.579439e-06	-9.370803e-10	-2.494337e+01	-6.316877e+01
1.020000e-06	-3.543700e-06	-9.319326e-10	-2.469432e+01	-6.279970e+01
1.030000e-06	-3.507787e-06	-9.189083e-10	-2.444407e+01	-6.242474e+01
1.040000e-06	-3.471697e-06	-9.156276e-10	-2.419257e+01	-6.204372e+01
1.050000e-06	-3.435334e-06	-9.149996e-10	-2.393917e+01	-6.165649e+01
1.060000e-06	-3.398647e-06	-9.042021e-10	-2.368352e+01	-6.126293e+01
1.070000e-06	-3.361604e-06	-8.981433e-10	-2.342539e+01	-6.086293e+01
1.080000e-06	-3.324276e-06	-8.940896e-10	-2.316526e+01	-6.045640e+01
1.090000e-06	-3.286739e-06	-8.788823e-10	-2.290369e+01	-6.004329e+01
1.100000e-06	-3.249070e-06	-8.652435e-10	-2.264119e+01	-5.962356e+01
1.110000e-06	-3.211260e-06	-8.609135e-10	-2.237771e+01	-5.919718e+01
1.120000e-06	-3.173167e-06	-8.588744e-10	-2.211226e+01	-5.876415e+01
1.130000e-06	-3.134819e-06	-8.495540e-10	-2.184503e+01	-5.832450e+01
1.140000e-06	-3.096261e-06	-8.467395e-10	-2.157634e+01	-5.787827e+01
1.150000e-06	-3.057483e-06	-8.416099e-10	-2.130611e+01	-5.742551e+01
1.160000e-06	-3.018533e-06	-8.294830e-10	-2.103469e+01	-5.696628e+01
1.170000e-06	-2.979472e-06	-8.168063e-10	-2.076249e+01	-5.650068e+01
1.180000e-06	-2.940254e-06	-8.127762e-10	-2.048920e+01	-5.602880e+01
1.190000e-06	-2.900769e-06	-8.066748e-10	-2.021405e+01	-5.555074e+01
1.200000e-06	-2.861147e-06	-8.017087e-10	-1.993794e+01	-5.506663e+01
1.210000e-06	-2.821463e-06	-7.940170e-10	-1.966140e+01	-5.457657e+01
1.220000e-06	-2.781656e-06	-7.831498e-10	-1.938401e+01	-5.408071e+01
1.230000e-06	-2.741657e-06	-7.696682e-10	-1.910527e+01	-5.357916e+01
1.240000e-06	-2.701503e-06	-7.631780e-10	-1.882546e+01	-5.307206e+01
1.250000e-06	-2.661174e-06	-7.571732e-10	-1.854443e+01	-5.255952e+01
1.260000e-06	-2.620561e-06	-7.482089e-10	-1.826142e+01	-5.204167e+01
1.270000e-06	-2.579701e-06	-7.380357e-10	-1.797669e+01	-5.151862e+01
1.280000e-06	-2.538636e-06	-7.331365e-10	-1.769052e+01	-5.099047e+01
1.290000e-06	-2.497201e-06	-7.256562e-10	-1.740178e+01	-5.045731e+01
1.300000e-06	-2.455462e-06	-7.158541e-10	-1.711092e+01	-4.991922e+01
1.310000e-06	-2.413467e-06	-7.046298e-10	-1.681828e+01	-4.937627e+01
1.320000e-06	-2.371089e-06	-6.939240e-10	-1.652297e+01	-4.882849e+01
1.330000e-06	-2.328454e-06	-6.835549e-10	-1.622586e+01	-4.827591e+01
1.340000e-06	-2.285547e-06	-6.747115e-10	-1.592687e+01	-4.771854e+01
1.350000e-06	-2.242452e-06	-6.675026e-10	-1.562656e+01	-4.715635e+01
1.360000e-06	-2.199187e-06	-6.615241e-10	-1.532506e+01	-4.658930e+01
1.370000e-06	-2.155798e-06	-6.560673e-10	-1.502271e+01	-4.601731e+01
1.380000e-06	-2.112354e-06	-6.502233e-10	-1.471997e+01	-4.544030e+01
1.390000e-06	-2.068785e-06	-6.401374e-10	-1.441635e+01	-4.485813e+01
1.400000e-06	-2.025154e-06	-6.272458e-10	-1.411232e+01	-4.427066e+01
1.410000e-06	-1.981440e-06	-6.144771e-10	-1.380769e+01	-4.367770e+01
1.420000e-06	-1.937652e-06	-6.020936e-10	-1.350255e+01	-4.307904e+01
1.430000e-06	-1.893787e-06	-5.934462e-10	-1.319688e+01	-4.247443e+01
1.440000e-06	-1.849750e-06	-5.864537e-10	-1.289001e+01	-4.186362e+01
1.450000e-06	-1.805636e-06	-5.800599e-10	-1.258260e+01	-4.124631e+01
1.460000e-06	-1.761487e-06	-5.706019e-10	-1.227495e+01	-4.062216e+01
1.470000e-06	-1.717250e-06	-5.576814e-10	-1.196668e+01	-3.999084e+01
1.480000e-06	-1.672771e-06	-5.426984e-10	-1.165673e+01	-3.935195e+01
1.490000e-06	-1.628053e-06	-5.309204e-10	-1.134511e+01	-3.870511e+01
1.500000e-06	-1.583319e-06	-5.195214e-10	-1.103338e+01	-3.804988e+01
1.510000e-06	-1.538348e-06	-5.101848e-10	-1.072000e+01	-3.738583e+01
1.520000e-06	-1.493135e-06	-5.007260e-10	-1.040493e+01	-3.671250e+01
1.530000e-06	-1.447875e-06	-4.913947e-10	-1.008954e+01	-3.602940e+01
1.540000e-06	-1.402571e-06	-4.785183e-10	-9.773833e+00	-3.533604e+01
1.550000e-06	-1.357257e-06	-4.652537e-10	-9.458061e+00	-3.463192e+01
1.560000e-06	-1.311886e-06	-4.516481e-10	-9.141896e+00	-3.391654e+01
1.570000e-06	-1.266397e-06	-4.405467e-10	-8.824907e+00	-3.318937e+01
1.580000e-06	-1.220826e-06	-4.294206e-10	-8.507343e+00	-3.244991e+01
1.590000e-06	-1.175172e-06	-4.215896e-10	-8.189205e+00	-3.169763e+01
1.600000e-06	-1.129525e-06	-4.142531e-10	-7.871112e+00	-3.093203e+01
1.610000e-06	-1.083780e-06	-4.018280e-10	-7.552335e+00	-3.015260e+01
1.620000e-06	-1.037813e-06	-3.867177e-10	-7.232015e+00	-2.935886e+01
1.630000e-06	-9.918092e-07	-3.747420e-10	-6.911436e+00	-2.855034e+01
1.640000e-06	-9.458077e-07	-3.645079e-10	-6.590874e+00	-2.772657e+01
1.650000e-06	-8.997619e-07	-3.525805e-10	-6.270004e+00	-2.688713e+01
1.660000e-06	-8.536777e-07	-3.416370e-10	-5.948865e+00	-2.603162e+01
1.670000e-06	-8.075028e-07	-3.288181e-10	-5.627094e+00	-2.515966e+01
1.680000e-06	-7.611434e-07	-3.136136e-10	-5.304038e+00	-2.427092e+01
1.690000e-06	-7.147305e-07	-2.971876e-10	-4.980609e+00	-2.336508e+01
1.700000e-06	-6.683321e-07	-2.820648e-10	-4.657282e+00	-2.244188e+01
1.710000e-06	-6.218377e-07	-2.663913e-10	-4.333285e+00	-2.150112e+01
1.720000e-06	-5.751576e-07	-2.512203e-10	-4.007994e+00	-2.054260e+01
1.730000e-06	-5.283650e-07	-2.354667e-10	-3.681919e+00	-1.956622e+01
1.740000e-06	-4.817181e-07	-2.173736e-10	-3.356859e+00	-1.857189e+01
1.750000e-06	-4.351188e-07	-2.015634e-10	-3.032131e+00	-1.755959e+01
1.760000e-06	-3.884925e-07	-1.895806e-10	-2.707216e+00	-1.652937e+01
1.770000e-06	-3.419437e-07	-1.755824e-10	-2.382840e+00	-1.548131e+01
1.780000e-06	-2.954319e-07	-1.604663e-10	-2.058721e+00	-1.441558e+01
1.790000e-06	-2.488164e-07	-1.459120e-10	-1.733880e+00	-1.333237e+01
1.800000e-06	-2.020586e-07	-1.300310e-10	-1.408048e+00	-1.223197e+01
1.810000e-06	-1.553133e-07	-1.127628e-10	-1.082303e+00	-1.111471e+01
1.820000e-06	-1.085871e-07	-9.713360e-11	-7.566911e-01	-9.980980e+00
1.830000e-06	-6.185997e-08	-8.246197e-11	-4.310721e-01	-8.831246e+00
1.840000e-06	-1.514018e-08	-6.792039e-11	-1.055046e-01	-7.666023e+00
1.850000e-06	3.157292e-08	-5.308900e-11	2.200163e-01	-6.485888e+00
1.860000e-06	7.820663e-08	-4.016408e-11	5.449840e-01	-5.291476e+00
1.870000e-06	1.247413e-07	-2.643990e-11	8.692613e-01	-4.083482e+00
1.880000e-06	1.713665e-07	-7.330785e-12	1.194170e+00	-2.862651e+00
1.890000e-06	2.180378e-07	1.359518e-11	1.519400e+00	-1.629784e+00
1.900000e-06	2.646988e-07	3.214623e-11	1.844557e+00	-3.857318e-01
1.910000e-06	3.113137e-07	4.852145e-11	2.169394e+00	8.686091e-01
1.920000e-06	3.577928e-07	6.309247e-11	2.493284e+00	2.132298e+00
1.930000e-06	4.042839e-07	7.725861e-11	2.817258e+00	3.404352e+00
1.940000e-06	4.509214e-07	9.194521e-11	3.142252e+00	4.683755e+00
1.950000e-06	4.975318e-07	1.083539e-10	3.467057e+00	5.969456e+00
1.960000e-06	5.440540e-07	1.261719e-10	3.791248e+00	7.260376e+00
1.970000e-06	5.904794e-07	1.445398e-10	4.114764e+00	8.555412e+00
1.980000e-06	6.367287e-07	1.659237e-10	4.437053e+00	9.853441e+00
1.990000e-06	6.828865e-07	1.870935e-10	4.758704e+00	1.115333e+01
2.000000e-06	7.290403e-07	2.037759e-10	5.080327e+00	1.245392e+01
2.010000e-06	7.752180e-07	2.202711e-10	5.402118e+00	1.375407e+01
2.020000e-06	8.212953e-07	2.391682e-10	5.723208e+00	1.505262e+01
2.030000e-06	8.674023e-07	2.596137e-10	6.044505e+00	1.634842e+01
2.040000e-06	9.134770e-07	2.786546e-10	6.365577e+00	1.764033e+01
2.050000e-06	9.594456e-07	2.963076e-10	6.685910e+00	1.892724e+01
2.060000e-06	1.005372e-06	3.141737e-10	7.005949e+00	2.020802e+01
2.070000e-06	1.051165e-06	3.321120e-10	7.325055e+00	2.148160e+01
2.080000e-06	1.096874e-06	3.509707e-10	7.643583e+00	2.274691e+01
2.090000e-06	1.142553e-06	3.710667e-10	7.961894e+00	2.400294e+01
2.100000e-06	1.188172e-06	3.933374e-10	8.279792e+00	2.524870e+01
2.110000e-06	1.233668e-06	4.123866e-10	8.596832e+00	2.648323e+01
2.120000e-06	1.279068e-06	4.273857e-10	8.913203e+00	2.770563e+01
2.130000e-06	1.324413e-06	4.424157e-10	9.229194e+00	2.891504e+01
2.140000e-06	1.369721e-06	4.589405e-10	9.544919e+00	3.011065e+01
2.150000e-06	1.414977e-06	4.771832e-10	9.860288e+00	3.129170e+01
2.160000e-06	1.460038e-06	4.959991e-10	1.017429e+01	3.245748e+01
2.170000e-06	1.504950e-06	5.135916e-10	1.048727e+01	3.360734e+01
2.180000e-06	1.549820e-06	5.322276e-10	1.079994e+01	3.474069e+01
2.190000e-06	1.594646e-06	5.494672e-10	1.111232e+01	3.585699e+01
2.200000e-06	1.639289e-06	5.647892e-10	1.142341e+01	3.695578e+01
2.210000e-06	1.683708e-06	5.778833e-10	1.173294e+01	3.803663e+01
2.220000e-06	1.727939e-06	5.905373e-10	1.204116e+01	3.909919e+01
2.230000e-06	1.771963e-06	6.064102e-10	1.234795e+01	4.014315e+01
2.240000e-06	1.815931e-06	6.194879e-10	1.265434e+01	4.116829e+01
2.250000e-06	1.859849e-06	6.310756e-10	1.296038e+01	4.217443e+01
2.260000e-06	1.903658e-06	6.432550e-10	1.326567e+01	4.316142e+01
2.270000e-06	1.947445e-06	6.577306e-10	1.357080e+01	4.412921e+01
2.280000e-06	1.991163e-06	6.739099e-10	1.387544e+01	4.507778e+01
2.290000e-06	2.034789e-06	6.891865e-10	1.417946e+01	4.600715e+01
2.300000e-06	2.078398e-06	7.022835e-10	1.448334e+01	4.691740e+01
2.310000e-06	2.121948e-06	7.138622e-10	1.478682e+01	4.780867e+01
2.320000e-06	2.165378e-06	7.263887e-10	1.508947e+01	4.868110e+01
2.330000e-06	2.208708e-06	7.370693e-10	1.539142e+01	4.953491e+01
2.340000e-06	2.251928e-06	7.498052e-10	1.569259e+01	5.037033e+01
2.350000e-06	2.294932e-06	7.660296e-10	1.599227e+01	5.118763e+01
2.360000e-06	2.337737e-06	7.817277e-10	1.629055e+01	5.198710e+01
2.370000e-06	2.380352e-06	7.927670e-10	1.658752e+01	5.276908e+01
2.380000e-06	2.422696e-06	7.986135e-10	1.688259e+01	5.353389e+01
2.390000e-06	2.464599e-06	8.052713e-10	1.717459e+01	5.428191e+01
2.400000e-06	2.506020e-06	8.138592e-10	1.746324e+01	5.501350e+01
2.410000e-06	2.547181e-06	8.242746e-10	1.775007e+01	5.572904e+01
2.420000e-06	2.588199e-06	8.358297e-10	1.803590e+01	5.642894e+01
2.430000e-06	2.629026e-06	8.511382e-10	1.832041e+01	5.711357e+01
2.440000e-06	2.669572e-06	8.645297e-10	1.860295e+01	5.778333e+01
2.450000e-06	2.709889e-06	8.718243e-10	1.888390e+01	5.843862e+01
2.460000e-06	2.749995e-06	8.777819e-10	1.916338e+01	5.907982e+01
2.470000e-06	2.789887e-06	8.853000e-10	1.944137e+01	5.970731e+01
2.480000e-06	2.829648e-06	8.956637e-10	1.971845e+01	6.032146e+01
2.490000e-06	2.869351e-06	9.085404e-10	1.999511e+01	6.092262e+01
2.500000e-06	2.908954e-06	9.208944e-10	2.027108e+01	6.151114e+01
2.510000e-06	2.948374e-06	9.329353e-10	2.054579e+01	6.208734e+01
2.520000e-06	2.987646e-06	9.426898e-10	2.081945e+01	6.265153e+01
2.530000e-06	3.026644e-06	9.474307e-10	2.109121e+01	6.320401e+01
2.540000e-06	3.065402e-06	9.507615e-10	2.136129e+01	6.374505e+01
2.550000e-06	3.104014e-06	9.543125e-10	2.163037e+01	6.427491e+01
2.560000e-06	3.142340e-06	9.605931e-10	2.189744e+01	6.479382e+01
2.570000e-06	3.180463e-06	9.678260e-10	2.216310e+01	6.530201e+01
2.580000e-06	3.218407e-06	9.745505e-10	2.242752e+01	6.579968e+01
2.590000e-06	3.256094e-06	9.813300e-10	2.269014e+01	6.628701e+01
2.600000e-06	3.293595e-06	9.892637e-10	2.295146e+01	6.676418e+01
2.610000e-06	3.330901e-06	9.948921e-10	2.321143e+01	6.723132e+01
2.620000e-06	3.368090e-06	9.984140e-10	2.347058e+01	6.768858e+01
2.630000e-06	3.405067e-06	1.002965e-09	2.372825e+01	6.813610e+01
2.640000e-06	3.441669e-06	1.008310e-09	2.398332e+01	6.857397e+01
2.650000e-06	3.477957e-06	1.012976e-09	2.423619e+01	6.900231e+01
2.660000e-06	3.514035e-06	1.018494e-09	2.448760e+01	6.942122e+01
2.670000e-06	3.549929e-06	1.023346e-09	2.473773e+01	6.983079e+01
2.680000e-06	3.585682e-06	1.027433e-09	2.498687e+01	7.023110e+01
2.690000e-06	3.621261e-06	1.032951e-09	2.523481e+01	7.062225e+01
2.700000e-06	3.656724e-06	1.039494e-09	2.548193e+01	7.100432e+01
2.710000e-06	3.692004e-06	1.045968e-09	2.572778e+01	7.137739e+01
2.720000e-06	3.727012e-06	1.052589e-09	2.597174e+01	7.174157e+01
2.730000e-06	3.761798e-06	1.058277e-09	2.621414e+01	7.209694e+01
2.740000e-06	3.796248e-06	1.060719e-09	2.645420e+01	7.244361e+01
2.750000e-06	3.830137e-06	1.062101e-09	2.669036e+01	7.278170e+01
2.760000e-06	3.863497e-06	1.065211e-09	2.692284e+01	7.311131e+01
2.770000e-06	3.896495e-06	1.069595e-09	2.715278e+01	7.343259e+01
2.780000e-06	3.929037e-06	1.075329e-09	2.737955e+01	7.374567e+01
2.790000e-06	3.961183e-06	1.082851e-09	2.760356e+01	7.405072e+01
2.800000e-06	3.993083e-06	1.089471e-09	2.782585e+01	7.434788e+01
2.810000e-06	4.024822e-06	1.096407e-09	2.804703e+01	7.463735e+01
2.820000e-06	4.056349e-06	1.102911e-09	2.826673e+01	7.491932e+01
2.830000e-06	4.087676e-06	1.107081e-09	2.848503e+01	7.519398e+01
2.840000e-06	4.118832e-06	1.110201e-09	2.870214e+01	7.546156e+01
2.850000e-06	4.149729e-06	1.116072e-09	2.891745e+01	7.572227e+01
2.860000e-06	4.180362e-06	1.122678e-09	2.913091e+01	7.597636e+01
2.870000e-06	4.210688e-06	1.125742e-09	2.934224e+01	7.622408e+01
2.880000e-06	4.240635e-06	1.127434e-09	2.955093e+01	7.646567e+01
2.890000e-06	4.270290e-06	1.130864e-09	2.975758e+01	7.670139e+01
2.900000e-06	4.299675e-06	1.135890e-09	2.996234e+01	7.693151e+01
2.910000e-06	4.328828e-06	1.141406e-09	3.016550e+01	7.715630e+01
