# Temperatura_=_11.75
# Concentracion g/m^3_=_1620.0
# C_Vs_to_Am_M_A/Vsm_=_65563218390.804596
# pendiente_HvsI_1/m_=_3716.3
# ordenada_HvsI_A/m_=_1297.0
# frecuencia_Hz_=_135089.5666484532

Tiempo_(s)	Campo_(V.s)	Magnetizacion_(V.s)	Campo_(kA/m)	Magnetizacion_(A/m)
0.000000e+00	-5.515015e-06	-1.656195e-09	-3.836975e+01	-1.065467e+02
1.000000e-08	-5.515261e-06	-1.654612e-09	-3.837146e+01	-1.065407e+02
2.000000e-08	-5.515228e-06	-1.655396e-09	-3.837123e+01	-1.065312e+02
3.000000e-08	-5.514798e-06	-1.656807e-09	-3.836824e+01	-1.065181e+02
4.000000e-08	-5.513846e-06	-1.652332e-09	-3.836161e+01	-1.065011e+02
5.000000e-08	-5.512216e-06	-1.634314e-09	-3.835028e+01	-1.064803e+02
6.000000e-08	-5.509918e-06	-1.614659e-09	-3.833429e+01	-1.064553e+02
7.000000e-08	-5.507023e-06	-1.620506e-09	-3.831415e+01	-1.064260e+02
8.000000e-08	-5.503682e-06	-1.679113e-09	-3.829090e+01	-1.063923e+02
9.000000e-08	-5.499940e-06	-1.787393e-09	-3.826487e+01	-1.063539e+02
1.000000e-07	-5.495691e-06	-1.777568e-09	-3.823531e+01	-1.063109e+02
1.100000e-07	-5.491162e-06	-1.580116e-09	-3.820380e+01	-1.062629e+02
1.200000e-07	-5.486624e-06	-1.457120e-09	-3.817222e+01	-1.062098e+02
1.300000e-07	-5.481837e-06	-1.609577e-09	-3.813892e+01	-1.061515e+02
1.400000e-07	-5.476497e-06	-1.727885e-09	-3.810177e+01	-1.060879e+02
1.500000e-07	-5.470655e-06	-1.616351e-09	-3.806112e+01	-1.060188e+02
1.600000e-07	-5.464584e-06	-1.504798e-09	-3.801888e+01	-1.059441e+02
1.700000e-07	-5.458200e-06	-1.649054e-09	-3.797447e+01	-1.058637e+02
1.800000e-07	-5.451170e-06	-1.774623e-09	-3.792556e+01	-1.057775e+02
1.900000e-07	-5.443725e-06	-1.627783e-09	-3.787376e+01	-1.056855e+02
2.000000e-07	-5.436180e-06	-1.494582e-09	-3.782127e+01	-1.055874e+02
2.100000e-07	-5.428414e-06	-1.584649e-09	-3.776724e+01	-1.054833e+02
2.200000e-07	-5.420333e-06	-1.727886e-09	-3.771102e+01	-1.053732e+02
2.300000e-07	-5.411961e-06	-1.669176e-09	-3.765277e+01	-1.052569e+02
2.400000e-07	-5.403243e-06	-1.585922e-09	-3.759212e+01	-1.051345e+02
2.500000e-07	-5.393675e-06	-1.602358e-09	-3.752555e+01	-1.050060e+02
2.600000e-07	-5.383180e-06	-1.652530e-09	-3.745253e+01	-1.048713e+02
2.700000e-07	-5.372266e-06	-1.600407e-09	-3.737660e+01	-1.047305e+02
2.800000e-07	-5.361020e-06	-1.578481e-09	-3.729836e+01	-1.045835e+02
2.900000e-07	-5.349352e-06	-1.621865e-09	-3.721718e+01	-1.044305e+02
3.000000e-07	-5.337369e-06	-1.645566e-09	-3.713381e+01	-1.042714e+02
3.100000e-07	-5.325110e-06	-1.592566e-09	-3.704852e+01	-1.041063e+02
3.200000e-07	-5.312314e-06	-1.558711e-09	-3.695949e+01	-1.039353e+02
3.300000e-07	-5.299081e-06	-1.576523e-09	-3.686743e+01	-1.037584e+02
3.400000e-07	-5.285576e-06	-1.597818e-09	-3.677347e+01	-1.035757e+02
3.500000e-07	-5.271540e-06	-1.578973e-09	-3.667582e+01	-1.033873e+02
3.600000e-07	-5.256930e-06	-1.569937e-09	-3.657417e+01	-1.031932e+02
3.700000e-07	-5.241874e-06	-1.617093e-09	-3.646942e+01	-1.029936e+02
3.800000e-07	-5.226452e-06	-1.618569e-09	-3.636213e+01	-1.027884e+02
3.900000e-07	-5.210442e-06	-1.555889e-09	-3.625074e+01	-1.025778e+02
4.000000e-07	-5.193964e-06	-1.556638e-09	-3.613609e+01	-1.023619e+02
4.100000e-07	-5.177246e-06	-1.614513e-09	-3.601978e+01	-1.021407e+02
4.200000e-07	-5.160169e-06	-1.549178e-09	-3.590097e+01	-1.019143e+02
4.300000e-07	-5.142754e-06	-1.493316e-09	-3.577981e+01	-1.016827e+02
4.400000e-07	-5.124944e-06	-1.589565e-09	-3.565590e+01	-1.014462e+02
4.500000e-07	-5.106747e-06	-1.635732e-09	-3.552930e+01	-1.012046e+02
4.600000e-07	-5.088100e-06	-1.511828e-09	-3.539956e+01	-1.009580e+02
4.700000e-07	-5.069042e-06	-1.523783e-09	-3.526697e+01	-1.007066e+02
4.800000e-07	-5.049745e-06	-1.616919e-09	-3.513271e+01	-1.004503e+02
4.900000e-07	-5.030223e-06	-1.548269e-09	-3.499690e+01	-1.001891e+02
5.000000e-07	-5.010536e-06	-1.474897e-09	-3.485992e+01	-9.992319e+01
5.100000e-07	-4.990677e-06	-1.558760e-09	-3.472176e+01	-9.965247e+01
5.200000e-07	-4.970442e-06	-1.542584e-09	-3.458098e+01	-9.937697e+01
5.300000e-07	-4.949851e-06	-1.465630e-09	-3.443772e+01	-9.909671e+01
5.400000e-07	-4.928947e-06	-1.541206e-09	-3.429229e+01	-9.881169e+01
5.500000e-07	-4.907654e-06	-1.583417e-09	-3.414414e+01	-9.852189e+01
5.600000e-07	-4.885997e-06	-1.466613e-09	-3.399347e+01	-9.822732e+01
5.700000e-07	-4.863963e-06	-1.478840e-09	-3.384017e+01	-9.792795e+01
5.800000e-07	-4.841464e-06	-1.562048e-09	-3.368363e+01	-9.762375e+01
5.900000e-07	-4.818606e-06	-1.486092e-09	-3.352461e+01	-9.731472e+01
6.000000e-07	-4.795505e-06	-1.432199e-09	-3.336388e+01	-9.700081e+01
6.100000e-07	-4.772134e-06	-1.509349e-09	-3.320129e+01	-9.668201e+01
6.200000e-07	-4.748540e-06	-1.491997e-09	-3.303713e+01	-9.635828e+01
6.300000e-07	-4.724776e-06	-1.426557e-09	-3.287180e+01	-9.602958e+01
6.400000e-07	-4.700817e-06	-1.477564e-09	-3.270511e+01	-9.569589e+01
6.500000e-07	-4.676453e-06	-1.495108e-09	-3.253560e+01	-9.535718e+01
6.600000e-07	-4.651485e-06	-1.433641e-09	-3.236189e+01	-9.501342e+01
6.700000e-07	-4.626063e-06	-1.446391e-09	-3.218502e+01	-9.466458e+01
6.800000e-07	-4.600139e-06	-1.478954e-09	-3.200466e+01	-9.431065e+01
6.900000e-07	-4.573595e-06	-1.429626e-09	-3.181999e+01	-9.395160e+01
7.000000e-07	-4.546658e-06	-1.416957e-09	-3.163258e+01	-9.358742e+01
7.100000e-07	-4.519359e-06	-1.444989e-09	-3.144265e+01	-9.321810e+01
7.200000e-07	-4.491821e-06	-1.426085e-09	-3.125106e+01	-9.284364e+01
7.300000e-07	-4.464174e-06	-1.400307e-09	-3.105871e+01	-9.246405e+01
7.400000e-07	-4.436373e-06	-1.418617e-09	-3.086528e+01	-9.207932e+01
7.500000e-07	-4.408266e-06	-1.408468e-09	-3.066974e+01	-9.168947e+01
7.600000e-07	-4.379798e-06	-1.384398e-09	-3.047168e+01	-9.129453e+01
7.700000e-07	-4.351023e-06	-1.387694e-09	-3.027148e+01	-9.089452e+01
7.800000e-07	-4.321964e-06	-1.386861e-09	-3.006930e+01	-9.048947e+01
7.900000e-07	-4.292641e-06	-1.366528e-09	-2.986530e+01	-9.007942e+01
8.000000e-07	-4.263042e-06	-1.370384e-09	-2.965937e+01	-8.966442e+01
8.100000e-07	-4.233184e-06	-1.364727e-09	-2.945164e+01	-8.924451e+01
8.200000e-07	-4.203052e-06	-1.339349e-09	-2.924200e+01	-8.881974e+01
8.300000e-07	-4.172567e-06	-1.331916e-09	-2.902990e+01	-8.839018e+01
8.400000e-07	-4.141756e-06	-1.335797e-09	-2.881554e+01	-8.795588e+01
8.500000e-07	-4.110636e-06	-1.314331e-09	-2.859903e+01	-8.751690e+01
8.600000e-07	-4.079239e-06	-1.303741e-09	-2.838059e+01	-8.707331e+01
8.700000e-07	-4.047717e-06	-1.310065e-09	-2.816128e+01	-8.662517e+01
8.800000e-07	-4.016034e-06	-1.300402e-09	-2.794085e+01	-8.617255e+01
8.900000e-07	-3.984176e-06	-1.288136e-09	-2.771920e+01	-8.571551e+01
9.000000e-07	-3.952072e-06	-1.289924e-09	-2.749585e+01	-8.525411e+01
9.100000e-07	-3.919591e-06	-1.278893e-09	-2.726987e+01	-8.478842e+01
9.200000e-07	-3.886681e-06	-1.255218e-09	-2.704090e+01	-8.431849e+01
9.300000e-07	-3.853438e-06	-1.252244e-09	-2.680962e+01	-8.384437e+01
9.400000e-07	-3.819730e-06	-1.253846e-09	-2.657510e+01	-8.336611e+01
9.500000e-07	-3.785528e-06	-1.240341e-09	-2.633715e+01	-8.288375e+01
9.600000e-07	-3.751002e-06	-1.231475e-09	-2.609694e+01	-8.239733e+01
9.700000e-07	-3.716102e-06	-1.233775e-09	-2.585413e+01	-8.190689e+01
9.800000e-07	-3.680852e-06	-1.221055e-09	-2.560888e+01	-8.141243e+01
9.900000e-07	-3.645397e-06	-1.204577e-09	-2.536221e+01	-8.091398e+01
1.000000e-06	-3.609874e-06	-1.199816e-09	-2.511507e+01	-8.041154e+01
1.010000e-06	-3.574213e-06	-1.192368e-09	-2.486696e+01	-7.990511e+01
1.020000e-06	-3.538372e-06	-1.176627e-09	-2.461760e+01	-7.939469e+01
1.030000e-06	-3.502366e-06	-1.173181e-09	-2.436710e+01	-7.888024e+01
1.040000e-06	-3.466233e-06	-1.170239e-09	-2.411571e+01	-7.836175e+01
1.050000e-06	-3.429807e-06	-1.158173e-09	-2.386228e+01	-7.783918e+01
1.060000e-06	-3.392967e-06	-1.148449e-09	-2.360597e+01	-7.731249e+01
1.070000e-06	-3.355859e-06	-1.145509e-09	-2.334780e+01	-7.678161e+01
1.080000e-06	-3.318570e-06	-1.132383e-09	-2.308837e+01	-7.624650e+01
1.090000e-06	-3.281057e-06	-1.119348e-09	-2.282738e+01	-7.570709e+01
1.100000e-06	-3.243260e-06	-1.113701e-09	-2.256441e+01	-7.516330e+01
1.110000e-06	-3.205179e-06	-1.105729e-09	-2.229947e+01	-7.461505e+01
1.120000e-06	-3.166919e-06	-1.092288e-09	-2.203329e+01	-7.406225e+01
1.130000e-06	-3.128495e-06	-1.084684e-09	-2.176596e+01	-7.350481e+01
1.140000e-06	-3.089776e-06	-1.077852e-09	-2.149657e+01	-7.294264e+01
1.150000e-06	-3.050836e-06	-1.064844e-09	-2.122565e+01	-7.237564e+01
1.160000e-06	-3.011664e-06	-1.053429e-09	-2.095312e+01	-7.180369e+01
1.170000e-06	-2.972369e-06	-1.047341e-09	-2.067974e+01	-7.122669e+01
1.180000e-06	-2.933061e-06	-1.039896e-09	-2.040626e+01	-7.064453e+01
1.190000e-06	-2.893574e-06	-1.032087e-09	-2.013154e+01	-7.005710e+01
1.200000e-06	-2.853893e-06	-1.024278e-09	-1.985546e+01	-6.946427e+01
1.210000e-06	-2.814080e-06	-1.011387e-09	-1.957847e+01	-6.886594e+01
1.220000e-06	-2.774136e-06	-9.971749e-10	-1.930057e+01	-6.826199e+01
1.230000e-06	-2.734014e-06	-9.868338e-10	-1.902142e+01	-6.765229e+01
1.240000e-06	-2.693744e-06	-9.765737e-10	-1.874125e+01	-6.703673e+01
1.250000e-06	-2.653301e-06	-9.646392e-10	-1.845988e+01	-6.641518e+01
1.260000e-06	-2.612524e-06	-9.554274e-10	-1.817617e+01	-6.578752e+01
1.270000e-06	-2.571492e-06	-9.469757e-10	-1.789070e+01	-6.515363e+01
1.280000e-06	-2.530270e-06	-9.387111e-10	-1.760391e+01	-6.451339e+01
1.290000e-06	-2.488717e-06	-9.277827e-10	-1.731481e+01	-6.386666e+01
1.300000e-06	-2.446840e-06	-9.158294e-10	-1.702346e+01	-6.321332e+01
1.310000e-06	-2.404628e-06	-9.008237e-10	-1.672978e+01	-6.255323e+01
1.320000e-06	-2.362095e-06	-8.856234e-10	-1.643386e+01	-6.188627e+01
1.330000e-06	-2.319340e-06	-8.729653e-10	-1.613640e+01	-6.121228e+01
1.340000e-06	-2.276388e-06	-8.627651e-10	-1.583757e+01	-6.053113e+01
1.350000e-06	-2.233171e-06	-8.530208e-10	-1.553689e+01	-5.984266e+01
1.360000e-06	-2.189787e-06	-8.427342e-10	-1.523506e+01	-5.914671e+01
1.370000e-06	-2.146362e-06	-8.335283e-10	-1.493294e+01	-5.844313e+01
1.380000e-06	-2.102796e-06	-8.257657e-10	-1.462983e+01	-5.773173e+01
1.390000e-06	-2.059149e-06	-8.149012e-10	-1.432617e+01	-5.701233e+01
1.400000e-06	-2.015447e-06	-8.000409e-10	-1.402212e+01	-5.628474e+01
1.410000e-06	-1.971626e-06	-7.838549e-10	-1.371724e+01	-5.554876e+01
1.420000e-06	-1.927712e-06	-7.729667e-10	-1.341172e+01	-5.480416e+01
1.430000e-06	-1.883742e-06	-7.624038e-10	-1.310580e+01	-5.405072e+01
1.440000e-06	-1.839769e-06	-7.513419e-10	-1.279987e+01	-5.328819e+01
1.450000e-06	-1.795718e-06	-7.394425e-10	-1.249339e+01	-5.251632e+01
1.460000e-06	-1.751429e-06	-7.246549e-10	-1.218526e+01	-5.173484e+01
1.470000e-06	-1.706934e-06	-7.073153e-10	-1.187569e+01	-5.094345e+01
1.480000e-06	-1.662321e-06	-6.914006e-10	-1.156531e+01	-5.014187e+01
1.490000e-06	-1.617530e-06	-6.775961e-10	-1.125368e+01	-4.932977e+01
1.500000e-06	-1.572592e-06	-6.654968e-10	-1.094103e+01	-4.850682e+01
1.510000e-06	-1.527596e-06	-6.562695e-10	-1.062798e+01	-4.767269e+01
1.520000e-06	-1.482445e-06	-6.460986e-10	-1.031385e+01	-4.682702e+01
1.530000e-06	-1.437177e-06	-6.320171e-10	-9.998910e+00	-4.596944e+01
1.540000e-06	-1.391857e-06	-6.144772e-10	-9.683600e+00	-4.509957e+01
1.550000e-06	-1.346454e-06	-5.983722e-10	-9.367716e+00	-4.421703e+01
1.560000e-06	-1.300927e-06	-5.841305e-10	-9.050975e+00	-4.332141e+01
1.570000e-06	-1.255276e-06	-5.715877e-10	-8.733362e+00	-4.241232e+01
1.580000e-06	-1.209563e-06	-5.593586e-10	-8.415323e+00	-4.148936e+01
1.590000e-06	-1.163779e-06	-5.474516e-10	-8.096790e+00	-4.055210e+01
1.600000e-06	-1.117951e-06	-5.339479e-10	-7.777948e+00	-3.960016e+01
1.610000e-06	-1.072095e-06	-5.181264e-10	-7.458911e+00	-3.863312e+01
1.620000e-06	-1.026109e-06	-5.037156e-10	-7.138974e+00	-3.765058e+01
1.630000e-06	-9.799912e-07	-4.924034e-10	-6.818117e+00	-3.665217e+01
1.640000e-06	-9.338017e-07	-4.784016e-10	-6.496762e+00	-3.563750e+01
1.650000e-06	-8.875783e-07	-4.629239e-10	-6.175170e+00	-3.460621e+01
1.660000e-06	-8.412846e-07	-4.475331e-10	-5.853090e+00	-3.355797e+01
1.670000e-06	-7.949521e-07	-4.300669e-10	-5.530740e+00	-3.249245e+01
1.680000e-06	-7.486733e-07	-4.131766e-10	-5.208763e+00	-3.140937e+01
1.690000e-06	-7.023787e-07	-3.988066e-10	-4.886677e+00	-3.030846e+01
1.700000e-06	-6.560036e-07	-3.836981e-10	-4.564030e+00	-2.918949e+01
1.710000e-06	-6.095112e-07	-3.676120e-10	-4.240567e+00	-2.805228e+01
1.720000e-06	-5.629048e-07	-3.501922e-10	-3.916311e+00	-2.689665e+01
1.730000e-06	-5.162117e-07	-3.307295e-10	-3.591452e+00	-2.572252e+01
1.740000e-06	-4.695243e-07	-3.072168e-10	-3.266633e+00	-2.452981e+01
1.750000e-06	-4.228804e-07	-2.865014e-10	-2.942116e+00	-2.331850e+01
1.760000e-06	-3.762727e-07	-2.705089e-10	-2.617852e+00	-2.208864e+01
1.770000e-06	-3.296588e-07	-2.560958e-10	-2.293543e+00	-2.084032e+01
1.780000e-06	-2.829246e-07	-2.437925e-10	-1.968398e+00	-1.957368e+01
1.790000e-06	-2.360867e-07	-2.281059e-10	-1.642532e+00	-1.828893e+01
1.800000e-06	-1.892860e-07	-2.074803e-10	-1.316924e+00	-1.698633e+01
1.810000e-06	-1.425792e-07	-1.859759e-10	-9.919697e-01	-1.566622e+01
1.820000e-06	-9.577517e-08	-1.662119e-10	-6.663389e-01	-1.432899e+01
1.830000e-06	-4.899154e-08	-1.471939e-10	-3.408500e-01	-1.297508e+01
1.840000e-06	-2.202975e-09	-1.280087e-10	-1.532681e-02	-1.160502e+01
1.850000e-06	4.464292e-08	-1.105973e-10	3.105953e-01	-1.021937e+01
1.860000e-06	9.146997e-08	-9.503365e-11	6.363863e-01	-8.818799e+00
1.870000e-06	1.382876e-07	-7.645206e-11	9.621119e-01	-7.403990e+00
1.880000e-06	1.850205e-07	-5.561036e-11	1.287247e+00	-5.975712e+00
1.890000e-06	2.317204e-07	-3.289226e-11	1.612154e+00	-4.534785e+00
1.900000e-06	2.783913e-07	-8.372604e-12	1.936859e+00	-3.082086e+00
1.910000e-06	3.250992e-07	1.543459e-11	2.261821e+00	-1.618545e+00
1.920000e-06	3.717873e-07	3.576625e-11	2.586645e+00	-1.451406e-01
1.930000e-06	4.184597e-07	5.354674e-11	2.911360e+00	1.337100e+00
1.940000e-06	4.651134e-07	7.221810e-11	3.235945e+00	2.827106e+00
1.950000e-06	5.117472e-07	9.183267e-11	3.560391e+00	4.323771e+00
1.960000e-06	5.583116e-07	1.135345e-10	3.884355e+00	5.825950e+00
1.970000e-06	6.046729e-07	1.357062e-10	4.206906e+00	7.332471e+00
1.980000e-06	6.509131e-07	1.573460e-10	4.528614e+00	8.842136e+00
1.990000e-06	6.972765e-07	1.801628e-10	4.851179e+00	1.035372e+01
2.000000e-06	7.436612e-07	1.988441e-10	5.173892e+00	1.186601e+01
2.010000e-06	7.898721e-07	2.183359e-10	5.495397e+00	1.337773e+01
2.020000e-06	8.361379e-07	2.406017e-10	5.817283e+00	1.488766e+01
2.030000e-06	8.823566e-07	2.652553e-10	6.138841e+00	1.639455e+01
2.040000e-06	9.283814e-07	2.903158e-10	6.459051e+00	1.789715e+01
2.050000e-06	9.743826e-07	3.131191e-10	6.779096e+00	1.939424e+01
2.060000e-06	1.020333e-06	3.334220e-10	7.098786e+00	2.088462e+01
2.070000e-06	1.066244e-06	3.524933e-10	7.418208e+00	2.236709e+01
2.080000e-06	1.112158e-06	3.726733e-10	7.737647e+00	2.384049e+01
2.090000e-06	1.157907e-06	3.941866e-10	8.055934e+00	2.530372e+01
2.100000e-06	1.203442e-06	4.177376e-10	8.372736e+00	2.675566e+01
2.110000e-06	1.248917e-06	4.385061e-10	8.689120e+00	2.819529e+01
2.120000e-06	1.294290e-06	4.576569e-10	9.004797e+00	2.962160e+01
2.130000e-06	1.339582e-06	4.778777e-10	9.319904e+00	3.103366e+01
2.140000e-06	1.384874e-06	4.990939e-10	9.635016e+00	3.243055e+01
2.150000e-06	1.430118e-06	5.202062e-10	9.949793e+00	3.381145e+01
2.160000e-06	1.475199e-06	5.394655e-10	1.026344e+01	3.517558e+01
2.170000e-06	1.520214e-06	5.570084e-10	1.057662e+01	3.652223e+01
2.180000e-06	1.565206e-06	5.777757e-10	1.088964e+01	3.785075e+01
2.190000e-06	1.610012e-06	5.972030e-10	1.120137e+01	3.916055e+01
2.200000e-06	1.654604e-06	6.159285e-10	1.151162e+01	4.045112e+01
2.210000e-06	1.699054e-06	6.332861e-10	1.182087e+01	4.172201e+01
2.220000e-06	1.743428e-06	6.494331e-10	1.212960e+01	4.297283e+01
2.230000e-06	1.787700e-06	6.675358e-10	1.243761e+01	4.420328e+01
2.240000e-06	1.831868e-06	6.841783e-10	1.274490e+01	4.541311e+01
2.250000e-06	1.875842e-06	7.009593e-10	1.305084e+01	4.660213e+01
2.260000e-06	1.919661e-06	7.150194e-10	1.335570e+01	4.777023e+01
2.270000e-06	1.963430e-06	7.311346e-10	1.366022e+01	4.891735e+01
2.280000e-06	2.007132e-06	7.482227e-10	1.396427e+01	5.004352e+01
2.290000e-06	2.050755e-06	7.653790e-10	1.426777e+01	5.114878e+01
2.300000e-06	2.094335e-06	7.813210e-10	1.457097e+01	5.223327e+01
2.310000e-06	2.137787e-06	7.957343e-10	1.487328e+01	5.329715e+01
2.320000e-06	2.181150e-06	8.113204e-10	1.517497e+01	5.434065e+01
2.330000e-06	2.224509e-06	8.257218e-10	1.547663e+01	5.536404e+01
2.340000e-06	2.267731e-06	8.401138e-10	1.577734e+01	5.636762e+01
2.350000e-06	2.310717e-06	8.573620e-10	1.607641e+01	5.735175e+01
2.360000e-06	2.353475e-06	8.767754e-10	1.637389e+01	5.831680e+01
2.370000e-06	2.396122e-06	8.911998e-10	1.667060e+01	5.926320e+01
2.380000e-06	2.438468e-06	9.011757e-10	1.696522e+01	6.019137e+01
2.390000e-06	2.480289e-06	9.111906e-10	1.725617e+01	6.110177e+01
2.400000e-06	2.521734e-06	9.209932e-10	1.754453e+01	6.199488e+01
2.410000e-06	2.562947e-06	9.316903e-10	1.783125e+01	6.287120e+01
2.420000e-06	2.603971e-06	9.457338e-10	1.811667e+01	6.373123e+01
2.430000e-06	2.644714e-06	9.624464e-10	1.840014e+01	6.457546e+01
2.440000e-06	2.685172e-06	9.773971e-10	1.868161e+01	6.540441e+01
2.450000e-06	2.725416e-06	9.878157e-10	1.896160e+01	6.621860e+01
2.460000e-06	2.765383e-06	9.981821e-10	1.923967e+01	6.701851e+01
2.470000e-06	2.805198e-06	1.009432e-09	1.951667e+01	6.780465e+01
2.480000e-06	2.844940e-06	1.021083e-09	1.979317e+01	6.857750e+01
2.490000e-06	2.884539e-06	1.031633e-09	2.006867e+01	6.933755e+01
2.500000e-06	2.924041e-06	1.043432e-09	2.034350e+01	7.008523e+01
2.510000e-06	2.963451e-06	1.057073e-09	2.061769e+01	7.082101e+01
2.520000e-06	3.002685e-06	1.070373e-09	2.089065e+01	7.154529e+01
2.530000e-06	3.041656e-06	1.081637e-09	2.116179e+01	7.225849e+01
2.540000e-06	3.080411e-06	1.091815e-09	2.143142e+01	7.296098e+01
2.550000e-06	3.119052e-06	1.102175e-09	2.170026e+01	7.365311e+01
2.560000e-06	3.157457e-06	1.112640e-09	2.196745e+01	7.433524e+01
2.570000e-06	3.195561e-06	1.122116e-09	2.223255e+01	7.500765e+01
2.580000e-06	3.233407e-06	1.129824e-09	2.249586e+01	7.567066e+01
2.590000e-06	3.271040e-06	1.138455e-09	2.275768e+01	7.632452e+01
2.600000e-06	3.308437e-06	1.148621e-09	2.301787e+01	7.696946e+01
2.610000e-06	3.345658e-06	1.158320e-09	2.327683e+01	7.760572e+01
2.620000e-06	3.382798e-06	1.166995e-09	2.353522e+01	7.823349e+01
2.630000e-06	3.419721e-06	1.174956e-09	2.379211e+01	7.885294e+01
2.640000e-06	3.456342e-06	1.182823e-09	2.404689e+01	7.946424e+01
2.650000e-06	3.492615e-06	1.191254e-09	2.429926e+01	8.006751e+01
2.660000e-06	3.528575e-06	1.199597e-09	2.454944e+01	8.066289e+01
2.670000e-06	3.564373e-06	1.207627e-09	2.479850e+01	8.125048e+01
2.680000e-06	3.600064e-06	1.216563e-09	2.504681e+01	8.183037e+01
2.690000e-06	3.635637e-06	1.225762e-09	2.529431e+01	8.240264e+01
2.700000e-06	3.671077e-06	1.234173e-09	2.554087e+01	8.296735e+01
2.710000e-06	3.706297e-06	1.242636e-09	2.578591e+01	8.352456e+01
2.720000e-06	3.741316e-06	1.251615e-09	2.602955e+01	8.407433e+01
2.730000e-06	3.776006e-06	1.259861e-09	2.627090e+01	8.461668e+01
2.740000e-06	3.810299e-06	1.266581e-09	2.650948e+01	8.515167e+01
2.750000e-06	3.844138e-06	1.272215e-09	2.674491e+01	8.567932e+01
2.760000e-06	3.877391e-06	1.277601e-09	2.697627e+01	8.619966e+01
2.770000e-06	3.910237e-06	1.285391e-09	2.720479e+01	8.671272e+01
2.780000e-06	3.942822e-06	1.295098e-09	2.743149e+01	8.721853e+01
2.790000e-06	3.975085e-06	1.305398e-09	2.765596e+01	8.771710e+01
2.800000e-06	4.006971e-06	1.313205e-09	2.787780e+01	8.820848e+01
2.810000e-06	4.038649e-06	1.320479e-09	2.809819e+01	8.869269e+01
2.820000e-06	4.070222e-06	1.329001e-09	2.831785e+01	8.916975e+01
2.830000e-06	4.101583e-06	1.336326e-09	2.853604e+01	8.963971e+01
2.840000e-06	4.132739e-06	1.343149e-09	2.875280e+01	9.010259e+01
2.850000e-06	4.163617e-06	1.352635e-09	2.896764e+01	9.055844e+01
2.860000e-06	4.194117e-06	1.362057e-09	2.917983e+01	9.100730e+01
2.870000e-06	4.224278e-06	1.368620e-09	2.938967e+01	9.144920e+01
2.880000e-06	4.254189e-06	1.373494e-09	2.959777e+01	9.188420e+01
2.890000e-06	4.283877e-06	1.378410e-09	2.980432e+01	9.231234e+01
2.900000e-06	4.313286e-06	1.383171e-09	3.000893e+01	9.273367e+01
