# Temperatura_=_-0.87
# Concentracion g/m^3_=_1620.0
# C_Vs_to_Am_M_A/Vsm_=_65563218390.804596
# pendiente_HvsI_1/m_=_3716.3
# ordenada_HvsI_A/m_=_1297.0
# frecuencia_Hz_=_135101.76810172253

Tiempo_(s)	Campo_(V.s)	Magnetizacion_(V.s)	Campo_(kA/m)	Magnetizacion_(A/m)
0.000000e+00	-5.532638e-06	-1.199339e-09	-3.836877e+01	-8.001294e+01
1.000000e-08	-5.532875e-06	-1.196394e-09	-3.837041e+01	-7.993212e+01
2.000000e-08	-5.532922e-06	-1.195579e-09	-3.837074e+01	-7.984696e+01
3.000000e-08	-5.532641e-06	-1.197686e-09	-3.836879e+01	-7.975739e+01
4.000000e-08	-5.531815e-06	-1.198554e-09	-3.836306e+01	-7.966338e+01
5.000000e-08	-5.530358e-06	-1.187620e-09	-3.835296e+01	-7.956489e+01
6.000000e-08	-5.528313e-06	-1.167043e-09	-3.833878e+01	-7.946194e+01
7.000000e-08	-5.525772e-06	-1.163971e-09	-3.832115e+01	-7.935456e+01
8.000000e-08	-5.522699e-06	-1.209763e-09	-3.829984e+01	-7.924278e+01
9.000000e-08	-5.519079e-06	-1.285178e-09	-3.827474e+01	-7.912670e+01
1.000000e-07	-5.515040e-06	-1.317278e-09	-3.824673e+01	-7.900640e+01
1.100000e-07	-5.510681e-06	-1.241487e-09	-3.821650e+01	-7.888203e+01
1.200000e-07	-5.506105e-06	-1.096289e-09	-3.818476e+01	-7.875373e+01
1.300000e-07	-5.501342e-06	-1.132237e-09	-3.815173e+01	-7.862167e+01
1.400000e-07	-5.496255e-06	-1.220094e-09	-3.811646e+01	-7.848605e+01
1.500000e-07	-5.490637e-06	-1.232372e-09	-3.807749e+01	-7.834710e+01
1.600000e-07	-5.484614e-06	-1.148028e-09	-3.803573e+01	-7.820505e+01
1.700000e-07	-5.478360e-06	-1.135949e-09	-3.799235e+01	-7.806015e+01
1.800000e-07	-5.471677e-06	-1.242633e-09	-3.794601e+01	-7.791268e+01
1.900000e-07	-5.464494e-06	-1.203387e-09	-3.789620e+01	-7.776292e+01
2.000000e-07	-5.456993e-06	-1.137570e-09	-3.784418e+01	-7.761115e+01
2.100000e-07	-5.449235e-06	-1.102005e-09	-3.779037e+01	-7.745769e+01
2.200000e-07	-5.441228e-06	-1.198128e-09	-3.773484e+01	-7.730283e+01
2.300000e-07	-5.432959e-06	-1.183735e-09	-3.767750e+01	-7.714688e+01
2.400000e-07	-5.424313e-06	-1.141233e-09	-3.761754e+01	-7.699014e+01
2.500000e-07	-5.415146e-06	-1.087241e-09	-3.755396e+01	-7.683290e+01
2.600000e-07	-5.405236e-06	-1.117838e-09	-3.748524e+01	-7.667546e+01
2.700000e-07	-5.394609e-06	-1.118994e-09	-3.741154e+01	-7.651808e+01
2.800000e-07	-5.383515e-06	-1.123475e-09	-3.733460e+01	-7.636104e+01
2.900000e-07	-5.371994e-06	-1.114205e-09	-3.725470e+01	-7.620456e+01
3.000000e-07	-5.360120e-06	-1.114480e-09	-3.717236e+01	-7.604888e+01
3.100000e-07	-5.347925e-06	-1.121368e-09	-3.708779e+01	-7.589420e+01
3.200000e-07	-5.335294e-06	-1.110222e-09	-3.700019e+01	-7.574068e+01
3.300000e-07	-5.322153e-06	-1.097659e-09	-3.690906e+01	-7.558847e+01
3.400000e-07	-5.308641e-06	-1.089125e-09	-3.681535e+01	-7.543768e+01
3.500000e-07	-5.294829e-06	-1.130224e-09	-3.671957e+01	-7.528840e+01
3.600000e-07	-5.280566e-06	-1.121342e-09	-3.662065e+01	-7.514067e+01
3.700000e-07	-5.265719e-06	-1.110093e-09	-3.651769e+01	-7.499452e+01
3.800000e-07	-5.250315e-06	-1.107272e-09	-3.641086e+01	-7.484991e+01
3.900000e-07	-5.234491e-06	-1.115795e-09	-3.630112e+01	-7.470681e+01
4.000000e-07	-5.218208e-06	-1.079459e-09	-3.618821e+01	-7.456512e+01
4.100000e-07	-5.201566e-06	-1.111488e-09	-3.607279e+01	-7.442471e+01
4.200000e-07	-5.184641e-06	-1.131354e-09	-3.595541e+01	-7.428542e+01
4.300000e-07	-5.167413e-06	-1.104517e-09	-3.583594e+01	-7.414708e+01
4.400000e-07	-5.149856e-06	-1.085295e-09	-3.571418e+01	-7.400946e+01
4.500000e-07	-5.131889e-06	-1.158521e-09	-3.558958e+01	-7.387230e+01
4.600000e-07	-5.113394e-06	-1.124284e-09	-3.546132e+01	-7.373534e+01
4.700000e-07	-5.094415e-06	-1.067694e-09	-3.532970e+01	-7.359828e+01
4.800000e-07	-5.075191e-06	-1.104115e-09	-3.519638e+01	-7.346078e+01
4.900000e-07	-5.055732e-06	-1.150541e-09	-3.506143e+01	-7.332251e+01
5.000000e-07	-5.036017e-06	-1.075688e-09	-3.492471e+01	-7.318312e+01
5.100000e-07	-5.016101e-06	-1.084348e-09	-3.478659e+01	-7.304223e+01
5.200000e-07	-4.995894e-06	-1.132925e-09	-3.464646e+01	-7.289947e+01
5.300000e-07	-4.975350e-06	-1.095294e-09	-3.450399e+01	-7.275447e+01
5.400000e-07	-4.954462e-06	-1.063068e-09	-3.435913e+01	-7.260683e+01
5.500000e-07	-4.933236e-06	-1.128361e-09	-3.421192e+01	-7.245617e+01
5.600000e-07	-4.911613e-06	-1.105450e-09	-3.406197e+01	-7.230213e+01
5.700000e-07	-4.889590e-06	-1.049712e-09	-3.390924e+01	-7.214434e+01
5.800000e-07	-4.867255e-06	-1.094769e-09	-3.375435e+01	-7.198245e+01
5.900000e-07	-4.844606e-06	-1.119300e-09	-3.359728e+01	-7.181613e+01
6.000000e-07	-4.821646e-06	-1.057985e-09	-3.343805e+01	-7.164507e+01
6.100000e-07	-4.798368e-06	-1.065291e-09	-3.327662e+01	-7.146897e+01
6.200000e-07	-4.774802e-06	-1.104445e-09	-3.311319e+01	-7.128757e+01
6.300000e-07	-4.751052e-06	-1.061272e-09	-3.294848e+01	-7.110063e+01
6.400000e-07	-4.727072e-06	-1.049683e-09	-3.278218e+01	-7.090796e+01
6.500000e-07	-4.702721e-06	-1.080328e-09	-3.261331e+01	-7.070937e+01
6.600000e-07	-4.677879e-06	-1.063982e-09	-3.244103e+01	-7.050473e+01
6.700000e-07	-4.652431e-06	-1.035775e-09	-3.226455e+01	-7.029393e+01
6.800000e-07	-4.626521e-06	-1.067909e-09	-3.208486e+01	-7.007690e+01
6.900000e-07	-4.600218e-06	-1.060294e-09	-3.190245e+01	-6.985361e+01
7.000000e-07	-4.573401e-06	-1.038286e-09	-3.171648e+01	-6.962406e+01
7.100000e-07	-4.546212e-06	-1.047641e-09	-3.152792e+01	-6.938829e+01
7.200000e-07	-4.518813e-06	-1.060807e-09	-3.133791e+01	-6.914637e+01
7.300000e-07	-4.491208e-06	-1.032685e-09	-3.114647e+01	-6.889840e+01
7.400000e-07	-4.463436e-06	-1.032773e-09	-3.095387e+01	-6.864452e+01
7.500000e-07	-4.435455e-06	-1.032971e-09	-3.075982e+01	-6.838490e+01
7.600000e-07	-4.407100e-06	-1.022671e-09	-3.056318e+01	-6.811973e+01
7.700000e-07	-4.378380e-06	-1.011006e-09	-3.036401e+01	-6.784923e+01
7.800000e-07	-4.349391e-06	-1.018569e-09	-3.016297e+01	-6.757363e+01
7.900000e-07	-4.320034e-06	-1.008173e-09	-2.995938e+01	-6.729320e+01
8.000000e-07	-4.290334e-06	-1.005041e-09	-2.975341e+01	-6.700820e+01
8.100000e-07	-4.260353e-06	-1.003382e-09	-2.954549e+01	-6.671892e+01
8.200000e-07	-4.230090e-06	-9.955112e-10	-2.933562e+01	-6.642567e+01
8.300000e-07	-4.199614e-06	-9.795756e-10	-2.912427e+01	-6.612872e+01
8.400000e-07	-4.168823e-06	-9.819436e-10	-2.891073e+01	-6.582839e+01
8.500000e-07	-4.137647e-06	-9.795527e-10	-2.869452e+01	-6.552498e+01
8.600000e-07	-4.106249e-06	-9.690788e-10	-2.847678e+01	-6.521876e+01
8.700000e-07	-4.074750e-06	-9.647792e-10	-2.825834e+01	-6.491002e+01
8.800000e-07	-4.043154e-06	-9.638085e-10	-2.803922e+01	-6.459904e+01
8.900000e-07	-4.011381e-06	-9.531304e-10	-2.781887e+01	-6.428605e+01
9.000000e-07	-3.979368e-06	-9.428308e-10	-2.759686e+01	-6.397130e+01
9.100000e-07	-3.947042e-06	-9.435704e-10	-2.737269e+01	-6.365498e+01
9.200000e-07	-3.914284e-06	-9.353425e-10	-2.714551e+01	-6.333728e+01
9.300000e-07	-3.881103e-06	-9.269241e-10	-2.691540e+01	-6.301837e+01
9.400000e-07	-3.847493e-06	-9.270935e-10	-2.668231e+01	-6.269836e+01
9.500000e-07	-3.813341e-06	-9.266097e-10	-2.644547e+01	-6.237735e+01
9.600000e-07	-3.778751e-06	-9.124773e-10	-2.620559e+01	-6.205541e+01
9.700000e-07	-3.743775e-06	-9.083321e-10	-2.596303e+01	-6.173257e+01
9.800000e-07	-3.708510e-06	-9.044697e-10	-2.571846e+01	-6.140882e+01
9.900000e-07	-3.673078e-06	-8.972327e-10	-2.547275e+01	-6.108414e+01
1.000000e-06	-3.637506e-06	-8.898294e-10	-2.522605e+01	-6.075845e+01
1.010000e-06	-3.601824e-06	-8.943724e-10	-2.497860e+01	-6.043165e+01
1.020000e-06	-3.565977e-06	-8.892404e-10	-2.473000e+01	-6.010362e+01
1.030000e-06	-3.529967e-06	-8.832425e-10	-2.448027e+01	-5.977419e+01
1.040000e-06	-3.493726e-06	-8.796551e-10	-2.422894e+01	-5.944318e+01
1.050000e-06	-3.457202e-06	-8.777557e-10	-2.397565e+01	-5.911037e+01
1.060000e-06	-3.420323e-06	-8.656562e-10	-2.371990e+01	-5.877551e+01
1.070000e-06	-3.383072e-06	-8.597469e-10	-2.346156e+01	-5.843837e+01
1.080000e-06	-3.345649e-06	-8.528878e-10	-2.320203e+01	-5.809865e+01
1.090000e-06	-3.308093e-06	-8.442368e-10	-2.294158e+01	-5.775607e+01
1.100000e-06	-3.270291e-06	-8.361755e-10	-2.267942e+01	-5.741032e+01
1.110000e-06	-3.232206e-06	-8.350517e-10	-2.241530e+01	-5.706109e+01
1.120000e-06	-3.193880e-06	-8.292599e-10	-2.214951e+01	-5.670807e+01
1.130000e-06	-3.155315e-06	-8.229105e-10	-2.188206e+01	-5.635093e+01
1.140000e-06	-3.116564e-06	-8.196667e-10	-2.161333e+01	-5.598937e+01
1.150000e-06	-3.077629e-06	-8.145062e-10	-2.134331e+01	-5.562306e+01
1.160000e-06	-3.038417e-06	-8.043059e-10	-2.107138e+01	-5.525171e+01
1.170000e-06	-2.999043e-06	-7.982691e-10	-2.079832e+01	-5.487501e+01
1.180000e-06	-2.959562e-06	-7.966361e-10	-2.052453e+01	-5.449270e+01
1.190000e-06	-2.919969e-06	-7.921090e-10	-2.024995e+01	-5.410451e+01
1.200000e-06	-2.880288e-06	-7.874350e-10	-1.997476e+01	-5.371019e+01
1.210000e-06	-2.840440e-06	-7.824685e-10	-1.969841e+01	-5.330953e+01
1.220000e-06	-2.800448e-06	-7.741990e-10	-1.942107e+01	-5.290231e+01
1.230000e-06	-2.760306e-06	-7.627817e-10	-1.914268e+01	-5.248836e+01
1.240000e-06	-2.719864e-06	-7.556100e-10	-1.886222e+01	-5.206752e+01
1.250000e-06	-2.679167e-06	-7.467432e-10	-1.857998e+01	-5.163968e+01
1.260000e-06	-2.638301e-06	-7.386401e-10	-1.829658e+01	-5.120472e+01
1.270000e-06	-2.597232e-06	-7.316289e-10	-1.801177e+01	-5.076257e+01
1.280000e-06	-2.555825e-06	-7.291979e-10	-1.772461e+01	-5.031317e+01
1.290000e-06	-2.514078e-06	-7.235076e-10	-1.743510e+01	-4.985650e+01
1.300000e-06	-2.472123e-06	-7.138807e-10	-1.714414e+01	-4.939254e+01
1.310000e-06	-2.429922e-06	-7.027040e-10	-1.685147e+01	-4.892132e+01
1.320000e-06	-2.387391e-06	-6.927856e-10	-1.655653e+01	-4.844285e+01
1.330000e-06	-2.344535e-06	-6.818658e-10	-1.625932e+01	-4.795718e+01
1.340000e-06	-2.301552e-06	-6.742253e-10	-1.596123e+01	-4.746438e+01
1.350000e-06	-2.258426e-06	-6.671763e-10	-1.566216e+01	-4.696452e+01
1.360000e-06	-2.215028e-06	-6.599670e-10	-1.536119e+01	-4.645767e+01
1.370000e-06	-2.171477e-06	-6.514989e-10	-1.505916e+01	-4.594391e+01
1.380000e-06	-2.127865e-06	-6.467779e-10	-1.475671e+01	-4.542332e+01
1.390000e-06	-2.084165e-06	-6.396969e-10	-1.445366e+01	-4.489598e+01
1.400000e-06	-2.040354e-06	-6.304347e-10	-1.414983e+01	-4.436196e+01
1.410000e-06	-1.996475e-06	-6.202544e-10	-1.384553e+01	-4.382131e+01
1.420000e-06	-1.952513e-06	-6.127197e-10	-1.354065e+01	-4.327408e+01
1.430000e-06	-1.908493e-06	-6.057735e-10	-1.323538e+01	-4.272029e+01
1.440000e-06	-1.864376e-06	-5.997909e-10	-1.292942e+01	-4.215995e+01
1.450000e-06	-1.820075e-06	-5.925108e-10	-1.262219e+01	-4.159302e+01
1.460000e-06	-1.775631e-06	-5.829013e-10	-1.231398e+01	-4.101947e+01
1.470000e-06	-1.731050e-06	-5.708411e-10	-1.200481e+01	-4.043922e+01
1.480000e-06	-1.686365e-06	-5.590783e-10	-1.169492e+01	-3.985213e+01
1.490000e-06	-1.641565e-06	-5.491546e-10	-1.138423e+01	-3.925808e+01
1.500000e-06	-1.596593e-06	-5.405963e-10	-1.107235e+01	-3.865686e+01
1.510000e-06	-1.551563e-06	-5.338585e-10	-1.076007e+01	-3.804825e+01
1.520000e-06	-1.506461e-06	-5.272763e-10	-1.044729e+01	-3.743200e+01
1.530000e-06	-1.461174e-06	-5.207625e-10	-1.013322e+01	-3.680778e+01
1.540000e-06	-1.415809e-06	-5.114549e-10	-9.818618e+00	-3.617527e+01
1.550000e-06	-1.370407e-06	-4.991670e-10	-9.503757e+00	-3.553408e+01
1.560000e-06	-1.324890e-06	-4.853409e-10	-9.188092e+00	-3.488379e+01
1.570000e-06	-1.279237e-06	-4.735376e-10	-8.871493e+00	-3.422394e+01
1.580000e-06	-1.233450e-06	-4.628621e-10	-8.553956e+00	-3.355405e+01
1.590000e-06	-1.187560e-06	-4.553560e-10	-8.235713e+00	-3.287360e+01
1.600000e-06	-1.141601e-06	-4.477110e-10	-7.916986e+00	-3.218203e+01
1.610000e-06	-1.095524e-06	-4.376849e-10	-7.597443e+00	-3.147878e+01
1.620000e-06	-1.049421e-06	-4.273604e-10	-7.277720e+00	-3.076325e+01
1.630000e-06	-1.003315e-06	-4.200336e-10	-6.957978e+00	-3.003483e+01
1.640000e-06	-9.570965e-07	-4.121469e-10	-6.637451e+00	-2.929292e+01
1.650000e-06	-9.108372e-07	-4.025007e-10	-6.316644e+00	-2.853687e+01
1.660000e-06	-8.645321e-07	-3.893771e-10	-5.995518e+00	-2.776606e+01
1.670000e-06	-8.181095e-07	-3.739725e-10	-5.673579e+00	-2.697988e+01
1.680000e-06	-7.716141e-07	-3.578076e-10	-5.351133e+00	-2.617771e+01
1.690000e-06	-7.251367e-07	-3.447864e-10	-5.028814e+00	-2.535896e+01
1.700000e-06	-6.786674e-07	-3.342991e-10	-4.706549e+00	-2.452306e+01
1.710000e-06	-6.320656e-07	-3.239138e-10	-4.383367e+00	-2.366946e+01
1.720000e-06	-5.854219e-07	-3.114127e-10	-4.059893e+00	-2.279766e+01
1.730000e-06	-5.387844e-07	-2.971947e-10	-3.736462e+00	-2.190719e+01
1.740000e-06	-4.920707e-07	-2.787062e-10	-3.412504e+00	-2.099762e+01
1.750000e-06	-4.453408e-07	-2.606815e-10	-3.088432e+00	-2.006859e+01
1.760000e-06	-3.985241e-07	-2.466976e-10	-2.763760e+00	-1.911978e+01
1.770000e-06	-3.516796e-07	-2.342883e-10	-2.438894e+00	-1.815094e+01
1.780000e-06	-3.048264e-07	-2.220987e-10	-2.113967e+00	-1.716187e+01
1.790000e-06	-2.579032e-07	-2.095532e-10	-1.788555e+00	-1.615247e+01
1.800000e-06	-2.110160e-07	-1.953964e-10	-1.463393e+00	-1.512269e+01
1.810000e-06	-1.641342e-07	-1.781508e-10	-1.138268e+00	-1.407256e+01
1.820000e-06	-1.172367e-07	-1.617573e-10	-8.130349e-01	-1.300219e+01
1.830000e-06	-7.034064e-08	-1.479022e-10	-4.878114e-01	-1.191177e+01
1.840000e-06	-2.345219e-08	-1.354556e-10	-1.626406e-01	-1.080159e+01
1.850000e-06	2.340530e-08	-1.223896e-10	1.623154e-01	-9.671987e+00
1.860000e-06	7.018456e-08	-1.087138e-10	4.867290e-01	-8.523417e+00
1.870000e-06	1.169355e-07	-9.278907e-11	8.109464e-01	-7.356399e+00
1.880000e-06	1.638026e-07	-7.443454e-11	1.135969e+00	-6.171542e+00
1.890000e-06	2.107381e-07	-5.415837e-11	1.461466e+00	-4.969531e+00
1.900000e-06	2.577056e-07	-3.606143e-11	1.787185e+00	-3.751133e+00
1.910000e-06	3.046812e-07	-2.062808e-11	2.112960e+00	-2.517187e+00
1.920000e-06	3.516027e-07	-6.372180e-12	2.438360e+00	-1.268605e+00
1.930000e-06	3.985277e-07	7.584060e-12	2.763784e+00	-6.367855e-03
1.940000e-06	4.454402e-07	2.293442e-11	3.089122e+00	1.268481e+00
1.950000e-06	4.922014e-07	4.106489e-11	3.413410e+00	2.554838e+00
1.960000e-06	5.387989e-07	6.005978e-11	3.736563e+00	3.851549e+00
1.970000e-06	5.853584e-07	7.889806e-11	4.059453e+00	5.157409e+00
1.980000e-06	6.319391e-07	9.756651e-11	4.382490e+00	6.471174e+00
1.990000e-06	6.784524e-07	1.169479e-10	4.705058e+00	7.791563e+00
2.000000e-06	7.249276e-07	1.343969e-10	5.027363e+00	9.117267e+00
2.010000e-06	7.714000e-07	1.510151e-10	5.349649e+00	1.044695e+01
2.020000e-06	8.177955e-07	1.692078e-10	5.671401e+00	1.177927e+01
2.030000e-06	8.641307e-07	1.891689e-10	5.992735e+00	1.311288e+01
2.040000e-06	9.104328e-07	2.092474e-10	6.313839e+00	1.444640e+01
2.050000e-06	9.566287e-07	2.286626e-10	6.634207e+00	1.577849e+01
2.060000e-06	1.002646e-06	2.475921e-10	6.953339e+00	1.710781e+01
2.070000e-06	1.048586e-06	2.659814e-10	7.271930e+00	1.843303e+01
2.080000e-06	1.094573e-06	2.852513e-10	7.590848e+00	1.975286e+01
2.090000e-06	1.140513e-06	3.051390e-10	7.909440e+00	2.106603e+01
2.100000e-06	1.186344e-06	3.248572e-10	8.227280e+00	2.237129e+01
2.110000e-06	1.232092e-06	3.423679e-10	8.544542e+00	2.366748e+01
2.120000e-06	1.277746e-06	3.582399e-10	8.861149e+00	2.495342e+01
2.130000e-06	1.323320e-06	3.743650e-10	9.177207e+00	2.622804e+01
2.140000e-06	1.368796e-06	3.911857e-10	9.492585e+00	2.749029e+01
2.150000e-06	1.414207e-06	4.088163e-10	9.807504e+00	2.873919e+01
2.160000e-06	1.459507e-06	4.272641e-10	1.012166e+01	2.997381e+01
2.170000e-06	1.504647e-06	4.450331e-10	1.043471e+01	3.119331e+01
2.180000e-06	1.549699e-06	4.646646e-10	1.074714e+01	3.239688e+01
2.190000e-06	1.594667e-06	4.829422e-10	1.105900e+01	3.358381e+01
2.200000e-06	1.639539e-06	4.985379e-10	1.137018e+01	3.475344e+01
2.210000e-06	1.684277e-06	5.133058e-10	1.168044e+01	3.590518e+01
2.220000e-06	1.728887e-06	5.279734e-10	1.198980e+01	3.703852e+01
2.230000e-06	1.773370e-06	5.442810e-10	1.229830e+01	3.815300e+01
2.240000e-06	1.817644e-06	5.604104e-10	1.260533e+01	3.924824e+01
2.250000e-06	1.861770e-06	5.749201e-10	1.291135e+01	4.032392e+01
2.260000e-06	1.905786e-06	5.880674e-10	1.321660e+01	4.137979e+01
2.270000e-06	1.949755e-06	6.034571e-10	1.352153e+01	4.241567e+01
2.280000e-06	1.993686e-06	6.218183e-10	1.382619e+01	4.343141e+01
2.290000e-06	2.037479e-06	6.381096e-10	1.412989e+01	4.442694e+01
2.300000e-06	2.081219e-06	6.516132e-10	1.443323e+01	4.540223e+01
2.310000e-06	2.124926e-06	6.635093e-10	1.473634e+01	4.635732e+01
2.320000e-06	2.168540e-06	6.754181e-10	1.503880e+01	4.729228e+01
2.330000e-06	2.212067e-06	6.883102e-10	1.534065e+01	4.820722e+01
2.340000e-06	2.255525e-06	7.013028e-10	1.564204e+01	4.910229e+01
2.350000e-06	2.298837e-06	7.153237e-10	1.594240e+01	4.997769e+01
2.360000e-06	2.341928e-06	7.322018e-10	1.624124e+01	5.083364e+01
2.370000e-06	2.384915e-06	7.480009e-10	1.653935e+01	5.167038e+01
2.380000e-06	2.427650e-06	7.603126e-10	1.683572e+01	5.248817e+01
2.390000e-06	2.469933e-06	7.706846e-10	1.712895e+01	5.328733e+01
2.400000e-06	2.511811e-06	7.794960e-10	1.741937e+01	5.406814e+01
2.410000e-06	2.553370e-06	7.867454e-10	1.770759e+01	5.483092e+01
2.420000e-06	2.594691e-06	7.946875e-10	1.799414e+01	5.557601e+01
2.430000e-06	2.635761e-06	8.067236e-10	1.827897e+01	5.630374e+01
2.440000e-06	2.676497e-06	8.207361e-10	1.856147e+01	5.701444e+01
2.450000e-06	2.716890e-06	8.319460e-10	1.884160e+01	5.770846e+01
2.460000e-06	2.757114e-06	8.415732e-10	1.912055e+01	5.838613e+01
2.470000e-06	2.797235e-06	8.523404e-10	1.939879e+01	5.904778e+01
2.480000e-06	2.837199e-06	8.626246e-10	1.967594e+01	5.969376e+01
2.490000e-06	2.877005e-06	8.730007e-10	1.995199e+01	6.032436e+01
2.500000e-06	2.916689e-06	8.826376e-10	2.022720e+01	6.093993e+01
2.510000e-06	2.956279e-06	8.911083e-10	2.050175e+01	6.154075e+01
2.520000e-06	2.995727e-06	8.997563e-10	2.077532e+01	6.212713e+01
2.530000e-06	3.034962e-06	9.092499e-10	2.104742e+01	6.269936e+01
2.540000e-06	3.073983e-06	9.174670e-10	2.131803e+01	6.325772e+01
2.550000e-06	3.112832e-06	9.230384e-10	2.158745e+01	6.380247e+01
2.560000e-06	3.151399e-06	9.294281e-10	2.185491e+01	6.433388e+01
2.570000e-06	3.189628e-06	9.376410e-10	2.212003e+01	6.485220e+01
2.580000e-06	3.227647e-06	9.461219e-10	2.238369e+01	6.535767e+01
2.590000e-06	3.265477e-06	9.553940e-10	2.264604e+01	6.585053e+01
2.600000e-06	3.303088e-06	9.638332e-10	2.290687e+01	6.633101e+01
2.610000e-06	3.340517e-06	9.698984e-10	2.316644e+01	6.679934e+01
2.620000e-06	3.377801e-06	9.731686e-10	2.342500e+01	6.725573e+01
2.630000e-06	3.414880e-06	9.748390e-10	2.368214e+01	6.770041e+01
2.640000e-06	3.451692e-06	9.788536e-10	2.393744e+01	6.813359e+01
2.650000e-06	3.488220e-06	9.862735e-10	2.419076e+01	6.855548e+01
2.660000e-06	3.524470e-06	9.955616e-10	2.444215e+01	6.896630e+01
2.670000e-06	3.560520e-06	1.003452e-09	2.469216e+01	6.936627e+01
2.680000e-06	3.596431e-06	1.008386e-09	2.494120e+01	6.975560e+01
2.690000e-06	3.632207e-06	1.012598e-09	2.518931e+01	7.013451e+01
2.700000e-06	3.667875e-06	1.017008e-09	2.543667e+01	7.050322e+01
2.710000e-06	3.703436e-06	1.021372e-09	2.568328e+01	7.086197e+01
2.720000e-06	3.738782e-06	1.026910e-09	2.592840e+01	7.121097e+01
2.730000e-06	3.773834e-06	1.032607e-09	2.617149e+01	7.155046e+01
2.740000e-06	3.808545e-06	1.036808e-09	2.641221e+01	7.188069e+01
2.750000e-06	3.842780e-06	1.039646e-09	2.664963e+01	7.220188e+01
2.760000e-06	3.876502e-06	1.041883e-09	2.688349e+01	7.251429e+01
2.770000e-06	3.909683e-06	1.045041e-09	2.711360e+01	7.281817e+01
2.780000e-06	3.942361e-06	1.049723e-09	2.734022e+01	7.311377e+01
2.790000e-06	3.974689e-06	1.056423e-09	2.756441e+01	7.340134e+01
2.800000e-06	4.006758e-06	1.062652e-09	2.778681e+01	7.368113e+01
2.810000e-06	4.038629e-06	1.066858e-09	2.800784e+01	7.395340e+01
2.820000e-06	4.070354e-06	1.070327e-09	2.822785e+01	7.421840e+01
2.830000e-06	4.101914e-06	1.073022e-09	2.844672e+01	7.447639e+01
2.840000e-06	4.133249e-06	1.077515e-09	2.866403e+01	7.472761e+01
2.850000e-06	4.164314e-06	1.084290e-09	2.887946e+01	7.497231e+01
2.860000e-06	4.195049e-06	1.090791e-09	2.909261e+01	7.521072e+01
2.870000e-06	4.225496e-06	1.095378e-09	2.930376e+01	7.544307e+01
2.880000e-06	4.255625e-06	1.098818e-09	2.951270e+01	7.566959e+01
2.890000e-06	4.285475e-06	1.103533e-09	2.971971e+01	7.589050e+01
2.900000e-06	4.315114e-06	1.108442e-09	2.992526e+01	7.610598e+01
