# Temperatura_=_-0.5
# Concentracion g/m^3_=_1620.0
# C_Vs_to_Am_M_A/Vsm_=_65563218390.804596
# pendiente_HvsI_1/m_=_3716.3
# ordenada_HvsI_A/m_=_1297.0
# frecuencia_Hz_=_135094.9357661645

Tiempo_(s)	Campo_(V.s)	Magnetizacion_(V.s)	Campo_(kA/m)	Magnetizacion_(A/m)
0.000000e+00	-5.514535e-06	-1.306424e-09	-3.837620e+01	-8.769443e+01
1.000000e-08	-5.514763e-06	-1.304391e-09	-3.837779e+01	-8.765873e+01
2.000000e-08	-5.514772e-06	-1.305216e-09	-3.837786e+01	-8.762329e+01
3.000000e-08	-5.514408e-06	-1.305294e-09	-3.837532e+01	-8.758805e+01
4.000000e-08	-5.513560e-06	-1.300619e-09	-3.836942e+01	-8.755294e+01
5.000000e-08	-5.512148e-06	-1.288693e-09	-3.835960e+01	-8.751785e+01
6.000000e-08	-5.509976e-06	-1.284790e-09	-3.834448e+01	-8.748270e+01
7.000000e-08	-5.507161e-06	-1.297525e-09	-3.832489e+01	-8.744735e+01
8.000000e-08	-5.503951e-06	-1.314173e-09	-3.830255e+01	-8.741167e+01
9.000000e-08	-5.500330e-06	-1.350048e-09	-3.827735e+01	-8.737551e+01
1.000000e-07	-5.496256e-06	-1.392628e-09	-3.824900e+01	-8.733873e+01
1.100000e-07	-5.491870e-06	-1.332027e-09	-3.821848e+01	-8.730114e+01
1.200000e-07	-5.487268e-06	-1.213209e-09	-3.818645e+01	-8.726257e+01
1.300000e-07	-5.482394e-06	-1.219135e-09	-3.815253e+01	-8.722283e+01
1.400000e-07	-5.477107e-06	-1.336657e-09	-3.811574e+01	-8.718172e+01
1.500000e-07	-5.471318e-06	-1.340034e-09	-3.807545e+01	-8.713904e+01
1.600000e-07	-5.465198e-06	-1.238105e-09	-3.803286e+01	-8.709458e+01
1.700000e-07	-5.458847e-06	-1.226442e-09	-3.798867e+01	-8.704813e+01
1.800000e-07	-5.452142e-06	-1.375858e-09	-3.794201e+01	-8.699948e+01
1.900000e-07	-5.444948e-06	-1.376717e-09	-3.789194e+01	-8.694840e+01
2.000000e-07	-5.437431e-06	-1.270315e-09	-3.783963e+01	-8.689467e+01
2.100000e-07	-5.429664e-06	-1.221025e-09	-3.778558e+01	-8.683809e+01
2.200000e-07	-5.421665e-06	-1.331676e-09	-3.772991e+01	-8.677843e+01
2.300000e-07	-5.413374e-06	-1.373247e-09	-3.767221e+01	-8.671549e+01
2.400000e-07	-5.404597e-06	-1.318155e-09	-3.761114e+01	-8.664905e+01
2.500000e-07	-5.395156e-06	-1.287647e-09	-3.754543e+01	-8.657890e+01
2.600000e-07	-5.384857e-06	-1.330604e-09	-3.747376e+01	-8.650487e+01
2.700000e-07	-5.374022e-06	-1.336485e-09	-3.739836e+01	-8.642675e+01
2.800000e-07	-5.362851e-06	-1.291950e-09	-3.732062e+01	-8.634436e+01
2.900000e-07	-5.351231e-06	-1.298290e-09	-3.723976e+01	-8.625753e+01
3.000000e-07	-5.339237e-06	-1.320860e-09	-3.715629e+01	-8.616611e+01
3.100000e-07	-5.326900e-06	-1.329858e-09	-3.707044e+01	-8.606993e+01
3.200000e-07	-5.314157e-06	-1.296993e-09	-3.698176e+01	-8.596887e+01
3.300000e-07	-5.300963e-06	-1.306640e-09	-3.688993e+01	-8.586278e+01
3.400000e-07	-5.287411e-06	-1.317782e-09	-3.679563e+01	-8.575156e+01
3.500000e-07	-5.273474e-06	-1.339130e-09	-3.669864e+01	-8.563509e+01
3.600000e-07	-5.258900e-06	-1.296577e-09	-3.659722e+01	-8.551329e+01
3.700000e-07	-5.243909e-06	-1.294295e-09	-3.649289e+01	-8.538608e+01
3.800000e-07	-5.228500e-06	-1.315840e-09	-3.638566e+01	-8.525339e+01
3.900000e-07	-5.212534e-06	-1.320468e-09	-3.627455e+01	-8.511516e+01
4.000000e-07	-5.196197e-06	-1.272588e-09	-3.616086e+01	-8.497135e+01
4.100000e-07	-5.179518e-06	-1.306443e-09	-3.604479e+01	-8.482194e+01
4.200000e-07	-5.162455e-06	-1.331488e-09	-3.592604e+01	-8.466690e+01
4.300000e-07	-5.145068e-06	-1.280524e-09	-3.580505e+01	-8.450623e+01
4.400000e-07	-5.127367e-06	-1.265830e-09	-3.568187e+01	-8.433994e+01
4.500000e-07	-5.109231e-06	-1.345863e-09	-3.555565e+01	-8.416803e+01
4.600000e-07	-5.090680e-06	-1.315596e-09	-3.542655e+01	-8.399053e+01
4.700000e-07	-5.071698e-06	-1.243390e-09	-3.529446e+01	-8.380748e+01
4.800000e-07	-5.052451e-06	-1.292556e-09	-3.516052e+01	-8.361892e+01
4.900000e-07	-5.033077e-06	-1.331961e-09	-3.502569e+01	-8.342490e+01
5.000000e-07	-5.013438e-06	-1.258028e-09	-3.488902e+01	-8.322548e+01
5.100000e-07	-4.993512e-06	-1.263038e-09	-3.475035e+01	-8.302071e+01
5.200000e-07	-4.973274e-06	-1.316515e-09	-3.460951e+01	-8.281068e+01
5.300000e-07	-4.952686e-06	-1.261065e-09	-3.446624e+01	-8.259545e+01
5.400000e-07	-4.931741e-06	-1.240038e-09	-3.432048e+01	-8.237511e+01
5.500000e-07	-4.910428e-06	-1.308903e-09	-3.417216e+01	-8.214973e+01
5.600000e-07	-4.888745e-06	-1.277539e-09	-3.402127e+01	-8.191939e+01
5.700000e-07	-4.866709e-06	-1.206974e-09	-3.386792e+01	-8.168419e+01
5.800000e-07	-4.844331e-06	-1.266228e-09	-3.371219e+01	-8.144421e+01
5.900000e-07	-4.821612e-06	-1.289209e-09	-3.355409e+01	-8.119953e+01
6.000000e-07	-4.798549e-06	-1.223154e-09	-3.339359e+01	-8.095024e+01
6.100000e-07	-4.775220e-06	-1.231882e-09	-3.323124e+01	-8.069643e+01
6.200000e-07	-4.751718e-06	-1.273816e-09	-3.306769e+01	-8.043818e+01
6.300000e-07	-4.728019e-06	-1.221624e-09	-3.290276e+01	-8.017557e+01
6.400000e-07	-4.704015e-06	-1.209919e-09	-3.273572e+01	-7.990868e+01
6.500000e-07	-4.679655e-06	-1.245274e-09	-3.256619e+01	-7.963757e+01
6.600000e-07	-4.654843e-06	-1.228236e-09	-3.239352e+01	-7.936233e+01
6.700000e-07	-4.629453e-06	-1.204819e-09	-3.221683e+01	-7.908302e+01
6.800000e-07	-4.603483e-06	-1.238360e-09	-3.203610e+01	-7.879970e+01
6.900000e-07	-4.577041e-06	-1.227249e-09	-3.185209e+01	-7.851243e+01
7.000000e-07	-4.550179e-06	-1.199369e-09	-3.166516e+01	-7.822126e+01
7.100000e-07	-4.522979e-06	-1.209281e-09	-3.147587e+01	-7.792625e+01
7.200000e-07	-4.495567e-06	-1.211919e-09	-3.128511e+01	-7.762742e+01
7.300000e-07	-4.467959e-06	-1.182724e-09	-3.109298e+01	-7.732483e+01
7.400000e-07	-4.440160e-06	-1.188857e-09	-3.089952e+01	-7.701850e+01
7.500000e-07	-4.412094e-06	-1.195794e-09	-3.070421e+01	-7.670847e+01
7.600000e-07	-4.383674e-06	-1.179721e-09	-3.050643e+01	-7.639475e+01
7.700000e-07	-4.354941e-06	-1.168672e-09	-3.030647e+01	-7.607736e+01
7.800000e-07	-4.325956e-06	-1.168680e-09	-3.010476e+01	-7.575633e+01
7.900000e-07	-4.296666e-06	-1.152126e-09	-2.990093e+01	-7.543165e+01
8.000000e-07	-4.267094e-06	-1.146195e-09	-2.969514e+01	-7.510333e+01
8.100000e-07	-4.237337e-06	-1.151620e-09	-2.948806e+01	-7.477138e+01
8.200000e-07	-4.207252e-06	-1.140829e-09	-2.927869e+01	-7.443580e+01
8.300000e-07	-4.176771e-06	-1.127489e-09	-2.906657e+01	-7.409657e+01
8.400000e-07	-4.146022e-06	-1.126878e-09	-2.885259e+01	-7.375369e+01
8.500000e-07	-4.114992e-06	-1.117171e-09	-2.863665e+01	-7.340716e+01
8.600000e-07	-4.083723e-06	-1.099509e-09	-2.841904e+01	-7.305695e+01
8.700000e-07	-4.052289e-06	-1.100188e-09	-2.820029e+01	-7.270305e+01
8.800000e-07	-4.020667e-06	-1.100730e-09	-2.798023e+01	-7.234545e+01
8.900000e-07	-3.988808e-06	-1.093859e-09	-2.775851e+01	-7.198413e+01
9.000000e-07	-3.956681e-06	-1.088720e-09	-2.753495e+01	-7.161908e+01
9.100000e-07	-3.924289e-06	-1.087257e-09	-2.730953e+01	-7.125026e+01
9.200000e-07	-3.891548e-06	-1.070118e-09	-2.708168e+01	-7.087767e+01
9.300000e-07	-3.858348e-06	-1.060562e-09	-2.685064e+01	-7.050129e+01
9.400000e-07	-3.824724e-06	-1.062260e-09	-2.661664e+01	-7.012110e+01
9.500000e-07	-3.790685e-06	-1.058471e-09	-2.637976e+01	-6.973707e+01
9.600000e-07	-3.756208e-06	-1.044464e-09	-2.613983e+01	-6.934920e+01
9.700000e-07	-3.721316e-06	-1.043187e-09	-2.589702e+01	-6.895747e+01
9.800000e-07	-3.686165e-06	-1.036110e-09	-2.565239e+01	-6.856185e+01
9.900000e-07	-3.650919e-06	-1.024564e-09	-2.540711e+01	-6.816235e+01
1.000000e-06	-3.615543e-06	-1.015665e-09	-2.516093e+01	-6.775894e+01
1.010000e-06	-3.579949e-06	-1.015576e-09	-2.491322e+01	-6.735161e+01
1.020000e-06	-3.544154e-06	-1.007591e-09	-2.466412e+01	-6.694036e+01
1.030000e-06	-3.508125e-06	-1.003451e-09	-2.441340e+01	-6.652517e+01
1.040000e-06	-3.471841e-06	-1.002891e-09	-2.416089e+01	-6.610604e+01
1.050000e-06	-3.435333e-06	-9.947881e-10	-2.390683e+01	-6.568296e+01
1.060000e-06	-3.398583e-06	-9.794891e-10	-2.365109e+01	-6.525592e+01
1.070000e-06	-3.361546e-06	-9.682555e-10	-2.339334e+01	-6.482493e+01
1.080000e-06	-3.324243e-06	-9.578676e-10	-2.313374e+01	-6.438997e+01
1.090000e-06	-3.286726e-06	-9.467125e-10	-2.287266e+01	-6.395105e+01
1.100000e-06	-3.248950e-06	-9.442818e-10	-2.260977e+01	-6.350815e+01
1.110000e-06	-3.210972e-06	-9.426872e-10	-2.234548e+01	-6.306127e+01
1.120000e-06	-3.172782e-06	-9.345741e-10	-2.207971e+01	-6.261041e+01
1.130000e-06	-3.134432e-06	-9.256260e-10	-2.181283e+01	-6.215556e+01
1.140000e-06	-3.095892e-06	-9.168568e-10	-2.154462e+01	-6.169671e+01
1.150000e-06	-3.057067e-06	-9.012150e-10	-2.127444e+01	-6.123384e+01
1.160000e-06	-3.018027e-06	-8.875762e-10	-2.100275e+01	-6.076695e+01
1.170000e-06	-2.978773e-06	-8.826275e-10	-2.072959e+01	-6.029601e+01
1.180000e-06	-2.939369e-06	-8.835112e-10	-2.045537e+01	-5.982101e+01
1.190000e-06	-2.899905e-06	-8.819491e-10	-2.018073e+01	-5.934191e+01
1.200000e-06	-2.860333e-06	-8.819670e-10	-1.990535e+01	-5.885868e+01
1.210000e-06	-2.820532e-06	-8.747594e-10	-1.962837e+01	-5.837129e+01
1.220000e-06	-2.780635e-06	-8.605830e-10	-1.935072e+01	-5.787968e+01
1.230000e-06	-2.740685e-06	-8.441821e-10	-1.907270e+01	-5.738381e+01
1.240000e-06	-2.700523e-06	-8.326520e-10	-1.879322e+01	-5.688361e+01
1.250000e-06	-2.660058e-06	-8.256998e-10	-1.851161e+01	-5.637902e+01
1.260000e-06	-2.619356e-06	-8.240049e-10	-1.822837e+01	-5.586995e+01
1.270000e-06	-2.578510e-06	-8.206768e-10	-1.794411e+01	-5.535631e+01
1.280000e-06	-2.537357e-06	-8.162183e-10	-1.765773e+01	-5.483800e+01
1.290000e-06	-2.495837e-06	-8.059080e-10	-1.736878e+01	-5.431492e+01
1.300000e-06	-2.454012e-06	-7.916547e-10	-1.707772e+01	-5.378692e+01
1.310000e-06	-2.411731e-06	-7.742364e-10	-1.678348e+01	-5.325388e+01
1.320000e-06	-2.369145e-06	-7.592075e-10	-1.648712e+01	-5.271563e+01
1.330000e-06	-2.326402e-06	-7.498553e-10	-1.618967e+01	-5.217203e+01
1.340000e-06	-2.283360e-06	-7.441074e-10	-1.589013e+01	-5.162287e+01
1.350000e-06	-2.240174e-06	-7.381224e-10	-1.558960e+01	-5.106797e+01
1.360000e-06	-2.196919e-06	-7.316088e-10	-1.528858e+01	-5.050712e+01
1.370000e-06	-2.153528e-06	-7.237871e-10	-1.498662e+01	-4.994009e+01
1.380000e-06	-2.110038e-06	-7.150476e-10	-1.468397e+01	-4.936663e+01
1.390000e-06	-2.066427e-06	-7.031903e-10	-1.438047e+01	-4.878649e+01
1.400000e-06	-2.022721e-06	-6.894173e-10	-1.407632e+01	-4.819939e+01
1.410000e-06	-1.979026e-06	-6.755246e-10	-1.377224e+01	-4.760504e+01
1.420000e-06	-1.935240e-06	-6.630478e-10	-1.346753e+01	-4.700312e+01
1.430000e-06	-1.891308e-06	-6.566421e-10	-1.316180e+01	-4.639333e+01
1.440000e-06	-1.847209e-06	-6.509258e-10	-1.285492e+01	-4.577532e+01
1.450000e-06	-1.803017e-06	-6.444369e-10	-1.254738e+01	-4.514873e+01
1.460000e-06	-1.758713e-06	-6.343637e-10	-1.223906e+01	-4.451320e+01
1.470000e-06	-1.714278e-06	-6.194152e-10	-1.192984e+01	-4.386835e+01
1.480000e-06	-1.669802e-06	-6.026924e-10	-1.162032e+01	-4.321378e+01
1.490000e-06	-1.625136e-06	-5.899776e-10	-1.130948e+01	-4.254909e+01
1.500000e-06	-1.580309e-06	-5.806496e-10	-1.099753e+01	-4.187386e+01
1.510000e-06	-1.535333e-06	-5.729350e-10	-1.068454e+01	-4.118767e+01
1.520000e-06	-1.490212e-06	-5.647664e-10	-1.037054e+01	-4.049009e+01
1.530000e-06	-1.445009e-06	-5.567396e-10	-1.005597e+01	-3.978067e+01
1.540000e-06	-1.399761e-06	-5.437909e-10	-9.741077e+00	-3.905898e+01
1.550000e-06	-1.354464e-06	-5.290747e-10	-9.425851e+00	-3.832456e+01
1.560000e-06	-1.309113e-06	-5.149586e-10	-9.110251e+00	-3.757696e+01
1.570000e-06	-1.263700e-06	-5.008028e-10	-8.794215e+00	-3.681575e+01
1.580000e-06	-1.218052e-06	-4.871780e-10	-8.476544e+00	-3.604047e+01
1.590000e-06	-1.172211e-06	-4.775761e-10	-8.157533e+00	-3.525068e+01
1.600000e-06	-1.126370e-06	-4.663413e-10	-7.838524e+00	-3.444596e+01
1.610000e-06	-1.080517e-06	-4.529737e-10	-7.519427e+00	-3.362589e+01
1.620000e-06	-1.034547e-06	-4.412069e-10	-7.199518e+00	-3.279004e+01
1.630000e-06	-9.885506e-07	-4.316801e-10	-6.879423e+00	-3.193803e+01
1.640000e-06	-9.424855e-07	-4.210828e-10	-6.558852e+00	-3.106949e+01
1.650000e-06	-8.962711e-07	-4.074998e-10	-6.237241e+00	-3.018404e+01
1.660000e-06	-8.500823e-07	-3.935364e-10	-5.915808e+00	-2.928135e+01
1.670000e-06	-8.038834e-07	-3.774199e-10	-5.594306e+00	-2.836112e+01
1.680000e-06	-7.576528e-07	-3.616650e-10	-5.272583e+00	-2.742306e+01
1.690000e-06	-7.114094e-07	-3.487470e-10	-4.950770e+00	-2.646692e+01
1.700000e-06	-6.650609e-07	-3.373620e-10	-4.628226e+00	-2.549247e+01
1.710000e-06	-6.186077e-07	-3.240288e-10	-4.304953e+00	-2.449953e+01
1.720000e-06	-5.720780e-07	-3.084348e-10	-3.981148e+00	-2.348795e+01
1.730000e-06	-5.254963e-07	-2.899833e-10	-3.656982e+00	-2.245761e+01
1.740000e-06	-4.788752e-07	-2.686919e-10	-3.332541e+00	-2.140846e+01
1.750000e-06	-4.322952e-07	-2.512906e-10	-3.008386e+00	-2.034045e+01
1.760000e-06	-3.856825e-07	-2.375295e-10	-2.684003e+00	-1.925362e+01
1.770000e-06	-3.389969e-07	-2.242677e-10	-2.359114e+00	-1.814804e+01
1.780000e-06	-2.923066e-07	-2.121260e-10	-2.034191e+00	-1.702380e+01
1.790000e-06	-2.455543e-07	-1.986058e-10	-1.708837e+00	-1.588109e+01
1.800000e-06	-1.987541e-07	-1.817606e-10	-1.383150e+00	-1.472012e+01
1.810000e-06	-1.519274e-07	-1.619737e-10	-1.057278e+00	-1.354115e+01
1.820000e-06	-1.051452e-07	-1.437061e-10	-7.317161e-01	-1.234451e+01
1.830000e-06	-5.842409e-08	-1.284464e-10	-4.065791e-01	-1.113056e+01
1.840000e-06	-1.171785e-08	-1.140485e-10	-8.154572e-02	-9.899741e+00
1.850000e-06	3.505831e-08	-9.681501e-11	2.439743e-01	-8.652522e+00
1.860000e-06	8.192281e-08	-7.916650e-11	5.701091e-01	-7.389438e+00
1.870000e-06	1.287176e-07	-6.132005e-11	8.957584e-01	-6.111073e+00
1.880000e-06	1.754075e-07	-4.292275e-11	1.220678e+00	-4.818060e+00
1.890000e-06	2.220980e-07	-2.359078e-11	1.545603e+00	-3.511085e+00
1.900000e-06	2.688484e-07	-4.400989e-12	1.870943e+00	-2.190881e+00
1.910000e-06	3.155865e-07	1.453236e-11	2.196199e+00	-8.582286e-01
1.920000e-06	3.622477e-07	3.332087e-11	2.520918e+00	4.860467e-01
1.930000e-06	4.088542e-07	5.125687e-11	2.845258e+00	1.841077e+00
1.940000e-06	4.555016e-07	6.965090e-11	3.169882e+00	3.205952e+00
1.950000e-06	5.021719e-07	8.982309e-11	3.494665e+00	4.579725e+00
1.960000e-06	5.487796e-07	1.096834e-10	3.819013e+00	5.961415e+00
1.970000e-06	5.953030e-07	1.268461e-10	4.142774e+00	7.350008e+00
1.980000e-06	6.416658e-07	1.426925e-10	4.465417e+00	8.744459e+00
1.990000e-06	6.879652e-07	1.607079e-10	4.787620e+00	1.014370e+01
2.000000e-06	7.343022e-07	1.791806e-10	5.110083e+00	1.154664e+01
2.010000e-06	7.805668e-07	1.995662e-10	5.432043e+00	1.295218e+01
2.020000e-06	8.267375e-07	2.239934e-10	5.753350e+00	1.435918e+01
2.030000e-06	8.729008e-07	2.496846e-10	6.074605e+00	1.576651e+01
2.040000e-06	9.190114e-07	2.709279e-10	6.395493e+00	1.717304e+01
2.050000e-06	9.650137e-07	2.889729e-10	6.715628e+00	1.857762e+01
2.060000e-06	1.010978e-06	3.074107e-10	7.035500e+00	1.997911e+01
2.070000e-06	1.056900e-06	3.267942e-10	7.355075e+00	2.137637e+01
2.080000e-06	1.102748e-06	3.485991e-10	7.674137e+00	2.276828e+01
2.090000e-06	1.148542e-06	3.722804e-10	7.992821e+00	2.415372e+01
2.100000e-06	1.194208e-06	3.951721e-10	8.310616e+00	2.553160e+01
2.110000e-06	1.239761e-06	4.142848e-10	8.627624e+00	2.690084e+01
2.120000e-06	1.285191e-06	4.326781e-10	8.943772e+00	2.826039e+01
2.130000e-06	1.330504e-06	4.518307e-10	9.259109e+00	2.960923e+01
2.140000e-06	1.375801e-06	4.716707e-10	9.574340e+00	3.094637e+01
2.150000e-06	1.421068e-06	4.906890e-10	9.889357e+00	3.227085e+01
2.160000e-06	1.466261e-06	5.088000e-10	1.020386e+01	3.358175e+01
2.170000e-06	1.511231e-06	5.263352e-10	1.051681e+01	3.487821e+01
2.180000e-06	1.556070e-06	5.467410e-10	1.082885e+01	3.615938e+01
2.190000e-06	1.600788e-06	5.659976e-10	1.114004e+01	3.742448e+01
2.200000e-06	1.645366e-06	5.829797e-10	1.145027e+01	3.867276e+01
2.210000e-06	1.689877e-06	5.985943e-10	1.176003e+01	3.990354e+01
2.220000e-06	1.734162e-06	6.145812e-10	1.206821e+01	4.111618e+01
2.230000e-06	1.778259e-06	6.307272e-10	1.237508e+01	4.231009e+01
2.240000e-06	1.822291e-06	6.440601e-10	1.268151e+01	4.348474e+01
2.250000e-06	1.866258e-06	6.588694e-10	1.298748e+01	4.463965e+01
2.260000e-06	1.910134e-06	6.737877e-10	1.329281e+01	4.577438e+01
2.270000e-06	1.953905e-06	6.906352e-10	1.359742e+01	4.688859e+01
2.280000e-06	1.997574e-06	7.091083e-10	1.390132e+01	4.798193e+01
2.290000e-06	2.041201e-06	7.269037e-10	1.420492e+01	4.905417e+01
2.300000e-06	2.084827e-06	7.404740e-10	1.450852e+01	5.010509e+01
2.310000e-06	2.128417e-06	7.512363e-10	1.481187e+01	5.113453e+01
2.320000e-06	2.171927e-06	7.644240e-10	1.511466e+01	5.214239e+01
2.330000e-06	2.215325e-06	7.779848e-10	1.541667e+01	5.312863e+01
2.340000e-06	2.258541e-06	7.919217e-10	1.571741e+01	5.409323e+01
2.350000e-06	2.301575e-06	8.079855e-10	1.601689e+01	5.503624e+01
2.360000e-06	2.344446e-06	8.253741e-10	1.631524e+01	5.595774e+01
2.370000e-06	2.387013e-06	8.384856e-10	1.661146e+01	5.685787e+01
2.380000e-06	2.429274e-06	8.479106e-10	1.690557e+01	5.773680e+01
2.390000e-06	2.471279e-06	8.578622e-10	1.719788e+01	5.859474e+01
2.400000e-06	2.512955e-06	8.674644e-10	1.748791e+01	5.943192e+01
2.410000e-06	2.554399e-06	8.772883e-10	1.777632e+01	6.024864e+01
2.420000e-06	2.595512e-06	8.888131e-10	1.806243e+01	6.104518e+01
2.430000e-06	2.636307e-06	9.027196e-10	1.834633e+01	6.182190e+01
2.440000e-06	2.676824e-06	9.162159e-10	1.862829e+01	6.257914e+01
2.450000e-06	2.717044e-06	9.260889e-10	1.890819e+01	6.331729e+01
2.460000e-06	2.757055e-06	9.344430e-10	1.918662e+01	6.403674e+01
2.470000e-06	2.796885e-06	9.436386e-10	1.946380e+01	6.473792e+01
2.480000e-06	2.836650e-06	9.546404e-10	1.974054e+01	6.542125e+01
2.490000e-06	2.876305e-06	9.648669e-10	2.001650e+01	6.608717e+01
2.500000e-06	2.915795e-06	9.744232e-10	2.029131e+01	6.673612e+01
2.510000e-06	2.955186e-06	9.849705e-10	2.056544e+01	6.736857e+01
2.520000e-06	2.994481e-06	9.956442e-10	2.083890e+01	6.798496e+01
2.530000e-06	3.033545e-06	1.005336e-09	2.111075e+01	6.858576e+01
2.540000e-06	3.072335e-06	1.013444e-09	2.138069e+01	6.917142e+01
2.550000e-06	3.110893e-06	1.019086e-09	2.164902e+01	6.974239e+01
2.560000e-06	3.149253e-06	1.024786e-09	2.191597e+01	7.029912e+01
2.570000e-06	3.187414e-06	1.032754e-09	2.218154e+01	7.084206e+01
2.580000e-06	3.225336e-06	1.039346e-09	2.244544e+01	7.137163e+01
2.590000e-06	3.263040e-06	1.046897e-09	2.270783e+01	7.188825e+01
2.600000e-06	3.300541e-06	1.057945e-09	2.296880e+01	7.239235e+01
2.610000e-06	3.337819e-06	1.066311e-09	2.322822e+01	7.288431e+01
2.620000e-06	3.374922e-06	1.070255e-09	2.348642e+01	7.336453e+01
2.630000e-06	3.411768e-06	1.072573e-09	2.374284e+01	7.383337e+01
2.640000e-06	3.448306e-06	1.077019e-09	2.399711e+01	7.429120e+01
2.650000e-06	3.484610e-06	1.085058e-09	2.424975e+01	7.473836e+01
2.660000e-06	3.520630e-06	1.092652e-09	2.450042e+01	7.517518e+01
2.670000e-06	3.556400e-06	1.098590e-09	2.474935e+01	7.560196e+01
2.680000e-06	3.592041e-06	1.105929e-09	2.499737e+01	7.601901e+01
2.690000e-06	3.627631e-06	1.112351e-09	2.524505e+01	7.642661e+01
2.700000e-06	3.663091e-06	1.116669e-09	2.549182e+01	7.682503e+01
2.710000e-06	3.698419e-06	1.121689e-09	2.573767e+01	7.721451e+01
2.720000e-06	3.733606e-06	1.127714e-09	2.598254e+01	7.759529e+01
2.730000e-06	3.768402e-06	1.134058e-09	2.622469e+01	7.796761e+01
2.740000e-06	3.802782e-06	1.140238e-09	2.646394e+01	7.833166e+01
2.750000e-06	3.836763e-06	1.144766e-09	2.670042e+01	7.868764e+01
2.760000e-06	3.870168e-06	1.147320e-09	2.693289e+01	7.903574e+01
2.770000e-06	3.903003e-06	1.151324e-09	2.716139e+01	7.937612e+01
2.780000e-06	3.935432e-06	1.155459e-09	2.738707e+01	7.970896e+01
2.790000e-06	3.967518e-06	1.158893e-09	2.761036e+01	8.003440e+01
2.800000e-06	3.999404e-06	1.163388e-09	2.783225e+01	8.035258e+01
2.810000e-06	4.031161e-06	1.168172e-09	2.805325e+01	8.066364e+01
2.820000e-06	4.062712e-06	1.173345e-09	2.827282e+01	8.096769e+01
2.830000e-06	4.094110e-06	1.179610e-09	2.849133e+01	8.126486e+01
2.840000e-06	4.125384e-06	1.186560e-09	2.870896e+01	8.155525e+01
2.850000e-06	4.156402e-06	1.194868e-09	2.892482e+01	8.183896e+01
2.860000e-06	4.187106e-06	1.201108e-09	2.913849e+01	8.211610e+01
2.870000e-06	4.217436e-06	1.203441e-09	2.934956e+01	8.238674e+01
2.880000e-06	4.247429e-06	1.205142e-09	2.955829e+01	8.265099e+01
2.890000e-06	4.277122e-06	1.208613e-09	2.976492e+01	8.290891e+01
2.900000e-06	4.306498e-06	1.215238e-09	2.996935e+01	8.316059e+01
2.910000e-06	4.335672e-06	1.222761e-09	3.017238e+01	8.340611e+01
