# Temperatura_=_-1.1
# Concentracion g/m^3_=_1620.0
# C_Vs_to_Am_M_A/Vsm_=_65563218390.804596
# pendiente_HvsI_1/m_=_3716.3
# ordenada_HvsI_A/m_=_1297.0
# frecuencia_Hz_=_135101.35118262944

Tiempo_(s)	Campo_(V.s)	Magnetizacion_(V.s)	Campo_(kA/m)	Magnetizacion_(A/m)
0.000000e+00	-5.519099e-06	-1.097009e-09	-3.837244e+01	-7.250015e+01
1.000000e-08	-5.519244e-06	-1.094651e-09	-3.837345e+01	-7.243977e+01
2.000000e-08	-5.519020e-06	-1.094639e-09	-3.837190e+01	-7.237895e+01
3.000000e-08	-5.518326e-06	-1.094923e-09	-3.836706e+01	-7.231764e+01
4.000000e-08	-5.517204e-06	-1.090407e-09	-3.835927e+01	-7.225580e+01
5.000000e-08	-5.515601e-06	-1.087850e-09	-3.834812e+01	-7.219337e+01
6.000000e-08	-5.513460e-06	-1.100623e-09	-3.833324e+01	-7.213028e+01
7.000000e-08	-5.510817e-06	-1.129468e-09	-3.831486e+01	-7.206647e+01
8.000000e-08	-5.507568e-06	-1.118215e-09	-3.829227e+01	-7.200187e+01
9.000000e-08	-5.503796e-06	-1.074202e-09	-3.826605e+01	-7.193640e+01
1.000000e-07	-5.499668e-06	-1.088592e-09	-3.823734e+01	-7.186998e+01
1.100000e-07	-5.495258e-06	-1.118549e-09	-3.820668e+01	-7.180254e+01
1.200000e-07	-5.490559e-06	-1.106782e-09	-3.817401e+01	-7.173398e+01
1.300000e-07	-5.485511e-06	-1.072387e-09	-3.813891e+01	-7.166424e+01
1.400000e-07	-5.480104e-06	-1.062069e-09	-3.810132e+01	-7.159323e+01
1.500000e-07	-5.474330e-06	-1.107284e-09	-3.806118e+01	-7.152087e+01
1.600000e-07	-5.468123e-06	-1.098937e-09	-3.801802e+01	-7.144708e+01
1.700000e-07	-5.461552e-06	-1.104988e-09	-3.797234e+01	-7.137179e+01
1.800000e-07	-5.454623e-06	-1.108266e-09	-3.792416e+01	-7.129492e+01
1.900000e-07	-5.447290e-06	-1.108242e-09	-3.787318e+01	-7.121641e+01
2.000000e-07	-5.439644e-06	-1.092242e-09	-3.782002e+01	-7.113619e+01
2.100000e-07	-5.431725e-06	-1.087953e-09	-3.776496e+01	-7.105421e+01
2.200000e-07	-5.423440e-06	-1.090004e-09	-3.770736e+01	-7.097040e+01
2.300000e-07	-5.414808e-06	-1.080328e-09	-3.764734e+01	-7.088472e+01
2.400000e-07	-5.405801e-06	-1.081840e-09	-3.758472e+01	-7.079711e+01
2.500000e-07	-5.396196e-06	-1.087521e-09	-3.751794e+01	-7.070755e+01
2.600000e-07	-5.386002e-06	-1.080773e-09	-3.744706e+01	-7.061598e+01
2.700000e-07	-5.375228e-06	-1.056602e-09	-3.737215e+01	-7.052238e+01
2.800000e-07	-5.363924e-06	-1.066562e-09	-3.729356e+01	-7.042673e+01
2.900000e-07	-5.352262e-06	-1.071826e-09	-3.721248e+01	-7.032899e+01
3.000000e-07	-5.340117e-06	-1.060701e-09	-3.712804e+01	-7.022915e+01
3.100000e-07	-5.327500e-06	-1.051978e-09	-3.704032e+01	-7.012719e+01
3.200000e-07	-5.314523e-06	-1.081986e-09	-3.695010e+01	-7.002311e+01
3.300000e-07	-5.301152e-06	-1.070355e-09	-3.685713e+01	-6.991689e+01
3.400000e-07	-5.287311e-06	-1.049919e-09	-3.676090e+01	-6.980852e+01
3.500000e-07	-5.273040e-06	-1.056039e-09	-3.666168e+01	-6.969801e+01
3.600000e-07	-5.258420e-06	-1.062874e-09	-3.656003e+01	-6.958534e+01
3.700000e-07	-5.243455e-06	-1.047293e-09	-3.645598e+01	-6.947054e+01
3.800000e-07	-5.228041e-06	-1.065021e-09	-3.634881e+01	-6.935358e+01
3.900000e-07	-5.212058e-06	-1.072275e-09	-3.623769e+01	-6.923448e+01
4.000000e-07	-5.195710e-06	-1.037531e-09	-3.612402e+01	-6.911323e+01
4.100000e-07	-5.179021e-06	-1.037454e-09	-3.600799e+01	-6.898985e+01
4.200000e-07	-5.161852e-06	-1.071022e-09	-3.588862e+01	-6.886433e+01
4.300000e-07	-5.144346e-06	-1.040416e-09	-3.576691e+01	-6.873669e+01
4.400000e-07	-5.126519e-06	-1.019543e-09	-3.564297e+01	-6.860691e+01
4.500000e-07	-5.108250e-06	-1.062306e-09	-3.551595e+01	-6.847500e+01
4.600000e-07	-5.089596e-06	-1.058423e-09	-3.538625e+01	-6.834096e+01
4.700000e-07	-5.070587e-06	-1.016232e-09	-3.525409e+01	-6.820480e+01
4.800000e-07	-5.051259e-06	-1.048690e-09	-3.511970e+01	-6.806651e+01
4.900000e-07	-5.031725e-06	-1.069569e-09	-3.498390e+01	-6.792610e+01
5.000000e-07	-5.011966e-06	-1.015301e-09	-3.484652e+01	-6.778355e+01
5.100000e-07	-4.991856e-06	-1.017275e-09	-3.470670e+01	-6.763886e+01
5.200000e-07	-4.971411e-06	-1.060955e-09	-3.456456e+01	-6.749203e+01
5.300000e-07	-4.950667e-06	-1.028052e-09	-3.442032e+01	-6.734305e+01
5.400000e-07	-4.929569e-06	-1.002146e-09	-3.427364e+01	-6.719192e+01
5.500000e-07	-4.908161e-06	-1.045647e-09	-3.412479e+01	-6.703863e+01
5.600000e-07	-4.886406e-06	-1.038547e-09	-3.397354e+01	-6.688318e+01
5.700000e-07	-4.864251e-06	-1.005340e-09	-3.381951e+01	-6.672554e+01
5.800000e-07	-4.841680e-06	-1.033458e-09	-3.366257e+01	-6.656572e+01
5.900000e-07	-4.818801e-06	-1.044692e-09	-3.350350e+01	-6.640371e+01
6.000000e-07	-4.795709e-06	-1.000442e-09	-3.334295e+01	-6.623950e+01
6.100000e-07	-4.772320e-06	-1.002662e-09	-3.318034e+01	-6.607308e+01
6.200000e-07	-4.748667e-06	-1.019814e-09	-3.301589e+01	-6.590444e+01
6.300000e-07	-4.724744e-06	-9.933555e-10	-3.284956e+01	-6.573358e+01
6.400000e-07	-4.700503e-06	-9.819444e-10	-3.268102e+01	-6.556049e+01
6.500000e-07	-4.675876e-06	-1.005633e-09	-3.250980e+01	-6.538516e+01
6.600000e-07	-4.650770e-06	-9.961234e-10	-3.233525e+01	-6.520758e+01
6.700000e-07	-4.625250e-06	-9.829442e-10	-3.215781e+01	-6.502776e+01
6.800000e-07	-4.599247e-06	-9.970066e-10	-3.197702e+01	-6.484567e+01
6.900000e-07	-4.572690e-06	-9.991386e-10	-3.179238e+01	-6.466132e+01
7.000000e-07	-4.545726e-06	-9.780545e-10	-3.160491e+01	-6.447470e+01
7.100000e-07	-4.518438e-06	-9.757168e-10	-3.141518e+01	-6.428581e+01
7.200000e-07	-4.490911e-06	-9.792361e-10	-3.122380e+01	-6.409463e+01
7.300000e-07	-4.463158e-06	-9.691223e-10	-3.103084e+01	-6.390116e+01
7.400000e-07	-4.435112e-06	-9.644587e-10	-3.083585e+01	-6.370538e+01
7.500000e-07	-4.406767e-06	-9.730721e-10	-3.063877e+01	-6.350729e+01
7.600000e-07	-4.378170e-06	-9.701880e-10	-3.043995e+01	-6.330688e+01
7.700000e-07	-4.349312e-06	-9.608710e-10	-3.023931e+01	-6.310412e+01
7.800000e-07	-4.320180e-06	-9.619886e-10	-3.003676e+01	-6.289900e+01
7.900000e-07	-4.290827e-06	-9.611199e-10	-2.983268e+01	-6.269150e+01
8.000000e-07	-4.261192e-06	-9.480490e-10	-2.962663e+01	-6.248159e+01
8.100000e-07	-4.231208e-06	-9.410611e-10	-2.941817e+01	-6.226924e+01
8.200000e-07	-4.200888e-06	-9.416634e-10	-2.920736e+01	-6.205443e+01
8.300000e-07	-4.170331e-06	-9.339013e-10	-2.899491e+01	-6.183710e+01
8.400000e-07	-4.139536e-06	-9.297663e-10	-2.878080e+01	-6.161722e+01
8.500000e-07	-4.108368e-06	-9.298911e-10	-2.856410e+01	-6.139474e+01
8.600000e-07	-4.076917e-06	-9.245123e-10	-2.834543e+01	-6.116961e+01
8.700000e-07	-4.045334e-06	-9.161504e-10	-2.812585e+01	-6.094176e+01
8.800000e-07	-4.013595e-06	-9.159334e-10	-2.790518e+01	-6.071113e+01
8.900000e-07	-3.981606e-06	-9.105639e-10	-2.768277e+01	-6.047765e+01
9.000000e-07	-3.949274e-06	-9.009444e-10	-2.745798e+01	-6.024123e+01
9.100000e-07	-3.916682e-06	-8.990704e-10	-2.723137e+01	-6.000180e+01
9.200000e-07	-3.883663e-06	-8.970125e-10	-2.700181e+01	-5.975927e+01
9.300000e-07	-3.850168e-06	-8.861240e-10	-2.676893e+01	-5.951353e+01
9.400000e-07	-3.816366e-06	-8.809706e-10	-2.653391e+01	-5.926449e+01
9.500000e-07	-3.782172e-06	-8.791413e-10	-2.629617e+01	-5.901204e+01
9.600000e-07	-3.747527e-06	-8.699134e-10	-2.605530e+01	-5.875608e+01
9.700000e-07	-3.712497e-06	-8.611868e-10	-2.581174e+01	-5.849648e+01
9.800000e-07	-3.677258e-06	-8.633692e-10	-2.556674e+01	-5.823313e+01
9.900000e-07	-3.641807e-06	-8.623698e-10	-2.532026e+01	-5.796591e+01
1.000000e-06	-3.606113e-06	-8.556208e-10	-2.507209e+01	-5.769469e+01
1.010000e-06	-3.570296e-06	-8.504988e-10	-2.482307e+01	-5.741935e+01
1.020000e-06	-3.534341e-06	-8.461688e-10	-2.457309e+01	-5.713977e+01
1.030000e-06	-3.498121e-06	-8.361261e-10	-2.432126e+01	-5.685581e+01
1.040000e-06	-3.461668e-06	-8.301204e-10	-2.406782e+01	-5.656736e+01
1.050000e-06	-3.425046e-06	-8.281726e-10	-2.381319e+01	-5.627430e+01
1.060000e-06	-3.388195e-06	-8.219409e-10	-2.355698e+01	-5.597649e+01
1.070000e-06	-3.351067e-06	-8.184465e-10	-2.329884e+01	-5.567383e+01
1.080000e-06	-3.313723e-06	-8.198550e-10	-2.303920e+01	-5.536621e+01
1.090000e-06	-3.276148e-06	-8.144882e-10	-2.277796e+01	-5.505352e+01
1.100000e-06	-3.238306e-06	-8.033691e-10	-2.251485e+01	-5.473565e+01
1.110000e-06	-3.200204e-06	-7.957391e-10	-2.224995e+01	-5.441252e+01
1.120000e-06	-3.161851e-06	-7.889751e-10	-2.198329e+01	-5.408404e+01
1.130000e-06	-3.123311e-06	-7.820393e-10	-2.171533e+01	-5.375012e+01
1.140000e-06	-3.084589e-06	-7.796319e-10	-2.144611e+01	-5.341070e+01
1.150000e-06	-3.045676e-06	-7.773130e-10	-2.117556e+01	-5.306572e+01
1.160000e-06	-3.006603e-06	-7.692605e-10	-2.090390e+01	-5.271512e+01
1.170000e-06	-2.967352e-06	-7.631679e-10	-2.063100e+01	-5.235885e+01
1.180000e-06	-2.927901e-06	-7.603963e-10	-2.035671e+01	-5.199688e+01
1.190000e-06	-2.888333e-06	-7.552358e-10	-2.008161e+01	-5.162919e+01
1.200000e-06	-2.848646e-06	-7.468937e-10	-1.980568e+01	-5.125575e+01
1.210000e-06	-2.808701e-06	-7.415971e-10	-1.952796e+01	-5.087656e+01
1.220000e-06	-2.768576e-06	-7.360556e-10	-1.924898e+01	-5.049160e+01
1.230000e-06	-2.728409e-06	-7.290508e-10	-1.896971e+01	-5.010089e+01
1.240000e-06	-2.688140e-06	-7.223998e-10	-1.868974e+01	-4.970442e+01
1.250000e-06	-2.647643e-06	-7.165865e-10	-1.840817e+01	-4.930222e+01
1.260000e-06	-2.606812e-06	-7.081903e-10	-1.812429e+01	-4.889429e+01
1.270000e-06	-2.565701e-06	-6.995344e-10	-1.783846e+01	-4.848066e+01
1.280000e-06	-2.524335e-06	-6.947798e-10	-1.755085e+01	-4.806134e+01
1.290000e-06	-2.482710e-06	-6.887147e-10	-1.726145e+01	-4.763636e+01
1.300000e-06	-2.440813e-06	-6.788002e-10	-1.697015e+01	-4.720573e+01
1.310000e-06	-2.398524e-06	-6.689251e-10	-1.667614e+01	-4.676945e+01
1.320000e-06	-2.355912e-06	-6.608596e-10	-1.637987e+01	-4.632755e+01
1.330000e-06	-2.313064e-06	-6.543678e-10	-1.608196e+01	-4.588000e+01
1.340000e-06	-2.269950e-06	-6.487806e-10	-1.578220e+01	-4.542681e+01
1.350000e-06	-2.226634e-06	-6.429052e-10	-1.548104e+01	-4.496795e+01
1.360000e-06	-2.183251e-06	-6.348446e-10	-1.517941e+01	-4.450339e+01
1.370000e-06	-2.139819e-06	-6.283412e-10	-1.487744e+01	-4.403308e+01
1.380000e-06	-2.096273e-06	-6.241364e-10	-1.457468e+01	-4.355694e+01
1.390000e-06	-2.052624e-06	-6.175414e-10	-1.427120e+01	-4.307491e+01
1.400000e-06	-2.008889e-06	-6.077264e-10	-1.396713e+01	-4.258687e+01
1.410000e-06	-1.965050e-06	-6.000100e-10	-1.366233e+01	-4.209269e+01
1.420000e-06	-1.921052e-06	-5.938494e-10	-1.335643e+01	-4.159224e+01
1.430000e-06	-1.876944e-06	-5.846510e-10	-1.304976e+01	-4.108535e+01
1.440000e-06	-1.832791e-06	-5.748454e-10	-1.274278e+01	-4.057182e+01
1.450000e-06	-1.788518e-06	-5.653626e-10	-1.243496e+01	-4.005143e+01
1.460000e-06	-1.744075e-06	-5.539928e-10	-1.212597e+01	-3.952395e+01
1.470000e-06	-1.699528e-06	-5.424265e-10	-1.181625e+01	-3.898910e+01
1.480000e-06	-1.654951e-06	-5.339037e-10	-1.150632e+01	-3.844659e+01
1.490000e-06	-1.610224e-06	-5.284570e-10	-1.119534e+01	-3.789611e+01
1.500000e-06	-1.565314e-06	-5.243993e-10	-1.088310e+01	-3.733731e+01
1.510000e-06	-1.520229e-06	-5.192199e-10	-1.056964e+01	-3.676983e+01
1.520000e-06	-1.475006e-06	-5.109157e-10	-1.025522e+01	-3.619327e+01
1.530000e-06	-1.429751e-06	-4.984738e-10	-9.940581e+00	-3.560724e+01
1.540000e-06	-1.384459e-06	-4.833864e-10	-9.625679e+00	-3.501130e+01
1.550000e-06	-1.339043e-06	-4.693681e-10	-9.309917e+00	-3.440500e+01
1.560000e-06	-1.293531e-06	-4.601030e-10	-8.993489e+00	-3.378789e+01
1.570000e-06	-1.247934e-06	-4.529761e-10	-8.676465e+00	-3.315949e+01
1.580000e-06	-1.202239e-06	-4.473486e-10	-8.358762e+00	-3.251933e+01
1.590000e-06	-1.156494e-06	-4.406929e-10	-8.040714e+00	-3.186689e+01
1.600000e-06	-1.110522e-06	-4.303487e-10	-7.721085e+00	-3.120171e+01
1.610000e-06	-1.064375e-06	-4.168937e-10	-7.400242e+00	-3.052327e+01
1.620000e-06	-1.018230e-06	-4.039996e-10	-7.079413e+00	-2.983108e+01
1.630000e-06	-9.720998e-07	-3.947182e-10	-6.758684e+00	-2.912467e+01
1.640000e-06	-9.260149e-07	-3.855916e-10	-6.438270e+00	-2.840354e+01
1.650000e-06	-8.798687e-07	-3.746802e-10	-6.117432e+00	-2.766725e+01
1.660000e-06	-8.335398e-07	-3.633967e-10	-5.795322e+00	-2.691535e+01
1.670000e-06	-7.871181e-07	-3.511616e-10	-5.472568e+00	-2.614741e+01
1.680000e-06	-7.406801e-07	-3.384638e-10	-5.149700e+00	-2.536303e+01
1.690000e-06	-6.941957e-07	-3.266050e-10	-4.826510e+00	-2.456186e+01
1.700000e-06	-6.476401e-07	-3.138900e-10	-4.502824e+00	-2.374355e+01
1.710000e-06	-6.010468e-07	-2.998159e-10	-4.178876e+00	-2.290781e+01
1.720000e-06	-5.544065e-07	-2.839918e-10	-3.854602e+00	-2.205439e+01
1.730000e-06	-5.077192e-07	-2.651669e-10	-3.530001e+00	-2.118306e+01
1.740000e-06	-4.610556e-07	-2.458551e-10	-3.205565e+00	-2.029367e+01
1.750000e-06	-4.143800e-07	-2.315565e-10	-2.881045e+00	-1.938610e+01
1.760000e-06	-3.676238e-07	-2.199798e-10	-2.555965e+00	-1.846029e+01
1.770000e-06	-3.207914e-07	-2.084831e-10	-2.230355e+00	-1.751622e+01
1.780000e-06	-2.740188e-07	-1.971424e-10	-1.905161e+00	-1.655396e+01
1.790000e-06	-2.272560e-07	-1.846345e-10	-1.580035e+00	-1.557361e+01
1.800000e-06	-1.804272e-07	-1.686379e-10	-1.254450e+00	-1.457534e+01
1.810000e-06	-1.336007e-07	-1.512094e-10	-9.288807e-01	-1.355938e+01
1.820000e-06	-8.678228e-08	-1.363774e-10	-6.033681e-01	-1.252603e+01
1.830000e-06	-3.997216e-08	-1.233089e-10	-2.779130e-01	-1.147564e+01
1.840000e-06	6.826320e-09	-1.098343e-10	4.746111e-02	-1.040864e+01
1.850000e-06	5.358377e-08	-9.562932e-11	3.725499e-01	-9.325508e+00
1.860000e-06	1.003352e-07	-8.179044e-11	6.975969e-01	-8.226784e+00
1.870000e-06	1.470769e-07	-6.648213e-11	1.022576e+00	-7.113075e+00
1.880000e-06	1.938252e-07	-4.894601e-11	1.347601e+00	-5.985042e+00
1.890000e-06	2.407384e-07	-3.095146e-11	1.673773e+00	-4.843407e+00
1.900000e-06	2.875732e-07	-1.544798e-11	1.999400e+00	-3.688940e+00
1.910000e-06	3.341664e-07	-2.279725e-12	2.323347e+00	-2.522468e+00
1.920000e-06	3.807709e-07	1.146350e-11	2.647373e+00	-1.344862e+00
1.930000e-06	4.274324e-07	2.695507e-11	2.971794e+00	-1.570404e-01
1.940000e-06	4.740852e-07	4.437355e-11	3.296155e+00	1.040038e+00
1.950000e-06	5.207382e-07	6.154775e-11	3.620518e+00	2.245377e+00
1.960000e-06	5.673620e-07	7.951761e-11	3.944677e+00	3.457948e+00
1.970000e-06	6.138486e-07	9.755185e-11	4.267883e+00	4.676692e+00
1.980000e-06	6.602780e-07	1.136813e-10	4.590691e+00	5.900528e+00
1.990000e-06	7.066937e-07	1.287881e-10	4.913404e+00	7.128355e+00
2.000000e-06	7.530530e-07	1.420914e-10	5.235725e+00	8.359057e+00
2.010000e-06	7.993734e-07	1.577374e-10	5.557775e+00	9.591508e+00
2.020000e-06	8.455871e-07	1.769825e-10	5.879083e+00	1.082458e+01
2.030000e-06	8.916913e-07	1.968196e-10	6.199630e+00	1.205714e+01
2.040000e-06	9.377049e-07	2.137029e-10	6.519547e+00	1.328806e+01
2.050000e-06	9.836830e-07	2.284051e-10	6.839218e+00	1.451622e+01
2.060000e-06	1.029675e-06	2.429451e-10	7.158982e+00	1.574054e+01
2.070000e-06	1.075624e-06	2.584457e-10	7.478455e+00	1.695991e+01
2.080000e-06	1.121446e-06	2.760355e-10	7.797039e+00	1.817329e+01
2.090000e-06	1.167210e-06	2.933357e-10	8.115220e+00	1.937964e+01
2.100000e-06	1.212934e-06	3.096571e-10	8.433126e+00	2.057797e+01
2.110000e-06	1.258512e-06	3.243456e-10	8.750010e+00	2.176730e+01
2.120000e-06	1.304013e-06	3.395678e-10	9.066367e+00	2.294670e+01
2.130000e-06	1.349450e-06	3.579121e-10	9.382276e+00	2.411530e+01
2.140000e-06	1.394822e-06	3.769270e-10	9.697726e+00	2.527225e+01
2.150000e-06	1.440133e-06	3.944998e-10	1.001276e+01	2.641675e+01
2.160000e-06	1.485295e-06	4.086329e-10	1.032676e+01	2.754807e+01
2.170000e-06	1.530289e-06	4.225499e-10	1.063958e+01	2.866549e+01
2.180000e-06	1.575156e-06	4.391196e-10	1.095153e+01	2.976839e+01
2.190000e-06	1.619927e-06	4.541432e-10	1.126281e+01	3.085616e+01
2.200000e-06	1.664575e-06	4.699142e-10	1.157323e+01	3.192827e+01
2.210000e-06	1.709148e-06	4.861991e-10	1.188313e+01	3.298423e+01
2.220000e-06	1.753557e-06	5.016824e-10	1.219189e+01	3.402362e+01
2.230000e-06	1.797713e-06	5.174670e-10	1.249889e+01	3.504605e+01
2.240000e-06	1.841786e-06	5.313582e-10	1.280532e+01	3.605120e+01
2.250000e-06	1.885779e-06	5.437238e-10	1.311119e+01	3.703880e+01
2.260000e-06	1.929701e-06	5.556324e-10	1.341656e+01	3.800863e+01
2.270000e-06	1.973575e-06	5.740910e-10	1.372161e+01	3.896050e+01
2.280000e-06	2.017348e-06	5.934161e-10	1.402594e+01	3.989429e+01
2.290000e-06	2.061103e-06	6.087994e-10	1.433016e+01	4.080992e+01
2.300000e-06	2.104831e-06	6.204144e-10	1.463418e+01	4.170736e+01
2.310000e-06	2.148459e-06	6.293290e-10	1.493751e+01	4.258658e+01
2.320000e-06	2.191971e-06	6.383278e-10	1.524004e+01	4.344765e+01
2.330000e-06	2.235335e-06	6.479437e-10	1.554153e+01	4.429062e+01
2.340000e-06	2.278559e-06	6.609432e-10	1.584206e+01	4.511560e+01
2.350000e-06	2.321598e-06	6.777001e-10	1.614129e+01	4.592273e+01
2.360000e-06	2.364377e-06	6.952646e-10	1.643872e+01	4.671216e+01
2.370000e-06	2.406885e-06	7.068368e-10	1.673426e+01	4.748409e+01
2.380000e-06	2.449147e-06	7.144623e-10	1.702810e+01	4.823871e+01
2.390000e-06	2.490991e-06	7.207820e-10	1.731903e+01	4.897624e+01
2.400000e-06	2.532373e-06	7.271294e-10	1.760674e+01	4.969694e+01
2.410000e-06	2.573567e-06	7.357104e-10	1.789314e+01	5.040103e+01
2.420000e-06	2.614575e-06	7.475942e-10	1.817826e+01	5.108880e+01
2.430000e-06	2.655352e-06	7.618869e-10	1.846177e+01	5.176050e+01
2.440000e-06	2.695894e-06	7.731936e-10	1.874364e+01	5.241641e+01
2.450000e-06	2.736135e-06	7.811086e-10	1.902343e+01	5.305681e+01
2.460000e-06	2.776121e-06	7.897737e-10	1.930144e+01	5.368198e+01
2.470000e-06	2.815990e-06	7.983520e-10	1.957864e+01	5.429220e+01
2.480000e-06	2.855787e-06	8.068492e-10	1.985533e+01	5.488774e+01
2.490000e-06	2.895457e-06	8.145938e-10	2.013114e+01	5.546888e+01
2.500000e-06	2.935025e-06	8.222038e-10	2.040625e+01	5.603590e+01
2.510000e-06	2.974470e-06	8.312319e-10	2.068049e+01	5.658906e+01
2.520000e-06	3.013770e-06	8.396046e-10	2.095373e+01	5.712861e+01
2.530000e-06	3.052890e-06	8.448729e-10	2.122572e+01	5.765482e+01
2.540000e-06	3.091818e-06	8.497340e-10	2.149637e+01	5.816794e+01
2.550000e-06	3.130449e-06	8.562937e-10	2.176496e+01	5.866820e+01
2.560000e-06	3.168775e-06	8.648405e-10	2.203143e+01	5.915584e+01
2.570000e-06	3.206911e-06	8.739193e-10	2.229658e+01	5.963110e+01
2.580000e-06	3.244886e-06	8.828034e-10	2.256061e+01	6.009418e+01
2.590000e-06	3.282667e-06	8.912824e-10	2.282328e+01	6.054532e+01
2.600000e-06	3.320159e-06	8.979561e-10	2.308395e+01	6.098472e+01
2.610000e-06	3.357412e-06	9.001705e-10	2.334296e+01	6.141260e+01
2.620000e-06	3.394428e-06	9.001275e-10	2.360032e+01	6.182914e+01
2.630000e-06	3.431152e-06	9.025673e-10	2.385565e+01	6.223457e+01
2.640000e-06	3.467632e-06	9.080638e-10	2.410928e+01	6.262907e+01
2.650000e-06	3.503840e-06	9.167314e-10	2.436103e+01	6.301284e+01
2.660000e-06	3.539784e-06	9.267876e-10	2.461093e+01	6.338607e+01
2.670000e-06	3.575612e-06	9.336846e-10	2.486003e+01	6.374898e+01
2.680000e-06	3.611367e-06	9.379423e-10	2.510862e+01	6.410174e+01
2.690000e-06	3.646970e-06	9.412438e-10	2.535616e+01	6.444456e+01
2.700000e-06	3.682434e-06	9.427662e-10	2.560273e+01	6.477765e+01
2.710000e-06	3.717759e-06	9.451795e-10	2.584833e+01	6.510119e+01
2.720000e-06	3.752859e-06	9.502209e-10	2.609237e+01	6.541541e+01
2.730000e-06	3.787630e-06	9.563530e-10	2.633412e+01	6.572052e+01
2.740000e-06	3.821849e-06	9.619060e-10	2.657203e+01	6.601671e+01
2.750000e-06	3.855486e-06	9.664225e-10	2.680590e+01	6.630422e+01
2.760000e-06	3.888670e-06	9.708179e-10	2.703661e+01	6.658327e+01
2.770000e-06	3.921376e-06	9.742404e-10	2.726401e+01	6.685408e+01
2.780000e-06	3.953686e-06	9.766003e-10	2.748865e+01	6.711688e+01
2.790000e-06	3.985769e-06	9.799564e-10	2.771171e+01	6.737190e+01
2.800000e-06	4.017676e-06	9.825095e-10	2.793355e+01	6.761939e+01
2.810000e-06	4.049414e-06	9.857126e-10	2.815422e+01	6.785957e+01
2.820000e-06	4.080974e-06	9.900397e-10	2.837364e+01	6.809269e+01
2.830000e-06	4.112339e-06	9.950222e-10	2.859171e+01	6.831900e+01
2.840000e-06	4.143461e-06	9.992033e-10	2.880809e+01	6.853872e+01
2.850000e-06	4.174319e-06	1.004544e-09	2.902264e+01	6.875210e+01
2.860000e-06	4.204828e-06	1.008761e-09	2.923476e+01	6.895939e+01
2.870000e-06	4.234959e-06	1.009432e-09	2.944425e+01	6.916081e+01
2.880000e-06	4.264849e-06	1.011477e-09	2.965206e+01	6.935660e+01
2.890000e-06	4.294518e-06	1.015057e-09	2.985834e+01	6.954698e+01
2.900000e-06	4.323844e-06	1.019095e-09	3.006224e+01	6.973219e+01
