# Temperatura_=_8.32
# Concentracion g/m^3_=_1620.0
# C_Vs_to_Am_M_A/Vsm_=_65563218390.804596
# pendiente_HvsI_1/m_=_3716.3
# ordenada_HvsI_A/m_=_1297.0
# frecuencia_Hz_=_135091.73969637175

Tiempo_(s)	Campo_(V.s)	Magnetizacion_(V.s)	Campo_(kA/m)	Magnetizacion_(A/m)
0.000000e+00	-5.527552e-06	-1.325172e-09	-3.838541e+01	-8.771131e+01
1.000000e-08	-5.527713e-06	-1.333117e-09	-3.838653e+01	-8.770139e+01
2.000000e-08	-5.527547e-06	-1.339288e-09	-3.838537e+01	-8.768992e+01
3.000000e-08	-5.526959e-06	-1.342100e-09	-3.838129e+01	-8.767678e+01
4.000000e-08	-5.525828e-06	-1.331177e-09	-3.837344e+01	-8.766187e+01
5.000000e-08	-5.524060e-06	-1.310001e-09	-3.836116e+01	-8.764507e+01
6.000000e-08	-5.521728e-06	-1.304976e-09	-3.834497e+01	-8.762623e+01
7.000000e-08	-5.518858e-06	-1.335712e-09	-3.832504e+01	-8.760522e+01
8.000000e-08	-5.515532e-06	-1.363530e-09	-3.830194e+01	-8.758189e+01
9.000000e-08	-5.511731e-06	-1.360294e-09	-3.827554e+01	-8.755609e+01
1.000000e-07	-5.507517e-06	-1.361219e-09	-3.824628e+01	-8.752766e+01
1.100000e-07	-5.503105e-06	-1.314838e-09	-3.821564e+01	-8.749644e+01
1.200000e-07	-5.498543e-06	-1.305794e-09	-3.818396e+01	-8.746226e+01
1.300000e-07	-5.493563e-06	-1.288096e-09	-3.814938e+01	-8.742497e+01
1.400000e-07	-5.488250e-06	-1.310698e-09	-3.811249e+01	-8.738440e+01
1.500000e-07	-5.482613e-06	-1.291494e-09	-3.807334e+01	-8.734038e+01
1.600000e-07	-5.476573e-06	-1.284583e-09	-3.803139e+01	-8.729276e+01
1.700000e-07	-5.470077e-06	-1.320998e-09	-3.798628e+01	-8.724139e+01
1.800000e-07	-5.463103e-06	-1.351979e-09	-3.793785e+01	-8.718611e+01
1.900000e-07	-5.455811e-06	-1.325439e-09	-3.788722e+01	-8.712678e+01
2.000000e-07	-5.448257e-06	-1.287633e-09	-3.783476e+01	-8.706325e+01
2.100000e-07	-5.440438e-06	-1.331554e-09	-3.778046e+01	-8.699539e+01
2.200000e-07	-5.432388e-06	-1.371234e-09	-3.772456e+01	-8.692308e+01
2.300000e-07	-5.424070e-06	-1.359014e-09	-3.766680e+01	-8.684619e+01
2.400000e-07	-5.415112e-06	-1.302693e-09	-3.760459e+01	-8.676462e+01
2.500000e-07	-5.405471e-06	-1.327495e-09	-3.753764e+01	-8.667826e+01
2.600000e-07	-5.395299e-06	-1.329718e-09	-3.746700e+01	-8.658703e+01
2.700000e-07	-5.384500e-06	-1.316112e-09	-3.739201e+01	-8.649082e+01
2.800000e-07	-5.373154e-06	-1.303427e-09	-3.731321e+01	-8.638958e+01
2.900000e-07	-5.361435e-06	-1.334295e-09	-3.723183e+01	-8.628323e+01
3.000000e-07	-5.349389e-06	-1.307358e-09	-3.714818e+01	-8.617170e+01
3.100000e-07	-5.336940e-06	-1.280092e-09	-3.706173e+01	-8.605496e+01
3.200000e-07	-5.324058e-06	-1.289320e-09	-3.697227e+01	-8.593296e+01
3.300000e-07	-5.310861e-06	-1.311528e-09	-3.688063e+01	-8.580566e+01
3.400000e-07	-5.297286e-06	-1.293582e-09	-3.678636e+01	-8.567304e+01
3.500000e-07	-5.283139e-06	-1.303141e-09	-3.668812e+01	-8.553508e+01
3.600000e-07	-5.268591e-06	-1.310103e-09	-3.658709e+01	-8.539176e+01
3.700000e-07	-5.253721e-06	-1.299246e-09	-3.648382e+01	-8.524310e+01
3.800000e-07	-5.238212e-06	-1.293935e-09	-3.637612e+01	-8.508907e+01
3.900000e-07	-5.222119e-06	-1.301884e-09	-3.626437e+01	-8.492970e+01
4.000000e-07	-5.205631e-06	-1.278065e-09	-3.614987e+01	-8.476500e+01
4.100000e-07	-5.188833e-06	-1.268939e-09	-3.603322e+01	-8.459498e+01
4.200000e-07	-5.171730e-06	-1.297985e-09	-3.591445e+01	-8.441968e+01
4.300000e-07	-5.154326e-06	-1.282872e-09	-3.579359e+01	-8.423911e+01
4.400000e-07	-5.136615e-06	-1.264495e-09	-3.567060e+01	-8.405331e+01
4.500000e-07	-5.118467e-06	-1.279881e-09	-3.554457e+01	-8.386232e+01
4.600000e-07	-5.099844e-06	-1.282465e-09	-3.541525e+01	-8.366617e+01
4.700000e-07	-5.080828e-06	-1.240151e-09	-3.528319e+01	-8.346492e+01
4.800000e-07	-5.061525e-06	-1.265281e-09	-3.514915e+01	-8.325861e+01
4.900000e-07	-5.042000e-06	-1.289472e-09	-3.501356e+01	-8.304729e+01
5.000000e-07	-5.022264e-06	-1.256073e-09	-3.487650e+01	-8.283102e+01
5.100000e-07	-5.002271e-06	-1.233895e-09	-3.473766e+01	-8.260985e+01
5.200000e-07	-4.981983e-06	-1.267135e-09	-3.459678e+01	-8.238384e+01
5.300000e-07	-4.961236e-06	-1.246392e-09	-3.445270e+01	-8.215305e+01
5.400000e-07	-4.940044e-06	-1.225740e-09	-3.430553e+01	-8.191755e+01
5.500000e-07	-4.918547e-06	-1.242144e-09	-3.415625e+01	-8.167742e+01
5.600000e-07	-4.896798e-06	-1.238388e-09	-3.400522e+01	-8.143271e+01
5.700000e-07	-4.874705e-06	-1.210283e-09	-3.385180e+01	-8.118350e+01
5.800000e-07	-4.852263e-06	-1.239492e-09	-3.369595e+01	-8.092987e+01
5.900000e-07	-4.829520e-06	-1.245800e-09	-3.353802e+01	-8.067190e+01
6.000000e-07	-4.806430e-06	-1.211891e-09	-3.337767e+01	-8.040966e+01
6.100000e-07	-4.783042e-06	-1.206065e-09	-3.321525e+01	-8.014325e+01
6.200000e-07	-4.759423e-06	-1.219935e-09	-3.305124e+01	-7.987275e+01
6.300000e-07	-4.735610e-06	-1.194482e-09	-3.288587e+01	-7.959824e+01
6.400000e-07	-4.711608e-06	-1.184854e-09	-3.271919e+01	-7.931982e+01
6.500000e-07	-4.687177e-06	-1.202279e-09	-3.254953e+01	-7.903757e+01
6.600000e-07	-4.662142e-06	-1.193127e-09	-3.237567e+01	-7.875160e+01
6.700000e-07	-4.636506e-06	-1.180918e-09	-3.219765e+01	-7.846199e+01
6.800000e-07	-4.610397e-06	-1.195028e-09	-3.201634e+01	-7.816884e+01
6.900000e-07	-4.583894e-06	-1.194846e-09	-3.183229e+01	-7.787225e+01
7.000000e-07	-4.556895e-06	-1.173774e-09	-3.164480e+01	-7.757232e+01
7.100000e-07	-4.529590e-06	-1.172221e-09	-3.145518e+01	-7.726914e+01
7.200000e-07	-4.502019e-06	-1.172513e-09	-3.126373e+01	-7.696281e+01
7.300000e-07	-4.474265e-06	-1.161263e-09	-3.107099e+01	-7.665341e+01
7.400000e-07	-4.446343e-06	-1.154272e-09	-3.087709e+01	-7.634106e+01
7.500000e-07	-4.418088e-06	-1.158450e-09	-3.068088e+01	-7.602582e+01
7.600000e-07	-4.389555e-06	-1.148082e-09	-3.048273e+01	-7.570780e+01
7.700000e-07	-4.360780e-06	-1.138340e-09	-3.028291e+01	-7.538707e+01
7.800000e-07	-4.331740e-06	-1.135362e-09	-3.008124e+01	-7.506371e+01
7.900000e-07	-4.302389e-06	-1.133186e-09	-2.987742e+01	-7.473779e+01
8.000000e-07	-4.272733e-06	-1.118249e-09	-2.967147e+01	-7.440939e+01
8.100000e-07	-4.242843e-06	-1.113068e-09	-2.946391e+01	-7.407857e+01
8.200000e-07	-4.212700e-06	-1.107902e-09	-2.925459e+01	-7.374537e+01
8.300000e-07	-4.182140e-06	-1.102108e-09	-2.904236e+01	-7.340985e+01
8.400000e-07	-4.151176e-06	-1.095984e-09	-2.882734e+01	-7.307204e+01
8.500000e-07	-4.119933e-06	-1.093798e-09	-2.861037e+01	-7.273197e+01
8.600000e-07	-4.088431e-06	-1.083788e-09	-2.839161e+01	-7.238967e+01
8.700000e-07	-4.056787e-06	-1.075251e-09	-2.817186e+01	-7.204514e+01
8.800000e-07	-4.025054e-06	-1.071772e-09	-2.795150e+01	-7.169838e+01
8.900000e-07	-3.993067e-06	-1.069954e-09	-2.772937e+01	-7.134939e+01
9.000000e-07	-3.960835e-06	-1.059256e-09	-2.750553e+01	-7.099815e+01
9.100000e-07	-3.928373e-06	-1.052311e-09	-2.728010e+01	-7.064462e+01
9.200000e-07	-3.895525e-06	-1.046044e-09	-2.705200e+01	-7.028876e+01
9.300000e-07	-3.862211e-06	-1.038778e-09	-2.682065e+01	-6.993052e+01
9.400000e-07	-3.828342e-06	-1.032704e-09	-2.658545e+01	-6.956985e+01
9.500000e-07	-3.794095e-06	-1.030491e-09	-2.634763e+01	-6.920666e+01
9.600000e-07	-3.759408e-06	-1.022237e-09	-2.610675e+01	-6.884089e+01
9.700000e-07	-3.724291e-06	-1.011823e-09	-2.586288e+01	-6.847243e+01
9.800000e-07	-3.688944e-06	-1.009420e-09	-2.561742e+01	-6.810120e+01
9.900000e-07	-3.653385e-06	-1.008603e-09	-2.537049e+01	-6.772709e+01
1.000000e-06	-3.617736e-06	-1.003692e-09	-2.512293e+01	-6.734998e+01
1.010000e-06	-3.582008e-06	-9.962000e-10	-2.487482e+01	-6.696976e+01
1.020000e-06	-3.546132e-06	-9.897821e-10	-2.462569e+01	-6.658630e+01
1.030000e-06	-3.510059e-06	-9.788901e-10	-2.437518e+01	-6.619948e+01
1.040000e-06	-3.473707e-06	-9.705181e-10	-2.412274e+01	-6.580917e+01
1.050000e-06	-3.437040e-06	-9.637797e-10	-2.386811e+01	-6.541523e+01
1.060000e-06	-3.400143e-06	-9.578364e-10	-2.361188e+01	-6.501753e+01
1.070000e-06	-3.363028e-06	-9.511199e-10	-2.335414e+01	-6.461594e+01
1.080000e-06	-3.325644e-06	-9.488795e-10	-2.309453e+01	-6.421032e+01
1.090000e-06	-3.287967e-06	-9.437396e-10	-2.283288e+01	-6.380054e+01
1.100000e-06	-3.250063e-06	-9.374154e-10	-2.256967e+01	-6.338649e+01
1.110000e-06	-3.212024e-06	-9.283806e-10	-2.230551e+01	-6.296802e+01
1.120000e-06	-3.173769e-06	-9.195138e-10	-2.203985e+01	-6.254504e+01
1.130000e-06	-3.135252e-06	-9.089403e-10	-2.177238e+01	-6.211741e+01
1.140000e-06	-3.096460e-06	-9.009747e-10	-2.150299e+01	-6.168504e+01
1.150000e-06	-3.057579e-06	-8.927929e-10	-2.123299e+01	-6.124783e+01
1.160000e-06	-3.018585e-06	-8.860384e-10	-2.096220e+01	-6.080568e+01
1.170000e-06	-2.979344e-06	-8.791189e-10	-2.068969e+01	-6.035851e+01
1.180000e-06	-2.939941e-06	-8.750732e-10	-2.041607e+01	-5.990625e+01
1.190000e-06	-2.900361e-06	-8.708372e-10	-2.014120e+01	-5.944882e+01
1.200000e-06	-2.860651e-06	-8.643087e-10	-1.986544e+01	-5.898616e+01
1.210000e-06	-2.820867e-06	-8.552723e-10	-1.958917e+01	-5.851823e+01
1.220000e-06	-2.780918e-06	-8.445769e-10	-1.931174e+01	-5.804497e+01
1.230000e-06	-2.740789e-06	-8.326859e-10	-1.903308e+01	-5.756635e+01
1.240000e-06	-2.700480e-06	-8.234785e-10	-1.875315e+01	-5.708233e+01
1.250000e-06	-2.659907e-06	-8.186230e-10	-1.847140e+01	-5.659288e+01
1.260000e-06	-2.619154e-06	-8.152916e-10	-1.818840e+01	-5.609797e+01
1.270000e-06	-2.578079e-06	-8.091852e-10	-1.790315e+01	-5.559759e+01
1.280000e-06	-2.536596e-06	-8.043388e-10	-1.761508e+01	-5.509171e+01
1.290000e-06	-2.494848e-06	-7.979213e-10	-1.732517e+01	-5.458030e+01
1.300000e-06	-2.452903e-06	-7.872816e-10	-1.703389e+01	-5.406335e+01
1.310000e-06	-2.410598e-06	-7.768289e-10	-1.674010e+01	-5.354082e+01
1.320000e-06	-2.367879e-06	-7.675401e-10	-1.644345e+01	-5.301268e+01
1.330000e-06	-2.324964e-06	-7.592454e-10	-1.614543e+01	-5.247888e+01
1.340000e-06	-2.281888e-06	-7.507626e-10	-1.584629e+01	-5.193938e+01
1.350000e-06	-2.238615e-06	-7.434286e-10	-1.554579e+01	-5.139412e+01
1.360000e-06	-2.195202e-06	-7.330088e-10	-1.524431e+01	-5.084300e+01
1.370000e-06	-2.151669e-06	-7.252048e-10	-1.494200e+01	-5.028596e+01
1.380000e-06	-2.108071e-06	-7.205543e-10	-1.463924e+01	-4.972287e+01
1.390000e-06	-2.064363e-06	-7.155367e-10	-1.433572e+01	-4.915362e+01
1.400000e-06	-2.020552e-06	-7.072267e-10	-1.403148e+01	-4.857805e+01
1.410000e-06	-1.976706e-06	-6.984604e-10	-1.372699e+01	-4.799600e+01
1.420000e-06	-1.932825e-06	-6.897319e-10	-1.342227e+01	-4.740728e+01
1.430000e-06	-1.888827e-06	-6.807956e-10	-1.311673e+01	-4.681167e+01
1.440000e-06	-1.844692e-06	-6.710241e-10	-1.281024e+01	-4.620894e+01
1.450000e-06	-1.800510e-06	-6.630237e-10	-1.250342e+01	-4.559882e+01
1.460000e-06	-1.756161e-06	-6.533616e-10	-1.219544e+01	-4.498102e+01
1.470000e-06	-1.711583e-06	-6.425740e-10	-1.188588e+01	-4.435522e+01
1.480000e-06	-1.666914e-06	-6.305585e-10	-1.157568e+01	-4.372107e+01
1.490000e-06	-1.622150e-06	-6.207990e-10	-1.126483e+01	-4.307822e+01
1.500000e-06	-1.577223e-06	-6.144560e-10	-1.095283e+01	-4.242626e+01
1.510000e-06	-1.532197e-06	-6.090211e-10	-1.064016e+01	-4.176478e+01
1.520000e-06	-1.487034e-06	-6.004929e-10	-1.032653e+01	-4.109334e+01
1.530000e-06	-1.441702e-06	-5.872124e-10	-1.001173e+01	-4.041147e+01
1.540000e-06	-1.396270e-06	-5.698112e-10	-9.696225e+00	-3.971869e+01
1.550000e-06	-1.350773e-06	-5.545961e-10	-9.380276e+00	-3.901450e+01
1.560000e-06	-1.305244e-06	-5.429150e-10	-9.064107e+00	-3.829839e+01
1.570000e-06	-1.259598e-06	-5.329329e-10	-8.747126e+00	-3.756984e+01
1.580000e-06	-1.213827e-06	-5.259715e-10	-8.429272e+00	-3.682830e+01
1.590000e-06	-1.168050e-06	-5.197001e-10	-8.111384e+00	-3.607324e+01
1.600000e-06	-1.122150e-06	-5.108489e-10	-7.792637e+00	-3.530412e+01
1.610000e-06	-1.076127e-06	-4.976061e-10	-7.473034e+00	-3.452040e+01
1.620000e-06	-1.030047e-06	-4.836308e-10	-7.153038e+00	-3.372154e+01
1.630000e-06	-9.838619e-07	-4.706774e-10	-6.832309e+00	-3.290703e+01
1.640000e-06	-9.376778e-07	-4.580632e-10	-6.511589e+00	-3.207634e+01
1.650000e-06	-8.913968e-07	-4.450266e-10	-6.190197e+00	-3.122900e+01
1.660000e-06	-8.449693e-07	-4.339789e-10	-5.867786e+00	-3.036453e+01
1.670000e-06	-7.985762e-07	-4.211153e-10	-5.545615e+00	-2.948249e+01
1.680000e-06	-7.521698e-07	-4.053482e-10	-5.223352e+00	-2.858248e+01
1.690000e-06	-7.056756e-07	-3.904345e-10	-4.900479e+00	-2.766412e+01
1.700000e-06	-6.590545e-07	-3.769602e-10	-4.576724e+00	-2.672708e+01
1.710000e-06	-6.123691e-07	-3.629939e-10	-4.252522e+00	-2.577107e+01
1.720000e-06	-5.657561e-07	-3.484152e-10	-3.928825e+00	-2.479586e+01
1.730000e-06	-5.190554e-07	-3.298622e-10	-3.604517e+00	-2.380125e+01
1.740000e-06	-4.722521e-07	-3.080389e-10	-3.279497e+00	-2.278712e+01
1.750000e-06	-4.253584e-07	-2.883826e-10	-2.953850e+00	-2.175340e+01
1.760000e-06	-3.784759e-07	-2.733651e-10	-2.628280e+00	-2.070007e+01
1.770000e-06	-3.316787e-07	-2.620569e-10	-2.303303e+00	-1.962719e+01
1.780000e-06	-2.847854e-07	-2.518469e-10	-1.977658e+00	-1.853489e+01
1.790000e-06	-2.378834e-07	-2.381375e-10	-1.651952e+00	-1.742334e+01
1.800000e-06	-1.910259e-07	-2.208457e-10	-1.326556e+00	-1.629282e+01
1.810000e-06	-1.441502e-07	-2.025152e-10	-1.001033e+00	-1.514366e+01
1.820000e-06	-9.723698e-08	-1.844839e-10	-6.752504e-01	-1.397625e+01
1.830000e-06	-5.037863e-08	-1.685814e-10	-3.498483e-01	-1.279107e+01
1.840000e-06	-3.503015e-09	-1.536998e-10	-2.432626e-02	-1.158867e+01
1.850000e-06	4.342359e-08	-1.384370e-10	3.015498e-01	-1.036966e+01
1.860000e-06	9.025355e-08	-1.244477e-10	6.267548e-01	-9.134730e+00
1.870000e-06	1.371474e-07	-1.078655e-10	9.524033e-01	-7.884627e+00
1.880000e-06	1.840922e-07	-8.764150e-11	1.278406e+00	-6.620169e+00
1.890000e-06	2.310286e-07	-6.730942e-11	1.604350e+00	-5.342235e+00
1.900000e-06	2.779052e-07	-4.772279e-11	1.929879e+00	-4.051763e+00
1.910000e-06	3.246819e-07	-3.000385e-11	2.254714e+00	-2.749743e+00
1.920000e-06	3.714758e-07	-1.259665e-11	2.579669e+00	-1.437221e+00
1.930000e-06	4.182563e-07	3.353687e-12	2.904530e+00	-1.152866e-01
1.940000e-06	4.650222e-07	2.069337e-11	3.229290e+00	1.214927e+00
1.950000e-06	5.117867e-07	3.859929e-11	3.554040e+00	2.552251e+00
1.960000e-06	5.585041e-07	5.932314e-11	3.878464e+00	3.895482e+00
1.970000e-06	6.050561e-07	7.987637e-11	4.201738e+00	5.243393e+00
1.980000e-06	6.514563e-07	9.910395e-11	4.523959e+00	6.594734e+00
1.990000e-06	6.979019e-07	1.200546e-10	4.846495e+00	7.948242e+00
2.000000e-06	7.443571e-07	1.371926e-10	5.169097e+00	9.302643e+00
2.010000e-06	7.906996e-07	1.545436e-10	5.490917e+00	1.065666e+01
2.020000e-06	8.369753e-07	1.746215e-10	5.812273e+00	1.200903e+01
2.030000e-06	8.831940e-07	1.963248e-10	6.133233e+00	1.335847e+01
2.040000e-06	9.293620e-07	2.164515e-10	6.453841e+00	1.470374e+01
2.050000e-06	9.754913e-07	2.355744e-10	6.774180e+00	1.604362e+01
2.060000e-06	1.021597e-06	2.555774e-10	7.094356e+00	1.737689e+01
2.070000e-06	1.067594e-06	2.756588e-10	7.413779e+00	1.870239e+01
2.080000e-06	1.113460e-06	2.956726e-10	7.732290e+00	2.001898e+01
2.090000e-06	1.159229e-06	3.157699e-10	8.050122e+00	2.132557e+01
2.100000e-06	1.204907e-06	3.350393e-10	8.367333e+00	2.262110e+01
2.110000e-06	1.250510e-06	3.523480e-10	8.684015e+00	2.390458e+01
2.120000e-06	1.296036e-06	3.668752e-10	9.000162e+00	2.517507e+01
2.130000e-06	1.341504e-06	3.832634e-10	9.315908e+00	2.643168e+01
2.140000e-06	1.386885e-06	4.026356e-10	9.631057e+00	2.767358e+01
2.150000e-06	1.432170e-06	4.232714e-10	9.945532e+00	2.890000e+01
2.160000e-06	1.477389e-06	4.439162e-10	1.025955e+01	3.011024e+01
2.170000e-06	1.522493e-06	4.617656e-10	1.057277e+01	3.130368e+01
2.180000e-06	1.567466e-06	4.794851e-10	1.088507e+01	3.247974e+01
2.190000e-06	1.612334e-06	4.925656e-10	1.119666e+01	3.363793e+01
2.200000e-06	1.657009e-06	5.040466e-10	1.150690e+01	3.477781e+01
2.210000e-06	1.701545e-06	5.173775e-10	1.181617e+01	3.589902e+01
2.220000e-06	1.745988e-06	5.312443e-10	1.212480e+01	3.700127e+01
2.230000e-06	1.790301e-06	5.492281e-10	1.243253e+01	3.808432e+01
2.240000e-06	1.834490e-06	5.675727e-10	1.273939e+01	3.914801e+01
2.250000e-06	1.878517e-06	5.861420e-10	1.304513e+01	4.019225e+01
2.260000e-06	1.922398e-06	6.015111e-10	1.334986e+01	4.121697e+01
2.270000e-06	1.966211e-06	6.174668e-10	1.365411e+01	4.222221e+01
2.280000e-06	2.009986e-06	6.315261e-10	1.395810e+01	4.320803e+01
2.290000e-06	2.053719e-06	6.437063e-10	1.426180e+01	4.417455e+01
2.300000e-06	2.097354e-06	6.558291e-10	1.456482e+01	4.512194e+01
2.310000e-06	2.140936e-06	6.674598e-10	1.486747e+01	4.605041e+01
2.320000e-06	2.184518e-06	6.809393e-10	1.517012e+01	4.696022e+01
2.330000e-06	2.227978e-06	6.956415e-10	1.547192e+01	4.785164e+01
2.340000e-06	2.271332e-06	7.121239e-10	1.577299e+01	4.872502e+01
2.350000e-06	2.314535e-06	7.296710e-10	1.607301e+01	4.958068e+01
2.360000e-06	2.357457e-06	7.453152e-10	1.637107e+01	5.041901e+01
2.370000e-06	2.400201e-06	7.541023e-10	1.666790e+01	5.124039e+01
2.380000e-06	2.442643e-06	7.602910e-10	1.696263e+01	5.204524e+01
2.390000e-06	2.484671e-06	7.671003e-10	1.725449e+01	5.283397e+01
2.400000e-06	2.526479e-06	7.761576e-10	1.754483e+01	5.360701e+01
2.410000e-06	2.568026e-06	7.868210e-10	1.783335e+01	5.436479e+01
2.420000e-06	2.609156e-06	8.001913e-10	1.811896e+01	5.510774e+01
2.430000e-06	2.649974e-06	8.174750e-10	1.840243e+01	5.583629e+01
2.440000e-06	2.690664e-06	8.342203e-10	1.868499e+01	5.655087e+01
2.450000e-06	2.731103e-06	8.446973e-10	1.896581e+01	5.725188e+01
2.460000e-06	2.771170e-06	8.547213e-10	1.924405e+01	5.793972e+01
2.470000e-06	2.811025e-06	8.637770e-10	1.952082e+01	5.861480e+01
2.480000e-06	2.850792e-06	8.696942e-10	1.979698e+01	5.927747e+01
2.490000e-06	2.890491e-06	8.775222e-10	2.007266e+01	5.992810e+01
2.500000e-06	2.930159e-06	8.882512e-10	2.034813e+01	6.056702e+01
2.510000e-06	2.969645e-06	8.999428e-10	2.062234e+01	6.119455e+01
2.520000e-06	3.008912e-06	9.117298e-10	2.089503e+01	6.181099e+01
2.530000e-06	3.048102e-06	9.209844e-10	2.116718e+01	6.241662e+01
2.540000e-06	3.087118e-06	9.269438e-10	2.143812e+01	6.301169e+01
2.550000e-06	3.125827e-06	9.339054e-10	2.170693e+01	6.359643e+01
2.560000e-06	3.164203e-06	9.427743e-10	2.197342e+01	6.417107e+01
2.570000e-06	3.202326e-06	9.518928e-10	2.223817e+01	6.473579e+01
2.580000e-06	3.240293e-06	9.614437e-10	2.250182e+01	6.529077e+01
2.590000e-06	3.278047e-06	9.706049e-10	2.276400e+01	6.583617e+01
2.600000e-06	3.315609e-06	9.792703e-10	2.302484e+01	6.637214e+01
2.610000e-06	3.352920e-06	9.841074e-10	2.328394e+01	6.689879e+01
2.620000e-06	3.389968e-06	9.856546e-10	2.354122e+01	6.741624e+01
2.630000e-06	3.426817e-06	9.877476e-10	2.379711e+01	6.792459e+01
2.640000e-06	3.463393e-06	9.945604e-10	2.405111e+01	6.842394e+01
2.650000e-06	3.499736e-06	1.006610e-09	2.430349e+01	6.891436e+01
2.660000e-06	3.535833e-06	1.017015e-09	2.455416e+01	6.939592e+01
2.670000e-06	3.571691e-06	1.024655e-09	2.480317e+01	6.986870e+01
2.680000e-06	3.607432e-06	1.031447e-09	2.505137e+01	7.033277e+01
2.690000e-06	3.643080e-06	1.036230e-09	2.529893e+01	7.078818e+01
2.700000e-06	3.678596e-06	1.039430e-09	2.554556e+01	7.123500e+01
2.710000e-06	3.713955e-06	1.044445e-09	2.579111e+01	7.167331e+01
2.720000e-06	3.749056e-06	1.051360e-09	2.603487e+01	7.210316e+01
2.730000e-06	3.783859e-06	1.058893e-09	2.627655e+01	7.252464e+01
2.740000e-06	3.818268e-06	1.066192e-09	2.651550e+01	7.293782e+01
2.750000e-06	3.852184e-06	1.073834e-09	2.675102e+01	7.334278e+01
2.760000e-06	3.885582e-06	1.079658e-09	2.698295e+01	7.373962e+01
2.770000e-06	3.918599e-06	1.083085e-09	2.721223e+01	7.412845e+01
2.780000e-06	3.951221e-06	1.086737e-09	2.743877e+01	7.450936e+01
2.790000e-06	3.983340e-06	1.091973e-09	2.766182e+01	7.488248e+01
2.800000e-06	4.015201e-06	1.096551e-09	2.788307e+01	7.524793e+01
2.810000e-06	4.046896e-06	1.101059e-09	2.810318e+01	7.560585e+01
2.820000e-06	4.078422e-06	1.107217e-09	2.832210e+01	7.595638e+01
2.830000e-06	4.109858e-06	1.115060e-09	2.854041e+01	7.629968e+01
2.840000e-06	4.141117e-06	1.123517e-09	2.875748e+01	7.663589e+01
2.850000e-06	4.172011e-06	1.132725e-09	2.897202e+01	7.696519e+01
2.860000e-06	4.202612e-06	1.139422e-09	2.918453e+01	7.728774e+01
2.870000e-06	4.232972e-06	1.141494e-09	2.939536e+01	7.760372e+01
2.880000e-06	4.262969e-06	1.142401e-09	2.960367e+01	7.791330e+01
2.890000e-06	4.292636e-06	1.145148e-09	2.980969e+01	7.821668e+01
2.900000e-06	4.322043e-06	1.149940e-09	3.001390e+01	7.851402e+01
