# Temperatura_=_-3.37
# Concentracion g/m^3_=_1620.0
# C_Vs_to_Am_M_A/Vsm_=_65563218390.804596
# pendiente_HvsI_1/m_=_3716.3
# ordenada_HvsI_A/m_=_1297.0
# frecuencia_Hz_=_135108.8933984221

Tiempo_(s)	Campo_(V.s)	Magnetizacion_(V.s)	Campo_(kA/m)	Magnetizacion_(A/m)
0.000000e+00	-5.520105e-06	-6.895886e-10	-3.836458e+01	-4.954404e+01
1.000000e-08	-5.520252e-06	-6.853687e-10	-3.836560e+01	-4.951285e+01
2.000000e-08	-5.520022e-06	-6.857247e-10	-3.836400e+01	-4.948339e+01
3.000000e-08	-5.519466e-06	-6.863528e-10	-3.836014e+01	-4.945562e+01
4.000000e-08	-5.518434e-06	-6.799344e-10	-3.835297e+01	-4.942948e+01
5.000000e-08	-5.516777e-06	-6.620761e-10	-3.834145e+01	-4.940491e+01
6.000000e-08	-5.514453e-06	-6.509699e-10	-3.832529e+01	-4.938184e+01
7.000000e-08	-5.511554e-06	-6.772659e-10	-3.830515e+01	-4.936018e+01
8.000000e-08	-5.508256e-06	-7.335546e-10	-3.828223e+01	-4.933985e+01
9.000000e-08	-5.504494e-06	-7.712091e-10	-3.825608e+01	-4.932072e+01
1.000000e-07	-5.500275e-06	-7.438969e-10	-3.822676e+01	-4.930270e+01
1.100000e-07	-5.495798e-06	-6.560919e-10	-3.819564e+01	-4.928566e+01
1.200000e-07	-5.491191e-06	-5.865032e-10	-3.816363e+01	-4.926947e+01
1.300000e-07	-5.486343e-06	-6.610395e-10	-3.812993e+01	-4.925398e+01
1.400000e-07	-5.481015e-06	-7.068501e-10	-3.809291e+01	-4.923906e+01
1.500000e-07	-5.475258e-06	-6.725302e-10	-3.805289e+01	-4.922455e+01
1.600000e-07	-5.469163e-06	-6.196573e-10	-3.801053e+01	-4.921028e+01
1.700000e-07	-5.462650e-06	-6.877478e-10	-3.796527e+01	-4.919611e+01
1.800000e-07	-5.455690e-06	-7.769221e-10	-3.791689e+01	-4.918186e+01
1.900000e-07	-5.448420e-06	-6.980239e-10	-3.786637e+01	-4.916737e+01
2.000000e-07	-5.440912e-06	-6.279252e-10	-3.781419e+01	-4.915245e+01
2.100000e-07	-5.433098e-06	-6.656646e-10	-3.775988e+01	-4.913695e+01
2.200000e-07	-5.425024e-06	-7.843180e-10	-3.770377e+01	-4.912068e+01
2.300000e-07	-5.416575e-06	-7.579829e-10	-3.764504e+01	-4.910348e+01
2.400000e-07	-5.407520e-06	-7.061929e-10	-3.758212e+01	-4.908516e+01
2.500000e-07	-5.397786e-06	-7.028272e-10	-3.751446e+01	-4.906557e+01
2.600000e-07	-5.387417e-06	-7.453295e-10	-3.744240e+01	-4.904454e+01
2.700000e-07	-5.376486e-06	-7.064672e-10	-3.736643e+01	-4.902191e+01
2.800000e-07	-5.365157e-06	-6.959292e-10	-3.728769e+01	-4.899752e+01
2.900000e-07	-5.353468e-06	-7.271891e-10	-3.720645e+01	-4.897121e+01
3.000000e-07	-5.341433e-06	-7.415165e-10	-3.712281e+01	-4.894285e+01
3.100000e-07	-5.329049e-06	-7.084779e-10	-3.703674e+01	-4.891231e+01
3.200000e-07	-5.316197e-06	-7.095216e-10	-3.694742e+01	-4.887943e+01
3.300000e-07	-5.302894e-06	-7.360070e-10	-3.685497e+01	-4.884412e+01
3.400000e-07	-5.289236e-06	-7.252119e-10	-3.676004e+01	-4.880625e+01
3.500000e-07	-5.275215e-06	-7.153922e-10	-3.666260e+01	-4.876572e+01
3.600000e-07	-5.260771e-06	-7.197758e-10	-3.656221e+01	-4.872244e+01
3.700000e-07	-5.245772e-06	-7.339421e-10	-3.645797e+01	-4.867632e+01
3.800000e-07	-5.230213e-06	-7.335424e-10	-3.634984e+01	-4.862729e+01
3.900000e-07	-5.214185e-06	-7.344400e-10	-3.623844e+01	-4.857528e+01
4.000000e-07	-5.197735e-06	-7.180210e-10	-3.612411e+01	-4.852024e+01
4.100000e-07	-5.180898e-06	-7.267111e-10	-3.600710e+01	-4.846213e+01
4.200000e-07	-5.163799e-06	-7.244717e-10	-3.588826e+01	-4.840092e+01
4.300000e-07	-5.146474e-06	-7.154320e-10	-3.576785e+01	-4.833658e+01
4.400000e-07	-5.128750e-06	-7.161543e-10	-3.564467e+01	-4.826909e+01
4.500000e-07	-5.110610e-06	-7.552129e-10	-3.551860e+01	-4.819846e+01
4.600000e-07	-5.092005e-06	-7.251854e-10	-3.538929e+01	-4.812470e+01
4.700000e-07	-5.072888e-06	-7.003581e-10	-3.525643e+01	-4.804781e+01
4.800000e-07	-5.053446e-06	-7.330070e-10	-3.512131e+01	-4.796783e+01
4.900000e-07	-5.033877e-06	-7.593424e-10	-3.498530e+01	-4.788479e+01
5.000000e-07	-5.014118e-06	-7.038038e-10	-3.484798e+01	-4.779873e+01
5.100000e-07	-4.994078e-06	-7.045726e-10	-3.470870e+01	-4.770970e+01
5.200000e-07	-4.973732e-06	-7.349422e-10	-3.456730e+01	-4.761775e+01
5.300000e-07	-4.952983e-06	-7.189089e-10	-3.442309e+01	-4.752295e+01
5.400000e-07	-4.931823e-06	-7.019692e-10	-3.427603e+01	-4.742537e+01
5.500000e-07	-4.910414e-06	-7.365655e-10	-3.412724e+01	-4.732507e+01
5.600000e-07	-4.888749e-06	-7.122041e-10	-3.397667e+01	-4.722215e+01
5.700000e-07	-4.866697e-06	-6.830400e-10	-3.382341e+01	-4.711667e+01
5.800000e-07	-4.844294e-06	-7.233741e-10	-3.366771e+01	-4.700873e+01
5.900000e-07	-4.821581e-06	-7.390986e-10	-3.350986e+01	-4.689841e+01
6.000000e-07	-4.798476e-06	-6.938851e-10	-3.334928e+01	-4.678581e+01
6.100000e-07	-4.775055e-06	-7.013856e-10	-3.318650e+01	-4.667101e+01
6.200000e-07	-4.751439e-06	-7.250649e-10	-3.302237e+01	-4.655411e+01
6.300000e-07	-4.727646e-06	-6.893822e-10	-3.285701e+01	-4.643519e+01
6.400000e-07	-4.703654e-06	-6.791410e-10	-3.269027e+01	-4.631435e+01
6.500000e-07	-4.679274e-06	-7.082133e-10	-3.252082e+01	-4.619168e+01
6.600000e-07	-4.654330e-06	-7.015838e-10	-3.234746e+01	-4.606727e+01
6.700000e-07	-4.628784e-06	-6.844207e-10	-3.216992e+01	-4.594121e+01
6.800000e-07	-4.602706e-06	-7.083602e-10	-3.198868e+01	-4.581357e+01
6.900000e-07	-4.576140e-06	-7.058174e-10	-3.180405e+01	-4.568444e+01
7.000000e-07	-4.549132e-06	-6.822258e-10	-3.161634e+01	-4.555389e+01
7.100000e-07	-4.521832e-06	-6.795477e-10	-3.142661e+01	-4.542200e+01
7.200000e-07	-4.494330e-06	-6.892927e-10	-3.123547e+01	-4.528883e+01
7.300000e-07	-4.466646e-06	-6.733187e-10	-3.104307e+01	-4.515445e+01
7.400000e-07	-4.438748e-06	-6.730793e-10	-3.084918e+01	-4.501891e+01
7.500000e-07	-4.410579e-06	-6.778475e-10	-3.065340e+01	-4.488227e+01
7.600000e-07	-4.382098e-06	-6.720483e-10	-3.045546e+01	-4.474456e+01
7.700000e-07	-4.353315e-06	-6.573469e-10	-3.025542e+01	-4.460584e+01
7.800000e-07	-4.324259e-06	-6.620080e-10	-3.005348e+01	-4.446613e+01
7.900000e-07	-4.294859e-06	-6.615418e-10	-2.984915e+01	-4.432546e+01
8.000000e-07	-4.265158e-06	-6.577918e-10	-2.964273e+01	-4.418386e+01
8.100000e-07	-4.235210e-06	-6.528834e-10	-2.943460e+01	-4.404133e+01
8.200000e-07	-4.204973e-06	-6.530042e-10	-2.922445e+01	-4.389788e+01
8.300000e-07	-4.174374e-06	-6.460685e-10	-2.901179e+01	-4.375352e+01
8.400000e-07	-4.143506e-06	-6.461942e-10	-2.879725e+01	-4.360824e+01
8.500000e-07	-4.112438e-06	-6.443308e-10	-2.858133e+01	-4.346203e+01
8.600000e-07	-4.081085e-06	-6.400987e-10	-2.836343e+01	-4.331486e+01
8.700000e-07	-4.049571e-06	-6.373083e-10	-2.814440e+01	-4.316672e+01
8.800000e-07	-4.017911e-06	-6.410536e-10	-2.792437e+01	-4.301757e+01
8.900000e-07	-3.986026e-06	-6.402790e-10	-2.770277e+01	-4.286738e+01
9.000000e-07	-3.953852e-06	-6.335171e-10	-2.747916e+01	-4.271610e+01
9.100000e-07	-3.921295e-06	-6.294685e-10	-2.725289e+01	-4.256369e+01
9.200000e-07	-3.888408e-06	-6.240169e-10	-2.702433e+01	-4.241010e+01
9.300000e-07	-3.855189e-06	-6.207555e-10	-2.679346e+01	-4.225525e+01
9.400000e-07	-3.821461e-06	-6.223887e-10	-2.655905e+01	-4.209910e+01
9.500000e-07	-3.787174e-06	-6.240311e-10	-2.632076e+01	-4.194158e+01
9.600000e-07	-3.752380e-06	-6.170487e-10	-2.607894e+01	-4.178260e+01
9.700000e-07	-3.717271e-06	-6.141476e-10	-2.583493e+01	-4.162211e+01
9.800000e-07	-3.681993e-06	-6.135951e-10	-2.558975e+01	-4.146002e+01
9.900000e-07	-3.646503e-06	-6.110610e-10	-2.534310e+01	-4.129624e+01
1.000000e-06	-3.610881e-06	-6.045809e-10	-2.509553e+01	-4.113070e+01
1.010000e-06	-3.575109e-06	-6.052400e-10	-2.484691e+01	-4.096330e+01
1.020000e-06	-3.539148e-06	-6.035228e-10	-2.459698e+01	-4.079397e+01
1.030000e-06	-3.503005e-06	-6.010028e-10	-2.434579e+01	-4.062260e+01
1.040000e-06	-3.466666e-06	-5.983291e-10	-2.409323e+01	-4.044911e+01
1.050000e-06	-3.430054e-06	-5.976256e-10	-2.383878e+01	-4.027341e+01
1.060000e-06	-3.393166e-06	-5.915316e-10	-2.358241e+01	-4.009540e+01
1.070000e-06	-3.356046e-06	-5.906355e-10	-2.332442e+01	-3.991498e+01
1.080000e-06	-3.318644e-06	-5.892200e-10	-2.306449e+01	-3.973207e+01
1.090000e-06	-3.281009e-06	-5.852139e-10	-2.280292e+01	-3.954657e+01
1.100000e-06	-3.243125e-06	-5.790830e-10	-2.253963e+01	-3.935838e+01
1.110000e-06	-3.204993e-06	-5.763772e-10	-2.227461e+01	-3.916742e+01
1.120000e-06	-3.166687e-06	-5.714120e-10	-2.200838e+01	-3.897359e+01
1.130000e-06	-3.128181e-06	-5.676275e-10	-2.174077e+01	-3.877680e+01
1.140000e-06	-3.089424e-06	-5.655226e-10	-2.147141e+01	-3.857696e+01
1.150000e-06	-3.050436e-06	-5.633099e-10	-2.120045e+01	-3.837399e+01
1.160000e-06	-3.011341e-06	-5.584441e-10	-2.092874e+01	-3.816778e+01
1.170000e-06	-2.972178e-06	-5.549720e-10	-2.065656e+01	-3.795825e+01
1.180000e-06	-2.932844e-06	-5.540039e-10	-2.038318e+01	-3.774533e+01
1.190000e-06	-2.893334e-06	-5.525852e-10	-2.010859e+01	-3.752891e+01
1.200000e-06	-2.853694e-06	-5.497949e-10	-1.983309e+01	-3.730893e+01
1.210000e-06	-2.813853e-06	-5.454370e-10	-1.955620e+01	-3.708528e+01
1.220000e-06	-2.773749e-06	-5.394002e-10	-1.927748e+01	-3.685789e+01
1.230000e-06	-2.733538e-06	-5.310909e-10	-1.899801e+01	-3.662668e+01
1.240000e-06	-2.693215e-06	-5.257457e-10	-1.871777e+01	-3.639155e+01
1.250000e-06	-2.652579e-06	-5.214272e-10	-1.843535e+01	-3.615242e+01
1.260000e-06	-2.611602e-06	-5.174813e-10	-1.815056e+01	-3.590920e+01
1.270000e-06	-2.570419e-06	-5.120765e-10	-1.786434e+01	-3.566181e+01
1.280000e-06	-2.528980e-06	-5.104757e-10	-1.757634e+01	-3.541016e+01
1.290000e-06	-2.487271e-06	-5.080163e-10	-1.728647e+01	-3.515414e+01
1.300000e-06	-2.445339e-06	-5.026974e-10	-1.699504e+01	-3.489367e+01
1.310000e-06	-2.403095e-06	-4.952516e-10	-1.670144e+01	-3.462864e+01
1.320000e-06	-2.360519e-06	-4.881760e-10	-1.640554e+01	-3.435895e+01
1.330000e-06	-2.317699e-06	-4.805442e-10	-1.610795e+01	-3.408448e+01
1.340000e-06	-2.274678e-06	-4.757577e-10	-1.580895e+01	-3.380513e+01
1.350000e-06	-2.231478e-06	-4.731404e-10	-1.550871e+01	-3.352076e+01
1.360000e-06	-2.188097e-06	-4.714120e-10	-1.520721e+01	-3.323126e+01
1.370000e-06	-2.144538e-06	-4.691337e-10	-1.490448e+01	-3.293647e+01
1.380000e-06	-2.100891e-06	-4.678555e-10	-1.460113e+01	-3.263627e+01
1.390000e-06	-2.057147e-06	-4.632992e-10	-1.429711e+01	-3.233050e+01
1.400000e-06	-2.013352e-06	-4.562506e-10	-1.399274e+01	-3.201899e+01
1.410000e-06	-1.969525e-06	-4.484986e-10	-1.368815e+01	-3.170158e+01
1.420000e-06	-1.925641e-06	-4.431437e-10	-1.338315e+01	-3.137809e+01
1.430000e-06	-1.881691e-06	-4.402034e-10	-1.307770e+01	-3.104832e+01
1.440000e-06	-1.837643e-06	-4.378141e-10	-1.277157e+01	-3.071208e+01
1.450000e-06	-1.793458e-06	-4.339914e-10	-1.246448e+01	-3.036915e+01
1.460000e-06	-1.749140e-06	-4.271865e-10	-1.215648e+01	-3.001931e+01
1.470000e-06	-1.704672e-06	-4.179127e-10	-1.184743e+01	-2.966233e+01
1.480000e-06	-1.659972e-06	-4.101974e-10	-1.153676e+01	-2.929796e+01
1.490000e-06	-1.615111e-06	-4.054733e-10	-1.122498e+01	-2.892596e+01
1.500000e-06	-1.570155e-06	-4.011138e-10	-1.091253e+01	-2.854606e+01
1.510000e-06	-1.525108e-06	-3.960666e-10	-1.059946e+01	-2.815798e+01
1.520000e-06	-1.479987e-06	-3.898544e-10	-1.028587e+01	-2.776145e+01
1.530000e-06	-1.434784e-06	-3.824811e-10	-9.971707e+00	-2.735617e+01
1.540000e-06	-1.389510e-06	-3.738018e-10	-9.657056e+00	-2.694185e+01
1.550000e-06	-1.344184e-06	-3.675935e-10	-9.342040e+00	-2.651817e+01
1.560000e-06	-1.298753e-06	-3.621932e-10	-9.026299e+00	-2.608484e+01
1.570000e-06	-1.253149e-06	-3.550877e-10	-8.709352e+00	-2.564154e+01
1.580000e-06	-1.207476e-06	-3.511514e-10	-8.391926e+00	-2.518794e+01
1.590000e-06	-1.161731e-06	-3.481987e-10	-8.074000e+00	-2.472372e+01
1.600000e-06	-1.115931e-06	-3.434630e-10	-7.755693e+00	-2.424857e+01
1.610000e-06	-1.070099e-06	-3.361720e-10	-7.437161e+00	-2.376216e+01
1.620000e-06	-1.024141e-06	-3.300647e-10	-7.117755e+00	-2.326418e+01
1.630000e-06	-9.780435e-07	-3.251860e-10	-6.797375e+00	-2.275432e+01
1.640000e-06	-9.319685e-07	-3.182397e-10	-6.477155e+00	-2.223226e+01
1.650000e-06	-8.859093e-07	-3.082284e-10	-6.157045e+00	-2.169771e+01
1.660000e-06	-8.397232e-07	-2.952664e-10	-5.836053e+00	-2.115039e+01
1.670000e-06	-7.934525e-07	-2.841347e-10	-5.514473e+00	-2.059001e+01
1.680000e-06	-7.470975e-07	-2.746460e-10	-5.192307e+00	-2.001632e+01
1.690000e-06	-7.007068e-07	-2.698372e-10	-4.869893e+00	-1.942907e+01
1.700000e-06	-6.542259e-07	-2.646925e-10	-4.546852e+00	-1.882803e+01
1.710000e-06	-6.076886e-07	-2.572406e-10	-4.223419e+00	-1.821301e+01
1.720000e-06	-5.610703e-07	-2.464318e-10	-3.899423e+00	-1.758382e+01
1.730000e-06	-5.143783e-07	-2.314740e-10	-3.574915e+00	-1.694031e+01
1.740000e-06	-4.676983e-07	-2.161042e-10	-3.250490e+00	-1.628235e+01
1.750000e-06	-4.209901e-07	-2.052036e-10	-2.925870e+00	-1.560983e+01
1.760000e-06	-3.742553e-07	-1.971271e-10	-2.601064e+00	-1.492270e+01
1.770000e-06	-3.274363e-07	-1.921199e-10	-2.275673e+00	-1.422090e+01
1.780000e-06	-2.805580e-07	-1.866628e-10	-1.949870e+00	-1.350446e+01
1.790000e-06	-2.336922e-07	-1.812202e-10	-1.624154e+00	-1.277339e+01
1.800000e-06	-1.868606e-07	-1.712353e-10	-1.298676e+00	-1.202777e+01
1.810000e-06	-1.400090e-07	-1.566173e-10	-9.730590e-01	-1.126772e+01
1.820000e-06	-9.316885e-08	-1.424877e-10	-6.475209e-01	-1.049338e+01
1.830000e-06	-4.635966e-08	-1.305593e-10	-3.221983e-01	-9.704958e+00
1.840000e-06	4.688512e-10	-1.207635e-10	3.258503e-03	-8.902676e+00
1.850000e-06	4.726726e-08	-1.108504e-10	3.285061e-01	-8.086816e+00
1.860000e-06	9.404493e-08	-1.032692e-10	6.536096e-01	-7.257697e+00
1.870000e-06	1.408220e-07	-9.222084e-11	9.787092e-01	-6.415682e+00
1.880000e-06	1.876149e-07	-7.744446e-11	1.303918e+00	-5.561175e+00
1.890000e-06	2.344234e-07	-6.147644e-11	1.629236e+00	-4.694624e+00
1.900000e-06	2.811698e-07	-4.522863e-11	1.954122e+00	-3.816517e+00
1.910000e-06	3.278805e-07	-2.951715e-11	2.278760e+00	-2.927385e+00
1.920000e-06	3.746126e-07	-1.595698e-11	2.603547e+00	-2.027797e+00
1.930000e-06	4.213571e-07	-4.673488e-12	2.928421e+00	-1.118363e+00
1.940000e-06	4.680859e-07	6.706870e-12	3.253184e+00	-1.997260e-01
1.950000e-06	5.147657e-07	1.773989e-11	3.577607e+00	7.274311e-01
1.960000e-06	5.613435e-07	3.009134e-11	3.901322e+00	1.662394e+00
1.970000e-06	6.078622e-07	4.486973e-11	4.224625e+00	2.604418e+00
1.980000e-06	6.543484e-07	5.828116e-11	4.547703e+00	3.552726e+00
1.990000e-06	7.007136e-07	7.283161e-11	4.869940e+00	4.506517e+00
2.000000e-06	7.469615e-07	8.559921e-11	5.191362e+00	5.464966e+00
2.010000e-06	7.931727e-07	9.848926e-11	5.512528e+00	6.427226e+00
2.020000e-06	8.393515e-07	1.146801e-10	5.833470e+00	7.392431e+00
2.030000e-06	8.854487e-07	1.315561e-10	6.153844e+00	8.359702e+00
2.040000e-06	9.315202e-07	1.455780e-10	6.474039e+00	9.328146e+00
2.050000e-06	9.776207e-07	1.573687e-10	6.794437e+00	1.029686e+01
2.060000e-06	1.023616e-06	1.666225e-10	7.114103e+00	1.126494e+01
2.070000e-06	1.069510e-06	1.764358e-10	7.433066e+00	1.223149e+01
2.080000e-06	1.115316e-06	1.897448e-10	7.751416e+00	1.319558e+01
2.090000e-06	1.160945e-06	2.079334e-10	8.068535e+00	1.415632e+01
2.100000e-06	1.206469e-06	2.261794e-10	8.384926e+00	1.511281e+01
2.110000e-06	1.251932e-06	2.428669e-10	8.700895e+00	1.606418e+01
2.120000e-06	1.297350e-06	2.582414e-10	9.016547e+00	1.700955e+01
2.130000e-06	1.342727e-06	2.709235e-10	9.331915e+00	1.794808e+01
2.140000e-06	1.388094e-06	2.800003e-10	9.647217e+00	1.887893e+01
2.150000e-06	1.433389e-06	2.891021e-10	9.962013e+00	1.980130e+01
2.160000e-06	1.478548e-06	3.017722e-10	1.027587e+01	2.071442e+01
2.170000e-06	1.523662e-06	3.159476e-10	1.058941e+01	2.161752e+01
2.180000e-06	1.568720e-06	3.328210e-10	1.090256e+01	2.250990e+01
2.190000e-06	1.613577e-06	3.487204e-10	1.121432e+01	2.339088e+01
2.200000e-06	1.658196e-06	3.632164e-10	1.152442e+01	2.425980e+01
2.210000e-06	1.702661e-06	3.741184e-10	1.183345e+01	2.511605e+01
2.220000e-06	1.746944e-06	3.837072e-10	1.214121e+01	2.595908e+01
2.230000e-06	1.791046e-06	3.939772e-10	1.244772e+01	2.678835e+01
2.240000e-06	1.835110e-06	4.023314e-10	1.275396e+01	2.760337e+01
2.250000e-06	1.879163e-06	4.108197e-10	1.306013e+01	2.840370e+01
2.260000e-06	1.923086e-06	4.213012e-10	1.336540e+01	2.918895e+01
2.270000e-06	1.966891e-06	4.363671e-10	1.366984e+01	2.995876e+01
2.280000e-06	2.010673e-06	4.535062e-10	1.397412e+01	3.071283e+01
2.290000e-06	2.054419e-06	4.682680e-10	1.427815e+01	3.145089e+01
2.300000e-06	2.098044e-06	4.794929e-10	1.458135e+01	3.217272e+01
2.310000e-06	2.141581e-06	4.863480e-10	1.488393e+01	3.287814e+01
2.320000e-06	2.185075e-06	4.926360e-10	1.518621e+01	3.356703e+01
2.330000e-06	2.228498e-06	4.991732e-10	1.548800e+01	3.423929e+01
2.340000e-06	2.271809e-06	5.094708e-10	1.578901e+01	3.489488e+01
2.350000e-06	2.314937e-06	5.237002e-10	1.608875e+01	3.553378e+01
2.360000e-06	2.357928e-06	5.402096e-10	1.638754e+01	3.615602e+01
2.370000e-06	2.400746e-06	5.530408e-10	1.668512e+01	3.676167e+01
2.380000e-06	2.443186e-06	5.603497e-10	1.698008e+01	3.735083e+01
2.390000e-06	2.485214e-06	5.638970e-10	1.727217e+01	3.792363e+01
2.400000e-06	2.526971e-06	5.661177e-10	1.756238e+01	3.848024e+01
2.410000e-06	2.568419e-06	5.696298e-10	1.785044e+01	3.902084e+01
2.420000e-06	2.609476e-06	5.761149e-10	1.813578e+01	3.954566e+01
2.430000e-06	2.650199e-06	5.870744e-10	1.841881e+01	4.005493e+01
2.440000e-06	2.690706e-06	5.983812e-10	1.870033e+01	4.054891e+01
2.450000e-06	2.731031e-06	6.062554e-10	1.898059e+01	4.102790e+01
2.460000e-06	2.771109e-06	6.137240e-10	1.925913e+01	4.149218e+01
2.470000e-06	2.810978e-06	6.204448e-10	1.953622e+01	4.194206e+01
2.480000e-06	2.850745e-06	6.248130e-10	1.981260e+01	4.237788e+01
2.490000e-06	2.890398e-06	6.277888e-10	2.008818e+01	4.279996e+01
2.500000e-06	2.929950e-06	6.319830e-10	2.036307e+01	4.320864e+01
2.510000e-06	2.969398e-06	6.396610e-10	2.063723e+01	4.360427e+01
2.520000e-06	3.008668e-06	6.492147e-10	2.091016e+01	4.398719e+01
2.530000e-06	3.047739e-06	6.577278e-10	2.118170e+01	4.435776e+01
2.540000e-06	3.086579e-06	6.642862e-10	2.145164e+01	4.471631e+01
2.550000e-06	3.125220e-06	6.695605e-10	2.172019e+01	4.506320e+01
2.560000e-06	3.163558e-06	6.726439e-10	2.198664e+01	4.539876e+01
2.570000e-06	3.201649e-06	6.752465e-10	2.225138e+01	4.572333e+01
2.580000e-06	3.239587e-06	6.789460e-10	2.251504e+01	4.603723e+01
2.590000e-06	3.277288e-06	6.833663e-10	2.277706e+01	4.634077e+01
2.600000e-06	3.314842e-06	6.886972e-10	2.303806e+01	4.663427e+01
2.610000e-06	3.352219e-06	6.934965e-10	2.329783e+01	4.691802e+01
2.620000e-06	3.389249e-06	6.960204e-10	2.355519e+01	4.719231e+01
2.630000e-06	3.425987e-06	6.988159e-10	2.381052e+01	4.745741e+01
2.640000e-06	3.462550e-06	7.013094e-10	2.406463e+01	4.771358e+01
2.650000e-06	3.498889e-06	7.042819e-10	2.431718e+01	4.796107e+01
2.660000e-06	3.534912e-06	7.090845e-10	2.456754e+01	4.820012e+01
2.670000e-06	3.570673e-06	7.133199e-10	2.481608e+01	4.843094e+01
2.680000e-06	3.606342e-06	7.161565e-10	2.506398e+01	4.865376e+01
2.690000e-06	3.641960e-06	7.201385e-10	2.531152e+01	4.886876e+01
2.700000e-06	3.677420e-06	7.247302e-10	2.555797e+01	4.907612e+01
2.710000e-06	3.712701e-06	7.280623e-10	2.580317e+01	4.927604e+01
2.720000e-06	3.747776e-06	7.297028e-10	2.604694e+01	4.946866e+01
2.730000e-06	3.782577e-06	7.316774e-10	2.628880e+01	4.965413e+01
2.740000e-06	3.817052e-06	7.344788e-10	2.652841e+01	4.983261e+01
2.750000e-06	3.851042e-06	7.355227e-10	2.676464e+01	5.000423e+01
2.760000e-06	3.884530e-06	7.363169e-10	2.699738e+01	5.016910e+01
2.770000e-06	3.917556e-06	7.409196e-10	2.722690e+01	5.032734e+01
2.780000e-06	3.950054e-06	7.466987e-10	2.745277e+01	5.047907e+01
2.790000e-06	3.982140e-06	7.518206e-10	2.767577e+01	5.062439e+01
2.800000e-06	4.013996e-06	7.522945e-10	2.789716e+01	5.076340e+01
2.810000e-06	4.045720e-06	7.477764e-10	2.811764e+01	5.089619e+01
2.820000e-06	4.077340e-06	7.442271e-10	2.833740e+01	5.102286e+01
2.830000e-06	4.108770e-06	7.453956e-10	2.855584e+01	5.114350e+01
2.840000e-06	4.139940e-06	7.511368e-10	2.877247e+01	5.125818e+01
2.850000e-06	4.170782e-06	7.596497e-10	2.898682e+01	5.136701e+01
2.860000e-06	4.201285e-06	7.679641e-10	2.919881e+01	5.147006e+01
2.870000e-06	4.231535e-06	7.690021e-10	2.940905e+01	5.156742e+01
2.880000e-06	4.261470e-06	7.649835e-10	2.961710e+01	5.165918e+01
2.890000e-06	4.291125e-06	7.604193e-10	2.982320e+01	5.174542e+01
2.900000e-06	4.320611e-06	7.565053e-10	3.002813e+01	5.182624e+01
