# Temperatura_=_-6.04
# Concentracion g/m^3_=_1620.0
# C_Vs_to_Am_M_A/Vsm_=_65563218390.804596
# pendiente_HvsI_1/m_=_3716.3
# ordenada_HvsI_A/m_=_1297.0
# frecuencia_Hz_=_135106.0986078881

Tiempo_(s)	Campo_(V.s)	Magnetizacion_(V.s)	Campo_(kA/m)	Magnetizacion_(A/m)
0.000000e+00	-5.533361e-06	-6.949342e-10	-3.837410e+01	-4.873277e+01
1.000000e-08	-5.533704e-06	-6.897233e-10	-3.837648e+01	-4.869827e+01
2.000000e-08	-5.533795e-06	-6.883206e-10	-3.837711e+01	-4.866892e+01
3.000000e-08	-5.533576e-06	-6.930563e-10	-3.837559e+01	-4.864478e+01
4.000000e-08	-5.532885e-06	-6.958215e-10	-3.837080e+01	-4.862584e+01
5.000000e-08	-5.531587e-06	-6.878158e-10	-3.836180e+01	-4.861206e+01
6.000000e-08	-5.529689e-06	-6.705055e-10	-3.834864e+01	-4.860336e+01
7.000000e-08	-5.527219e-06	-6.581673e-10	-3.833151e+01	-4.859960e+01
8.000000e-08	-5.524277e-06	-6.829630e-10	-3.831110e+01	-4.860063e+01
9.000000e-08	-5.520893e-06	-7.624794e-10	-3.828763e+01	-4.860624e+01
1.000000e-07	-5.516977e-06	-8.005745e-10	-3.826047e+01	-4.861620e+01
1.100000e-07	-5.512637e-06	-7.086823e-10	-3.823038e+01	-4.863022e+01
1.200000e-07	-5.508132e-06	-6.160472e-10	-3.819914e+01	-4.864800e+01
1.300000e-07	-5.503400e-06	-6.699971e-10	-3.816632e+01	-4.866920e+01
1.400000e-07	-5.498244e-06	-7.376020e-10	-3.813056e+01	-4.869344e+01
1.500000e-07	-5.492701e-06	-7.156696e-10	-3.809212e+01	-4.872032e+01
1.600000e-07	-5.486858e-06	-5.993881e-10	-3.805160e+01	-4.874943e+01
1.700000e-07	-5.480748e-06	-6.588644e-10	-3.800922e+01	-4.878032e+01
1.800000e-07	-5.474234e-06	-7.575851e-10	-3.796405e+01	-4.881254e+01
1.900000e-07	-5.467187e-06	-7.696183e-10	-3.791518e+01	-4.884562e+01
2.000000e-07	-5.459834e-06	-6.646365e-10	-3.786419e+01	-4.887907e+01
2.100000e-07	-5.452300e-06	-6.593394e-10	-3.781194e+01	-4.891241e+01
2.200000e-07	-5.444476e-06	-7.506287e-10	-3.775768e+01	-4.894516e+01
2.300000e-07	-5.436353e-06	-7.855788e-10	-3.770134e+01	-4.897683e+01
2.400000e-07	-5.427837e-06	-7.381376e-10	-3.764228e+01	-4.900693e+01
2.500000e-07	-5.418690e-06	-7.161003e-10	-3.757885e+01	-4.903500e+01
2.600000e-07	-5.408758e-06	-7.678789e-10	-3.750998e+01	-4.906058e+01
2.700000e-07	-5.398230e-06	-7.610907e-10	-3.743696e+01	-4.908322e+01
2.800000e-07	-5.387275e-06	-7.344890e-10	-3.736099e+01	-4.910251e+01
2.900000e-07	-5.375868e-06	-7.262036e-10	-3.728188e+01	-4.911805e+01
3.000000e-07	-5.364081e-06	-7.789116e-10	-3.720014e+01	-4.912946e+01
3.100000e-07	-5.352044e-06	-7.572709e-10	-3.711666e+01	-4.913641e+01
3.200000e-07	-5.339627e-06	-7.317102e-10	-3.703054e+01	-4.913857e+01
3.300000e-07	-5.326645e-06	-7.319027e-10	-3.694052e+01	-4.913566e+01
3.400000e-07	-5.313294e-06	-7.883511e-10	-3.684793e+01	-4.912744e+01
3.500000e-07	-5.299579e-06	-7.597329e-10	-3.675281e+01	-4.911371e+01
3.600000e-07	-5.285283e-06	-7.381969e-10	-3.665367e+01	-4.909428e+01
3.700000e-07	-5.270492e-06	-7.461662e-10	-3.655109e+01	-4.906903e+01
3.800000e-07	-5.255359e-06	-7.607915e-10	-3.644615e+01	-4.903786e+01
3.900000e-07	-5.239711e-06	-7.095642e-10	-3.633763e+01	-4.900072e+01
4.000000e-07	-5.223487e-06	-7.296781e-10	-3.622511e+01	-4.895759e+01
4.100000e-07	-5.206836e-06	-7.661727e-10	-3.610964e+01	-4.890848e+01
4.200000e-07	-5.189924e-06	-7.284817e-10	-3.599235e+01	-4.885347e+01
4.300000e-07	-5.172691e-06	-6.909090e-10	-3.587284e+01	-4.879264e+01
4.400000e-07	-5.155090e-06	-7.566604e-10	-3.575077e+01	-4.872613e+01
4.500000e-07	-5.137175e-06	-7.728020e-10	-3.562654e+01	-4.865409e+01
4.600000e-07	-5.118763e-06	-7.003610e-10	-3.549884e+01	-4.857672e+01
4.700000e-07	-5.099848e-06	-7.152976e-10	-3.536767e+01	-4.849425e+01
4.800000e-07	-5.080661e-06	-7.645152e-10	-3.523460e+01	-4.840691e+01
4.900000e-07	-5.061271e-06	-7.282144e-10	-3.510014e+01	-4.831499e+01
5.000000e-07	-5.041715e-06	-7.091896e-10	-3.496451e+01	-4.821876e+01
5.100000e-07	-5.022013e-06	-7.650665e-10	-3.482788e+01	-4.811855e+01
5.200000e-07	-5.001962e-06	-7.354640e-10	-3.468882e+01	-4.801466e+01
5.300000e-07	-4.981465e-06	-6.993671e-10	-3.454668e+01	-4.790743e+01
5.400000e-07	-4.960585e-06	-7.511733e-10	-3.440187e+01	-4.779719e+01
5.500000e-07	-4.939381e-06	-7.761451e-10	-3.425482e+01	-4.768430e+01
5.600000e-07	-4.917845e-06	-7.108457e-10	-3.410547e+01	-4.756909e+01
5.700000e-07	-4.895979e-06	-7.195042e-10	-3.395383e+01	-4.745189e+01
5.800000e-07	-4.873819e-06	-7.482858e-10	-3.380015e+01	-4.733306e+01
5.900000e-07	-4.851307e-06	-7.235279e-10	-3.364402e+01	-4.721290e+01
6.000000e-07	-4.828407e-06	-7.112366e-10	-3.348521e+01	-4.709172e+01
6.100000e-07	-4.805203e-06	-7.474453e-10	-3.332429e+01	-4.696983e+01
6.200000e-07	-4.781741e-06	-7.279263e-10	-3.316158e+01	-4.684751e+01
6.300000e-07	-4.758048e-06	-7.114000e-10	-3.299727e+01	-4.672501e+01
6.400000e-07	-4.734149e-06	-7.247606e-10	-3.283153e+01	-4.660256e+01
6.500000e-07	-4.709817e-06	-7.237213e-10	-3.266279e+01	-4.648038e+01
6.600000e-07	-4.684903e-06	-7.052158e-10	-3.249001e+01	-4.635866e+01
6.700000e-07	-4.659530e-06	-7.214022e-10	-3.231404e+01	-4.623754e+01
6.800000e-07	-4.633669e-06	-7.234203e-10	-3.213470e+01	-4.611717e+01
6.900000e-07	-4.607305e-06	-7.129752e-10	-3.195186e+01	-4.599765e+01
7.000000e-07	-4.580499e-06	-7.156030e-10	-3.176596e+01	-4.587903e+01
7.100000e-07	-4.553370e-06	-7.181153e-10	-3.157782e+01	-4.576138e+01
7.200000e-07	-4.526035e-06	-7.061723e-10	-3.138825e+01	-4.564469e+01
7.300000e-07	-4.498488e-06	-7.045406e-10	-3.119721e+01	-4.552895e+01
7.400000e-07	-4.470743e-06	-7.023353e-10	-3.100480e+01	-4.541412e+01
7.500000e-07	-4.442767e-06	-6.968969e-10	-3.081079e+01	-4.530012e+01
7.600000e-07	-4.414454e-06	-7.021401e-10	-3.061443e+01	-4.518685e+01
7.700000e-07	-4.385823e-06	-7.010963e-10	-3.041587e+01	-4.507418e+01
7.800000e-07	-4.356898e-06	-6.892103e-10	-3.021528e+01	-4.496197e+01
7.900000e-07	-4.327675e-06	-6.855420e-10	-3.001261e+01	-4.485006e+01
8.000000e-07	-4.298105e-06	-6.914761e-10	-2.980755e+01	-4.473824e+01
8.100000e-07	-4.268175e-06	-6.824534e-10	-2.959998e+01	-4.462633e+01
8.200000e-07	-4.238057e-06	-6.783738e-10	-2.939111e+01	-4.451409e+01
8.300000e-07	-4.207696e-06	-6.831828e-10	-2.918056e+01	-4.440130e+01
8.400000e-07	-4.176900e-06	-6.877094e-10	-2.896698e+01	-4.428772e+01
8.500000e-07	-4.145787e-06	-6.809319e-10	-2.875121e+01	-4.417309e+01
8.600000e-07	-4.114512e-06	-6.830830e-10	-2.853432e+01	-4.405718e+01
8.700000e-07	-4.083108e-06	-6.786179e-10	-2.831653e+01	-4.393972e+01
8.800000e-07	-4.051616e-06	-6.681494e-10	-2.809813e+01	-4.382047e+01
8.900000e-07	-4.019975e-06	-6.583628e-10	-2.787870e+01	-4.369917e+01
9.000000e-07	-3.987997e-06	-6.594332e-10	-2.765693e+01	-4.357559e+01
9.100000e-07	-3.955610e-06	-6.525540e-10	-2.743233e+01	-4.344949e+01
9.200000e-07	-3.922838e-06	-6.506595e-10	-2.720505e+01	-4.332066e+01
9.300000e-07	-3.889635e-06	-6.539593e-10	-2.697479e+01	-4.318888e+01
9.400000e-07	-3.856040e-06	-6.562716e-10	-2.674181e+01	-4.305396e+01
9.500000e-07	-3.821977e-06	-6.482271e-10	-2.650558e+01	-4.291571e+01
9.600000e-07	-3.787405e-06	-6.469640e-10	-2.626582e+01	-4.277399e+01
9.700000e-07	-3.752401e-06	-6.441214e-10	-2.602307e+01	-4.262865e+01
9.800000e-07	-3.717111e-06	-6.347937e-10	-2.577833e+01	-4.247956e+01
9.900000e-07	-3.681690e-06	-6.274462e-10	-2.553268e+01	-4.232663e+01
1.000000e-06	-3.646126e-06	-6.302765e-10	-2.528604e+01	-4.216978e+01
1.010000e-06	-3.610424e-06	-6.294987e-10	-2.503845e+01	-4.200895e+01
1.020000e-06	-3.574596e-06	-6.249920e-10	-2.478998e+01	-4.184411e+01
1.030000e-06	-3.538602e-06	-6.240862e-10	-2.454036e+01	-4.167524e+01
1.040000e-06	-3.502456e-06	-6.225845e-10	-2.428968e+01	-4.150235e+01
1.050000e-06	-3.466128e-06	-6.181938e-10	-2.403775e+01	-4.132547e+01
1.060000e-06	-3.429411e-06	-6.134271e-10	-2.378312e+01	-4.114463e+01
1.070000e-06	-3.392324e-06	-6.086388e-10	-2.352592e+01	-4.095991e+01
1.080000e-06	-3.354967e-06	-6.013862e-10	-2.326684e+01	-4.077138e+01
1.090000e-06	-3.317419e-06	-5.984268e-10	-2.300645e+01	-4.057914e+01
1.100000e-06	-3.279734e-06	-5.965165e-10	-2.274510e+01	-4.038330e+01
1.110000e-06	-3.241773e-06	-5.939631e-10	-2.248184e+01	-4.018398e+01
1.120000e-06	-3.203575e-06	-5.895414e-10	-2.221693e+01	-3.998130e+01
1.130000e-06	-3.165153e-06	-5.893499e-10	-2.195047e+01	-3.977540e+01
1.140000e-06	-3.126495e-06	-5.882770e-10	-2.168238e+01	-3.956642e+01
1.150000e-06	-3.087675e-06	-5.856913e-10	-2.141316e+01	-3.935450e+01
1.160000e-06	-3.048691e-06	-5.793603e-10	-2.114281e+01	-3.913978e+01
1.170000e-06	-3.009522e-06	-5.742823e-10	-2.087117e+01	-3.892240e+01
1.180000e-06	-2.970172e-06	-5.686820e-10	-2.059827e+01	-3.870249e+01
1.190000e-06	-2.930718e-06	-5.684557e-10	-2.032466e+01	-3.848019e+01
1.200000e-06	-2.891159e-06	-5.664335e-10	-2.005031e+01	-3.825561e+01
1.210000e-06	-2.851454e-06	-5.634518e-10	-1.977496e+01	-3.802885e+01
1.220000e-06	-2.811593e-06	-5.586948e-10	-1.949852e+01	-3.780000e+01
1.230000e-06	-2.771514e-06	-5.561718e-10	-1.922057e+01	-3.756914e+01
1.240000e-06	-2.731224e-06	-5.502395e-10	-1.894116e+01	-3.733632e+01
1.250000e-06	-2.690719e-06	-5.446459e-10	-1.866025e+01	-3.710158e+01
1.260000e-06	-2.649942e-06	-5.404701e-10	-1.837747e+01	-3.686493e+01
1.270000e-06	-2.608850e-06	-5.381991e-10	-1.809249e+01	-3.662637e+01
1.280000e-06	-2.567363e-06	-5.373439e-10	-1.780477e+01	-3.638586e+01
1.290000e-06	-2.525555e-06	-5.350362e-10	-1.751484e+01	-3.614333e+01
1.300000e-06	-2.483508e-06	-5.288476e-10	-1.722323e+01	-3.589871e+01
1.310000e-06	-2.441167e-06	-5.226616e-10	-1.692960e+01	-3.565189e+01
1.320000e-06	-2.398531e-06	-5.197139e-10	-1.663392e+01	-3.540271e+01
1.330000e-06	-2.355620e-06	-5.160491e-10	-1.633633e+01	-3.515102e+01
1.340000e-06	-2.312491e-06	-5.135520e-10	-1.603723e+01	-3.489662e+01
1.350000e-06	-2.269180e-06	-5.113987e-10	-1.573686e+01	-3.463928e+01
1.360000e-06	-2.225745e-06	-5.107364e-10	-1.543564e+01	-3.437875e+01
1.370000e-06	-2.182259e-06	-5.064692e-10	-1.513406e+01	-3.411476e+01
1.380000e-06	-2.138724e-06	-5.018048e-10	-1.483214e+01	-3.384700e+01
1.390000e-06	-2.095128e-06	-4.987663e-10	-1.452980e+01	-3.357515e+01
1.400000e-06	-2.051417e-06	-4.934462e-10	-1.422667e+01	-3.329885e+01
1.410000e-06	-2.007558e-06	-4.851686e-10	-1.392250e+01	-3.301774e+01
1.420000e-06	-1.963633e-06	-4.781186e-10	-1.361788e+01	-3.273142e+01
1.430000e-06	-1.919699e-06	-4.744063e-10	-1.331319e+01	-3.243948e+01
1.440000e-06	-1.875644e-06	-4.748280e-10	-1.300767e+01	-3.214149e+01
1.450000e-06	-1.831377e-06	-4.716520e-10	-1.270068e+01	-3.183701e+01
1.460000e-06	-1.786990e-06	-4.634772e-10	-1.239286e+01	-3.152559e+01
1.470000e-06	-1.742582e-06	-4.550515e-10	-1.208488e+01	-3.120675e+01
1.480000e-06	-1.698003e-06	-4.488967e-10	-1.177573e+01	-3.088003e+01
1.490000e-06	-1.653157e-06	-4.414244e-10	-1.146471e+01	-3.054494e+01
1.500000e-06	-1.608174e-06	-4.339613e-10	-1.115276e+01	-3.020100e+01
1.510000e-06	-1.563032e-06	-4.274669e-10	-1.083970e+01	-2.984774e+01
1.520000e-06	-1.517780e-06	-4.232158e-10	-1.052587e+01	-2.948466e+01
1.530000e-06	-1.472490e-06	-4.187634e-10	-1.021178e+01	-2.911128e+01
1.540000e-06	-1.427109e-06	-4.133047e-10	-9.897061e+00	-2.872714e+01
1.550000e-06	-1.381621e-06	-4.042505e-10	-9.581599e+00	-2.833178e+01
1.560000e-06	-1.336072e-06	-3.934969e-10	-9.265715e+00	-2.792473e+01
1.570000e-06	-1.290468e-06	-3.840534e-10	-8.949453e+00	-2.750556e+01
1.580000e-06	-1.244774e-06	-3.773094e-10	-8.632561e+00	-2.707385e+01
1.590000e-06	-1.199051e-06	-3.729131e-10	-8.315474e+00	-2.662919e+01
1.600000e-06	-1.153238e-06	-3.693409e-10	-7.997756e+00	-2.617118e+01
1.610000e-06	-1.107266e-06	-3.651316e-10	-7.678938e+00	-2.569948e+01
1.620000e-06	-1.061121e-06	-3.584949e-10	-7.358919e+00	-2.521373e+01
1.630000e-06	-1.014870e-06	-3.520025e-10	-7.038167e+00	-2.471362e+01
1.640000e-06	-9.686842e-07	-3.445885e-10	-6.717867e+00	-2.419885e+01
1.650000e-06	-9.223741e-07	-3.339044e-10	-6.396704e+00	-2.366918e+01
1.660000e-06	-8.758478e-07	-3.203449e-10	-6.074042e+00	-2.312435e+01
1.670000e-06	-8.293670e-07	-3.084245e-10	-5.751697e+00	-2.256418e+01
1.680000e-06	-7.829393e-07	-2.982907e-10	-5.429718e+00	-2.198850e+01
1.690000e-06	-7.364903e-07	-2.903127e-10	-5.107592e+00	-2.139716e+01
1.700000e-06	-6.899856e-07	-2.828743e-10	-4.785080e+00	-2.079007e+01
1.710000e-06	-6.433667e-07	-2.750745e-10	-4.461776e+00	-2.016716e+01
1.720000e-06	-5.966580e-07	-2.652053e-10	-4.137849e+00	-1.952840e+01
1.730000e-06	-5.499408e-07	-2.533703e-10	-3.813863e+00	-1.887378e+01
1.740000e-06	-5.031568e-07	-2.396046e-10	-3.489415e+00	-1.820335e+01
1.750000e-06	-4.563121e-07	-2.264980e-10	-3.164544e+00	-1.751719e+01
1.760000e-06	-4.094855e-07	-2.161690e-10	-2.839800e+00	-1.681540e+01
1.770000e-06	-3.626249e-07	-2.095922e-10	-2.514819e+00	-1.609814e+01
1.780000e-06	-3.157109e-07	-2.029556e-10	-2.189469e+00	-1.536560e+01
1.790000e-06	-2.687887e-07	-1.946530e-10	-1.864062e+00	-1.461798e+01
1.800000e-06	-2.218345e-07	-1.847406e-10	-1.538432e+00	-1.385555e+01
1.810000e-06	-1.747951e-07	-1.728527e-10	-1.212212e+00	-1.307861e+01
1.820000e-06	-1.277639e-07	-1.600600e-10	-8.860484e-01	-1.228747e+01
1.830000e-06	-8.075498e-08	-1.486549e-10	-5.600393e-01	-1.148250e+01
1.840000e-06	-3.374178e-08	-1.394529e-10	-2.340007e-01	-1.066410e+01
1.850000e-06	1.323814e-08	-1.306078e-10	9.180708e-02	-9.832687e+00
1.860000e-06	6.022505e-08	-1.219139e-10	4.176633e-01	-8.988727e+00
1.870000e-06	1.072174e-07	-1.133507e-10	7.435574e-01	-8.132707e+00
1.880000e-06	1.541524e-07	-1.015123e-10	1.069054e+00	-7.265147e+00
1.890000e-06	2.010434e-07	-8.564865e-11	1.394244e+00	-6.386596e+00
1.900000e-06	2.479080e-07	-7.056160e-11	1.719253e+00	-5.497627e+00
1.910000e-06	2.947888e-07	-5.822890e-11	2.044373e+00	-4.598843e+00
1.920000e-06	3.417492e-07	-4.645947e-11	2.370046e+00	-3.690869e+00
1.930000e-06	3.887031e-07	-3.635768e-11	2.695673e+00	-2.774353e+00
1.940000e-06	4.356135e-07	-2.650056e-11	3.020998e+00	-1.849965e+00
1.950000e-06	4.824817e-07	-1.393094e-11	3.346032e+00	-9.183967e-01
1.960000e-06	5.292287e-07	-2.224505e-13	3.670224e+00	1.964493e-02
1.970000e-06	5.758843e-07	1.471207e-11	3.993783e+00	9.634346e-01
1.980000e-06	6.225227e-07	2.868061e-11	4.317222e+00	1.912233e+00
1.990000e-06	6.691091e-07	4.281932e-11	4.640301e+00	2.865286e+00
2.000000e-06	7.156294e-07	5.709974e-11	4.962921e+00	3.821832e+00
2.010000e-06	7.620981e-07	7.047596e-11	5.285184e+00	4.781096e+00
2.020000e-06	8.084463e-07	8.437674e-11	5.606610e+00	5.742298e+00
2.030000e-06	8.546946e-07	9.922986e-11	5.927345e+00	6.704654e+00
2.040000e-06	9.009196e-07	1.129994e-10	6.247917e+00	7.667374e+00
2.050000e-06	9.471378e-07	1.251063e-10	6.568442e+00	8.629668e+00
2.060000e-06	9.932758e-07	1.371876e-10	6.888411e+00	9.590747e+00
2.070000e-06	1.039325e-06	1.490626e-10	7.207762e+00	1.054983e+01
2.080000e-06	1.085347e-06	1.619089e-10	7.526926e+00	1.150612e+01
2.090000e-06	1.131287e-06	1.783345e-10	7.845526e+00	1.245886e+01
2.100000e-06	1.177154e-06	1.955322e-10	8.163617e+00	1.340728e+01
2.110000e-06	1.223013e-06	2.116798e-10	8.481649e+00	1.435062e+01
2.120000e-06	1.268743e-06	2.259831e-10	8.798790e+00	1.528814e+01
2.130000e-06	1.314264e-06	2.392776e-10	9.114479e+00	1.621911e+01
2.140000e-06	1.359698e-06	2.521572e-10	9.429562e+00	1.714283e+01
2.150000e-06	1.405110e-06	2.635742e-10	9.744500e+00	1.805861e+01
2.160000e-06	1.450461e-06	2.756120e-10	1.005901e+01	1.896577e+01
2.170000e-06	1.495699e-06	2.893791e-10	1.037274e+01	1.986367e+01
2.180000e-06	1.540827e-06	3.034146e-10	1.068570e+01	2.075167e+01
2.190000e-06	1.585880e-06	3.175714e-10	1.099815e+01	2.162919e+01
2.200000e-06	1.630810e-06	3.315880e-10	1.130974e+01	2.249564e+01
2.210000e-06	1.675597e-06	3.438203e-10	1.162034e+01	2.335048e+01
2.220000e-06	1.720316e-06	3.541386e-10	1.193047e+01	2.419319e+01
2.230000e-06	1.764961e-06	3.659095e-10	1.224008e+01	2.502329e+01
2.240000e-06	1.809410e-06	3.774510e-10	1.254834e+01	2.584033e+01
2.250000e-06	1.853594e-06	3.875656e-10	1.285475e+01	2.664387e+01
2.260000e-06	1.897654e-06	3.981628e-10	1.316031e+01	2.743352e+01
2.270000e-06	1.941570e-06	4.087167e-10	1.346487e+01	2.820893e+01
2.280000e-06	1.985307e-06	4.225218e-10	1.376819e+01	2.896977e+01
2.290000e-06	2.029017e-06	4.379109e-10	1.407132e+01	2.971575e+01
2.300000e-06	2.072699e-06	4.522038e-10	1.437426e+01	3.044661e+01
2.310000e-06	2.116301e-06	4.636488e-10	1.467664e+01	3.116211e+01
2.320000e-06	2.159882e-06	4.731802e-10	1.497887e+01	3.186208e+01
2.330000e-06	2.203425e-06	4.842102e-10	1.528085e+01	3.254635e+01
2.340000e-06	2.246864e-06	4.935951e-10	1.558210e+01	3.321479e+01
2.350000e-06	2.290202e-06	5.030760e-10	1.588265e+01	3.386730e+01
2.360000e-06	2.333435e-06	5.117956e-10	1.618248e+01	3.450382e+01
2.370000e-06	2.376468e-06	5.204750e-10	1.648091e+01	3.512431e+01
2.380000e-06	2.419196e-06	5.307082e-10	1.677723e+01	3.572877e+01
2.390000e-06	2.461662e-06	5.397315e-10	1.707173e+01	3.631722e+01
2.400000e-06	2.503889e-06	5.470272e-10	1.736458e+01	3.688970e+01
2.410000e-06	2.545750e-06	5.525715e-10	1.765489e+01	3.744629e+01
2.420000e-06	2.587161e-06	5.590135e-10	1.794207e+01	3.798708e+01
2.430000e-06	2.628229e-06	5.652807e-10	1.822688e+01	3.851219e+01
2.440000e-06	2.669145e-06	5.728187e-10	1.851063e+01	3.902176e+01
2.450000e-06	2.709823e-06	5.790525e-10	1.879274e+01	3.951595e+01
2.460000e-06	2.750149e-06	5.851234e-10	1.907240e+01	3.999495e+01
2.470000e-06	2.790184e-06	5.925403e-10	1.935005e+01	4.045893e+01
2.480000e-06	2.830039e-06	6.000039e-10	1.962645e+01	4.090811e+01
2.490000e-06	2.869769e-06	6.078237e-10	1.990198e+01	4.134272e+01
2.500000e-06	2.909419e-06	6.150201e-10	2.017695e+01	4.176299e+01
2.510000e-06	2.949005e-06	6.204288e-10	2.045148e+01	4.216916e+01
2.520000e-06	2.988454e-06	6.240818e-10	2.072506e+01	4.256149e+01
2.530000e-06	3.027782e-06	6.282929e-10	2.099780e+01	4.294024e+01
2.540000e-06	3.066932e-06	6.337465e-10	2.126930e+01	4.330567e+01
2.550000e-06	3.105749e-06	6.381665e-10	2.153850e+01	4.365807e+01
2.560000e-06	3.144335e-06	6.437736e-10	2.180610e+01	4.399771e+01
2.570000e-06	3.182789e-06	6.481574e-10	2.207278e+01	4.432487e+01
2.580000e-06	3.221000e-06	6.507561e-10	2.233778e+01	4.463983e+01
2.590000e-06	3.258977e-06	6.543673e-10	2.260115e+01	4.494289e+01
2.600000e-06	3.296723e-06	6.581505e-10	2.286292e+01	4.523432e+01
2.610000e-06	3.334267e-06	6.630210e-10	2.312329e+01	4.551441e+01
2.620000e-06	3.371657e-06	6.659644e-10	2.338259e+01	4.578345e+01
2.630000e-06	3.408779e-06	6.676622e-10	2.364003e+01	4.604173e+01
2.640000e-06	3.445581e-06	6.695813e-10	2.389525e+01	4.628952e+01
2.650000e-06	3.482151e-06	6.721842e-10	2.414887e+01	4.652710e+01
2.660000e-06	3.518459e-06	6.743222e-10	2.440067e+01	4.675476e+01
2.670000e-06	3.554497e-06	6.753747e-10	2.465059e+01	4.697278e+01
2.680000e-06	3.590373e-06	6.766714e-10	2.489940e+01	4.718142e+01
2.690000e-06	3.626120e-06	6.788582e-10	2.514730e+01	4.738098e+01
2.700000e-06	3.661722e-06	6.840166e-10	2.539420e+01	4.757170e+01
2.710000e-06	3.697215e-06	6.900769e-10	2.564035e+01	4.775388e+01
2.720000e-06	3.732565e-06	6.924362e-10	2.588550e+01	4.792778e+01
2.730000e-06	3.767680e-06	6.945706e-10	2.612903e+01	4.809366e+01
2.740000e-06	3.802511e-06	6.973173e-10	2.637058e+01	4.825179e+01
2.750000e-06	3.836909e-06	6.989067e-10	2.660913e+01	4.840244e+01
2.760000e-06	3.870756e-06	6.983493e-10	2.684386e+01	4.854587e+01
2.770000e-06	3.904130e-06	6.979991e-10	2.707531e+01	4.868236e+01
2.780000e-06	3.937061e-06	6.998586e-10	2.730369e+01	4.881215e+01
2.790000e-06	3.969535e-06	7.052235e-10	2.752890e+01	4.893552e+01
2.800000e-06	4.001665e-06	7.133310e-10	2.775172e+01	4.905273e+01
2.810000e-06	4.033597e-06	7.196420e-10	2.797317e+01	4.916405e+01
2.820000e-06	4.065335e-06	7.208965e-10	2.819328e+01	4.926972e+01
2.830000e-06	4.096914e-06	7.202301e-10	2.841228e+01	4.937003e+01
2.840000e-06	4.128297e-06	7.208220e-10	2.862992e+01	4.946522e+01
2.850000e-06	4.159429e-06	7.220157e-10	2.884582e+01	4.955557e+01
2.860000e-06	4.190259e-06	7.243109e-10	2.905963e+01	4.964132e+01
2.870000e-06	4.220718e-06	7.274112e-10	2.927086e+01	4.972273e+01
2.880000e-06	4.250847e-06	7.304333e-10	2.947981e+01	4.980006e+01
2.890000e-06	4.280680e-06	7.342650e-10	2.968671e+01	4.987357e+01
2.900000e-06	4.310208e-06	7.382398e-10	2.989148e+01	4.994349e+01
