# Temperatura_=_3.8
# Concentracion g/m^3_=_1620.0
# C_Vs_to_Am_M_A/Vsm_=_65563218390.804596
# pendiente_HvsI_1/m_=_3716.3
# ordenada_HvsI_A/m_=_1297.0
# frecuencia_Hz_=_135093.97032774135

Tiempo_(s)	Campo_(V.s)	Magnetizacion_(V.s)	Campo_(kA/m)	Magnetizacion_(A/m)
0.000000e+00	-5.520578e-06	-1.251595e-09	-3.838045e+01	-8.337485e+01
1.000000e-08	-5.520793e-06	-1.245116e-09	-3.838194e+01	-8.333267e+01
2.000000e-08	-5.520826e-06	-1.240849e-09	-3.838217e+01	-8.329037e+01
3.000000e-08	-5.520490e-06	-1.240834e-09	-3.837984e+01	-8.324790e+01
4.000000e-08	-5.519699e-06	-1.238261e-09	-3.837434e+01	-8.320519e+01
5.000000e-08	-5.518346e-06	-1.227333e-09	-3.836493e+01	-8.316215e+01
6.000000e-08	-5.516424e-06	-1.214472e-09	-3.835157e+01	-8.311868e+01
7.000000e-08	-5.513944e-06	-1.228770e-09	-3.833433e+01	-8.307467e+01
8.000000e-08	-5.510829e-06	-1.274401e-09	-3.831267e+01	-8.302998e+01
9.000000e-08	-5.507253e-06	-1.309559e-09	-3.828781e+01	-8.298448e+01
1.000000e-07	-5.503344e-06	-1.304983e-09	-3.826063e+01	-8.293800e+01
1.100000e-07	-5.499124e-06	-1.289217e-09	-3.823129e+01	-8.289040e+01
1.200000e-07	-5.494573e-06	-1.191672e-09	-3.819965e+01	-8.284148e+01
1.300000e-07	-5.489739e-06	-1.195861e-09	-3.816604e+01	-8.279108e+01
1.400000e-07	-5.484602e-06	-1.227947e-09	-3.813033e+01	-8.273899e+01
1.500000e-07	-5.479092e-06	-1.270780e-09	-3.809203e+01	-8.268502e+01
1.600000e-07	-5.473177e-06	-1.217350e-09	-3.805091e+01	-8.262897e+01
1.700000e-07	-5.466890e-06	-1.189063e-09	-3.800720e+01	-8.257063e+01
1.800000e-07	-5.460178e-06	-1.271923e-09	-3.796053e+01	-8.250979e+01
1.900000e-07	-5.452986e-06	-1.299950e-09	-3.791053e+01	-8.244624e+01
2.000000e-07	-5.445452e-06	-1.242771e-09	-3.785815e+01	-8.237975e+01
2.100000e-07	-5.437697e-06	-1.180423e-09	-3.780424e+01	-8.231013e+01
2.200000e-07	-5.429736e-06	-1.246658e-09	-3.774889e+01	-8.223716e+01
2.300000e-07	-5.421529e-06	-1.273824e-09	-3.769183e+01	-8.216063e+01
2.400000e-07	-5.412881e-06	-1.267266e-09	-3.763171e+01	-8.208033e+01
2.500000e-07	-5.403698e-06	-1.222084e-09	-3.756786e+01	-8.199608e+01
2.600000e-07	-5.393881e-06	-1.253315e-09	-3.749962e+01	-8.190766e+01
2.700000e-07	-5.383407e-06	-1.247558e-09	-3.742680e+01	-8.181490e+01
2.800000e-07	-5.372426e-06	-1.245920e-09	-3.735045e+01	-8.171762e+01
2.900000e-07	-5.360945e-06	-1.226543e-09	-3.727063e+01	-8.161564e+01
3.000000e-07	-5.349058e-06	-1.235551e-09	-3.718799e+01	-8.150882e+01
3.100000e-07	-5.336814e-06	-1.226707e-09	-3.710288e+01	-8.139699e+01
3.200000e-07	-5.324191e-06	-1.227014e-09	-3.701511e+01	-8.128003e+01
3.300000e-07	-5.311111e-06	-1.211122e-09	-3.692418e+01	-8.115780e+01
3.400000e-07	-5.297648e-06	-1.209295e-09	-3.683058e+01	-8.103020e+01
3.500000e-07	-5.283883e-06	-1.226354e-09	-3.673488e+01	-8.089712e+01
3.600000e-07	-5.269723e-06	-1.231159e-09	-3.663644e+01	-8.075848e+01
3.700000e-07	-5.255057e-06	-1.198892e-09	-3.653447e+01	-8.061420e+01
3.800000e-07	-5.239866e-06	-1.204593e-09	-3.642886e+01	-8.046422e+01
3.900000e-07	-5.224141e-06	-1.233323e-09	-3.631954e+01	-8.030851e+01
4.000000e-07	-5.207812e-06	-1.202454e-09	-3.620602e+01	-8.014702e+01
4.100000e-07	-5.191107e-06	-1.184764e-09	-3.608988e+01	-7.997975e+01
4.200000e-07	-5.174247e-06	-1.211260e-09	-3.597267e+01	-7.980669e+01
4.300000e-07	-5.157033e-06	-1.205308e-09	-3.585299e+01	-7.962786e+01
4.400000e-07	-5.139511e-06	-1.157102e-09	-3.573117e+01	-7.944327e+01
4.500000e-07	-5.121747e-06	-1.211716e-09	-3.560767e+01	-7.925297e+01
4.600000e-07	-5.103462e-06	-1.232983e-09	-3.548055e+01	-7.905702e+01
4.700000e-07	-5.084599e-06	-1.172114e-09	-3.534941e+01	-7.885547e+01
4.800000e-07	-5.065359e-06	-1.167650e-09	-3.521565e+01	-7.864841e+01
4.900000e-07	-5.045849e-06	-1.234103e-09	-3.508001e+01	-7.843593e+01
5.000000e-07	-5.026152e-06	-1.176560e-09	-3.494307e+01	-7.821812e+01
5.100000e-07	-5.006267e-06	-1.139532e-09	-3.480482e+01	-7.799509e+01
5.200000e-07	-4.986091e-06	-1.195559e-09	-3.466456e+01	-7.776697e+01
5.300000e-07	-4.965581e-06	-1.195717e-09	-3.452197e+01	-7.753389e+01
5.400000e-07	-4.944661e-06	-1.133639e-09	-3.437652e+01	-7.729597e+01
5.500000e-07	-4.923450e-06	-1.185547e-09	-3.422906e+01	-7.705336e+01
5.600000e-07	-4.901956e-06	-1.197060e-09	-3.407963e+01	-7.680621e+01
5.700000e-07	-4.880053e-06	-1.125357e-09	-3.392735e+01	-7.655468e+01
5.800000e-07	-4.857811e-06	-1.136868e-09	-3.377272e+01	-7.629891e+01
5.900000e-07	-4.835210e-06	-1.196503e-09	-3.361560e+01	-7.603907e+01
6.000000e-07	-4.812221e-06	-1.142728e-09	-3.345577e+01	-7.577532e+01
6.100000e-07	-4.788964e-06	-1.120272e-09	-3.329408e+01	-7.550782e+01
6.200000e-07	-4.765404e-06	-1.166610e-09	-3.313029e+01	-7.523672e+01
6.300000e-07	-4.741651e-06	-1.139778e-09	-3.296515e+01	-7.496220e+01
6.400000e-07	-4.717746e-06	-1.095652e-09	-3.279896e+01	-7.468441e+01
6.500000e-07	-4.693488e-06	-1.128035e-09	-3.263031e+01	-7.440350e+01
6.600000e-07	-4.668771e-06	-1.129983e-09	-3.245847e+01	-7.411961e+01
6.700000e-07	-4.643550e-06	-1.096338e-09	-3.228312e+01	-7.383289e+01
6.800000e-07	-4.617739e-06	-1.122732e-09	-3.210368e+01	-7.354348e+01
6.900000e-07	-4.591291e-06	-1.135045e-09	-3.191981e+01	-7.325150e+01
7.000000e-07	-4.564380e-06	-1.097582e-09	-3.173272e+01	-7.295708e+01
7.100000e-07	-4.537153e-06	-1.090799e-09	-3.154343e+01	-7.266032e+01
7.200000e-07	-4.509655e-06	-1.106263e-09	-3.135226e+01	-7.236133e+01
7.300000e-07	-4.481967e-06	-1.078732e-09	-3.115976e+01	-7.206019e+01
7.400000e-07	-4.454150e-06	-1.072104e-09	-3.096637e+01	-7.175699e+01
7.500000e-07	-4.426080e-06	-1.087234e-09	-3.077122e+01	-7.145179e+01
7.600000e-07	-4.397783e-06	-1.081107e-09	-3.057450e+01	-7.114465e+01
7.700000e-07	-4.369287e-06	-1.063354e-09	-3.037638e+01	-7.083561e+01
7.800000e-07	-4.340404e-06	-1.071584e-09	-3.017558e+01	-7.052471e+01
7.900000e-07	-4.311073e-06	-1.061381e-09	-2.997166e+01	-7.021196e+01
8.000000e-07	-4.281468e-06	-1.047886e-09	-2.976584e+01	-6.989737e+01
8.100000e-07	-4.251667e-06	-1.047518e-09	-2.955866e+01	-6.958094e+01
8.200000e-07	-4.221590e-06	-1.045748e-09	-2.934956e+01	-6.926263e+01
8.300000e-07	-4.191247e-06	-1.025932e-09	-2.913860e+01	-6.894242e+01
8.400000e-07	-4.160586e-06	-1.025671e-09	-2.892544e+01	-6.862027e+01
8.500000e-07	-4.129600e-06	-1.024227e-09	-2.871002e+01	-6.829613e+01
8.600000e-07	-4.098343e-06	-1.008950e-09	-2.849271e+01	-6.796991e+01
8.700000e-07	-4.066865e-06	-9.978269e-10	-2.827387e+01	-6.764156e+01
8.800000e-07	-4.035249e-06	-1.004098e-09	-2.805407e+01	-6.731098e+01
8.900000e-07	-4.003456e-06	-9.969234e-10	-2.783303e+01	-6.697807e+01
9.000000e-07	-3.971446e-06	-9.848569e-10	-2.761049e+01	-6.664274e+01
9.100000e-07	-3.939124e-06	-9.812037e-10	-2.738578e+01	-6.630487e+01
9.200000e-07	-3.906494e-06	-9.719615e-10	-2.715893e+01	-6.596435e+01
9.300000e-07	-3.873516e-06	-9.548225e-10	-2.692966e+01	-6.562105e+01
9.400000e-07	-3.840062e-06	-9.520554e-10	-2.669707e+01	-6.527485e+01
9.500000e-07	-3.806252e-06	-9.537679e-10	-2.646202e+01	-6.492562e+01
9.600000e-07	-3.771864e-06	-9.444929e-10	-2.622295e+01	-6.457321e+01
9.700000e-07	-3.736955e-06	-9.400417e-10	-2.598025e+01	-6.421751e+01
9.800000e-07	-3.701788e-06	-9.426336e-10	-2.573576e+01	-6.385838e+01
9.900000e-07	-3.666323e-06	-9.378771e-10	-2.548920e+01	-6.349568e+01
1.000000e-06	-3.630642e-06	-9.272307e-10	-2.524114e+01	-6.312928e+01
1.010000e-06	-3.594891e-06	-9.240526e-10	-2.499259e+01	-6.275906e+01
1.020000e-06	-3.559077e-06	-9.155321e-10	-2.474360e+01	-6.238490e+01
1.030000e-06	-3.523138e-06	-9.061253e-10	-2.449374e+01	-6.200666e+01
1.040000e-06	-3.486996e-06	-9.017459e-10	-2.424247e+01	-6.162425e+01
1.050000e-06	-3.450529e-06	-9.006685e-10	-2.398894e+01	-6.123756e+01
1.060000e-06	-3.413719e-06	-8.904467e-10	-2.373303e+01	-6.084647e+01
1.070000e-06	-3.376610e-06	-8.853269e-10	-2.347504e+01	-6.045092e+01
1.080000e-06	-3.339316e-06	-8.815025e-10	-2.321576e+01	-6.005080e+01
1.090000e-06	-3.301881e-06	-8.733937e-10	-2.295550e+01	-5.964604e+01
1.100000e-06	-3.264264e-06	-8.625407e-10	-2.269398e+01	-5.923659e+01
1.110000e-06	-3.226386e-06	-8.584864e-10	-2.243064e+01	-5.882237e+01
1.120000e-06	-3.188288e-06	-8.508723e-10	-2.216578e+01	-5.840334e+01
1.130000e-06	-3.149989e-06	-8.431746e-10	-2.189951e+01	-5.797947e+01
1.140000e-06	-3.111399e-06	-8.375543e-10	-2.163123e+01	-5.755071e+01
1.150000e-06	-3.072584e-06	-8.317352e-10	-2.136137e+01	-5.711705e+01
1.160000e-06	-3.033637e-06	-8.221947e-10	-2.109061e+01	-5.667847e+01
1.170000e-06	-2.994505e-06	-8.151086e-10	-2.081855e+01	-5.623496e+01
1.180000e-06	-2.955121e-06	-8.111666e-10	-2.054475e+01	-5.578651e+01
1.190000e-06	-2.915625e-06	-8.052265e-10	-2.027016e+01	-5.533313e+01
1.200000e-06	-2.876022e-06	-7.983278e-10	-1.999483e+01	-5.487482e+01
1.210000e-06	-2.836231e-06	-7.954171e-10	-1.971819e+01	-5.441158e+01
1.220000e-06	-2.796310e-06	-7.883759e-10	-1.944065e+01	-5.394344e+01
1.230000e-06	-2.756254e-06	-7.793465e-10	-1.916217e+01	-5.347038e+01
1.240000e-06	-2.716044e-06	-7.665623e-10	-1.888262e+01	-5.299243e+01
1.250000e-06	-2.675554e-06	-7.547331e-10	-1.860112e+01	-5.250959e+01
1.260000e-06	-2.634856e-06	-7.464820e-10	-1.831818e+01	-5.202186e+01
1.270000e-06	-2.594052e-06	-7.393736e-10	-1.803450e+01	-5.152922e+01
1.280000e-06	-2.552926e-06	-7.360407e-10	-1.774858e+01	-5.103168e+01
1.290000e-06	-2.511402e-06	-7.340317e-10	-1.745990e+01	-5.052920e+01
1.300000e-06	-2.469637e-06	-7.283422e-10	-1.716954e+01	-5.002174e+01
1.310000e-06	-2.427576e-06	-7.183332e-10	-1.687712e+01	-4.950927e+01
1.320000e-06	-2.385051e-06	-7.054990e-10	-1.658147e+01	-4.899172e+01
1.330000e-06	-2.342327e-06	-6.920749e-10	-1.628445e+01	-4.846902e+01
1.340000e-06	-2.299535e-06	-6.801877e-10	-1.598694e+01	-4.794107e+01
1.350000e-06	-2.256452e-06	-6.690493e-10	-1.568742e+01	-4.740775e+01
1.360000e-06	-2.213106e-06	-6.628433e-10	-1.538607e+01	-4.686894e+01
1.370000e-06	-2.169584e-06	-6.593245e-10	-1.508349e+01	-4.632448e+01
1.380000e-06	-2.125925e-06	-6.589069e-10	-1.477996e+01	-4.577419e+01
1.390000e-06	-2.082222e-06	-6.551037e-10	-1.447613e+01	-4.521788e+01
1.400000e-06	-2.038465e-06	-6.453313e-10	-1.417192e+01	-4.465533e+01
1.410000e-06	-1.994630e-06	-6.310695e-10	-1.386717e+01	-4.408629e+01
1.420000e-06	-1.950728e-06	-6.156862e-10	-1.356195e+01	-4.351049e+01
1.430000e-06	-1.906740e-06	-6.013457e-10	-1.325614e+01	-4.292765e+01
1.440000e-06	-1.862661e-06	-5.937979e-10	-1.294968e+01	-4.233743e+01
1.450000e-06	-1.818476e-06	-5.891232e-10	-1.264250e+01	-4.173951e+01
1.460000e-06	-1.774158e-06	-5.871507e-10	-1.233439e+01	-4.113353e+01
1.470000e-06	-1.729755e-06	-5.809953e-10	-1.202569e+01	-4.051908e+01
1.480000e-06	-1.685226e-06	-5.692045e-10	-1.171611e+01	-3.989578e+01
1.490000e-06	-1.640518e-06	-5.527865e-10	-1.140529e+01	-3.926320e+01
1.500000e-06	-1.595634e-06	-5.396620e-10	-1.109325e+01	-3.862089e+01
1.510000e-06	-1.550603e-06	-5.308639e-10	-1.078018e+01	-3.796840e+01
1.520000e-06	-1.505381e-06	-5.222039e-10	-1.046579e+01	-3.730526e+01
1.530000e-06	-1.460067e-06	-5.134960e-10	-1.015075e+01	-3.663097e+01
1.540000e-06	-1.414782e-06	-5.056151e-10	-9.835918e+00	-3.594505e+01
1.550000e-06	-1.369439e-06	-4.927825e-10	-9.520684e+00	-3.524701e+01
1.560000e-06	-1.323973e-06	-4.781095e-10	-9.204591e+00	-3.453632e+01
1.570000e-06	-1.278356e-06	-4.636826e-10	-8.887451e+00	-3.381250e+01
1.580000e-06	-1.232676e-06	-4.502779e-10	-8.569872e+00	-3.307504e+01
1.590000e-06	-1.186912e-06	-4.389173e-10	-8.251710e+00	-3.232344e+01
1.600000e-06	-1.140991e-06	-4.293928e-10	-7.932454e+00	-3.155721e+01
1.610000e-06	-1.095003e-06	-4.167418e-10	-7.612737e+00	-3.077588e+01
1.620000e-06	-1.048955e-06	-4.011203e-10	-7.292595e+00	-2.997900e+01
1.630000e-06	-1.002889e-06	-3.907238e-10	-6.972336e+00	-2.916611e+01
1.640000e-06	-9.567955e-07	-3.827477e-10	-6.651883e+00	-2.833680e+01
1.650000e-06	-9.105701e-07	-3.728111e-10	-6.330512e+00	-2.749068e+01
1.660000e-06	-8.643539e-07	-3.600497e-10	-6.009206e+00	-2.662738e+01
1.670000e-06	-8.180575e-07	-3.452412e-10	-5.687341e+00	-2.574658e+01
1.680000e-06	-7.716804e-07	-3.255310e-10	-5.364916e+00	-2.484798e+01
1.690000e-06	-7.253492e-07	-3.072626e-10	-5.042810e+00	-2.393133e+01
1.700000e-06	-6.789454e-07	-2.939537e-10	-4.720199e+00	-2.299641e+01
1.710000e-06	-6.324341e-07	-2.837777e-10	-4.396841e+00	-2.204305e+01
1.720000e-06	-5.858347e-07	-2.713469e-10	-4.072870e+00	-2.107114e+01
1.730000e-06	-5.392024e-07	-2.558466e-10	-3.748671e+00	-2.008060e+01
1.740000e-06	-4.926005e-07	-2.369051e-10	-3.424682e+00	-1.907142e+01
1.750000e-06	-4.459700e-07	-2.170159e-10	-3.100496e+00	-1.804362e+01
1.760000e-06	-3.992318e-07	-1.987588e-10	-2.775560e+00	-1.699729e+01
1.770000e-06	-3.524578e-07	-1.842724e-10	-2.450375e+00	-1.593260e+01
1.780000e-06	-3.056400e-07	-1.726564e-10	-2.124886e+00	-1.484973e+01
1.790000e-06	-2.587759e-07	-1.621303e-10	-1.799075e+00	-1.374895e+01
1.800000e-06	-2.119119e-07	-1.491327e-10	-1.473265e+00	-1.263058e+01
1.810000e-06	-1.649924e-07	-1.319829e-10	-1.147069e+00	-1.149500e+01
1.820000e-06	-1.181258e-07	-1.122729e-10	-8.212403e-01	-1.034265e+01
1.830000e-06	-7.129567e-08	-9.509724e-11	-4.956654e-01	-9.174029e+00
1.840000e-06	-2.445160e-08	-8.044947e-11	-1.699936e-01	-7.989682e+00
1.850000e-06	2.230726e-08	-6.606922e-11	1.550857e-01	-6.790222e+00
1.860000e-06	6.912064e-08	-5.223875e-11	4.805440e-01	-5.576310e+00
1.870000e-06	1.159370e-07	-3.880457e-11	8.060233e-01	-4.348661e+00
1.880000e-06	1.627082e-07	-2.409584e-11	1.131188e+00	-3.108038e+00
1.890000e-06	2.094579e-07	-6.366429e-12	1.456204e+00	-1.855254e+00
1.900000e-06	2.561628e-07	1.284112e-11	1.780908e+00	-5.911641e-01
1.910000e-06	3.029419e-07	3.283762e-11	2.106129e+00	6.833337e-01
1.920000e-06	3.497280e-07	5.158154e-11	2.431397e+00	1.967304e+00
1.930000e-06	3.964664e-07	6.969228e-11	2.756334e+00	3.259775e+00
1.940000e-06	4.432174e-07	8.822371e-11	3.081359e+00	4.559745e+00
1.950000e-06	4.898716e-07	1.064541e-10	3.405711e+00	5.866185e+00
1.960000e-06	5.363872e-07	1.240745e-10	3.729099e+00	7.178043e+00
1.970000e-06	5.828797e-07	1.401564e-10	4.052326e+00	8.494247e+00
1.980000e-06	6.293755e-07	1.543258e-10	4.375577e+00	9.813709e+00
1.990000e-06	6.758340e-07	1.705639e-10	4.698568e+00	1.113533e+01
2.000000e-06	7.222192e-07	1.879651e-10	5.021049e+00	1.245801e+01
2.010000e-06	7.685541e-07	2.073294e-10	5.343181e+00	1.378064e+01
2.020000e-06	8.148366e-07	2.299702e-10	5.664949e+00	1.510211e+01
2.030000e-06	8.610704e-07	2.529268e-10	5.986378e+00	1.642133e+01
2.040000e-06	9.071819e-07	2.729039e-10	6.306956e+00	1.773720e+01
2.050000e-06	9.532015e-07	2.893284e-10	6.626896e+00	1.904866e+01
2.060000e-06	9.992363e-07	3.048028e-10	6.946942e+00	2.035464e+01
2.070000e-06	1.045280e-06	3.206545e-10	7.267047e+00	2.165411e+01
2.080000e-06	1.091259e-06	3.373374e-10	7.586703e+00	2.294606e+01
2.090000e-06	1.137111e-06	3.568545e-10	7.905479e+00	2.422952e+01
2.100000e-06	1.182896e-06	3.779331e-10	8.223789e+00	2.550352e+01
2.110000e-06	1.228613e-06	3.982732e-10	8.541628e+00	2.676716e+01
2.120000e-06	1.274272e-06	4.154362e-10	8.859062e+00	2.801957e+01
2.130000e-06	1.319882e-06	4.312388e-10	9.176149e+00	2.925990e+01
2.140000e-06	1.365379e-06	4.481788e-10	9.492460e+00	3.048736e+01
2.150000e-06	1.410777e-06	4.659695e-10	9.808073e+00	3.170120e+01
2.160000e-06	1.456117e-06	4.837007e-10	1.012329e+01	3.290071e+01
2.170000e-06	1.501296e-06	5.008388e-10	1.043739e+01	3.408524e+01
2.180000e-06	1.546251e-06	5.200921e-10	1.074993e+01	3.525418e+01
2.190000e-06	1.591071e-06	5.397474e-10	1.106152e+01	3.640697e+01
2.200000e-06	1.635774e-06	5.558567e-10	1.137231e+01	3.754309e+01
2.210000e-06	1.680445e-06	5.687702e-10	1.168288e+01	3.866207e+01
2.220000e-06	1.725019e-06	5.817567e-10	1.199276e+01	3.976352e+01
2.230000e-06	1.769343e-06	5.974181e-10	1.230092e+01	4.084705e+01
2.240000e-06	1.813471e-06	6.140454e-10	1.260770e+01	4.191236e+01
2.250000e-06	1.857526e-06	6.307013e-10	1.291399e+01	4.295918e+01
2.260000e-06	1.901568e-06	6.454334e-10	1.322018e+01	4.398728e+01
2.270000e-06	1.945552e-06	6.586070e-10	1.352597e+01	4.499649e+01
2.280000e-06	1.989475e-06	6.732280e-10	1.383133e+01	4.598667e+01
2.290000e-06	2.033323e-06	6.868694e-10	1.413617e+01	4.695774e+01
2.300000e-06	2.077105e-06	7.016595e-10	1.444056e+01	4.790963e+01
2.310000e-06	2.120823e-06	7.156284e-10	1.474450e+01	4.884235e+01
2.320000e-06	2.164354e-06	7.298460e-10	1.504713e+01	4.975591e+01
2.330000e-06	2.207717e-06	7.412061e-10	1.534860e+01	5.065037e+01
2.340000e-06	2.251045e-06	7.508769e-10	1.564983e+01	5.152583e+01
2.350000e-06	2.294239e-06	7.641305e-10	1.595012e+01	5.238240e+01
2.360000e-06	2.337174e-06	7.815244e-10	1.624862e+01	5.322023e+01
2.370000e-06	2.379854e-06	7.993093e-10	1.654534e+01	5.403951e+01
2.380000e-06	2.422253e-06	8.127477e-10	1.684011e+01	5.484041e+01
2.390000e-06	2.464273e-06	8.227796e-10	1.713225e+01	5.562318e+01
2.400000e-06	2.506058e-06	8.298629e-10	1.742275e+01	5.638803e+01
2.410000e-06	2.547529e-06	8.351279e-10	1.771106e+01	5.713523e+01
2.420000e-06	2.588599e-06	8.411762e-10	1.799659e+01	5.786504e+01
2.430000e-06	2.629463e-06	8.511181e-10	1.828069e+01	5.857775e+01
2.440000e-06	2.670145e-06	8.654509e-10	1.856352e+01	5.927364e+01
2.450000e-06	2.710616e-06	8.797143e-10	1.884488e+01	5.995302e+01
2.460000e-06	2.750887e-06	8.917897e-10	1.912486e+01	6.061618e+01
2.470000e-06	2.791025e-06	9.029630e-10	1.940390e+01	6.126346e+01
2.480000e-06	2.830950e-06	9.122174e-10	1.968147e+01	6.189516e+01
2.490000e-06	2.870671e-06	9.195142e-10	1.995763e+01	6.251159e+01
2.500000e-06	2.910331e-06	9.259861e-10	2.023335e+01	6.311309e+01
2.510000e-06	2.949853e-06	9.347782e-10	2.050812e+01	6.369997e+01
2.520000e-06	2.989152e-06	9.440284e-10	2.078133e+01	6.427254e+01
2.530000e-06	3.028258e-06	9.535700e-10	2.105321e+01	6.483114e+01
2.540000e-06	3.067131e-06	9.623070e-10	2.132346e+01	6.537608e+01
2.550000e-06	3.105837e-06	9.693858e-10	2.159256e+01	6.590766e+01
2.560000e-06	3.144399e-06	9.769232e-10	2.186065e+01	6.642620e+01
2.570000e-06	3.182658e-06	9.834658e-10	2.212664e+01	6.693201e+01
2.580000e-06	3.220651e-06	9.873586e-10	2.239077e+01	6.742539e+01
2.590000e-06	3.258514e-06	9.911175e-10	2.265401e+01	6.790664e+01
2.600000e-06	3.296051e-06	9.974365e-10	2.291497e+01	6.837605e+01
2.610000e-06	3.333359e-06	1.005566e-09	2.317435e+01	6.883391e+01
2.620000e-06	3.370583e-06	1.012140e-09	2.343314e+01	6.928051e+01
2.630000e-06	3.407503e-06	1.017661e-09	2.368982e+01	6.971613e+01
2.640000e-06	3.444087e-06	1.024010e-09	2.394416e+01	7.014105e+01
2.650000e-06	3.480447e-06	1.031963e-09	2.419694e+01	7.055553e+01
2.660000e-06	3.516641e-06	1.037676e-09	2.444857e+01	7.095987e+01
2.670000e-06	3.552680e-06	1.039122e-09	2.469912e+01	7.135431e+01
2.680000e-06	3.588536e-06	1.040235e-09	2.494841e+01	7.173912e+01
2.690000e-06	3.624207e-06	1.043134e-09	2.519639e+01	7.211457e+01
2.700000e-06	3.659767e-06	1.046772e-09	2.544362e+01	7.248091e+01
2.710000e-06	3.695111e-06	1.051266e-09	2.568934e+01	7.283839e+01
2.720000e-06	3.730151e-06	1.056107e-09	2.593295e+01	7.318727e+01
2.730000e-06	3.764921e-06	1.062190e-09	2.617468e+01	7.352779e+01
2.740000e-06	3.799378e-06	1.069272e-09	2.641423e+01	7.386020e+01
2.750000e-06	3.833451e-06	1.072983e-09	2.665112e+01	7.418474e+01
2.760000e-06	3.867034e-06	1.072465e-09	2.688459e+01	7.450165e+01
2.770000e-06	3.900120e-06	1.070587e-09	2.711461e+01	7.481116e+01
2.780000e-06	3.932762e-06	1.071921e-09	2.734155e+01	7.511352e+01
2.790000e-06	3.965064e-06	1.077539e-09	2.756612e+01	7.540894e+01
2.800000e-06	3.997095e-06	1.086302e-09	2.778881e+01	7.569766e+01
2.810000e-06	4.028968e-06	1.096447e-09	2.801040e+01	7.597988e+01
2.820000e-06	4.060726e-06	1.105508e-09	2.823119e+01	7.625584e+01
2.830000e-06	4.092305e-06	1.110398e-09	2.845073e+01	7.652573e+01
2.840000e-06	4.123679e-06	1.111356e-09	2.866885e+01	7.678976e+01
2.850000e-06	4.154806e-06	1.111613e-09	2.888526e+01	7.704814e+01
2.860000e-06	4.185634e-06	1.114597e-09	2.909958e+01	7.730104e+01
2.870000e-06	4.216062e-06	1.120526e-09	2.931112e+01	7.754866e+01
2.880000e-06	4.246116e-06	1.128019e-09	2.952007e+01	7.779116e+01
2.890000e-06	4.275901e-06	1.136430e-09	2.972714e+01	7.802872e+01
2.900000e-06	4.305422e-06	1.144659e-09	2.993237e+01	7.826150e+01
2.910000e-06	4.334659e-06	1.149848e-09	3.013564e+01	7.848964e+01
