# Temperatura_=_-0.5
# Concentracion g/m^3_=_1620.0
# C_Vs_to_Am_M_A/Vsm_=_65563218390.804596
# pendiente_HvsI_1/m_=_3716.3
# ordenada_HvsI_A/m_=_1297.0
# frecuencia_Hz_=_135095.28349778304

Tiempo_(s)	Campo_(V.s)	Magnetizacion_(V.s)	Campo_(kA/m)	Magnetizacion_(A/m)
0.000000e+00	-5.523228e-06	-1.323542e-09	-3.837817e+01	-8.760013e+01
1.000000e-08	-5.523274e-06	-1.324342e-09	-3.837849e+01	-8.757669e+01
2.000000e-08	-5.523146e-06	-1.325662e-09	-3.837760e+01	-8.755495e+01
3.000000e-08	-5.522682e-06	-1.324311e-09	-3.837438e+01	-8.753495e+01
4.000000e-08	-5.521566e-06	-1.314982e-09	-3.836662e+01	-8.751668e+01
5.000000e-08	-5.519730e-06	-1.299419e-09	-3.835386e+01	-8.750011e+01
6.000000e-08	-5.517306e-06	-1.299745e-09	-3.833702e+01	-8.748517e+01
7.000000e-08	-5.514374e-06	-1.335034e-09	-3.831665e+01	-8.747178e+01
8.000000e-08	-5.510985e-06	-1.375602e-09	-3.829310e+01	-8.745981e+01
9.000000e-08	-5.507121e-06	-1.390803e-09	-3.826625e+01	-8.744910e+01
1.000000e-07	-5.502867e-06	-1.352752e-09	-3.823669e+01	-8.743948e+01
1.100000e-07	-5.498410e-06	-1.295745e-09	-3.820572e+01	-8.743072e+01
1.200000e-07	-5.493779e-06	-1.278129e-09	-3.817354e+01	-8.742258e+01
1.300000e-07	-5.488871e-06	-1.311837e-09	-3.813944e+01	-8.741479e+01
1.400000e-07	-5.483500e-06	-1.328375e-09	-3.810212e+01	-8.740707e+01
1.500000e-07	-5.477714e-06	-1.295486e-09	-3.806191e+01	-8.739908e+01
1.600000e-07	-5.471589e-06	-1.288060e-09	-3.801936e+01	-8.739049e+01
1.700000e-07	-5.465003e-06	-1.351124e-09	-3.797359e+01	-8.738094e+01
1.800000e-07	-5.458030e-06	-1.397169e-09	-3.792514e+01	-8.737006e+01
1.900000e-07	-5.450691e-06	-1.332824e-09	-3.787414e+01	-8.735743e+01
2.000000e-07	-5.443037e-06	-1.278774e-09	-3.782096e+01	-8.734267e+01
2.100000e-07	-5.435164e-06	-1.312925e-09	-3.776626e+01	-8.732536e+01
2.200000e-07	-5.427037e-06	-1.373665e-09	-3.770979e+01	-8.730507e+01
2.300000e-07	-5.418652e-06	-1.354405e-09	-3.765152e+01	-8.728138e+01
2.400000e-07	-5.409711e-06	-1.334195e-09	-3.758940e+01	-8.725385e+01
2.500000e-07	-5.400072e-06	-1.350991e-09	-3.752242e+01	-8.722207e+01
2.600000e-07	-5.389836e-06	-1.356776e-09	-3.745130e+01	-8.718561e+01
2.700000e-07	-5.378924e-06	-1.323485e-09	-3.737547e+01	-8.714404e+01
2.800000e-07	-5.367520e-06	-1.319985e-09	-3.729623e+01	-8.709698e+01
2.900000e-07	-5.355748e-06	-1.344789e-09	-3.721443e+01	-8.704402e+01
3.000000e-07	-5.343621e-06	-1.338880e-09	-3.713017e+01	-8.698478e+01
3.100000e-07	-5.331155e-06	-1.323298e-09	-3.704355e+01	-8.691892e+01
3.200000e-07	-5.318234e-06	-1.331280e-09	-3.695377e+01	-8.684608e+01
3.300000e-07	-5.304914e-06	-1.336715e-09	-3.686121e+01	-8.676595e+01
3.400000e-07	-5.291171e-06	-1.322136e-09	-3.676572e+01	-8.667824e+01
3.500000e-07	-5.277009e-06	-1.324133e-09	-3.666732e+01	-8.658268e+01
3.600000e-07	-5.262503e-06	-1.323903e-09	-3.656652e+01	-8.647903e+01
3.700000e-07	-5.247563e-06	-1.324723e-09	-3.646271e+01	-8.636710e+01
3.800000e-07	-5.231940e-06	-1.333303e-09	-3.635415e+01	-8.624669e+01
3.900000e-07	-5.215796e-06	-1.337147e-09	-3.624198e+01	-8.611766e+01
4.000000e-07	-5.199262e-06	-1.309650e-09	-3.612709e+01	-8.597991e+01
4.100000e-07	-5.182380e-06	-1.309531e-09	-3.600978e+01	-8.583334e+01
4.200000e-07	-5.165221e-06	-1.320357e-09	-3.589055e+01	-8.567792e+01
4.300000e-07	-5.147676e-06	-1.311255e-09	-3.576864e+01	-8.551362e+01
4.400000e-07	-5.129830e-06	-1.314042e-09	-3.564464e+01	-8.534048e+01
4.500000e-07	-5.111604e-06	-1.341707e-09	-3.551800e+01	-8.515854e+01
4.600000e-07	-5.092937e-06	-1.319468e-09	-3.538829e+01	-8.496789e+01
4.700000e-07	-5.073982e-06	-1.291344e-09	-3.525658e+01	-8.476863e+01
4.800000e-07	-5.054687e-06	-1.313765e-09	-3.512251e+01	-8.456092e+01
4.900000e-07	-5.034989e-06	-1.316335e-09	-3.498564e+01	-8.434494e+01
5.000000e-07	-5.015085e-06	-1.277332e-09	-3.484734e+01	-8.412086e+01
5.100000e-07	-4.995071e-06	-1.287544e-09	-3.470827e+01	-8.388894e+01
5.200000e-07	-4.974777e-06	-1.313357e-09	-3.456726e+01	-8.364940e+01
5.300000e-07	-4.954073e-06	-1.291239e-09	-3.442340e+01	-8.340252e+01
5.400000e-07	-4.932944e-06	-1.284085e-09	-3.427658e+01	-8.314858e+01
5.500000e-07	-4.911391e-06	-1.298039e-09	-3.412681e+01	-8.288789e+01
5.600000e-07	-4.889596e-06	-1.265311e-09	-3.397537e+01	-8.262076e+01
5.700000e-07	-4.867532e-06	-1.245278e-09	-3.382207e+01	-8.234753e+01
5.800000e-07	-4.845069e-06	-1.281006e-09	-3.366598e+01	-8.206851e+01
5.900000e-07	-4.822262e-06	-1.278343e-09	-3.350751e+01	-8.178407e+01
6.000000e-07	-4.799034e-06	-1.244810e-09	-3.334611e+01	-8.149454e+01
6.100000e-07	-4.775512e-06	-1.255465e-09	-3.318266e+01	-8.120026e+01
6.200000e-07	-4.751869e-06	-1.258577e-09	-3.301837e+01	-8.090159e+01
6.300000e-07	-4.728009e-06	-1.221492e-09	-3.285258e+01	-8.059885e+01
6.400000e-07	-4.703836e-06	-1.220984e-09	-3.268462e+01	-8.029238e+01
6.500000e-07	-4.679301e-06	-1.237058e-09	-3.251414e+01	-7.998251e+01
6.600000e-07	-4.654313e-06	-1.217772e-09	-3.234051e+01	-7.966954e+01
6.700000e-07	-4.628835e-06	-1.210417e-09	-3.216348e+01	-7.935377e+01
6.800000e-07	-4.602883e-06	-1.229631e-09	-3.198315e+01	-7.903548e+01
6.900000e-07	-4.576361e-06	-1.212115e-09	-3.179886e+01	-7.871493e+01
7.000000e-07	-4.549385e-06	-1.186451e-09	-3.161142e+01	-7.839237e+01
7.100000e-07	-4.522059e-06	-1.189402e-09	-3.142155e+01	-7.806803e+01
7.200000e-07	-4.494455e-06	-1.184566e-09	-3.122974e+01	-7.774209e+01
7.300000e-07	-4.466681e-06	-1.164552e-09	-3.103675e+01	-7.741474e+01
7.400000e-07	-4.438694e-06	-1.171831e-09	-3.084228e+01	-7.708613e+01
7.500000e-07	-4.410439e-06	-1.179630e-09	-3.064595e+01	-7.675639e+01
7.600000e-07	-4.381851e-06	-1.163813e-09	-3.044730e+01	-7.642562e+01
7.700000e-07	-4.352966e-06	-1.154262e-09	-3.024660e+01	-7.609390e+01
7.800000e-07	-4.323863e-06	-1.155569e-09	-3.004437e+01	-7.576129e+01
7.900000e-07	-4.294418e-06	-1.140884e-09	-2.983977e+01	-7.542780e+01
8.000000e-07	-4.264629e-06	-1.125793e-09	-2.963279e+01	-7.509344e+01
8.100000e-07	-4.234650e-06	-1.126130e-09	-2.942448e+01	-7.475819e+01
8.200000e-07	-4.204405e-06	-1.122521e-09	-2.921432e+01	-7.442200e+01
8.300000e-07	-4.173776e-06	-1.113915e-09	-2.900150e+01	-7.408480e+01
8.400000e-07	-4.142826e-06	-1.113764e-09	-2.878644e+01	-7.374650e+01
8.500000e-07	-4.111628e-06	-1.108875e-09	-2.856966e+01	-7.340699e+01
8.600000e-07	-4.080217e-06	-1.095877e-09	-2.835140e+01	-7.306614e+01
8.700000e-07	-4.048599e-06	-1.088215e-09	-2.813170e+01	-7.272380e+01
8.800000e-07	-4.016758e-06	-1.085124e-09	-2.791046e+01	-7.237981e+01
8.900000e-07	-3.984716e-06	-1.076886e-09	-2.768781e+01	-7.203399e+01
9.000000e-07	-3.952443e-06	-1.067726e-09	-2.746357e+01	-7.168616e+01
9.100000e-07	-3.919924e-06	-1.065866e-09	-2.723761e+01	-7.133611e+01
9.200000e-07	-3.887088e-06	-1.058774e-09	-2.700945e+01	-7.098364e+01
9.300000e-07	-3.853700e-06	-1.050178e-09	-2.677745e+01	-7.062853e+01
9.400000e-07	-3.819777e-06	-1.046416e-09	-2.654173e+01	-7.027058e+01
9.500000e-07	-3.785574e-06	-1.041729e-09	-2.630408e+01	-6.990955e+01
9.600000e-07	-3.751015e-06	-1.029038e-09	-2.606394e+01	-6.954524e+01
9.700000e-07	-3.715984e-06	-1.021763e-09	-2.582053e+01	-6.917742e+01
9.800000e-07	-3.680600e-06	-1.018941e-09	-2.557466e+01	-6.880589e+01
9.900000e-07	-3.644989e-06	-1.012547e-09	-2.532722e+01	-6.843043e+01
1.000000e-06	-3.609267e-06	-1.005502e-09	-2.507900e+01	-6.805086e+01
1.010000e-06	-3.573468e-06	-1.002930e-09	-2.483025e+01	-6.766697e+01
1.020000e-06	-3.537529e-06	-9.963127e-10	-2.458054e+01	-6.727858e+01
1.030000e-06	-3.501397e-06	-9.857130e-10	-2.432947e+01	-6.688554e+01
1.040000e-06	-3.465012e-06	-9.799780e-10	-2.407665e+01	-6.648768e+01
1.050000e-06	-3.428275e-06	-9.745566e-10	-2.382138e+01	-6.608486e+01
1.060000e-06	-3.391295e-06	-9.656447e-10	-2.356443e+01	-6.567696e+01
1.070000e-06	-3.354167e-06	-9.608090e-10	-2.330644e+01	-6.526387e+01
1.080000e-06	-3.316818e-06	-9.571523e-10	-2.304692e+01	-6.484548e+01
1.090000e-06	-3.279188e-06	-9.486040e-10	-2.278545e+01	-6.442173e+01
1.100000e-06	-3.241291e-06	-9.380818e-10	-2.252212e+01	-6.399255e+01
1.110000e-06	-3.203170e-06	-9.288026e-10	-2.225724e+01	-6.355789e+01
1.120000e-06	-3.164811e-06	-9.171902e-10	-2.199070e+01	-6.311772e+01
1.130000e-06	-3.126184e-06	-9.044606e-10	-2.172230e+01	-6.267203e+01
1.140000e-06	-3.087298e-06	-8.975615e-10	-2.145210e+01	-6.222082e+01
1.150000e-06	-3.048283e-06	-8.922963e-10	-2.118101e+01	-6.176410e+01
1.160000e-06	-3.009127e-06	-8.861475e-10	-2.090893e+01	-6.130190e+01
1.170000e-06	-2.969743e-06	-8.818923e-10	-2.063527e+01	-6.083426e+01
1.180000e-06	-2.930178e-06	-8.770858e-10	-2.036035e+01	-6.036122e+01
1.190000e-06	-2.890499e-06	-8.667186e-10	-2.008464e+01	-5.988285e+01
1.200000e-06	-2.850726e-06	-8.562937e-10	-1.980828e+01	-5.939920e+01
1.210000e-06	-2.810841e-06	-8.484984e-10	-1.953114e+01	-5.891035e+01
1.220000e-06	-2.770853e-06	-8.400362e-10	-1.925328e+01	-5.841637e+01
1.230000e-06	-2.730730e-06	-8.325842e-10	-1.897448e+01	-5.791733e+01
1.240000e-06	-2.690300e-06	-8.281703e-10	-1.869356e+01	-5.741331e+01
1.250000e-06	-2.649644e-06	-8.229513e-10	-1.841106e+01	-5.690438e+01
1.260000e-06	-2.608843e-06	-8.143721e-10	-1.812756e+01	-5.639061e+01
1.270000e-06	-2.567740e-06	-8.044151e-10	-1.784195e+01	-5.587204e+01
1.280000e-06	-2.526314e-06	-7.965720e-10	-1.755410e+01	-5.534873e+01
1.290000e-06	-2.484624e-06	-7.885158e-10	-1.726442e+01	-5.482072e+01
1.300000e-06	-2.442552e-06	-7.804171e-10	-1.697208e+01	-5.428803e+01
1.310000e-06	-2.400101e-06	-7.701566e-10	-1.667711e+01	-5.375067e+01
1.320000e-06	-2.357485e-06	-7.590361e-10	-1.638099e+01	-5.320862e+01
1.330000e-06	-2.314726e-06	-7.510750e-10	-1.608388e+01	-5.266185e+01
1.340000e-06	-2.271674e-06	-7.452651e-10	-1.578474e+01	-5.211032e+01
1.350000e-06	-2.228378e-06	-7.361085e-10	-1.548389e+01	-5.155393e+01
1.360000e-06	-2.184913e-06	-7.250754e-10	-1.518188e+01	-5.099261e+01
1.370000e-06	-2.141306e-06	-7.178453e-10	-1.487887e+01	-5.042620e+01
1.380000e-06	-2.097638e-06	-7.129890e-10	-1.457545e+01	-4.985456e+01
1.390000e-06	-2.053925e-06	-7.039529e-10	-1.427170e+01	-4.927751e+01
1.400000e-06	-2.010155e-06	-6.923328e-10	-1.396757e+01	-4.869483e+01
1.410000e-06	-1.966259e-06	-6.812201e-10	-1.366256e+01	-4.810627e+01
1.420000e-06	-1.922247e-06	-6.735827e-10	-1.335674e+01	-4.751157e+01
1.430000e-06	-1.878168e-06	-6.661982e-10	-1.305046e+01	-4.691041e+01
1.440000e-06	-1.833967e-06	-6.563198e-10	-1.274333e+01	-4.630246e+01
1.450000e-06	-1.789565e-06	-6.461843e-10	-1.243480e+01	-4.568735e+01
1.460000e-06	-1.745050e-06	-6.330159e-10	-1.212549e+01	-4.506470e+01
1.470000e-06	-1.700533e-06	-6.189980e-10	-1.181616e+01	-4.443408e+01
1.480000e-06	-1.655930e-06	-6.077960e-10	-1.150624e+01	-4.379503e+01
1.490000e-06	-1.611155e-06	-6.002858e-10	-1.119512e+01	-4.314708e+01
1.500000e-06	-1.566126e-06	-5.938424e-10	-1.088223e+01	-4.248974e+01
1.510000e-06	-1.520933e-06	-5.841005e-10	-1.056821e+01	-4.182247e+01
1.520000e-06	-1.475760e-06	-5.712740e-10	-1.025433e+01	-4.114475e+01
1.530000e-06	-1.430499e-06	-5.592426e-10	-9.939825e+00	-4.045600e+01
1.540000e-06	-1.384986e-06	-5.456214e-10	-9.623580e+00	-3.975565e+01
1.550000e-06	-1.339366e-06	-5.328987e-10	-9.306591e+00	-3.904313e+01
1.560000e-06	-1.293786e-06	-5.207554e-10	-8.989873e+00	-3.831783e+01
1.570000e-06	-1.248116e-06	-5.100136e-10	-8.672539e+00	-3.757916e+01
1.580000e-06	-1.202380e-06	-5.016860e-10	-8.354744e+00	-3.682651e+01
1.590000e-06	-1.156619e-06	-4.927805e-10	-8.036769e+00	-3.605928e+01
1.600000e-06	-1.110759e-06	-4.789494e-10	-7.718114e+00	-3.527688e+01
1.610000e-06	-1.064752e-06	-4.631625e-10	-7.398435e+00	-3.447872e+01
1.620000e-06	-1.018623e-06	-4.515924e-10	-7.077903e+00	-3.366424e+01
1.630000e-06	-9.724614e-07	-4.439717e-10	-6.757152e+00	-3.283287e+01
1.640000e-06	-9.262928e-07	-4.348304e-10	-6.436349e+00	-3.198408e+01
1.650000e-06	-8.801321e-07	-4.238264e-10	-6.115601e+00	-3.111737e+01
1.660000e-06	-8.338723e-07	-4.112348e-10	-5.794165e+00	-3.023224e+01
1.670000e-06	-7.874083e-07	-3.948325e-10	-5.471309e+00	-2.932826e+01
1.680000e-06	-7.409105e-07	-3.791743e-10	-5.148219e+00	-2.840502e+01
1.690000e-06	-6.943845e-07	-3.655491e-10	-4.824933e+00	-2.746213e+01
1.700000e-06	-6.478226e-07	-3.524884e-10	-4.501397e+00	-2.649929e+01
1.710000e-06	-6.012754e-07	-3.374031e-10	-4.177964e+00	-2.551620e+01
1.720000e-06	-5.545857e-07	-3.190864e-10	-3.853540e+00	-2.451264e+01
1.730000e-06	-5.078022e-07	-2.982341e-10	-3.528465e+00	-2.348845e+01
1.740000e-06	-4.610932e-07	-2.776366e-10	-3.203908e+00	-2.244349e+01
1.750000e-06	-4.143386e-07	-2.605314e-10	-2.879033e+00	-2.137772e+01
1.760000e-06	-3.674497e-07	-2.456783e-10	-2.553225e+00	-2.029114e+01
1.770000e-06	-3.206150e-07	-2.326519e-10	-2.227794e+00	-1.918382e+01
1.780000e-06	-2.737530e-07	-2.196047e-10	-1.902173e+00	-1.805589e+01
1.790000e-06	-2.268818e-07	-2.039958e-10	-1.576489e+00	-1.690755e+01
1.800000e-06	-1.800647e-07	-1.854026e-10	-1.251180e+00	-1.573908e+01
1.810000e-06	-1.331638e-07	-1.661285e-10	-9.252894e-01	-1.455080e+01
1.820000e-06	-8.624899e-08	-1.496074e-10	-5.993014e-01	-1.334314e+01
1.830000e-06	-3.932421e-08	-1.342216e-10	-2.732444e-01	-1.211656e+01
1.840000e-06	7.635828e-09	-1.188997e-10	5.305757e-02	-1.087161e+01
1.850000e-06	5.455101e-08	-1.040167e-10	3.790479e-01	-9.608902e+00
1.860000e-06	1.013888e-07	-9.000713e-11	7.045006e-01	-8.329116e+00
1.870000e-06	1.483103e-07	-7.342863e-11	1.030535e+00	-7.032997e+00
1.880000e-06	1.952835e-07	-5.428685e-11	1.356928e+00	-5.721353e+00
1.890000e-06	2.422146e-07	-3.453738e-11	1.683029e+00	-4.395052e+00
1.900000e-06	2.891043e-07	-1.333609e-11	2.008842e+00	-3.055022e+00
1.910000e-06	3.358608e-07	7.290940e-12	2.333730e+00	-1.702246e+00
1.920000e-06	3.826321e-07	2.413530e-11	2.658721e+00	-3.377591e-01
1.930000e-06	4.294092e-07	3.948289e-11	2.983751e+00	1.037357e+00
1.940000e-06	4.761391e-07	5.602148e-11	3.308454e+00	2.421973e+00
1.950000e-06	5.228642e-07	7.379662e-11	3.633124e+00	3.814921e+00
1.960000e-06	5.694856e-07	9.332659e-11	3.957073e+00	5.214999e+00
1.970000e-06	6.160191e-07	1.123719e-10	4.280411e+00	6.620970e+00
1.980000e-06	6.623994e-07	1.307573e-10	4.602685e+00	8.031572e+00
1.990000e-06	7.087122e-07	1.509776e-10	4.924489e+00	9.445524e+00
2.000000e-06	7.550937e-07	1.699044e-10	5.246771e+00	1.086153e+01
2.010000e-06	8.014355e-07	1.902768e-10	5.568777e+00	1.227827e+01
2.020000e-06	8.476970e-07	2.133072e-10	5.890226e+00	1.369443e+01
2.030000e-06	8.938986e-07	2.347070e-10	6.211258e+00	1.510871e+01
2.040000e-06	9.400741e-07	2.541967e-10	6.532108e+00	1.651978e+01
2.050000e-06	9.862059e-07	2.718049e-10	6.852655e+00	1.792635e+01
2.060000e-06	1.032246e-06	2.897991e-10	7.172567e+00	1.932714e+01
2.070000e-06	1.078223e-06	3.103419e-10	7.492033e+00	2.072087e+01
2.080000e-06	1.124133e-06	3.322056e-10	7.811042e+00	2.210631e+01
2.090000e-06	1.169963e-06	3.545104e-10	8.129492e+00	2.348226e+01
2.100000e-06	1.215716e-06	3.764978e-10	8.447408e+00	2.484754e+01
2.110000e-06	1.261316e-06	3.954254e-10	8.764259e+00	2.620103e+01
2.120000e-06	1.306796e-06	4.119006e-10	9.080277e+00	2.754163e+01
2.130000e-06	1.352201e-06	4.286815e-10	9.395776e+00	2.886831e+01
2.140000e-06	1.397534e-06	4.470277e-10	9.710770e+00	3.018008e+01
2.150000e-06	1.442853e-06	4.648991e-10	1.002567e+01	3.147602e+01
2.160000e-06	1.488040e-06	4.813562e-10	1.033965e+01	3.275524e+01
2.170000e-06	1.532963e-06	4.987296e-10	1.065180e+01	3.401695e+01
2.180000e-06	1.577866e-06	5.187039e-10	1.096381e+01	3.526038e+01
2.190000e-06	1.622803e-06	5.353289e-10	1.127605e+01	3.648486e+01
2.200000e-06	1.667549e-06	5.497381e-10	1.158697e+01	3.768978e+01
2.210000e-06	1.712048e-06	5.656728e-10	1.189617e+01	3.887458e+01
2.220000e-06	1.756374e-06	5.813054e-10	1.220417e+01	4.003879e+01
2.230000e-06	1.800610e-06	5.960562e-10	1.251154e+01	4.118201e+01
2.240000e-06	1.844729e-06	6.098653e-10	1.281810e+01	4.230388e+01
2.250000e-06	1.888691e-06	6.236347e-10	1.312357e+01	4.340414e+01
2.260000e-06	1.932550e-06	6.362902e-10	1.342833e+01	4.448258e+01
2.270000e-06	1.976413e-06	6.525550e-10	1.373311e+01	4.553907e+01
2.280000e-06	2.020248e-06	6.680706e-10	1.403770e+01	4.657353e+01
2.290000e-06	2.064026e-06	6.825153e-10	1.434189e+01	4.758597e+01
2.300000e-06	2.107750e-06	6.972713e-10	1.464571e+01	4.857642e+01
2.310000e-06	2.151352e-06	7.117928e-10	1.494868e+01	4.954500e+01
2.320000e-06	2.194901e-06	7.241501e-10	1.525127e+01	5.049187e+01
2.330000e-06	2.238333e-06	7.364769e-10	1.555307e+01	5.141725e+01
2.340000e-06	2.281621e-06	7.516923e-10	1.585385e+01	5.232141e+01
2.350000e-06	2.324764e-06	7.686370e-10	1.615363e+01	5.320466e+01
2.360000e-06	2.367566e-06	7.864236e-10	1.645104e+01	5.406736e+01
2.370000e-06	2.410088e-06	7.994373e-10	1.674651e+01	5.490989e+01
2.380000e-06	2.452303e-06	8.101495e-10	1.703983e+01	5.573268e+01
2.390000e-06	2.494123e-06	8.210313e-10	1.733042e+01	5.653619e+01
2.400000e-06	2.535694e-06	8.292926e-10	1.761928e+01	5.732089e+01
2.410000e-06	2.577004e-06	8.368630e-10	1.790632e+01	5.808730e+01
2.420000e-06	2.617945e-06	8.490840e-10	1.819080e+01	5.883592e+01
2.430000e-06	2.658672e-06	8.640690e-10	1.847379e+01	5.956729e+01
2.440000e-06	2.699167e-06	8.771415e-10	1.875517e+01	6.028196e+01
2.450000e-06	2.739322e-06	8.871424e-10	1.903419e+01	6.098047e+01
2.460000e-06	2.779297e-06	8.979081e-10	1.931196e+01	6.166337e+01
2.470000e-06	2.819172e-06	9.084760e-10	1.958902e+01	6.233121e+01
2.480000e-06	2.858988e-06	9.184410e-10	1.986569e+01	6.298452e+01
2.490000e-06	2.898720e-06	9.291306e-10	2.014177e+01	6.362385e+01
2.500000e-06	2.938342e-06	9.386710e-10	2.041708e+01	6.424972e+01
2.510000e-06	2.977823e-06	9.483944e-10	2.069141e+01	6.486262e+01
2.520000e-06	3.017131e-06	9.603395e-10	2.096455e+01	6.546305e+01
2.530000e-06	3.056191e-06	9.711990e-10	2.123595e+01	6.605148e+01
2.540000e-06	3.095042e-06	9.794675e-10	2.150591e+01	6.662836e+01
2.550000e-06	3.133722e-06	9.859924e-10	2.177468e+01	6.719411e+01
2.560000e-06	3.172165e-06	9.932521e-10	2.204180e+01	6.774913e+01
2.570000e-06	3.210376e-06	1.000367e-09	2.230731e+01	6.829379e+01
2.580000e-06	3.248319e-06	1.006432e-09	2.257095e+01	6.882845e+01
2.590000e-06	3.286076e-06	1.012243e-09	2.283331e+01	6.935343e+01
2.600000e-06	3.323620e-06	1.020013e-09	2.309418e+01	6.986901e+01
2.610000e-06	3.360977e-06	1.026954e-09	2.335376e+01	7.037547e+01
2.620000e-06	3.398090e-06	1.032632e-09	2.361164e+01	7.087304e+01
2.630000e-06	3.434885e-06	1.039613e-09	2.386731e+01	7.136194e+01
2.640000e-06	3.471421e-06	1.046957e-09	2.412118e+01	7.184235e+01
2.650000e-06	3.507704e-06	1.054600e-09	2.437329e+01	7.231443e+01
2.660000e-06	3.543827e-06	1.061418e-09	2.462429e+01	7.277832e+01
2.670000e-06	3.579807e-06	1.065431e-09	2.487430e+01	7.323413e+01
2.680000e-06	3.615615e-06	1.070657e-09	2.512311e+01	7.368196e+01
2.690000e-06	3.651284e-06	1.078427e-09	2.537096e+01	7.412189e+01
2.700000e-06	3.686787e-06	1.084225e-09	2.561765e+01	7.455396e+01
2.710000e-06	3.722066e-06	1.087861e-09	2.586279e+01	7.497823e+01
2.720000e-06	3.757005e-06	1.093535e-09	2.610556e+01	7.539473e+01
2.730000e-06	3.791576e-06	1.101304e-09	2.634578e+01	7.580346e+01
2.740000e-06	3.825847e-06	1.106668e-09	2.658391e+01	7.620444e+01
2.750000e-06	3.859612e-06	1.109648e-09	2.681853e+01	7.659767e+01
2.760000e-06	3.892675e-06	1.111510e-09	2.704826e+01	7.698315e+01
2.770000e-06	3.925237e-06	1.113398e-09	2.727452e+01	7.736086e+01
2.780000e-06	3.957457e-06	1.117847e-09	2.749840e+01	7.773080e+01
2.790000e-06	3.989476e-06	1.126512e-09	2.772089e+01	7.809296e+01
2.800000e-06	4.021375e-06	1.134346e-09	2.794254e+01	7.844733e+01
2.810000e-06	4.053114e-06	1.141135e-09	2.816308e+01	7.879391e+01
2.820000e-06	4.084742e-06	1.148189e-09	2.838284e+01	7.913270e+01
2.830000e-06	4.116204e-06	1.154443e-09	2.860146e+01	7.946371e+01
2.840000e-06	4.147340e-06	1.160491e-09	2.881781e+01	7.978696e+01
2.850000e-06	4.178116e-06	1.167918e-09	2.903165e+01	8.010247e+01
2.860000e-06	4.208627e-06	1.174354e-09	2.924366e+01	8.041028e+01
2.870000e-06	4.238871e-06	1.177786e-09	2.945381e+01	8.071043e+01
2.880000e-06	4.268795e-06	1.180785e-09	2.966174e+01	8.100298e+01
2.890000e-06	4.298451e-06	1.186055e-09	2.986780e+01	8.128799e+01
2.900000e-06	4.327887e-06	1.190472e-09	3.007234e+01	8.156555e+01
2.910000e-06	4.356942e-06	1.193308e-09	3.027423e+01	8.183574e+01
