# Temperatura_=_-18.83
# Concentracion g/m^3_=_1620.0
# C_Vs_to_Am_M_A/Vsm_=_65563218390.804596
# pendiente_HvsI_1/m_=_3716.3
# ordenada_HvsI_A/m_=_1297.0
# frecuencia_Hz_=_135108.5622960688

Tiempo_(s)	Campo_(V.s)	Magnetizacion_(V.s)	Campo_(kA/m)	Magnetizacion_(A/m)
0.000000e+00	-5.491492e-06	-6.733866e-10	-3.836198e+01	-4.375179e+01
1.000000e-08	-5.491765e-06	-6.690569e-10	-3.836389e+01	-4.370147e+01
2.000000e-08	-5.491828e-06	-6.686905e-10	-3.836433e+01	-4.365308e+01
3.000000e-08	-5.491593e-06	-6.699463e-10	-3.836269e+01	-4.360677e+01
4.000000e-08	-5.490818e-06	-6.690060e-10	-3.835727e+01	-4.356265e+01
5.000000e-08	-5.489362e-06	-6.583774e-10	-3.834710e+01	-4.352085e+01
6.000000e-08	-5.487347e-06	-6.413350e-10	-3.833303e+01	-4.348147e+01
7.000000e-08	-5.484799e-06	-6.386936e-10	-3.831523e+01	-4.344461e+01
8.000000e-08	-5.481719e-06	-6.745484e-10	-3.829371e+01	-4.341037e+01
9.000000e-08	-5.478178e-06	-7.484746e-10	-3.826898e+01	-4.337881e+01
1.000000e-07	-5.474211e-06	-7.763006e-10	-3.824126e+01	-4.335002e+01
1.100000e-07	-5.469959e-06	-6.870140e-10	-3.821156e+01	-4.332402e+01
1.200000e-07	-5.465514e-06	-5.623860e-10	-3.818051e+01	-4.330086e+01
1.300000e-07	-5.460891e-06	-5.886199e-10	-3.814821e+01	-4.328055e+01
1.400000e-07	-5.455938e-06	-6.752937e-10	-3.811361e+01	-4.326309e+01
1.500000e-07	-5.450537e-06	-6.907652e-10	-3.807589e+01	-4.324846e+01
1.600000e-07	-5.444753e-06	-6.149673e-10	-3.803548e+01	-4.323662e+01
1.700000e-07	-5.438539e-06	-6.411580e-10	-3.799207e+01	-4.322751e+01
1.800000e-07	-5.431847e-06	-7.194000e-10	-3.794532e+01	-4.322105e+01
1.900000e-07	-5.424740e-06	-7.079561e-10	-3.789567e+01	-4.321714e+01
2.000000e-07	-5.417364e-06	-6.031335e-10	-3.784415e+01	-4.321566e+01
2.100000e-07	-5.409786e-06	-5.770264e-10	-3.779121e+01	-4.321648e+01
2.200000e-07	-5.401925e-06	-6.260755e-10	-3.773630e+01	-4.321944e+01
2.300000e-07	-5.393848e-06	-6.410707e-10	-3.767987e+01	-4.322436e+01
2.400000e-07	-5.385435e-06	-5.957160e-10	-3.762110e+01	-4.323106e+01
2.500000e-07	-5.376309e-06	-5.610574e-10	-3.755735e+01	-4.323931e+01
2.600000e-07	-5.366311e-06	-5.783499e-10	-3.748750e+01	-4.324890e+01
2.700000e-07	-5.355694e-06	-5.932000e-10	-3.741334e+01	-4.325958e+01
2.800000e-07	-5.344643e-06	-5.993269e-10	-3.733614e+01	-4.327112e+01
2.900000e-07	-5.333107e-06	-5.859521e-10	-3.725555e+01	-4.328323e+01
3.000000e-07	-5.321220e-06	-5.980401e-10	-3.717251e+01	-4.329567e+01
3.100000e-07	-5.309081e-06	-6.011053e-10	-3.708771e+01	-4.330813e+01
3.200000e-07	-5.296551e-06	-6.012527e-10	-3.700018e+01	-4.332036e+01
3.300000e-07	-5.283516e-06	-5.656334e-10	-3.690912e+01	-4.333205e+01
3.400000e-07	-5.270093e-06	-5.843392e-10	-3.681536e+01	-4.334293e+01
3.500000e-07	-5.256342e-06	-6.115219e-10	-3.671929e+01	-4.335271e+01
3.600000e-07	-5.242125e-06	-6.227461e-10	-3.661998e+01	-4.336111e+01
3.700000e-07	-5.227382e-06	-6.009130e-10	-3.651699e+01	-4.336786e+01
3.800000e-07	-5.212235e-06	-6.218681e-10	-3.641118e+01	-4.337269e+01
3.900000e-07	-5.196501e-06	-6.115842e-10	-3.630126e+01	-4.337535e+01
4.000000e-07	-5.180222e-06	-5.913254e-10	-3.618754e+01	-4.337560e+01
4.100000e-07	-5.163672e-06	-6.093649e-10	-3.607193e+01	-4.337320e+01
4.200000e-07	-5.146807e-06	-6.341682e-10	-3.595411e+01	-4.336794e+01
4.300000e-07	-5.129518e-06	-5.984632e-10	-3.583334e+01	-4.335964e+01
4.400000e-07	-5.111936e-06	-6.010839e-10	-3.571051e+01	-4.334812e+01
4.500000e-07	-5.094089e-06	-6.534129e-10	-3.558584e+01	-4.333322e+01
4.600000e-07	-5.075798e-06	-6.321190e-10	-3.545807e+01	-4.331482e+01
4.700000e-07	-5.057066e-06	-5.885841e-10	-3.532721e+01	-4.329280e+01
4.800000e-07	-5.037948e-06	-6.260953e-10	-3.519366e+01	-4.326708e+01
4.900000e-07	-5.018538e-06	-6.507428e-10	-3.505807e+01	-4.323760e+01
5.000000e-07	-4.998909e-06	-6.011848e-10	-3.492094e+01	-4.320432e+01
5.100000e-07	-4.979091e-06	-6.080384e-10	-3.478250e+01	-4.316724e+01
5.200000e-07	-4.959068e-06	-6.408533e-10	-3.464262e+01	-4.312636e+01
5.300000e-07	-4.938735e-06	-6.148482e-10	-3.450058e+01	-4.308172e+01
5.400000e-07	-4.917986e-06	-6.061337e-10	-3.435564e+01	-4.303338e+01
5.500000e-07	-4.896831e-06	-6.576175e-10	-3.420785e+01	-4.298142e+01
5.600000e-07	-4.875312e-06	-6.391298e-10	-3.405753e+01	-4.292594e+01
5.700000e-07	-4.853540e-06	-6.023259e-10	-3.390544e+01	-4.286707e+01
5.800000e-07	-4.831535e-06	-6.307406e-10	-3.375171e+01	-4.280493e+01
5.900000e-07	-4.809094e-06	-6.464712e-10	-3.359495e+01	-4.273969e+01
6.000000e-07	-4.786191e-06	-6.016033e-10	-3.343495e+01	-4.267151e+01
6.100000e-07	-4.763014e-06	-6.115580e-10	-3.327305e+01	-4.260058e+01
6.200000e-07	-4.739671e-06	-6.391019e-10	-3.310998e+01	-4.252709e+01
6.300000e-07	-4.716152e-06	-6.173470e-10	-3.294568e+01	-4.245122e+01
6.400000e-07	-4.692411e-06	-6.026601e-10	-3.277984e+01	-4.237319e+01
6.500000e-07	-4.668379e-06	-6.306859e-10	-3.261195e+01	-4.229320e+01
6.600000e-07	-4.643926e-06	-6.235773e-10	-3.244113e+01	-4.221146e+01
6.700000e-07	-4.618957e-06	-6.097873e-10	-3.226671e+01	-4.212817e+01
6.800000e-07	-4.593417e-06	-6.278066e-10	-3.208829e+01	-4.204353e+01
6.900000e-07	-4.567243e-06	-6.342783e-10	-3.190544e+01	-4.195772e+01
7.000000e-07	-4.540535e-06	-6.116892e-10	-3.171887e+01	-4.187094e+01
7.100000e-07	-4.513422e-06	-6.139734e-10	-3.152947e+01	-4.178336e+01
7.200000e-07	-4.485999e-06	-6.239985e-10	-3.133790e+01	-4.169513e+01
7.300000e-07	-4.458427e-06	-6.097909e-10	-3.114529e+01	-4.160639e+01
7.400000e-07	-4.430725e-06	-6.003547e-10	-3.095177e+01	-4.151728e+01
7.500000e-07	-4.402869e-06	-6.112062e-10	-3.075718e+01	-4.142789e+01
7.600000e-07	-4.374837e-06	-6.101331e-10	-3.056135e+01	-4.133833e+01
7.700000e-07	-4.346519e-06	-5.982335e-10	-3.036353e+01	-4.124864e+01
7.800000e-07	-4.317794e-06	-6.005527e-10	-3.016287e+01	-4.115890e+01
7.900000e-07	-4.288627e-06	-6.028394e-10	-2.995911e+01	-4.106911e+01
8.000000e-07	-4.259162e-06	-5.982093e-10	-2.975328e+01	-4.097928e+01
8.100000e-07	-4.229487e-06	-5.983287e-10	-2.954598e+01	-4.088938e+01
8.200000e-07	-4.199535e-06	-6.004353e-10	-2.933675e+01	-4.079939e+01
8.300000e-07	-4.169261e-06	-5.896722e-10	-2.912526e+01	-4.070924e+01
8.400000e-07	-4.138701e-06	-5.908499e-10	-2.891177e+01	-4.061884e+01
8.500000e-07	-4.107889e-06	-5.937279e-10	-2.869653e+01	-4.052809e+01
8.600000e-07	-4.076784e-06	-5.876074e-10	-2.847924e+01	-4.043687e+01
8.700000e-07	-4.045414e-06	-5.810982e-10	-2.826010e+01	-4.034504e+01
8.800000e-07	-4.013896e-06	-5.845315e-10	-2.803992e+01	-4.025244e+01
8.900000e-07	-3.982276e-06	-5.808037e-10	-2.781904e+01	-4.015892e+01
9.000000e-07	-3.950496e-06	-5.757413e-10	-2.759703e+01	-4.006430e+01
9.100000e-07	-3.918474e-06	-5.746901e-10	-2.737333e+01	-3.996838e+01
9.200000e-07	-3.886143e-06	-5.728713e-10	-2.714748e+01	-3.987097e+01
9.300000e-07	-3.853339e-06	-5.664609e-10	-2.691832e+01	-3.977186e+01
9.400000e-07	-3.819998e-06	-5.682849e-10	-2.668540e+01	-3.967087e+01
9.500000e-07	-3.786214e-06	-5.688982e-10	-2.644940e+01	-3.956778e+01
9.600000e-07	-3.751918e-06	-5.640777e-10	-2.620982e+01	-3.946240e+01
9.700000e-07	-3.717160e-06	-5.616343e-10	-2.596701e+01	-3.935452e+01
9.800000e-07	-3.682052e-06	-5.654244e-10	-2.572176e+01	-3.924396e+01
9.900000e-07	-3.646730e-06	-5.629785e-10	-2.547500e+01	-3.913054e+01
1.000000e-06	-3.611315e-06	-5.588154e-10	-2.522761e+01	-3.901408e+01
1.010000e-06	-3.575738e-06	-5.577252e-10	-2.497908e+01	-3.889443e+01
1.020000e-06	-3.540043e-06	-5.547807e-10	-2.472973e+01	-3.877145e+01
1.030000e-06	-3.504280e-06	-5.482382e-10	-2.447989e+01	-3.864500e+01
1.040000e-06	-3.468321e-06	-5.467062e-10	-2.422869e+01	-3.851497e+01
1.050000e-06	-3.432061e-06	-5.482206e-10	-2.397539e+01	-3.838129e+01
1.060000e-06	-3.395513e-06	-5.458031e-10	-2.372008e+01	-3.824386e+01
1.070000e-06	-3.358711e-06	-5.444580e-10	-2.346299e+01	-3.810264e+01
1.080000e-06	-3.321658e-06	-5.429070e-10	-2.320415e+01	-3.795759e+01
1.090000e-06	-3.284373e-06	-5.363364e-10	-2.294369e+01	-3.780870e+01
1.100000e-06	-3.246905e-06	-5.278488e-10	-2.268195e+01	-3.765598e+01
1.110000e-06	-3.209258e-06	-5.274774e-10	-2.241895e+01	-3.749944e+01
1.120000e-06	-3.171392e-06	-5.273720e-10	-2.215443e+01	-3.733914e+01
1.130000e-06	-3.133286e-06	-5.264072e-10	-2.188823e+01	-3.717514e+01
1.140000e-06	-3.094902e-06	-5.274719e-10	-2.162009e+01	-3.700750e+01
1.150000e-06	-3.056298e-06	-5.274795e-10	-2.135042e+01	-3.683632e+01
1.160000e-06	-3.017519e-06	-5.198488e-10	-2.107952e+01	-3.666171e+01
1.170000e-06	-2.978579e-06	-5.141464e-10	-2.080750e+01	-3.648377e+01
1.180000e-06	-2.939413e-06	-5.130628e-10	-2.053389e+01	-3.630263e+01
1.190000e-06	-2.900002e-06	-5.125375e-10	-2.025858e+01	-3.611841e+01
1.200000e-06	-2.860461e-06	-5.113420e-10	-1.998236e+01	-3.593124e+01
1.210000e-06	-2.820832e-06	-5.132043e-10	-1.970552e+01	-3.574127e+01
1.220000e-06	-2.781097e-06	-5.116082e-10	-1.942795e+01	-3.554860e+01
1.230000e-06	-2.741265e-06	-5.075285e-10	-1.914969e+01	-3.535337e+01
1.240000e-06	-2.701282e-06	-5.031769e-10	-1.887038e+01	-3.515570e+01
1.250000e-06	-2.661103e-06	-4.989178e-10	-1.858970e+01	-3.495569e+01
1.260000e-06	-2.620807e-06	-4.932831e-10	-1.830820e+01	-3.475342e+01
1.270000e-06	-2.580265e-06	-4.910544e-10	-1.802499e+01	-3.454898e+01
1.280000e-06	-2.539411e-06	-4.913761e-10	-1.773960e+01	-3.434243e+01
1.290000e-06	-2.498279e-06	-4.881875e-10	-1.745226e+01	-3.413380e+01
1.300000e-06	-2.456653e-06	-4.837890e-10	-1.716147e+01	-3.392310e+01
1.310000e-06	-2.414689e-06	-4.828004e-10	-1.686832e+01	-3.371032e+01
1.320000e-06	-2.372610e-06	-4.812657e-10	-1.657437e+01	-3.349543e+01
1.330000e-06	-2.330244e-06	-4.758627e-10	-1.627842e+01	-3.327835e+01
1.340000e-06	-2.287581e-06	-4.717034e-10	-1.598038e+01	-3.305898e+01
1.350000e-06	-2.244684e-06	-4.685174e-10	-1.568072e+01	-3.283720e+01
1.360000e-06	-2.201530e-06	-4.638345e-10	-1.537925e+01	-3.261285e+01
1.370000e-06	-2.158169e-06	-4.617630e-10	-1.507635e+01	-3.238572e+01
1.380000e-06	-2.114697e-06	-4.661069e-10	-1.477267e+01	-3.215560e+01
1.390000e-06	-2.071160e-06	-4.696818e-10	-1.446853e+01	-3.192223e+01
1.400000e-06	-2.027584e-06	-4.686747e-10	-1.416412e+01	-3.168530e+01
1.410000e-06	-1.983900e-06	-4.658931e-10	-1.385896e+01	-3.144452e+01
1.420000e-06	-1.940124e-06	-4.603347e-10	-1.355315e+01	-3.119951e+01
1.430000e-06	-1.896351e-06	-4.520000e-10	-1.324736e+01	-3.094991e+01
1.440000e-06	-1.852539e-06	-4.476941e-10	-1.294130e+01	-3.069530e+01
1.450000e-06	-1.808637e-06	-4.455431e-10	-1.263461e+01	-3.043527e+01
1.460000e-06	-1.764643e-06	-4.425495e-10	-1.232729e+01	-3.016934e+01
1.470000e-06	-1.720537e-06	-4.384145e-10	-1.201918e+01	-2.989707e+01
1.480000e-06	-1.676309e-06	-4.343767e-10	-1.171021e+01	-2.961795e+01
1.490000e-06	-1.631961e-06	-4.271810e-10	-1.140041e+01	-2.933149e+01
1.500000e-06	-1.587443e-06	-4.179744e-10	-1.108942e+01	-2.903718e+01
1.510000e-06	-1.542743e-06	-4.111930e-10	-1.077716e+01	-2.873450e+01
1.520000e-06	-1.497863e-06	-4.068448e-10	-1.046364e+01	-2.842293e+01
1.530000e-06	-1.452797e-06	-4.018888e-10	-1.014883e+01	-2.810196e+01
1.540000e-06	-1.407624e-06	-3.967820e-10	-9.833255e+00	-2.777106e+01
1.550000e-06	-1.362401e-06	-3.892852e-10	-9.517343e+00	-2.742974e+01
1.560000e-06	-1.317121e-06	-3.796919e-10	-9.201030e+00	-2.707750e+01
1.570000e-06	-1.271772e-06	-3.698792e-10	-8.884235e+00	-2.671385e+01
1.580000e-06	-1.226328e-06	-3.623664e-10	-8.566773e+00	-2.633835e+01
1.590000e-06	-1.180763e-06	-3.563341e-10	-8.248470e+00	-2.595054e+01
1.600000e-06	-1.135141e-06	-3.500226e-10	-7.929766e+00	-2.555002e+01
1.610000e-06	-1.089474e-06	-3.434545e-10	-7.610750e+00	-2.513640e+01
1.620000e-06	-1.043730e-06	-3.365530e-10	-7.291197e+00	-2.470934e+01
1.630000e-06	-9.979098e-07	-3.302475e-10	-6.971111e+00	-2.426850e+01
1.640000e-06	-9.520183e-07	-3.243147e-10	-6.650526e+00	-2.381362e+01
1.650000e-06	-9.059979e-07	-3.177463e-10	-6.329041e+00	-2.334444e+01
1.660000e-06	-8.598939e-07	-3.080478e-10	-6.006971e+00	-2.286077e+01
1.670000e-06	-8.137915e-07	-2.976503e-10	-5.684914e+00	-2.236243e+01
1.680000e-06	-7.677380e-07	-2.891891e-10	-5.363197e+00	-2.184933e+01
1.690000e-06	-7.216410e-07	-2.806751e-10	-5.041177e+00	-2.132137e+01
1.700000e-06	-6.754127e-07	-2.714334e-10	-4.718239e+00	-2.077854e+01
1.710000e-06	-6.291227e-07	-2.635203e-10	-4.394871e+00	-2.022084e+01
1.720000e-06	-5.828417e-07	-2.547869e-10	-4.071564e+00	-1.964834e+01
1.730000e-06	-5.365573e-07	-2.445192e-10	-3.748235e+00	-1.906115e+01
1.740000e-06	-4.902079e-07	-2.326262e-10	-3.424451e+00	-1.845940e+01
1.750000e-06	-4.437957e-07	-2.204031e-10	-3.100229e+00	-1.784330e+01
1.760000e-06	-3.973138e-07	-2.100045e-10	-2.775520e+00	-1.721307e+01
1.770000e-06	-3.508032e-07	-2.016142e-10	-2.450610e+00	-1.656898e+01
1.780000e-06	-3.042830e-07	-1.940602e-10	-2.125634e+00	-1.591134e+01
1.790000e-06	-2.577480e-07	-1.875118e-10	-1.800554e+00	-1.524050e+01
1.800000e-06	-2.112168e-07	-1.782989e-10	-1.475500e+00	-1.455684e+01
1.810000e-06	-1.646806e-07	-1.671817e-10	-1.150411e+00	-1.386076e+01
1.820000e-06	-1.180756e-07	-1.576125e-10	-8.248425e-01	-1.315269e+01
1.830000e-06	-7.141291e-08	-1.494375e-10	-4.988701e-01	-1.243311e+01
1.840000e-06	-2.487209e-08	-1.417057e-10	-1.737493e-01	-1.170249e+01
1.850000e-06	2.157305e-08	-1.344821e-10	1.507031e-01	-1.096134e+01
1.860000e-06	6.814955e-08	-1.273690e-10	4.760731e-01	-1.021018e+01
1.870000e-06	1.147910e-07	-1.210068e-10	8.018969e-01	-9.449542e+00
1.880000e-06	1.613975e-07	-1.139893e-10	1.127476e+00	-8.679978e+00
1.890000e-06	2.079899e-07	-1.033053e-10	1.452958e+00	-7.902039e+00
1.900000e-06	2.545333e-07	-8.901435e-11	1.778096e+00	-7.116285e+00
1.910000e-06	3.010718e-07	-7.405561e-11	2.103201e+00	-6.323280e+00
1.920000e-06	3.475995e-07	-6.094496e-11	2.428230e+00	-5.523588e+00
1.930000e-06	3.941099e-07	-5.081846e-11	2.753139e+00	-4.717769e+00
1.940000e-06	4.406102e-07	-4.192041e-11	3.077976e+00	-3.906383e+00
1.950000e-06	4.870316e-07	-3.273193e-11	3.402263e+00	-3.089982e+00
1.960000e-06	5.333708e-07	-2.342313e-11	3.725975e+00	-2.269109e+00
1.970000e-06	5.796663e-07	-1.314764e-11	4.049382e+00	-1.444301e+00
1.980000e-06	6.259190e-07	-2.373275e-12	4.372490e+00	-6.160838e-01
1.990000e-06	6.720889e-07	9.153722e-12	4.695020e+00	2.150294e-01
2.000000e-06	7.182051e-07	2.036086e-11	5.017174e+00	1.048536e+00
2.010000e-06	7.643231e-07	3.244845e-11	5.339341e+00	1.883947e+00
2.020000e-06	8.103478e-07	4.663672e-11	5.660857e+00	2.720787e+00
2.030000e-06	8.562543e-07	6.238873e-11	5.981546e+00	3.558591e+00
2.040000e-06	9.021438e-07	7.677294e-11	6.302117e+00	4.396911e+00
2.050000e-06	9.480846e-07	8.887509e-11	6.623046e+00	5.235307e+00
2.060000e-06	9.939960e-07	9.868622e-11	6.943770e+00	6.073356e+00
2.070000e-06	1.039779e-06	1.078473e-10	7.263595e+00	6.910644e+00
2.080000e-06	1.085479e-06	1.183912e-10	7.582842e+00	7.746767e+00
2.090000e-06	1.131079e-06	1.313936e-10	7.901390e+00	8.581333e+00
2.100000e-06	1.176560e-06	1.476130e-10	8.219112e+00	9.413956e+00
2.110000e-06	1.221940e-06	1.637477e-10	8.536123e+00	1.024426e+01
2.120000e-06	1.267202e-06	1.768560e-10	8.852310e+00	1.107187e+01
2.130000e-06	1.312424e-06	1.890059e-10	9.168215e+00	1.189643e+01
2.140000e-06	1.357611e-06	1.991268e-10	9.483880e+00	1.271757e+01
2.150000e-06	1.402780e-06	2.064518e-10	9.799420e+00	1.353494e+01
2.160000e-06	1.447870e-06	2.152407e-10	1.011441e+01	1.434816e+01
2.170000e-06	1.492711e-06	2.260266e-10	1.042765e+01	1.515690e+01
2.180000e-06	1.537364e-06	2.390530e-10	1.073958e+01	1.596078e+01
2.190000e-06	1.581908e-06	2.545457e-10	1.105075e+01	1.675944e+01
2.200000e-06	1.626355e-06	2.713898e-10	1.136125e+01	1.755253e+01
2.210000e-06	1.670710e-06	2.857508e-10	1.167110e+01	1.833967e+01
2.220000e-06	1.714955e-06	2.951666e-10	1.198018e+01	1.912049e+01
2.230000e-06	1.759047e-06	3.024729e-10	1.228820e+01	1.989461e+01
2.240000e-06	1.803021e-06	3.077646e-10	1.259538e+01	2.066165e+01
2.250000e-06	1.846870e-06	3.134389e-10	1.290170e+01	2.142124e+01
2.260000e-06	1.890598e-06	3.215634e-10	1.320718e+01	2.217296e+01
2.270000e-06	1.934299e-06	3.343818e-10	1.351245e+01	2.291644e+01
2.280000e-06	1.978003e-06	3.506105e-10	1.381776e+01	2.365126e+01
2.290000e-06	2.021690e-06	3.657500e-10	1.412294e+01	2.437704e+01
2.300000e-06	2.065334e-06	3.780254e-10	1.442783e+01	2.509335e+01
2.310000e-06	2.108898e-06	3.851289e-10	1.473216e+01	2.579981e+01
2.320000e-06	2.152296e-06	3.890677e-10	1.503532e+01	2.649600e+01
2.330000e-06	2.195522e-06	3.932376e-10	1.533729e+01	2.718152e+01
2.340000e-06	2.238647e-06	4.002862e-10	1.563854e+01	2.785597e+01
2.350000e-06	2.281640e-06	4.123272e-10	1.593888e+01	2.851896e+01
2.360000e-06	2.324399e-06	4.300219e-10	1.623758e+01	2.917010e+01
2.370000e-06	2.366781e-06	4.458463e-10	1.653365e+01	2.980902e+01
2.380000e-06	2.408774e-06	4.551508e-10	1.682700e+01	3.043535e+01
2.390000e-06	2.450548e-06	4.604873e-10	1.711882e+01	3.104874e+01
2.400000e-06	2.492071e-06	4.628589e-10	1.740889e+01	3.164886e+01
2.410000e-06	2.533117e-06	4.652347e-10	1.769562e+01	3.223538e+01
2.420000e-06	2.573785e-06	4.707770e-10	1.797972e+01	3.280800e+01
2.430000e-06	2.614316e-06	4.806752e-10	1.826286e+01	3.336647e+01
2.440000e-06	2.654619e-06	4.946518e-10	1.854441e+01	3.391051e+01
2.450000e-06	2.694646e-06	5.065210e-10	1.882402e+01	3.443992e+01
2.460000e-06	2.734553e-06	5.123081e-10	1.910280e+01	3.495448e+01
2.470000e-06	2.774366e-06	5.141782e-10	1.938092e+01	3.545404e+01
2.480000e-06	2.814054e-06	5.174854e-10	1.965817e+01	3.593845e+01
2.490000e-06	2.853641e-06	5.219839e-10	1.993472e+01	3.640762e+01
2.500000e-06	2.893105e-06	5.271466e-10	2.021040e+01	3.686147e+01
2.510000e-06	2.932399e-06	5.356689e-10	2.048490e+01	3.729998e+01
2.520000e-06	2.971554e-06	5.443830e-10	2.075842e+01	3.772312e+01
2.530000e-06	3.010553e-06	5.498735e-10	2.103086e+01	3.813096e+01
2.540000e-06	3.049254e-06	5.528124e-10	2.130122e+01	3.852354e+01
2.550000e-06	3.087680e-06	5.552429e-10	2.156964e+01	3.890099e+01
2.560000e-06	3.125899e-06	5.573531e-10	2.183663e+01	3.926344e+01
2.570000e-06	3.163895e-06	5.601476e-10	2.210206e+01	3.961107e+01
2.580000e-06	3.201742e-06	5.635570e-10	2.236645e+01	3.994409e+01
2.590000e-06	3.239456e-06	5.673087e-10	2.262991e+01	4.026274e+01
2.600000e-06	3.277017e-06	5.713090e-10	2.289230e+01	4.056730e+01
2.610000e-06	3.314370e-06	5.745594e-10	2.315323e+01	4.085807e+01
2.620000e-06	3.351452e-06	5.759061e-10	2.341228e+01	4.113538e+01
2.630000e-06	3.388309e-06	5.760912e-10	2.366975e+01	4.139960e+01
2.640000e-06	3.424893e-06	5.780718e-10	2.392532e+01	4.165111e+01
2.650000e-06	3.461111e-06	5.826641e-10	2.417833e+01	4.189031e+01
2.660000e-06	3.497025e-06	5.872968e-10	2.442921e+01	4.211762e+01
2.670000e-06	3.532767e-06	5.942249e-10	2.467889e+01	4.233348e+01
2.680000e-06	3.568435e-06	5.985222e-10	2.492806e+01	4.253835e+01
2.690000e-06	3.604032e-06	6.007338e-10	2.517673e+01	4.273270e+01
2.700000e-06	3.639487e-06	6.022740e-10	2.542441e+01	4.291699e+01
2.710000e-06	3.674753e-06	6.008827e-10	2.567077e+01	4.309170e+01
2.720000e-06	3.709746e-06	6.014071e-10	2.591522e+01	4.325732e+01
2.730000e-06	3.744442e-06	6.033933e-10	2.615760e+01	4.341431e+01
2.740000e-06	3.778829e-06	6.089545e-10	2.639781e+01	4.356317e+01
2.750000e-06	3.812814e-06	6.142748e-10	2.663522e+01	4.370436e+01
2.760000e-06	3.846293e-06	6.140707e-10	2.686910e+01	4.383835e+01
2.770000e-06	3.879166e-06	6.117329e-10	2.709874e+01	4.396558e+01
2.780000e-06	3.911482e-06	6.107057e-10	2.732449e+01	4.408649e+01
2.790000e-06	3.943453e-06	6.114849e-10	2.754783e+01	4.420152e+01
2.800000e-06	3.975285e-06	6.149112e-10	2.777020e+01	4.431105e+01
2.810000e-06	4.007025e-06	6.208417e-10	2.799192e+01	4.441549e+01
2.820000e-06	4.038561e-06	6.257288e-10	2.821222e+01	4.451519e+01
2.830000e-06	4.069922e-06	6.288246e-10	2.843131e+01	4.461051e+01
2.840000e-06	4.101114e-06	6.299028e-10	2.864920e+01	4.470175e+01
2.850000e-06	4.131968e-06	6.298919e-10	2.886474e+01	4.478923e+01
2.860000e-06	4.162505e-06	6.300339e-10	2.907806e+01	4.487321e+01
2.870000e-06	4.192792e-06	6.301174e-10	2.928964e+01	4.495393e+01
2.880000e-06	4.222793e-06	6.334874e-10	2.949922e+01	4.503162e+01
2.890000e-06	4.252482e-06	6.388038e-10	2.970662e+01	4.510648e+01
2.900000e-06	4.281895e-06	6.436320e-10	2.991209e+01	4.517868e+01
