# Temperatura_=_-0.6
# Concentracion g/m^3_=_1620.0
# C_Vs_to_Am_M_A/Vsm_=_65563218390.804596
# pendiente_HvsI_1/m_=_3716.3
# ordenada_HvsI_A/m_=_1297.0
# frecuencia_Hz_=_135096.10791218674

Tiempo_(s)	Campo_(V.s)	Magnetizacion_(V.s)	Campo_(kA/m)	Magnetizacion_(A/m)
0.000000e+00	-5.516343e-06	-1.359129e-09	-3.837684e+01	-8.987734e+01
1.000000e-08	-5.516495e-06	-1.359410e-09	-3.837790e+01	-8.984822e+01
2.000000e-08	-5.516482e-06	-1.361168e-09	-3.837781e+01	-8.982095e+01
3.000000e-08	-5.516113e-06	-1.361795e-09	-3.837524e+01	-8.979552e+01
4.000000e-08	-5.515195e-06	-1.357611e-09	-3.836885e+01	-8.977190e+01
5.000000e-08	-5.513769e-06	-1.342675e-09	-3.835893e+01	-8.975000e+01
6.000000e-08	-5.511769e-06	-1.322480e-09	-3.834502e+01	-8.972973e+01
7.000000e-08	-5.509089e-06	-1.323491e-09	-3.832638e+01	-8.971095e+01
8.000000e-08	-5.505858e-06	-1.376847e-09	-3.830389e+01	-8.969349e+01
9.000000e-08	-5.502241e-06	-1.478499e-09	-3.827873e+01	-8.967717e+01
1.000000e-07	-5.498228e-06	-1.494642e-09	-3.825081e+01	-8.966174e+01
1.100000e-07	-5.493808e-06	-1.358424e-09	-3.822006e+01	-8.964698e+01
1.200000e-07	-5.489234e-06	-1.224637e-09	-3.818824e+01	-8.963260e+01
1.300000e-07	-5.484531e-06	-1.315996e-09	-3.815552e+01	-8.961831e+01
1.400000e-07	-5.479379e-06	-1.432482e-09	-3.811968e+01	-8.960377e+01
1.500000e-07	-5.473715e-06	-1.363855e-09	-3.808028e+01	-8.958867e+01
1.600000e-07	-5.467747e-06	-1.238059e-09	-3.803876e+01	-8.957263e+01
1.700000e-07	-5.461413e-06	-1.319439e-09	-3.799469e+01	-8.955530e+01
1.800000e-07	-5.454549e-06	-1.469794e-09	-3.794694e+01	-8.953628e+01
1.900000e-07	-5.447241e-06	-1.412311e-09	-3.789610e+01	-8.951519e+01
2.000000e-07	-5.439673e-06	-1.283619e-09	-3.784345e+01	-8.949164e+01
2.100000e-07	-5.431899e-06	-1.307069e-09	-3.778937e+01	-8.946521e+01
2.200000e-07	-5.423925e-06	-1.430942e-09	-3.773389e+01	-8.943553e+01
2.300000e-07	-5.415778e-06	-1.419014e-09	-3.767721e+01	-8.940217e+01
2.400000e-07	-5.407268e-06	-1.347923e-09	-3.761801e+01	-8.936477e+01
2.500000e-07	-5.398006e-06	-1.340710e-09	-3.755357e+01	-8.932293e+01
2.600000e-07	-5.387893e-06	-1.395592e-09	-3.748322e+01	-8.927628e+01
2.700000e-07	-5.377185e-06	-1.375723e-09	-3.740872e+01	-8.922447e+01
2.800000e-07	-5.366043e-06	-1.347025e-09	-3.733121e+01	-8.916715e+01
2.900000e-07	-5.354528e-06	-1.368670e-09	-3.725110e+01	-8.910401e+01
3.000000e-07	-5.342706e-06	-1.399238e-09	-3.716885e+01	-8.903474e+01
3.100000e-07	-5.330534e-06	-1.363994e-09	-3.708418e+01	-8.895907e+01
3.200000e-07	-5.317849e-06	-1.331416e-09	-3.699593e+01	-8.887675e+01
3.300000e-07	-5.304621e-06	-1.343097e-09	-3.690390e+01	-8.878755e+01
3.400000e-07	-5.291054e-06	-1.372038e-09	-3.680951e+01	-8.869128e+01
3.500000e-07	-5.277198e-06	-1.359490e-09	-3.671312e+01	-8.858776e+01
3.600000e-07	-5.262786e-06	-1.342985e-09	-3.661286e+01	-8.847687e+01
3.700000e-07	-5.247892e-06	-1.360190e-09	-3.650924e+01	-8.835849e+01
3.800000e-07	-5.232592e-06	-1.365025e-09	-3.640280e+01	-8.823256e+01
3.900000e-07	-5.216711e-06	-1.323854e-09	-3.629232e+01	-8.809902e+01
4.000000e-07	-5.200372e-06	-1.321106e-09	-3.617865e+01	-8.795787e+01
4.100000e-07	-5.183693e-06	-1.367839e-09	-3.606262e+01	-8.780912e+01
4.200000e-07	-5.166703e-06	-1.336295e-09	-3.594441e+01	-8.765283e+01
4.300000e-07	-5.149430e-06	-1.289770e-09	-3.582424e+01	-8.748906e+01
4.400000e-07	-5.131870e-06	-1.346552e-09	-3.570208e+01	-8.731793e+01
4.500000e-07	-5.113894e-06	-1.388138e-09	-3.557702e+01	-8.713957e+01
4.600000e-07	-5.095379e-06	-1.302276e-09	-3.544822e+01	-8.695413e+01
4.700000e-07	-5.076415e-06	-1.290005e-09	-3.531629e+01	-8.676179e+01
4.800000e-07	-5.057160e-06	-1.357987e-09	-3.518234e+01	-8.656276e+01
4.900000e-07	-5.037655e-06	-1.333246e-09	-3.504664e+01	-8.635725e+01
5.000000e-07	-5.017953e-06	-1.272076e-09	-3.490957e+01	-8.614550e+01
5.100000e-07	-4.998128e-06	-1.323744e-09	-3.477165e+01	-8.592775e+01
5.200000e-07	-4.977978e-06	-1.328738e-09	-3.463147e+01	-8.570427e+01
5.300000e-07	-4.957347e-06	-1.276007e-09	-3.448794e+01	-8.547534e+01
5.400000e-07	-4.936362e-06	-1.309309e-09	-3.434195e+01	-8.524121e+01
5.500000e-07	-4.915056e-06	-1.350804e-09	-3.419372e+01	-8.500219e+01
5.600000e-07	-4.893328e-06	-1.272573e-09	-3.404256e+01	-8.475854e+01
5.700000e-07	-4.871362e-06	-1.253722e-09	-3.388975e+01	-8.451055e+01
5.800000e-07	-4.849096e-06	-1.315454e-09	-3.373484e+01	-8.425849e+01
5.900000e-07	-4.826408e-06	-1.291915e-09	-3.357700e+01	-8.400263e+01
6.000000e-07	-4.803384e-06	-1.240809e-09	-3.341683e+01	-8.374324e+01
6.100000e-07	-4.780055e-06	-1.279084e-09	-3.325453e+01	-8.348057e+01
6.200000e-07	-4.756457e-06	-1.287016e-09	-3.309036e+01	-8.321484e+01
6.300000e-07	-4.732618e-06	-1.243562e-09	-3.292452e+01	-8.294629e+01
6.400000e-07	-4.708563e-06	-1.254731e-09	-3.275717e+01	-8.267511e+01
6.500000e-07	-4.684234e-06	-1.275819e-09	-3.258791e+01	-8.240151e+01
6.600000e-07	-4.659531e-06	-1.243783e-09	-3.241606e+01	-8.212563e+01
6.700000e-07	-4.634410e-06	-1.234952e-09	-3.224128e+01	-8.184763e+01
6.800000e-07	-4.608638e-06	-1.258998e-09	-3.206200e+01	-8.156764e+01
6.900000e-07	-4.582170e-06	-1.244954e-09	-3.187786e+01	-8.128575e+01
7.000000e-07	-4.555277e-06	-1.227298e-09	-3.169077e+01	-8.100204e+01
7.100000e-07	-4.528024e-06	-1.236478e-09	-3.150117e+01	-8.071657e+01
7.200000e-07	-4.500452e-06	-1.234719e-09	-3.130935e+01	-8.042938e+01
7.300000e-07	-4.472694e-06	-1.211761e-09	-3.111624e+01	-8.014047e+01
7.400000e-07	-4.444814e-06	-1.208755e-09	-3.092228e+01	-7.984982e+01
7.500000e-07	-4.416791e-06	-1.209305e-09	-3.072733e+01	-7.955741e+01
7.600000e-07	-4.388585e-06	-1.199972e-09	-3.053110e+01	-7.926318e+01
7.700000e-07	-4.360046e-06	-1.189908e-09	-3.033256e+01	-7.896704e+01
7.800000e-07	-4.331055e-06	-1.192309e-09	-3.013087e+01	-7.866890e+01
7.900000e-07	-4.301685e-06	-1.189854e-09	-2.992654e+01	-7.836866e+01
8.000000e-07	-4.272078e-06	-1.185742e-09	-2.972056e+01	-7.806617e+01
8.100000e-07	-4.242282e-06	-1.175343e-09	-2.951328e+01	-7.776130e+01
8.200000e-07	-4.212199e-06	-1.164430e-09	-2.930399e+01	-7.745388e+01
8.300000e-07	-4.181710e-06	-1.155624e-09	-2.909188e+01	-7.714374e+01
8.400000e-07	-4.150890e-06	-1.154729e-09	-2.887747e+01	-7.683072e+01
8.500000e-07	-4.119805e-06	-1.146235e-09	-2.866122e+01	-7.651462e+01
8.600000e-07	-4.088486e-06	-1.139221e-09	-2.844333e+01	-7.619525e+01
8.700000e-07	-4.057003e-06	-1.136692e-09	-2.822430e+01	-7.587241e+01
8.800000e-07	-4.025326e-06	-1.133752e-09	-2.800393e+01	-7.554592e+01
8.900000e-07	-3.993468e-06	-1.125771e-09	-2.778229e+01	-7.521557e+01
9.000000e-07	-3.961471e-06	-1.120146e-09	-2.755969e+01	-7.488117e+01
9.100000e-07	-3.929166e-06	-1.111529e-09	-2.733495e+01	-7.454254e+01
9.200000e-07	-3.896502e-06	-1.097767e-09	-2.710771e+01	-7.419950e+01
9.300000e-07	-3.863411e-06	-1.091601e-09	-2.687749e+01	-7.385185e+01
9.400000e-07	-3.829835e-06	-1.090728e-09	-2.664391e+01	-7.349945e+01
9.500000e-07	-3.795769e-06	-1.084867e-09	-2.640692e+01	-7.314214e+01
9.600000e-07	-3.761195e-06	-1.076508e-09	-2.616639e+01	-7.277976e+01
9.700000e-07	-3.726282e-06	-1.071195e-09	-2.592350e+01	-7.241220e+01
9.800000e-07	-3.691078e-06	-1.060971e-09	-2.567859e+01	-7.203934e+01
9.900000e-07	-3.655595e-06	-1.050389e-09	-2.543174e+01	-7.166106e+01
1.000000e-06	-3.619926e-06	-1.045899e-09	-2.518359e+01	-7.127730e+01
1.010000e-06	-3.584176e-06	-1.044462e-09	-2.493487e+01	-7.088797e+01
1.020000e-06	-3.548326e-06	-1.041389e-09	-2.468547e+01	-7.049302e+01
1.030000e-06	-3.512313e-06	-1.039823e-09	-2.443493e+01	-7.009240e+01
1.040000e-06	-3.476132e-06	-1.036272e-09	-2.418322e+01	-6.968611e+01
1.050000e-06	-3.439643e-06	-1.028447e-09	-2.392937e+01	-6.927412e+01
1.060000e-06	-3.402833e-06	-1.015192e-09	-2.367329e+01	-6.885645e+01
1.070000e-06	-3.365807e-06	-1.005727e-09	-2.341570e+01	-6.843310e+01
1.080000e-06	-3.328468e-06	-9.952004e-10	-2.315593e+01	-6.800413e+01
1.090000e-06	-3.290844e-06	-9.857097e-10	-2.289419e+01	-6.756957e+01
1.100000e-06	-3.253106e-06	-9.796839e-10	-2.263165e+01	-6.712949e+01
1.110000e-06	-3.215219e-06	-9.764644e-10	-2.236807e+01	-6.668393e+01
1.120000e-06	-3.177106e-06	-9.699870e-10	-2.210292e+01	-6.623300e+01
1.130000e-06	-3.138715e-06	-9.635204e-10	-2.183583e+01	-6.577676e+01
1.140000e-06	-3.099978e-06	-9.563173e-10	-2.156635e+01	-6.531530e+01
1.150000e-06	-3.061036e-06	-9.437708e-10	-2.129543e+01	-6.484871e+01
1.160000e-06	-3.021953e-06	-9.291628e-10	-2.102353e+01	-6.437710e+01
1.170000e-06	-2.982650e-06	-9.198341e-10	-2.075010e+01	-6.390054e+01
1.180000e-06	-2.943175e-06	-9.130553e-10	-2.047548e+01	-6.341913e+01
1.190000e-06	-2.903582e-06	-9.076076e-10	-2.020003e+01	-6.293297e+01
1.200000e-06	-2.863906e-06	-9.036424e-10	-1.992401e+01	-6.244212e+01
1.210000e-06	-2.824141e-06	-9.016709e-10	-1.964736e+01	-6.194666e+01
1.220000e-06	-2.784206e-06	-8.961293e-10	-1.936954e+01	-6.144666e+01
1.230000e-06	-2.744016e-06	-8.862780e-10	-1.908994e+01	-6.094218e+01
1.240000e-06	-2.703627e-06	-8.744495e-10	-1.880896e+01	-6.043324e+01
1.250000e-06	-2.663098e-06	-8.611297e-10	-1.852700e+01	-5.991988e+01
1.260000e-06	-2.622418e-06	-8.501550e-10	-1.824399e+01	-5.940211e+01
1.270000e-06	-2.581481e-06	-8.406102e-10	-1.795919e+01	-5.887991e+01
1.280000e-06	-2.540194e-06	-8.347495e-10	-1.767196e+01	-5.835327e+01
1.290000e-06	-2.498666e-06	-8.292079e-10	-1.738306e+01	-5.782212e+01
1.300000e-06	-2.456936e-06	-8.225390e-10	-1.709274e+01	-5.728641e+01
1.310000e-06	-2.414876e-06	-8.140137e-10	-1.680014e+01	-5.674603e+01
1.320000e-06	-2.372403e-06	-8.034148e-10	-1.650465e+01	-5.620088e+01
1.330000e-06	-2.329561e-06	-7.922818e-10	-1.620661e+01	-5.565080e+01
1.340000e-06	-2.286540e-06	-7.838612e-10	-1.590731e+01	-5.509564e+01
1.350000e-06	-2.243392e-06	-7.752832e-10	-1.560713e+01	-5.453521e+01
1.360000e-06	-2.200055e-06	-7.658959e-10	-1.530564e+01	-5.396928e+01
1.370000e-06	-2.156577e-06	-7.580615e-10	-1.500316e+01	-5.339762e+01
1.380000e-06	-2.112975e-06	-7.520200e-10	-1.469983e+01	-5.281995e+01
1.390000e-06	-2.069298e-06	-7.427734e-10	-1.439597e+01	-5.223599e+01
1.400000e-06	-2.025549e-06	-7.316054e-10	-1.409161e+01	-5.164542e+01
1.410000e-06	-1.981721e-06	-7.204471e-10	-1.378671e+01	-5.104789e+01
1.420000e-06	-1.937807e-06	-7.105079e-10	-1.348120e+01	-5.044304e+01
1.430000e-06	-1.893785e-06	-7.017873e-10	-1.317494e+01	-4.983048e+01
1.440000e-06	-1.849714e-06	-6.936983e-10	-1.286834e+01	-4.920979e+01
1.450000e-06	-1.805546e-06	-6.852640e-10	-1.256107e+01	-4.858056e+01
1.460000e-06	-1.761302e-06	-6.741973e-10	-1.225326e+01	-4.794234e+01
1.470000e-06	-1.717008e-06	-6.607696e-10	-1.194511e+01	-4.729464e+01
1.480000e-06	-1.672541e-06	-6.466868e-10	-1.163576e+01	-4.663701e+01
1.490000e-06	-1.627941e-06	-6.326280e-10	-1.132548e+01	-4.596893e+01
1.500000e-06	-1.583152e-06	-6.198036e-10	-1.101388e+01	-4.528990e+01
1.510000e-06	-1.538116e-06	-6.094034e-10	-1.070057e+01	-4.459941e+01
1.520000e-06	-1.492965e-06	-6.023332e-10	-1.038646e+01	-4.389693e+01
1.530000e-06	-1.447734e-06	-5.961216e-10	-1.007179e+01	-4.318193e+01
1.540000e-06	-1.402415e-06	-5.858830e-10	-9.756512e+00	-4.245388e+01
1.550000e-06	-1.357023e-06	-5.712177e-10	-9.440723e+00	-4.171225e+01
1.560000e-06	-1.311513e-06	-5.550597e-10	-9.124113e+00	-4.095650e+01
1.570000e-06	-1.265897e-06	-5.383343e-10	-8.806763e+00	-4.018611e+01
1.580000e-06	-1.220201e-06	-5.253025e-10	-8.488861e+00	-3.940057e+01
1.590000e-06	-1.174412e-06	-5.167962e-10	-8.170305e+00	-3.859936e+01
1.600000e-06	-1.128573e-06	-5.084704e-10	-7.851412e+00	-3.778199e+01
1.610000e-06	-1.082708e-06	-4.977581e-10	-7.532327e+00	-3.694797e+01
1.620000e-06	-1.036775e-06	-4.872004e-10	-7.212776e+00	-3.609685e+01
1.630000e-06	-9.907114e-07	-4.781431e-10	-6.892314e+00	-3.522819e+01
1.640000e-06	-9.445369e-07	-4.657161e-10	-6.571081e+00	-3.434156e+01
1.650000e-06	-8.982607e-07	-4.487532e-10	-6.249141e+00	-3.343658e+01
1.660000e-06	-8.519646e-07	-4.293695e-10	-5.927062e+00	-3.251289e+01
1.670000e-06	-8.057551e-07	-4.107798e-10	-5.605586e+00	-3.157014e+01
1.680000e-06	-7.594845e-07	-3.944494e-10	-5.283684e+00	-3.060806e+01
1.690000e-06	-7.130174e-07	-3.800250e-10	-4.960415e+00	-2.962637e+01
1.700000e-06	-6.665542e-07	-3.666337e-10	-4.637174e+00	-2.862486e+01
1.710000e-06	-6.201083e-07	-3.544915e-10	-4.314053e+00	-2.760334e+01
1.720000e-06	-5.735670e-07	-3.399103e-10	-3.990268e+00	-2.656169e+01
1.730000e-06	-5.269652e-07	-3.210700e-10	-3.666063e+00	-2.549979e+01
1.740000e-06	-4.802653e-07	-2.987808e-10	-3.341174e+00	-2.441762e+01
1.750000e-06	-4.334975e-07	-2.765349e-10	-3.015814e+00	-2.331518e+01
1.760000e-06	-3.867724e-07	-2.578939e-10	-2.690750e+00	-2.219251e+01
1.770000e-06	-3.400235e-07	-2.449851e-10	-2.365522e+00	-2.104972e+01
1.780000e-06	-2.931792e-07	-2.339203e-10	-2.039629e+00	-1.988697e+01
1.790000e-06	-2.463251e-07	-2.199092e-10	-1.713668e+00	-1.870448e+01
1.800000e-06	-1.994899e-07	-2.022928e-10	-1.387838e+00	-1.750250e+01
1.810000e-06	-1.527176e-07	-1.828124e-10	-1.062447e+00	-1.628137e+01
1.820000e-06	-1.059036e-07	-1.645856e-10	-7.367645e-01	-1.504145e+01
1.830000e-06	-5.909209e-08	-1.483253e-10	-4.110998e-01	-1.378317e+01
1.840000e-06	-1.234223e-08	-1.327000e-10	-8.586407e-02	-1.250703e+01
1.850000e-06	3.444697e-08	-1.166666e-10	2.396453e-01	-1.121356e+01
1.860000e-06	8.124572e-08	-1.013981e-10	5.652211e-01	-9.903368e+00
1.870000e-06	1.280244e-07	-8.539540e-11	8.906574e-01	-8.577093e+00
1.880000e-06	1.747869e-07	-6.696931e-11	1.215981e+00	-7.235442e+00
1.890000e-06	2.215986e-07	-4.627010e-11	1.541647e+00	-5.879166e+00
1.900000e-06	2.685016e-07	-2.464998e-11	1.867948e+00	-4.509069e+00
1.910000e-06	3.153320e-07	-4.993960e-12	2.193744e+00	-3.125999e+00
1.920000e-06	3.620074e-07	1.228883e-11	2.518462e+00	-1.730854e+00
1.930000e-06	4.086563e-07	2.766646e-11	2.842995e+00	-3.245705e-01
1.940000e-06	4.552721e-07	4.432692e-11	3.167299e+00	1.091871e+00
1.950000e-06	5.018129e-07	6.381220e-11	3.491079e+00	2.517453e+00
1.960000e-06	5.482769e-07	8.406279e-11	3.814327e+00	3.951123e+00
1.970000e-06	5.947098e-07	1.049136e-10	4.137357e+00	5.391797e+00
1.980000e-06	6.412014e-07	1.272650e-10	4.460796e+00	6.838363e+00
1.990000e-06	6.877165e-07	1.500579e-10	4.784399e+00	8.289682e+00
2.000000e-06	7.340954e-07	1.694092e-10	5.107054e+00	9.744596e+00
2.010000e-06	7.804074e-07	1.878339e-10	5.429243e+00	1.120193e+01
2.020000e-06	8.267066e-07	2.066471e-10	5.751344e+00	1.266049e+01
2.030000e-06	8.729075e-07	2.265563e-10	6.072760e+00	1.411908e+01
2.040000e-06	9.190728e-07	2.454839e-10	6.393930e+00	1.557649e+01
2.050000e-06	9.651324e-07	2.644516e-10	6.714363e+00	1.703152e+01
2.060000e-06	1.011104e-06	2.831382e-10	7.034182e+00	1.848296e+01
2.070000e-06	1.057029e-06	3.044452e-10	7.353685e+00	1.992962e+01
2.080000e-06	1.102830e-06	3.275390e-10	7.672320e+00	2.137031e+01
2.090000e-06	1.148546e-06	3.522105e-10	7.990362e+00	2.280387e+01
2.100000e-06	1.194149e-06	3.769154e-10	8.307618e+00	2.422913e+01
2.110000e-06	1.239617e-06	3.963932e-10	8.623931e+00	2.564498e+01
2.120000e-06	1.285047e-06	4.122858e-10	8.939987e+00	2.705032e+01
2.130000e-06	1.330476e-06	4.285725e-10	9.256034e+00	2.844408e+01
2.140000e-06	1.375873e-06	4.476032e-10	9.571856e+00	2.982522e+01
2.150000e-06	1.421152e-06	4.682888e-10	9.886862e+00	3.119276e+01
2.160000e-06	1.466288e-06	4.909107e-10	1.020087e+01	3.254573e+01
2.170000e-06	1.511386e-06	5.135707e-10	1.051461e+01	3.388324e+01
2.180000e-06	1.556296e-06	5.367594e-10	1.082705e+01	3.520443e+01
2.190000e-06	1.601051e-06	5.551186e-10	1.113841e+01	3.650847e+01
2.200000e-06	1.645717e-06	5.696638e-10	1.144914e+01	3.779462e+01
2.210000e-06	1.690213e-06	5.842638e-10	1.175870e+01	3.906218e+01
2.220000e-06	1.734583e-06	5.985023e-10	1.206738e+01	4.031049e+01
2.230000e-06	1.778832e-06	6.139083e-10	1.237522e+01	4.153898e+01
2.240000e-06	1.823055e-06	6.309106e-10	1.268287e+01	4.274710e+01
2.250000e-06	1.867163e-06	6.487516e-10	1.298973e+01	4.393440e+01
2.260000e-06	1.911092e-06	6.644190e-10	1.329534e+01	4.510046e+01
2.270000e-06	1.954976e-06	6.826032e-10	1.360064e+01	4.624494e+01
2.280000e-06	1.998825e-06	7.028883e-10	1.390570e+01	4.736754e+01
2.290000e-06	2.042584e-06	7.202870e-10	1.421012e+01	4.846804e+01
2.300000e-06	2.086286e-06	7.338169e-10	1.451416e+01	4.954628e+01
2.310000e-06	2.129964e-06	7.454844e-10	1.481802e+01	5.060213e+01
2.320000e-06	2.173592e-06	7.589741e-10	1.512154e+01	5.163555e+01
2.330000e-06	2.217029e-06	7.740037e-10	1.542372e+01	5.264654e+01
2.340000e-06	2.260281e-06	7.914227e-10	1.572463e+01	5.363515e+01
2.350000e-06	2.303438e-06	8.108411e-10	1.602487e+01	5.460149e+01
2.360000e-06	2.346324e-06	8.315652e-10	1.632322e+01	5.554571e+01
2.370000e-06	2.388965e-06	8.468926e-10	1.661988e+01	5.646802e+01
2.380000e-06	2.431299e-06	8.567124e-10	1.691439e+01	5.736866e+01
2.390000e-06	2.473200e-06	8.643442e-10	1.720589e+01	5.824791e+01
2.400000e-06	2.514759e-06	8.749161e-10	1.749501e+01	5.910610e+01
2.410000e-06	2.555951e-06	8.885920e-10	1.778158e+01	5.994358e+01
2.420000e-06	2.596967e-06	9.032325e-10	1.806693e+01	6.076074e+01
2.430000e-06	2.637752e-06	9.183819e-10	1.835067e+01	6.155799e+01
2.440000e-06	2.678191e-06	9.302206e-10	1.863200e+01	6.233577e+01
2.450000e-06	2.718419e-06	9.373660e-10	1.891186e+01	6.309455e+01
2.460000e-06	2.758490e-06	9.447164e-10	1.919063e+01	6.383478e+01
2.470000e-06	2.798464e-06	9.543046e-10	1.946873e+01	6.455697e+01
2.480000e-06	2.838302e-06	9.643795e-10	1.974588e+01	6.526162e+01
2.490000e-06	2.878004e-06	9.751276e-10	2.002209e+01	6.594922e+01
2.500000e-06	2.917596e-06	9.868165e-10	2.029753e+01	6.662029e+01
2.510000e-06	2.957124e-06	9.969766e-10	2.057252e+01	6.727533e+01
2.520000e-06	2.996538e-06	1.005225e-09	2.084672e+01	6.791487e+01
2.530000e-06	3.035712e-06	1.013083e-09	2.111925e+01	6.853938e+01
2.540000e-06	3.074649e-06	1.018659e-09	2.139013e+01	6.914939e+01
2.550000e-06	3.113342e-06	1.025036e-09	2.165931e+01	6.974535e+01
2.560000e-06	3.151687e-06	1.034072e-09	2.192608e+01	7.032776e+01
2.570000e-06	3.189747e-06	1.043939e-09	2.219086e+01	7.089707e+01
2.580000e-06	3.227726e-06	1.052919e-09	2.245508e+01	7.145371e+01
2.590000e-06	3.265575e-06	1.061871e-09	2.271839e+01	7.199812e+01
2.600000e-06	3.303128e-06	1.070384e-09	2.297964e+01	7.253070e+01
2.610000e-06	3.340391e-06	1.076258e-09	2.323889e+01	7.305183e+01
2.620000e-06	3.377462e-06	1.080217e-09	2.349678e+01	7.356189e+01
2.630000e-06	3.414296e-06	1.083827e-09	2.375303e+01	7.406121e+01
2.640000e-06	3.450807e-06	1.089477e-09	2.400704e+01	7.455012e+01
2.650000e-06	3.487064e-06	1.097527e-09	2.425927e+01	7.502893e+01
2.660000e-06	3.523117e-06	1.106135e-09	2.451010e+01	7.549790e+01
2.670000e-06	3.558997e-06	1.115602e-09	2.475971e+01	7.595731e+01
2.680000e-06	3.594782e-06	1.123220e-09	2.500867e+01	7.640738e+01
2.690000e-06	3.630452e-06	1.129632e-09	2.525682e+01	7.684834e+01
2.700000e-06	3.666049e-06	1.134669e-09	2.550446e+01	7.728039e+01
2.710000e-06	3.701472e-06	1.138464e-09	2.575090e+01	7.770371e+01
2.720000e-06	3.736636e-06	1.143204e-09	2.599554e+01	7.811846e+01
2.730000e-06	3.771548e-06	1.148855e-09	2.623841e+01	7.852479e+01
2.740000e-06	3.806100e-06	1.155025e-09	2.647879e+01	7.892285e+01
2.750000e-06	3.840121e-06	1.160410e-09	2.671547e+01	7.931274e+01
2.760000e-06	3.873540e-06	1.164851e-09	2.694797e+01	7.969459e+01
2.770000e-06	3.906448e-06	1.170003e-09	2.717690e+01	8.006848e+01
2.780000e-06	3.938891e-06	1.175802e-09	2.740261e+01	8.043452e+01
2.790000e-06	3.970996e-06	1.182501e-09	2.762596e+01	8.079279e+01
2.800000e-06	4.002914e-06	1.188912e-09	2.784801e+01	8.114337e+01
2.810000e-06	4.034721e-06	1.193965e-09	2.806929e+01	8.148632e+01
2.820000e-06	4.066419e-06	1.198811e-09	2.828981e+01	8.182173e+01
2.830000e-06	4.097934e-06	1.202711e-09	2.850906e+01	8.214966e+01
2.840000e-06	4.129188e-06	1.207309e-09	2.872649e+01	8.247019e+01
2.850000e-06	4.160136e-06	1.214459e-09	2.894179e+01	8.278337e+01
2.860000e-06	4.190838e-06	1.222148e-09	2.915538e+01	8.308929e+01
2.870000e-06	4.221207e-06	1.227763e-09	2.936666e+01	8.338800e+01
2.880000e-06	4.251132e-06	1.231141e-09	2.957485e+01	8.367960e+01
2.890000e-06	4.280760e-06	1.234661e-09	2.978097e+01	8.396416e+01
2.900000e-06	4.310173e-06	1.239386e-09	2.998559e+01	8.424176e+01
