# Temperatura_=_-0.62
# Concentracion g/m^3_=_1620.0
# C_Vs_to_Am_M_A/Vsm_=_65563218390.804596
# pendiente_HvsI_1/m_=_3716.3
# ordenada_HvsI_A/m_=_1297.0
# frecuencia_Hz_=_135098.66859835383

Tiempo_(s)	Campo_(V.s)	Magnetizacion_(V.s)	Campo_(kA/m)	Magnetizacion_(A/m)
0.000000e+00	-5.523708e-06	-1.302999e-09	-3.836975e+01	-8.674639e+01
1.000000e-08	-5.523829e-06	-1.303559e-09	-3.837060e+01	-8.667372e+01
2.000000e-08	-5.523642e-06	-1.305119e-09	-3.836930e+01	-8.660065e+01
3.000000e-08	-5.523055e-06	-1.308201e-09	-3.836522e+01	-8.652717e+01
4.000000e-08	-5.522124e-06	-1.305322e-09	-3.835875e+01	-8.645329e+01
5.000000e-08	-5.520676e-06	-1.291543e-09	-3.834869e+01	-8.637897e+01
6.000000e-08	-5.518491e-06	-1.283819e-09	-3.833351e+01	-8.630419e+01
7.000000e-08	-5.515678e-06	-1.318589e-09	-3.831397e+01	-8.622891e+01
8.000000e-08	-5.512402e-06	-1.358225e-09	-3.829122e+01	-8.615307e+01
9.000000e-08	-5.508675e-06	-1.362721e-09	-3.826533e+01	-8.607663e+01
1.000000e-07	-5.504575e-06	-1.355712e-09	-3.823685e+01	-8.599950e+01
1.100000e-07	-5.500250e-06	-1.329246e-09	-3.820681e+01	-8.592162e+01
1.200000e-07	-5.495605e-06	-1.241426e-09	-3.817454e+01	-8.584290e+01
1.300000e-07	-5.490606e-06	-1.260760e-09	-3.813981e+01	-8.576325e+01
1.400000e-07	-5.485242e-06	-1.300091e-09	-3.810255e+01	-8.568258e+01
1.500000e-07	-5.479495e-06	-1.338557e-09	-3.806263e+01	-8.560078e+01
1.600000e-07	-5.473449e-06	-1.278363e-09	-3.802063e+01	-8.551775e+01
1.700000e-07	-5.467017e-06	-1.262718e-09	-3.797596e+01	-8.543337e+01
1.800000e-07	-5.460112e-06	-1.339242e-09	-3.792799e+01	-8.534751e+01
1.900000e-07	-5.452826e-06	-1.318864e-09	-3.787738e+01	-8.526006e+01
2.000000e-07	-5.445305e-06	-1.267037e-09	-3.782514e+01	-8.517089e+01
2.100000e-07	-5.437498e-06	-1.230624e-09	-3.777090e+01	-8.507986e+01
2.200000e-07	-5.429357e-06	-1.305025e-09	-3.771436e+01	-8.498685e+01
2.300000e-07	-5.420859e-06	-1.298016e-09	-3.765532e+01	-8.489170e+01
2.400000e-07	-5.411906e-06	-1.268865e-09	-3.759314e+01	-8.479428e+01
2.500000e-07	-5.402366e-06	-1.230763e-09	-3.752687e+01	-8.469444e+01
2.600000e-07	-5.392128e-06	-1.269415e-09	-3.745575e+01	-8.459205e+01
2.700000e-07	-5.381234e-06	-1.257715e-09	-3.738008e+01	-8.448696e+01
2.800000e-07	-5.369935e-06	-1.258282e-09	-3.730159e+01	-8.437902e+01
2.900000e-07	-5.358332e-06	-1.247358e-09	-3.722099e+01	-8.426809e+01
3.000000e-07	-5.346315e-06	-1.249404e-09	-3.713751e+01	-8.415402e+01
3.100000e-07	-5.333893e-06	-1.237370e-09	-3.705123e+01	-8.403668e+01
3.200000e-07	-5.321051e-06	-1.245699e-09	-3.696202e+01	-8.391592e+01
3.300000e-07	-5.307825e-06	-1.240266e-09	-3.687015e+01	-8.379161e+01
3.400000e-07	-5.294247e-06	-1.232807e-09	-3.677583e+01	-8.366362e+01
3.500000e-07	-5.280216e-06	-1.260627e-09	-3.667837e+01	-8.353182e+01
3.600000e-07	-5.265736e-06	-1.256437e-09	-3.657778e+01	-8.339608e+01
3.700000e-07	-5.250674e-06	-1.224865e-09	-3.647316e+01	-8.325630e+01
3.800000e-07	-5.235037e-06	-1.232922e-09	-3.636454e+01	-8.311237e+01
3.900000e-07	-5.218930e-06	-1.257078e-09	-3.625265e+01	-8.296418e+01
4.000000e-07	-5.202363e-06	-1.207950e-09	-3.613757e+01	-8.281165e+01
4.100000e-07	-5.185596e-06	-1.212105e-09	-3.602110e+01	-8.265470e+01
4.200000e-07	-5.168543e-06	-1.255443e-09	-3.590265e+01	-8.249324e+01
4.300000e-07	-5.151110e-06	-1.230686e-09	-3.578155e+01	-8.232723e+01
4.400000e-07	-5.133405e-06	-1.179710e-09	-3.565856e+01	-8.215661e+01
4.500000e-07	-5.115312e-06	-1.252357e-09	-3.553288e+01	-8.198136e+01
4.600000e-07	-5.096761e-06	-1.246126e-09	-3.540402e+01	-8.180143e+01
4.700000e-07	-5.077804e-06	-1.175071e-09	-3.527234e+01	-8.161683e+01
4.800000e-07	-5.058490e-06	-1.202706e-09	-3.513817e+01	-8.142756e+01
4.900000e-07	-5.038921e-06	-1.269427e-09	-3.500224e+01	-8.123363e+01
5.000000e-07	-5.019128e-06	-1.185188e-09	-3.486475e+01	-8.103508e+01
5.100000e-07	-4.999087e-06	-1.173461e-09	-3.472554e+01	-8.083195e+01
5.200000e-07	-4.978775e-06	-1.241865e-09	-3.458444e+01	-8.062431e+01
5.300000e-07	-4.958116e-06	-1.210965e-09	-3.444094e+01	-8.041223e+01
5.400000e-07	-4.937098e-06	-1.152720e-09	-3.429494e+01	-8.019579e+01
5.500000e-07	-4.915703e-06	-1.228356e-09	-3.414633e+01	-7.997510e+01
5.600000e-07	-4.893941e-06	-1.223785e-09	-3.399516e+01	-7.975027e+01
5.700000e-07	-4.871877e-06	-1.152262e-09	-3.384189e+01	-7.952143e+01
5.800000e-07	-4.849473e-06	-1.190049e-09	-3.368627e+01	-7.928871e+01
5.900000e-07	-4.826666e-06	-1.229095e-09	-3.352784e+01	-7.905227e+01
6.000000e-07	-4.803498e-06	-1.154095e-09	-3.336690e+01	-7.881227e+01
6.100000e-07	-4.780085e-06	-1.151230e-09	-3.320427e+01	-7.856886e+01
6.200000e-07	-4.756508e-06	-1.198112e-09	-3.304049e+01	-7.832223e+01
6.300000e-07	-4.732727e-06	-1.158206e-09	-3.287530e+01	-7.807255e+01
6.400000e-07	-4.708648e-06	-1.140546e-09	-3.270804e+01	-7.782000e+01
6.500000e-07	-4.684206e-06	-1.187160e-09	-3.253825e+01	-7.756477e+01
6.600000e-07	-4.659318e-06	-1.173618e-09	-3.236538e+01	-7.730705e+01
6.700000e-07	-4.633864e-06	-1.138529e-09	-3.218856e+01	-7.704701e+01
6.800000e-07	-4.607856e-06	-1.169503e-09	-3.200790e+01	-7.678484e+01
6.900000e-07	-4.581333e-06	-1.164106e-09	-3.182366e+01	-7.652072e+01
7.000000e-07	-4.554329e-06	-1.129367e-09	-3.163608e+01	-7.625482e+01
7.100000e-07	-4.526972e-06	-1.137163e-09	-3.144605e+01	-7.598730e+01
7.200000e-07	-4.499392e-06	-1.151988e-09	-3.125447e+01	-7.571831e+01
7.300000e-07	-4.471602e-06	-1.121028e-09	-3.106143e+01	-7.544799e+01
7.400000e-07	-4.443576e-06	-1.119239e-09	-3.086675e+01	-7.517648e+01
7.500000e-07	-4.415360e-06	-1.127144e-09	-3.067075e+01	-7.490387e+01
7.600000e-07	-4.386888e-06	-1.116300e-09	-3.047297e+01	-7.463027e+01
7.700000e-07	-4.358043e-06	-1.101497e-09	-3.027261e+01	-7.435576e+01
7.800000e-07	-4.328894e-06	-1.113396e-09	-3.007013e+01	-7.408038e+01
7.900000e-07	-4.299453e-06	-1.102528e-09	-2.986562e+01	-7.380419e+01
8.000000e-07	-4.269777e-06	-1.088576e-09	-2.965948e+01	-7.352719e+01
8.100000e-07	-4.239847e-06	-1.083712e-09	-2.945157e+01	-7.324938e+01
8.200000e-07	-4.209605e-06	-1.080557e-09	-2.924150e+01	-7.297074e+01
8.300000e-07	-4.179030e-06	-1.064799e-09	-2.902912e+01	-7.269120e+01
8.400000e-07	-4.148164e-06	-1.069907e-09	-2.881471e+01	-7.241071e+01
8.500000e-07	-4.117077e-06	-1.070971e-09	-2.859877e+01	-7.212915e+01
8.600000e-07	-4.085693e-06	-1.059862e-09	-2.838076e+01	-7.184641e+01
8.700000e-07	-4.054060e-06	-1.050116e-09	-2.816103e+01	-7.156235e+01
8.800000e-07	-4.022280e-06	-1.050286e-09	-2.794027e+01	-7.127680e+01
8.900000e-07	-3.990393e-06	-1.039217e-09	-2.771877e+01	-7.098959e+01
9.000000e-07	-3.958306e-06	-1.028186e-09	-2.749588e+01	-7.070050e+01
9.100000e-07	-3.925902e-06	-1.030340e-09	-2.727079e+01	-7.040932e+01
9.200000e-07	-3.893091e-06	-1.027002e-09	-2.704288e+01	-7.011582e+01
9.300000e-07	-3.859769e-06	-1.016041e-09	-2.681141e+01	-6.981973e+01
9.400000e-07	-3.826022e-06	-1.015750e-09	-2.657699e+01	-6.952080e+01
9.500000e-07	-3.791844e-06	-1.016634e-09	-2.633958e+01	-6.921875e+01
9.600000e-07	-3.757174e-06	-1.000949e-09	-2.609874e+01	-6.891330e+01
9.700000e-07	-3.722174e-06	-9.932862e-10	-2.585562e+01	-6.860416e+01
9.800000e-07	-3.686940e-06	-9.916622e-10	-2.561087e+01	-6.829105e+01
9.900000e-07	-3.651450e-06	-9.851329e-10	-2.536434e+01	-6.797366e+01
1.000000e-06	-3.615734e-06	-9.770688e-10	-2.511625e+01	-6.765171e+01
1.010000e-06	-3.579910e-06	-9.812741e-10	-2.486740e+01	-6.732492e+01
1.020000e-06	-3.544003e-06	-9.769730e-10	-2.461798e+01	-6.699300e+01
1.030000e-06	-3.507908e-06	-9.671051e-10	-2.436725e+01	-6.665567e+01
1.040000e-06	-3.471498e-06	-9.611684e-10	-2.411433e+01	-6.631269e+01
1.050000e-06	-3.434753e-06	-9.579315e-10	-2.385909e+01	-6.596381e+01
1.060000e-06	-3.397757e-06	-9.432954e-10	-2.360210e+01	-6.560880e+01
1.070000e-06	-3.360616e-06	-9.362590e-10	-2.334410e+01	-6.524744e+01
1.080000e-06	-3.323288e-06	-9.309371e-10	-2.308481e+01	-6.487954e+01
1.090000e-06	-3.285664e-06	-9.235542e-10	-2.282346e+01	-6.450494e+01
1.100000e-06	-3.247763e-06	-9.141259e-10	-2.256019e+01	-6.412349e+01
1.110000e-06	-3.209614e-06	-9.119185e-10	-2.229518e+01	-6.373505e+01
1.120000e-06	-3.171323e-06	-9.049260e-10	-2.202920e+01	-6.333953e+01
1.130000e-06	-3.132863e-06	-8.955750e-10	-2.176204e+01	-6.293686e+01
1.140000e-06	-3.094053e-06	-8.893190e-10	-2.149246e+01	-6.252699e+01
1.150000e-06	-3.054926e-06	-8.844733e-10	-2.122067e+01	-6.210988e+01
1.160000e-06	-3.015638e-06	-8.760491e-10	-2.094775e+01	-6.168554e+01
1.170000e-06	-2.976262e-06	-8.711076e-10	-2.067424e+01	-6.125400e+01
1.180000e-06	-2.936802e-06	-8.693535e-10	-2.040013e+01	-6.081530e+01
1.190000e-06	-2.897245e-06	-8.643200e-10	-2.012535e+01	-6.036951e+01
1.200000e-06	-2.857558e-06	-8.568787e-10	-1.984968e+01	-5.991672e+01
1.210000e-06	-2.817731e-06	-8.516863e-10	-1.957302e+01	-5.945703e+01
1.220000e-06	-2.777765e-06	-8.452878e-10	-1.929540e+01	-5.899057e+01
1.230000e-06	-2.737558e-06	-8.370028e-10	-1.901611e+01	-5.851748e+01
1.240000e-06	-2.697147e-06	-8.304242e-10	-1.873540e+01	-5.803790e+01
1.250000e-06	-2.656587e-06	-8.230874e-10	-1.845365e+01	-5.755198e+01
1.260000e-06	-2.615792e-06	-8.156757e-10	-1.817027e+01	-5.705989e+01
1.270000e-06	-2.574711e-06	-8.087619e-10	-1.788491e+01	-5.656179e+01
1.280000e-06	-2.533330e-06	-8.057319e-10	-1.759746e+01	-5.605784e+01
1.290000e-06	-2.491663e-06	-7.996692e-10	-1.730803e+01	-5.554818e+01
1.300000e-06	-2.449696e-06	-7.910774e-10	-1.701651e+01	-5.503297e+01
1.310000e-06	-2.407452e-06	-7.818075e-10	-1.672307e+01	-5.451233e+01
1.320000e-06	-2.364899e-06	-7.741666e-10	-1.642748e+01	-5.398638e+01
1.330000e-06	-2.322045e-06	-7.667478e-10	-1.612980e+01	-5.345521e+01
1.340000e-06	-2.278943e-06	-7.606393e-10	-1.583040e+01	-5.291890e+01
1.350000e-06	-2.235660e-06	-7.534762e-10	-1.552974e+01	-5.237749e+01
1.360000e-06	-2.192243e-06	-7.469233e-10	-1.522814e+01	-5.183100e+01
1.370000e-06	-2.148686e-06	-7.381792e-10	-1.492558e+01	-5.127941e+01
1.380000e-06	-2.105032e-06	-7.311119e-10	-1.462234e+01	-5.072266e+01
1.390000e-06	-2.061323e-06	-7.196592e-10	-1.431873e+01	-5.016067e+01
1.400000e-06	-2.017509e-06	-7.065301e-10	-1.401437e+01	-4.959330e+01
1.410000e-06	-1.973592e-06	-6.951544e-10	-1.370931e+01	-4.902039e+01
1.420000e-06	-1.929607e-06	-6.881503e-10	-1.340378e+01	-4.844172e+01
1.430000e-06	-1.885527e-06	-6.825248e-10	-1.309758e+01	-4.785702e+01
1.440000e-06	-1.841380e-06	-6.757149e-10	-1.279092e+01	-4.726600e+01
1.450000e-06	-1.797198e-06	-6.673158e-10	-1.248401e+01	-4.666831e+01
1.460000e-06	-1.752867e-06	-6.568171e-10	-1.217607e+01	-4.606355e+01
1.470000e-06	-1.708308e-06	-6.421811e-10	-1.186655e+01	-4.545129e+01
1.480000e-06	-1.663606e-06	-6.283964e-10	-1.155603e+01	-4.483105e+01
1.490000e-06	-1.618762e-06	-6.188134e-10	-1.124453e+01	-4.420230e+01
1.500000e-06	-1.573726e-06	-6.117260e-10	-1.093169e+01	-4.356450e+01
1.510000e-06	-1.528642e-06	-6.036742e-10	-1.061853e+01	-4.291704e+01
1.520000e-06	-1.483463e-06	-5.934598e-10	-1.030469e+01	-4.225930e+01
1.530000e-06	-1.438138e-06	-5.808126e-10	-9.989850e+00	-4.159062e+01
1.540000e-06	-1.392764e-06	-5.633593e-10	-9.674660e+00	-4.091032e+01
1.550000e-06	-1.347246e-06	-5.471525e-10	-9.358476e+00	-4.021769e+01
1.560000e-06	-1.301598e-06	-5.363328e-10	-9.041392e+00	-3.951201e+01
1.570000e-06	-1.255910e-06	-5.287878e-10	-8.724025e+00	-3.879254e+01
1.580000e-06	-1.210230e-06	-5.202030e-10	-8.406716e+00	-3.805854e+01
1.590000e-06	-1.164531e-06	-5.108387e-10	-8.089268e+00	-3.730927e+01
1.600000e-06	-1.118796e-06	-4.964674e-10	-7.771575e+00	-3.654398e+01
1.610000e-06	-1.072933e-06	-4.781181e-10	-7.452995e+00	-3.576195e+01
1.620000e-06	-1.026863e-06	-4.628385e-10	-7.132976e+00	-3.496245e+01
1.630000e-06	-9.806770e-07	-4.546199e-10	-6.812151e+00	-3.414479e+01
1.640000e-06	-9.344393e-07	-4.477679e-10	-6.490967e+00	-3.330829e+01
1.650000e-06	-8.882049e-07	-4.382106e-10	-6.169805e+00	-3.245232e+01
1.660000e-06	-8.419129e-07	-4.255255e-10	-5.848244e+00	-3.157628e+01
1.670000e-06	-7.954952e-07	-4.072759e-10	-5.525809e+00	-3.067960e+01
1.680000e-06	-7.490564e-07	-3.856317e-10	-5.203227e+00	-2.976178e+01
1.690000e-06	-7.025749e-07	-3.670341e-10	-4.880349e+00	-2.882237e+01
1.700000e-06	-6.560873e-07	-3.534396e-10	-4.557429e+00	-2.786095e+01
1.710000e-06	-6.095313e-07	-3.427723e-10	-4.234033e+00	-2.687721e+01
1.720000e-06	-5.628789e-07	-3.292389e-10	-3.909969e+00	-2.587086e+01
1.730000e-06	-5.162317e-07	-3.120783e-10	-3.585940e+00	-2.484172e+01
1.740000e-06	-4.695623e-07	-2.906992e-10	-3.261756e+00	-2.378965e+01
1.750000e-06	-4.228558e-07	-2.699197e-10	-2.937315e+00	-2.271460e+01
1.760000e-06	-3.760961e-07	-2.516980e-10	-2.612505e+00	-2.161662e+01
1.770000e-06	-3.293000e-07	-2.360949e-10	-2.287442e+00	-2.049580e+01
1.780000e-06	-2.825044e-07	-2.252936e-10	-1.962382e+00	-1.935235e+01
1.790000e-06	-2.357021e-07	-2.165946e-10	-1.637276e+00	-1.818653e+01
1.800000e-06	-1.888618e-07	-2.024730e-10	-1.311905e+00	-1.699871e+01
1.810000e-06	-1.419701e-07	-1.839605e-10	-9.861778e-01	-1.578932e+01
1.820000e-06	-9.509260e-08	-1.656080e-10	-6.605490e-01	-1.455888e+01
1.830000e-06	-4.825370e-08	-1.493379e-10	-3.351883e-01	-1.330800e+01
1.840000e-06	-1.441513e-09	-1.332620e-10	-1.001329e-02	-1.203736e+01
1.850000e-06	4.535148e-08	-1.163210e-10	3.150285e-01	-1.074770e+01
1.860000e-06	9.218192e-08	-1.023797e-10	6.403303e-01	-9.439854e+00
1.870000e-06	1.390714e-07	-8.688999e-11	9.660421e-01	-8.114715e+00
1.880000e-06	1.859536e-07	-6.817172e-11	1.291704e+00	-6.773242e+00
1.890000e-06	2.327623e-07	-4.887877e-11	1.616854e+00	-5.416455e+00
1.900000e-06	2.796076e-07	-2.988636e-11	1.942260e+00	-4.045427e+00
1.910000e-06	3.264787e-07	-9.442437e-12	2.267844e+00	-2.661284e+00
1.920000e-06	3.732236e-07	9.800718e-12	2.592551e+00	-1.265197e+00
1.930000e-06	4.198800e-07	2.693098e-11	2.916644e+00	1.416246e-01
1.940000e-06	4.665160e-07	4.372335e-11	3.240596e+00	1.557937e+00
1.950000e-06	5.131086e-07	6.013438e-11	3.564245e+00	2.982469e+00
1.960000e-06	5.596608e-07	7.707084e-11	3.887615e+00	4.413926e+00
1.970000e-06	6.060960e-07	9.428401e-11	4.210171e+00	5.851001e+00
1.980000e-06	6.524719e-07	1.125639e-10	4.532315e+00	7.292373e+00
1.990000e-06	6.988481e-07	1.330902e-10	4.854462e+00	8.736722e+00
2.000000e-06	7.451591e-07	1.518985e-10	5.176155e+00	1.018273e+01
2.010000e-06	7.914527e-07	1.710115e-10	5.497728e+00	1.162908e+01
2.020000e-06	8.377282e-07	1.917418e-10	5.819175e+00	1.307448e+01
2.030000e-06	8.839598e-07	2.146211e-10	6.140317e+00	1.451765e+01
2.040000e-06	9.301168e-07	2.368433e-10	6.460941e+00	1.595735e+01
2.050000e-06	9.761595e-07	2.565929e-10	6.780771e+00	1.739234e+01
2.060000e-06	1.022139e-06	2.731935e-10	7.100162e+00	1.882143e+01
2.070000e-06	1.068069e-06	2.898245e-10	7.419212e+00	2.024349e+01
2.080000e-06	1.113995e-06	3.100737e-10	7.738231e+00	2.165740e+01
2.090000e-06	1.159897e-06	3.312247e-10	8.057081e+00	2.306210e+01
2.100000e-06	1.205671e-06	3.547126e-10	8.375041e+00	2.445657e+01
2.110000e-06	1.251394e-06	3.758198e-10	8.692655e+00	2.583986e+01
2.120000e-06	1.297040e-06	3.936808e-10	9.009728e+00	2.721107e+01
2.130000e-06	1.342574e-06	4.121843e-10	9.326021e+00	2.856933e+01
2.140000e-06	1.387945e-06	4.308257e-10	9.641188e+00	2.991385e+01
2.150000e-06	1.433141e-06	4.497516e-10	9.955136e+00	3.124391e+01
2.160000e-06	1.478272e-06	4.679904e-10	1.026863e+01	3.255881e+01
2.170000e-06	1.523297e-06	4.848886e-10	1.058140e+01	3.385794e+01
2.180000e-06	1.568213e-06	5.038550e-10	1.089340e+01	3.514073e+01
2.190000e-06	1.613116e-06	5.223924e-10	1.120531e+01	3.640668e+01
2.200000e-06	1.657938e-06	5.409532e-10	1.151666e+01	3.765534e+01
2.210000e-06	1.702525e-06	5.590333e-10	1.182638e+01	3.888630e+01
2.220000e-06	1.746937e-06	5.769754e-10	1.213488e+01	4.009924e+01
2.230000e-06	1.791194e-06	5.957999e-10	1.244231e+01	4.129384e+01
2.240000e-06	1.835322e-06	6.116063e-10	1.274884e+01	4.246987e+01
2.250000e-06	1.879435e-06	6.242541e-10	1.305526e+01	4.362713e+01
2.260000e-06	1.923499e-06	6.353100e-10	1.336135e+01	4.476545e+01
2.270000e-06	1.967447e-06	6.536195e-10	1.366663e+01	4.588472e+01
2.280000e-06	2.011289e-06	6.729678e-10	1.397117e+01	4.698485e+01
2.290000e-06	2.055088e-06	6.909796e-10	1.427541e+01	4.806580e+01
2.300000e-06	2.098874e-06	7.069454e-10	1.457957e+01	4.912754e+01
2.310000e-06	2.142580e-06	7.210503e-10	1.488316e+01	5.017009e+01
2.320000e-06	2.186163e-06	7.345210e-10	1.518591e+01	5.119347e+01
2.330000e-06	2.229662e-06	7.455064e-10	1.548807e+01	5.219776e+01
2.340000e-06	2.272978e-06	7.582754e-10	1.578896e+01	5.318300e+01
2.350000e-06	2.316060e-06	7.746629e-10	1.608823e+01	5.414930e+01
2.360000e-06	2.358901e-06	7.934467e-10	1.638582e+01	5.509676e+01
2.370000e-06	2.401502e-06	8.083911e-10	1.668173e+01	5.602548e+01
2.380000e-06	2.443827e-06	8.202256e-10	1.697574e+01	5.693559e+01
2.390000e-06	2.485691e-06	8.307161e-10	1.726654e+01	5.782720e+01
2.400000e-06	2.527173e-06	8.409778e-10	1.755470e+01	5.870047e+01
2.410000e-06	2.568487e-06	8.500780e-10	1.784167e+01	5.955550e+01
2.420000e-06	2.609535e-06	8.605516e-10	1.812681e+01	6.039245e+01
2.430000e-06	2.650237e-06	8.752699e-10	1.840954e+01	6.121143e+01
2.440000e-06	2.690676e-06	8.890113e-10	1.869045e+01	6.201260e+01
2.450000e-06	2.730889e-06	8.986278e-10	1.896978e+01	6.279607e+01
2.460000e-06	2.770977e-06	9.094895e-10	1.924825e+01	6.356198e+01
2.470000e-06	2.811024e-06	9.217922e-10	1.952643e+01	6.431047e+01
2.480000e-06	2.850960e-06	9.325849e-10	1.980384e+01	6.504165e+01
2.490000e-06	2.890752e-06	9.410357e-10	2.008025e+01	6.575566e+01
2.500000e-06	2.930419e-06	9.484727e-10	2.035579e+01	6.645262e+01
2.510000e-06	2.969902e-06	9.558331e-10	2.063006e+01	6.713266e+01
2.520000e-06	3.009239e-06	9.654184e-10	2.090330e+01	6.779590e+01
2.530000e-06	3.048360e-06	9.771708e-10	2.117506e+01	6.844248e+01
2.540000e-06	3.087178e-06	9.875602e-10	2.144470e+01	6.907253e+01
2.550000e-06	3.125729e-06	9.948614e-10	2.171249e+01	6.968618e+01
2.560000e-06	3.164077e-06	1.001040e-09	2.197887e+01	7.028357e+01
2.570000e-06	3.202278e-06	1.005498e-09	2.224423e+01	7.086486e+01
2.580000e-06	3.240295e-06	1.007925e-09	2.250831e+01	7.143021e+01
2.590000e-06	3.278095e-06	1.011516e-09	2.277088e+01	7.197977e+01
2.600000e-06	3.315686e-06	1.019556e-09	2.303200e+01	7.251373e+01
2.610000e-06	3.353013e-06	1.029558e-09	2.329129e+01	7.303227e+01
2.620000e-06	3.390081e-06	1.037827e-09	2.354878e+01	7.353559e+01
2.630000e-06	3.426907e-06	1.043677e-09	2.380458e+01	7.402391e+01
2.640000e-06	3.463450e-06	1.047739e-09	2.405843e+01	7.449747e+01
2.650000e-06	3.499761e-06	1.050933e-09	2.431065e+01	7.495650e+01
2.660000e-06	3.535856e-06	1.052514e-09	2.456139e+01	7.540126e+01
2.670000e-06	3.571823e-06	1.054326e-09	2.481123e+01	7.583204e+01
2.680000e-06	3.607711e-06	1.060153e-09	2.506051e+01	7.624912e+01
2.690000e-06	3.643411e-06	1.069342e-09	2.530850e+01	7.665282e+01
2.700000e-06	3.678950e-06	1.079045e-09	2.555537e+01	7.704346e+01
2.710000e-06	3.714335e-06	1.087693e-09	2.580117e+01	7.742138e+01
2.720000e-06	3.749381e-06	1.093583e-09	2.604461e+01	7.778694e+01
2.730000e-06	3.784009e-06	1.098350e-09	2.628515e+01	7.814051e+01
2.740000e-06	3.818240e-06	1.101885e-09	2.652293e+01	7.848248e+01
2.750000e-06	3.852010e-06	1.102784e-09	2.675751e+01	7.881324e+01
2.760000e-06	3.885255e-06	1.104016e-09	2.698844e+01	7.913319e+01
2.770000e-06	3.918054e-06	1.110604e-09	2.721628e+01	7.944276e+01
2.780000e-06	3.950507e-06	1.119372e-09	2.744171e+01	7.974237e+01
2.790000e-06	3.982698e-06	1.127482e-09	2.766532e+01	8.003244e+01
2.800000e-06	4.014736e-06	1.134152e-09	2.788787e+01	8.031340e+01
2.810000e-06	4.046661e-06	1.138579e-09	2.810963e+01	8.058570e+01
2.820000e-06	4.078449e-06	1.142161e-09	2.833044e+01	8.084976e+01
2.830000e-06	4.110023e-06	1.145799e-09	2.854976e+01	8.110601e+01
2.840000e-06	4.141287e-06	1.150030e-09	2.876694e+01	8.135487e+01
2.850000e-06	4.172210e-06	1.155825e-09	2.898174e+01	8.159678e+01
2.860000e-06	4.202826e-06	1.161110e-09	2.919441e+01	8.183212e+01
2.870000e-06	4.233122e-06	1.164646e-09	2.940486e+01	8.206130e+01
2.880000e-06	4.263122e-06	1.167982e-09	2.961325e+01	8.228471e+01
2.890000e-06	4.292904e-06	1.173577e-09	2.982013e+01	8.250270e+01
2.900000e-06	4.322383e-06	1.180519e-09	3.002490e+01	8.271563e+01
