# Temperatura_=_-2.9
# Concentracion g/m^3_=_1620.0
# C_Vs_to_Am_M_A/Vsm_=_65563218390.804596
# pendiente_HvsI_1/m_=_3716.3
# ordenada_HvsI_A/m_=_1297.0
# frecuencia_Hz_=_135105.85541247803

Tiempo_(s)	Campo_(V.s)	Magnetizacion_(V.s)	Campo_(kA/m)	Magnetizacion_(A/m)
0.000000e+00	-5.501946e-06	-7.968752e-10	-3.835638e+01	-5.460595e+01
1.000000e-08	-5.502234e-06	-7.934119e-10	-3.835838e+01	-5.458408e+01
2.000000e-08	-5.502318e-06	-7.928599e-10	-3.835897e+01	-5.456279e+01
3.000000e-08	-5.502135e-06	-7.942244e-10	-3.835769e+01	-5.454186e+01
4.000000e-08	-5.501531e-06	-7.916810e-10	-3.835348e+01	-5.452110e+01
5.000000e-08	-5.500408e-06	-7.816106e-10	-3.834565e+01	-5.450028e+01
6.000000e-08	-5.498768e-06	-7.673739e-10	-3.833422e+01	-5.447918e+01
7.000000e-08	-5.496435e-06	-7.717168e-10	-3.831796e+01	-5.445759e+01
8.000000e-08	-5.493406e-06	-8.023955e-10	-3.829684e+01	-5.443528e+01
9.000000e-08	-5.489903e-06	-8.425034e-10	-3.827242e+01	-5.441203e+01
1.000000e-07	-5.486060e-06	-8.825191e-10	-3.824563e+01	-5.438764e+01
1.100000e-07	-5.481824e-06	-8.704159e-10	-3.821610e+01	-5.436188e+01
1.200000e-07	-5.477225e-06	-7.258853e-10	-3.818404e+01	-5.433457e+01
1.300000e-07	-5.472441e-06	-6.948463e-10	-3.815068e+01	-5.430551e+01
1.400000e-07	-5.467394e-06	-7.667318e-10	-3.811550e+01	-5.427453e+01
1.500000e-07	-5.461914e-06	-8.460525e-10	-3.807730e+01	-5.424145e+01
1.600000e-07	-5.456039e-06	-7.683249e-10	-3.803634e+01	-5.420613e+01
1.700000e-07	-5.449789e-06	-7.112183e-10	-3.799276e+01	-5.416844e+01
1.800000e-07	-5.443112e-06	-8.275039e-10	-3.794622e+01	-5.412825e+01
1.900000e-07	-5.436017e-06	-8.612375e-10	-3.789676e+01	-5.408546e+01
2.000000e-07	-5.428642e-06	-7.875905e-10	-3.784534e+01	-5.403999e+01
2.100000e-07	-5.421069e-06	-7.057722e-10	-3.779255e+01	-5.399178e+01
2.200000e-07	-5.413229e-06	-8.131616e-10	-3.773789e+01	-5.394079e+01
2.300000e-07	-5.405055e-06	-8.625758e-10	-3.768091e+01	-5.388698e+01
2.400000e-07	-5.396506e-06	-8.317257e-10	-3.762131e+01	-5.383034e+01
2.500000e-07	-5.387490e-06	-7.687169e-10	-3.755846e+01	-5.377089e+01
2.600000e-07	-5.377817e-06	-8.035965e-10	-3.749102e+01	-5.370866e+01
2.700000e-07	-5.367374e-06	-8.045726e-10	-3.741822e+01	-5.364369e+01
2.800000e-07	-5.356408e-06	-7.929916e-10	-3.734177e+01	-5.357603e+01
2.900000e-07	-5.345032e-06	-7.837366e-10	-3.726246e+01	-5.350577e+01
3.000000e-07	-5.333215e-06	-8.092414e-10	-3.718008e+01	-5.343299e+01
3.100000e-07	-5.321053e-06	-8.046330e-10	-3.709530e+01	-5.335780e+01
3.200000e-07	-5.308525e-06	-7.880412e-10	-3.700796e+01	-5.328029e+01
3.300000e-07	-5.295490e-06	-7.814875e-10	-3.691709e+01	-5.320060e+01
3.400000e-07	-5.282009e-06	-7.801935e-10	-3.682310e+01	-5.311885e+01
3.500000e-07	-5.268238e-06	-8.031021e-10	-3.672710e+01	-5.303517e+01
3.600000e-07	-5.254125e-06	-8.005580e-10	-3.662871e+01	-5.294969e+01
3.700000e-07	-5.239483e-06	-7.888577e-10	-3.652664e+01	-5.286256e+01
3.800000e-07	-5.224336e-06	-8.006610e-10	-3.642104e+01	-5.277391e+01
3.900000e-07	-5.208697e-06	-8.170331e-10	-3.631201e+01	-5.268387e+01
4.000000e-07	-5.192494e-06	-7.624624e-10	-3.619906e+01	-5.259259e+01
4.100000e-07	-5.175912e-06	-7.652351e-10	-3.608346e+01	-5.250018e+01
4.200000e-07	-5.159121e-06	-8.172725e-10	-3.596640e+01	-5.240676e+01
4.300000e-07	-5.142014e-06	-7.979229e-10	-3.584714e+01	-5.231246e+01
4.400000e-07	-5.124450e-06	-7.372442e-10	-3.572469e+01	-5.221736e+01
4.500000e-07	-5.106612e-06	-8.171810e-10	-3.560034e+01	-5.212156e+01
4.600000e-07	-5.088438e-06	-8.358991e-10	-3.547364e+01	-5.202513e+01
4.700000e-07	-5.069747e-06	-7.407839e-10	-3.534334e+01	-5.192816e+01
4.800000e-07	-5.050640e-06	-7.441560e-10	-3.521013e+01	-5.183068e+01
4.900000e-07	-5.031255e-06	-8.512925e-10	-3.507499e+01	-5.173273e+01
5.000000e-07	-5.011644e-06	-7.893133e-10	-3.493828e+01	-5.163434e+01
5.100000e-07	-4.991806e-06	-7.416436e-10	-3.479997e+01	-5.153552e+01
5.200000e-07	-4.971739e-06	-8.153738e-10	-3.466008e+01	-5.143626e+01
5.300000e-07	-4.951328e-06	-8.111392e-10	-3.451779e+01	-5.133653e+01
5.400000e-07	-4.930505e-06	-7.252535e-10	-3.437262e+01	-5.123631e+01
5.500000e-07	-4.909331e-06	-7.892561e-10	-3.422501e+01	-5.113553e+01
5.600000e-07	-4.887810e-06	-8.181829e-10	-3.407497e+01	-5.103414e+01
5.700000e-07	-4.865966e-06	-7.362899e-10	-3.392269e+01	-5.093205e+01
5.800000e-07	-4.843831e-06	-7.560594e-10	-3.376838e+01	-5.082918e+01
5.900000e-07	-4.821399e-06	-8.326136e-10	-3.361199e+01	-5.072542e+01
6.000000e-07	-4.798613e-06	-7.672681e-10	-3.345315e+01	-5.062067e+01
6.100000e-07	-4.775453e-06	-7.294678e-10	-3.329169e+01	-5.051480e+01
6.200000e-07	-4.752016e-06	-7.831028e-10	-3.312830e+01	-5.040770e+01
6.300000e-07	-4.728336e-06	-7.578285e-10	-3.296322e+01	-5.029922e+01
6.400000e-07	-4.704451e-06	-7.196591e-10	-3.279671e+01	-5.018922e+01
6.500000e-07	-4.680288e-06	-7.704359e-10	-3.262825e+01	-5.007758e+01
6.600000e-07	-4.655703e-06	-7.840324e-10	-3.245686e+01	-4.996415e+01
6.700000e-07	-4.630656e-06	-7.464544e-10	-3.228225e+01	-4.984878e+01
6.800000e-07	-4.605212e-06	-7.725691e-10	-3.210486e+01	-4.973134e+01
6.900000e-07	-4.579320e-06	-7.785511e-10	-3.192436e+01	-4.961169e+01
7.000000e-07	-4.552804e-06	-7.375358e-10	-3.173951e+01	-4.948969e+01
7.100000e-07	-4.525761e-06	-7.315018e-10	-3.155098e+01	-4.936522e+01
7.200000e-07	-4.498396e-06	-7.534799e-10	-3.136021e+01	-4.923817e+01
7.300000e-07	-4.470767e-06	-7.330839e-10	-3.116760e+01	-4.910841e+01
7.400000e-07	-4.442986e-06	-7.372823e-10	-3.097392e+01	-4.897584e+01
7.500000e-07	-4.415071e-06	-7.518360e-10	-3.077931e+01	-4.884036e+01
7.600000e-07	-4.386907e-06	-7.430954e-10	-3.058297e+01	-4.870190e+01
7.700000e-07	-4.358451e-06	-7.284106e-10	-3.038459e+01	-4.856038e+01
7.800000e-07	-4.329604e-06	-7.351504e-10	-3.018349e+01	-4.841574e+01
7.900000e-07	-4.300377e-06	-7.182141e-10	-2.997974e+01	-4.826793e+01
8.000000e-07	-4.270896e-06	-7.094865e-10	-2.977421e+01	-4.811691e+01
8.100000e-07	-4.241160e-06	-7.161468e-10	-2.956691e+01	-4.796266e+01
8.200000e-07	-4.211191e-06	-7.163200e-10	-2.935798e+01	-4.780516e+01
8.300000e-07	-4.180899e-06	-7.041849e-10	-2.914680e+01	-4.764440e+01
8.400000e-07	-4.150205e-06	-7.146890e-10	-2.893282e+01	-4.748040e+01
8.500000e-07	-4.119274e-06	-7.138167e-10	-2.871719e+01	-4.731318e+01
8.600000e-07	-4.088113e-06	-6.953095e-10	-2.849995e+01	-4.714277e+01
8.700000e-07	-4.056733e-06	-6.855268e-10	-2.828119e+01	-4.696919e+01
8.800000e-07	-4.025232e-06	-6.901483e-10	-2.806158e+01	-4.679251e+01
8.900000e-07	-3.993570e-06	-6.835952e-10	-2.784085e+01	-4.661276e+01
9.000000e-07	-3.961696e-06	-6.800469e-10	-2.761865e+01	-4.643003e+01
9.100000e-07	-3.929587e-06	-6.871701e-10	-2.739480e+01	-4.624435e+01
9.200000e-07	-3.897198e-06	-6.842688e-10	-2.716900e+01	-4.605582e+01
9.300000e-07	-3.864496e-06	-6.747988e-10	-2.694103e+01	-4.586450e+01
9.400000e-07	-3.831350e-06	-6.755127e-10	-2.670995e+01	-4.567045e+01
9.500000e-07	-3.797666e-06	-6.756106e-10	-2.647512e+01	-4.547377e+01
9.600000e-07	-3.763540e-06	-6.624883e-10	-2.623721e+01	-4.527452e+01
9.700000e-07	-3.729051e-06	-6.602055e-10	-2.599678e+01	-4.507277e+01
9.800000e-07	-3.694123e-06	-6.644547e-10	-2.575328e+01	-4.486860e+01
9.900000e-07	-3.658806e-06	-6.632956e-10	-2.550707e+01	-4.466206e+01
1.000000e-06	-3.623313e-06	-6.593132e-10	-2.525964e+01	-4.445323e+01
1.010000e-06	-3.587694e-06	-6.623002e-10	-2.501132e+01	-4.424215e+01
1.020000e-06	-3.551914e-06	-6.555505e-10	-2.476189e+01	-4.402888e+01
1.030000e-06	-3.515997e-06	-6.462512e-10	-2.451149e+01	-4.381346e+01
1.040000e-06	-3.479924e-06	-6.412029e-10	-2.426001e+01	-4.359592e+01
1.050000e-06	-3.443595e-06	-6.422004e-10	-2.400675e+01	-4.337629e+01
1.060000e-06	-3.406965e-06	-6.375221e-10	-2.375138e+01	-4.315458e+01
1.070000e-06	-3.370058e-06	-6.379122e-10	-2.349409e+01	-4.293082e+01
1.080000e-06	-3.332901e-06	-6.373291e-10	-2.323505e+01	-4.270498e+01
1.090000e-06	-3.295547e-06	-6.346031e-10	-2.297464e+01	-4.247708e+01
1.100000e-06	-3.258027e-06	-6.278892e-10	-2.271308e+01	-4.224708e+01
1.110000e-06	-3.220275e-06	-6.233423e-10	-2.244989e+01	-4.201497e+01
1.120000e-06	-3.182327e-06	-6.152022e-10	-2.218534e+01	-4.178070e+01
1.130000e-06	-3.144161e-06	-6.092009e-10	-2.191927e+01	-4.154423e+01
1.140000e-06	-3.105721e-06	-6.055325e-10	-2.165129e+01	-4.130551e+01
1.150000e-06	-3.067031e-06	-6.027256e-10	-2.138156e+01	-4.106448e+01
1.160000e-06	-3.028085e-06	-5.965030e-10	-2.111005e+01	-4.082107e+01
1.170000e-06	-2.988999e-06	-5.925879e-10	-2.083756e+01	-4.057521e+01
1.180000e-06	-2.949819e-06	-5.898212e-10	-2.056443e+01	-4.032682e+01
1.190000e-06	-2.910467e-06	-5.870570e-10	-2.029009e+01	-4.007581e+01
1.200000e-06	-2.870936e-06	-5.828581e-10	-2.001450e+01	-3.982209e+01
1.210000e-06	-2.831238e-06	-5.768711e-10	-1.973775e+01	-3.956556e+01
1.220000e-06	-2.791410e-06	-5.710656e-10	-1.946009e+01	-3.930614e+01
1.230000e-06	-2.751436e-06	-5.656994e-10	-1.918141e+01	-3.904371e+01
1.240000e-06	-2.711318e-06	-5.629748e-10	-1.890174e+01	-3.877817e+01
1.250000e-06	-2.671034e-06	-5.597966e-10	-1.862090e+01	-3.850940e+01
1.260000e-06	-2.630510e-06	-5.575348e-10	-1.833839e+01	-3.823731e+01
1.270000e-06	-2.589851e-06	-5.534763e-10	-1.805494e+01	-3.796177e+01
1.280000e-06	-2.549061e-06	-5.497153e-10	-1.777057e+01	-3.768267e+01
1.290000e-06	-2.507948e-06	-5.471223e-10	-1.748396e+01	-3.739989e+01
1.300000e-06	-2.466492e-06	-5.444566e-10	-1.719495e+01	-3.711331e+01
1.310000e-06	-2.424785e-06	-5.383752e-10	-1.690420e+01	-3.682282e+01
1.320000e-06	-2.382735e-06	-5.328420e-10	-1.661105e+01	-3.652828e+01
1.330000e-06	-2.340258e-06	-5.280559e-10	-1.631492e+01	-3.622957e+01
1.340000e-06	-2.297488e-06	-5.237541e-10	-1.601676e+01	-3.592656e+01
1.350000e-06	-2.254615e-06	-5.191448e-10	-1.571787e+01	-3.561912e+01
1.360000e-06	-2.211533e-06	-5.152110e-10	-1.541752e+01	-3.530710e+01
1.370000e-06	-2.168161e-06	-5.096758e-10	-1.511516e+01	-3.499037e+01
1.380000e-06	-2.124691e-06	-5.079291e-10	-1.481211e+01	-3.466877e+01
1.390000e-06	-2.081117e-06	-5.069176e-10	-1.450834e+01	-3.434215e+01
1.400000e-06	-2.037425e-06	-5.039548e-10	-1.420374e+01	-3.401035e+01
1.410000e-06	-1.993664e-06	-4.971558e-10	-1.389867e+01	-3.367320e+01
1.420000e-06	-1.949811e-06	-4.913322e-10	-1.359295e+01	-3.333051e+01
1.430000e-06	-1.905880e-06	-4.862337e-10	-1.328669e+01	-3.298210e+01
1.440000e-06	-1.861908e-06	-4.807261e-10	-1.298014e+01	-3.262778e+01
1.450000e-06	-1.817860e-06	-4.755637e-10	-1.267307e+01	-3.226732e+01
1.460000e-06	-1.773697e-06	-4.724849e-10	-1.236518e+01	-3.190051e+01
1.470000e-06	-1.729439e-06	-4.674403e-10	-1.205664e+01	-3.152712e+01
1.480000e-06	-1.685078e-06	-4.602628e-10	-1.174739e+01	-3.114688e+01
1.490000e-06	-1.640564e-06	-4.527222e-10	-1.143706e+01	-3.075956e+01
1.500000e-06	-1.595956e-06	-4.456258e-10	-1.112608e+01	-3.036486e+01
1.510000e-06	-1.551234e-06	-4.382521e-10	-1.081431e+01	-2.996250e+01
1.520000e-06	-1.506331e-06	-4.321940e-10	-1.050126e+01	-2.955218e+01
1.530000e-06	-1.461289e-06	-4.259527e-10	-1.018726e+01	-2.913359e+01
1.540000e-06	-1.416074e-06	-4.180834e-10	-9.872046e+00	-2.870639e+01
1.550000e-06	-1.370762e-06	-4.087456e-10	-9.556159e+00	-2.827024e+01
1.560000e-06	-1.325423e-06	-3.989117e-10	-9.240081e+00	-2.782480e+01
1.570000e-06	-1.279951e-06	-3.912295e-10	-8.923075e+00	-2.736969e+01
1.580000e-06	-1.234342e-06	-3.846617e-10	-8.605117e+00	-2.690454e+01
1.590000e-06	-1.188708e-06	-3.802134e-10	-8.286981e+00	-2.642897e+01
1.600000e-06	-1.143054e-06	-3.749716e-10	-7.968712e+00	-2.594260e+01
1.610000e-06	-1.097307e-06	-3.672380e-10	-7.649789e+00	-2.544503e+01
1.620000e-06	-1.051452e-06	-3.580099e-10	-7.330111e+00	-2.493586e+01
1.630000e-06	-1.005414e-06	-3.521755e-10	-7.009162e+00	-2.441470e+01
1.640000e-06	-9.593175e-07	-3.471544e-10	-6.687806e+00	-2.388115e+01
1.650000e-06	-9.133065e-07	-3.393504e-10	-6.367043e+00	-2.333483e+01
1.660000e-06	-8.672084e-07	-3.303675e-10	-6.045674e+00	-2.277534e+01
1.670000e-06	-8.210039e-07	-3.212741e-10	-5.723563e+00	-2.220232e+01
1.680000e-06	-7.747070e-07	-3.088736e-10	-5.400808e+00	-2.161541e+01
1.690000e-06	-7.282836e-07	-2.968819e-10	-5.077171e+00	-2.101426e+01
1.700000e-06	-6.818892e-07	-2.872358e-10	-4.753736e+00	-2.039854e+01
1.710000e-06	-6.355209e-07	-2.797869e-10	-4.430483e+00	-1.976795e+01
1.720000e-06	-5.890945e-07	-2.720865e-10	-4.106825e+00	-1.912221e+01
1.730000e-06	-5.426734e-07	-2.632691e-10	-3.783204e+00	-1.846106e+01
1.740000e-06	-4.962604e-07	-2.514889e-10	-3.459640e+00	-1.778430e+01
1.750000e-06	-4.497321e-07	-2.389124e-10	-3.135272e+00	-1.709172e+01
1.760000e-06	-4.031216e-07	-2.273732e-10	-2.810330e+00	-1.638319e+01
1.770000e-06	-3.565186e-07	-2.155353e-10	-2.485441e+00	-1.565858e+01
1.780000e-06	-3.098704e-07	-2.038488e-10	-2.160237e+00	-1.491784e+01
1.790000e-06	-2.631935e-07	-1.943591e-10	-1.834833e+00	-1.416094e+01
1.800000e-06	-2.165055e-07	-1.860818e-10	-1.509351e+00	-1.338790e+01
1.810000e-06	-1.697833e-07	-1.766750e-10	-1.183631e+00	-1.259880e+01
1.820000e-06	-1.230597e-07	-1.670198e-10	-8.579011e-01	-1.179375e+01
1.830000e-06	-7.637105e-08	-1.581130e-10	-5.324147e-01	-1.097294e+01
1.840000e-06	-2.960482e-08	-1.484811e-10	-2.063876e-01	-1.013659e+01
1.850000e-06	1.720412e-08	-1.341355e-10	1.199372e-01	-9.284974e+00
1.860000e-06	6.386407e-08	-1.170837e-10	4.452232e-01	-8.418438e+00
1.870000e-06	1.104676e-07	-1.030121e-10	7.701162e-01	-7.537368e+00
1.880000e-06	1.571077e-07	-9.110425e-11	1.095264e+00	-6.642208e+00
1.890000e-06	2.037544e-07	-7.821001e-11	1.420458e+00	-5.733455e+00
1.900000e-06	2.504480e-07	-6.452758e-11	1.745978e+00	-4.811660e+00
1.910000e-06	2.971704e-07	-5.032064e-11	2.071699e+00	-3.877424e+00
1.920000e-06	3.438451e-07	-3.653126e-11	2.397088e+00	-2.931399e+00
1.930000e-06	3.904204e-07	-2.252098e-11	2.721785e+00	-1.974283e+00
1.940000e-06	4.369422e-07	-8.643382e-12	3.046108e+00	-1.006821e+00
1.950000e-06	4.834602e-07	5.738323e-12	3.370404e+00	-2.980256e-02
1.960000e-06	5.299458e-07	2.080715e-11	3.694475e+00	9.559461e-01
1.970000e-06	5.763523e-07	3.564847e-11	4.017994e+00	1.949560e+00
1.980000e-06	6.226840e-07	4.803000e-11	4.340992e+00	2.950140e+00
1.990000e-06	6.689362e-07	5.845242e-11	4.663435e+00	3.956759e+00
2.000000e-06	7.151115e-07	6.930162e-11	4.985343e+00	4.968462e+00
2.010000e-06	7.613231e-07	8.287893e-11	5.307503e+00	5.984274e+00
2.020000e-06	8.075089e-07	9.963348e-11	5.629484e+00	7.003201e+00
2.030000e-06	8.535714e-07	1.182869e-10	5.950605e+00	8.024235e+00
2.040000e-06	8.995504e-07	1.362367e-10	6.271144e+00	9.046361e+00
2.050000e-06	9.455327e-07	1.505319e-10	6.591705e+00	1.006856e+01
2.060000e-06	9.915533e-07	1.640239e-10	6.912535e+00	1.108981e+01
2.070000e-06	1.037484e-06	1.768232e-10	7.232734e+00	1.210909e+01
2.080000e-06	1.083307e-06	1.868034e-10	7.552189e+00	1.312540e+01
2.090000e-06	1.129078e-06	1.990666e-10	7.871278e+00	1.413774e+01
2.100000e-06	1.174778e-06	2.166914e-10	8.189872e+00	1.514514e+01
2.110000e-06	1.220349e-06	2.389416e-10	8.507569e+00	1.614663e+01
2.120000e-06	1.265792e-06	2.574463e-10	8.824368e+00	1.714130e+01
2.130000e-06	1.311194e-06	2.706617e-10	9.140884e+00	1.812823e+01
2.140000e-06	1.356513e-06	2.811414e-10	9.456823e+00	1.910656e+01
2.150000e-06	1.401711e-06	2.892572e-10	9.771917e+00	2.007546e+01
2.160000e-06	1.446789e-06	2.992697e-10	1.008617e+01	2.103413e+01
2.170000e-06	1.491744e-06	3.148822e-10	1.039957e+01	2.198181e+01
2.180000e-06	1.536649e-06	3.343251e-10	1.071262e+01	2.291780e+01
2.190000e-06	1.581496e-06	3.531171e-10	1.102528e+01	2.384142e+01
2.200000e-06	1.626150e-06	3.678206e-10	1.133658e+01	2.475207e+01
2.210000e-06	1.670587e-06	3.781232e-10	1.164636e+01	2.564917e+01
2.220000e-06	1.714935e-06	3.860779e-10	1.195553e+01	2.653220e+01
2.230000e-06	1.759175e-06	3.938118e-10	1.226395e+01	2.740069e+01
2.240000e-06	1.803246e-06	4.034734e-10	1.257119e+01	2.825423e+01
2.250000e-06	1.847214e-06	4.152595e-10	1.287770e+01	2.909243e+01
2.260000e-06	1.891149e-06	4.284345e-10	1.318400e+01	2.991498e+01
2.270000e-06	1.935049e-06	4.435744e-10	1.349004e+01	3.072162e+01
2.280000e-06	1.978890e-06	4.600028e-10	1.379568e+01	3.151211e+01
2.290000e-06	2.022632e-06	4.724168e-10	1.410062e+01	3.228628e+01
2.300000e-06	2.066270e-06	4.812241e-10	1.440483e+01	3.304401e+01
2.310000e-06	2.109861e-06	4.883755e-10	1.470873e+01	3.378520e+01
2.320000e-06	2.153405e-06	4.961182e-10	1.501229e+01	3.450981e+01
2.330000e-06	2.196796e-06	5.059155e-10	1.531478e+01	3.521784e+01
2.340000e-06	2.239961e-06	5.175298e-10	1.561571e+01	3.590932e+01
2.350000e-06	2.282947e-06	5.285275e-10	1.591538e+01	3.658432e+01
2.360000e-06	2.325745e-06	5.414539e-10	1.621375e+01	3.724293e+01
2.370000e-06	2.368284e-06	5.547965e-10	1.651030e+01	3.788529e+01
2.380000e-06	2.410504e-06	5.641725e-10	1.680463e+01	3.851155e+01
2.390000e-06	2.452388e-06	5.694967e-10	1.709662e+01	3.912190e+01
2.400000e-06	2.493916e-06	5.731347e-10	1.738614e+01	3.971652e+01
2.410000e-06	2.535115e-06	5.769437e-10	1.767335e+01	4.029565e+01
2.420000e-06	2.576010e-06	5.814429e-10	1.795845e+01	4.085952e+01
2.430000e-06	2.616652e-06	5.906575e-10	1.824178e+01	4.140838e+01
2.440000e-06	2.657119e-06	6.050809e-10	1.852389e+01	4.194249e+01
2.450000e-06	2.697420e-06	6.176553e-10	1.880485e+01	4.246212e+01
2.460000e-06	2.737580e-06	6.261032e-10	1.908482e+01	4.296754e+01
2.470000e-06	2.777554e-06	6.348001e-10	1.936349e+01	4.345903e+01
2.480000e-06	2.817363e-06	6.432162e-10	1.964102e+01	4.393687e+01
2.490000e-06	2.857078e-06	6.480117e-10	1.991789e+01	4.440135e+01
2.500000e-06	2.896653e-06	6.514693e-10	2.019378e+01	4.485274e+01
2.510000e-06	2.936042e-06	6.591259e-10	2.046838e+01	4.529132e+01
2.520000e-06	2.975286e-06	6.706315e-10	2.074197e+01	4.571735e+01
2.530000e-06	3.014334e-06	6.812648e-10	2.101419e+01	4.613112e+01
2.540000e-06	3.053107e-06	6.889085e-10	2.128449e+01	4.653288e+01
2.550000e-06	3.091660e-06	6.928166e-10	2.155326e+01	4.692288e+01
2.560000e-06	3.130029e-06	6.942216e-10	2.182074e+01	4.730138e+01
2.570000e-06	3.168183e-06	6.960633e-10	2.208673e+01	4.766861e+01
2.580000e-06	3.206102e-06	6.993310e-10	2.235108e+01	4.802482e+01
2.590000e-06	3.243891e-06	7.052736e-10	2.261452e+01	4.837022e+01
2.600000e-06	3.281513e-06	7.110859e-10	2.287681e+01	4.870503e+01
2.610000e-06	3.318872e-06	7.160756e-10	2.313725e+01	4.902948e+01
2.620000e-06	3.355990e-06	7.203433e-10	2.339602e+01	4.934376e+01
2.630000e-06	3.392826e-06	7.229962e-10	2.365281e+01	4.964808e+01
2.640000e-06	3.429324e-06	7.260872e-10	2.390726e+01	4.994264e+01
2.650000e-06	3.465555e-06	7.304050e-10	2.415984e+01	5.022762e+01
2.660000e-06	3.501582e-06	7.346025e-10	2.441100e+01	5.050322e+01
2.670000e-06	3.537437e-06	7.391096e-10	2.466096e+01	5.076962e+01
2.680000e-06	3.573207e-06	7.440607e-10	2.491033e+01	5.102701e+01
2.690000e-06	3.608896e-06	7.498998e-10	2.515913e+01	5.127556e+01
2.700000e-06	3.644472e-06	7.556786e-10	2.540715e+01	5.151547e+01
2.710000e-06	3.679886e-06	7.585372e-10	2.565403e+01	5.174691e+01
2.720000e-06	3.715082e-06	7.592423e-10	2.589940e+01	5.197007e+01
2.730000e-06	3.749933e-06	7.609186e-10	2.614236e+01	5.218513e+01
2.740000e-06	3.784337e-06	7.636594e-10	2.638220e+01	5.239228e+01
2.750000e-06	3.818276e-06	7.657030e-10	2.661881e+01	5.259171e+01
2.760000e-06	3.851723e-06	7.687055e-10	2.685198e+01	5.278361e+01
2.770000e-06	3.884670e-06	7.737749e-10	2.708167e+01	5.296818e+01
2.780000e-06	3.917163e-06	7.798224e-10	2.730819e+01	5.314561e+01
2.790000e-06	3.949305e-06	7.842380e-10	2.753226e+01	5.331611e+01
2.800000e-06	3.981223e-06	7.865450e-10	2.775477e+01	5.347987e+01
2.810000e-06	4.012956e-06	7.887625e-10	2.797600e+01	5.363711e+01
2.820000e-06	4.044545e-06	7.912603e-10	2.819622e+01	5.378802e+01
2.830000e-06	4.076046e-06	7.932710e-10	2.841583e+01	5.393283e+01
2.840000e-06	4.107299e-06	7.963032e-10	2.863371e+01	5.407173e+01
2.850000e-06	4.138232e-06	8.009998e-10	2.884936e+01	5.420494e+01
2.860000e-06	4.168903e-06	8.051573e-10	2.906317e+01	5.433267e+01
2.870000e-06	4.199291e-06	8.072659e-10	2.927502e+01	5.445512e+01
2.880000e-06	4.229362e-06	8.079619e-10	2.948466e+01	5.457250e+01
2.890000e-06	4.259124e-06	8.085429e-10	2.969214e+01	5.468501e+01
2.900000e-06	4.288691e-06	8.088795e-10	2.989827e+01	5.479284e+01
