# Temperatura_=_-0.69
# Concentracion g/m^3_=_1620.0
# C_Vs_to_Am_M_A/Vsm_=_65563218390.804596
# pendiente_HvsI_1/m_=_3716.3
# ordenada_HvsI_A/m_=_1297.0
# frecuencia_Hz_=_135103.62011273374

Tiempo_(s)	Campo_(V.s)	Magnetizacion_(V.s)	Campo_(kA/m)	Magnetizacion_(A/m)
0.000000e+00	-5.505741e-06	-1.338099e-09	-3.836993e+01	-8.769487e+01
1.000000e-08	-5.505926e-06	-1.335971e-09	-3.837122e+01	-8.767611e+01
2.000000e-08	-5.505871e-06	-1.334693e-09	-3.837083e+01	-8.765748e+01
3.000000e-08	-5.505510e-06	-1.335364e-09	-3.836832e+01	-8.763879e+01
4.000000e-08	-5.504791e-06	-1.333036e-09	-3.836331e+01	-8.761982e+01
5.000000e-08	-5.503591e-06	-1.321336e-09	-3.835495e+01	-8.760034e+01
6.000000e-08	-5.501674e-06	-1.304408e-09	-3.834159e+01	-8.758012e+01
7.000000e-08	-5.499118e-06	-1.305244e-09	-3.832377e+01	-8.755889e+01
8.000000e-08	-5.496095e-06	-1.363128e-09	-3.830271e+01	-8.753640e+01
9.000000e-08	-5.492580e-06	-1.421438e-09	-3.827821e+01	-8.751239e+01
1.000000e-07	-5.488573e-06	-1.391771e-09	-3.825028e+01	-8.748656e+01
1.100000e-07	-5.484275e-06	-1.329873e-09	-3.822033e+01	-8.745866e+01
1.200000e-07	-5.479742e-06	-1.313528e-09	-3.818874e+01	-8.742841e+01
1.300000e-07	-5.474942e-06	-1.296365e-09	-3.815529e+01	-8.739552e+01
1.400000e-07	-5.469892e-06	-1.333170e-09	-3.812010e+01	-8.735973e+01
1.500000e-07	-5.464475e-06	-1.287650e-09	-3.808234e+01	-8.732078e+01
1.600000e-07	-5.458704e-06	-1.314559e-09	-3.804212e+01	-8.727839e+01
1.700000e-07	-5.452446e-06	-1.313878e-09	-3.799851e+01	-8.723233e+01
1.800000e-07	-5.445698e-06	-1.369942e-09	-3.795149e+01	-8.718236e+01
1.900000e-07	-5.438565e-06	-1.366112e-09	-3.790177e+01	-8.712824e+01
2.000000e-07	-5.431128e-06	-1.326133e-09	-3.784994e+01	-8.706976e+01
2.100000e-07	-5.423479e-06	-1.314383e-09	-3.779664e+01	-8.700673e+01
2.200000e-07	-5.415589e-06	-1.345648e-09	-3.774165e+01	-8.693896e+01
2.300000e-07	-5.407446e-06	-1.377642e-09	-3.768490e+01	-8.686628e+01
2.400000e-07	-5.398879e-06	-1.351125e-09	-3.762520e+01	-8.678855e+01
2.500000e-07	-5.389659e-06	-1.354093e-09	-3.756094e+01	-8.670563e+01
2.600000e-07	-5.379770e-06	-1.336575e-09	-3.749203e+01	-8.661741e+01
2.700000e-07	-5.369313e-06	-1.338029e-09	-3.741915e+01	-8.652380e+01
2.800000e-07	-5.358296e-06	-1.304581e-09	-3.734237e+01	-8.642471e+01
2.900000e-07	-5.346800e-06	-1.338442e-09	-3.726225e+01	-8.632009e+01
3.000000e-07	-5.334948e-06	-1.321692e-09	-3.717966e+01	-8.620989e+01
3.100000e-07	-5.322702e-06	-1.316605e-09	-3.709431e+01	-8.609411e+01
3.200000e-07	-5.310035e-06	-1.291357e-09	-3.700604e+01	-8.597272e+01
3.300000e-07	-5.297061e-06	-1.327415e-09	-3.691562e+01	-8.584574e+01
3.400000e-07	-5.283707e-06	-1.299302e-09	-3.682255e+01	-8.571318e+01
3.500000e-07	-5.269859e-06	-1.297606e-09	-3.672605e+01	-8.557510e+01
3.600000e-07	-5.255558e-06	-1.310483e-09	-3.662639e+01	-8.543154e+01
3.700000e-07	-5.240932e-06	-1.321075e-09	-3.652445e+01	-8.528257e+01
3.800000e-07	-5.225682e-06	-1.275592e-09	-3.641818e+01	-8.512825e+01
3.900000e-07	-5.209856e-06	-1.301397e-09	-3.630788e+01	-8.496868e+01
4.000000e-07	-5.193703e-06	-1.320116e-09	-3.619531e+01	-8.480393e+01
4.100000e-07	-5.177079e-06	-1.273068e-09	-3.607946e+01	-8.463412e+01
4.200000e-07	-5.160011e-06	-1.258964e-09	-3.596051e+01	-8.445935e+01
4.300000e-07	-5.142747e-06	-1.315377e-09	-3.584019e+01	-8.427972e+01
4.400000e-07	-5.125309e-06	-1.297754e-09	-3.571867e+01	-8.409534e+01
4.500000e-07	-5.107437e-06	-1.245748e-09	-3.559412e+01	-8.390633e+01
4.600000e-07	-5.089141e-06	-1.298351e-09	-3.546661e+01	-8.371281e+01
4.700000e-07	-5.070455e-06	-1.304884e-09	-3.533638e+01	-8.351487e+01
4.800000e-07	-5.051294e-06	-1.241613e-09	-3.520285e+01	-8.331264e+01
4.900000e-07	-5.031770e-06	-1.263300e-09	-3.506679e+01	-8.310623e+01
5.000000e-07	-5.012077e-06	-1.321453e-09	-3.492955e+01	-8.289573e+01
5.100000e-07	-4.992170e-06	-1.245733e-09	-3.479081e+01	-8.268126e+01
5.200000e-07	-4.971972e-06	-1.227573e-09	-3.465005e+01	-8.246290e+01
5.300000e-07	-4.951539e-06	-1.294084e-09	-3.450765e+01	-8.224076e+01
5.400000e-07	-4.930838e-06	-1.276152e-09	-3.436338e+01	-8.201492e+01
5.500000e-07	-4.909701e-06	-1.213314e-09	-3.421608e+01	-8.178547e+01
5.600000e-07	-4.888196e-06	-1.268998e-09	-3.406621e+01	-8.155247e+01
5.700000e-07	-4.866383e-06	-1.263896e-09	-3.391419e+01	-8.131600e+01
5.800000e-07	-4.844157e-06	-1.208600e-09	-3.375930e+01	-8.107612e+01
5.900000e-07	-4.821608e-06	-1.232198e-09	-3.360215e+01	-8.083289e+01
6.000000e-07	-4.798854e-06	-1.264243e-09	-3.344358e+01	-8.058637e+01
6.100000e-07	-4.775797e-06	-1.197713e-09	-3.328289e+01	-8.033660e+01
6.200000e-07	-4.752386e-06	-1.200106e-09	-3.311974e+01	-8.008363e+01
6.300000e-07	-4.728657e-06	-1.232115e-09	-3.295437e+01	-7.982749e+01
6.400000e-07	-4.704702e-06	-1.198009e-09	-3.278742e+01	-7.956822e+01
6.500000e-07	-4.680521e-06	-1.178896e-09	-3.261891e+01	-7.930586e+01
6.600000e-07	-4.656051e-06	-1.217545e-09	-3.244838e+01	-7.904042e+01
6.700000e-07	-4.631169e-06	-1.194409e-09	-3.227497e+01	-7.877193e+01
6.800000e-07	-4.605692e-06	-1.167883e-09	-3.209742e+01	-7.850043e+01
6.900000e-07	-4.579556e-06	-1.187222e-09	-3.191528e+01	-7.822592e+01
7.000000e-07	-4.552900e-06	-1.178822e-09	-3.172951e+01	-7.794844e+01
7.100000e-07	-4.525787e-06	-1.148898e-09	-3.154055e+01	-7.766800e+01
7.200000e-07	-4.498348e-06	-1.165622e-09	-3.134933e+01	-7.738462e+01
7.300000e-07	-4.470733e-06	-1.170299e-09	-3.115688e+01	-7.709833e+01
7.400000e-07	-4.442903e-06	-1.141091e-09	-3.096293e+01	-7.680914e+01
7.500000e-07	-4.414914e-06	-1.142597e-09	-3.076787e+01	-7.651708e+01
7.600000e-07	-4.386740e-06	-1.144603e-09	-3.057153e+01	-7.622217e+01
7.700000e-07	-4.358252e-06	-1.120955e-09	-3.037299e+01	-7.592444e+01
7.800000e-07	-4.329359e-06	-1.113287e-09	-3.017163e+01	-7.562391e+01
7.900000e-07	-4.300115e-06	-1.128507e-09	-2.996783e+01	-7.532060e+01
8.000000e-07	-4.270590e-06	-1.112914e-09	-2.976207e+01	-7.501455e+01
8.100000e-07	-4.240807e-06	-1.102602e-09	-2.955451e+01	-7.470577e+01
8.200000e-07	-4.210800e-06	-1.108659e-09	-2.934539e+01	-7.439431e+01
8.300000e-07	-4.180491e-06	-1.103546e-09	-2.913416e+01	-7.408017e+01
8.400000e-07	-4.149877e-06	-1.081393e-09	-2.892081e+01	-7.376340e+01
8.500000e-07	-4.118952e-06	-1.083748e-09	-2.870529e+01	-7.344402e+01
8.600000e-07	-4.087708e-06	-1.077067e-09	-2.848755e+01	-7.312205e+01
8.700000e-07	-4.056226e-06	-1.060652e-09	-2.826814e+01	-7.279751e+01
8.800000e-07	-4.024571e-06	-1.055352e-09	-2.804754e+01	-7.247042e+01
8.900000e-07	-3.992848e-06	-1.065288e-09	-2.782646e+01	-7.214080e+01
9.000000e-07	-3.960960e-06	-1.052104e-09	-2.760423e+01	-7.180865e+01
9.100000e-07	-3.928805e-06	-1.043287e-09	-2.738014e+01	-7.147399e+01
9.200000e-07	-3.896332e-06	-1.042089e-09	-2.715383e+01	-7.113682e+01
9.300000e-07	-3.863402e-06	-1.034329e-09	-2.692434e+01	-7.079712e+01
9.400000e-07	-3.830002e-06	-1.019866e-09	-2.669158e+01	-7.045489e+01
9.500000e-07	-3.796232e-06	-1.021710e-09	-2.645623e+01	-7.011011e+01
9.600000e-07	-3.762134e-06	-1.017309e-09	-2.621860e+01	-6.976275e+01
9.700000e-07	-3.727557e-06	-1.004392e-09	-2.597763e+01	-6.941277e+01
9.800000e-07	-3.692483e-06	-1.001494e-09	-2.573319e+01	-6.906014e+01
9.900000e-07	-3.657077e-06	-1.003479e-09	-2.548645e+01	-6.870478e+01
1.000000e-06	-3.621445e-06	-9.935849e-10	-2.523813e+01	-6.834665e+01
1.010000e-06	-3.585679e-06	-9.865864e-10	-2.498887e+01	-6.798567e+01
1.020000e-06	-3.549843e-06	-9.879433e-10	-2.473912e+01	-6.762175e+01
1.030000e-06	-3.513938e-06	-9.784339e-10	-2.448890e+01	-6.725482e+01
1.040000e-06	-3.477900e-06	-9.667666e-10	-2.423775e+01	-6.688475e+01
1.050000e-06	-3.441645e-06	-9.636837e-10	-2.398509e+01	-6.651146e+01
1.060000e-06	-3.405021e-06	-9.597184e-10	-2.372985e+01	-6.613480e+01
1.070000e-06	-3.368049e-06	-9.495628e-10	-2.347219e+01	-6.575467e+01
1.080000e-06	-3.330889e-06	-9.440819e-10	-2.321322e+01	-6.537093e+01
1.090000e-06	-3.293522e-06	-9.384578e-10	-2.295280e+01	-6.498342e+01
1.100000e-06	-3.255935e-06	-9.297006e-10	-2.269086e+01	-6.459201e+01
1.110000e-06	-3.218139e-06	-9.202500e-10	-2.242746e+01	-6.419653e+01
1.120000e-06	-3.180093e-06	-9.172391e-10	-2.216231e+01	-6.379684e+01
1.130000e-06	-3.141833e-06	-9.080932e-10	-2.189568e+01	-6.339276e+01
1.140000e-06	-3.103415e-06	-9.005345e-10	-2.162793e+01	-6.298413e+01
1.150000e-06	-3.064783e-06	-8.936254e-10	-2.135871e+01	-6.257077e+01
1.160000e-06	-3.025972e-06	-8.866168e-10	-2.108823e+01	-6.215252e+01
1.170000e-06	-2.986948e-06	-8.763417e-10	-2.081627e+01	-6.172920e+01
1.180000e-06	-2.947688e-06	-8.701913e-10	-2.054266e+01	-6.130064e+01
1.190000e-06	-2.908243e-06	-8.624722e-10	-2.026776e+01	-6.086667e+01
1.200000e-06	-2.868585e-06	-8.567893e-10	-1.999139e+01	-6.042712e+01
1.210000e-06	-2.828800e-06	-8.523548e-10	-1.971412e+01	-5.998182e+01
1.220000e-06	-2.788907e-06	-8.501860e-10	-1.943610e+01	-5.953060e+01
1.230000e-06	-2.748918e-06	-8.436802e-10	-1.915742e+01	-5.907331e+01
1.240000e-06	-2.708849e-06	-8.364565e-10	-1.887817e+01	-5.860978e+01
1.250000e-06	-2.668616e-06	-8.282711e-10	-1.859779e+01	-5.813987e+01
1.260000e-06	-2.628133e-06	-8.175919e-10	-1.831566e+01	-5.766342e+01
1.270000e-06	-2.587302e-06	-8.068862e-10	-1.803110e+01	-5.718029e+01
1.280000e-06	-2.546249e-06	-7.984350e-10	-1.774500e+01	-5.669034e+01
1.290000e-06	-2.505056e-06	-7.922690e-10	-1.745792e+01	-5.619343e+01
1.300000e-06	-2.463515e-06	-7.865828e-10	-1.716842e+01	-5.568943e+01
1.310000e-06	-2.421531e-06	-7.795195e-10	-1.687583e+01	-5.517822e+01
1.320000e-06	-2.379260e-06	-7.733891e-10	-1.658124e+01	-5.465967e+01
1.330000e-06	-2.336704e-06	-7.658570e-10	-1.628467e+01	-5.413365e+01
1.340000e-06	-2.293782e-06	-7.551159e-10	-1.598554e+01	-5.360005e+01
1.350000e-06	-2.250608e-06	-7.418853e-10	-1.568466e+01	-5.305874e+01
1.360000e-06	-2.207280e-06	-7.289912e-10	-1.538271e+01	-5.250961e+01
1.370000e-06	-2.163836e-06	-7.193641e-10	-1.507993e+01	-5.195252e+01
1.380000e-06	-2.120283e-06	-7.147954e-10	-1.477641e+01	-5.138735e+01
1.390000e-06	-2.076634e-06	-7.114976e-10	-1.447222e+01	-5.081398e+01
1.400000e-06	-2.032847e-06	-7.065664e-10	-1.416706e+01	-5.023226e+01
1.410000e-06	-1.988949e-06	-6.996993e-10	-1.386114e+01	-4.964205e+01
1.420000e-06	-1.945010e-06	-6.857058e-10	-1.355492e+01	-4.904321e+01
1.430000e-06	-1.901046e-06	-6.714751e-10	-1.324853e+01	-4.843558e+01
1.440000e-06	-1.857036e-06	-6.555714e-10	-1.294182e+01	-4.781897e+01
1.450000e-06	-1.812904e-06	-6.437886e-10	-1.263426e+01	-4.719322e+01
1.460000e-06	-1.768707e-06	-6.377254e-10	-1.232625e+01	-4.655811e+01
1.470000e-06	-1.724460e-06	-6.346957e-10	-1.201789e+01	-4.591345e+01
1.480000e-06	-1.680032e-06	-6.276062e-10	-1.170827e+01	-4.525901e+01
1.490000e-06	-1.635436e-06	-6.156938e-10	-1.139748e+01	-4.459454e+01
1.500000e-06	-1.590743e-06	-6.039669e-10	-1.108601e+01	-4.391979e+01
1.510000e-06	-1.545909e-06	-5.897159e-10	-1.077355e+01	-4.323449e+01
1.520000e-06	-1.500922e-06	-5.739457e-10	-1.046004e+01	-4.253833e+01
1.530000e-06	-1.455892e-06	-5.638538e-10	-1.014622e+01	-4.183102e+01
1.540000e-06	-1.410833e-06	-5.539844e-10	-9.832202e+00	-4.111222e+01
1.550000e-06	-1.365652e-06	-5.466142e-10	-9.517331e+00	-4.038160e+01
1.560000e-06	-1.320289e-06	-5.372417e-10	-9.201194e+00	-3.963878e+01
1.570000e-06	-1.274854e-06	-5.245022e-10	-8.884554e+00	-3.888341e+01
1.580000e-06	-1.229401e-06	-5.076367e-10	-8.567787e+00	-3.811508e+01
1.590000e-06	-1.183731e-06	-4.907708e-10	-8.249513e+00	-3.733341e+01
1.600000e-06	-1.137942e-06	-4.774572e-10	-7.930406e+00	-3.653798e+01
1.610000e-06	-1.092151e-06	-4.669362e-10	-7.611282e+00	-3.572838e+01
1.620000e-06	-1.046298e-06	-4.595102e-10	-7.291733e+00	-3.490417e+01
1.630000e-06	-1.000423e-06	-4.550436e-10	-6.972026e+00	-3.406493e+01
1.640000e-06	-9.544382e-07	-4.523991e-10	-6.651552e+00	-3.321024e+01
1.650000e-06	-9.083648e-07	-4.435783e-10	-6.330463e+00	-3.233966e+01
1.660000e-06	-8.622932e-07	-4.256219e-10	-6.009387e+00	-3.145277e+01
1.670000e-06	-8.161905e-07	-4.041106e-10	-5.688094e+00	-3.054916e+01
1.680000e-06	-7.700127e-07	-3.832196e-10	-5.366277e+00	-2.962843e+01
1.690000e-06	-7.236970e-07	-3.675302e-10	-5.043499e+00	-2.869019e+01
1.700000e-06	-6.772806e-07	-3.592597e-10	-4.720020e+00	-2.773409e+01
1.710000e-06	-6.309282e-07	-3.538080e-10	-4.396986e+00	-2.675977e+01
1.720000e-06	-5.846063e-07	-3.473950e-10	-4.074166e+00	-2.576692e+01
1.730000e-06	-5.381416e-07	-3.335089e-10	-3.750350e+00	-2.475526e+01
1.740000e-06	-4.915814e-07	-3.133396e-10	-3.425868e+00	-2.372454e+01
1.750000e-06	-4.449492e-07	-2.880845e-10	-3.100885e+00	-2.267454e+01
1.760000e-06	-3.982021e-07	-2.644518e-10	-2.775100e+00	-2.160510e+01
1.770000e-06	-3.515279e-07	-2.465258e-10	-2.449825e+00	-2.051610e+01
1.780000e-06	-3.049982e-07	-2.341031e-10	-2.125556e+00	-1.940747e+01
1.790000e-06	-2.583748e-07	-2.255802e-10	-1.800633e+00	-1.827917e+01
1.800000e-06	-2.116236e-07	-2.176889e-10	-1.474821e+00	-1.713125e+01
1.810000e-06	-1.648709e-07	-2.057579e-10	-1.148998e+00	-1.596380e+01
1.820000e-06	-1.181376e-07	-1.877507e-10	-8.233096e-01	-1.477696e+01
1.830000e-06	-7.145091e-08	-1.656632e-10	-4.979468e-01	-1.357096e+01
1.840000e-06	-2.480681e-08	-1.434245e-10	-1.728805e-01	-1.234607e+01
1.850000e-06	2.190286e-08	-1.227963e-10	1.526427e-01	-1.110263e+01
1.860000e-06	6.865162e-08	-1.063077e-10	4.784384e-01	-9.841059e+00
1.870000e-06	1.153354e-07	-9.118184e-11	8.037815e-01	-8.561825e+00
1.880000e-06	1.619701e-07	-7.605345e-11	1.128782e+00	-7.265475e+00
1.890000e-06	2.086145e-07	-6.072307e-11	1.453850e+00	-5.952618e+00
1.900000e-06	2.553248e-07	-4.223789e-11	1.779378e+00	-4.623929e+00
1.910000e-06	3.020298e-07	-1.964978e-11	2.104869e+00	-3.280149e+00
1.920000e-06	3.486264e-07	3.981681e-12	2.429604e+00	-1.922083e+00
1.930000e-06	3.951672e-07	2.490605e-11	2.753950e+00	-5.505930e-01
1.940000e-06	4.417250e-07	4.457964e-11	3.078415e+00	8.333963e-01
1.950000e-06	4.882589e-07	6.277360e-11	3.402713e+00	2.228906e+00
1.960000e-06	5.347600e-07	7.978413e-11	3.726783e+00	3.634905e+00
1.970000e-06	5.812591e-07	9.675838e-11	4.050839e+00	5.050313e+00
1.980000e-06	6.276682e-07	1.147477e-10	4.374268e+00	6.474003e+00
1.990000e-06	6.739443e-07	1.350081e-10	4.696769e+00	7.904812e+00
2.000000e-06	7.201734e-07	1.561629e-10	5.018943e+00	9.341535e+00
2.010000e-06	7.663648e-07	1.783814e-10	5.340855e+00	1.078294e+01
2.020000e-06	8.125251e-07	2.022829e-10	5.662549e+00	1.222777e+01
2.030000e-06	8.585948e-07	2.252016e-10	5.983612e+00	1.367474e+01
2.040000e-06	9.045338e-07	2.461162e-10	6.303765e+00	1.512255e+01
2.050000e-06	9.504090e-07	2.667268e-10	6.623472e+00	1.656991e+01
2.060000e-06	9.963295e-07	2.857617e-10	6.943496e+00	1.801550e+01
2.070000e-06	1.042281e-06	3.031136e-10	7.263733e+00	1.945800e+01
2.080000e-06	1.088121e-06	3.217006e-10	7.583195e+00	2.089613e+01
2.090000e-06	1.133903e-06	3.426962e-10	7.902254e+00	2.232858e+01
2.100000e-06	1.179612e-06	3.683022e-10	8.220806e+00	2.375410e+01
2.110000e-06	1.225152e-06	3.933125e-10	8.538179e+00	2.517142e+01
2.120000e-06	1.270627e-06	4.136255e-10	8.855093e+00	2.657933e+01
2.130000e-06	1.316047e-06	4.286735e-10	9.171633e+00	2.797664e+01
2.140000e-06	1.361345e-06	4.444873e-10	9.487318e+00	2.936220e+01
2.150000e-06	1.406497e-06	4.636008e-10	9.801983e+00	3.073491e+01
2.160000e-06	1.451479e-06	4.841632e-10	1.011547e+01	3.209371e+01
2.170000e-06	1.496336e-06	5.037621e-10	1.042808e+01	3.343758e+01
2.180000e-06	1.541151e-06	5.250451e-10	1.074040e+01	3.476558e+01
2.190000e-06	1.585870e-06	5.467087e-10	1.105205e+01	3.607680e+01
2.200000e-06	1.630422e-06	5.654135e-10	1.136253e+01	3.737041e+01
2.210000e-06	1.674858e-06	5.811945e-10	1.167221e+01	3.864563e+01
2.220000e-06	1.719194e-06	5.959565e-10	1.198119e+01	3.990175e+01
2.230000e-06	1.763356e-06	6.122267e-10	1.228896e+01	4.113811e+01
2.240000e-06	1.807403e-06	6.274990e-10	1.259593e+01	4.235415e+01
2.250000e-06	1.851461e-06	6.432668e-10	1.290297e+01	4.354934e+01
2.260000e-06	1.895512e-06	6.591838e-10	1.320996e+01	4.472323e+01
2.270000e-06	1.939480e-06	6.768843e-10	1.351638e+01	4.587546e+01
2.280000e-06	1.983323e-06	6.965660e-10	1.382193e+01	4.700569e+01
2.290000e-06	2.027081e-06	7.151145e-10	1.412688e+01	4.811369e+01
2.300000e-06	2.070767e-06	7.298526e-10	1.443133e+01	4.919926e+01
2.310000e-06	2.114367e-06	7.405212e-10	1.473518e+01	5.026228e+01
2.320000e-06	2.157911e-06	7.523480e-10	1.503865e+01	5.130268e+01
2.330000e-06	2.201289e-06	7.669843e-10	1.534095e+01	5.232046e+01
2.340000e-06	2.244483e-06	7.825318e-10	1.564197e+01	5.331567e+01
2.350000e-06	2.287498e-06	8.012124e-10	1.594174e+01	5.428839e+01
2.360000e-06	2.330236e-06	8.214918e-10	1.623959e+01	5.523879e+01
2.370000e-06	2.372764e-06	8.389568e-10	1.653597e+01	5.616704e+01
2.380000e-06	2.414961e-06	8.506131e-10	1.683005e+01	5.707338e+01
2.390000e-06	2.456788e-06	8.588609e-10	1.712154e+01	5.795809e+01
2.400000e-06	2.498366e-06	8.652894e-10	1.741130e+01	5.882146e+01
2.410000e-06	2.539650e-06	8.714713e-10	1.769902e+01	5.966383e+01
2.420000e-06	2.580608e-06	8.812524e-10	1.798446e+01	6.048557e+01
2.430000e-06	2.621187e-06	8.965498e-10	1.826725e+01	6.128706e+01
2.440000e-06	2.661474e-06	9.131880e-10	1.854802e+01	6.206871e+01
2.450000e-06	2.701652e-06	9.265897e-10	1.882802e+01	6.283093e+01
2.460000e-06	2.741755e-06	9.381902e-10	1.910750e+01	6.357417e+01
2.470000e-06	2.781705e-06	9.495861e-10	1.938591e+01	6.429887e+01
2.480000e-06	2.821504e-06	9.593939e-10	1.966327e+01	6.500546e+01
2.490000e-06	2.861195e-06	9.680654e-10	1.993989e+01	6.569442e+01
2.500000e-06	2.900782e-06	9.758614e-10	2.021577e+01	6.636619e+01
2.510000e-06	2.940229e-06	9.848941e-10	2.049068e+01	6.702122e+01
2.520000e-06	2.979491e-06	9.965257e-10	2.076430e+01	6.765996e+01
2.530000e-06	3.018568e-06	1.008914e-09	2.103663e+01	6.828284e+01
2.540000e-06	3.057428e-06	1.020394e-09	2.130745e+01	6.889031e+01
2.550000e-06	3.096005e-06	1.029699e-09	2.157629e+01	6.948277e+01
2.560000e-06	3.134376e-06	1.038835e-09	2.184370e+01	7.006065e+01
2.570000e-06	3.172610e-06	1.047348e-09	2.211016e+01	7.062433e+01
2.580000e-06	3.210644e-06	1.054997e-09	2.237522e+01	7.117421e+01
2.590000e-06	3.248451e-06	1.063044e-09	2.263870e+01	7.171064e+01
2.600000e-06	3.286024e-06	1.071595e-09	2.290055e+01	7.223399e+01
2.610000e-06	3.323393e-06	1.079206e-09	2.316098e+01	7.274461e+01
2.620000e-06	3.360582e-06	1.085568e-09	2.342015e+01	7.324280e+01
2.630000e-06	3.397443e-06	1.090649e-09	2.367704e+01	7.372889e+01
2.640000e-06	3.434001e-06	1.094336e-09	2.393181e+01	7.420317e+01
2.650000e-06	3.470343e-06	1.099461e-09	2.418508e+01	7.466593e+01
2.660000e-06	3.506430e-06	1.108248e-09	2.443658e+01	7.511743e+01
2.670000e-06	3.542365e-06	1.118408e-09	2.468701e+01	7.555795e+01
2.680000e-06	3.578192e-06	1.126463e-09	2.493669e+01	7.598771e+01
2.690000e-06	3.613922e-06	1.132535e-09	2.518569e+01	7.640697e+01
2.700000e-06	3.649499e-06	1.138770e-09	2.543363e+01	7.681594e+01
2.710000e-06	3.684879e-06	1.145031e-09	2.568020e+01	7.721485e+01
2.720000e-06	3.719953e-06	1.150464e-09	2.592463e+01	7.760391e+01
2.730000e-06	3.754633e-06	1.156493e-09	2.616632e+01	7.798331e+01
2.740000e-06	3.788963e-06	1.162936e-09	2.640557e+01	7.835328e+01
2.750000e-06	3.822848e-06	1.168840e-09	2.664172e+01	7.871398e+01
2.760000e-06	3.856257e-06	1.175008e-09	2.687455e+01	7.906562e+01
2.770000e-06	3.889168e-06	1.181038e-09	2.710390e+01	7.940839e+01
2.780000e-06	3.921621e-06	1.187568e-09	2.733008e+01	7.974246e+01
2.790000e-06	3.953832e-06	1.195659e-09	2.755456e+01	8.006802e+01
2.800000e-06	3.985862e-06	1.201700e-09	2.777778e+01	8.038525e+01
2.810000e-06	4.017678e-06	1.202293e-09	2.799950e+01	8.069434e+01
2.820000e-06	4.049359e-06	1.201860e-09	2.822029e+01	8.099545e+01
2.830000e-06	4.080919e-06	1.204541e-09	2.844024e+01	8.128878e+01
2.840000e-06	4.112204e-06	1.209695e-09	2.865826e+01	8.157449e+01
2.850000e-06	4.143150e-06	1.217959e-09	2.887393e+01	8.185276e+01
2.860000e-06	4.173788e-06	1.227934e-09	2.908744e+01	8.212378e+01
2.870000e-06	4.204124e-06	1.233137e-09	2.929886e+01	8.238771e+01
2.880000e-06	4.234160e-06	1.233164e-09	2.950818e+01	8.264473e+01
2.890000e-06	4.263883e-06	1.233587e-09	2.971533e+01	8.289500e+01
2.900000e-06	4.293314e-06	1.236550e-09	2.992043e+01	8.313870e+01
