# Temperatura_=_-0.56
# Concentracion g/m^3_=_1620.0
# C_Vs_to_Am_M_A/Vsm_=_65563218390.804596
# pendiente_HvsI_1/m_=_3716.3
# ordenada_HvsI_A/m_=_1297.0
# frecuencia_Hz_=_135096.16390569624

Tiempo_(s)	Campo_(V.s)	Magnetizacion_(V.s)	Campo_(kA/m)	Magnetizacion_(A/m)
0.000000e+00	-5.506690e-06	-1.357768e-09	-3.837394e+01	-8.975531e+01
1.000000e-08	-5.506836e-06	-1.354468e-09	-3.837495e+01	-8.969248e+01
2.000000e-08	-5.506788e-06	-1.353385e-09	-3.837462e+01	-8.962890e+01
3.000000e-08	-5.506370e-06	-1.355513e-09	-3.837171e+01	-8.956462e+01
4.000000e-08	-5.505469e-06	-1.355274e-09	-3.836543e+01	-8.949968e+01
5.000000e-08	-5.504028e-06	-1.342092e-09	-3.835539e+01	-8.943414e+01
6.000000e-08	-5.501971e-06	-1.322210e-09	-3.834105e+01	-8.936799e+01
7.000000e-08	-5.499310e-06	-1.319576e-09	-3.832251e+01	-8.930126e+01
8.000000e-08	-5.496121e-06	-1.370048e-09	-3.830029e+01	-8.923393e+01
9.000000e-08	-5.492504e-06	-1.485169e-09	-3.827508e+01	-8.916597e+01
1.000000e-07	-5.488416e-06	-1.498232e-09	-3.824660e+01	-8.909737e+01
1.100000e-07	-5.484026e-06	-1.312584e-09	-3.821600e+01	-8.902806e+01
1.200000e-07	-5.479557e-06	-1.229782e-09	-3.818486e+01	-8.895799e+01
1.300000e-07	-5.474825e-06	-1.312431e-09	-3.815189e+01	-8.888708e+01
1.400000e-07	-5.469610e-06	-1.440607e-09	-3.811554e+01	-8.881525e+01
1.500000e-07	-5.463962e-06	-1.335749e-09	-3.807618e+01	-8.874238e+01
1.600000e-07	-5.457971e-06	-1.236627e-09	-3.803444e+01	-8.866837e+01
1.700000e-07	-5.451531e-06	-1.358521e-09	-3.798956e+01	-8.859310e+01
1.800000e-07	-5.444588e-06	-1.477146e-09	-3.794118e+01	-8.851642e+01
1.900000e-07	-5.437274e-06	-1.407217e-09	-3.789021e+01	-8.843820e+01
2.000000e-07	-5.429758e-06	-1.240764e-09	-3.783783e+01	-8.835827e+01
2.100000e-07	-5.422009e-06	-1.304983e-09	-3.778383e+01	-8.827647e+01
2.200000e-07	-5.413950e-06	-1.412406e-09	-3.772767e+01	-8.819264e+01
2.300000e-07	-5.405664e-06	-1.415108e-09	-3.766993e+01	-8.810658e+01
2.400000e-07	-5.397088e-06	-1.315198e-09	-3.761017e+01	-8.801812e+01
2.500000e-07	-5.387811e-06	-1.345016e-09	-3.754552e+01	-8.792706e+01
2.600000e-07	-5.377643e-06	-1.377963e-09	-3.747466e+01	-8.783322e+01
2.700000e-07	-5.366912e-06	-1.361137e-09	-3.739988e+01	-8.773638e+01
2.800000e-07	-5.355719e-06	-1.308001e-09	-3.732188e+01	-8.763636e+01
2.900000e-07	-5.344079e-06	-1.344725e-09	-3.724077e+01	-8.753295e+01
3.000000e-07	-5.332175e-06	-1.368247e-09	-3.715781e+01	-8.742596e+01
3.100000e-07	-5.319948e-06	-1.330878e-09	-3.707261e+01	-8.731518e+01
3.200000e-07	-5.307233e-06	-1.291822e-09	-3.698400e+01	-8.720043e+01
3.300000e-07	-5.294184e-06	-1.314601e-09	-3.689307e+01	-8.708150e+01
3.400000e-07	-5.280842e-06	-1.348873e-09	-3.680009e+01	-8.695821e+01
3.500000e-07	-5.267022e-06	-1.323662e-09	-3.670379e+01	-8.683038e+01
3.600000e-07	-5.252754e-06	-1.308357e-09	-3.660436e+01	-8.669785e+01
3.700000e-07	-5.238113e-06	-1.340307e-09	-3.650233e+01	-8.656043e+01
3.800000e-07	-5.222899e-06	-1.341721e-09	-3.639631e+01	-8.641798e+01
3.900000e-07	-5.206961e-06	-1.286717e-09	-3.628524e+01	-8.627035e+01
4.000000e-07	-5.190574e-06	-1.309933e-09	-3.617105e+01	-8.611739e+01
4.100000e-07	-5.173901e-06	-1.348154e-09	-3.605486e+01	-8.595900e+01
4.200000e-07	-5.156855e-06	-1.295147e-09	-3.593608e+01	-8.579506e+01
4.300000e-07	-5.139579e-06	-1.245543e-09	-3.581569e+01	-8.562546e+01
4.400000e-07	-5.122128e-06	-1.337591e-09	-3.569408e+01	-8.545013e+01
4.500000e-07	-5.104208e-06	-1.337449e-09	-3.556920e+01	-8.526899e+01
4.600000e-07	-5.085781e-06	-1.248929e-09	-3.544079e+01	-8.508200e+01
4.700000e-07	-5.066965e-06	-1.259930e-09	-3.530967e+01	-8.488911e+01
4.800000e-07	-5.047764e-06	-1.338294e-09	-3.517587e+01	-8.469029e+01
4.900000e-07	-5.028300e-06	-1.269809e-09	-3.504023e+01	-8.448555e+01
5.000000e-07	-5.008628e-06	-1.243491e-09	-3.490314e+01	-8.427488e+01
5.100000e-07	-4.988742e-06	-1.293907e-09	-3.476456e+01	-8.405832e+01
5.200000e-07	-4.968562e-06	-1.264265e-09	-3.462394e+01	-8.383590e+01
5.300000e-07	-4.947980e-06	-1.208688e-09	-3.448051e+01	-8.360768e+01
5.400000e-07	-4.927124e-06	-1.287915e-09	-3.433517e+01	-8.337373e+01
5.500000e-07	-4.905915e-06	-1.294018e-09	-3.418738e+01	-8.313414e+01
5.600000e-07	-4.884281e-06	-1.207107e-09	-3.403662e+01	-8.288901e+01
5.700000e-07	-4.862389e-06	-1.219110e-09	-3.388406e+01	-8.263845e+01
5.800000e-07	-4.840150e-06	-1.278284e-09	-3.372908e+01	-8.238260e+01
5.900000e-07	-4.817527e-06	-1.227297e-09	-3.357144e+01	-8.212159e+01
6.000000e-07	-4.794594e-06	-1.210871e-09	-3.341162e+01	-8.185557e+01
6.100000e-07	-4.771344e-06	-1.255024e-09	-3.324961e+01	-8.158472e+01
6.200000e-07	-4.747818e-06	-1.227238e-09	-3.308566e+01	-8.130919e+01
6.300000e-07	-4.724032e-06	-1.186313e-09	-3.291991e+01	-8.102917e+01
6.400000e-07	-4.700044e-06	-1.209834e-09	-3.275274e+01	-8.074485e+01
6.500000e-07	-4.675761e-06	-1.212368e-09	-3.258352e+01	-8.045642e+01
6.600000e-07	-4.651148e-06	-1.184961e-09	-3.241200e+01	-8.016408e+01
6.700000e-07	-4.626125e-06	-1.203909e-09	-3.223763e+01	-7.986803e+01
6.800000e-07	-4.600499e-06	-1.209271e-09	-3.205905e+01	-7.956846e+01
6.900000e-07	-4.574201e-06	-1.188761e-09	-3.187579e+01	-7.926559e+01
7.000000e-07	-4.547352e-06	-1.182167e-09	-3.168869e+01	-7.895960e+01
7.100000e-07	-4.520148e-06	-1.183480e-09	-3.149912e+01	-7.865071e+01
7.200000e-07	-4.492663e-06	-1.162588e-09	-3.130758e+01	-7.833909e+01
7.300000e-07	-4.464944e-06	-1.162359e-09	-3.111443e+01	-7.802495e+01
7.400000e-07	-4.437037e-06	-1.160511e-09	-3.091995e+01	-7.770844e+01
7.500000e-07	-4.408928e-06	-1.155487e-09	-3.072407e+01	-7.738976e+01
7.600000e-07	-4.380601e-06	-1.151020e-09	-3.052667e+01	-7.706905e+01
7.700000e-07	-4.352052e-06	-1.152308e-09	-3.032773e+01	-7.674646e+01
7.800000e-07	-4.323174e-06	-1.136915e-09	-3.012648e+01	-7.642214e+01
7.900000e-07	-4.293938e-06	-1.139507e-09	-2.992275e+01	-7.609620e+01
8.000000e-07	-4.264403e-06	-1.138570e-09	-2.971693e+01	-7.576875e+01
8.100000e-07	-4.234615e-06	-1.123536e-09	-2.950935e+01	-7.543987e+01
8.200000e-07	-4.204562e-06	-1.107594e-09	-2.929992e+01	-7.510965e+01
8.300000e-07	-4.174268e-06	-1.112296e-09	-2.908882e+01	-7.477814e+01
8.400000e-07	-4.143699e-06	-1.105235e-09	-2.887580e+01	-7.444538e+01
8.500000e-07	-4.112806e-06	-1.094983e-09	-2.866051e+01	-7.411139e+01
8.600000e-07	-4.081606e-06	-1.096102e-09	-2.844309e+01	-7.377617e+01
8.700000e-07	-4.050180e-06	-1.097757e-09	-2.822410e+01	-7.343970e+01
8.800000e-07	-4.018551e-06	-1.084223e-09	-2.800369e+01	-7.310194e+01
8.900000e-07	-3.986728e-06	-1.080750e-09	-2.778192e+01	-7.276284e+01
9.000000e-07	-3.954753e-06	-1.079787e-09	-2.755910e+01	-7.242233e+01
9.100000e-07	-3.922528e-06	-1.064967e-09	-2.733454e+01	-7.208031e+01
9.200000e-07	-3.889951e-06	-1.052113e-09	-2.710753e+01	-7.173668e+01
9.300000e-07	-3.857071e-06	-1.052938e-09	-2.687839e+01	-7.139130e+01
9.400000e-07	-3.823833e-06	-1.049446e-09	-2.664677e+01	-7.104403e+01
9.500000e-07	-3.790065e-06	-1.039902e-09	-2.641146e+01	-7.069472e+01
9.600000e-07	-3.755756e-06	-1.039112e-09	-2.617238e+01	-7.034319e+01
9.700000e-07	-3.720995e-06	-1.033177e-09	-2.593014e+01	-6.998926e+01
9.800000e-07	-3.685848e-06	-1.022089e-09	-2.568521e+01	-6.963274e+01
9.900000e-07	-3.650358e-06	-1.016384e-09	-2.543790e+01	-6.927341e+01
1.000000e-06	-3.614687e-06	-1.017769e-09	-2.518932e+01	-6.891107e+01
1.010000e-06	-3.578918e-06	-1.006470e-09	-2.494006e+01	-6.854550e+01
1.020000e-06	-3.543055e-06	-9.981947e-10	-2.469014e+01	-6.817648e+01
1.030000e-06	-3.507069e-06	-9.925091e-10	-2.443937e+01	-6.780376e+01
1.040000e-06	-3.470913e-06	-9.856472e-10	-2.418742e+01	-6.742713e+01
1.050000e-06	-3.434529e-06	-9.736392e-10	-2.393387e+01	-6.704635e+01
1.060000e-06	-3.397852e-06	-9.703542e-10	-2.367828e+01	-6.666120e+01
1.070000e-06	-3.360895e-06	-9.665316e-10	-2.342075e+01	-6.627146e+01
1.080000e-06	-3.323656e-06	-9.599616e-10	-2.316124e+01	-6.587689e+01
1.090000e-06	-3.286226e-06	-9.516259e-10	-2.290041e+01	-6.547729e+01
1.100000e-06	-3.248594e-06	-9.456784e-10	-2.263816e+01	-6.507246e+01
1.110000e-06	-3.210675e-06	-9.332344e-10	-2.237392e+01	-6.466219e+01
1.120000e-06	-3.172538e-06	-9.235184e-10	-2.210816e+01	-6.424630e+01
1.130000e-06	-3.134152e-06	-9.154710e-10	-2.184066e+01	-6.382462e+01
1.140000e-06	-3.095555e-06	-9.088255e-10	-2.157170e+01	-6.339698e+01
1.150000e-06	-3.056864e-06	-9.003028e-10	-2.130207e+01	-6.296324e+01
1.160000e-06	-3.017924e-06	-8.945949e-10	-2.103072e+01	-6.252327e+01
1.170000e-06	-2.978714e-06	-8.891809e-10	-2.075748e+01	-6.207693e+01
1.180000e-06	-2.939287e-06	-8.847138e-10	-2.048272e+01	-6.162414e+01
1.190000e-06	-2.899666e-06	-8.803613e-10	-2.020662e+01	-6.116478e+01
1.200000e-06	-2.859919e-06	-8.726592e-10	-1.992964e+01	-6.069880e+01
1.210000e-06	-2.820080e-06	-8.617306e-10	-1.965202e+01	-6.022612e+01
1.220000e-06	-2.780171e-06	-8.518669e-10	-1.937391e+01	-5.974670e+01
1.230000e-06	-2.740139e-06	-8.433672e-10	-1.909494e+01	-5.926050e+01
1.240000e-06	-2.699898e-06	-8.320737e-10	-1.881452e+01	-5.876750e+01
1.250000e-06	-2.659476e-06	-8.236069e-10	-1.853283e+01	-5.826767e+01
1.260000e-06	-2.618911e-06	-8.165922e-10	-1.825015e+01	-5.776103e+01
1.270000e-06	-2.578024e-06	-8.093906e-10	-1.796523e+01	-5.724756e+01
1.280000e-06	-2.536885e-06	-8.036829e-10	-1.767855e+01	-5.672729e+01
1.290000e-06	-2.495610e-06	-7.988261e-10	-1.739092e+01	-5.620022e+01
1.300000e-06	-2.454034e-06	-7.896102e-10	-1.710119e+01	-5.566637e+01
1.310000e-06	-2.412148e-06	-7.788696e-10	-1.680930e+01	-5.512576e+01
1.320000e-06	-2.369936e-06	-7.670529e-10	-1.651515e+01	-5.457841e+01
1.330000e-06	-2.327387e-06	-7.554086e-10	-1.621864e+01	-5.402431e+01
1.340000e-06	-2.284555e-06	-7.445826e-10	-1.592015e+01	-5.346349e+01
1.350000e-06	-2.241434e-06	-7.372838e-10	-1.561966e+01	-5.289593e+01
1.360000e-06	-2.198120e-06	-7.289640e-10	-1.531782e+01	-5.232162e+01
1.370000e-06	-2.154688e-06	-7.235140e-10	-1.501517e+01	-5.174054e+01
1.380000e-06	-2.111088e-06	-7.186968e-10	-1.471133e+01	-5.115264e+01
1.390000e-06	-2.067341e-06	-7.130225e-10	-1.440648e+01	-5.055786e+01
1.400000e-06	-2.023554e-06	-7.026108e-10	-1.410135e+01	-4.995612e+01
1.410000e-06	-1.979714e-06	-6.909082e-10	-1.379584e+01	-4.934733e+01
1.420000e-06	-1.935783e-06	-6.784400e-10	-1.348970e+01	-4.873136e+01
1.430000e-06	-1.891810e-06	-6.679020e-10	-1.318327e+01	-4.810806e+01
1.440000e-06	-1.847756e-06	-6.592914e-10	-1.287628e+01	-4.747726e+01
1.450000e-06	-1.803561e-06	-6.522065e-10	-1.256830e+01	-4.683875e+01
1.460000e-06	-1.759330e-06	-6.430617e-10	-1.226007e+01	-4.619232e+01
1.470000e-06	-1.714995e-06	-6.324819e-10	-1.195112e+01	-4.553769e+01
1.480000e-06	-1.670471e-06	-6.224933e-10	-1.164085e+01	-4.487459e+01
1.490000e-06	-1.625852e-06	-6.138824e-10	-1.132992e+01	-4.420270e+01
1.500000e-06	-1.581184e-06	-6.054766e-10	-1.101864e+01	-4.352167e+01
1.510000e-06	-1.536383e-06	-5.970344e-10	-1.070645e+01	-4.283112e+01
1.520000e-06	-1.491442e-06	-5.846810e-10	-1.039327e+01	-4.213067e+01
1.530000e-06	-1.446405e-06	-5.716067e-10	-1.007943e+01	-4.141987e+01
1.540000e-06	-1.401291e-06	-5.611612e-10	-9.765039e+00	-4.069829e+01
1.550000e-06	-1.356052e-06	-5.503764e-10	-9.449789e+00	-3.996543e+01
1.560000e-06	-1.310717e-06	-5.393449e-10	-9.133870e+00	-3.922080e+01
1.570000e-06	-1.265316e-06	-5.270712e-10	-8.817488e+00	-3.846389e+01
1.580000e-06	-1.219823e-06	-5.184614e-10	-8.500463e+00	-3.769416e+01
1.590000e-06	-1.174229e-06	-5.093909e-10	-8.182733e+00	-3.691107e+01
1.600000e-06	-1.128452e-06	-4.962076e-10	-7.863736e+00	-3.611405e+01
1.610000e-06	-1.082542e-06	-4.815724e-10	-7.543803e+00	-3.530256e+01
1.620000e-06	-1.036528e-06	-4.699631e-10	-7.223155e+00	-3.447602e+01
1.630000e-06	-9.904222e-07	-4.602784e-10	-6.901859e+00	-3.363387e+01
1.640000e-06	-9.444153e-07	-4.503652e-10	-6.581256e+00	-3.277555e+01
1.650000e-06	-8.984113e-07	-4.355832e-10	-6.260672e+00	-3.190051e+01
1.660000e-06	-8.522770e-07	-4.198328e-10	-5.939180e+00	-3.100822e+01
1.670000e-06	-8.061336e-07	-4.038645e-10	-5.617625e+00	-3.009815e+01
1.680000e-06	-7.599154e-07	-3.889727e-10	-5.295549e+00	-2.916982e+01
1.690000e-06	-7.136538e-07	-3.758028e-10	-4.973170e+00	-2.822275e+01
1.700000e-06	-6.674141e-07	-3.655607e-10	-4.650944e+00	-2.725652e+01
1.710000e-06	-6.211859e-07	-3.550763e-10	-4.328798e+00	-2.627072e+01
1.720000e-06	-5.748246e-07	-3.419091e-10	-4.005725e+00	-2.526499e+01
1.730000e-06	-5.283390e-07	-3.223325e-10	-3.681785e+00	-2.423901e+01
1.740000e-06	-4.818541e-07	-2.992159e-10	-3.357850e+00	-2.319253e+01
1.750000e-06	-4.352900e-07	-2.784523e-10	-3.033364e+00	-2.212533e+01
1.760000e-06	-3.886296e-07	-2.602571e-10	-2.708205e+00	-2.103725e+01
1.770000e-06	-3.419024e-07	-2.463344e-10	-2.382582e+00	-1.992819e+01
1.780000e-06	-2.951475e-07	-2.364292e-10	-2.056766e+00	-1.879812e+01
1.790000e-06	-2.483498e-07	-2.263360e-10	-1.730652e+00	-1.764707e+01
1.800000e-06	-2.015578e-07	-2.105666e-10	-1.404576e+00	-1.647514e+01
1.810000e-06	-1.548684e-07	-1.914222e-10	-1.079217e+00	-1.528248e+01
1.820000e-06	-1.082080e-07	-1.713919e-10	-7.540586e-01	-1.406935e+01
1.830000e-06	-6.149766e-08	-1.522687e-10	-4.285528e-01	-1.283604e+01
1.840000e-06	-1.477834e-08	-1.328509e-10	-1.029844e-01	-1.158295e+01
1.850000e-06	3.200445e-08	-1.137948e-10	2.230263e-01	-1.031054e+01
1.860000e-06	7.878365e-08	-9.711165e-11	5.490120e-01	-9.019318e+00
1.870000e-06	1.254528e-07	-8.318250e-11	8.742309e-01	-7.709906e+00
1.880000e-06	1.721256e-07	-6.735433e-11	1.199475e+00	-6.382973e+00
1.890000e-06	2.188447e-07	-4.855104e-11	1.525042e+00	-5.039264e+00
1.900000e-06	2.654483e-07	-2.825066e-11	1.849804e+00	-3.679594e+00
1.910000e-06	3.119171e-07	-7.305279e-12	2.173626e+00	-2.304843e+00
1.920000e-06	3.584292e-07	1.326669e-11	2.497751e+00	-9.159518e-01
1.930000e-06	4.049732e-07	3.327476e-11	2.822098e+00	4.860747e-01
1.940000e-06	4.514521e-07	5.495047e-11	3.145991e+00	1.900177e+00
1.950000e-06	4.979271e-07	7.543766e-11	3.469856e+00	3.325244e+00
1.960000e-06	5.444574e-07	9.527494e-11	3.794108e+00	4.760113e+00
1.970000e-06	5.909006e-07	1.153244e-10	4.117752e+00	6.203581e+00
1.980000e-06	6.372160e-07	1.331973e-10	4.440506e+00	7.654404e+00
1.990000e-06	6.834049e-07	1.510940e-10	4.762378e+00	9.111304e+00
2.000000e-06	7.295927e-07	1.702533e-10	5.084242e+00	1.057298e+01
2.010000e-06	7.758072e-07	1.924923e-10	5.406293e+00	1.203809e+01
2.020000e-06	8.219857e-07	2.167085e-10	5.728092e+00	1.350530e+01
2.030000e-06	8.681159e-07	2.399331e-10	6.049555e+00	1.497325e+01
2.040000e-06	9.141933e-07	2.605121e-10	6.370651e+00	1.644057e+01
2.050000e-06	9.602022e-07	2.793241e-10	6.691268e+00	1.790591e+01
2.060000e-06	1.006112e-06	2.968048e-10	7.011196e+00	1.936789e+01
2.070000e-06	1.051921e-06	3.150426e-10	7.330418e+00	2.082518e+01
2.080000e-06	1.097685e-06	3.342787e-10	7.649328e+00	2.227644e+01
2.090000e-06	1.143468e-06	3.545209e-10	7.968374e+00	2.372037e+01
2.100000e-06	1.189196e-06	3.784217e-10	8.287033e+00	2.515568e+01
2.110000e-06	1.234772e-06	4.006988e-10	8.604633e+00	2.658114e+01
2.120000e-06	1.280191e-06	4.189637e-10	8.921144e+00	2.799552e+01
2.130000e-06	1.325585e-06	4.373189e-10	9.237476e+00	2.939767e+01
2.140000e-06	1.370965e-06	4.563222e-10	9.553708e+00	3.078646e+01
2.150000e-06	1.416148e-06	4.746828e-10	9.868576e+00	3.216082e+01
2.160000e-06	1.461107e-06	4.935878e-10	1.018187e+01	3.351975e+01
2.170000e-06	1.506042e-06	5.126214e-10	1.049501e+01	3.486227e+01
2.180000e-06	1.550896e-06	5.318686e-10	1.080758e+01	3.618751e+01
2.190000e-06	1.595582e-06	5.510805e-10	1.111898e+01	3.749461e+01
2.200000e-06	1.640140e-06	5.703431e-10	1.142948e+01	3.878282e+01
2.210000e-06	1.684603e-06	5.876009e-10	1.173933e+01	4.005142e+01
2.220000e-06	1.728974e-06	6.032347e-10	1.204853e+01	4.129980e+01
2.230000e-06	1.773188e-06	6.203682e-10	1.235664e+01	4.252737e+01
2.240000e-06	1.817253e-06	6.358595e-10	1.266371e+01	4.373365e+01
2.250000e-06	1.861230e-06	6.519487e-10	1.297017e+01	4.491821e+01
2.260000e-06	1.905164e-06	6.672895e-10	1.327633e+01	4.608068e+01
2.270000e-06	1.949062e-06	6.852127e-10	1.358224e+01	4.722078e+01
2.280000e-06	1.992898e-06	7.046992e-10	1.388772e+01	4.833829e+01
2.290000e-06	2.036668e-06	7.225431e-10	1.419273e+01	4.943303e+01
2.300000e-06	2.080377e-06	7.373318e-10	1.449732e+01	5.050493e+01
2.310000e-06	2.124065e-06	7.476729e-10	1.480176e+01	5.155393e+01
2.320000e-06	2.167706e-06	7.591858e-10	1.510588e+01	5.258007e+01
2.330000e-06	2.211221e-06	7.736193e-10	1.540912e+01	5.358342e+01
2.340000e-06	2.254544e-06	7.897981e-10	1.571103e+01	5.456411e+01
2.350000e-06	2.297605e-06	8.087509e-10	1.601109e+01	5.552232e+01
2.360000e-06	2.340391e-06	8.291995e-10	1.630926e+01	5.645829e+01
2.370000e-06	2.382854e-06	8.436238e-10	1.660516e+01	5.737227e+01
2.380000e-06	2.424967e-06	8.519067e-10	1.689863e+01	5.826457e+01
2.390000e-06	2.466742e-06	8.601615e-10	1.718975e+01	5.913554e+01
2.400000e-06	2.508040e-06	8.698984e-10	1.747753e+01	5.998555e+01
2.410000e-06	2.548985e-06	8.806022e-10	1.776286e+01	6.081500e+01
2.420000e-06	2.589759e-06	8.940907e-10	1.804700e+01	6.162432e+01
2.430000e-06	2.630312e-06	9.087176e-10	1.832960e+01	6.241394e+01
2.440000e-06	2.670727e-06	9.223196e-10	1.861124e+01	6.318433e+01
2.450000e-06	2.710943e-06	9.348282e-10	1.889149e+01	6.393595e+01
2.460000e-06	2.750951e-06	9.461001e-10	1.917029e+01	6.466930e+01
2.470000e-06	2.790851e-06	9.555028e-10	1.944834e+01	6.538485e+01
2.480000e-06	2.830640e-06	9.644962e-10	1.972561e+01	6.608310e+01
2.490000e-06	2.870367e-06	9.740341e-10	2.000245e+01	6.676453e+01
2.500000e-06	2.909997e-06	9.829796e-10	2.027862e+01	6.742963e+01
2.510000e-06	2.949500e-06	9.914115e-10	2.055389e+01	6.807888e+01
2.520000e-06	2.988809e-06	1.001545e-09	2.082783e+01	6.871275e+01
2.530000e-06	3.027911e-06	1.012501e-09	2.110031e+01	6.933169e+01
2.540000e-06	3.066793e-06	1.023344e-09	2.137126e+01	6.993616e+01
2.550000e-06	3.105310e-06	1.032991e-09	2.163967e+01	7.052659e+01
2.560000e-06	3.143528e-06	1.042083e-09	2.190600e+01	7.110339e+01
2.570000e-06	3.181599e-06	1.050072e-09	2.217130e+01	7.166698e+01
2.580000e-06	3.219526e-06	1.055293e-09	2.243560e+01	7.221773e+01
2.590000e-06	3.257319e-06	1.059988e-09	2.269896e+01	7.275601e+01
2.600000e-06	3.294929e-06	1.066302e-09	2.296105e+01	7.328216e+01
2.610000e-06	3.332199e-06	1.071683e-09	2.322077e+01	7.379652e+01
2.620000e-06	3.369120e-06	1.075819e-09	2.347806e+01	7.429940e+01
2.630000e-06	3.405820e-06	1.081784e-09	2.373381e+01	7.479108e+01
2.640000e-06	3.442289e-06	1.090034e-09	2.398794e+01	7.527184e+01
2.650000e-06	3.478493e-06	1.099702e-09	2.424024e+01	7.574194e+01
2.660000e-06	3.514553e-06	1.107798e-09	2.449152e+01	7.620162e+01
2.670000e-06	3.550483e-06	1.112518e-09	2.474191e+01	7.665109e+01
2.680000e-06	3.586341e-06	1.116076e-09	2.499179e+01	7.709057e+01
2.690000e-06	3.622130e-06	1.122737e-09	2.524118e+01	7.752025e+01
2.700000e-06	3.657710e-06	1.129847e-09	2.548913e+01	7.794032e+01
2.710000e-06	3.693085e-06	1.135302e-09	2.573565e+01	7.835093e+01
2.720000e-06	3.728178e-06	1.141963e-09	2.598019e+01	7.875226e+01
2.730000e-06	3.762816e-06	1.150094e-09	2.622157e+01	7.914444e+01
2.740000e-06	3.796987e-06	1.157321e-09	2.645969e+01	7.952763e+01
2.750000e-06	3.830726e-06	1.161053e-09	2.669481e+01	7.990197e+01
2.760000e-06	3.863988e-06	1.162399e-09	2.692660e+01	8.026757e+01
2.770000e-06	3.896751e-06	1.164236e-09	2.715491e+01	8.062456e+01
2.780000e-06	3.929120e-06	1.167206e-09	2.738048e+01	8.097308e+01
2.790000e-06	3.961262e-06	1.171531e-09	2.760447e+01	8.131324e+01
2.800000e-06	3.993258e-06	1.177410e-09	2.782743e+01	8.164517e+01
2.810000e-06	4.025113e-06	1.185232e-09	2.804942e+01	8.196898e+01
2.820000e-06	4.056780e-06	1.191335e-09	2.827009e+01	8.228479e+01
2.830000e-06	4.088244e-06	1.194844e-09	2.848935e+01	8.259274e+01
2.840000e-06	4.119493e-06	1.198745e-09	2.870711e+01	8.289294e+01
2.850000e-06	4.150400e-06	1.205924e-09	2.892249e+01	8.318552e+01
2.860000e-06	4.180955e-06	1.213300e-09	2.913542e+01	8.347061e+01
2.870000e-06	4.211186e-06	1.217951e-09	2.934609e+01	8.374834e+01
2.880000e-06	4.241128e-06	1.221280e-09	2.955474e+01	8.401885e+01
2.890000e-06	4.270819e-06	1.223697e-09	2.976165e+01	8.428229e+01
2.900000e-06	4.300272e-06	1.225824e-09	2.996689e+01	8.453878e+01
