# Temperatura_=_-0.5
# Concentracion g/m^3_=_1620.0
# C_Vs_to_Am_M_A/Vsm_=_65563218390.804596
# pendiente_HvsI_1/m_=_3716.3
# ordenada_HvsI_A/m_=_1297.0
# frecuencia_Hz_=_135094.5475485029

Tiempo_(s)	Campo_(V.s)	Magnetizacion_(V.s)	Campo_(kA/m)	Magnetizacion_(A/m)
0.000000e+00	-5.512706e-06	-1.291708e-09	-3.838022e+01	-8.603605e+01
1.000000e-08	-5.512778e-06	-1.286558e-09	-3.838072e+01	-8.601108e+01
2.000000e-08	-5.512585e-06	-1.284806e-09	-3.837938e+01	-8.598707e+01
3.000000e-08	-5.511940e-06	-1.283489e-09	-3.837489e+01	-8.596385e+01
4.000000e-08	-5.510721e-06	-1.278003e-09	-3.836640e+01	-8.594120e+01
5.000000e-08	-5.508932e-06	-1.267376e-09	-3.835394e+01	-8.591891e+01
6.000000e-08	-5.506501e-06	-1.270339e-09	-3.833702e+01	-8.589673e+01
7.000000e-08	-5.503543e-06	-1.314784e-09	-3.831643e+01	-8.587439e+01
8.000000e-08	-5.500147e-06	-1.349102e-09	-3.829278e+01	-8.585161e+01
9.000000e-08	-5.496260e-06	-1.358862e-09	-3.826572e+01	-8.582808e+01
1.000000e-07	-5.492027e-06	-1.310468e-09	-3.823625e+01	-8.580349e+01
1.100000e-07	-5.487548e-06	-1.231851e-09	-3.820507e+01	-8.577752e+01
1.200000e-07	-5.482828e-06	-1.223366e-09	-3.817220e+01	-8.574984e+01
1.300000e-07	-5.477775e-06	-1.287841e-09	-3.813703e+01	-8.572012e+01
1.400000e-07	-5.472379e-06	-1.303256e-09	-3.809945e+01	-8.568802e+01
1.500000e-07	-5.466672e-06	-1.270511e-09	-3.805973e+01	-8.565321e+01
1.600000e-07	-5.460557e-06	-1.221008e-09	-3.801715e+01	-8.561536e+01
1.700000e-07	-5.453998e-06	-1.309638e-09	-3.797148e+01	-8.557414e+01
1.800000e-07	-5.447018e-06	-1.325592e-09	-3.792289e+01	-8.552923e+01
1.900000e-07	-5.439690e-06	-1.287935e-09	-3.787187e+01	-8.548035e+01
2.000000e-07	-5.432085e-06	-1.218644e-09	-3.781892e+01	-8.542718e+01
2.100000e-07	-5.424294e-06	-1.292482e-09	-3.776468e+01	-8.536947e+01
2.200000e-07	-5.416169e-06	-1.344166e-09	-3.770812e+01	-8.530695e+01
2.300000e-07	-5.407744e-06	-1.317121e-09	-3.764946e+01	-8.523940e+01
2.400000e-07	-5.398870e-06	-1.263297e-09	-3.758767e+01	-8.516659e+01
2.500000e-07	-5.389257e-06	-1.277646e-09	-3.752075e+01	-8.508833e+01
2.600000e-07	-5.378959e-06	-1.298771e-09	-3.744905e+01	-8.500445e+01
2.700000e-07	-5.368067e-06	-1.267968e-09	-3.737322e+01	-8.491482e+01
2.800000e-07	-5.356726e-06	-1.276633e-09	-3.729427e+01	-8.481930e+01
2.900000e-07	-5.345024e-06	-1.288694e-09	-3.721280e+01	-8.471781e+01
3.000000e-07	-5.333047e-06	-1.292005e-09	-3.712941e+01	-8.461028e+01
3.100000e-07	-5.320619e-06	-1.251623e-09	-3.704288e+01	-8.449667e+01
3.200000e-07	-5.307678e-06	-1.275861e-09	-3.695278e+01	-8.437695e+01
3.300000e-07	-5.294360e-06	-1.256019e-09	-3.686006e+01	-8.425113e+01
3.400000e-07	-5.280681e-06	-1.276720e-09	-3.676483e+01	-8.411924e+01
3.500000e-07	-5.266664e-06	-1.271208e-09	-3.666724e+01	-8.398133e+01
3.600000e-07	-5.252251e-06	-1.289793e-09	-3.656689e+01	-8.383748e+01
3.700000e-07	-5.237315e-06	-1.262089e-09	-3.646291e+01	-8.368777e+01
3.800000e-07	-5.221682e-06	-1.279515e-09	-3.635407e+01	-8.353232e+01
3.900000e-07	-5.205549e-06	-1.258193e-09	-3.624175e+01	-8.337124e+01
4.000000e-07	-5.189053e-06	-1.252529e-09	-3.612690e+01	-8.320468e+01
4.100000e-07	-5.172211e-06	-1.257766e-09	-3.600965e+01	-8.303279e+01
4.200000e-07	-5.155135e-06	-1.266983e-09	-3.589076e+01	-8.285572e+01
4.300000e-07	-5.137710e-06	-1.231130e-09	-3.576944e+01	-8.267365e+01
4.400000e-07	-5.119957e-06	-1.254961e-09	-3.564585e+01	-8.248675e+01
4.500000e-07	-5.101746e-06	-1.271944e-09	-3.551906e+01	-8.229519e+01
4.600000e-07	-5.083057e-06	-1.230034e-09	-3.538894e+01	-8.209915e+01
4.700000e-07	-5.064031e-06	-1.214712e-09	-3.525648e+01	-8.189882e+01
4.800000e-07	-5.044679e-06	-1.271671e-09	-3.512175e+01	-8.169435e+01
4.900000e-07	-5.025086e-06	-1.251727e-09	-3.498534e+01	-8.148593e+01
5.000000e-07	-5.005342e-06	-1.202702e-09	-3.484788e+01	-8.127372e+01
5.100000e-07	-4.985369e-06	-1.240027e-09	-3.470882e+01	-8.105786e+01
5.200000e-07	-4.965046e-06	-1.255559e-09	-3.456733e+01	-8.083850e+01
5.300000e-07	-4.944329e-06	-1.206108e-09	-3.442310e+01	-8.061577e+01
5.400000e-07	-4.923370e-06	-1.217593e-09	-3.427718e+01	-8.038980e+01
5.500000e-07	-4.902050e-06	-1.252319e-09	-3.412875e+01	-8.016068e+01
5.600000e-07	-4.880304e-06	-1.197280e-09	-3.397735e+01	-7.992852e+01
5.700000e-07	-4.858242e-06	-1.191732e-09	-3.382375e+01	-7.969337e+01
5.800000e-07	-4.835765e-06	-1.239308e-09	-3.366726e+01	-7.945531e+01
5.900000e-07	-4.812920e-06	-1.216310e-09	-3.350821e+01	-7.921438e+01
6.000000e-07	-4.789769e-06	-1.169982e-09	-3.334703e+01	-7.897060e+01
6.100000e-07	-4.766324e-06	-1.208723e-09	-3.318380e+01	-7.872399e+01
6.200000e-07	-4.742646e-06	-1.200148e-09	-3.301896e+01	-7.847454e+01
6.300000e-07	-4.718800e-06	-1.160736e-09	-3.285293e+01	-7.822224e+01
6.400000e-07	-4.694672e-06	-1.172422e-09	-3.268495e+01	-7.796706e+01
6.500000e-07	-4.670186e-06	-1.196034e-09	-3.251448e+01	-7.770894e+01
6.600000e-07	-4.645266e-06	-1.158485e-09	-3.234098e+01	-7.744783e+01
6.700000e-07	-4.619848e-06	-1.165427e-09	-3.216402e+01	-7.718367e+01
6.800000e-07	-4.593820e-06	-1.183583e-09	-3.198280e+01	-7.691636e+01
6.900000e-07	-4.567202e-06	-1.165334e-09	-3.179749e+01	-7.664583e+01
7.000000e-07	-4.540186e-06	-1.140663e-09	-3.160940e+01	-7.637198e+01
7.100000e-07	-4.512864e-06	-1.158835e-09	-3.141918e+01	-7.609472e+01
7.200000e-07	-4.485316e-06	-1.151028e-09	-3.122739e+01	-7.581393e+01
7.300000e-07	-4.457591e-06	-1.133149e-09	-3.103436e+01	-7.552951e+01
7.400000e-07	-4.429717e-06	-1.131316e-09	-3.084030e+01	-7.524136e+01
7.500000e-07	-4.401690e-06	-1.135573e-09	-3.064517e+01	-7.494938e+01
7.600000e-07	-4.373347e-06	-1.118541e-09	-3.044784e+01	-7.465345e+01
7.700000e-07	-4.344565e-06	-1.113462e-09	-3.024746e+01	-7.435348e+01
7.800000e-07	-4.315455e-06	-1.118161e-09	-3.004479e+01	-7.404938e+01
7.900000e-07	-4.286099e-06	-1.110326e-09	-2.984041e+01	-7.374107e+01
8.000000e-07	-4.256467e-06	-1.096680e-09	-2.963411e+01	-7.342845e+01
8.100000e-07	-4.226493e-06	-1.092085e-09	-2.942543e+01	-7.311147e+01
8.200000e-07	-4.196253e-06	-1.083723e-09	-2.921489e+01	-7.279006e+01
8.300000e-07	-4.165787e-06	-1.070154e-09	-2.900278e+01	-7.246417e+01
8.400000e-07	-4.134964e-06	-1.070054e-09	-2.878819e+01	-7.213377e+01
8.500000e-07	-4.103770e-06	-1.066340e-09	-2.857101e+01	-7.179882e+01
8.600000e-07	-4.072397e-06	-1.058615e-09	-2.835259e+01	-7.145933e+01
8.700000e-07	-4.040871e-06	-1.051360e-09	-2.813310e+01	-7.111527e+01
8.800000e-07	-4.009147e-06	-1.051397e-09	-2.791223e+01	-7.076667e+01
8.900000e-07	-3.977280e-06	-1.039373e-09	-2.769037e+01	-7.041355e+01
9.000000e-07	-3.945227e-06	-1.030014e-09	-2.746722e+01	-7.005593e+01
9.100000e-07	-3.912807e-06	-1.021267e-09	-2.724150e+01	-6.969387e+01
9.200000e-07	-3.879925e-06	-1.015169e-09	-2.701257e+01	-6.932741e+01
9.300000e-07	-3.846667e-06	-1.006230e-09	-2.678103e+01	-6.895663e+01
9.400000e-07	-3.813034e-06	-1.006565e-09	-2.654687e+01	-6.858160e+01
9.500000e-07	-3.778861e-06	-9.996861e-10	-2.630895e+01	-6.820239e+01
9.600000e-07	-3.744176e-06	-9.931170e-10	-2.606747e+01	-6.781910e+01
9.700000e-07	-3.709196e-06	-9.876874e-10	-2.582393e+01	-6.743180e+01
9.800000e-07	-3.673926e-06	-9.888438e-10	-2.557838e+01	-6.704061e+01
9.900000e-07	-3.638428e-06	-9.794333e-10	-2.533124e+01	-6.664562e+01
1.000000e-06	-3.602801e-06	-9.741835e-10	-2.508319e+01	-6.624693e+01
1.010000e-06	-3.567045e-06	-9.713509e-10	-2.483426e+01	-6.584462e+01
1.020000e-06	-3.531140e-06	-9.682970e-10	-2.458428e+01	-6.543881e+01
1.030000e-06	-3.495061e-06	-9.601295e-10	-2.433310e+01	-6.502957e+01
1.040000e-06	-3.458756e-06	-9.558873e-10	-2.408034e+01	-6.461701e+01
1.050000e-06	-3.422194e-06	-9.480284e-10	-2.382579e+01	-6.420118e+01
1.060000e-06	-3.385351e-06	-9.377804e-10	-2.356928e+01	-6.378218e+01
1.070000e-06	-3.348210e-06	-9.317479e-10	-2.331070e+01	-6.336005e+01
1.080000e-06	-3.310809e-06	-9.278153e-10	-2.305031e+01	-6.293486e+01
1.090000e-06	-3.273147e-06	-9.209458e-10	-2.278810e+01	-6.250663e+01
1.100000e-06	-3.235227e-06	-9.141197e-10	-2.252410e+01	-6.207541e+01
1.110000e-06	-3.197111e-06	-9.086575e-10	-2.225873e+01	-6.164120e+01
1.120000e-06	-3.158857e-06	-9.005198e-10	-2.199240e+01	-6.120399e+01
1.130000e-06	-3.120405e-06	-8.931295e-10	-2.172469e+01	-6.076378e+01
1.140000e-06	-3.081655e-06	-8.869630e-10	-2.145491e+01	-6.032054e+01
1.150000e-06	-3.042746e-06	-8.781877e-10	-2.118402e+01	-5.987421e+01
1.160000e-06	-3.003742e-06	-8.677546e-10	-2.091246e+01	-5.942472e+01
1.170000e-06	-2.964497e-06	-8.654352e-10	-2.063924e+01	-5.897201e+01
1.180000e-06	-2.925049e-06	-8.616660e-10	-2.036459e+01	-5.851596e+01
1.190000e-06	-2.885481e-06	-8.541253e-10	-2.008912e+01	-5.805647e+01
1.200000e-06	-2.845748e-06	-8.422903e-10	-1.981249e+01	-5.759341e+01
1.210000e-06	-2.805880e-06	-8.326447e-10	-1.953492e+01	-5.712663e+01
1.220000e-06	-2.765913e-06	-8.194645e-10	-1.925666e+01	-5.665596e+01
1.230000e-06	-2.725745e-06	-8.087397e-10	-1.897702e+01	-5.618123e+01
1.240000e-06	-2.685400e-06	-7.998833e-10	-1.869613e+01	-5.570226e+01
1.250000e-06	-2.644873e-06	-7.944110e-10	-1.841397e+01	-5.521882e+01
1.260000e-06	-2.604125e-06	-7.860144e-10	-1.813027e+01	-5.473071e+01
1.270000e-06	-2.563068e-06	-7.788370e-10	-1.784443e+01	-5.423769e+01
1.280000e-06	-2.521670e-06	-7.731254e-10	-1.755622e+01	-5.373953e+01
1.290000e-06	-2.480141e-06	-7.659186e-10	-1.726709e+01	-5.323596e+01
1.300000e-06	-2.438325e-06	-7.530162e-10	-1.697595e+01	-5.272674e+01
1.310000e-06	-2.396178e-06	-7.406050e-10	-1.668252e+01	-5.221159e+01
1.320000e-06	-2.353690e-06	-7.279082e-10	-1.638671e+01	-5.169022e+01
1.330000e-06	-2.310769e-06	-7.179578e-10	-1.608789e+01	-5.116237e+01
1.340000e-06	-2.267720e-06	-7.105428e-10	-1.578818e+01	-5.062773e+01
1.350000e-06	-2.224541e-06	-7.032331e-10	-1.548756e+01	-5.008601e+01
1.360000e-06	-2.181151e-06	-6.923843e-10	-1.518548e+01	-4.953692e+01
1.370000e-06	-2.137627e-06	-6.835107e-10	-1.488245e+01	-4.898014e+01
1.380000e-06	-2.093966e-06	-6.766538e-10	-1.457848e+01	-4.841537e+01
1.390000e-06	-2.050228e-06	-6.650669e-10	-1.427397e+01	-4.784231e+01
1.400000e-06	-2.006415e-06	-6.528925e-10	-1.396894e+01	-4.726064e+01
1.410000e-06	-1.962544e-06	-6.430628e-10	-1.366350e+01	-4.667005e+01
1.420000e-06	-1.918603e-06	-6.330940e-10	-1.335758e+01	-4.607022e+01
1.430000e-06	-1.874626e-06	-6.232922e-10	-1.305140e+01	-4.546086e+01
1.440000e-06	-1.830562e-06	-6.151026e-10	-1.274462e+01	-4.484164e+01
1.450000e-06	-1.786327e-06	-6.069112e-10	-1.243665e+01	-4.421225e+01
1.460000e-06	-1.742028e-06	-5.970745e-10	-1.212824e+01	-4.357238e+01
1.470000e-06	-1.697602e-06	-5.861438e-10	-1.181894e+01	-4.292173e+01
1.480000e-06	-1.652973e-06	-5.749935e-10	-1.150823e+01	-4.225997e+01
1.490000e-06	-1.608199e-06	-5.640596e-10	-1.119650e+01	-4.158682e+01
1.500000e-06	-1.563299e-06	-5.560640e-10	-1.088390e+01	-4.090195e+01
1.510000e-06	-1.518282e-06	-5.471175e-10	-1.057049e+01	-4.020507e+01
1.520000e-06	-1.473174e-06	-5.370266e-10	-1.025644e+01	-3.949587e+01
1.530000e-06	-1.427969e-06	-5.234181e-10	-9.941719e+00	-3.877407e+01
1.540000e-06	-1.382711e-06	-5.084506e-10	-9.626623e+00	-3.803935e+01
1.550000e-06	-1.337320e-06	-4.922367e-10	-9.310607e+00	-3.729143e+01
1.560000e-06	-1.291809e-06	-4.786707e-10	-8.993753e+00	-3.653003e+01
1.570000e-06	-1.246244e-06	-4.678246e-10	-8.676522e+00	-3.575485e+01
1.580000e-06	-1.200641e-06	-4.617560e-10	-8.359030e+00	-3.496561e+01
1.590000e-06	-1.154925e-06	-4.549740e-10	-8.040747e+00	-3.416205e+01
1.600000e-06	-1.109012e-06	-4.445518e-10	-7.721093e+00	-3.334390e+01
1.610000e-06	-1.063089e-06	-4.319381e-10	-7.401375e+00	-3.251089e+01
1.620000e-06	-1.017161e-06	-4.202933e-10	-7.081613e+00	-3.166278e+01
1.630000e-06	-9.711217e-07	-4.101781e-10	-6.761083e+00	-3.079933e+01
1.640000e-06	-9.250418e-07	-3.992080e-10	-6.440269e+00	-2.992030e+01
1.650000e-06	-8.788829e-07	-3.866586e-10	-6.118904e+00	-2.902547e+01
1.660000e-06	-8.325857e-07	-3.759917e-10	-5.796576e+00	-2.811465e+01
1.670000e-06	-7.862039e-07	-3.646046e-10	-5.473660e+00	-2.718764e+01
1.680000e-06	-7.397313e-07	-3.510275e-10	-5.150111e+00	-2.624427e+01
1.690000e-06	-6.933403e-07	-3.376850e-10	-4.827131e+00	-2.528439e+01
1.700000e-06	-6.470146e-07	-3.232230e-10	-4.504605e+00	-2.430787e+01
1.710000e-06	-6.005631e-07	-3.079905e-10	-4.181203e+00	-2.331460e+01
1.720000e-06	-5.540391e-07	-2.911020e-10	-3.857297e+00	-2.230449e+01
1.730000e-06	-5.074727e-07	-2.726061e-10	-3.533095e+00	-2.127749e+01
1.740000e-06	-4.608643e-07	-2.537038e-10	-3.208601e+00	-2.023357e+01
1.750000e-06	-4.142331e-07	-2.369099e-10	-2.883948e+00	-1.917273e+01
1.760000e-06	-3.676508e-07	-2.232551e-10	-2.559635e+00	-1.809500e+01
1.770000e-06	-3.210587e-07	-2.109869e-10	-2.235255e+00	-1.700046e+01
1.780000e-06	-2.743667e-07	-1.984823e-10	-1.910179e+00	-1.588922e+01
1.790000e-06	-2.276030e-07	-1.863718e-10	-1.584604e+00	-1.476142e+01
1.800000e-06	-1.807492e-07	-1.692820e-10	-1.258401e+00	-1.361724e+01
1.810000e-06	-1.339340e-07	-1.481726e-10	-9.324670e-01	-1.245693e+01
1.820000e-06	-8.719386e-08	-1.298988e-10	-6.070557e-01	-1.128074e+01
1.830000e-06	-4.041635e-08	-1.150432e-10	-2.813842e-01	-1.008901e+01
1.840000e-06	6.324342e-09	-1.008578e-10	4.403094e-02	-8.882087e+00
1.850000e-06	5.301972e-08	-8.544400e-11	3.691306e-01	-7.660394e+00
1.860000e-06	9.972840e-08	-7.175196e-11	6.943229e-01	-6.424388e+00
1.870000e-06	1.464458e-07	-5.647894e-11	1.019576e+00	-5.174579e+00
1.880000e-06	1.931288e-07	-3.649728e-11	1.344589e+00	-3.911522e+00
1.890000e-06	2.398333e-07	-1.327192e-11	1.669753e+00	-2.635825e+00
1.900000e-06	2.865883e-07	1.078395e-11	1.995267e+00	-1.348140e+00
1.910000e-06	3.333222e-07	3.121367e-11	2.320635e+00	-4.917086e-02
1.920000e-06	3.800568e-07	4.640876e-11	2.646008e+00	1.260336e+00
1.930000e-06	4.267265e-07	5.911406e-11	2.970929e+00	2.579586e+00
1.940000e-06	4.732984e-07	7.651567e-11	3.295169e+00	3.907742e+00
1.950000e-06	5.197907e-07	9.664845e-11	3.618854e+00	5.243925e+00
1.960000e-06	5.662310e-07	1.166960e-10	3.942178e+00	6.587217e+00
1.970000e-06	6.125840e-07	1.370611e-10	4.264894e+00	7.936660e+00
1.980000e-06	6.588485e-07	1.568234e-10	4.586994e+00	9.291265e+00
1.990000e-06	7.050900e-07	1.760839e-10	4.908934e+00	1.065001e+01
2.000000e-06	7.513267e-07	1.933688e-10	5.230840e+00	1.201184e+01
2.010000e-06	7.974873e-07	2.114615e-10	5.552216e+00	1.337569e+01
2.020000e-06	8.435694e-07	2.341741e-10	5.873047e+00	1.474046e+01
2.030000e-06	8.896425e-07	2.578707e-10	6.193814e+00	1.610504e+01
2.040000e-06	9.357395e-07	2.790311e-10	6.514748e+00	1.746830e+01
2.050000e-06	9.818102e-07	2.969467e-10	6.835498e+00	1.882912e+01
2.060000e-06	1.027798e-06	3.137348e-10	7.155673e+00	2.018634e+01
2.070000e-06	1.073667e-06	3.304747e-10	7.475020e+00	2.153885e+01
2.080000e-06	1.119367e-06	3.479735e-10	7.793188e+00	2.288549e+01
2.090000e-06	1.165038e-06	3.688844e-10	8.111153e+00	2.422517e+01
2.100000e-06	1.210645e-06	3.914487e-10	8.428678e+00	2.555676e+01
2.110000e-06	1.256114e-06	4.115300e-10	8.745239e+00	2.687917e+01
2.120000e-06	1.301539e-06	4.294859e-10	9.061492e+00	2.819135e+01
2.130000e-06	1.346924e-06	4.454947e-10	9.377470e+00	2.949226e+01
2.140000e-06	1.392207e-06	4.625883e-10	9.692739e+00	3.078088e+01
2.150000e-06	1.437437e-06	4.802532e-10	1.000763e+01	3.205624e+01
2.160000e-06	1.482597e-06	4.987649e-10	1.032205e+01	3.331742e+01
2.170000e-06	1.527588e-06	5.168348e-10	1.063528e+01	3.456353e+01
2.180000e-06	1.572409e-06	5.369654e-10	1.094733e+01	3.579372e+01
2.190000e-06	1.617206e-06	5.558356e-10	1.125921e+01	3.700721e+01
2.200000e-06	1.661819e-06	5.704682e-10	1.156981e+01	3.820324e+01
2.210000e-06	1.706198e-06	5.819838e-10	1.187878e+01	3.938115e+01
2.220000e-06	1.750474e-06	5.932818e-10	1.218704e+01	4.054029e+01
2.230000e-06	1.794583e-06	6.057309e-10	1.249413e+01	4.168010e+01
2.240000e-06	1.838661e-06	6.188092e-10	1.280101e+01	4.280006e+01
2.250000e-06	1.882716e-06	6.335544e-10	1.310773e+01	4.389974e+01
2.260000e-06	1.926673e-06	6.460138e-10	1.341376e+01	4.497873e+01
2.270000e-06	1.970540e-06	6.628215e-10	1.371917e+01	4.603672e+01
2.280000e-06	2.014295e-06	6.769489e-10	1.402380e+01	4.707344e+01
2.290000e-06	2.057981e-06	6.896182e-10	1.432795e+01	4.808868e+01
2.300000e-06	2.101660e-06	7.002654e-10	1.463204e+01	4.908231e+01
2.310000e-06	2.145273e-06	7.104123e-10	1.493569e+01	5.005423e+01
2.320000e-06	2.188693e-06	7.230265e-10	1.523798e+01	5.100443e+01
2.330000e-06	2.231931e-06	7.359900e-10	1.553901e+01	5.193293e+01
2.340000e-06	2.275066e-06	7.520816e-10	1.583932e+01	5.283981e+01
2.350000e-06	2.318023e-06	7.705051e-10	1.613840e+01	5.372522e+01
2.360000e-06	2.360668e-06	7.875389e-10	1.643529e+01	5.458933e+01
2.370000e-06	2.403070e-06	7.969206e-10	1.673050e+01	5.543237e+01
2.380000e-06	2.445226e-06	8.010868e-10	1.702400e+01	5.625462e+01
2.390000e-06	2.487072e-06	8.057938e-10	1.731533e+01	5.705638e+01
2.400000e-06	2.528612e-06	8.122599e-10	1.760455e+01	5.783801e+01
2.410000e-06	2.569775e-06	8.233193e-10	1.789113e+01	5.859987e+01
2.420000e-06	2.610728e-06	8.380334e-10	1.817625e+01	5.934239e+01
2.430000e-06	2.651487e-06	8.552232e-10	1.846001e+01	6.006599e+01
2.440000e-06	2.691886e-06	8.688926e-10	1.874128e+01	6.077114e+01
2.450000e-06	2.732075e-06	8.756035e-10	1.902108e+01	6.145830e+01
2.460000e-06	2.772108e-06	8.839158e-10	1.929980e+01	6.212796e+01
2.470000e-06	2.811950e-06	8.929879e-10	1.957718e+01	6.278063e+01
2.480000e-06	2.851651e-06	9.026276e-10	1.985359e+01	6.341680e+01
2.490000e-06	2.891254e-06	9.125151e-10	2.012931e+01	6.403701e+01
2.500000e-06	2.930839e-06	9.218121e-10	2.040491e+01	6.464174e+01
2.510000e-06	2.970306e-06	9.332853e-10	2.067968e+01	6.523153e+01
2.520000e-06	3.009533e-06	9.449912e-10	2.095278e+01	6.580688e+01
2.530000e-06	3.048536e-06	9.531683e-10	2.122433e+01	6.636828e+01
2.540000e-06	3.087361e-06	9.603044e-10	2.149464e+01	6.691623e+01
2.550000e-06	3.125921e-06	9.675855e-10	2.176309e+01	6.745121e+01
2.560000e-06	3.164187e-06	9.758117e-10	2.202951e+01	6.797369e+01
2.570000e-06	3.202261e-06	9.837146e-10	2.229458e+01	6.848412e+01
2.580000e-06	3.240151e-06	9.907716e-10	2.255838e+01	6.898294e+01
2.590000e-06	3.277853e-06	9.981091e-10	2.282086e+01	6.947056e+01
2.600000e-06	3.315322e-06	1.007296e-09	2.308173e+01	6.994740e+01
2.610000e-06	3.352549e-06	1.015202e-09	2.334091e+01	7.041382e+01
2.620000e-06	3.389549e-06	1.021694e-09	2.359851e+01	7.087019e+01
2.630000e-06	3.426341e-06	1.028813e-09	2.385466e+01	7.131687e+01
2.640000e-06	3.462852e-06	1.036095e-09	2.410885e+01	7.175417e+01
2.650000e-06	3.499019e-06	1.043735e-09	2.436065e+01	7.218239e+01
2.660000e-06	3.534991e-06	1.049658e-09	2.461110e+01	7.260183e+01
2.670000e-06	3.570892e-06	1.054349e-09	2.486104e+01	7.301276e+01
2.680000e-06	3.606682e-06	1.061806e-09	2.511022e+01	7.341542e+01
2.690000e-06	3.642310e-06	1.069252e-09	2.535827e+01	7.381006e+01
2.700000e-06	3.677730e-06	1.074123e-09	2.560486e+01	7.419688e+01
2.710000e-06	3.712888e-06	1.078947e-09	2.584964e+01	7.457610e+01
2.720000e-06	3.747780e-06	1.085746e-09	2.609256e+01	7.494790e+01
2.730000e-06	3.782246e-06	1.092160e-09	2.633252e+01	7.531247e+01
2.740000e-06	3.816154e-06	1.097088e-09	2.656859e+01	7.566996e+01
2.750000e-06	3.849630e-06	1.102860e-09	2.680165e+01	7.602054e+01
2.760000e-06	3.882807e-06	1.108402e-09	2.703264e+01	7.636436e+01
2.770000e-06	3.915517e-06	1.113231e-09	2.726037e+01	7.670154e+01
2.780000e-06	3.947782e-06	1.117906e-09	2.748500e+01	7.703223e+01
2.790000e-06	3.979854e-06	1.123498e-09	2.770830e+01	7.735654e+01
2.800000e-06	4.011784e-06	1.126435e-09	2.793059e+01	7.767461e+01
2.810000e-06	4.043545e-06	1.129485e-09	2.815172e+01	7.798654e+01
2.820000e-06	4.075139e-06	1.136086e-09	2.837168e+01	7.829244e+01
2.830000e-06	4.106560e-06	1.143133e-09	2.859044e+01	7.859243e+01
2.840000e-06	4.137750e-06	1.149295e-09	2.880758e+01	7.888661e+01
2.850000e-06	4.168607e-06	1.156073e-09	2.902241e+01	7.917508e+01
2.860000e-06	4.199103e-06	1.160129e-09	2.923474e+01	7.945795e+01
2.870000e-06	4.229304e-06	1.161376e-09	2.944500e+01	7.973530e+01
2.880000e-06	4.259231e-06	1.162962e-09	2.965335e+01	8.000724e+01
2.890000e-06	4.288868e-06	1.166672e-09	2.985969e+01	8.027387e+01
2.900000e-06	4.318105e-06	1.171091e-09	3.006325e+01	8.053526e+01
2.910000e-06	4.347057e-06	1.176267e-09	3.026481e+01	8.079151e+01
