# Temperatura_=_-21.6
# Concentracion g/m^3_=_1620.0
# C_Vs_to_Am_M_A/Vsm_=_65563218390.804596
# pendiente_HvsI_1/m_=_3716.3
# ordenada_HvsI_A/m_=_1297.0
# frecuencia_Hz_=_135105.652952049

Tiempo_(s)	Campo_(V.s)	Magnetizacion_(V.s)	Campo_(kA/m)	Magnetizacion_(A/m)
0.000000e+00	-5.508710e-06	-7.133961e-10	-3.837174e+01	-4.745372e+01
1.000000e-08	-5.508992e-06	-7.111236e-10	-3.837371e+01	-4.739196e+01
2.000000e-08	-5.509043e-06	-7.104173e-10	-3.837406e+01	-4.732829e+01
3.000000e-08	-5.508722e-06	-7.093223e-10	-3.837182e+01	-4.726287e+01
4.000000e-08	-5.507870e-06	-7.030485e-10	-3.836589e+01	-4.719582e+01
5.000000e-08	-5.506450e-06	-6.903048e-10	-3.835600e+01	-4.712733e+01
6.000000e-08	-5.504341e-06	-6.828276e-10	-3.834131e+01	-4.705756e+01
7.000000e-08	-5.501643e-06	-7.040893e-10	-3.832252e+01	-4.698671e+01
8.000000e-08	-5.498591e-06	-7.356582e-10	-3.830125e+01	-4.691498e+01
9.000000e-08	-5.495109e-06	-7.452476e-10	-3.827700e+01	-4.684259e+01
1.000000e-07	-5.491148e-06	-7.405501e-10	-3.824941e+01	-4.676976e+01
1.100000e-07	-5.486836e-06	-7.214253e-10	-3.821937e+01	-4.669671e+01
1.200000e-07	-5.482239e-06	-6.751217e-10	-3.818735e+01	-4.662367e+01
1.300000e-07	-5.477313e-06	-6.658793e-10	-3.815304e+01	-4.655086e+01
1.400000e-07	-5.472110e-06	-6.736831e-10	-3.811680e+01	-4.647853e+01
1.500000e-07	-5.466614e-06	-7.196898e-10	-3.807851e+01	-4.640689e+01
1.600000e-07	-5.460782e-06	-7.015488e-10	-3.803789e+01	-4.633616e+01
1.700000e-07	-5.454601e-06	-7.060587e-10	-3.799484e+01	-4.626655e+01
1.800000e-07	-5.447948e-06	-7.114217e-10	-3.794850e+01	-4.619826e+01
1.900000e-07	-5.440843e-06	-7.100054e-10	-3.789900e+01	-4.613148e+01
2.000000e-07	-5.433389e-06	-6.673116e-10	-3.784708e+01	-4.606638e+01
2.100000e-07	-5.425676e-06	-6.410988e-10	-3.779336e+01	-4.600311e+01
2.200000e-07	-5.417663e-06	-6.590941e-10	-3.773754e+01	-4.594182e+01
2.300000e-07	-5.409391e-06	-6.703933e-10	-3.767991e+01	-4.588261e+01
2.400000e-07	-5.400756e-06	-6.616521e-10	-3.761977e+01	-4.582560e+01
2.500000e-07	-5.391471e-06	-6.410275e-10	-3.755509e+01	-4.577084e+01
2.600000e-07	-5.381462e-06	-6.499305e-10	-3.748537e+01	-4.571838e+01
2.700000e-07	-5.370819e-06	-6.442620e-10	-3.741124e+01	-4.566826e+01
2.800000e-07	-5.359678e-06	-6.595794e-10	-3.733363e+01	-4.562047e+01
2.900000e-07	-5.348126e-06	-6.586527e-10	-3.725317e+01	-4.557498e+01
3.000000e-07	-5.336274e-06	-6.724872e-10	-3.717061e+01	-4.553175e+01
3.100000e-07	-5.324063e-06	-6.618816e-10	-3.708555e+01	-4.549070e+01
3.200000e-07	-5.311389e-06	-6.752433e-10	-3.699727e+01	-4.545171e+01
3.300000e-07	-5.298313e-06	-6.627015e-10	-3.690619e+01	-4.541468e+01
3.400000e-07	-5.284892e-06	-6.694005e-10	-3.681270e+01	-4.537945e+01
3.500000e-07	-5.271049e-06	-6.719809e-10	-3.671628e+01	-4.534586e+01
3.600000e-07	-5.256652e-06	-6.831914e-10	-3.661599e+01	-4.531370e+01
3.700000e-07	-5.241694e-06	-6.648955e-10	-3.651180e+01	-4.528278e+01
3.800000e-07	-5.226339e-06	-6.776399e-10	-3.640484e+01	-4.525286e+01
3.900000e-07	-5.210526e-06	-6.818267e-10	-3.629469e+01	-4.522370e+01
4.000000e-07	-5.194164e-06	-6.670840e-10	-3.618072e+01	-4.519506e+01
4.100000e-07	-5.177435e-06	-6.603531e-10	-3.606419e+01	-4.516666e+01
4.200000e-07	-5.160446e-06	-6.881763e-10	-3.594585e+01	-4.513824e+01
4.300000e-07	-5.143090e-06	-6.799569e-10	-3.582496e+01	-4.510950e+01
4.400000e-07	-5.125378e-06	-6.567063e-10	-3.570158e+01	-4.508018e+01
4.500000e-07	-5.107324e-06	-6.782956e-10	-3.557582e+01	-4.505000e+01
4.600000e-07	-5.088895e-06	-6.858249e-10	-3.544745e+01	-4.501866e+01
4.700000e-07	-5.070148e-06	-6.578050e-10	-3.531687e+01	-4.498589e+01
4.800000e-07	-5.051047e-06	-6.614082e-10	-3.518382e+01	-4.495144e+01
4.900000e-07	-5.031667e-06	-6.956548e-10	-3.504883e+01	-4.491502e+01
5.000000e-07	-5.012054e-06	-6.719120e-10	-3.491221e+01	-4.487641e+01
5.100000e-07	-4.992146e-06	-6.590767e-10	-3.477354e+01	-4.483536e+01
5.200000e-07	-4.971963e-06	-6.824937e-10	-3.463295e+01	-4.479166e+01
5.300000e-07	-4.951512e-06	-6.821562e-10	-3.449049e+01	-4.474510e+01
5.400000e-07	-4.930708e-06	-6.526819e-10	-3.434558e+01	-4.469550e+01
5.500000e-07	-4.909508e-06	-6.757047e-10	-3.419791e+01	-4.464271e+01
5.600000e-07	-4.887920e-06	-6.786434e-10	-3.404753e+01	-4.458659e+01
5.700000e-07	-4.865939e-06	-6.535812e-10	-3.389442e+01	-4.452702e+01
5.800000e-07	-4.843676e-06	-6.546865e-10	-3.373934e+01	-4.446390e+01
5.900000e-07	-4.821132e-06	-6.771814e-10	-3.358231e+01	-4.439718e+01
6.000000e-07	-4.798226e-06	-6.531405e-10	-3.342276e+01	-4.432681e+01
6.100000e-07	-4.775072e-06	-6.476065e-10	-3.326147e+01	-4.425277e+01
6.200000e-07	-4.751755e-06	-6.618066e-10	-3.309906e+01	-4.417507e+01
6.300000e-07	-4.728178e-06	-6.555555e-10	-3.293483e+01	-4.409374e+01
6.400000e-07	-4.704277e-06	-6.407630e-10	-3.276834e+01	-4.400883e+01
6.500000e-07	-4.679975e-06	-6.591689e-10	-3.259906e+01	-4.392042e+01
6.600000e-07	-4.655185e-06	-6.598358e-10	-3.242638e+01	-4.382861e+01
6.700000e-07	-4.629883e-06	-6.495003e-10	-3.225014e+01	-4.373351e+01
6.800000e-07	-4.604148e-06	-6.561002e-10	-3.207088e+01	-4.363525e+01
6.900000e-07	-4.578022e-06	-6.608352e-10	-3.188890e+01	-4.353400e+01
7.000000e-07	-4.551401e-06	-6.462562e-10	-3.170346e+01	-4.342990e+01
7.100000e-07	-4.524290e-06	-6.468818e-10	-3.151462e+01	-4.332315e+01
7.200000e-07	-4.496869e-06	-6.549040e-10	-3.132361e+01	-4.321392e+01
7.300000e-07	-4.469286e-06	-6.471969e-10	-3.113148e+01	-4.310241e+01
7.400000e-07	-4.441546e-06	-6.422175e-10	-3.093825e+01	-4.298883e+01
7.500000e-07	-4.413576e-06	-6.460408e-10	-3.074342e+01	-4.287337e+01
7.600000e-07	-4.385270e-06	-6.388044e-10	-3.054625e+01	-4.275624e+01
7.700000e-07	-4.356641e-06	-6.296307e-10	-3.034683e+01	-4.263765e+01
7.800000e-07	-4.327755e-06	-6.368605e-10	-3.014562e+01	-4.251779e+01
7.900000e-07	-4.298550e-06	-6.365337e-10	-2.994219e+01	-4.239686e+01
8.000000e-07	-4.269045e-06	-6.328072e-10	-2.973667e+01	-4.227504e+01
8.100000e-07	-4.239351e-06	-6.309145e-10	-2.952983e+01	-4.215252e+01
8.200000e-07	-4.209403e-06	-6.303124e-10	-2.932122e+01	-4.202945e+01
8.300000e-07	-4.179148e-06	-6.193833e-10	-2.911048e+01	-4.190598e+01
8.400000e-07	-4.148587e-06	-6.191156e-10	-2.889760e+01	-4.178225e+01
8.500000e-07	-4.117707e-06	-6.180935e-10	-2.868250e+01	-4.165839e+01
8.600000e-07	-4.086531e-06	-6.144563e-10	-2.846534e+01	-4.153449e+01
8.700000e-07	-4.055130e-06	-6.106754e-10	-2.824661e+01	-4.141064e+01
8.800000e-07	-4.023571e-06	-6.150132e-10	-2.802678e+01	-4.128689e+01
8.900000e-07	-3.991758e-06	-6.110212e-10	-2.780518e+01	-4.116331e+01
9.000000e-07	-3.959709e-06	-6.076402e-10	-2.758194e+01	-4.103991e+01
9.100000e-07	-3.927402e-06	-6.077803e-10	-2.735691e+01	-4.091669e+01
9.200000e-07	-3.894714e-06	-6.068469e-10	-2.712921e+01	-4.079364e+01
9.300000e-07	-3.861700e-06	-5.997239e-10	-2.689924e+01	-4.067074e+01
9.400000e-07	-3.828326e-06	-6.012846e-10	-2.666677e+01	-4.054792e+01
9.500000e-07	-3.794442e-06	-6.027134e-10	-2.643075e+01	-4.042511e+01
9.600000e-07	-3.760013e-06	-5.973734e-10	-2.619093e+01	-4.030223e+01
9.700000e-07	-3.725167e-06	-5.900890e-10	-2.594821e+01	-4.017917e+01
9.800000e-07	-3.690116e-06	-5.906639e-10	-2.570405e+01	-4.005582e+01
9.900000e-07	-3.654892e-06	-5.912602e-10	-2.545869e+01	-3.993204e+01
1.000000e-06	-3.619447e-06	-5.909779e-10	-2.521180e+01	-3.980769e+01
1.010000e-06	-3.583869e-06	-5.933335e-10	-2.496397e+01	-3.968262e+01
1.020000e-06	-3.548173e-06	-5.927263e-10	-2.471533e+01	-3.955666e+01
1.030000e-06	-3.512294e-06	-5.874843e-10	-2.446541e+01	-3.942965e+01
1.040000e-06	-3.476248e-06	-5.822681e-10	-2.421432e+01	-3.930140e+01
1.050000e-06	-3.439898e-06	-5.800293e-10	-2.396112e+01	-3.917175e+01
1.060000e-06	-3.403208e-06	-5.756217e-10	-2.370555e+01	-3.904052e+01
1.070000e-06	-3.366299e-06	-5.747488e-10	-2.344845e+01	-3.890752e+01
1.080000e-06	-3.329112e-06	-5.746222e-10	-2.318943e+01	-3.877259e+01
1.090000e-06	-3.291713e-06	-5.717710e-10	-2.292892e+01	-3.863554e+01
1.100000e-06	-3.254084e-06	-5.663344e-10	-2.266681e+01	-3.849621e+01
1.110000e-06	-3.216169e-06	-5.632686e-10	-2.240270e+01	-3.835443e+01
1.120000e-06	-3.178040e-06	-5.588299e-10	-2.213711e+01	-3.821006e+01
1.130000e-06	-3.139775e-06	-5.571039e-10	-2.187057e+01	-3.806294e+01
1.140000e-06	-3.101304e-06	-5.556499e-10	-2.160259e+01	-3.791293e+01
1.150000e-06	-3.062560e-06	-5.547151e-10	-2.133272e+01	-3.775991e+01
1.160000e-06	-3.023754e-06	-5.514931e-10	-2.106241e+01	-3.760375e+01
1.170000e-06	-2.984838e-06	-5.504888e-10	-2.079134e+01	-3.744435e+01
1.180000e-06	-2.945635e-06	-5.479941e-10	-2.051826e+01	-3.728160e+01
1.190000e-06	-2.906201e-06	-5.470576e-10	-2.024358e+01	-3.711542e+01
1.200000e-06	-2.866623e-06	-5.454624e-10	-1.996789e+01	-3.694572e+01
1.210000e-06	-2.826885e-06	-5.449487e-10	-1.969109e+01	-3.677245e+01
1.220000e-06	-2.787042e-06	-5.436790e-10	-1.941355e+01	-3.659552e+01
1.230000e-06	-2.747047e-06	-5.425281e-10	-1.913496e+01	-3.641490e+01
1.240000e-06	-2.706825e-06	-5.389256e-10	-1.885479e+01	-3.623052e+01
1.250000e-06	-2.666335e-06	-5.337568e-10	-1.857275e+01	-3.604235e+01
1.260000e-06	-2.625575e-06	-5.285042e-10	-1.828883e+01	-3.585035e+01
1.270000e-06	-2.584603e-06	-5.235077e-10	-1.800344e+01	-3.565448e+01
1.280000e-06	-2.543418e-06	-5.211030e-10	-1.771656e+01	-3.545470e+01
1.290000e-06	-2.501944e-06	-5.217862e-10	-1.742766e+01	-3.525097e+01
1.300000e-06	-2.460178e-06	-5.223710e-10	-1.713674e+01	-3.504326e+01
1.310000e-06	-2.418201e-06	-5.192396e-10	-1.684434e+01	-3.483152e+01
1.320000e-06	-2.375896e-06	-5.128076e-10	-1.654966e+01	-3.461570e+01
1.330000e-06	-2.333225e-06	-5.069373e-10	-1.625243e+01	-3.439573e+01
1.340000e-06	-2.290397e-06	-5.032240e-10	-1.595410e+01	-3.417156e+01
1.350000e-06	-2.247436e-06	-4.981605e-10	-1.565485e+01	-3.394311e+01
1.360000e-06	-2.204238e-06	-4.934278e-10	-1.535395e+01	-3.371027e+01
1.370000e-06	-2.160877e-06	-4.911594e-10	-1.505191e+01	-3.347295e+01
1.380000e-06	-2.117433e-06	-4.923060e-10	-1.474930e+01	-3.323102e+01
1.390000e-06	-2.073888e-06	-4.931901e-10	-1.444598e+01	-3.298435e+01
1.400000e-06	-2.030252e-06	-4.915657e-10	-1.414202e+01	-3.273278e+01
1.410000e-06	-1.986571e-06	-4.859006e-10	-1.383776e+01	-3.247615e+01
1.420000e-06	-1.942822e-06	-4.804107e-10	-1.353302e+01	-3.221425e+01
1.430000e-06	-1.898970e-06	-4.766712e-10	-1.322756e+01	-3.194687e+01
1.440000e-06	-1.854959e-06	-4.732349e-10	-1.292100e+01	-3.167379e+01
1.450000e-06	-1.810807e-06	-4.676531e-10	-1.261344e+01	-3.139476e+01
1.460000e-06	-1.766573e-06	-4.626337e-10	-1.230533e+01	-3.110950e+01
1.470000e-06	-1.722290e-06	-4.578799e-10	-1.199687e+01	-3.081773e+01
1.480000e-06	-1.677897e-06	-4.526552e-10	-1.168764e+01	-3.051915e+01
1.490000e-06	-1.633332e-06	-4.453328e-10	-1.137722e+01	-3.021344e+01
1.500000e-06	-1.588573e-06	-4.392920e-10	-1.106544e+01	-2.990024e+01
1.510000e-06	-1.543610e-06	-4.354324e-10	-1.075225e+01	-2.957923e+01
1.520000e-06	-1.498519e-06	-4.303278e-10	-1.043816e+01	-2.925002e+01
1.530000e-06	-1.453424e-06	-4.230548e-10	-1.012404e+01	-2.891226e+01
1.540000e-06	-1.408236e-06	-4.162802e-10	-9.809280e+00	-2.856554e+01
1.550000e-06	-1.362934e-06	-4.074237e-10	-9.493717e+00	-2.820949e+01
1.560000e-06	-1.317595e-06	-4.003704e-10	-9.177907e+00	-2.784372e+01
1.570000e-06	-1.272159e-06	-3.950154e-10	-8.861410e+00	-2.746782e+01
1.580000e-06	-1.226662e-06	-3.907498e-10	-8.544498e+00	-2.708140e+01
1.590000e-06	-1.181108e-06	-3.860235e-10	-8.227186e+00	-2.668408e+01
1.600000e-06	-1.135433e-06	-3.792991e-10	-7.909027e+00	-2.627546e+01
1.610000e-06	-1.089658e-06	-3.727717e-10	-7.590172e+00	-2.585518e+01
1.620000e-06	-1.043837e-06	-3.651807e-10	-7.271000e+00	-2.542286e+01
1.630000e-06	-9.979466e-07	-3.616565e-10	-6.951345e+00	-2.497817e+01
1.640000e-06	-9.519723e-07	-3.576346e-10	-6.631105e+00	-2.452076e+01
1.650000e-06	-9.059163e-07	-3.501602e-10	-6.310295e+00	-2.405034e+01
1.660000e-06	-8.597608e-07	-3.389306e-10	-5.988792e+00	-2.356660e+01
1.670000e-06	-8.135442e-07	-3.284217e-10	-5.666863e+00	-2.306928e+01
1.680000e-06	-7.672548e-07	-3.209286e-10	-5.344428e+00	-2.255815e+01
1.690000e-06	-7.208971e-07	-3.156412e-10	-5.021516e+00	-2.203299e+01
1.700000e-06	-6.745043e-07	-3.089012e-10	-4.698360e+00	-2.149363e+01
1.710000e-06	-6.281231e-07	-3.009606e-10	-4.375285e+00	-2.093993e+01
1.720000e-06	-5.817935e-07	-2.926175e-10	-4.052569e+00	-2.037177e+01
1.730000e-06	-5.354056e-07	-2.817571e-10	-3.729448e+00	-1.978908e+01
1.740000e-06	-4.888705e-07	-2.679938e-10	-3.405300e+00	-1.919182e+01
1.750000e-06	-4.422559e-07	-2.566164e-10	-3.080599e+00	-1.857999e+01
1.760000e-06	-3.956192e-07	-2.470009e-10	-2.755744e+00	-1.795364e+01
1.770000e-06	-3.489803e-07	-2.400397e-10	-2.430875e+00	-1.731284e+01
1.780000e-06	-3.023021e-07	-2.366229e-10	-2.105730e+00	-1.665770e+01
1.790000e-06	-2.555705e-07	-2.315652e-10	-1.780214e+00	-1.598840e+01
1.800000e-06	-2.088250e-07	-2.226663e-10	-1.454602e+00	-1.530511e+01
1.810000e-06	-1.620985e-07	-2.093464e-10	-1.129121e+00	-1.460808e+01
1.820000e-06	-1.154065e-07	-1.954024e-10	-8.038813e-01	-1.389757e+01
1.830000e-06	-6.871799e-08	-1.848721e-10	-4.786654e-01	-1.317390e+01
1.840000e-06	-2.199863e-08	-1.773789e-10	-1.532347e-01	-1.243741e+01
1.850000e-06	2.479481e-08	-1.691852e-10	1.727119e-01	-1.168848e+01
1.860000e-06	7.162945e-08	-1.609056e-10	4.989456e-01	-1.092751e+01
1.870000e-06	1.183898e-07	-1.518002e-10	8.246615e-01	-1.015496e+01
1.880000e-06	1.650721e-07	-1.386781e-10	1.149834e+00	-9.371277e+00
1.890000e-06	2.118359e-07	-1.230329e-10	1.475575e+00	-8.576975e+00
1.900000e-06	2.586383e-07	-1.091576e-10	1.801584e+00	-7.772571e+00
1.910000e-06	3.053888e-07	-9.608198e-11	2.127231e+00	-6.958611e+00
1.920000e-06	3.520470e-07	-8.462306e-11	2.452236e+00	-6.135660e+00
1.930000e-06	3.985642e-07	-7.634553e-11	2.776258e+00	-5.304302e+00
1.940000e-06	4.450331e-07	-6.828924e-11	3.099944e+00	-4.465138e+00
1.950000e-06	4.914725e-07	-5.838997e-11	3.423425e+00	-3.618781e+00
1.960000e-06	5.378589e-07	-4.660488e-11	3.746536e+00	-2.765856e+00
1.970000e-06	5.842830e-07	-3.347147e-11	4.069910e+00	-1.906999e+00
1.980000e-06	6.307014e-07	-2.086702e-11	4.393245e+00	-1.042851e+00
1.990000e-06	6.769978e-07	-7.485002e-12	4.715729e+00	-1.740587e-01
2.000000e-06	7.231322e-07	3.089184e-12	5.037085e+00	6.987282e-01
2.010000e-06	7.692475e-07	1.324025e-11	5.358308e+00	1.574859e+00
2.020000e-06	8.154138e-07	2.721742e-11	5.679886e+00	2.453685e+00
2.030000e-06	8.615622e-07	4.202544e-11	6.001340e+00	3.334557e+00
2.040000e-06	9.076735e-07	5.454250e-11	6.322535e+00	4.216834e+00
2.050000e-06	9.536053e-07	6.633718e-11	6.642480e+00	5.099879e+00
2.060000e-06	9.994459e-07	7.685881e-11	6.961789e+00	5.983061e+00
2.070000e-06	1.045301e-06	8.749389e-11	7.281198e+00	6.865759e+00
2.080000e-06	1.091068e-06	1.008985e-10	7.599999e+00	7.747361e+00
2.090000e-06	1.136773e-06	1.166348e-10	7.918363e+00	8.627264e+00
2.100000e-06	1.182410e-06	1.321088e-10	8.236250e+00	9.504879e+00
2.110000e-06	1.227942e-06	1.460561e-10	8.553415e+00	1.037963e+01
2.120000e-06	1.273435e-06	1.589847e-10	8.870300e+00	1.125094e+01
2.130000e-06	1.318856e-06	1.699085e-10	9.186689e+00	1.211827e+01
2.140000e-06	1.364152e-06	1.808657e-10	9.502205e+00	1.298107e+01
2.150000e-06	1.409359e-06	1.931408e-10	9.817102e+00	1.383881e+01
2.160000e-06	1.454459e-06	2.061180e-10	1.013125e+01	1.469099e+01
2.170000e-06	1.499414e-06	2.188256e-10	1.044439e+01	1.553711e+01
2.180000e-06	1.544244e-06	2.346652e-10	1.075666e+01	1.637668e+01
2.190000e-06	1.589001e-06	2.491268e-10	1.106842e+01	1.720923e+01
2.200000e-06	1.633614e-06	2.598802e-10	1.137918e+01	1.803430e+01
2.210000e-06	1.678057e-06	2.696517e-10	1.168875e+01	1.885146e+01
2.220000e-06	1.722406e-06	2.783345e-10	1.199767e+01	1.966027e+01
2.230000e-06	1.766641e-06	2.882938e-10	1.230580e+01	2.046031e+01
2.240000e-06	1.810827e-06	2.995122e-10	1.261359e+01	2.125120e+01
2.250000e-06	1.854925e-06	3.101342e-10	1.292075e+01	2.203253e+01
2.260000e-06	1.898851e-06	3.191053e-10	1.322673e+01	2.280394e+01
2.270000e-06	1.942649e-06	3.299115e-10	1.353181e+01	2.356507e+01
2.280000e-06	1.986381e-06	3.434827e-10	1.383643e+01	2.431556e+01
2.290000e-06	2.030051e-06	3.569938e-10	1.414062e+01	2.505509e+01
2.300000e-06	2.073654e-06	3.682714e-10	1.444435e+01	2.578335e+01
2.310000e-06	2.117198e-06	3.768055e-10	1.474766e+01	2.650001e+01
2.320000e-06	2.160678e-06	3.844665e-10	1.505053e+01	2.720481e+01
2.330000e-06	2.204130e-06	3.924111e-10	1.535320e+01	2.789745e+01
2.340000e-06	2.247494e-06	4.015533e-10	1.565525e+01	2.857769e+01
2.350000e-06	2.290648e-06	4.132950e-10	1.595585e+01	2.924528e+01
2.360000e-06	2.333588e-06	4.289564e-10	1.625495e+01	2.989998e+01
2.370000e-06	2.376247e-06	4.438277e-10	1.655210e+01	3.054160e+01
2.380000e-06	2.418612e-06	4.541690e-10	1.684720e+01	3.116994e+01
2.390000e-06	2.460731e-06	4.604989e-10	1.714059e+01	3.178482e+01
2.400000e-06	2.502616e-06	4.646724e-10	1.743234e+01	3.238608e+01
2.410000e-06	2.544196e-06	4.684908e-10	1.772198e+01	3.297359e+01
2.420000e-06	2.585348e-06	4.745492e-10	1.800862e+01	3.354723e+01
2.430000e-06	2.626101e-06	4.863788e-10	1.829250e+01	3.410690e+01
2.440000e-06	2.666556e-06	5.001064e-10	1.857429e+01	3.465252e+01
2.450000e-06	2.706764e-06	5.091364e-10	1.885437e+01	3.518404e+01
2.460000e-06	2.746733e-06	5.158806e-10	1.913278e+01	3.570142e+01
2.470000e-06	2.786569e-06	5.218474e-10	1.941026e+01	3.620465e+01
2.480000e-06	2.826328e-06	5.263940e-10	1.968721e+01	3.669374e+01
2.490000e-06	2.865974e-06	5.339479e-10	1.996337e+01	3.716872e+01
2.500000e-06	2.905477e-06	5.411405e-10	2.023853e+01	3.762966e+01
2.510000e-06	2.944861e-06	5.485634e-10	2.051287e+01	3.807661e+01
2.520000e-06	2.984072e-06	5.568080e-10	2.078600e+01	3.850970e+01
2.530000e-06	3.023066e-06	5.622713e-10	2.105762e+01	3.892904e+01
2.540000e-06	3.061873e-06	5.667970e-10	2.132793e+01	3.933478e+01
2.550000e-06	3.100514e-06	5.719104e-10	2.159709e+01	3.972708e+01
2.560000e-06	3.138977e-06	5.775250e-10	2.186501e+01	4.010613e+01
2.570000e-06	3.177149e-06	5.832119e-10	2.213090e+01	4.047215e+01
2.580000e-06	3.215003e-06	5.902581e-10	2.239458e+01	4.082536e+01
2.590000e-06	3.252637e-06	5.959069e-10	2.265673e+01	4.116602e+01
2.600000e-06	3.290141e-06	6.007037e-10	2.291796e+01	4.149438e+01
2.610000e-06	3.327501e-06	6.055410e-10	2.317820e+01	4.181072e+01
2.620000e-06	3.364649e-06	6.086036e-10	2.343696e+01	4.211535e+01
2.630000e-06	3.401597e-06	6.120454e-10	2.369433e+01	4.240858e+01
2.640000e-06	3.438231e-06	6.152720e-10	2.394951e+01	4.269072e+01
2.650000e-06	3.474515e-06	6.201131e-10	2.420225e+01	4.296211e+01
2.660000e-06	3.510652e-06	6.245949e-10	2.445397e+01	4.322308e+01
2.670000e-06	3.546562e-06	6.252279e-10	2.470411e+01	4.347400e+01
2.680000e-06	3.582244e-06	6.264952e-10	2.495265e+01	4.371520e+01
2.690000e-06	3.617851e-06	6.306466e-10	2.520068e+01	4.394704e+01
2.700000e-06	3.653343e-06	6.390086e-10	2.544790e+01	4.416989e+01
2.710000e-06	3.688651e-06	6.461818e-10	2.569385e+01	4.438409e+01
2.720000e-06	3.723773e-06	6.521777e-10	2.593849e+01	4.459001e+01
2.730000e-06	3.758680e-06	6.551695e-10	2.618165e+01	4.478798e+01
2.740000e-06	3.793084e-06	6.533975e-10	2.642129e+01	4.497835e+01
2.750000e-06	3.826851e-06	6.498100e-10	2.665650e+01	4.516147e+01
2.760000e-06	3.860167e-06	6.479259e-10	2.688857e+01	4.533765e+01
2.770000e-06	3.893075e-06	6.507055e-10	2.711780e+01	4.550721e+01
2.780000e-06	3.925604e-06	6.579792e-10	2.734438e+01	4.567046e+01
2.790000e-06	3.957811e-06	6.677955e-10	2.756872e+01	4.582768e+01
2.800000e-06	3.989758e-06	6.745714e-10	2.779125e+01	4.597915e+01
2.810000e-06	4.021479e-06	6.763902e-10	2.801221e+01	4.612513e+01
2.820000e-06	4.053010e-06	6.746926e-10	2.823184e+01	4.626586e+01
2.830000e-06	4.084422e-06	6.725751e-10	2.845065e+01	4.640158e+01
2.840000e-06	4.115643e-06	6.728198e-10	2.866813e+01	4.653249e+01
2.850000e-06	4.146578e-06	6.782344e-10	2.888360e+01	4.665878e+01
2.860000e-06	4.177191e-06	6.858235e-10	2.909685e+01	4.678063e+01
2.870000e-06	4.207558e-06	6.907609e-10	2.930837e+01	4.689820e+01
2.880000e-06	4.237615e-06	6.934230e-10	2.951774e+01	4.701163e+01
2.890000e-06	4.267300e-06	6.938287e-10	2.972451e+01	4.712103e+01
2.900000e-06	4.296734e-06	6.926815e-10	2.992954e+01	4.722652e+01
