# Temperatura_=_-0.58
# Concentracion g/m^3_=_1620.0
# C_Vs_to_Am_M_A/Vsm_=_65563218390.804596
# pendiente_HvsI_1/m_=_3716.3
# ordenada_HvsI_A/m_=_1297.0
# frecuencia_Hz_=_135098.06316185786

Tiempo_(s)	Campo_(V.s)	Magnetizacion_(V.s)	Campo_(kA/m)	Magnetizacion_(A/m)
0.000000e+00	-5.516566e-06	-1.325354e-09	-3.837604e+01	-8.871609e+01
1.000000e-08	-5.516885e-06	-1.323327e-09	-3.837825e+01	-8.866613e+01
2.000000e-08	-5.517055e-06	-1.321627e-09	-3.837944e+01	-8.861603e+01
3.000000e-08	-5.516866e-06	-1.319998e-09	-3.837813e+01	-8.856572e+01
4.000000e-08	-5.516155e-06	-1.317794e-09	-3.837318e+01	-8.851511e+01
5.000000e-08	-5.514848e-06	-1.309448e-09	-3.836409e+01	-8.846408e+01
6.000000e-08	-5.512796e-06	-1.295256e-09	-3.834982e+01	-8.841252e+01
7.000000e-08	-5.510288e-06	-1.295588e-09	-3.833237e+01	-8.836029e+01
8.000000e-08	-5.507373e-06	-1.356512e-09	-3.831209e+01	-8.830724e+01
9.000000e-08	-5.503879e-06	-1.413632e-09	-3.828778e+01	-8.825321e+01
1.000000e-07	-5.499884e-06	-1.382364e-09	-3.825999e+01	-8.819803e+01
1.100000e-07	-5.495654e-06	-1.308169e-09	-3.823056e+01	-8.814152e+01
1.200000e-07	-5.491311e-06	-1.291691e-09	-3.820036e+01	-8.808347e+01
1.300000e-07	-5.486654e-06	-1.307805e-09	-3.816795e+01	-8.802371e+01
1.400000e-07	-5.481576e-06	-1.321550e-09	-3.813263e+01	-8.796202e+01
1.500000e-07	-5.476149e-06	-1.285521e-09	-3.809488e+01	-8.789820e+01
1.600000e-07	-5.470486e-06	-1.326568e-09	-3.805548e+01	-8.783205e+01
1.700000e-07	-5.464406e-06	-1.342878e-09	-3.801319e+01	-8.776335e+01
1.800000e-07	-5.457747e-06	-1.360728e-09	-3.796687e+01	-8.769190e+01
1.900000e-07	-5.450569e-06	-1.303389e-09	-3.791693e+01	-8.761749e+01
2.000000e-07	-5.443087e-06	-1.284322e-09	-3.786488e+01	-8.753992e+01
2.100000e-07	-5.435311e-06	-1.299293e-09	-3.781079e+01	-8.745900e+01
2.200000e-07	-5.427295e-06	-1.356078e-09	-3.775503e+01	-8.737454e+01
2.300000e-07	-5.419196e-06	-1.369004e-09	-3.769868e+01	-8.728635e+01
2.400000e-07	-5.410761e-06	-1.342411e-09	-3.764000e+01	-8.719426e+01
2.500000e-07	-5.401620e-06	-1.333981e-09	-3.757642e+01	-8.709811e+01
2.600000e-07	-5.391794e-06	-1.319828e-09	-3.750806e+01	-8.699775e+01
2.700000e-07	-5.381361e-06	-1.302739e-09	-3.743548e+01	-8.689303e+01
2.800000e-07	-5.370363e-06	-1.286123e-09	-3.735898e+01	-8.678382e+01
2.900000e-07	-5.359025e-06	-1.331807e-09	-3.728011e+01	-8.667002e+01
3.000000e-07	-5.347335e-06	-1.325263e-09	-3.719878e+01	-8.655150e+01
3.100000e-07	-5.335179e-06	-1.304952e-09	-3.711422e+01	-8.642819e+01
3.200000e-07	-5.322569e-06	-1.281354e-09	-3.702650e+01	-8.630001e+01
3.300000e-07	-5.309594e-06	-1.329546e-09	-3.693624e+01	-8.616689e+01
3.400000e-07	-5.296316e-06	-1.296947e-09	-3.684386e+01	-8.602878e+01
3.500000e-07	-5.282614e-06	-1.275700e-09	-3.674855e+01	-8.588565e+01
3.600000e-07	-5.268408e-06	-1.292096e-09	-3.664972e+01	-8.573748e+01
3.700000e-07	-5.253820e-06	-1.328817e-09	-3.654824e+01	-8.558424e+01
3.800000e-07	-5.238800e-06	-1.281661e-09	-3.644376e+01	-8.542595e+01
3.900000e-07	-5.223204e-06	-1.287638e-09	-3.633526e+01	-8.526262e+01
4.000000e-07	-5.207086e-06	-1.316164e-09	-3.622314e+01	-8.509427e+01
4.100000e-07	-5.190572e-06	-1.283030e-09	-3.610826e+01	-8.492093e+01
4.200000e-07	-5.173616e-06	-1.245311e-09	-3.599031e+01	-8.474266e+01
4.300000e-07	-5.156348e-06	-1.304811e-09	-3.587018e+01	-8.455950e+01
4.400000e-07	-5.138911e-06	-1.310019e-09	-3.574888e+01	-8.437152e+01
4.500000e-07	-5.121069e-06	-1.257837e-09	-3.562476e+01	-8.417878e+01
4.600000e-07	-5.102671e-06	-1.282666e-09	-3.549678e+01	-8.398136e+01
4.700000e-07	-5.083878e-06	-1.313814e-09	-3.536604e+01	-8.377935e+01
4.800000e-07	-5.064799e-06	-1.252911e-09	-3.523332e+01	-8.357282e+01
4.900000e-07	-5.045453e-06	-1.250021e-09	-3.509873e+01	-8.336186e+01
5.000000e-07	-5.025869e-06	-1.304733e-09	-3.496250e+01	-8.314657e+01
5.100000e-07	-5.006060e-06	-1.253838e-09	-3.482470e+01	-8.292704e+01
5.200000e-07	-4.985927e-06	-1.216776e-09	-3.468464e+01	-8.270337e+01
5.300000e-07	-4.965488e-06	-1.287132e-09	-3.454246e+01	-8.247565e+01
5.400000e-07	-4.944783e-06	-1.289558e-09	-3.439843e+01	-8.224397e+01
5.500000e-07	-4.923714e-06	-1.213116e-09	-3.425186e+01	-8.200843e+01
5.600000e-07	-4.902247e-06	-1.240522e-09	-3.410252e+01	-8.176912e+01
5.700000e-07	-4.880415e-06	-1.262826e-09	-3.395065e+01	-8.152613e+01
5.800000e-07	-4.858208e-06	-1.215511e-09	-3.379617e+01	-8.127955e+01
5.900000e-07	-4.835626e-06	-1.223057e-09	-3.363907e+01	-8.102946e+01
6.000000e-07	-4.812768e-06	-1.269677e-09	-3.348006e+01	-8.077594e+01
6.100000e-07	-4.789593e-06	-1.218686e-09	-3.331884e+01	-8.051908e+01
6.200000e-07	-4.766139e-06	-1.196394e-09	-3.315569e+01	-8.025893e+01
6.300000e-07	-4.742517e-06	-1.224706e-09	-3.299136e+01	-7.999557e+01
6.400000e-07	-4.718677e-06	-1.206004e-09	-3.282551e+01	-7.972907e+01
6.500000e-07	-4.694476e-06	-1.174494e-09	-3.265716e+01	-7.945948e+01
6.600000e-07	-4.669839e-06	-1.206083e-09	-3.248578e+01	-7.918685e+01
6.700000e-07	-4.644787e-06	-1.201728e-09	-3.231150e+01	-7.891124e+01
6.800000e-07	-4.619213e-06	-1.178487e-09	-3.213360e+01	-7.863268e+01
6.900000e-07	-4.593019e-06	-1.188244e-09	-3.195138e+01	-7.835122e+01
7.000000e-07	-4.566275e-06	-1.192222e-09	-3.176533e+01	-7.806689e+01
7.100000e-07	-4.539132e-06	-1.157894e-09	-3.157651e+01	-7.777972e+01
7.200000e-07	-4.511714e-06	-1.159576e-09	-3.138578e+01	-7.748974e+01
7.300000e-07	-4.484130e-06	-1.171177e-09	-3.119389e+01	-7.719696e+01
7.400000e-07	-4.456402e-06	-1.154962e-09	-3.100100e+01	-7.690141e+01
7.500000e-07	-4.428415e-06	-1.144390e-09	-3.080631e+01	-7.660310e+01
7.600000e-07	-4.400154e-06	-1.150232e-09	-3.060971e+01	-7.630204e+01
7.700000e-07	-4.371645e-06	-1.135975e-09	-3.041139e+01	-7.599823e+01
7.800000e-07	-4.342851e-06	-1.124155e-09	-3.021108e+01	-7.569167e+01
7.900000e-07	-4.313746e-06	-1.134471e-09	-3.000861e+01	-7.538237e+01
8.000000e-07	-4.284303e-06	-1.131622e-09	-2.980379e+01	-7.507032e+01
8.100000e-07	-4.254485e-06	-1.114454e-09	-2.959636e+01	-7.475551e+01
8.200000e-07	-4.224431e-06	-1.110325e-09	-2.938729e+01	-7.443793e+01
8.300000e-07	-4.194147e-06	-1.111722e-09	-2.917662e+01	-7.411758e+01
8.400000e-07	-4.163523e-06	-1.095045e-09	-2.896358e+01	-7.379443e+01
8.500000e-07	-4.132652e-06	-1.089664e-09	-2.874883e+01	-7.346847e+01
8.600000e-07	-4.101512e-06	-1.090292e-09	-2.853220e+01	-7.313968e+01
8.700000e-07	-4.070147e-06	-1.081176e-09	-2.831401e+01	-7.280803e+01
8.800000e-07	-4.038635e-06	-1.068811e-09	-2.809480e+01	-7.247350e+01
8.900000e-07	-4.006946e-06	-1.073721e-09	-2.787435e+01	-7.213606e+01
9.000000e-07	-3.975061e-06	-1.064888e-09	-2.765254e+01	-7.179569e+01
9.100000e-07	-3.942859e-06	-1.050193e-09	-2.742853e+01	-7.145235e+01
9.200000e-07	-3.910298e-06	-1.047495e-09	-2.720202e+01	-7.110601e+01
9.300000e-07	-3.877351e-06	-1.048979e-09	-2.697283e+01	-7.075663e+01
9.400000e-07	-3.843947e-06	-1.032195e-09	-2.674045e+01	-7.040417e+01
9.500000e-07	-3.810059e-06	-1.027800e-09	-2.650471e+01	-7.004860e+01
9.600000e-07	-3.775731e-06	-1.026423e-09	-2.626590e+01	-6.968986e+01
9.700000e-07	-3.741014e-06	-1.013275e-09	-2.602439e+01	-6.932792e+01
9.800000e-07	-3.705960e-06	-1.003841e-09	-2.578054e+01	-6.896273e+01
9.900000e-07	-3.670703e-06	-1.008789e-09	-2.553528e+01	-6.859424e+01
1.000000e-06	-3.635252e-06	-1.003171e-09	-2.528866e+01	-6.822239e+01
1.010000e-06	-3.599632e-06	-9.903603e-10	-2.504087e+01	-6.784714e+01
1.020000e-06	-3.563905e-06	-9.881523e-10	-2.479234e+01	-6.746842e+01
1.030000e-06	-3.528050e-06	-9.856885e-10	-2.454291e+01	-6.708618e+01
1.040000e-06	-3.491940e-06	-9.734004e-10	-2.429171e+01	-6.670037e+01
1.050000e-06	-3.455603e-06	-9.693800e-10	-2.403893e+01	-6.631090e+01
1.060000e-06	-3.419052e-06	-9.691737e-10	-2.378467e+01	-6.591774e+01
1.070000e-06	-3.382143e-06	-9.583534e-10	-2.352791e+01	-6.552080e+01
1.080000e-06	-3.344868e-06	-9.495065e-10	-2.326860e+01	-6.512002e+01
1.090000e-06	-3.307337e-06	-9.455134e-10	-2.300752e+01	-6.471533e+01
1.100000e-06	-3.269637e-06	-9.340691e-10	-2.274526e+01	-6.430667e+01
1.110000e-06	-3.231858e-06	-9.202239e-10	-2.248245e+01	-6.389396e+01
1.120000e-06	-3.193912e-06	-9.163728e-10	-2.221848e+01	-6.347712e+01
1.130000e-06	-3.155681e-06	-9.125066e-10	-2.195252e+01	-6.305609e+01
1.140000e-06	-3.117232e-06	-9.046108e-10	-2.168505e+01	-6.263080e+01
1.150000e-06	-3.078545e-06	-8.973052e-10	-2.141592e+01	-6.220115e+01
1.160000e-06	-3.039590e-06	-8.903588e-10	-2.114493e+01	-6.176708e+01
1.170000e-06	-3.000419e-06	-8.788439e-10	-2.087244e+01	-6.132850e+01
1.180000e-06	-2.961112e-06	-8.721887e-10	-2.059900e+01	-6.088534e+01
1.190000e-06	-2.921707e-06	-8.654149e-10	-2.032488e+01	-6.043752e+01
1.200000e-06	-2.882153e-06	-8.551659e-10	-2.004972e+01	-5.998494e+01
1.210000e-06	-2.842438e-06	-8.449824e-10	-1.977345e+01	-5.952753e+01
1.220000e-06	-2.802591e-06	-8.413182e-10	-1.949625e+01	-5.906519e+01
1.230000e-06	-2.762677e-06	-8.337902e-10	-1.921859e+01	-5.859784e+01
1.240000e-06	-2.722589e-06	-8.231997e-10	-1.893971e+01	-5.812539e+01
1.250000e-06	-2.682246e-06	-8.151067e-10	-1.865907e+01	-5.764773e+01
1.260000e-06	-2.641630e-06	-8.072454e-10	-1.837652e+01	-5.716476e+01
1.270000e-06	-2.600715e-06	-7.949497e-10	-1.809189e+01	-5.667639e+01
1.280000e-06	-2.559448e-06	-7.837765e-10	-1.780482e+01	-5.618250e+01
1.290000e-06	-2.517874e-06	-7.771757e-10	-1.751561e+01	-5.568298e+01
1.300000e-06	-2.476083e-06	-7.712777e-10	-1.722489e+01	-5.517770e+01
1.310000e-06	-2.434088e-06	-7.626294e-10	-1.693275e+01	-5.466654e+01
1.320000e-06	-2.391783e-06	-7.540040e-10	-1.663846e+01	-5.414936e+01
1.330000e-06	-2.349126e-06	-7.448724e-10	-1.634171e+01	-5.362602e+01
1.340000e-06	-2.306348e-06	-7.361055e-10	-1.604413e+01	-5.309636e+01
1.350000e-06	-2.263314e-06	-7.274484e-10	-1.574477e+01	-5.256022e+01
1.360000e-06	-2.219985e-06	-7.170926e-10	-1.544335e+01	-5.201743e+01
1.370000e-06	-2.176552e-06	-7.065156e-10	-1.514120e+01	-5.146780e+01
1.380000e-06	-2.133014e-06	-7.001195e-10	-1.483833e+01	-5.091113e+01
1.390000e-06	-2.089333e-06	-6.963718e-10	-1.453446e+01	-5.034720e+01
1.400000e-06	-2.045586e-06	-6.903543e-10	-1.423014e+01	-4.977580e+01
1.410000e-06	-2.001799e-06	-6.828236e-10	-1.392553e+01	-4.919667e+01
1.420000e-06	-1.958001e-06	-6.745252e-10	-1.362085e+01	-4.860958e+01
1.430000e-06	-1.914179e-06	-6.649631e-10	-1.331600e+01	-4.801423e+01
1.440000e-06	-1.870206e-06	-6.534076e-10	-1.301010e+01	-4.741036e+01
1.450000e-06	-1.826092e-06	-6.424036e-10	-1.270323e+01	-4.679765e+01
1.460000e-06	-1.781900e-06	-6.332709e-10	-1.239580e+01	-4.617578e+01
1.470000e-06	-1.737616e-06	-6.252446e-10	-1.208774e+01	-4.554442e+01
1.480000e-06	-1.693208e-06	-6.156757e-10	-1.177882e+01	-4.490321e+01
1.490000e-06	-1.648547e-06	-6.033492e-10	-1.146813e+01	-4.425179e+01
1.500000e-06	-1.603682e-06	-5.912038e-10	-1.115603e+01	-4.358977e+01
1.510000e-06	-1.558769e-06	-5.830756e-10	-1.084359e+01	-4.291675e+01
1.520000e-06	-1.513735e-06	-5.737072e-10	-1.053031e+01	-4.223232e+01
1.530000e-06	-1.468590e-06	-5.638931e-10	-1.021626e+01	-4.153605e+01
1.540000e-06	-1.423331e-06	-5.527461e-10	-9.901414e+00	-4.082750e+01
1.550000e-06	-1.377940e-06	-5.395045e-10	-9.585652e+00	-4.010623e+01
1.560000e-06	-1.332464e-06	-5.250596e-10	-9.269295e+00	-3.937178e+01
1.570000e-06	-1.286882e-06	-5.119469e-10	-8.952205e+00	-3.862367e+01
1.580000e-06	-1.241204e-06	-4.992950e-10	-8.634450e+00	-3.786145e+01
1.590000e-06	-1.195434e-06	-4.880418e-10	-8.316044e+00	-3.708464e+01
1.600000e-06	-1.149601e-06	-4.780210e-10	-7.997209e+00	-3.629276e+01
1.610000e-06	-1.103722e-06	-4.675928e-10	-7.678050e+00	-3.548534e+01
1.620000e-06	-1.057819e-06	-4.553951e-10	-7.358729e+00	-3.466192e+01
1.630000e-06	-1.011902e-06	-4.438852e-10	-7.039306e+00	-3.382203e+01
1.640000e-06	-9.658725e-07	-4.353249e-10	-6.719100e+00	-3.296523e+01
1.650000e-06	-9.196650e-07	-4.244905e-10	-6.397657e+00	-3.209108e+01
1.660000e-06	-8.733538e-07	-4.101877e-10	-6.075493e+00	-3.119916e+01
1.670000e-06	-8.269932e-07	-3.952492e-10	-5.752985e+00	-3.028906e+01
1.680000e-06	-7.806141e-07	-3.781666e-10	-5.430349e+00	-2.936042e+01
1.690000e-06	-7.341849e-07	-3.591831e-10	-5.107363e+00	-2.841289e+01
1.700000e-06	-6.877546e-07	-3.443150e-10	-4.784371e+00	-2.744613e+01
1.710000e-06	-6.413109e-07	-3.329724e-10	-4.461284e+00	-2.645987e+01
1.720000e-06	-5.947363e-07	-3.206606e-10	-4.137288e+00	-2.545385e+01
1.730000e-06	-5.480662e-07	-3.075431e-10	-3.812627e+00	-2.442787e+01
1.740000e-06	-5.013748e-07	-2.931110e-10	-3.487818e+00	-2.338174e+01
1.750000e-06	-4.546798e-07	-2.742447e-10	-3.162984e+00	-2.231536e+01
1.760000e-06	-4.079563e-07	-2.549415e-10	-2.837951e+00	-2.122865e+01
1.770000e-06	-3.611671e-07	-2.383891e-10	-2.512462e+00	-2.012157e+01
1.780000e-06	-3.143533e-07	-2.234806e-10	-2.186801e+00	-1.899418e+01
1.790000e-06	-2.675384e-07	-2.098091e-10	-1.861133e+00	-1.784654e+01
1.800000e-06	-2.207001e-07	-1.970419e-10	-1.535302e+00	-1.667880e+01
1.810000e-06	-1.738737e-07	-1.822371e-10	-1.209554e+00	-1.549117e+01
1.820000e-06	-1.270827e-07	-1.647530e-10	-8.840522e-01	-1.428391e+01
1.830000e-06	-8.031206e-08	-1.471685e-10	-5.586916e-01	-1.305736e+01
1.840000e-06	-3.347542e-08	-1.313807e-10	-2.328721e-01	-1.181189e+01
1.850000e-06	1.337745e-08	-1.154733e-10	9.306034e-02	-1.054796e+01
1.860000e-06	6.015840e-08	-9.902736e-11	4.184924e-01	-9.266097e+00
1.870000e-06	1.069325e-07	-8.142650e-11	7.438767e-01	-7.966869e+00
1.880000e-06	1.538176e-07	-6.192302e-11	1.070034e+00	-6.650922e+00
1.890000e-06	2.006596e-07	-4.138695e-11	1.395890e+00	-5.318961e+00
1.900000e-06	2.473521e-07	-2.133664e-11	1.720707e+00	-3.971749e+00
1.910000e-06	2.940938e-07	-2.393447e-12	2.045866e+00	-2.610110e+00
1.920000e-06	3.408798e-07	1.543553e-11	2.371333e+00	-1.234921e+00
1.930000e-06	3.875823e-07	3.181006e-11	2.696220e+00	1.528834e-01
1.940000e-06	4.341496e-07	4.801102e-11	3.020165e+00	1.552320e+00
1.950000e-06	4.806874e-07	6.698683e-11	3.343906e+00	2.962357e+00
1.960000e-06	5.272192e-07	8.862379e-11	3.667605e+00	4.381918e+00
1.970000e-06	5.737485e-07	1.102157e-10	3.991286e+00	5.809886e+00
1.980000e-06	6.202335e-07	1.325829e-10	4.314659e+00	7.245106e+00
1.990000e-06	6.666587e-07	1.523530e-10	4.637617e+00	8.686393e+00
2.000000e-06	7.130194e-07	1.698973e-10	4.960125e+00	1.013253e+01
2.010000e-06	7.593121e-07	1.874795e-10	5.282161e+00	1.158229e+01
2.020000e-06	8.057362e-07	2.071711e-10	5.605111e+00	1.303440e+01
2.030000e-06	8.521228e-07	2.283559e-10	5.927800e+00	1.448760e+01
2.040000e-06	8.981852e-07	2.496058e-10	6.248233e+00	1.594061e+01
2.050000e-06	9.440976e-07	2.692103e-10	6.567623e+00	1.739215e+01
2.060000e-06	9.900601e-07	2.865325e-10	6.887362e+00	1.884093e+01
2.070000e-06	1.035991e-06	3.059485e-10	7.206878e+00	2.028570e+01
2.080000e-06	1.081825e-06	3.270551e-10	7.525728e+00	2.172517e+01
2.090000e-06	1.127589e-06	3.484767e-10	7.844086e+00	2.315812e+01
2.100000e-06	1.173296e-06	3.701723e-10	8.162046e+00	2.458331e+01
2.110000e-06	1.218922e-06	3.910681e-10	8.479443e+00	2.599956e+01
2.120000e-06	1.264436e-06	4.092965e-10	8.796059e+00	2.740570e+01
2.130000e-06	1.309882e-06	4.267873e-10	9.112206e+00	2.880059e+01
2.140000e-06	1.355240e-06	4.466815e-10	9.427741e+00	3.018316e+01
2.150000e-06	1.400414e-06	4.683352e-10	9.741990e+00	3.155235e+01
2.160000e-06	1.445467e-06	4.890189e-10	1.005541e+01	3.290717e+01
2.170000e-06	1.490506e-06	5.095168e-10	1.036872e+01	3.424667e+01
2.180000e-06	1.535475e-06	5.289297e-10	1.068155e+01	3.556996e+01
2.190000e-06	1.580319e-06	5.464762e-10	1.099350e+01	3.687620e+01
2.200000e-06	1.625101e-06	5.624967e-10	1.130503e+01	3.816461e+01
2.210000e-06	1.669795e-06	5.779957e-10	1.161594e+01	3.943447e+01
2.220000e-06	1.714302e-06	5.935601e-10	1.192556e+01	4.068512e+01
2.230000e-06	1.758628e-06	6.109367e-10	1.223391e+01	4.191598e+01
2.240000e-06	1.802819e-06	6.281177e-10	1.254133e+01	4.312651e+01
2.250000e-06	1.846863e-06	6.423357e-10	1.284772e+01	4.431624e+01
2.260000e-06	1.890810e-06	6.547769e-10	1.315343e+01	4.548477e+01
2.270000e-06	1.934715e-06	6.671334e-10	1.345886e+01	4.663177e+01
2.280000e-06	1.978549e-06	6.848905e-10	1.376379e+01	4.775696e+01
2.290000e-06	2.022262e-06	7.042040e-10	1.406788e+01	4.886011e+01
2.300000e-06	2.065906e-06	7.218883e-10	1.437149e+01	4.994109e+01
2.310000e-06	2.109508e-06	7.359909e-10	1.467481e+01	5.099979e+01
2.320000e-06	2.152975e-06	7.488393e-10	1.497719e+01	5.203617e+01
2.330000e-06	2.196325e-06	7.617312e-10	1.527875e+01	5.305026e+01
2.340000e-06	2.239583e-06	7.751651e-10	1.557968e+01	5.404210e+01
2.350000e-06	2.282721e-06	7.908179e-10	1.587977e+01	5.501183e+01
2.360000e-06	2.325673e-06	8.079143e-10	1.617856e+01	5.595960e+01
2.370000e-06	2.368397e-06	8.253452e-10	1.647578e+01	5.688562e+01
2.380000e-06	2.410881e-06	8.381882e-10	1.677131e+01	5.779012e+01
2.390000e-06	2.453092e-06	8.470216e-10	1.706496e+01	5.867338e+01
2.400000e-06	2.494924e-06	8.551004e-10	1.735596e+01	5.953573e+01
2.410000e-06	2.536343e-06	8.633460e-10	1.764409e+01	6.037749e+01
2.420000e-06	2.577533e-06	8.733348e-10	1.793063e+01	6.119903e+01
2.430000e-06	2.618446e-06	8.869058e-10	1.821524e+01	6.200074e+01
2.440000e-06	2.659058e-06	9.034187e-10	1.849776e+01	6.278303e+01
2.450000e-06	2.699422e-06	9.161052e-10	1.877855e+01	6.354631e+01
2.460000e-06	2.739582e-06	9.245369e-10	1.905792e+01	6.429102e+01
2.470000e-06	2.779590e-06	9.353698e-10	1.933624e+01	6.501759e+01
2.480000e-06	2.819474e-06	9.469072e-10	1.961369e+01	6.572648e+01
2.490000e-06	2.859234e-06	9.574021e-10	1.989028e+01	6.641813e+01
2.500000e-06	2.898824e-06	9.667625e-10	2.016569e+01	6.709299e+01
2.510000e-06	2.938269e-06	9.761910e-10	2.044010e+01	6.775150e+01
2.520000e-06	2.977579e-06	9.852452e-10	2.071355e+01	6.839411e+01
2.530000e-06	3.016706e-06	9.942141e-10	2.098574e+01	6.902125e+01
2.540000e-06	3.055573e-06	1.002361e-09	2.125612e+01	6.963335e+01
2.550000e-06	3.094280e-06	1.009684e-09	2.152539e+01	7.023081e+01
2.560000e-06	3.132836e-06	1.019579e-09	2.179360e+01	7.081403e+01
2.570000e-06	3.171047e-06	1.031517e-09	2.205942e+01	7.138342e+01
2.580000e-06	3.209008e-06	1.041999e-09	2.232349e+01	7.193933e+01
2.590000e-06	3.246860e-06	1.049533e-09	2.258681e+01	7.248214e+01
2.600000e-06	3.284499e-06	1.056160e-09	2.284864e+01	7.301218e+01
2.610000e-06	3.321898e-06	1.063750e-09	2.310882e+01	7.352978e+01
2.620000e-06	3.359030e-06	1.068418e-09	2.336712e+01	7.403526e+01
2.630000e-06	3.395864e-06	1.071396e-09	2.362336e+01	7.452890e+01
2.640000e-06	3.432490e-06	1.077037e-09	2.387815e+01	7.501101e+01
2.650000e-06	3.468868e-06	1.085009e-09	2.413121e+01	7.548183e+01
2.660000e-06	3.505006e-06	1.095401e-09	2.438261e+01	7.594162e+01
2.670000e-06	3.540942e-06	1.103948e-09	2.463259e+01	7.639063e+01
2.680000e-06	3.576680e-06	1.108300e-09	2.488120e+01	7.682908e+01
2.690000e-06	3.612323e-06	1.112942e-09	2.512915e+01	7.725718e+01
2.700000e-06	3.647931e-06	1.118924e-09	2.537687e+01	7.767514e+01
2.710000e-06	3.683445e-06	1.124288e-09	2.562392e+01	7.808315e+01
2.720000e-06	3.718783e-06	1.129226e-09	2.586975e+01	7.848140e+01
2.730000e-06	3.753789e-06	1.135756e-09	2.611327e+01	7.887007e+01
2.740000e-06	3.788378e-06	1.143263e-09	2.635389e+01	7.924932e+01
2.750000e-06	3.822595e-06	1.148447e-09	2.659191e+01	7.961933e+01
2.760000e-06	3.856294e-06	1.151834e-09	2.682634e+01	7.998026e+01
2.770000e-06	3.889361e-06	1.155584e-09	2.705638e+01	8.033227e+01
2.780000e-06	3.922042e-06	1.159352e-09	2.728372e+01	8.067551e+01
2.790000e-06	3.954456e-06	1.163520e-09	2.750921e+01	8.101013e+01
2.800000e-06	3.986587e-06	1.169325e-09	2.773273e+01	8.133630e+01
2.810000e-06	4.018516e-06	1.176120e-09	2.795484e+01	8.165416e+01
2.820000e-06	4.050207e-06	1.183462e-09	2.817530e+01	8.196388e+01
2.830000e-06	4.081706e-06	1.188020e-09	2.839442e+01	8.226560e+01
2.840000e-06	4.113064e-06	1.190950e-09	2.861256e+01	8.255948e+01
2.850000e-06	4.144146e-06	1.195316e-09	2.882879e+01	8.284568e+01
2.860000e-06	4.174935e-06	1.201726e-09	2.904297e+01	8.312435e+01
2.870000e-06	4.205489e-06	1.208334e-09	2.925552e+01	8.339566e+01
2.880000e-06	4.235710e-06	1.211796e-09	2.946575e+01	8.365976e+01
2.890000e-06	4.265568e-06	1.214180e-09	2.967346e+01	8.391682e+01
2.900000e-06	4.295139e-06	1.219555e-09	2.987917e+01	8.416700e+01
