# Temperatura_=_-16.85
# Concentracion g/m^3_=_1620.0
# C_Vs_to_Am_M_A/Vsm_=_65563218390.804596
# pendiente_HvsI_1/m_=_3716.3
# ordenada_HvsI_A/m_=_1297.0
# frecuencia_Hz_=_135107.6743115323

Tiempo_(s)	Campo_(V.s)	Magnetizacion_(V.s)	Campo_(kA/m)	Magnetizacion_(A/m)
0.000000e+00	-5.511633e-06	-5.965347e-10	-3.836592e+01	-4.066403e+01
1.000000e-08	-5.511728e-06	-5.962802e-10	-3.836658e+01	-4.062492e+01
2.000000e-08	-5.511439e-06	-5.972246e-10	-3.836457e+01	-4.059034e+01
3.000000e-08	-5.510749e-06	-5.970082e-10	-3.835977e+01	-4.056037e+01
4.000000e-08	-5.509611e-06	-5.892152e-10	-3.835185e+01	-4.053507e+01
5.000000e-08	-5.507914e-06	-5.733262e-10	-3.834003e+01	-4.051445e+01
6.000000e-08	-5.505586e-06	-5.674508e-10	-3.832382e+01	-4.049851e+01
7.000000e-08	-5.502666e-06	-5.950583e-10	-3.830350e+01	-4.048721e+01
8.000000e-08	-5.499287e-06	-6.626189e-10	-3.827998e+01	-4.048048e+01
9.000000e-08	-5.495467e-06	-6.970999e-10	-3.825339e+01	-4.047819e+01
1.000000e-07	-5.491189e-06	-6.255496e-10	-3.822361e+01	-4.048022e+01
1.100000e-07	-5.486694e-06	-5.340789e-10	-3.819232e+01	-4.048639e+01
1.200000e-07	-5.482027e-06	-5.666289e-10	-3.815983e+01	-4.049650e+01
1.300000e-07	-5.476963e-06	-6.367406e-10	-3.812459e+01	-4.051033e+01
1.400000e-07	-5.471524e-06	-6.213952e-10	-3.808672e+01	-4.052762e+01
1.500000e-07	-5.465799e-06	-5.286146e-10	-3.804687e+01	-4.054809e+01
1.600000e-07	-5.459717e-06	-5.684604e-10	-3.800454e+01	-4.057143e+01
1.700000e-07	-5.453092e-06	-6.669103e-10	-3.795842e+01	-4.059731e+01
1.800000e-07	-5.446011e-06	-6.765652e-10	-3.790913e+01	-4.062540e+01
1.900000e-07	-5.438713e-06	-5.564309e-10	-3.785833e+01	-4.065533e+01
2.000000e-07	-5.431154e-06	-5.440091e-10	-3.780571e+01	-4.068672e+01
2.100000e-07	-5.423306e-06	-6.385166e-10	-3.775108e+01	-4.071919e+01
2.200000e-07	-5.415206e-06	-6.972445e-10	-3.769470e+01	-4.075234e+01
2.300000e-07	-5.406718e-06	-6.419908e-10	-3.763561e+01	-4.078578e+01
2.400000e-07	-5.397595e-06	-6.085291e-10	-3.757211e+01	-4.081911e+01
2.500000e-07	-5.387762e-06	-6.517543e-10	-3.750367e+01	-4.085191e+01
2.600000e-07	-5.377356e-06	-6.505306e-10	-3.743123e+01	-4.088380e+01
2.700000e-07	-5.366549e-06	-6.094694e-10	-3.735600e+01	-4.091438e+01
2.800000e-07	-5.355323e-06	-6.095569e-10	-3.727786e+01	-4.094326e+01
2.900000e-07	-5.343657e-06	-6.636606e-10	-3.719665e+01	-4.097009e+01
3.000000e-07	-5.331625e-06	-6.495162e-10	-3.711290e+01	-4.099450e+01
3.100000e-07	-5.319173e-06	-6.217259e-10	-3.702623e+01	-4.101615e+01
3.200000e-07	-5.306244e-06	-6.237245e-10	-3.693623e+01	-4.103473e+01
3.300000e-07	-5.292964e-06	-6.604135e-10	-3.684378e+01	-4.104993e+01
3.400000e-07	-5.279321e-06	-6.255806e-10	-3.674882e+01	-4.106149e+01
3.500000e-07	-5.265174e-06	-6.064768e-10	-3.665034e+01	-4.106915e+01
3.600000e-07	-5.250613e-06	-6.225236e-10	-3.654899e+01	-4.107269e+01
3.700000e-07	-5.235580e-06	-6.514844e-10	-3.644434e+01	-4.107191e+01
3.800000e-07	-5.219883e-06	-6.223235e-10	-3.633507e+01	-4.106665e+01
3.900000e-07	-5.203701e-06	-6.289504e-10	-3.622244e+01	-4.105678e+01
4.000000e-07	-5.187246e-06	-6.498455e-10	-3.610790e+01	-4.104219e+01
4.100000e-07	-5.170456e-06	-6.284226e-10	-3.599102e+01	-4.102280e+01
4.200000e-07	-5.153274e-06	-5.914668e-10	-3.587142e+01	-4.099857e+01
4.300000e-07	-5.135816e-06	-6.335914e-10	-3.574990e+01	-4.096949e+01
4.400000e-07	-5.118103e-06	-6.649473e-10	-3.562660e+01	-4.093557e+01
4.500000e-07	-5.099998e-06	-6.296768e-10	-3.550057e+01	-4.089686e+01
4.600000e-07	-5.081391e-06	-6.187965e-10	-3.537105e+01	-4.085343e+01
4.700000e-07	-5.062401e-06	-6.607026e-10	-3.523886e+01	-4.080539e+01
4.800000e-07	-5.043174e-06	-6.511424e-10	-3.510502e+01	-4.075285e+01
4.900000e-07	-5.023673e-06	-6.223019e-10	-3.496928e+01	-4.069596e+01
5.000000e-07	-5.003930e-06	-6.416233e-10	-3.483185e+01	-4.063490e+01
5.100000e-07	-4.983958e-06	-6.414508e-10	-3.469283e+01	-4.056987e+01
5.200000e-07	-4.963611e-06	-6.131149e-10	-3.455119e+01	-4.050105e+01
5.300000e-07	-4.942862e-06	-6.360470e-10	-3.440676e+01	-4.042869e+01
5.400000e-07	-4.921754e-06	-6.639868e-10	-3.425983e+01	-4.035302e+01
5.500000e-07	-4.900318e-06	-6.206809e-10	-3.411062e+01	-4.027429e+01
5.600000e-07	-4.878605e-06	-6.025878e-10	-3.395947e+01	-4.019275e+01
5.700000e-07	-4.856511e-06	-6.338496e-10	-3.380568e+01	-4.010868e+01
5.800000e-07	-4.834074e-06	-6.334731e-10	-3.364950e+01	-4.002232e+01
5.900000e-07	-4.811334e-06	-6.082892e-10	-3.349121e+01	-3.993396e+01
6.000000e-07	-4.788289e-06	-6.263657e-10	-3.333080e+01	-3.984386e+01
6.100000e-07	-4.765004e-06	-6.302046e-10	-3.316871e+01	-3.975228e+01
6.200000e-07	-4.741464e-06	-6.104082e-10	-3.300485e+01	-3.965947e+01
6.300000e-07	-4.717686e-06	-6.085758e-10	-3.283933e+01	-3.956569e+01
6.400000e-07	-4.693554e-06	-6.206004e-10	-3.267136e+01	-3.947117e+01
6.500000e-07	-4.668920e-06	-6.065082e-10	-3.249988e+01	-3.937614e+01
6.600000e-07	-4.643770e-06	-6.042777e-10	-3.232482e+01	-3.928081e+01
6.700000e-07	-4.618164e-06	-6.073946e-10	-3.214657e+01	-3.918538e+01
6.800000e-07	-4.592022e-06	-6.048636e-10	-3.196460e+01	-3.909002e+01
6.900000e-07	-4.565313e-06	-6.004758e-10	-3.177868e+01	-3.899489e+01
7.000000e-07	-4.538263e-06	-6.055389e-10	-3.159039e+01	-3.890014e+01
7.100000e-07	-4.510938e-06	-5.980238e-10	-3.140018e+01	-3.880590e+01
7.200000e-07	-4.483402e-06	-5.957104e-10	-3.120851e+01	-3.871225e+01
7.300000e-07	-4.455752e-06	-5.958231e-10	-3.101604e+01	-3.861929e+01
7.400000e-07	-4.427862e-06	-5.919592e-10	-3.082190e+01	-3.852707e+01
7.500000e-07	-4.399651e-06	-5.858304e-10	-3.062553e+01	-3.843563e+01
7.600000e-07	-4.371134e-06	-5.847143e-10	-3.042702e+01	-3.834499e+01
7.700000e-07	-4.342332e-06	-5.777508e-10	-3.022653e+01	-3.825515e+01
7.800000e-07	-4.313243e-06	-5.754481e-10	-3.002405e+01	-3.816608e+01
7.900000e-07	-4.283870e-06	-5.846798e-10	-2.981959e+01	-3.807774e+01
8.000000e-07	-4.254226e-06	-5.837286e-10	-2.961324e+01	-3.799008e+01
8.100000e-07	-4.224296e-06	-5.754509e-10	-2.940490e+01	-3.790301e+01
8.200000e-07	-4.194074e-06	-5.765735e-10	-2.919453e+01	-3.781645e+01
8.300000e-07	-4.163569e-06	-5.772113e-10	-2.898218e+01	-3.773029e+01
8.400000e-07	-4.132765e-06	-5.636535e-10	-2.876776e+01	-3.764441e+01
8.500000e-07	-4.101656e-06	-5.562926e-10	-2.855121e+01	-3.755867e+01
8.600000e-07	-4.070299e-06	-5.588361e-10	-2.833294e+01	-3.747295e+01
8.700000e-07	-4.038766e-06	-5.581564e-10	-2.811344e+01	-3.738708e+01
8.800000e-07	-4.007079e-06	-5.584005e-10	-2.789287e+01	-3.730092e+01
8.900000e-07	-3.975192e-06	-5.666839e-10	-2.767091e+01	-3.721430e+01
9.000000e-07	-3.942966e-06	-5.627709e-10	-2.744658e+01	-3.712705e+01
9.100000e-07	-3.910402e-06	-5.543954e-10	-2.721992e+01	-3.703902e+01
9.200000e-07	-3.877563e-06	-5.513599e-10	-2.699133e+01	-3.695003e+01
9.300000e-07	-3.844283e-06	-5.526633e-10	-2.675967e+01	-3.685992e+01
9.400000e-07	-3.810501e-06	-5.455376e-10	-2.652451e+01	-3.676853e+01
9.500000e-07	-3.776365e-06	-5.463669e-10	-2.628689e+01	-3.667570e+01
9.600000e-07	-3.741884e-06	-5.489100e-10	-2.604687e+01	-3.658128e+01
9.700000e-07	-3.707028e-06	-5.457477e-10	-2.580425e+01	-3.648512e+01
9.800000e-07	-3.671879e-06	-5.426381e-10	-2.555957e+01	-3.638707e+01
9.900000e-07	-3.636471e-06	-5.458871e-10	-2.531311e+01	-3.628702e+01
1.000000e-06	-3.600868e-06	-5.431820e-10	-2.506527e+01	-3.618483e+01
1.010000e-06	-3.565091e-06	-5.386104e-10	-2.481624e+01	-3.608040e+01
1.020000e-06	-3.529185e-06	-5.392691e-10	-2.456630e+01	-3.597363e+01
1.030000e-06	-3.493057e-06	-5.397855e-10	-2.431481e+01	-3.586441e+01
1.040000e-06	-3.456624e-06	-5.359874e-10	-2.406121e+01	-3.575267e+01
1.050000e-06	-3.419997e-06	-5.352559e-10	-2.380625e+01	-3.563833e+01
1.060000e-06	-3.383151e-06	-5.327307e-10	-2.354977e+01	-3.552134e+01
1.070000e-06	-3.346062e-06	-5.271345e-10	-2.329160e+01	-3.540164e+01
1.080000e-06	-3.308737e-06	-5.235290e-10	-2.303178e+01	-3.527919e+01
1.090000e-06	-3.271123e-06	-5.231510e-10	-2.276996e+01	-3.515395e+01
1.100000e-06	-3.233320e-06	-5.217030e-10	-2.250681e+01	-3.502590e+01
1.110000e-06	-3.195382e-06	-5.195575e-10	-2.224273e+01	-3.489502e+01
1.120000e-06	-3.157199e-06	-5.202955e-10	-2.197694e+01	-3.476130e+01
1.130000e-06	-3.118761e-06	-5.178444e-10	-2.170938e+01	-3.462472e+01
1.140000e-06	-3.080036e-06	-5.121998e-10	-2.143982e+01	-3.448529e+01
1.150000e-06	-3.041040e-06	-5.063140e-10	-2.116837e+01	-3.434300e+01
1.160000e-06	-3.001894e-06	-5.034624e-10	-2.089588e+01	-3.419785e+01
1.170000e-06	-2.962600e-06	-5.017190e-10	-2.062236e+01	-3.404986e+01
1.180000e-06	-2.923172e-06	-5.035085e-10	-2.034790e+01	-3.389901e+01
1.190000e-06	-2.883673e-06	-5.047019e-10	-2.007295e+01	-3.374530e+01
1.200000e-06	-2.844065e-06	-5.026030e-10	-1.979725e+01	-3.358874e+01
1.210000e-06	-2.804291e-06	-4.982634e-10	-1.952039e+01	-3.342931e+01
1.220000e-06	-2.764307e-06	-4.947871e-10	-1.924206e+01	-3.326700e+01
1.230000e-06	-2.724082e-06	-4.895268e-10	-1.896206e+01	-3.310179e+01
1.240000e-06	-2.683654e-06	-4.863211e-10	-1.868064e+01	-3.293365e+01
1.250000e-06	-2.643035e-06	-4.854186e-10	-1.839790e+01	-3.276254e+01
1.260000e-06	-2.602237e-06	-4.839164e-10	-1.811391e+01	-3.258842e+01
1.270000e-06	-2.561182e-06	-4.806727e-10	-1.782813e+01	-3.241122e+01
1.280000e-06	-2.519848e-06	-4.805925e-10	-1.754040e+01	-3.223088e+01
1.290000e-06	-2.478265e-06	-4.790563e-10	-1.725095e+01	-3.204731e+01
1.300000e-06	-2.436284e-06	-4.724937e-10	-1.695872e+01	-3.186042e+01
1.310000e-06	-2.393946e-06	-4.647807e-10	-1.666401e+01	-3.167011e+01
1.320000e-06	-2.351377e-06	-4.604765e-10	-1.636769e+01	-3.147625e+01
1.330000e-06	-2.308642e-06	-4.575129e-10	-1.607022e+01	-3.127870e+01
1.340000e-06	-2.265765e-06	-4.557891e-10	-1.577176e+01	-3.107733e+01
1.350000e-06	-2.222732e-06	-4.540659e-10	-1.547221e+01	-3.087196e+01
1.360000e-06	-2.179516e-06	-4.513553e-10	-1.517139e+01	-3.066243e+01
1.370000e-06	-2.136094e-06	-4.499120e-10	-1.486914e+01	-3.044853e+01
1.380000e-06	-2.092534e-06	-4.502462e-10	-1.456592e+01	-3.023008e+01
1.390000e-06	-2.048845e-06	-4.482724e-10	-1.426181e+01	-3.000685e+01
1.400000e-06	-2.005041e-06	-4.429611e-10	-1.395689e+01	-2.977863e+01
1.410000e-06	-1.961204e-06	-4.390270e-10	-1.365174e+01	-2.954517e+01
1.420000e-06	-1.917290e-06	-4.380945e-10	-1.334606e+01	-2.930622e+01
1.430000e-06	-1.873317e-06	-4.364535e-10	-1.303997e+01	-2.906153e+01
1.440000e-06	-1.829252e-06	-4.314309e-10	-1.273324e+01	-2.881083e+01
1.450000e-06	-1.785088e-06	-4.262353e-10	-1.242581e+01	-2.855384e+01
1.460000e-06	-1.740835e-06	-4.209581e-10	-1.211778e+01	-2.829029e+01
1.470000e-06	-1.696353e-06	-4.148673e-10	-1.180814e+01	-2.801990e+01
1.480000e-06	-1.651643e-06	-4.082062e-10	-1.149692e+01	-2.774235e+01
1.490000e-06	-1.606791e-06	-4.026779e-10	-1.118471e+01	-2.745738e+01
1.500000e-06	-1.561907e-06	-3.985647e-10	-1.087228e+01	-2.716467e+01
1.510000e-06	-1.516942e-06	-3.950454e-10	-1.055928e+01	-2.686393e+01
1.520000e-06	-1.471754e-06	-3.908515e-10	-1.024473e+01	-2.655486e+01
1.530000e-06	-1.426444e-06	-3.851368e-10	-9.929335e+00	-2.623717e+01
1.540000e-06	-1.381107e-06	-3.769295e-10	-9.613749e+00	-2.591056e+01
1.550000e-06	-1.335696e-06	-3.706207e-10	-9.297647e+00	-2.557474e+01
1.560000e-06	-1.290245e-06	-3.647412e-10	-8.981261e+00	-2.522943e+01
1.570000e-06	-1.244741e-06	-3.580733e-10	-8.664515e+00	-2.487436e+01
1.580000e-06	-1.199140e-06	-3.523529e-10	-8.347089e+00	-2.450924e+01
1.590000e-06	-1.153434e-06	-3.468229e-10	-8.028935e+00	-2.413382e+01
1.600000e-06	-1.107656e-06	-3.412297e-10	-7.710284e+00	-2.374785e+01
1.610000e-06	-1.061821e-06	-3.378532e-10	-7.391226e+00	-2.335107e+01
1.620000e-06	-1.015859e-06	-3.348533e-10	-7.071294e+00	-2.294327e+01
1.630000e-06	-9.697676e-07	-3.307503e-10	-6.750454e+00	-2.252423e+01
1.640000e-06	-9.235786e-07	-3.235631e-10	-6.428937e+00	-2.209373e+01
1.650000e-06	-8.773242e-07	-3.131902e-10	-6.106965e+00	-2.165159e+01
1.660000e-06	-8.310850e-07	-3.021933e-10	-5.785099e+00	-2.119763e+01
1.670000e-06	-7.847946e-07	-2.926125e-10	-5.462876e+00	-2.073169e+01
1.680000e-06	-7.383992e-07	-2.850729e-10	-5.139922e+00	-2.025364e+01
1.690000e-06	-6.919400e-07	-2.796824e-10	-4.816524e+00	-1.976334e+01
1.700000e-06	-6.454233e-07	-2.768456e-10	-4.492726e+00	-1.926068e+01
1.710000e-06	-5.988911e-07	-2.717627e-10	-4.168820e+00	-1.874559e+01
1.720000e-06	-5.524207e-07	-2.613725e-10	-3.845345e+00	-1.821798e+01
1.730000e-06	-5.059462e-07	-2.485939e-10	-3.521840e+00	-1.767782e+01
1.740000e-06	-4.593664e-07	-2.351532e-10	-3.197603e+00	-1.712506e+01
1.750000e-06	-4.126903e-07	-2.237235e-10	-2.872695e+00	-1.655971e+01
1.760000e-06	-3.659928e-07	-2.177114e-10	-2.547639e+00	-1.598178e+01
1.770000e-06	-3.193237e-07	-2.147365e-10	-2.222780e+00	-1.539130e+01
1.780000e-06	-2.725745e-07	-2.106901e-10	-1.897363e+00	-1.478832e+01
1.790000e-06	-2.257482e-07	-2.029265e-10	-1.571410e+00	-1.417293e+01
1.800000e-06	-1.790057e-07	-1.929309e-10	-1.246040e+00	-1.354523e+01
1.810000e-06	-1.323018e-07	-1.824860e-10	-9.209392e-01	-1.290534e+01
1.820000e-06	-8.562244e-08	-1.729023e-10	-5.960091e-01	-1.225342e+01
1.830000e-06	-3.895304e-08	-1.658370e-10	-2.711481e-01	-1.158964e+01
1.840000e-06	7.873181e-09	-1.599273e-10	5.480441e-02	-1.091418e+01
1.850000e-06	5.470632e-08	-1.521275e-10	3.808051e-01	-1.022728e+01
1.860000e-06	1.014585e-07	-1.459343e-10	7.062422e-01	-9.529165e+00
1.870000e-06	1.482332e-07	-1.371924e-10	1.031836e+00	-8.820117e+00
1.880000e-06	1.949782e-07	-1.231753e-10	1.357224e+00	-8.100421e+00
1.890000e-06	2.417060e-07	-1.076895e-10	1.682491e+00	-7.370393e+00
1.900000e-06	2.884658e-07	-9.356317e-11	2.007981e+00	-6.630373e+00
1.910000e-06	3.352502e-07	-8.338541e-11	2.333643e+00	-5.880722e+00
1.920000e-06	3.820128e-07	-7.716180e-11	2.659152e+00	-5.121826e+00
1.930000e-06	4.287299e-07	-7.141113e-11	2.984345e+00	-4.354095e+00
1.940000e-06	4.753474e-07	-6.151896e-11	3.308845e+00	-3.577958e+00
1.950000e-06	5.218342e-07	-4.828651e-11	3.632435e+00	-2.793870e+00
1.960000e-06	5.682240e-07	-3.234189e-11	3.955349e+00	-2.002306e+00
1.970000e-06	6.146185e-07	-1.785605e-11	4.278297e+00	-1.203760e+00
1.980000e-06	6.610676e-07	-6.306963e-12	4.601625e+00	-3.987493e-01
1.990000e-06	7.074394e-07	3.838853e-12	4.924414e+00	4.121910e-01
2.000000e-06	7.536644e-07	1.126780e-11	5.246181e+00	1.228507e+00
2.010000e-06	7.998592e-07	2.057909e-11	5.567739e+00	2.049627e+00
2.020000e-06	8.460230e-07	3.349888e-11	5.889080e+00	2.874964e+00
2.030000e-06	8.920849e-07	4.883089e-11	6.209713e+00	3.703915e+00
2.040000e-06	9.380874e-07	6.443115e-11	6.529932e+00	4.535861e+00
2.050000e-06	9.841042e-07	7.821273e-11	6.850249e+00	5.370173e+00
2.060000e-06	1.030081e-06	8.979842e-11	7.170291e+00	6.206211e+00
2.070000e-06	1.075918e-06	9.882311e-11	7.489356e+00	7.043321e+00
2.080000e-06	1.121660e-06	1.100206e-10	7.807764e+00	7.880846e+00
2.090000e-06	1.167341e-06	1.243555e-10	8.125744e+00	8.718119e+00
2.100000e-06	1.212894e-06	1.393507e-10	8.442830e+00	9.554469e+00
2.110000e-06	1.258295e-06	1.519965e-10	8.758865e+00	1.038922e+01
2.120000e-06	1.303628e-06	1.607967e-10	9.074422e+00	1.122170e+01
2.130000e-06	1.348929e-06	1.687645e-10	9.389755e+00	1.205123e+01
2.140000e-06	1.394233e-06	1.794901e-10	9.705115e+00	1.287714e+01
2.150000e-06	1.439404e-06	1.920297e-10	1.001954e+01	1.369876e+01
2.160000e-06	1.484382e-06	2.042537e-10	1.033263e+01	1.451542e+01
2.170000e-06	1.529270e-06	2.171938e-10	1.064509e+01	1.532648e+01
2.180000e-06	1.574098e-06	2.308877e-10	1.095714e+01	1.613129e+01
2.190000e-06	1.618824e-06	2.417916e-10	1.126847e+01	1.692921e+01
2.200000e-06	1.663420e-06	2.512068e-10	1.157890e+01	1.771962e+01
2.210000e-06	1.707902e-06	2.593182e-10	1.188853e+01	1.850193e+01
2.220000e-06	1.752266e-06	2.679163e-10	1.219734e+01	1.927554e+01
2.230000e-06	1.796507e-06	2.794522e-10	1.250531e+01	2.003989e+01
2.240000e-06	1.840570e-06	2.902427e-10	1.281202e+01	2.079443e+01
2.250000e-06	1.884447e-06	3.013346e-10	1.311745e+01	2.153863e+01
2.260000e-06	1.928231e-06	3.132161e-10	1.342222e+01	2.227200e+01
2.270000e-06	1.971974e-06	3.274048e-10	1.372671e+01	2.299405e+01
2.280000e-06	2.015682e-06	3.403780e-10	1.403096e+01	2.370434e+01
2.290000e-06	2.059327e-06	3.497039e-10	1.433477e+01	2.440244e+01
2.300000e-06	2.102912e-06	3.571515e-10	1.463816e+01	2.508795e+01
2.310000e-06	2.146464e-06	3.628298e-10	1.494132e+01	2.576052e+01
2.320000e-06	2.189914e-06	3.713612e-10	1.524377e+01	2.641980e+01
2.330000e-06	2.233234e-06	3.808724e-10	1.554532e+01	2.706549e+01
2.340000e-06	2.276456e-06	3.934674e-10	1.584618e+01	2.769730e+01
2.350000e-06	2.319538e-06	4.085503e-10	1.614607e+01	2.831500e+01
2.360000e-06	2.362477e-06	4.214544e-10	1.644497e+01	2.891838e+01
2.370000e-06	2.405118e-06	4.277572e-10	1.674178e+01	2.950724e+01
2.380000e-06	2.447265e-06	4.311647e-10	1.703516e+01	3.008144e+01
2.390000e-06	2.489100e-06	4.360182e-10	1.732637e+01	3.064086e+01
2.400000e-06	2.530706e-06	4.398881e-10	1.761599e+01	3.118540e+01
2.410000e-06	2.572048e-06	4.453516e-10	1.790377e+01	3.171500e+01
2.420000e-06	2.612936e-06	4.579101e-10	1.818838e+01	3.222964e+01
2.430000e-06	2.653396e-06	4.743810e-10	1.847002e+01	3.272930e+01
2.440000e-06	2.693734e-06	4.851755e-10	1.875081e+01	3.321401e+01
2.450000e-06	2.733917e-06	4.897706e-10	1.903052e+01	3.368382e+01
2.460000e-06	2.773912e-06	4.922878e-10	1.930892e+01	3.413881e+01
2.470000e-06	2.813756e-06	4.966654e-10	1.958627e+01	3.457906e+01
2.480000e-06	2.853492e-06	5.045410e-10	1.986287e+01	3.500470e+01
2.490000e-06	2.893081e-06	5.150540e-10	2.013845e+01	3.541588e+01
2.500000e-06	2.932540e-06	5.257128e-10	2.041311e+01	3.581276e+01
2.510000e-06	2.971870e-06	5.346943e-10	2.068688e+01	3.619552e+01
2.520000e-06	3.011030e-06	5.407142e-10	2.095947e+01	3.656435e+01
2.530000e-06	3.050008e-06	5.443202e-10	2.123080e+01	3.691947e+01
2.540000e-06	3.088783e-06	5.457955e-10	2.150070e+01	3.726111e+01
2.550000e-06	3.127348e-06	5.484384e-10	2.176915e+01	3.758951e+01
2.560000e-06	3.165582e-06	5.536646e-10	2.203530e+01	3.790493e+01
2.570000e-06	3.203554e-06	5.602522e-10	2.229961e+01	3.820762e+01
2.580000e-06	3.241331e-06	5.676248e-10	2.256258e+01	3.849787e+01
2.590000e-06	3.278939e-06	5.769859e-10	2.282436e+01	3.877595e+01
2.600000e-06	3.316429e-06	5.829854e-10	2.308533e+01	3.904215e+01
2.610000e-06	3.353692e-06	5.821541e-10	2.334471e+01	3.929676e+01
2.620000e-06	3.390713e-06	5.783030e-10	2.360241e+01	3.954008e+01
2.630000e-06	3.427463e-06	5.760638e-10	2.385822e+01	3.977241e+01
2.640000e-06	3.463901e-06	5.771402e-10	2.411186e+01	3.999405e+01
2.650000e-06	3.500113e-06	5.813783e-10	2.436394e+01	4.020530e+01
2.660000e-06	3.536085e-06	5.875707e-10	2.461433e+01	4.040647e+01
2.670000e-06	3.571839e-06	5.932156e-10	2.486321e+01	4.059787e+01
2.680000e-06	3.607478e-06	5.986099e-10	2.511129e+01	4.077980e+01
2.690000e-06	3.643005e-06	6.030113e-10	2.535859e+01	4.095255e+01
2.700000e-06	3.678472e-06	6.033229e-10	2.560547e+01	4.111644e+01
2.710000e-06	3.713837e-06	6.017974e-10	2.585164e+01	4.127176e+01
2.720000e-06	3.748867e-06	6.026715e-10	2.609548e+01	4.141881e+01
2.730000e-06	3.783470e-06	6.059679e-10	2.633635e+01	4.155787e+01
2.740000e-06	3.817650e-06	6.090599e-10	2.657427e+01	4.168925e+01
2.750000e-06	3.851360e-06	6.101258e-10	2.680893e+01	4.181323e+01
2.760000e-06	3.884536e-06	6.105000e-10	2.703986e+01	4.193008e+01
2.770000e-06	3.917245e-06	6.118349e-10	2.726755e+01	4.204011e+01
2.780000e-06	3.949553e-06	6.163859e-10	2.749244e+01	4.214357e+01
2.790000e-06	3.981548e-06	6.228966e-10	2.771515e+01	4.224074e+01
2.800000e-06	4.013402e-06	6.277240e-10	2.793688e+01	4.233190e+01
2.810000e-06	4.045083e-06	6.286899e-10	2.815741e+01	4.241730e+01
2.820000e-06	4.076590e-06	6.272924e-10	2.837673e+01	4.249722e+01
2.830000e-06	4.107960e-06	6.274407e-10	2.859509e+01	4.257190e+01
2.840000e-06	4.139036e-06	6.303490e-10	2.881141e+01	4.264161e+01
2.850000e-06	4.169771e-06	6.350056e-10	2.902536e+01	4.270658e+01
2.860000e-06	4.200228e-06	6.401487e-10	2.923736e+01	4.276707e+01
2.870000e-06	4.230364e-06	6.423775e-10	2.944713e+01	4.282331e+01
2.880000e-06	4.260175e-06	6.423817e-10	2.965465e+01	4.287554e+01
2.890000e-06	4.289746e-06	6.430746e-10	2.986049e+01	4.292400e+01
2.900000e-06	4.319206e-06	6.434548e-10	3.006556e+01	4.296890e+01
