# Temperatura_=_-0.6
# Concentracion g/m^3_=_1620.0
# C_Vs_to_Am_M_A/Vsm_=_65563218390.804596
# pendiente_HvsI_1/m_=_3716.3
# ordenada_HvsI_A/m_=_1297.0
# frecuencia_Hz_=_135096.6697185281

Tiempo_(s)	Campo_(V.s)	Magnetizacion_(V.s)	Campo_(kA/m)	Magnetizacion_(A/m)
0.000000e+00	-5.515237e-06	-1.397109e-09	-3.836810e+01	-9.180728e+01
1.000000e-08	-5.515500e-06	-1.392529e-09	-3.836993e+01	-9.174910e+01
2.000000e-08	-5.515542e-06	-1.391973e-09	-3.837022e+01	-9.168910e+01
3.000000e-08	-5.515275e-06	-1.392823e-09	-3.836836e+01	-9.162721e+01
4.000000e-08	-5.514597e-06	-1.390271e-09	-3.836365e+01	-9.156335e+01
5.000000e-08	-5.513494e-06	-1.381066e-09	-3.835597e+01	-9.149746e+01
6.000000e-08	-5.511801e-06	-1.369569e-09	-3.834420e+01	-9.142947e+01
7.000000e-08	-5.509427e-06	-1.390267e-09	-3.832769e+01	-9.135932e+01
8.000000e-08	-5.506420e-06	-1.420212e-09	-3.830677e+01	-9.128693e+01
9.000000e-08	-5.502859e-06	-1.401659e-09	-3.828199e+01	-9.121226e+01
1.000000e-07	-5.498893e-06	-1.394524e-09	-3.825440e+01	-9.113523e+01
1.100000e-07	-5.494627e-06	-1.439089e-09	-3.822472e+01	-9.105579e+01
1.200000e-07	-5.490137e-06	-1.416962e-09	-3.819349e+01	-9.097389e+01
1.300000e-07	-5.485367e-06	-1.341907e-09	-3.816030e+01	-9.088948e+01
1.400000e-07	-5.480287e-06	-1.308712e-09	-3.812496e+01	-9.080252e+01
1.500000e-07	-5.474880e-06	-1.400727e-09	-3.808735e+01	-9.071296e+01
1.600000e-07	-5.469011e-06	-1.414818e-09	-3.804652e+01	-9.062078e+01
1.700000e-07	-5.462754e-06	-1.349572e-09	-3.800299e+01	-9.052594e+01
1.800000e-07	-5.456127e-06	-1.332142e-09	-3.795689e+01	-9.042841e+01
1.900000e-07	-5.449003e-06	-1.399016e-09	-3.790733e+01	-9.032818e+01
2.000000e-07	-5.441480e-06	-1.396151e-09	-3.785499e+01	-9.022521e+01
2.100000e-07	-5.433789e-06	-1.335504e-09	-3.780149e+01	-9.011951e+01
2.200000e-07	-5.425904e-06	-1.327175e-09	-3.774663e+01	-9.001104e+01
2.300000e-07	-5.417675e-06	-1.365971e-09	-3.768939e+01	-8.989981e+01
2.400000e-07	-5.409033e-06	-1.363913e-09	-3.762927e+01	-8.978580e+01
2.500000e-07	-5.399825e-06	-1.323546e-09	-3.756521e+01	-8.966900e+01
2.600000e-07	-5.389971e-06	-1.319698e-09	-3.749666e+01	-8.954942e+01
2.700000e-07	-5.379503e-06	-1.323684e-09	-3.742384e+01	-8.942704e+01
2.800000e-07	-5.368526e-06	-1.333848e-09	-3.734747e+01	-8.930185e+01
2.900000e-07	-5.357173e-06	-1.325570e-09	-3.726849e+01	-8.917386e+01
3.000000e-07	-5.345401e-06	-1.326906e-09	-3.718660e+01	-8.904305e+01
3.100000e-07	-5.333179e-06	-1.306478e-09	-3.710157e+01	-8.890941e+01
3.200000e-07	-5.320584e-06	-1.322678e-09	-3.701395e+01	-8.877293e+01
3.300000e-07	-5.307596e-06	-1.318234e-09	-3.692360e+01	-8.863360e+01
3.400000e-07	-5.294172e-06	-1.303793e-09	-3.683021e+01	-8.849139e+01
3.500000e-07	-5.280338e-06	-1.307577e-09	-3.673397e+01	-8.834628e+01
3.600000e-07	-5.266171e-06	-1.348338e-09	-3.663541e+01	-8.819825e+01
3.700000e-07	-5.251511e-06	-1.317372e-09	-3.653343e+01	-8.804726e+01
3.800000e-07	-5.236263e-06	-1.303812e-09	-3.642735e+01	-8.789329e+01
3.900000e-07	-5.220635e-06	-1.335068e-09	-3.631863e+01	-8.773629e+01
4.000000e-07	-5.204521e-06	-1.318580e-09	-3.620653e+01	-8.757622e+01
4.100000e-07	-5.187839e-06	-1.262975e-09	-3.609048e+01	-8.741303e+01
4.200000e-07	-5.170868e-06	-1.316762e-09	-3.597242e+01	-8.724667e+01
4.300000e-07	-5.153650e-06	-1.353243e-09	-3.585264e+01	-8.707709e+01
4.400000e-07	-5.136112e-06	-1.280401e-09	-3.573063e+01	-8.690423e+01
4.500000e-07	-5.118202e-06	-1.282563e-09	-3.560603e+01	-8.672802e+01
4.600000e-07	-5.099960e-06	-1.357414e-09	-3.547913e+01	-8.654839e+01
4.700000e-07	-5.081337e-06	-1.302609e-09	-3.534957e+01	-8.636529e+01
4.800000e-07	-5.062255e-06	-1.241626e-09	-3.521682e+01	-8.617865e+01
4.900000e-07	-5.042868e-06	-1.321981e-09	-3.508195e+01	-8.598838e+01
5.000000e-07	-5.023261e-06	-1.323983e-09	-3.494555e+01	-8.579443e+01
5.100000e-07	-5.003452e-06	-1.242581e-09	-3.480774e+01	-8.559672e+01
5.200000e-07	-4.983446e-06	-1.284868e-09	-3.466857e+01	-8.539518e+01
5.300000e-07	-4.963081e-06	-1.334253e-09	-3.452689e+01	-8.518975e+01
5.400000e-07	-4.942353e-06	-1.251266e-09	-3.438269e+01	-8.498036e+01
5.500000e-07	-4.921263e-06	-1.255790e-09	-3.423598e+01	-8.476695e+01
5.600000e-07	-4.899792e-06	-1.322636e-09	-3.408660e+01	-8.454946e+01
5.700000e-07	-4.878043e-06	-1.269709e-09	-3.393530e+01	-8.432783e+01
5.800000e-07	-4.855975e-06	-1.223749e-09	-3.378178e+01	-8.410202e+01
5.900000e-07	-4.833484e-06	-1.292369e-09	-3.362532e+01	-8.387199e+01
6.000000e-07	-4.810571e-06	-1.278565e-09	-3.346592e+01	-8.363770e+01
6.100000e-07	-4.787390e-06	-1.223373e-09	-3.330465e+01	-8.339912e+01
6.200000e-07	-4.763956e-06	-1.257597e-09	-3.314163e+01	-8.315622e+01
6.300000e-07	-4.740277e-06	-1.276180e-09	-3.297690e+01	-8.290899e+01
6.400000e-07	-4.716374e-06	-1.222535e-09	-3.281061e+01	-8.265743e+01
6.500000e-07	-4.692197e-06	-1.235039e-09	-3.264243e+01	-8.240153e+01
6.600000e-07	-4.667575e-06	-1.256594e-09	-3.247113e+01	-8.214130e+01
6.700000e-07	-4.642399e-06	-1.219507e-09	-3.229599e+01	-8.187677e+01
6.800000e-07	-4.616723e-06	-1.213350e-09	-3.211737e+01	-8.160794e+01
6.900000e-07	-4.590524e-06	-1.242984e-09	-3.193511e+01	-8.133486e+01
7.000000e-07	-4.563892e-06	-1.221315e-09	-3.174984e+01	-8.105756e+01
7.100000e-07	-4.536856e-06	-1.202979e-09	-3.156176e+01	-8.077609e+01
7.200000e-07	-4.509432e-06	-1.218176e-09	-3.137097e+01	-8.049050e+01
7.300000e-07	-4.481835e-06	-1.207489e-09	-3.117898e+01	-8.020084e+01
7.400000e-07	-4.454092e-06	-1.182669e-09	-3.098599e+01	-7.990719e+01
7.500000e-07	-4.426182e-06	-1.187728e-09	-3.079182e+01	-7.960959e+01
7.600000e-07	-4.398069e-06	-1.186644e-09	-3.059625e+01	-7.930814e+01
7.700000e-07	-4.369587e-06	-1.170155e-09	-3.039810e+01	-7.900289e+01
7.800000e-07	-4.340705e-06	-1.175075e-09	-3.019718e+01	-7.869392e+01
7.900000e-07	-4.311525e-06	-1.178344e-09	-2.999418e+01	-7.838130e+01
8.000000e-07	-4.282046e-06	-1.163700e-09	-2.978910e+01	-7.806511e+01
8.100000e-07	-4.252287e-06	-1.155154e-09	-2.958208e+01	-7.774543e+01
8.200000e-07	-4.222283e-06	-1.154434e-09	-2.937335e+01	-7.742231e+01
8.300000e-07	-4.192015e-06	-1.136873e-09	-2.916278e+01	-7.709584e+01
8.400000e-07	-4.161442e-06	-1.128581e-09	-2.895009e+01	-7.676606e+01
8.500000e-07	-4.130578e-06	-1.133481e-09	-2.873538e+01	-7.643305e+01
8.600000e-07	-4.099472e-06	-1.129696e-09	-2.851899e+01	-7.609685e+01
8.700000e-07	-4.068042e-06	-1.114613e-09	-2.830034e+01	-7.575750e+01
8.800000e-07	-4.036388e-06	-1.113306e-09	-2.808012e+01	-7.541505e+01
8.900000e-07	-4.004641e-06	-1.109258e-09	-2.785927e+01	-7.506951e+01
9.000000e-07	-3.972687e-06	-1.097352e-09	-2.763697e+01	-7.472092e+01
9.100000e-07	-3.940471e-06	-1.092460e-09	-2.741286e+01	-7.436928e+01
9.200000e-07	-3.908022e-06	-1.096035e-09	-2.718712e+01	-7.401460e+01
9.300000e-07	-3.875214e-06	-1.085835e-09	-2.695888e+01	-7.365686e+01
9.400000e-07	-3.841956e-06	-1.081460e-09	-2.672751e+01	-7.329604e+01
9.500000e-07	-3.808188e-06	-1.083896e-09	-2.649260e+01	-7.293211e+01
9.600000e-07	-3.773852e-06	-1.076759e-09	-2.625373e+01	-7.256504e+01
9.700000e-07	-3.739092e-06	-1.060776e-09	-2.601191e+01	-7.219477e+01
9.800000e-07	-3.704049e-06	-1.056693e-09	-2.576813e+01	-7.182124e+01
9.900000e-07	-3.668728e-06	-1.054484e-09	-2.552241e+01	-7.144439e+01
1.000000e-06	-3.633188e-06	-1.045996e-09	-2.527517e+01	-7.106413e+01
1.010000e-06	-3.597516e-06	-1.042392e-09	-2.502701e+01	-7.068037e+01
1.020000e-06	-3.561718e-06	-1.043433e-09	-2.477797e+01	-7.029303e+01
1.030000e-06	-3.525833e-06	-1.035361e-09	-2.452832e+01	-6.990199e+01
1.040000e-06	-3.489796e-06	-1.023436e-09	-2.427763e+01	-6.950714e+01
1.050000e-06	-3.453523e-06	-1.017705e-09	-2.402528e+01	-6.910839e+01
1.060000e-06	-3.416987e-06	-1.007631e-09	-2.377111e+01	-6.870559e+01
1.070000e-06	-3.380114e-06	-9.949939e-10	-2.351459e+01	-6.829863e+01
1.080000e-06	-3.342889e-06	-9.891376e-10	-2.325563e+01	-6.788739e+01
1.090000e-06	-3.305424e-06	-9.858343e-10	-2.299500e+01	-6.747173e+01
1.100000e-06	-3.267754e-06	-9.784952e-10	-2.273293e+01	-6.705153e+01
1.110000e-06	-3.229903e-06	-9.751995e-10	-2.246962e+01	-6.662666e+01
1.120000e-06	-3.191882e-06	-9.714427e-10	-2.220511e+01	-6.619698e+01
1.130000e-06	-3.153641e-06	-9.621705e-10	-2.193908e+01	-6.576238e+01
1.140000e-06	-3.115172e-06	-9.488434e-10	-2.167146e+01	-6.532272e+01
1.150000e-06	-3.076443e-06	-9.388408e-10	-2.140203e+01	-6.487789e+01
1.160000e-06	-3.037452e-06	-9.312766e-10	-2.113078e+01	-6.442777e+01
1.170000e-06	-2.998241e-06	-9.257138e-10	-2.085800e+01	-6.397223e+01
1.180000e-06	-2.958933e-06	-9.235677e-10	-2.058454e+01	-6.351118e+01
1.190000e-06	-2.919491e-06	-9.255623e-10	-2.031016e+01	-6.304451e+01
1.200000e-06	-2.879900e-06	-9.220950e-10	-2.003473e+01	-6.257212e+01
1.210000e-06	-2.840205e-06	-9.152052e-10	-1.975859e+01	-6.209390e+01
1.220000e-06	-2.800384e-06	-9.024588e-10	-1.948156e+01	-6.160978e+01
1.230000e-06	-2.760432e-06	-8.897011e-10	-1.920362e+01	-6.111966e+01
1.240000e-06	-2.720287e-06	-8.782454e-10	-1.892435e+01	-6.062345e+01
1.250000e-06	-2.679911e-06	-8.722909e-10	-1.864346e+01	-6.012108e+01
1.260000e-06	-2.639366e-06	-8.687230e-10	-1.836140e+01	-5.961247e+01
1.270000e-06	-2.598567e-06	-8.628858e-10	-1.807757e+01	-5.909754e+01
1.280000e-06	-2.557485e-06	-8.565051e-10	-1.779177e+01	-5.857622e+01
1.290000e-06	-2.516149e-06	-8.501936e-10	-1.750421e+01	-5.804842e+01
1.300000e-06	-2.474607e-06	-8.408246e-10	-1.721521e+01	-5.751407e+01
1.310000e-06	-2.432763e-06	-8.266555e-10	-1.692411e+01	-5.697308e+01
1.320000e-06	-2.390429e-06	-8.133077e-10	-1.662960e+01	-5.642537e+01
1.330000e-06	-2.347733e-06	-8.021210e-10	-1.633258e+01	-5.587084e+01
1.340000e-06	-2.304746e-06	-7.919973e-10	-1.603353e+01	-5.530939e+01
1.350000e-06	-2.261540e-06	-7.855747e-10	-1.573296e+01	-5.474091e+01
1.360000e-06	-2.218224e-06	-7.778830e-10	-1.543162e+01	-5.416529e+01
1.370000e-06	-2.174769e-06	-7.684815e-10	-1.512932e+01	-5.358238e+01
1.380000e-06	-2.131172e-06	-7.611143e-10	-1.482602e+01	-5.299205e+01
1.390000e-06	-2.087524e-06	-7.526234e-10	-1.452237e+01	-5.239412e+01
1.400000e-06	-2.043806e-06	-7.407438e-10	-1.421824e+01	-5.178842e+01
1.410000e-06	-1.999948e-06	-7.275058e-10	-1.391313e+01	-5.117477e+01
1.420000e-06	-1.956007e-06	-7.178675e-10	-1.360744e+01	-5.055293e+01
1.430000e-06	-1.912004e-06	-7.095148e-10	-1.330133e+01	-4.992268e+01
1.440000e-06	-1.867970e-06	-7.008058e-10	-1.299499e+01	-4.928376e+01
1.450000e-06	-1.823956e-06	-6.912209e-10	-1.268880e+01	-4.863589e+01
1.460000e-06	-1.779839e-06	-6.814942e-10	-1.238189e+01	-4.797879e+01
1.470000e-06	-1.735456e-06	-6.694602e-10	-1.207313e+01	-4.731213e+01
1.480000e-06	-1.690900e-06	-6.555363e-10	-1.176316e+01	-4.663556e+01
1.490000e-06	-1.646232e-06	-6.416354e-10	-1.145242e+01	-4.594873e+01
1.500000e-06	-1.601458e-06	-6.312679e-10	-1.114094e+01	-4.525125e+01
1.510000e-06	-1.556566e-06	-6.214247e-10	-1.082863e+01	-4.454271e+01
1.520000e-06	-1.511530e-06	-6.107996e-10	-1.051533e+01	-4.382270e+01
1.530000e-06	-1.466410e-06	-5.989628e-10	-1.020144e+01	-4.309076e+01
1.540000e-06	-1.421153e-06	-5.863734e-10	-9.886601e+00	-4.234645e+01
1.550000e-06	-1.375757e-06	-5.704129e-10	-9.570792e+00	-4.158928e+01
1.560000e-06	-1.330301e-06	-5.521984e-10	-9.254567e+00	-4.081878e+01
1.570000e-06	-1.284845e-06	-5.327893e-10	-8.938338e+00	-4.003443e+01
1.580000e-06	-1.239299e-06	-5.158793e-10	-8.621489e+00	-3.923574e+01
1.590000e-06	-1.193685e-06	-5.033793e-10	-8.304163e+00	-3.842220e+01
1.600000e-06	-1.147978e-06	-4.943071e-10	-7.986193e+00	-3.759329e+01
1.610000e-06	-1.102099e-06	-4.853334e-10	-7.667021e+00	-3.674849e+01
1.620000e-06	-1.056196e-06	-4.720032e-10	-7.347690e+00	-3.588732e+01
1.630000e-06	-1.010309e-06	-4.597533e-10	-7.028466e+00	-3.500925e+01
1.640000e-06	-9.642586e-07	-4.507941e-10	-6.708102e+00	-3.411381e+01
1.650000e-06	-9.180607e-07	-4.371071e-10	-6.386715e+00	-3.320051e+01
1.660000e-06	-8.718218e-07	-4.207431e-10	-6.065043e+00	-3.226891e+01
1.670000e-06	-8.255487e-07	-4.052354e-10	-5.743132e+00	-3.131857e+01
1.680000e-06	-7.792635e-07	-3.877226e-10	-5.421138e+00	-3.034909e+01
1.690000e-06	-7.328895e-07	-3.713268e-10	-5.098526e+00	-2.936009e+01
1.700000e-06	-6.863914e-07	-3.578651e-10	-4.775051e+00	-2.835122e+01
1.710000e-06	-6.398759e-07	-3.450783e-10	-4.451454e+00	-2.732220e+01
1.720000e-06	-5.933524e-07	-3.289893e-10	-4.127802e+00	-2.627274e+01
1.730000e-06	-5.467610e-07	-3.105910e-10	-3.803677e+00	-2.520265e+01
1.740000e-06	-5.001529e-07	-2.907444e-10	-3.479436e+00	-2.411174e+01
1.750000e-06	-4.534612e-07	-2.702014e-10	-3.154614e+00	-2.299990e+01
1.760000e-06	-4.067714e-07	-2.519150e-10	-2.829805e+00	-2.186708e+01
1.770000e-06	-3.600730e-07	-2.357678e-10	-2.504936e+00	-2.071326e+01
1.780000e-06	-3.132544e-07	-2.218487e-10	-2.179231e+00	-1.953851e+01
1.790000e-06	-2.664769e-07	-2.096775e-10	-1.853812e+00	-1.834293e+01
1.800000e-06	-2.197433e-07	-1.948026e-10	-1.528698e+00	-1.712670e+01
1.810000e-06	-1.729986e-07	-1.765503e-10	-1.203507e+00	-1.589008e+01
1.820000e-06	-1.261852e-07	-1.559021e-10	-8.778386e-01	-1.463337e+01
1.830000e-06	-7.943721e-08	-1.367479e-10	-5.526245e-01	-1.335694e+01
1.840000e-06	-3.274860e-08	-1.204693e-10	-2.278237e-01	-1.206124e+01
1.850000e-06	1.401839e-08	-1.041810e-10	9.752238e-02	-1.074678e+01
1.860000e-06	6.077269e-08	-8.732381e-11	4.227801e-01	-9.414144e+00
1.870000e-06	1.075393e-07	-7.056183e-11	7.481236e-01	-8.063960e+00
1.880000e-06	1.543195e-07	-5.232576e-11	1.073562e+00	-6.696940e+00
1.890000e-06	2.010676e-07	-3.257967e-11	1.398776e+00	-5.313853e+00
1.900000e-06	2.478144e-07	-1.106889e-11	1.723982e+00	-3.915526e+00
1.910000e-06	2.945901e-07	1.075776e-11	2.049388e+00	-2.502848e+00
1.920000e-06	3.413923e-07	3.078902e-11	2.374980e+00	-1.076760e+00
1.930000e-06	3.881475e-07	4.781500e-11	2.700243e+00	3.617423e-01
1.940000e-06	4.348367e-07	6.508544e-11	3.025048e+00	1.811615e+00
1.950000e-06	4.814648e-07	8.475063e-11	3.349428e+00	3.271769e+00
1.960000e-06	5.280220e-07	1.051124e-10	3.673315e+00	4.741073e+00
1.970000e-06	5.745063e-07	1.264919e-10	3.996694e+00	6.218359e+00
1.980000e-06	6.209393e-07	1.475934e-10	4.319717e+00	7.702428e+00
1.990000e-06	6.672972e-07	1.677339e-10	4.642217e+00	9.192049e+00
2.000000e-06	7.135680e-07	1.868541e-10	4.964111e+00	1.068597e+01
2.010000e-06	7.598617e-07	2.062665e-10	5.286165e+00	1.218292e+01
2.020000e-06	8.061283e-07	2.277728e-10	5.608030e+00	1.368162e+01
2.030000e-06	8.522093e-07	2.514800e-10	5.928603e+00	1.518076e+01
2.040000e-06	8.981552e-07	2.758973e-10	6.248237e+00	1.667906e+01
2.050000e-06	9.441179e-07	2.996901e-10	6.567989e+00	1.817522e+01
2.060000e-06	9.900677e-07	3.208757e-10	6.887649e+00	1.966795e+01
2.070000e-06	1.036003e-06	3.403849e-10	7.207207e+00	2.115596e+01
2.080000e-06	1.081853e-06	3.604781e-10	7.526176e+00	2.263801e+01
2.090000e-06	1.127619e-06	3.805744e-10	7.844556e+00	2.411284e+01
2.100000e-06	1.173396e-06	4.024522e-10	8.163019e+00	2.557925e+01
2.110000e-06	1.219051e-06	4.250170e-10	8.480630e+00	2.703604e+01
2.120000e-06	1.264533e-06	4.449708e-10	8.797034e+00	2.848207e+01
2.130000e-06	1.309936e-06	4.643539e-10	9.112889e+00	2.991621e+01
2.140000e-06	1.355271e-06	4.831972e-10	9.428277e+00	3.133740e+01
2.150000e-06	1.400571e-06	5.025762e-10	9.743413e+00	3.274460e+01
2.160000e-06	1.445834e-06	5.232494e-10	1.005830e+01	3.413683e+01
2.170000e-06	1.490934e-06	5.435215e-10	1.037205e+01	3.551316e+01
2.180000e-06	1.535832e-06	5.636482e-10	1.068439e+01	3.687272e+01
2.190000e-06	1.580613e-06	5.838062e-10	1.099592e+01	3.821467e+01
2.200000e-06	1.625303e-06	6.011745e-10	1.130682e+01	3.953825e+01
2.210000e-06	1.669826e-06	6.156320e-10	1.161655e+01	4.084275e+01
2.220000e-06	1.714230e-06	6.300023e-10	1.192546e+01	4.212752e+01
2.230000e-06	1.758519e-06	6.465052e-10	1.223357e+01	4.339196e+01
2.240000e-06	1.802603e-06	6.640038e-10	1.254025e+01	4.463554e+01
2.250000e-06	1.846610e-06	6.810213e-10	1.284640e+01	4.585779e+01
2.260000e-06	1.890551e-06	6.969015e-10	1.315208e+01	4.705831e+01
2.270000e-06	1.934386e-06	7.120986e-10	1.345703e+01	4.823673e+01
2.280000e-06	1.978173e-06	7.298593e-10	1.376164e+01	4.939276e+01
2.290000e-06	2.021938e-06	7.470559e-10	1.406611e+01	5.052617e+01
2.300000e-06	2.065719e-06	7.630112e-10	1.437068e+01	5.163677e+01
2.310000e-06	2.109384e-06	7.759350e-10	1.467444e+01	5.272444e+01
2.320000e-06	2.152908e-06	7.883767e-10	1.497723e+01	5.378910e+01
2.330000e-06	2.196381e-06	8.026958e-10	1.527967e+01	5.483074e+01
2.340000e-06	2.239783e-06	8.178915e-10	1.558160e+01	5.584937e+01
2.350000e-06	2.283045e-06	8.337604e-10	1.588257e+01	5.684507e+01
2.360000e-06	2.326084e-06	8.497265e-10	1.618198e+01	5.781796e+01
2.370000e-06	2.368834e-06	8.645110e-10	1.647937e+01	5.876819e+01
2.380000e-06	2.411304e-06	8.765183e-10	1.677483e+01	5.969597e+01
2.390000e-06	2.453541e-06	8.870743e-10	1.706866e+01	6.060151e+01
2.400000e-06	2.495557e-06	8.972308e-10	1.736095e+01	6.148509e+01
2.410000e-06	2.537063e-06	9.074836e-10	1.764970e+01	6.234700e+01
2.420000e-06	2.578048e-06	9.180132e-10	1.793482e+01	6.318756e+01
2.430000e-06	2.618943e-06	9.310368e-10	1.821932e+01	6.400714e+01
2.440000e-06	2.659648e-06	9.456718e-10	1.850250e+01	6.480608e+01
2.450000e-06	2.700041e-06	9.575879e-10	1.878350e+01	6.558480e+01
2.460000e-06	2.740233e-06	9.666543e-10	1.906311e+01	6.634369e+01
2.470000e-06	2.780240e-06	9.769548e-10	1.934142e+01	6.708317e+01
2.480000e-06	2.820079e-06	9.864397e-10	1.961858e+01	6.780369e+01
2.490000e-06	2.859820e-06	9.958922e-10	1.989504e+01	6.850569e+01
2.500000e-06	2.899507e-06	1.006896e-09	2.017114e+01	6.918962e+01
2.510000e-06	2.939029e-06	1.016849e-09	2.044608e+01	6.985594e+01
2.520000e-06	2.978314e-06	1.026852e-09	2.071937e+01	7.050511e+01
2.530000e-06	3.017460e-06	1.037284e-09	2.099170e+01	7.113759e+01
2.540000e-06	3.056440e-06	1.044975e-09	2.126288e+01	7.175386e+01
2.550000e-06	3.095171e-06	1.051371e-09	2.153231e+01	7.235437e+01
2.560000e-06	3.133650e-06	1.058768e-09	2.180001e+01	7.293959e+01
2.570000e-06	3.171959e-06	1.066391e-09	2.206651e+01	7.350996e+01
2.580000e-06	3.210084e-06	1.073545e-09	2.233174e+01	7.406595e+01
2.590000e-06	3.247942e-06	1.082979e-09	2.259511e+01	7.460800e+01
2.600000e-06	3.285535e-06	1.095082e-09	2.285663e+01	7.513654e+01
2.610000e-06	3.322949e-06	1.105442e-09	2.311691e+01	7.565201e+01
2.620000e-06	3.360203e-06	1.111249e-09	2.337608e+01	7.615482e+01
2.630000e-06	3.397198e-06	1.114288e-09	2.363344e+01	7.664538e+01
2.640000e-06	3.433920e-06	1.116471e-09	2.388891e+01	7.712411e+01
2.650000e-06	3.470397e-06	1.120339e-09	2.414267e+01	7.759138e+01
2.660000e-06	3.506618e-06	1.128197e-09	2.439465e+01	7.804758e+01
2.670000e-06	3.542610e-06	1.137941e-09	2.464504e+01	7.849308e+01
2.680000e-06	3.578473e-06	1.146459e-09	2.489452e+01	7.892823e+01
2.690000e-06	3.614254e-06	1.153715e-09	2.514344e+01	7.935337e+01
2.700000e-06	3.649946e-06	1.159591e-09	2.539175e+01	7.976885e+01
2.710000e-06	3.685430e-06	1.163030e-09	2.563860e+01	8.017498e+01
2.720000e-06	3.720574e-06	1.165340e-09	2.588309e+01	8.057207e+01
2.730000e-06	3.755373e-06	1.169052e-09	2.612517e+01	8.096041e+01
2.740000e-06	3.789852e-06	1.175475e-09	2.636503e+01	8.134029e+01
2.750000e-06	3.823911e-06	1.182048e-09	2.660198e+01	8.171198e+01
2.760000e-06	3.857452e-06	1.186283e-09	2.683531e+01	8.207574e+01
2.770000e-06	3.890565e-06	1.191093e-09	2.706567e+01	8.243181e+01
2.780000e-06	3.923336e-06	1.198481e-09	2.729365e+01	8.278043e+01
2.790000e-06	3.955738e-06	1.205179e-09	2.751906e+01	8.312182e+01
2.800000e-06	3.987858e-06	1.209155e-09	2.774251e+01	8.345618e+01
2.810000e-06	4.019754e-06	1.212626e-09	2.796441e+01	8.378372e+01
2.820000e-06	4.051446e-06	1.217175e-09	2.818488e+01	8.410460e+01
2.830000e-06	4.082977e-06	1.221530e-09	2.840423e+01	8.441901e+01
2.840000e-06	4.114344e-06	1.228225e-09	2.862244e+01	8.472709e+01
2.850000e-06	4.145432e-06	1.236067e-09	2.883871e+01	8.502900e+01
2.860000e-06	4.176170e-06	1.245701e-09	2.905256e+01	8.532486e+01
2.870000e-06	4.206639e-06	1.250915e-09	2.926452e+01	8.561480e+01
2.880000e-06	4.236839e-06	1.251863e-09	2.947461e+01	8.589892e+01
2.890000e-06	4.266725e-06	1.254106e-09	2.968252e+01	8.617731e+01
2.900000e-06	4.296300e-06	1.257415e-09	2.988827e+01	8.645007e+01
2.910000e-06	4.325671e-06	1.262258e-09	3.009259e+01	8.671725e+01
