# Temperatura_=_-8.77
# Concentracion g/m^3_=_1620.0
# C_Vs_to_Am_M_A/Vsm_=_65563218390.804596
# pendiente_HvsI_1/m_=_3716.3
# ordenada_HvsI_A/m_=_1297.0
# frecuencia_Hz_=_135106.6056744679

Tiempo_(s)	Campo_(V.s)	Magnetizacion_(V.s)	Campo_(kA/m)	Magnetizacion_(A/m)
0.000000e+00	-5.498356e-06	-6.224379e-10	-3.837237e+01	-4.213113e+01
1.000000e-08	-5.498606e-06	-6.188160e-10	-3.837412e+01	-4.210502e+01
2.000000e-08	-5.498561e-06	-6.183838e-10	-3.837381e+01	-4.208423e+01
3.000000e-08	-5.498140e-06	-6.188234e-10	-3.837087e+01	-4.206883e+01
4.000000e-08	-5.497219e-06	-6.176914e-10	-3.836444e+01	-4.205886e+01
5.000000e-08	-5.495707e-06	-6.082929e-10	-3.835389e+01	-4.205433e+01
6.000000e-08	-5.493563e-06	-6.035326e-10	-3.833893e+01	-4.205521e+01
7.000000e-08	-5.490833e-06	-6.205807e-10	-3.831987e+01	-4.206142e+01
8.000000e-08	-5.487550e-06	-6.311260e-10	-3.829696e+01	-4.207286e+01
9.000000e-08	-5.483824e-06	-6.682490e-10	-3.827096e+01	-4.208937e+01
1.000000e-07	-5.479773e-06	-7.320165e-10	-3.824268e+01	-4.211076e+01
1.100000e-07	-5.475324e-06	-6.498611e-10	-3.821164e+01	-4.213683e+01
1.200000e-07	-5.470640e-06	-4.977506e-10	-3.817895e+01	-4.216729e+01
1.300000e-07	-5.465782e-06	-5.425922e-10	-3.814505e+01	-4.220186e+01
1.400000e-07	-5.460507e-06	-6.672446e-10	-3.810823e+01	-4.224021e+01
1.500000e-07	-5.454774e-06	-6.756442e-10	-3.806822e+01	-4.228197e+01
1.600000e-07	-5.448668e-06	-5.132921e-10	-3.802561e+01	-4.232675e+01
1.700000e-07	-5.442262e-06	-5.714759e-10	-3.798090e+01	-4.237414e+01
1.800000e-07	-5.435432e-06	-7.374782e-10	-3.793324e+01	-4.242369e+01
1.900000e-07	-5.428124e-06	-7.206240e-10	-3.788223e+01	-4.247493e+01
2.000000e-07	-5.420563e-06	-5.508932e-10	-3.782947e+01	-4.252740e+01
2.100000e-07	-5.412847e-06	-5.480549e-10	-3.777562e+01	-4.258058e+01
2.200000e-07	-5.404850e-06	-7.077968e-10	-3.771981e+01	-4.263398e+01
2.300000e-07	-5.396456e-06	-7.329803e-10	-3.766123e+01	-4.268707e+01
2.400000e-07	-5.387609e-06	-6.443042e-10	-3.759948e+01	-4.273934e+01
2.500000e-07	-5.378093e-06	-6.157967e-10	-3.753307e+01	-4.279028e+01
2.600000e-07	-5.367761e-06	-6.837425e-10	-3.746097e+01	-4.283936e+01
2.700000e-07	-5.356911e-06	-6.615848e-10	-3.738525e+01	-4.288608e+01
2.800000e-07	-5.345713e-06	-6.342771e-10	-3.730710e+01	-4.292994e+01
2.900000e-07	-5.334087e-06	-6.407490e-10	-3.722596e+01	-4.297048e+01
3.000000e-07	-5.322069e-06	-6.786241e-10	-3.714209e+01	-4.300722e+01
3.100000e-07	-5.309755e-06	-6.599384e-10	-3.705615e+01	-4.303973e+01
3.200000e-07	-5.297060e-06	-6.543253e-10	-3.696756e+01	-4.306759e+01
3.300000e-07	-5.283871e-06	-6.358996e-10	-3.687551e+01	-4.309043e+01
3.400000e-07	-5.270370e-06	-6.626404e-10	-3.678129e+01	-4.310789e+01
3.500000e-07	-5.256508e-06	-6.757821e-10	-3.668455e+01	-4.311965e+01
3.600000e-07	-5.242084e-06	-6.563857e-10	-3.658389e+01	-4.312544e+01
3.700000e-07	-5.227091e-06	-6.481331e-10	-3.647925e+01	-4.312501e+01
3.800000e-07	-5.211648e-06	-7.041449e-10	-3.637147e+01	-4.311817e+01
3.900000e-07	-5.195695e-06	-6.732287e-10	-3.626014e+01	-4.310474e+01
4.000000e-07	-5.179249e-06	-6.079995e-10	-3.614537e+01	-4.308462e+01
4.100000e-07	-5.162496e-06	-6.675759e-10	-3.602845e+01	-4.305774e+01
4.200000e-07	-5.145474e-06	-7.086968e-10	-3.590965e+01	-4.302405e+01
4.300000e-07	-5.128090e-06	-6.061785e-10	-3.578833e+01	-4.298359e+01
4.400000e-07	-5.110372e-06	-6.209366e-10	-3.566468e+01	-4.293640e+01
4.500000e-07	-5.092354e-06	-7.507108e-10	-3.553894e+01	-4.288258e+01
4.600000e-07	-5.073855e-06	-6.660989e-10	-3.540983e+01	-4.282227e+01
4.700000e-07	-5.054913e-06	-5.665162e-10	-3.527764e+01	-4.275566e+01
4.800000e-07	-5.035734e-06	-6.926210e-10	-3.514379e+01	-4.268296e+01
4.900000e-07	-5.016293e-06	-7.266104e-10	-3.500811e+01	-4.260442e+01
5.000000e-07	-4.996607e-06	-5.807456e-10	-3.487073e+01	-4.252034e+01
5.100000e-07	-4.976732e-06	-6.364801e-10	-3.473202e+01	-4.243102e+01
5.200000e-07	-4.956588e-06	-7.270919e-10	-3.459144e+01	-4.233681e+01
5.300000e-07	-4.936024e-06	-6.144159e-10	-3.444793e+01	-4.223808e+01
5.400000e-07	-4.915071e-06	-5.967814e-10	-3.430170e+01	-4.213522e+01
5.500000e-07	-4.893794e-06	-7.274946e-10	-3.415321e+01	-4.202862e+01
5.600000e-07	-4.872150e-06	-6.474709e-10	-3.400216e+01	-4.191871e+01
5.700000e-07	-4.850183e-06	-5.654816e-10	-3.384886e+01	-4.180592e+01
5.800000e-07	-4.827872e-06	-6.858118e-10	-3.369315e+01	-4.169067e+01
5.900000e-07	-4.805177e-06	-6.992676e-10	-3.353477e+01	-4.157340e+01
6.000000e-07	-4.782139e-06	-5.771201e-10	-3.337398e+01	-4.145455e+01
6.100000e-07	-4.758860e-06	-6.327874e-10	-3.321152e+01	-4.133454e+01
6.200000e-07	-4.735333e-06	-6.846527e-10	-3.304733e+01	-4.121378e+01
6.300000e-07	-4.711526e-06	-5.959368e-10	-3.288119e+01	-4.109267e+01
6.400000e-07	-4.687511e-06	-5.988688e-10	-3.271358e+01	-4.097161e+01
6.500000e-07	-4.663220e-06	-6.724790e-10	-3.254406e+01	-4.085095e+01
6.600000e-07	-4.638405e-06	-6.204624e-10	-3.237088e+01	-4.073104e+01
6.700000e-07	-4.613066e-06	-5.973837e-10	-3.219404e+01	-4.061220e+01
6.800000e-07	-4.587289e-06	-6.583036e-10	-3.201415e+01	-4.049470e+01
6.900000e-07	-4.560918e-06	-6.390419e-10	-3.183010e+01	-4.037881e+01
7.000000e-07	-4.534038e-06	-5.942585e-10	-3.164251e+01	-4.026474e+01
7.100000e-07	-4.506863e-06	-6.307075e-10	-3.145286e+01	-4.015268e+01
7.200000e-07	-4.479457e-06	-6.379621e-10	-3.126160e+01	-4.004279e+01
7.300000e-07	-4.451870e-06	-5.994379e-10	-3.106908e+01	-3.993518e+01
7.400000e-07	-4.424109e-06	-6.124065e-10	-3.087533e+01	-3.982992e+01
7.500000e-07	-4.396136e-06	-6.266272e-10	-3.068011e+01	-3.972705e+01
7.600000e-07	-4.367868e-06	-6.012998e-10	-3.048283e+01	-3.962658e+01
7.700000e-07	-4.339254e-06	-6.000093e-10	-3.028314e+01	-3.952846e+01
7.800000e-07	-4.310299e-06	-6.210578e-10	-3.008107e+01	-3.943263e+01
7.900000e-07	-4.281015e-06	-6.105598e-10	-2.987669e+01	-3.933896e+01
8.000000e-07	-4.251428e-06	-6.061594e-10	-2.967021e+01	-3.924732e+01
8.100000e-07	-4.221602e-06	-6.132228e-10	-2.946206e+01	-3.915754e+01
8.200000e-07	-4.191505e-06	-5.997181e-10	-2.925202e+01	-3.906939e+01
8.300000e-07	-4.161064e-06	-5.834032e-10	-2.903957e+01	-3.898266e+01
8.400000e-07	-4.130346e-06	-5.991789e-10	-2.882519e+01	-3.889707e+01
8.500000e-07	-4.099406e-06	-5.962697e-10	-2.860927e+01	-3.881235e+01
8.600000e-07	-4.068200e-06	-5.827732e-10	-2.839149e+01	-3.872819e+01
8.700000e-07	-4.036806e-06	-5.885400e-10	-2.817239e+01	-3.864426e+01
8.800000e-07	-4.005286e-06	-5.979449e-10	-2.795242e+01	-3.856024e+01
8.900000e-07	-3.973581e-06	-5.831631e-10	-2.773115e+01	-3.847578e+01
9.000000e-07	-3.941626e-06	-5.788246e-10	-2.750814e+01	-3.839052e+01
9.100000e-07	-3.909406e-06	-5.823702e-10	-2.728328e+01	-3.830411e+01
9.200000e-07	-3.876769e-06	-5.700113e-10	-2.705551e+01	-3.821619e+01
9.300000e-07	-3.843695e-06	-5.613016e-10	-2.682469e+01	-3.812641e+01
9.400000e-07	-3.810287e-06	-5.742117e-10	-2.659154e+01	-3.803442e+01
9.500000e-07	-3.776375e-06	-5.741233e-10	-2.635488e+01	-3.793987e+01
9.600000e-07	-3.741931e-06	-5.637677e-10	-2.611449e+01	-3.784245e+01
9.700000e-07	-3.707138e-06	-5.659397e-10	-2.587168e+01	-3.774183e+01
9.800000e-07	-3.672078e-06	-5.684375e-10	-2.562700e+01	-3.763773e+01
9.900000e-07	-3.636743e-06	-5.577646e-10	-2.538040e+01	-3.752986e+01
1.000000e-06	-3.601188e-06	-5.563826e-10	-2.513226e+01	-3.741797e+01
1.010000e-06	-3.565520e-06	-5.621231e-10	-2.488335e+01	-3.730184e+01
1.020000e-06	-3.529757e-06	-5.572889e-10	-2.463376e+01	-3.718125e+01
1.030000e-06	-3.493820e-06	-5.522733e-10	-2.438296e+01	-3.705604e+01
1.040000e-06	-3.457661e-06	-5.553845e-10	-2.413061e+01	-3.692604e+01
1.050000e-06	-3.421303e-06	-5.545088e-10	-2.387687e+01	-3.679115e+01
1.060000e-06	-3.384744e-06	-5.458148e-10	-2.362173e+01	-3.665126e+01
1.070000e-06	-3.347909e-06	-5.466945e-10	-2.336466e+01	-3.650632e+01
1.080000e-06	-3.310769e-06	-5.484273e-10	-2.310547e+01	-3.635628e+01
1.090000e-06	-3.273390e-06	-5.430470e-10	-2.284460e+01	-3.620115e+01
1.100000e-06	-3.235760e-06	-5.381687e-10	-2.258199e+01	-3.604095e+01
1.110000e-06	-3.197887e-06	-5.382428e-10	-2.231768e+01	-3.587571e+01
1.120000e-06	-3.159850e-06	-5.326483e-10	-2.205222e+01	-3.570552e+01
1.130000e-06	-3.121557e-06	-5.274251e-10	-2.178498e+01	-3.553046e+01
1.140000e-06	-3.082980e-06	-5.252970e-10	-2.151575e+01	-3.535066e+01
1.150000e-06	-3.044209e-06	-5.219392e-10	-2.124517e+01	-3.516626e+01
1.160000e-06	-3.005273e-06	-5.148967e-10	-2.097345e+01	-3.497739e+01
1.170000e-06	-2.966179e-06	-5.139560e-10	-2.070061e+01	-3.478423e+01
1.180000e-06	-2.926899e-06	-5.134524e-10	-2.042648e+01	-3.458696e+01
1.190000e-06	-2.887476e-06	-5.103464e-10	-2.015135e+01	-3.438577e+01
1.200000e-06	-2.847919e-06	-5.055382e-10	-1.987529e+01	-3.418083e+01
1.210000e-06	-2.808196e-06	-5.036868e-10	-1.959807e+01	-3.397236e+01
1.220000e-06	-2.768350e-06	-4.995050e-10	-1.931999e+01	-3.376054e+01
1.230000e-06	-2.728414e-06	-4.951056e-10	-1.904128e+01	-3.354556e+01
1.240000e-06	-2.688321e-06	-4.897685e-10	-1.876147e+01	-3.332761e+01
1.250000e-06	-2.648028e-06	-4.831735e-10	-1.848027e+01	-3.310686e+01
1.260000e-06	-2.607465e-06	-4.782821e-10	-1.819719e+01	-3.288347e+01
1.270000e-06	-2.566569e-06	-4.757650e-10	-1.791178e+01	-3.265760e+01
1.280000e-06	-2.525386e-06	-4.758903e-10	-1.762437e+01	-3.242936e+01
1.290000e-06	-2.483918e-06	-4.751129e-10	-1.733497e+01	-3.219887e+01
1.300000e-06	-2.442237e-06	-4.719351e-10	-1.704408e+01	-3.196621e+01
1.310000e-06	-2.400314e-06	-4.668477e-10	-1.675151e+01	-3.173145e+01
1.320000e-06	-2.358090e-06	-4.613954e-10	-1.645683e+01	-3.149461e+01
1.330000e-06	-2.315610e-06	-4.562664e-10	-1.616037e+01	-3.125571e+01
1.340000e-06	-2.272871e-06	-4.517757e-10	-1.586210e+01	-3.101471e+01
1.350000e-06	-2.229888e-06	-4.478660e-10	-1.556213e+01	-3.077156e+01
1.360000e-06	-2.186651e-06	-4.444942e-10	-1.526038e+01	-3.052618e+01
1.370000e-06	-2.143234e-06	-4.426654e-10	-1.495738e+01	-3.027843e+01
1.380000e-06	-2.099719e-06	-4.442598e-10	-1.465369e+01	-3.002818e+01
1.390000e-06	-2.056124e-06	-4.427964e-10	-1.434945e+01	-2.977522e+01
1.400000e-06	-2.012477e-06	-4.384872e-10	-1.404484e+01	-2.951935e+01
1.410000e-06	-1.968758e-06	-4.331516e-10	-1.373973e+01	-2.926030e+01
1.420000e-06	-1.925000e-06	-4.270241e-10	-1.343435e+01	-2.899780e+01
1.430000e-06	-1.881161e-06	-4.217565e-10	-1.312840e+01	-2.873153e+01
1.440000e-06	-1.837199e-06	-4.196062e-10	-1.282160e+01	-2.846114e+01
1.450000e-06	-1.793083e-06	-4.182979e-10	-1.251371e+01	-2.818627e+01
1.460000e-06	-1.748878e-06	-4.160266e-10	-1.220521e+01	-2.790652e+01
1.470000e-06	-1.704609e-06	-4.107862e-10	-1.189626e+01	-2.762147e+01
1.480000e-06	-1.660175e-06	-4.047219e-10	-1.158617e+01	-2.733068e+01
1.490000e-06	-1.615613e-06	-3.976817e-10	-1.127517e+01	-2.703369e+01
1.500000e-06	-1.570830e-06	-3.914378e-10	-1.096264e+01	-2.673003e+01
1.510000e-06	-1.525889e-06	-3.864951e-10	-1.064900e+01	-2.641919e+01
1.520000e-06	-1.480926e-06	-3.811425e-10	-1.033521e+01	-2.610070e+01
1.530000e-06	-1.435828e-06	-3.745721e-10	-1.002047e+01	-2.577403e+01
1.540000e-06	-1.390627e-06	-3.668962e-10	-9.705023e+00	-2.543868e+01
1.550000e-06	-1.345345e-06	-3.583558e-10	-9.389006e+00	-2.509414e+01
1.560000e-06	-1.300023e-06	-3.518275e-10	-9.072704e+00	-2.473989e+01
1.570000e-06	-1.254687e-06	-3.447647e-10	-8.756311e+00	-2.437543e+01
1.580000e-06	-1.209222e-06	-3.387122e-10	-8.439020e+00	-2.400027e+01
1.590000e-06	-1.163645e-06	-3.350213e-10	-8.120944e+00	-2.361391e+01
1.600000e-06	-1.117991e-06	-3.285599e-10	-7.802329e+00	-2.321590e+01
1.610000e-06	-1.072187e-06	-3.193419e-10	-7.482669e+00	-2.280577e+01
1.620000e-06	-1.026282e-06	-3.106617e-10	-7.162302e+00	-2.238309e+01
1.630000e-06	-9.803824e-07	-3.036963e-10	-6.841973e+00	-2.194747e+01
1.640000e-06	-9.344586e-07	-2.965936e-10	-6.521476e+00	-2.149850e+01
1.650000e-06	-8.884543e-07	-2.887679e-10	-6.200417e+00	-2.103584e+01
1.660000e-06	-8.422790e-07	-2.803009e-10	-5.878165e+00	-2.055917e+01
1.670000e-06	-7.960917e-07	-2.712624e-10	-5.555830e+00	-2.006819e+01
1.680000e-06	-7.499773e-07	-2.626330e-10	-5.234003e+00	-1.956265e+01
1.690000e-06	-7.037769e-07	-2.550224e-10	-4.911576e+00	-1.904232e+01
1.700000e-06	-6.575109e-07	-2.461344e-10	-4.588691e+00	-1.850704e+01
1.710000e-06	-6.112264e-07	-2.391755e-10	-4.265677e+00	-1.795665e+01
1.720000e-06	-5.648441e-07	-2.335611e-10	-3.941980e+00	-1.739106e+01
1.730000e-06	-5.183796e-07	-2.237986e-10	-3.617710e+00	-1.681020e+01
1.740000e-06	-4.719380e-07	-2.090800e-10	-3.293599e+00	-1.621407e+01
1.750000e-06	-4.254761e-07	-1.963528e-10	-2.969347e+00	-1.560268e+01
1.760000e-06	-3.789462e-07	-1.858458e-10	-2.644621e+00	-1.497610e+01
1.770000e-06	-3.324506e-07	-1.769119e-10	-2.320134e+00	-1.433446e+01
1.780000e-06	-2.859745e-07	-1.685280e-10	-1.995782e+00	-1.367789e+01
1.790000e-06	-2.393888e-07	-1.608166e-10	-1.670666e+00	-1.300660e+01
1.800000e-06	-1.927971e-07	-1.510178e-10	-1.345508e+00	-1.232083e+01
1.810000e-06	-1.462051e-07	-1.393113e-10	-1.020348e+00	-1.162087e+01
1.820000e-06	-9.958422e-08	-1.309048e-10	-6.949865e-01	-1.090702e+01
1.830000e-06	-5.298380e-08	-1.242439e-10	-3.697677e-01	-1.017965e+01
1.840000e-06	-6.351116e-09	-1.164126e-10	-4.432369e-02	-9.439166e+00
1.850000e-06	4.028877e-08	-1.048215e-10	2.811706e-01	-8.685993e+00
1.860000e-06	8.693203e-08	-9.300618e-11	6.066884e-01	-7.920603e+00
1.870000e-06	1.335065e-07	-8.216925e-11	9.317264e-01	-7.143500e+00
1.880000e-06	1.801351e-07	-7.243362e-11	1.257142e+00	-6.355218e+00
1.890000e-06	2.269160e-07	-6.264189e-11	1.583620e+00	-5.556322e+00
1.900000e-06	2.735885e-07	-5.139565e-11	1.909342e+00	-4.747404e+00
1.910000e-06	3.201098e-07	-4.043643e-11	2.234008e+00	-3.929081e+00
1.920000e-06	3.665644e-07	-3.041790e-11	2.558210e+00	-3.101994e+00
1.930000e-06	4.130366e-07	-2.032709e-11	2.882534e+00	-2.266807e+00
1.940000e-06	4.595221e-07	-8.203335e-12	3.206951e+00	-1.424202e+00
1.950000e-06	5.059193e-07	4.913416e-12	3.530751e+00	-5.748767e-01
1.960000e-06	5.522354e-07	1.858967e-11	3.853985e+00	2.804543e-01
1.970000e-06	5.985631e-07	2.936115e-11	4.177301e+00	1.141065e+00
1.980000e-06	6.449225e-07	3.619155e-11	4.500838e+00	2.006219e+00
1.990000e-06	6.911583e-07	4.681841e-11	4.823512e+00	2.875171e+00
2.000000e-06	7.372894e-07	5.861152e-11	5.145455e+00	3.747171e+00
2.010000e-06	7.834133e-07	7.240155e-11	5.467349e+00	4.621465e+00
2.020000e-06	8.294368e-07	8.770509e-11	5.788541e+00	5.497298e+00
2.030000e-06	8.754130e-07	1.028322e-10	6.109404e+00	6.373914e+00
2.040000e-06	9.213859e-07	1.157635e-10	6.430243e+00	7.250562e+00
2.050000e-06	9.672978e-07	1.267766e-10	6.750657e+00	8.126494e+00
2.060000e-06	1.013132e-06	1.378729e-10	7.070526e+00	9.000970e+00
2.070000e-06	1.058883e-06	1.488390e-10	7.389817e+00	9.873257e+00
2.080000e-06	1.104570e-06	1.617027e-10	7.708666e+00	1.074263e+01
2.090000e-06	1.150177e-06	1.748595e-10	8.026947e+00	1.160839e+01
2.100000e-06	1.195730e-06	1.881357e-10	8.344857e+00	1.246983e+01
2.110000e-06	1.241230e-06	2.007857e-10	8.662400e+00	1.332627e+01
2.120000e-06	1.286637e-06	2.131621e-10	8.979287e+00	1.417705e+01
2.130000e-06	1.331898e-06	2.248415e-10	9.295156e+00	1.502153e+01
2.140000e-06	1.377068e-06	2.364528e-10	9.610398e+00	1.585907e+01
2.150000e-06	1.422165e-06	2.489363e-10	9.925119e+00	1.668908e+01
2.160000e-06	1.467117e-06	2.617030e-10	1.023884e+01	1.751096e+01
2.170000e-06	1.511985e-06	2.736706e-10	1.055196e+01	1.832417e+01
2.180000e-06	1.556752e-06	2.881962e-10	1.086438e+01	1.912815e+01
2.190000e-06	1.601436e-06	2.999362e-10	1.117623e+01	1.992241e+01
2.200000e-06	1.646043e-06	3.096129e-10	1.148754e+01	2.070645e+01
2.210000e-06	1.690478e-06	3.189522e-10	1.179765e+01	2.147982e+01
2.220000e-06	1.734763e-06	3.273810e-10	1.210670e+01	2.224208e+01
2.230000e-06	1.778915e-06	3.373900e-10	1.241484e+01	2.299283e+01
2.240000e-06	1.822911e-06	3.472201e-10	1.272188e+01	2.373169e+01
2.250000e-06	1.866792e-06	3.585795e-10	1.302812e+01	2.445830e+01
2.260000e-06	1.910611e-06	3.685543e-10	1.333393e+01	2.517234e+01
2.270000e-06	1.954354e-06	3.816252e-10	1.363921e+01	2.587353e+01
2.280000e-06	1.998047e-06	3.948838e-10	1.394413e+01	2.656159e+01
2.290000e-06	2.041741e-06	4.051161e-10	1.424907e+01	2.723628e+01
2.300000e-06	2.085361e-06	4.126372e-10	1.455348e+01	2.789739e+01
2.310000e-06	2.128880e-06	4.173749e-10	1.485720e+01	2.854474e+01
2.320000e-06	2.172287e-06	4.227952e-10	1.516013e+01	2.917817e+01
2.330000e-06	2.215536e-06	4.311648e-10	1.546197e+01	2.979756e+01
2.340000e-06	2.258643e-06	4.434702e-10	1.576280e+01	3.040278e+01
2.350000e-06	2.301512e-06	4.579917e-10	1.606198e+01	3.099377e+01
2.360000e-06	2.344124e-06	4.728834e-10	1.635937e+01	3.157047e+01
2.370000e-06	2.386560e-06	4.836382e-10	1.665552e+01	3.213285e+01
2.380000e-06	2.428662e-06	4.895741e-10	1.694935e+01	3.268090e+01
2.390000e-06	2.470318e-06	4.919251e-10	1.724006e+01	3.321463e+01
2.400000e-06	2.511688e-06	4.951701e-10	1.752877e+01	3.373407e+01
2.410000e-06	2.552814e-06	5.014525e-10	1.781579e+01	3.423929e+01
2.420000e-06	2.593683e-06	5.103194e-10	1.810100e+01	3.473034e+01
2.430000e-06	2.634318e-06	5.232685e-10	1.838459e+01	3.520733e+01
2.440000e-06	2.674682e-06	5.357283e-10	1.866629e+01	3.567036e+01
2.450000e-06	2.714775e-06	5.420807e-10	1.894609e+01	3.611955e+01
2.460000e-06	2.754736e-06	5.473430e-10	1.922498e+01	3.655504e+01
2.470000e-06	2.794647e-06	5.518679e-10	1.950351e+01	3.697698e+01
2.480000e-06	2.834432e-06	5.554020e-10	1.978116e+01	3.738553e+01
2.490000e-06	2.874118e-06	5.609158e-10	2.005813e+01	3.778087e+01
2.500000e-06	2.913642e-06	5.666378e-10	2.033396e+01	3.816317e+01
2.510000e-06	2.952931e-06	5.722118e-10	2.060816e+01	3.853263e+01
2.520000e-06	2.992082e-06	5.786805e-10	2.088139e+01	3.888945e+01
2.530000e-06	3.031092e-06	5.862505e-10	2.115363e+01	3.923384e+01
2.540000e-06	3.069757e-06	5.921143e-10	2.142347e+01	3.956600e+01
2.550000e-06	3.108082e-06	5.956316e-10	2.169094e+01	3.988615e+01
2.560000e-06	3.146298e-06	5.992274e-10	2.195764e+01	4.019450e+01
2.570000e-06	3.184340e-06	6.005478e-10	2.222313e+01	4.049130e+01
2.580000e-06	3.222108e-06	6.005462e-10	2.248671e+01	4.077674e+01
2.590000e-06	3.259668e-06	6.026131e-10	2.274884e+01	4.105107e+01
2.600000e-06	3.297092e-06	6.071448e-10	2.301001e+01	4.131451e+01
2.610000e-06	3.334367e-06	6.098796e-10	2.327015e+01	4.156728e+01
2.620000e-06	3.371369e-06	6.102111e-10	2.352838e+01	4.180961e+01
2.630000e-06	3.407981e-06	6.106748e-10	2.378390e+01	4.204173e+01
2.640000e-06	3.444328e-06	6.125874e-10	2.403756e+01	4.226385e+01
2.650000e-06	3.480455e-06	6.180432e-10	2.428969e+01	4.247620e+01
2.660000e-06	3.516387e-06	6.237381e-10	2.454045e+01	4.267901e+01
2.670000e-06	3.552205e-06	6.264171e-10	2.479042e+01	4.287248e+01
2.680000e-06	3.587868e-06	6.281617e-10	2.503930e+01	4.305685e+01
2.690000e-06	3.623360e-06	6.309775e-10	2.528700e+01	4.323231e+01
2.700000e-06	3.658710e-06	6.336721e-10	2.553370e+01	4.339910e+01
2.710000e-06	3.693890e-06	6.353306e-10	2.577922e+01	4.355741e+01
2.720000e-06	3.728802e-06	6.366295e-10	2.602287e+01	4.370745e+01
2.730000e-06	3.763395e-06	6.376538e-10	2.626429e+01	4.384945e+01
2.740000e-06	3.797682e-06	6.385710e-10	2.650358e+01	4.398359e+01
2.750000e-06	3.831529e-06	6.391949e-10	2.673978e+01	4.411010e+01
2.760000e-06	3.864806e-06	6.384321e-10	2.697202e+01	4.422917e+01
2.770000e-06	3.897496e-06	6.391763e-10	2.720016e+01	4.434101e+01
2.780000e-06	3.929740e-06	6.431720e-10	2.742519e+01	4.444583e+01
2.790000e-06	3.961755e-06	6.480852e-10	2.764862e+01	4.454382e+01
2.800000e-06	3.993570e-06	6.508478e-10	2.787065e+01	4.463521e+01
2.810000e-06	4.025232e-06	6.511979e-10	2.809162e+01	4.472018e+01
2.820000e-06	4.056750e-06	6.517168e-10	2.831158e+01	4.479895e+01
2.830000e-06	4.088169e-06	6.527538e-10	2.853085e+01	4.487172e+01
2.840000e-06	4.119406e-06	6.541866e-10	2.874884e+01	4.493871e+01
2.850000e-06	4.150269e-06	6.600864e-10	2.896423e+01	4.500011e+01
2.860000e-06	4.180770e-06	6.652504e-10	2.917710e+01	4.505614e+01
2.870000e-06	4.210992e-06	6.652157e-10	2.938802e+01	4.510702e+01
2.880000e-06	4.240895e-06	6.645680e-10	2.959671e+01	4.515294e+01
2.890000e-06	4.270483e-06	6.650680e-10	2.980320e+01	4.519412e+01
2.900000e-06	4.299808e-06	6.650111e-10	3.000785e+01	4.523078e+01
