# Temperatura_=_-0.5
# Concentracion g/m^3_=_1620.0
# C_Vs_to_Am_M_A/Vsm_=_65563218390.804596
# pendiente_HvsI_1/m_=_3716.3
# ordenada_HvsI_A/m_=_1297.0
# frecuencia_Hz_=_135096.98007608714

Tiempo_(s)	Campo_(V.s)	Magnetizacion_(V.s)	Campo_(kA/m)	Magnetizacion_(A/m)
0.000000e+00	-5.532527e-06	-1.333852e-09	-3.837923e+01	-8.932958e+01
1.000000e-08	-5.532690e-06	-1.329766e-09	-3.838036e+01	-8.926676e+01
2.000000e-08	-5.532552e-06	-1.326121e-09	-3.837941e+01	-8.920302e+01
3.000000e-08	-5.532146e-06	-1.323759e-09	-3.837659e+01	-8.913832e+01
4.000000e-08	-5.531343e-06	-1.319806e-09	-3.837102e+01	-8.907261e+01
5.000000e-08	-5.529905e-06	-1.305569e-09	-3.836104e+01	-8.900584e+01
6.000000e-08	-5.527804e-06	-1.283685e-09	-3.834647e+01	-8.893793e+01
7.000000e-08	-5.525064e-06	-1.270797e-09	-3.832746e+01	-8.886881e+01
8.000000e-08	-5.521849e-06	-1.316530e-09	-3.830516e+01	-8.879840e+01
9.000000e-08	-5.518238e-06	-1.470923e-09	-3.828011e+01	-8.872658e+01
1.000000e-07	-5.514208e-06	-1.536862e-09	-3.825215e+01	-8.865326e+01
1.100000e-07	-5.509755e-06	-1.300139e-09	-3.822127e+01	-8.857832e+01
1.200000e-07	-5.505188e-06	-1.123010e-09	-3.818958e+01	-8.850164e+01
1.300000e-07	-5.500518e-06	-1.258172e-09	-3.815718e+01	-8.842310e+01
1.400000e-07	-5.495281e-06	-1.456499e-09	-3.812086e+01	-8.834256e+01
1.500000e-07	-5.489501e-06	-1.338663e-09	-3.808076e+01	-8.825989e+01
1.600000e-07	-5.483469e-06	-1.146745e-09	-3.803892e+01	-8.817496e+01
1.700000e-07	-5.477186e-06	-1.310763e-09	-3.799533e+01	-8.808763e+01
1.800000e-07	-5.470327e-06	-1.507331e-09	-3.794775e+01	-8.799776e+01
1.900000e-07	-5.462934e-06	-1.386377e-09	-3.789647e+01	-8.790520e+01
2.000000e-07	-5.455359e-06	-1.148087e-09	-3.784392e+01	-8.780984e+01
2.100000e-07	-5.447619e-06	-1.225102e-09	-3.779022e+01	-8.771152e+01
2.200000e-07	-5.439610e-06	-1.428126e-09	-3.773467e+01	-8.761013e+01
2.300000e-07	-5.431394e-06	-1.429027e-09	-3.767767e+01	-8.750553e+01
2.400000e-07	-5.422855e-06	-1.294299e-09	-3.761844e+01	-8.739760e+01
2.500000e-07	-5.413519e-06	-1.314123e-09	-3.755367e+01	-8.728621e+01
2.600000e-07	-5.403228e-06	-1.387630e-09	-3.748228e+01	-8.717127e+01
2.700000e-07	-5.392383e-06	-1.346058e-09	-3.740705e+01	-8.705266e+01
2.800000e-07	-5.381151e-06	-1.277633e-09	-3.732914e+01	-8.693028e+01
2.900000e-07	-5.369452e-06	-1.325926e-09	-3.724798e+01	-8.680403e+01
3.000000e-07	-5.357390e-06	-1.385294e-09	-3.716431e+01	-8.667384e+01
3.100000e-07	-5.345063e-06	-1.341539e-09	-3.707879e+01	-8.653962e+01
3.200000e-07	-5.332344e-06	-1.286487e-09	-3.699056e+01	-8.640130e+01
3.300000e-07	-5.319122e-06	-1.311598e-09	-3.689884e+01	-8.625881e+01
3.400000e-07	-5.305636e-06	-1.370183e-09	-3.680528e+01	-8.611210e+01
3.500000e-07	-5.291897e-06	-1.327227e-09	-3.670998e+01	-8.596112e+01
3.600000e-07	-5.277543e-06	-1.272464e-09	-3.661040e+01	-8.580582e+01
3.700000e-07	-5.262666e-06	-1.325257e-09	-3.650720e+01	-8.564618e+01
3.800000e-07	-5.247375e-06	-1.355142e-09	-3.640113e+01	-8.548215e+01
3.900000e-07	-5.231443e-06	-1.256587e-09	-3.629061e+01	-8.531372e+01
4.000000e-07	-5.214968e-06	-1.265464e-09	-3.617632e+01	-8.514088e+01
4.100000e-07	-5.198274e-06	-1.375041e-09	-3.606052e+01	-8.496361e+01
4.200000e-07	-5.181239e-06	-1.310748e-09	-3.594235e+01	-8.478191e+01
4.300000e-07	-5.163747e-06	-1.199137e-09	-3.582100e+01	-8.459578e+01
4.400000e-07	-5.146083e-06	-1.332376e-09	-3.569846e+01	-8.440523e+01
4.500000e-07	-5.128140e-06	-1.386006e-09	-3.557400e+01	-8.421026e+01
4.600000e-07	-5.109653e-06	-1.211592e-09	-3.544575e+01	-8.401090e+01
4.700000e-07	-5.090720e-06	-1.213457e-09	-3.531441e+01	-8.380716e+01
4.800000e-07	-5.071500e-06	-1.371991e-09	-3.518108e+01	-8.359906e+01
4.900000e-07	-5.051969e-06	-1.288791e-09	-3.504559e+01	-8.338663e+01
5.000000e-07	-5.032244e-06	-1.208783e-09	-3.490876e+01	-8.316991e+01
5.100000e-07	-5.012423e-06	-1.325418e-09	-3.477126e+01	-8.294891e+01
5.200000e-07	-4.992301e-06	-1.296633e-09	-3.463167e+01	-8.272368e+01
5.300000e-07	-4.971719e-06	-1.173889e-09	-3.448890e+01	-8.249425e+01
5.400000e-07	-4.950809e-06	-1.288048e-09	-3.434385e+01	-8.226066e+01
5.500000e-07	-4.929492e-06	-1.343978e-09	-3.419597e+01	-8.202294e+01
5.600000e-07	-4.907657e-06	-1.187618e-09	-3.404450e+01	-8.178114e+01
5.700000e-07	-4.885493e-06	-1.201675e-09	-3.389075e+01	-8.153530e+01
5.800000e-07	-4.863030e-06	-1.322268e-09	-3.373492e+01	-8.128546e+01
5.900000e-07	-4.840193e-06	-1.234747e-09	-3.357650e+01	-8.103166e+01
6.000000e-07	-4.817015e-06	-1.175054e-09	-3.341571e+01	-8.077395e+01
6.100000e-07	-4.793516e-06	-1.268911e-09	-3.325270e+01	-8.051237e+01
6.200000e-07	-4.769826e-06	-1.240413e-09	-3.308837e+01	-8.024697e+01
6.300000e-07	-4.746019e-06	-1.161079e-09	-3.292321e+01	-7.997779e+01
6.400000e-07	-4.721970e-06	-1.216643e-09	-3.275639e+01	-7.970488e+01
6.500000e-07	-4.697624e-06	-1.232678e-09	-3.258749e+01	-7.942828e+01
6.600000e-07	-4.672734e-06	-1.168236e-09	-3.241484e+01	-7.914803e+01
6.700000e-07	-4.647264e-06	-1.194369e-09	-3.223815e+01	-7.886419e+01
6.800000e-07	-4.621293e-06	-1.222742e-09	-3.205799e+01	-7.857679e+01
6.900000e-07	-4.594651e-06	-1.178142e-09	-3.187317e+01	-7.828588e+01
7.000000e-07	-4.567513e-06	-1.171178e-09	-3.168491e+01	-7.799150e+01
7.100000e-07	-4.540160e-06	-1.196121e-09	-3.149517e+01	-7.769370e+01
7.200000e-07	-4.512580e-06	-1.168016e-09	-3.130384e+01	-7.739252e+01
7.300000e-07	-4.484832e-06	-1.160489e-09	-3.111136e+01	-7.708799e+01
7.400000e-07	-4.456960e-06	-1.178491e-09	-3.091800e+01	-7.678015e+01
7.500000e-07	-4.428852e-06	-1.166182e-09	-3.072302e+01	-7.646905e+01
7.600000e-07	-4.400402e-06	-1.151545e-09	-3.052566e+01	-7.615471e+01
7.700000e-07	-4.371625e-06	-1.158993e-09	-3.032603e+01	-7.583717e+01
7.800000e-07	-4.342556e-06	-1.143656e-09	-3.012438e+01	-7.551647e+01
7.900000e-07	-4.313187e-06	-1.135113e-09	-2.992065e+01	-7.519262e+01
8.000000e-07	-4.283583e-06	-1.149047e-09	-2.971529e+01	-7.486565e+01
8.100000e-07	-4.253729e-06	-1.141526e-09	-2.950819e+01	-7.453559e+01
8.200000e-07	-4.223535e-06	-1.114347e-09	-2.929874e+01	-7.420246e+01
8.300000e-07	-4.192966e-06	-1.119013e-09	-2.908667e+01	-7.386626e+01
8.400000e-07	-4.162092e-06	-1.121722e-09	-2.887251e+01	-7.352701e+01
8.500000e-07	-4.130946e-06	-1.096524e-09	-2.865644e+01	-7.318472e+01
8.600000e-07	-4.099497e-06	-1.090137e-09	-2.843828e+01	-7.283938e+01
8.700000e-07	-4.067893e-06	-1.100733e-09	-2.821904e+01	-7.249100e+01
8.800000e-07	-4.036199e-06	-1.086625e-09	-2.799918e+01	-7.213957e+01
8.900000e-07	-4.004367e-06	-1.074651e-09	-2.777836e+01	-7.178508e+01
9.000000e-07	-3.972322e-06	-1.080791e-09	-2.755606e+01	-7.142750e+01
9.100000e-07	-3.939941e-06	-1.067460e-09	-2.733143e+01	-7.106682e+01
9.200000e-07	-3.907120e-06	-1.045528e-09	-2.710376e+01	-7.070302e+01
9.300000e-07	-3.873895e-06	-1.049771e-09	-2.687327e+01	-7.033605e+01
9.400000e-07	-3.840199e-06	-1.051735e-09	-2.663953e+01	-6.996588e+01
9.500000e-07	-3.805960e-06	-1.032077e-09	-2.640201e+01	-6.959247e+01
9.600000e-07	-3.771291e-06	-1.027190e-09	-2.616151e+01	-6.921577e+01
9.700000e-07	-3.736294e-06	-1.030122e-09	-2.591873e+01	-6.883573e+01
9.800000e-07	-3.701072e-06	-1.016224e-09	-2.567440e+01	-6.845229e+01
9.900000e-07	-3.665623e-06	-1.002323e-09	-2.542849e+01	-6.806540e+01
1.000000e-06	-3.630016e-06	-1.004946e-09	-2.518148e+01	-6.767499e+01
1.010000e-06	-3.594263e-06	-9.973708e-10	-2.493346e+01	-6.728100e+01
1.020000e-06	-3.558355e-06	-9.835991e-10	-2.468437e+01	-6.688336e+01
1.030000e-06	-3.522336e-06	-9.798349e-10	-2.443450e+01	-6.648199e+01
1.040000e-06	-3.485990e-06	-9.764917e-10	-2.418237e+01	-6.607682e+01
1.050000e-06	-3.449339e-06	-9.630808e-10	-2.392812e+01	-6.566778e+01
1.060000e-06	-3.412391e-06	-9.584079e-10	-2.367182e+01	-6.525480e+01
1.070000e-06	-3.375102e-06	-9.555780e-10	-2.341314e+01	-6.483780e+01
1.080000e-06	-3.337651e-06	-9.441819e-10	-2.315334e+01	-6.441670e+01
1.090000e-06	-3.300025e-06	-9.329427e-10	-2.289233e+01	-6.399143e+01
1.100000e-06	-3.262216e-06	-9.279982e-10	-2.263005e+01	-6.356191e+01
1.110000e-06	-3.224188e-06	-9.183656e-10	-2.236624e+01	-6.312809e+01
1.120000e-06	-3.185873e-06	-9.081632e-10	-2.210046e+01	-6.268988e+01
1.130000e-06	-3.147372e-06	-9.035942e-10	-2.183338e+01	-6.224723e+01
1.140000e-06	-3.108677e-06	-8.984467e-10	-2.156495e+01	-6.180006e+01
1.150000e-06	-3.069751e-06	-8.849239e-10	-2.129492e+01	-6.134832e+01
1.160000e-06	-3.030658e-06	-8.734148e-10	-2.102372e+01	-6.089196e+01
1.170000e-06	-2.991427e-06	-8.669975e-10	-2.075158e+01	-6.043091e+01
1.180000e-06	-2.952034e-06	-8.612689e-10	-2.047831e+01	-5.996514e+01
1.190000e-06	-2.912464e-06	-8.569407e-10	-2.020381e+01	-5.949459e+01
1.200000e-06	-2.872741e-06	-8.538060e-10	-1.992825e+01	-5.901921e+01
1.210000e-06	-2.832884e-06	-8.485457e-10	-1.965177e+01	-5.853898e+01
1.220000e-06	-2.792896e-06	-8.403878e-10	-1.937436e+01	-5.805384e+01
1.230000e-06	-2.752691e-06	-8.322971e-10	-1.909547e+01	-5.756377e+01
1.240000e-06	-2.712292e-06	-8.192616e-10	-1.881522e+01	-5.706873e+01
1.250000e-06	-2.671730e-06	-8.058570e-10	-1.853383e+01	-5.656868e+01
1.260000e-06	-2.630974e-06	-7.980847e-10	-1.825111e+01	-5.606359e+01
1.270000e-06	-2.589907e-06	-7.927756e-10	-1.796623e+01	-5.555341e+01
1.280000e-06	-2.548457e-06	-7.884681e-10	-1.767869e+01	-5.503812e+01
1.290000e-06	-2.506634e-06	-7.834142e-10	-1.738857e+01	-5.451766e+01
1.300000e-06	-2.464537e-06	-7.745836e-10	-1.709654e+01	-5.399198e+01
1.310000e-06	-2.422230e-06	-7.627554e-10	-1.680305e+01	-5.346104e+01
1.320000e-06	-2.379586e-06	-7.497827e-10	-1.650723e+01	-5.292477e+01
1.330000e-06	-2.336613e-06	-7.391050e-10	-1.620912e+01	-5.238309e+01
1.340000e-06	-2.293458e-06	-7.297606e-10	-1.590976e+01	-5.183593e+01
1.350000e-06	-2.250177e-06	-7.239848e-10	-1.560951e+01	-5.128319e+01
1.360000e-06	-2.206785e-06	-7.172708e-10	-1.530850e+01	-5.072475e+01
1.370000e-06	-2.163284e-06	-7.103815e-10	-1.500674e+01	-5.016050e+01
1.380000e-06	-2.119650e-06	-7.035734e-10	-1.470405e+01	-4.959030e+01
1.390000e-06	-2.075971e-06	-6.957731e-10	-1.440105e+01	-4.901398e+01
1.400000e-06	-2.032204e-06	-6.866315e-10	-1.409743e+01	-4.843137e+01
1.410000e-06	-1.988280e-06	-6.780999e-10	-1.379273e+01	-4.784227e+01
1.420000e-06	-1.944231e-06	-6.692948e-10	-1.348716e+01	-4.724646e+01
1.430000e-06	-1.900086e-06	-6.610160e-10	-1.318093e+01	-4.664369e+01
1.440000e-06	-1.855899e-06	-6.543195e-10	-1.287440e+01	-4.603371e+01
1.450000e-06	-1.811618e-06	-6.489761e-10	-1.256722e+01	-4.541621e+01
1.460000e-06	-1.767236e-06	-6.373451e-10	-1.225935e+01	-4.479089e+01
1.470000e-06	-1.722758e-06	-6.215096e-10	-1.195080e+01	-4.415740e+01
1.480000e-06	-1.678144e-06	-6.068121e-10	-1.164131e+01	-4.351538e+01
1.490000e-06	-1.633340e-06	-5.929518e-10	-1.133050e+01	-4.286444e+01
1.500000e-06	-1.588352e-06	-5.839569e-10	-1.101842e+01	-4.220417e+01
1.510000e-06	-1.543149e-06	-5.776110e-10	-1.070485e+01	-4.153412e+01
1.520000e-06	-1.497765e-06	-5.728068e-10	-1.039002e+01	-4.085385e+01
1.530000e-06	-1.452428e-06	-5.666707e-10	-1.007551e+01	-4.016286e+01
1.540000e-06	-1.407101e-06	-5.576653e-10	-9.761082e+00	-3.946067e+01
1.550000e-06	-1.361725e-06	-5.435204e-10	-9.446310e+00	-3.874674e+01
1.560000e-06	-1.316251e-06	-5.250120e-10	-9.130857e+00	-3.802055e+01
1.570000e-06	-1.270678e-06	-5.057653e-10	-8.814712e+00	-3.728155e+01
1.580000e-06	-1.224998e-06	-4.901197e-10	-8.497833e+00	-3.652917e+01
1.590000e-06	-1.179197e-06	-4.830730e-10	-8.180111e+00	-3.576286e+01
1.600000e-06	-1.133320e-06	-4.773806e-10	-7.861859e+00	-3.498205e+01
1.610000e-06	-1.087319e-06	-4.697835e-10	-7.542752e+00	-3.418614e+01
1.620000e-06	-1.041290e-06	-4.596847e-10	-7.223445e+00	-3.337459e+01
1.630000e-06	-9.952049e-07	-4.480952e-10	-6.903754e+00	-3.254681e+01
1.640000e-06	-9.490225e-07	-4.343185e-10	-6.583385e+00	-3.170226e+01
1.650000e-06	-9.026868e-07	-4.151785e-10	-6.261954e+00	-3.084039e+01
1.660000e-06	-8.562276e-07	-3.963400e-10	-5.939665e+00	-2.996068e+01
1.670000e-06	-8.097876e-07	-3.789838e-10	-5.617510e+00	-2.906262e+01
1.680000e-06	-7.633595e-07	-3.649954e-10	-5.295438e+00	-2.814572e+01
1.690000e-06	-7.168768e-07	-3.564322e-10	-4.972987e+00	-2.720956e+01
1.700000e-06	-6.702457e-07	-3.455011e-10	-4.649506e+00	-2.625370e+01
1.710000e-06	-6.235265e-07	-3.307621e-10	-4.325414e+00	-2.527778e+01
1.720000e-06	-5.768217e-07	-3.144744e-10	-4.001422e+00	-2.428147e+01
1.730000e-06	-5.301244e-07	-2.946609e-10	-3.677482e+00	-2.326447e+01
1.740000e-06	-4.833534e-07	-2.714423e-10	-3.353031e+00	-2.222655e+01
1.750000e-06	-4.365723e-07	-2.511206e-10	-3.028510e+00	-2.116753e+01
1.760000e-06	-3.897915e-07	-2.359255e-10	-2.703990e+00	-2.008728e+01
1.770000e-06	-3.429997e-07	-2.240583e-10	-2.379395e+00	-1.898575e+01
1.780000e-06	-2.961739e-07	-2.145166e-10	-2.054563e+00	-1.786293e+01
1.790000e-06	-2.492128e-07	-2.033421e-10	-1.728794e+00	-1.671889e+01
1.800000e-06	-2.021997e-07	-1.883001e-10	-1.402663e+00	-1.555375e+01
1.810000e-06	-1.552518e-07	-1.685438e-10	-1.076984e+00	-1.436774e+01
1.820000e-06	-1.083635e-07	-1.490823e-10	-7.517192e-01	-1.316111e+01
1.830000e-06	-6.143579e-08	-1.319267e-10	-4.261811e-01	-1.193422e+01
1.840000e-06	-1.448628e-08	-1.153762e-10	-1.004916e-01	-1.068749e+01
1.850000e-06	3.244687e-08	-9.860331e-11	2.250845e-01	-9.421416e+00
1.860000e-06	7.938423e-08	-8.295325e-11	5.506898e-01	-8.136565e+00
1.870000e-06	1.263485e-07	-6.703174e-11	8.764815e-01	-6.833577e+00
1.880000e-06	1.732947e-07	-4.836175e-11	1.202148e+00	-5.513165e+00
1.890000e-06	2.201836e-07	-2.814741e-11	1.527417e+00	-4.176110e+00
1.900000e-06	2.671809e-07	-7.931739e-12	1.853438e+00	-2.823263e+00
1.910000e-06	3.142711e-07	1.126402e-11	2.180104e+00	-1.455536e+00
1.920000e-06	3.612143e-07	2.820230e-11	2.505750e+00	-7.390840e-02
1.930000e-06	4.080018e-07	4.530334e-11	2.830315e+00	1.320585e+00
1.940000e-06	4.547684e-07	6.365516e-11	3.154736e+00	2.726851e+00
1.950000e-06	5.014732e-07	8.341267e-11	3.478728e+00	4.143749e+00
1.960000e-06	5.480926e-07	1.051320e-10	3.802128e+00	5.570089e+00
1.970000e-06	5.946621e-07	1.256436e-10	4.125181e+00	7.004638e+00
1.980000e-06	6.411656e-07	1.436927e-10	4.447777e+00	8.446130e+00
1.990000e-06	6.876575e-07	1.624074e-10	4.770292e+00	9.893262e+00
2.000000e-06	7.342031e-07	1.811993e-10	5.093179e+00	1.134471e+01
2.010000e-06	7.807735e-07	2.009317e-10	5.416239e+00	1.279913e+01
2.020000e-06	8.272937e-07	2.225841e-10	5.738950e+00	1.425515e+01
2.030000e-06	8.736508e-07	2.471662e-10	6.060530e+00	1.571141e+01
2.040000e-06	9.198729e-07	2.677567e-10	6.381174e+00	1.716653e+01
2.050000e-06	9.660590e-07	2.870671e-10	6.701568e+00	1.861914e+01
2.060000e-06	1.012170e-06	3.047653e-10	7.021443e+00	2.006788e+01
2.070000e-06	1.058184e-06	3.206628e-10	7.340639e+00	2.151141e+01
2.080000e-06	1.104166e-06	3.383554e-10	7.659616e+00	2.294840e+01
2.090000e-06	1.150100e-06	3.611593e-10	7.978265e+00	2.437755e+01
2.100000e-06	1.195914e-06	3.883985e-10	8.296075e+00	2.579759e+01
2.110000e-06	1.241611e-06	4.105574e-10	8.613076e+00	2.720730e+01
2.120000e-06	1.287221e-06	4.290025e-10	8.929474e+00	2.860548e+01
2.130000e-06	1.332783e-06	4.449180e-10	9.245537e+00	2.999100e+01
2.140000e-06	1.378221e-06	4.610426e-10	9.560745e+00	3.136276e+01
2.150000e-06	1.423538e-06	4.778948e-10	9.875104e+00	3.271972e+01
2.160000e-06	1.468835e-06	4.975335e-10	1.018934e+01	3.406092e+01
2.170000e-06	1.514085e-06	5.189280e-10	1.050324e+01	3.538543e+01
2.180000e-06	1.559210e-06	5.424358e-10	1.081626e+01	3.669240e+01
2.190000e-06	1.604173e-06	5.627050e-10	1.112818e+01	3.798105e+01
2.200000e-06	1.648940e-06	5.797490e-10	1.143873e+01	3.925066e+01
2.210000e-06	1.693528e-06	5.949456e-10	1.174803e+01	4.050059e+01
2.220000e-06	1.737997e-06	6.069885e-10	1.205652e+01	4.173025e+01
2.230000e-06	1.782393e-06	6.188084e-10	1.236449e+01	4.293915e+01
2.240000e-06	1.826700e-06	6.321214e-10	1.267185e+01	4.412684e+01
2.250000e-06	1.870920e-06	6.473271e-10	1.297860e+01	4.529298e+01
2.260000e-06	1.915031e-06	6.634867e-10	1.328460e+01	4.643726e+01
2.270000e-06	1.958999e-06	6.822288e-10	1.358961e+01	4.755946e+01
2.280000e-06	2.002867e-06	7.029732e-10	1.389392e+01	4.865943e+01
2.290000e-06	2.046670e-06	7.227539e-10	1.419779e+01	4.973707e+01
2.300000e-06	2.090372e-06	7.382016e-10	1.450094e+01	5.079235e+01
2.310000e-06	2.134002e-06	7.512802e-10	1.480361e+01	5.182531e+01
2.320000e-06	2.177596e-06	7.653623e-10	1.510602e+01	5.283604e+01
2.330000e-06	2.221122e-06	7.786920e-10	1.540796e+01	5.382467e+01
2.340000e-06	2.264524e-06	7.931653e-10	1.570904e+01	5.479139e+01
2.350000e-06	2.307782e-06	8.120601e-10	1.600913e+01	5.573646e+01
2.360000e-06	2.350884e-06	8.333086e-10	1.630812e+01	5.666013e+01
2.370000e-06	2.393733e-06	8.509797e-10	1.660537e+01	5.756274e+01
2.380000e-06	2.436291e-06	8.649963e-10	1.690059e+01	5.844464e+01
2.390000e-06	2.478415e-06	8.756764e-10	1.719281e+01	5.930620e+01
2.400000e-06	2.520199e-06	8.828388e-10	1.748266e+01	6.014785e+01
2.410000e-06	2.561784e-06	8.899495e-10	1.777114e+01	6.097001e+01
2.420000e-06	2.603037e-06	9.005731e-10	1.805731e+01	6.177312e+01
2.430000e-06	2.643979e-06	9.150655e-10	1.834132e+01	6.255765e+01
2.440000e-06	2.684639e-06	9.285128e-10	1.862338e+01	6.332408e+01
2.450000e-06	2.725003e-06	9.390010e-10	1.890339e+01	6.407288e+01
2.460000e-06	2.765189e-06	9.495735e-10	1.918216e+01	6.480452e+01
2.470000e-06	2.805286e-06	9.616850e-10	1.946032e+01	6.551949e+01
2.480000e-06	2.845221e-06	9.745015e-10	1.973735e+01	6.621827e+01
2.490000e-06	2.884996e-06	9.864568e-10	2.001326e+01	6.690131e+01
2.500000e-06	2.924656e-06	9.945315e-10	2.028838e+01	6.756908e+01
2.510000e-06	2.964275e-06	1.000958e-09	2.056322e+01	6.822202e+01
2.520000e-06	3.003738e-06	1.007530e-09	2.083698e+01	6.886057e+01
2.530000e-06	3.042870e-06	1.014805e-09	2.110844e+01	6.948512e+01
2.540000e-06	3.081865e-06	1.023711e-09	2.137895e+01	7.009609e+01
2.550000e-06	3.120760e-06	1.035247e-09	2.164876e+01	7.069383e+01
2.560000e-06	3.159303e-06	1.048077e-09	2.191614e+01	7.127873e+01
2.570000e-06	3.197515e-06	1.059234e-09	2.218122e+01	7.185109e+01
2.580000e-06	3.235576e-06	1.067116e-09	2.244525e+01	7.241125e+01
2.590000e-06	3.273512e-06	1.073408e-09	2.270841e+01	7.295948e+01
2.600000e-06	3.311244e-06	1.078259e-09	2.297015e+01	7.349607e+01
2.610000e-06	3.348760e-06	1.081518e-09	2.323040e+01	7.402126e+01
2.620000e-06	3.386042e-06	1.086215e-09	2.348903e+01	7.453528e+01
2.630000e-06	3.422980e-06	1.094017e-09	2.374527e+01	7.503834e+01
2.640000e-06	3.459563e-06	1.103941e-09	2.399905e+01	7.553063e+01
2.650000e-06	3.495908e-06	1.115024e-09	2.425117e+01	7.601233e+01
2.660000e-06	3.532065e-06	1.122509e-09	2.450199e+01	7.648359e+01
2.670000e-06	3.568055e-06	1.124540e-09	2.475166e+01	7.694455e+01
2.680000e-06	3.603946e-06	1.126264e-09	2.500064e+01	7.739535e+01
2.690000e-06	3.639697e-06	1.132022e-09	2.524864e+01	7.783610e+01
2.700000e-06	3.675305e-06	1.141257e-09	2.549565e+01	7.826692e+01
2.710000e-06	3.710757e-06	1.148021e-09	2.574158e+01	7.868789e+01
2.720000e-06	3.746010e-06	1.152808e-09	2.598614e+01	7.909913e+01
2.730000e-06	3.780952e-06	1.158691e-09	2.622853e+01	7.950071e+01
2.740000e-06	3.815377e-06	1.164726e-09	2.646733e+01	7.989273e+01
2.750000e-06	3.849307e-06	1.168487e-09	2.670271e+01	8.027526e+01
2.760000e-06	3.882878e-06	1.171285e-09	2.693559e+01	8.064840e+01
2.770000e-06	3.916049e-06	1.177050e-09	2.716570e+01	8.101222e+01
2.780000e-06	3.948701e-06	1.184626e-09	2.739221e+01	8.136683e+01
2.790000e-06	3.980949e-06	1.192782e-09	2.761591e+01	8.171230e+01
2.800000e-06	4.012965e-06	1.199531e-09	2.783800e+01	8.204874e+01
2.810000e-06	4.044813e-06	1.202657e-09	2.805894e+01	8.237626e+01
2.820000e-06	4.076515e-06	1.204747e-09	2.827885e+01	8.269495e+01
2.830000e-06	4.108066e-06	1.207336e-09	2.849772e+01	8.300495e+01
2.840000e-06	4.139386e-06	1.211286e-09	2.871499e+01	8.330636e+01
2.850000e-06	4.170412e-06	1.218337e-09	2.893022e+01	8.359933e+01
2.860000e-06	4.201166e-06	1.227298e-09	2.914356e+01	8.388398e+01
2.870000e-06	4.231561e-06	1.233599e-09	2.935441e+01	8.416047e+01
2.880000e-06	4.261634e-06	1.235848e-09	2.956303e+01	8.442896e+01
2.890000e-06	4.291469e-06	1.237763e-09	2.976999e+01	8.468959e+01
2.900000e-06	4.321058e-06	1.240812e-09	2.997525e+01	8.494254e+01
