# Temperatura_=_13.9
# Concentracion g/m^3_=_1620.0
# C_Vs_to_Am_M_A/Vsm_=_65563218390.804596
# pendiente_HvsI_1/m_=_3716.3
# ordenada_HvsI_A/m_=_1297.0
# frecuencia_Hz_=_135095.72918418644

Tiempo_(s)	Campo_(V.s)	Magnetizacion_(V.s)	Campo_(kA/m)	Magnetizacion_(A/m)
0.000000e+00	-5.496546e-06	-1.624163e-09	-3.838063e+01	-1.058555e+02
1.000000e-08	-5.496582e-06	-1.620557e-09	-3.838088e+01	-1.058589e+02
2.000000e-08	-5.496389e-06	-1.621491e-09	-3.837953e+01	-1.058569e+02
3.000000e-08	-5.495967e-06	-1.621947e-09	-3.837659e+01	-1.058493e+02
4.000000e-08	-5.495067e-06	-1.623683e-09	-3.837030e+01	-1.058360e+02
5.000000e-08	-5.493542e-06	-1.628353e-09	-3.835965e+01	-1.058166e+02
6.000000e-08	-5.491325e-06	-1.622486e-09	-3.834417e+01	-1.057911e+02
7.000000e-08	-5.488584e-06	-1.598127e-09	-3.832503e+01	-1.057593e+02
8.000000e-08	-5.485377e-06	-1.564340e-09	-3.830264e+01	-1.057210e+02
9.000000e-08	-5.481727e-06	-1.610790e-09	-3.827715e+01	-1.056762e+02
1.000000e-07	-5.477706e-06	-1.753693e-09	-3.824908e+01	-1.056246e+02
1.100000e-07	-5.473266e-06	-1.699824e-09	-3.821807e+01	-1.055662e+02
1.200000e-07	-5.468665e-06	-1.481221e-09	-3.818594e+01	-1.055010e+02
1.300000e-07	-5.463945e-06	-1.498104e-09	-3.815298e+01	-1.054288e+02
1.400000e-07	-5.458798e-06	-1.658194e-09	-3.811704e+01	-1.053496e+02
1.500000e-07	-5.453148e-06	-1.716149e-09	-3.807759e+01	-1.052635e+02
1.600000e-07	-5.447085e-06	-1.485722e-09	-3.803526e+01	-1.051703e+02
1.700000e-07	-5.440807e-06	-1.490638e-09	-3.799141e+01	-1.050702e+02
1.800000e-07	-5.434126e-06	-1.657279e-09	-3.794477e+01	-1.049632e+02
1.900000e-07	-5.426893e-06	-1.704989e-09	-3.789426e+01	-1.048494e+02
2.000000e-07	-5.419357e-06	-1.529885e-09	-3.784164e+01	-1.047288e+02
2.100000e-07	-5.411647e-06	-1.492853e-09	-3.778780e+01	-1.046016e+02
2.200000e-07	-5.403622e-06	-1.625210e-09	-3.773176e+01	-1.044679e+02
2.300000e-07	-5.395249e-06	-1.669256e-09	-3.767330e+01	-1.043278e+02
2.400000e-07	-5.386475e-06	-1.575050e-09	-3.761204e+01	-1.041816e+02
2.500000e-07	-5.377144e-06	-1.518652e-09	-3.754688e+01	-1.040292e+02
2.600000e-07	-5.367016e-06	-1.593628e-09	-3.747616e+01	-1.038710e+02
2.700000e-07	-5.356224e-06	-1.589591e-09	-3.740080e+01	-1.037072e+02
2.800000e-07	-5.345075e-06	-1.551511e-09	-3.732295e+01	-1.035379e+02
2.900000e-07	-5.333501e-06	-1.526790e-09	-3.724214e+01	-1.033633e+02
3.000000e-07	-5.321548e-06	-1.587847e-09	-3.715867e+01	-1.031837e+02
3.100000e-07	-5.309227e-06	-1.568730e-09	-3.707264e+01	-1.029992e+02
3.200000e-07	-5.296477e-06	-1.546895e-09	-3.698361e+01	-1.028102e+02
3.300000e-07	-5.283344e-06	-1.501035e-09	-3.689191e+01	-1.026166e+02
3.400000e-07	-5.269869e-06	-1.554236e-09	-3.679781e+01	-1.024189e+02
3.500000e-07	-5.256020e-06	-1.564626e-09	-3.670111e+01	-1.022171e+02
3.600000e-07	-5.241634e-06	-1.540687e-09	-3.660065e+01	-1.020114e+02
3.700000e-07	-5.226738e-06	-1.518045e-09	-3.649664e+01	-1.018021e+02
3.800000e-07	-5.211535e-06	-1.585273e-09	-3.639049e+01	-1.015892e+02
3.900000e-07	-5.195693e-06	-1.534463e-09	-3.627986e+01	-1.013729e+02
4.000000e-07	-5.179240e-06	-1.470987e-09	-3.616498e+01	-1.011534e+02
4.100000e-07	-5.162496e-06	-1.545232e-09	-3.604806e+01	-1.009307e+02
4.200000e-07	-5.145465e-06	-1.599274e-09	-3.592914e+01	-1.007049e+02
4.300000e-07	-5.128087e-06	-1.469760e-09	-3.580780e+01	-1.004762e+02
4.400000e-07	-5.110395e-06	-1.478239e-09	-3.568426e+01	-1.002444e+02
4.500000e-07	-5.092396e-06	-1.619734e-09	-3.555857e+01	-1.000098e+02
4.600000e-07	-5.073926e-06	-1.538245e-09	-3.542960e+01	-9.977219e+01
4.700000e-07	-5.055031e-06	-1.420731e-09	-3.529767e+01	-9.953168e+01
4.800000e-07	-5.035814e-06	-1.547098e-09	-3.516348e+01	-9.928820e+01
4.900000e-07	-5.016324e-06	-1.583375e-09	-3.502739e+01	-9.904170e+01
5.000000e-07	-4.996657e-06	-1.432429e-09	-3.489006e+01	-9.879210e+01
5.100000e-07	-4.976808e-06	-1.488241e-09	-3.475146e+01	-9.853931e+01
5.200000e-07	-4.956683e-06	-1.574689e-09	-3.461094e+01	-9.828323e+01
5.300000e-07	-4.936117e-06	-1.446269e-09	-3.446733e+01	-9.802372e+01
5.400000e-07	-4.915129e-06	-1.427572e-09	-3.432078e+01	-9.776065e+01
5.500000e-07	-4.893811e-06	-1.578134e-09	-3.417192e+01	-9.749387e+01
5.600000e-07	-4.872154e-06	-1.493467e-09	-3.402069e+01	-9.722320e+01
5.700000e-07	-4.850170e-06	-1.398724e-09	-3.386719e+01	-9.694849e+01
5.800000e-07	-4.827965e-06	-1.513488e-09	-3.371214e+01	-9.666955e+01
5.900000e-07	-4.805526e-06	-1.524500e-09	-3.355545e+01	-9.638619e+01
6.000000e-07	-4.782667e-06	-1.390885e-09	-3.339584e+01	-9.609822e+01
6.100000e-07	-4.759471e-06	-1.451328e-09	-3.323387e+01	-9.580547e+01
6.200000e-07	-4.735990e-06	-1.500216e-09	-3.306991e+01	-9.550773e+01
6.300000e-07	-4.712270e-06	-1.408741e-09	-3.290428e+01	-9.520483e+01
6.400000e-07	-4.688348e-06	-1.410831e-09	-3.273724e+01	-9.489658e+01
6.500000e-07	-4.664125e-06	-1.483803e-09	-3.256809e+01	-9.458282e+01
6.600000e-07	-4.639407e-06	-1.414282e-09	-3.239550e+01	-9.426338e+01
6.700000e-07	-4.614117e-06	-1.389183e-09	-3.221891e+01	-9.393811e+01
6.800000e-07	-4.588355e-06	-1.444456e-09	-3.203902e+01	-9.360686e+01
6.900000e-07	-4.562062e-06	-1.419883e-09	-3.185542e+01	-9.326952e+01
7.000000e-07	-4.535189e-06	-1.375168e-09	-3.166778e+01	-9.292597e+01
7.100000e-07	-4.507995e-06	-1.416318e-09	-3.147789e+01	-9.257612e+01
7.200000e-07	-4.480597e-06	-1.407356e-09	-3.128658e+01	-9.221989e+01
7.300000e-07	-4.452971e-06	-1.363447e-09	-3.109368e+01	-9.185722e+01
7.400000e-07	-4.425195e-06	-1.376106e-09	-3.089973e+01	-9.148807e+01
7.500000e-07	-4.397159e-06	-1.381353e-09	-3.070395e+01	-9.111242e+01
7.600000e-07	-4.368812e-06	-1.351614e-09	-3.050602e+01	-9.073027e+01
7.700000e-07	-4.340206e-06	-1.356924e-09	-3.030627e+01	-9.034162e+01
7.800000e-07	-4.311264e-06	-1.365587e-09	-3.010418e+01	-8.994651e+01
7.900000e-07	-4.281975e-06	-1.337756e-09	-2.989967e+01	-8.954500e+01
8.000000e-07	-4.252494e-06	-1.336594e-09	-2.969381e+01	-8.913715e+01
8.100000e-07	-4.222789e-06	-1.346230e-09	-2.948639e+01	-8.872304e+01
8.200000e-07	-4.192666e-06	-1.322321e-09	-2.927605e+01	-8.830278e+01
8.300000e-07	-4.162208e-06	-1.302261e-09	-2.906337e+01	-8.787647e+01
8.400000e-07	-4.131559e-06	-1.320702e-09	-2.884936e+01	-8.744423e+01
8.500000e-07	-4.100646e-06	-1.307765e-09	-2.863350e+01	-8.700622e+01
8.600000e-07	-4.069463e-06	-1.286734e-09	-2.841576e+01	-8.656255e+01
8.700000e-07	-4.038125e-06	-1.288904e-09	-2.819694e+01	-8.611340e+01
8.800000e-07	-4.006609e-06	-1.289364e-09	-2.797687e+01	-8.565891e+01
8.900000e-07	-3.974901e-06	-1.265260e-09	-2.775546e+01	-8.519924e+01
9.000000e-07	-3.942982e-06	-1.267044e-09	-2.753258e+01	-8.473455e+01
9.100000e-07	-3.910754e-06	-1.271112e-09	-2.730754e+01	-8.426500e+01
9.200000e-07	-3.878284e-06	-1.249285e-09	-2.708082e+01	-8.379076e+01
9.300000e-07	-3.845378e-06	-1.233271e-09	-2.685104e+01	-8.331196e+01
9.400000e-07	-3.811909e-06	-1.244768e-09	-2.661734e+01	-8.282877e+01
9.500000e-07	-3.777978e-06	-1.233091e-09	-2.638041e+01	-8.234132e+01
9.600000e-07	-3.743560e-06	-1.216853e-09	-2.614009e+01	-8.184974e+01
9.700000e-07	-3.708741e-06	-1.218483e-09	-2.589695e+01	-8.135416e+01
9.800000e-07	-3.673675e-06	-1.217980e-09	-2.565210e+01	-8.085467e+01
9.900000e-07	-3.638382e-06	-1.195284e-09	-2.540566e+01	-8.035139e+01
1.000000e-06	-3.602912e-06	-1.188760e-09	-2.515798e+01	-7.984437e+01
1.010000e-06	-3.567283e-06	-1.187408e-09	-2.490920e+01	-7.933370e+01
1.020000e-06	-3.531524e-06	-1.172504e-09	-2.465951e+01	-7.881942e+01
1.030000e-06	-3.495673e-06	-1.162420e-09	-2.440917e+01	-7.830156e+01
1.040000e-06	-3.459576e-06	-1.165694e-09	-2.415711e+01	-7.778014e+01
1.050000e-06	-3.423207e-06	-1.157287e-09	-2.390316e+01	-7.725516e+01
1.060000e-06	-3.386607e-06	-1.141840e-09	-2.364760e+01	-7.672660e+01
1.070000e-06	-3.349779e-06	-1.135681e-09	-2.339044e+01	-7.619443e+01
1.080000e-06	-3.312617e-06	-1.124169e-09	-2.313095e+01	-7.565858e+01
1.090000e-06	-3.275177e-06	-1.107798e-09	-2.286951e+01	-7.511901e+01
1.100000e-06	-3.237558e-06	-1.100939e-09	-2.260683e+01	-7.457561e+01
1.110000e-06	-3.199702e-06	-1.100724e-09	-2.234250e+01	-7.402830e+01
1.120000e-06	-3.161613e-06	-1.089674e-09	-2.207653e+01	-7.347695e+01
1.130000e-06	-3.123244e-06	-1.082449e-09	-2.180861e+01	-7.292146e+01
1.140000e-06	-3.084666e-06	-1.077396e-09	-2.153924e+01	-7.236167e+01
1.150000e-06	-3.045944e-06	-1.065219e-09	-2.126885e+01	-7.179744e+01
1.160000e-06	-3.007042e-06	-1.047767e-09	-2.099722e+01	-7.122861e+01
1.170000e-06	-2.968013e-06	-1.040106e-09	-2.072469e+01	-7.065502e+01
1.180000e-06	-2.928809e-06	-1.031878e-09	-2.045094e+01	-7.007649e+01
1.190000e-06	-2.889401e-06	-1.025436e-09	-2.017576e+01	-6.949284e+01
1.200000e-06	-2.849914e-06	-1.018345e-09	-1.990004e+01	-6.890390e+01
1.210000e-06	-2.810294e-06	-1.010874e-09	-1.962338e+01	-6.830946e+01
1.220000e-06	-2.770490e-06	-9.960449e-10	-1.934545e+01	-6.770934e+01
1.230000e-06	-2.730519e-06	-9.841653e-10	-1.906634e+01	-6.710334e+01
1.240000e-06	-2.690373e-06	-9.717726e-10	-1.878601e+01	-6.649128e+01
1.250000e-06	-2.649986e-06	-9.612515e-10	-1.850400e+01	-6.587295e+01
1.260000e-06	-2.609388e-06	-9.517223e-10	-1.822053e+01	-6.524817e+01
1.270000e-06	-2.568647e-06	-9.435278e-10	-1.793604e+01	-6.461673e+01
1.280000e-06	-2.527600e-06	-9.356639e-10	-1.764943e+01	-6.397846e+01
1.290000e-06	-2.486152e-06	-9.252424e-10	-1.736000e+01	-6.333317e+01
1.300000e-06	-2.444425e-06	-9.127361e-10	-1.706864e+01	-6.268065e+01
1.310000e-06	-2.402443e-06	-9.007761e-10	-1.677549e+01	-6.202074e+01
1.320000e-06	-2.360061e-06	-8.889895e-10	-1.647955e+01	-6.135324e+01
1.330000e-06	-2.317335e-06	-8.775021e-10	-1.618121e+01	-6.067798e+01
1.340000e-06	-2.274345e-06	-8.681942e-10	-1.588103e+01	-5.999477e+01
1.350000e-06	-2.231203e-06	-8.598604e-10	-1.557978e+01	-5.930344e+01
1.360000e-06	-2.188022e-06	-8.495172e-10	-1.527826e+01	-5.860380e+01
1.370000e-06	-2.144758e-06	-8.388623e-10	-1.497616e+01	-5.789567e+01
1.380000e-06	-2.101399e-06	-8.296996e-10	-1.467340e+01	-5.717888e+01
1.390000e-06	-2.057932e-06	-8.178407e-10	-1.436989e+01	-5.645323e+01
1.400000e-06	-2.014392e-06	-8.040807e-10	-1.406586e+01	-5.571854e+01
1.410000e-06	-1.970757e-06	-7.907502e-10	-1.376117e+01	-5.497462e+01
1.420000e-06	-1.927021e-06	-7.794219e-10	-1.345577e+01	-5.422127e+01
1.430000e-06	-1.883261e-06	-7.687245e-10	-1.315021e+01	-5.345828e+01
1.440000e-06	-1.839412e-06	-7.596994e-10	-1.284402e+01	-5.268544e+01
1.450000e-06	-1.795441e-06	-7.469966e-10	-1.253699e+01	-5.190255e+01
1.460000e-06	-1.751326e-06	-7.322376e-10	-1.222895e+01	-5.110936e+01
1.470000e-06	-1.707029e-06	-7.160460e-10	-1.191964e+01	-5.030564e+01
1.480000e-06	-1.662589e-06	-6.996864e-10	-1.160933e+01	-4.949116e+01
1.490000e-06	-1.617993e-06	-6.846979e-10	-1.129793e+01	-4.866564e+01
1.500000e-06	-1.573267e-06	-6.737940e-10	-1.098562e+01	-4.782883e+01
1.510000e-06	-1.528450e-06	-6.655470e-10	-1.067268e+01	-4.698045e+01
1.520000e-06	-1.483491e-06	-6.568385e-10	-1.035875e+01	-4.612022e+01
1.530000e-06	-1.438420e-06	-6.426601e-10	-1.004402e+01	-4.524784e+01
1.540000e-06	-1.393292e-06	-6.237956e-10	-9.728916e+00	-4.436299e+01
1.550000e-06	-1.348066e-06	-6.034792e-10	-9.413116e+00	-4.346538e+01
1.560000e-06	-1.302724e-06	-5.852335e-10	-9.096505e+00	-4.255469e+01
1.570000e-06	-1.257245e-06	-5.666153e-10	-8.778937e+00	-4.163057e+01
1.580000e-06	-1.211702e-06	-5.512362e-10	-8.460928e+00	-4.069271e+01
1.590000e-06	-1.166086e-06	-5.391750e-10	-8.142408e+00	-3.974078e+01
1.600000e-06	-1.120406e-06	-5.260716e-10	-7.823436e+00	-3.877443e+01
1.610000e-06	-1.074701e-06	-5.079722e-10	-7.504293e+00	-3.779334e+01
1.620000e-06	-1.028898e-06	-4.898542e-10	-7.184463e+00	-3.679718e+01
1.630000e-06	-9.830321e-07	-4.750544e-10	-6.864200e+00	-3.578564e+01
1.640000e-06	-9.371424e-07	-4.606425e-10	-6.543766e+00	-3.475839e+01
1.650000e-06	-8.911923e-07	-4.460588e-10	-6.222911e+00	-3.371515e+01
1.660000e-06	-8.451830e-07	-4.312915e-10	-5.901643e+00	-3.265563e+01
1.670000e-06	-7.990479e-07	-4.136380e-10	-5.579497e+00	-3.157957e+01
1.680000e-06	-7.527345e-07	-3.933112e-10	-5.256104e+00	-3.048672e+01
1.690000e-06	-7.064395e-07	-3.748244e-10	-4.932841e+00	-2.937687e+01
1.700000e-06	-6.602078e-07	-3.566374e-10	-4.610020e+00	-2.824984e+01
1.710000e-06	-6.139250e-07	-3.386933e-10	-4.286842e+00	-2.710546e+01
1.720000e-06	-5.675951e-07	-3.204530e-10	-3.963336e+00	-2.594363e+01
1.730000e-06	-5.212360e-07	-3.009621e-10	-3.639625e+00	-2.476426e+01
1.740000e-06	-4.748319e-07	-2.797810e-10	-3.315599e+00	-2.356730e+01
1.750000e-06	-4.283601e-07	-2.610673e-10	-2.991102e+00	-2.235277e+01
1.760000e-06	-3.818961e-07	-2.450486e-10	-2.666659e+00	-2.112072e+01
1.770000e-06	-3.353608e-07	-2.295685e-10	-2.341717e+00	-1.987126e+01
1.780000e-06	-2.886813e-07	-2.132297e-10	-2.015769e+00	-1.860454e+01
1.790000e-06	-2.420555e-07	-1.960111e-10	-1.690196e+00	-1.732076e+01
1.800000e-06	-1.955227e-07	-1.767033e-10	-1.365272e+00	-1.602021e+01
1.810000e-06	-1.489729e-07	-1.570246e-10	-1.040230e+00	-1.470319e+01
1.820000e-06	-1.023690e-07	-1.395366e-10	-7.148097e-01	-1.337010e+01
1.830000e-06	-5.579845e-08	-1.258085e-10	-3.896228e-01	-1.202138e+01
1.840000e-06	-9.275311e-09	-1.102244e-10	-6.476654e-02	-1.065754e+01
1.850000e-06	3.723029e-08	-9.069089e-11	2.599672e-01	-9.279123e+00
1.860000e-06	8.373682e-08	-7.115236e-11	5.847075e-01	-7.886769e+00
1.870000e-06	1.302142e-07	-5.077531e-11	9.092444e-01	-6.481155e+00
1.880000e-06	1.767507e-07	-2.874374e-11	1.234194e+00	-5.063020e+00
1.890000e-06	2.234147e-07	-7.575269e-12	1.560034e+00	-3.633159e+00
1.900000e-06	2.700431e-07	1.320958e-11	1.885625e+00	-2.192421e+00
1.910000e-06	3.165634e-07	3.466321e-11	2.210461e+00	-7.417060e-01
1.920000e-06	3.630112e-07	5.531711e-11	2.534791e+00	7.180371e-01
1.930000e-06	4.095764e-07	7.447578e-11	2.859941e+00	2.185814e+00
1.940000e-06	4.561840e-07	9.481841e-11	3.185388e+00	3.660589e+00
1.950000e-06	5.025939e-07	1.156224e-10	3.509453e+00	5.141289e+00
1.960000e-06	5.488592e-07	1.370453e-10	3.832509e+00	6.626806e+00
1.970000e-06	5.951501e-07	1.579384e-10	4.155743e+00	8.116003e+00
1.980000e-06	6.414185e-07	1.774734e-10	4.478821e+00	9.607719e+00
1.990000e-06	6.875884e-07	1.985428e-10	4.801210e+00	1.110077e+01
2.000000e-06	7.337141e-07	2.186050e-10	5.123291e+00	1.259397e+01
2.010000e-06	7.797924e-07	2.402453e-10	5.445041e+00	1.408611e+01
2.020000e-06	8.258545e-07	2.624624e-10	5.766678e+00	1.557597e+01
2.030000e-06	8.719320e-07	2.859790e-10	6.088423e+00	1.706236e+01
2.040000e-06	9.179135e-07	3.080630e-10	6.409497e+00	1.854407e+01
2.050000e-06	9.638252e-07	3.285676e-10	6.730084e+00	2.001991e+01
2.060000e-06	1.009726e-06	3.484946e-10	7.050593e+00	2.148872e+01
2.070000e-06	1.055525e-06	3.694749e-10	7.370396e+00	2.294934e+01
2.080000e-06	1.101190e-06	3.918250e-10	7.689261e+00	2.440065e+01
2.090000e-06	1.146727e-06	4.135333e-10	8.007230e+00	2.584157e+01
2.100000e-06	1.192260e-06	4.356159e-10	8.325174e+00	2.727104e+01
2.110000e-06	1.237837e-06	4.572059e-10	8.643418e+00	2.868806e+01
2.120000e-06	1.283353e-06	4.775764e-10	8.961242e+00	3.009166e+01
2.130000e-06	1.328690e-06	4.963876e-10	9.277820e+00	3.148093e+01
2.140000e-06	1.373826e-06	5.142572e-10	9.592990e+00	3.285501e+01
2.150000e-06	1.418833e-06	5.325488e-10	9.907255e+00	3.421309e+01
2.160000e-06	1.463749e-06	5.520399e-10	1.022089e+01	3.555442e+01
2.170000e-06	1.508564e-06	5.715149e-10	1.053382e+01	3.687833e+01
2.180000e-06	1.553312e-06	5.939212e-10	1.084628e+01	3.818418e+01
2.190000e-06	1.597946e-06	6.154375e-10	1.115795e+01	3.947142e+01
2.200000e-06	1.642385e-06	6.353028e-10	1.146825e+01	4.073956e+01
2.210000e-06	1.686649e-06	6.537082e-10	1.177733e+01	4.198817e+01
2.220000e-06	1.730795e-06	6.689638e-10	1.208559e+01	4.321688e+01
2.230000e-06	1.774880e-06	6.828509e-10	1.239342e+01	4.442542e+01
2.240000e-06	1.818869e-06	6.951187e-10	1.270058e+01	4.561353e+01
2.250000e-06	1.862803e-06	7.104026e-10	1.300736e+01	4.678107e+01
2.260000e-06	1.906694e-06	7.267509e-10	1.331384e+01	4.792792e+01
2.270000e-06	1.950470e-06	7.457746e-10	1.361951e+01	4.905404e+01
2.280000e-06	1.994188e-06	7.655074e-10	1.392478e+01	5.015945e+01
2.290000e-06	2.037826e-06	7.829004e-10	1.422949e+01	5.124423e+01
2.300000e-06	2.081344e-06	7.959713e-10	1.453336e+01	5.230850e+01
2.310000e-06	2.124832e-06	8.067278e-10	1.483703e+01	5.335242e+01
2.320000e-06	2.168244e-06	8.196370e-10	1.514015e+01	5.437624e+01
2.330000e-06	2.211473e-06	8.336351e-10	1.544201e+01	5.538021e+01
2.340000e-06	2.254558e-06	8.500742e-10	1.574286e+01	5.636464e+01
2.350000e-06	2.297381e-06	8.691098e-10	1.604188e+01	5.732988e+01
2.360000e-06	2.339973e-06	8.888740e-10	1.633929e+01	5.827629e+01
2.370000e-06	2.382286e-06	9.030204e-10	1.663475e+01	5.920429e+01
2.380000e-06	2.424315e-06	9.110045e-10	1.692822e+01	6.011429e+01
2.390000e-06	2.466062e-06	9.176200e-10	1.721972e+01	6.100675e+01
2.400000e-06	2.507367e-06	9.269871e-10	1.750814e+01	6.188213e+01
2.410000e-06	2.548312e-06	9.390960e-10	1.779405e+01	6.274091e+01
2.420000e-06	2.588995e-06	9.543531e-10	1.807813e+01	6.358357e+01
2.430000e-06	2.629521e-06	9.711093e-10	1.836111e+01	6.441061e+01
2.440000e-06	2.669879e-06	9.851965e-10	1.864291e+01	6.522252e+01
2.450000e-06	2.710059e-06	9.936491e-10	1.892348e+01	6.601979e+01
2.460000e-06	2.750066e-06	1.001024e-09	1.920283e+01	6.680291e+01
2.470000e-06	2.789886e-06	1.010551e-09	1.948088e+01	6.757236e+01
2.480000e-06	2.829575e-06	1.020821e-09	1.975802e+01	6.832860e+01
2.490000e-06	2.869098e-06	1.031545e-09	2.003399e+01	6.907211e+01
2.500000e-06	2.908512e-06	1.044332e-09	2.030921e+01	6.980331e+01
2.510000e-06	2.947834e-06	1.061172e-09	2.058379e+01	7.052265e+01
2.520000e-06	2.986955e-06	1.078319e-09	2.085695e+01	7.123052e+01
2.530000e-06	3.025824e-06	1.089588e-09	2.112836e+01	7.192732e+01
2.540000e-06	3.064458e-06	1.096001e-09	2.139813e+01	7.261342e+01
2.550000e-06	3.102895e-06	1.099239e-09	2.166652e+01	7.328917e+01
2.560000e-06	3.141149e-06	1.103150e-09	2.193364e+01	7.395490e+01
2.570000e-06	3.179213e-06	1.110817e-09	2.219943e+01	7.461091e+01
2.580000e-06	3.217061e-06	1.123211e-09	2.246371e+01	7.525749e+01
2.590000e-06	3.254709e-06	1.138986e-09	2.272659e+01	7.589490e+01
2.600000e-06	3.292117e-06	1.153412e-09	2.298780e+01	7.652339e+01
2.610000e-06	3.329271e-06	1.163136e-09	2.324723e+01	7.714317e+01
2.620000e-06	3.366185e-06	1.166500e-09	2.350500e+01	7.775445e+01
2.630000e-06	3.402871e-06	1.166665e-09	2.376116e+01	7.835741e+01
2.640000e-06	3.439316e-06	1.168905e-09	2.401565e+01	7.895222e+01
2.650000e-06	3.475508e-06	1.176481e-09	2.426837e+01	7.953902e+01
2.660000e-06	3.511492e-06	1.187550e-09	2.451963e+01	8.011794e+01
2.670000e-06	3.547324e-06	1.197876e-09	2.476983e+01	8.068910e+01
2.680000e-06	3.583002e-06	1.207177e-09	2.501896e+01	8.125260e+01
2.690000e-06	3.618502e-06	1.217538e-09	2.526684e+01	8.180855e+01
2.700000e-06	3.653820e-06	1.227075e-09	2.551346e+01	8.235701e+01
2.710000e-06	3.688882e-06	1.232915e-09	2.575829e+01	8.289806e+01
2.720000e-06	3.723699e-06	1.236645e-09	2.600140e+01	8.343177e+01
2.730000e-06	3.758290e-06	1.239943e-09	2.624294e+01	8.395819e+01
2.740000e-06	3.792516e-06	1.244726e-09	2.648193e+01	8.447737e+01
2.750000e-06	3.826210e-06	1.252417e-09	2.671720e+01	8.498937e+01
2.760000e-06	3.859365e-06	1.261495e-09	2.694872e+01	8.549421e+01
2.770000e-06	3.892111e-06	1.269795e-09	2.717737e+01	8.599196e+01
2.780000e-06	3.924504e-06	1.275373e-09	2.740356e+01	8.648264e+01
2.790000e-06	3.956596e-06	1.281626e-09	2.762765e+01	8.696629e+01
2.800000e-06	3.988452e-06	1.287677e-09	2.785009e+01	8.744295e+01
2.810000e-06	4.020097e-06	1.295259e-09	2.807105e+01	8.791265e+01
2.820000e-06	4.051610e-06	1.302728e-09	2.829110e+01	8.837543e+01
2.830000e-06	4.083015e-06	1.310326e-09	2.851039e+01	8.883134e+01
2.840000e-06	4.114295e-06	1.318793e-09	2.872881e+01	8.928040e+01
2.850000e-06	4.145255e-06	1.328542e-09	2.894499e+01	8.972265e+01
2.860000e-06	4.175829e-06	1.335479e-09	2.915848e+01	9.015813e+01
2.870000e-06	4.206106e-06	1.337474e-09	2.936990e+01	9.058689e+01
2.880000e-06	4.236024e-06	1.339578e-09	2.957880e+01	9.100895e+01
2.890000e-06	4.265658e-06	1.344090e-09	2.978573e+01	9.142436e+01
2.900000e-06	4.294990e-06	1.350719e-09	2.999054e+01	9.183315e+01
2.910000e-06	4.324017e-06	1.361089e-09	3.019323e+01	9.223537e+01
