# Temperatura_=_-0.7
# Concentracion g/m^3_=_1620.0
# C_Vs_to_Am_M_A/Vsm_=_65563218390.804596
# pendiente_HvsI_1/m_=_3716.3
# ordenada_HvsI_A/m_=_1297.0
# frecuencia_Hz_=_135099.5601229987

Tiempo_(s)	Campo_(V.s)	Magnetizacion_(V.s)	Campo_(kA/m)	Magnetizacion_(A/m)
0.000000e+00	-5.506889e-06	-1.291076e-09	-3.836524e+01	-8.582770e+01
1.000000e-08	-5.507122e-06	-1.287340e-09	-3.836687e+01	-8.578459e+01
2.000000e-08	-5.507195e-06	-1.287940e-09	-3.836737e+01	-8.574079e+01
3.000000e-08	-5.506999e-06	-1.292572e-09	-3.836601e+01	-8.569615e+01
4.000000e-08	-5.506277e-06	-1.293841e-09	-3.836098e+01	-8.565051e+01
5.000000e-08	-5.505046e-06	-1.284273e-09	-3.835240e+01	-8.560368e+01
6.000000e-08	-5.503348e-06	-1.268800e-09	-3.834057e+01	-8.555549e+01
7.000000e-08	-5.501023e-06	-1.274626e-09	-3.832438e+01	-8.550573e+01
8.000000e-08	-5.498104e-06	-1.328428e-09	-3.830404e+01	-8.545422e+01
9.000000e-08	-5.494657e-06	-1.371651e-09	-3.828003e+01	-8.540075e+01
1.000000e-07	-5.490766e-06	-1.347473e-09	-3.825292e+01	-8.534511e+01
1.100000e-07	-5.486588e-06	-1.288159e-09	-3.822381e+01	-8.528709e+01
1.200000e-07	-5.482233e-06	-1.278404e-09	-3.819347e+01	-8.522649e+01
1.300000e-07	-5.477586e-06	-1.286145e-09	-3.816110e+01	-8.516312e+01
1.400000e-07	-5.472555e-06	-1.297280e-09	-3.812605e+01	-8.509676e+01
1.500000e-07	-5.467076e-06	-1.255673e-09	-3.808787e+01	-8.502722e+01
1.600000e-07	-5.461152e-06	-1.270428e-09	-3.804660e+01	-8.495433e+01
1.700000e-07	-5.454842e-06	-1.296613e-09	-3.800264e+01	-8.487790e+01
1.800000e-07	-5.448155e-06	-1.349528e-09	-3.795606e+01	-8.479777e+01
1.900000e-07	-5.441138e-06	-1.317336e-09	-3.790717e+01	-8.471378e+01
2.000000e-07	-5.433805e-06	-1.269252e-09	-3.785608e+01	-8.462579e+01
2.100000e-07	-5.426152e-06	-1.255941e-09	-3.780277e+01	-8.453366e+01
2.200000e-07	-5.418256e-06	-1.312487e-09	-3.774776e+01	-8.443728e+01
2.300000e-07	-5.410133e-06	-1.338273e-09	-3.769117e+01	-8.433655e+01
2.400000e-07	-5.401687e-06	-1.315079e-09	-3.763232e+01	-8.423137e+01
2.500000e-07	-5.392689e-06	-1.309758e-09	-3.756964e+01	-8.412166e+01
2.600000e-07	-5.382999e-06	-1.311786e-09	-3.750213e+01	-8.400737e+01
2.700000e-07	-5.372678e-06	-1.291644e-09	-3.743022e+01	-8.388846e+01
2.800000e-07	-5.361812e-06	-1.243210e-09	-3.735452e+01	-8.376488e+01
2.900000e-07	-5.350479e-06	-1.270558e-09	-3.727557e+01	-8.363663e+01
3.000000e-07	-5.338759e-06	-1.286254e-09	-3.719392e+01	-8.350369e+01
3.100000e-07	-5.326685e-06	-1.275860e-09	-3.710981e+01	-8.336609e+01
3.200000e-07	-5.314197e-06	-1.243491e-09	-3.702280e+01	-8.322384e+01
3.300000e-07	-5.301243e-06	-1.284687e-09	-3.693255e+01	-8.307697e+01
3.400000e-07	-5.287926e-06	-1.272429e-09	-3.683978e+01	-8.292554e+01
3.500000e-07	-5.274233e-06	-1.252218e-09	-3.674438e+01	-8.276959e+01
3.600000e-07	-5.260145e-06	-1.238224e-09	-3.664623e+01	-8.260921e+01
3.700000e-07	-5.245612e-06	-1.263438e-09	-3.654499e+01	-8.244446e+01
3.800000e-07	-5.230454e-06	-1.242379e-09	-3.643938e+01	-8.227542e+01
3.900000e-07	-5.214737e-06	-1.259827e-09	-3.632988e+01	-8.210220e+01
4.000000e-07	-5.198688e-06	-1.268551e-09	-3.621808e+01	-8.192488e+01
4.100000e-07	-5.182243e-06	-1.239967e-09	-3.610350e+01	-8.174356e+01
4.200000e-07	-5.165303e-06	-1.213247e-09	-3.598549e+01	-8.155836e+01
4.300000e-07	-5.148174e-06	-1.251910e-09	-3.586616e+01	-8.136939e+01
4.400000e-07	-5.130827e-06	-1.252251e-09	-3.574530e+01	-8.117675e+01
4.500000e-07	-5.113009e-06	-1.219484e-09	-3.562117e+01	-8.098056e+01
4.600000e-07	-5.094709e-06	-1.235132e-09	-3.549368e+01	-8.078093e+01
4.700000e-07	-5.076009e-06	-1.249639e-09	-3.536340e+01	-8.057798e+01
4.800000e-07	-5.056951e-06	-1.215502e-09	-3.523063e+01	-8.037183e+01
4.900000e-07	-5.037577e-06	-1.219257e-09	-3.509565e+01	-8.016258e+01
5.000000e-07	-5.017968e-06	-1.257779e-09	-3.495904e+01	-7.995034e+01
5.100000e-07	-4.998153e-06	-1.223959e-09	-3.482099e+01	-7.973523e+01
5.200000e-07	-4.978099e-06	-1.194944e-09	-3.468128e+01	-7.951734e+01
5.300000e-07	-4.957764e-06	-1.228891e-09	-3.453961e+01	-7.929679e+01
5.400000e-07	-4.937056e-06	-1.239139e-09	-3.439534e+01	-7.907365e+01
5.500000e-07	-4.915972e-06	-1.197922e-09	-3.424846e+01	-7.884803e+01
5.600000e-07	-4.894556e-06	-1.205892e-09	-3.409926e+01	-7.862002e+01
5.700000e-07	-4.872800e-06	-1.213492e-09	-3.394769e+01	-7.838969e+01
5.800000e-07	-4.850697e-06	-1.197442e-09	-3.379370e+01	-7.815712e+01
5.900000e-07	-4.828291e-06	-1.200206e-09	-3.363760e+01	-7.792239e+01
6.000000e-07	-4.805613e-06	-1.223981e-09	-3.347961e+01	-7.768556e+01
6.100000e-07	-4.782546e-06	-1.198483e-09	-3.331891e+01	-7.744668e+01
6.200000e-07	-4.759072e-06	-1.183403e-09	-3.315537e+01	-7.720581e+01
6.300000e-07	-4.735330e-06	-1.188702e-09	-3.298997e+01	-7.696300e+01
6.400000e-07	-4.711407e-06	-1.182884e-09	-3.282330e+01	-7.671829e+01
6.500000e-07	-4.687208e-06	-1.165158e-09	-3.265471e+01	-7.647171e+01
6.600000e-07	-4.662603e-06	-1.180772e-09	-3.248329e+01	-7.622329e+01
6.700000e-07	-4.637668e-06	-1.184093e-09	-3.230958e+01	-7.597305e+01
6.800000e-07	-4.612347e-06	-1.173437e-09	-3.213317e+01	-7.572100e+01
6.900000e-07	-4.586364e-06	-1.168558e-09	-3.195216e+01	-7.546716e+01
7.000000e-07	-4.559807e-06	-1.173050e-09	-3.176714e+01	-7.521151e+01
7.100000e-07	-4.532812e-06	-1.155577e-09	-3.157907e+01	-7.495405e+01
7.200000e-07	-4.505394e-06	-1.145030e-09	-3.138806e+01	-7.469477e+01
7.300000e-07	-4.477784e-06	-1.146556e-09	-3.119570e+01	-7.443365e+01
7.400000e-07	-4.450024e-06	-1.145731e-09	-3.100230e+01	-7.417065e+01
7.500000e-07	-4.422051e-06	-1.140679e-09	-3.080742e+01	-7.390575e+01
7.600000e-07	-4.393815e-06	-1.143400e-09	-3.061071e+01	-7.363889e+01
7.700000e-07	-4.365301e-06	-1.139577e-09	-3.041206e+01	-7.337002e+01
7.800000e-07	-4.336520e-06	-1.125335e-09	-3.021155e+01	-7.309909e+01
7.900000e-07	-4.307441e-06	-1.121107e-09	-3.000896e+01	-7.282603e+01
8.000000e-07	-4.278051e-06	-1.119844e-09	-2.980421e+01	-7.255076e+01
8.100000e-07	-4.248313e-06	-1.106732e-09	-2.959703e+01	-7.227321e+01
8.200000e-07	-4.218268e-06	-1.095537e-09	-2.938771e+01	-7.199328e+01
8.300000e-07	-4.187990e-06	-1.098668e-09	-2.917678e+01	-7.171088e+01
8.400000e-07	-4.157487e-06	-1.092959e-09	-2.896427e+01	-7.142591e+01
8.500000e-07	-4.126631e-06	-1.086269e-09	-2.874930e+01	-7.113825e+01
8.600000e-07	-4.095451e-06	-1.082910e-09	-2.853207e+01	-7.084779e+01
8.700000e-07	-4.064053e-06	-1.079256e-09	-2.831333e+01	-7.055441e+01
8.800000e-07	-4.032459e-06	-1.065780e-09	-2.809323e+01	-7.025798e+01
8.900000e-07	-4.000744e-06	-1.063991e-09	-2.787227e+01	-6.995837e+01
9.000000e-07	-3.968880e-06	-1.058232e-09	-2.765028e+01	-6.965544e+01
9.100000e-07	-3.936774e-06	-1.047337e-09	-2.742661e+01	-6.934905e+01
9.200000e-07	-3.904391e-06	-1.038416e-09	-2.720101e+01	-6.903906e+01
9.300000e-07	-3.871686e-06	-1.038905e-09	-2.697315e+01	-6.872531e+01
9.400000e-07	-3.838532e-06	-1.031412e-09	-2.674218e+01	-6.840767e+01
9.500000e-07	-3.804860e-06	-1.025870e-09	-2.650759e+01	-6.808598e+01
9.600000e-07	-3.770703e-06	-1.021007e-09	-2.626963e+01	-6.776010e+01
9.700000e-07	-3.736157e-06	-1.010419e-09	-2.602895e+01	-6.742988e+01
9.800000e-07	-3.701229e-06	-9.950603e-10	-2.578562e+01	-6.709517e+01
9.900000e-07	-3.665952e-06	-9.920473e-10	-2.553985e+01	-6.675584e+01
1.000000e-06	-3.630395e-06	-9.905517e-10	-2.529214e+01	-6.641174e+01
1.010000e-06	-3.594659e-06	-9.847128e-10	-2.504317e+01	-6.606275e+01
1.020000e-06	-3.558829e-06	-9.814244e-10	-2.479355e+01	-6.570875e+01
1.030000e-06	-3.522892e-06	-9.806070e-10	-2.454319e+01	-6.534961e+01
1.040000e-06	-3.486804e-06	-9.712313e-10	-2.429177e+01	-6.498524e+01
1.050000e-06	-3.450475e-06	-9.606927e-10	-2.403867e+01	-6.461552e+01
1.060000e-06	-3.413904e-06	-9.536040e-10	-2.378389e+01	-6.424039e+01
1.070000e-06	-3.377056e-06	-9.455993e-10	-2.352718e+01	-6.385975e+01
1.080000e-06	-3.339868e-06	-9.384010e-10	-2.326810e+01	-6.347356e+01
1.090000e-06	-3.302453e-06	-9.363964e-10	-2.300744e+01	-6.308175e+01
1.100000e-06	-3.264836e-06	-9.353951e-10	-2.274537e+01	-6.268430e+01
1.110000e-06	-3.226990e-06	-9.261537e-10	-2.248170e+01	-6.228118e+01
1.120000e-06	-3.188959e-06	-9.159134e-10	-2.221675e+01	-6.187238e+01
1.130000e-06	-3.150721e-06	-9.060144e-10	-2.195036e+01	-6.145792e+01
1.140000e-06	-3.112253e-06	-8.955501e-10	-2.168236e+01	-6.103780e+01
1.150000e-06	-3.073534e-06	-8.846392e-10	-2.141261e+01	-6.061207e+01
1.160000e-06	-3.034637e-06	-8.802057e-10	-2.114162e+01	-6.018077e+01
1.170000e-06	-2.995547e-06	-8.742713e-10	-2.086929e+01	-5.974397e+01
1.180000e-06	-2.956199e-06	-8.676079e-10	-2.059517e+01	-5.930173e+01
1.190000e-06	-2.916677e-06	-8.621313e-10	-2.031983e+01	-5.885415e+01
1.200000e-06	-2.877034e-06	-8.561323e-10	-2.004364e+01	-5.840132e+01
1.210000e-06	-2.837276e-06	-8.445952e-10	-1.976665e+01	-5.794334e+01
1.220000e-06	-2.797410e-06	-8.370374e-10	-1.948892e+01	-5.748032e+01
1.230000e-06	-2.757471e-06	-8.299904e-10	-1.921067e+01	-5.701238e+01
1.240000e-06	-2.717412e-06	-8.214892e-10	-1.893159e+01	-5.653964e+01
1.250000e-06	-2.677087e-06	-8.121491e-10	-1.865066e+01	-5.606221e+01
1.260000e-06	-2.636513e-06	-8.054591e-10	-1.836799e+01	-5.558022e+01
1.270000e-06	-2.595777e-06	-7.971337e-10	-1.808419e+01	-5.509377e+01
1.280000e-06	-2.554844e-06	-7.878033e-10	-1.779902e+01	-5.460299e+01
1.290000e-06	-2.513530e-06	-7.816871e-10	-1.751119e+01	-5.410798e+01
1.300000e-06	-2.471902e-06	-7.766556e-10	-1.722118e+01	-5.360881e+01
1.310000e-06	-2.430080e-06	-7.664517e-10	-1.692981e+01	-5.310558e+01
1.320000e-06	-2.387959e-06	-7.562850e-10	-1.663636e+01	-5.259833e+01
1.330000e-06	-2.345596e-06	-7.494275e-10	-1.634123e+01	-5.208712e+01
1.340000e-06	-2.302990e-06	-7.434572e-10	-1.604441e+01	-5.157195e+01
1.350000e-06	-2.260162e-06	-7.357116e-10	-1.574603e+01	-5.105283e+01
1.360000e-06	-2.217071e-06	-7.272153e-10	-1.544583e+01	-5.052972e+01
1.370000e-06	-2.173699e-06	-7.176728e-10	-1.514367e+01	-5.000257e+01
1.380000e-06	-2.130161e-06	-7.096676e-10	-1.484035e+01	-4.947127e+01
1.390000e-06	-2.086472e-06	-7.047579e-10	-1.453598e+01	-4.893570e+01
1.400000e-06	-2.042737e-06	-6.987344e-10	-1.423128e+01	-4.839570e+01
1.410000e-06	-1.998991e-06	-6.891078e-10	-1.392651e+01	-4.785107e+01
1.420000e-06	-1.955169e-06	-6.771868e-10	-1.362122e+01	-4.730158e+01
1.430000e-06	-1.911263e-06	-6.668168e-10	-1.331534e+01	-4.674694e+01
1.440000e-06	-1.867246e-06	-6.563385e-10	-1.300868e+01	-4.618685e+01
1.450000e-06	-1.823127e-06	-6.458150e-10	-1.270131e+01	-4.562093e+01
1.460000e-06	-1.778939e-06	-6.359872e-10	-1.239347e+01	-4.504881e+01
1.470000e-06	-1.734643e-06	-6.250623e-10	-1.208486e+01	-4.447003e+01
1.480000e-06	-1.690234e-06	-6.115061e-10	-1.177547e+01	-4.388412e+01
1.490000e-06	-1.645706e-06	-6.005719e-10	-1.146526e+01	-4.329057e+01
1.500000e-06	-1.600991e-06	-5.927219e-10	-1.115374e+01	-4.268882e+01
1.510000e-06	-1.556171e-06	-5.861940e-10	-1.084149e+01	-4.207828e+01
1.520000e-06	-1.511313e-06	-5.777636e-10	-1.052897e+01	-4.145834e+01
1.530000e-06	-1.466345e-06	-5.691215e-10	-1.021569e+01	-4.082835e+01
1.540000e-06	-1.421159e-06	-5.566862e-10	-9.900888e+00	-4.018761e+01
1.550000e-06	-1.375819e-06	-5.420262e-10	-9.585019e+00	-3.953545e+01
1.560000e-06	-1.330418e-06	-5.273904e-10	-9.268717e+00	-3.887112e+01
1.570000e-06	-1.284909e-06	-5.150149e-10	-8.951670e+00	-3.819389e+01
1.580000e-06	-1.239331e-06	-5.028481e-10	-8.634138e+00	-3.750302e+01
1.590000e-06	-1.193702e-06	-4.932529e-10	-8.316253e+00	-3.679774e+01
1.600000e-06	-1.147948e-06	-4.840979e-10	-7.997495e+00	-3.607730e+01
1.610000e-06	-1.102147e-06	-4.726498e-10	-7.678410e+00	-3.534093e+01
1.620000e-06	-1.056359e-06	-4.592033e-10	-7.359410e+00	-3.458789e+01
1.630000e-06	-1.010409e-06	-4.480257e-10	-7.039287e+00	-3.381744e+01
1.640000e-06	-9.643073e-07	-4.401081e-10	-6.718109e+00	-3.302886e+01
1.650000e-06	-9.182330e-07	-4.301795e-10	-6.397120e+00	-3.222146e+01
1.660000e-06	-8.721288e-07	-4.175029e-10	-6.075923e+00	-3.139457e+01
1.670000e-06	-8.258802e-07	-4.032185e-10	-5.753719e+00	-3.054757e+01
1.680000e-06	-7.795668e-07	-3.887561e-10	-5.431064e+00	-2.967986e+01
1.690000e-06	-7.331400e-07	-3.746575e-10	-5.107619e+00	-2.879091e+01
1.700000e-06	-6.867208e-07	-3.626485e-10	-4.784228e+00	-2.788021e+01
1.710000e-06	-6.403940e-07	-3.517667e-10	-4.461479e+00	-2.694733e+01
1.720000e-06	-5.939473e-07	-3.403900e-10	-4.137895e+00	-2.599190e+01
1.730000e-06	-5.474041e-07	-3.253956e-10	-3.813640e+00	-2.501361e+01
1.740000e-06	-5.007955e-07	-3.072974e-10	-3.488929e+00	-2.401220e+01
1.750000e-06	-4.541744e-07	-2.867177e-10	-3.164130e+00	-2.298751e+01
1.760000e-06	-4.075329e-07	-2.670022e-10	-2.839189e+00	-2.193944e+01
1.770000e-06	-3.608583e-07	-2.517527e-10	-2.514018e+00	-2.086798e+01
1.780000e-06	-3.141475e-07	-2.403101e-10	-2.188594e+00	-1.977318e+01
1.790000e-06	-2.673157e-07	-2.286014e-10	-1.862328e+00	-1.865519e+01
1.800000e-06	-2.205225e-07	-2.143590e-10	-1.536330e+00	-1.751425e+01
1.810000e-06	-1.738220e-07	-1.958409e-10	-1.210978e+00	-1.635065e+01
1.820000e-06	-1.271608e-07	-1.766380e-10	-8.859006e-01	-1.516481e+01
1.830000e-06	-8.055795e-08	-1.598961e-10	-5.612289e-01	-1.395719e+01
1.840000e-06	-3.394543e-08	-1.447377e-10	-2.364901e-01	-1.272838e+01
1.850000e-06	1.282195e-08	-1.299288e-10	8.932762e-02	-1.147900e+01
1.860000e-06	5.962432e-08	-1.149875e-10	4.153891e-01	-1.020980e+01
1.870000e-06	1.062369e-07	-9.939229e-11	7.401284e-01	-8.921577e+00
1.880000e-06	1.528421e-07	-8.181161e-11	1.064816e+00	-7.615208e+00
1.890000e-06	1.995416e-07	-6.143103e-11	1.390161e+00	-6.291648e+00
1.900000e-06	2.461939e-07	-4.142812e-11	1.715177e+00	-4.951914e+00
1.910000e-06	2.928633e-07	-2.338597e-11	2.040312e+00	-3.597088e+00
1.920000e-06	3.395597e-07	-6.514225e-12	2.365635e+00	-2.228310e+00
1.930000e-06	3.861503e-07	8.906242e-12	2.690222e+00	-8.467737e-01
1.940000e-06	4.327049e-07	2.437806e-11	3.014556e+00	5.462804e-01
1.950000e-06	4.792630e-07	4.234249e-11	3.338916e+00	1.949569e+00
1.960000e-06	5.257566e-07	6.185921e-11	3.662827e+00	3.361774e+00
1.970000e-06	5.722124e-07	8.151272e-11	3.986474e+00	4.781546e+00
1.980000e-06	6.186494e-07	1.000471e-10	4.309990e+00	6.207513e+00
1.990000e-06	6.650319e-07	1.178828e-10	4.633126e+00	7.638286e+00
2.000000e-06	7.112871e-07	1.360254e-10	4.955376e+00	9.072465e+00
2.010000e-06	7.574448e-07	1.530594e-10	5.276946e+00	1.050865e+01
2.020000e-06	8.035603e-07	1.717864e-10	5.598222e+00	1.194543e+01
2.030000e-06	8.496230e-07	1.933498e-10	5.919130e+00	1.338142e+01
2.040000e-06	8.956565e-07	2.145723e-10	6.239835e+00	1.481524e+01
2.050000e-06	9.416821e-07	2.335429e-10	6.560485e+00	1.624554e+01
2.060000e-06	9.875980e-07	2.528511e-10	6.880370e+00	1.767098e+01
2.070000e-06	1.033488e-06	2.727378e-10	7.200076e+00	1.909027e+01
2.080000e-06	1.079395e-06	2.931885e-10	7.519903e+00	2.050215e+01
2.090000e-06	1.125285e-06	3.141475e-10	7.839608e+00	2.190540e+01
2.100000e-06	1.171093e-06	3.359023e-10	8.158738e+00	2.329885e+01
2.110000e-06	1.216694e-06	3.567805e-10	8.476433e+00	2.468138e+01
2.120000e-06	1.262133e-06	3.748739e-10	8.792990e+00	2.605193e+01
2.130000e-06	1.307402e-06	3.920565e-10	9.108372e+00	2.740949e+01
2.140000e-06	1.352582e-06	4.102862e-10	9.423128e+00	2.875311e+01
2.150000e-06	1.397718e-06	4.307008e-10	9.737582e+00	3.008192e+01
2.160000e-06	1.442799e-06	4.518386e-10	1.005165e+01	3.139509e+01
2.170000e-06	1.487797e-06	4.711465e-10	1.036514e+01	3.269188e+01
2.180000e-06	1.532710e-06	4.900225e-10	1.067804e+01	3.397159e+01
2.190000e-06	1.577505e-06	5.102706e-10	1.099012e+01	3.523361e+01
2.200000e-06	1.622124e-06	5.288727e-10	1.130097e+01	3.647740e+01
2.210000e-06	1.666631e-06	5.447568e-10	1.161104e+01	3.770245e+01
2.220000e-06	1.711018e-06	5.604172e-10	1.192027e+01	3.890836e+01
2.230000e-06	1.755248e-06	5.771144e-10	1.222841e+01	4.009477e+01
2.240000e-06	1.799317e-06	5.934071e-10	1.253544e+01	4.126139e+01
2.250000e-06	1.843282e-06	6.087886e-10	1.284173e+01	4.240798e+01
2.260000e-06	1.887226e-06	6.247676e-10	1.314788e+01	4.353437e+01
2.270000e-06	1.931135e-06	6.400839e-10	1.345378e+01	4.464044e+01
2.280000e-06	1.974989e-06	6.585907e-10	1.375930e+01	4.572612e+01
2.290000e-06	2.018739e-06	6.771720e-10	1.406410e+01	4.679138e+01
2.300000e-06	2.062414e-06	6.923469e-10	1.436837e+01	4.783625e+01
2.310000e-06	2.106073e-06	7.051075e-10	1.467253e+01	4.886080e+01
2.320000e-06	2.149641e-06	7.177491e-10	1.497606e+01	4.986512e+01
2.330000e-06	2.193090e-06	7.314491e-10	1.527876e+01	5.084935e+01
2.340000e-06	2.236446e-06	7.460375e-10	1.558081e+01	5.181366e+01
2.350000e-06	2.279559e-06	7.638660e-10	1.588117e+01	5.275824e+01
2.360000e-06	2.322359e-06	7.835976e-10	1.617935e+01	5.368330e+01
2.370000e-06	2.364787e-06	8.019236e-10	1.647493e+01	5.458907e+01
2.380000e-06	2.406868e-06	8.151641e-10	1.676810e+01	5.547580e+01
2.390000e-06	2.448706e-06	8.253074e-10	1.705958e+01	5.634375e+01
2.400000e-06	2.490240e-06	8.342894e-10	1.734894e+01	5.719319e+01
2.410000e-06	2.531518e-06	8.423992e-10	1.763651e+01	5.802439e+01
2.420000e-06	2.572586e-06	8.519123e-10	1.792262e+01	5.883762e+01
2.430000e-06	2.613321e-06	8.651094e-10	1.820641e+01	5.963316e+01
2.440000e-06	2.653761e-06	8.815036e-10	1.848815e+01	6.041129e+01
2.450000e-06	2.694058e-06	8.963651e-10	1.876889e+01	6.117227e+01
2.460000e-06	2.734226e-06	9.073141e-10	1.904873e+01	6.191636e+01
2.470000e-06	2.774249e-06	9.190030e-10	1.932756e+01	6.264383e+01
2.480000e-06	2.814147e-06	9.305069e-10	1.960552e+01	6.335493e+01
2.490000e-06	2.853931e-06	9.400262e-10	1.988268e+01	6.404989e+01
2.500000e-06	2.893606e-06	9.470347e-10	2.015909e+01	6.472894e+01
2.510000e-06	2.933190e-06	9.535613e-10	2.043487e+01	6.539230e+01
2.520000e-06	2.972596e-06	9.626802e-10	2.070940e+01	6.604020e+01
2.530000e-06	3.011706e-06	9.742149e-10	2.098187e+01	6.667282e+01
2.540000e-06	3.050565e-06	9.860005e-10	2.125259e+01	6.729036e+01
2.550000e-06	3.089196e-06	9.952521e-10	2.152173e+01	6.789301e+01
2.560000e-06	3.127549e-06	1.002458e-09	2.178892e+01	6.848094e+01
2.570000e-06	3.165727e-06	1.010346e-09	2.205490e+01	6.905434e+01
2.580000e-06	3.203692e-06	1.017740e-09	2.231940e+01	6.961335e+01
2.590000e-06	3.241414e-06	1.024730e-09	2.258219e+01	7.015816e+01
2.600000e-06	3.278998e-06	1.033289e-09	2.284403e+01	7.068892e+01
2.610000e-06	3.316417e-06	1.039471e-09	2.310472e+01	7.120580e+01
2.620000e-06	3.353583e-06	1.045172e-09	2.336365e+01	7.170896e+01
2.630000e-06	3.390427e-06	1.047811e-09	2.362033e+01	7.219856e+01
2.640000e-06	3.427044e-06	1.049799e-09	2.387543e+01	7.267477e+01
2.650000e-06	3.463421e-06	1.056064e-09	2.412886e+01	7.313778e+01
2.660000e-06	3.499532e-06	1.061371e-09	2.438044e+01	7.358776e+01
2.670000e-06	3.535548e-06	1.067759e-09	2.463136e+01	7.402492e+01
2.680000e-06	3.571431e-06	1.074784e-09	2.488135e+01	7.444944e+01
2.690000e-06	3.607126e-06	1.082816e-09	2.513002e+01	7.486154e+01
2.700000e-06	3.642658e-06	1.090189e-09	2.537757e+01	7.526145e+01
2.710000e-06	3.678010e-06	1.096633e-09	2.562386e+01	7.564940e+01
2.720000e-06	3.713158e-06	1.100587e-09	2.586873e+01	7.602565e+01
2.730000e-06	3.747924e-06	1.103668e-09	2.611093e+01	7.639044e+01
2.740000e-06	3.782176e-06	1.108611e-09	2.634956e+01	7.674407e+01
2.750000e-06	3.816109e-06	1.114074e-09	2.658596e+01	7.708680e+01
2.760000e-06	3.849643e-06	1.118811e-09	2.681958e+01	7.741896e+01
2.770000e-06	3.882629e-06	1.123997e-09	2.704939e+01	7.774083e+01
2.780000e-06	3.915261e-06	1.131724e-09	2.727673e+01	7.805276e+01
2.790000e-06	3.947609e-06	1.139394e-09	2.750209e+01	7.835507e+01
2.800000e-06	3.979714e-06	1.144821e-09	2.772576e+01	7.864811e+01
2.810000e-06	4.011640e-06	1.149732e-09	2.794818e+01	7.893222e+01
2.820000e-06	4.043446e-06	1.153627e-09	2.816977e+01	7.920776e+01
2.830000e-06	4.075070e-06	1.157632e-09	2.839009e+01	7.947510e+01
2.840000e-06	4.106456e-06	1.162515e-09	2.860874e+01	7.973458e+01
2.850000e-06	4.137501e-06	1.169043e-09	2.882503e+01	7.998658e+01
2.860000e-06	4.168168e-06	1.177831e-09	2.903868e+01	8.023146e+01
2.870000e-06	4.198553e-06	1.184607e-09	2.925036e+01	8.046958e+01
2.880000e-06	4.228653e-06	1.189563e-09	2.946006e+01	8.070129e+01
2.890000e-06	4.258509e-06	1.191701e-09	2.966806e+01	8.092693e+01
2.900000e-06	4.288117e-06	1.194959e-09	2.987434e+01	8.114684e+01
