# Temperatura_=_-1.1
# Concentracion g/m^3_=_1620.0
# C_Vs_to_Am_M_A/Vsm_=_65563218390.804596
# pendiente_HvsI_1/m_=_3716.3
# ordenada_HvsI_A/m_=_1297.0
# frecuencia_Hz_=_135102.51682346436

Tiempo_(s)	Campo_(V.s)	Magnetizacion_(V.s)	Campo_(kA/m)	Magnetizacion_(A/m)
0.000000e+00	-5.506338e-06	-1.096886e-09	-3.836228e+01	-7.299933e+01
1.000000e-08	-5.506507e-06	-1.098529e-09	-3.836346e+01	-7.299321e+01
2.000000e-08	-5.506433e-06	-1.103384e-09	-3.836294e+01	-7.298659e+01
3.000000e-08	-5.505942e-06	-1.105899e-09	-3.835952e+01	-7.297911e+01
4.000000e-08	-5.504939e-06	-1.099939e-09	-3.835253e+01	-7.297045e+01
5.000000e-08	-5.503343e-06	-1.084162e-09	-3.834141e+01	-7.296024e+01
6.000000e-08	-5.501177e-06	-1.079914e-09	-3.832632e+01	-7.294814e+01
7.000000e-08	-5.498542e-06	-1.118368e-09	-3.830797e+01	-7.293381e+01
8.000000e-08	-5.495328e-06	-1.162691e-09	-3.828557e+01	-7.291690e+01
9.000000e-08	-5.491539e-06	-1.144526e-09	-3.825918e+01	-7.289710e+01
1.000000e-07	-5.487455e-06	-1.089210e-09	-3.823072e+01	-7.287408e+01
1.100000e-07	-5.483168e-06	-1.113536e-09	-3.820086e+01	-7.284754e+01
1.200000e-07	-5.478538e-06	-1.090354e-09	-3.816860e+01	-7.281719e+01
1.300000e-07	-5.473587e-06	-1.074279e-09	-3.813410e+01	-7.278277e+01
1.400000e-07	-5.468378e-06	-1.050419e-09	-3.809782e+01	-7.274403e+01
1.500000e-07	-5.462808e-06	-1.077914e-09	-3.805901e+01	-7.270074e+01
1.600000e-07	-5.456739e-06	-1.099599e-09	-3.801673e+01	-7.265272e+01
1.700000e-07	-5.450191e-06	-1.075950e-09	-3.797111e+01	-7.259978e+01
1.800000e-07	-5.443283e-06	-1.126358e-09	-3.792298e+01	-7.254178e+01
1.900000e-07	-5.436062e-06	-1.132015e-09	-3.787267e+01	-7.247861e+01
2.000000e-07	-5.428554e-06	-1.128636e-09	-3.782036e+01	-7.241018e+01
2.100000e-07	-5.420808e-06	-1.079462e-09	-3.776640e+01	-7.233643e+01
2.200000e-07	-5.412852e-06	-1.102934e-09	-3.771097e+01	-7.225733e+01
2.300000e-07	-5.404603e-06	-1.103159e-09	-3.765350e+01	-7.217289e+01
2.400000e-07	-5.395804e-06	-1.118718e-09	-3.759220e+01	-7.208313e+01
2.500000e-07	-5.386279e-06	-1.094024e-09	-3.752584e+01	-7.198810e+01
2.600000e-07	-5.376082e-06	-1.086380e-09	-3.745479e+01	-7.188790e+01
2.700000e-07	-5.365265e-06	-1.055692e-09	-3.737943e+01	-7.178264e+01
2.800000e-07	-5.353942e-06	-1.058051e-09	-3.730055e+01	-7.167245e+01
2.900000e-07	-5.342307e-06	-1.055721e-09	-3.721949e+01	-7.155749e+01
3.000000e-07	-5.330320e-06	-1.036062e-09	-3.713597e+01	-7.143793e+01
3.100000e-07	-5.317854e-06	-1.027786e-09	-3.704912e+01	-7.131397e+01
3.200000e-07	-5.305011e-06	-1.049149e-09	-3.695965e+01	-7.118584e+01
3.300000e-07	-5.291864e-06	-1.053387e-09	-3.686806e+01	-7.105375e+01
3.400000e-07	-5.278308e-06	-1.026235e-09	-3.677361e+01	-7.091794e+01
3.500000e-07	-5.264264e-06	-1.052526e-09	-3.667577e+01	-7.077867e+01
3.600000e-07	-5.249903e-06	-1.059748e-09	-3.657572e+01	-7.063619e+01
3.700000e-07	-5.235095e-06	-1.020224e-09	-3.647255e+01	-7.049075e+01
3.800000e-07	-5.219610e-06	-1.017977e-09	-3.636467e+01	-7.034263e+01
3.900000e-07	-5.203641e-06	-1.084945e-09	-3.625341e+01	-7.019207e+01
4.000000e-07	-5.187258e-06	-1.044654e-09	-3.613927e+01	-7.003933e+01
4.100000e-07	-5.170439e-06	-9.996416e-10	-3.602209e+01	-6.988466e+01
4.200000e-07	-5.153344e-06	-1.049815e-09	-3.590299e+01	-6.972831e+01
4.300000e-07	-5.136011e-06	-1.081944e-09	-3.578223e+01	-6.957049e+01
4.400000e-07	-5.118248e-06	-9.984917e-10	-3.565848e+01	-6.941142e+01
4.500000e-07	-5.100000e-06	-1.027694e-09	-3.553135e+01	-6.925130e+01
4.600000e-07	-5.081386e-06	-1.088016e-09	-3.540167e+01	-6.909031e+01
4.700000e-07	-5.062437e-06	-1.034889e-09	-3.526965e+01	-6.892862e+01
4.800000e-07	-5.043140e-06	-9.933272e-10	-3.513521e+01	-6.876636e+01
4.900000e-07	-5.023616e-06	-1.077889e-09	-3.499918e+01	-6.860365e+01
5.000000e-07	-5.003873e-06	-1.051299e-09	-3.486164e+01	-6.844060e+01
5.100000e-07	-4.983841e-06	-9.823473e-10	-3.472208e+01	-6.827728e+01
5.200000e-07	-4.963517e-06	-1.034651e-09	-3.458048e+01	-6.811373e+01
5.300000e-07	-4.942892e-06	-1.068366e-09	-3.443679e+01	-6.794998e+01
5.400000e-07	-4.921886e-06	-9.907237e-10	-3.429044e+01	-6.778603e+01
5.500000e-07	-4.900588e-06	-1.015025e-09	-3.414206e+01	-6.762186e+01
5.600000e-07	-4.878976e-06	-1.066417e-09	-3.399149e+01	-6.745742e+01
5.700000e-07	-4.856940e-06	-1.006656e-09	-3.383797e+01	-6.729265e+01
5.800000e-07	-4.834502e-06	-9.885200e-10	-3.368164e+01	-6.712744e+01
5.900000e-07	-4.811717e-06	-1.052297e-09	-3.352290e+01	-6.696169e+01
6.000000e-07	-4.788668e-06	-1.019565e-09	-3.336232e+01	-6.679526e+01
6.100000e-07	-4.765351e-06	-9.718835e-10	-3.319988e+01	-6.662800e+01
6.200000e-07	-4.741794e-06	-1.018755e-09	-3.303575e+01	-6.645974e+01
6.300000e-07	-4.718019e-06	-1.014557e-09	-3.287012e+01	-6.629030e+01
6.400000e-07	-4.693909e-06	-9.688877e-10	-3.270214e+01	-6.611949e+01
6.500000e-07	-4.669432e-06	-9.966427e-10	-3.253161e+01	-6.594708e+01
6.600000e-07	-4.644547e-06	-1.017282e-09	-3.235824e+01	-6.577287e+01
6.700000e-07	-4.619114e-06	-9.730012e-10	-3.218105e+01	-6.559663e+01
6.800000e-07	-4.593068e-06	-9.849741e-10	-3.199959e+01	-6.541813e+01
6.900000e-07	-4.566537e-06	-1.005374e-09	-3.181475e+01	-6.523714e+01
7.000000e-07	-4.539696e-06	-9.740211e-10	-3.162775e+01	-6.505343e+01
7.100000e-07	-4.512525e-06	-9.620785e-10	-3.143845e+01	-6.486677e+01
7.200000e-07	-4.485036e-06	-9.915134e-10	-3.124694e+01	-6.467692e+01
7.300000e-07	-4.457346e-06	-9.673040e-10	-3.105402e+01	-6.448366e+01
7.400000e-07	-4.429491e-06	-9.504330e-10	-3.085996e+01	-6.428679e+01
7.500000e-07	-4.401446e-06	-9.696673e-10	-3.066458e+01	-6.408609e+01
7.600000e-07	-4.373118e-06	-9.678292e-10	-3.046721e+01	-6.388137e+01
7.700000e-07	-4.344426e-06	-9.408418e-10	-3.026732e+01	-6.367245e+01
7.800000e-07	-4.315402e-06	-9.535429e-10	-3.006511e+01	-6.345917e+01
7.900000e-07	-4.286018e-06	-9.536219e-10	-2.986040e+01	-6.324136e+01
8.000000e-07	-4.256350e-06	-9.301190e-10	-2.965370e+01	-6.301889e+01
8.100000e-07	-4.226461e-06	-9.263572e-10	-2.944546e+01	-6.279165e+01
8.200000e-07	-4.196279e-06	-9.363439e-10	-2.923519e+01	-6.255952e+01
8.300000e-07	-4.165827e-06	-9.167049e-10	-2.902303e+01	-6.232244e+01
8.400000e-07	-4.135113e-06	-9.105306e-10	-2.880905e+01	-6.208033e+01
8.500000e-07	-4.104050e-06	-9.197241e-10	-2.859263e+01	-6.183315e+01
8.600000e-07	-4.072701e-06	-9.096344e-10	-2.837423e+01	-6.158088e+01
8.700000e-07	-4.041214e-06	-8.936763e-10	-2.815486e+01	-6.132351e+01
8.800000e-07	-4.009573e-06	-9.000403e-10	-2.793442e+01	-6.106104e+01
8.900000e-07	-3.977704e-06	-8.976781e-10	-2.771239e+01	-6.079351e+01
9.000000e-07	-3.945584e-06	-8.770754e-10	-2.748862e+01	-6.052097e+01
9.100000e-07	-3.913163e-06	-8.763082e-10	-2.726273e+01	-6.024347e+01
9.200000e-07	-3.880315e-06	-8.792731e-10	-2.703389e+01	-5.996110e+01
9.300000e-07	-3.846990e-06	-8.654750e-10	-2.680171e+01	-5.967395e+01
9.400000e-07	-3.813288e-06	-8.578601e-10	-2.656692e+01	-5.938212e+01
9.500000e-07	-3.779277e-06	-8.649609e-10	-2.632996e+01	-5.908573e+01
9.600000e-07	-3.744907e-06	-8.535741e-10	-2.609051e+01	-5.878491e+01
9.700000e-07	-3.710124e-06	-8.431167e-10	-2.584818e+01	-5.847979e+01
9.800000e-07	-3.675050e-06	-8.461063e-10	-2.560382e+01	-5.817052e+01
9.900000e-07	-3.639756e-06	-8.431895e-10	-2.535793e+01	-5.785724e+01
1.000000e-06	-3.604219e-06	-8.275150e-10	-2.511035e+01	-5.754010e+01
1.010000e-06	-3.568512e-06	-8.262983e-10	-2.486157e+01	-5.721927e+01
1.020000e-06	-3.532668e-06	-8.235683e-10	-2.461186e+01	-5.689489e+01
1.030000e-06	-3.496584e-06	-8.128419e-10	-2.436046e+01	-5.656712e+01
1.040000e-06	-3.460246e-06	-8.076084e-10	-2.410729e+01	-5.623611e+01
1.050000e-06	-3.423738e-06	-8.103409e-10	-2.385295e+01	-5.590201e+01
1.060000e-06	-3.387015e-06	-7.997924e-10	-2.359710e+01	-5.556496e+01
1.070000e-06	-3.349961e-06	-7.907765e-10	-2.333895e+01	-5.522510e+01
1.080000e-06	-3.312627e-06	-7.874397e-10	-2.307884e+01	-5.488254e+01
1.090000e-06	-3.275054e-06	-7.816194e-10	-2.281708e+01	-5.453742e+01
1.100000e-06	-3.237217e-06	-7.713343e-10	-2.255347e+01	-5.418982e+01
1.110000e-06	-3.199217e-06	-7.678665e-10	-2.228873e+01	-5.383985e+01
1.120000e-06	-3.161038e-06	-7.642775e-10	-2.202274e+01	-5.348758e+01
1.130000e-06	-3.122588e-06	-7.571738e-10	-2.175486e+01	-5.313308e+01
1.140000e-06	-3.083867e-06	-7.512015e-10	-2.148509e+01	-5.277640e+01
1.150000e-06	-3.044896e-06	-7.467033e-10	-2.121358e+01	-5.241757e+01
1.160000e-06	-3.005775e-06	-7.395359e-10	-2.094103e+01	-5.205661e+01
1.170000e-06	-2.966567e-06	-7.350140e-10	-2.066787e+01	-5.169353e+01
1.180000e-06	-2.927200e-06	-7.329251e-10	-2.039360e+01	-5.132830e+01
1.190000e-06	-2.887647e-06	-7.268289e-10	-2.011804e+01	-5.096088e+01
1.200000e-06	-2.847957e-06	-7.195243e-10	-1.984152e+01	-5.059124e+01
1.210000e-06	-2.808151e-06	-7.152618e-10	-1.956420e+01	-5.021928e+01
1.220000e-06	-2.768199e-06	-7.097164e-10	-1.928585e+01	-4.984494e+01
1.230000e-06	-2.728103e-06	-6.992579e-10	-1.900651e+01	-4.946808e+01
1.240000e-06	-2.687922e-06	-6.933452e-10	-1.872657e+01	-4.908860e+01
1.250000e-06	-2.647545e-06	-6.891836e-10	-1.844526e+01	-4.870633e+01
1.260000e-06	-2.606887e-06	-6.842733e-10	-1.816200e+01	-4.832113e+01
1.270000e-06	-2.566015e-06	-6.794487e-10	-1.787725e+01	-4.793280e+01
1.280000e-06	-2.524885e-06	-6.772665e-10	-1.759070e+01	-4.754114e+01
1.290000e-06	-2.483438e-06	-6.716410e-10	-1.730195e+01	-4.714594e+01
1.300000e-06	-2.441726e-06	-6.626282e-10	-1.701134e+01	-4.674697e+01
1.310000e-06	-2.399699e-06	-6.502865e-10	-1.671854e+01	-4.634396e+01
1.320000e-06	-2.357277e-06	-6.414235e-10	-1.642298e+01	-4.593666e+01
1.330000e-06	-2.314563e-06	-6.336638e-10	-1.612540e+01	-4.552478e+01
1.340000e-06	-2.271628e-06	-6.284239e-10	-1.582627e+01	-4.510803e+01
1.350000e-06	-2.228492e-06	-6.230628e-10	-1.552575e+01	-4.468608e+01
1.360000e-06	-2.185216e-06	-6.174573e-10	-1.522425e+01	-4.425861e+01
1.370000e-06	-2.141815e-06	-6.133612e-10	-1.492188e+01	-4.382528e+01
1.380000e-06	-2.098282e-06	-6.100282e-10	-1.461858e+01	-4.338574e+01
1.390000e-06	-2.054619e-06	-6.015492e-10	-1.431439e+01	-4.293962e+01
1.400000e-06	-2.010854e-06	-5.898796e-10	-1.400948e+01	-4.248655e+01
1.410000e-06	-1.967049e-06	-5.805575e-10	-1.370430e+01	-4.202613e+01
1.420000e-06	-1.923151e-06	-5.743974e-10	-1.339846e+01	-4.155797e+01
1.430000e-06	-1.879151e-06	-5.692716e-10	-1.309191e+01	-4.108167e+01
1.440000e-06	-1.835115e-06	-5.632417e-10	-1.278512e+01	-4.059680e+01
1.450000e-06	-1.791034e-06	-5.552078e-10	-1.247801e+01	-4.010295e+01
1.460000e-06	-1.746848e-06	-5.476261e-10	-1.217017e+01	-3.959969e+01
1.470000e-06	-1.702565e-06	-5.397126e-10	-1.186165e+01	-3.908659e+01
1.480000e-06	-1.658098e-06	-5.285198e-10	-1.155185e+01	-3.856321e+01
1.490000e-06	-1.613456e-06	-5.169069e-10	-1.124084e+01	-3.802911e+01
1.500000e-06	-1.568737e-06	-5.095488e-10	-1.092929e+01	-3.748386e+01
1.510000e-06	-1.523872e-06	-5.038514e-10	-1.061671e+01	-3.692700e+01
1.520000e-06	-1.478836e-06	-4.952502e-10	-1.030295e+01	-3.635811e+01
1.530000e-06	-1.433660e-06	-4.849395e-10	-9.988210e+00	-3.577674e+01
1.540000e-06	-1.388347e-06	-4.730618e-10	-9.672520e+00	-3.518247e+01
1.550000e-06	-1.342962e-06	-4.636208e-10	-9.356327e+00	-3.457486e+01
1.560000e-06	-1.297527e-06	-4.542895e-10	-9.039779e+00	-3.395351e+01
1.570000e-06	-1.251996e-06	-4.447513e-10	-8.722568e+00	-3.331799e+01
1.580000e-06	-1.206382e-06	-4.375198e-10	-8.404781e+00	-3.266791e+01
1.590000e-06	-1.160640e-06	-4.318550e-10	-8.086097e+00	-3.200289e+01
1.600000e-06	-1.114780e-06	-4.225173e-10	-7.766597e+00	-3.132256e+01
1.610000e-06	-1.068898e-06	-4.095313e-10	-7.446936e+00	-3.062656e+01
1.620000e-06	-1.022944e-06	-3.988369e-10	-7.126779e+00	-2.991455e+01
1.630000e-06	-9.769280e-07	-3.931098e-10	-6.806190e+00	-2.918623e+01
1.640000e-06	-9.308878e-07	-3.867467e-10	-6.485431e+00	-2.844131e+01
1.650000e-06	-8.848049e-07	-3.769411e-10	-6.164375e+00	-2.767951e+01
1.660000e-06	-8.386446e-07	-3.651170e-10	-5.842780e+00	-2.690059e+01
1.670000e-06	-7.923931e-07	-3.515760e-10	-5.520548e+00	-2.610436e+01
1.680000e-06	-7.461353e-07	-3.365838e-10	-5.198273e+00	-2.529062e+01
1.690000e-06	-6.998149e-07	-3.246903e-10	-4.875562e+00	-2.445923e+01
1.700000e-06	-6.534146e-07	-3.140525e-10	-4.552295e+00	-2.361008e+01
1.710000e-06	-6.069483e-07	-3.030238e-10	-4.228567e+00	-2.274309e+01
1.720000e-06	-5.604497e-07	-2.892013e-10	-3.904615e+00	-2.185823e+01
1.730000e-06	-5.139542e-07	-2.726442e-10	-3.580683e+00	-2.095550e+01
1.740000e-06	-4.673676e-07	-2.558224e-10	-3.256118e+00	-2.003493e+01
1.750000e-06	-4.206956e-07	-2.407804e-10	-2.930957e+00	-1.909662e+01
1.760000e-06	-3.740001e-07	-2.295333e-10	-2.605633e+00	-1.814069e+01
1.770000e-06	-3.272746e-07	-2.197378e-10	-2.280100e+00	-1.716732e+01
1.780000e-06	-2.804783e-07	-2.105448e-10	-1.954073e+00	-1.617673e+01
1.790000e-06	-2.336925e-07	-1.997489e-10	-1.628120e+00	-1.516918e+01
1.800000e-06	-1.870035e-07	-1.850592e-10	-1.302841e+00	-1.414498e+01
1.810000e-06	-1.403321e-07	-1.678337e-10	-9.776840e-01	-1.310449e+01
1.820000e-06	-9.368702e-08	-1.510714e-10	-6.527111e-01	-1.204811e+01
1.830000e-06	-4.710169e-08	-1.374844e-10	-3.281542e-01	-1.097630e+01
1.840000e-06	-4.460196e-10	-1.258130e-10	-3.107388e-03	-9.889546e+00
1.850000e-06	4.626907e-08	-1.131074e-10	3.223534e-01	-8.788393e+00
1.860000e-06	9.292166e-08	-1.016974e-10	6.473788e-01	-7.673427e+00
1.870000e-06	1.396122e-07	-8.763908e-11	9.726686e-01	-6.545275e+00
1.880000e-06	1.863066e-07	-7.103282e-11	1.297985e+00	-5.404608e+00
1.890000e-06	2.329434e-07	-5.308076e-11	1.622900e+00	-4.252134e+00
1.900000e-06	2.795998e-07	-3.499675e-11	1.947953e+00	-3.088601e+00
1.910000e-06	3.262605e-07	-1.836923e-11	2.273035e+00	-1.914792e+00
1.920000e-06	3.728953e-07	-3.217024e-12	2.597936e+00	-7.315242e-01
1.930000e-06	4.195178e-07	1.185412e-11	2.922752e+00	4.603546e-01
1.940000e-06	4.661000e-07	2.893310e-11	3.247287e+00	1.659968e+00
1.950000e-06	5.125420e-07	4.464784e-11	3.570845e+00	2.866415e+00
1.960000e-06	5.589152e-07	5.931610e-11	3.893924e+00	4.078770e+00
1.970000e-06	6.052963e-07	7.384298e-11	4.217058e+00	5.296091e+00
1.980000e-06	6.516209e-07	8.787135e-11	4.539798e+00	6.517417e+00
1.990000e-06	6.979522e-07	1.056091e-10	4.862585e+00	7.741776e+00
2.000000e-06	7.442265e-07	1.236895e-10	5.184975e+00	8.968185e+00
2.010000e-06	7.903741e-07	1.428654e-10	5.506482e+00	1.019566e+01
2.020000e-06	8.365252e-07	1.640043e-10	5.828014e+00	1.142320e+01
2.030000e-06	8.826481e-07	1.850880e-10	6.149349e+00	1.264983e+01
2.040000e-06	9.287068e-07	2.022184e-10	6.470236e+00	1.387455e+01
2.050000e-06	9.746772e-07	2.159817e-10	6.790509e+00	1.509640e+01
2.060000e-06	1.020601e-06	2.297922e-10	7.110456e+00	1.631440e+01
2.070000e-06	1.066505e-06	2.446592e-10	7.430265e+00	1.752761e+01
2.080000e-06	1.112291e-06	2.622419e-10	7.749256e+00	1.873509e+01
2.090000e-06	1.157934e-06	2.815309e-10	8.067250e+00	1.993592e+01
2.100000e-06	1.203489e-06	3.031301e-10	8.384624e+00	2.112923e+01
2.110000e-06	1.249056e-06	3.230323e-10	8.702090e+00	2.231414e+01
2.120000e-06	1.294444e-06	3.383162e-10	9.018300e+00	2.348982e+01
2.130000e-06	1.339653e-06	3.516251e-10	9.333267e+00	2.465548e+01
2.140000e-06	1.384941e-06	3.662291e-10	9.648787e+00	2.581035e+01
2.150000e-06	1.430156e-06	3.811946e-10	9.963800e+00	2.695368e+01
2.160000e-06	1.475153e-06	3.993106e-10	1.027729e+01	2.808479e+01
2.170000e-06	1.520053e-06	4.183031e-10	1.059011e+01	2.920302e+01
2.180000e-06	1.564875e-06	4.395075e-10	1.090238e+01	3.030775e+01
2.190000e-06	1.609527e-06	4.569247e-10	1.121346e+01	3.139841e+01
2.200000e-06	1.654074e-06	4.691913e-10	1.152382e+01	3.247446e+01
2.210000e-06	1.698529e-06	4.793217e-10	1.183354e+01	3.353541e+01
2.220000e-06	1.742813e-06	4.888455e-10	1.214206e+01	3.458082e+01
2.230000e-06	1.786964e-06	5.029389e-10	1.244966e+01	3.561027e+01
2.240000e-06	1.831024e-06	5.175906e-10	1.275662e+01	3.662339e+01
2.250000e-06	1.874977e-06	5.320247e-10	1.306284e+01	3.761988e+01
2.260000e-06	1.918845e-06	5.436777e-10	1.336846e+01	3.859945e+01
2.270000e-06	1.962681e-06	5.579051e-10	1.367387e+01	3.956185e+01
2.280000e-06	2.006459e-06	5.733288e-10	1.397886e+01	4.050689e+01
2.290000e-06	2.050205e-06	5.878727e-10	1.428364e+01	4.143440e+01
2.300000e-06	2.093896e-06	6.003028e-10	1.458803e+01	4.234426e+01
2.310000e-06	2.137430e-06	6.110034e-10	1.489132e+01	4.323638e+01
2.320000e-06	2.180868e-06	6.229207e-10	1.519396e+01	4.411071e+01
2.330000e-06	2.224245e-06	6.339577e-10	1.549616e+01	4.496722e+01
2.340000e-06	2.267428e-06	6.449001e-10	1.579702e+01	4.580592e+01
2.350000e-06	2.310353e-06	6.599352e-10	1.609607e+01	4.662684e+01
2.360000e-06	2.353054e-06	6.777904e-10	1.639356e+01	4.743005e+01
2.370000e-06	2.395431e-06	6.917093e-10	1.668881e+01	4.821564e+01
2.380000e-06	2.437422e-06	6.995669e-10	1.698135e+01	4.898372e+01
2.390000e-06	2.479100e-06	7.079833e-10	1.727172e+01	4.973442e+01
2.400000e-06	2.520482e-06	7.158169e-10	1.756002e+01	5.046790e+01
2.410000e-06	2.561534e-06	7.257085e-10	1.784603e+01	5.118433e+01
2.420000e-06	2.602311e-06	7.398807e-10	1.813012e+01	5.188388e+01
2.430000e-06	2.642934e-06	7.541907e-10	1.841314e+01	5.256678e+01
2.440000e-06	2.683366e-06	7.659996e-10	1.869483e+01	5.323322e+01
2.450000e-06	2.723564e-06	7.724422e-10	1.897488e+01	5.388343e+01
2.460000e-06	2.763609e-06	7.800890e-10	1.925388e+01	5.451765e+01
2.470000e-06	2.803497e-06	7.887259e-10	1.953177e+01	5.513611e+01
2.480000e-06	2.843256e-06	7.994254e-10	1.980877e+01	5.573907e+01
2.490000e-06	2.882897e-06	8.107071e-10	2.008495e+01	5.632679e+01
2.500000e-06	2.922438e-06	8.202846e-10	2.036042e+01	5.689951e+01
2.510000e-06	2.961852e-06	8.271416e-10	2.063502e+01	5.745751e+01
2.520000e-06	3.001046e-06	8.319561e-10	2.090808e+01	5.800106e+01
2.530000e-06	3.040060e-06	8.354246e-10	2.117989e+01	5.853041e+01
2.540000e-06	3.078839e-06	8.398967e-10	2.145006e+01	5.904585e+01
2.550000e-06	3.117294e-06	8.466318e-10	2.171797e+01	5.954765e+01
2.560000e-06	3.155498e-06	8.579455e-10	2.198414e+01	6.003608e+01
2.570000e-06	3.193582e-06	8.704880e-10	2.224947e+01	6.051141e+01
2.580000e-06	3.231584e-06	8.786690e-10	2.251422e+01	6.097392e+01
2.590000e-06	3.269365e-06	8.809813e-10	2.277744e+01	6.142389e+01
2.600000e-06	3.306807e-06	8.820550e-10	2.303830e+01	6.186159e+01
2.610000e-06	3.344041e-06	8.832954e-10	2.329770e+01	6.228729e+01
2.620000e-06	3.381043e-06	8.861616e-10	2.355550e+01	6.270127e+01
2.630000e-06	3.417709e-06	8.917614e-10	2.381094e+01	6.310380e+01
2.640000e-06	3.454085e-06	9.000583e-10	2.406437e+01	6.349517e+01
2.650000e-06	3.490230e-06	9.102643e-10	2.431619e+01	6.387564e+01
2.660000e-06	3.526257e-06	9.183339e-10	2.456719e+01	6.424548e+01
2.670000e-06	3.562173e-06	9.210010e-10	2.481741e+01	6.460498e+01
2.680000e-06	3.597947e-06	9.203918e-10	2.506665e+01	6.495440e+01
2.690000e-06	3.633556e-06	9.209938e-10	2.531474e+01	6.529401e+01
2.700000e-06	3.668997e-06	9.238707e-10	2.556165e+01	6.562410e+01
2.710000e-06	3.704219e-06	9.306326e-10	2.580704e+01	6.594492e+01
2.720000e-06	3.739060e-06	9.406189e-10	2.604977e+01	6.625675e+01
2.730000e-06	3.773504e-06	9.498987e-10	2.628974e+01	6.655986e+01
2.740000e-06	3.807646e-06	9.536432e-10	2.652761e+01	6.685450e+01
2.750000e-06	3.841431e-06	9.552437e-10	2.676299e+01	6.714095e+01
2.760000e-06	3.874645e-06	9.570842e-10	2.699439e+01	6.741947e+01
2.770000e-06	3.907340e-06	9.601825e-10	2.722217e+01	6.769030e+01
2.780000e-06	3.939634e-06	9.639192e-10	2.744716e+01	6.795370e+01
2.790000e-06	3.971632e-06	9.688491e-10	2.767009e+01	6.820992e+01
2.800000e-06	4.003522e-06	9.751394e-10	2.789227e+01	6.845919e+01
2.810000e-06	4.035255e-06	9.825172e-10	2.811334e+01	6.870175e+01
2.820000e-06	4.066771e-06	9.888945e-10	2.833291e+01	6.893782e+01
2.830000e-06	4.098113e-06	9.956165e-10	2.855127e+01	6.916763e+01
2.840000e-06	4.129251e-06	1.000925e-09	2.876820e+01	6.939138e+01
2.850000e-06	4.160042e-06	1.006285e-09	2.898273e+01	6.960926e+01
2.860000e-06	4.190514e-06	1.009751e-09	2.919503e+01	6.982148e+01
2.870000e-06	4.220753e-06	1.010818e-09	2.940569e+01	7.002819e+01
2.880000e-06	4.250729e-06	1.012859e-09	2.961453e+01	7.022957e+01
2.890000e-06	4.280368e-06	1.017771e-09	2.982103e+01	7.042577e+01
2.900000e-06	4.309716e-06	1.023335e-09	3.002550e+01	7.061692e+01
