# Temperatura_=_-0.9
# Concentracion g/m^3_=_1620.0
# C_Vs_to_Am_M_A/Vsm_=_65563218390.804596
# pendiente_HvsI_1/m_=_3716.3
# ordenada_HvsI_A/m_=_1297.0
# frecuencia_Hz_=_135104.44714887784

Tiempo_(s)	Campo_(V.s)	Magnetizacion_(V.s)	Campo_(kA/m)	Magnetizacion_(A/m)
0.000000e+00	-5.505029e-06	-1.116508e-09	-3.837115e+01	-7.508280e+01
1.000000e-08	-5.505397e-06	-1.114396e-09	-3.837372e+01	-7.502776e+01
2.000000e-08	-5.505505e-06	-1.112935e-09	-3.837446e+01	-7.497461e+01
3.000000e-08	-5.505316e-06	-1.112999e-09	-3.837315e+01	-7.492334e+01
4.000000e-08	-5.504645e-06	-1.112118e-09	-3.836847e+01	-7.487391e+01
5.000000e-08	-5.503354e-06	-1.102362e-09	-3.835947e+01	-7.482627e+01
6.000000e-08	-5.501482e-06	-1.084365e-09	-3.834642e+01	-7.478031e+01
7.000000e-08	-5.499115e-06	-1.076874e-09	-3.832993e+01	-7.473591e+01
8.000000e-08	-5.496286e-06	-1.125481e-09	-3.831021e+01	-7.469293e+01
9.000000e-08	-5.492916e-06	-1.217514e-09	-3.828672e+01	-7.465120e+01
1.000000e-07	-5.488969e-06	-1.210043e-09	-3.825921e+01	-7.461050e+01
1.100000e-07	-5.484658e-06	-1.073283e-09	-3.822916e+01	-7.457063e+01
1.200000e-07	-5.480304e-06	-1.034311e-09	-3.819881e+01	-7.453133e+01
1.300000e-07	-5.475704e-06	-1.124784e-09	-3.816675e+01	-7.449236e+01
1.400000e-07	-5.470569e-06	-1.159405e-09	-3.813095e+01	-7.445342e+01
1.500000e-07	-5.465076e-06	-1.067176e-09	-3.809267e+01	-7.441424e+01
1.600000e-07	-5.459346e-06	-1.004156e-09	-3.805273e+01	-7.437450e+01
1.700000e-07	-5.453216e-06	-1.132180e-09	-3.801000e+01	-7.433391e+01
1.800000e-07	-5.446621e-06	-1.198274e-09	-3.796403e+01	-7.429213e+01
1.900000e-07	-5.439650e-06	-1.133061e-09	-3.791545e+01	-7.424887e+01
2.000000e-07	-5.432338e-06	-1.032513e-09	-3.786448e+01	-7.420379e+01
2.100000e-07	-5.424802e-06	-1.097387e-09	-3.781195e+01	-7.415657e+01
2.200000e-07	-5.416942e-06	-1.187951e-09	-3.775717e+01	-7.410692e+01
2.300000e-07	-5.408767e-06	-1.186125e-09	-3.770018e+01	-7.405451e+01
2.400000e-07	-5.400214e-06	-1.128070e-09	-3.764057e+01	-7.399906e+01
2.500000e-07	-5.390992e-06	-1.155336e-09	-3.757629e+01	-7.394029e+01
2.600000e-07	-5.381096e-06	-1.193162e-09	-3.750731e+01	-7.387791e+01
2.700000e-07	-5.370703e-06	-1.140414e-09	-3.743487e+01	-7.381169e+01
2.800000e-07	-5.359809e-06	-1.101713e-09	-3.735893e+01	-7.374139e+01
2.900000e-07	-5.348392e-06	-1.139783e-09	-3.727936e+01	-7.366679e+01
3.000000e-07	-5.336635e-06	-1.178813e-09	-3.719741e+01	-7.358769e+01
3.100000e-07	-5.324537e-06	-1.114561e-09	-3.711308e+01	-7.350394e+01
3.200000e-07	-5.311966e-06	-1.089065e-09	-3.702546e+01	-7.341537e+01
3.300000e-07	-5.298982e-06	-1.134669e-09	-3.693496e+01	-7.332187e+01
3.400000e-07	-5.285750e-06	-1.170537e-09	-3.684273e+01	-7.322333e+01
3.500000e-07	-5.272043e-06	-1.101961e-09	-3.674719e+01	-7.311969e+01
3.600000e-07	-5.257783e-06	-1.103407e-09	-3.664780e+01	-7.301088e+01
3.700000e-07	-5.243214e-06	-1.149756e-09	-3.654624e+01	-7.289689e+01
3.800000e-07	-5.228138e-06	-1.133675e-09	-3.644117e+01	-7.277771e+01
3.900000e-07	-5.212376e-06	-1.072162e-09	-3.633130e+01	-7.265337e+01
4.000000e-07	-5.196140e-06	-1.131631e-09	-3.621813e+01	-7.252391e+01
4.100000e-07	-5.179628e-06	-1.146605e-09	-3.610304e+01	-7.238940e+01
4.200000e-07	-5.162801e-06	-1.067526e-09	-3.598575e+01	-7.224993e+01
4.300000e-07	-5.145620e-06	-1.076163e-09	-3.586599e+01	-7.210559e+01
4.400000e-07	-5.128192e-06	-1.173903e-09	-3.574452e+01	-7.195652e+01
4.500000e-07	-5.110445e-06	-1.122390e-09	-3.562082e+01	-7.180285e+01
4.600000e-07	-5.092139e-06	-1.051729e-09	-3.549322e+01	-7.164474e+01
4.700000e-07	-5.073392e-06	-1.125571e-09	-3.536255e+01	-7.148235e+01
4.800000e-07	-5.054414e-06	-1.136916e-09	-3.523027e+01	-7.131586e+01
4.900000e-07	-5.035073e-06	-1.050377e-09	-3.509546e+01	-7.114546e+01
5.000000e-07	-5.015455e-06	-1.089985e-09	-3.495872e+01	-7.097133e+01
5.100000e-07	-4.995701e-06	-1.141470e-09	-3.482103e+01	-7.079367e+01
5.200000e-07	-4.975666e-06	-1.051144e-09	-3.468138e+01	-7.061268e+01
5.300000e-07	-4.955337e-06	-1.055731e-09	-3.453968e+01	-7.042856e+01
5.400000e-07	-4.934708e-06	-1.155516e-09	-3.439590e+01	-7.024150e+01
5.500000e-07	-4.913671e-06	-1.103385e-09	-3.424927e+01	-7.005171e+01
5.600000e-07	-4.892222e-06	-1.024412e-09	-3.409976e+01	-6.985936e+01
5.700000e-07	-4.870474e-06	-1.099899e-09	-3.394817e+01	-6.966465e+01
5.800000e-07	-4.848406e-06	-1.105789e-09	-3.379436e+01	-6.946774e+01
5.900000e-07	-4.825820e-06	-1.035447e-09	-3.363693e+01	-6.926881e+01
6.000000e-07	-4.802935e-06	-1.072397e-09	-3.347741e+01	-6.906801e+01
6.100000e-07	-4.779924e-06	-1.110499e-09	-3.331702e+01	-6.886548e+01
6.200000e-07	-4.756563e-06	-1.038760e-09	-3.315419e+01	-6.866135e+01
6.300000e-07	-4.732922e-06	-1.040649e-09	-3.298941e+01	-6.845575e+01
6.400000e-07	-4.709071e-06	-1.081339e-09	-3.282317e+01	-6.824877e+01
6.500000e-07	-4.684850e-06	-1.044148e-09	-3.265434e+01	-6.804050e+01
6.600000e-07	-4.660192e-06	-1.026329e-09	-3.248247e+01	-6.783101e+01
6.700000e-07	-4.635175e-06	-1.068929e-09	-3.230810e+01	-6.762037e+01
6.800000e-07	-4.609701e-06	-1.048461e-09	-3.213053e+01	-6.740862e+01
6.900000e-07	-4.583648e-06	-1.025337e-09	-3.194894e+01	-6.719578e+01
7.000000e-07	-4.557080e-06	-1.050168e-09	-3.176375e+01	-6.698187e+01
7.100000e-07	-4.530098e-06	-1.042838e-09	-3.157569e+01	-6.676689e+01
7.200000e-07	-4.502813e-06	-1.010688e-09	-3.138551e+01	-6.655082e+01
7.300000e-07	-4.475278e-06	-1.030606e-09	-3.119358e+01	-6.633362e+01
7.400000e-07	-4.447548e-06	-1.036253e-09	-3.100029e+01	-6.611527e+01
7.500000e-07	-4.419579e-06	-1.013424e-09	-3.080535e+01	-6.589570e+01
7.600000e-07	-4.391363e-06	-1.019691e-09	-3.060868e+01	-6.567485e+01
7.700000e-07	-4.362949e-06	-1.024747e-09	-3.041062e+01	-6.545264e+01
7.800000e-07	-4.334181e-06	-9.989848e-10	-3.021010e+01	-6.522899e+01
7.900000e-07	-4.305021e-06	-9.988484e-10	-3.000685e+01	-6.500380e+01
8.000000e-07	-4.275584e-06	-1.013480e-09	-2.980167e+01	-6.477698e+01
8.100000e-07	-4.245919e-06	-9.920939e-10	-2.959490e+01	-6.454841e+01
8.200000e-07	-4.216037e-06	-9.788313e-10	-2.938662e+01	-6.431798e+01
8.300000e-07	-4.185809e-06	-9.920988e-10	-2.917592e+01	-6.408558e+01
8.400000e-07	-4.155197e-06	-9.832957e-10	-2.896255e+01	-6.385108e+01
8.500000e-07	-4.124282e-06	-9.614016e-10	-2.874707e+01	-6.361436e+01
8.600000e-07	-4.093168e-06	-9.698670e-10	-2.853019e+01	-6.337529e+01
8.700000e-07	-4.061862e-06	-9.725758e-10	-2.831199e+01	-6.313376e+01
8.800000e-07	-4.030322e-06	-9.554251e-10	-2.809214e+01	-6.288963e+01
8.900000e-07	-3.998592e-06	-9.552827e-10	-2.787098e+01	-6.264278e+01
9.000000e-07	-3.966707e-06	-9.635724e-10	-2.764874e+01	-6.239309e+01
9.100000e-07	-3.934589e-06	-9.426364e-10	-2.742487e+01	-6.214043e+01
9.200000e-07	-3.902076e-06	-9.329925e-10	-2.719825e+01	-6.188469e+01
9.300000e-07	-3.869171e-06	-9.411654e-10	-2.696889e+01	-6.162576e+01
9.400000e-07	-3.835910e-06	-9.358052e-10	-2.673706e+01	-6.136351e+01
9.500000e-07	-3.802278e-06	-9.221564e-10	-2.650264e+01	-6.109786e+01
9.600000e-07	-3.768227e-06	-9.306227e-10	-2.626529e+01	-6.082868e+01
9.700000e-07	-3.733704e-06	-9.260023e-10	-2.602466e+01	-6.055589e+01
9.800000e-07	-3.698726e-06	-9.057485e-10	-2.578086e+01	-6.027938e+01
9.900000e-07	-3.663415e-06	-9.028670e-10	-2.553473e+01	-5.999907e+01
1.000000e-06	-3.627900e-06	-9.061119e-10	-2.528719e+01	-5.971488e+01
1.010000e-06	-3.592204e-06	-8.921506e-10	-2.503837e+01	-5.942672e+01
1.020000e-06	-3.556376e-06	-8.886353e-10	-2.478865e+01	-5.913451e+01
1.030000e-06	-3.520421e-06	-8.944010e-10	-2.453804e+01	-5.883819e+01
1.040000e-06	-3.484305e-06	-8.864410e-10	-2.428630e+01	-5.853768e+01
1.050000e-06	-3.447993e-06	-8.723182e-10	-2.403320e+01	-5.823292e+01
1.060000e-06	-3.411453e-06	-8.724370e-10	-2.377851e+01	-5.792385e+01
1.070000e-06	-3.374650e-06	-8.686937e-10	-2.352198e+01	-5.761041e+01
1.080000e-06	-3.337572e-06	-8.571557e-10	-2.326354e+01	-5.729254e+01
1.090000e-06	-3.300288e-06	-8.562860e-10	-2.300367e+01	-5.697020e+01
1.100000e-06	-3.262780e-06	-8.531281e-10	-2.274223e+01	-5.664333e+01
1.110000e-06	-3.225032e-06	-8.401830e-10	-2.247911e+01	-5.631189e+01
1.120000e-06	-3.187026e-06	-8.338660e-10	-2.221421e+01	-5.597583e+01
1.130000e-06	-3.148790e-06	-8.342020e-10	-2.194770e+01	-5.563509e+01
1.140000e-06	-3.110415e-06	-8.262169e-10	-2.168021e+01	-5.528964e+01
1.150000e-06	-3.071850e-06	-8.179127e-10	-2.141141e+01	-5.493944e+01
1.160000e-06	-3.033078e-06	-8.139364e-10	-2.114116e+01	-5.458443e+01
1.170000e-06	-2.994065e-06	-8.068892e-10	-2.086923e+01	-5.422458e+01
1.180000e-06	-2.954802e-06	-7.973332e-10	-2.059556e+01	-5.385983e+01
1.190000e-06	-2.915372e-06	-7.942634e-10	-2.032072e+01	-5.349015e+01
1.200000e-06	-2.875822e-06	-7.869548e-10	-2.004505e+01	-5.311547e+01
1.210000e-06	-2.836156e-06	-7.777942e-10	-1.976857e+01	-5.273576e+01
1.220000e-06	-2.796324e-06	-7.757276e-10	-1.949094e+01	-5.235096e+01
1.230000e-06	-2.756351e-06	-7.760306e-10	-1.921232e+01	-5.196102e+01
1.240000e-06	-2.716242e-06	-7.667567e-10	-1.893275e+01	-5.156587e+01
1.250000e-06	-2.675949e-06	-7.577425e-10	-1.865190e+01	-5.116546e+01
1.260000e-06	-2.635501e-06	-7.498171e-10	-1.836997e+01	-5.075973e+01
1.270000e-06	-2.594743e-06	-7.388425e-10	-1.808587e+01	-5.034859e+01
1.280000e-06	-2.553619e-06	-7.272831e-10	-1.779923e+01	-4.993198e+01
1.290000e-06	-2.512269e-06	-7.221781e-10	-1.751101e+01	-4.950981e+01
1.300000e-06	-2.470642e-06	-7.175252e-10	-1.722087e+01	-4.908200e+01
1.310000e-06	-2.428737e-06	-7.104065e-10	-1.692878e+01	-4.864847e+01
1.320000e-06	-2.386577e-06	-7.016938e-10	-1.663492e+01	-4.820910e+01
1.330000e-06	-2.344125e-06	-6.933228e-10	-1.633902e+01	-4.776379e+01
1.340000e-06	-2.301376e-06	-6.824970e-10	-1.604105e+01	-4.731242e+01
1.350000e-06	-2.258379e-06	-6.718079e-10	-1.574135e+01	-4.685488e+01
1.360000e-06	-2.215202e-06	-6.643925e-10	-1.544040e+01	-4.639103e+01
1.370000e-06	-2.171880e-06	-6.577255e-10	-1.513844e+01	-4.592072e+01
1.380000e-06	-2.128474e-06	-6.531404e-10	-1.483589e+01	-4.544381e+01
1.390000e-06	-2.084990e-06	-6.516583e-10	-1.453280e+01	-4.496012e+01
1.400000e-06	-2.041383e-06	-6.453788e-10	-1.422885e+01	-4.446948e+01
1.410000e-06	-1.997623e-06	-6.339073e-10	-1.392383e+01	-4.397170e+01
1.420000e-06	-1.953782e-06	-6.237048e-10	-1.361825e+01	-4.346659e+01
1.430000e-06	-1.909866e-06	-6.156434e-10	-1.331215e+01	-4.295391e+01
1.440000e-06	-1.865875e-06	-6.081993e-10	-1.300552e+01	-4.243346e+01
1.450000e-06	-1.821822e-06	-5.993185e-10	-1.269846e+01	-4.190498e+01
1.460000e-06	-1.777647e-06	-5.917458e-10	-1.239055e+01	-4.136821e+01
1.470000e-06	-1.733366e-06	-5.819679e-10	-1.208191e+01	-4.082290e+01
1.480000e-06	-1.689001e-06	-5.720637e-10	-1.177267e+01	-4.026875e+01
1.490000e-06	-1.644525e-06	-5.608357e-10	-1.146267e+01	-3.970546e+01
1.500000e-06	-1.599888e-06	-5.499505e-10	-1.115154e+01	-3.913272e+01
1.510000e-06	-1.555033e-06	-5.407459e-10	-1.083889e+01	-3.855021e+01
1.520000e-06	-1.510086e-06	-5.308579e-10	-1.052560e+01	-3.795758e+01
1.530000e-06	-1.465067e-06	-5.200886e-10	-1.021181e+01	-3.735447e+01
1.540000e-06	-1.419918e-06	-5.102187e-10	-9.897113e+00	-3.674053e+01
1.550000e-06	-1.374697e-06	-4.995533e-10	-9.581909e+00	-3.611538e+01
1.560000e-06	-1.329359e-06	-4.888839e-10	-9.265899e+00	-3.547863e+01
1.570000e-06	-1.283936e-06	-4.763405e-10	-8.949288e+00	-3.482988e+01
1.580000e-06	-1.238477e-06	-4.639924e-10	-8.632434e+00	-3.416874e+01
1.590000e-06	-1.192981e-06	-4.561132e-10	-8.315312e+00	-3.349479e+01
1.600000e-06	-1.147320e-06	-4.488244e-10	-7.997049e+00	-3.280763e+01
1.610000e-06	-1.101515e-06	-4.375688e-10	-7.677780e+00	-3.210683e+01
1.620000e-06	-1.055706e-06	-4.263788e-10	-7.358479e+00	-3.139200e+01
1.630000e-06	-1.009820e-06	-4.168155e-10	-7.038644e+00	-3.066271e+01
1.640000e-06	-9.638086e-07	-4.076012e-10	-6.717938e+00	-2.991856e+01
1.650000e-06	-9.177118e-07	-3.973270e-10	-6.396634e+00	-2.915916e+01
1.660000e-06	-8.715424e-07	-3.845554e-10	-6.074824e+00	-2.838412e+01
1.670000e-06	-8.253076e-07	-3.713009e-10	-5.752558e+00	-2.759306e+01
1.680000e-06	-7.790349e-07	-3.558969e-10	-5.430028e+00	-2.678563e+01
1.690000e-06	-7.327614e-07	-3.413818e-10	-5.107493e+00	-2.596149e+01
1.700000e-06	-6.865119e-07	-3.276080e-10	-4.785125e+00	-2.512032e+01
1.710000e-06	-6.402154e-07	-3.141349e-10	-4.462429e+00	-2.426185e+01
1.720000e-06	-5.938089e-07	-3.029405e-10	-4.138966e+00	-2.338579e+01
1.730000e-06	-5.472775e-07	-2.894140e-10	-3.814633e+00	-2.249194e+01
1.740000e-06	-5.006584e-07	-2.707922e-10	-3.489688e+00	-2.158009e+01
1.750000e-06	-4.540696e-07	-2.529900e-10	-3.164955e+00	-2.065009e+01
1.760000e-06	-4.074530e-07	-2.374442e-10	-2.840029e+00	-1.970182e+01
1.770000e-06	-3.607436e-07	-2.232782e-10	-2.514455e+00	-1.873522e+01
1.780000e-06	-3.140345e-07	-2.126715e-10	-2.188883e+00	-1.775027e+01
1.790000e-06	-2.672892e-07	-2.023347e-10	-1.863059e+00	-1.674699e+01
1.800000e-06	-2.206237e-07	-1.894867e-10	-1.537791e+00	-1.572545e+01
1.810000e-06	-1.741031e-07	-1.739726e-10	-1.213533e+00	-1.468579e+01
1.820000e-06	-1.275647e-07	-1.577269e-10	-8.891514e-01	-1.362821e+01
1.830000e-06	-8.092412e-08	-1.420373e-10	-5.640573e-01	-1.255293e+01
1.840000e-06	-3.416993e-08	-1.291171e-10	-2.381712e-01	-1.146026e+01
1.850000e-06	1.260620e-08	-1.177181e-10	8.786772e-02	-1.035057e+01
1.860000e-06	5.931589e-08	-1.052092e-10	4.134436e-01	-9.224282e+00
1.870000e-06	1.060025e-07	-8.934169e-11	7.388586e-01	-8.081872e+00
1.880000e-06	1.526451e-07	-7.077289e-11	1.063966e+00	-6.923886e+00
1.890000e-06	1.992585e-07	-5.076202e-11	1.388871e+00	-5.750927e+00
1.900000e-06	2.459488e-07	-3.019608e-11	1.714312e+00	-4.563655e+00
1.910000e-06	2.926285e-07	-1.084378e-11	2.039679e+00	-3.362792e+00
1.920000e-06	3.392544e-07	5.492650e-12	2.364671e+00	-2.149112e+00
1.930000e-06	3.858701e-07	1.950912e-11	2.689592e+00	-9.234461e-01
1.940000e-06	4.324523e-07	3.482126e-11	3.014279e+00	3.133234e-01
1.950000e-06	4.789705e-07	5.162704e-11	3.338520e+00	1.560265e+00
1.960000e-06	5.254418e-07	6.981581e-11	3.662434e+00	2.816401e+00
1.970000e-06	5.719113e-07	8.768832e-11	3.986335e+00	4.080712e+00
1.980000e-06	6.182917e-07	1.044333e-10	4.309616e+00	5.352136e+00
1.990000e-06	6.645363e-07	1.193130e-10	4.631951e+00	6.629581e+00
2.000000e-06	7.107409e-07	1.340584e-10	4.954006e+00	7.911919e+00
2.010000e-06	7.569204e-07	1.506455e-10	5.275886e+00	9.198000e+00
2.020000e-06	8.031092e-07	1.687280e-10	5.597831e+00	1.048665e+01
2.030000e-06	8.493138e-07	1.901418e-10	5.919887e+00	1.177668e+01
2.040000e-06	8.954761e-07	2.113637e-10	6.241647e+00	1.306689e+01
2.050000e-06	9.415585e-07	2.299117e-10	6.562850e+00	1.435607e+01
2.060000e-06	9.875476e-07	2.456019e-10	6.883404e+00	1.564301e+01
2.070000e-06	1.033424e-06	2.606293e-10	7.203172e+00	1.692650e+01
2.080000e-06	1.079238e-06	2.766412e-10	7.522502e+00	1.820537e+01
2.090000e-06	1.124938e-06	2.937788e-10	7.841040e+00	1.947841e+01
2.100000e-06	1.170483e-06	3.133317e-10	8.158502e+00	2.074448e+01
2.110000e-06	1.216015e-06	3.322540e-10	8.475869e+00	2.200244e+01
2.120000e-06	1.261523e-06	3.483718e-10	8.793069e+00	2.325118e+01
2.130000e-06	1.306896e-06	3.636730e-10	9.109323e+00	2.448964e+01
2.140000e-06	1.352098e-06	3.797220e-10	9.424390e+00	2.571679e+01
2.150000e-06	1.397204e-06	3.956818e-10	9.738787e+00	2.693164e+01
2.160000e-06	1.442357e-06	4.140274e-10	1.005352e+01	2.813325e+01
2.170000e-06	1.487437e-06	4.329666e-10	1.036773e+01	2.932073e+01
2.180000e-06	1.532314e-06	4.533679e-10	1.068054e+01	3.049325e+01
2.190000e-06	1.577025e-06	4.729060e-10	1.099217e+01	3.165004e+01
2.200000e-06	1.621627e-06	4.861068e-10	1.130306e+01	3.279038e+01
2.210000e-06	1.666149e-06	4.957722e-10	1.161339e+01	3.391361e+01
2.220000e-06	1.710523e-06	5.082057e-10	1.192269e+01	3.501914e+01
2.230000e-06	1.754772e-06	5.235272e-10	1.223111e+01	3.610645e+01
2.240000e-06	1.798906e-06	5.408315e-10	1.253873e+01	3.717508e+01
2.250000e-06	1.842929e-06	5.581114e-10	1.284558e+01	3.822462e+01
2.260000e-06	1.886887e-06	5.733439e-10	1.315198e+01	3.925476e+01
2.270000e-06	1.930764e-06	5.862630e-10	1.345781e+01	4.026523e+01
2.280000e-06	1.974538e-06	5.986539e-10	1.376292e+01	4.125582e+01
2.290000e-06	2.018212e-06	6.114444e-10	1.406734e+01	4.222640e+01
2.300000e-06	2.061868e-06	6.239265e-10	1.437163e+01	4.317689e+01
2.310000e-06	2.105508e-06	6.362319e-10	1.467581e+01	4.410727e+01
2.320000e-06	2.149031e-06	6.499636e-10	1.497917e+01	4.501759e+01
2.330000e-06	2.192341e-06	6.638899e-10	1.528105e+01	4.590792e+01
2.340000e-06	2.235440e-06	6.760478e-10	1.558146e+01	4.677842e+01
2.350000e-06	2.278379e-06	6.880673e-10	1.588076e+01	4.762926e+01
2.360000e-06	2.321051e-06	7.019285e-10	1.617819e+01	4.846069e+01
2.370000e-06	2.363407e-06	7.168928e-10	1.647342e+01	4.927296e+01
2.380000e-06	2.405559e-06	7.273257e-10	1.676723e+01	5.006638e+01
2.390000e-06	2.447489e-06	7.365523e-10	1.705948e+01	5.084129e+01
2.400000e-06	2.489144e-06	7.456305e-10	1.734983e+01	5.159804e+01
2.410000e-06	2.530496e-06	7.548301e-10	1.763806e+01	5.233703e+01
2.420000e-06	2.571588e-06	7.655879e-10	1.792448e+01	5.305865e+01
2.430000e-06	2.612491e-06	7.766453e-10	1.820958e+01	5.376331e+01
2.440000e-06	2.653110e-06	7.867382e-10	1.849271e+01	5.445146e+01
2.450000e-06	2.693444e-06	7.957372e-10	1.877384e+01	5.512350e+01
2.460000e-06	2.733569e-06	8.041258e-10	1.905352e+01	5.577989e+01
2.470000e-06	2.773586e-06	8.140015e-10	1.933245e+01	5.642104e+01
2.480000e-06	2.813488e-06	8.246092e-10	1.961057e+01	5.704738e+01
2.490000e-06	2.853221e-06	8.346170e-10	1.988752e+01	5.765934e+01
2.500000e-06	2.892853e-06	8.447186e-10	2.016376e+01	5.825731e+01
2.510000e-06	2.932285e-06	8.545951e-10	2.043861e+01	5.884169e+01
2.520000e-06	2.971517e-06	8.639691e-10	2.071207e+01	5.941285e+01
2.530000e-06	3.010680e-06	8.723762e-10	2.098504e+01	5.997115e+01
2.540000e-06	3.049623e-06	8.789956e-10	2.125648e+01	6.051692e+01
2.550000e-06	3.088282e-06	8.855652e-10	2.152594e+01	6.105047e+01
2.560000e-06	3.126764e-06	8.926153e-10	2.179417e+01	6.157209e+01
2.570000e-06	3.165068e-06	9.008201e-10	2.206115e+01	6.208205e+01
2.580000e-06	3.203090e-06	9.097957e-10	2.232618e+01	6.258060e+01
2.590000e-06	3.240858e-06	9.176689e-10	2.258942e+01	6.306794e+01
2.600000e-06	3.278440e-06	9.256914e-10	2.285138e+01	6.354428e+01
2.610000e-06	3.315786e-06	9.330033e-10	2.311169e+01	6.400978e+01
2.620000e-06	3.352895e-06	9.369858e-10	2.337035e+01	6.446460e+01
2.630000e-06	3.389763e-06	9.396098e-10	2.362733e+01	6.490886e+01
2.640000e-06	3.426435e-06	9.448536e-10	2.388294e+01	6.534266e+01
2.650000e-06	3.462916e-06	9.522396e-10	2.413721e+01	6.576611e+01
2.660000e-06	3.499104e-06	9.601320e-10	2.438945e+01	6.617927e+01
2.670000e-06	3.535040e-06	9.661787e-10	2.463994e+01	6.658221e+01
2.680000e-06	3.570811e-06	9.707570e-10	2.488926e+01	6.697497e+01
2.690000e-06	3.606453e-06	9.763888e-10	2.513770e+01	6.735759e+01
2.700000e-06	3.641979e-06	9.829901e-10	2.538532e+01	6.773011e+01
2.710000e-06	3.677314e-06	9.887619e-10	2.563161e+01	6.809255e+01
2.720000e-06	3.712441e-06	9.932237e-10	2.587645e+01	6.844493e+01
2.730000e-06	3.747286e-06	9.973231e-10	2.611933e+01	6.878729e+01
2.740000e-06	3.781713e-06	1.001107e-09	2.635929e+01	6.911965e+01
2.750000e-06	3.815630e-06	1.003990e-09	2.659570e+01	6.944204e+01
2.760000e-06	3.849081e-06	1.007213e-09	2.682886e+01	6.975451e+01
2.770000e-06	3.882204e-06	1.012219e-09	2.705973e+01	7.005710e+01
2.780000e-06	3.914908e-06	1.020064e-09	2.728769e+01	7.034987e+01
2.790000e-06	3.947180e-06	1.026038e-09	2.751263e+01	7.063290e+01
2.800000e-06	3.979189e-06	1.029564e-09	2.773574e+01	7.090627e+01
2.810000e-06	4.011034e-06	1.033891e-09	2.795771e+01	7.117008e+01
2.820000e-06	4.042765e-06	1.039591e-09	2.817888e+01	7.142446e+01
2.830000e-06	4.074330e-06	1.045962e-09	2.839889e+01	7.166953e+01
2.840000e-06	4.105588e-06	1.052178e-09	2.861677e+01	7.190545e+01
2.850000e-06	4.136531e-06	1.058009e-09	2.883244e+01	7.213239e+01
2.860000e-06	4.167171e-06	1.061732e-09	2.904601e+01	7.235054e+01
2.870000e-06	4.197478e-06	1.063034e-09	2.925726e+01	7.256010e+01
2.880000e-06	4.227523e-06	1.064232e-09	2.946668e+01	7.276130e+01
2.890000e-06	4.257326e-06	1.067125e-09	2.967441e+01	7.295438e+01
2.900000e-06	4.286853e-06	1.070716e-09	2.988022e+01	7.313958e+01
