# Temperatura_=_11.6
# Concentracion g/m^3_=_1620.0
# C_Vs_to_Am_M_A/Vsm_=_65563218390.804596
# pendiente_HvsI_1/m_=_3716.3
# ordenada_HvsI_A/m_=_1297.0
# frecuencia_Hz_=_135089.0557340113

Tiempo_(s)	Campo_(V.s)	Magnetizacion_(V.s)	Campo_(kA/m)	Magnetizacion_(A/m)
0.000000e+00	-5.512220e-06	-1.606551e-09	-3.838806e+01	-1.048289e+02
1.000000e-08	-5.512324e-06	-1.608097e-09	-3.838878e+01	-1.048305e+02
2.000000e-08	-5.512139e-06	-1.609547e-09	-3.838749e+01	-1.048285e+02
3.000000e-08	-5.511549e-06	-1.609032e-09	-3.838338e+01	-1.048225e+02
4.000000e-08	-5.510434e-06	-1.602627e-09	-3.837562e+01	-1.048123e+02
5.000000e-08	-5.508696e-06	-1.592025e-09	-3.836351e+01	-1.047978e+02
6.000000e-08	-5.506412e-06	-1.605560e-09	-3.834761e+01	-1.047788e+02
7.000000e-08	-5.503668e-06	-1.630521e-09	-3.832850e+01	-1.047549e+02
8.000000e-08	-5.500423e-06	-1.616121e-09	-3.830590e+01	-1.047261e+02
9.000000e-08	-5.496675e-06	-1.607642e-09	-3.827980e+01	-1.046922e+02
1.000000e-07	-5.492629e-06	-1.655193e-09	-3.825162e+01	-1.046529e+02
1.100000e-07	-5.488259e-06	-1.608350e-09	-3.822118e+01	-1.046083e+02
1.200000e-07	-5.483597e-06	-1.511991e-09	-3.818872e+01	-1.045581e+02
1.300000e-07	-5.478649e-06	-1.545401e-09	-3.815427e+01	-1.045022e+02
1.400000e-07	-5.473282e-06	-1.621504e-09	-3.811689e+01	-1.044405e+02
1.500000e-07	-5.467552e-06	-1.630109e-09	-3.807698e+01	-1.043730e+02
1.600000e-07	-5.461453e-06	-1.540574e-09	-3.803451e+01	-1.042996e+02
1.700000e-07	-5.454934e-06	-1.578067e-09	-3.798911e+01	-1.042202e+02
1.800000e-07	-5.448006e-06	-1.652225e-09	-3.794086e+01	-1.041349e+02
1.900000e-07	-5.440688e-06	-1.607520e-09	-3.788989e+01	-1.040437e+02
2.000000e-07	-5.433089e-06	-1.543283e-09	-3.783697e+01	-1.039465e+02
2.100000e-07	-5.425268e-06	-1.553295e-09	-3.778251e+01	-1.038434e+02
2.200000e-07	-5.417158e-06	-1.606503e-09	-3.772603e+01	-1.037344e+02
2.300000e-07	-5.408718e-06	-1.589143e-09	-3.766725e+01	-1.036197e+02
2.400000e-07	-5.399735e-06	-1.558704e-09	-3.760469e+01	-1.034992e+02
2.500000e-07	-5.390052e-06	-1.554710e-09	-3.753726e+01	-1.033730e+02
2.600000e-07	-5.379807e-06	-1.585284e-09	-3.746591e+01	-1.032413e+02
2.700000e-07	-5.369115e-06	-1.559860e-09	-3.739145e+01	-1.031041e+02
2.800000e-07	-5.357850e-06	-1.546962e-09	-3.731300e+01	-1.029616e+02
2.900000e-07	-5.346120e-06	-1.542794e-09	-3.723130e+01	-1.028137e+02
3.000000e-07	-5.334081e-06	-1.552850e-09	-3.714747e+01	-1.026608e+02
3.100000e-07	-5.321613e-06	-1.543473e-09	-3.706064e+01	-1.025027e+02
3.200000e-07	-5.308732e-06	-1.534253e-09	-3.697093e+01	-1.023397e+02
3.300000e-07	-5.295475e-06	-1.515863e-09	-3.687861e+01	-1.021718e+02
3.400000e-07	-5.281820e-06	-1.538316e-09	-3.678351e+01	-1.019992e+02
3.500000e-07	-5.267626e-06	-1.555085e-09	-3.668466e+01	-1.018219e+02
3.600000e-07	-5.253000e-06	-1.522243e-09	-3.658280e+01	-1.016400e+02
3.700000e-07	-5.237985e-06	-1.515554e-09	-3.647824e+01	-1.014535e+02
3.800000e-07	-5.222551e-06	-1.560505e-09	-3.637075e+01	-1.012625e+02
3.900000e-07	-5.206616e-06	-1.521787e-09	-3.625978e+01	-1.010671e+02
4.000000e-07	-5.190257e-06	-1.469756e-09	-3.614585e+01	-1.008673e+02
4.100000e-07	-5.173562e-06	-1.538880e-09	-3.602958e+01	-1.006631e+02
4.200000e-07	-5.156436e-06	-1.557028e-09	-3.591032e+01	-1.004545e+02
4.300000e-07	-5.139053e-06	-1.469487e-09	-3.578925e+01	-1.002415e+02
4.400000e-07	-5.121364e-06	-1.494654e-09	-3.566607e+01	-1.000240e+02
4.500000e-07	-5.103256e-06	-1.582011e-09	-3.553996e+01	-9.980207e+01
4.600000e-07	-5.084773e-06	-1.479738e-09	-3.541124e+01	-9.957563e+01
4.700000e-07	-5.065877e-06	-1.433728e-09	-3.527965e+01	-9.934461e+01
4.800000e-07	-5.046558e-06	-1.541123e-09	-3.514511e+01	-9.910893e+01
4.900000e-07	-5.026990e-06	-1.524045e-09	-3.500883e+01	-9.886852e+01
5.000000e-07	-5.007295e-06	-1.417311e-09	-3.487167e+01	-9.862327e+01
5.100000e-07	-4.987375e-06	-1.508981e-09	-3.473294e+01	-9.837310e+01
5.200000e-07	-4.967113e-06	-1.545911e-09	-3.459184e+01	-9.811788e+01
5.300000e-07	-4.946483e-06	-1.431090e-09	-3.444816e+01	-9.785751e+01
5.400000e-07	-4.925522e-06	-1.447417e-09	-3.430219e+01	-9.759187e+01
5.500000e-07	-4.904256e-06	-1.531021e-09	-3.415409e+01	-9.732084e+01
5.600000e-07	-4.882650e-06	-1.431694e-09	-3.400362e+01	-9.704431e+01
5.700000e-07	-4.860718e-06	-1.406787e-09	-3.385089e+01	-9.676214e+01
5.800000e-07	-4.838453e-06	-1.510227e-09	-3.369583e+01	-9.647424e+01
5.900000e-07	-4.815767e-06	-1.475405e-09	-3.353784e+01	-9.618049e+01
6.000000e-07	-4.792717e-06	-1.398007e-09	-3.337731e+01	-9.588078e+01
6.100000e-07	-4.769371e-06	-1.462011e-09	-3.321473e+01	-9.557502e+01
6.200000e-07	-4.745784e-06	-1.459025e-09	-3.305046e+01	-9.526312e+01
6.300000e-07	-4.722008e-06	-1.382687e-09	-3.288488e+01	-9.494500e+01
6.400000e-07	-4.697927e-06	-1.416347e-09	-3.271718e+01	-9.462060e+01
6.500000e-07	-4.673525e-06	-1.447523e-09	-3.254724e+01	-9.428986e+01
6.600000e-07	-4.648632e-06	-1.392143e-09	-3.237388e+01	-9.395274e+01
6.700000e-07	-4.623199e-06	-1.397981e-09	-3.219676e+01	-9.360922e+01
6.800000e-07	-4.597283e-06	-1.431335e-09	-3.201628e+01	-9.325928e+01
6.900000e-07	-4.570751e-06	-1.384011e-09	-3.183151e+01	-9.290292e+01
7.000000e-07	-4.543729e-06	-1.366310e-09	-3.164331e+01	-9.254016e+01
7.100000e-07	-4.516408e-06	-1.393935e-09	-3.145305e+01	-9.217103e+01
7.200000e-07	-4.488882e-06	-1.380245e-09	-3.126135e+01	-9.179558e+01
7.300000e-07	-4.461224e-06	-1.358701e-09	-3.106874e+01	-9.141387e+01
7.400000e-07	-4.433355e-06	-1.376948e-09	-3.087465e+01	-9.102596e+01
7.500000e-07	-4.405235e-06	-1.364224e-09	-3.067882e+01	-9.063195e+01
7.600000e-07	-4.376881e-06	-1.341330e-09	-3.048136e+01	-9.023194e+01
7.700000e-07	-4.348223e-06	-1.342906e-09	-3.028178e+01	-8.982602e+01
7.800000e-07	-4.319286e-06	-1.337135e-09	-3.008026e+01	-8.941433e+01
7.900000e-07	-4.289991e-06	-1.313881e-09	-2.987624e+01	-8.899698e+01
8.000000e-07	-4.260326e-06	-1.316985e-09	-2.966965e+01	-8.857410e+01
8.100000e-07	-4.230371e-06	-1.317603e-09	-2.946104e+01	-8.814584e+01
8.200000e-07	-4.200106e-06	-1.301056e-09	-2.925026e+01	-8.771234e+01
8.300000e-07	-4.169608e-06	-1.293451e-09	-2.903787e+01	-8.727374e+01
8.400000e-07	-4.138867e-06	-1.298859e-09	-2.882379e+01	-8.683017e+01
8.500000e-07	-4.107830e-06	-1.273987e-09	-2.860764e+01	-8.638180e+01
8.600000e-07	-4.076525e-06	-1.256785e-09	-2.838963e+01	-8.592875e+01
8.700000e-07	-4.045043e-06	-1.259627e-09	-2.817038e+01	-8.547117e+01
8.800000e-07	-4.013386e-06	-1.254983e-09	-2.794991e+01	-8.500918e+01
8.900000e-07	-3.981517e-06	-1.239432e-09	-2.772797e+01	-8.454291e+01
9.000000e-07	-3.949368e-06	-1.238940e-09	-2.750408e+01	-8.407247e+01
9.100000e-07	-3.916954e-06	-1.233194e-09	-2.727835e+01	-8.359797e+01
9.200000e-07	-3.884134e-06	-1.213966e-09	-2.704979e+01	-8.311950e+01
9.300000e-07	-3.850840e-06	-1.209316e-09	-2.681792e+01	-8.263716e+01
9.400000e-07	-3.817135e-06	-1.212785e-09	-2.658319e+01	-8.215101e+01
9.500000e-07	-3.782995e-06	-1.198762e-09	-2.634543e+01	-8.166112e+01
9.600000e-07	-3.748361e-06	-1.182730e-09	-2.610424e+01	-8.116753e+01
9.700000e-07	-3.713298e-06	-1.184058e-09	-2.586005e+01	-8.067027e+01
9.800000e-07	-3.678048e-06	-1.177214e-09	-2.561456e+01	-8.016938e+01
9.900000e-07	-3.642636e-06	-1.163746e-09	-2.536795e+01	-7.966485e+01
1.000000e-06	-3.607042e-06	-1.159470e-09	-2.512007e+01	-7.915668e+01
1.010000e-06	-3.571242e-06	-1.155329e-09	-2.487075e+01	-7.864487e+01
1.020000e-06	-3.535359e-06	-1.143278e-09	-2.462085e+01	-7.812937e+01
1.030000e-06	-3.499370e-06	-1.137324e-09	-2.437022e+01	-7.761016e+01
1.040000e-06	-3.463194e-06	-1.131311e-09	-2.411829e+01	-7.708717e+01
1.050000e-06	-3.426800e-06	-1.117169e-09	-2.386483e+01	-7.656037e+01
1.060000e-06	-3.390111e-06	-1.101992e-09	-2.360932e+01	-7.602967e+01
1.070000e-06	-3.353134e-06	-1.096381e-09	-2.335181e+01	-7.549501e+01
1.080000e-06	-3.315824e-06	-1.086818e-09	-2.309197e+01	-7.495631e+01
1.090000e-06	-3.278278e-06	-1.077363e-09	-2.283050e+01	-7.441348e+01
1.100000e-06	-3.240519e-06	-1.069769e-09	-2.256754e+01	-7.386645e+01
1.110000e-06	-3.202466e-06	-1.063890e-09	-2.230253e+01	-7.331511e+01
1.120000e-06	-3.164234e-06	-1.052162e-09	-2.203627e+01	-7.275939e+01
1.130000e-06	-3.125819e-06	-1.044234e-09	-2.176874e+01	-7.219920e+01
1.140000e-06	-3.087072e-06	-1.036323e-09	-2.149891e+01	-7.163443e+01
1.150000e-06	-3.048190e-06	-1.024118e-09	-2.122813e+01	-7.106502e+01
1.160000e-06	-3.009117e-06	-1.012248e-09	-2.095601e+01	-7.049088e+01
1.170000e-06	-2.969801e-06	-1.005745e-09	-2.068221e+01	-6.991193e+01
1.180000e-06	-2.930374e-06	-9.979193e-10	-2.040763e+01	-6.932809e+01
1.190000e-06	-2.890864e-06	-9.886494e-10	-2.013248e+01	-6.873929e+01
1.200000e-06	-2.851271e-06	-9.817934e-10	-1.985675e+01	-6.814547e+01
1.210000e-06	-2.811493e-06	-9.733512e-10	-1.957972e+01	-6.754657e+01
1.220000e-06	-2.771627e-06	-9.614289e-10	-1.930209e+01	-6.694253e+01
1.230000e-06	-2.731529e-06	-9.515881e-10	-1.902284e+01	-6.633330e+01
1.240000e-06	-2.691131e-06	-9.407831e-10	-1.874150e+01	-6.571884e+01
1.250000e-06	-2.650500e-06	-9.301107e-10	-1.845854e+01	-6.509909e+01
1.260000e-06	-2.609684e-06	-9.204498e-10	-1.817429e+01	-6.447401e+01
1.270000e-06	-2.568624e-06	-9.093354e-10	-1.788834e+01	-6.384357e+01
1.280000e-06	-2.527232e-06	-8.995606e-10	-1.760008e+01	-6.320771e+01
1.290000e-06	-2.485513e-06	-8.890030e-10	-1.730954e+01	-6.256640e+01
1.300000e-06	-2.443513e-06	-8.789652e-10	-1.701705e+01	-6.191960e+01
1.310000e-06	-2.401270e-06	-8.688110e-10	-1.672286e+01	-6.126723e+01
1.320000e-06	-2.358701e-06	-8.607470e-10	-1.642640e+01	-6.060926e+01
1.330000e-06	-2.315937e-06	-8.512359e-10	-1.612859e+01	-5.994561e+01
1.340000e-06	-2.272957e-06	-8.399899e-10	-1.582927e+01	-5.927620e+01
1.350000e-06	-2.229672e-06	-8.286736e-10	-1.552782e+01	-5.860095e+01
1.360000e-06	-2.186213e-06	-8.177108e-10	-1.522517e+01	-5.791974e+01
1.370000e-06	-2.142755e-06	-8.066599e-10	-1.492252e+01	-5.723247e+01
1.380000e-06	-2.099242e-06	-7.980869e-10	-1.461948e+01	-5.653898e+01
1.390000e-06	-2.055596e-06	-7.881820e-10	-1.431553e+01	-5.583913e+01
1.400000e-06	-2.011894e-06	-7.780244e-10	-1.401118e+01	-5.513273e+01
1.410000e-06	-1.968122e-06	-7.674922e-10	-1.370634e+01	-5.441959e+01
1.420000e-06	-1.924249e-06	-7.571156e-10	-1.340080e+01	-5.369946e+01
1.430000e-06	-1.880331e-06	-7.458256e-10	-1.309495e+01	-5.297212e+01
1.440000e-06	-1.836336e-06	-7.355460e-10	-1.278856e+01	-5.223727e+01
1.450000e-06	-1.792146e-06	-7.249876e-10	-1.248082e+01	-5.149461e+01
1.460000e-06	-1.747812e-06	-7.135969e-10	-1.217207e+01	-5.074382e+01
1.470000e-06	-1.703348e-06	-6.995523e-10	-1.186241e+01	-4.998453e+01
1.480000e-06	-1.658695e-06	-6.848508e-10	-1.155144e+01	-4.921637e+01
1.490000e-06	-1.613985e-06	-6.706388e-10	-1.124007e+01	-4.843892e+01
1.500000e-06	-1.569263e-06	-6.582684e-10	-1.092862e+01	-4.765176e+01
1.510000e-06	-1.524342e-06	-6.487111e-10	-1.061579e+01	-4.685442e+01
1.520000e-06	-1.479300e-06	-6.408941e-10	-1.030210e+01	-4.604642e+01
1.530000e-06	-1.434100e-06	-6.312465e-10	-9.987324e+00	-4.522728e+01
1.540000e-06	-1.388742e-06	-6.155440e-10	-9.671442e+00	-4.439646e+01
1.550000e-06	-1.343327e-06	-5.982871e-10	-9.355162e+00	-4.355345e+01
1.560000e-06	-1.297793e-06	-5.830343e-10	-9.038052e+00	-4.269769e+01
1.570000e-06	-1.252180e-06	-5.686166e-10	-8.720395e+00	-4.182864e+01
1.580000e-06	-1.206496e-06	-5.567550e-10	-8.402245e+00	-4.094575e+01
1.590000e-06	-1.160741e-06	-5.499784e-10	-8.083605e+00	-4.004845e+01
1.600000e-06	-1.114857e-06	-5.409853e-10	-7.764059e+00	-3.913619e+01
1.610000e-06	-1.068899e-06	-5.253023e-10	-7.444000e+00	-3.820842e+01
1.620000e-06	-1.022904e-06	-5.106614e-10	-7.123679e+00	-3.726461e+01
1.630000e-06	-9.767893e-07	-4.992911e-10	-6.802530e+00	-3.630424e+01
1.640000e-06	-9.306619e-07	-4.841084e-10	-6.481291e+00	-3.532682e+01
1.650000e-06	-8.844901e-07	-4.671114e-10	-6.159743e+00	-3.433186e+01
1.660000e-06	-8.382283e-07	-4.518573e-10	-5.837567e+00	-3.331892e+01
1.670000e-06	-7.920005e-07	-4.353785e-10	-5.515629e+00	-3.228761e+01
1.680000e-06	-7.457047e-07	-4.200612e-10	-5.193217e+00	-3.123753e+01
1.690000e-06	-6.993179e-07	-4.081521e-10	-4.870171e+00	-3.016838e+01
1.700000e-06	-6.529019e-07	-3.932788e-10	-4.546922e+00	-2.907987e+01
1.710000e-06	-6.064243e-07	-3.756632e-10	-4.223244e+00	-2.797177e+01
1.720000e-06	-5.598674e-07	-3.557806e-10	-3.899014e+00	-2.684392e+01
1.730000e-06	-5.133412e-07	-3.361093e-10	-3.574997e+00	-2.569620e+01
1.740000e-06	-4.668698e-07	-3.151486e-10	-3.251362e+00	-2.452856e+01
1.750000e-06	-4.202782e-07	-2.962745e-10	-2.926891e+00	-2.334102e+01
1.760000e-06	-3.736309e-07	-2.807686e-10	-2.602030e+00	-2.213366e+01
1.770000e-06	-3.270813e-07	-2.656765e-10	-2.277851e+00	-2.090664e+01
1.780000e-06	-2.804478e-07	-2.510615e-10	-1.953087e+00	-1.966017e+01
1.790000e-06	-2.337499e-07	-2.352715e-10	-1.627875e+00	-1.839456e+01
1.800000e-06	-1.869996e-07	-2.154832e-10	-1.302298e+00	-1.711017e+01
1.810000e-06	-1.401858e-07	-1.958209e-10	-9.762785e-01	-1.580744e+01
1.820000e-06	-9.348629e-08	-1.793753e-10	-6.510547e-01	-1.448690e+01
1.830000e-06	-4.678580e-08	-1.650185e-10	-3.258244e-01	-1.314911e+01
1.840000e-06	-3.034019e-11	-1.498030e-10	-2.112943e-04	-1.179476e+01
1.850000e-06	4.675095e-08	-1.318327e-10	3.255817e-01	-1.042455e+01
1.860000e-06	9.369839e-08	-1.146306e-10	6.525319e-01	-9.039282e+00
1.870000e-06	1.406141e-07	-9.457752e-11	9.792609e-01	-7.639810e+00
1.880000e-06	1.873302e-07	-7.207500e-11	1.304600e+00	-6.227049e+00
1.890000e-06	2.340431e-07	-5.148753e-11	1.629917e+00	-4.801970e+00
1.900000e-06	2.807761e-07	-3.254436e-11	1.955374e+00	-3.365598e+00
1.910000e-06	3.275303e-07	-1.348717e-11	2.280978e+00	-1.919003e+00
1.920000e-06	3.741991e-07	4.733161e-12	2.605988e+00	-4.633009e-01
1.930000e-06	4.207185e-07	2.350187e-11	2.929957e+00	1.000358e+00
1.940000e-06	4.672464e-07	4.362842e-11	3.253985e+00	2.470788e+00
1.950000e-06	5.137878e-07	6.368703e-11	3.578108e+00	3.946778e+00
1.960000e-06	5.603014e-07	8.580234e-11	3.902036e+00	5.427097e+00
1.970000e-06	6.067411e-07	1.077287e-10	4.225450e+00	6.910498e+00
1.980000e-06	6.530937e-07	1.272928e-10	4.548258e+00	8.395724e+00
1.990000e-06	6.993828e-07	1.487583e-10	4.870623e+00	9.881517e+00
2.000000e-06	7.456320e-07	1.673442e-10	5.192710e+00	1.136662e+01
2.010000e-06	7.918529e-07	1.879256e-10	5.514601e+00	1.284979e+01
2.020000e-06	8.380052e-07	2.099858e-10	5.836014e+00	1.432979e+01
2.030000e-06	8.841289e-07	2.321933e-10	6.157227e+00	1.580542e+01
2.040000e-06	9.301475e-07	2.544610e-10	6.477708e+00	1.727548e+01
2.050000e-06	9.761678e-07	2.752857e-10	6.798202e+00	1.873882e+01
2.060000e-06	1.022143e-06	2.962888e-10	7.118380e+00	2.019433e+01
2.070000e-06	1.067979e-06	3.194578e-10	7.437588e+00	2.164093e+01
2.080000e-06	1.113735e-06	3.418858e-10	7.756243e+00	2.307758e+01
2.090000e-06	1.159396e-06	3.604099e-10	8.074237e+00	2.450331e+01
2.100000e-06	1.205060e-06	3.799673e-10	8.392247e+00	2.591718e+01
2.110000e-06	1.250680e-06	3.975717e-10	8.709950e+00	2.731832e+01
2.120000e-06	1.296158e-06	4.154501e-10	9.026671e+00	2.870592e+01
2.130000e-06	1.341495e-06	4.348988e-10	9.342403e+00	3.007921e+01
2.140000e-06	1.386742e-06	4.543797e-10	9.657509e+00	3.143750e+01
2.150000e-06	1.431925e-06	4.739220e-10	9.972175e+00	3.278017e+01
2.160000e-06	1.477018e-06	4.941419e-10	1.028621e+01	3.410664e+01
2.170000e-06	1.521990e-06	5.143540e-10	1.059940e+01	3.541641e+01
2.180000e-06	1.566734e-06	5.332725e-10	1.091101e+01	3.670905e+01
2.190000e-06	1.611326e-06	5.478287e-10	1.122155e+01	3.798418e+01
2.200000e-06	1.655833e-06	5.643510e-10	1.153151e+01	3.924147e+01
2.210000e-06	1.700196e-06	5.810409e-10	1.184046e+01	4.048070e+01
2.220000e-06	1.744539e-06	5.984664e-10	1.214927e+01	4.170165e+01
2.230000e-06	1.788773e-06	6.168167e-10	1.245732e+01	4.290419e+01
2.240000e-06	1.832838e-06	6.319805e-10	1.276420e+01	4.408824e+01
2.250000e-06	1.876821e-06	6.464318e-10	1.307051e+01	4.525377e+01
2.260000e-06	1.920711e-06	6.601687e-10	1.337617e+01	4.640080e+01
2.270000e-06	1.964518e-06	6.786375e-10	1.368125e+01	4.752938e+01
2.280000e-06	2.008206e-06	6.985176e-10	1.398550e+01	4.863962e+01
2.290000e-06	2.051838e-06	7.185739e-10	1.428935e+01	4.973167e+01
2.300000e-06	2.095428e-06	7.339188e-10	1.459292e+01	5.080570e+01
2.310000e-06	2.138964e-06	7.446143e-10	1.489611e+01	5.186191e+01
2.320000e-06	2.182410e-06	7.575984e-10	1.519868e+01	5.290054e+01
2.330000e-06	2.225670e-06	7.725701e-10	1.549995e+01	5.392184e+01
2.340000e-06	2.268838e-06	7.889928e-10	1.580058e+01	5.492609e+01
2.350000e-06	2.311812e-06	8.077261e-10	1.609986e+01	5.591358e+01
2.360000e-06	2.354528e-06	8.277509e-10	1.639734e+01	5.688461e+01
2.370000e-06	2.397076e-06	8.422784e-10	1.669365e+01	5.783950e+01
2.380000e-06	2.439240e-06	8.531424e-10	1.698729e+01	5.877856e+01
2.390000e-06	2.480958e-06	8.642422e-10	1.727782e+01	5.970210e+01
2.400000e-06	2.522355e-06	8.741813e-10	1.756612e+01	6.061045e+01
2.410000e-06	2.563549e-06	8.845804e-10	1.785300e+01	6.150393e+01
2.420000e-06	2.604539e-06	8.963117e-10	1.813846e+01	6.238284e+01
2.430000e-06	2.645244e-06	9.134164e-10	1.842194e+01	6.324749e+01
2.440000e-06	2.685690e-06	9.314906e-10	1.870361e+01	6.409817e+01
2.450000e-06	2.725941e-06	9.435188e-10	1.898393e+01	6.493518e+01
2.460000e-06	2.766017e-06	9.553802e-10	1.926302e+01	6.575878e+01
2.470000e-06	2.805939e-06	9.673235e-10	1.954105e+01	6.656924e+01
2.480000e-06	2.845712e-06	9.783159e-10	1.981804e+01	6.736681e+01
2.490000e-06	2.885301e-06	9.890645e-10	2.009374e+01	6.815173e+01
2.500000e-06	2.924800e-06	9.999718e-10	2.036882e+01	6.892422e+01
2.510000e-06	2.964160e-06	1.013668e-09	2.064292e+01	6.968449e+01
2.520000e-06	3.003289e-06	1.028434e-09	2.091543e+01	7.043274e+01
2.530000e-06	3.042256e-06	1.040568e-09	2.118680e+01	7.116917e+01
2.540000e-06	3.081072e-06	1.049792e-09	2.145712e+01	7.189395e+01
2.550000e-06	3.119675e-06	1.058518e-09	2.172596e+01	7.260725e+01
2.560000e-06	3.157950e-06	1.068512e-09	2.199251e+01	7.330923e+01
2.570000e-06	3.195947e-06	1.076945e-09	2.225713e+01	7.400005e+01
2.580000e-06	3.233780e-06	1.084284e-09	2.252061e+01	7.467984e+01
2.590000e-06	3.271404e-06	1.093692e-09	2.278263e+01	7.534876e+01
2.600000e-06	3.308824e-06	1.104734e-09	2.304323e+01	7.600693e+01
2.610000e-06	3.346103e-06	1.111780e-09	2.330284e+01	7.665451e+01
2.620000e-06	3.383143e-06	1.115377e-09	2.356079e+01	7.729162e+01
2.630000e-06	3.419912e-06	1.121156e-09	2.381686e+01	7.791840e+01
2.640000e-06	3.456341e-06	1.129612e-09	2.407056e+01	7.853498e+01
2.650000e-06	3.492495e-06	1.139219e-09	2.432234e+01	7.914152e+01
2.660000e-06	3.528507e-06	1.151368e-09	2.457314e+01	7.973816e+01
2.670000e-06	3.564362e-06	1.161305e-09	2.482284e+01	8.032504e+01
2.680000e-06	3.600139e-06	1.169032e-09	2.507199e+01	8.090232e+01
2.690000e-06	3.635806e-06	1.178405e-09	2.532038e+01	8.147016e+01
2.700000e-06	3.671291e-06	1.187141e-09	2.556751e+01	8.202873e+01
2.710000e-06	3.706522e-06	1.195791e-09	2.581286e+01	8.257820e+01
2.720000e-06	3.741468e-06	1.204286e-09	2.605623e+01	8.311874e+01
2.730000e-06	3.776018e-06	1.212400e-09	2.629685e+01	8.365056e+01
2.740000e-06	3.810002e-06	1.220038e-09	2.653352e+01	8.417382e+01
2.750000e-06	3.843605e-06	1.227963e-09	2.676753e+01	8.468874e+01
2.760000e-06	3.876898e-06	1.234980e-09	2.699939e+01	8.519550e+01
2.770000e-06	3.909675e-06	1.242145e-09	2.722766e+01	8.569432e+01
2.780000e-06	3.942054e-06	1.249928e-09	2.745315e+01	8.618538e+01
2.790000e-06	3.974221e-06	1.259550e-09	2.767716e+01	8.666891e+01
2.800000e-06	4.006224e-06	1.267353e-09	2.790004e+01	8.714510e+01
2.810000e-06	4.038027e-06	1.273301e-09	2.812152e+01	8.761416e+01
2.820000e-06	4.069624e-06	1.280796e-09	2.834157e+01	8.807627e+01
2.830000e-06	4.101017e-06	1.288773e-09	2.856020e+01	8.853165e+01
2.840000e-06	4.132175e-06	1.297153e-09	2.877718e+01	8.898047e+01
2.850000e-06	4.163015e-06	1.307099e-09	2.899196e+01	8.942291e+01
2.860000e-06	4.193479e-06	1.315848e-09	2.920412e+01	8.985914e+01
2.870000e-06	4.223695e-06	1.321625e-09	2.941454e+01	9.028932e+01
2.880000e-06	4.253609e-06	1.324626e-09	2.962287e+01	9.071359e+01
2.890000e-06	4.283227e-06	1.328356e-09	2.982913e+01	9.113209e+01
2.900000e-06	4.312621e-06	1.334164e-09	3.003384e+01	9.154492e+01
