# Temperatura_=_-0.0
# Concentracion g/m^3_=_1620.0
# C_Vs_to_Am_M_A/Vsm_=_65563218390.804596
# pendiente_HvsI_1/m_=_3716.3
# ordenada_HvsI_A/m_=_1297.0
# frecuencia_Hz_=_135094.13148736578

Tiempo_(s)	Campo_(V.s)	Magnetizacion_(V.s)	Campo_(kA/m)	Magnetizacion_(A/m)
0.000000e+00	-5.511087e-06	-1.268637e-09	-3.838466e+01	-8.313038e+01
1.000000e-08	-5.511430e-06	-1.271861e-09	-3.838705e+01	-8.309452e+01
2.000000e-08	-5.511460e-06	-1.274845e-09	-3.838726e+01	-8.306158e+01
3.000000e-08	-5.511122e-06	-1.274369e-09	-3.838490e+01	-8.303166e+01
4.000000e-08	-5.510325e-06	-1.269312e-09	-3.837936e+01	-8.300480e+01
5.000000e-08	-5.508872e-06	-1.256009e-09	-3.836923e+01	-8.298101e+01
6.000000e-08	-5.506794e-06	-1.242667e-09	-3.835476e+01	-8.296027e+01
7.000000e-08	-5.504197e-06	-1.257674e-09	-3.833668e+01	-8.294249e+01
8.000000e-08	-5.501077e-06	-1.307677e-09	-3.831495e+01	-8.292759e+01
9.000000e-08	-5.497444e-06	-1.347296e-09	-3.828964e+01	-8.291541e+01
1.000000e-07	-5.493383e-06	-1.329368e-09	-3.826136e+01	-8.290578e+01
1.100000e-07	-5.489088e-06	-1.240125e-09	-3.823144e+01	-8.289849e+01
1.200000e-07	-5.484656e-06	-1.183845e-09	-3.820057e+01	-8.289328e+01
1.300000e-07	-5.479942e-06	-1.295475e-09	-3.816774e+01	-8.288987e+01
1.400000e-07	-5.474752e-06	-1.304440e-09	-3.813159e+01	-8.288795e+01
1.500000e-07	-5.469153e-06	-1.258040e-09	-3.809259e+01	-8.288716e+01
1.600000e-07	-5.463307e-06	-1.199100e-09	-3.805187e+01	-8.288714e+01
1.700000e-07	-5.457146e-06	-1.297024e-09	-3.800896e+01	-8.288748e+01
1.800000e-07	-5.450508e-06	-1.347060e-09	-3.796273e+01	-8.288776e+01
1.900000e-07	-5.443459e-06	-1.244964e-09	-3.791364e+01	-8.288754e+01
2.000000e-07	-5.436108e-06	-1.194726e-09	-3.786243e+01	-8.288637e+01
2.100000e-07	-5.428471e-06	-1.245001e-09	-3.780924e+01	-8.288375e+01
2.200000e-07	-5.420517e-06	-1.350198e-09	-3.775384e+01	-8.287921e+01
2.300000e-07	-5.412313e-06	-1.307573e-09	-3.769670e+01	-8.287225e+01
2.400000e-07	-5.403738e-06	-1.281569e-09	-3.763698e+01	-8.286237e+01
2.500000e-07	-5.394514e-06	-1.276348e-09	-3.757273e+01	-8.284907e+01
2.600000e-07	-5.384622e-06	-1.326922e-09	-3.750384e+01	-8.283186e+01
2.700000e-07	-5.374143e-06	-1.268049e-09	-3.743085e+01	-8.281022e+01
2.800000e-07	-5.363212e-06	-1.260408e-09	-3.735472e+01	-8.278369e+01
2.900000e-07	-5.351755e-06	-1.291712e-09	-3.727492e+01	-8.275178e+01
3.000000e-07	-5.339894e-06	-1.336898e-09	-3.719231e+01	-8.271403e+01
3.100000e-07	-5.327772e-06	-1.286570e-09	-3.710787e+01	-8.267000e+01
3.200000e-07	-5.315138e-06	-1.270292e-09	-3.701988e+01	-8.261927e+01
3.300000e-07	-5.302019e-06	-1.294136e-09	-3.692851e+01	-8.256143e+01
3.400000e-07	-5.288654e-06	-1.307095e-09	-3.683542e+01	-8.249612e+01
3.500000e-07	-5.274892e-06	-1.271455e-09	-3.673957e+01	-8.242299e+01
3.600000e-07	-5.260667e-06	-1.268284e-09	-3.664049e+01	-8.234172e+01
3.700000e-07	-5.246024e-06	-1.300970e-09	-3.653850e+01	-8.225204e+01
3.800000e-07	-5.230910e-06	-1.305939e-09	-3.643324e+01	-8.215369e+01
3.900000e-07	-5.215259e-06	-1.271246e-09	-3.632422e+01	-8.204645e+01
4.000000e-07	-5.199189e-06	-1.263869e-09	-3.621230e+01	-8.193016e+01
4.100000e-07	-5.182722e-06	-1.286670e-09	-3.609760e+01	-8.180466e+01
4.200000e-07	-5.165790e-06	-1.255332e-09	-3.597967e+01	-8.166987e+01
4.300000e-07	-5.148514e-06	-1.242139e-09	-3.585935e+01	-8.152571e+01
4.400000e-07	-5.130939e-06	-1.278060e-09	-3.573693e+01	-8.137216e+01
4.500000e-07	-5.112982e-06	-1.299425e-09	-3.561187e+01	-8.120922e+01
4.600000e-07	-5.094575e-06	-1.227487e-09	-3.548366e+01	-8.103696e+01
4.700000e-07	-5.075789e-06	-1.240460e-09	-3.535281e+01	-8.085545e+01
4.800000e-07	-5.056693e-06	-1.277045e-09	-3.521981e+01	-8.066482e+01
4.900000e-07	-5.037336e-06	-1.254021e-09	-3.508499e+01	-8.046522e+01
5.000000e-07	-5.017760e-06	-1.208586e-09	-3.494865e+01	-8.025683e+01
5.100000e-07	-4.997985e-06	-1.261020e-09	-3.481091e+01	-8.003989e+01
5.200000e-07	-4.977854e-06	-1.246311e-09	-3.467070e+01	-7.981463e+01
5.300000e-07	-4.957338e-06	-1.217238e-09	-3.452781e+01	-7.958133e+01
5.400000e-07	-4.936479e-06	-1.247033e-09	-3.438252e+01	-7.934028e+01
5.500000e-07	-4.915281e-06	-1.268780e-09	-3.423488e+01	-7.909182e+01
5.600000e-07	-4.893768e-06	-1.191954e-09	-3.408504e+01	-7.883626e+01
5.700000e-07	-4.871989e-06	-1.203852e-09	-3.393335e+01	-7.857398e+01
5.800000e-07	-4.849898e-06	-1.249708e-09	-3.377949e+01	-7.830534e+01
5.900000e-07	-4.827338e-06	-1.216867e-09	-3.362236e+01	-7.803071e+01
6.000000e-07	-4.804393e-06	-1.182655e-09	-3.346255e+01	-7.775048e+01
6.100000e-07	-4.781310e-06	-1.227838e-09	-3.330177e+01	-7.746504e+01
6.200000e-07	-4.757965e-06	-1.208546e-09	-3.313918e+01	-7.717479e+01
6.300000e-07	-4.734182e-06	-1.166458e-09	-3.297352e+01	-7.688010e+01
6.400000e-07	-4.710113e-06	-1.192025e-09	-3.280588e+01	-7.658137e+01
6.500000e-07	-4.685774e-06	-1.200964e-09	-3.263637e+01	-7.627897e+01
6.600000e-07	-4.661046e-06	-1.164997e-09	-3.246414e+01	-7.597327e+01
6.700000e-07	-4.635795e-06	-1.170732e-09	-3.228827e+01	-7.566463e+01
6.800000e-07	-4.610047e-06	-1.183622e-09	-3.210893e+01	-7.535337e+01
6.900000e-07	-4.583818e-06	-1.150264e-09	-3.192624e+01	-7.503983e+01
7.000000e-07	-4.557106e-06	-1.148558e-09	-3.174020e+01	-7.472430e+01
7.100000e-07	-4.530050e-06	-1.158582e-09	-3.155175e+01	-7.440706e+01
7.200000e-07	-4.502689e-06	-1.141593e-09	-3.136118e+01	-7.408837e+01
7.300000e-07	-4.475118e-06	-1.129008e-09	-3.116915e+01	-7.376846e+01
7.400000e-07	-4.447388e-06	-1.142988e-09	-3.097601e+01	-7.344752e+01
7.500000e-07	-4.419399e-06	-1.123448e-09	-3.078107e+01	-7.312575e+01
7.600000e-07	-4.391180e-06	-1.109664e-09	-3.058452e+01	-7.280329e+01
7.700000e-07	-4.362677e-06	-1.104859e-09	-3.038600e+01	-7.248025e+01
7.800000e-07	-4.333827e-06	-1.097414e-09	-3.018506e+01	-7.215673e+01
7.900000e-07	-4.304728e-06	-1.080830e-09	-2.998239e+01	-7.183279e+01
8.000000e-07	-4.275327e-06	-1.092037e-09	-2.977761e+01	-7.150846e+01
8.100000e-07	-4.245565e-06	-1.082162e-09	-2.957031e+01	-7.118374e+01
8.200000e-07	-4.215535e-06	-1.066890e-09	-2.936116e+01	-7.085861e+01
8.300000e-07	-4.185260e-06	-1.062202e-09	-2.915029e+01	-7.053302e+01
8.400000e-07	-4.154748e-06	-1.063641e-09	-2.893778e+01	-7.020689e+01
8.500000e-07	-4.123856e-06	-1.041047e-09	-2.872261e+01	-6.988011e+01
8.600000e-07	-4.092625e-06	-1.034458e-09	-2.850509e+01	-6.955256e+01
8.700000e-07	-4.061237e-06	-1.034191e-09	-2.828647e+01	-6.922409e+01
8.800000e-07	-4.029652e-06	-1.026346e-09	-2.806648e+01	-6.889454e+01
8.900000e-07	-3.997881e-06	-1.016277e-09	-2.784520e+01	-6.856372e+01
9.000000e-07	-3.965921e-06	-1.018804e-09	-2.762260e+01	-6.823143e+01
9.100000e-07	-3.933736e-06	-1.008404e-09	-2.739843e+01	-6.789745e+01
9.200000e-07	-3.901279e-06	-9.960873e-10	-2.717237e+01	-6.756155e+01
9.300000e-07	-3.868440e-06	-9.953005e-10	-2.694364e+01	-6.722352e+01
9.400000e-07	-3.835090e-06	-9.923888e-10	-2.671136e+01	-6.688309e+01
9.500000e-07	-3.801295e-06	-9.806342e-10	-2.647598e+01	-6.654003e+01
9.600000e-07	-3.767105e-06	-9.761639e-10	-2.623785e+01	-6.619409e+01
9.700000e-07	-3.732422e-06	-9.733811e-10	-2.599628e+01	-6.584502e+01
9.800000e-07	-3.697401e-06	-9.570827e-10	-2.575236e+01	-6.549259e+01
9.900000e-07	-3.662194e-06	-9.475381e-10	-2.550714e+01	-6.513654e+01
1.000000e-06	-3.626717e-06	-9.460643e-10	-2.526004e+01	-6.477665e+01
1.010000e-06	-3.591035e-06	-9.417808e-10	-2.501152e+01	-6.441270e+01
1.020000e-06	-3.555282e-06	-9.325660e-10	-2.476250e+01	-6.404447e+01
1.030000e-06	-3.519410e-06	-9.340461e-10	-2.451266e+01	-6.367178e+01
1.040000e-06	-3.483288e-06	-9.261768e-10	-2.426106e+01	-6.329442e+01
1.050000e-06	-3.446857e-06	-9.150246e-10	-2.400732e+01	-6.291224e+01
1.060000e-06	-3.410138e-06	-9.045260e-10	-2.375158e+01	-6.252508e+01
1.070000e-06	-3.373117e-06	-8.971361e-10	-2.349372e+01	-6.213282e+01
1.080000e-06	-3.335844e-06	-8.832201e-10	-2.323412e+01	-6.173533e+01
1.090000e-06	-3.298417e-06	-8.785668e-10	-2.297344e+01	-6.133252e+01
1.100000e-06	-3.260714e-06	-8.744863e-10	-2.271084e+01	-6.092432e+01
1.110000e-06	-3.222770e-06	-8.689568e-10	-2.244656e+01	-6.051066e+01
1.120000e-06	-3.184736e-06	-8.606588e-10	-2.218165e+01	-6.009152e+01
1.130000e-06	-3.146478e-06	-8.590226e-10	-2.191519e+01	-5.966687e+01
1.140000e-06	-3.107907e-06	-8.511154e-10	-2.164654e+01	-5.923672e+01
1.150000e-06	-3.069153e-06	-8.410766e-10	-2.137662e+01	-5.880108e+01
1.160000e-06	-3.030235e-06	-8.314361e-10	-2.110556e+01	-5.835999e+01
1.170000e-06	-2.991153e-06	-8.258388e-10	-2.083335e+01	-5.791350e+01
1.180000e-06	-2.951960e-06	-8.194517e-10	-2.056037e+01	-5.746167e+01
1.190000e-06	-2.912644e-06	-8.150905e-10	-2.028653e+01	-5.700458e+01
1.200000e-06	-2.873136e-06	-8.101676e-10	-2.001136e+01	-5.654231e+01
1.210000e-06	-2.833449e-06	-8.048016e-10	-1.973494e+01	-5.607496e+01
1.220000e-06	-2.793680e-06	-7.993009e-10	-1.945795e+01	-5.560263e+01
1.230000e-06	-2.753755e-06	-7.937189e-10	-1.917987e+01	-5.512542e+01
1.240000e-06	-2.713609e-06	-7.859657e-10	-1.890026e+01	-5.464344e+01
1.250000e-06	-2.673232e-06	-7.775186e-10	-1.861903e+01	-5.415679e+01
1.260000e-06	-2.632590e-06	-7.706802e-10	-1.833596e+01	-5.366557e+01
1.270000e-06	-2.591677e-06	-7.594580e-10	-1.805101e+01	-5.316987e+01
1.280000e-06	-2.550392e-06	-7.502538e-10	-1.776345e+01	-5.266978e+01
1.290000e-06	-2.508830e-06	-7.442765e-10	-1.747397e+01	-5.216538e+01
1.300000e-06	-2.467089e-06	-7.382544e-10	-1.718325e+01	-5.165671e+01
1.310000e-06	-2.424894e-06	-7.293844e-10	-1.688936e+01	-5.114384e+01
1.320000e-06	-2.382433e-06	-7.206331e-10	-1.659362e+01	-5.062677e+01
1.330000e-06	-2.339867e-06	-7.105341e-10	-1.629715e+01	-5.010552e+01
1.340000e-06	-2.297020e-06	-7.015089e-10	-1.599872e+01	-4.958006e+01
1.350000e-06	-2.253957e-06	-6.934926e-10	-1.569878e+01	-4.905035e+01
1.360000e-06	-2.210696e-06	-6.852661e-10	-1.539748e+01	-4.851631e+01
1.370000e-06	-2.167271e-06	-6.751075e-10	-1.509502e+01	-4.797785e+01
1.380000e-06	-2.123805e-06	-6.695158e-10	-1.479228e+01	-4.743484e+01
1.390000e-06	-2.080336e-06	-6.634046e-10	-1.448952e+01	-4.688711e+01
1.400000e-06	-2.036708e-06	-6.554994e-10	-1.418565e+01	-4.633447e+01
1.410000e-06	-1.992854e-06	-6.463655e-10	-1.388020e+01	-4.577669e+01
1.420000e-06	-1.948890e-06	-6.397966e-10	-1.357400e+01	-4.521351e+01
1.430000e-06	-1.904939e-06	-6.311186e-10	-1.326788e+01	-4.464464e+01
1.440000e-06	-1.860979e-06	-6.232163e-10	-1.296170e+01	-4.406975e+01
1.450000e-06	-1.816916e-06	-6.141100e-10	-1.265480e+01	-4.348848e+01
1.460000e-06	-1.772700e-06	-6.033950e-10	-1.234684e+01	-4.290044e+01
1.470000e-06	-1.728353e-06	-5.903764e-10	-1.203796e+01	-4.230520e+01
1.480000e-06	-1.683916e-06	-5.782079e-10	-1.172846e+01	-4.170232e+01
1.490000e-06	-1.639295e-06	-5.641117e-10	-1.141767e+01	-4.109131e+01
1.500000e-06	-1.594520e-06	-5.525702e-10	-1.110581e+01	-4.047167e+01
1.510000e-06	-1.549625e-06	-5.474024e-10	-1.079312e+01	-3.984286e+01
1.520000e-06	-1.504624e-06	-5.424377e-10	-1.047969e+01	-3.920434e+01
1.530000e-06	-1.459538e-06	-5.315405e-10	-1.016567e+01	-3.855553e+01
1.540000e-06	-1.414380e-06	-5.178837e-10	-9.851145e+00	-3.789585e+01
1.550000e-06	-1.369164e-06	-5.024955e-10	-9.536216e+00	-3.722469e+01
1.560000e-06	-1.323813e-06	-4.880907e-10	-9.220340e+00	-3.654146e+01
1.570000e-06	-1.278320e-06	-4.752418e-10	-8.903483e+00	-3.584553e+01
1.580000e-06	-1.232669e-06	-4.640739e-10	-8.585530e+00	-3.513629e+01
1.590000e-06	-1.186950e-06	-4.562979e-10	-8.267091e+00	-3.441314e+01
1.600000e-06	-1.141246e-06	-4.481673e-10	-7.948766e+00	-3.367546e+01
1.610000e-06	-1.095421e-06	-4.388949e-10	-7.629597e+00	-3.292265e+01
1.620000e-06	-1.049518e-06	-4.272335e-10	-7.309883e+00	-3.215413e+01
1.630000e-06	-1.003655e-06	-4.179135e-10	-6.990448e+00	-3.136935e+01
1.640000e-06	-9.577613e-07	-4.095686e-10	-6.670797e+00	-3.056775e+01
1.650000e-06	-9.117451e-07	-3.980113e-10	-6.350295e+00	-2.974883e+01
1.660000e-06	-8.655796e-07	-3.835184e-10	-6.028753e+00	-2.891210e+01
1.670000e-06	-8.193566e-07	-3.699608e-10	-5.706810e+00	-2.805711e+01
1.680000e-06	-7.730956e-07	-3.551057e-10	-5.384603e+00	-2.718345e+01
1.690000e-06	-7.267744e-07	-3.413855e-10	-5.061976e+00	-2.629076e+01
1.700000e-06	-6.803775e-07	-3.292999e-10	-4.738822e+00	-2.537871e+01
1.710000e-06	-6.339148e-07	-3.165545e-10	-4.415210e+00	-2.444703e+01
1.720000e-06	-5.874682e-07	-3.010556e-10	-4.091710e+00	-2.349551e+01
1.730000e-06	-5.409971e-07	-2.836882e-10	-3.768039e+00	-2.252398e+01
1.740000e-06	-4.944626e-07	-2.625298e-10	-3.443926e+00	-2.153233e+01
1.750000e-06	-4.478616e-07	-2.444699e-10	-3.119352e+00	-2.052052e+01
1.760000e-06	-4.011725e-07	-2.303515e-10	-2.794162e+00	-1.948856e+01
1.770000e-06	-3.544112e-07	-2.208238e-10	-2.468470e+00	-1.843655e+01
1.780000e-06	-3.076751e-07	-2.107047e-10	-2.142954e+00	-1.736461e+01
1.790000e-06	-2.609782e-07	-1.981463e-10	-1.817711e+00	-1.627298e+01
1.800000e-06	-2.142770e-07	-1.810110e-10	-1.492437e+00	-1.516192e+01
1.810000e-06	-1.675543e-07	-1.609829e-10	-1.167014e+00	-1.403179e+01
1.820000e-06	-1.208184e-07	-1.425750e-10	-8.414989e-01	-1.288300e+01
1.830000e-06	-7.408722e-08	-1.286037e-10	-5.160167e-01	-1.171604e+01
1.840000e-06	-2.738595e-08	-1.204374e-10	-1.907429e-01	-1.053145e+01
1.850000e-06	1.930675e-08	-1.100301e-10	1.344713e-01	-9.329838e+00
1.860000e-06	6.604878e-08	-9.604174e-11	4.600290e-01	-8.111891e+00
1.870000e-06	1.128481e-07	-7.875676e-11	7.859859e-01	-6.878343e+00
1.880000e-06	1.596415e-07	-5.587766e-11	1.111902e+00	-5.629988e+00
1.890000e-06	2.064934e-07	-3.115563e-11	1.438224e+00	-4.367679e+00
1.900000e-06	2.533617e-07	-8.402975e-12	1.764662e+00	-3.092321e+00
1.910000e-06	3.001228e-07	9.450641e-12	2.090352e+00	-1.804868e+00
1.920000e-06	3.468813e-07	2.007260e-11	2.416025e+00	-5.063232e-01
1.930000e-06	3.935707e-07	2.941534e-11	2.741216e+00	8.022708e-01
1.940000e-06	4.401678e-07	4.124886e-11	3.065764e+00	2.119832e+00
1.950000e-06	4.866869e-07	6.078772e-11	3.389769e+00	3.445243e+00
1.960000e-06	5.330712e-07	8.313337e-11	3.712836e+00	4.777359e+00
1.970000e-06	5.794397e-07	1.067124e-10	4.035792e+00	6.115009e+00
1.980000e-06	6.258053e-07	1.284466e-10	4.358728e+00	7.457001e+00
1.990000e-06	6.721150e-07	1.485072e-10	4.681274e+00	8.802129e+00
2.000000e-06	7.184132e-07	1.628661e-10	5.003741e+00	1.014918e+01
2.010000e-06	7.647057e-07	1.751147e-10	5.326167e+00	1.149692e+01
2.020000e-06	8.108962e-07	1.916485e-10	5.647884e+00	1.284413e+01
2.030000e-06	8.570132e-07	2.118865e-10	5.969088e+00	1.418960e+01
2.040000e-06	9.031199e-07	2.337572e-10	6.290220e+00	1.553212e+01
2.050000e-06	9.492111e-07	2.563713e-10	6.611245e+00	1.687048e+01
2.060000e-06	9.952213e-07	2.787467e-10	6.931706e+00	1.820351e+01
2.070000e-06	1.041115e-06	3.005948e-10	7.251353e+00	1.953006e+01
2.080000e-06	1.086986e-06	3.209484e-10	7.570847e+00	2.084900e+01
2.090000e-06	1.132768e-06	3.389441e-10	7.889715e+00	2.215924e+01
2.100000e-06	1.178386e-06	3.583657e-10	8.207443e+00	2.345972e+01
2.110000e-06	1.223922e-06	3.798855e-10	8.524604e+00	2.474941e+01
2.120000e-06	1.269390e-06	3.975902e-10	8.841291e+00	2.602735e+01
2.130000e-06	1.314772e-06	4.131176e-10	9.157376e+00	2.729259e+01
2.140000e-06	1.360036e-06	4.332171e-10	9.472636e+00	2.854427e+01
2.150000e-06	1.405272e-06	4.538670e-10	9.787704e+00	2.978153e+01
2.160000e-06	1.450447e-06	4.727082e-10	1.010235e+01	3.100362e+01
2.170000e-06	1.495516e-06	4.901933e-10	1.041625e+01	3.220980e+01
2.180000e-06	1.540488e-06	5.074797e-10	1.072948e+01	3.339941e+01
2.190000e-06	1.585314e-06	5.213591e-10	1.104170e+01	3.457184e+01
2.200000e-06	1.630018e-06	5.345106e-10	1.135306e+01	3.572654e+01
2.210000e-06	1.674518e-06	5.489283e-10	1.166300e+01	3.686302e+01
2.220000e-06	1.718921e-06	5.654763e-10	1.197226e+01	3.798085e+01
2.230000e-06	1.763210e-06	5.834322e-10	1.228074e+01	3.907965e+01
2.240000e-06	1.807297e-06	5.978493e-10	1.258780e+01	4.015912e+01
2.250000e-06	1.851271e-06	6.085750e-10	1.289408e+01	4.121900e+01
2.260000e-06	1.895184e-06	6.185412e-10	1.319993e+01	4.225908e+01
2.270000e-06	1.939094e-06	6.310132e-10	1.350577e+01	4.327922e+01
2.280000e-06	1.982948e-06	6.480471e-10	1.381121e+01	4.427934e+01
2.290000e-06	2.026669e-06	6.648664e-10	1.411572e+01	4.525938e+01
2.300000e-06	2.070320e-06	6.816200e-10	1.441976e+01	4.621937e+01
2.310000e-06	2.113877e-06	6.960875e-10	1.472313e+01	4.715934e+01
2.320000e-06	2.157363e-06	7.096858e-10	1.502601e+01	4.807942e+01
2.330000e-06	2.200768e-06	7.208083e-10	1.532833e+01	4.897973e+01
2.340000e-06	2.244021e-06	7.290238e-10	1.562958e+01	4.986045e+01
2.350000e-06	2.287063e-06	7.402645e-10	1.592937e+01	5.072180e+01
2.360000e-06	2.329934e-06	7.571802e-10	1.622797e+01	5.156403e+01
2.370000e-06	2.372605e-06	7.743772e-10	1.652517e+01	5.238741e+01
2.380000e-06	2.414923e-06	7.884894e-10	1.681991e+01	5.319224e+01
2.390000e-06	2.456932e-06	8.024175e-10	1.711251e+01	5.397885e+01
2.400000e-06	2.498612e-06	8.125813e-10	1.740280e+01	5.474758e+01
2.410000e-06	2.539968e-06	8.191278e-10	1.769085e+01	5.549879e+01
2.420000e-06	2.581075e-06	8.256568e-10	1.797716e+01	5.623286e+01
2.430000e-06	2.621898e-06	8.346043e-10	1.826149e+01	5.695016e+01
2.440000e-06	2.662433e-06	8.461312e-10	1.854381e+01	5.765110e+01
2.450000e-06	2.702730e-06	8.583931e-10	1.882449e+01	5.833606e+01
2.460000e-06	2.742864e-06	8.694979e-10	1.910402e+01	5.900544e+01
2.470000e-06	2.782880e-06	8.820294e-10	1.938273e+01	5.965964e+01
2.480000e-06	2.822753e-06	8.945557e-10	1.966044e+01	6.029906e+01
2.490000e-06	2.862491e-06	9.035414e-10	1.993722e+01	6.092408e+01
2.500000e-06	2.902087e-06	9.107431e-10	2.021301e+01	6.153508e+01
2.510000e-06	2.941545e-06	9.205995e-10	2.048783e+01	6.213244e+01
2.520000e-06	2.980795e-06	9.301095e-10	2.076121e+01	6.271653e+01
2.530000e-06	3.019879e-06	9.382784e-10	2.103342e+01	6.328769e+01
2.540000e-06	3.058704e-06	9.472842e-10	2.130384e+01	6.384626e+01
2.550000e-06	3.097324e-06	9.557718e-10	2.157283e+01	6.439258e+01
2.560000e-06	3.135810e-06	9.628272e-10	2.184088e+01	6.492696e+01
2.570000e-06	3.174049e-06	9.717965e-10	2.210722e+01	6.544968e+01
2.580000e-06	3.212047e-06	9.809336e-10	2.237188e+01	6.596105e+01
2.590000e-06	3.249798e-06	9.875735e-10	2.263481e+01	6.646132e+01
2.600000e-06	3.287404e-06	9.933067e-10	2.289673e+01	6.695076e+01
2.610000e-06	3.324800e-06	9.988309e-10	2.315720e+01	6.742961e+01
2.620000e-06	3.361917e-06	1.000418e-09	2.341571e+01	6.789809e+01
2.630000e-06	3.398722e-06	1.000896e-09	2.367206e+01	6.835641e+01
2.640000e-06	3.435209e-06	1.005985e-09	2.392620e+01	6.880479e+01
2.650000e-06	3.471428e-06	1.013616e-09	2.417846e+01	6.924341e+01
2.660000e-06	3.507479e-06	1.021916e-09	2.442955e+01	6.967246e+01
2.670000e-06	3.543377e-06	1.029416e-09	2.467958e+01	7.009211e+01
2.680000e-06	3.579094e-06	1.035873e-09	2.492835e+01	7.050252e+01
2.690000e-06	3.614667e-06	1.041438e-09	2.517612e+01	7.090385e+01
2.700000e-06	3.650188e-06	1.046795e-09	2.542352e+01	7.129625e+01
2.710000e-06	3.685614e-06	1.050779e-09	2.567027e+01	7.167988e+01
2.720000e-06	3.720757e-06	1.051907e-09	2.591503e+01	7.205487e+01
2.730000e-06	3.755545e-06	1.053863e-09	2.615733e+01	7.242136e+01
2.740000e-06	3.789999e-06	1.060009e-09	2.639730e+01	7.277950e+01
2.750000e-06	3.824021e-06	1.065627e-09	2.663426e+01	7.312943e+01
2.760000e-06	3.857505e-06	1.070504e-09	2.686748e+01	7.347129e+01
2.770000e-06	3.890553e-06	1.075787e-09	2.709766e+01	7.380522e+01
2.780000e-06	3.923187e-06	1.079718e-09	2.732496e+01	7.413138e+01
2.790000e-06	3.955432e-06	1.083944e-09	2.754955e+01	7.444990e+01
2.800000e-06	3.987448e-06	1.089887e-09	2.777253e+01	7.476094e+01
2.810000e-06	4.019256e-06	1.094748e-09	2.799407e+01	7.506466e+01
2.820000e-06	4.050890e-06	1.098679e-09	2.821440e+01	7.536123e+01
2.830000e-06	4.082412e-06	1.104753e-09	2.843396e+01	7.565080e+01
2.840000e-06	4.113725e-06	1.112340e-09	2.865205e+01	7.593354e+01
2.850000e-06	4.144681e-06	1.119894e-09	2.886766e+01	7.620964e+01
2.860000e-06	4.175300e-06	1.126366e-09	2.908092e+01	7.647927e+01
2.870000e-06	4.205653e-06	1.130959e-09	2.929233e+01	7.674262e+01
2.880000e-06	4.235720e-06	1.133992e-09	2.950175e+01	7.699986e+01
2.890000e-06	4.265540e-06	1.136612e-09	2.970944e+01	7.725120e+01
2.900000e-06	4.295150e-06	1.140487e-09	2.991567e+01	7.749681e+01
