# Temperatura_=_10.8
# Concentracion g/m^3_=_1620.0
# C_Vs_to_Am_M_A/Vsm_=_65563218390.804596
# pendiente_HvsI_1/m_=_3716.3
# ordenada_HvsI_A/m_=_1297.0
# frecuencia_Hz_=_135087.3788517221

Tiempo_(s)	Campo_(V.s)	Magnetizacion_(V.s)	Campo_(kA/m)	Magnetizacion_(A/m)
0.000000e+00	-5.504431e-06	-1.481977e-09	-3.838134e+01	-9.724466e+01
1.000000e-08	-5.504536e-06	-1.480680e-09	-3.838207e+01	-9.724328e+01
2.000000e-08	-5.504398e-06	-1.483834e-09	-3.838110e+01	-9.723967e+01
3.000000e-08	-5.503787e-06	-1.488849e-09	-3.837685e+01	-9.723368e+01
4.000000e-08	-5.502657e-06	-1.492197e-09	-3.836897e+01	-9.722520e+01
5.000000e-08	-5.500972e-06	-1.492329e-09	-3.835721e+01	-9.721408e+01
6.000000e-08	-5.498674e-06	-1.476879e-09	-3.834119e+01	-9.720017e+01
7.000000e-08	-5.495800e-06	-1.458963e-09	-3.832115e+01	-9.718334e+01
8.000000e-08	-5.492418e-06	-1.459986e-09	-3.829757e+01	-9.716345e+01
9.000000e-08	-5.488570e-06	-1.549995e-09	-3.827074e+01	-9.714036e+01
1.000000e-07	-5.484355e-06	-1.620900e-09	-3.824135e+01	-9.711394e+01
1.100000e-07	-5.479749e-06	-1.513334e-09	-3.820924e+01	-9.708404e+01
1.200000e-07	-5.474892e-06	-1.289780e-09	-3.817537e+01	-9.705056e+01
1.300000e-07	-5.470029e-06	-1.430066e-09	-3.814145e+01	-9.701335e+01
1.400000e-07	-5.464788e-06	-1.544155e-09	-3.810491e+01	-9.697230e+01
1.500000e-07	-5.459000e-06	-1.540076e-09	-3.806455e+01	-9.692731e+01
1.600000e-07	-5.452856e-06	-1.313948e-09	-3.802171e+01	-9.687827e+01
1.700000e-07	-5.446464e-06	-1.463335e-09	-3.797714e+01	-9.682508e+01
1.800000e-07	-5.439488e-06	-1.617570e-09	-3.792850e+01	-9.676765e+01
1.900000e-07	-5.431980e-06	-1.557183e-09	-3.787615e+01	-9.670588e+01
2.000000e-07	-5.424327e-06	-1.345474e-09	-3.782278e+01	-9.663971e+01
2.100000e-07	-5.416505e-06	-1.367844e-09	-3.776824e+01	-9.656906e+01
2.200000e-07	-5.408412e-06	-1.511743e-09	-3.771182e+01	-9.649385e+01
2.300000e-07	-5.400018e-06	-1.498135e-09	-3.765328e+01	-9.641403e+01
2.400000e-07	-5.391187e-06	-1.434871e-09	-3.759171e+01	-9.632953e+01
2.500000e-07	-5.381650e-06	-1.405579e-09	-3.752521e+01	-9.624030e+01
2.600000e-07	-5.371196e-06	-1.493624e-09	-3.745231e+01	-9.614628e+01
2.700000e-07	-5.360184e-06	-1.427451e-09	-3.737553e+01	-9.604742e+01
2.800000e-07	-5.349009e-06	-1.424595e-09	-3.729761e+01	-9.594367e+01
2.900000e-07	-5.337402e-06	-1.406356e-09	-3.721667e+01	-9.583498e+01
3.000000e-07	-5.325295e-06	-1.494087e-09	-3.713226e+01	-9.572131e+01
3.100000e-07	-5.312803e-06	-1.423742e-09	-3.704515e+01	-9.560260e+01
3.200000e-07	-5.299873e-06	-1.435387e-09	-3.695499e+01	-9.547880e+01
3.300000e-07	-5.286488e-06	-1.383587e-09	-3.686166e+01	-9.534987e+01
3.400000e-07	-5.272900e-06	-1.465610e-09	-3.676691e+01	-9.521574e+01
3.500000e-07	-5.258979e-06	-1.427008e-09	-3.666985e+01	-9.507636e+01
3.600000e-07	-5.244582e-06	-1.421235e-09	-3.656946e+01	-9.493168e+01
3.700000e-07	-5.229661e-06	-1.402021e-09	-3.646541e+01	-9.478164e+01
3.800000e-07	-5.214193e-06	-1.483565e-09	-3.635756e+01	-9.462616e+01
3.900000e-07	-5.198114e-06	-1.403223e-09	-3.624545e+01	-9.446519e+01
4.000000e-07	-5.181552e-06	-1.367314e-09	-3.612996e+01	-9.429865e+01
4.100000e-07	-5.164769e-06	-1.447227e-09	-3.601294e+01	-9.412648e+01
4.200000e-07	-5.147682e-06	-1.460471e-09	-3.589379e+01	-9.394860e+01
4.300000e-07	-5.130223e-06	-1.337067e-09	-3.577205e+01	-9.376495e+01
4.400000e-07	-5.112435e-06	-1.395511e-09	-3.564802e+01	-9.357544e+01
4.500000e-07	-5.094365e-06	-1.516720e-09	-3.552203e+01	-9.338002e+01
4.600000e-07	-5.075915e-06	-1.379808e-09	-3.539338e+01	-9.317860e+01
4.700000e-07	-5.056922e-06	-1.312664e-09	-3.526094e+01	-9.297112e+01
4.800000e-07	-5.037550e-06	-1.456160e-09	-3.512587e+01	-9.275751e+01
4.900000e-07	-5.017983e-06	-1.450519e-09	-3.498943e+01	-9.253771e+01
5.000000e-07	-4.998213e-06	-1.301257e-09	-3.485157e+01	-9.231168e+01
5.100000e-07	-4.978250e-06	-1.409983e-09	-3.471238e+01	-9.207935e+01
5.200000e-07	-4.957955e-06	-1.447081e-09	-3.457086e+01	-9.184069e+01
5.300000e-07	-4.937265e-06	-1.318370e-09	-3.442660e+01	-9.159567e+01
5.400000e-07	-4.916210e-06	-1.341675e-09	-3.427978e+01	-9.134426e+01
5.500000e-07	-4.894833e-06	-1.480321e-09	-3.413072e+01	-9.108645e+01
5.600000e-07	-4.873089e-06	-1.338922e-09	-3.397911e+01	-9.082224e+01
5.700000e-07	-4.851024e-06	-1.305868e-09	-3.382525e+01	-9.055165e+01
5.800000e-07	-4.828676e-06	-1.435835e-09	-3.366942e+01	-9.027469e+01
5.900000e-07	-4.805951e-06	-1.403696e-09	-3.351097e+01	-8.999141e+01
6.000000e-07	-4.782840e-06	-1.272084e-09	-3.334982e+01	-8.970187e+01
6.100000e-07	-4.759431e-06	-1.377152e-09	-3.318660e+01	-8.940613e+01
6.200000e-07	-4.735770e-06	-1.386745e-09	-3.302161e+01	-8.910427e+01
6.300000e-07	-4.711904e-06	-1.290177e-09	-3.285520e+01	-8.879639e+01
6.400000e-07	-4.687811e-06	-1.319268e-09	-3.268720e+01	-8.848261e+01
6.500000e-07	-4.663413e-06	-1.381137e-09	-3.251708e+01	-8.816304e+01
6.600000e-07	-4.638461e-06	-1.287157e-09	-3.234310e+01	-8.783784e+01
6.700000e-07	-4.612961e-06	-1.296931e-09	-3.216528e+01	-8.750715e+01
6.800000e-07	-4.586895e-06	-1.356164e-09	-3.198353e+01	-8.717114e+01
6.900000e-07	-4.560282e-06	-1.311892e-09	-3.179797e+01	-8.682998e+01
7.000000e-07	-4.533292e-06	-1.273340e-09	-3.160977e+01	-8.648386e+01
7.100000e-07	-4.505932e-06	-1.321337e-09	-3.141900e+01	-8.613297e+01
7.200000e-07	-4.478321e-06	-1.296894e-09	-3.122647e+01	-8.577752e+01
7.300000e-07	-4.450539e-06	-1.256420e-09	-3.103275e+01	-8.541771e+01
7.400000e-07	-4.422633e-06	-1.290196e-09	-3.083817e+01	-8.505374e+01
7.500000e-07	-4.394588e-06	-1.292557e-09	-3.064261e+01	-8.468582e+01
7.600000e-07	-4.366330e-06	-1.259873e-09	-3.044558e+01	-8.431417e+01
7.700000e-07	-4.337687e-06	-1.265892e-09	-3.024585e+01	-8.393899e+01
7.800000e-07	-4.308639e-06	-1.273101e-09	-3.004331e+01	-8.356047e+01
7.900000e-07	-4.279240e-06	-1.237654e-09	-2.983831e+01	-8.317882e+01
8.000000e-07	-4.249583e-06	-1.241818e-09	-2.963152e+01	-8.279421e+01
8.100000e-07	-4.219716e-06	-1.244870e-09	-2.942326e+01	-8.240682e+01
8.200000e-07	-4.189546e-06	-1.226579e-09	-2.921290e+01	-8.201681e+01
8.300000e-07	-4.158990e-06	-1.213515e-09	-2.899983e+01	-8.162432e+01
8.400000e-07	-4.128006e-06	-1.237939e-09	-2.878379e+01	-8.122947e+01
8.500000e-07	-4.096762e-06	-1.212910e-09	-2.856593e+01	-8.083238e+01
8.600000e-07	-4.065399e-06	-1.195800e-09	-2.834724e+01	-8.043313e+01
8.700000e-07	-4.033865e-06	-1.198145e-09	-2.812736e+01	-8.003179e+01
8.800000e-07	-4.002191e-06	-1.201163e-09	-2.790651e+01	-7.962841e+01
8.900000e-07	-3.970366e-06	-1.173536e-09	-2.768459e+01	-7.922300e+01
9.000000e-07	-3.938214e-06	-1.181925e-09	-2.746040e+01	-7.881557e+01
9.100000e-07	-3.905777e-06	-1.177788e-09	-2.723423e+01	-7.840607e+01
9.200000e-07	-3.873069e-06	-1.157257e-09	-2.700616e+01	-7.799447e+01
9.300000e-07	-3.839849e-06	-1.144789e-09	-2.677453e+01	-7.758067e+01
9.400000e-07	-3.806154e-06	-1.157095e-09	-2.653958e+01	-7.716459e+01
9.500000e-07	-3.771996e-06	-1.136350e-09	-2.630140e+01	-7.674609e+01
9.600000e-07	-3.737344e-06	-1.120695e-09	-2.605978e+01	-7.632503e+01
9.700000e-07	-3.702427e-06	-1.125166e-09	-2.581631e+01	-7.590124e+01
9.800000e-07	-3.667246e-06	-1.123982e-09	-2.557100e+01	-7.547452e+01
9.900000e-07	-3.631797e-06	-1.105210e-09	-2.532382e+01	-7.504467e+01
1.000000e-06	-3.596224e-06	-1.104819e-09	-2.507578e+01	-7.461146e+01
1.010000e-06	-3.560480e-06	-1.101811e-09	-2.482654e+01	-7.417466e+01
1.020000e-06	-3.524562e-06	-1.084199e-09	-2.457609e+01	-7.373400e+01
1.030000e-06	-3.488579e-06	-1.077797e-09	-2.432519e+01	-7.328922e+01
1.040000e-06	-3.452459e-06	-1.078208e-09	-2.407333e+01	-7.284006e+01
1.050000e-06	-3.416061e-06	-1.067886e-09	-2.381953e+01	-7.238624e+01
1.060000e-06	-3.379286e-06	-1.054572e-09	-2.356311e+01	-7.192747e+01
1.070000e-06	-3.342160e-06	-1.056834e-09	-2.330424e+01	-7.146349e+01
1.080000e-06	-3.304792e-06	-1.048055e-09	-2.304368e+01	-7.099401e+01
1.090000e-06	-3.267179e-06	-1.035833e-09	-2.278141e+01	-7.051876e+01
1.100000e-06	-3.229372e-06	-1.027131e-09	-2.251779e+01	-7.003749e+01
1.110000e-06	-3.191352e-06	-1.021328e-09	-2.225268e+01	-6.954994e+01
1.120000e-06	-3.153131e-06	-1.003165e-09	-2.198618e+01	-6.905587e+01
1.130000e-06	-3.114762e-06	-9.994652e-10	-2.171863e+01	-6.855506e+01
1.140000e-06	-3.076186e-06	-9.950364e-10	-2.144965e+01	-6.804731e+01
1.150000e-06	-3.037457e-06	-9.877773e-10	-2.117960e+01	-6.753243e+01
1.160000e-06	-2.998550e-06	-9.756782e-10	-2.090831e+01	-6.701025e+01
1.170000e-06	-2.959394e-06	-9.734875e-10	-2.063528e+01	-6.648064e+01
1.180000e-06	-2.919998e-06	-9.629480e-10	-2.036058e+01	-6.594348e+01
1.190000e-06	-2.880459e-06	-9.533155e-10	-2.008489e+01	-6.539867e+01
1.200000e-06	-2.840829e-06	-9.418259e-10	-1.980855e+01	-6.484613e+01
1.210000e-06	-2.801010e-06	-9.355210e-10	-1.953090e+01	-6.428584e+01
1.220000e-06	-2.761047e-06	-9.235498e-10	-1.925225e+01	-6.371775e+01
1.230000e-06	-2.720874e-06	-9.177892e-10	-1.897213e+01	-6.314189e+01
1.240000e-06	-2.680493e-06	-9.106262e-10	-1.869056e+01	-6.255827e+01
1.250000e-06	-2.640047e-06	-9.008670e-10	-1.840854e+01	-6.196694e+01
1.260000e-06	-2.599449e-06	-8.894252e-10	-1.812546e+01	-6.136797e+01
1.270000e-06	-2.558533e-06	-8.792209e-10	-1.784015e+01	-6.076145e+01
1.280000e-06	-2.517218e-06	-8.692760e-10	-1.755208e+01	-6.014748e+01
1.290000e-06	-2.475581e-06	-8.607318e-10	-1.726175e+01	-5.952617e+01
1.300000e-06	-2.433616e-06	-8.504513e-10	-1.696913e+01	-5.889766e+01
1.310000e-06	-2.391420e-06	-8.406100e-10	-1.667491e+01	-5.826207e+01
1.320000e-06	-2.349050e-06	-8.319985e-10	-1.637948e+01	-5.761955e+01
1.330000e-06	-2.306382e-06	-8.231071e-10	-1.608196e+01	-5.697024e+01
1.340000e-06	-2.263408e-06	-8.125588e-10	-1.578230e+01	-5.631428e+01
1.350000e-06	-2.220230e-06	-8.003130e-10	-1.548124e+01	-5.565179e+01
1.360000e-06	-2.176926e-06	-7.892340e-10	-1.517929e+01	-5.498291e+01
1.370000e-06	-2.133472e-06	-7.799984e-10	-1.487629e+01	-5.430775e+01
1.380000e-06	-2.089856e-06	-7.731695e-10	-1.457216e+01	-5.362639e+01
1.390000e-06	-2.046175e-06	-7.632073e-10	-1.426758e+01	-5.293892e+01
1.400000e-06	-2.002444e-06	-7.537812e-10	-1.396266e+01	-5.224539e+01
1.410000e-06	-1.958646e-06	-7.417094e-10	-1.365726e+01	-5.154582e+01
1.420000e-06	-1.914821e-06	-7.329176e-10	-1.335168e+01	-5.084021e+01
1.430000e-06	-1.870907e-06	-7.204689e-10	-1.304547e+01	-5.012852e+01
1.440000e-06	-1.826805e-06	-7.088077e-10	-1.273796e+01	-4.941068e+01
1.450000e-06	-1.782564e-06	-6.972922e-10	-1.242948e+01	-4.868659e+01
1.460000e-06	-1.738234e-06	-6.865610e-10	-1.212037e+01	-4.795609e+01
1.470000e-06	-1.693777e-06	-6.713238e-10	-1.181038e+01	-4.721901e+01
1.480000e-06	-1.649137e-06	-6.573832e-10	-1.149911e+01	-4.647512e+01
1.490000e-06	-1.604442e-06	-6.458877e-10	-1.118746e+01	-4.572414e+01
1.500000e-06	-1.559748e-06	-6.390301e-10	-1.087582e+01	-4.496577e+01
1.510000e-06	-1.514861e-06	-6.291646e-10	-1.056284e+01	-4.419966e+01
1.520000e-06	-1.469766e-06	-6.180249e-10	-1.024839e+01	-4.342542e+01
1.530000e-06	-1.424603e-06	-6.021279e-10	-9.933479e+00	-4.264263e+01
1.540000e-06	-1.379364e-06	-5.853924e-10	-9.618041e+00	-4.185080e+01
1.550000e-06	-1.334033e-06	-5.671475e-10	-9.301956e+00	-4.104946e+01
1.560000e-06	-1.288612e-06	-5.528381e-10	-8.985240e+00	-4.023806e+01
1.570000e-06	-1.243054e-06	-5.391633e-10	-8.667573e+00	-3.941604e+01
1.580000e-06	-1.197395e-06	-5.302574e-10	-8.349205e+00	-3.858283e+01
1.590000e-06	-1.151679e-06	-5.226933e-10	-8.030438e+00	-3.773781e+01
1.600000e-06	-1.105903e-06	-5.113042e-10	-7.711251e+00	-3.688038e+01
1.610000e-06	-1.060066e-06	-4.952227e-10	-7.391637e+00	-3.600989e+01
1.620000e-06	-1.014165e-06	-4.790302e-10	-7.071575e+00	-3.512570e+01
1.630000e-06	-9.681058e-07	-4.681394e-10	-6.750415e+00	-3.422720e+01
1.640000e-06	-9.219669e-07	-4.565723e-10	-6.428697e+00	-3.331373e+01
1.650000e-06	-8.758220e-07	-4.440561e-10	-6.106938e+00	-3.238468e+01
1.660000e-06	-8.296328e-07	-4.296760e-10	-5.784870e+00	-3.143945e+01
1.670000e-06	-7.834256e-07	-4.135187e-10	-5.462675e+00	-3.047745e+01
1.680000e-06	-7.371105e-07	-3.951653e-10	-5.139729e+00	-2.949813e+01
1.690000e-06	-6.907611e-07	-3.822269e-10	-4.816544e+00	-2.850098e+01
1.700000e-06	-6.444543e-07	-3.711375e-10	-4.493656e+00	-2.748551e+01
1.710000e-06	-5.981234e-07	-3.582914e-10	-4.170599e+00	-2.645131e+01
1.720000e-06	-5.517195e-07	-3.382958e-10	-3.847033e+00	-2.539798e+01
1.730000e-06	-5.051813e-07	-3.170470e-10	-3.522532e+00	-2.432522e+01
1.740000e-06	-4.586049e-07	-2.950042e-10	-3.197763e+00	-2.323275e+01
1.750000e-06	-4.120692e-07	-2.745093e-10	-2.873279e+00	-2.212040e+01
1.760000e-06	-3.655163e-07	-2.591582e-10	-2.548675e+00	-2.098803e+01
1.770000e-06	-3.188794e-07	-2.478713e-10	-2.223485e+00	-1.983560e+01
1.780000e-06	-2.721744e-07	-2.354505e-10	-1.897819e+00	-1.866314e+01
1.790000e-06	-2.255155e-07	-2.205052e-10	-1.572476e+00	-1.747077e+01
1.800000e-06	-1.788570e-07	-2.004035e-10	-1.247135e+00	-1.625867e+01
1.810000e-06	-1.321636e-07	-1.805906e-10	-9.215513e-01	-1.502713e+01
1.820000e-06	-8.548273e-08	-1.635206e-10	-5.960546e-01	-1.377650e+01
1.830000e-06	-3.880307e-08	-1.492029e-10	-2.705663e-01	-1.250723e+01
1.840000e-06	7.769769e-09	-1.336730e-10	5.417710e-02	-1.121986e+01
1.850000e-06	5.432425e-08	-1.160613e-10	3.787925e-01	-9.914993e+00
1.860000e-06	1.010185e-07	-9.935412e-11	7.043824e-01	-8.593338e+00
1.870000e-06	1.476839e-07	-8.145975e-11	1.029771e+00	-7.255669e+00
1.880000e-06	1.943045e-07	-5.928581e-11	1.354848e+00	-5.902842e+00
1.890000e-06	2.409439e-07	-3.653865e-11	1.680055e+00	-4.535786e+00
1.900000e-06	2.875483e-07	-1.749354e-11	2.005019e+00	-3.155500e+00
1.910000e-06	3.340932e-07	1.763602e-13	2.329568e+00	-1.763050e+00
1.920000e-06	3.806354e-07	1.620645e-11	2.654097e+00	-3.595601e-01
1.930000e-06	4.272147e-07	3.134371e-11	2.978886e+00	1.053788e+00
1.940000e-06	4.736564e-07	5.052668e-11	3.302714e+00	2.475765e+00
1.950000e-06	5.200285e-07	7.380229e-11	3.626058e+00	3.905098e+00
1.960000e-06	5.664475e-07	9.632644e-11	3.949729e+00	5.340476e+00
1.970000e-06	6.127862e-07	1.168576e-10	4.272840e+00	6.780560e+00
1.980000e-06	6.590513e-07	1.344719e-10	4.595437e+00	8.223986e+00
1.990000e-06	7.053817e-07	1.509309e-10	4.918490e+00	9.669376e+00
2.000000e-06	7.516804e-07	1.656078e-10	5.241322e+00	1.111534e+01
2.010000e-06	7.978114e-07	1.856588e-10	5.562985e+00	1.256049e+01
2.020000e-06	8.438730e-07	2.110668e-10	5.884164e+00	1.400345e+01
2.030000e-06	8.899329e-07	2.360466e-10	6.205330e+00	1.544283e+01
2.040000e-06	9.359699e-07	2.583552e-10	6.526337e+00	1.687730e+01
2.050000e-06	9.819358e-07	2.780140e-10	6.846848e+00	1.830552e+01
2.060000e-06	1.027813e-06	2.934158e-10	7.166741e+00	1.972620e+01
2.070000e-06	1.073612e-06	3.086787e-10	7.486090e+00	2.113808e+01
2.080000e-06	1.119258e-06	3.275059e-10	7.804367e+00	2.253996e+01
2.090000e-06	1.164827e-06	3.487396e-10	8.122112e+00	2.393068e+01
2.100000e-06	1.210426e-06	3.712226e-10	8.440064e+00	2.530913e+01
2.110000e-06	1.255939e-06	3.920890e-10	8.757419e+00	2.667427e+01
2.120000e-06	1.301305e-06	4.091930e-10	9.073747e+00	2.802512e+01
2.130000e-06	1.346626e-06	4.254099e-10	9.389767e+00	2.936076e+01
2.140000e-06	1.391837e-06	4.428049e-10	9.705012e+00	3.068035e+01
2.150000e-06	1.436862e-06	4.621698e-10	1.001896e+01	3.198311e+01
2.160000e-06	1.481783e-06	4.809186e-10	1.033219e+01	3.326836e+01
2.170000e-06	1.526574e-06	4.995146e-10	1.064451e+01	3.453546e+01
2.180000e-06	1.571294e-06	5.207441e-10	1.095633e+01	3.578387e+01
2.190000e-06	1.615930e-06	5.407657e-10	1.126757e+01	3.701312e+01
2.200000e-06	1.660385e-06	5.577302e-10	1.157754e+01	3.822282e+01
2.210000e-06	1.704660e-06	5.727498e-10	1.188626e+01	3.941265e+01
2.220000e-06	1.748800e-06	5.885374e-10	1.219405e+01	4.058236e+01
2.230000e-06	1.792842e-06	6.031493e-10	1.250114e+01	4.173177e+01
2.240000e-06	1.836792e-06	6.154364e-10	1.280760e+01	4.286079e+01
2.250000e-06	1.880681e-06	6.278019e-10	1.311362e+01	4.396937e+01
2.260000e-06	1.924544e-06	6.414243e-10	1.341947e+01	4.505754e+01
2.270000e-06	1.968389e-06	6.610064e-10	1.372519e+01	4.612538e+01
2.280000e-06	2.012150e-06	6.810236e-10	1.403033e+01	4.717303e+01
2.290000e-06	2.055805e-06	7.006081e-10	1.433473e+01	4.820067e+01
2.300000e-06	2.099432e-06	7.161707e-10	1.463894e+01	4.920855e+01
2.310000e-06	2.143004e-06	7.277617e-10	1.494275e+01	5.019694e+01
2.320000e-06	2.186453e-06	7.407268e-10	1.524572e+01	5.116616e+01
2.330000e-06	2.229686e-06	7.536251e-10	1.554717e+01	5.211657e+01
2.340000e-06	2.272766e-06	7.687999e-10	1.584756e+01	5.304853e+01
2.350000e-06	2.315714e-06	7.868488e-10	1.614703e+01	5.396245e+01
2.360000e-06	2.358404e-06	8.068479e-10	1.644469e+01	5.485875e+01
2.370000e-06	2.400773e-06	8.220835e-10	1.674013e+01	5.573787e+01
2.380000e-06	2.442805e-06	8.339577e-10	1.703321e+01	5.660025e+01
2.390000e-06	2.484533e-06	8.430144e-10	1.732417e+01	5.744635e+01
2.400000e-06	2.525949e-06	8.500100e-10	1.761295e+01	5.827661e+01
2.410000e-06	2.567000e-06	8.591011e-10	1.789919e+01	5.909149e+01
2.420000e-06	2.607761e-06	8.731836e-10	1.818341e+01	5.989144e+01
2.430000e-06	2.648361e-06	8.917556e-10	1.846651e+01	6.067688e+01
2.440000e-06	2.688695e-06	9.087165e-10	1.874775e+01	6.144826e+01
2.450000e-06	2.728769e-06	9.204438e-10	1.902718e+01	6.220598e+01
2.460000e-06	2.768743e-06	9.302161e-10	1.930591e+01	6.295043e+01
2.470000e-06	2.808632e-06	9.389753e-10	1.958405e+01	6.368201e+01
2.480000e-06	2.848386e-06	9.481997e-10	1.986124e+01	6.440106e+01
2.490000e-06	2.887923e-06	9.581931e-10	2.013693e+01	6.510792e+01
2.500000e-06	2.927352e-06	9.673997e-10	2.041186e+01	6.580292e+01
2.510000e-06	2.966673e-06	9.773499e-10	2.068604e+01	6.648635e+01
2.520000e-06	3.005710e-06	9.898860e-10	2.095824e+01	6.715849e+01
2.530000e-06	3.044603e-06	9.989229e-10	2.122943e+01	6.781959e+01
2.540000e-06	3.083279e-06	1.003612e-09	2.149911e+01	6.846988e+01
2.550000e-06	3.121675e-06	1.011082e-09	2.176684e+01	6.910959e+01
2.560000e-06	3.159815e-06	1.020936e-09	2.203278e+01	6.973889e+01
2.570000e-06	3.197692e-06	1.028563e-09	2.229689e+01	7.035797e+01
2.580000e-06	3.235430e-06	1.036880e-09	2.256003e+01	7.096699e+01
2.590000e-06	3.272980e-06	1.046604e-09	2.282185e+01	7.156609e+01
2.600000e-06	3.310262e-06	1.054000e-09	2.308181e+01	7.215542e+01
2.610000e-06	3.347301e-06	1.058175e-09	2.334008e+01	7.273507e+01
2.620000e-06	3.384111e-06	1.061041e-09	2.359675e+01	7.330518e+01
2.630000e-06	3.420688e-06	1.067388e-09	2.385180e+01	7.386584e+01
2.640000e-06	3.457065e-06	1.077381e-09	2.410545e+01	7.441715e+01
2.650000e-06	3.493244e-06	1.088965e-09	2.435771e+01	7.495921e+01
2.660000e-06	3.529237e-06	1.098528e-09	2.460869e+01	7.549211e+01
2.670000e-06	3.565065e-06	1.106378e-09	2.485851e+01	7.601594e+01
2.680000e-06	3.600744e-06	1.114018e-09	2.510729e+01	7.653079e+01
2.690000e-06	3.636306e-06	1.118835e-09	2.535526e+01	7.703676e+01
2.700000e-06	3.671754e-06	1.122367e-09	2.560243e+01	7.753395e+01
2.710000e-06	3.706944e-06	1.126823e-09	2.584781e+01	7.802247e+01
2.720000e-06	3.741783e-06	1.132890e-09	2.609073e+01	7.850243e+01
2.730000e-06	3.776278e-06	1.140038e-09	2.633126e+01	7.897394e+01
2.740000e-06	3.810287e-06	1.146742e-09	2.656839e+01	7.943713e+01
2.750000e-06	3.843783e-06	1.154088e-09	2.680196e+01	7.989213e+01
2.760000e-06	3.876821e-06	1.161495e-09	2.703233e+01	8.033909e+01
2.770000e-06	3.909469e-06	1.168316e-09	2.725997e+01	8.077815e+01
2.780000e-06	3.941862e-06	1.175214e-09	2.748584e+01	8.120947e+01
2.790000e-06	3.973951e-06	1.182498e-09	2.770959e+01	8.163321e+01
2.800000e-06	4.005792e-06	1.188409e-09	2.793161e+01	8.204954e+01
2.810000e-06	4.037502e-06	1.194039e-09	2.815272e+01	8.245863e+01
2.820000e-06	4.069054e-06	1.201399e-09	2.837273e+01	8.286067e+01
2.830000e-06	4.100442e-06	1.209377e-09	2.859159e+01	8.325583e+01
2.840000e-06	4.131536e-06	1.218022e-09	2.880840e+01	8.364430e+01
2.850000e-06	4.162188e-06	1.228112e-09	2.902213e+01	8.402626e+01
2.860000e-06	4.192568e-06	1.235342e-09	2.923397e+01	8.440189e+01
2.870000e-06	4.222732e-06	1.238871e-09	2.944430e+01	8.477138e+01
2.880000e-06	4.252563e-06	1.242154e-09	2.965230e+01	8.513491e+01
2.890000e-06	4.282123e-06	1.247754e-09	2.985842e+01	8.549264e+01
2.900000e-06	4.311451e-06	1.254471e-09	3.006292e+01	8.584474e+01
2.910000e-06	4.340505e-06	1.261171e-09	3.026551e+01	8.619136e+01
