# Temperatura_=_8.4
# Concentracion g/m^3_=_1620.0
# C_Vs_to_Am_M_A/Vsm_=_65563218390.804596
# pendiente_HvsI_1/m_=_3716.3
# ordenada_HvsI_A/m_=_1297.0
# frecuencia_Hz_=_135090.73357693382

Tiempo_(s)	Campo_(V.s)	Magnetizacion_(V.s)	Campo_(kA/m)	Magnetizacion_(A/m)
0.000000e+00	-5.530797e-06	-1.277335e-09	-3.837478e+01	-8.317055e+01
1.000000e-08	-5.530857e-06	-1.278153e-09	-3.837520e+01	-8.316036e+01
2.000000e-08	-5.530704e-06	-1.280183e-09	-3.837413e+01	-8.314868e+01
3.000000e-08	-5.530154e-06	-1.280343e-09	-3.837032e+01	-8.313543e+01
4.000000e-08	-5.529146e-06	-1.273473e-09	-3.836333e+01	-8.312050e+01
5.000000e-08	-5.527713e-06	-1.253172e-09	-3.835338e+01	-8.310379e+01
6.000000e-08	-5.525733e-06	-1.232559e-09	-3.833965e+01	-8.308519e+01
7.000000e-08	-5.523055e-06	-1.248344e-09	-3.832106e+01	-8.306462e+01
8.000000e-08	-5.519685e-06	-1.318046e-09	-3.829768e+01	-8.304194e+01
9.000000e-08	-5.515749e-06	-1.417099e-09	-3.827037e+01	-8.301706e+01
1.000000e-07	-5.511429e-06	-1.365746e-09	-3.824040e+01	-8.298986e+01
1.100000e-07	-5.506945e-06	-1.197739e-09	-3.820929e+01	-8.296023e+01
1.200000e-07	-5.502341e-06	-1.107070e-09	-3.817735e+01	-8.292808e+01
1.300000e-07	-5.497462e-06	-1.285667e-09	-3.814349e+01	-8.289329e+01
1.400000e-07	-5.491997e-06	-1.344707e-09	-3.810557e+01	-8.285576e+01
1.500000e-07	-5.486086e-06	-1.231411e-09	-3.806456e+01	-8.281540e+01
1.600000e-07	-5.479949e-06	-1.147295e-09	-3.802198e+01	-8.277210e+01
1.700000e-07	-5.473400e-06	-1.314395e-09	-3.797654e+01	-8.272577e+01
1.800000e-07	-5.466365e-06	-1.405626e-09	-3.792773e+01	-8.267633e+01
1.900000e-07	-5.458984e-06	-1.243132e-09	-3.787652e+01	-8.262368e+01
2.000000e-07	-5.451381e-06	-1.122450e-09	-3.782377e+01	-8.256774e+01
2.100000e-07	-5.443543e-06	-1.218371e-09	-3.776938e+01	-8.250844e+01
2.200000e-07	-5.435442e-06	-1.354488e-09	-3.771317e+01	-8.244569e+01
2.300000e-07	-5.427083e-06	-1.283824e-09	-3.765518e+01	-8.237942e+01
2.400000e-07	-5.418356e-06	-1.222169e-09	-3.759462e+01	-8.230956e+01
2.500000e-07	-5.408991e-06	-1.237014e-09	-3.752965e+01	-8.223604e+01
2.600000e-07	-5.398727e-06	-1.297041e-09	-3.745843e+01	-8.215878e+01
2.700000e-07	-5.387755e-06	-1.229426e-09	-3.738230e+01	-8.207771e+01
2.800000e-07	-5.376385e-06	-1.229446e-09	-3.730341e+01	-8.199277e+01
2.900000e-07	-5.364631e-06	-1.266054e-09	-3.722186e+01	-8.190389e+01
3.000000e-07	-5.352528e-06	-1.299110e-09	-3.713788e+01	-8.181099e+01
3.100000e-07	-5.339981e-06	-1.238186e-09	-3.705082e+01	-8.171400e+01
3.200000e-07	-5.327031e-06	-1.236935e-09	-3.696098e+01	-8.161285e+01
3.300000e-07	-5.313722e-06	-1.252330e-09	-3.686863e+01	-8.150747e+01
3.400000e-07	-5.300127e-06	-1.277640e-09	-3.677431e+01	-8.139777e+01
3.500000e-07	-5.286122e-06	-1.239529e-09	-3.667713e+01	-8.128367e+01
3.600000e-07	-5.271690e-06	-1.240314e-09	-3.657700e+01	-8.116510e+01
3.700000e-07	-5.256927e-06	-1.260348e-09	-3.647457e+01	-8.104196e+01
3.800000e-07	-5.241496e-06	-1.262137e-09	-3.636750e+01	-8.091417e+01
3.900000e-07	-5.225414e-06	-1.216296e-09	-3.625592e+01	-8.078164e+01
4.000000e-07	-5.208851e-06	-1.227101e-09	-3.614100e+01	-8.064427e+01
4.100000e-07	-5.191942e-06	-1.267889e-09	-3.602368e+01	-8.050197e+01
4.200000e-07	-5.174689e-06	-1.213966e-09	-3.590397e+01	-8.035464e+01
4.300000e-07	-5.157146e-06	-1.184994e-09	-3.578225e+01	-8.020220e+01
4.400000e-07	-5.139319e-06	-1.261906e-09	-3.565856e+01	-8.004454e+01
4.500000e-07	-5.120959e-06	-1.285994e-09	-3.553117e+01	-7.988157e+01
4.600000e-07	-5.102216e-06	-1.175892e-09	-3.540113e+01	-7.971319e+01
4.700000e-07	-5.083223e-06	-1.200031e-09	-3.526934e+01	-7.953932e+01
4.800000e-07	-5.063897e-06	-1.272509e-09	-3.513525e+01	-7.935988e+01
4.900000e-07	-5.044227e-06	-1.220726e-09	-3.499877e+01	-7.917477e+01
5.000000e-07	-5.024319e-06	-1.161439e-09	-3.486064e+01	-7.898394e+01
5.100000e-07	-5.004286e-06	-1.242724e-09	-3.472164e+01	-7.878731e+01
5.200000e-07	-4.983924e-06	-1.219679e-09	-3.458037e+01	-7.858482e+01
5.300000e-07	-4.963135e-06	-1.166320e-09	-3.443612e+01	-7.837643e+01
5.400000e-07	-4.942041e-06	-1.225589e-09	-3.428977e+01	-7.816210e+01
5.500000e-07	-4.920544e-06	-1.251430e-09	-3.414061e+01	-7.794181e+01
5.600000e-07	-4.898687e-06	-1.138548e-09	-3.398896e+01	-7.771555e+01
5.700000e-07	-4.876527e-06	-1.164554e-09	-3.383520e+01	-7.748331e+01
5.800000e-07	-4.853979e-06	-1.239258e-09	-3.367876e+01	-7.724513e+01
5.900000e-07	-4.831128e-06	-1.183226e-09	-3.352021e+01	-7.700102e+01
6.000000e-07	-4.807924e-06	-1.141305e-09	-3.335921e+01	-7.675105e+01
6.100000e-07	-4.784403e-06	-1.211070e-09	-3.319602e+01	-7.649528e+01
6.200000e-07	-4.760699e-06	-1.182699e-09	-3.303155e+01	-7.623380e+01
6.300000e-07	-4.736771e-06	-1.126701e-09	-3.286553e+01	-7.596671e+01
6.400000e-07	-4.712572e-06	-1.167779e-09	-3.269763e+01	-7.569412e+01
6.500000e-07	-4.688125e-06	-1.182072e-09	-3.252800e+01	-7.541618e+01
6.600000e-07	-4.663208e-06	-1.130926e-09	-3.235512e+01	-7.513305e+01
6.700000e-07	-4.637738e-06	-1.153920e-09	-3.217840e+01	-7.484489e+01
6.800000e-07	-4.611759e-06	-1.181800e-09	-3.199815e+01	-7.455188e+01
6.900000e-07	-4.585219e-06	-1.138685e-09	-3.181400e+01	-7.425424e+01
7.000000e-07	-4.558244e-06	-1.128440e-09	-3.162684e+01	-7.395217e+01
7.100000e-07	-4.530868e-06	-1.149735e-09	-3.143689e+01	-7.364590e+01
7.200000e-07	-4.503171e-06	-1.130288e-09	-3.124472e+01	-7.333568e+01
7.300000e-07	-4.475279e-06	-1.111154e-09	-3.105119e+01	-7.302173e+01
7.400000e-07	-4.447215e-06	-1.132837e-09	-3.085648e+01	-7.270433e+01
7.500000e-07	-4.418892e-06	-1.122308e-09	-3.065996e+01	-7.238372e+01
7.600000e-07	-4.390350e-06	-1.104884e-09	-3.046193e+01	-7.206017e+01
7.700000e-07	-4.361622e-06	-1.103697e-09	-3.026260e+01	-7.173394e+01
7.800000e-07	-4.332528e-06	-1.100941e-09	-3.006073e+01	-7.140530e+01
7.900000e-07	-4.303081e-06	-1.084360e-09	-2.985642e+01	-7.107449e+01
8.000000e-07	-4.273365e-06	-1.091535e-09	-2.965024e+01	-7.074177e+01
8.100000e-07	-4.243379e-06	-1.084259e-09	-2.944218e+01	-7.040738e+01
8.200000e-07	-4.213115e-06	-1.069466e-09	-2.923220e+01	-7.007155e+01
8.300000e-07	-4.182557e-06	-1.065622e-09	-2.902018e+01	-6.973451e+01
8.400000e-07	-4.151637e-06	-1.070754e-09	-2.880564e+01	-6.939645e+01
8.500000e-07	-4.120368e-06	-1.048057e-09	-2.858869e+01	-6.905756e+01
8.600000e-07	-4.088836e-06	-1.040183e-09	-2.836991e+01	-6.871801e+01
8.700000e-07	-4.057114e-06	-1.041269e-09	-2.814981e+01	-6.837794e+01
8.800000e-07	-4.025296e-06	-1.034585e-09	-2.792904e+01	-6.803748e+01
8.900000e-07	-3.993328e-06	-1.021980e-09	-2.770724e+01	-6.769671e+01
9.000000e-07	-3.961141e-06	-1.024589e-09	-2.748391e+01	-6.735572e+01
9.100000e-07	-3.928712e-06	-1.016087e-09	-2.725890e+01	-6.701455e+01
9.200000e-07	-3.895951e-06	-1.004321e-09	-2.703160e+01	-6.667321e+01
9.300000e-07	-3.862747e-06	-1.005177e-09	-2.680122e+01	-6.633170e+01
9.400000e-07	-3.828972e-06	-1.005580e-09	-2.656687e+01	-6.598997e+01
9.500000e-07	-3.794688e-06	-9.910413e-10	-2.632899e+01	-6.564795e+01
9.600000e-07	-3.759966e-06	-9.826231e-10	-2.608808e+01	-6.530556e+01
9.700000e-07	-3.724823e-06	-9.822982e-10	-2.584425e+01	-6.496266e+01
9.800000e-07	-3.689356e-06	-9.721715e-10	-2.559816e+01	-6.461910e+01
9.900000e-07	-3.653686e-06	-9.657457e-10	-2.535067e+01	-6.427471e+01
1.000000e-06	-3.617886e-06	-9.685612e-10	-2.510227e+01	-6.392928e+01
1.010000e-06	-3.581964e-06	-9.648662e-10	-2.485303e+01	-6.358259e+01
1.020000e-06	-3.545904e-06	-9.544159e-10	-2.460283e+01	-6.323439e+01
1.030000e-06	-3.509729e-06	-9.522939e-10	-2.435184e+01	-6.288441e+01
1.040000e-06	-3.473407e-06	-9.450495e-10	-2.409983e+01	-6.253238e+01
1.050000e-06	-3.436761e-06	-9.336562e-10	-2.384556e+01	-6.217799e+01
1.060000e-06	-3.399807e-06	-9.246856e-10	-2.358916e+01	-6.182093e+01
1.070000e-06	-3.362641e-06	-9.219494e-10	-2.333129e+01	-6.146089e+01
1.080000e-06	-3.325160e-06	-9.119827e-10	-2.307123e+01	-6.109753e+01
1.090000e-06	-3.287378e-06	-9.065270e-10	-2.280909e+01	-6.073053e+01
1.100000e-06	-3.249359e-06	-9.016504e-10	-2.254530e+01	-6.035956e+01
1.110000e-06	-3.211147e-06	-8.938280e-10	-2.228016e+01	-5.998428e+01
1.120000e-06	-3.172828e-06	-8.826926e-10	-2.201429e+01	-5.960436e+01
1.130000e-06	-3.134359e-06	-8.805246e-10	-2.174738e+01	-5.921950e+01
1.140000e-06	-3.095588e-06	-8.754141e-10	-2.147837e+01	-5.882938e+01
1.150000e-06	-3.056554e-06	-8.655585e-10	-2.120754e+01	-5.843370e+01
1.160000e-06	-3.017435e-06	-8.558994e-10	-2.093611e+01	-5.803218e+01
1.170000e-06	-2.978101e-06	-8.514735e-10	-2.066320e+01	-5.762456e+01
1.180000e-06	-2.938511e-06	-8.425458e-10	-2.038851e+01	-5.721058e+01
1.190000e-06	-2.898837e-06	-8.361702e-10	-2.011324e+01	-5.679003e+01
1.200000e-06	-2.859031e-06	-8.309259e-10	-1.983705e+01	-5.636268e+01
1.210000e-06	-2.818993e-06	-8.258253e-10	-1.955925e+01	-5.592837e+01
1.220000e-06	-2.778875e-06	-8.186901e-10	-1.928089e+01	-5.548692e+01
1.230000e-06	-2.738736e-06	-8.113934e-10	-1.900239e+01	-5.503820e+01
1.240000e-06	-2.698415e-06	-8.029929e-10	-1.872263e+01	-5.458211e+01
1.250000e-06	-2.657847e-06	-7.950990e-10	-1.844115e+01	-5.411854e+01
1.260000e-06	-2.617010e-06	-7.876282e-10	-1.815782e+01	-5.364744e+01
1.270000e-06	-2.575825e-06	-7.801821e-10	-1.787206e+01	-5.316875e+01
1.280000e-06	-2.534382e-06	-7.750555e-10	-1.758451e+01	-5.268247e+01
1.290000e-06	-2.492741e-06	-7.683695e-10	-1.729559e+01	-5.218857e+01
1.300000e-06	-2.450724e-06	-7.596720e-10	-1.700406e+01	-5.168709e+01
1.310000e-06	-2.408302e-06	-7.491675e-10	-1.670972e+01	-5.117805e+01
1.320000e-06	-2.365521e-06	-7.380188e-10	-1.641289e+01	-5.066148e+01
1.330000e-06	-2.322496e-06	-7.284514e-10	-1.611436e+01	-5.013746e+01
1.340000e-06	-2.279339e-06	-7.202120e-10	-1.581493e+01	-4.960604e+01
1.350000e-06	-2.236019e-06	-7.103696e-10	-1.551436e+01	-4.906728e+01
1.360000e-06	-2.192592e-06	-7.019828e-10	-1.521304e+01	-4.852126e+01
1.370000e-06	-2.148969e-06	-6.938422e-10	-1.491036e+01	-4.796805e+01
1.380000e-06	-2.105181e-06	-6.883169e-10	-1.460655e+01	-4.740771e+01
1.390000e-06	-2.061393e-06	-6.789265e-10	-1.430273e+01	-4.684029e+01
1.400000e-06	-2.017529e-06	-6.687432e-10	-1.399839e+01	-4.626584e+01
1.410000e-06	-1.973546e-06	-6.592086e-10	-1.369322e+01	-4.568440e+01
1.420000e-06	-1.929484e-06	-6.517524e-10	-1.338749e+01	-4.509597e+01
1.430000e-06	-1.885304e-06	-6.437392e-10	-1.308096e+01	-4.450055e+01
1.440000e-06	-1.841031e-06	-6.344146e-10	-1.277378e+01	-4.389811e+01
1.450000e-06	-1.796720e-06	-6.237381e-10	-1.246633e+01	-4.328859e+01
1.460000e-06	-1.752348e-06	-6.130724e-10	-1.215846e+01	-4.267191e+01
1.470000e-06	-1.707844e-06	-6.013199e-10	-1.184967e+01	-4.204795e+01
1.480000e-06	-1.663123e-06	-5.899641e-10	-1.153938e+01	-4.141657e+01
1.490000e-06	-1.618265e-06	-5.758358e-10	-1.122814e+01	-4.077758e+01
1.500000e-06	-1.573318e-06	-5.665859e-10	-1.091628e+01	-4.013078e+01
1.510000e-06	-1.528163e-06	-5.571443e-10	-1.060298e+01	-3.947591e+01
1.520000e-06	-1.482948e-06	-5.467439e-10	-1.028926e+01	-3.881269e+01
1.530000e-06	-1.437701e-06	-5.371946e-10	-9.975315e+00	-3.814080e+01
1.540000e-06	-1.392333e-06	-5.274457e-10	-9.660538e+00	-3.745989e+01
1.550000e-06	-1.346844e-06	-5.179004e-10	-9.344915e+00	-3.676957e+01
1.560000e-06	-1.301210e-06	-5.083732e-10	-9.028295e+00	-3.606943e+01
1.570000e-06	-1.255449e-06	-4.955588e-10	-8.710787e+00	-3.535902e+01
1.580000e-06	-1.209603e-06	-4.836779e-10	-8.392688e+00	-3.463787e+01
1.590000e-06	-1.163762e-06	-4.741355e-10	-8.074623e+00	-3.390547e+01
1.600000e-06	-1.117848e-06	-4.627418e-10	-7.756059e+00	-3.316132e+01
1.610000e-06	-1.071897e-06	-4.524893e-10	-7.437229e+00	-3.240489e+01
1.620000e-06	-1.025794e-06	-4.443698e-10	-7.117348e+00	-3.163561e+01
1.630000e-06	-9.795004e-07	-4.366023e-10	-6.796148e+00	-3.085296e+01
1.640000e-06	-9.331962e-07	-4.258651e-10	-6.474872e+00	-3.005635e+01
1.650000e-06	-8.868319e-07	-4.118802e-10	-6.153178e+00	-2.924525e+01
1.660000e-06	-8.403853e-07	-3.972901e-10	-5.830914e+00	-2.841910e+01
1.670000e-06	-7.939730e-07	-3.820273e-10	-5.508888e+00	-2.757736e+01
1.680000e-06	-7.474989e-07	-3.649265e-10	-5.186433e+00	-2.671952e+01
1.690000e-06	-7.008802e-07	-3.514282e-10	-4.862975e+00	-2.584509e+01
1.700000e-06	-6.542571e-07	-3.383772e-10	-4.539486e+00	-2.495359e+01
1.710000e-06	-6.076055e-07	-3.270266e-10	-4.215799e+00	-2.404460e+01
1.720000e-06	-5.608796e-07	-3.134228e-10	-3.891597e+00	-2.311772e+01
1.730000e-06	-5.140817e-07	-2.974033e-10	-3.566895e+00	-2.217261e+01
1.740000e-06	-4.672666e-07	-2.788913e-10	-3.242074e+00	-2.120897e+01
1.750000e-06	-4.204246e-07	-2.628564e-10	-2.917066e+00	-2.022656e+01
1.760000e-06	-3.735049e-07	-2.485728e-10	-2.591520e+00	-1.922520e+01
1.770000e-06	-3.265567e-07	-2.343734e-10	-2.265775e+00	-1.820477e+01
1.780000e-06	-2.796434e-07	-2.207180e-10	-1.940273e+00	-1.716521e+01
1.790000e-06	-2.327792e-07	-2.051084e-10	-1.615111e+00	-1.610656e+01
1.800000e-06	-1.858396e-07	-1.863416e-10	-1.289426e+00	-1.502890e+01
1.810000e-06	-1.388257e-07	-1.666966e-10	-9.632255e-01	-1.393241e+01
1.820000e-06	-9.199610e-08	-1.495839e-10	-6.383041e-01	-1.281733e+01
1.830000e-06	-4.516567e-08	-1.366042e-10	-3.133767e-01	-1.168400e+01
1.840000e-06	1.780940e-09	-1.235971e-10	1.235684e-02	-1.053282e+01
1.850000e-06	4.870000e-08	-1.094588e-10	3.378992e-01	-9.364292e+00
1.860000e-06	9.552306e-08	-9.455814e-11	6.627754e-01	-8.178978e+00
1.870000e-06	1.424388e-07	-7.716859e-11	9.882950e-01	-6.977529e+00
1.880000e-06	1.895888e-07	-5.525445e-11	1.315439e+00	-5.760676e+00
1.890000e-06	2.366395e-07	-3.467254e-11	1.641896e+00	-4.529220e+00
1.900000e-06	2.834662e-07	-1.552910e-11	1.966797e+00	-3.284039e+00
1.910000e-06	3.302180e-07	5.507477e-12	2.291178e+00	-2.026079e+00
1.920000e-06	3.770482e-07	2.259571e-11	2.616104e+00	-7.563499e-01
1.930000e-06	4.239169e-07	3.577777e-11	2.941298e+00	5.240737e-01
1.940000e-06	4.707404e-07	4.932196e-11	3.266176e+00	1.814063e+00
1.950000e-06	5.173234e-07	6.570758e-11	3.589387e+00	3.112437e+00
1.960000e-06	5.638088e-07	8.576060e-11	3.911920e+00	4.417970e+00
1.970000e-06	6.103630e-07	1.079325e-10	4.234932e+00	5.729396e+00
1.980000e-06	6.568718e-07	1.290680e-10	4.557628e+00	7.045415e+00
1.990000e-06	7.033016e-07	1.491060e-10	4.879775e+00	8.364702e+00
2.000000e-06	7.496724e-07	1.629994e-10	5.201513e+00	9.685912e+00
2.010000e-06	7.961126e-07	1.774839e-10	5.523733e+00	1.100768e+01
2.020000e-06	8.425822e-07	1.960632e-10	5.846157e+00	1.232866e+01
2.030000e-06	8.889856e-07	2.168378e-10	6.168121e+00	1.364746e+01
2.040000e-06	9.352605e-07	2.374208e-10	6.489194e+00	1.496275e+01
2.050000e-06	9.813335e-07	2.565201e-10	6.808867e+00	1.627317e+01
2.060000e-06	1.027360e-06	2.742577e-10	7.128213e+00	1.757741e+01
2.070000e-06	1.073408e-06	2.933272e-10	7.447715e+00	1.887418e+01
2.080000e-06	1.119338e-06	3.133744e-10	7.766398e+00	2.016222e+01
2.090000e-06	1.165257e-06	3.336511e-10	8.084996e+00	2.144031e+01
2.100000e-06	1.211109e-06	3.543925e-10	8.403133e+00	2.270729e+01
2.110000e-06	1.256821e-06	3.716238e-10	8.720305e+00	2.396204e+01
2.120000e-06	1.302463e-06	3.866232e-10	9.036986e+00	2.520349e+01
2.130000e-06	1.347992e-06	4.027410e-10	9.352881e+00	2.643064e+01
2.140000e-06	1.393401e-06	4.190719e-10	9.667950e+00	2.764257e+01
2.150000e-06	1.438687e-06	4.354127e-10	9.982160e+00	2.883839e+01
2.160000e-06	1.483843e-06	4.501016e-10	1.029547e+01	3.001733e+01
2.170000e-06	1.528903e-06	4.652805e-10	1.060812e+01	3.117864e+01
2.180000e-06	1.573913e-06	4.846082e-10	1.092041e+01	3.232170e+01
2.190000e-06	1.618817e-06	5.029137e-10	1.123197e+01	3.344592e+01
2.200000e-06	1.663598e-06	5.173185e-10	1.154268e+01	3.455081e+01
2.210000e-06	1.708210e-06	5.298895e-10	1.185221e+01	3.563596e+01
2.220000e-06	1.752663e-06	5.448031e-10	1.216065e+01	3.670104e+01
2.230000e-06	1.797009e-06	5.611701e-10	1.246834e+01	3.774577e+01
2.240000e-06	1.841264e-06	5.737187e-10	1.277539e+01	3.876997e+01
2.250000e-06	1.885397e-06	5.848147e-10	1.308160e+01	3.977352e+01
2.260000e-06	1.929425e-06	5.976809e-10	1.338709e+01	4.075639e+01
2.270000e-06	1.973345e-06	6.164869e-10	1.369182e+01	4.171859e+01
2.280000e-06	2.017214e-06	6.351454e-10	1.399620e+01	4.266021e+01
2.290000e-06	2.061075e-06	6.530936e-10	1.430052e+01	4.358139e+01
2.300000e-06	2.104866e-06	6.666468e-10	1.460436e+01	4.448234e+01
2.310000e-06	2.148564e-06	6.769236e-10	1.490756e+01	4.536331e+01
2.320000e-06	2.192209e-06	6.871352e-10	1.521039e+01	4.622461e+01
2.330000e-06	2.235829e-06	6.956793e-10	1.551304e+01	4.706658e+01
2.340000e-06	2.279224e-06	7.067158e-10	1.581412e+01	4.788961e+01
2.350000e-06	2.322328e-06	7.216902e-10	1.611320e+01	4.869411e+01
2.360000e-06	2.365195e-06	7.400141e-10	1.641063e+01	4.948054e+01
2.370000e-06	2.407801e-06	7.544568e-10	1.670624e+01	5.024935e+01
2.380000e-06	2.450022e-06	7.670560e-10	1.699919e+01	5.100105e+01
2.390000e-06	2.491995e-06	7.777512e-10	1.729041e+01	5.173613e+01
2.400000e-06	2.533734e-06	7.860774e-10	1.758001e+01	5.245510e+01
2.410000e-06	2.575152e-06	7.929243e-10	1.786739e+01	5.315849e+01
2.420000e-06	2.616223e-06	8.009735e-10	1.815235e+01	5.384682e+01
2.430000e-06	2.656819e-06	8.130208e-10	1.843402e+01	5.452059e+01
2.440000e-06	2.697229e-06	8.273552e-10	1.871441e+01	5.518032e+01
2.450000e-06	2.737594e-06	8.368278e-10	1.899447e+01	5.582650e+01
2.460000e-06	2.777868e-06	8.480935e-10	1.927391e+01	5.645962e+01
2.470000e-06	2.817947e-06	8.580698e-10	1.955199e+01	5.708015e+01
2.480000e-06	2.857817e-06	8.651489e-10	1.982862e+01	5.768853e+01
2.490000e-06	2.897578e-06	8.721659e-10	2.010450e+01	5.828521e+01
2.500000e-06	2.937219e-06	8.793768e-10	2.037955e+01	5.887057e+01
2.510000e-06	2.976738e-06	8.880467e-10	2.065374e+01	5.944500e+01
2.520000e-06	3.016002e-06	8.972821e-10	2.092617e+01	6.000887e+01
2.530000e-06	3.055070e-06	9.069602e-10	2.119724e+01	6.056250e+01
2.540000e-06	3.093973e-06	9.138511e-10	2.146717e+01	6.110620e+01
2.550000e-06	3.132589e-06	9.182946e-10	2.173510e+01	6.164024e+01
2.560000e-06	3.170900e-06	9.247574e-10	2.200091e+01	6.216489e+01
2.570000e-06	3.209089e-06	9.321112e-10	2.226589e+01	6.268037e+01
2.580000e-06	3.247203e-06	9.384382e-10	2.253033e+01	6.318689e+01
2.590000e-06	3.285063e-06	9.465612e-10	2.279302e+01	6.368463e+01
2.600000e-06	3.322696e-06	9.566238e-10	2.305414e+01	6.417374e+01
2.610000e-06	3.360144e-06	9.639860e-10	2.331396e+01	6.465438e+01
2.620000e-06	3.397282e-06	9.688609e-10	2.357164e+01	6.512666e+01
2.630000e-06	3.434092e-06	9.745881e-10	2.382704e+01	6.559070e+01
2.640000e-06	3.470725e-06	9.774013e-10	2.408121e+01	6.604658e+01
2.650000e-06	3.507174e-06	9.800662e-10	2.433411e+01	6.649438e+01
2.660000e-06	3.543348e-06	9.836760e-10	2.458510e+01	6.693418e+01
2.670000e-06	3.579349e-06	9.900063e-10	2.483489e+01	6.736603e+01
2.680000e-06	3.615300e-06	9.979443e-10	2.508433e+01	6.779000e+01
2.690000e-06	3.651076e-06	1.008974e-09	2.533256e+01	6.820612e+01
2.700000e-06	3.686652e-06	1.019833e-09	2.557940e+01	6.861446e+01
2.710000e-06	3.722006e-06	1.026498e-09	2.582470e+01	6.901506e+01
2.720000e-06	3.757020e-06	1.032069e-09	2.606764e+01	6.940796e+01
2.730000e-06	3.791685e-06	1.035941e-09	2.630816e+01	6.979323e+01
2.740000e-06	3.826000e-06	1.036176e-09	2.654625e+01	7.017091e+01
2.750000e-06	3.859879e-06	1.037410e-09	2.678132e+01	7.054108e+01
2.760000e-06	3.893167e-06	1.041918e-09	2.701228e+01	7.090379e+01
2.770000e-06	3.925916e-06	1.050876e-09	2.723950e+01	7.125913e+01
2.780000e-06	3.958337e-06	1.061629e-09	2.746446e+01	7.160718e+01
2.790000e-06	3.990530e-06	1.072094e-09	2.768782e+01	7.194803e+01
2.800000e-06	4.022535e-06	1.079311e-09	2.790989e+01	7.228178e+01
2.810000e-06	4.054450e-06	1.082694e-09	2.813132e+01	7.260854e+01
2.820000e-06	4.086212e-06	1.083775e-09	2.835170e+01	7.292843e+01
2.830000e-06	4.117769e-06	1.083377e-09	2.857066e+01	7.324157e+01
2.840000e-06	4.149139e-06	1.085599e-09	2.878831e+01	7.354810e+01
2.850000e-06	4.180081e-06	1.093115e-09	2.900300e+01	7.384816e+01
2.860000e-06	4.210550e-06	1.103735e-09	2.921440e+01	7.414189e+01
2.870000e-06	4.240753e-06	1.112004e-09	2.942396e+01	7.442944e+01
2.880000e-06	4.270721e-06	1.119952e-09	2.963189e+01	7.471097e+01
2.890000e-06	4.300470e-06	1.125881e-09	2.983830e+01	7.498663e+01
2.900000e-06	4.329957e-06	1.127197e-09	3.004290e+01	7.525658e+01
2.910000e-06	4.359131e-06	1.126577e-09	3.024531e+01	7.552098e+01
