# Temperatura_=_-0.7
# Concentracion g/m^3_=_1620.0
# C_Vs_to_Am_M_A/Vsm_=_65563218390.804596
# pendiente_HvsI_1/m_=_3716.3
# ordenada_HvsI_A/m_=_1297.0
# frecuencia_Hz_=_135098.300271516

Tiempo_(s)	Campo_(V.s)	Magnetizacion_(V.s)	Campo_(kA/m)	Magnetizacion_(A/m)
0.000000e+00	-5.513878e-06	-1.360602e-09	-3.836826e+01	-8.981138e+01
1.000000e-08	-5.513947e-06	-1.359446e-09	-3.836874e+01	-8.973055e+01
2.000000e-08	-5.513747e-06	-1.358794e-09	-3.836735e+01	-8.964732e+01
3.000000e-08	-5.513155e-06	-1.359153e-09	-3.836323e+01	-8.956167e+01
4.000000e-08	-5.512082e-06	-1.356966e-09	-3.835576e+01	-8.947359e+01
5.000000e-08	-5.510456e-06	-1.347468e-09	-3.834445e+01	-8.938307e+01
6.000000e-08	-5.508281e-06	-1.347242e-09	-3.832932e+01	-8.929009e+01
7.000000e-08	-5.505579e-06	-1.355214e-09	-3.831051e+01	-8.919466e+01
8.000000e-08	-5.502338e-06	-1.365375e-09	-3.828796e+01	-8.909676e+01
9.000000e-08	-5.498588e-06	-1.437195e-09	-3.826186e+01	-8.899638e+01
1.000000e-07	-5.494437e-06	-1.457805e-09	-3.823298e+01	-8.889353e+01
1.100000e-07	-5.489990e-06	-1.320948e-09	-3.820203e+01	-8.878820e+01
1.200000e-07	-5.485381e-06	-1.245772e-09	-3.816997e+01	-8.868039e+01
1.300000e-07	-5.480516e-06	-1.329397e-09	-3.813611e+01	-8.857010e+01
1.400000e-07	-5.475194e-06	-1.428633e-09	-3.809908e+01	-8.845734e+01
1.500000e-07	-5.469464e-06	-1.343733e-09	-3.805921e+01	-8.834212e+01
1.600000e-07	-5.463406e-06	-1.262673e-09	-3.801705e+01	-8.822444e+01
1.700000e-07	-5.456992e-06	-1.367619e-09	-3.797242e+01	-8.810431e+01
1.800000e-07	-5.450117e-06	-1.428885e-09	-3.792458e+01	-8.798174e+01
1.900000e-07	-5.442841e-06	-1.327409e-09	-3.787395e+01	-8.785674e+01
2.000000e-07	-5.435333e-06	-1.223306e-09	-3.782171e+01	-8.772932e+01
2.100000e-07	-5.427532e-06	-1.302130e-09	-3.776742e+01	-8.759948e+01
2.200000e-07	-5.419455e-06	-1.384490e-09	-3.771122e+01	-8.746724e+01
2.300000e-07	-5.411122e-06	-1.353113e-09	-3.765323e+01	-8.733260e+01
2.400000e-07	-5.402345e-06	-1.283977e-09	-3.759216e+01	-8.719556e+01
2.500000e-07	-5.392803e-06	-1.298369e-09	-3.752576e+01	-8.705612e+01
2.600000e-07	-5.382504e-06	-1.313557e-09	-3.745410e+01	-8.691429e+01
2.700000e-07	-5.371734e-06	-1.295014e-09	-3.737916e+01	-8.677006e+01
2.800000e-07	-5.360515e-06	-1.287398e-09	-3.730109e+01	-8.662341e+01
2.900000e-07	-5.348908e-06	-1.305464e-09	-3.722032e+01	-8.647435e+01
3.000000e-07	-5.336955e-06	-1.310386e-09	-3.713714e+01	-8.632285e+01
3.100000e-07	-5.324667e-06	-1.302375e-09	-3.705164e+01	-8.616889e+01
3.200000e-07	-5.311894e-06	-1.289145e-09	-3.696275e+01	-8.601245e+01
3.300000e-07	-5.298558e-06	-1.274846e-09	-3.686996e+01	-8.585349e+01
3.400000e-07	-5.284851e-06	-1.299430e-09	-3.677458e+01	-8.569199e+01
3.500000e-07	-5.270777e-06	-1.299952e-09	-3.667665e+01	-8.552790e+01
3.600000e-07	-5.256239e-06	-1.272985e-09	-3.657548e+01	-8.536119e+01
3.700000e-07	-5.241314e-06	-1.286863e-09	-3.647163e+01	-8.519179e+01
3.800000e-07	-5.225905e-06	-1.315241e-09	-3.636441e+01	-8.501967e+01
3.900000e-07	-5.209800e-06	-1.257687e-09	-3.625234e+01	-8.484477e+01
4.000000e-07	-5.193278e-06	-1.241771e-09	-3.613737e+01	-8.466702e+01
4.100000e-07	-5.176438e-06	-1.305976e-09	-3.602019e+01	-8.448638e+01
4.200000e-07	-5.159125e-06	-1.283314e-09	-3.589972e+01	-8.430277e+01
4.300000e-07	-5.141578e-06	-1.210913e-09	-3.577761e+01	-8.411614e+01
4.400000e-07	-5.123836e-06	-1.285512e-09	-3.565416e+01	-8.392642e+01
4.500000e-07	-5.105695e-06	-1.326992e-09	-3.552792e+01	-8.373354e+01
4.600000e-07	-5.087091e-06	-1.221749e-09	-3.539847e+01	-8.353744e+01
4.700000e-07	-5.068069e-06	-1.220413e-09	-3.526610e+01	-8.333806e+01
4.800000e-07	-5.048734e-06	-1.320341e-09	-3.513156e+01	-8.313533e+01
4.900000e-07	-5.029130e-06	-1.259854e-09	-3.499515e+01	-8.292921e+01
5.000000e-07	-5.009338e-06	-1.196861e-09	-3.485743e+01	-8.271964e+01
5.100000e-07	-4.989372e-06	-1.279305e-09	-3.471849e+01	-8.250656e+01
5.200000e-07	-4.969096e-06	-1.272605e-09	-3.457740e+01	-8.228994e+01
5.300000e-07	-4.948473e-06	-1.188038e-09	-3.443390e+01	-8.206973e+01
5.400000e-07	-4.927540e-06	-1.253016e-09	-3.428823e+01	-8.184590e+01
5.500000e-07	-4.906168e-06	-1.290285e-09	-3.413952e+01	-8.161844e+01
5.600000e-07	-4.884412e-06	-1.189377e-09	-3.398813e+01	-8.138731e+01
5.700000e-07	-4.862344e-06	-1.200669e-09	-3.383457e+01	-8.115251e+01
5.800000e-07	-4.839936e-06	-1.279761e-09	-3.367865e+01	-8.091404e+01
5.900000e-07	-4.817176e-06	-1.215924e-09	-3.352027e+01	-8.067190e+01
6.000000e-07	-4.794036e-06	-1.174189e-09	-3.335925e+01	-8.042611e+01
6.100000e-07	-4.770638e-06	-1.239284e-09	-3.319643e+01	-8.017669e+01
6.200000e-07	-4.747023e-06	-1.215780e-09	-3.303211e+01	-7.992367e+01
6.300000e-07	-4.723201e-06	-1.163053e-09	-3.286634e+01	-7.966709e+01
6.400000e-07	-4.699176e-06	-1.209579e-09	-3.269916e+01	-7.940699e+01
6.500000e-07	-4.674817e-06	-1.220945e-09	-3.252966e+01	-7.914342e+01
6.600000e-07	-4.650065e-06	-1.167598e-09	-3.235743e+01	-7.887646e+01
6.700000e-07	-4.624759e-06	-1.187337e-09	-3.218134e+01	-7.860615e+01
6.800000e-07	-4.598800e-06	-1.211867e-09	-3.200070e+01	-7.833258e+01
6.900000e-07	-4.572251e-06	-1.172366e-09	-3.181596e+01	-7.805581e+01
7.000000e-07	-4.545255e-06	-1.165232e-09	-3.162811e+01	-7.777593e+01
7.100000e-07	-4.517956e-06	-1.193277e-09	-3.143815e+01	-7.749300e+01
7.200000e-07	-4.490383e-06	-1.173594e-09	-3.124628e+01	-7.720712e+01
7.300000e-07	-4.462629e-06	-1.159591e-09	-3.105315e+01	-7.691836e+01
7.400000e-07	-4.434706e-06	-1.176160e-09	-3.085885e+01	-7.662681e+01
7.500000e-07	-4.406528e-06	-1.167695e-09	-3.066278e+01	-7.633253e+01
7.600000e-07	-4.378051e-06	-1.145458e-09	-3.046462e+01	-7.603561e+01
7.700000e-07	-4.349308e-06	-1.149388e-09	-3.026461e+01	-7.573611e+01
7.800000e-07	-4.320179e-06	-1.144592e-09	-3.006192e+01	-7.543409e+01
7.900000e-07	-4.290718e-06	-1.130174e-09	-2.985691e+01	-7.512961e+01
8.000000e-07	-4.261042e-06	-1.133269e-09	-2.965041e+01	-7.482272e+01
8.100000e-07	-4.231018e-06	-1.131870e-09	-2.944149e+01	-7.451346e+01
8.200000e-07	-4.200650e-06	-1.113562e-09	-2.923018e+01	-7.420184e+01
8.300000e-07	-4.170087e-06	-1.113359e-09	-2.901751e+01	-7.388789e+01
8.400000e-07	-4.139268e-06	-1.119995e-09	-2.880305e+01	-7.357161e+01
8.500000e-07	-4.108119e-06	-1.104461e-09	-2.858630e+01	-7.325300e+01
8.600000e-07	-4.076715e-06	-1.092424e-09	-2.836778e+01	-7.293203e+01
8.700000e-07	-4.045090e-06	-1.097035e-09	-2.814772e+01	-7.260866e+01
8.800000e-07	-4.013325e-06	-1.087148e-09	-2.792668e+01	-7.228285e+01
8.900000e-07	-3.981428e-06	-1.070397e-09	-2.770472e+01	-7.195454e+01
9.000000e-07	-3.949322e-06	-1.069032e-09	-2.748131e+01	-7.162364e+01
9.100000e-07	-3.916963e-06	-1.063659e-09	-2.725615e+01	-7.129007e+01
9.200000e-07	-3.884249e-06	-1.049668e-09	-2.702851e+01	-7.095372e+01
9.300000e-07	-3.851103e-06	-1.048559e-09	-2.679786e+01	-7.061448e+01
9.400000e-07	-3.817468e-06	-1.052919e-09	-2.656381e+01	-7.027221e+01
9.500000e-07	-3.783257e-06	-1.039068e-09	-2.632575e+01	-6.992677e+01
9.600000e-07	-3.748595e-06	-1.025960e-09	-2.608456e+01	-6.957802e+01
9.700000e-07	-3.713676e-06	-1.022919e-09	-2.584157e+01	-6.922580e+01
9.800000e-07	-3.678508e-06	-1.012942e-09	-2.559686e+01	-6.886992e+01
9.900000e-07	-3.643088e-06	-1.004505e-09	-2.535039e+01	-6.851022e+01
1.000000e-06	-3.607524e-06	-1.008546e-09	-2.510292e+01	-6.814652e+01
1.010000e-06	-3.571805e-06	-1.005439e-09	-2.485437e+01	-6.777863e+01
1.020000e-06	-3.535915e-06	-9.921434e-10	-2.460463e+01	-6.740635e+01
1.030000e-06	-3.499902e-06	-9.825603e-10	-2.435403e+01	-6.702951e+01
1.040000e-06	-3.463670e-06	-9.789056e-10	-2.410191e+01	-6.664791e+01
1.050000e-06	-3.427202e-06	-9.678107e-10	-2.384815e+01	-6.626136e+01
1.060000e-06	-3.390497e-06	-9.600214e-10	-2.359274e+01	-6.586968e+01
1.070000e-06	-3.353471e-06	-9.585471e-10	-2.333509e+01	-6.547270e+01
1.080000e-06	-3.316119e-06	-9.523297e-10	-2.307518e+01	-6.507023e+01
1.090000e-06	-3.278517e-06	-9.415295e-10	-2.281352e+01	-6.466212e+01
1.100000e-06	-3.240688e-06	-9.329221e-10	-2.255030e+01	-6.424821e+01
1.110000e-06	-3.202629e-06	-9.241973e-10	-2.228546e+01	-6.382835e+01
1.120000e-06	-3.164355e-06	-9.107558e-10	-2.201913e+01	-6.340242e+01
1.130000e-06	-3.125917e-06	-9.051094e-10	-2.175166e+01	-6.297030e+01
1.140000e-06	-3.087242e-06	-9.055610e-10	-2.148254e+01	-6.253188e+01
1.150000e-06	-3.048258e-06	-9.003250e-10	-2.121127e+01	-6.208706e+01
1.160000e-06	-3.009132e-06	-8.941571e-10	-2.093901e+01	-6.163577e+01
1.170000e-06	-2.969835e-06	-8.869464e-10	-2.066556e+01	-6.117794e+01
1.180000e-06	-2.930345e-06	-8.772062e-10	-2.039077e+01	-6.071353e+01
1.190000e-06	-2.890748e-06	-8.627782e-10	-2.011524e+01	-6.024250e+01
1.200000e-06	-2.851022e-06	-8.538612e-10	-1.983880e+01	-5.976483e+01
1.210000e-06	-2.811135e-06	-8.508088e-10	-1.956125e+01	-5.928051e+01
1.220000e-06	-2.771119e-06	-8.466859e-10	-1.928280e+01	-5.878954e+01
1.230000e-06	-2.730914e-06	-8.437621e-10	-1.900303e+01	-5.829194e+01
1.240000e-06	-2.690510e-06	-8.387312e-10	-1.872188e+01	-5.778773e+01
1.250000e-06	-2.650034e-06	-8.305069e-10	-1.844023e+01	-5.727695e+01
1.260000e-06	-2.609406e-06	-8.190127e-10	-1.815753e+01	-5.675963e+01
1.270000e-06	-2.568494e-06	-8.081987e-10	-1.787284e+01	-5.623582e+01
1.280000e-06	-2.527150e-06	-7.996031e-10	-1.758515e+01	-5.570556e+01
1.290000e-06	-2.485367e-06	-7.916180e-10	-1.729440e+01	-5.516890e+01
1.300000e-06	-2.443343e-06	-7.849552e-10	-1.700197e+01	-5.462588e+01
1.310000e-06	-2.401186e-06	-7.781873e-10	-1.670862e+01	-5.407655e+01
1.320000e-06	-2.358718e-06	-7.703332e-10	-1.641311e+01	-5.352094e+01
1.330000e-06	-2.315882e-06	-7.616580e-10	-1.611504e+01	-5.295907e+01
1.340000e-06	-2.272855e-06	-7.531896e-10	-1.581564e+01	-5.239095e+01
1.350000e-06	-2.229657e-06	-7.439885e-10	-1.551505e+01	-5.181659e+01
1.360000e-06	-2.186278e-06	-7.312655e-10	-1.521319e+01	-5.123596e+01
1.370000e-06	-2.142737e-06	-7.215273e-10	-1.491021e+01	-5.064903e+01
1.380000e-06	-2.099042e-06	-7.156459e-10	-1.460616e+01	-5.005574e+01
1.390000e-06	-2.055260e-06	-7.078134e-10	-1.430150e+01	-4.945600e+01
1.400000e-06	-2.011421e-06	-6.984801e-10	-1.399645e+01	-4.884972e+01
1.410000e-06	-1.967516e-06	-6.900334e-10	-1.369094e+01	-4.823675e+01
1.420000e-06	-1.923516e-06	-6.806080e-10	-1.338476e+01	-4.761693e+01
1.430000e-06	-1.879469e-06	-6.703173e-10	-1.307827e+01	-4.699008e+01
1.440000e-06	-1.835331e-06	-6.597363e-10	-1.277113e+01	-4.635596e+01
1.450000e-06	-1.791088e-06	-6.491966e-10	-1.246326e+01	-4.571432e+01
1.460000e-06	-1.746717e-06	-6.373429e-10	-1.215451e+01	-4.506487e+01
1.470000e-06	-1.702234e-06	-6.243856e-10	-1.184498e+01	-4.440729e+01
1.480000e-06	-1.657616e-06	-6.120744e-10	-1.153451e+01	-4.374122e+01
1.490000e-06	-1.612807e-06	-6.010889e-10	-1.122270e+01	-4.306629e+01
1.500000e-06	-1.567915e-06	-5.899857e-10	-1.091032e+01	-4.238206e+01
1.510000e-06	-1.522941e-06	-5.799269e-10	-1.059737e+01	-4.168811e+01
1.520000e-06	-1.477860e-06	-5.680490e-10	-1.028367e+01	-4.098394e+01
1.530000e-06	-1.432642e-06	-5.548990e-10	-9.969022e+00	-4.026906e+01
1.540000e-06	-1.387326e-06	-5.418999e-10	-9.653690e+00	-3.954294e+01
1.550000e-06	-1.341968e-06	-5.283668e-10	-9.338069e+00	-3.880504e+01
1.560000e-06	-1.296573e-06	-5.146583e-10	-9.022190e+00	-3.805478e+01
1.570000e-06	-1.251098e-06	-4.998388e-10	-8.705755e+00	-3.729158e+01
1.580000e-06	-1.205481e-06	-4.866705e-10	-8.388327e+00	-3.651485e+01
1.590000e-06	-1.159736e-06	-4.766532e-10	-8.070011e+00	-3.572398e+01
1.600000e-06	-1.113934e-06	-4.644785e-10	-7.751299e+00	-3.491837e+01
1.610000e-06	-1.068072e-06	-4.498008e-10	-7.432168e+00	-3.409740e+01
1.620000e-06	-1.022085e-06	-4.383084e-10	-7.112164e+00	-3.326046e+01
1.630000e-06	-9.760392e-07	-4.294029e-10	-6.791758e+00	-3.240697e+01
1.640000e-06	-9.299474e-07	-4.181124e-10	-6.471029e+00	-3.153633e+01
1.650000e-06	-8.836775e-07	-4.035459e-10	-6.149060e+00	-3.064798e+01
1.660000e-06	-8.373145e-07	-3.882924e-10	-5.826444e+00	-2.974138e+01
1.670000e-06	-7.909800e-07	-3.723981e-10	-5.504026e+00	-2.881601e+01
1.680000e-06	-7.446318e-07	-3.573464e-10	-5.181512e+00	-2.787137e+01
1.690000e-06	-6.982269e-07	-3.443517e-10	-4.858604e+00	-2.690703e+01
1.700000e-06	-6.517868e-07	-3.302745e-10	-4.535452e+00	-2.592258e+01
1.710000e-06	-6.053196e-07	-3.153198e-10	-4.212110e+00	-2.491765e+01
1.720000e-06	-5.587770e-07	-2.991023e-10	-3.888244e+00	-2.389192e+01
1.730000e-06	-5.122137e-07	-2.804371e-10	-3.564234e+00	-2.284515e+01
1.740000e-06	-4.655851e-07	-2.608139e-10	-3.239769e+00	-2.177712e+01
1.750000e-06	-4.188304e-07	-2.426851e-10	-2.914427e+00	-2.068769e+01
1.760000e-06	-3.721355e-07	-2.278957e-10	-2.589501e+00	-1.957679e+01
1.770000e-06	-3.255189e-07	-2.140916e-10	-2.265120e+00	-1.844439e+01
1.780000e-06	-2.788168e-07	-2.013377e-10	-1.940144e+00	-1.729057e+01
1.790000e-06	-2.320990e-07	-1.877341e-10	-1.615058e+00	-1.611545e+01
1.800000e-06	-1.853833e-07	-1.703126e-10	-1.289988e+00	-1.491921e+01
1.810000e-06	-1.386421e-07	-1.513462e-10	-9.647395e-01	-1.370215e+01
1.820000e-06	-9.193778e-08	-1.337223e-10	-6.397480e-01	-1.246460e+01
1.830000e-06	-4.519044e-08	-1.187021e-10	-3.144572e-01	-1.120698e+01
1.840000e-06	1.655284e-09	-1.039742e-10	1.151828e-02	-9.929794e+00
1.850000e-06	4.857991e-08	-8.692847e-11	3.380428e-01	-8.633605e+00
1.860000e-06	9.537479e-08	-7.047212e-11	6.636644e-01	-7.319054e+00
1.870000e-06	1.420012e-07	-5.149496e-11	9.881135e-01	-5.986851e+00
1.880000e-06	1.886882e-07	-2.950023e-11	1.312985e+00	-4.637776e+00
1.890000e-06	2.354343e-07	-8.137799e-12	1.638267e+00	-3.272674e+00
1.900000e-06	2.821247e-07	1.250004e-11	1.963162e+00	-1.892454e+00
1.910000e-06	3.288288e-07	3.265677e-11	2.288152e+00	-4.980833e-01
1.920000e-06	3.755543e-07	4.953500e-11	2.613291e+00	9.094124e-01
1.930000e-06	4.222413e-07	6.466500e-11	2.938161e+00	2.328957e+00
1.940000e-06	4.688383e-07	8.311018e-11	3.262406e+00	3.759425e+00
1.950000e-06	5.154103e-07	1.015215e-10	3.586477e+00	5.199649e+00
1.960000e-06	5.619601e-07	1.194352e-10	3.910393e+00	6.648422e+00
1.970000e-06	6.083753e-07	1.396648e-10	4.233373e+00	8.104503e+00
1.980000e-06	6.547394e-07	1.615854e-10	4.555997e+00	9.566624e+00
1.990000e-06	7.010642e-07	1.830463e-10	4.878348e+00	1.103349e+01
2.000000e-06	7.472574e-07	2.011082e-10	5.199783e+00	1.250380e+01
2.010000e-06	7.934462e-07	2.192300e-10	5.521187e+00	1.397623e+01
2.020000e-06	8.396362e-07	2.390469e-10	5.842600e+00	1.544944e+01
2.030000e-06	8.857146e-07	2.591031e-10	6.163236e+00	1.692212e+01
2.040000e-06	9.317460e-07	2.782398e-10	6.483544e+00	1.839293e+01
2.050000e-06	9.777493e-07	2.974497e-10	6.803658e+00	1.986056e+01
2.060000e-06	1.023696e-06	3.170072e-10	7.123381e+00	2.132372e+01
2.070000e-06	1.069570e-06	3.378460e-10	7.442593e+00	2.278112e+01
2.080000e-06	1.115382e-06	3.612321e-10	7.761374e+00	2.423150e+01
2.090000e-06	1.161101e-06	3.857293e-10	8.079508e+00	2.567365e+01
2.100000e-06	1.206770e-06	4.094346e-10	8.397293e+00	2.710636e+01
2.110000e-06	1.252387e-06	4.279088e-10	8.714720e+00	2.852850e+01
2.120000e-06	1.297834e-06	4.429132e-10	9.030963e+00	2.993893e+01
2.130000e-06	1.343175e-06	4.582790e-10	9.346470e+00	3.133661e+01
2.140000e-06	1.388481e-06	4.764066e-10	9.661732e+00	3.272052e+01
2.150000e-06	1.433695e-06	4.965228e-10	9.976351e+00	3.408968e+01
2.160000e-06	1.478768e-06	5.172475e-10	1.028999e+01	3.544318e+01
2.170000e-06	1.523705e-06	5.388921e-10	1.060269e+01	3.678017e+01
2.180000e-06	1.568469e-06	5.614429e-10	1.091418e+01	3.809985e+01
2.190000e-06	1.613129e-06	5.800827e-10	1.122494e+01	3.940149e+01
2.200000e-06	1.657708e-06	5.954342e-10	1.153514e+01	4.068439e+01
2.210000e-06	1.702167e-06	6.092383e-10	1.184451e+01	4.194794e+01
2.220000e-06	1.746610e-06	6.232740e-10	1.215377e+01	4.319159e+01
2.230000e-06	1.790927e-06	6.400275e-10	1.246215e+01	4.441483e+01
2.240000e-06	1.835039e-06	6.556015e-10	1.276910e+01	4.561723e+01
2.250000e-06	1.879062e-06	6.705254e-10	1.307543e+01	4.679841e+01
2.260000e-06	1.923016e-06	6.860511e-10	1.338129e+01	4.795804e+01
2.270000e-06	1.966910e-06	7.067905e-10	1.368672e+01	4.909587e+01
2.280000e-06	2.010746e-06	7.270881e-10	1.399175e+01	5.021169e+01
2.290000e-06	2.054523e-06	7.455334e-10	1.429638e+01	5.130534e+01
2.300000e-06	2.098288e-06	7.606677e-10	1.460092e+01	5.237672e+01
2.310000e-06	2.141971e-06	7.737195e-10	1.490488e+01	5.342578e+01
2.320000e-06	2.185515e-06	7.875837e-10	1.520788e+01	5.445251e+01
2.330000e-06	2.228913e-06	8.013232e-10	1.550986e+01	5.545694e+01
2.340000e-06	2.272082e-06	8.167918e-10	1.581026e+01	5.643917e+01
2.350000e-06	2.315019e-06	8.335882e-10	1.610903e+01	5.739930e+01
2.360000e-06	2.357844e-06	8.514779e-10	1.640703e+01	5.833750e+01
2.370000e-06	2.400406e-06	8.657295e-10	1.670320e+01	5.925394e+01
2.380000e-06	2.442513e-06	8.770796e-10	1.699620e+01	6.014886e+01
2.390000e-06	2.484329e-06	8.868619e-10	1.728718e+01	6.102249e+01
2.400000e-06	2.525938e-06	8.950030e-10	1.757671e+01	6.187511e+01
2.410000e-06	2.567204e-06	9.037283e-10	1.786386e+01	6.270701e+01
2.420000e-06	2.608044e-06	9.135321e-10	1.814805e+01	6.351850e+01
2.430000e-06	2.648569e-06	9.258555e-10	1.843004e+01	6.430993e+01
2.440000e-06	2.688921e-06	9.385970e-10	1.871082e+01	6.508162e+01
2.450000e-06	2.729137e-06	9.480555e-10	1.899067e+01	6.583395e+01
2.460000e-06	2.769221e-06	9.590405e-10	1.926960e+01	6.656727e+01
2.470000e-06	2.809177e-06	9.698120e-10	1.954763e+01	6.728197e+01
2.480000e-06	2.849004e-06	9.791468e-10	1.982476e+01	6.797843e+01
2.490000e-06	2.888725e-06	9.881154e-10	2.010116e+01	6.865703e+01
2.500000e-06	2.928339e-06	9.951509e-10	2.037681e+01	6.931817e+01
2.510000e-06	2.967831e-06	1.002332e-09	2.065162e+01	6.996223e+01
2.520000e-06	3.007125e-06	1.013268e-09	2.092504e+01	7.058962e+01
2.530000e-06	3.046205e-06	1.023207e-09	2.119699e+01	7.120071e+01
2.540000e-06	3.085000e-06	1.031501e-09	2.146694e+01	7.179590e+01
2.550000e-06	3.123440e-06	1.039871e-09	2.173442e+01	7.237558e+01
2.560000e-06	3.161657e-06	1.048664e-09	2.200036e+01	7.294013e+01
2.570000e-06	3.199772e-06	1.056403e-09	2.226558e+01	7.348993e+01
2.580000e-06	3.237759e-06	1.063904e-09	2.252991e+01	7.402534e+01
2.590000e-06	3.275551e-06	1.071565e-09	2.279288e+01	7.454675e+01
2.600000e-06	3.313230e-06	1.078458e-09	2.305507e+01	7.505451e+01
2.610000e-06	3.350642e-06	1.084704e-09	2.331540e+01	7.554898e+01
2.620000e-06	3.387646e-06	1.089467e-09	2.357290e+01	7.603052e+01
2.630000e-06	3.424397e-06	1.093213e-09	2.382863e+01	7.649947e+01
2.640000e-06	3.460932e-06	1.099231e-09	2.408285e+01	7.695617e+01
2.650000e-06	3.497197e-06	1.108193e-09	2.433521e+01	7.740097e+01
2.660000e-06	3.533214e-06	1.116430e-09	2.458583e+01	7.783418e+01
2.670000e-06	3.569060e-06	1.123686e-09	2.483527e+01	7.825613e+01
2.680000e-06	3.604779e-06	1.131169e-09	2.508382e+01	7.866715e+01
2.690000e-06	3.640421e-06	1.139033e-09	2.533183e+01	7.906754e+01
2.700000e-06	3.675883e-06	1.145429e-09	2.557860e+01	7.945761e+01
2.710000e-06	3.711072e-06	1.149733e-09	2.582346e+01	7.983767e+01
2.720000e-06	3.745974e-06	1.154189e-09	2.606632e+01	8.020801e+01
2.730000e-06	3.780492e-06	1.159552e-09	2.630651e+01	8.056892e+01
2.740000e-06	3.814563e-06	1.163569e-09	2.654360e+01	8.092069e+01
2.750000e-06	3.848126e-06	1.166964e-09	2.677715e+01	8.126359e+01
2.760000e-06	3.881312e-06	1.171341e-09	2.700807e+01	8.159790e+01
2.770000e-06	3.914155e-06	1.178701e-09	2.723660e+01	8.192389e+01
2.780000e-06	3.946660e-06	1.185848e-09	2.746279e+01	8.224182e+01
2.790000e-06	3.978849e-06	1.191531e-09	2.768678e+01	8.255194e+01
2.800000e-06	4.010723e-06	1.196369e-09	2.790857e+01	8.285449e+01
2.810000e-06	4.042465e-06	1.200443e-09	2.812945e+01	8.314973e+01
2.820000e-06	4.074116e-06	1.205142e-09	2.834969e+01	8.343787e+01
2.830000e-06	4.105628e-06	1.210356e-09	2.856897e+01	8.371915e+01
2.840000e-06	4.136925e-06	1.216813e-09	2.878675e+01	8.399377e+01
2.850000e-06	4.167868e-06	1.224603e-09	2.900207e+01	8.426195e+01
2.860000e-06	4.198418e-06	1.231474e-09	2.921465e+01	8.452387e+01
2.870000e-06	4.228672e-06	1.234491e-09	2.942517e+01	8.477974e+01
2.880000e-06	4.258584e-06	1.237886e-09	2.963331e+01	8.502972e+01
2.890000e-06	4.288151e-06	1.243090e-09	2.983905e+01	8.527398e+01
2.900000e-06	4.317471e-06	1.245872e-09	3.004307e+01	8.551268e+01
2.910000e-06	4.346515e-06	1.249660e-09	3.024518e+01	8.574596e+01
