# Temperatura_=_-0.6
# Concentracion g/m^3_=_1620.0
# C_Vs_to_Am_M_A/Vsm_=_65563218390.804596
# pendiente_HvsI_1/m_=_3716.3
# ordenada_HvsI_A/m_=_1297.0
# frecuencia_Hz_=_135098.80262798027

Tiempo_(s)	Campo_(V.s)	Magnetizacion_(V.s)	Campo_(kA/m)	Magnetizacion_(A/m)
0.000000e+00	-5.517874e-06	-1.384546e-09	-3.836670e+01	-9.158684e+01
1.000000e-08	-5.518218e-06	-1.381900e-09	-3.836909e+01	-9.150730e+01
2.000000e-08	-5.518360e-06	-1.381126e-09	-3.837007e+01	-9.142442e+01
3.000000e-08	-5.518163e-06	-1.383088e-09	-3.836871e+01	-9.133832e+01
4.000000e-08	-5.517448e-06	-1.384656e-09	-3.836374e+01	-9.124908e+01
5.000000e-08	-5.516159e-06	-1.375852e-09	-3.835477e+01	-9.115683e+01
6.000000e-08	-5.514291e-06	-1.355101e-09	-3.834179e+01	-9.106169e+01
7.000000e-08	-5.511827e-06	-1.343014e-09	-3.832466e+01	-9.096379e+01
8.000000e-08	-5.508763e-06	-1.376167e-09	-3.830335e+01	-9.086327e+01
9.000000e-08	-5.505281e-06	-1.462540e-09	-3.827914e+01	-9.076028e+01
1.000000e-07	-5.501439e-06	-1.510206e-09	-3.825242e+01	-9.065495e+01
1.100000e-07	-5.497150e-06	-1.428849e-09	-3.822260e+01	-9.054744e+01
1.200000e-07	-5.492652e-06	-1.307111e-09	-3.819133e+01	-9.043790e+01
1.300000e-07	-5.488026e-06	-1.312378e-09	-3.815916e+01	-9.032650e+01
1.400000e-07	-5.483001e-06	-1.406247e-09	-3.812422e+01	-9.021338e+01
1.500000e-07	-5.477526e-06	-1.401235e-09	-3.808615e+01	-9.009871e+01
1.600000e-07	-5.471745e-06	-1.315928e-09	-3.804596e+01	-8.998263e+01
1.700000e-07	-5.465673e-06	-1.343634e-09	-3.800374e+01	-8.986530e+01
1.800000e-07	-5.459112e-06	-1.430601e-09	-3.795812e+01	-8.974686e+01
1.900000e-07	-5.452094e-06	-1.422917e-09	-3.790932e+01	-8.962744e+01
2.000000e-07	-5.444763e-06	-1.302507e-09	-3.785835e+01	-8.950719e+01
2.100000e-07	-5.437186e-06	-1.294115e-09	-3.780566e+01	-8.938621e+01
2.200000e-07	-5.429327e-06	-1.366341e-09	-3.775102e+01	-8.926462e+01
2.300000e-07	-5.421197e-06	-1.405383e-09	-3.769448e+01	-8.914251e+01
2.400000e-07	-5.412752e-06	-1.356110e-09	-3.763577e+01	-8.901996e+01
2.500000e-07	-5.403635e-06	-1.330389e-09	-3.757238e+01	-8.889705e+01
2.600000e-07	-5.393746e-06	-1.344172e-09	-3.750362e+01	-8.877382e+01
2.700000e-07	-5.383302e-06	-1.350506e-09	-3.743100e+01	-8.865032e+01
2.800000e-07	-5.372314e-06	-1.337901e-09	-3.735459e+01	-8.852655e+01
2.900000e-07	-5.360803e-06	-1.340954e-09	-3.727456e+01	-8.840251e+01
3.000000e-07	-5.349013e-06	-1.355953e-09	-3.719258e+01	-8.827819e+01
3.100000e-07	-5.336859e-06	-1.342365e-09	-3.710807e+01	-8.815354e+01
3.200000e-07	-5.324260e-06	-1.324064e-09	-3.702047e+01	-8.802851e+01
3.300000e-07	-5.311233e-06	-1.309623e-09	-3.692989e+01	-8.790299e+01
3.400000e-07	-5.297849e-06	-1.326777e-09	-3.683683e+01	-8.777691e+01
3.500000e-07	-5.284221e-06	-1.321963e-09	-3.674207e+01	-8.765013e+01
3.600000e-07	-5.270130e-06	-1.322345e-09	-3.664410e+01	-8.752251e+01
3.700000e-07	-5.255493e-06	-1.318788e-09	-3.654232e+01	-8.739388e+01
3.800000e-07	-5.240506e-06	-1.332669e-09	-3.643811e+01	-8.726408e+01
3.900000e-07	-5.224952e-06	-1.308693e-09	-3.632996e+01	-8.713290e+01
4.000000e-07	-5.208683e-06	-1.298136e-09	-3.621684e+01	-8.700012e+01
4.100000e-07	-5.191990e-06	-1.311848e-09	-3.610077e+01	-8.686553e+01
4.200000e-07	-5.175044e-06	-1.315815e-09	-3.598294e+01	-8.672888e+01
4.300000e-07	-5.157834e-06	-1.288196e-09	-3.586328e+01	-8.658991e+01
4.400000e-07	-5.140322e-06	-1.303970e-09	-3.574151e+01	-8.644836e+01
4.500000e-07	-5.122392e-06	-1.331881e-09	-3.561685e+01	-8.630397e+01
4.600000e-07	-5.103954e-06	-1.310956e-09	-3.548865e+01	-8.615646e+01
4.700000e-07	-5.085088e-06	-1.277692e-09	-3.535747e+01	-8.600554e+01
4.800000e-07	-5.065911e-06	-1.300479e-09	-3.522413e+01	-8.585093e+01
4.900000e-07	-5.046510e-06	-1.308895e-09	-3.508922e+01	-8.569236e+01
5.000000e-07	-5.026903e-06	-1.284190e-09	-3.495289e+01	-8.552955e+01
5.100000e-07	-5.007094e-06	-1.277994e-09	-3.481516e+01	-8.536222e+01
5.200000e-07	-4.987022e-06	-1.285510e-09	-3.467560e+01	-8.519012e+01
5.300000e-07	-4.966601e-06	-1.273227e-09	-3.453360e+01	-8.501299e+01
5.400000e-07	-4.945775e-06	-1.280539e-09	-3.438880e+01	-8.483058e+01
5.500000e-07	-4.924634e-06	-1.297447e-09	-3.424180e+01	-8.464268e+01
5.600000e-07	-4.903175e-06	-1.275521e-09	-3.409259e+01	-8.444908e+01
5.700000e-07	-4.881360e-06	-1.253750e-09	-3.394091e+01	-8.424957e+01
5.800000e-07	-4.859250e-06	-1.266165e-09	-3.378717e+01	-8.404400e+01
5.900000e-07	-4.836721e-06	-1.272133e-09	-3.363053e+01	-8.383221e+01
6.000000e-07	-4.813836e-06	-1.255130e-09	-3.347140e+01	-8.361409e+01
6.100000e-07	-4.790670e-06	-1.257757e-09	-3.331033e+01	-8.338952e+01
6.200000e-07	-4.767191e-06	-1.263303e-09	-3.314707e+01	-8.315843e+01
6.300000e-07	-4.743524e-06	-1.249256e-09	-3.298251e+01	-8.292079e+01
6.400000e-07	-4.719661e-06	-1.232867e-09	-3.281659e+01	-8.267655e+01
6.500000e-07	-4.695482e-06	-1.234160e-09	-3.264847e+01	-8.242574e+01
6.600000e-07	-4.670944e-06	-1.230086e-09	-3.247785e+01	-8.216839e+01
6.700000e-07	-4.645976e-06	-1.225421e-09	-3.230425e+01	-8.190454e+01
6.800000e-07	-4.620433e-06	-1.225223e-09	-3.212664e+01	-8.163430e+01
6.900000e-07	-4.594254e-06	-1.229216e-09	-3.194461e+01	-8.135776e+01
7.000000e-07	-4.567495e-06	-1.217817e-09	-3.175856e+01	-8.107508e+01
7.100000e-07	-4.540308e-06	-1.208538e-09	-3.156952e+01	-8.078640e+01
7.200000e-07	-4.512843e-06	-1.202640e-09	-3.137855e+01	-8.049191e+01
7.300000e-07	-4.485231e-06	-1.197810e-09	-3.118656e+01	-8.019181e+01
7.400000e-07	-4.457486e-06	-1.189473e-09	-3.099365e+01	-7.988632e+01
7.500000e-07	-4.429532e-06	-1.189291e-09	-3.079927e+01	-7.957567e+01
7.600000e-07	-4.401359e-06	-1.189151e-09	-3.060338e+01	-7.926011e+01
7.700000e-07	-4.372941e-06	-1.184860e-09	-3.040579e+01	-7.893990e+01
7.800000e-07	-4.344158e-06	-1.177516e-09	-3.020566e+01	-7.861532e+01
7.900000e-07	-4.314957e-06	-1.175505e-09	-3.000262e+01	-7.828662e+01
8.000000e-07	-4.285499e-06	-1.167706e-09	-2.979779e+01	-7.795409e+01
8.100000e-07	-4.255812e-06	-1.155877e-09	-2.959137e+01	-7.761800e+01
8.200000e-07	-4.225783e-06	-1.146527e-09	-2.938258e+01	-7.727863e+01
8.300000e-07	-4.195411e-06	-1.141041e-09	-2.917139e+01	-7.693624e+01
8.400000e-07	-4.164758e-06	-1.137200e-09	-2.895826e+01	-7.659110e+01
8.500000e-07	-4.133775e-06	-1.133788e-09	-2.874283e+01	-7.624345e+01
8.600000e-07	-4.102511e-06	-1.127288e-09	-2.852544e+01	-7.589353e+01
8.700000e-07	-4.071080e-06	-1.117545e-09	-2.830690e+01	-7.554154e+01
8.800000e-07	-4.039523e-06	-1.108684e-09	-2.808748e+01	-7.518770e+01
8.900000e-07	-4.007774e-06	-1.098870e-09	-2.786672e+01	-7.483218e+01
9.000000e-07	-3.975815e-06	-1.093843e-09	-2.764450e+01	-7.447513e+01
9.100000e-07	-3.943677e-06	-1.088733e-09	-2.742104e+01	-7.411669e+01
9.200000e-07	-3.911236e-06	-1.085908e-09	-2.719548e+01	-7.375696e+01
9.300000e-07	-3.878384e-06	-1.081415e-09	-2.696705e+01	-7.339602e+01
9.400000e-07	-3.845003e-06	-1.075174e-09	-2.673494e+01	-7.303391e+01
9.500000e-07	-3.811122e-06	-1.065788e-09	-2.649937e+01	-7.267066e+01
9.600000e-07	-3.776816e-06	-1.057320e-09	-2.626083e+01	-7.230626e+01
9.700000e-07	-3.742157e-06	-1.048478e-09	-2.601984e+01	-7.194066e+01
9.800000e-07	-3.707161e-06	-1.041521e-09	-2.577651e+01	-7.157379e+01
9.900000e-07	-3.671836e-06	-1.036224e-09	-2.553089e+01	-7.120556e+01
1.000000e-06	-3.636314e-06	-1.033732e-09	-2.528390e+01	-7.083585e+01
1.010000e-06	-3.600661e-06	-1.028769e-09	-2.503600e+01	-7.046449e+01
1.020000e-06	-3.564866e-06	-1.023124e-09	-2.478711e+01	-7.009131e+01
1.030000e-06	-3.528941e-06	-1.017138e-09	-2.453732e+01	-6.971611e+01
1.040000e-06	-3.492836e-06	-1.010395e-09	-2.428627e+01	-6.933864e+01
1.050000e-06	-3.456431e-06	-1.003154e-09	-2.403314e+01	-6.895868e+01
1.060000e-06	-3.419730e-06	-9.974658e-10	-2.377795e+01	-6.857595e+01
1.070000e-06	-3.382835e-06	-9.925826e-10	-2.352142e+01	-6.819017e+01
1.080000e-06	-3.345721e-06	-9.865510e-10	-2.326336e+01	-6.780105e+01
1.090000e-06	-3.308316e-06	-9.768474e-10	-2.300327e+01	-6.740827e+01
1.100000e-06	-3.270661e-06	-9.686077e-10	-2.274145e+01	-6.701152e+01
1.110000e-06	-3.232827e-06	-9.610717e-10	-2.247839e+01	-6.661049e+01
1.120000e-06	-3.194716e-06	-9.536786e-10	-2.221339e+01	-6.620484e+01
1.130000e-06	-3.156299e-06	-9.472931e-10	-2.194627e+01	-6.579425e+01
1.140000e-06	-3.117738e-06	-9.414410e-10	-2.167815e+01	-6.537841e+01
1.150000e-06	-3.079036e-06	-9.344844e-10	-2.140905e+01	-6.495699e+01
1.160000e-06	-3.040090e-06	-9.249818e-10	-2.113825e+01	-6.452969e+01
1.170000e-06	-3.000891e-06	-9.143333e-10	-2.086570e+01	-6.409621e+01
1.180000e-06	-2.961547e-06	-9.049321e-10	-2.059213e+01	-6.365626e+01
1.190000e-06	-2.922040e-06	-8.995623e-10	-2.031743e+01	-6.320957e+01
1.200000e-06	-2.882357e-06	-8.941760e-10	-2.004151e+01	-6.275589e+01
1.210000e-06	-2.842574e-06	-8.888156e-10	-1.976489e+01	-6.229497e+01
1.220000e-06	-2.802657e-06	-8.838253e-10	-1.948734e+01	-6.182660e+01
1.230000e-06	-2.762564e-06	-8.766219e-10	-1.920857e+01	-6.135058e+01
1.240000e-06	-2.722297e-06	-8.674499e-10	-1.892859e+01	-6.086672e+01
1.250000e-06	-2.681881e-06	-8.589485e-10	-1.864757e+01	-6.037487e+01
1.260000e-06	-2.641271e-06	-8.492117e-10	-1.836520e+01	-5.987489e+01
1.270000e-06	-2.600507e-06	-8.404214e-10	-1.808176e+01	-5.936667e+01
1.280000e-06	-2.559547e-06	-8.338413e-10	-1.779696e+01	-5.885010e+01
1.290000e-06	-2.518176e-06	-8.274496e-10	-1.750929e+01	-5.832510e+01
1.300000e-06	-2.476392e-06	-8.185489e-10	-1.721877e+01	-5.779163e+01
1.310000e-06	-2.434349e-06	-8.100889e-10	-1.692643e+01	-5.724962e+01
1.320000e-06	-2.392114e-06	-8.005812e-10	-1.663276e+01	-5.669906e+01
1.330000e-06	-2.349551e-06	-7.902342e-10	-1.633682e+01	-5.613993e+01
1.340000e-06	-2.306686e-06	-7.799594e-10	-1.603877e+01	-5.557222e+01
1.350000e-06	-2.263621e-06	-7.721166e-10	-1.573933e+01	-5.499592e+01
1.360000e-06	-2.220359e-06	-7.634344e-10	-1.543852e+01	-5.441106e+01
1.370000e-06	-2.176890e-06	-7.523885e-10	-1.513628e+01	-5.381764e+01
1.380000e-06	-2.133280e-06	-7.420720e-10	-1.483305e+01	-5.321567e+01
1.390000e-06	-2.089637e-06	-7.324925e-10	-1.452959e+01	-5.260515e+01
1.400000e-06	-2.045959e-06	-7.225200e-10	-1.422590e+01	-5.198608e+01
1.410000e-06	-2.002167e-06	-7.116842e-10	-1.392140e+01	-5.135847e+01
1.420000e-06	-1.958211e-06	-7.010925e-10	-1.361576e+01	-5.072227e+01
1.430000e-06	-1.914199e-06	-6.916199e-10	-1.330974e+01	-5.007746e+01
1.440000e-06	-1.870140e-06	-6.810330e-10	-1.300339e+01	-4.942397e+01
1.450000e-06	-1.826001e-06	-6.705440e-10	-1.269649e+01	-4.876175e+01
1.460000e-06	-1.781777e-06	-6.605822e-10	-1.238899e+01	-4.809067e+01
1.470000e-06	-1.737387e-06	-6.504176e-10	-1.208034e+01	-4.741063e+01
1.480000e-06	-1.692829e-06	-6.397349e-10	-1.177052e+01	-4.672147e+01
1.490000e-06	-1.648123e-06	-6.288526e-10	-1.145968e+01	-4.602300e+01
1.500000e-06	-1.603307e-06	-6.177371e-10	-1.114806e+01	-4.531501e+01
1.510000e-06	-1.558390e-06	-6.060981e-10	-1.083575e+01	-4.459727e+01
1.520000e-06	-1.513359e-06	-5.959202e-10	-1.052263e+01	-4.386950e+01
1.530000e-06	-1.468200e-06	-5.846285e-10	-1.020864e+01	-4.313138e+01
1.540000e-06	-1.422903e-06	-5.717638e-10	-9.893682e+00	-4.238259e+01
1.550000e-06	-1.377510e-06	-5.581236e-10	-9.578058e+00	-4.162274e+01
1.560000e-06	-1.332002e-06	-5.467672e-10	-9.261629e+00	-4.085143e+01
1.570000e-06	-1.286433e-06	-5.356200e-10	-8.944783e+00	-4.006824e+01
1.580000e-06	-1.240810e-06	-5.231436e-10	-8.627561e+00	-3.927270e+01
1.590000e-06	-1.195098e-06	-5.098011e-10	-8.309718e+00	-3.846432e+01
1.600000e-06	-1.149359e-06	-4.968243e-10	-7.991682e+00	-3.764261e+01
1.610000e-06	-1.103546e-06	-4.838988e-10	-7.673138e+00	-3.680703e+01
1.620000e-06	-1.057627e-06	-4.713707e-10	-7.353858e+00	-3.595704e+01
1.630000e-06	-1.011638e-06	-4.602947e-10	-7.034086e+00	-3.509209e+01
1.640000e-06	-9.655473e-07	-4.514953e-10	-6.713611e+00	-3.421160e+01
1.650000e-06	-9.194238e-07	-4.421591e-10	-6.392907e+00	-3.331502e+01
1.660000e-06	-8.732796e-07	-4.282684e-10	-6.072059e+00	-3.240178e+01
1.670000e-06	-8.270623e-07	-4.117660e-10	-5.750702e+00	-3.147131e+01
1.680000e-06	-7.807568e-07	-3.952771e-10	-5.428732e+00	-3.052308e+01
1.690000e-06	-7.343500e-07	-3.803303e-10	-5.106058e+00	-2.955654e+01
1.700000e-06	-6.879180e-07	-3.690490e-10	-4.783209e+00	-2.857118e+01
1.710000e-06	-6.414260e-07	-3.581627e-10	-4.459942e+00	-2.756652e+01
1.720000e-06	-5.948370e-07	-3.432758e-10	-4.136001e+00	-2.654211e+01
1.730000e-06	-5.482105e-07	-3.250090e-10	-3.811799e+00	-2.549753e+01
1.740000e-06	-5.015394e-07	-3.050269e-10	-3.487287e+00	-2.443241e+01
1.750000e-06	-4.548674e-07	-2.854481e-10	-3.162769e+00	-2.334643e+01
1.760000e-06	-4.082112e-07	-2.684786e-10	-2.838361e+00	-2.223932e+01
1.770000e-06	-3.615294e-07	-2.549955e-10	-2.513774e+00	-2.111087e+01
1.780000e-06	-3.147772e-07	-2.418796e-10	-2.188698e+00	-1.996092e+01
1.790000e-06	-2.679615e-07	-2.273571e-10	-1.863181e+00	-1.878939e+01
1.800000e-06	-2.211724e-07	-2.111896e-10	-1.537848e+00	-1.759627e+01
1.810000e-06	-1.743768e-07	-1.925180e-10	-1.212471e+00	-1.638162e+01
1.820000e-06	-1.275469e-07	-1.738864e-10	-8.868547e-01	-1.514557e+01
1.830000e-06	-8.068976e-08	-1.573846e-10	-5.610494e-01	-1.388834e+01
1.840000e-06	-3.386179e-08	-1.429058e-10	-2.354467e-01	-1.261022e+01
1.850000e-06	1.286426e-08	-1.276317e-10	8.944737e-02	-1.131158e+01
1.860000e-06	5.962105e-08	-1.102802e-10	4.145551e-01	-9.992884e+00
1.870000e-06	1.064121e-07	-9.150552e-11	7.399009e-01	-8.654673e+00
1.880000e-06	1.532283e-07	-7.089489e-11	1.065422e+00	-7.297569e+00
1.890000e-06	2.001358e-07	-4.941502e-11	1.391578e+00	-5.922274e+00
1.900000e-06	2.469623e-07	-2.689548e-11	1.717170e+00	-4.529575e+00
1.910000e-06	2.936993e-07	-6.559800e-12	2.042140e+00	-3.120332e+00
1.920000e-06	3.404972e-07	1.210300e-11	2.367534e+00	-1.695483e+00
1.930000e-06	3.872468e-07	3.123556e-11	2.692592e+00	-2.560377e-01
1.940000e-06	4.338821e-07	5.044095e-11	3.016855e+00	1.196926e+00
1.950000e-06	4.804952e-07	7.113335e-11	3.340963e+00	2.662265e+00
1.960000e-06	5.270020e-07	9.136161e-11	3.664333e+00	4.138777e+00
1.970000e-06	5.734371e-07	1.118527e-10	3.987204e+00	5.625205e+00
1.980000e-06	6.198910e-07	1.308349e-10	4.310206e+00	7.120242e+00
1.990000e-06	6.662674e-07	1.512920e-10	4.632668e+00	8.622538e+00
2.000000e-06	7.125411e-07	1.730989e-10	4.954417e+00	1.013071e+01
2.010000e-06	7.587429e-07	1.941540e-10	5.275666e+00	1.164332e+01
2.020000e-06	8.049873e-07	2.157194e-10	5.597211e+00	1.315895e+01
2.030000e-06	8.512193e-07	2.375359e-10	5.918670e+00	1.467613e+01
2.040000e-06	8.973309e-07	2.585443e-10	6.239291e+00	1.619337e+01
2.050000e-06	9.434627e-07	2.784519e-10	6.560054e+00	1.770922e+01
2.060000e-06	9.896017e-07	3.000844e-10	6.880865e+00	1.922218e+01
2.070000e-06	1.035644e-06	3.212553e-10	7.201004e+00	2.073080e+01
2.080000e-06	1.081563e-06	3.409518e-10	7.520290e+00	2.223364e+01
2.090000e-06	1.127401e-06	3.612028e-10	7.839010e+00	2.372925e+01
2.100000e-06	1.173189e-06	3.826195e-10	8.157376e+00	2.521625e+01
2.110000e-06	1.218852e-06	4.035212e-10	8.474881e+00	2.669327e+01
2.120000e-06	1.264392e-06	4.231551e-10	8.791526e+00	2.815900e+01
2.130000e-06	1.309827e-06	4.424441e-10	9.107448e+00	2.961216e+01
2.140000e-06	1.355234e-06	4.629924e-10	9.423169e+00	3.105153e+01
2.150000e-06	1.400554e-06	4.820934e-10	9.738285e+00	3.247595e+01
2.160000e-06	1.445762e-06	5.005145e-10	1.005263e+01	3.388432e+01
2.170000e-06	1.490931e-06	5.191246e-10	1.036669e+01	3.527560e+01
2.180000e-06	1.535911e-06	5.392974e-10	1.067944e+01	3.664881e+01
2.190000e-06	1.580776e-06	5.606494e-10	1.099140e+01	3.800307e+01
2.200000e-06	1.625603e-06	5.802276e-10	1.130309e+01	3.933755e+01
2.210000e-06	1.670275e-06	5.991791e-10	1.161370e+01	4.065151e+01
2.220000e-06	1.714798e-06	6.154904e-10	1.192328e+01	4.194427e+01
2.230000e-06	1.759171e-06	6.295514e-10	1.223181e+01	4.321525e+01
2.240000e-06	1.803362e-06	6.444716e-10	1.253908e+01	4.446393e+01
2.250000e-06	1.847446e-06	6.613586e-10	1.284560e+01	4.568987e+01
2.260000e-06	1.891480e-06	6.804950e-10	1.315178e+01	4.689273e+01
2.270000e-06	1.935449e-06	6.993906e-10	1.345750e+01	4.807222e+01
2.280000e-06	1.979333e-06	7.177047e-10	1.376263e+01	4.922813e+01
2.290000e-06	2.023142e-06	7.331581e-10	1.406724e+01	5.036033e+01
2.300000e-06	2.066862e-06	7.470732e-10	1.437124e+01	5.146876e+01
2.310000e-06	2.110491e-06	7.590059e-10	1.467460e+01	5.255343e+01
2.320000e-06	2.154078e-06	7.715019e-10	1.497767e+01	5.361440e+01
2.330000e-06	2.197617e-06	7.875319e-10	1.528039e+01	5.465180e+01
2.340000e-06	2.241067e-06	8.049518e-10	1.558251e+01	5.566582e+01
2.350000e-06	2.284353e-06	8.232556e-10	1.588349e+01	5.665670e+01
2.360000e-06	2.327491e-06	8.406539e-10	1.618343e+01	5.762471e+01
2.370000e-06	2.370340e-06	8.552276e-10	1.648137e+01	5.857021e+01
2.380000e-06	2.412781e-06	8.650220e-10	1.677647e+01	5.949354e+01
2.390000e-06	2.454993e-06	8.733290e-10	1.706998e+01	6.039513e+01
2.400000e-06	2.496911e-06	8.824291e-10	1.736144e+01	6.127540e+01
2.410000e-06	2.538487e-06	8.936628e-10	1.765052e+01	6.213481e+01
2.420000e-06	2.579728e-06	9.090659e-10	1.793728e+01	6.297386e+01
2.430000e-06	2.620572e-06	9.235377e-10	1.822128e+01	6.379302e+01
2.440000e-06	2.661172e-06	9.357352e-10	1.850357e+01	6.459282e+01
2.450000e-06	2.701607e-06	9.435591e-10	1.878473e+01	6.537378e+01
2.460000e-06	2.741851e-06	9.499586e-10	1.906455e+01	6.613641e+01
2.470000e-06	2.781911e-06	9.582887e-10	1.934309e+01	6.688123e+01
2.480000e-06	2.821748e-06	9.693089e-10	1.962008e+01	6.760877e+01
2.490000e-06	2.861452e-06	9.824399e-10	1.989615e+01	6.831953e+01
2.500000e-06	2.901094e-06	9.960469e-10	2.017179e+01	6.901402e+01
2.510000e-06	2.940621e-06	1.008844e-09	2.044663e+01	6.969271e+01
2.520000e-06	2.980016e-06	1.017879e-09	2.072055e+01	7.035609e+01
2.530000e-06	3.019240e-06	1.024520e-09	2.099328e+01	7.100461e+01
2.540000e-06	3.058172e-06	1.029319e-09	2.126398e+01	7.163871e+01
2.550000e-06	3.096788e-06	1.035348e-09	2.153249e+01	7.225879e+01
2.560000e-06	3.135199e-06	1.044461e-09	2.179956e+01	7.286524e+01
2.570000e-06	3.173450e-06	1.054652e-09	2.206553e+01	7.345845e+01
2.580000e-06	3.211509e-06	1.064365e-09	2.233016e+01	7.403874e+01
2.590000e-06	3.249300e-06	1.074018e-09	2.259293e+01	7.460645e+01
2.600000e-06	3.286913e-06	1.082828e-09	2.285445e+01	7.516186e+01
2.610000e-06	3.324383e-06	1.089083e-09	2.311499e+01	7.570525e+01
2.620000e-06	3.361644e-06	1.093106e-09	2.337407e+01	7.623687e+01
2.630000e-06	3.398696e-06	1.099996e-09	2.363170e+01	7.675694e+01
2.640000e-06	3.435436e-06	1.106889e-09	2.388716e+01	7.726567e+01
2.650000e-06	3.471811e-06	1.114767e-09	2.414008e+01	7.776324e+01
2.660000e-06	3.507946e-06	1.124958e-09	2.439133e+01	7.824982e+01
2.670000e-06	3.543921e-06	1.135427e-09	2.464148e+01	7.872556e+01
2.680000e-06	3.579740e-06	1.144203e-09	2.489053e+01	7.919058e+01
2.690000e-06	3.615435e-06	1.151488e-09	2.513872e+01	7.964501e+01
2.700000e-06	3.651020e-06	1.157818e-09	2.538615e+01	8.008894e+01
2.710000e-06	3.686482e-06	1.162410e-09	2.563272e+01	8.052246e+01
2.720000e-06	3.721772e-06	1.165917e-09	2.587810e+01	8.094568e+01
2.730000e-06	3.756747e-06	1.171781e-09	2.612129e+01	8.135865e+01
2.740000e-06	3.791352e-06	1.177664e-09	2.636190e+01	8.176145e+01
2.750000e-06	3.825494e-06	1.184594e-09	2.659930e+01	8.215415e+01
2.760000e-06	3.859100e-06	1.191259e-09	2.683297e+01	8.253682e+01
2.770000e-06	3.892221e-06	1.195745e-09	2.706326e+01	8.290951e+01
2.780000e-06	3.924874e-06	1.199070e-09	2.729030e+01	8.327231e+01
2.790000e-06	3.957148e-06	1.202167e-09	2.751471e+01	8.362527e+01
2.800000e-06	3.989163e-06	1.207550e-09	2.773732e+01	8.396847e+01
2.810000e-06	4.021012e-06	1.213302e-09	2.795877e+01	8.430199e+01
2.820000e-06	4.052737e-06	1.220430e-09	2.817935e+01	8.462592e+01
2.830000e-06	4.084324e-06	1.228884e-09	2.839898e+01	8.494035e+01
2.840000e-06	4.115678e-06	1.237201e-09	2.861700e+01	8.524538e+01
2.850000e-06	4.146740e-06	1.242015e-09	2.883297e+01	8.554111e+01
2.860000e-06	4.177503e-06	1.244361e-09	2.904688e+01	8.582767e+01
2.870000e-06	4.207988e-06	1.245664e-09	2.925884e+01	8.610518e+01
2.880000e-06	4.238168e-06	1.247050e-09	2.946869e+01	8.637379e+01
2.890000e-06	4.267953e-06	1.250168e-09	2.967579e+01	8.663363e+01
2.900000e-06	4.297463e-06	1.255645e-09	2.988098e+01	8.688487e+01
