# Temperatura_=_12.79
# Concentracion g/m^3_=_1620.0
# C_Vs_to_Am_M_A/Vsm_=_65563218390.804596
# pendiente_HvsI_1/m_=_3716.3
# ordenada_HvsI_A/m_=_1297.0
# frecuencia_Hz_=_135091.11130666666

Tiempo_(s)	Campo_(V.s)	Magnetizacion_(V.s)	Campo_(kA/m)	Magnetizacion_(A/m)
0.000000e+00	-5.518795e-06	-1.628369e-09	-3.837602e+01	-1.061073e+02
1.000000e-08	-5.518994e-06	-1.625733e-09	-3.837741e+01	-1.060896e+02
2.000000e-08	-5.518913e-06	-1.625730e-09	-3.837685e+01	-1.060688e+02
3.000000e-08	-5.518400e-06	-1.626467e-09	-3.837327e+01	-1.060447e+02
4.000000e-08	-5.517421e-06	-1.621402e-09	-3.836647e+01	-1.060172e+02
5.000000e-08	-5.515777e-06	-1.608082e-09	-3.835504e+01	-1.059861e+02
6.000000e-08	-5.513490e-06	-1.594172e-09	-3.833913e+01	-1.059514e+02
7.000000e-08	-5.510762e-06	-1.610383e-09	-3.832017e+01	-1.059128e+02
8.000000e-08	-5.507604e-06	-1.685583e-09	-3.829821e+01	-1.058703e+02
9.000000e-08	-5.504001e-06	-1.737631e-09	-3.827315e+01	-1.058237e+02
1.000000e-07	-5.499865e-06	-1.645725e-09	-3.824439e+01	-1.057729e+02
1.100000e-07	-5.495480e-06	-1.521097e-09	-3.821390e+01	-1.057177e+02
1.200000e-07	-5.490977e-06	-1.539700e-09	-3.818259e+01	-1.056581e+02
1.300000e-07	-5.486151e-06	-1.649499e-09	-3.814903e+01	-1.055940e+02
1.400000e-07	-5.480878e-06	-1.689865e-09	-3.811236e+01	-1.055251e+02
1.500000e-07	-5.475276e-06	-1.559948e-09	-3.807340e+01	-1.054515e+02
1.600000e-07	-5.469399e-06	-1.554283e-09	-3.803254e+01	-1.053730e+02
1.700000e-07	-5.463094e-06	-1.632982e-09	-3.798869e+01	-1.052895e+02
1.800000e-07	-5.456319e-06	-1.690685e-09	-3.794159e+01	-1.052010e+02
1.900000e-07	-5.449142e-06	-1.568797e-09	-3.789168e+01	-1.051074e+02
2.000000e-07	-5.441730e-06	-1.511189e-09	-3.784013e+01	-1.050087e+02
2.100000e-07	-5.434084e-06	-1.596513e-09	-3.778697e+01	-1.049048e+02
2.200000e-07	-5.426119e-06	-1.674442e-09	-3.773158e+01	-1.047957e+02
2.300000e-07	-5.417780e-06	-1.615360e-09	-3.767359e+01	-1.046813e+02
2.400000e-07	-5.408891e-06	-1.543115e-09	-3.761178e+01	-1.045617e+02
2.500000e-07	-5.399388e-06	-1.587571e-09	-3.754571e+01	-1.044368e+02
2.600000e-07	-5.389295e-06	-1.615910e-09	-3.747552e+01	-1.043067e+02
2.700000e-07	-5.378671e-06	-1.592810e-09	-3.740164e+01	-1.041712e+02
2.800000e-07	-5.367528e-06	-1.563998e-09	-3.732416e+01	-1.040305e+02
2.900000e-07	-5.355952e-06	-1.617661e-09	-3.724366e+01	-1.038846e+02
3.000000e-07	-5.344086e-06	-1.611387e-09	-3.716115e+01	-1.037334e+02
3.100000e-07	-5.331780e-06	-1.578439e-09	-3.707558e+01	-1.035770e+02
3.200000e-07	-5.318956e-06	-1.551359e-09	-3.698641e+01	-1.034154e+02
3.300000e-07	-5.305862e-06	-1.606632e-09	-3.689535e+01	-1.032486e+02
3.400000e-07	-5.292497e-06	-1.595818e-09	-3.680242e+01	-1.030766e+02
3.500000e-07	-5.278593e-06	-1.580077e-09	-3.670573e+01	-1.028994e+02
3.600000e-07	-5.264119e-06	-1.577436e-09	-3.660508e+01	-1.027171e+02
3.700000e-07	-5.249313e-06	-1.593961e-09	-3.650213e+01	-1.025295e+02
3.800000e-07	-5.233918e-06	-1.547396e-09	-3.639507e+01	-1.023368e+02
3.900000e-07	-5.217877e-06	-1.547452e-09	-3.628353e+01	-1.021389e+02
4.000000e-07	-5.201559e-06	-1.579771e-09	-3.617006e+01	-1.019358e+02
4.100000e-07	-5.184851e-06	-1.573525e-09	-3.605388e+01	-1.017275e+02
4.200000e-07	-5.167739e-06	-1.535896e-09	-3.593489e+01	-1.015139e+02
4.300000e-07	-5.150399e-06	-1.567308e-09	-3.581431e+01	-1.012950e+02
4.400000e-07	-5.132801e-06	-1.589161e-09	-3.569194e+01	-1.010707e+02
4.500000e-07	-5.114751e-06	-1.541653e-09	-3.556643e+01	-1.008410e+02
4.600000e-07	-5.096212e-06	-1.517097e-09	-3.543751e+01	-1.006059e+02
4.700000e-07	-5.077311e-06	-1.542430e-09	-3.530608e+01	-1.003652e+02
4.800000e-07	-5.058158e-06	-1.539172e-09	-3.517290e+01	-1.001190e+02
4.900000e-07	-5.038790e-06	-1.525027e-09	-3.503821e+01	-9.986707e+01
5.000000e-07	-5.019220e-06	-1.546343e-09	-3.490213e+01	-9.960942e+01
5.100000e-07	-4.999401e-06	-1.528735e-09	-3.476431e+01	-9.934596e+01
5.200000e-07	-4.979131e-06	-1.499760e-09	-3.462337e+01	-9.907661e+01
5.300000e-07	-4.958492e-06	-1.518601e-09	-3.447985e+01	-9.880129e+01
5.400000e-07	-4.937530e-06	-1.535959e-09	-3.433408e+01	-9.851994e+01
5.500000e-07	-4.916161e-06	-1.496323e-09	-3.418549e+01	-9.823249e+01
5.600000e-07	-4.894499e-06	-1.492026e-09	-3.403486e+01	-9.793887e+01
5.700000e-07	-4.872541e-06	-1.508011e-09	-3.388217e+01	-9.763904e+01
5.800000e-07	-4.850226e-06	-1.502737e-09	-3.372700e+01	-9.733293e+01
5.900000e-07	-4.827497e-06	-1.482032e-09	-3.356895e+01	-9.702052e+01
6.000000e-07	-4.804478e-06	-1.485257e-09	-3.340888e+01	-9.670178e+01
6.100000e-07	-4.781257e-06	-1.471125e-09	-3.324741e+01	-9.637669e+01
6.200000e-07	-4.757790e-06	-1.466894e-09	-3.308423e+01	-9.604525e+01
6.300000e-07	-4.734055e-06	-1.466308e-09	-3.291918e+01	-9.570747e+01
6.400000e-07	-4.709964e-06	-1.465005e-09	-3.275166e+01	-9.536337e+01
6.500000e-07	-4.685450e-06	-1.451284e-09	-3.258120e+01	-9.501300e+01
6.600000e-07	-4.660638e-06	-1.451697e-09	-3.240866e+01	-9.465642e+01
6.700000e-07	-4.635347e-06	-1.444705e-09	-3.223279e+01	-9.429369e+01
6.800000e-07	-4.609357e-06	-1.439431e-09	-3.205207e+01	-9.392491e+01
6.900000e-07	-4.582850e-06	-1.433218e-09	-3.186775e+01	-9.355018e+01
7.000000e-07	-4.555936e-06	-1.430696e-09	-3.168059e+01	-9.316962e+01
7.100000e-07	-4.528726e-06	-1.422487e-09	-3.149138e+01	-9.278336e+01
7.200000e-07	-4.501339e-06	-1.421510e-09	-3.130094e+01	-9.239155e+01
7.300000e-07	-4.473844e-06	-1.414835e-09	-3.110975e+01	-9.199436e+01
7.400000e-07	-4.446114e-06	-1.403927e-09	-3.091692e+01	-9.159195e+01
7.500000e-07	-4.417983e-06	-1.394056e-09	-3.072131e+01	-9.118452e+01
7.600000e-07	-4.389639e-06	-1.385252e-09	-3.052422e+01	-9.077224e+01
7.700000e-07	-4.361079e-06	-1.373138e-09	-3.032562e+01	-9.035532e+01
7.800000e-07	-4.332147e-06	-1.364458e-09	-3.012444e+01	-8.993397e+01
7.900000e-07	-4.302900e-06	-1.366392e-09	-2.992106e+01	-8.950838e+01
8.000000e-07	-4.273336e-06	-1.359832e-09	-2.971548e+01	-8.907877e+01
8.100000e-07	-4.243481e-06	-1.348847e-09	-2.950788e+01	-8.864534e+01
8.200000e-07	-4.213370e-06	-1.340778e-09	-2.929850e+01	-8.820830e+01
8.300000e-07	-4.182963e-06	-1.338877e-09	-2.908705e+01	-8.776785e+01
8.400000e-07	-4.152217e-06	-1.325809e-09	-2.887325e+01	-8.732416e+01
8.500000e-07	-4.121127e-06	-1.313379e-09	-2.865706e+01	-8.687743e+01
8.600000e-07	-4.089826e-06	-1.304323e-09	-2.843941e+01	-8.642781e+01
8.700000e-07	-4.058418e-06	-1.295703e-09	-2.822101e+01	-8.597546e+01
8.800000e-07	-4.026898e-06	-1.284151e-09	-2.800182e+01	-8.552052e+01
8.900000e-07	-3.995168e-06	-1.286552e-09	-2.778119e+01	-8.506310e+01
9.000000e-07	-3.963180e-06	-1.282064e-09	-2.755875e+01	-8.460330e+01
9.100000e-07	-3.930788e-06	-1.274069e-09	-2.733350e+01	-8.414120e+01
9.200000e-07	-3.897891e-06	-1.266363e-09	-2.710475e+01	-8.367685e+01
9.300000e-07	-3.864667e-06	-1.263262e-09	-2.687372e+01	-8.321028e+01
9.400000e-07	-3.831030e-06	-1.247735e-09	-2.663982e+01	-8.274149e+01
9.500000e-07	-3.796926e-06	-1.235342e-09	-2.640267e+01	-8.227047e+01
9.600000e-07	-3.762396e-06	-1.227503e-09	-2.616256e+01	-8.179718e+01
9.700000e-07	-3.727477e-06	-1.220956e-09	-2.591974e+01	-8.132154e+01
9.800000e-07	-3.692299e-06	-1.213270e-09	-2.567512e+01	-8.084345e+01
9.900000e-07	-3.656910e-06	-1.212092e-09	-2.542904e+01	-8.036281e+01
1.000000e-06	-3.621400e-06	-1.207223e-09	-2.518212e+01	-7.987946e+01
1.010000e-06	-3.585795e-06	-1.196228e-09	-2.493453e+01	-7.939324e+01
1.020000e-06	-3.550070e-06	-1.186799e-09	-2.468611e+01	-7.890397e+01
1.030000e-06	-3.514131e-06	-1.179994e-09	-2.443620e+01	-7.841143e+01
1.040000e-06	-3.477928e-06	-1.169675e-09	-2.418446e+01	-7.791541e+01
1.050000e-06	-3.441347e-06	-1.160154e-09	-2.393008e+01	-7.741567e+01
1.060000e-06	-3.404479e-06	-1.154652e-09	-2.367371e+01	-7.691194e+01
1.070000e-06	-3.367480e-06	-1.148081e-09	-2.341644e+01	-7.640398e+01
1.080000e-06	-3.330222e-06	-1.139608e-09	-2.315736e+01	-7.589150e+01
1.090000e-06	-3.292711e-06	-1.129717e-09	-2.289651e+01	-7.537422e+01
1.100000e-06	-3.255015e-06	-1.120404e-09	-2.263439e+01	-7.485186e+01
1.110000e-06	-3.217113e-06	-1.107326e-09	-2.237083e+01	-7.432414e+01
1.120000e-06	-3.178904e-06	-1.097425e-09	-2.210514e+01	-7.379078e+01
1.130000e-06	-3.140433e-06	-1.090091e-09	-2.183761e+01	-7.325150e+01
1.140000e-06	-3.101740e-06	-1.082530e-09	-2.156856e+01	-7.270602e+01
1.150000e-06	-3.062856e-06	-1.071156e-09	-2.129817e+01	-7.215409e+01
1.160000e-06	-3.023810e-06	-1.062499e-09	-2.102665e+01	-7.159546e+01
1.170000e-06	-2.984495e-06	-1.052887e-09	-2.075327e+01	-7.102989e+01
1.180000e-06	-2.945009e-06	-1.044070e-09	-2.047870e+01	-7.045716e+01
1.190000e-06	-2.905483e-06	-1.034616e-09	-2.020384e+01	-6.987708e+01
1.200000e-06	-2.865868e-06	-1.027126e-09	-1.992837e+01	-6.928946e+01
1.210000e-06	-2.826180e-06	-1.017155e-09	-1.965239e+01	-6.869414e+01
1.220000e-06	-2.786327e-06	-1.010220e-09	-1.937527e+01	-6.809097e+01
1.230000e-06	-2.746280e-06	-1.002134e-09	-1.909679e+01	-6.747985e+01
1.240000e-06	-2.705995e-06	-9.891429e-10	-1.881667e+01	-6.686068e+01
1.250000e-06	-2.665444e-06	-9.747721e-10	-1.853469e+01	-6.623338e+01
1.260000e-06	-2.624719e-06	-9.609238e-10	-1.825150e+01	-6.559791e+01
1.270000e-06	-2.583700e-06	-9.471856e-10	-1.796626e+01	-6.495423e+01
1.280000e-06	-2.542357e-06	-9.391545e-10	-1.767878e+01	-6.430233e+01
1.290000e-06	-2.500720e-06	-9.328133e-10	-1.738925e+01	-6.364223e+01
1.300000e-06	-2.458636e-06	-9.258061e-10	-1.709661e+01	-6.297395e+01
1.310000e-06	-2.416236e-06	-9.147836e-10	-1.680177e+01	-6.229753e+01
1.320000e-06	-2.373567e-06	-9.019387e-10	-1.650507e+01	-6.161302e+01
1.330000e-06	-2.330621e-06	-8.880479e-10	-1.620643e+01	-6.092050e+01
1.340000e-06	-2.287546e-06	-8.739090e-10	-1.590690e+01	-6.022003e+01
1.350000e-06	-2.244401e-06	-8.611305e-10	-1.560689e+01	-5.951170e+01
1.360000e-06	-2.201119e-06	-8.496128e-10	-1.530591e+01	-5.879557e+01
1.370000e-06	-2.157689e-06	-8.409836e-10	-1.500392e+01	-5.807173e+01
1.380000e-06	-2.114166e-06	-8.333854e-10	-1.470127e+01	-5.734025e+01
1.390000e-06	-2.070568e-06	-8.245197e-10	-1.439810e+01	-5.660119e+01
1.400000e-06	-2.026959e-06	-8.121916e-10	-1.409485e+01	-5.585460e+01
1.410000e-06	-1.983247e-06	-7.971710e-10	-1.379089e+01	-5.510053e+01
1.420000e-06	-1.939324e-06	-7.814010e-10	-1.348547e+01	-5.433897e+01
1.430000e-06	-1.895291e-06	-7.685865e-10	-1.317928e+01	-5.356995e+01
1.440000e-06	-1.851230e-06	-7.571471e-10	-1.287289e+01	-5.279341e+01
1.450000e-06	-1.807023e-06	-7.442477e-10	-1.256549e+01	-5.200931e+01
1.460000e-06	-1.762647e-06	-7.284477e-10	-1.225691e+01	-5.121756e+01
1.470000e-06	-1.718166e-06	-7.138370e-10	-1.194760e+01	-5.041805e+01
1.480000e-06	-1.673584e-06	-6.984168e-10	-1.163759e+01	-4.961062e+01
1.490000e-06	-1.628762e-06	-6.832272e-10	-1.132591e+01	-4.879509e+01
1.500000e-06	-1.583782e-06	-6.711809e-10	-1.101314e+01	-4.797123e+01
1.510000e-06	-1.538773e-06	-6.634382e-10	-1.070016e+01	-4.713878e+01
1.520000e-06	-1.493635e-06	-6.541653e-10	-1.038628e+01	-4.629745e+01
1.530000e-06	-1.448445e-06	-6.418823e-10	-1.007204e+01	-4.544690e+01
1.540000e-06	-1.403189e-06	-6.255742e-10	-9.757348e+00	-4.458677e+01
1.550000e-06	-1.357731e-06	-6.070984e-10	-9.441250e+00	-4.371664e+01
1.560000e-06	-1.312170e-06	-5.890528e-10	-9.124429e+00	-4.283608e+01
1.570000e-06	-1.266584e-06	-5.740336e-10	-8.807443e+00	-4.194463e+01
1.580000e-06	-1.220916e-06	-5.601215e-10	-8.489880e+00	-4.104178e+01
1.590000e-06	-1.175171e-06	-5.503109e-10	-8.171783e+00	-4.012702e+01
1.600000e-06	-1.129370e-06	-5.408013e-10	-7.853296e+00	-3.919980e+01
1.610000e-06	-1.083518e-06	-5.283402e-10	-7.534458e+00	-3.825956e+01
1.620000e-06	-1.037587e-06	-5.144060e-10	-7.215065e+00	-3.730573e+01
1.630000e-06	-9.914734e-07	-5.011611e-10	-6.894405e+00	-3.633773e+01
1.640000e-06	-9.452655e-07	-4.879539e-10	-6.573089e+00	-3.535498e+01
1.650000e-06	-8.989943e-07	-4.705580e-10	-6.251334e+00	-3.435689e+01
1.660000e-06	-8.527091e-07	-4.522257e-10	-5.929480e+00	-3.334289e+01
1.670000e-06	-8.065099e-07	-4.346015e-10	-5.608225e+00	-3.231243e+01
1.680000e-06	-7.601736e-07	-4.169623e-10	-5.286016e+00	-3.126497e+01
1.690000e-06	-7.137276e-07	-3.997661e-10	-4.963045e+00	-3.019998e+01
1.700000e-06	-6.672806e-07	-3.852003e-10	-4.640066e+00	-2.911700e+01
1.710000e-06	-6.207883e-07	-3.707416e-10	-4.316773e+00	-2.801558e+01
1.720000e-06	-5.742635e-07	-3.550349e-10	-3.993254e+00	-2.689532e+01
1.730000e-06	-5.277311e-07	-3.350414e-10	-3.669682e+00	-2.575587e+01
1.740000e-06	-4.811602e-07	-3.108424e-10	-3.345842e+00	-2.459693e+01
1.750000e-06	-4.344374e-07	-2.874648e-10	-3.020945e+00	-2.341828e+01
1.760000e-06	-3.877148e-07	-2.682643e-10	-2.696051e+00	-2.221975e+01
1.770000e-06	-3.409583e-07	-2.519647e-10	-2.370920e+00	-2.100123e+01
1.780000e-06	-2.941553e-07	-2.379783e-10	-2.045467e+00	-1.976270e+01
1.790000e-06	-2.473649e-07	-2.242138e-10	-1.720100e+00	-1.850421e+01
1.800000e-06	-2.004515e-07	-2.072639e-10	-1.393879e+00	-1.722591e+01
1.810000e-06	-1.535565e-07	-1.869260e-10	-1.067786e+00	-1.592799e+01
1.820000e-06	-1.067441e-07	-1.668005e-10	-7.422662e-01	-1.461076e+01
1.830000e-06	-5.994659e-08	-1.486296e-10	-4.168504e-01	-1.327462e+01
1.840000e-06	-1.323333e-08	-1.310036e-10	-9.202055e-02	-1.192003e+01
1.850000e-06	3.355287e-08	-1.132566e-10	2.333165e-01	-1.054756e+01
1.860000e-06	8.045428e-08	-9.616997e-11	5.594546e-01	-9.157845e+00
1.870000e-06	1.272917e-07	-7.655705e-11	8.851479e-01	-7.751629e+00
1.880000e-06	1.741303e-07	-5.223915e-11	1.210849e+00	-6.329725e+00
1.890000e-06	2.209385e-07	-2.612222e-11	1.536339e+00	-4.893028e+00
1.900000e-06	2.677861e-07	-2.292098e-12	1.862103e+00	-3.442511e+00
1.910000e-06	3.146177e-07	1.765251e-11	2.187756e+00	-1.979221e+00
1.920000e-06	3.613398e-07	3.227143e-11	2.512647e+00	-5.042725e-01
1.930000e-06	4.080267e-07	4.686588e-11	2.837294e+00	9.811557e-01
1.940000e-06	4.547113e-07	6.352356e-11	3.161924e+00	2.475827e+00
1.950000e-06	5.013978e-07	8.785959e-11	3.486568e+00	3.978452e+00
1.960000e-06	5.480215e-07	1.159548e-10	3.810775e+00	5.487696e+00
1.970000e-06	5.945288e-07	1.431931e-10	4.134173e+00	7.002187e+00
1.980000e-06	6.409358e-07	1.666671e-10	4.456873e+00	8.520520e+00
1.990000e-06	6.873081e-07	1.835330e-10	4.779332e+00	1.004127e+01
2.000000e-06	7.337231e-07	1.956827e-10	5.102088e+00	1.156298e+01
2.010000e-06	7.801004e-07	2.100775e-10	5.424581e+00	1.308421e+01
2.020000e-06	8.262961e-07	2.314159e-10	5.745812e+00	1.460349e+01
2.030000e-06	8.725040e-07	2.589758e-10	6.067128e+00	1.611939e+01
2.040000e-06	9.187216e-07	2.859055e-10	6.388511e+00	1.763046e+01
2.050000e-06	9.648571e-07	3.097584e-10	6.709324e+00	1.913530e+01
2.060000e-06	1.010966e-06	3.309869e-10	7.029947e+00	2.063253e+01
2.070000e-06	1.056998e-06	3.494687e-10	7.350046e+00	2.212079e+01
2.080000e-06	1.102884e-06	3.696705e-10	7.669117e+00	2.359880e+01
2.090000e-06	1.148670e-06	3.881627e-10	7.987501e+00	2.506530e+01
2.100000e-06	1.194392e-06	4.096912e-10	8.305438e+00	2.651910e+01
2.110000e-06	1.240057e-06	4.303412e-10	8.622981e+00	2.795906e+01
2.120000e-06	1.285617e-06	4.497598e-10	8.939787e+00	2.938413e+01
2.130000e-06	1.331049e-06	4.696725e-10	9.255710e+00	3.079330e+01
2.140000e-06	1.376416e-06	4.894302e-10	9.571178e+00	3.218568e+01
2.150000e-06	1.421662e-06	5.084221e-10	9.885802e+00	3.356041e+01
2.160000e-06	1.466764e-06	5.279722e-10	1.019943e+01	3.491674e+01
2.170000e-06	1.511718e-06	5.474150e-10	1.051203e+01	3.625400e+01
2.180000e-06	1.556562e-06	5.689719e-10	1.082386e+01	3.757161e+01
2.190000e-06	1.601351e-06	5.864686e-10	1.113531e+01	3.886906e+01
2.200000e-06	1.646055e-06	6.015228e-10	1.144616e+01	4.014595e+01
2.210000e-06	1.690613e-06	6.160296e-10	1.175601e+01	4.140194e+01
2.220000e-06	1.735048e-06	6.325575e-10	1.206500e+01	4.263678e+01
2.230000e-06	1.779350e-06	6.518352e-10	1.237306e+01	4.385033e+01
2.240000e-06	1.823466e-06	6.681610e-10	1.267983e+01	4.504250e+01
2.250000e-06	1.867498e-06	6.833480e-10	1.298601e+01	4.621328e+01
2.260000e-06	1.911440e-06	6.961283e-10	1.329157e+01	4.736275e+01
2.270000e-06	1.955272e-06	7.118014e-10	1.359637e+01	4.849105e+01
2.280000e-06	1.999052e-06	7.305142e-10	1.390080e+01	4.959839e+01
2.290000e-06	2.042776e-06	7.499590e-10	1.420484e+01	5.068502e+01
2.300000e-06	2.086443e-06	7.669886e-10	1.450849e+01	5.175128e+01
2.310000e-06	2.130044e-06	7.784894e-10	1.481168e+01	5.279754e+01
2.320000e-06	2.173521e-06	7.908373e-10	1.511400e+01	5.382422e+01
2.330000e-06	2.216892e-06	8.046452e-10	1.541559e+01	5.483178e+01
2.340000e-06	2.260209e-06	8.188669e-10	1.571681e+01	5.582070e+01
2.350000e-06	2.303415e-06	8.384856e-10	1.601725e+01	5.679151e+01
2.360000e-06	2.346408e-06	8.619844e-10	1.631621e+01	5.774474e+01
2.370000e-06	2.389045e-06	8.813214e-10	1.661270e+01	5.868096e+01
2.380000e-06	2.431367e-06	8.934025e-10	1.690699e+01	5.960073e+01
2.390000e-06	2.473418e-06	9.030747e-10	1.719940e+01	6.050463e+01
2.400000e-06	2.515142e-06	9.106842e-10	1.748953e+01	6.139321e+01
2.410000e-06	2.556501e-06	9.189915e-10	1.777713e+01	6.226706e+01
2.420000e-06	2.597605e-06	9.312692e-10	1.806295e+01	6.312671e+01
2.430000e-06	2.638516e-06	9.466494e-10	1.834744e+01	6.397272e+01
2.440000e-06	2.679114e-06	9.618275e-10	1.862975e+01	6.480560e+01
2.450000e-06	2.719432e-06	9.752515e-10	1.891010e+01	6.562586e+01
2.460000e-06	2.759546e-06	9.885127e-10	1.918905e+01	6.643396e+01
2.470000e-06	2.799475e-06	1.001124e-09	1.946670e+01	6.723035e+01
2.480000e-06	2.839247e-06	1.011893e-09	1.974326e+01	6.801545e+01
2.490000e-06	2.878881e-06	1.022767e-09	2.001886e+01	6.878964e+01
2.500000e-06	2.918375e-06	1.034356e-09	2.029350e+01	6.955327e+01
2.510000e-06	2.957762e-06	1.046117e-09	2.056738e+01	7.030665e+01
2.520000e-06	2.996979e-06	1.057876e-09	2.084008e+01	7.105006e+01
2.530000e-06	3.036083e-06	1.068284e-09	2.111200e+01	7.178374e+01
2.540000e-06	3.075054e-06	1.077054e-09	2.138299e+01	7.250792e+01
2.550000e-06	3.113681e-06	1.086382e-09	2.165159e+01	7.322276e+01
2.560000e-06	3.152018e-06	1.096665e-09	2.191818e+01	7.392840e+01
2.570000e-06	3.190120e-06	1.107742e-09	2.218312e+01	7.462498e+01
2.580000e-06	3.228029e-06	1.119139e-09	2.244674e+01	7.531256e+01
2.590000e-06	3.265775e-06	1.130621e-09	2.270921e+01	7.599120e+01
2.600000e-06	3.303366e-06	1.141304e-09	2.297060e+01	7.666096e+01
2.610000e-06	3.340786e-06	1.149427e-09	2.323081e+01	7.732182e+01
2.620000e-06	3.378014e-06	1.155705e-09	2.348968e+01	7.797381e+01
2.630000e-06	3.414944e-06	1.162166e-09	2.374648e+01	7.861688e+01
2.640000e-06	3.451567e-06	1.170042e-09	2.400115e+01	7.925102e+01
2.650000e-06	3.487951e-06	1.178626e-09	2.425415e+01	7.987617e+01
2.660000e-06	3.524074e-06	1.188887e-09	2.450534e+01	8.049229e+01
2.670000e-06	3.560016e-06	1.199551e-09	2.475527e+01	8.109934e+01
2.680000e-06	3.595728e-06	1.210140e-09	2.500360e+01	8.169724e+01
2.690000e-06	3.631318e-06	1.220323e-09	2.525108e+01	8.228597e+01
2.700000e-06	3.666829e-06	1.229082e-09	2.549801e+01	8.286546e+01
2.710000e-06	3.702223e-06	1.236259e-09	2.574414e+01	8.343570e+01
2.720000e-06	3.737478e-06	1.242818e-09	2.598929e+01	8.399663e+01
2.730000e-06	3.772362e-06	1.249771e-09	2.623186e+01	8.454827e+01
2.740000e-06	3.806780e-06	1.255811e-09	2.647119e+01	8.509059e+01
2.750000e-06	3.840868e-06	1.261787e-09	2.670823e+01	8.562361e+01
2.760000e-06	3.874460e-06	1.269230e-09	2.694182e+01	8.614737e+01
2.770000e-06	3.907512e-06	1.279094e-09	2.717165e+01	8.666191e+01
2.780000e-06	3.940112e-06	1.290311e-09	2.739834e+01	8.716728e+01
2.790000e-06	3.972371e-06	1.299784e-09	2.762266e+01	8.766359e+01
2.800000e-06	4.004431e-06	1.306201e-09	2.784560e+01	8.815091e+01
2.810000e-06	4.036280e-06	1.310424e-09	2.806706e+01	8.862938e+01
2.820000e-06	4.067983e-06	1.316324e-09	2.828752e+01	8.909913e+01
2.830000e-06	4.099548e-06	1.324129e-09	2.850701e+01	8.956030e+01
2.840000e-06	4.130894e-06	1.331081e-09	2.872498e+01	9.001305e+01
2.850000e-06	4.161910e-06	1.338886e-09	2.894066e+01	9.045758e+01
2.860000e-06	4.192577e-06	1.348374e-09	2.915391e+01	9.089406e+01
2.870000e-06	4.222890e-06	1.356482e-09	2.936469e+01	9.132270e+01
2.880000e-06	4.252873e-06	1.362723e-09	2.957318e+01	9.174370e+01
2.890000e-06	4.282630e-06	1.368750e-09	2.978011e+01	9.215728e+01
2.900000e-06	4.312146e-06	1.373984e-09	2.998535e+01	9.256365e+01
