# Temperatura_=_-0.7
# Concentracion g/m^3_=_1620.0
# C_Vs_to_Am_M_A/Vsm_=_65563218390.804596
# pendiente_HvsI_1/m_=_3716.3
# ordenada_HvsI_A/m_=_1297.0
# frecuencia_Hz_=_135099.6666619786

Tiempo_(s)	Campo_(V.s)	Magnetizacion_(V.s)	Campo_(kA/m)	Magnetizacion_(A/m)
0.000000e+00	-5.499024e-06	-1.312491e-09	-3.836967e+01	-8.726857e+01
1.000000e-08	-5.499199e-06	-1.311510e-09	-3.837089e+01	-8.722684e+01
2.000000e-08	-5.499103e-06	-1.312446e-09	-3.837022e+01	-8.718580e+01
3.000000e-08	-5.498481e-06	-1.314278e-09	-3.836588e+01	-8.714533e+01
4.000000e-08	-5.497205e-06	-1.307721e-09	-3.835697e+01	-8.710525e+01
5.000000e-08	-5.495359e-06	-1.289994e-09	-3.834410e+01	-8.706536e+01
6.000000e-08	-5.493039e-06	-1.279551e-09	-3.832791e+01	-8.702544e+01
7.000000e-08	-5.490228e-06	-1.308605e-09	-3.830829e+01	-8.698526e+01
8.000000e-08	-5.486893e-06	-1.373407e-09	-3.828502e+01	-8.694455e+01
9.000000e-08	-5.483086e-06	-1.416104e-09	-3.825846e+01	-8.690306e+01
1.000000e-07	-5.478898e-06	-1.380328e-09	-3.822924e+01	-8.686048e+01
1.100000e-07	-5.474486e-06	-1.281730e-09	-3.819845e+01	-8.681653e+01
1.200000e-07	-5.469823e-06	-1.236348e-09	-3.816592e+01	-8.677089e+01
1.300000e-07	-5.464786e-06	-1.305083e-09	-3.813077e+01	-8.672326e+01
1.400000e-07	-5.459422e-06	-1.339939e-09	-3.809334e+01	-8.667331e+01
1.500000e-07	-5.453705e-06	-1.282404e-09	-3.805345e+01	-8.662074e+01
1.600000e-07	-5.447657e-06	-1.253441e-09	-3.801125e+01	-8.656523e+01
1.700000e-07	-5.441238e-06	-1.324775e-09	-3.796647e+01	-8.650646e+01
1.800000e-07	-5.434370e-06	-1.410015e-09	-3.791854e+01	-8.644415e+01
1.900000e-07	-5.427168e-06	-1.314809e-09	-3.786829e+01	-8.637799e+01
2.000000e-07	-5.419716e-06	-1.248492e-09	-3.781630e+01	-8.630771e+01
2.100000e-07	-5.411993e-06	-1.283657e-09	-3.776240e+01	-8.623304e+01
2.200000e-07	-5.404027e-06	-1.382734e-09	-3.770682e+01	-8.615374e+01
2.300000e-07	-5.395755e-06	-1.352994e-09	-3.764910e+01	-8.606958e+01
2.400000e-07	-5.386833e-06	-1.306611e-09	-3.758685e+01	-8.598034e+01
2.500000e-07	-5.377134e-06	-1.309603e-09	-3.751917e+01	-8.588585e+01
2.600000e-07	-5.366758e-06	-1.333071e-09	-3.744678e+01	-8.578594e+01
2.700000e-07	-5.355872e-06	-1.295225e-09	-3.737082e+01	-8.568047e+01
2.800000e-07	-5.344604e-06	-1.278089e-09	-3.729219e+01	-8.556932e+01
2.900000e-07	-5.332989e-06	-1.309154e-09	-3.721115e+01	-8.545241e+01
3.000000e-07	-5.321038e-06	-1.306216e-09	-3.712776e+01	-8.532967e+01
3.100000e-07	-5.308673e-06	-1.274763e-09	-3.704148e+01	-8.520107e+01
3.200000e-07	-5.295814e-06	-1.259386e-09	-3.695176e+01	-8.506660e+01
3.300000e-07	-5.282537e-06	-1.285199e-09	-3.685912e+01	-8.492628e+01
3.400000e-07	-5.268940e-06	-1.271864e-09	-3.676425e+01	-8.478014e+01
3.500000e-07	-5.255002e-06	-1.276956e-09	-3.666699e+01	-8.462824e+01
3.600000e-07	-5.240556e-06	-1.265991e-09	-3.656620e+01	-8.447068e+01
3.700000e-07	-5.225596e-06	-1.272016e-09	-3.646182e+01	-8.430757e+01
3.800000e-07	-5.210153e-06	-1.259969e-09	-3.635406e+01	-8.413903e+01
3.900000e-07	-5.194091e-06	-1.270456e-09	-3.624199e+01	-8.396522e+01
4.000000e-07	-5.177554e-06	-1.251282e-09	-3.612660e+01	-8.378629e+01
4.100000e-07	-5.160872e-06	-1.255525e-09	-3.601020e+01	-8.360243e+01
4.200000e-07	-5.143905e-06	-1.250637e-09	-3.589181e+01	-8.341382e+01
4.300000e-07	-5.126469e-06	-1.251006e-09	-3.577015e+01	-8.322069e+01
4.400000e-07	-5.108704e-06	-1.251503e-09	-3.564619e+01	-8.302323e+01
4.500000e-07	-5.090596e-06	-1.271938e-09	-3.551984e+01	-8.282166e+01
4.600000e-07	-5.072054e-06	-1.241555e-09	-3.539047e+01	-8.261622e+01
4.700000e-07	-5.053142e-06	-1.223931e-09	-3.525851e+01	-8.240712e+01
4.800000e-07	-5.033898e-06	-1.247413e-09	-3.512424e+01	-8.219459e+01
4.900000e-07	-5.014370e-06	-1.262822e-09	-3.498797e+01	-8.197885e+01
5.000000e-07	-4.994691e-06	-1.227089e-09	-3.485066e+01	-8.176012e+01
5.100000e-07	-4.974823e-06	-1.227921e-09	-3.471204e+01	-8.153862e+01
5.200000e-07	-4.954581e-06	-1.241082e-09	-3.457080e+01	-8.131454e+01
5.300000e-07	-4.933911e-06	-1.225683e-09	-3.442657e+01	-8.108808e+01
5.400000e-07	-4.912845e-06	-1.224889e-09	-3.427958e+01	-8.085943e+01
5.500000e-07	-4.891475e-06	-1.244429e-09	-3.413047e+01	-8.062874e+01
5.600000e-07	-4.869832e-06	-1.219173e-09	-3.397945e+01	-8.039617e+01
5.700000e-07	-4.847865e-06	-1.199536e-09	-3.382618e+01	-8.016187e+01
5.800000e-07	-4.825530e-06	-1.233620e-09	-3.367034e+01	-7.992595e+01
5.900000e-07	-4.802811e-06	-1.233123e-09	-3.351181e+01	-7.968851e+01
6.000000e-07	-4.779743e-06	-1.200322e-09	-3.335086e+01	-7.944964e+01
6.100000e-07	-4.756420e-06	-1.204117e-09	-3.318812e+01	-7.920940e+01
6.200000e-07	-4.732942e-06	-1.213630e-09	-3.302430e+01	-7.896784e+01
6.300000e-07	-4.709244e-06	-1.182331e-09	-3.285894e+01	-7.872500e+01
6.400000e-07	-4.685149e-06	-1.183448e-09	-3.269083e+01	-7.848087e+01
6.500000e-07	-4.660653e-06	-1.199859e-09	-3.251990e+01	-7.823544e+01
6.600000e-07	-4.635718e-06	-1.194876e-09	-3.234591e+01	-7.798870e+01
6.700000e-07	-4.610244e-06	-1.184315e-09	-3.216817e+01	-7.774059e+01
6.800000e-07	-4.584233e-06	-1.200959e-09	-3.198667e+01	-7.749105e+01
6.900000e-07	-4.557648e-06	-1.184895e-09	-3.180118e+01	-7.724001e+01
7.000000e-07	-4.530638e-06	-1.169076e-09	-3.161272e+01	-7.698737e+01
7.100000e-07	-4.503387e-06	-1.170628e-09	-3.142257e+01	-7.673302e+01
7.200000e-07	-4.475948e-06	-1.174810e-09	-3.123111e+01	-7.647685e+01
7.300000e-07	-4.448308e-06	-1.159835e-09	-3.103825e+01	-7.621873e+01
7.400000e-07	-4.420456e-06	-1.161088e-09	-3.084391e+01	-7.595851e+01
7.500000e-07	-4.392393e-06	-1.160754e-09	-3.064811e+01	-7.569606e+01
7.600000e-07	-4.364120e-06	-1.149957e-09	-3.045083e+01	-7.543122e+01
7.700000e-07	-4.335489e-06	-1.135723e-09	-3.025105e+01	-7.516383e+01
7.800000e-07	-4.306471e-06	-1.137058e-09	-3.004858e+01	-7.489374e+01
7.900000e-07	-4.277140e-06	-1.135607e-09	-2.984392e+01	-7.462077e+01
8.000000e-07	-4.247550e-06	-1.130209e-09	-2.963746e+01	-7.434477e+01
8.100000e-07	-4.217654e-06	-1.121471e-09	-2.942886e+01	-7.406558e+01
8.200000e-07	-4.187449e-06	-1.113636e-09	-2.921810e+01	-7.378304e+01
8.300000e-07	-4.157019e-06	-1.106772e-09	-2.900577e+01	-7.349699e+01
8.400000e-07	-4.126263e-06	-1.102538e-09	-2.879117e+01	-7.320728e+01
8.500000e-07	-4.095257e-06	-1.096772e-09	-2.857483e+01	-7.291377e+01
8.600000e-07	-4.064026e-06	-1.089871e-09	-2.835691e+01	-7.261633e+01
8.700000e-07	-4.032587e-06	-1.086104e-09	-2.813754e+01	-7.231483e+01
8.800000e-07	-4.000981e-06	-1.080281e-09	-2.791701e+01	-7.200915e+01
8.900000e-07	-3.969192e-06	-1.074719e-09	-2.769520e+01	-7.169918e+01
9.000000e-07	-3.937215e-06	-1.065270e-09	-2.747208e+01	-7.138482e+01
9.100000e-07	-3.904989e-06	-1.060070e-09	-2.724722e+01	-7.106600e+01
9.200000e-07	-3.872428e-06	-1.051953e-09	-2.702002e+01	-7.074264e+01
9.300000e-07	-3.839332e-06	-1.049767e-09	-2.678910e+01	-7.041466e+01
9.400000e-07	-3.805691e-06	-1.046865e-09	-2.655437e+01	-7.008203e+01
9.500000e-07	-3.771515e-06	-1.041823e-09	-2.631590e+01	-6.974470e+01
9.600000e-07	-3.736849e-06	-1.028240e-09	-2.607402e+01	-6.940264e+01
9.700000e-07	-3.701954e-06	-1.021031e-09	-2.583054e+01	-6.905584e+01
9.800000e-07	-3.666870e-06	-1.016170e-09	-2.558574e+01	-6.870428e+01
9.900000e-07	-3.631540e-06	-1.014586e-09	-2.533922e+01	-6.834798e+01
1.000000e-06	-3.596087e-06	-1.009285e-09	-2.509185e+01	-6.798694e+01
1.010000e-06	-3.560568e-06	-1.005238e-09	-2.484401e+01	-6.762118e+01
1.020000e-06	-3.524882e-06	-9.967978e-10	-2.459501e+01	-6.725074e+01
1.030000e-06	-3.488942e-06	-9.886438e-10	-2.434424e+01	-6.687565e+01
1.040000e-06	-3.452704e-06	-9.812137e-10	-2.409139e+01	-6.649596e+01
1.050000e-06	-3.416286e-06	-9.771846e-10	-2.383728e+01	-6.611170e+01
1.060000e-06	-3.379680e-06	-9.701235e-10	-2.358186e+01	-6.572293e+01
1.070000e-06	-3.342716e-06	-9.644102e-10	-2.332394e+01	-6.532972e+01
1.080000e-06	-3.305442e-06	-9.582299e-10	-2.306386e+01	-6.493210e+01
1.090000e-06	-3.267956e-06	-9.511761e-10	-2.280230e+01	-6.453015e+01
1.100000e-06	-3.230243e-06	-9.417237e-10	-2.253916e+01	-6.412391e+01
1.110000e-06	-3.192348e-06	-9.311605e-10	-2.227474e+01	-6.371345e+01
1.120000e-06	-3.154264e-06	-9.224381e-10	-2.200901e+01	-6.329881e+01
1.130000e-06	-3.115959e-06	-9.161800e-10	-2.174174e+01	-6.288004e+01
1.140000e-06	-3.077435e-06	-9.110567e-10	-2.147293e+01	-6.245719e+01
1.150000e-06	-3.038655e-06	-9.042697e-10	-2.120234e+01	-6.203029e+01
1.160000e-06	-2.999675e-06	-8.977325e-10	-2.093035e+01	-6.159937e+01
1.170000e-06	-2.960552e-06	-8.922615e-10	-2.065737e+01	-6.116447e+01
1.180000e-06	-2.921249e-06	-8.893728e-10	-2.038314e+01	-6.072558e+01
1.190000e-06	-2.881749e-06	-8.843384e-10	-2.010752e+01	-6.028271e+01
1.200000e-06	-2.842145e-06	-8.785885e-10	-1.983118e+01	-5.983585e+01
1.210000e-06	-2.802450e-06	-8.709284e-10	-1.955421e+01	-5.938498e+01
1.220000e-06	-2.762593e-06	-8.629777e-10	-1.927611e+01	-5.893008e+01
1.230000e-06	-2.722575e-06	-8.530369e-10	-1.899688e+01	-5.847108e+01
1.240000e-06	-2.682437e-06	-8.452253e-10	-1.871681e+01	-5.800794e+01
1.250000e-06	-2.642070e-06	-8.392583e-10	-1.843515e+01	-5.754057e+01
1.260000e-06	-2.601364e-06	-8.346774e-10	-1.815113e+01	-5.706888e+01
1.270000e-06	-2.560443e-06	-8.268547e-10	-1.786560e+01	-5.659277e+01
1.280000e-06	-2.519292e-06	-8.198560e-10	-1.757847e+01	-5.611212e+01
1.290000e-06	-2.477781e-06	-8.106022e-10	-1.728882e+01	-5.562677e+01
1.300000e-06	-2.436044e-06	-8.004280e-10	-1.699760e+01	-5.513658e+01
1.310000e-06	-2.394015e-06	-7.891348e-10	-1.670434e+01	-5.464138e+01
1.320000e-06	-2.351567e-06	-7.804673e-10	-1.640815e+01	-5.414095e+01
1.330000e-06	-2.308846e-06	-7.720764e-10	-1.611007e+01	-5.363511e+01
1.340000e-06	-2.265901e-06	-7.649784e-10	-1.581042e+01	-5.312361e+01
1.350000e-06	-2.222792e-06	-7.581315e-10	-1.550962e+01	-5.260621e+01
1.360000e-06	-2.179552e-06	-7.498099e-10	-1.520792e+01	-5.208265e+01
1.370000e-06	-2.136165e-06	-7.418213e-10	-1.490518e+01	-5.155264e+01
1.380000e-06	-2.092648e-06	-7.368031e-10	-1.460154e+01	-5.101589e+01
1.390000e-06	-2.049051e-06	-7.282612e-10	-1.429734e+01	-5.047207e+01
1.400000e-06	-2.005430e-06	-7.163074e-10	-1.399297e+01	-4.992086e+01
1.410000e-06	-1.961762e-06	-7.051875e-10	-1.368828e+01	-4.936189e+01
1.420000e-06	-1.918047e-06	-6.964807e-10	-1.338325e+01	-4.879480e+01
1.430000e-06	-1.874236e-06	-6.879076e-10	-1.307756e+01	-4.821922e+01
1.440000e-06	-1.830277e-06	-6.789393e-10	-1.277084e+01	-4.763473e+01
1.450000e-06	-1.786275e-06	-6.710915e-10	-1.246381e+01	-4.704094e+01
1.460000e-06	-1.742157e-06	-6.612147e-10	-1.215597e+01	-4.643741e+01
1.470000e-06	-1.697785e-06	-6.500470e-10	-1.184637e+01	-4.582370e+01
1.480000e-06	-1.653286e-06	-6.383382e-10	-1.153587e+01	-4.519937e+01
1.490000e-06	-1.608683e-06	-6.261826e-10	-1.122466e+01	-4.456396e+01
1.500000e-06	-1.563920e-06	-6.149383e-10	-1.091232e+01	-4.391700e+01
1.510000e-06	-1.519082e-06	-6.059168e-10	-1.059946e+01	-4.325801e+01
1.520000e-06	-1.474151e-06	-5.971080e-10	-1.028595e+01	-4.258652e+01
1.530000e-06	-1.429053e-06	-5.876537e-10	-9.971278e+00	-4.190203e+01
1.540000e-06	-1.383867e-06	-5.740216e-10	-9.655987e+00	-4.120407e+01
1.550000e-06	-1.338638e-06	-5.593856e-10	-9.340405e+00	-4.049213e+01
1.560000e-06	-1.293283e-06	-5.424199e-10	-9.023933e+00	-3.976575e+01
1.570000e-06	-1.247760e-06	-5.259201e-10	-8.706299e+00	-3.902442e+01
1.580000e-06	-1.202187e-06	-5.135490e-10	-8.388309e+00	-3.826767e+01
1.590000e-06	-1.156586e-06	-5.046862e-10	-8.070127e+00	-3.749504e+01
1.600000e-06	-1.110910e-06	-4.926756e-10	-7.751421e+00	-3.670605e+01
1.610000e-06	-1.065127e-06	-4.774450e-10	-7.431965e+00	-3.590027e+01
1.620000e-06	-1.019218e-06	-4.640984e-10	-7.111634e+00	-3.507727e+01
1.630000e-06	-9.732727e-07	-4.543698e-10	-6.791051e+00	-3.423661e+01
1.640000e-06	-9.273500e-07	-4.437050e-10	-6.470623e+00	-3.337792e+01
1.650000e-06	-8.814200e-07	-4.309328e-10	-6.150144e+00	-3.250081e+01
1.660000e-06	-8.353342e-07	-4.179470e-10	-5.828579e+00	-3.160494e+01
1.670000e-06	-7.891934e-07	-4.026207e-10	-5.506630e+00	-3.069000e+01
1.680000e-06	-7.430522e-07	-3.848393e-10	-5.184678e+00	-2.975568e+01
1.690000e-06	-6.968832e-07	-3.684217e-10	-4.862532e+00	-2.880175e+01
1.700000e-06	-6.507045e-07	-3.529868e-10	-4.540318e+00	-2.782797e+01
1.710000e-06	-6.044288e-07	-3.380109e-10	-4.217427e+00	-2.683417e+01
1.720000e-06	-5.580719e-07	-3.237642e-10	-3.893970e+00	-2.582021e+01
1.730000e-06	-5.117497e-07	-3.086208e-10	-3.570755e+00	-2.478599e+01
1.740000e-06	-4.653390e-07	-2.907695e-10	-3.246922e+00	-2.373146e+01
1.750000e-06	-4.188460e-07	-2.740771e-10	-2.922515e+00	-2.265662e+01
1.760000e-06	-3.724160e-07	-2.591688e-10	-2.598548e+00	-2.156151e+01
1.770000e-06	-3.259766e-07	-2.425564e-10	-2.274515e+00	-2.044622e+01
1.780000e-06	-2.795441e-07	-2.263312e-10	-1.950531e+00	-1.931092e+01
1.790000e-06	-2.330241e-07	-2.110439e-10	-1.625936e+00	-1.815580e+01
1.800000e-06	-1.863946e-07	-1.943188e-10	-1.300576e+00	-1.698112e+01
1.810000e-06	-1.397700e-07	-1.775290e-10	-9.752510e-01	-1.578719e+01
1.820000e-06	-9.316608e-08	-1.638640e-10	-6.500702e-01	-1.457439e+01
1.830000e-06	-4.657786e-08	-1.508580e-10	-3.249989e-01	-1.334314e+01
1.840000e-06	2.085852e-11	-1.349196e-10	1.455412e-04	-1.209393e+01
1.850000e-06	4.666008e-08	-1.150884e-10	3.255727e-01	-1.082731e+01
1.860000e-06	9.338791e-08	-9.654134e-11	6.516180e-01	-9.543859e+00
1.870000e-06	1.400603e-07	-7.769529e-11	9.772763e-01	-8.244242e+00
1.880000e-06	1.865569e-07	-5.812459e-11	1.301708e+00	-6.929165e+00
1.890000e-06	2.330882e-07	-4.065173e-11	1.626383e+00	-5.599388e+00
1.900000e-06	2.796593e-07	-2.535797e-11	1.951334e+00	-4.255721e+00
1.910000e-06	3.261970e-07	-9.975224e-12	2.276053e+00	-2.899026e+00
1.920000e-06	3.727332e-07	5.957630e-12	2.600761e+00	-1.530210e+00
1.930000e-06	4.192351e-07	2.363704e-11	2.925231e+00	-1.502242e-01
1.940000e-06	4.656925e-07	4.442153e-11	3.249388e+00	1.239940e+00
1.950000e-06	5.120638e-07	6.460926e-11	3.572947e+00	2.639251e+00
1.960000e-06	5.583984e-07	8.339548e-11	3.896248e+00	4.046644e+00
1.970000e-06	6.047635e-07	1.008844e-10	4.219762e+00	5.461023e+00
1.980000e-06	6.510860e-07	1.175772e-10	4.542980e+00	6.881264e+00
1.990000e-06	6.973068e-07	1.359347e-10	4.865487e+00	8.306220e+00
2.000000e-06	7.434696e-07	1.519045e-10	5.187590e+00	9.734726e+00
2.010000e-06	7.896661e-07	1.693365e-10	5.509928e+00	1.116560e+01
2.020000e-06	8.357833e-07	1.920563e-10	5.831713e+00	1.259765e+01
2.030000e-06	8.817715e-07	2.166719e-10	6.152598e+00	1.402968e+01
2.040000e-06	9.277269e-07	2.375828e-10	6.473253e+00	1.546050e+01
2.050000e-06	9.736204e-07	2.568625e-10	6.793477e+00	1.688889e+01
2.060000e-06	1.019427e-06	2.748891e-10	7.113095e+00	1.831369e+01
2.070000e-06	1.065117e-06	2.910104e-10	7.431899e+00	1.973370e+01
2.080000e-06	1.110733e-06	3.085784e-10	7.750189e+00	2.114777e+01
2.090000e-06	1.156323e-06	3.292318e-10	8.068293e+00	2.255476e+01
2.100000e-06	1.201864e-06	3.530114e-10	8.386058e+00	2.395355e+01
2.110000e-06	1.247291e-06	3.750867e-10	8.703028e+00	2.534307e+01
2.120000e-06	1.292574e-06	3.956694e-10	9.018990e+00	2.672225e+01
2.130000e-06	1.337798e-06	4.150918e-10	9.334538e+00	2.809007e+01
2.140000e-06	1.382957e-06	4.349129e-10	9.649638e+00	2.944557e+01
2.150000e-06	1.427998e-06	4.537811e-10	9.963913e+00	3.078780e+01
2.160000e-06	1.472946e-06	4.705508e-10	1.027754e+01	3.211588e+01
2.170000e-06	1.517890e-06	4.894047e-10	1.059114e+01	3.342896e+01
2.180000e-06	1.562713e-06	5.116162e-10	1.090389e+01	3.472625e+01
2.190000e-06	1.607322e-06	5.308885e-10	1.121516e+01	3.600702e+01
2.200000e-06	1.651763e-06	5.488511e-10	1.152525e+01	3.727059e+01
2.210000e-06	1.696019e-06	5.668208e-10	1.183405e+01	3.851631e+01
2.220000e-06	1.740169e-06	5.841789e-10	1.214210e+01	3.974362e+01
2.230000e-06	1.784248e-06	6.015563e-10	1.244966e+01	4.095201e+01
2.240000e-06	1.828214e-06	6.172573e-10	1.275644e+01	4.214100e+01
2.250000e-06	1.872094e-06	6.320824e-10	1.306261e+01	4.331021e+01
2.260000e-06	1.915879e-06	6.464508e-10	1.336812e+01	4.445929e+01
2.270000e-06	1.959591e-06	6.651741e-10	1.367313e+01	4.558793e+01
2.280000e-06	2.003270e-06	6.848966e-10	1.397790e+01	4.669592e+01
2.290000e-06	2.046895e-06	7.034034e-10	1.428230e+01	4.778306e+01
2.300000e-06	2.090481e-06	7.181056e-10	1.458642e+01	4.884923e+01
2.310000e-06	2.133953e-06	7.297872e-10	1.488974e+01	4.989434e+01
2.320000e-06	2.177321e-06	7.427062e-10	1.519235e+01	5.091836e+01
2.330000e-06	2.220645e-06	7.559620e-10	1.549464e+01	5.192131e+01
2.340000e-06	2.263803e-06	7.715243e-10	1.579578e+01	5.290324e+01
2.350000e-06	2.306728e-06	7.910786e-10	1.609529e+01	5.386425e+01
2.360000e-06	2.349456e-06	8.126426e-10	1.639343e+01	5.480446e+01
2.370000e-06	2.392021e-06	8.284958e-10	1.669043e+01	5.572405e+01
2.380000e-06	2.434276e-06	8.385874e-10	1.698526e+01	5.662322e+01
2.390000e-06	2.476096e-06	8.468120e-10	1.727706e+01	5.750220e+01
2.400000e-06	2.517578e-06	8.547793e-10	1.756650e+01	5.836123e+01
2.410000e-06	2.558802e-06	8.638314e-10	1.785415e+01	5.920060e+01
2.420000e-06	2.599721e-06	8.759400e-10	1.813966e+01	6.002060e+01
2.430000e-06	2.640297e-06	8.913167e-10	1.842278e+01	6.082155e+01
2.440000e-06	2.680647e-06	9.051027e-10	1.870432e+01	6.160376e+01
2.450000e-06	2.720772e-06	9.136463e-10	1.898430e+01	6.236758e+01
2.460000e-06	2.760642e-06	9.229105e-10	1.926250e+01	6.311335e+01
2.470000e-06	2.800366e-06	9.345416e-10	1.953967e+01	6.384142e+01
2.480000e-06	2.839987e-06	9.477521e-10	1.981613e+01	6.455215e+01
2.490000e-06	2.879454e-06	9.608826e-10	2.009151e+01	6.524589e+01
2.500000e-06	2.918839e-06	9.691587e-10	2.036632e+01	6.592299e+01
2.510000e-06	2.958162e-06	9.754070e-10	2.064070e+01	6.658381e+01
2.520000e-06	2.997283e-06	9.838971e-10	2.091366e+01	6.722869e+01
2.530000e-06	3.036162e-06	9.914524e-10	2.118494e+01	6.785798e+01
2.540000e-06	3.074778e-06	9.984612e-10	2.145439e+01	6.847201e+01
2.550000e-06	3.113185e-06	1.007846e-09	2.172238e+01	6.907111e+01
2.560000e-06	3.151428e-06	1.017421e-09	2.198922e+01	6.965560e+01
2.570000e-06	3.189447e-06	1.024273e-09	2.225450e+01	7.022578e+01
2.580000e-06	3.227234e-06	1.030123e-09	2.251816e+01	7.078196e+01
2.590000e-06	3.264823e-06	1.036653e-09	2.278044e+01	7.132444e+01
2.600000e-06	3.302217e-06	1.042437e-09	2.304135e+01	7.185348e+01
2.610000e-06	3.339372e-06	1.046660e-09	2.330061e+01	7.236937e+01
2.620000e-06	3.376324e-06	1.051489e-09	2.355844e+01	7.287237e+01
2.630000e-06	3.413045e-06	1.057456e-09	2.381466e+01	7.336274e+01
2.640000e-06	3.449489e-06	1.065629e-09	2.406895e+01	7.384073e+01
2.650000e-06	3.485660e-06	1.075774e-09	2.432134e+01	7.430658e+01
2.660000e-06	3.521590e-06	1.082848e-09	2.457204e+01	7.476052e+01
2.670000e-06	3.557323e-06	1.087704e-09	2.482137e+01	7.520279e+01
2.680000e-06	3.592888e-06	1.092925e-09	2.506952e+01	7.563361e+01
2.690000e-06	3.628371e-06	1.098079e-09	2.531711e+01	7.605322e+01
2.700000e-06	3.663795e-06	1.102996e-09	2.556428e+01	7.646182e+01
2.710000e-06	3.699112e-06	1.108293e-09	2.581071e+01	7.685965e+01
2.720000e-06	3.734127e-06	1.113519e-09	2.605503e+01	7.724693e+01
2.730000e-06	3.768712e-06	1.119293e-09	2.629634e+01	7.762387e+01
2.740000e-06	3.802901e-06	1.125567e-09	2.653490e+01	7.799069e+01
2.750000e-06	3.836580e-06	1.130133e-09	2.676989e+01	7.834763e+01
2.760000e-06	3.869743e-06	1.134017e-09	2.700129e+01	7.869491e+01
2.770000e-06	3.902460e-06	1.139325e-09	2.722957e+01	7.903276e+01
2.780000e-06	3.934718e-06	1.145119e-09	2.745466e+01	7.936142e+01
2.790000e-06	3.966688e-06	1.149330e-09	2.767773e+01	7.968111e+01
2.800000e-06	3.998484e-06	1.153896e-09	2.789959e+01	7.999209e+01
2.810000e-06	4.030091e-06	1.159747e-09	2.812013e+01	8.029459e+01
2.820000e-06	4.061545e-06	1.163962e-09	2.833960e+01	8.058887e+01
2.830000e-06	4.092882e-06	1.168606e-09	2.855826e+01	8.087516e+01
2.840000e-06	4.124017e-06	1.174983e-09	2.877550e+01	8.115374e+01
2.850000e-06	4.154910e-06	1.184261e-09	2.899106e+01	8.142484e+01
2.860000e-06	4.185486e-06	1.190979e-09	2.920440e+01	8.168874e+01
2.870000e-06	4.215648e-06	1.192966e-09	2.941486e+01	8.194567e+01
2.880000e-06	4.245491e-06	1.195052e-09	2.962309e+01	8.219590e+01
2.890000e-06	4.275057e-06	1.198346e-09	2.982939e+01	8.243968e+01
2.900000e-06	4.304343e-06	1.201434e-09	3.003373e+01	8.267727e+01
2.910000e-06	4.333329e-06	1.205807e-09	3.023598e+01	8.290889e+01
