# Temperatura_=_-0.7
# Concentracion g/m^3_=_1620.0
# C_Vs_to_Am_M_A/Vsm_=_65563218390.804596
# pendiente_HvsI_1/m_=_3716.3
# ordenada_HvsI_A/m_=_1297.0
# frecuencia_Hz_=_135098.98099011678

Tiempo_(s)	Campo_(V.s)	Magnetizacion_(V.s)	Campo_(kA/m)	Magnetizacion_(A/m)
0.000000e+00	-5.506266e-06	-1.244669e-09	-3.837216e+01	-8.329503e+01
1.000000e-08	-5.506550e-06	-1.245601e-09	-3.837414e+01	-8.326374e+01
2.000000e-08	-5.506572e-06	-1.248780e-09	-3.837430e+01	-8.323232e+01
3.000000e-08	-5.506263e-06	-1.251799e-09	-3.837214e+01	-8.320057e+01
4.000000e-08	-5.505495e-06	-1.248407e-09	-3.836679e+01	-8.316826e+01
5.000000e-08	-5.504157e-06	-1.233912e-09	-3.835746e+01	-8.313517e+01
6.000000e-08	-5.502164e-06	-1.216776e-09	-3.834358e+01	-8.310106e+01
7.000000e-08	-5.499575e-06	-1.230983e-09	-3.832553e+01	-8.306568e+01
8.000000e-08	-5.496497e-06	-1.280981e-09	-3.830409e+01	-8.302878e+01
9.000000e-08	-5.492914e-06	-1.296438e-09	-3.827912e+01	-8.299009e+01
1.000000e-07	-5.488972e-06	-1.263834e-09	-3.825165e+01	-8.294935e+01
1.100000e-07	-5.484762e-06	-1.274501e-09	-3.822231e+01	-8.290630e+01
1.200000e-07	-5.480251e-06	-1.248060e-09	-3.819087e+01	-8.286068e+01
1.300000e-07	-5.475435e-06	-1.205429e-09	-3.815730e+01	-8.281225e+01
1.400000e-07	-5.470290e-06	-1.198546e-09	-3.812145e+01	-8.276076e+01
1.500000e-07	-5.464798e-06	-1.242363e-09	-3.808318e+01	-8.270597e+01
1.600000e-07	-5.458904e-06	-1.278551e-09	-3.804211e+01	-8.264767e+01
1.700000e-07	-5.452566e-06	-1.215993e-09	-3.799794e+01	-8.258565e+01
1.800000e-07	-5.445864e-06	-1.212306e-09	-3.795123e+01	-8.251971e+01
1.900000e-07	-5.438824e-06	-1.254269e-09	-3.790217e+01	-8.244969e+01
2.000000e-07	-5.431412e-06	-1.285029e-09	-3.785052e+01	-8.237542e+01
2.100000e-07	-5.423749e-06	-1.255502e-09	-3.779711e+01	-8.229678e+01
2.200000e-07	-5.415831e-06	-1.255239e-09	-3.774194e+01	-8.221365e+01
2.300000e-07	-5.407653e-06	-1.281038e-09	-3.768495e+01	-8.212592e+01
2.400000e-07	-5.399047e-06	-1.293965e-09	-3.762497e+01	-8.203353e+01
2.500000e-07	-5.389828e-06	-1.255394e-09	-3.756073e+01	-8.193642e+01
2.600000e-07	-5.380016e-06	-1.226255e-09	-3.749235e+01	-8.183456e+01
2.700000e-07	-5.369582e-06	-1.238503e-09	-3.741964e+01	-8.172794e+01
2.800000e-07	-5.358615e-06	-1.261677e-09	-3.734321e+01	-8.161656e+01
2.900000e-07	-5.347275e-06	-1.261000e-09	-3.726418e+01	-8.150046e+01
3.000000e-07	-5.335553e-06	-1.233906e-09	-3.718250e+01	-8.137967e+01
3.100000e-07	-5.323372e-06	-1.233774e-09	-3.709761e+01	-8.125426e+01
3.200000e-07	-5.310767e-06	-1.247174e-09	-3.700976e+01	-8.112430e+01
3.300000e-07	-5.297834e-06	-1.239389e-09	-3.691964e+01	-8.098989e+01
3.400000e-07	-5.284428e-06	-1.201408e-09	-3.682622e+01	-8.085113e+01
3.500000e-07	-5.270454e-06	-1.226713e-09	-3.672883e+01	-8.070812e+01
3.600000e-07	-5.256191e-06	-1.270953e-09	-3.662944e+01	-8.056101e+01
3.700000e-07	-5.241534e-06	-1.243583e-09	-3.652729e+01	-8.040990e+01
3.800000e-07	-5.226183e-06	-1.206214e-09	-3.642032e+01	-8.025495e+01
3.900000e-07	-5.210340e-06	-1.248776e-09	-3.630991e+01	-8.009628e+01
4.000000e-07	-5.194151e-06	-1.240159e-09	-3.619709e+01	-7.993404e+01
4.100000e-07	-5.177537e-06	-1.183688e-09	-3.608131e+01	-7.976837e+01
4.200000e-07	-5.160558e-06	-1.217389e-09	-3.596299e+01	-7.959940e+01
4.300000e-07	-5.143325e-06	-1.271467e-09	-3.584289e+01	-7.942727e+01
4.400000e-07	-5.125826e-06	-1.201766e-09	-3.572095e+01	-7.925211e+01
4.500000e-07	-5.107931e-06	-1.187788e-09	-3.559624e+01	-7.907404e+01
4.600000e-07	-5.089585e-06	-1.259674e-09	-3.546839e+01	-7.889318e+01
4.700000e-07	-5.070741e-06	-1.222377e-09	-3.533707e+01	-7.870963e+01
4.800000e-07	-5.051655e-06	-1.156097e-09	-3.520406e+01	-7.852348e+01
4.900000e-07	-5.032402e-06	-1.230863e-09	-3.506989e+01	-7.833484e+01
5.000000e-07	-5.012843e-06	-1.243104e-09	-3.493359e+01	-7.814376e+01
5.100000e-07	-4.993014e-06	-1.154211e-09	-3.479540e+01	-7.795032e+01
5.200000e-07	-4.972890e-06	-1.193462e-09	-3.465516e+01	-7.775456e+01
5.300000e-07	-4.952513e-06	-1.256814e-09	-3.451316e+01	-7.755653e+01
5.400000e-07	-4.931727e-06	-1.169099e-09	-3.436830e+01	-7.735626e+01
5.500000e-07	-4.910446e-06	-1.149058e-09	-3.422000e+01	-7.715375e+01
5.600000e-07	-4.888862e-06	-1.231439e-09	-3.406959e+01	-7.694903e+01
5.700000e-07	-4.867054e-06	-1.184387e-09	-3.391761e+01	-7.674207e+01
5.800000e-07	-4.844965e-06	-1.128725e-09	-3.376367e+01	-7.653288e+01
5.900000e-07	-4.822535e-06	-1.201572e-09	-3.360737e+01	-7.632143e+01
6.000000e-07	-4.799670e-06	-1.200710e-09	-3.344803e+01	-7.610768e+01
6.100000e-07	-4.776425e-06	-1.125558e-09	-3.328603e+01	-7.589160e+01
6.200000e-07	-4.752980e-06	-1.163994e-09	-3.312265e+01	-7.567315e+01
6.300000e-07	-4.729382e-06	-1.189459e-09	-3.295820e+01	-7.545228e+01
6.400000e-07	-4.705557e-06	-1.128049e-09	-3.279217e+01	-7.522894e+01
6.500000e-07	-4.681348e-06	-1.135370e-09	-3.262346e+01	-7.500307e+01
6.600000e-07	-4.656680e-06	-1.175980e-09	-3.245156e+01	-7.477464e+01
6.700000e-07	-4.631427e-06	-1.134460e-09	-3.227557e+01	-7.454357e+01
6.800000e-07	-4.605647e-06	-1.127728e-09	-3.209591e+01	-7.430983e+01
6.900000e-07	-4.579495e-06	-1.164633e-09	-3.191367e+01	-7.407337e+01
7.000000e-07	-4.552835e-06	-1.140063e-09	-3.172788e+01	-7.383413e+01
7.100000e-07	-4.525666e-06	-1.112929e-09	-3.153854e+01	-7.359208e+01
7.200000e-07	-4.498256e-06	-1.143911e-09	-3.134753e+01	-7.334719e+01
7.300000e-07	-4.470678e-06	-1.133505e-09	-3.115534e+01	-7.309942e+01
7.400000e-07	-4.442885e-06	-1.100296e-09	-3.096166e+01	-7.284876e+01
7.500000e-07	-4.414977e-06	-1.112429e-09	-3.076717e+01	-7.259518e+01
7.600000e-07	-4.386837e-06	-1.119201e-09	-3.057106e+01	-7.233869e+01
7.700000e-07	-4.358326e-06	-1.096163e-09	-3.037238e+01	-7.207928e+01
7.800000e-07	-4.329531e-06	-1.103973e-09	-3.017171e+01	-7.181696e+01
7.900000e-07	-4.300461e-06	-1.114402e-09	-2.996913e+01	-7.155173e+01
8.000000e-07	-4.271048e-06	-1.093449e-09	-2.976415e+01	-7.128363e+01
8.100000e-07	-4.241356e-06	-1.086815e-09	-2.955724e+01	-7.101268e+01
8.200000e-07	-4.211385e-06	-1.097674e-09	-2.934837e+01	-7.073890e+01
8.300000e-07	-4.181049e-06	-1.080454e-09	-2.913697e+01	-7.046234e+01
8.400000e-07	-4.150399e-06	-1.066557e-09	-2.892337e+01	-7.018304e+01
8.500000e-07	-4.119398e-06	-1.078395e-09	-2.870733e+01	-6.990103e+01
8.600000e-07	-4.088194e-06	-1.070446e-09	-2.848988e+01	-6.961637e+01
8.700000e-07	-4.056937e-06	-1.049248e-09	-2.827205e+01	-6.932910e+01
8.800000e-07	-4.025467e-06	-1.050973e-09	-2.805275e+01	-6.903925e+01
8.900000e-07	-3.993749e-06	-1.051080e-09	-2.783171e+01	-6.874688e+01
9.000000e-07	-3.961808e-06	-1.032032e-09	-2.760912e+01	-6.845202e+01
9.100000e-07	-3.929635e-06	-1.031130e-09	-2.738491e+01	-6.815471e+01
9.200000e-07	-3.897122e-06	-1.037297e-09	-2.715833e+01	-6.785497e+01
9.300000e-07	-3.864180e-06	-1.024986e-09	-2.692877e+01	-6.755283e+01
9.400000e-07	-3.830708e-06	-1.013406e-09	-2.669551e+01	-6.724829e+01
9.500000e-07	-3.796741e-06	-1.015507e-09	-2.645880e+01	-6.694137e+01
9.600000e-07	-3.762363e-06	-1.001600e-09	-2.621922e+01	-6.663204e+01
9.700000e-07	-3.727616e-06	-9.836755e-10	-2.597708e+01	-6.632030e+01
9.800000e-07	-3.692636e-06	-9.842125e-10	-2.573331e+01	-6.600611e+01
9.900000e-07	-3.657450e-06	-9.855131e-10	-2.548810e+01	-6.568944e+01
1.000000e-06	-3.622042e-06	-9.759084e-10	-2.524135e+01	-6.537021e+01
1.010000e-06	-3.586479e-06	-9.782709e-10	-2.499352e+01	-6.504836e+01
1.020000e-06	-3.550760e-06	-9.803151e-10	-2.474460e+01	-6.472381e+01
1.030000e-06	-3.514834e-06	-9.671229e-10	-2.449424e+01	-6.439646e+01
1.040000e-06	-3.478779e-06	-9.561493e-10	-2.424297e+01	-6.406619e+01
1.050000e-06	-3.442521e-06	-9.546966e-10	-2.399030e+01	-6.373289e+01
1.060000e-06	-3.405924e-06	-9.440970e-10	-2.373526e+01	-6.339641e+01
1.070000e-06	-3.368957e-06	-9.339137e-10	-2.347764e+01	-6.305660e+01
1.080000e-06	-3.331709e-06	-9.345523e-10	-2.321807e+01	-6.271331e+01
1.090000e-06	-3.294282e-06	-9.319223e-10	-2.295725e+01	-6.236635e+01
1.100000e-06	-3.256635e-06	-9.240584e-10	-2.269490e+01	-6.201556e+01
1.110000e-06	-3.218804e-06	-9.214588e-10	-2.243126e+01	-6.166073e+01
1.120000e-06	-3.180775e-06	-9.162396e-10	-2.216624e+01	-6.130168e+01
1.130000e-06	-3.142467e-06	-9.024794e-10	-2.189928e+01	-6.093821e+01
1.140000e-06	-3.103911e-06	-8.920426e-10	-2.163059e+01	-6.057010e+01
1.150000e-06	-3.065162e-06	-8.851528e-10	-2.136055e+01	-6.019716e+01
1.160000e-06	-3.026230e-06	-8.753942e-10	-2.108925e+01	-5.981917e+01
1.170000e-06	-2.987070e-06	-8.678437e-10	-2.081635e+01	-5.943593e+01
1.180000e-06	-2.947751e-06	-8.648645e-10	-2.054234e+01	-5.904722e+01
1.190000e-06	-2.908365e-06	-8.580865e-10	-2.026786e+01	-5.865286e+01
1.200000e-06	-2.868892e-06	-8.514663e-10	-1.999278e+01	-5.825264e+01
1.210000e-06	-2.829256e-06	-8.479307e-10	-1.971657e+01	-5.784638e+01
1.220000e-06	-2.789425e-06	-8.423296e-10	-1.943900e+01	-5.743388e+01
1.230000e-06	-2.749432e-06	-8.334009e-10	-1.916029e+01	-5.701497e+01
1.240000e-06	-2.709269e-06	-8.274278e-10	-1.888040e+01	-5.658949e+01
1.250000e-06	-2.668913e-06	-8.216783e-10	-1.859917e+01	-5.615728e+01
1.260000e-06	-2.628210e-06	-8.128918e-10	-1.831552e+01	-5.571820e+01
1.270000e-06	-2.587227e-06	-8.022588e-10	-1.802991e+01	-5.527210e+01
1.280000e-06	-2.546158e-06	-7.935078e-10	-1.774371e+01	-5.481887e+01
1.290000e-06	-2.504835e-06	-7.862727e-10	-1.745574e+01	-5.435839e+01
1.300000e-06	-2.463143e-06	-7.787960e-10	-1.716519e+01	-5.389056e+01
1.310000e-06	-2.421132e-06	-7.697264e-10	-1.687242e+01	-5.341527e+01
1.320000e-06	-2.378828e-06	-7.595441e-10	-1.657762e+01	-5.293246e+01
1.330000e-06	-2.336295e-06	-7.490322e-10	-1.628121e+01	-5.244204e+01
1.340000e-06	-2.293514e-06	-7.394069e-10	-1.598308e+01	-5.194394e+01
1.350000e-06	-2.250510e-06	-7.300104e-10	-1.568340e+01	-5.143809e+01
1.360000e-06	-2.207289e-06	-7.213526e-10	-1.538220e+01	-5.092443e+01
1.370000e-06	-2.163906e-06	-7.135802e-10	-1.507987e+01	-5.040292e+01
1.380000e-06	-2.120510e-06	-7.082575e-10	-1.477745e+01	-4.987348e+01
1.390000e-06	-2.077002e-06	-7.019521e-10	-1.447425e+01	-4.933605e+01
1.400000e-06	-2.033342e-06	-6.938539e-10	-1.416999e+01	-4.879058e+01
1.410000e-06	-1.989625e-06	-6.852510e-10	-1.386534e+01	-4.823698e+01
1.420000e-06	-1.945851e-06	-6.756143e-10	-1.356028e+01	-4.767520e+01
1.430000e-06	-1.902019e-06	-6.669906e-10	-1.325482e+01	-4.710512e+01
1.440000e-06	-1.858103e-06	-6.583675e-10	-1.294878e+01	-4.652667e+01
1.450000e-06	-1.814041e-06	-6.467371e-10	-1.264172e+01	-4.593971e+01
1.460000e-06	-1.769830e-06	-6.347717e-10	-1.233362e+01	-4.534412e+01
1.470000e-06	-1.725515e-06	-6.235881e-10	-1.202480e+01	-4.473974e+01
1.480000e-06	-1.681119e-06	-6.110635e-10	-1.171542e+01	-4.412642e+01
1.490000e-06	-1.636495e-06	-5.996108e-10	-1.140443e+01	-4.350395e+01
1.500000e-06	-1.591713e-06	-5.929770e-10	-1.109236e+01	-4.287212e+01
1.510000e-06	-1.546906e-06	-5.873681e-10	-1.078011e+01	-4.223069e+01
1.520000e-06	-1.501958e-06	-5.784012e-10	-1.046687e+01	-4.157940e+01
1.530000e-06	-1.456819e-06	-5.689902e-10	-1.015231e+01	-4.091796e+01
1.540000e-06	-1.411555e-06	-5.586565e-10	-9.836872e+00	-4.024604e+01
1.550000e-06	-1.366215e-06	-5.464849e-10	-9.520902e+00	-3.956333e+01
1.560000e-06	-1.320781e-06	-5.325434e-10	-9.204282e+00	-3.886943e+01
1.570000e-06	-1.275255e-06	-5.186544e-10	-8.887016e+00	-3.816398e+01
1.580000e-06	-1.229619e-06	-5.047966e-10	-8.568991e+00	-3.744654e+01
1.590000e-06	-1.183960e-06	-4.921548e-10	-8.250802e+00	-3.671670e+01
1.600000e-06	-1.138231e-06	-4.825134e-10	-7.932125e+00	-3.597399e+01
1.610000e-06	-1.092411e-06	-4.730637e-10	-7.612812e+00	-3.521794e+01
1.620000e-06	-1.046529e-06	-4.599022e-10	-7.293071e+00	-3.444806e+01
1.630000e-06	-1.000566e-06	-4.474349e-10	-6.972765e+00	-3.366387e+01
1.640000e-06	-9.544774e-07	-4.363431e-10	-6.651579e+00	-3.286484e+01
1.650000e-06	-9.082812e-07	-4.230964e-10	-6.329646e+00	-3.205047e+01
1.660000e-06	-8.621423e-07	-4.089359e-10	-6.008113e+00	-3.122025e+01
1.670000e-06	-8.160557e-07	-3.947133e-10	-5.686943e+00	-3.037367e+01
1.680000e-06	-7.698980e-07	-3.787886e-10	-5.365278e+00	-2.951023e+01
1.690000e-06	-7.236203e-07	-3.635167e-10	-5.042778e+00	-2.862944e+01
1.700000e-06	-6.772620e-07	-3.512464e-10	-4.719715e+00	-2.773082e+01
1.710000e-06	-6.308582e-07	-3.405320e-10	-4.396336e+00	-2.681394e+01
1.720000e-06	-5.844148e-07	-3.293992e-10	-4.072680e+00	-2.587836e+01
1.730000e-06	-5.379693e-07	-3.159387e-10	-3.749010e+00	-2.492369e+01
1.740000e-06	-4.915082e-07	-2.982873e-10	-3.425231e+00	-2.394958e+01
1.750000e-06	-4.449575e-07	-2.797101e-10	-3.100828e+00	-2.295573e+01
1.760000e-06	-3.984211e-07	-2.630918e-10	-2.776524e+00	-2.194185e+01
1.770000e-06	-3.518579e-07	-2.477843e-10	-2.452034e+00	-2.090773e+01
1.780000e-06	-3.052299e-07	-2.344001e-10	-2.127092e+00	-1.985322e+01
1.790000e-06	-2.586173e-07	-2.209694e-10	-1.802257e+00	-1.877822e+01
1.800000e-06	-2.119627e-07	-2.052651e-10	-1.477130e+00	-1.768267e+01
1.810000e-06	-1.652254e-07	-1.880809e-10	-1.151425e+00	-1.656662e+01
1.820000e-06	-1.184325e-07	-1.712875e-10	-8.253342e-01	-1.543016e+01
1.830000e-06	-7.169676e-08	-1.563958e-10	-4.996416e-01	-1.427345e+01
1.840000e-06	-2.501164e-08	-1.426176e-10	-1.743015e-01	-1.309675e+01
1.850000e-06	2.172663e-08	-1.285695e-10	1.514089e-01	-1.190037e+01
1.860000e-06	6.849968e-08	-1.144140e-10	4.773617e-01	-1.068471e+01
1.870000e-06	1.152505e-07	-9.729144e-11	8.031595e-01	-9.450249e+00
1.880000e-06	1.619522e-07	-7.815148e-11	1.128615e+00	-8.197536e+00
1.890000e-06	2.085793e-07	-5.813971e-11	1.453551e+00	-6.927206e+00
1.900000e-06	2.551131e-07	-3.870421e-11	1.777837e+00	-5.639967e+00
1.910000e-06	3.016500e-07	-2.139696e-11	2.102144e+00	-4.336604e+00
1.920000e-06	3.482885e-07	-5.392442e-12	2.427159e+00	-3.017975e+00
1.930000e-06	3.949362e-07	9.707310e-12	2.752238e+00	-1.685009e+00
1.940000e-06	4.416213e-07	2.518851e-11	3.077578e+00	-3.387043e-01
1.950000e-06	4.881840e-07	4.084562e-11	3.402065e+00	1.019879e+00
1.960000e-06	5.345521e-07	6.007121e-11	3.725196e+00	2.389619e+00
1.970000e-06	5.809893e-07	8.295687e-11	4.048809e+00	3.769338e+00
1.980000e-06	6.274271e-07	1.051333e-10	4.372425e+00	5.157808e+00
1.990000e-06	6.737960e-07	1.252998e-10	4.695562e+00	6.553757e+00
2.000000e-06	7.201294e-07	1.413235e-10	5.018451e+00	7.955870e+00
2.010000e-06	7.664327e-07	1.557137e-10	5.341130e+00	9.362803e+00
2.020000e-06	8.126637e-07	1.728449e-10	5.663305e+00	1.077318e+01
2.030000e-06	8.587472e-07	1.935425e-10	5.984452e+00	1.218561e+01
2.040000e-06	9.047260e-07	2.146631e-10	6.304870e+00	1.359868e+01
2.050000e-06	9.506545e-07	2.346725e-10	6.624938e+00	1.501097e+01
2.060000e-06	9.965990e-07	2.544950e-10	6.945117e+00	1.642107e+01
2.070000e-06	1.042485e-06	2.734283e-10	7.264887e+00	1.782756e+01
2.080000e-06	1.088265e-06	2.910308e-10	7.583919e+00	1.922906e+01
2.090000e-06	1.134026e-06	3.104893e-10	7.902819e+00	2.062417e+01
2.100000e-06	1.179715e-06	3.328278e-10	8.221221e+00	2.201154e+01
2.110000e-06	1.225299e-06	3.537025e-10	8.538883e+00	2.338986e+01
2.120000e-06	1.270762e-06	3.709860e-10	8.855709e+00	2.475784e+01
2.130000e-06	1.316111e-06	3.858724e-10	9.171738e+00	2.611424e+01
2.140000e-06	1.361376e-06	4.013506e-10	9.487180e+00	2.745787e+01
2.150000e-06	1.406523e-06	4.193062e-10	9.801802e+00	2.878760e+01
2.160000e-06	1.451577e-06	4.393354e-10	1.011578e+01	3.010234e+01
2.170000e-06	1.496506e-06	4.605969e-10	1.042888e+01	3.140107e+01
2.180000e-06	1.541364e-06	4.834211e-10	1.074148e+01	3.268286e+01
2.190000e-06	1.586103e-06	5.036709e-10	1.105327e+01	3.394682e+01
2.200000e-06	1.630765e-06	5.190451e-10	1.136450e+01	3.519214e+01
2.210000e-06	1.675260e-06	5.332427e-10	1.167458e+01	3.641808e+01
2.220000e-06	1.719504e-06	5.481197e-10	1.198291e+01	3.762399e+01
2.230000e-06	1.763708e-06	5.640213e-10	1.229096e+01	3.880928e+01
2.240000e-06	1.807833e-06	5.807525e-10	1.259846e+01	3.997345e+01
2.250000e-06	1.851831e-06	5.972308e-10	1.290507e+01	4.111606e+01
2.260000e-06	1.895719e-06	6.127974e-10	1.321092e+01	4.223675e+01
2.270000e-06	1.939516e-06	6.301656e-10	1.351613e+01	4.333526e+01
2.280000e-06	1.983264e-06	6.497376e-10	1.382100e+01	4.441136e+01
2.290000e-06	2.026955e-06	6.676833e-10	1.412548e+01	4.546492e+01
2.300000e-06	2.070548e-06	6.832078e-10	1.442927e+01	4.649587e+01
2.310000e-06	2.114112e-06	6.949393e-10	1.473286e+01	4.750421e+01
2.320000e-06	2.157673e-06	7.044754e-10	1.503643e+01	4.849000e+01
2.330000e-06	2.201092e-06	7.148659e-10	1.533901e+01	4.945334e+01
2.340000e-06	2.244270e-06	7.277385e-10	1.563991e+01	5.039442e+01
2.350000e-06	2.287263e-06	7.445018e-10	1.593952e+01	5.131344e+01
2.360000e-06	2.330057e-06	7.632252e-10	1.623774e+01	5.221069e+01
2.370000e-06	2.372582e-06	7.800452e-10	1.653409e+01	5.308646e+01
2.380000e-06	2.414981e-06	7.935472e-10	1.682956e+01	5.394110e+01
2.390000e-06	2.457168e-06	8.039170e-10	1.712356e+01	5.477499e+01
2.400000e-06	2.498917e-06	8.106408e-10	1.741449e+01	5.558853e+01
2.410000e-06	2.540251e-06	8.172743e-10	1.770254e+01	5.638215e+01
2.420000e-06	2.581278e-06	8.255236e-10	1.798846e+01	5.715630e+01
2.430000e-06	2.622071e-06	8.363583e-10	1.827274e+01	5.791144e+01
2.440000e-06	2.662566e-06	8.489813e-10	1.855494e+01	5.864803e+01
2.450000e-06	2.702777e-06	8.617238e-10	1.883516e+01	5.936656e+01
2.460000e-06	2.742822e-06	8.761628e-10	1.911423e+01	6.006751e+01
2.470000e-06	2.782752e-06	8.903206e-10	1.939249e+01	6.075135e+01
2.480000e-06	2.822524e-06	9.012988e-10	1.966965e+01	6.141856e+01
2.490000e-06	2.862186e-06	9.091109e-10	1.994605e+01	6.206959e+01
2.500000e-06	2.901769e-06	9.145402e-10	2.022190e+01	6.270491e+01
2.510000e-06	2.941202e-06	9.204081e-10	2.049670e+01	6.332496e+01
2.520000e-06	2.980450e-06	9.286599e-10	2.077021e+01	6.393017e+01
2.530000e-06	3.019517e-06	9.386970e-10	2.104246e+01	6.452094e+01
2.540000e-06	3.058393e-06	9.491749e-10	2.131338e+01	6.509767e+01
2.550000e-06	3.096991e-06	9.577177e-10	2.158236e+01	6.566074e+01
2.560000e-06	3.135287e-06	9.654733e-10	2.184924e+01	6.621049e+01
2.570000e-06	3.173332e-06	9.736179e-10	2.211438e+01	6.674728e+01
2.580000e-06	3.211197e-06	9.799255e-10	2.237825e+01	6.727141e+01
2.590000e-06	3.248856e-06	9.843214e-10	2.264068e+01	6.778318e+01
2.600000e-06	3.286361e-06	9.901480e-10	2.290205e+01	6.828287e+01
2.610000e-06	3.323690e-06	9.967748e-10	2.316219e+01	6.877074e+01
2.620000e-06	3.360739e-06	1.001769e-09	2.342038e+01	6.924704e+01
2.630000e-06	3.397556e-06	1.005141e-09	2.367695e+01	6.971199e+01
2.640000e-06	3.434166e-06	1.006977e-09	2.393207e+01	7.016581e+01
2.650000e-06	3.470517e-06	1.011783e-09	2.418540e+01	7.060870e+01
2.660000e-06	3.506611e-06	1.021826e-09	2.443693e+01	7.104085e+01
2.670000e-06	3.542501e-06	1.031791e-09	2.468704e+01	7.146245e+01
2.680000e-06	3.578191e-06	1.040260e-09	2.493576e+01	7.187367e+01
2.690000e-06	3.613766e-06	1.048092e-09	2.518368e+01	7.227468e+01
2.700000e-06	3.649264e-06	1.052411e-09	2.543105e+01	7.266564e+01
2.710000e-06	3.684682e-06	1.054789e-09	2.567788e+01	7.304672e+01
2.720000e-06	3.719925e-06	1.058755e-09	2.592348e+01	7.341807e+01
2.730000e-06	3.754735e-06	1.063856e-09	2.616606e+01	7.377987e+01
2.740000e-06	3.789051e-06	1.069061e-09	2.640521e+01	7.413228e+01
2.750000e-06	3.822995e-06	1.074453e-09	2.664175e+01	7.447546e+01
2.760000e-06	3.856539e-06	1.079231e-09	2.687552e+01	7.480959e+01
2.770000e-06	3.889664e-06	1.083420e-09	2.710636e+01	7.513486e+01
2.780000e-06	3.922394e-06	1.088026e-09	2.733445e+01	7.545144e+01
2.790000e-06	3.954659e-06	1.092220e-09	2.755930e+01	7.575953e+01
2.800000e-06	3.986586e-06	1.096963e-09	2.778179e+01	7.605934e+01
2.810000e-06	4.018358e-06	1.102659e-09	2.800321e+01	7.635105e+01
2.820000e-06	4.049998e-06	1.107728e-09	2.822370e+01	7.663490e+01
2.830000e-06	4.081443e-06	1.111509e-09	2.844283e+01	7.691110e+01
2.840000e-06	4.112684e-06	1.114502e-09	2.866055e+01	7.717987e+01
2.850000e-06	4.143728e-06	1.119034e-09	2.887689e+01	7.744145e+01
2.860000e-06	4.174454e-06	1.124928e-09	2.909101e+01	7.769607e+01
2.870000e-06	4.204793e-06	1.132849e-09	2.930244e+01	7.794397e+01
2.880000e-06	4.234745e-06	1.142529e-09	2.951117e+01	7.818540e+01
2.890000e-06	4.264434e-06	1.149491e-09	2.971806e+01	7.842058e+01
2.900000e-06	4.293970e-06	1.152777e-09	2.992389e+01	7.864977e+01
