# Temperatura_=_-33.28
# Concentracion g/m^3_=_1620.0
# C_Vs_to_Am_M_A/Vsm_=_65563218390.804596
# pendiente_HvsI_1/m_=_3716.3
# ordenada_HvsI_A/m_=_1297.0
# frecuencia_Hz_=_135107.40090681319

Tiempo_(s)	Campo_(V.s)	Magnetizacion_(V.s)	Campo_(kA/m)	Magnetizacion_(A/m)
0.000000e+00	-5.504318e-06	-8.624008e-10	-3.836724e+01	-5.749954e+01
1.000000e-08	-5.504703e-06	-8.584657e-10	-3.836992e+01	-5.746535e+01
2.000000e-08	-5.504853e-06	-8.566911e-10	-3.837097e+01	-5.743083e+01
3.000000e-08	-5.504634e-06	-8.581920e-10	-3.836944e+01	-5.739605e+01
4.000000e-08	-5.503916e-06	-8.584625e-10	-3.836444e+01	-5.736105e+01
5.000000e-08	-5.502610e-06	-8.477509e-10	-3.835534e+01	-5.732588e+01
6.000000e-08	-5.500642e-06	-8.294501e-10	-3.834162e+01	-5.729059e+01
7.000000e-08	-5.497972e-06	-8.168047e-10	-3.832301e+01	-5.725522e+01
8.000000e-08	-5.494794e-06	-8.476808e-10	-3.830086e+01	-5.721981e+01
9.000000e-08	-5.491272e-06	-9.657408e-10	-3.827630e+01	-5.718441e+01
1.000000e-07	-5.487256e-06	-1.014472e-09	-3.824831e+01	-5.714905e+01
1.100000e-07	-5.482828e-06	-8.365031e-10	-3.821745e+01	-5.711374e+01
1.200000e-07	-5.478388e-06	-7.089079e-10	-3.818650e+01	-5.707851e+01
1.300000e-07	-5.473873e-06	-8.166248e-10	-3.815503e+01	-5.704337e+01
1.400000e-07	-5.468842e-06	-9.316877e-10	-3.811996e+01	-5.700832e+01
1.500000e-07	-5.463195e-06	-8.515264e-10	-3.808060e+01	-5.697335e+01
1.600000e-07	-5.457294e-06	-7.116075e-10	-3.803947e+01	-5.693844e+01
1.700000e-07	-5.451199e-06	-8.671543e-10	-3.799698e+01	-5.690355e+01
1.800000e-07	-5.444496e-06	-9.819923e-10	-3.795026e+01	-5.686865e+01
1.900000e-07	-5.437349e-06	-9.078735e-10	-3.790044e+01	-5.683368e+01
2.000000e-07	-5.430045e-06	-7.323272e-10	-3.784953e+01	-5.679858e+01
2.100000e-07	-5.422519e-06	-7.820510e-10	-3.779707e+01	-5.676326e+01
2.200000e-07	-5.414638e-06	-8.794354e-10	-3.774213e+01	-5.672765e+01
2.300000e-07	-5.406485e-06	-8.797768e-10	-3.768531e+01	-5.669163e+01
2.400000e-07	-5.398039e-06	-8.067342e-10	-3.762643e+01	-5.665511e+01
2.500000e-07	-5.388917e-06	-8.051456e-10	-3.756285e+01	-5.661795e+01
2.600000e-07	-5.378932e-06	-8.405441e-10	-3.749325e+01	-5.658004e+01
2.700000e-07	-5.368359e-06	-8.253691e-10	-3.741955e+01	-5.654123e+01
2.800000e-07	-5.357407e-06	-8.125945e-10	-3.734322e+01	-5.650138e+01
2.900000e-07	-5.345997e-06	-8.117545e-10	-3.726368e+01	-5.646034e+01
3.000000e-07	-5.334251e-06	-8.431812e-10	-3.718181e+01	-5.641796e+01
3.100000e-07	-5.322166e-06	-8.178267e-10	-3.709757e+01	-5.637407e+01
3.200000e-07	-5.309555e-06	-8.026637e-10	-3.700967e+01	-5.632852e+01
3.300000e-07	-5.296473e-06	-7.752659e-10	-3.691848e+01	-5.628114e+01
3.400000e-07	-5.283103e-06	-8.277041e-10	-3.682529e+01	-5.623178e+01
3.500000e-07	-5.269398e-06	-8.166751e-10	-3.672975e+01	-5.618028e+01
3.600000e-07	-5.255140e-06	-8.052508e-10	-3.663037e+01	-5.612648e+01
3.700000e-07	-5.240399e-06	-8.139809e-10	-3.652762e+01	-5.607024e+01
3.800000e-07	-5.225266e-06	-8.539827e-10	-3.642214e+01	-5.601141e+01
3.900000e-07	-5.209455e-06	-7.831995e-10	-3.631193e+01	-5.594985e+01
4.000000e-07	-5.193151e-06	-7.909719e-10	-3.619829e+01	-5.588545e+01
4.100000e-07	-5.176652e-06	-8.583264e-10	-3.608328e+01	-5.581809e+01
4.200000e-07	-5.159770e-06	-8.261353e-10	-3.596561e+01	-5.574767e+01
4.300000e-07	-5.142423e-06	-7.449301e-10	-3.584469e+01	-5.567409e+01
4.400000e-07	-5.124884e-06	-8.460466e-10	-3.572244e+01	-5.559728e+01
4.500000e-07	-5.107069e-06	-8.929739e-10	-3.559826e+01	-5.551717e+01
4.600000e-07	-5.088627e-06	-7.730913e-10	-3.546971e+01	-5.543372e+01
4.700000e-07	-5.069726e-06	-7.734388e-10	-3.533797e+01	-5.534689e+01
4.800000e-07	-5.050519e-06	-8.886238e-10	-3.520409e+01	-5.525667e+01
4.900000e-07	-5.031072e-06	-8.269098e-10	-3.506853e+01	-5.516304e+01
5.000000e-07	-5.011501e-06	-7.651020e-10	-3.493212e+01	-5.506602e+01
5.100000e-07	-4.991810e-06	-8.608068e-10	-3.479486e+01	-5.496563e+01
5.200000e-07	-4.971786e-06	-8.439158e-10	-3.465529e+01	-5.486192e+01
5.300000e-07	-4.951284e-06	-7.558549e-10	-3.451238e+01	-5.475493e+01
5.400000e-07	-4.930448e-06	-8.355454e-10	-3.436714e+01	-5.464473e+01
5.500000e-07	-4.909281e-06	-8.859034e-10	-3.421960e+01	-5.453139e+01
5.600000e-07	-4.887784e-06	-7.699314e-10	-3.406976e+01	-5.441500e+01
5.700000e-07	-4.865980e-06	-7.847503e-10	-3.391778e+01	-5.429566e+01
5.800000e-07	-4.843780e-06	-8.676234e-10	-3.376304e+01	-5.417347e+01
5.900000e-07	-4.821207e-06	-8.075910e-10	-3.360569e+01	-5.404854e+01
6.000000e-07	-4.798335e-06	-7.648312e-10	-3.344626e+01	-5.392097e+01
6.100000e-07	-4.775207e-06	-8.444932e-10	-3.328505e+01	-5.379090e+01
6.200000e-07	-4.751821e-06	-8.191503e-10	-3.312204e+01	-5.365844e+01
6.300000e-07	-4.728246e-06	-7.659462e-10	-3.295772e+01	-5.352370e+01
6.400000e-07	-4.704456e-06	-8.034487e-10	-3.279189e+01	-5.338680e+01
6.500000e-07	-4.680228e-06	-8.184715e-10	-3.262301e+01	-5.324787e+01
6.600000e-07	-4.655567e-06	-7.687946e-10	-3.245112e+01	-5.310700e+01
6.700000e-07	-4.630482e-06	-7.965125e-10	-3.227626e+01	-5.296430e+01
6.800000e-07	-4.604745e-06	-8.181819e-10	-3.209687e+01	-5.281987e+01
6.900000e-07	-4.578328e-06	-7.886964e-10	-3.191273e+01	-5.267380e+01
7.000000e-07	-4.551455e-06	-7.818710e-10	-3.172542e+01	-5.252615e+01
7.100000e-07	-4.524288e-06	-8.046355e-10	-3.153605e+01	-5.237699e+01
7.200000e-07	-4.496894e-06	-7.808411e-10	-3.134510e+01	-5.222638e+01
7.300000e-07	-4.469369e-06	-7.711098e-10	-3.115324e+01	-5.207436e+01
7.400000e-07	-4.441738e-06	-7.843876e-10	-3.096064e+01	-5.192095e+01
7.500000e-07	-4.413850e-06	-7.805979e-10	-3.076626e+01	-5.176617e+01
7.600000e-07	-4.385629e-06	-7.671910e-10	-3.056954e+01	-5.161001e+01
7.700000e-07	-4.357124e-06	-7.737423e-10	-3.037085e+01	-5.145246e+01
7.800000e-07	-4.328296e-06	-7.689888e-10	-3.016991e+01	-5.129349e+01
7.900000e-07	-4.299145e-06	-7.585190e-10	-2.996671e+01	-5.113306e+01
8.000000e-07	-4.269707e-06	-7.631432e-10	-2.976152e+01	-5.097110e+01
8.100000e-07	-4.240031e-06	-7.589022e-10	-2.955467e+01	-5.080756e+01
8.200000e-07	-4.210050e-06	-7.421668e-10	-2.934569e+01	-5.064235e+01
8.300000e-07	-4.179696e-06	-7.400277e-10	-2.913411e+01	-5.047537e+01
8.400000e-07	-4.149021e-06	-7.470900e-10	-2.892029e+01	-5.030654e+01
8.500000e-07	-4.118068e-06	-7.334474e-10	-2.870454e+01	-5.013573e+01
8.600000e-07	-4.086883e-06	-7.265275e-10	-2.848717e+01	-4.996284e+01
8.700000e-07	-4.055563e-06	-7.302706e-10	-2.826886e+01	-4.978774e+01
8.800000e-07	-4.024147e-06	-7.263711e-10	-2.804988e+01	-4.961031e+01
8.900000e-07	-3.992542e-06	-7.144623e-10	-2.782957e+01	-4.943043e+01
9.000000e-07	-3.960715e-06	-7.198934e-10	-2.760773e+01	-4.924796e+01
9.100000e-07	-3.928616e-06	-7.144702e-10	-2.738399e+01	-4.906279e+01
9.200000e-07	-3.896092e-06	-7.048117e-10	-2.715728e+01	-4.887478e+01
9.300000e-07	-3.863097e-06	-7.057036e-10	-2.692729e+01	-4.868383e+01
9.400000e-07	-3.829741e-06	-7.150453e-10	-2.669479e+01	-4.848982e+01
9.500000e-07	-3.795973e-06	-7.050588e-10	-2.645941e+01	-4.829264e+01
9.600000e-07	-3.761678e-06	-6.989916e-10	-2.622036e+01	-4.809222e+01
9.700000e-07	-3.726908e-06	-6.970643e-10	-2.597800e+01	-4.788845e+01
9.800000e-07	-3.691819e-06	-6.904534e-10	-2.573342e+01	-4.768128e+01
9.900000e-07	-3.656580e-06	-6.814657e-10	-2.548779e+01	-4.747064e+01
1.000000e-06	-3.621192e-06	-6.876379e-10	-2.524112e+01	-4.725649e+01
1.010000e-06	-3.585643e-06	-6.882791e-10	-2.499333e+01	-4.703879e+01
1.020000e-06	-3.549916e-06	-6.819766e-10	-2.474430e+01	-4.681754e+01
1.030000e-06	-3.514016e-06	-6.771025e-10	-2.449406e+01	-4.659272e+01
1.040000e-06	-3.477951e-06	-6.755074e-10	-2.424268e+01	-4.636437e+01
1.050000e-06	-3.441596e-06	-6.670903e-10	-2.398927e+01	-4.613250e+01
1.060000e-06	-3.404954e-06	-6.621804e-10	-2.373385e+01	-4.589716e+01
1.070000e-06	-3.368033e-06	-6.648634e-10	-2.347651e+01	-4.565841e+01
1.080000e-06	-3.330879e-06	-6.630651e-10	-2.321752e+01	-4.541632e+01
1.090000e-06	-3.293489e-06	-6.574050e-10	-2.295690e+01	-4.517097e+01
1.100000e-06	-3.255907e-06	-6.563617e-10	-2.269494e+01	-4.492247e+01
1.110000e-06	-3.218174e-06	-6.524545e-10	-2.243193e+01	-4.467090e+01
1.120000e-06	-3.180157e-06	-6.426373e-10	-2.216693e+01	-4.441640e+01
1.130000e-06	-3.141793e-06	-6.385035e-10	-2.189952e+01	-4.415906e+01
1.140000e-06	-3.103174e-06	-6.388710e-10	-2.163033e+01	-4.389903e+01
1.150000e-06	-3.064470e-06	-6.352889e-10	-2.136055e+01	-4.363641e+01
1.160000e-06	-3.025657e-06	-6.271645e-10	-2.109001e+01	-4.337134e+01
1.170000e-06	-2.986594e-06	-6.244073e-10	-2.081772e+01	-4.310395e+01
1.180000e-06	-2.947291e-06	-6.191614e-10	-2.054377e+01	-4.283434e+01
1.190000e-06	-2.907869e-06	-6.152972e-10	-2.026898e+01	-4.256263e+01
1.200000e-06	-2.868351e-06	-6.124827e-10	-1.999353e+01	-4.228893e+01
1.210000e-06	-2.828703e-06	-6.120836e-10	-1.971716e+01	-4.201332e+01
1.220000e-06	-2.788913e-06	-6.067028e-10	-1.943981e+01	-4.173588e+01
1.230000e-06	-2.749008e-06	-6.026169e-10	-1.916166e+01	-4.145669e+01
1.240000e-06	-2.708958e-06	-5.966734e-10	-1.888249e+01	-4.117578e+01
1.250000e-06	-2.668630e-06	-5.890134e-10	-1.860139e+01	-4.089317e+01
1.260000e-06	-2.628038e-06	-5.797203e-10	-1.831845e+01	-4.060888e+01
1.270000e-06	-2.587218e-06	-5.760795e-10	-1.803392e+01	-4.032288e+01
1.280000e-06	-2.546080e-06	-5.738614e-10	-1.774717e+01	-4.003514e+01
1.290000e-06	-2.504606e-06	-5.697197e-10	-1.745808e+01	-3.974558e+01
1.300000e-06	-2.462916e-06	-5.652597e-10	-1.716749e+01	-3.945411e+01
1.310000e-06	-2.421020e-06	-5.618340e-10	-1.687545e+01	-3.916060e+01
1.320000e-06	-2.378795e-06	-5.547794e-10	-1.658113e+01	-3.886492e+01
1.330000e-06	-2.336228e-06	-5.487080e-10	-1.628442e+01	-3.856687e+01
1.340000e-06	-2.293320e-06	-5.452747e-10	-1.598533e+01	-3.826625e+01
1.350000e-06	-2.250211e-06	-5.419891e-10	-1.568485e+01	-3.796284e+01
1.360000e-06	-2.206987e-06	-5.360264e-10	-1.538356e+01	-3.765636e+01
1.370000e-06	-2.163624e-06	-5.300503e-10	-1.508130e+01	-3.734653e+01
1.380000e-06	-2.120168e-06	-5.265580e-10	-1.477840e+01	-3.703305e+01
1.390000e-06	-2.076633e-06	-5.246879e-10	-1.447494e+01	-3.671558e+01
1.400000e-06	-2.033019e-06	-5.229862e-10	-1.417093e+01	-3.639375e+01
1.410000e-06	-1.989362e-06	-5.202664e-10	-1.386663e+01	-3.606719e+01
1.420000e-06	-1.945616e-06	-5.148726e-10	-1.356170e+01	-3.573551e+01
1.430000e-06	-1.901744e-06	-5.065053e-10	-1.325590e+01	-3.539829e+01
1.440000e-06	-1.857819e-06	-4.983147e-10	-1.294972e+01	-3.505511e+01
1.450000e-06	-1.813774e-06	-4.910156e-10	-1.264271e+01	-3.470554e+01
1.460000e-06	-1.769553e-06	-4.844795e-10	-1.233447e+01	-3.434913e+01
1.470000e-06	-1.725171e-06	-4.794424e-10	-1.202512e+01	-3.398542e+01
1.480000e-06	-1.680663e-06	-4.778292e-10	-1.171488e+01	-3.361398e+01
1.490000e-06	-1.636121e-06	-4.736650e-10	-1.140440e+01	-3.323435e+01
1.500000e-06	-1.591478e-06	-4.671765e-10	-1.109322e+01	-3.284609e+01
1.510000e-06	-1.546629e-06	-4.606552e-10	-1.078061e+01	-3.244875e+01
1.520000e-06	-1.501598e-06	-4.558465e-10	-1.046673e+01	-3.204190e+01
1.530000e-06	-1.456466e-06	-4.490918e-10	-1.015213e+01	-3.162513e+01
1.540000e-06	-1.411298e-06	-4.400561e-10	-9.837300e+00	-3.119803e+01
1.550000e-06	-1.366084e-06	-4.313667e-10	-9.522137e+00	-3.076022e+01
1.560000e-06	-1.320779e-06	-4.258323e-10	-9.206341e+00	-3.031133e+01
1.570000e-06	-1.275354e-06	-4.199041e-10	-8.889712e+00	-2.985103e+01
1.580000e-06	-1.229847e-06	-4.155103e-10	-8.572512e+00	-2.937900e+01
1.590000e-06	-1.184219e-06	-4.098908e-10	-8.254470e+00	-2.889494e+01
1.600000e-06	-1.138449e-06	-4.022663e-10	-7.935430e+00	-2.839860e+01
1.610000e-06	-1.092600e-06	-3.925332e-10	-7.615848e+00	-2.788975e+01
1.620000e-06	-1.046699e-06	-3.832695e-10	-7.295898e+00	-2.736819e+01
1.630000e-06	-1.000764e-06	-3.749035e-10	-6.975718e+00	-2.683375e+01
1.640000e-06	-9.547873e-07	-3.681424e-10	-6.655239e+00	-2.628631e+01
1.650000e-06	-9.087374e-07	-3.623359e-10	-6.334254e+00	-2.572576e+01
1.660000e-06	-8.626385e-07	-3.547932e-10	-6.012927e+00	-2.515203e+01
1.670000e-06	-8.164820e-07	-3.440683e-10	-5.691198e+00	-2.456511e+01
1.680000e-06	-7.703284e-07	-3.321124e-10	-5.369489e+00	-2.396499e+01
1.690000e-06	-7.241518e-07	-3.230852e-10	-5.047620e+00	-2.335171e+01
1.700000e-06	-6.779139e-07	-3.158643e-10	-4.725324e+00	-2.272534e+01
1.710000e-06	-6.316227e-07	-3.077504e-10	-4.402656e+00	-2.208598e+01
1.720000e-06	-5.851987e-07	-2.991087e-10	-4.079063e+00	-2.143376e+01
1.730000e-06	-5.386901e-07	-2.886538e-10	-3.754880e+00	-2.076884e+01
1.740000e-06	-4.922247e-07	-2.737462e-10	-3.430998e+00	-2.009142e+01
1.750000e-06	-4.457512e-07	-2.591096e-10	-3.107060e+00	-1.940170e+01
1.760000e-06	-3.992105e-07	-2.484809e-10	-2.782653e+00	-1.869992e+01
1.770000e-06	-3.526240e-07	-2.417303e-10	-2.457927e+00	-1.798634e+01
1.780000e-06	-3.059230e-07	-2.356875e-10	-2.132403e+00	-1.726123e+01
1.790000e-06	-2.591766e-07	-2.283877e-10	-1.806562e+00	-1.652491e+01
1.800000e-06	-2.124599e-07	-2.169552e-10	-1.480929e+00	-1.577767e+01
1.810000e-06	-1.658036e-07	-2.029020e-10	-1.155716e+00	-1.501984e+01
1.820000e-06	-1.192278e-07	-1.885529e-10	-8.310640e-01	-1.425177e+01
1.830000e-06	-7.266476e-08	-1.782368e-10	-5.065017e-01	-1.347379e+01
1.840000e-06	-2.606544e-08	-1.709401e-10	-1.816863e-01	-1.268626e+01
1.850000e-06	2.058303e-08	-1.627871e-10	1.434718e-01	-1.188954e+01
1.860000e-06	6.726798e-08	-1.537535e-10	4.688841e-01	-1.108400e+01
1.870000e-06	1.139828e-07	-1.438246e-10	7.945043e-01	-1.027000e+01
1.880000e-06	1.606797e-07	-1.307884e-10	1.120000e+00	-9.447899e+00
1.890000e-06	2.073477e-07	-1.148130e-10	1.445294e+00	-8.618073e+00
1.900000e-06	2.539598e-07	-9.902061e-11	1.770199e+00	-7.780882e+00
1.910000e-06	3.006151e-07	-8.709033e-11	2.095405e+00	-6.936689e+00
1.920000e-06	3.473384e-07	-7.648828e-11	2.421084e+00	-6.085852e+00
1.930000e-06	3.939464e-07	-6.752137e-11	2.745960e+00	-5.228724e+00
1.940000e-06	4.405063e-07	-5.663318e-11	3.070501e+00	-4.365656e+00
1.950000e-06	4.870778e-07	-4.309382e-11	3.395122e+00	-3.496993e+00
1.960000e-06	5.335078e-07	-3.098378e-11	3.718757e+00	-2.623077e+00
1.970000e-06	5.798061e-07	-2.021732e-11	4.041474e+00	-1.744245e+00
1.980000e-06	6.260434e-07	-9.427382e-12	4.363767e+00	-8.608308e-01
1.990000e-06	6.722464e-07	2.894199e-12	4.685819e+00	2.683612e-02
2.000000e-06	7.184199e-07	1.634112e-11	5.007667e+00	9.184272e-01
2.010000e-06	7.645071e-07	3.240561e-11	5.328912e+00	1.813616e+00
2.020000e-06	8.106368e-07	4.954120e-11	5.650455e+00	2.712076e+00
2.030000e-06	8.567487e-07	6.553068e-11	5.971872e+00	3.613481e+00
2.040000e-06	9.027456e-07	7.813669e-11	6.292489e+00	4.517503e+00
2.050000e-06	9.487355e-07	8.778625e-11	6.613056e+00	5.423810e+00
2.060000e-06	9.946734e-07	9.661420e-11	6.933261e+00	6.332066e+00
2.070000e-06	1.040530e-06	1.068436e-10	7.252901e+00	7.241930e+00
2.080000e-06	1.086399e-06	1.215584e-10	7.572626e+00	8.153054e+00
2.090000e-06	1.132168e-06	1.402057e-10	7.891655e+00	9.065083e+00
2.100000e-06	1.177735e-06	1.592917e-10	8.209272e+00	9.977650e+00
2.110000e-06	1.223258e-06	1.757070e-10	8.526584e+00	1.089038e+01
2.120000e-06	1.268739e-06	1.859970e-10	8.843607e+00	1.180289e+01
2.130000e-06	1.314150e-06	1.940820e-10	9.160140e+00	1.271478e+01
2.140000e-06	1.359499e-06	2.034439e-10	9.476236e+00	1.362564e+01
2.150000e-06	1.404695e-06	2.172554e-10	9.791274e+00	1.453504e+01
2.160000e-06	1.449786e-06	2.340781e-10	1.010558e+01	1.544254e+01
2.170000e-06	1.494761e-06	2.507956e-10	1.041907e+01	1.634771e+01
2.180000e-06	1.539603e-06	2.689504e-10	1.073164e+01	1.725006e+01
2.190000e-06	1.584318e-06	2.857908e-10	1.104332e+01	1.814913e+01
2.200000e-06	1.628883e-06	2.975099e-10	1.135395e+01	1.904443e+01
2.210000e-06	1.673275e-06	3.058066e-10	1.166338e+01	1.993544e+01
2.220000e-06	1.717519e-06	3.132670e-10	1.197178e+01	2.082167e+01
2.230000e-06	1.761686e-06	3.240692e-10	1.227963e+01	2.170258e+01
2.240000e-06	1.805764e-06	3.382181e-10	1.258688e+01	2.257765e+01
2.250000e-06	1.849707e-06	3.526265e-10	1.289318e+01	2.344633e+01
2.260000e-06	1.893537e-06	3.659807e-10	1.319869e+01	2.430810e+01
2.270000e-06	1.937286e-06	3.816167e-10	1.350364e+01	2.516239e+01
2.280000e-06	1.980959e-06	3.976306e-10	1.380806e+01	2.600868e+01
2.290000e-06	2.024576e-06	4.097224e-10	1.411208e+01	2.684640e+01
2.300000e-06	2.068145e-06	4.189400e-10	1.441578e+01	2.767503e+01
2.310000e-06	2.111692e-06	4.260318e-10	1.471931e+01	2.849403e+01
2.320000e-06	2.155153e-06	4.336889e-10	1.502225e+01	2.930287e+01
2.330000e-06	2.198476e-06	4.442816e-10	1.532423e+01	3.010105e+01
2.340000e-06	2.241755e-06	4.575704e-10	1.562591e+01	3.088807e+01
2.350000e-06	2.284951e-06	4.712664e-10	1.592700e+01	3.166345e+01
2.360000e-06	2.327889e-06	4.863520e-10	1.622629e+01	3.242674e+01
2.370000e-06	2.370570e-06	5.001670e-10	1.652380e+01	3.317748e+01
2.380000e-06	2.413030e-06	5.083929e-10	1.681976e+01	3.391529e+01
2.390000e-06	2.455183e-06	5.112972e-10	1.711358e+01	3.463976e+01
2.400000e-06	2.496938e-06	5.152464e-10	1.740463e+01	3.535055e+01
2.410000e-06	2.538282e-06	5.212938e-10	1.769281e+01	3.604734e+01
2.420000e-06	2.579321e-06	5.282454e-10	1.797887e+01	3.672985e+01
2.430000e-06	2.620044e-06	5.416821e-10	1.826273e+01	3.739781e+01
2.440000e-06	2.660534e-06	5.584660e-10	1.854496e+01	3.805102e+01
2.450000e-06	2.700823e-06	5.700536e-10	1.882579e+01	3.868931e+01
2.460000e-06	2.740836e-06	5.786841e-10	1.910470e+01	3.931253e+01
2.470000e-06	2.780703e-06	5.870815e-10	1.938258e+01	3.992060e+01
2.480000e-06	2.820435e-06	5.942413e-10	1.965953e+01	4.051346e+01
2.490000e-06	2.860060e-06	6.008538e-10	1.993574e+01	4.109110e+01
2.500000e-06	2.899611e-06	6.080534e-10	2.021142e+01	4.165355e+01
2.510000e-06	2.938990e-06	6.159844e-10	2.048591e+01	4.220086e+01
2.520000e-06	2.978177e-06	6.250992e-10	2.075906e+01	4.273316e+01
2.530000e-06	3.017257e-06	6.353008e-10	2.103146e+01	4.325059e+01
2.540000e-06	3.056186e-06	6.444984e-10	2.130281e+01	4.375332e+01
2.550000e-06	3.094820e-06	6.496179e-10	2.157210e+01	4.424158e+01
2.560000e-06	3.133140e-06	6.532394e-10	2.183920e+01	4.471562e+01
2.570000e-06	3.171271e-06	6.590110e-10	2.210500e+01	4.517571e+01
2.580000e-06	3.209232e-06	6.659385e-10	2.236960e+01	4.562218e+01
2.590000e-06	3.246952e-06	6.727988e-10	2.263252e+01	4.605535e+01
2.600000e-06	3.284494e-06	6.805605e-10	2.289421e+01	4.647560e+01
2.610000e-06	3.321875e-06	6.869124e-10	2.315476e+01	4.688329e+01
2.620000e-06	3.358978e-06	6.903938e-10	2.341339e+01	4.727884e+01
2.630000e-06	3.395806e-06	6.942303e-10	2.367009e+01	4.766265e+01
2.640000e-06	3.432402e-06	6.988912e-10	2.392518e+01	4.803514e+01
2.650000e-06	3.468690e-06	7.055614e-10	2.417812e+01	4.839675e+01
2.660000e-06	3.504713e-06	7.134066e-10	2.442921e+01	4.874792e+01
2.670000e-06	3.540580e-06	7.182361e-10	2.467922e+01	4.908908e+01
2.680000e-06	3.576307e-06	7.211251e-10	2.492825e+01	4.942067e+01
2.690000e-06	3.611888e-06	7.252143e-10	2.517627e+01	4.974312e+01
2.700000e-06	3.647367e-06	7.290697e-10	2.542357e+01	5.005686e+01
2.710000e-06	3.682743e-06	7.321141e-10	2.567015e+01	5.036229e+01
2.720000e-06	3.717880e-06	7.360508e-10	2.591508e+01	5.065981e+01
2.730000e-06	3.752685e-06	7.414580e-10	2.615768e+01	5.094981e+01
2.740000e-06	3.787156e-06	7.476230e-10	2.639795e+01	5.123266e+01
2.750000e-06	3.821214e-06	7.523334e-10	2.663535e+01	5.150869e+01
2.760000e-06	3.854655e-06	7.561387e-10	2.686845e+01	5.177822e+01
2.770000e-06	3.887505e-06	7.618599e-10	2.709742e+01	5.204156e+01
2.780000e-06	3.920003e-06	7.682719e-10	2.732395e+01	5.229898e+01
2.790000e-06	3.952223e-06	7.758441e-10	2.754854e+01	5.255072e+01
2.800000e-06	3.984153e-06	7.807978e-10	2.777110e+01	5.279700e+01
2.810000e-06	4.015896e-06	7.813469e-10	2.799236e+01	5.303802e+01
2.820000e-06	4.047536e-06	7.813337e-10	2.821290e+01	5.327393e+01
2.830000e-06	4.078997e-06	7.861543e-10	2.843220e+01	5.350489e+01
2.840000e-06	4.110212e-06	7.944198e-10	2.864978e+01	5.373099e+01
2.850000e-06	4.141193e-06	8.039190e-10	2.886573e+01	5.395232e+01
2.860000e-06	4.171937e-06	8.132875e-10	2.908003e+01	5.416894e+01
2.870000e-06	4.202308e-06	8.161816e-10	2.929172e+01	5.438088e+01
2.880000e-06	4.232273e-06	8.128992e-10	2.950059e+01	5.458816e+01
2.890000e-06	4.261955e-06	8.089193e-10	2.970749e+01	5.479077e+01
2.900000e-06	4.291384e-06	8.080203e-10	2.991262e+01	5.498868e+01
