# Temperatura_=_-0.8
# Concentracion g/m^3_=_1620.0
# C_Vs_to_Am_M_A/Vsm_=_65563218390.804596
# pendiente_HvsI_1/m_=_3716.3
# ordenada_HvsI_A/m_=_1297.0
# frecuencia_Hz_=_135103.30721637965

Tiempo_(s)	Campo_(V.s)	Magnetizacion_(V.s)	Campo_(kA/m)	Magnetizacion_(A/m)
0.000000e+00	-5.515414e-06	-1.239343e-09	-3.837431e+01	-8.313299e+01
1.000000e-08	-5.515673e-06	-1.235884e-09	-3.837611e+01	-8.309895e+01
2.000000e-08	-5.515771e-06	-1.233620e-09	-3.837679e+01	-8.306519e+01
3.000000e-08	-5.515639e-06	-1.235485e-09	-3.837587e+01	-8.303160e+01
4.000000e-08	-5.515014e-06	-1.235978e-09	-3.837152e+01	-8.299808e+01
5.000000e-08	-5.513840e-06	-1.227583e-09	-3.836336e+01	-8.296449e+01
6.000000e-08	-5.512189e-06	-1.211153e-09	-3.835187e+01	-8.293069e+01
7.000000e-08	-5.509924e-06	-1.208705e-09	-3.833611e+01	-8.289653e+01
8.000000e-08	-5.506997e-06	-1.247388e-09	-3.831575e+01	-8.286184e+01
9.000000e-08	-5.503545e-06	-1.295770e-09	-3.829173e+01	-8.282646e+01
1.000000e-07	-5.499659e-06	-1.313928e-09	-3.826469e+01	-8.279019e+01
1.100000e-07	-5.495404e-06	-1.281220e-09	-3.823509e+01	-8.275285e+01
1.200000e-07	-5.490935e-06	-1.203262e-09	-3.820399e+01	-8.271425e+01
1.300000e-07	-5.486290e-06	-1.155999e-09	-3.817168e+01	-8.267418e+01
1.400000e-07	-5.481315e-06	-1.219662e-09	-3.813706e+01	-8.263245e+01
1.500000e-07	-5.475914e-06	-1.248221e-09	-3.809948e+01	-8.258884e+01
1.600000e-07	-5.470127e-06	-1.223805e-09	-3.805922e+01	-8.254315e+01
1.700000e-07	-5.463918e-06	-1.173483e-09	-3.801602e+01	-8.249518e+01
1.800000e-07	-5.457246e-06	-1.252146e-09	-3.796960e+01	-8.244472e+01
1.900000e-07	-5.450136e-06	-1.307652e-09	-3.792013e+01	-8.239156e+01
2.000000e-07	-5.442728e-06	-1.251594e-09	-3.786859e+01	-8.233553e+01
2.100000e-07	-5.435121e-06	-1.181426e-09	-3.781566e+01	-8.227641e+01
2.200000e-07	-5.427296e-06	-1.223492e-09	-3.776122e+01	-8.221402e+01
2.300000e-07	-5.419237e-06	-1.292253e-09	-3.770514e+01	-8.214819e+01
2.400000e-07	-5.410859e-06	-1.275041e-09	-3.764685e+01	-8.207873e+01
2.500000e-07	-5.401902e-06	-1.239498e-09	-3.758453e+01	-8.200550e+01
2.600000e-07	-5.392205e-06	-1.234529e-09	-3.751706e+01	-8.192832e+01
2.700000e-07	-5.381785e-06	-1.254734e-09	-3.744456e+01	-8.184706e+01
2.800000e-07	-5.370795e-06	-1.224279e-09	-3.736810e+01	-8.176158e+01
2.900000e-07	-5.359411e-06	-1.220558e-09	-3.728889e+01	-8.167176e+01
3.000000e-07	-5.347685e-06	-1.225876e-09	-3.720731e+01	-8.157747e+01
3.100000e-07	-5.335621e-06	-1.237036e-09	-3.712337e+01	-8.147862e+01
3.200000e-07	-5.323090e-06	-1.209786e-09	-3.703619e+01	-8.137512e+01
3.300000e-07	-5.310033e-06	-1.213314e-09	-3.694534e+01	-8.126687e+01
3.400000e-07	-5.296662e-06	-1.205694e-09	-3.685231e+01	-8.115382e+01
3.500000e-07	-5.282994e-06	-1.220077e-09	-3.675721e+01	-8.103590e+01
3.600000e-07	-5.268880e-06	-1.217080e-09	-3.665901e+01	-8.091306e+01
3.700000e-07	-5.254336e-06	-1.212698e-09	-3.655782e+01	-8.078527e+01
3.800000e-07	-5.239240e-06	-1.199968e-09	-3.645279e+01	-8.065251e+01
3.900000e-07	-5.223560e-06	-1.218268e-09	-3.634369e+01	-8.051474e+01
4.000000e-07	-5.207354e-06	-1.203759e-09	-3.623094e+01	-8.037198e+01
4.100000e-07	-5.190730e-06	-1.180843e-09	-3.611527e+01	-8.022422e+01
4.200000e-07	-5.173777e-06	-1.196234e-09	-3.599732e+01	-8.007146e+01
4.300000e-07	-5.156559e-06	-1.211758e-09	-3.587752e+01	-7.991375e+01
4.400000e-07	-5.139053e-06	-1.183449e-09	-3.575572e+01	-7.975110e+01
4.500000e-07	-5.121231e-06	-1.196014e-09	-3.563172e+01	-7.958355e+01
4.600000e-07	-5.103024e-06	-1.231910e-09	-3.550505e+01	-7.941115e+01
4.700000e-07	-5.084283e-06	-1.186703e-09	-3.537465e+01	-7.923395e+01
4.800000e-07	-5.065121e-06	-1.155247e-09	-3.524133e+01	-7.905201e+01
4.900000e-07	-5.045691e-06	-1.204074e-09	-3.510614e+01	-7.886539e+01
5.000000e-07	-5.026084e-06	-1.204909e-09	-3.496972e+01	-7.867417e+01
5.100000e-07	-5.006328e-06	-1.143555e-09	-3.483227e+01	-7.847841e+01
5.200000e-07	-4.986322e-06	-1.174234e-09	-3.469308e+01	-7.827821e+01
5.300000e-07	-4.965938e-06	-1.203243e-09	-3.455125e+01	-7.807365e+01
5.400000e-07	-4.945206e-06	-1.159967e-09	-3.440700e+01	-7.786481e+01
5.500000e-07	-4.924177e-06	-1.161622e-09	-3.426069e+01	-7.765179e+01
5.600000e-07	-4.902799e-06	-1.203335e-09	-3.411195e+01	-7.743468e+01
5.700000e-07	-4.881044e-06	-1.151118e-09	-3.396059e+01	-7.721359e+01
5.800000e-07	-4.858874e-06	-1.130418e-09	-3.380633e+01	-7.698862e+01
5.900000e-07	-4.836295e-06	-1.184093e-09	-3.364924e+01	-7.675986e+01
6.000000e-07	-4.813349e-06	-1.176256e-09	-3.348959e+01	-7.652743e+01
6.100000e-07	-4.790057e-06	-1.123829e-09	-3.332753e+01	-7.629142e+01
6.200000e-07	-4.766597e-06	-1.156251e-09	-3.316430e+01	-7.605195e+01
6.300000e-07	-4.742992e-06	-1.163769e-09	-3.300007e+01	-7.580913e+01
6.400000e-07	-4.719144e-06	-1.119575e-09	-3.283414e+01	-7.556306e+01
6.500000e-07	-4.694933e-06	-1.125835e-09	-3.266569e+01	-7.531385e+01
6.600000e-07	-4.670328e-06	-1.153766e-09	-3.249450e+01	-7.506161e+01
6.700000e-07	-4.645278e-06	-1.122939e-09	-3.232021e+01	-7.480644e+01
6.800000e-07	-4.619751e-06	-1.118908e-09	-3.214260e+01	-7.454845e+01
6.900000e-07	-4.593695e-06	-1.141985e-09	-3.196131e+01	-7.428774e+01
7.000000e-07	-4.566996e-06	-1.122999e-09	-3.177555e+01	-7.402441e+01
7.100000e-07	-4.539828e-06	-1.099958e-09	-3.158653e+01	-7.375856e+01
7.200000e-07	-4.512361e-06	-1.116339e-09	-3.139542e+01	-7.349028e+01
7.300000e-07	-4.484727e-06	-1.111930e-09	-3.120315e+01	-7.321966e+01
7.400000e-07	-4.456975e-06	-1.091195e-09	-3.101006e+01	-7.294679e+01
7.500000e-07	-4.429037e-06	-1.098869e-09	-3.081568e+01	-7.267176e+01
7.600000e-07	-4.400856e-06	-1.102049e-09	-3.061961e+01	-7.239462e+01
7.700000e-07	-4.372362e-06	-1.083846e-09	-3.042135e+01	-7.211546e+01
7.800000e-07	-4.343571e-06	-1.077520e-09	-3.022104e+01	-7.183434e+01
7.900000e-07	-4.314489e-06	-1.082057e-09	-3.001869e+01	-7.155131e+01
8.000000e-07	-4.285047e-06	-1.069156e-09	-2.981385e+01	-7.126643e+01
8.100000e-07	-4.255258e-06	-1.060400e-09	-2.960659e+01	-7.097972e+01
8.200000e-07	-4.225185e-06	-1.057421e-09	-2.939735e+01	-7.069124e+01
8.300000e-07	-4.194856e-06	-1.047507e-09	-2.918633e+01	-7.040098e+01
8.400000e-07	-4.164211e-06	-1.036073e-09	-2.897311e+01	-7.010898e+01
8.500000e-07	-4.133336e-06	-1.040642e-09	-2.875830e+01	-6.981523e+01
8.600000e-07	-4.102283e-06	-1.035735e-09	-2.854224e+01	-6.951973e+01
8.700000e-07	-4.070978e-06	-1.027187e-09	-2.832443e+01	-6.922246e+01
8.800000e-07	-4.039452e-06	-1.025132e-09	-2.810508e+01	-6.892340e+01
8.900000e-07	-4.007710e-06	-1.025268e-09	-2.788424e+01	-6.862249e+01
9.000000e-07	-3.975781e-06	-1.013661e-09	-2.766209e+01	-6.831969e+01
9.100000e-07	-3.943711e-06	-1.009461e-09	-2.743895e+01	-6.801495e+01
9.200000e-07	-3.911301e-06	-1.006439e-09	-2.721345e+01	-6.770818e+01
9.300000e-07	-3.878356e-06	-9.980480e-10	-2.698423e+01	-6.739930e+01
9.400000e-07	-3.844983e-06	-9.918253e-10	-2.675204e+01	-6.708823e+01
9.500000e-07	-3.811298e-06	-9.949027e-10	-2.651767e+01	-6.677484e+01
9.600000e-07	-3.777136e-06	-9.867987e-10	-2.627998e+01	-6.645904e+01
9.700000e-07	-3.742390e-06	-9.743243e-10	-2.603823e+01	-6.614068e+01
9.800000e-07	-3.707308e-06	-9.699073e-10	-2.579414e+01	-6.581964e+01
9.900000e-07	-3.671974e-06	-9.658927e-10	-2.554831e+01	-6.549577e+01
1.000000e-06	-3.636377e-06	-9.558233e-10	-2.530063e+01	-6.516892e+01
1.010000e-06	-3.600672e-06	-9.528300e-10	-2.505221e+01	-6.483893e+01
1.020000e-06	-3.564904e-06	-9.532795e-10	-2.480335e+01	-6.450563e+01
1.030000e-06	-3.529013e-06	-9.464793e-10	-2.455363e+01	-6.416885e+01
1.040000e-06	-3.492921e-06	-9.407124e-10	-2.430252e+01	-6.382842e+01
1.050000e-06	-3.456557e-06	-9.389001e-10	-2.404951e+01	-6.348415e+01
1.060000e-06	-3.419854e-06	-9.329755e-10	-2.379414e+01	-6.313586e+01
1.070000e-06	-3.382796e-06	-9.247535e-10	-2.353631e+01	-6.278337e+01
1.080000e-06	-3.345501e-06	-9.215682e-10	-2.327682e+01	-6.242648e+01
1.090000e-06	-3.308068e-06	-9.149258e-10	-2.301637e+01	-6.206502e+01
1.100000e-06	-3.270472e-06	-9.050905e-10	-2.275479e+01	-6.169880e+01
1.110000e-06	-3.232634e-06	-8.975822e-10	-2.249153e+01	-6.132764e+01
1.120000e-06	-3.194509e-06	-8.916940e-10	-2.222627e+01	-6.095136e+01
1.130000e-06	-3.156179e-06	-8.811049e-10	-2.195958e+01	-6.056979e+01
1.140000e-06	-3.117613e-06	-8.746263e-10	-2.169125e+01	-6.018277e+01
1.150000e-06	-3.078780e-06	-8.696620e-10	-2.142107e+01	-5.979012e+01
1.160000e-06	-3.039811e-06	-8.630743e-10	-2.114994e+01	-5.939170e+01
1.170000e-06	-3.000667e-06	-8.558371e-10	-2.087759e+01	-5.898735e+01
1.180000e-06	-2.961360e-06	-8.524159e-10	-2.060410e+01	-5.857696e+01
1.190000e-06	-2.921950e-06	-8.464017e-10	-2.032990e+01	-5.816037e+01
1.200000e-06	-2.882360e-06	-8.388247e-10	-2.005445e+01	-5.773748e+01
1.210000e-06	-2.842623e-06	-8.314711e-10	-1.977797e+01	-5.730818e+01
1.220000e-06	-2.802776e-06	-8.250714e-10	-1.950073e+01	-5.687236e+01
1.230000e-06	-2.762761e-06	-8.150592e-10	-1.922232e+01	-5.642993e+01
1.240000e-06	-2.722588e-06	-8.069555e-10	-1.894281e+01	-5.598082e+01
1.250000e-06	-2.682313e-06	-8.008407e-10	-1.866259e+01	-5.552495e+01
1.260000e-06	-2.641825e-06	-7.941969e-10	-1.838089e+01	-5.506225e+01
1.270000e-06	-2.600999e-06	-7.860432e-10	-1.809684e+01	-5.459268e+01
1.280000e-06	-2.559921e-06	-7.788565e-10	-1.781103e+01	-5.411618e+01
1.290000e-06	-2.518597e-06	-7.717304e-10	-1.752351e+01	-5.363271e+01
1.300000e-06	-2.476921e-06	-7.614392e-10	-1.723354e+01	-5.314224e+01
1.310000e-06	-2.434867e-06	-7.505542e-10	-1.694095e+01	-5.264472e+01
1.320000e-06	-2.392460e-06	-7.403627e-10	-1.664590e+01	-5.214013e+01
1.330000e-06	-2.349849e-06	-7.305085e-10	-1.634942e+01	-5.162844e+01
1.340000e-06	-2.307065e-06	-7.222356e-10	-1.605175e+01	-5.110962e+01
1.350000e-06	-2.263992e-06	-7.151256e-10	-1.575206e+01	-5.058364e+01
1.360000e-06	-2.220610e-06	-7.086297e-10	-1.545022e+01	-5.005046e+01
1.370000e-06	-2.177078e-06	-7.026638e-10	-1.514734e+01	-4.951004e+01
1.380000e-06	-2.133495e-06	-6.968730e-10	-1.484411e+01	-4.896234e+01
1.390000e-06	-2.089827e-06	-6.890774e-10	-1.454028e+01	-4.840729e+01
1.400000e-06	-2.046041e-06	-6.776191e-10	-1.423564e+01	-4.784483e+01
1.410000e-06	-2.002143e-06	-6.674470e-10	-1.393021e+01	-4.727489e+01
1.420000e-06	-1.958237e-06	-6.580265e-10	-1.362473e+01	-4.669737e+01
1.430000e-06	-1.914307e-06	-6.501631e-10	-1.331907e+01	-4.611215e+01
1.440000e-06	-1.870276e-06	-6.430953e-10	-1.301272e+01	-4.551913e+01
1.450000e-06	-1.826151e-06	-6.353841e-10	-1.270572e+01	-4.491815e+01
1.460000e-06	-1.781928e-06	-6.258234e-10	-1.239803e+01	-4.430906e+01
1.470000e-06	-1.737536e-06	-6.163260e-10	-1.208917e+01	-4.369167e+01
1.480000e-06	-1.692983e-06	-6.068166e-10	-1.177918e+01	-4.306579e+01
1.490000e-06	-1.648329e-06	-5.975867e-10	-1.146849e+01	-4.243118e+01
1.500000e-06	-1.603547e-06	-5.875059e-10	-1.115691e+01	-4.178760e+01
1.510000e-06	-1.558682e-06	-5.774055e-10	-1.084476e+01	-4.113479e+01
1.520000e-06	-1.513732e-06	-5.671563e-10	-1.053202e+01	-4.047245e+01
1.530000e-06	-1.468629e-06	-5.559569e-10	-1.021820e+01	-3.980028e+01
1.540000e-06	-1.423392e-06	-5.423075e-10	-9.903462e+00	-3.911794e+01
1.550000e-06	-1.378068e-06	-5.292740e-10	-9.588111e+00	-3.842507e+01
1.560000e-06	-1.332685e-06	-5.173644e-10	-9.272351e+00	-3.772131e+01
1.570000e-06	-1.287263e-06	-5.063621e-10	-8.956319e+00	-3.700627e+01
1.580000e-06	-1.241689e-06	-4.959878e-10	-8.639232e+00	-3.627953e+01
1.590000e-06	-1.195932e-06	-4.880479e-10	-8.320875e+00	-3.554068e+01
1.600000e-06	-1.150088e-06	-4.793337e-10	-8.001909e+00	-3.478929e+01
1.610000e-06	-1.104218e-06	-4.676234e-10	-7.682757e+00	-3.402492e+01
1.620000e-06	-1.058279e-06	-4.554519e-10	-7.363131e+00	-3.324711e+01
1.630000e-06	-1.012214e-06	-4.450481e-10	-7.042630e+00	-3.245541e+01
1.640000e-06	-9.661176e-07	-4.367227e-10	-6.721906e+00	-3.164938e+01
1.650000e-06	-9.199604e-07	-4.267411e-10	-6.400761e+00	-3.082855e+01
1.660000e-06	-8.737534e-07	-4.148325e-10	-6.079269e+00	-2.999249e+01
1.670000e-06	-8.275966e-07	-4.009240e-10	-5.758126e+00	-2.914076e+01
1.680000e-06	-7.813710e-07	-3.857576e-10	-5.436505e+00	-2.827293e+01
1.690000e-06	-7.350128e-07	-3.724416e-10	-5.113960e+00	-2.738860e+01
1.700000e-06	-6.886488e-07	-3.602802e-10	-4.791376e+00	-2.648739e+01
1.710000e-06	-6.422763e-07	-3.462034e-10	-4.468732e+00	-2.556893e+01
1.720000e-06	-5.958664e-07	-3.311084e-10	-4.145828e+00	-2.463289e+01
1.730000e-06	-5.493996e-07	-3.148981e-10	-3.822529e+00	-2.367898e+01
1.740000e-06	-5.028567e-07	-2.970479e-10	-3.498700e+00	-2.270693e+01
1.750000e-06	-4.562086e-07	-2.796345e-10	-3.174139e+00	-2.171652e+01
1.760000e-06	-4.094838e-07	-2.644219e-10	-2.849044e+00	-2.070757e+01
1.770000e-06	-3.627796e-07	-2.507897e-10	-2.524093e+00	-1.967994e+01
1.780000e-06	-3.160344e-07	-2.396792e-10	-2.198856e+00	-1.863355e+01
1.790000e-06	-2.692203e-07	-2.279499e-10	-1.873140e+00	-1.756837e+01
1.800000e-06	-2.224488e-07	-2.124139e-10	-1.547721e+00	-1.648443e+01
1.810000e-06	-1.757544e-07	-1.922685e-10	-1.222837e+00	-1.538180e+01
1.820000e-06	-1.289968e-07	-1.727972e-10	-8.975141e-01	-1.426063e+01
1.830000e-06	-8.221587e-08	-1.573647e-10	-5.720291e-01	-1.312112e+01
1.840000e-06	-3.548575e-08	-1.448787e-10	-2.468974e-01	-1.196354e+01
1.850000e-06	1.130432e-08	-1.329523e-10	7.865146e-02	-1.078821e+01
1.860000e-06	5.811019e-08	-1.203277e-10	4.043103e-01	-9.595532e+00
1.870000e-06	1.049378e-07	-1.045470e-10	7.301200e-01	-8.385964e+00
1.880000e-06	1.517062e-07	-8.510251e-11	1.055518e+00	-7.160028e+00
1.890000e-06	1.984240e-07	-6.494609e-11	1.380564e+00	-5.918313e+00
1.900000e-06	2.452014e-07	-4.547467e-11	1.706025e+00	-4.661467e+00
1.910000e-06	2.918655e-07	-2.664003e-11	2.030698e+00	-3.390203e+00
1.920000e-06	3.384678e-07	-9.019575e-12	2.354940e+00	-2.105292e+00
1.930000e-06	3.850865e-07	6.007439e-12	2.679296e+00	-8.075635e-01
1.940000e-06	4.316348e-07	2.033198e-11	3.003163e+00	5.020989e-01
1.950000e-06	4.781192e-07	3.799442e-11	3.326585e+00	1.822759e+00
1.960000e-06	5.246454e-07	5.846980e-11	3.650298e+00	3.153432e+00
1.970000e-06	5.711607e-07	7.854759e-11	3.973935e+00	4.493089e+00
1.980000e-06	6.175955e-07	9.676062e-11	4.297012e+00	5.840658e+00
1.990000e-06	6.639943e-07	1.151815e-10	4.619839e+00	7.195031e+00
2.000000e-06	7.102524e-07	1.340701e-10	4.941686e+00	8.555068e+00
2.010000e-06	7.564494e-07	1.513929e-10	5.263109e+00	9.919600e+00
2.020000e-06	8.027486e-07	1.715055e-10	5.585242e+00	1.128744e+01
2.030000e-06	8.490129e-07	1.938229e-10	5.907133e+00	1.265737e+01
2.040000e-06	8.951326e-07	2.145261e-10	6.228017e+00	1.402817e+01
2.050000e-06	9.411729e-07	2.337341e-10	6.548350e+00	1.539862e+01
2.060000e-06	9.871413e-07	2.528736e-10	6.868182e+00	1.676747e+01
2.070000e-06	1.033047e-06	2.707417e-10	7.187578e+00	1.813351e+01
2.080000e-06	1.078864e-06	2.889983e-10	7.506356e+00	1.949550e+01
2.090000e-06	1.124573e-06	3.091955e-10	7.824382e+00	2.085224e+01
2.100000e-06	1.170242e-06	3.316798e-10	8.142130e+00	2.220255e+01
2.110000e-06	1.215850e-06	3.552931e-10	8.459454e+00	2.354524e+01
2.120000e-06	1.261347e-06	3.758563e-10	8.776009e+00	2.487919e+01
2.130000e-06	1.306750e-06	3.924036e-10	9.091904e+00	2.620327e+01
2.140000e-06	1.352087e-06	4.083484e-10	9.407343e+00	2.751644e+01
2.150000e-06	1.397384e-06	4.258058e-10	9.722505e+00	2.881764e+01
2.160000e-06	1.442611e-06	4.450350e-10	1.003718e+01	3.010590e+01
2.170000e-06	1.487707e-06	4.654103e-10	1.035094e+01	3.138028e+01
2.180000e-06	1.532682e-06	4.868232e-10	1.066386e+01	3.263989e+01
2.190000e-06	1.577570e-06	5.079497e-10	1.097618e+01	3.388389e+01
2.200000e-06	1.622312e-06	5.248052e-10	1.128747e+01	3.511151e+01
2.210000e-06	1.666898e-06	5.397285e-10	1.159769e+01	3.632202e+01
2.220000e-06	1.711311e-06	5.539656e-10	1.190670e+01	3.751477e+01
2.230000e-06	1.755572e-06	5.686379e-10	1.221465e+01	3.868915e+01
2.240000e-06	1.799779e-06	5.853131e-10	1.252223e+01	3.984462e+01
2.250000e-06	1.843892e-06	6.014053e-10	1.282915e+01	4.098071e+01
2.260000e-06	1.887887e-06	6.157980e-10	1.313525e+01	4.209700e+01
2.270000e-06	1.931805e-06	6.295676e-10	1.344082e+01	4.319313e+01
2.280000e-06	1.975654e-06	6.460266e-10	1.374590e+01	4.426881e+01
2.290000e-06	2.019402e-06	6.625056e-10	1.405029e+01	4.532382e+01
2.300000e-06	2.063094e-06	6.780491e-10	1.435428e+01	4.635796e+01
2.310000e-06	2.106770e-06	6.944938e-10	1.465817e+01	4.737113e+01
2.320000e-06	2.150370e-06	7.104258e-10	1.496152e+01	4.836326e+01
2.330000e-06	2.193880e-06	7.243616e-10	1.526424e+01	4.933434e+01
2.340000e-06	2.237293e-06	7.348326e-10	1.556630e+01	5.028441e+01
2.350000e-06	2.280614e-06	7.453330e-10	1.586771e+01	5.121356e+01
2.360000e-06	2.323768e-06	7.580516e-10	1.616796e+01	5.212191e+01
2.370000e-06	2.366483e-06	7.752736e-10	1.646516e+01	5.300965e+01
2.380000e-06	2.408805e-06	7.920192e-10	1.675962e+01	5.387698e+01
2.390000e-06	2.450792e-06	8.052598e-10	1.705175e+01	5.472415e+01
2.400000e-06	2.492419e-06	8.151393e-10	1.734137e+01	5.555143e+01
2.410000e-06	2.533846e-06	8.221716e-10	1.762961e+01	5.635914e+01
2.420000e-06	2.575025e-06	8.301406e-10	1.791612e+01	5.714761e+01
2.430000e-06	2.615841e-06	8.412433e-10	1.820010e+01	5.791718e+01
2.440000e-06	2.656375e-06	8.557264e-10	1.848212e+01	5.866824e+01
2.450000e-06	2.696700e-06	8.705633e-10	1.876269e+01	5.940117e+01
2.460000e-06	2.736854e-06	8.818653e-10	1.904207e+01	6.011637e+01
2.470000e-06	2.776868e-06	8.923632e-10	1.932047e+01	6.081424e+01
2.480000e-06	2.816751e-06	9.027826e-10	1.959796e+01	6.149520e+01
2.490000e-06	2.856491e-06	9.117885e-10	1.987446e+01	6.215968e+01
2.500000e-06	2.896068e-06	9.197678e-10	2.014982e+01	6.280808e+01
2.510000e-06	2.935571e-06	9.264746e-10	2.042467e+01	6.344082e+01
2.520000e-06	2.974951e-06	9.379403e-10	2.069866e+01	6.405832e+01
2.530000e-06	3.014146e-06	9.538307e-10	2.097136e+01	6.466098e+01
2.540000e-06	3.053130e-06	9.671560e-10	2.124261e+01	6.524920e+01
2.550000e-06	3.091885e-06	9.775959e-10	2.151225e+01	6.582337e+01
2.560000e-06	3.130403e-06	9.867580e-10	2.178024e+01	6.638388e+01
2.570000e-06	3.168681e-06	9.930292e-10	2.204657e+01	6.693108e+01
2.580000e-06	3.206767e-06	9.977418e-10	2.231156e+01	6.746533e+01
2.590000e-06	3.244651e-06	1.000323e-09	2.257514e+01	6.798697e+01
2.600000e-06	3.282314e-06	1.005216e-09	2.283719e+01	6.849634e+01
2.610000e-06	3.319755e-06	1.011896e-09	2.309769e+01	6.899374e+01
2.620000e-06	3.356975e-06	1.019718e-09	2.335665e+01	6.947947e+01
2.630000e-06	3.393959e-06	1.027010e-09	2.361397e+01	6.995383e+01
2.640000e-06	3.430686e-06	1.035220e-09	2.386950e+01	7.041707e+01
2.650000e-06	3.467129e-06	1.044317e-09	2.412306e+01	7.086946e+01
2.660000e-06	3.503267e-06	1.049346e-09	2.437450e+01	7.131123e+01
2.670000e-06	3.539220e-06	1.050368e-09	2.462465e+01	7.174264e+01
2.680000e-06	3.575069e-06	1.051572e-09	2.487407e+01	7.216388e+01
2.690000e-06	3.610817e-06	1.057013e-09	2.512279e+01	7.257517e+01
2.700000e-06	3.646539e-06	1.065392e-09	2.537133e+01	7.297672e+01
2.710000e-06	3.682100e-06	1.072427e-09	2.561876e+01	7.336870e+01
2.720000e-06	3.717345e-06	1.078534e-09	2.586398e+01	7.375130e+01
2.730000e-06	3.752232e-06	1.083992e-09	2.610671e+01	7.412469e+01
2.740000e-06	3.786772e-06	1.086778e-09	2.634703e+01	7.448903e+01
2.750000e-06	3.820861e-06	1.088699e-09	2.658420e+01	7.484450e+01
2.760000e-06	3.854362e-06	1.090584e-09	2.681729e+01	7.519124e+01
2.770000e-06	3.887431e-06	1.097386e-09	2.704738e+01	7.552940e+01
2.780000e-06	3.920179e-06	1.106305e-09	2.727522e+01	7.585914e+01
2.790000e-06	3.952607e-06	1.112952e-09	2.750085e+01	7.618059e+01
2.800000e-06	3.984764e-06	1.117874e-09	2.772459e+01	7.649391e+01
2.810000e-06	4.016726e-06	1.121026e-09	2.794697e+01	7.679922e+01
2.820000e-06	4.048503e-06	1.123006e-09	2.816806e+01	7.709667e+01
2.830000e-06	4.080105e-06	1.125384e-09	2.838793e+01	7.738641e+01
2.840000e-06	4.111475e-06	1.132071e-09	2.860620e+01	7.766856e+01
2.850000e-06	4.142549e-06	1.142263e-09	2.882240e+01	7.794327e+01
2.860000e-06	4.173257e-06	1.151072e-09	2.903605e+01	7.821067e+01
2.870000e-06	4.203624e-06	1.155965e-09	2.924734e+01	7.847089e+01
2.880000e-06	4.233731e-06	1.155981e-09	2.945681e+01	7.872409e+01
2.890000e-06	4.263535e-06	1.155498e-09	2.966417e+01	7.897038e+01
2.900000e-06	4.293106e-06	1.157802e-09	2.986992e+01	7.920991e+01
