# Temperatura_=_7.06
# Concentracion g/m^3_=_1620.0
# C_Vs_to_Am_M_A/Vsm_=_65563218390.804596
# pendiente_HvsI_1/m_=_3716.3
# ordenada_HvsI_A/m_=_1297.0
# frecuencia_Hz_=_135092.70306558968

Tiempo_(s)	Campo_(V.s)	Magnetizacion_(V.s)	Campo_(kA/m)	Magnetizacion_(A/m)
0.000000e+00	-5.519226e-06	-1.258284e-09	-3.837654e+01	-8.341042e+01
1.000000e-08	-5.519565e-06	-1.253973e-09	-3.837889e+01	-8.335001e+01
2.000000e-08	-5.519710e-06	-1.256391e-09	-3.837991e+01	-8.328981e+01
3.000000e-08	-5.519541e-06	-1.262337e-09	-3.837873e+01	-8.322982e+01
4.000000e-08	-5.518834e-06	-1.264025e-09	-3.837381e+01	-8.317002e+01
5.000000e-08	-5.517492e-06	-1.255218e-09	-3.836448e+01	-8.311039e+01
6.000000e-08	-5.515579e-06	-1.239369e-09	-3.835118e+01	-8.305088e+01
7.000000e-08	-5.513105e-06	-1.243351e-09	-3.833398e+01	-8.299142e+01
8.000000e-08	-5.510066e-06	-1.278050e-09	-3.831285e+01	-8.293195e+01
9.000000e-08	-5.506490e-06	-1.317128e-09	-3.828799e+01	-8.287236e+01
1.000000e-07	-5.502536e-06	-1.344771e-09	-3.826049e+01	-8.281253e+01
1.100000e-07	-5.498183e-06	-1.304984e-09	-3.823022e+01	-8.275235e+01
1.200000e-07	-5.493617e-06	-1.220031e-09	-3.819848e+01	-8.269167e+01
1.300000e-07	-5.488926e-06	-1.160557e-09	-3.816585e+01	-8.263032e+01
1.400000e-07	-5.483876e-06	-1.261735e-09	-3.813074e+01	-8.256815e+01
1.500000e-07	-5.478406e-06	-1.301923e-09	-3.809271e+01	-8.250495e+01
1.600000e-07	-5.472520e-06	-1.267767e-09	-3.805178e+01	-8.244054e+01
1.700000e-07	-5.466241e-06	-1.204805e-09	-3.800812e+01	-8.237470e+01
1.800000e-07	-5.459572e-06	-1.300628e-09	-3.796175e+01	-8.230722e+01
1.900000e-07	-5.452461e-06	-1.328218e-09	-3.791230e+01	-8.223786e+01
2.000000e-07	-5.444993e-06	-1.237037e-09	-3.786038e+01	-8.216639e+01
2.100000e-07	-5.437359e-06	-1.185445e-09	-3.780730e+01	-8.209255e+01
2.200000e-07	-5.429476e-06	-1.287353e-09	-3.775249e+01	-8.201611e+01
2.300000e-07	-5.421186e-06	-1.363940e-09	-3.769484e+01	-8.193679e+01
2.400000e-07	-5.412466e-06	-1.309643e-09	-3.763421e+01	-8.185434e+01
2.500000e-07	-5.403174e-06	-1.258230e-09	-3.756960e+01	-8.176850e+01
2.600000e-07	-5.393161e-06	-1.246321e-09	-3.749997e+01	-8.167900e+01
2.700000e-07	-5.382471e-06	-1.269646e-09	-3.742565e+01	-8.158557e+01
2.800000e-07	-5.371314e-06	-1.244137e-09	-3.734807e+01	-8.148795e+01
2.900000e-07	-5.359826e-06	-1.264806e-09	-3.726819e+01	-8.138589e+01
3.000000e-07	-5.347908e-06	-1.255555e-09	-3.718532e+01	-8.127912e+01
3.100000e-07	-5.335619e-06	-1.267317e-09	-3.709987e+01	-8.116740e+01
3.200000e-07	-5.323007e-06	-1.244650e-09	-3.701218e+01	-8.105049e+01
3.300000e-07	-5.309973e-06	-1.254390e-09	-3.692155e+01	-8.092815e+01
3.400000e-07	-5.296512e-06	-1.218649e-09	-3.682795e+01	-8.080017e+01
3.500000e-07	-5.282684e-06	-1.250841e-09	-3.673180e+01	-8.066634e+01
3.600000e-07	-5.268450e-06	-1.249445e-09	-3.663283e+01	-8.052646e+01
3.700000e-07	-5.253703e-06	-1.245873e-09	-3.653029e+01	-8.038035e+01
3.800000e-07	-5.238454e-06	-1.228659e-09	-3.642426e+01	-8.022784e+01
3.900000e-07	-5.222737e-06	-1.260975e-09	-3.631498e+01	-8.006880e+01
4.000000e-07	-5.206421e-06	-1.215866e-09	-3.620153e+01	-7.990309e+01
4.100000e-07	-5.189686e-06	-1.196629e-09	-3.608516e+01	-7.973060e+01
4.200000e-07	-5.172802e-06	-1.241666e-09	-3.596777e+01	-7.955126e+01
4.300000e-07	-5.155561e-06	-1.236663e-09	-3.584789e+01	-7.936498e+01
4.400000e-07	-5.137978e-06	-1.178104e-09	-3.572563e+01	-7.917172e+01
4.500000e-07	-5.120066e-06	-1.223816e-09	-3.560108e+01	-7.897147e+01
4.600000e-07	-5.101632e-06	-1.269332e-09	-3.547290e+01	-7.876422e+01
4.700000e-07	-5.082794e-06	-1.175012e-09	-3.534192e+01	-7.855001e+01
4.800000e-07	-5.063662e-06	-1.167572e-09	-3.520889e+01	-7.832887e+01
4.900000e-07	-5.044258e-06	-1.256782e-09	-3.507397e+01	-7.810088e+01
5.000000e-07	-5.024663e-06	-1.219125e-09	-3.493772e+01	-7.786613e+01
5.100000e-07	-5.004869e-06	-1.135975e-09	-3.480008e+01	-7.762474e+01
5.200000e-07	-4.984782e-06	-1.216905e-09	-3.466042e+01	-7.737685e+01
5.300000e-07	-4.964288e-06	-1.227138e-09	-3.451792e+01	-7.712261e+01
5.400000e-07	-4.943392e-06	-1.150720e-09	-3.437262e+01	-7.686222e+01
5.500000e-07	-4.922175e-06	-1.180788e-09	-3.422510e+01	-7.659586e+01
5.600000e-07	-4.900653e-06	-1.235381e-09	-3.407545e+01	-7.632376e+01
5.700000e-07	-4.878781e-06	-1.142343e-09	-3.392337e+01	-7.604614e+01
5.800000e-07	-4.856504e-06	-1.144612e-09	-3.376847e+01	-7.576326e+01
5.900000e-07	-4.833841e-06	-1.217175e-09	-3.361089e+01	-7.547538e+01
6.000000e-07	-4.810836e-06	-1.174147e-09	-3.345093e+01	-7.518277e+01
6.100000e-07	-4.787557e-06	-1.114125e-09	-3.328906e+01	-7.488571e+01
6.200000e-07	-4.764070e-06	-1.177734e-09	-3.312576e+01	-7.458449e+01
6.300000e-07	-4.740378e-06	-1.165640e-09	-3.296102e+01	-7.427941e+01
6.400000e-07	-4.716509e-06	-1.113068e-09	-3.279505e+01	-7.397076e+01
6.500000e-07	-4.692241e-06	-1.143577e-09	-3.262631e+01	-7.365883e+01
6.600000e-07	-4.667412e-06	-1.166952e-09	-3.245367e+01	-7.334393e+01
6.700000e-07	-4.642027e-06	-1.114612e-09	-3.227716e+01	-7.302633e+01
6.800000e-07	-4.616088e-06	-1.126627e-09	-3.209680e+01	-7.270633e+01
6.900000e-07	-4.589644e-06	-1.150477e-09	-3.191293e+01	-7.238419e+01
7.000000e-07	-4.562714e-06	-1.113520e-09	-3.172568e+01	-7.206019e+01
7.100000e-07	-4.535424e-06	-1.097058e-09	-3.153592e+01	-7.173455e+01
7.200000e-07	-4.507954e-06	-1.123949e-09	-3.134492e+01	-7.140753e+01
7.300000e-07	-4.480364e-06	-1.111501e-09	-3.115307e+01	-7.107932e+01
7.400000e-07	-4.452611e-06	-1.090912e-09	-3.096010e+01	-7.075014e+01
7.500000e-07	-4.424593e-06	-1.102244e-09	-3.076529e+01	-7.042013e+01
7.600000e-07	-4.396304e-06	-1.094964e-09	-3.056858e+01	-7.008947e+01
7.700000e-07	-4.367667e-06	-1.075847e-09	-3.036947e+01	-6.975826e+01
7.800000e-07	-4.338709e-06	-1.076193e-09	-3.016812e+01	-6.942661e+01
7.900000e-07	-4.309453e-06	-1.080447e-09	-2.996469e+01	-6.909459e+01
8.000000e-07	-4.279848e-06	-1.063392e-09	-2.975884e+01	-6.876224e+01
8.100000e-07	-4.250079e-06	-1.060717e-09	-2.955185e+01	-6.842958e+01
8.200000e-07	-4.220011e-06	-1.056587e-09	-2.934277e+01	-6.809660e+01
8.300000e-07	-4.189616e-06	-1.043157e-09	-2.913143e+01	-6.776325e+01
8.400000e-07	-4.158922e-06	-1.031308e-09	-2.891801e+01	-6.742946e+01
8.500000e-07	-4.127909e-06	-1.035349e-09	-2.870237e+01	-6.709514e+01
8.600000e-07	-4.096635e-06	-1.019372e-09	-2.848491e+01	-6.676017e+01
8.700000e-07	-4.065185e-06	-1.008061e-09	-2.826623e+01	-6.642439e+01
8.800000e-07	-4.033663e-06	-1.006837e-09	-2.804705e+01	-6.608763e+01
8.900000e-07	-4.001960e-06	-1.005319e-09	-2.782662e+01	-6.574970e+01
9.000000e-07	-3.969937e-06	-9.856696e-10	-2.760395e+01	-6.541038e+01
9.100000e-07	-3.937663e-06	-9.792184e-10	-2.737954e+01	-6.506942e+01
9.200000e-07	-3.905175e-06	-9.724711e-10	-2.715364e+01	-6.472658e+01
9.300000e-07	-3.872164e-06	-9.623720e-10	-2.692411e+01	-6.438158e+01
9.400000e-07	-3.838684e-06	-9.565596e-10	-2.669132e+01	-6.403416e+01
9.500000e-07	-3.804776e-06	-9.619662e-10	-2.645555e+01	-6.368400e+01
9.600000e-07	-3.770337e-06	-9.503395e-10	-2.621609e+01	-6.333082e+01
9.700000e-07	-3.735538e-06	-9.373601e-10	-2.597411e+01	-6.297432e+01
9.800000e-07	-3.700439e-06	-9.345147e-10	-2.573006e+01	-6.261419e+01
9.900000e-07	-3.665085e-06	-9.282125e-10	-2.548424e+01	-6.225013e+01
1.000000e-06	-3.629545e-06	-9.139716e-10	-2.523712e+01	-6.188185e+01
1.010000e-06	-3.593901e-06	-9.123982e-10	-2.498928e+01	-6.150905e+01
1.020000e-06	-3.558132e-06	-9.132393e-10	-2.474057e+01	-6.113145e+01
1.030000e-06	-3.522214e-06	-9.027975e-10	-2.449082e+01	-6.074880e+01
1.040000e-06	-3.486066e-06	-8.936582e-10	-2.423948e+01	-6.036083e+01
1.050000e-06	-3.449574e-06	-8.875827e-10	-2.398574e+01	-5.996732e+01
1.060000e-06	-3.412760e-06	-8.770321e-10	-2.372976e+01	-5.956804e+01
1.070000e-06	-3.375707e-06	-8.667202e-10	-2.347212e+01	-5.916282e+01
1.080000e-06	-3.338350e-06	-8.670024e-10	-2.321237e+01	-5.875147e+01
1.090000e-06	-3.300768e-06	-8.602360e-10	-2.295106e+01	-5.833387e+01
1.100000e-06	-3.263141e-06	-8.488661e-10	-2.268943e+01	-5.790988e+01
1.110000e-06	-3.225312e-06	-8.395483e-10	-2.242639e+01	-5.747943e+01
1.120000e-06	-3.187175e-06	-8.339051e-10	-2.216121e+01	-5.704244e+01
1.130000e-06	-3.148785e-06	-8.215638e-10	-2.189428e+01	-5.659889e+01
1.140000e-06	-3.110124e-06	-8.158190e-10	-2.162546e+01	-5.614877e+01
1.150000e-06	-3.071286e-06	-8.106861e-10	-2.135541e+01	-5.569211e+01
1.160000e-06	-3.032295e-06	-8.036685e-10	-2.108430e+01	-5.522895e+01
1.170000e-06	-2.993108e-06	-7.946757e-10	-2.081182e+01	-5.475936e+01
1.180000e-06	-2.953766e-06	-7.906337e-10	-2.053826e+01	-5.428346e+01
1.190000e-06	-2.914266e-06	-7.821891e-10	-2.026361e+01	-5.380136e+01
1.200000e-06	-2.874646e-06	-7.731706e-10	-1.998812e+01	-5.331320e+01
1.210000e-06	-2.834863e-06	-7.643355e-10	-1.971150e+01	-5.281916e+01
1.220000e-06	-2.794898e-06	-7.572985e-10	-1.943362e+01	-5.231940e+01
1.230000e-06	-2.754862e-06	-7.476879e-10	-1.915524e+01	-5.181412e+01
1.240000e-06	-2.714726e-06	-7.404299e-10	-1.887616e+01	-5.130353e+01
1.250000e-06	-2.674381e-06	-7.326306e-10	-1.859563e+01	-5.078783e+01
1.260000e-06	-2.633824e-06	-7.250683e-10	-1.831362e+01	-5.026723e+01
1.270000e-06	-2.592855e-06	-7.168626e-10	-1.802876e+01	-4.974196e+01
1.280000e-06	-2.551473e-06	-7.094978e-10	-1.774102e+01	-4.921221e+01
1.290000e-06	-2.509776e-06	-7.028919e-10	-1.745109e+01	-4.867819e+01
1.300000e-06	-2.467764e-06	-6.960601e-10	-1.715897e+01	-4.814010e+01
1.310000e-06	-2.425646e-06	-6.867104e-10	-1.686612e+01	-4.759810e+01
1.320000e-06	-2.383351e-06	-6.748418e-10	-1.657203e+01	-4.705235e+01
1.330000e-06	-2.340659e-06	-6.641978e-10	-1.627518e+01	-4.650300e+01
1.340000e-06	-2.297704e-06	-6.563931e-10	-1.597650e+01	-4.595014e+01
1.350000e-06	-2.254586e-06	-6.488043e-10	-1.567670e+01	-4.539386e+01
1.360000e-06	-2.211275e-06	-6.388775e-10	-1.537554e+01	-4.483421e+01
1.370000e-06	-2.167810e-06	-6.310118e-10	-1.507332e+01	-4.427120e+01
1.380000e-06	-2.124255e-06	-6.270307e-10	-1.477047e+01	-4.370481e+01
1.390000e-06	-2.080652e-06	-6.224950e-10	-1.446728e+01	-4.313497e+01
1.400000e-06	-2.036909e-06	-6.116083e-10	-1.416313e+01	-4.256158e+01
1.410000e-06	-1.993097e-06	-6.008932e-10	-1.385850e+01	-4.198449e+01
1.420000e-06	-1.949270e-06	-5.899581e-10	-1.355375e+01	-4.140350e+01
1.430000e-06	-1.905291e-06	-5.806834e-10	-1.324796e+01	-4.081837e+01
1.440000e-06	-1.861236e-06	-5.729216e-10	-1.294163e+01	-4.022882e+01
1.450000e-06	-1.817103e-06	-5.667963e-10	-1.263477e+01	-3.963453e+01
1.460000e-06	-1.772846e-06	-5.572550e-10	-1.232703e+01	-3.903510e+01
1.470000e-06	-1.728448e-06	-5.443523e-10	-1.201832e+01	-3.843013e+01
1.480000e-06	-1.683885e-06	-5.303583e-10	-1.170847e+01	-3.781914e+01
1.490000e-06	-1.639262e-06	-5.186410e-10	-1.139820e+01	-3.720165e+01
1.500000e-06	-1.594527e-06	-5.076493e-10	-1.108714e+01	-3.657710e+01
1.510000e-06	-1.549568e-06	-5.003001e-10	-1.077453e+01	-3.594491e+01
1.520000e-06	-1.504405e-06	-4.931945e-10	-1.046050e+01	-3.530448e+01
1.530000e-06	-1.459149e-06	-4.844766e-10	-1.014582e+01	-3.465517e+01
1.540000e-06	-1.413890e-06	-4.717051e-10	-9.831125e+00	-3.399631e+01
1.550000e-06	-1.368578e-06	-4.570243e-10	-9.516063e+00	-3.332722e+01
1.560000e-06	-1.323154e-06	-4.421286e-10	-9.200219e+00	-3.264719e+01
1.570000e-06	-1.277578e-06	-4.294878e-10	-8.883316e+00	-3.195552e+01
1.580000e-06	-1.231890e-06	-4.165332e-10	-8.565633e+00	-3.125148e+01
1.590000e-06	-1.186085e-06	-4.073124e-10	-8.247143e+00	-3.053436e+01
1.600000e-06	-1.140219e-06	-3.984690e-10	-7.928221e+00	-2.980344e+01
1.610000e-06	-1.094374e-06	-3.851792e-10	-7.609454e+00	-2.905801e+01
1.620000e-06	-1.048455e-06	-3.717114e-10	-7.290164e+00	-2.829739e+01
1.630000e-06	-1.002419e-06	-3.626023e-10	-6.970063e+00	-2.752091e+01
1.640000e-06	-9.562998e-07	-3.540520e-10	-6.649388e+00	-2.672793e+01
1.650000e-06	-9.101238e-07	-3.410313e-10	-6.328315e+00	-2.591784e+01
1.660000e-06	-8.638659e-07	-3.273509e-10	-6.006673e+00	-2.509008e+01
1.670000e-06	-8.176030e-07	-3.118048e-10	-5.684995e+00	-2.424411e+01
1.680000e-06	-7.712719e-07	-2.949298e-10	-5.362844e+00	-2.337947e+01
1.690000e-06	-7.248354e-07	-2.800143e-10	-5.039959e+00	-2.249572e+01
1.700000e-06	-6.783613e-07	-2.686672e-10	-4.716813e+00	-2.159251e+01
1.710000e-06	-6.318411e-07	-2.552840e-10	-4.393347e+00	-2.066952e+01
1.720000e-06	-5.853528e-07	-2.421070e-10	-4.070103e+00	-1.972652e+01
1.730000e-06	-5.389059e-07	-2.271780e-10	-3.747145e+00	-1.876335e+01
1.740000e-06	-4.923912e-07	-2.083966e-10	-3.423717e+00	-1.777990e+01
1.750000e-06	-4.457915e-07	-1.905865e-10	-3.099698e+00	-1.677615e+01
1.760000e-06	-3.990890e-07	-1.747355e-10	-2.774964e+00	-1.575216e+01
1.770000e-06	-3.522848e-07	-1.615907e-10	-2.449523e+00	-1.470806e+01
1.780000e-06	-3.055846e-07	-1.513274e-10	-2.124805e+00	-1.364406e+01
1.790000e-06	-2.589445e-07	-1.404245e-10	-1.800505e+00	-1.256045e+01
1.800000e-06	-2.120711e-07	-1.259658e-10	-1.474583e+00	-1.145760e+01
1.810000e-06	-1.650912e-07	-1.079932e-10	-1.147920e+00	-1.033597e+01
1.820000e-06	-1.181995e-07	-9.025240e-11	-8.218702e-01	-9.196067e+00
1.830000e-06	-7.134175e-08	-7.441643e-11	-4.960568e-01	-8.038506e+00
1.840000e-06	-2.457850e-08	-6.203954e-11	-1.709004e-01	-6.863959e+00
1.850000e-06	2.208253e-08	-4.898903e-11	1.535453e-01	-5.673171e+00
1.860000e-06	6.881218e-08	-3.608908e-11	4.784681e-01	-4.466957e+00
1.870000e-06	1.156146e-07	-2.181043e-11	8.038971e-01	-3.246193e+00
1.880000e-06	1.624077e-07	-4.949809e-12	1.129261e+00	-2.011818e+00
1.890000e-06	2.092331e-07	1.278161e-11	1.454849e+00	-7.648232e-01
1.900000e-06	2.560731e-07	3.191480e-11	1.780539e+00	4.937464e-01
1.910000e-06	3.028072e-07	4.914449e-11	2.105493e+00	1.762802e+00
1.920000e-06	3.494119e-07	6.513043e-11	2.429547e+00	3.041214e+00
1.930000e-06	3.960392e-07	8.047758e-11	2.753758e+00	4.327818e+00
1.940000e-06	4.427447e-07	9.500897e-11	3.078513e+00	5.621420e+00
1.950000e-06	4.894766e-07	1.115234e-10	3.403451e+00	6.920805e+00
1.960000e-06	5.361161e-07	1.266753e-10	3.727747e+00	8.224739e+00
1.970000e-06	5.826715e-07	1.419772e-10	4.051458e+00	9.531977e+00
1.980000e-06	6.291886e-07	1.574265e-10	4.374903e+00	1.084127e+01
1.990000e-06	6.756218e-07	1.748965e-10	4.697765e+00	1.215137e+01
2.000000e-06	7.219940e-07	1.942003e-10	5.020202e+00	1.346103e+01
2.010000e-06	7.683324e-07	2.123797e-10	5.342405e+00	1.476902e+01
2.020000e-06	8.145123e-07	2.306381e-10	5.663505e+00	1.607414e+01
2.030000e-06	8.605943e-07	2.494215e-10	5.983924e+00	1.737519e+01
2.040000e-06	9.067485e-07	2.665645e-10	6.304845e+00	1.867102e+01
2.050000e-06	9.528388e-07	2.819070e-10	6.625323e+00	1.996049e+01
2.060000e-06	9.988535e-07	2.984891e-10	6.945275e+00	2.124252e+01
2.070000e-06	1.044876e-06	3.155360e-10	7.265278e+00	2.251605e+01
2.080000e-06	1.090784e-06	3.333482e-10	7.584488e+00	2.378010e+01
2.090000e-06	1.136622e-06	3.515302e-10	7.903213e+00	2.503369e+01
2.100000e-06	1.182426e-06	3.711897e-10	8.221700e+00	2.627594e+01
2.110000e-06	1.228039e-06	3.903440e-10	8.538857e+00	2.750599e+01
2.120000e-06	1.273509e-06	4.067065e-10	8.855023e+00	2.872305e+01
2.130000e-06	1.318961e-06	4.209823e-10	9.171063e+00	2.992638e+01
2.140000e-06	1.364355e-06	4.365623e-10	9.486699e+00	3.111532e+01
2.150000e-06	1.409644e-06	4.538851e-10	9.801599e+00	3.228924e+01
2.160000e-06	1.454861e-06	4.722773e-10	1.011601e+01	3.344759e+01
2.170000e-06	1.499966e-06	4.896931e-10	1.042963e+01	3.458987e+01
2.180000e-06	1.544947e-06	5.071368e-10	1.074240e+01	3.571565e+01
2.190000e-06	1.589828e-06	5.235182e-10	1.105446e+01	3.682455e+01
2.200000e-06	1.634508e-06	5.388012e-10	1.136514e+01	3.791624e+01
2.210000e-06	1.678987e-06	5.537259e-10	1.167441e+01	3.899047e+01
2.220000e-06	1.723359e-06	5.681770e-10	1.198294e+01	4.004702e+01
2.230000e-06	1.767637e-06	5.850876e-10	1.229082e+01	4.108573e+01
2.240000e-06	1.811811e-06	6.002214e-10	1.259797e+01	4.210649e+01
2.250000e-06	1.855917e-06	6.135323e-10	1.290465e+01	4.310924e+01
2.260000e-06	1.899952e-06	6.273060e-10	1.321083e+01	4.409395e+01
2.270000e-06	1.943835e-06	6.414252e-10	1.351596e+01	4.506064e+01
2.280000e-06	1.987629e-06	6.575188e-10	1.382048e+01	4.600937e+01
2.290000e-06	2.031377e-06	6.728917e-10	1.412467e+01	4.694024e+01
2.300000e-06	2.075042e-06	6.881337e-10	1.442828e+01	4.785335e+01
2.310000e-06	2.118604e-06	7.017900e-10	1.473118e+01	4.874887e+01
2.320000e-06	2.162077e-06	7.146318e-10	1.503345e+01	4.962696e+01
2.330000e-06	2.205549e-06	7.259268e-10	1.533573e+01	5.048782e+01
2.340000e-06	2.248881e-06	7.352102e-10	1.563702e+01	5.133166e+01
2.350000e-06	2.292012e-06	7.472856e-10	1.593692e+01	5.215871e+01
2.360000e-06	2.334972e-06	7.630966e-10	1.623564e+01	5.296921e+01
2.370000e-06	2.377668e-06	7.792770e-10	1.653251e+01	5.376339e+01
2.380000e-06	2.420151e-06	7.912482e-10	1.682791e+01	5.454153e+01
2.390000e-06	2.462445e-06	8.002919e-10	1.712198e+01	5.530387e+01
2.400000e-06	2.504274e-06	8.077683e-10	1.741283e+01	5.605067e+01
2.410000e-06	2.545651e-06	8.137164e-10	1.770054e+01	5.678219e+01
2.420000e-06	2.586856e-06	8.230353e-10	1.798705e+01	5.749869e+01
2.430000e-06	2.627761e-06	8.363529e-10	1.827147e+01	5.820043e+01
2.440000e-06	2.668310e-06	8.507335e-10	1.855342e+01	5.888764e+01
2.450000e-06	2.708629e-06	8.634037e-10	1.883376e+01	5.956058e+01
2.460000e-06	2.748806e-06	8.724766e-10	1.911313e+01	6.021947e+01
2.470000e-06	2.788864e-06	8.817170e-10	1.939166e+01	6.086455e+01
2.480000e-06	2.828762e-06	8.909902e-10	1.966908e+01	6.149603e+01
2.490000e-06	2.868454e-06	8.993799e-10	1.994506e+01	6.211412e+01
2.500000e-06	2.907982e-06	9.068678e-10	2.021991e+01	6.271904e+01
2.510000e-06	2.947490e-06	9.149227e-10	2.049462e+01	6.331097e+01
2.520000e-06	2.986910e-06	9.242433e-10	2.076872e+01	6.389011e+01
2.530000e-06	3.026096e-06	9.337895e-10	2.104119e+01	6.445663e+01
2.540000e-06	3.065068e-06	9.417234e-10	2.131217e+01	6.501072e+01
2.550000e-06	3.103818e-06	9.492897e-10	2.158161e+01	6.555254e+01
2.560000e-06	3.142300e-06	9.570989e-10	2.184919e+01	6.608226e+01
2.570000e-06	3.180570e-06	9.633432e-10	2.211529e+01	6.660005e+01
2.580000e-06	3.218644e-06	9.686731e-10	2.238003e+01	6.710607e+01
2.590000e-06	3.256593e-06	9.751643e-10	2.264389e+01	6.760048e+01
2.600000e-06	3.294372e-06	9.835374e-10	2.290658e+01	6.808344e+01
2.610000e-06	3.331895e-06	9.909246e-10	2.316748e+01	6.855511e+01
2.620000e-06	3.369117e-06	9.947191e-10	2.342630e+01	6.901567e+01
2.630000e-06	3.405990e-06	9.989570e-10	2.368268e+01	6.946527e+01
2.640000e-06	3.442605e-06	1.004197e-09	2.393728e+01	6.990409e+01
2.650000e-06	3.479020e-06	1.009881e-09	2.419048e+01	7.033232e+01
2.660000e-06	3.515196e-06	1.016604e-09	2.444202e+01	7.075012e+01
2.670000e-06	3.551150e-06	1.022355e-09	2.469202e+01	7.115771e+01
2.680000e-06	3.586957e-06	1.027675e-09	2.494100e+01	7.155526e+01
2.690000e-06	3.622616e-06	1.035107e-09	2.518894e+01	7.194300e+01
2.700000e-06	3.658167e-06	1.043262e-09	2.543614e+01	7.232113e+01
2.710000e-06	3.693520e-06	1.049506e-09	2.568195e+01	7.268987e+01
2.720000e-06	3.728606e-06	1.055346e-09	2.592592e+01	7.304946e+01
2.730000e-06	3.763477e-06	1.059542e-09	2.616838e+01	7.340012e+01
2.740000e-06	3.797953e-06	1.063024e-09	2.640810e+01	7.374212e+01
2.750000e-06	3.831974e-06	1.065933e-09	2.664466e+01	7.407569e+01
2.760000e-06	3.865593e-06	1.068295e-09	2.687842e+01	7.440109e+01
2.770000e-06	3.898730e-06	1.071419e-09	2.710883e+01	7.471860e+01
2.780000e-06	3.931386e-06	1.074465e-09	2.733590e+01	7.502846e+01
2.790000e-06	3.963664e-06	1.079189e-09	2.756033e+01	7.533096e+01
2.800000e-06	3.995700e-06	1.085164e-09	2.778309e+01	7.562636e+01
2.810000e-06	4.027533e-06	1.089522e-09	2.800443e+01	7.591494e+01
2.820000e-06	4.059184e-06	1.093723e-09	2.822451e+01	7.619698e+01
2.830000e-06	4.090655e-06	1.100165e-09	2.844333e+01	7.647273e+01
2.840000e-06	4.121841e-06	1.106850e-09	2.866018e+01	7.674248e+01
2.850000e-06	4.152836e-06	1.113728e-09	2.887569e+01	7.700647e+01
2.860000e-06	4.183632e-06	1.120576e-09	2.908983e+01	7.726498e+01
2.870000e-06	4.214046e-06	1.125197e-09	2.930130e+01	7.751824e+01
2.880000e-06	4.244123e-06	1.128062e-09	2.951043e+01	7.776650e+01
2.890000e-06	4.273941e-06	1.131618e-09	2.971776e+01	7.800999e+01
2.900000e-06	4.303466e-06	1.138322e-09	2.992306e+01	7.824891e+01
2.910000e-06	4.332713e-06	1.145293e-09	3.012642e+01	7.848349e+01
