# Temperatura_=_-0.5
# Concentracion g/m^3_=_1620.0
# C_Vs_to_Am_M_A/Vsm_=_65563218390.804596
# pendiente_HvsI_1/m_=_3716.3
# ordenada_HvsI_A/m_=_1297.0
# frecuencia_Hz_=_135095.94436867646

Tiempo_(s)	Campo_(V.s)	Magnetizacion_(V.s)	Campo_(kA/m)	Magnetizacion_(A/m)
0.000000e+00	-5.522627e-06	-1.317155e-09	-3.837690e+01	-8.743894e+01
1.000000e-08	-5.522766e-06	-1.314344e-09	-3.837787e+01	-8.741264e+01
2.000000e-08	-5.522705e-06	-1.310245e-09	-3.837744e+01	-8.738594e+01
3.000000e-08	-5.522268e-06	-1.306311e-09	-3.837441e+01	-8.735883e+01
4.000000e-08	-5.521273e-06	-1.301515e-09	-3.836750e+01	-8.733126e+01
5.000000e-08	-5.519678e-06	-1.299055e-09	-3.835641e+01	-8.730319e+01
6.000000e-08	-5.517667e-06	-1.304701e-09	-3.834244e+01	-8.727454e+01
7.000000e-08	-5.515138e-06	-1.316127e-09	-3.832486e+01	-8.724521e+01
8.000000e-08	-5.511996e-06	-1.294709e-09	-3.830303e+01	-8.721511e+01
9.000000e-08	-5.508428e-06	-1.315447e-09	-3.827824e+01	-8.718412e+01
1.000000e-07	-5.504456e-06	-1.393026e-09	-3.825063e+01	-8.715209e+01
1.100000e-07	-5.499996e-06	-1.392644e-09	-3.821964e+01	-8.711889e+01
1.200000e-07	-5.495255e-06	-1.249761e-09	-3.818669e+01	-8.708434e+01
1.300000e-07	-5.490389e-06	-1.208745e-09	-3.815288e+01	-8.704828e+01
1.400000e-07	-5.485189e-06	-1.306467e-09	-3.811675e+01	-8.701052e+01
1.500000e-07	-5.479530e-06	-1.362339e-09	-3.807742e+01	-8.697087e+01
1.600000e-07	-5.473479e-06	-1.223507e-09	-3.803537e+01	-8.692912e+01
1.700000e-07	-5.467194e-06	-1.195331e-09	-3.799170e+01	-8.688507e+01
1.800000e-07	-5.460483e-06	-1.342042e-09	-3.794507e+01	-8.683851e+01
1.900000e-07	-5.453265e-06	-1.414696e-09	-3.789491e+01	-8.678922e+01
2.000000e-07	-5.445776e-06	-1.301591e-09	-3.784286e+01	-8.673697e+01
2.100000e-07	-5.438093e-06	-1.218281e-09	-3.778947e+01	-8.668155e+01
2.200000e-07	-5.430093e-06	-1.293994e-09	-3.773388e+01	-8.662274e+01
2.300000e-07	-5.421648e-06	-1.333128e-09	-3.767520e+01	-8.656032e+01
2.400000e-07	-5.412787e-06	-1.291399e-09	-3.761362e+01	-8.649409e+01
2.500000e-07	-5.403404e-06	-1.261015e-09	-3.754842e+01	-8.642384e+01
2.600000e-07	-5.393283e-06	-1.312938e-09	-3.747809e+01	-8.634936e+01
2.700000e-07	-5.382533e-06	-1.322057e-09	-3.740339e+01	-8.627048e+01
2.800000e-07	-5.371400e-06	-1.295920e-09	-3.732602e+01	-8.618700e+01
2.900000e-07	-5.359923e-06	-1.266960e-09	-3.724627e+01	-8.609877e+01
3.000000e-07	-5.348003e-06	-1.293408e-09	-3.716344e+01	-8.600563e+01
3.100000e-07	-5.335693e-06	-1.295028e-09	-3.707789e+01	-8.590742e+01
3.200000e-07	-5.322987e-06	-1.286341e-09	-3.698960e+01	-8.580403e+01
3.300000e-07	-5.309807e-06	-1.255065e-09	-3.689801e+01	-8.569535e+01
3.400000e-07	-5.296216e-06	-1.286129e-09	-3.680356e+01	-8.558126e+01
3.500000e-07	-5.282242e-06	-1.307705e-09	-3.670646e+01	-8.546170e+01
3.600000e-07	-5.267839e-06	-1.277324e-09	-3.660637e+01	-8.533659e+01
3.700000e-07	-5.252951e-06	-1.250484e-09	-3.650292e+01	-8.520588e+01
3.800000e-07	-5.237654e-06	-1.303516e-09	-3.639661e+01	-8.506954e+01
3.900000e-07	-5.221877e-06	-1.301671e-09	-3.628699e+01	-8.492755e+01
4.000000e-07	-5.205527e-06	-1.241500e-09	-3.617337e+01	-8.477991e+01
4.100000e-07	-5.188819e-06	-1.278387e-09	-3.605726e+01	-8.462664e+01
4.200000e-07	-5.171872e-06	-1.326099e-09	-3.593950e+01	-8.446775e+01
4.300000e-07	-5.154571e-06	-1.246578e-09	-3.581927e+01	-8.430329e+01
4.400000e-07	-5.136888e-06	-1.226424e-09	-3.569639e+01	-8.413333e+01
4.500000e-07	-5.118873e-06	-1.330107e-09	-3.557120e+01	-8.395791e+01
4.600000e-07	-5.100476e-06	-1.300459e-09	-3.544336e+01	-8.377713e+01
4.700000e-07	-5.081656e-06	-1.207379e-09	-3.531258e+01	-8.359107e+01
4.800000e-07	-5.062447e-06	-1.269752e-09	-3.517910e+01	-8.339982e+01
4.900000e-07	-5.042965e-06	-1.317736e-09	-3.504372e+01	-8.320350e+01
5.000000e-07	-5.023285e-06	-1.224013e-09	-3.490696e+01	-8.300221e+01
5.100000e-07	-5.003385e-06	-1.240388e-09	-3.476867e+01	-8.279608e+01
5.200000e-07	-4.983204e-06	-1.306263e-09	-3.462844e+01	-8.258522e+01
5.300000e-07	-4.962643e-06	-1.233226e-09	-3.448556e+01	-8.236976e+01
5.400000e-07	-4.941680e-06	-1.202476e-09	-3.433988e+01	-8.214982e+01
5.500000e-07	-4.920342e-06	-1.299863e-09	-3.419160e+01	-8.192552e+01
5.600000e-07	-4.898695e-06	-1.261690e-09	-3.404118e+01	-8.169699e+01
5.700000e-07	-4.876709e-06	-1.181205e-09	-3.388840e+01	-8.146436e+01
5.800000e-07	-4.854333e-06	-1.243676e-09	-3.373290e+01	-8.122773e+01
5.900000e-07	-4.831511e-06	-1.273346e-09	-3.357431e+01	-8.098722e+01
6.000000e-07	-4.808318e-06	-1.192010e-09	-3.341315e+01	-8.074294e+01
6.100000e-07	-4.784891e-06	-1.211132e-09	-3.325035e+01	-8.049500e+01
6.200000e-07	-4.761299e-06	-1.249831e-09	-3.308641e+01	-8.024347e+01
6.300000e-07	-4.737513e-06	-1.191032e-09	-3.292112e+01	-7.998846e+01
6.400000e-07	-4.713469e-06	-1.175160e-09	-3.275404e+01	-7.973003e+01
6.500000e-07	-4.689131e-06	-1.221258e-09	-3.258492e+01	-7.946826e+01
6.600000e-07	-4.664348e-06	-1.190502e-09	-3.241270e+01	-7.920321e+01
6.700000e-07	-4.639004e-06	-1.169871e-09	-3.223658e+01	-7.893493e+01
6.800000e-07	-4.613052e-06	-1.210366e-09	-3.205624e+01	-7.866345e+01
6.900000e-07	-4.586603e-06	-1.204921e-09	-3.187245e+01	-7.838882e+01
7.000000e-07	-4.559795e-06	-1.171509e-09	-3.168615e+01	-7.811105e+01
7.100000e-07	-4.532587e-06	-1.189860e-09	-3.149709e+01	-7.783015e+01
7.200000e-07	-4.505083e-06	-1.190604e-09	-3.130596e+01	-7.754613e+01
7.300000e-07	-4.477420e-06	-1.154842e-09	-3.111373e+01	-7.725899e+01
7.400000e-07	-4.449566e-06	-1.158542e-09	-3.092017e+01	-7.696872e+01
7.500000e-07	-4.421492e-06	-1.171089e-09	-3.072508e+01	-7.667529e+01
7.600000e-07	-4.393125e-06	-1.153786e-09	-3.052796e+01	-7.637868e+01
7.700000e-07	-4.364414e-06	-1.148591e-09	-3.032845e+01	-7.607886e+01
7.800000e-07	-4.335400e-06	-1.155447e-09	-3.012683e+01	-7.577580e+01
7.900000e-07	-4.306038e-06	-1.134838e-09	-2.992279e+01	-7.546944e+01
8.000000e-07	-4.276345e-06	-1.124690e-09	-2.971645e+01	-7.515975e+01
8.100000e-07	-4.246367e-06	-1.131349e-09	-2.950814e+01	-7.484668e+01
8.200000e-07	-4.216046e-06	-1.120042e-09	-2.929743e+01	-7.453017e+01
8.300000e-07	-4.185509e-06	-1.101555e-09	-2.908523e+01	-7.421018e+01
8.400000e-07	-4.154763e-06	-1.110998e-09	-2.887158e+01	-7.388666e+01
8.500000e-07	-4.123704e-06	-1.106730e-09	-2.865575e+01	-7.355956e+01
8.600000e-07	-4.092368e-06	-1.088285e-09	-2.843799e+01	-7.322882e+01
8.700000e-07	-4.060862e-06	-1.086592e-09	-2.821905e+01	-7.289439e+01
8.800000e-07	-4.029171e-06	-1.092192e-09	-2.799883e+01	-7.255624e+01
8.900000e-07	-3.997305e-06	-1.078671e-09	-2.777739e+01	-7.221432e+01
9.000000e-07	-3.965315e-06	-1.073285e-09	-2.755510e+01	-7.186858e+01
9.100000e-07	-3.932999e-06	-1.074646e-09	-2.733053e+01	-7.151900e+01
9.200000e-07	-3.900186e-06	-1.059731e-09	-2.710251e+01	-7.116555e+01
9.300000e-07	-3.866831e-06	-1.043619e-09	-2.687073e+01	-7.080818e+01
9.400000e-07	-3.833029e-06	-1.048328e-09	-2.663584e+01	-7.044690e+01
9.500000e-07	-3.798938e-06	-1.044015e-09	-2.639894e+01	-7.008166e+01
9.600000e-07	-3.764477e-06	-1.028678e-09	-2.615946e+01	-6.971247e+01
9.700000e-07	-3.729618e-06	-1.026530e-09	-2.591723e+01	-6.933932e+01
9.800000e-07	-3.694493e-06	-1.027119e-09	-2.567314e+01	-6.896220e+01
9.900000e-07	-3.659115e-06	-1.015681e-09	-2.542730e+01	-6.858111e+01
1.000000e-06	-3.623525e-06	-1.011698e-09	-2.517999e+01	-6.819606e+01
1.010000e-06	-3.587772e-06	-1.015986e-09	-2.493154e+01	-6.780705e+01
1.020000e-06	-3.551867e-06	-1.008901e-09	-2.468204e+01	-6.741410e+01
1.030000e-06	-3.515809e-06	-9.978353e-10	-2.443147e+01	-6.701722e+01
1.040000e-06	-3.479576e-06	-9.933295e-10	-2.417968e+01	-6.661643e+01
1.050000e-06	-3.443125e-06	-9.848392e-10	-2.392638e+01	-6.621175e+01
1.060000e-06	-3.406365e-06	-9.716651e-10	-2.367093e+01	-6.580319e+01
1.070000e-06	-3.369282e-06	-9.687701e-10	-2.341324e+01	-6.539076e+01
1.080000e-06	-3.331925e-06	-9.661199e-10	-2.315365e+01	-6.497450e+01
1.090000e-06	-3.294329e-06	-9.586424e-10	-2.289239e+01	-6.455441e+01
1.100000e-06	-3.256488e-06	-9.532265e-10	-2.262944e+01	-6.413051e+01
1.110000e-06	-3.218442e-06	-9.481997e-10	-2.236505e+01	-6.370281e+01
1.120000e-06	-3.180163e-06	-9.324257e-10	-2.209905e+01	-6.327132e+01
1.130000e-06	-3.141632e-06	-9.195645e-10	-2.183130e+01	-6.283603e+01
1.140000e-06	-3.102999e-06	-9.134843e-10	-2.156283e+01	-6.239694e+01
1.150000e-06	-3.064133e-06	-9.059783e-10	-2.129276e+01	-6.195405e+01
1.160000e-06	-3.024940e-06	-8.976038e-10	-2.102040e+01	-6.150734e+01
1.170000e-06	-2.985651e-06	-8.944632e-10	-2.074738e+01	-6.105678e+01
1.180000e-06	-2.946304e-06	-8.898426e-10	-2.047396e+01	-6.060234e+01
1.190000e-06	-2.906862e-06	-8.832880e-10	-2.019987e+01	-6.014399e+01
1.200000e-06	-2.867264e-06	-8.779303e-10	-1.992471e+01	-5.968166e+01
1.210000e-06	-2.827439e-06	-8.718085e-10	-1.964796e+01	-5.921531e+01
1.220000e-06	-2.787434e-06	-8.590251e-10	-1.936996e+01	-5.874486e+01
1.230000e-06	-2.747277e-06	-8.478962e-10	-1.909091e+01	-5.827022e+01
1.240000e-06	-2.707016e-06	-8.386580e-10	-1.881114e+01	-5.779131e+01
1.250000e-06	-2.666487e-06	-8.278408e-10	-1.852950e+01	-5.730802e+01
1.260000e-06	-2.625650e-06	-8.188150e-10	-1.824572e+01	-5.682024e+01
1.270000e-06	-2.584545e-06	-8.118273e-10	-1.796008e+01	-5.632784e+01
1.280000e-06	-2.543112e-06	-8.061496e-10	-1.767216e+01	-5.583067e+01
1.290000e-06	-2.501365e-06	-8.007092e-10	-1.738207e+01	-5.532859e+01
1.300000e-06	-2.459336e-06	-7.932555e-10	-1.709000e+01	-5.482142e+01
1.310000e-06	-2.417152e-06	-7.826328e-10	-1.679687e+01	-5.430899e+01
1.320000e-06	-2.374681e-06	-7.701862e-10	-1.650173e+01	-5.379112e+01
1.330000e-06	-2.331861e-06	-7.574225e-10	-1.620417e+01	-5.326759e+01
1.340000e-06	-2.288840e-06	-7.468883e-10	-1.590522e+01	-5.273820e+01
1.350000e-06	-2.245668e-06	-7.388528e-10	-1.560522e+01	-5.220270e+01
1.360000e-06	-2.202339e-06	-7.315491e-10	-1.530412e+01	-5.166088e+01
1.370000e-06	-2.158844e-06	-7.239325e-10	-1.500187e+01	-5.111246e+01
1.380000e-06	-2.115274e-06	-7.172590e-10	-1.469910e+01	-5.055720e+01
1.390000e-06	-2.071690e-06	-7.095172e-10	-1.439624e+01	-4.999480e+01
1.400000e-06	-2.027999e-06	-6.983518e-10	-1.409263e+01	-4.942500e+01
1.410000e-06	-1.984128e-06	-6.856456e-10	-1.378776e+01	-4.884748e+01
1.420000e-06	-1.940203e-06	-6.734440e-10	-1.348253e+01	-4.826195e+01
1.430000e-06	-1.896199e-06	-6.612507e-10	-1.317675e+01	-4.766809e+01
1.440000e-06	-1.852014e-06	-6.509580e-10	-1.286970e+01	-4.706556e+01
1.450000e-06	-1.807734e-06	-6.418827e-10	-1.256200e+01	-4.645403e+01
1.460000e-06	-1.763418e-06	-6.340309e-10	-1.225405e+01	-4.583316e+01
1.470000e-06	-1.718988e-06	-6.252194e-10	-1.194530e+01	-4.520259e+01
1.480000e-06	-1.674285e-06	-6.156991e-10	-1.163466e+01	-4.456197e+01
1.490000e-06	-1.629433e-06	-6.069856e-10	-1.132298e+01	-4.391092e+01
1.500000e-06	-1.584489e-06	-5.991098e-10	-1.101066e+01	-4.324908e+01
1.510000e-06	-1.539431e-06	-5.915438e-10	-1.069755e+01	-4.257606e+01
1.520000e-06	-1.494355e-06	-5.834499e-10	-1.038432e+01	-4.189148e+01
1.530000e-06	-1.449194e-06	-5.709201e-10	-1.007049e+01	-4.119496e+01
1.540000e-06	-1.403893e-06	-5.557944e-10	-9.755695e+00	-4.048610e+01
1.550000e-06	-1.358532e-06	-5.405300e-10	-9.440480e+00	-3.976452e+01
1.560000e-06	-1.313128e-06	-5.271506e-10	-9.124965e+00	-3.902983e+01
1.570000e-06	-1.267601e-06	-5.142115e-10	-8.808599e+00	-3.828164e+01
1.580000e-06	-1.221967e-06	-5.029582e-10	-8.491489e+00	-3.751956e+01
1.590000e-06	-1.176199e-06	-4.953115e-10	-8.173445e+00	-3.674321e+01
1.600000e-06	-1.130275e-06	-4.857746e-10	-7.854316e+00	-3.595221e+01
1.610000e-06	-1.084330e-06	-4.729551e-10	-7.535042e+00	-3.514619e+01
1.620000e-06	-1.038380e-06	-4.619346e-10	-7.215735e+00	-3.432479e+01
1.630000e-06	-9.923499e-07	-4.547588e-10	-6.895870e+00	-3.348766e+01
1.640000e-06	-9.462005e-07	-4.476108e-10	-6.575176e+00	-3.263446e+01
1.650000e-06	-8.999783e-07	-4.367575e-10	-6.253977e+00	-3.176486e+01
1.660000e-06	-8.537645e-07	-4.242471e-10	-5.932836e+00	-3.087855e+01
1.670000e-06	-8.075114e-07	-4.103598e-10	-5.611422e+00	-2.997524e+01
1.680000e-06	-7.612017e-07	-3.941035e-10	-5.289614e+00	-2.905467e+01
1.690000e-06	-7.147006e-07	-3.804503e-10	-4.966476e+00	-2.811657e+01
1.700000e-06	-6.680725e-07	-3.678216e-10	-4.642456e+00	-2.716074e+01
1.710000e-06	-6.214958e-07	-3.538869e-10	-4.318793e+00	-2.618696e+01
1.720000e-06	-5.749537e-07	-3.375352e-10	-3.995371e+00	-2.519508e+01
1.730000e-06	-5.284127e-07	-3.186245e-10	-3.671956e+00	-2.418496e+01
1.740000e-06	-4.817880e-07	-2.982961e-10	-3.347960e+00	-2.315648e+01
1.750000e-06	-4.350711e-07	-2.785365e-10	-3.023323e+00	-2.210960e+01
1.760000e-06	-3.883640e-07	-2.625596e-10	-2.698753e+00	-2.104426e+01
1.770000e-06	-3.416494e-07	-2.500626e-10	-2.374132e+00	-1.996050e+01
1.780000e-06	-2.948494e-07	-2.385980e-10	-2.048917e+00	-1.885835e+01
1.790000e-06	-2.480610e-07	-2.278127e-10	-1.723783e+00	-1.773793e+01
1.800000e-06	-2.012604e-07	-2.138094e-10	-1.398565e+00	-1.659936e+01
1.810000e-06	-1.544275e-07	-1.952064e-10	-1.073122e+00	-1.544284e+01
1.820000e-06	-1.076231e-07	-1.760100e-10	-7.478761e-01	-1.426860e+01
1.830000e-06	-6.076449e-08	-1.582178e-10	-4.222543e-01	-1.307695e+01
1.840000e-06	-1.387965e-08	-1.398149e-10	-9.645010e-02	-1.186822e+01
1.850000e-06	3.297332e-08	-1.213396e-10	2.291326e-01	-1.064280e+01
1.860000e-06	7.973636e-08	-1.040015e-10	5.540904e-01	-9.401136e+00
1.870000e-06	1.264781e-07	-8.621229e-11	8.789000e-01	-8.143736e+00
1.880000e-06	1.733104e-07	-6.711242e-11	1.204340e+00	-6.871151e+00
1.890000e-06	2.201271e-07	-4.734378e-11	1.529670e+00	-5.583990e+00
1.900000e-06	2.669008e-07	-2.658553e-11	1.854701e+00	-4.282915e+00
1.910000e-06	3.136544e-07	-6.012243e-12	2.179594e+00	-2.968641e+00
1.920000e-06	3.603275e-07	1.164883e-11	2.503927e+00	-1.641933e+00
1.930000e-06	4.069348e-07	2.909969e-11	2.827802e+00	-3.036114e-01
1.940000e-06	4.535533e-07	4.861841e-11	3.151756e+00	1.045459e+00
1.950000e-06	5.002229e-07	6.809747e-11	3.476064e+00	2.404362e+00
1.960000e-06	5.468451e-07	8.851908e-11	3.800043e+00	3.772139e+00
1.970000e-06	5.934214e-07	1.100628e-10	4.123703e+00	5.147788e+00
1.980000e-06	6.399383e-07	1.284407e-10	4.446951e+00	6.530265e+00
1.990000e-06	6.864111e-07	1.468086e-10	4.769891e+00	7.918491e+00
2.000000e-06	7.328348e-07	1.625473e-10	5.092491e+00	9.311352e+00
2.010000e-06	7.791287e-07	1.799656e-10	5.414189e+00	1.070770e+01
2.020000e-06	8.254517e-07	1.993377e-10	5.736089e+00	1.210638e+01
2.030000e-06	8.717631e-07	2.248345e-10	6.057908e+00	1.350618e+01
2.040000e-06	9.179478e-07	2.510466e-10	6.378847e+00	1.490591e+01
2.050000e-06	9.640724e-07	2.748865e-10	6.699369e+00	1.630432e+01
2.060000e-06	1.010142e-06	2.954726e-10	7.019505e+00	1.770020e+01
2.070000e-06	1.056145e-06	3.113541e-10	7.339184e+00	1.909230e+01
2.080000e-06	1.102060e-06	3.287405e-10	7.658251e+00	2.047939e+01
2.090000e-06	1.147893e-06	3.484508e-10	7.976742e+00	2.186023e+01
2.100000e-06	1.193649e-06	3.702810e-10	8.294706e+00	2.323360e+01
2.110000e-06	1.239322e-06	3.896906e-10	8.612085e+00	2.459831e+01
2.120000e-06	1.284883e-06	4.065971e-10	8.928690e+00	2.595315e+01
2.130000e-06	1.330325e-06	4.237339e-10	9.244472e+00	2.729697e+01
2.140000e-06	1.375718e-06	4.425185e-10	9.559909e+00	2.862865e+01
2.150000e-06	1.421042e-06	4.617256e-10	9.874866e+00	2.994708e+01
2.160000e-06	1.466268e-06	4.811621e-10	1.018914e+01	3.125120e+01
2.170000e-06	1.511398e-06	4.994077e-10	1.050275e+01	3.254000e+01
2.180000e-06	1.556397e-06	5.222343e-10	1.081545e+01	3.381253e+01
2.190000e-06	1.601280e-06	5.401112e-10	1.112734e+01	3.506785e+01
2.200000e-06	1.646035e-06	5.539228e-10	1.143835e+01	3.630511e+01
2.210000e-06	1.690602e-06	5.673133e-10	1.174804e+01	3.752352e+01
2.220000e-06	1.735044e-06	5.797715e-10	1.205687e+01	3.872233e+01
2.230000e-06	1.779392e-06	5.957739e-10	1.236505e+01	3.990085e+01
2.240000e-06	1.823600e-06	6.131573e-10	1.267225e+01	4.105850e+01
2.250000e-06	1.867652e-06	6.304191e-10	1.297837e+01	4.219471e+01
2.260000e-06	1.911613e-06	6.452394e-10	1.328386e+01	4.330902e+01
2.270000e-06	1.955549e-06	6.599075e-10	1.358917e+01	4.440103e+01
2.280000e-06	1.999395e-06	6.778762e-10	1.389386e+01	4.547041e+01
2.290000e-06	2.043082e-06	6.956809e-10	1.419744e+01	4.651689e+01
2.300000e-06	2.086652e-06	7.090405e-10	1.450021e+01	4.754028e+01
2.310000e-06	2.130174e-06	7.190136e-10	1.480264e+01	4.854048e+01
2.320000e-06	2.173664e-06	7.302552e-10	1.510486e+01	4.951744e+01
2.330000e-06	2.217063e-06	7.428472e-10	1.540644e+01	5.047116e+01
2.340000e-06	2.260321e-06	7.569917e-10	1.570704e+01	5.140175e+01
2.350000e-06	2.303432e-06	7.737558e-10	1.600662e+01	5.230935e+01
2.360000e-06	2.346387e-06	7.907214e-10	1.630512e+01	5.319417e+01
2.370000e-06	2.389125e-06	8.049598e-10	1.660210e+01	5.405650e+01
2.380000e-06	2.431561e-06	8.150738e-10	1.689699e+01	5.489665e+01
2.390000e-06	2.473669e-06	8.216855e-10	1.718960e+01	5.571500e+01
2.400000e-06	2.515519e-06	8.267369e-10	1.748042e+01	5.651199e+01
2.410000e-06	2.557082e-06	8.335365e-10	1.776924e+01	5.728809e+01
2.420000e-06	2.598263e-06	8.431277e-10	1.805541e+01	5.804381e+01
2.430000e-06	2.639128e-06	8.561922e-10	1.833938e+01	5.877970e+01
2.440000e-06	2.679756e-06	8.711112e-10	1.862170e+01	5.949635e+01
2.450000e-06	2.720085e-06	8.848826e-10	1.890196e+01	6.019436e+01
2.460000e-06	2.760184e-06	8.974312e-10	1.918060e+01	6.087436e+01
2.470000e-06	2.800148e-06	9.067780e-10	1.945831e+01	6.153701e+01
2.480000e-06	2.839972e-06	9.148643e-10	1.973505e+01	6.218297e+01
2.490000e-06	2.879685e-06	9.234381e-10	2.001102e+01	6.281290e+01
2.500000e-06	2.919248e-06	9.305825e-10	2.028594e+01	6.342749e+01
2.510000e-06	2.958623e-06	9.387102e-10	2.055956e+01	6.402741e+01
2.520000e-06	2.997885e-06	9.485396e-10	2.083239e+01	6.461332e+01
2.530000e-06	3.037057e-06	9.585352e-10	2.110460e+01	6.518590e+01
2.540000e-06	3.076023e-06	9.676246e-10	2.137538e+01	6.574580e+01
2.550000e-06	3.114709e-06	9.761943e-10	2.164420e+01	6.629364e+01
2.560000e-06	3.153102e-06	9.832874e-10	2.191100e+01	6.683005e+01
2.570000e-06	3.191252e-06	9.898195e-10	2.217610e+01	6.735561e+01
2.580000e-06	3.229252e-06	9.956344e-10	2.244017e+01	6.787090e+01
2.590000e-06	3.267058e-06	1.000691e-09	2.270288e+01	6.837645e+01
2.600000e-06	3.304611e-06	1.008512e-09	2.296384e+01	6.887277e+01
2.610000e-06	3.341926e-06	1.017370e-09	2.322315e+01	6.936035e+01
2.620000e-06	3.379061e-06	1.023382e-09	2.348120e+01	6.983962e+01
2.630000e-06	3.416030e-06	1.029141e-09	2.373810e+01	7.031099e+01
2.640000e-06	3.452725e-06	1.037038e-09	2.399309e+01	7.077485e+01
2.650000e-06	3.489116e-06	1.046357e-09	2.424597e+01	7.123153e+01
2.660000e-06	3.525276e-06	1.056697e-09	2.449725e+01	7.168133e+01
2.670000e-06	3.561290e-06	1.061712e-09	2.474751e+01	7.212452e+01
2.680000e-06	3.597117e-06	1.062756e-09	2.499648e+01	7.256133e+01
2.690000e-06	3.632774e-06	1.063860e-09	2.524426e+01	7.299196e+01
2.700000e-06	3.668324e-06	1.069333e-09	2.549130e+01	7.341656e+01
2.710000e-06	3.703698e-06	1.075475e-09	2.573711e+01	7.383527e+01
2.720000e-06	3.738771e-06	1.082997e-09	2.598084e+01	7.424818e+01
2.730000e-06	3.773490e-06	1.092481e-09	2.622210e+01	7.465537e+01
2.740000e-06	3.807860e-06	1.098556e-09	2.646094e+01	7.505687e+01
2.750000e-06	3.841847e-06	1.101571e-09	2.669711e+01	7.545270e+01
2.760000e-06	3.875397e-06	1.103880e-09	2.693025e+01	7.584286e+01
2.770000e-06	3.908456e-06	1.107269e-09	2.715998e+01	7.622731e+01
2.780000e-06	3.941102e-06	1.114282e-09	2.738684e+01	7.660601e+01
2.790000e-06	3.973350e-06	1.125489e-09	2.761093e+01	7.697889e+01
2.800000e-06	4.005291e-06	1.136914e-09	2.783289e+01	7.734588e+01
2.810000e-06	4.037091e-06	1.146095e-09	2.805387e+01	7.770689e+01
2.820000e-06	4.068728e-06	1.152231e-09	2.827371e+01	7.806183e+01
2.830000e-06	4.100172e-06	1.155155e-09	2.849222e+01	7.841058e+01
2.840000e-06	4.131384e-06	1.154361e-09	2.870912e+01	7.875304e+01
2.850000e-06	4.162335e-06	1.158423e-09	2.892419e+01	7.908912e+01
2.860000e-06	4.193077e-06	1.165414e-09	2.913782e+01	7.941869e+01
2.870000e-06	4.223582e-06	1.169882e-09	2.934980e+01	7.974165e+01
2.880000e-06	4.253787e-06	1.174037e-09	2.955970e+01	8.005791e+01
2.890000e-06	4.283621e-06	1.179791e-09	2.976702e+01	8.036736e+01
2.900000e-06	4.313028e-06	1.184658e-09	2.997136e+01	8.066993e+01
