# Temperatura_=_8.0
# Concentracion g/m^3_=_1620.0
# C_Vs_to_Am_M_A/Vsm_=_65563218390.804596
# pendiente_HvsI_1/m_=_3716.3
# ordenada_HvsI_A/m_=_1297.0
# frecuencia_Hz_=_135091.43543583038

Tiempo_(s)	Campo_(V.s)	Magnetizacion_(V.s)	Campo_(kA/m)	Magnetizacion_(A/m)
0.000000e+00	-5.505498e-06	-1.273944e-09	-3.837400e+01	-8.287887e+01
1.000000e-08	-5.505808e-06	-1.268419e-09	-3.837616e+01	-8.287507e+01
2.000000e-08	-5.505890e-06	-1.261829e-09	-3.837673e+01	-8.287004e+01
3.000000e-08	-5.505645e-06	-1.260990e-09	-3.837503e+01	-8.286350e+01
4.000000e-08	-5.504929e-06	-1.261869e-09	-3.837004e+01	-8.285516e+01
5.000000e-08	-5.503710e-06	-1.252948e-09	-3.836154e+01	-8.284475e+01
6.000000e-08	-5.501938e-06	-1.243732e-09	-3.834919e+01	-8.283196e+01
7.000000e-08	-5.499542e-06	-1.259618e-09	-3.833249e+01	-8.281651e+01
8.000000e-08	-5.496509e-06	-1.301774e-09	-3.831135e+01	-8.279811e+01
9.000000e-08	-5.492990e-06	-1.321390e-09	-3.828682e+01	-8.277649e+01
1.000000e-07	-5.489083e-06	-1.309172e-09	-3.825959e+01	-8.275138e+01
1.100000e-07	-5.484846e-06	-1.274109e-09	-3.823005e+01	-8.272252e+01
1.200000e-07	-5.480358e-06	-1.237390e-09	-3.819878e+01	-8.268967e+01
1.300000e-07	-5.475626e-06	-1.210212e-09	-3.816580e+01	-8.265261e+01
1.400000e-07	-5.470530e-06	-1.260291e-09	-3.813027e+01	-8.261112e+01
1.500000e-07	-5.465070e-06	-1.250014e-09	-3.809221e+01	-8.256503e+01
1.600000e-07	-5.459318e-06	-1.246931e-09	-3.805212e+01	-8.251415e+01
1.700000e-07	-5.453263e-06	-1.253446e-09	-3.800992e+01	-8.245836e+01
1.800000e-07	-5.446684e-06	-1.296879e-09	-3.796406e+01	-8.239751e+01
1.900000e-07	-5.439589e-06	-1.299645e-09	-3.791461e+01	-8.233152e+01
2.000000e-07	-5.432254e-06	-1.216286e-09	-3.786349e+01	-8.226030e+01
2.100000e-07	-5.424690e-06	-1.229861e-09	-3.781076e+01	-8.218381e+01
2.200000e-07	-5.416821e-06	-1.263990e-09	-3.775592e+01	-8.210201e+01
2.300000e-07	-5.408660e-06	-1.298944e-09	-3.769903e+01	-8.201489e+01
2.400000e-07	-5.400227e-06	-1.243680e-09	-3.764026e+01	-8.192246e+01
2.500000e-07	-5.391274e-06	-1.243117e-09	-3.757785e+01	-8.182476e+01
2.600000e-07	-5.381496e-06	-1.217796e-09	-3.750969e+01	-8.172184e+01
2.700000e-07	-5.370964e-06	-1.219308e-09	-3.743629e+01	-8.161376e+01
2.800000e-07	-5.360010e-06	-1.195492e-09	-3.735994e+01	-8.150061e+01
2.900000e-07	-5.348691e-06	-1.232577e-09	-3.728104e+01	-8.138248e+01
3.000000e-07	-5.336906e-06	-1.229546e-09	-3.719890e+01	-8.125950e+01
3.100000e-07	-5.324739e-06	-1.199007e-09	-3.711409e+01	-8.113177e+01
3.200000e-07	-5.312193e-06	-1.182611e-09	-3.702664e+01	-8.099943e+01
3.300000e-07	-5.299264e-06	-1.197225e-09	-3.693653e+01	-8.086261e+01
3.400000e-07	-5.285868e-06	-1.184299e-09	-3.684316e+01	-8.072145e+01
3.500000e-07	-5.272052e-06	-1.171929e-09	-3.674685e+01	-8.057609e+01
3.600000e-07	-5.257988e-06	-1.196011e-09	-3.664883e+01	-8.042668e+01
3.700000e-07	-5.243499e-06	-1.200021e-09	-3.654784e+01	-8.027336e+01
3.800000e-07	-5.228446e-06	-1.195586e-09	-3.644292e+01	-8.011626e+01
3.900000e-07	-5.212820e-06	-1.195459e-09	-3.633400e+01	-7.995551e+01
4.000000e-07	-5.196606e-06	-1.181259e-09	-3.622099e+01	-7.979124e+01
4.100000e-07	-5.180031e-06	-1.155256e-09	-3.610546e+01	-7.962357e+01
4.200000e-07	-5.163149e-06	-1.189415e-09	-3.598779e+01	-7.945260e+01
4.300000e-07	-5.145931e-06	-1.192921e-09	-3.586778e+01	-7.927844e+01
4.400000e-07	-5.128342e-06	-1.170992e-09	-3.574518e+01	-7.910117e+01
4.500000e-07	-5.110434e-06	-1.177050e-09	-3.562036e+01	-7.892087e+01
4.600000e-07	-5.092199e-06	-1.210167e-09	-3.549326e+01	-7.873760e+01
4.700000e-07	-5.073424e-06	-1.147498e-09	-3.536239e+01	-7.855141e+01
4.800000e-07	-5.054290e-06	-1.150003e-09	-3.522903e+01	-7.836235e+01
4.900000e-07	-5.034918e-06	-1.202855e-09	-3.509400e+01	-7.817045e+01
5.000000e-07	-5.015348e-06	-1.191411e-09	-3.495760e+01	-7.797571e+01
5.100000e-07	-4.995621e-06	-1.123587e-09	-3.482010e+01	-7.777816e+01
5.200000e-07	-4.975567e-06	-1.176861e-09	-3.468032e+01	-7.757778e+01
5.300000e-07	-4.955124e-06	-1.188117e-09	-3.453783e+01	-7.737457e+01
5.400000e-07	-4.934296e-06	-1.133443e-09	-3.439265e+01	-7.716850e+01
5.500000e-07	-4.913164e-06	-1.133817e-09	-3.424536e+01	-7.695955e+01
5.600000e-07	-4.891782e-06	-1.178424e-09	-3.409633e+01	-7.674769e+01
5.700000e-07	-4.870064e-06	-1.130564e-09	-3.394495e+01	-7.653287e+01
5.800000e-07	-4.847970e-06	-1.129947e-09	-3.379095e+01	-7.631506e+01
5.900000e-07	-4.825549e-06	-1.175721e-09	-3.363468e+01	-7.609422e+01
6.000000e-07	-4.802842e-06	-1.147948e-09	-3.347641e+01	-7.587031e+01
6.100000e-07	-4.779739e-06	-1.101846e-09	-3.331538e+01	-7.564328e+01
6.200000e-07	-4.756294e-06	-1.133736e-09	-3.315196e+01	-7.541311e+01
6.300000e-07	-4.732593e-06	-1.129422e-09	-3.298676e+01	-7.517975e+01
6.400000e-07	-4.708690e-06	-1.091032e-09	-3.282015e+01	-7.494317e+01
6.500000e-07	-4.684554e-06	-1.114175e-09	-3.265192e+01	-7.470336e+01
6.600000e-07	-4.660035e-06	-1.128654e-09	-3.248103e+01	-7.446029e+01
6.700000e-07	-4.635068e-06	-1.097606e-09	-3.230700e+01	-7.421396e+01
6.800000e-07	-4.609542e-06	-1.099918e-09	-3.212908e+01	-7.396437e+01
6.900000e-07	-4.583469e-06	-1.126176e-09	-3.194735e+01	-7.371152e+01
7.000000e-07	-4.556939e-06	-1.099051e-09	-3.176243e+01	-7.345543e+01
7.100000e-07	-4.529973e-06	-1.088260e-09	-3.157448e+01	-7.319613e+01
7.200000e-07	-4.502638e-06	-1.104214e-09	-3.138395e+01	-7.293364e+01
7.300000e-07	-4.475059e-06	-1.105478e-09	-3.119172e+01	-7.266802e+01
7.400000e-07	-4.447300e-06	-1.082334e-09	-3.099824e+01	-7.239931e+01
7.500000e-07	-4.419396e-06	-1.087290e-09	-3.080374e+01	-7.212756e+01
7.600000e-07	-4.391333e-06	-1.078733e-09	-3.060813e+01	-7.185285e+01
7.700000e-07	-4.362944e-06	-1.068693e-09	-3.041026e+01	-7.157524e+01
7.800000e-07	-4.334113e-06	-1.066578e-09	-3.020930e+01	-7.129480e+01
7.900000e-07	-4.304973e-06	-1.078774e-09	-3.000620e+01	-7.101161e+01
8.000000e-07	-4.275535e-06	-1.069278e-09	-2.980101e+01	-7.072575e+01
8.100000e-07	-4.245819e-06	-1.067965e-09	-2.959389e+01	-7.043728e+01
8.200000e-07	-4.215912e-06	-1.066426e-09	-2.938543e+01	-7.014629e+01
8.300000e-07	-4.185734e-06	-1.060538e-09	-2.917509e+01	-6.985285e+01
8.400000e-07	-4.155256e-06	-1.046204e-09	-2.896265e+01	-6.955703e+01
8.500000e-07	-4.124404e-06	-1.045201e-09	-2.874761e+01	-6.925888e+01
8.600000e-07	-4.093151e-06	-1.036900e-09	-2.852977e+01	-6.895845e+01
8.700000e-07	-4.061750e-06	-1.029372e-09	-2.831090e+01	-6.865579e+01
8.800000e-07	-4.030226e-06	-1.030624e-09	-2.809117e+01	-6.835093e+01
8.900000e-07	-3.998474e-06	-1.037485e-09	-2.786986e+01	-6.804389e+01
9.000000e-07	-3.966579e-06	-1.030073e-09	-2.764754e+01	-6.773466e+01
9.100000e-07	-3.934418e-06	-1.022585e-09	-2.742338e+01	-6.742325e+01
9.200000e-07	-3.901856e-06	-1.018173e-09	-2.719642e+01	-6.710962e+01
9.300000e-07	-3.868914e-06	-1.005302e-09	-2.696681e+01	-6.679372e+01
9.400000e-07	-3.835611e-06	-9.949714e-10	-2.673468e+01	-6.647550e+01
9.500000e-07	-3.801914e-06	-9.931219e-10	-2.649981e+01	-6.615489e+01
9.600000e-07	-3.767742e-06	-9.870265e-10	-2.626163e+01	-6.583177e+01
9.700000e-07	-3.733080e-06	-9.736432e-10	-2.602003e+01	-6.550604e+01
9.800000e-07	-3.698034e-06	-9.754932e-10	-2.577576e+01	-6.517757e+01
9.900000e-07	-3.662738e-06	-9.775980e-10	-2.552974e+01	-6.484620e+01
1.000000e-06	-3.627263e-06	-9.709480e-10	-2.528247e+01	-6.451178e+01
1.010000e-06	-3.591645e-06	-9.615031e-10	-2.503421e+01	-6.417413e+01
1.020000e-06	-3.555921e-06	-9.571765e-10	-2.478521e+01	-6.383304e+01
1.030000e-06	-3.520064e-06	-9.426693e-10	-2.453528e+01	-6.348833e+01
1.040000e-06	-3.483988e-06	-9.338917e-10	-2.428383e+01	-6.313977e+01
1.050000e-06	-3.447658e-06	-9.292892e-10	-2.403061e+01	-6.278714e+01
1.060000e-06	-3.411106e-06	-9.253895e-10	-2.377583e+01	-6.243021e+01
1.070000e-06	-3.374343e-06	-9.168985e-10	-2.351959e+01	-6.206874e+01
1.080000e-06	-3.337311e-06	-9.168724e-10	-2.326147e+01	-6.170250e+01
1.090000e-06	-3.299997e-06	-9.108451e-10	-2.300139e+01	-6.133124e+01
1.100000e-06	-3.262443e-06	-9.008622e-10	-2.273963e+01	-6.095474e+01
1.110000e-06	-3.224653e-06	-8.924719e-10	-2.247623e+01	-6.057276e+01
1.120000e-06	-3.186543e-06	-8.879225e-10	-2.221060e+01	-6.018508e+01
1.130000e-06	-3.148331e-06	-8.780627e-10	-2.194426e+01	-5.979148e+01
1.140000e-06	-3.109948e-06	-8.706497e-10	-2.167673e+01	-5.939176e+01
1.150000e-06	-3.071221e-06	-8.624645e-10	-2.140679e+01	-5.898573e+01
1.160000e-06	-3.032347e-06	-8.541919e-10	-2.113584e+01	-5.857321e+01
1.170000e-06	-2.993353e-06	-8.463807e-10	-2.086404e+01	-5.815404e+01
1.180000e-06	-2.954208e-06	-8.446963e-10	-2.059120e+01	-5.772808e+01
1.190000e-06	-2.914870e-06	-8.428217e-10	-2.031701e+01	-5.729522e+01
1.200000e-06	-2.875333e-06	-8.375665e-10	-2.004143e+01	-5.685534e+01
1.210000e-06	-2.835633e-06	-8.315997e-10	-1.976471e+01	-5.640838e+01
1.220000e-06	-2.795862e-06	-8.253234e-10	-1.948750e+01	-5.595427e+01
1.230000e-06	-2.756026e-06	-8.145258e-10	-1.920984e+01	-5.549298e+01
1.240000e-06	-2.715972e-06	-8.044390e-10	-1.893066e+01	-5.502450e+01
1.250000e-06	-2.675687e-06	-7.972229e-10	-1.864987e+01	-5.454883e+01
1.260000e-06	-2.635177e-06	-7.860313e-10	-1.836751e+01	-5.406601e+01
1.270000e-06	-2.594475e-06	-7.751910e-10	-1.808381e+01	-5.357607e+01
1.280000e-06	-2.553499e-06	-7.673191e-10	-1.779820e+01	-5.307910e+01
1.290000e-06	-2.512116e-06	-7.631441e-10	-1.750976e+01	-5.257515e+01
1.300000e-06	-2.470425e-06	-7.576925e-10	-1.721917e+01	-5.206435e+01
1.310000e-06	-2.428498e-06	-7.527307e-10	-1.692693e+01	-5.154678e+01
1.320000e-06	-2.386249e-06	-7.419015e-10	-1.663245e+01	-5.102257e+01
1.330000e-06	-2.343705e-06	-7.279452e-10	-1.633592e+01	-5.049185e+01
1.340000e-06	-2.300897e-06	-7.154804e-10	-1.603753e+01	-4.995473e+01
1.350000e-06	-2.257807e-06	-7.071768e-10	-1.573719e+01	-4.941134e+01
1.360000e-06	-2.214545e-06	-6.988059e-10	-1.543565e+01	-4.886180e+01
1.370000e-06	-2.171141e-06	-6.938338e-10	-1.513312e+01	-4.830623e+01
1.380000e-06	-2.127633e-06	-6.895525e-10	-1.482986e+01	-4.774474e+01
1.390000e-06	-2.084053e-06	-6.862165e-10	-1.452611e+01	-4.717741e+01
1.400000e-06	-2.040409e-06	-6.775662e-10	-1.422190e+01	-4.660432e+01
1.410000e-06	-1.996663e-06	-6.693756e-10	-1.391699e+01	-4.602552e+01
1.420000e-06	-1.952825e-06	-6.597338e-10	-1.361143e+01	-4.544105e+01
1.430000e-06	-1.908929e-06	-6.503006e-10	-1.330547e+01	-4.485089e+01
1.440000e-06	-1.865042e-06	-6.398631e-10	-1.299958e+01	-4.425503e+01
1.450000e-06	-1.821062e-06	-6.296893e-10	-1.269303e+01	-4.365340e+01
1.460000e-06	-1.776882e-06	-6.207008e-10	-1.238509e+01	-4.304591e+01
1.470000e-06	-1.732595e-06	-6.127395e-10	-1.207640e+01	-4.243243e+01
1.480000e-06	-1.688185e-06	-6.040474e-10	-1.176686e+01	-4.181277e+01
1.490000e-06	-1.643661e-06	-5.956366e-10	-1.145652e+01	-4.118674e+01
1.500000e-06	-1.598987e-06	-5.880389e-10	-1.114514e+01	-4.055407e+01
1.510000e-06	-1.554141e-06	-5.812277e-10	-1.083256e+01	-3.991447e+01
1.520000e-06	-1.509208e-06	-5.722666e-10	-1.051937e+01	-3.926761e+01
1.530000e-06	-1.464130e-06	-5.612646e-10	-1.020516e+01	-3.861311e+01
1.540000e-06	-1.418925e-06	-5.471151e-10	-9.890082e+00	-3.795056e+01
1.550000e-06	-1.373674e-06	-5.296770e-10	-9.574678e+00	-3.727949e+01
1.560000e-06	-1.328354e-06	-5.150030e-10	-9.258795e+00	-3.659943e+01
1.570000e-06	-1.282896e-06	-5.013274e-10	-8.941947e+00	-3.590985e+01
1.580000e-06	-1.237341e-06	-4.911979e-10	-8.624422e+00	-3.521018e+01
1.590000e-06	-1.191685e-06	-4.836790e-10	-8.306191e+00	-3.449986e+01
1.600000e-06	-1.145938e-06	-4.781380e-10	-7.987330e+00	-3.377828e+01
1.610000e-06	-1.100151e-06	-4.692370e-10	-7.668190e+00	-3.304482e+01
1.620000e-06	-1.054250e-06	-4.560115e-10	-7.348256e+00	-3.229883e+01
1.630000e-06	-1.008226e-06	-4.430594e-10	-7.027461e+00	-3.153968e+01
1.640000e-06	-9.621781e-07	-4.338170e-10	-6.706501e+00	-3.076671e+01
1.650000e-06	-9.160775e-07	-4.218415e-10	-6.385174e+00	-2.997928e+01
1.660000e-06	-8.698829e-07	-4.083473e-10	-6.063192e+00	-2.917674e+01
1.670000e-06	-8.236506e-07	-3.958784e-10	-5.740947e+00	-2.835847e+01
1.680000e-06	-7.774071e-07	-3.816320e-10	-5.418624e+00	-2.752388e+01
1.690000e-06	-7.311443e-07	-3.679856e-10	-5.096166e+00	-2.667236e+01
1.700000e-06	-6.848639e-07	-3.581183e-10	-4.773586e+00	-2.580339e+01
1.710000e-06	-6.386451e-07	-3.470840e-10	-4.451436e+00	-2.491645e+01
1.720000e-06	-5.923017e-07	-3.341165e-10	-4.128416e+00	-2.401108e+01
1.730000e-06	-5.458278e-07	-3.159709e-10	-3.804487e+00	-2.308686e+01
1.740000e-06	-4.992769e-07	-2.940399e-10	-3.480022e+00	-2.214344e+01
1.750000e-06	-4.526373e-07	-2.718174e-10	-3.154938e+00	-2.118052e+01
1.760000e-06	-4.060106e-07	-2.556765e-10	-2.829945e+00	-2.019787e+01
1.770000e-06	-3.594183e-07	-2.467188e-10	-2.505190e+00	-1.919532e+01
1.780000e-06	-3.128622e-07	-2.392506e-10	-2.180689e+00	-1.817280e+01
1.790000e-06	-2.661824e-07	-2.288394e-10	-1.855324e+00	-1.713029e+01
1.800000e-06	-2.193870e-07	-2.144974e-10	-1.529155e+00	-1.606787e+01
1.810000e-06	-1.726529e-07	-1.966477e-10	-1.203412e+00	-1.498568e+01
1.820000e-06	-1.260478e-07	-1.777952e-10	-8.785687e-01	-1.388398e+01
1.830000e-06	-7.950384e-08	-1.623121e-10	-5.541517e-01	-1.276310e+01
1.840000e-06	-3.289162e-08	-1.498505e-10	-2.292587e-01	-1.162343e+01
1.850000e-06	1.378811e-08	-1.367490e-10	9.610484e-02	-1.046550e+01
1.860000e-06	6.042641e-08	-1.215064e-10	4.211796e-01	-9.289880e+00
1.870000e-06	1.070471e-07	-1.060785e-10	7.461317e-01	-8.097248e+00
1.880000e-06	1.537618e-07	-8.719131e-11	1.071739e+00	-6.888359e+00
1.890000e-06	2.005746e-07	-6.679219e-11	1.398030e+00	-5.664047e+00
1.900000e-06	2.473219e-07	-4.964437e-11	1.723865e+00	-4.425225e+00
1.910000e-06	2.939798e-07	-3.453888e-11	2.049076e+00	-3.172877e+00
1.920000e-06	3.407143e-07	-1.851185e-11	2.374821e+00	-1.908056e+00
1.930000e-06	3.873969e-07	-5.156035e-12	2.700205e+00	-6.318777e-01
1.940000e-06	4.339018e-07	8.961398e-12	3.024349e+00	6.544849e-01
1.950000e-06	4.803299e-07	2.884100e-11	3.347959e+00	1.949807e+00
1.960000e-06	5.267625e-07	5.123301e-11	3.671600e+00	3.252817e+00
1.970000e-06	5.731969e-07	7.163061e-11	3.995254e+00	4.562208e+00
1.980000e-06	6.194951e-07	9.029089e-11	4.317958e+00	5.876639e+00
1.990000e-06	6.656646e-07	1.060836e-10	4.639765e+00	7.194745e+00
2.000000e-06	7.118666e-07	1.195172e-10	4.961799e+00	8.515146e+00
2.010000e-06	7.581292e-07	1.321360e-10	5.284254e+00	9.836450e+00
2.020000e-06	8.043473e-07	1.494523e-10	5.606401e+00	1.115727e+01
2.030000e-06	8.504459e-07	1.718934e-10	5.927713e+00	1.247621e+01
2.040000e-06	8.964458e-07	1.943845e-10	6.248338e+00	1.379190e+01
2.050000e-06	9.423844e-07	2.149669e-10	6.568536e+00	1.510299e+01
2.060000e-06	9.882326e-07	2.330356e-10	6.888104e+00	1.640815e+01
2.070000e-06	1.034073e-06	2.507558e-10	7.207614e+00	1.770610e+01
2.080000e-06	1.079869e-06	2.693173e-10	7.526822e+00	1.899557e+01
2.090000e-06	1.125577e-06	2.857008e-10	7.845413e+00	2.027537e+01
2.100000e-06	1.171163e-06	3.020049e-10	8.163155e+00	2.154435e+01
2.110000e-06	1.216616e-06	3.212099e-10	8.479968e+00	2.280142e+01
2.120000e-06	1.262103e-06	3.391490e-10	8.797018e+00	2.404553e+01
2.130000e-06	1.307510e-06	3.558785e-10	9.113508e+00	2.527573e+01
2.140000e-06	1.352733e-06	3.743133e-10	9.428719e+00	2.649113e+01
2.150000e-06	1.397946e-06	3.932707e-10	9.743859e+00	2.769090e+01
2.160000e-06	1.443112e-06	4.089280e-10	1.005867e+01	2.887429e+01
2.170000e-06	1.488095e-06	4.246245e-10	1.037220e+01	3.004064e+01
2.180000e-06	1.532994e-06	4.430223e-10	1.068516e+01	3.118936e+01
2.190000e-06	1.577803e-06	4.603156e-10	1.099749e+01	3.231994e+01
2.200000e-06	1.622428e-06	4.740946e-10	1.130852e+01	3.343193e+01
2.210000e-06	1.666881e-06	4.874736e-10	1.161837e+01	3.452499e+01
2.220000e-06	1.711242e-06	5.015713e-10	1.192757e+01	3.559884e+01
2.230000e-06	1.755487e-06	5.173211e-10	1.223596e+01	3.665327e+01
2.240000e-06	1.799578e-06	5.322307e-10	1.254328e+01	3.768816e+01
2.250000e-06	1.843600e-06	5.465433e-10	1.285012e+01	3.870343e+01
2.260000e-06	1.887534e-06	5.606721e-10	1.315634e+01	3.969910e+01
2.270000e-06	1.931370e-06	5.735771e-10	1.346189e+01	4.067522e+01
2.280000e-06	1.975157e-06	5.909047e-10	1.376709e+01	4.163193e+01
2.290000e-06	2.018888e-06	6.075037e-10	1.407190e+01	4.256940e+01
2.300000e-06	2.062573e-06	6.227972e-10	1.437639e+01	4.348786e+01
2.310000e-06	2.106178e-06	6.337564e-10	1.468032e+01	4.438758e+01
2.320000e-06	2.149721e-06	6.437818e-10	1.498382e+01	4.526887e+01
2.330000e-06	2.193211e-06	6.554150e-10	1.528695e+01	4.613208e+01
2.340000e-06	2.236596e-06	6.670056e-10	1.558935e+01	4.697758e+01
2.350000e-06	2.279824e-06	6.817903e-10	1.589066e+01	4.780576e+01
2.360000e-06	2.322794e-06	7.006371e-10	1.619016e+01	4.861705e+01
2.370000e-06	2.365518e-06	7.193852e-10	1.648796e+01	4.941187e+01
2.380000e-06	2.407895e-06	7.316987e-10	1.678333e+01	5.019066e+01
2.390000e-06	2.449830e-06	7.406869e-10	1.707562e+01	5.095386e+01
2.400000e-06	2.491435e-06	7.475445e-10	1.736561e+01	5.170192e+01
2.410000e-06	2.532739e-06	7.520359e-10	1.765351e+01	5.243527e+01
2.420000e-06	2.573704e-06	7.572601e-10	1.793903e+01	5.315435e+01
2.430000e-06	2.614422e-06	7.679550e-10	1.822285e+01	5.385956e+01
2.440000e-06	2.654911e-06	7.824830e-10	1.850506e+01	5.455132e+01
2.450000e-06	2.695128e-06	7.958003e-10	1.878538e+01	5.523001e+01
2.460000e-06	2.735301e-06	8.067593e-10	1.906539e+01	5.589600e+01
2.470000e-06	2.775389e-06	8.178314e-10	1.934481e+01	5.654963e+01
2.480000e-06	2.815255e-06	8.265393e-10	1.962268e+01	5.719122e+01
2.490000e-06	2.854981e-06	8.336130e-10	1.989957e+01	5.782107e+01
2.500000e-06	2.894608e-06	8.390056e-10	2.017577e+01	5.843945e+01
2.510000e-06	2.934082e-06	8.453948e-10	2.045092e+01	5.904662e+01
2.520000e-06	2.973328e-06	8.558037e-10	2.072447e+01	5.964279e+01
2.530000e-06	3.012456e-06	8.680587e-10	2.099719e+01	6.022816e+01
2.540000e-06	3.051364e-06	8.790466e-10	2.126839e+01	6.080293e+01
2.550000e-06	3.089916e-06	8.881156e-10	2.153710e+01	6.136723e+01
2.560000e-06	3.128229e-06	8.952501e-10	2.180414e+01	6.192120e+01
2.570000e-06	3.166396e-06	9.017161e-10	2.207018e+01	6.246497e+01
2.580000e-06	3.204389e-06	9.078843e-10	2.233499e+01	6.299862e+01
2.590000e-06	3.242113e-06	9.154925e-10	2.259793e+01	6.352226e+01
2.600000e-06	3.279696e-06	9.250075e-10	2.285989e+01	6.403595e+01
2.610000e-06	3.317161e-06	9.329522e-10	2.312102e+01	6.453976e+01
2.620000e-06	3.354440e-06	9.375741e-10	2.338086e+01	6.503375e+01
2.630000e-06	3.391405e-06	9.412373e-10	2.363851e+01	6.551797e+01
2.640000e-06	3.427986e-06	9.428596e-10	2.389349e+01	6.599247e+01
2.650000e-06	3.464344e-06	9.462980e-10	2.414691e+01	6.645732e+01
2.660000e-06	3.500526e-06	9.546638e-10	2.439910e+01	6.691256e+01
2.670000e-06	3.536508e-06	9.628174e-10	2.464990e+01	6.735826e+01
2.680000e-06	3.572329e-06	9.710049e-10	2.489958e+01	6.779449e+01
2.690000e-06	3.608057e-06	9.792741e-10	2.514860e+01	6.822132e+01
2.700000e-06	3.643673e-06	9.851066e-10	2.539686e+01	6.863886e+01
2.710000e-06	3.679107e-06	9.877300e-10	2.564383e+01	6.904720e+01
2.720000e-06	3.714284e-06	9.896547e-10	2.588902e+01	6.944645e+01
2.730000e-06	3.749150e-06	9.931030e-10	2.613204e+01	6.983676e+01
2.740000e-06	3.783662e-06	1.000273e-09	2.637260e+01	7.021826e+01
2.750000e-06	3.817681e-06	1.008632e-09	2.660971e+01	7.059112e+01
2.760000e-06	3.851140e-06	1.016278e-09	2.684292e+01	7.095552e+01
2.770000e-06	3.884160e-06	1.023842e-09	2.707308e+01	7.131165e+01
2.780000e-06	3.916786e-06	1.030520e-09	2.730048e+01	7.165971e+01
2.790000e-06	3.949090e-06	1.035544e-09	2.752565e+01	7.199993e+01
2.800000e-06	3.981171e-06	1.039465e-09	2.774926e+01	7.233254e+01
2.810000e-06	4.013038e-06	1.041745e-09	2.797137e+01	7.265779e+01
2.820000e-06	4.044704e-06	1.046383e-09	2.819209e+01	7.297593e+01
2.830000e-06	4.076175e-06	1.052469e-09	2.841145e+01	7.328722e+01
2.840000e-06	4.107434e-06	1.058414e-09	2.862932e+01	7.359193e+01
2.850000e-06	4.138353e-06	1.066086e-09	2.884484e+01	7.389033e+01
2.860000e-06	4.168897e-06	1.075006e-09	2.905773e+01	7.418270e+01
2.870000e-06	4.199201e-06	1.081425e-09	2.926895e+01	7.446930e+01
2.880000e-06	4.229248e-06	1.084752e-09	2.947838e+01	7.475040e+01
2.890000e-06	4.258996e-06	1.086864e-09	2.968573e+01	7.502627e+01
2.900000e-06	4.288505e-06	1.090045e-09	2.989141e+01	7.529716e+01
