# Temperatura_=_-0.8
# Concentracion g/m^3_=_1620.0
# C_Vs_to_Am_M_A/Vsm_=_65563218390.804596
# pendiente_HvsI_1/m_=_3716.3
# ordenada_HvsI_A/m_=_1297.0
# frecuencia_Hz_=_135101.2604066486

Tiempo_(s)	Campo_(V.s)	Magnetizacion_(V.s)	Campo_(kA/m)	Magnetizacion_(A/m)
0.000000e+00	-5.514185e-06	-1.235640e-09	-3.836885e+01	-8.165558e+01
1.000000e-08	-5.514442e-06	-1.233228e-09	-3.837064e+01	-8.162907e+01
2.000000e-08	-5.514499e-06	-1.230650e-09	-3.837104e+01	-8.160352e+01
3.000000e-08	-5.514129e-06	-1.228792e-09	-3.836846e+01	-8.157884e+01
4.000000e-08	-5.513275e-06	-1.223523e-09	-3.836252e+01	-8.155491e+01
5.000000e-08	-5.511937e-06	-1.210022e-09	-3.835321e+01	-8.153159e+01
6.000000e-08	-5.510003e-06	-1.197253e-09	-3.833975e+01	-8.150871e+01
7.000000e-08	-5.507426e-06	-1.219260e-09	-3.832183e+01	-8.148609e+01
8.000000e-08	-5.504274e-06	-1.278638e-09	-3.829989e+01	-8.146352e+01
9.000000e-08	-5.500663e-06	-1.326738e-09	-3.827477e+01	-8.144079e+01
1.000000e-07	-5.496618e-06	-1.285325e-09	-3.824662e+01	-8.141765e+01
1.100000e-07	-5.492340e-06	-1.173090e-09	-3.821685e+01	-8.139387e+01
1.200000e-07	-5.487873e-06	-1.153926e-09	-3.818577e+01	-8.136917e+01
1.300000e-07	-5.483007e-06	-1.233347e-09	-3.815191e+01	-8.134330e+01
1.400000e-07	-5.477700e-06	-1.272984e-09	-3.811498e+01	-8.131596e+01
1.500000e-07	-5.472072e-06	-1.189998e-09	-3.807582e+01	-8.128688e+01
1.600000e-07	-5.466225e-06	-1.149578e-09	-3.803514e+01	-8.125577e+01
1.700000e-07	-5.459946e-06	-1.243489e-09	-3.799145e+01	-8.122235e+01
1.800000e-07	-5.453104e-06	-1.299532e-09	-3.794384e+01	-8.118634e+01
1.900000e-07	-5.445876e-06	-1.222762e-09	-3.789355e+01	-8.114746e+01
2.000000e-07	-5.438398e-06	-1.147802e-09	-3.784151e+01	-8.110543e+01
2.100000e-07	-5.430635e-06	-1.228863e-09	-3.778749e+01	-8.105999e+01
2.200000e-07	-5.422681e-06	-1.309435e-09	-3.773215e+01	-8.101090e+01
2.300000e-07	-5.414490e-06	-1.275026e-09	-3.767516e+01	-8.095791e+01
2.400000e-07	-5.405747e-06	-1.201306e-09	-3.761432e+01	-8.090079e+01
2.500000e-07	-5.396318e-06	-1.227448e-09	-3.754872e+01	-8.083935e+01
2.600000e-07	-5.386269e-06	-1.248244e-09	-3.747879e+01	-8.077337e+01
2.700000e-07	-5.375712e-06	-1.212549e-09	-3.740533e+01	-8.070270e+01
2.800000e-07	-5.364634e-06	-1.190972e-09	-3.732825e+01	-8.062718e+01
2.900000e-07	-5.353050e-06	-1.237014e-09	-3.724765e+01	-8.054667e+01
3.000000e-07	-5.341169e-06	-1.241677e-09	-3.716498e+01	-8.046106e+01
3.100000e-07	-5.328938e-06	-1.191815e-09	-3.707987e+01	-8.037025e+01
3.200000e-07	-5.316214e-06	-1.182826e-09	-3.699133e+01	-8.027419e+01
3.300000e-07	-5.303062e-06	-1.210198e-09	-3.689982e+01	-8.017281e+01
3.400000e-07	-5.289587e-06	-1.205860e-09	-3.680606e+01	-8.006609e+01
3.500000e-07	-5.275815e-06	-1.181641e-09	-3.671023e+01	-7.995403e+01
3.600000e-07	-5.261550e-06	-1.193689e-09	-3.661097e+01	-7.983663e+01
3.700000e-07	-5.246698e-06	-1.208680e-09	-3.650762e+01	-7.971393e+01
3.800000e-07	-5.231285e-06	-1.194543e-09	-3.640038e+01	-7.958598e+01
3.900000e-07	-5.215273e-06	-1.176843e-09	-3.628897e+01	-7.945286e+01
4.000000e-07	-5.198842e-06	-1.191900e-09	-3.617463e+01	-7.931463e+01
4.100000e-07	-5.182175e-06	-1.197770e-09	-3.605866e+01	-7.917141e+01
4.200000e-07	-5.165173e-06	-1.180708e-09	-3.594036e+01	-7.902331e+01
4.300000e-07	-5.147847e-06	-1.175297e-09	-3.581980e+01	-7.887045e+01
4.400000e-07	-5.130314e-06	-1.208927e-09	-3.569780e+01	-7.871296e+01
4.500000e-07	-5.112412e-06	-1.200273e-09	-3.557323e+01	-7.855099e+01
4.600000e-07	-5.093998e-06	-1.160998e-09	-3.544510e+01	-7.838470e+01
4.700000e-07	-5.075161e-06	-1.158527e-09	-3.531404e+01	-7.821423e+01
4.800000e-07	-5.055986e-06	-1.197602e-09	-3.518061e+01	-7.803974e+01
4.900000e-07	-5.036507e-06	-1.183207e-09	-3.504507e+01	-7.786140e+01
5.000000e-07	-5.016845e-06	-1.163053e-09	-3.490826e+01	-7.767937e+01
5.100000e-07	-4.996997e-06	-1.176180e-09	-3.477016e+01	-7.749380e+01
5.200000e-07	-4.976781e-06	-1.183130e-09	-3.462948e+01	-7.730485e+01
5.300000e-07	-4.956164e-06	-1.162883e-09	-3.448603e+01	-7.711267e+01
5.400000e-07	-4.935313e-06	-1.180439e-09	-3.434094e+01	-7.691742e+01
5.500000e-07	-4.914099e-06	-1.184144e-09	-3.419333e+01	-7.671922e+01
5.600000e-07	-4.892485e-06	-1.146050e-09	-3.404294e+01	-7.651821e+01
5.700000e-07	-4.870588e-06	-1.142227e-09	-3.389057e+01	-7.631452e+01
5.800000e-07	-4.848404e-06	-1.178436e-09	-3.373621e+01	-7.610824e+01
5.900000e-07	-4.825904e-06	-1.163978e-09	-3.357965e+01	-7.589950e+01
6.000000e-07	-4.803050e-06	-1.142495e-09	-3.342063e+01	-7.568837e+01
6.100000e-07	-4.779866e-06	-1.163668e-09	-3.325931e+01	-7.547493e+01
6.200000e-07	-4.756348e-06	-1.162133e-09	-3.309567e+01	-7.525926e+01
6.300000e-07	-4.732606e-06	-1.131967e-09	-3.293047e+01	-7.504140e+01
6.400000e-07	-4.708656e-06	-1.135000e-09	-3.276382e+01	-7.482140e+01
6.500000e-07	-4.684371e-06	-1.143268e-09	-3.259483e+01	-7.459930e+01
6.600000e-07	-4.659663e-06	-1.120267e-09	-3.242292e+01	-7.437511e+01
6.700000e-07	-4.634426e-06	-1.119064e-09	-3.224731e+01	-7.414884e+01
6.800000e-07	-4.608636e-06	-1.133993e-09	-3.206786e+01	-7.392048e+01
6.900000e-07	-4.582337e-06	-1.127036e-09	-3.188486e+01	-7.369004e+01
7.000000e-07	-4.555532e-06	-1.113499e-09	-3.169835e+01	-7.345748e+01
7.100000e-07	-4.528331e-06	-1.118937e-09	-3.150908e+01	-7.322277e+01
7.200000e-07	-4.500825e-06	-1.111163e-09	-3.131768e+01	-7.298587e+01
7.300000e-07	-4.473141e-06	-1.098541e-09	-3.112506e+01	-7.274675e+01
7.400000e-07	-4.445330e-06	-1.095330e-09	-3.093154e+01	-7.250534e+01
7.500000e-07	-4.417287e-06	-1.093862e-09	-3.073641e+01	-7.226159e+01
7.600000e-07	-4.388988e-06	-1.082475e-09	-3.053950e+01	-7.201543e+01
7.700000e-07	-4.360354e-06	-1.080024e-09	-3.034026e+01	-7.176680e+01
7.800000e-07	-4.331415e-06	-1.076852e-09	-3.013890e+01	-7.151564e+01
7.900000e-07	-4.302229e-06	-1.074592e-09	-2.993581e+01	-7.126185e+01
8.000000e-07	-4.272715e-06	-1.070770e-09	-2.973045e+01	-7.100539e+01
8.100000e-07	-4.242902e-06	-1.066885e-09	-2.952300e+01	-7.074616e+01
8.200000e-07	-4.212816e-06	-1.058238e-09	-2.931366e+01	-7.048409e+01
8.300000e-07	-4.182372e-06	-1.054819e-09	-2.910182e+01	-7.021912e+01
8.400000e-07	-4.151601e-06	-1.048887e-09	-2.888771e+01	-6.995117e+01
8.500000e-07	-4.120543e-06	-1.037604e-09	-2.867160e+01	-6.968017e+01
8.600000e-07	-4.089235e-06	-1.029318e-09	-2.845375e+01	-6.940606e+01
8.700000e-07	-4.057792e-06	-1.025790e-09	-2.823497e+01	-6.912875e+01
8.800000e-07	-4.026161e-06	-1.018120e-09	-2.801487e+01	-6.884820e+01
8.900000e-07	-3.994333e-06	-1.013927e-09	-2.779341e+01	-6.856434e+01
9.000000e-07	-3.962317e-06	-1.013575e-09	-2.757064e+01	-6.827712e+01
9.100000e-07	-3.930121e-06	-1.009340e-09	-2.734661e+01	-6.798647e+01
9.200000e-07	-3.897628e-06	-1.002833e-09	-2.712051e+01	-6.769235e+01
9.300000e-07	-3.864628e-06	-1.000242e-09	-2.689089e+01	-6.739471e+01
9.400000e-07	-3.831101e-06	-9.941967e-10	-2.665760e+01	-6.709350e+01
9.500000e-07	-3.797115e-06	-9.831903e-10	-2.642112e+01	-6.678867e+01
9.600000e-07	-3.762720e-06	-9.730278e-10	-2.618180e+01	-6.648019e+01
9.700000e-07	-3.727901e-06	-9.652030e-10	-2.593952e+01	-6.616801e+01
9.800000e-07	-3.692709e-06	-9.622168e-10	-2.569464e+01	-6.585209e+01
9.900000e-07	-3.657271e-06	-9.607427e-10	-2.544806e+01	-6.553239e+01
1.000000e-06	-3.621670e-06	-9.622134e-10	-2.520034e+01	-6.520888e+01
1.010000e-06	-3.585937e-06	-9.585799e-10	-2.495170e+01	-6.488151e+01
1.020000e-06	-3.550135e-06	-9.555966e-10	-2.470259e+01	-6.455024e+01
1.030000e-06	-3.514232e-06	-9.497551e-10	-2.445276e+01	-6.421505e+01
1.040000e-06	-3.478129e-06	-9.434810e-10	-2.420155e+01	-6.387587e+01
1.050000e-06	-3.441784e-06	-9.348792e-10	-2.394865e+01	-6.353268e+01
1.060000e-06	-3.405120e-06	-9.292595e-10	-2.369354e+01	-6.318543e+01
1.070000e-06	-3.368165e-06	-9.218132e-10	-2.343640e+01	-6.283406e+01
1.080000e-06	-3.330964e-06	-9.137602e-10	-2.317755e+01	-6.247853e+01
1.090000e-06	-3.293524e-06	-9.075602e-10	-2.291703e+01	-6.211879e+01
1.100000e-06	-3.255842e-06	-9.057008e-10	-2.265483e+01	-6.175477e+01
1.110000e-06	-3.217889e-06	-9.033073e-10	-2.239074e+01	-6.138642e+01
1.120000e-06	-3.179756e-06	-9.008010e-10	-2.212541e+01	-6.101368e+01
1.130000e-06	-3.141490e-06	-8.990106e-10	-2.185915e+01	-6.063648e+01
1.140000e-06	-3.103051e-06	-8.945961e-10	-2.159168e+01	-6.025475e+01
1.150000e-06	-3.064308e-06	-8.809382e-10	-2.132210e+01	-5.986841e+01
1.160000e-06	-3.025289e-06	-8.668780e-10	-2.105059e+01	-5.947738e+01
1.170000e-06	-2.986077e-06	-8.574483e-10	-2.077775e+01	-5.908159e+01
1.180000e-06	-2.946657e-06	-8.533128e-10	-2.050346e+01	-5.868095e+01
1.190000e-06	-2.907155e-06	-8.528146e-10	-2.022860e+01	-5.827536e+01
1.200000e-06	-2.867545e-06	-8.525714e-10	-1.995298e+01	-5.786474e+01
1.210000e-06	-2.827751e-06	-8.491712e-10	-1.967608e+01	-5.744898e+01
1.220000e-06	-2.787847e-06	-8.400385e-10	-1.939843e+01	-5.702800e+01
1.230000e-06	-2.747797e-06	-8.302035e-10	-1.911975e+01	-5.660167e+01
1.240000e-06	-2.707468e-06	-8.183787e-10	-1.883913e+01	-5.616991e+01
1.250000e-06	-2.666932e-06	-8.068692e-10	-1.855707e+01	-5.573259e+01
1.260000e-06	-2.626240e-06	-7.970050e-10	-1.827393e+01	-5.528961e+01
1.270000e-06	-2.585333e-06	-7.875619e-10	-1.798929e+01	-5.484085e+01
1.280000e-06	-2.544041e-06	-7.804908e-10	-1.770197e+01	-5.438618e+01
1.290000e-06	-2.502497e-06	-7.772411e-10	-1.741290e+01	-5.392548e+01
1.300000e-06	-2.460729e-06	-7.699984e-10	-1.712227e+01	-5.345862e+01
1.310000e-06	-2.418566e-06	-7.585314e-10	-1.682889e+01	-5.298548e+01
1.320000e-06	-2.376099e-06	-7.474474e-10	-1.653339e+01	-5.250591e+01
1.330000e-06	-2.333245e-06	-7.393698e-10	-1.623521e+01	-5.201978e+01
1.340000e-06	-2.290102e-06	-7.310572e-10	-1.593501e+01	-5.152693e+01
1.350000e-06	-2.246829e-06	-7.229960e-10	-1.563391e+01	-5.102721e+01
1.360000e-06	-2.203421e-06	-7.134328e-10	-1.533186e+01	-5.052048e+01
1.370000e-06	-2.159890e-06	-7.038361e-10	-1.502897e+01	-5.000655e+01
1.380000e-06	-2.116298e-06	-6.959732e-10	-1.472565e+01	-4.948527e+01
1.390000e-06	-2.072604e-06	-6.894355e-10	-1.442161e+01	-4.895644e+01
1.400000e-06	-2.028781e-06	-6.813946e-10	-1.411668e+01	-4.841989e+01
1.410000e-06	-1.984929e-06	-6.741135e-10	-1.381155e+01	-4.787540e+01
1.420000e-06	-1.941045e-06	-6.676807e-10	-1.350620e+01	-4.732279e+01
1.430000e-06	-1.897104e-06	-6.598696e-10	-1.320045e+01	-4.676183e+01
1.440000e-06	-1.853100e-06	-6.509533e-10	-1.289426e+01	-4.619228e+01
1.450000e-06	-1.808984e-06	-6.410517e-10	-1.258729e+01	-4.561392e+01
1.460000e-06	-1.764776e-06	-6.274360e-10	-1.227969e+01	-4.502649e+01
1.470000e-06	-1.720392e-06	-6.124163e-10	-1.197085e+01	-4.442972e+01
1.480000e-06	-1.675781e-06	-6.001684e-10	-1.166044e+01	-4.382334e+01
1.490000e-06	-1.631073e-06	-5.931256e-10	-1.134935e+01	-4.320706e+01
1.500000e-06	-1.586360e-06	-5.890637e-10	-1.103823e+01	-4.258058e+01
1.510000e-06	-1.541582e-06	-5.843939e-10	-1.072665e+01	-4.194358e+01
1.520000e-06	-1.496626e-06	-5.775265e-10	-1.041384e+01	-4.129572e+01
1.530000e-06	-1.451540e-06	-5.664895e-10	-1.010012e+01	-4.063668e+01
1.540000e-06	-1.406377e-06	-5.506726e-10	-9.785865e+00	-3.996609e+01
1.550000e-06	-1.361128e-06	-5.337571e-10	-9.471017e+00	-3.928360e+01
1.560000e-06	-1.315692e-06	-5.182421e-10	-9.154863e+00	-3.858882e+01
1.570000e-06	-1.270124e-06	-5.044428e-10	-8.837787e+00	-3.788137e+01
1.580000e-06	-1.224487e-06	-4.934864e-10	-8.520236e+00	-3.716086e+01
1.590000e-06	-1.178743e-06	-4.865312e-10	-8.201943e+00	-3.642688e+01
1.600000e-06	-1.132957e-06	-4.817578e-10	-7.883355e+00	-3.567904e+01
1.610000e-06	-1.087119e-06	-4.736307e-10	-7.564401e+00	-3.491691e+01
1.620000e-06	-1.041243e-06	-4.640658e-10	-7.245186e+00	-3.414011e+01
1.630000e-06	-9.952767e-07	-4.552386e-10	-6.925344e+00	-3.334820e+01
1.640000e-06	-9.492221e-07	-4.446508e-10	-6.604887e+00	-3.254079e+01
1.650000e-06	-9.031067e-07	-4.294049e-10	-6.284006e+00	-3.171748e+01
1.660000e-06	-8.569094e-07	-4.116200e-10	-5.962555e+00	-3.087788e+01
1.670000e-06	-8.106204e-07	-3.946337e-10	-5.640467e+00	-3.002161e+01
1.680000e-06	-7.642360e-07	-3.803589e-10	-5.317715e+00	-2.914830e+01
1.690000e-06	-7.177784e-07	-3.692840e-10	-4.994452e+00	-2.825761e+01
1.700000e-06	-6.713400e-07	-3.592102e-10	-4.671325e+00	-2.734922e+01
1.710000e-06	-6.249468e-07	-3.472059e-10	-4.348511e+00	-2.642282e+01
1.720000e-06	-5.784020e-07	-3.338700e-10	-4.024642e+00	-2.547815e+01
1.730000e-06	-5.317804e-07	-3.179039e-10	-3.700239e+00	-2.451496e+01
1.740000e-06	-4.851810e-07	-2.995508e-10	-3.375991e+00	-2.353306e+01
1.750000e-06	-4.385549e-07	-2.811260e-10	-3.051557e+00	-2.253227e+01
1.760000e-06	-3.919336e-07	-2.652953e-10	-2.727156e+00	-2.151247e+01
1.770000e-06	-3.452593e-07	-2.524426e-10	-2.402387e+00	-2.047358e+01
1.780000e-06	-2.985048e-07	-2.405965e-10	-2.077059e+00	-1.941558e+01
1.790000e-06	-2.517535e-07	-2.277175e-10	-1.751754e+00	-1.833847e+01
1.800000e-06	-2.049899e-07	-2.113641e-10	-1.426363e+00	-1.724234e+01
1.810000e-06	-1.582062e-07	-1.928405e-10	-1.100832e+00	-1.612731e+01
1.820000e-06	-1.114036e-07	-1.763338e-10	-7.751695e-01	-1.499357e+01
1.830000e-06	-6.460804e-08	-1.629818e-10	-4.495563e-01	-1.384137e+01
1.840000e-06	-1.786669e-08	-1.484619e-10	-1.243202e-01	-1.267102e+01
1.850000e-06	2.883304e-08	-1.326158e-10	2.006263e-01	-1.148288e+01
1.860000e-06	7.555248e-08	-1.174869e-10	5.257100e-01	-1.027740e+01
1.870000e-06	1.223422e-07	-9.956194e-11	8.512824e-01	-9.055075e+00
1.880000e-06	1.692020e-07	-7.840604e-11	1.177343e+00	-7.816474e+00
1.890000e-06	2.159618e-07	-5.833828e-11	1.502707e+00	-6.562224e+00
1.900000e-06	2.625737e-07	-3.981044e-11	1.827043e+00	-5.293020e+00
1.910000e-06	3.091600e-07	-2.275232e-11	2.151200e+00	-4.009619e+00
1.920000e-06	3.557925e-07	-8.636709e-12	2.475679e+00	-2.712838e+00
1.930000e-06	4.024772e-07	3.738477e-12	2.800521e+00	-1.403555e+00
1.940000e-06	4.490619e-07	2.009723e-11	3.124667e+00	-8.270475e-02
1.950000e-06	4.955148e-07	4.104302e-11	3.447896e+00	1.248725e+00
1.960000e-06	5.419682e-07	6.573349e-11	3.771128e+00	2.589694e+00
1.970000e-06	5.884086e-07	9.034981e-11	4.094271e+00	3.939116e+00
1.980000e-06	6.347961e-07	1.092933e-10	4.417045e+00	5.295858e+00
1.990000e-06	6.812177e-07	1.268507e-10	4.740056e+00	6.658750e+00
2.000000e-06	7.276104e-07	1.440825e-10	5.062866e+00	8.026587e+00
2.010000e-06	7.738851e-07	1.617725e-10	5.384855e+00	9.398132e+00
2.020000e-06	8.200754e-07	1.800635e-10	5.706257e+00	1.077212e+01
2.030000e-06	8.662640e-07	2.001765e-10	6.027646e+00	1.214728e+01
2.040000e-06	9.124222e-07	2.207623e-10	6.348825e+00	1.352231e+01
2.050000e-06	9.585070e-07	2.418348e-10	6.669493e+00	1.489591e+01
2.060000e-06	1.004475e-06	2.642380e-10	6.989344e+00	1.626677e+01
2.070000e-06	1.050424e-06	2.858082e-10	7.309068e+00	1.763359e+01
2.080000e-06	1.096371e-06	3.070621e-10	7.628780e+00	1.899506e+01
2.090000e-06	1.142218e-06	3.277550e-10	7.947791e+00	2.034992e+01
2.100000e-06	1.187957e-06	3.476779e-10	8.266052e+00	2.169690e+01
2.110000e-06	1.233515e-06	3.664279e-10	8.583054e+00	2.303476e+01
2.120000e-06	1.279000e-06	3.833867e-10	8.899554e+00	2.436230e+01
2.130000e-06	1.324424e-06	4.004900e-10	9.215621e+00	2.567836e+01
2.140000e-06	1.369666e-06	4.191034e-10	9.530420e+00	2.698181e+01
2.150000e-06	1.414793e-06	4.385306e-10	9.844424e+00	2.827157e+01
2.160000e-06	1.459855e-06	4.588424e-10	1.015798e+01	2.954661e+01
2.170000e-06	1.504867e-06	4.795779e-10	1.047118e+01	3.080596e+01
2.180000e-06	1.549769e-06	5.014386e-10	1.078362e+01	3.204871e+01
2.190000e-06	1.594495e-06	5.192081e-10	1.109483e+01	3.327400e+01
2.200000e-06	1.639101e-06	5.347401e-10	1.140521e+01	3.448105e+01
2.210000e-06	1.683647e-06	5.492394e-10	1.171517e+01	3.566914e+01
2.220000e-06	1.728098e-06	5.607249e-10	1.202447e+01	3.683762e+01
2.230000e-06	1.772357e-06	5.740358e-10	1.233243e+01	3.798591e+01
2.240000e-06	1.816482e-06	5.899081e-10	1.263946e+01	3.911351e+01
2.250000e-06	1.860565e-06	6.068365e-10	1.294620e+01	4.021999e+01
2.260000e-06	1.904581e-06	6.217090e-10	1.325247e+01	4.130498e+01
2.270000e-06	1.948470e-06	6.385955e-10	1.355786e+01	4.236821e+01
2.280000e-06	1.992252e-06	6.563035e-10	1.386251e+01	4.340945e+01
2.290000e-06	2.035942e-06	6.706178e-10	1.416651e+01	4.442857e+01
2.300000e-06	2.079568e-06	6.831996e-10	1.447007e+01	4.542549e+01
2.310000e-06	2.123203e-06	6.952186e-10	1.477369e+01	4.640021e+01
2.320000e-06	2.166789e-06	7.063454e-10	1.507698e+01	4.735278e+01
2.330000e-06	2.210223e-06	7.179963e-10	1.537919e+01	4.828332e+01
2.340000e-06	2.253486e-06	7.336706e-10	1.568023e+01	4.919202e+01
2.350000e-06	2.296537e-06	7.514523e-10	1.597978e+01	5.007910e+01
2.360000e-06	2.339335e-06	7.692859e-10	1.627758e+01	5.094486e+01
2.370000e-06	2.381903e-06	7.836233e-10	1.657378e+01	5.178961e+01
2.380000e-06	2.424219e-06	7.928303e-10	1.686822e+01	5.261374e+01
2.390000e-06	2.466162e-06	7.996082e-10	1.716007e+01	5.341765e+01
2.400000e-06	2.507716e-06	8.071573e-10	1.744922e+01	5.420180e+01
2.410000e-06	2.548995e-06	8.148414e-10	1.773644e+01	5.496665e+01
2.420000e-06	2.590051e-06	8.224553e-10	1.802212e+01	5.571270e+01
2.430000e-06	2.630848e-06	8.329698e-10	1.830599e+01	5.644048e+01
2.440000e-06	2.671359e-06	8.446816e-10	1.858788e+01	5.715052e+01
2.450000e-06	2.711688e-06	8.548116e-10	1.886850e+01	5.784335e+01
2.460000e-06	2.751869e-06	8.668970e-10	1.914808e+01	5.851954e+01
2.470000e-06	2.791880e-06	8.804571e-10	1.942648e+01	5.917963e+01
2.480000e-06	2.831722e-06	8.925767e-10	1.970372e+01	5.982418e+01
2.490000e-06	2.871377e-06	9.036183e-10	1.997964e+01	6.045371e+01
2.500000e-06	2.910904e-06	9.124109e-10	2.025468e+01	6.106878e+01
2.510000e-06	2.950401e-06	9.194110e-10	2.052951e+01	6.166989e+01
2.520000e-06	2.989785e-06	9.259658e-10	2.080355e+01	6.225756e+01
2.530000e-06	3.028896e-06	9.314832e-10	2.107569e+01	6.283227e+01
2.540000e-06	3.067770e-06	9.365319e-10	2.134619e+01	6.339448e+01
2.550000e-06	3.106413e-06	9.428746e-10	2.161507e+01	6.394463e+01
2.560000e-06	3.144769e-06	9.523036e-10	2.188196e+01	6.448313e+01
2.570000e-06	3.182915e-06	9.631115e-10	2.214739e+01	6.501039e+01
2.580000e-06	3.220886e-06	9.721311e-10	2.241160e+01	6.552675e+01
2.590000e-06	3.258712e-06	9.806162e-10	2.267480e+01	6.603255e+01
2.600000e-06	3.296408e-06	9.885532e-10	2.293710e+01	6.652810e+01
2.610000e-06	3.333869e-06	9.914949e-10	2.319776e+01	6.701368e+01
2.620000e-06	3.371050e-06	9.919004e-10	2.345647e+01	6.748952e+01
2.630000e-06	3.407909e-06	9.930414e-10	2.371295e+01	6.795586e+01
2.640000e-06	3.444461e-06	9.960883e-10	2.396728e+01	6.841288e+01
2.650000e-06	3.480795e-06	1.005171e-09	2.422010e+01	6.886076e+01
2.660000e-06	3.516931e-06	1.017307e-09	2.447155e+01	6.929965e+01
2.670000e-06	3.552901e-06	1.026705e-09	2.472183e+01	6.972966e+01
2.680000e-06	3.588759e-06	1.033110e-09	2.497134e+01	7.015090e+01
2.690000e-06	3.624495e-06	1.038737e-09	2.521999e+01	7.056346e+01
2.700000e-06	3.660047e-06	1.044123e-09	2.546738e+01	7.096740e+01
2.710000e-06	3.695385e-06	1.047534e-09	2.571326e+01	7.136278e+01
2.720000e-06	3.730487e-06	1.050457e-09	2.595751e+01	7.174965e+01
2.730000e-06	3.765182e-06	1.054298e-09	2.619893e+01	7.212803e+01
2.740000e-06	3.799452e-06	1.057909e-09	2.643739e+01	7.249796e+01
2.750000e-06	3.833330e-06	1.061396e-09	2.667311e+01	7.285946e+01
2.760000e-06	3.866727e-06	1.066334e-09	2.690550e+01	7.321254e+01
2.770000e-06	3.899650e-06	1.074069e-09	2.713458e+01	7.355724e+01
2.780000e-06	3.932162e-06	1.082643e-09	2.736081e+01	7.389355e+01
2.790000e-06	3.964446e-06	1.090707e-09	2.758545e+01	7.422152e+01
2.800000e-06	3.996568e-06	1.096956e-09	2.780896e+01	7.454118e+01
2.810000e-06	4.028525e-06	1.100342e-09	2.803132e+01	7.485255e+01
2.820000e-06	4.060290e-06	1.101031e-09	2.825235e+01	7.515568e+01
2.830000e-06	4.091777e-06	1.101065e-09	2.847144e+01	7.545063e+01
2.840000e-06	4.123006e-06	1.103782e-09	2.868874e+01	7.573746e+01
2.850000e-06	4.154003e-06	1.110940e-09	2.890442e+01	7.601624e+01
2.860000e-06	4.184657e-06	1.120063e-09	2.911772e+01	7.628707e+01
2.870000e-06	4.214936e-06	1.127690e-09	2.932841e+01	7.655004e+01
2.880000e-06	4.244928e-06	1.133690e-09	2.953710e+01	7.680526e+01
2.890000e-06	4.274698e-06	1.139211e-09	2.974424e+01	7.705286e+01
2.900000e-06	4.304181e-06	1.143068e-09	2.994939e+01	7.729296e+01
