# Temperatura_=_-0.6
# Concentracion g/m^3_=_1620.0
# C_Vs_to_Am_M_A/Vsm_=_65563218390.804596
# pendiente_HvsI_1/m_=_3716.3
# ordenada_HvsI_A/m_=_1297.0
# frecuencia_Hz_=_135101.22066400683

Tiempo_(s)	Campo_(V.s)	Magnetizacion_(V.s)	Campo_(kA/m)	Magnetizacion_(A/m)
0.000000e+00	-5.507386e-06	-1.381192e-09	-3.836549e+01	-9.128452e+01
1.000000e-08	-5.507739e-06	-1.379676e-09	-3.836795e+01	-9.119643e+01
2.000000e-08	-5.507851e-06	-1.381259e-09	-3.836873e+01	-9.110449e+01
3.000000e-08	-5.507704e-06	-1.383660e-09	-3.836771e+01	-9.100881e+01
4.000000e-08	-5.507154e-06	-1.383005e-09	-3.836388e+01	-9.090954e+01
5.000000e-08	-5.506010e-06	-1.372016e-09	-3.835590e+01	-9.080683e+01
6.000000e-08	-5.504264e-06	-1.354838e-09	-3.834374e+01	-9.070086e+01
7.000000e-08	-5.501941e-06	-1.356129e-09	-3.832756e+01	-9.059181e+01
8.000000e-08	-5.499033e-06	-1.403162e-09	-3.830731e+01	-9.047988e+01
9.000000e-08	-5.495601e-06	-1.455227e-09	-3.828340e+01	-9.036528e+01
1.000000e-07	-5.491695e-06	-1.453614e-09	-3.825619e+01	-9.024823e+01
1.100000e-07	-5.487450e-06	-1.395849e-09	-3.822661e+01	-9.012896e+01
1.200000e-07	-5.483047e-06	-1.327676e-09	-3.819594e+01	-9.000770e+01
1.300000e-07	-5.478428e-06	-1.341509e-09	-3.816377e+01	-8.988469e+01
1.400000e-07	-5.473439e-06	-1.377970e-09	-3.812901e+01	-8.976016e+01
1.500000e-07	-5.468040e-06	-1.363109e-09	-3.809140e+01	-8.963436e+01
1.600000e-07	-5.462244e-06	-1.335530e-09	-3.805102e+01	-8.950751e+01
1.700000e-07	-5.456039e-06	-1.344941e-09	-3.800780e+01	-8.937984e+01
1.800000e-07	-5.449386e-06	-1.421691e-09	-3.796146e+01	-8.925158e+01
1.900000e-07	-5.442302e-06	-1.390006e-09	-3.791210e+01	-8.912293e+01
2.000000e-07	-5.434877e-06	-1.333728e-09	-3.786038e+01	-8.899408e+01
2.100000e-07	-5.427194e-06	-1.310847e-09	-3.780686e+01	-8.886523e+01
2.200000e-07	-5.419326e-06	-1.384663e-09	-3.775205e+01	-8.873652e+01
2.300000e-07	-5.411291e-06	-1.388551e-09	-3.769607e+01	-8.860811e+01
2.400000e-07	-5.402859e-06	-1.354340e-09	-3.763734e+01	-8.848011e+01
2.500000e-07	-5.393770e-06	-1.324087e-09	-3.757402e+01	-8.835262e+01
2.600000e-07	-5.383981e-06	-1.341859e-09	-3.750583e+01	-8.822572e+01
2.700000e-07	-5.373512e-06	-1.339210e-09	-3.743290e+01	-8.809945e+01
2.800000e-07	-5.362486e-06	-1.324567e-09	-3.735609e+01	-8.797383e+01
2.900000e-07	-5.350981e-06	-1.334873e-09	-3.727595e+01	-8.784885e+01
3.000000e-07	-5.339139e-06	-1.344420e-09	-3.719345e+01	-8.772446e+01
3.100000e-07	-5.327032e-06	-1.334725e-09	-3.710911e+01	-8.760060e+01
3.200000e-07	-5.314489e-06	-1.302914e-09	-3.702173e+01	-8.747717e+01
3.300000e-07	-5.301493e-06	-1.312674e-09	-3.693120e+01	-8.735403e+01
3.400000e-07	-5.288169e-06	-1.305688e-09	-3.683838e+01	-8.723102e+01
3.500000e-07	-5.274422e-06	-1.319803e-09	-3.674262e+01	-8.710796e+01
3.600000e-07	-5.260238e-06	-1.315002e-09	-3.664381e+01	-8.698462e+01
3.700000e-07	-5.245661e-06	-1.325131e-09	-3.654227e+01	-8.686077e+01
3.800000e-07	-5.230674e-06	-1.312154e-09	-3.643787e+01	-8.673613e+01
3.900000e-07	-5.215092e-06	-1.321373e-09	-3.632932e+01	-8.661041e+01
4.000000e-07	-5.198856e-06	-1.301982e-09	-3.621622e+01	-8.648330e+01
4.100000e-07	-5.182303e-06	-1.295770e-09	-3.610090e+01	-8.635446e+01
4.200000e-07	-5.165419e-06	-1.293372e-09	-3.598329e+01	-8.622355e+01
4.300000e-07	-5.148201e-06	-1.303519e-09	-3.586334e+01	-8.609020e+01
4.400000e-07	-5.130745e-06	-1.295004e-09	-3.574174e+01	-8.595405e+01
4.500000e-07	-5.112953e-06	-1.315700e-09	-3.561780e+01	-8.581471e+01
4.600000e-07	-5.094713e-06	-1.314251e-09	-3.549073e+01	-8.567181e+01
4.700000e-07	-5.075990e-06	-1.292297e-09	-3.536031e+01	-8.552494e+01
4.800000e-07	-5.056849e-06	-1.284115e-09	-3.522697e+01	-8.537375e+01
4.900000e-07	-5.037424e-06	-1.306985e-09	-3.509165e+01	-8.521784e+01
5.000000e-07	-5.017796e-06	-1.287887e-09	-3.495492e+01	-8.505686e+01
5.100000e-07	-4.998018e-06	-1.268850e-09	-3.481714e+01	-8.489044e+01
5.200000e-07	-4.978003e-06	-1.282722e-09	-3.467771e+01	-8.471826e+01
5.300000e-07	-4.957671e-06	-1.288243e-09	-3.453608e+01	-8.454000e+01
5.400000e-07	-4.936936e-06	-1.271380e-09	-3.439163e+01	-8.435535e+01
5.500000e-07	-4.915777e-06	-1.278989e-09	-3.424423e+01	-8.416406e+01
5.600000e-07	-4.894265e-06	-1.276007e-09	-3.409438e+01	-8.396586e+01
5.700000e-07	-4.872414e-06	-1.247096e-09	-3.394216e+01	-8.376057e+01
5.800000e-07	-4.850331e-06	-1.254181e-09	-3.378833e+01	-8.354798e+01
5.900000e-07	-4.827969e-06	-1.271303e-09	-3.363255e+01	-8.332795e+01
6.000000e-07	-4.805217e-06	-1.250908e-09	-3.347405e+01	-8.310038e+01
6.100000e-07	-4.782059e-06	-1.234910e-09	-3.331273e+01	-8.286519e+01
6.200000e-07	-4.758594e-06	-1.248317e-09	-3.314927e+01	-8.262233e+01
6.300000e-07	-4.734952e-06	-1.229114e-09	-3.298457e+01	-8.237182e+01
6.400000e-07	-4.711077e-06	-1.213258e-09	-3.281825e+01	-8.211368e+01
6.500000e-07	-4.686909e-06	-1.221271e-09	-3.264990e+01	-8.184800e+01
6.600000e-07	-4.662319e-06	-1.221439e-09	-3.247860e+01	-8.157488e+01
6.700000e-07	-4.637227e-06	-1.201529e-09	-3.230380e+01	-8.129449e+01
6.800000e-07	-4.611619e-06	-1.211646e-09	-3.212541e+01	-8.100699e+01
6.900000e-07	-4.585419e-06	-1.211889e-09	-3.194290e+01	-8.071262e+01
7.000000e-07	-4.558739e-06	-1.197722e-09	-3.175704e+01	-8.041161e+01
7.100000e-07	-4.531678e-06	-1.191523e-09	-3.156853e+01	-8.010426e+01
7.200000e-07	-4.504274e-06	-1.199937e-09	-3.137762e+01	-7.979085e+01
7.300000e-07	-4.476661e-06	-1.184989e-09	-3.118527e+01	-7.947172e+01
7.400000e-07	-4.448926e-06	-1.178449e-09	-3.099206e+01	-7.914722e+01
7.500000e-07	-4.420949e-06	-1.178076e-09	-3.079716e+01	-7.881772e+01
7.600000e-07	-4.392715e-06	-1.171426e-09	-3.060048e+01	-7.848358e+01
7.700000e-07	-4.364297e-06	-1.157025e-09	-3.040252e+01	-7.814520e+01
7.800000e-07	-4.335547e-06	-1.157719e-09	-3.020224e+01	-7.780297e+01
7.900000e-07	-4.306421e-06	-1.153888e-09	-2.999934e+01	-7.745728e+01
8.000000e-07	-4.276996e-06	-1.146596e-09	-2.979436e+01	-7.710854e+01
8.100000e-07	-4.247311e-06	-1.144522e-09	-2.958757e+01	-7.675712e+01
8.200000e-07	-4.217375e-06	-1.141982e-09	-2.937903e+01	-7.640341e+01
8.300000e-07	-4.187155e-06	-1.129492e-09	-2.916851e+01	-7.604776e+01
8.400000e-07	-4.156641e-06	-1.121953e-09	-2.895595e+01	-7.569053e+01
8.500000e-07	-4.125725e-06	-1.116903e-09	-2.874058e+01	-7.533205e+01
8.600000e-07	-4.094440e-06	-1.104914e-09	-2.852264e+01	-7.497261e+01
8.700000e-07	-4.063042e-06	-1.097847e-09	-2.830392e+01	-7.461250e+01
8.800000e-07	-4.031548e-06	-1.097523e-09	-2.808452e+01	-7.425195e+01
8.900000e-07	-3.999861e-06	-1.094813e-09	-2.786379e+01	-7.389119e+01
9.000000e-07	-3.967983e-06	-1.086615e-09	-2.764172e+01	-7.353040e+01
9.100000e-07	-3.935903e-06	-1.082791e-09	-2.741824e+01	-7.316971e+01
9.200000e-07	-3.903486e-06	-1.074289e-09	-2.719242e+01	-7.280924e+01
9.300000e-07	-3.870609e-06	-1.064918e-09	-2.696340e+01	-7.244905e+01
9.400000e-07	-3.837269e-06	-1.056734e-09	-2.673114e+01	-7.208918e+01
9.500000e-07	-3.803475e-06	-1.052826e-09	-2.649572e+01	-7.172960e+01
9.600000e-07	-3.769212e-06	-1.043708e-09	-2.625705e+01	-7.137027e+01
9.700000e-07	-3.734554e-06	-1.039293e-09	-2.601561e+01	-7.101111e+01
9.800000e-07	-3.699522e-06	-1.035318e-09	-2.577157e+01	-7.065197e+01
9.900000e-07	-3.664129e-06	-1.032246e-09	-2.552501e+01	-7.029269e+01
1.000000e-06	-3.628563e-06	-1.026854e-09	-2.527725e+01	-6.993308e+01
1.010000e-06	-3.592904e-06	-1.024105e-09	-2.502885e+01	-6.957289e+01
1.020000e-06	-3.557154e-06	-1.016194e-09	-2.477981e+01	-6.921186e+01
1.030000e-06	-3.521324e-06	-1.008975e-09	-2.453021e+01	-6.884969e+01
1.040000e-06	-3.485373e-06	-1.000554e-09	-2.427977e+01	-6.848606e+01
1.050000e-06	-3.449220e-06	-9.937785e-10	-2.402792e+01	-6.812063e+01
1.060000e-06	-3.412737e-06	-9.856489e-10	-2.377377e+01	-6.775302e+01
1.070000e-06	-3.375875e-06	-9.817335e-10	-2.351698e+01	-6.738286e+01
1.080000e-06	-3.338735e-06	-9.768317e-10	-2.325826e+01	-6.700975e+01
1.090000e-06	-3.301359e-06	-9.694673e-10	-2.299789e+01	-6.663329e+01
1.100000e-06	-3.263761e-06	-9.625592e-10	-2.273597e+01	-6.625306e+01
1.110000e-06	-3.225945e-06	-9.564578e-10	-2.247254e+01	-6.586865e+01
1.120000e-06	-3.187881e-06	-9.472676e-10	-2.220738e+01	-6.547966e+01
1.130000e-06	-3.149606e-06	-9.386048e-10	-2.194075e+01	-6.508567e+01
1.140000e-06	-3.111163e-06	-9.315199e-10	-2.167295e+01	-6.468629e+01
1.150000e-06	-3.072509e-06	-9.227146e-10	-2.140368e+01	-6.428113e+01
1.160000e-06	-3.033596e-06	-9.141186e-10	-2.113261e+01	-6.386982e+01
1.170000e-06	-2.994518e-06	-9.086895e-10	-2.086038e+01	-6.345201e+01
1.180000e-06	-2.955258e-06	-9.044029e-10	-2.058689e+01	-6.302737e+01
1.190000e-06	-2.915825e-06	-8.985430e-10	-2.031219e+01	-6.259558e+01
1.200000e-06	-2.876300e-06	-8.932257e-10	-2.003685e+01	-6.215636e+01
1.210000e-06	-2.836623e-06	-8.834963e-10	-1.976045e+01	-6.170944e+01
1.220000e-06	-2.796782e-06	-8.719834e-10	-1.948291e+01	-6.125460e+01
1.230000e-06	-2.756817e-06	-8.598245e-10	-1.920451e+01	-6.079164e+01
1.240000e-06	-2.716695e-06	-8.505555e-10	-1.892501e+01	-6.032036e+01
1.250000e-06	-2.676421e-06	-8.403248e-10	-1.864446e+01	-5.984064e+01
1.260000e-06	-2.636011e-06	-8.330127e-10	-1.836295e+01	-5.935235e+01
1.270000e-06	-2.595342e-06	-8.271521e-10	-1.807965e+01	-5.885540e+01
1.280000e-06	-2.554419e-06	-8.206196e-10	-1.779457e+01	-5.834972e+01
1.290000e-06	-2.513218e-06	-8.132209e-10	-1.750755e+01	-5.783528e+01
1.300000e-06	-2.471644e-06	-8.055845e-10	-1.721794e+01	-5.731206e+01
1.310000e-06	-2.429662e-06	-7.942754e-10	-1.692548e+01	-5.678008e+01
1.320000e-06	-2.387294e-06	-7.820914e-10	-1.663034e+01	-5.623934e+01
1.330000e-06	-2.344645e-06	-7.709969e-10	-1.633324e+01	-5.568990e+01
1.340000e-06	-2.301775e-06	-7.627348e-10	-1.603460e+01	-5.513181e+01
1.350000e-06	-2.258735e-06	-7.548662e-10	-1.573477e+01	-5.456512e+01
1.360000e-06	-2.215476e-06	-7.484869e-10	-1.543342e+01	-5.398992e+01
1.370000e-06	-2.172047e-06	-7.417877e-10	-1.513089e+01	-5.340627e+01
1.380000e-06	-2.128538e-06	-7.351316e-10	-1.482780e+01	-5.281425e+01
1.390000e-06	-2.084887e-06	-7.267624e-10	-1.452372e+01	-5.221392e+01
1.400000e-06	-2.041133e-06	-7.168093e-10	-1.421892e+01	-5.160533e+01
1.410000e-06	-1.997358e-06	-7.063400e-10	-1.391397e+01	-5.098854e+01
1.420000e-06	-1.953553e-06	-6.972331e-10	-1.360882e+01	-5.036358e+01
1.430000e-06	-1.909702e-06	-6.896530e-10	-1.330335e+01	-4.973045e+01
1.440000e-06	-1.865790e-06	-6.812460e-10	-1.299744e+01	-4.908915e+01
1.450000e-06	-1.821786e-06	-6.709989e-10	-1.269090e+01	-4.843963e+01
1.460000e-06	-1.777644e-06	-6.600887e-10	-1.238340e+01	-4.778184e+01
1.470000e-06	-1.733361e-06	-6.487160e-10	-1.207492e+01	-4.711567e+01
1.480000e-06	-1.688879e-06	-6.360985e-10	-1.176505e+01	-4.644099e+01
1.490000e-06	-1.644257e-06	-6.230868e-10	-1.145421e+01	-4.575763e+01
1.500000e-06	-1.599551e-06	-6.125757e-10	-1.114277e+01	-4.506541e+01
1.510000e-06	-1.554683e-06	-6.047872e-10	-1.083022e+01	-4.436406e+01
1.520000e-06	-1.509650e-06	-5.955039e-10	-1.051651e+01	-4.365333e+01
1.530000e-06	-1.464590e-06	-5.860812e-10	-1.020261e+01	-4.293288e+01
1.540000e-06	-1.419495e-06	-5.760691e-10	-9.888473e+00	-4.220237e+01
1.550000e-06	-1.374206e-06	-5.642716e-10	-9.572980e+00	-4.146139e+01
1.560000e-06	-1.328836e-06	-5.509150e-10	-9.256921e+00	-4.070953e+01
1.570000e-06	-1.283487e-06	-5.389776e-10	-8.941010e+00	-3.994633e+01
1.580000e-06	-1.238045e-06	-5.274920e-10	-8.624457e+00	-3.917127e+01
1.590000e-06	-1.192445e-06	-5.171052e-10	-8.306795e+00	-3.838386e+01
1.600000e-06	-1.146730e-06	-5.065720e-10	-7.988337e+00	-3.758352e+01
1.610000e-06	-1.100936e-06	-4.948356e-10	-7.669331e+00	-3.676970e+01
1.620000e-06	-1.055016e-06	-4.828738e-10	-7.349442e+00	-3.594180e+01
1.630000e-06	-1.009066e-06	-4.734154e-10	-7.029346e+00	-3.509921e+01
1.640000e-06	-9.630339e-07	-4.646540e-10	-6.708676e+00	-3.424133e+01
1.650000e-06	-9.168805e-07	-4.529899e-10	-6.387163e+00	-3.336753e+01
1.660000e-06	-8.707376e-07	-4.379673e-10	-6.065723e+00	-3.247721e+01
1.670000e-06	-8.245688e-07	-4.224579e-10	-5.744102e+00	-3.156974e+01
1.680000e-06	-7.783028e-07	-4.058122e-10	-5.421805e+00	-3.064454e+01
1.690000e-06	-7.320375e-07	-3.899517e-10	-5.099512e+00	-2.970102e+01
1.700000e-06	-6.857975e-07	-3.760632e-10	-4.777395e+00	-2.873862e+01
1.710000e-06	-6.394728e-07	-3.640861e-10	-4.454688e+00	-2.775682e+01
1.720000e-06	-5.930579e-07	-3.523630e-10	-4.131353e+00	-2.675513e+01
1.730000e-06	-5.465906e-07	-3.360165e-10	-3.807654e+00	-2.573310e+01
1.740000e-06	-5.000745e-07	-3.145518e-10	-3.483614e+00	-2.469032e+01
1.750000e-06	-4.534785e-07	-2.935803e-10	-3.159017e+00	-2.362645e+01
1.760000e-06	-4.068826e-07	-2.743458e-10	-2.834421e+00	-2.254118e+01
1.770000e-06	-3.602217e-07	-2.568212e-10	-2.509372e+00	-2.143429e+01
1.780000e-06	-3.134968e-07	-2.436778e-10	-2.183878e+00	-2.030561e+01
1.790000e-06	-2.668247e-07	-2.318294e-10	-1.858752e+00	-1.915504e+01
1.800000e-06	-2.201581e-07	-2.175578e-10	-1.533663e+00	-1.798256e+01
1.810000e-06	-1.734535e-07	-2.016140e-10	-1.208310e+00	-1.678823e+01
1.820000e-06	-1.266488e-07	-1.862625e-10	-8.822598e-01	-1.557219e+01
1.830000e-06	-7.982646e-08	-1.688876e-10	-5.560862e-01	-1.433464e+01
1.840000e-06	-3.311617e-08	-1.511618e-10	-2.306935e-01	-1.307589e+01
1.850000e-06	1.361783e-08	-1.324816e-10	9.486438e-02	-1.179634e+01
1.860000e-06	6.034404e-08	-1.136951e-10	4.203680e-01	-1.049643e+01
1.870000e-06	1.070497e-07	-9.649306e-11	7.457287e-01	-9.176750e+00
1.880000e-06	1.537531e-07	-7.959762e-11	1.071073e+00	-7.837920e+00
1.890000e-06	2.004155e-07	-6.045538e-11	1.396133e+00	-6.480670e+00
1.900000e-06	2.471556e-07	-3.979712e-11	1.721733e+00	-5.105805e+00
1.910000e-06	2.938376e-07	-1.868221e-11	2.046928e+00	-3.714209e+00
1.920000e-06	3.403828e-07	2.939586e-12	2.371171e+00	-2.306843e+00
1.930000e-06	3.869152e-07	2.313240e-11	2.695324e+00	-8.847391e-01
1.940000e-06	4.334749e-07	4.322025e-11	3.019668e+00	5.510024e-01
1.950000e-06	4.799966e-07	6.328940e-11	3.343747e+00	1.999216e+00
1.960000e-06	5.264832e-07	8.161449e-11	3.667581e+00	3.458679e+00
1.970000e-06	5.729658e-07	9.885105e-11	3.991388e+00	4.928114e+00
1.980000e-06	6.193667e-07	1.159962e-10	4.314626e+00	6.406195e+00
1.990000e-06	6.656390e-07	1.345845e-10	4.636967e+00	7.891556e+00
2.000000e-06	7.118967e-07	1.549428e-10	4.959207e+00	9.382794e+00
2.010000e-06	7.581327e-07	1.772952e-10	5.281296e+00	1.087848e+01
2.020000e-06	8.042608e-07	2.033898e-10	5.602633e+00	1.237715e+01
2.030000e-06	8.503291e-07	2.285440e-10	5.923554e+00	1.387735e+01
2.040000e-06	8.963514e-07	2.505278e-10	6.244154e+00	1.537759e+01
2.050000e-06	9.424296e-07	2.687480e-10	6.565143e+00	1.687640e+01
2.060000e-06	9.884340e-07	2.845849e-10	6.885619e+00	1.837230e+01
2.070000e-06	1.034295e-06	3.010397e-10	7.205094e+00	1.986382e+01
2.080000e-06	1.080091e-06	3.205509e-10	7.524118e+00	2.134952e+01
2.090000e-06	1.125818e-06	3.439353e-10	7.842660e+00	2.282799e+01
2.100000e-06	1.171480e-06	3.695886e-10	8.160749e+00	2.429784e+01
2.110000e-06	1.217090e-06	3.936689e-10	8.478481e+00	2.575771e+01
2.120000e-06	1.262593e-06	4.132429e-10	8.795464e+00	2.720629e+01
2.130000e-06	1.307974e-06	4.287128e-10	9.111592e+00	2.864234e+01
2.140000e-06	1.353261e-06	4.423449e-10	9.427071e+00	3.006463e+01
2.150000e-06	1.398431e-06	4.577496e-10	9.741735e+00	3.147202e+01
2.160000e-06	1.443544e-06	4.755933e-10	1.005600e+01	3.286343e+01
2.170000e-06	1.488569e-06	4.941694e-10	1.036965e+01	3.423784e+01
2.180000e-06	1.533486e-06	5.148712e-10	1.068255e+01	3.559428e+01
2.190000e-06	1.578294e-06	5.368972e-10	1.099470e+01	3.693189e+01
2.200000e-06	1.622975e-06	5.561221e-10	1.130595e+01	3.824984e+01
2.210000e-06	1.667544e-06	5.722405e-10	1.161643e+01	3.954742e+01
2.220000e-06	1.711995e-06	5.863983e-10	1.192608e+01	4.082395e+01
2.230000e-06	1.756248e-06	6.009573e-10	1.223435e+01	4.207888e+01
2.240000e-06	1.800319e-06	6.160431e-10	1.254136e+01	4.331168e+01
2.250000e-06	1.844295e-06	6.311203e-10	1.284771e+01	4.452194e+01
2.260000e-06	1.888208e-06	6.471434e-10	1.315361e+01	4.570931e+01
2.270000e-06	1.932055e-06	6.646762e-10	1.345906e+01	4.687351e+01
2.280000e-06	1.975802e-06	6.849961e-10	1.376381e+01	4.801434e+01
2.290000e-06	2.019480e-06	7.040204e-10	1.406808e+01	4.913169e+01
2.300000e-06	2.063136e-06	7.189366e-10	1.437220e+01	5.022547e+01
2.310000e-06	2.106754e-06	7.305519e-10	1.467605e+01	5.129571e+01
2.320000e-06	2.150254e-06	7.418033e-10	1.497908e+01	5.234247e+01
2.330000e-06	2.193666e-06	7.544491e-10	1.528149e+01	5.336588e+01
2.340000e-06	2.237000e-06	7.683428e-10	1.558336e+01	5.436612e+01
2.350000e-06	2.280159e-06	7.846804e-10	1.588402e+01	5.534344e+01
2.360000e-06	2.323093e-06	8.037027e-10	1.618311e+01	5.629812e+01
2.370000e-06	2.365722e-06	8.229038e-10	1.648006e+01	5.723049e+01
2.380000e-06	2.408055e-06	8.373052e-10	1.677496e+01	5.814092e+01
2.390000e-06	2.450059e-06	8.470871e-10	1.706757e+01	5.902982e+01
2.400000e-06	2.491706e-06	8.546142e-10	1.735770e+01	5.989764e+01
2.410000e-06	2.533060e-06	8.629288e-10	1.764577e+01	6.074482e+01
2.420000e-06	2.574108e-06	8.730664e-10	1.793172e+01	6.157188e+01
2.430000e-06	2.614882e-06	8.876778e-10	1.821576e+01	6.237931e+01
2.440000e-06	2.655445e-06	9.056066e-10	1.849834e+01	6.316763e+01
2.450000e-06	2.695816e-06	9.199298e-10	1.877956e+01	6.393739e+01
2.460000e-06	2.735970e-06	9.313289e-10	1.905929e+01	6.468912e+01
2.470000e-06	2.775983e-06	9.442790e-10	1.933802e+01	6.542337e+01
2.480000e-06	2.815816e-06	9.562989e-10	1.961551e+01	6.614069e+01
2.490000e-06	2.855470e-06	9.665528e-10	1.989175e+01	6.684162e+01
2.500000e-06	2.895047e-06	9.762121e-10	2.016744e+01	6.752669e+01
2.510000e-06	2.934502e-06	9.861391e-10	2.044230e+01	6.819643e+01
2.520000e-06	2.973834e-06	9.976467e-10	2.071629e+01	6.885137e+01
2.530000e-06	3.012964e-06	1.008308e-09	2.098888e+01	6.949199e+01
2.540000e-06	3.051905e-06	1.015999e-09	2.126015e+01	7.011879e+01
2.550000e-06	3.090655e-06	1.022675e-09	2.153009e+01	7.073224e+01
2.560000e-06	3.129126e-06	1.031046e-09	2.179808e+01	7.133278e+01
2.570000e-06	3.167269e-06	1.040514e-09	2.206379e+01	7.192086e+01
2.580000e-06	3.205165e-06	1.048849e-09	2.232779e+01	7.249686e+01
2.590000e-06	3.243046e-06	1.056705e-09	2.259167e+01	7.306120e+01
2.600000e-06	3.280770e-06	1.063460e-09	2.285447e+01	7.361421e+01
2.610000e-06	3.318180e-06	1.068645e-09	2.311507e+01	7.415626e+01
2.620000e-06	3.355332e-06	1.074174e-09	2.337387e+01	7.468765e+01
2.630000e-06	3.392235e-06	1.079993e-09	2.363095e+01	7.520868e+01
2.640000e-06	3.428847e-06	1.086853e-09	2.388599e+01	7.571963e+01
2.650000e-06	3.465250e-06	1.094927e-09	2.413958e+01	7.622074e+01
2.660000e-06	3.501433e-06	1.102322e-09	2.439164e+01	7.671225e+01
2.670000e-06	3.537384e-06	1.108219e-09	2.464208e+01	7.719435e+01
2.680000e-06	3.573192e-06	1.113416e-09	2.489153e+01	7.766724e+01
2.690000e-06	3.608846e-06	1.118877e-09	2.513990e+01	7.813109e+01
2.700000e-06	3.644319e-06	1.125529e-09	2.538702e+01	7.858604e+01
2.710000e-06	3.679689e-06	1.132978e-09	2.563341e+01	7.903224e+01
2.720000e-06	3.714873e-06	1.139194e-09	2.587851e+01	7.946979e+01
2.730000e-06	3.749704e-06	1.143734e-09	2.612115e+01	7.989880e+01
2.740000e-06	3.784209e-06	1.148512e-09	2.636152e+01	8.031936e+01
2.750000e-06	3.818245e-06	1.153361e-09	2.659861e+01	8.073154e+01
2.760000e-06	3.851743e-06	1.157691e-09	2.683197e+01	8.113541e+01
2.770000e-06	3.884758e-06	1.163280e-09	2.706196e+01	8.153103e+01
2.780000e-06	3.917323e-06	1.171042e-09	2.728881e+01	8.191845e+01
2.790000e-06	3.949580e-06	1.178728e-09	2.751352e+01	8.229770e+01
2.800000e-06	3.981604e-06	1.184711e-09	2.773660e+01	8.266882e+01
2.810000e-06	4.013448e-06	1.189221e-09	2.795844e+01	8.303183e+01
2.820000e-06	4.045184e-06	1.193906e-09	2.817952e+01	8.338677e+01
2.830000e-06	4.076736e-06	1.199309e-09	2.839931e+01	8.373366e+01
2.840000e-06	4.108079e-06	1.204758e-09	2.861765e+01	8.407251e+01
2.850000e-06	4.139149e-06	1.210684e-09	2.883410e+01	8.440334e+01
2.860000e-06	4.169853e-06	1.217496e-09	2.904799e+01	8.472617e+01
2.870000e-06	4.200190e-06	1.223907e-09	2.925932e+01	8.504103e+01
2.880000e-06	4.230233e-06	1.229623e-09	2.946860e+01	8.534793e+01
2.890000e-06	4.260003e-06	1.234335e-09	2.967599e+01	8.564690e+01
2.900000e-06	4.289529e-06	1.238943e-09	2.988167e+01	8.593796e+01
