# Temperatura_=_-0.9
# Concentracion g/m^3_=_1620.0
# C_Vs_to_Am_M_A/Vsm_=_65563218390.804596
# pendiente_HvsI_1/m_=_3716.3
# ordenada_HvsI_A/m_=_1297.0
# frecuencia_Hz_=_135102.1306714719

Tiempo_(s)	Campo_(V.s)	Magnetizacion_(V.s)	Campo_(kA/m)	Magnetizacion_(A/m)
0.000000e+00	-5.509256e-06	-1.151541e-09	-3.836611e+01	-7.734873e+01
1.000000e-08	-5.509347e-06	-1.152874e-09	-3.836675e+01	-7.731781e+01
2.000000e-08	-5.509189e-06	-1.156533e-09	-3.836564e+01	-7.728771e+01
3.000000e-08	-5.508652e-06	-1.158809e-09	-3.836191e+01	-7.725830e+01
4.000000e-08	-5.507596e-06	-1.154220e-09	-3.835455e+01	-7.722945e+01
5.000000e-08	-5.505960e-06	-1.139436e-09	-3.834315e+01	-7.720100e+01
6.000000e-08	-5.503655e-06	-1.130569e-09	-3.832710e+01	-7.717276e+01
7.000000e-08	-5.500719e-06	-1.168802e-09	-3.830666e+01	-7.714453e+01
8.000000e-08	-5.497311e-06	-1.234521e-09	-3.828293e+01	-7.711607e+01
9.000000e-08	-5.493445e-06	-1.262398e-09	-3.825600e+01	-7.708716e+01
1.000000e-07	-5.489216e-06	-1.186853e-09	-3.822656e+01	-7.705753e+01
1.100000e-07	-5.484769e-06	-1.068186e-09	-3.819559e+01	-7.702691e+01
1.200000e-07	-5.480139e-06	-1.065616e-09	-3.816334e+01	-7.699504e+01
1.300000e-07	-5.475201e-06	-1.199779e-09	-3.812895e+01	-7.696161e+01
1.400000e-07	-5.469805e-06	-1.217769e-09	-3.809137e+01	-7.692635e+01
1.500000e-07	-5.463987e-06	-1.132045e-09	-3.805086e+01	-7.688894e+01
1.600000e-07	-5.457859e-06	-1.094379e-09	-3.800819e+01	-7.684910e+01
1.700000e-07	-5.451341e-06	-1.200858e-09	-3.796279e+01	-7.680653e+01
1.800000e-07	-5.444337e-06	-1.222932e-09	-3.791402e+01	-7.676094e+01
1.900000e-07	-5.437085e-06	-1.112946e-09	-3.786352e+01	-7.671204e+01
2.000000e-07	-5.429699e-06	-1.089997e-09	-3.781208e+01	-7.665956e+01
2.100000e-07	-5.422013e-06	-1.211320e-09	-3.775855e+01	-7.660323e+01
2.200000e-07	-5.413934e-06	-1.281361e-09	-3.770229e+01	-7.654280e+01
2.300000e-07	-5.405588e-06	-1.202893e-09	-3.764418e+01	-7.647802e+01
2.400000e-07	-5.396789e-06	-1.148735e-09	-3.758290e+01	-7.640868e+01
2.500000e-07	-5.387114e-06	-1.169085e-09	-3.751552e+01	-7.633456e+01
2.600000e-07	-5.376664e-06	-1.191730e-09	-3.744275e+01	-7.625549e+01
2.700000e-07	-5.365774e-06	-1.158808e-09	-3.736691e+01	-7.617129e+01
2.800000e-07	-5.354492e-06	-1.172291e-09	-3.728834e+01	-7.608181e+01
2.900000e-07	-5.342871e-06	-1.200385e-09	-3.720742e+01	-7.598694e+01
3.000000e-07	-5.330993e-06	-1.199499e-09	-3.712470e+01	-7.588657e+01
3.100000e-07	-5.318609e-06	-1.151424e-09	-3.703846e+01	-7.578063e+01
3.200000e-07	-5.305672e-06	-1.149767e-09	-3.694837e+01	-7.566905e+01
3.300000e-07	-5.292356e-06	-1.154217e-09	-3.685563e+01	-7.555180e+01
3.400000e-07	-5.278736e-06	-1.157880e-09	-3.676078e+01	-7.542887e+01
3.500000e-07	-5.264708e-06	-1.154354e-09	-3.666310e+01	-7.530027e+01
3.600000e-07	-5.250155e-06	-1.172872e-09	-3.656175e+01	-7.516604e+01
3.700000e-07	-5.235106e-06	-1.177762e-09	-3.645695e+01	-7.502622e+01
3.800000e-07	-5.219481e-06	-1.164928e-09	-3.634814e+01	-7.488089e+01
3.900000e-07	-5.203229e-06	-1.141407e-09	-3.623496e+01	-7.473014e+01
4.000000e-07	-5.186612e-06	-1.145893e-09	-3.611924e+01	-7.457407e+01
4.100000e-07	-5.169795e-06	-1.160541e-09	-3.600213e+01	-7.441280e+01
4.200000e-07	-5.152720e-06	-1.140481e-09	-3.588322e+01	-7.424648e+01
4.300000e-07	-5.135358e-06	-1.130536e-09	-3.576231e+01	-7.407525e+01
4.400000e-07	-5.117693e-06	-1.172957e-09	-3.563929e+01	-7.389928e+01
4.500000e-07	-5.099684e-06	-1.176168e-09	-3.551388e+01	-7.371872e+01
4.600000e-07	-5.081149e-06	-1.106040e-09	-3.538480e+01	-7.353377e+01
4.700000e-07	-5.062157e-06	-1.114134e-09	-3.525254e+01	-7.334459e+01
4.800000e-07	-5.042874e-06	-1.173009e-09	-3.511825e+01	-7.315139e+01
4.900000e-07	-5.023312e-06	-1.140292e-09	-3.498203e+01	-7.295434e+01
5.000000e-07	-5.003537e-06	-1.088115e-09	-3.484432e+01	-7.275365e+01
5.100000e-07	-4.983532e-06	-1.134366e-09	-3.470500e+01	-7.254949e+01
5.200000e-07	-4.963236e-06	-1.144132e-09	-3.456367e+01	-7.234207e+01
5.300000e-07	-4.942576e-06	-1.100348e-09	-3.441979e+01	-7.213155e+01
5.400000e-07	-4.921527e-06	-1.121129e-09	-3.427321e+01	-7.191812e+01
5.500000e-07	-4.900092e-06	-1.148692e-09	-3.412393e+01	-7.170196e+01
5.600000e-07	-4.878240e-06	-1.090111e-09	-3.397176e+01	-7.148322e+01
5.700000e-07	-4.856143e-06	-1.092337e-09	-3.381787e+01	-7.126208e+01
5.800000e-07	-4.833885e-06	-1.145456e-09	-3.366287e+01	-7.103866e+01
5.900000e-07	-4.811279e-06	-1.111976e-09	-3.350545e+01	-7.081313e+01
6.000000e-07	-4.788209e-06	-1.065687e-09	-3.334478e+01	-7.058559e+01
6.100000e-07	-4.764785e-06	-1.103462e-09	-3.318166e+01	-7.035617e+01
6.200000e-07	-4.741180e-06	-1.097915e-09	-3.301728e+01	-7.012498e+01
6.300000e-07	-4.717384e-06	-1.056701e-09	-3.285156e+01	-6.989211e+01
6.400000e-07	-4.693357e-06	-1.081363e-09	-3.268424e+01	-6.965764e+01
6.500000e-07	-4.669000e-06	-1.103938e-09	-3.251462e+01	-6.942165e+01
6.600000e-07	-4.644182e-06	-1.068820e-09	-3.234179e+01	-6.918419e+01
6.700000e-07	-4.618806e-06	-1.072093e-09	-3.216507e+01	-6.894531e+01
6.800000e-07	-4.592870e-06	-1.091076e-09	-3.198446e+01	-6.870504e+01
6.900000e-07	-4.566395e-06	-1.062455e-09	-3.180009e+01	-6.846343e+01
7.000000e-07	-4.539432e-06	-1.046287e-09	-3.161232e+01	-6.822047e+01
7.100000e-07	-4.512188e-06	-1.065366e-09	-3.142259e+01	-6.797618e+01
7.200000e-07	-4.484669e-06	-1.062813e-09	-3.123095e+01	-6.773056e+01
7.300000e-07	-4.456909e-06	-1.051597e-09	-3.103763e+01	-6.748358e+01
7.400000e-07	-4.428977e-06	-1.058859e-09	-3.084311e+01	-6.723524e+01
7.500000e-07	-4.400778e-06	-1.049500e-09	-3.064674e+01	-6.698551e+01
7.600000e-07	-4.372313e-06	-1.030615e-09	-3.044851e+01	-6.673435e+01
7.700000e-07	-4.343526e-06	-1.025967e-09	-3.024804e+01	-6.648172e+01
7.800000e-07	-4.314369e-06	-1.024857e-09	-3.004500e+01	-6.622757e+01
7.900000e-07	-4.284940e-06	-1.019122e-09	-2.984005e+01	-6.597186e+01
8.000000e-07	-4.255300e-06	-1.022446e-09	-2.963364e+01	-6.571453e+01
8.100000e-07	-4.225409e-06	-1.018456e-09	-2.942548e+01	-6.545552e+01
8.200000e-07	-4.195229e-06	-1.007973e-09	-2.921531e+01	-6.519476e+01
8.300000e-07	-4.164714e-06	-1.003236e-09	-2.900280e+01	-6.493220e+01
8.400000e-07	-4.133863e-06	-1.002600e-09	-2.878796e+01	-6.466776e+01
8.500000e-07	-4.102766e-06	-9.906937e-10	-2.857140e+01	-6.440138e+01
8.600000e-07	-4.071450e-06	-9.857595e-10	-2.835332e+01	-6.413297e+01
8.700000e-07	-4.039905e-06	-9.863900e-10	-2.813364e+01	-6.386247e+01
8.800000e-07	-4.008124e-06	-9.821894e-10	-2.791232e+01	-6.358980e+01
8.900000e-07	-3.976186e-06	-9.722622e-10	-2.768991e+01	-6.331488e+01
9.000000e-07	-3.944103e-06	-9.684820e-10	-2.746648e+01	-6.303763e+01
9.100000e-07	-3.911751e-06	-9.618273e-10	-2.724118e+01	-6.275798e+01
9.200000e-07	-3.878930e-06	-9.517163e-10	-2.701263e+01	-6.247584e+01
9.300000e-07	-3.845697e-06	-9.468232e-10	-2.678119e+01	-6.219112e+01
9.400000e-07	-3.812036e-06	-9.449742e-10	-2.654678e+01	-6.190376e+01
9.500000e-07	-3.777794e-06	-9.367249e-10	-2.630832e+01	-6.161365e+01
9.600000e-07	-3.743177e-06	-9.300293e-10	-2.606725e+01	-6.132071e+01
9.700000e-07	-3.708265e-06	-9.307896e-10	-2.582412e+01	-6.102486e+01
9.800000e-07	-3.673014e-06	-9.303770e-10	-2.557864e+01	-6.072600e+01
9.900000e-07	-3.637496e-06	-9.240737e-10	-2.533129e+01	-6.042404e+01
1.000000e-06	-3.601833e-06	-9.194058e-10	-2.508294e+01	-6.011889e+01
1.010000e-06	-3.566065e-06	-9.135499e-10	-2.483385e+01	-5.981045e+01
1.020000e-06	-3.530128e-06	-9.037734e-10	-2.458359e+01	-5.949863e+01
1.030000e-06	-3.493940e-06	-8.969165e-10	-2.433158e+01	-5.918332e+01
1.040000e-06	-3.457598e-06	-8.946115e-10	-2.407849e+01	-5.886442e+01
1.050000e-06	-3.421160e-06	-8.927618e-10	-2.382474e+01	-5.854183e+01
1.060000e-06	-3.384433e-06	-8.888755e-10	-2.356898e+01	-5.821544e+01
1.070000e-06	-3.347328e-06	-8.871592e-10	-2.331058e+01	-5.788515e+01
1.080000e-06	-3.309937e-06	-8.782488e-10	-2.305019e+01	-5.755085e+01
1.090000e-06	-3.272315e-06	-8.646722e-10	-2.278820e+01	-5.721242e+01
1.100000e-06	-3.234494e-06	-8.541808e-10	-2.252481e+01	-5.686976e+01
1.110000e-06	-3.196482e-06	-8.474663e-10	-2.226010e+01	-5.652275e+01
1.120000e-06	-3.158220e-06	-8.407562e-10	-2.199365e+01	-5.617127e+01
1.130000e-06	-3.119719e-06	-8.408630e-10	-2.172553e+01	-5.581523e+01
1.140000e-06	-3.081064e-06	-8.418546e-10	-2.145633e+01	-5.545449e+01
1.150000e-06	-3.042218e-06	-8.372158e-10	-2.118582e+01	-5.508896e+01
1.160000e-06	-3.003128e-06	-8.295050e-10	-2.091359e+01	-5.471850e+01
1.170000e-06	-2.963852e-06	-8.231278e-10	-2.064008e+01	-5.434302e+01
1.180000e-06	-2.924414e-06	-8.149735e-10	-2.036543e+01	-5.396240e+01
1.190000e-06	-2.884796e-06	-8.056421e-10	-2.008954e+01	-5.357654e+01
1.200000e-06	-2.845006e-06	-7.971424e-10	-1.981244e+01	-5.318531e+01
1.210000e-06	-2.805125e-06	-7.899040e-10	-1.953471e+01	-5.278862e+01
1.220000e-06	-2.765156e-06	-7.830812e-10	-1.925637e+01	-5.238637e+01
1.230000e-06	-2.724975e-06	-7.804435e-10	-1.897655e+01	-5.197844e+01
1.240000e-06	-2.684609e-06	-7.780504e-10	-1.869545e+01	-5.156475e+01
1.250000e-06	-2.644060e-06	-7.717935e-10	-1.841307e+01	-5.114518e+01
1.260000e-06	-2.603282e-06	-7.645842e-10	-1.812909e+01	-5.071965e+01
1.270000e-06	-2.562349e-06	-7.555329e-10	-1.784404e+01	-5.028807e+01
1.280000e-06	-2.521198e-06	-7.462337e-10	-1.755746e+01	-4.985033e+01
1.290000e-06	-2.479768e-06	-7.379882e-10	-1.726895e+01	-4.940635e+01
1.300000e-06	-2.438001e-06	-7.308679e-10	-1.697809e+01	-4.895604e+01
1.310000e-06	-2.395902e-06	-7.251782e-10	-1.668491e+01	-4.849931e+01
1.320000e-06	-2.353451e-06	-7.189177e-10	-1.638928e+01	-4.803607e+01
1.330000e-06	-2.310696e-06	-7.116160e-10	-1.609154e+01	-4.756622e+01
1.340000e-06	-2.267814e-06	-7.034052e-10	-1.579291e+01	-4.708968e+01
1.350000e-06	-2.224744e-06	-6.921129e-10	-1.549298e+01	-4.660636e+01
1.360000e-06	-2.181426e-06	-6.800723e-10	-1.519131e+01	-4.611614e+01
1.370000e-06	-2.137960e-06	-6.708115e-10	-1.488862e+01	-4.561893e+01
1.380000e-06	-2.094418e-06	-6.661798e-10	-1.458540e+01	-4.511463e+01
1.390000e-06	-2.050743e-06	-6.628603e-10	-1.428125e+01	-4.460312e+01
1.400000e-06	-2.006896e-06	-6.573015e-10	-1.397590e+01	-4.408427e+01
1.410000e-06	-1.962974e-06	-6.478151e-10	-1.367003e+01	-4.355797e+01
1.420000e-06	-1.919056e-06	-6.370162e-10	-1.336418e+01	-4.302406e+01
1.430000e-06	-1.875065e-06	-6.261087e-10	-1.305783e+01	-4.248241e+01
1.440000e-06	-1.830972e-06	-6.157254e-10	-1.275077e+01	-4.193284e+01
1.450000e-06	-1.786707e-06	-6.057988e-10	-1.244252e+01	-4.137519e+01
1.460000e-06	-1.742295e-06	-5.968480e-10	-1.213323e+01	-4.080927e+01
1.470000e-06	-1.697810e-06	-5.890228e-10	-1.182345e+01	-4.023488e+01
1.480000e-06	-1.653244e-06	-5.807340e-10	-1.151309e+01	-3.965181e+01
1.490000e-06	-1.608580e-06	-5.697487e-10	-1.120205e+01	-3.905983e+01
1.500000e-06	-1.563761e-06	-5.591841e-10	-1.088993e+01	-3.845868e+01
1.510000e-06	-1.518791e-06	-5.485165e-10	-1.057676e+01	-3.784811e+01
1.520000e-06	-1.473751e-06	-5.365599e-10	-1.026311e+01	-3.722785e+01
1.530000e-06	-1.428668e-06	-5.254611e-10	-9.949151e+00	-3.659760e+01
1.540000e-06	-1.383476e-06	-5.149098e-10	-9.634443e+00	-3.595705e+01
1.550000e-06	-1.338112e-06	-5.045240e-10	-9.318530e+00	-3.530588e+01
1.560000e-06	-1.292621e-06	-4.951096e-10	-9.001734e+00	-3.464376e+01
1.570000e-06	-1.247036e-06	-4.840512e-10	-8.684277e+00	-3.397033e+01
1.580000e-06	-1.201382e-06	-4.717068e-10	-8.366350e+00	-3.328524e+01
1.590000e-06	-1.155707e-06	-4.596242e-10	-8.048267e+00	-3.258811e+01
1.600000e-06	-1.109948e-06	-4.470608e-10	-7.729610e+00	-3.187856e+01
1.610000e-06	-1.064111e-06	-4.339014e-10	-7.410400e+00	-3.115622e+01
1.620000e-06	-1.018221e-06	-4.218984e-10	-7.090826e+00	-3.042068e+01
1.630000e-06	-9.722720e-07	-4.145241e-10	-6.770841e+00	-2.967156e+01
1.640000e-06	-9.262317e-07	-4.088631e-10	-6.450219e+00	-2.890846e+01
1.650000e-06	-8.800750e-07	-3.994935e-10	-6.128787e+00	-2.813100e+01
1.660000e-06	-8.338228e-07	-3.864266e-10	-5.806689e+00	-2.733878e+01
1.670000e-06	-7.874823e-07	-3.714003e-10	-5.483977e+00	-2.653145e+01
1.680000e-06	-7.410802e-07	-3.551236e-10	-5.160836e+00	-2.570864e+01
1.690000e-06	-6.946794e-07	-3.408408e-10	-4.837703e+00	-2.486999e+01
1.700000e-06	-6.482543e-07	-3.280330e-10	-4.514402e+00	-2.401520e+01
1.710000e-06	-6.018036e-07	-3.166340e-10	-4.190922e+00	-2.314394e+01
1.720000e-06	-5.553633e-07	-3.035325e-10	-3.867515e+00	-2.225595e+01
1.730000e-06	-5.089494e-07	-2.869713e-10	-3.544291e+00	-2.135099e+01
1.740000e-06	-4.624706e-07	-2.698822e-10	-3.220616e+00	-2.042882e+01
1.750000e-06	-4.158887e-07	-2.556272e-10	-2.896223e+00	-1.948929e+01
1.760000e-06	-3.692132e-07	-2.433317e-10	-2.571178e+00	-1.853224e+01
1.770000e-06	-3.224488e-07	-2.319795e-10	-2.245513e+00	-1.755759e+01
1.780000e-06	-2.757216e-07	-2.203728e-10	-1.920108e+00	-1.656529e+01
1.790000e-06	-2.290232e-07	-2.077258e-10	-1.594903e+00	-1.555533e+01
1.800000e-06	-1.822971e-07	-1.915791e-10	-1.269506e+00	-1.452778e+01
1.810000e-06	-1.355976e-07	-1.729448e-10	-9.442928e-01	-1.348273e+01
1.820000e-06	-8.893953e-08	-1.565370e-10	-6.193693e-01	-1.242036e+01
1.830000e-06	-4.220273e-08	-1.437546e-10	-2.938972e-01	-1.134087e+01
1.840000e-06	4.646200e-09	-1.315211e-10	3.235584e-02	-1.024456e+01
1.850000e-06	5.144032e-08	-1.170427e-10	3.582272e-01	-9.131758e+00
1.860000e-06	9.821538e-08	-1.008637e-10	6.839657e-01	-8.002873e+00
1.870000e-06	1.449441e-07	-8.231761e-11	1.009381e+00	-6.858367e+00
1.880000e-06	1.915496e-07	-6.134558e-11	1.333939e+00	-5.698765e+00
1.890000e-06	2.382074e-07	-4.059307e-11	1.658861e+00	-4.524657e+00
1.900000e-06	2.848775e-07	-2.325296e-11	1.983869e+00	-3.336688e+00
1.910000e-06	3.315379e-07	-7.947678e-12	2.308809e+00	-2.135566e+00
1.920000e-06	3.782056e-07	5.976290e-12	2.633800e+00	-9.220564e-01
1.930000e-06	4.247320e-07	1.989701e-11	2.957807e+00	3.030217e-01
1.940000e-06	4.711295e-07	3.650188e-11	3.280916e+00	1.538795e+00
1.950000e-06	5.175372e-07	5.479719e-11	3.604097e+00	2.784340e+00
1.960000e-06	5.640111e-07	7.364332e-11	3.927738e+00	4.038687e+00
1.970000e-06	6.104980e-07	9.273552e-11	4.251469e+00	5.300821e+00
1.980000e-06	6.569284e-07	1.114496e-10	4.574808e+00	6.569691e+00
1.990000e-06	7.032341e-07	1.299496e-10	4.897278e+00	7.844209e+00
2.000000e-06	7.494566e-07	1.463126e-10	5.219169e+00	9.123255e+00
2.010000e-06	7.957138e-07	1.648450e-10	5.541301e+00	1.040568e+01
2.020000e-06	8.419350e-07	1.864417e-10	5.863182e+00	1.169033e+01
2.030000e-06	8.880187e-07	2.078679e-10	6.184106e+00	1.297602e+01
2.040000e-06	9.340085e-07	2.264644e-10	6.504376e+00	1.426155e+01
2.050000e-06	9.799955e-07	2.431866e-10	6.824627e+00	1.554573e+01
2.060000e-06	1.025920e-06	2.588653e-10	7.144443e+00	1.682737e+01
2.070000e-06	1.071775e-06	2.749008e-10	7.463772e+00	1.810527e+01
2.080000e-06	1.117542e-06	2.927954e-10	7.782495e+00	1.937825e+01
2.090000e-06	1.163192e-06	3.134037e-10	8.100392e+00	2.064515e+01
2.100000e-06	1.208838e-06	3.343868e-10	8.418270e+00	2.190484e+01
2.110000e-06	1.254421e-06	3.517877e-10	8.735708e+00	2.315619e+01
2.120000e-06	1.299843e-06	3.675967e-10	9.052025e+00	2.439813e+01
2.130000e-06	1.345131e-06	3.817168e-10	9.367405e+00	2.562961e+01
2.140000e-06	1.390335e-06	3.955017e-10	9.682202e+00	2.684962e+01
2.150000e-06	1.435483e-06	4.117718e-10	9.996614e+00	2.805722e+01
2.160000e-06	1.480568e-06	4.295447e-10	1.031058e+01	2.925148e+01
2.170000e-06	1.525548e-06	4.476396e-10	1.062382e+01	3.043156e+01
2.180000e-06	1.570327e-06	4.687606e-10	1.093566e+01	3.159665e+01
2.190000e-06	1.614989e-06	4.872574e-10	1.124668e+01	3.274600e+01
2.200000e-06	1.659586e-06	5.007744e-10	1.155725e+01	3.387894e+01
2.210000e-06	1.704014e-06	5.125246e-10	1.186664e+01	3.499484e+01
2.220000e-06	1.748325e-06	5.255377e-10	1.217523e+01	3.609314e+01
2.230000e-06	1.792543e-06	5.406360e-10	1.248315e+01	3.717336e+01
2.240000e-06	1.836653e-06	5.557268e-10	1.279034e+01	3.823507e+01
2.250000e-06	1.880652e-06	5.717731e-10	1.309674e+01	3.927789e+01
2.260000e-06	1.924555e-06	5.865376e-10	1.340248e+01	4.030154e+01
2.270000e-06	1.968398e-06	6.037479e-10	1.370780e+01	4.130578e+01
2.280000e-06	2.012223e-06	6.218022e-10	1.401299e+01	4.229043e+01
2.290000e-06	2.056029e-06	6.383107e-10	1.431806e+01	4.325539e+01
2.300000e-06	2.099745e-06	6.519030e-10	1.462249e+01	4.420060e+01
2.310000e-06	2.143317e-06	6.640134e-10	1.492592e+01	4.512607e+01
2.320000e-06	2.186737e-06	6.776971e-10	1.522830e+01	4.603184e+01
2.330000e-06	2.230032e-06	6.904171e-10	1.552980e+01	4.691804e+01
2.340000e-06	2.273184e-06	7.039060e-10	1.583031e+01	4.778480e+01
2.350000e-06	2.316106e-06	7.199097e-10	1.612922e+01	4.863233e+01
2.360000e-06	2.358805e-06	7.358539e-10	1.642657e+01	4.946086e+01
2.370000e-06	2.401254e-06	7.476248e-10	1.672218e+01	5.027066e+01
2.380000e-06	2.443362e-06	7.563681e-10	1.701542e+01	5.106205e+01
2.390000e-06	2.485089e-06	7.638574e-10	1.730600e+01	5.183534e+01
2.400000e-06	2.526423e-06	7.722080e-10	1.759385e+01	5.259090e+01
2.410000e-06	2.567453e-06	7.823885e-10	1.787958e+01	5.332910e+01
2.420000e-06	2.608204e-06	7.949896e-10	1.816337e+01	5.405032e+01
2.430000e-06	2.648710e-06	8.087889e-10	1.844545e+01	5.475497e+01
2.440000e-06	2.689087e-06	8.183441e-10	1.872663e+01	5.544346e+01
2.450000e-06	2.729336e-06	8.246923e-10	1.900692e+01	5.611619e+01
2.460000e-06	2.769448e-06	8.336968e-10	1.928626e+01	5.677357e+01
2.470000e-06	2.809412e-06	8.442080e-10	1.956457e+01	5.741602e+01
2.480000e-06	2.849212e-06	8.551794e-10	1.984173e+01	5.804392e+01
2.490000e-06	2.888895e-06	8.661423e-10	2.011808e+01	5.865768e+01
2.500000e-06	2.928457e-06	8.762651e-10	2.039359e+01	5.925766e+01
2.510000e-06	2.967882e-06	8.860315e-10	2.066814e+01	5.984423e+01
2.520000e-06	3.007179e-06	8.954653e-10	2.094181e+01	6.041774e+01
2.530000e-06	3.046218e-06	9.035242e-10	2.121367e+01	6.097852e+01
2.540000e-06	3.084969e-06	9.094646e-10	2.148353e+01	6.152686e+01
2.550000e-06	3.123631e-06	9.137549e-10	2.175277e+01	6.206307e+01
2.560000e-06	3.162084e-06	9.195652e-10	2.202055e+01	6.258740e+01
2.570000e-06	3.200217e-06	9.267077e-10	2.228611e+01	6.310010e+01
2.580000e-06	3.238112e-06	9.331044e-10	2.255001e+01	6.360139e+01
2.590000e-06	3.275741e-06	9.401447e-10	2.281205e+01	6.409147e+01
2.600000e-06	3.313181e-06	9.481476e-10	2.307278e+01	6.457052e+01
2.610000e-06	3.350373e-06	9.548043e-10	2.333179e+01	6.503871e+01
2.620000e-06	3.387282e-06	9.591056e-10	2.358882e+01	6.549616e+01
2.630000e-06	3.424009e-06	9.615332e-10	2.384458e+01	6.594301e+01
2.640000e-06	3.460500e-06	9.650001e-10	2.409870e+01	6.637936e+01
2.650000e-06	3.496691e-06	9.705557e-10	2.435074e+01	6.680529e+01
2.660000e-06	3.532660e-06	9.759155e-10	2.460122e+01	6.722090e+01
2.670000e-06	3.568514e-06	9.798483e-10	2.485090e+01	6.762625e+01
2.680000e-06	3.604247e-06	9.847071e-10	2.509975e+01	6.802139e+01
2.690000e-06	3.639867e-06	9.915899e-10	2.534781e+01	6.840639e+01
2.700000e-06	3.675336e-06	9.984873e-10	2.559481e+01	6.878129e+01
2.710000e-06	3.710596e-06	1.004036e-09	2.584036e+01	6.914614e+01
2.720000e-06	3.745541e-06	1.008303e-09	2.608371e+01	6.950098e+01
2.730000e-06	3.780091e-06	1.012737e-09	2.632431e+01	6.984587e+01
2.740000e-06	3.814264e-06	1.016274e-09	2.656230e+01	7.018087e+01
2.750000e-06	3.847923e-06	1.018729e-09	2.679669e+01	7.050602e+01
2.760000e-06	3.880996e-06	1.021382e-09	2.702701e+01	7.082141e+01
2.770000e-06	3.913651e-06	1.026187e-09	2.725442e+01	7.112711e+01
2.780000e-06	3.946094e-06	1.032929e-09	2.748035e+01	7.142321e+01
2.790000e-06	3.978223e-06	1.039925e-09	2.770409e+01	7.170981e+01
2.800000e-06	4.010036e-06	1.045973e-09	2.792564e+01	7.198702e+01
2.810000e-06	4.041730e-06	1.051210e-09	2.814635e+01	7.225498e+01
2.820000e-06	4.073284e-06	1.055772e-09	2.836609e+01	7.251383e+01
2.830000e-06	4.104678e-06	1.060391e-09	2.858472e+01	7.276374e+01
2.840000e-06	4.135837e-06	1.065522e-09	2.880171e+01	7.300486e+01
2.850000e-06	4.166695e-06	1.072103e-09	2.901660e+01	7.323740e+01
2.860000e-06	4.197204e-06	1.078021e-09	2.922906e+01	7.346156e+01
2.870000e-06	4.227374e-06	1.080623e-09	2.943917e+01	7.367756e+01
2.880000e-06	4.257284e-06	1.082131e-09	2.964746e+01	7.388562e+01
2.890000e-06	4.286945e-06	1.085381e-09	2.985402e+01	7.408599e+01
2.900000e-06	4.316299e-06	1.089632e-09	3.005844e+01	7.427892e+01
2.910000e-06	4.345298e-06	1.094794e-09	3.026038e+01	7.446468e+01
