# Temperatura_=_-1.76
# Concentracion g/m^3_=_1620.0
# C_Vs_to_Am_M_A/Vsm_=_65563218390.804596
# pendiente_HvsI_1/m_=_3716.3
# ordenada_HvsI_A/m_=_1297.0
# frecuencia_Hz_=_135106.49787831522

Tiempo_(s)	Campo_(V.s)	Magnetizacion_(V.s)	Campo_(kA/m)	Magnetizacion_(A/m)
0.000000e+00	-5.520115e-06	-9.054766e-10	-3.837143e+01	-6.068538e+01
1.000000e-08	-5.520152e-06	-9.039880e-10	-3.837168e+01	-6.066473e+01
2.000000e-08	-5.519968e-06	-9.032954e-10	-3.837041e+01	-6.064615e+01
3.000000e-08	-5.519426e-06	-9.016793e-10	-3.836664e+01	-6.062937e+01
4.000000e-08	-5.518275e-06	-8.946119e-10	-3.835864e+01	-6.061412e+01
5.000000e-08	-5.516551e-06	-8.813714e-10	-3.834666e+01	-6.060008e+01
6.000000e-08	-5.514331e-06	-8.819938e-10	-3.833122e+01	-6.058695e+01
7.000000e-08	-5.511625e-06	-9.300767e-10	-3.831241e+01	-6.057440e+01
8.000000e-08	-5.508437e-06	-9.670247e-10	-3.829025e+01	-6.056209e+01
9.000000e-08	-5.504751e-06	-9.239278e-10	-3.826463e+01	-6.054968e+01
1.000000e-07	-5.500649e-06	-8.851785e-10	-3.823612e+01	-6.053684e+01
1.100000e-07	-5.496274e-06	-9.217784e-10	-3.820570e+01	-6.052320e+01
1.200000e-07	-5.491628e-06	-9.323120e-10	-3.817341e+01	-6.050843e+01
1.300000e-07	-5.486664e-06	-8.983583e-10	-3.813890e+01	-6.049218e+01
1.400000e-07	-5.481341e-06	-8.592052e-10	-3.810190e+01	-6.047413e+01
1.500000e-07	-5.475682e-06	-9.103427e-10	-3.806257e+01	-6.045394e+01
1.600000e-07	-5.469655e-06	-9.345249e-10	-3.802067e+01	-6.043131e+01
1.700000e-07	-5.463241e-06	-9.196960e-10	-3.797608e+01	-6.040593e+01
1.800000e-07	-5.456443e-06	-9.094089e-10	-3.792883e+01	-6.037751e+01
1.900000e-07	-5.449164e-06	-9.196296e-10	-3.787823e+01	-6.034580e+01
2.000000e-07	-5.441498e-06	-9.218230e-10	-3.782495e+01	-6.031055e+01
2.100000e-07	-5.433621e-06	-9.242452e-10	-3.777019e+01	-6.027152e+01
2.200000e-07	-5.425510e-06	-9.446433e-10	-3.771381e+01	-6.022851e+01
2.300000e-07	-5.417079e-06	-9.511992e-10	-3.765520e+01	-6.018134e+01
2.400000e-07	-5.408090e-06	-9.572233e-10	-3.759272e+01	-6.012986e+01
2.500000e-07	-5.398423e-06	-9.431385e-10	-3.752552e+01	-6.007392e+01
2.600000e-07	-5.388147e-06	-9.288421e-10	-3.745409e+01	-6.001343e+01
2.700000e-07	-5.377279e-06	-9.090216e-10	-3.737854e+01	-5.994829e+01
2.800000e-07	-5.365990e-06	-9.274224e-10	-3.730007e+01	-5.987846e+01
2.900000e-07	-5.354328e-06	-9.292546e-10	-3.721901e+01	-5.980391e+01
3.000000e-07	-5.342246e-06	-9.092425e-10	-3.713502e+01	-5.972462e+01
3.100000e-07	-5.329771e-06	-8.897897e-10	-3.704831e+01	-5.964062e+01
3.200000e-07	-5.316935e-06	-9.241391e-10	-3.695908e+01	-5.955194e+01
3.300000e-07	-5.303749e-06	-9.167855e-10	-3.686742e+01	-5.945867e+01
3.400000e-07	-5.290150e-06	-8.895319e-10	-3.677289e+01	-5.936088e+01
3.500000e-07	-5.276154e-06	-9.038276e-10	-3.667560e+01	-5.925869e+01
3.600000e-07	-5.261712e-06	-9.247160e-10	-3.657522e+01	-5.915223e+01
3.700000e-07	-5.246682e-06	-8.796607e-10	-3.647074e+01	-5.904164e+01
3.800000e-07	-5.231124e-06	-8.816787e-10	-3.636259e+01	-5.892709e+01
3.900000e-07	-5.215137e-06	-9.301654e-10	-3.625147e+01	-5.880876e+01
4.000000e-07	-5.198664e-06	-8.883497e-10	-3.613696e+01	-5.868684e+01
4.100000e-07	-5.181771e-06	-8.397265e-10	-3.601953e+01	-5.856154e+01
4.200000e-07	-5.164532e-06	-9.109334e-10	-3.589970e+01	-5.843308e+01
4.300000e-07	-5.147015e-06	-9.351190e-10	-3.577794e+01	-5.830167e+01
4.400000e-07	-5.129224e-06	-8.546400e-10	-3.565427e+01	-5.816755e+01
4.500000e-07	-5.111054e-06	-8.759894e-10	-3.552796e+01	-5.803095e+01
4.600000e-07	-5.092549e-06	-9.334576e-10	-3.539933e+01	-5.789210e+01
4.700000e-07	-5.073701e-06	-8.649545e-10	-3.526832e+01	-5.775124e+01
4.800000e-07	-5.054404e-06	-8.367904e-10	-3.513418e+01	-5.760861e+01
4.900000e-07	-5.034774e-06	-9.218934e-10	-3.499773e+01	-5.746442e+01
5.000000e-07	-5.014944e-06	-8.935760e-10	-3.485989e+01	-5.731891e+01
5.100000e-07	-4.994870e-06	-8.256954e-10	-3.472034e+01	-5.717230e+01
5.200000e-07	-4.974585e-06	-8.880557e-10	-3.457934e+01	-5.702479e+01
5.300000e-07	-4.953972e-06	-9.159674e-10	-3.443606e+01	-5.687658e+01
5.400000e-07	-4.932893e-06	-8.363117e-10	-3.428953e+01	-5.672787e+01
5.500000e-07	-4.911420e-06	-8.600862e-10	-3.414027e+01	-5.657882e+01
5.600000e-07	-4.889612e-06	-9.101387e-10	-3.398867e+01	-5.642961e+01
5.700000e-07	-4.867424e-06	-8.532449e-10	-3.383444e+01	-5.628036e+01
5.800000e-07	-4.844905e-06	-8.383848e-10	-3.367791e+01	-5.613122e+01
5.900000e-07	-4.822145e-06	-8.974256e-10	-3.351970e+01	-5.598229e+01
6.000000e-07	-4.799014e-06	-8.661752e-10	-3.335891e+01	-5.583368e+01
6.100000e-07	-4.775547e-06	-8.309338e-10	-3.319579e+01	-5.568546e+01
6.200000e-07	-4.751932e-06	-8.750087e-10	-3.303163e+01	-5.553769e+01
6.300000e-07	-4.728120e-06	-8.784654e-10	-3.286611e+01	-5.539040e+01
6.400000e-07	-4.703943e-06	-8.378847e-10	-3.269805e+01	-5.524363e+01
6.500000e-07	-4.679381e-06	-8.587972e-10	-3.252732e+01	-5.509736e+01
6.600000e-07	-4.654437e-06	-8.666361e-10	-3.235393e+01	-5.495159e+01
6.700000e-07	-4.629008e-06	-8.307893e-10	-3.217716e+01	-5.480628e+01
6.800000e-07	-4.603007e-06	-8.387578e-10	-3.199643e+01	-5.466136e+01
6.900000e-07	-4.576416e-06	-8.633844e-10	-3.181159e+01	-5.451677e+01
7.000000e-07	-4.549384e-06	-8.425005e-10	-3.162368e+01	-5.437242e+01
7.100000e-07	-4.522068e-06	-8.350108e-10	-3.143380e+01	-5.422819e+01
7.200000e-07	-4.494516e-06	-8.516166e-10	-3.124229e+01	-5.408397e+01
7.300000e-07	-4.466733e-06	-8.374693e-10	-3.104916e+01	-5.393961e+01
7.400000e-07	-4.438777e-06	-8.201369e-10	-3.085483e+01	-5.379496e+01
7.500000e-07	-4.410640e-06	-8.279950e-10	-3.065924e+01	-5.364985e+01
7.600000e-07	-4.382191e-06	-8.249356e-10	-3.046149e+01	-5.350410e+01
7.700000e-07	-4.353387e-06	-8.095278e-10	-3.026127e+01	-5.335752e+01
7.800000e-07	-4.324311e-06	-8.150428e-10	-3.005916e+01	-5.320990e+01
7.900000e-07	-4.294928e-06	-8.146160e-10	-2.985491e+01	-5.306105e+01
8.000000e-07	-4.265228e-06	-7.962931e-10	-2.964846e+01	-5.291073e+01
8.100000e-07	-4.235231e-06	-7.914988e-10	-2.943994e+01	-5.275873e+01
8.200000e-07	-4.204931e-06	-7.990495e-10	-2.922932e+01	-5.260482e+01
8.300000e-07	-4.174336e-06	-7.866422e-10	-2.901665e+01	-5.244876e+01
8.400000e-07	-4.143442e-06	-7.788741e-10	-2.880190e+01	-5.229034e+01
8.500000e-07	-4.112266e-06	-7.818282e-10	-2.858518e+01	-5.212930e+01
8.600000e-07	-4.080871e-06	-7.737193e-10	-2.836696e+01	-5.196542e+01
8.700000e-07	-4.049350e-06	-7.590178e-10	-2.814785e+01	-5.179848e+01
8.800000e-07	-4.017677e-06	-7.623614e-10	-2.792768e+01	-5.162824e+01
8.900000e-07	-3.985777e-06	-7.610639e-10	-2.770594e+01	-5.145448e+01
9.000000e-07	-3.953651e-06	-7.480877e-10	-2.748263e+01	-5.127701e+01
9.100000e-07	-3.921294e-06	-7.471554e-10	-2.725770e+01	-5.109560e+01
9.200000e-07	-3.888606e-06	-7.490649e-10	-2.703048e+01	-5.091007e+01
9.300000e-07	-3.855534e-06	-7.363542e-10	-2.680059e+01	-5.072023e+01
9.400000e-07	-3.821899e-06	-7.324748e-10	-2.656679e+01	-5.052591e+01
9.500000e-07	-3.787631e-06	-7.370712e-10	-2.632858e+01	-5.032694e+01
9.600000e-07	-3.752970e-06	-7.300325e-10	-2.608765e+01	-5.012320e+01
9.700000e-07	-3.718000e-06	-7.201013e-10	-2.584456e+01	-4.991453e+01
9.800000e-07	-3.682713e-06	-7.211964e-10	-2.559927e+01	-4.970084e+01
9.900000e-07	-3.647165e-06	-7.187675e-10	-2.535217e+01	-4.948201e+01
1.000000e-06	-3.611452e-06	-7.102033e-10	-2.510393e+01	-4.925797e+01
1.010000e-06	-3.575678e-06	-7.107533e-10	-2.485525e+01	-4.902864e+01
1.020000e-06	-3.539785e-06	-7.123054e-10	-2.460576e+01	-4.879400e+01
1.030000e-06	-3.503699e-06	-7.035731e-10	-2.435491e+01	-4.855399e+01
1.040000e-06	-3.467416e-06	-6.968233e-10	-2.410270e+01	-4.830862e+01
1.050000e-06	-3.430876e-06	-6.950186e-10	-2.384871e+01	-4.805788e+01
1.060000e-06	-3.394046e-06	-6.861293e-10	-2.359270e+01	-4.780179e+01
1.070000e-06	-3.356959e-06	-6.778692e-10	-2.333490e+01	-4.754041e+01
1.080000e-06	-3.319616e-06	-6.761519e-10	-2.307532e+01	-4.727378e+01
1.090000e-06	-3.282017e-06	-6.734185e-10	-2.281396e+01	-4.700197e+01
1.100000e-06	-3.244187e-06	-6.655243e-10	-2.255100e+01	-4.672507e+01
1.110000e-06	-3.206154e-06	-6.610087e-10	-2.228662e+01	-4.644319e+01
1.120000e-06	-3.167887e-06	-6.571698e-10	-2.202062e+01	-4.615643e+01
1.130000e-06	-3.129338e-06	-6.522383e-10	-2.175265e+01	-4.586492e+01
1.140000e-06	-3.090598e-06	-6.493181e-10	-2.148337e+01	-4.556880e+01
1.150000e-06	-3.051647e-06	-6.468031e-10	-2.121261e+01	-4.526820e+01
1.160000e-06	-3.012480e-06	-6.393873e-10	-2.094036e+01	-4.496329e+01
1.170000e-06	-2.973202e-06	-6.346109e-10	-2.066732e+01	-4.465421e+01
1.180000e-06	-2.933797e-06	-6.337264e-10	-2.039341e+01	-4.434112e+01
1.190000e-06	-2.894232e-06	-6.314858e-10	-2.011838e+01	-4.402419e+01
1.200000e-06	-2.854483e-06	-6.285431e-10	-1.984209e+01	-4.370357e+01
1.210000e-06	-2.814562e-06	-6.285627e-10	-1.956458e+01	-4.337943e+01
1.220000e-06	-2.774535e-06	-6.262782e-10	-1.928635e+01	-4.305191e+01
1.230000e-06	-2.734438e-06	-6.211765e-10	-1.900763e+01	-4.272116e+01
1.240000e-06	-2.694108e-06	-6.146503e-10	-1.872729e+01	-4.238732e+01
1.250000e-06	-2.653492e-06	-6.084853e-10	-1.844495e+01	-4.205052e+01
1.260000e-06	-2.612671e-06	-6.036750e-10	-1.816120e+01	-4.171085e+01
1.270000e-06	-2.571650e-06	-5.994415e-10	-1.787605e+01	-4.136843e+01
1.280000e-06	-2.530265e-06	-5.975455e-10	-1.758838e+01	-4.102333e+01
1.290000e-06	-2.488550e-06	-5.945423e-10	-1.729841e+01	-4.067560e+01
1.300000e-06	-2.446605e-06	-5.884884e-10	-1.700684e+01	-4.032529e+01
1.310000e-06	-2.404386e-06	-5.807489e-10	-1.671337e+01	-3.997240e+01
1.320000e-06	-2.361952e-06	-5.733571e-10	-1.641840e+01	-3.961692e+01
1.330000e-06	-2.319215e-06	-5.669750e-10	-1.612133e+01	-3.925881e+01
1.340000e-06	-2.276183e-06	-5.621749e-10	-1.582220e+01	-3.889801e+01
1.350000e-06	-2.232956e-06	-5.577305e-10	-1.552173e+01	-3.853441e+01
1.360000e-06	-2.189558e-06	-5.518343e-10	-1.522006e+01	-3.816788e+01
1.370000e-06	-2.146009e-06	-5.462050e-10	-1.491734e+01	-3.779827e+01
1.380000e-06	-2.102314e-06	-5.420927e-10	-1.461361e+01	-3.742539e+01
1.390000e-06	-2.058538e-06	-5.344221e-10	-1.430931e+01	-3.704900e+01
1.400000e-06	-2.014710e-06	-5.243015e-10	-1.400465e+01	-3.666885e+01
1.410000e-06	-1.970818e-06	-5.170518e-10	-1.369955e+01	-3.628465e+01
1.420000e-06	-1.926838e-06	-5.130486e-10	-1.339384e+01	-3.589606e+01
1.430000e-06	-1.882792e-06	-5.099583e-10	-1.308766e+01	-3.550275e+01
1.440000e-06	-1.838647e-06	-5.059373e-10	-1.278080e+01	-3.510432e+01
1.450000e-06	-1.794408e-06	-4.996156e-10	-1.247329e+01	-3.470036e+01
1.460000e-06	-1.750110e-06	-4.897323e-10	-1.216537e+01	-3.429042e+01
1.470000e-06	-1.705647e-06	-4.773123e-10	-1.185630e+01	-3.387403e+01
1.480000e-06	-1.661062e-06	-4.667329e-10	-1.154638e+01	-3.345069e+01
1.490000e-06	-1.616329e-06	-4.593869e-10	-1.123543e+01	-3.301989e+01
1.500000e-06	-1.571435e-06	-4.542768e-10	-1.092336e+01	-3.258109e+01
1.510000e-06	-1.526416e-06	-4.493954e-10	-1.061042e+01	-3.213374e+01
1.520000e-06	-1.481210e-06	-4.446700e-10	-1.029619e+01	-3.167726e+01
1.530000e-06	-1.435849e-06	-4.375104e-10	-9.980872e+00	-3.121107e+01
1.540000e-06	-1.390350e-06	-4.270270e-10	-9.664601e+00	-3.073459e+01
1.550000e-06	-1.344864e-06	-4.151439e-10	-9.348423e+00	-3.024721e+01
1.560000e-06	-1.299361e-06	-4.045548e-10	-9.032120e+00	-2.974836e+01
1.570000e-06	-1.253731e-06	-3.954915e-10	-8.714937e+00	-2.923742e+01
1.580000e-06	-1.208017e-06	-3.887489e-10	-8.397169e+00	-2.871383e+01
1.590000e-06	-1.162242e-06	-3.844999e-10	-8.078976e+00	-2.817699e+01
1.600000e-06	-1.116441e-06	-3.783177e-10	-7.760606e+00	-2.762636e+01
1.610000e-06	-1.070523e-06	-3.694260e-10	-7.441424e+00	-2.706138e+01
1.620000e-06	-1.024504e-06	-3.602886e-10	-7.121533e+00	-2.648155e+01
1.630000e-06	-9.784458e-07	-3.521888e-10	-6.801374e+00	-2.588635e+01
1.640000e-06	-9.322805e-07	-3.439194e-10	-6.480469e+00	-2.527533e+01
1.650000e-06	-8.860056e-07	-3.333002e-10	-6.158803e+00	-2.464805e+01
1.660000e-06	-8.396738e-07	-3.217202e-10	-5.836741e+00	-2.400412e+01
1.670000e-06	-7.932050e-07	-3.097840e-10	-5.513727e+00	-2.334318e+01
1.680000e-06	-7.466882e-07	-2.979119e-10	-5.190380e+00	-2.266492e+01
1.690000e-06	-7.002368e-07	-2.876560e-10	-4.867487e+00	-2.196907e+01
1.700000e-06	-6.537646e-07	-2.768620e-10	-4.544449e+00	-2.125542e+01
1.710000e-06	-6.072525e-07	-2.660988e-10	-4.221134e+00	-2.052380e+01
1.720000e-06	-5.606820e-07	-2.528135e-10	-3.897413e+00	-1.977409e+01
1.730000e-06	-5.140619e-07	-2.368560e-10	-3.573347e+00	-1.900625e+01
1.740000e-06	-4.674287e-07	-2.221530e-10	-3.249191e+00	-1.822027e+01
1.750000e-06	-4.207725e-07	-2.098505e-10	-2.924874e+00	-1.741621e+01
1.760000e-06	-3.740296e-07	-1.996445e-10	-2.599955e+00	-1.659419e+01
1.770000e-06	-3.271947e-07	-1.907532e-10	-2.274396e+00	-1.575438e+01
1.780000e-06	-2.803041e-07	-1.813993e-10	-1.948450e+00	-1.489702e+01
1.790000e-06	-2.334211e-07	-1.711292e-10	-1.622557e+00	-1.402241e+01
1.800000e-06	-1.865824e-07	-1.582939e-10	-1.296972e+00	-1.313090e+01
1.810000e-06	-1.397828e-07	-1.444366e-10	-9.716586e-01	-1.222292e+01
1.820000e-06	-9.302621e-08	-1.333299e-10	-6.466438e-01	-1.129892e+01
1.830000e-06	-4.621402e-08	-1.243617e-10	-3.212429e-01	-1.035943e+01
1.840000e-06	7.300924e-10	-1.151057e-10	5.075019e-03	-9.405040e+00
1.850000e-06	4.768744e-08	-1.043448e-10	3.314850e-01	-8.436373e+00
1.860000e-06	9.452637e-08	-9.254558e-11	6.570718e-01	-7.454109e+00
1.870000e-06	1.413429e-07	-7.835791e-11	9.825028e-01	-6.458973e+00
1.880000e-06	1.882338e-07	-6.270260e-11	1.308451e+00	-5.451731e+00
1.890000e-06	2.351280e-07	-4.714012e-11	1.634422e+00	-4.433189e+00
1.900000e-06	2.819578e-07	-3.232635e-11	1.959945e+00	-3.404190e+00
1.910000e-06	3.287983e-07	-1.898413e-11	2.285543e+00	-2.365608e+00
1.920000e-06	3.756422e-07	-7.509366e-12	2.611165e+00	-1.318343e+00
1.930000e-06	4.223983e-07	3.104689e-12	2.936175e+00	-2.633214e-01
1.940000e-06	4.690776e-07	1.640864e-11	3.260653e+00	7.985117e-01
1.950000e-06	5.157661e-07	3.246931e-11	3.585194e+00	1.866196e+00
1.960000e-06	5.623797e-07	5.012012e-11	3.909214e+00	2.938758e+00
1.970000e-06	6.088634e-07	6.554949e-11	4.232332e+00	4.015221e+00
1.980000e-06	6.553140e-07	7.790382e-11	4.555219e+00	5.094601e+00
1.990000e-06	7.016922e-07	9.089073e-11	4.877604e+00	6.175918e+00
2.000000e-06	7.480000e-07	1.027485e-10	5.199498e+00	7.258196e+00
2.010000e-06	7.942286e-07	1.174519e-10	5.520843e+00	8.340471e+00
2.020000e-06	8.404581e-07	1.359140e-10	5.842193e+00	9.421788e+00
2.030000e-06	8.866703e-07	1.550755e-10	6.163423e+00	1.050121e+01
2.040000e-06	9.327600e-07	1.700364e-10	6.483802e+00	1.157783e+01
2.050000e-06	9.787691e-07	1.818376e-10	6.803620e+00	1.265074e+01
2.060000e-06	1.024729e-06	1.947440e-10	7.123098e+00	1.371909e+01
2.070000e-06	1.070663e-06	2.100690e-10	7.442394e+00	1.478204e+01
2.080000e-06	1.116521e-06	2.271042e-10	7.761163e+00	1.583877e+01
2.090000e-06	1.162280e-06	2.451197e-10	8.079244e+00	1.688852e+01
2.100000e-06	1.207934e-06	2.646045e-10	8.396594e+00	1.793056e+01
2.110000e-06	1.253552e-06	2.814249e-10	8.713689e+00	1.896419e+01
2.120000e-06	1.299099e-06	2.939857e-10	9.030301e+00	1.998873e+01
2.130000e-06	1.344493e-06	3.064276e-10	9.345838e+00	2.100358e+01
2.140000e-06	1.389828e-06	3.216056e-10	9.660973e+00	2.200816e+01
2.150000e-06	1.435082e-06	3.378128e-10	9.975543e+00	2.300192e+01
2.160000e-06	1.480185e-06	3.548713e-10	1.028906e+01	2.398436e+01
2.170000e-06	1.525137e-06	3.707542e-10	1.060153e+01	2.495502e+01
2.180000e-06	1.569913e-06	3.864198e-10	1.091278e+01	2.591349e+01
2.190000e-06	1.614558e-06	4.001516e-10	1.122311e+01	2.685939e+01
2.200000e-06	1.659167e-06	4.129182e-10	1.153320e+01	2.779237e+01
2.210000e-06	1.703763e-06	4.248651e-10	1.184320e+01	2.871212e+01
2.220000e-06	1.748218e-06	4.354002e-10	1.215221e+01	2.961838e+01
2.230000e-06	1.792485e-06	4.482585e-10	1.245992e+01	3.051091e+01
2.240000e-06	1.836614e-06	4.609494e-10	1.276667e+01	3.138951e+01
2.250000e-06	1.880650e-06	4.732181e-10	1.307278e+01	3.225401e+01
2.260000e-06	1.924702e-06	4.852619e-10	1.337899e+01	3.310426e+01
2.270000e-06	1.968697e-06	5.023741e-10	1.368481e+01	3.394014e+01
2.280000e-06	2.012560e-06	5.204363e-10	1.398971e+01	3.476156e+01
2.290000e-06	2.056336e-06	5.342134e-10	1.429400e+01	3.556846e+01
2.300000e-06	2.100036e-06	5.425539e-10	1.459777e+01	3.636077e+01
2.310000e-06	2.143675e-06	5.484914e-10	1.490111e+01	3.713847e+01
2.320000e-06	2.187201e-06	5.561816e-10	1.520367e+01	3.790154e+01
2.330000e-06	2.230493e-06	5.671672e-10	1.550461e+01	3.864997e+01
2.340000e-06	2.273615e-06	5.800113e-10	1.580436e+01	3.938379e+01
2.350000e-06	2.316569e-06	5.948246e-10	1.610294e+01	4.010301e+01
2.360000e-06	2.359246e-06	6.110585e-10	1.639959e+01	4.080766e+01
2.370000e-06	2.401671e-06	6.213351e-10	1.669450e+01	4.149778e+01
2.380000e-06	2.443806e-06	6.278287e-10	1.698739e+01	4.217341e+01
2.390000e-06	2.485574e-06	6.344454e-10	1.727773e+01	4.283461e+01
2.400000e-06	2.527082e-06	6.423533e-10	1.756625e+01	4.348141e+01
2.410000e-06	2.568405e-06	6.507555e-10	1.785350e+01	4.411389e+01
2.420000e-06	2.609350e-06	6.603828e-10	1.813812e+01	4.473210e+01
2.430000e-06	2.649962e-06	6.722672e-10	1.842042e+01	4.533609e+01
2.440000e-06	2.690452e-06	6.830474e-10	1.870187e+01	4.592594e+01
2.450000e-06	2.730830e-06	6.893797e-10	1.898255e+01	4.650170e+01
2.460000e-06	2.771013e-06	6.946469e-10	1.926187e+01	4.706344e+01
2.470000e-06	2.810984e-06	6.999712e-10	1.953971e+01	4.761123e+01
2.480000e-06	2.850860e-06	7.076804e-10	1.981690e+01	4.814514e+01
2.490000e-06	2.890597e-06	7.160462e-10	2.009312e+01	4.866524e+01
2.500000e-06	2.930140e-06	7.243162e-10	2.036799e+01	4.917161e+01
2.510000e-06	2.969538e-06	7.323619e-10	2.064185e+01	4.966433e+01
2.520000e-06	3.008767e-06	7.403439e-10	2.091455e+01	5.014348e+01
2.530000e-06	3.047808e-06	7.481220e-10	2.118593e+01	5.060916e+01
2.540000e-06	3.086625e-06	7.529609e-10	2.145575e+01	5.106147e+01
2.550000e-06	3.125142e-06	7.587556e-10	2.172349e+01	5.150051e+01
2.560000e-06	3.163426e-06	7.649306e-10	2.198961e+01	5.192640e+01
2.570000e-06	3.201603e-06	7.683813e-10	2.225499e+01	5.233926e+01
2.580000e-06	3.239628e-06	7.709082e-10	2.251931e+01	5.273924e+01
2.590000e-06	3.277434e-06	7.752032e-10	2.278210e+01	5.312648e+01
2.600000e-06	3.314993e-06	7.812846e-10	2.304318e+01	5.350115e+01
2.610000e-06	3.352303e-06	7.843596e-10	2.330253e+01	5.386342e+01
2.620000e-06	3.389363e-06	7.874204e-10	2.356015e+01	5.421348e+01
2.630000e-06	3.426174e-06	7.902541e-10	2.381603e+01	5.455153e+01
2.640000e-06	3.462746e-06	7.925293e-10	2.407024e+01	5.487780e+01
2.650000e-06	3.499043e-06	7.968093e-10	2.432255e+01	5.519253e+01
2.660000e-06	3.535114e-06	8.031226e-10	2.457329e+01	5.549596e+01
2.670000e-06	3.571041e-06	8.084942e-10	2.482302e+01	5.578836e+01
2.680000e-06	3.606858e-06	8.129559e-10	2.507200e+01	5.607001e+01
2.690000e-06	3.642524e-06	8.190550e-10	2.531992e+01	5.634122e+01
2.700000e-06	3.678043e-06	8.236272e-10	2.556682e+01	5.660229e+01
2.710000e-06	3.713341e-06	8.259154e-10	2.581218e+01	5.685355e+01
2.720000e-06	3.748196e-06	8.285955e-10	2.605446e+01	5.709533e+01
2.730000e-06	3.782576e-06	8.336653e-10	2.629345e+01	5.732799e+01
2.740000e-06	3.816645e-06	8.398836e-10	2.653026e+01	5.755188e+01
2.750000e-06	3.850339e-06	8.442709e-10	2.676448e+01	5.776738e+01
2.760000e-06	3.883562e-06	8.482261e-10	2.699542e+01	5.797485e+01
2.770000e-06	3.916364e-06	8.518212e-10	2.722343e+01	5.817468e+01
2.780000e-06	3.948807e-06	8.548936e-10	2.744895e+01	5.836724e+01
2.790000e-06	3.981009e-06	8.584569e-10	2.767279e+01	5.855292e+01
2.800000e-06	4.012984e-06	8.608057e-10	2.789506e+01	5.873211e+01
2.810000e-06	4.044777e-06	8.627951e-10	2.811606e+01	5.890518e+01
2.820000e-06	4.076358e-06	8.652225e-10	2.833558e+01	5.907251e+01
2.830000e-06	4.107687e-06	8.695169e-10	2.855336e+01	5.923447e+01
2.840000e-06	4.138796e-06	8.747326e-10	2.876960e+01	5.939141e+01
2.850000e-06	4.169627e-06	8.817702e-10	2.898391e+01	5.954367e+01
2.860000e-06	4.200208e-06	8.874166e-10	2.919649e+01	5.969160e+01
2.870000e-06	4.230557e-06	8.887694e-10	2.940745e+01	5.983550e+01
2.880000e-06	4.260571e-06	8.894232e-10	2.961608e+01	5.997567e+01
2.890000e-06	4.290275e-06	8.925274e-10	2.982256e+01	6.011239e+01
2.900000e-06	4.319641e-06	8.959261e-10	3.002670e+01	6.024591e+01
