# Temperatura_=_-0.5
# Concentracion g/m^3_=_1620.0
# C_Vs_to_Am_M_A/Vsm_=_65563218390.804596
# pendiente_HvsI_1/m_=_3716.3
# ordenada_HvsI_A/m_=_1297.0
# frecuencia_Hz_=_135095.6699325586

Tiempo_(s)	Campo_(V.s)	Magnetizacion_(V.s)	Campo_(kA/m)	Magnetizacion_(A/m)
0.000000e+00	-5.516604e-06	-1.333685e-09	-3.836828e+01	-8.907148e+01
1.000000e-08	-5.517016e-06	-1.331093e-09	-3.837114e+01	-8.902374e+01
2.000000e-08	-5.517186e-06	-1.331005e-09	-3.837233e+01	-8.897516e+01
3.000000e-08	-5.516995e-06	-1.334621e-09	-3.837099e+01	-8.892581e+01
4.000000e-08	-5.516403e-06	-1.335350e-09	-3.836688e+01	-8.887571e+01
5.000000e-08	-5.515215e-06	-1.324650e-09	-3.835862e+01	-8.882490e+01
6.000000e-08	-5.513378e-06	-1.303966e-09	-3.834584e+01	-8.877339e+01
7.000000e-08	-5.510933e-06	-1.291965e-09	-3.832884e+01	-8.872120e+01
8.000000e-08	-5.507911e-06	-1.331200e-09	-3.830781e+01	-8.866830e+01
9.000000e-08	-5.504415e-06	-1.411118e-09	-3.828350e+01	-8.861468e+01
1.000000e-07	-5.500445e-06	-1.451216e-09	-3.825589e+01	-8.856030e+01
1.100000e-07	-5.496090e-06	-1.365784e-09	-3.822560e+01	-8.850510e+01
1.200000e-07	-5.491569e-06	-1.251387e-09	-3.819415e+01	-8.844901e+01
1.300000e-07	-5.486844e-06	-1.239155e-09	-3.816129e+01	-8.839196e+01
1.400000e-07	-5.481788e-06	-1.355227e-09	-3.812613e+01	-8.833385e+01
1.500000e-07	-5.476345e-06	-1.344465e-09	-3.808827e+01	-8.827457e+01
1.600000e-07	-5.470495e-06	-1.269006e-09	-3.804759e+01	-8.821399e+01
1.700000e-07	-5.464261e-06	-1.266613e-09	-3.800423e+01	-8.815198e+01
1.800000e-07	-5.457647e-06	-1.395196e-09	-3.795823e+01	-8.808838e+01
1.900000e-07	-5.450613e-06	-1.411392e-09	-3.790930e+01	-8.802304e+01
2.000000e-07	-5.443246e-06	-1.285414e-09	-3.785807e+01	-8.795578e+01
2.100000e-07	-5.435678e-06	-1.243474e-09	-3.780543e+01	-8.788641e+01
2.200000e-07	-5.427830e-06	-1.331455e-09	-3.775085e+01	-8.781476e+01
2.300000e-07	-5.419732e-06	-1.398000e-09	-3.769453e+01	-8.774062e+01
2.400000e-07	-5.411318e-06	-1.338322e-09	-3.763601e+01	-8.766378e+01
2.500000e-07	-5.402276e-06	-1.315228e-09	-3.757312e+01	-8.758404e+01
2.600000e-07	-5.392380e-06	-1.341237e-09	-3.750430e+01	-8.750117e+01
2.700000e-07	-5.381724e-06	-1.355432e-09	-3.743018e+01	-8.741498e+01
2.800000e-07	-5.370588e-06	-1.293708e-09	-3.735273e+01	-8.732524e+01
2.900000e-07	-5.359156e-06	-1.305548e-09	-3.727322e+01	-8.723173e+01
3.000000e-07	-5.347410e-06	-1.333581e-09	-3.719152e+01	-8.713425e+01
3.100000e-07	-5.335322e-06	-1.332706e-09	-3.710745e+01	-8.703258e+01
3.200000e-07	-5.322810e-06	-1.287681e-09	-3.702043e+01	-8.692652e+01
3.300000e-07	-5.309837e-06	-1.311979e-09	-3.693020e+01	-8.681588e+01
3.400000e-07	-5.296482e-06	-1.332378e-09	-3.683732e+01	-8.670047e+01
3.500000e-07	-5.282723e-06	-1.327426e-09	-3.674163e+01	-8.658010e+01
3.600000e-07	-5.268382e-06	-1.307423e-09	-3.664188e+01	-8.645462e+01
3.700000e-07	-5.253627e-06	-1.322362e-09	-3.653926e+01	-8.632386e+01
3.800000e-07	-5.238536e-06	-1.319774e-09	-3.643430e+01	-8.618768e+01
3.900000e-07	-5.222873e-06	-1.306639e-09	-3.632536e+01	-8.604595e+01
4.000000e-07	-5.206747e-06	-1.304785e-09	-3.621321e+01	-8.589857e+01
4.100000e-07	-5.190319e-06	-1.315387e-09	-3.609895e+01	-8.574542e+01
4.200000e-07	-5.173467e-06	-1.311582e-09	-3.598174e+01	-8.558643e+01
4.300000e-07	-5.156173e-06	-1.295161e-09	-3.586146e+01	-8.542154e+01
4.400000e-07	-5.138581e-06	-1.307459e-09	-3.573911e+01	-8.525070e+01
4.500000e-07	-5.120694e-06	-1.322177e-09	-3.561470e+01	-8.507388e+01
4.600000e-07	-5.102403e-06	-1.309181e-09	-3.548748e+01	-8.489106e+01
4.700000e-07	-5.083617e-06	-1.274208e-09	-3.535683e+01	-8.470225e+01
4.800000e-07	-5.064516e-06	-1.285372e-09	-3.522398e+01	-8.450747e+01
4.900000e-07	-5.045193e-06	-1.301780e-09	-3.508959e+01	-8.430677e+01
5.000000e-07	-5.025653e-06	-1.291454e-09	-3.495369e+01	-8.410019e+01
5.100000e-07	-5.005953e-06	-1.268300e-09	-3.481667e+01	-8.388782e+01
5.200000e-07	-4.985970e-06	-1.277712e-09	-3.467769e+01	-8.366974e+01
5.300000e-07	-4.965515e-06	-1.271441e-09	-3.453542e+01	-8.344604e+01
5.400000e-07	-4.944724e-06	-1.270768e-09	-3.439082e+01	-8.321686e+01
5.500000e-07	-4.923632e-06	-1.279958e-09	-3.424413e+01	-8.298231e+01
5.600000e-07	-4.902127e-06	-1.273211e-09	-3.409455e+01	-8.274253e+01
5.700000e-07	-4.880303e-06	-1.236487e-09	-3.394277e+01	-8.249768e+01
5.800000e-07	-4.858213e-06	-1.246147e-09	-3.378913e+01	-8.224792e+01
5.900000e-07	-4.835686e-06	-1.262067e-09	-3.363245e+01	-8.199340e+01
6.000000e-07	-4.812738e-06	-1.241009e-09	-3.347285e+01	-8.173431e+01
6.100000e-07	-4.789562e-06	-1.222040e-09	-3.331166e+01	-8.147082e+01
6.200000e-07	-4.766139e-06	-1.239960e-09	-3.314875e+01	-8.120311e+01
6.300000e-07	-4.742499e-06	-1.227428e-09	-3.298433e+01	-8.093137e+01
6.400000e-07	-4.718688e-06	-1.205834e-09	-3.281873e+01	-8.065577e+01
6.500000e-07	-4.694556e-06	-1.214611e-09	-3.265089e+01	-8.037651e+01
6.600000e-07	-4.669944e-06	-1.217819e-09	-3.247971e+01	-8.009376e+01
6.700000e-07	-4.644761e-06	-1.195816e-09	-3.230456e+01	-7.980769e+01
6.800000e-07	-4.618999e-06	-1.199770e-09	-3.212539e+01	-7.951848e+01
6.900000e-07	-4.592744e-06	-1.208001e-09	-3.194278e+01	-7.922629e+01
7.000000e-07	-4.566018e-06	-1.188350e-09	-3.175690e+01	-7.893129e+01
7.100000e-07	-4.538899e-06	-1.178009e-09	-3.156828e+01	-7.863360e+01
7.200000e-07	-4.511542e-06	-1.184916e-09	-3.137802e+01	-7.833339e+01
7.300000e-07	-4.484035e-06	-1.177294e-09	-3.118670e+01	-7.803077e+01
7.400000e-07	-4.456370e-06	-1.166570e-09	-3.099429e+01	-7.772585e+01
7.500000e-07	-4.428452e-06	-1.174728e-09	-3.080012e+01	-7.741875e+01
7.600000e-07	-4.400180e-06	-1.169134e-09	-3.060349e+01	-7.710955e+01
7.700000e-07	-4.371585e-06	-1.152668e-09	-3.040461e+01	-7.679833e+01
7.800000e-07	-4.342759e-06	-1.143510e-09	-3.020412e+01	-7.648515e+01
7.900000e-07	-4.313669e-06	-1.142944e-09	-3.000180e+01	-7.617006e+01
8.000000e-07	-4.284264e-06	-1.137136e-09	-2.979728e+01	-7.585309e+01
8.100000e-07	-4.254584e-06	-1.135930e-09	-2.959086e+01	-7.553427e+01
8.200000e-07	-4.224608e-06	-1.130129e-09	-2.938238e+01	-7.521360e+01
8.300000e-07	-4.194282e-06	-1.124174e-09	-2.917146e+01	-7.489107e+01
8.400000e-07	-4.163621e-06	-1.118626e-09	-2.895821e+01	-7.456666e+01
8.500000e-07	-4.132747e-06	-1.116320e-09	-2.874348e+01	-7.424032e+01
8.600000e-07	-4.101691e-06	-1.105264e-09	-2.852748e+01	-7.391203e+01
8.700000e-07	-4.070370e-06	-1.097762e-09	-2.830964e+01	-7.358170e+01
8.800000e-07	-4.038815e-06	-1.090688e-09	-2.809018e+01	-7.324927e+01
8.900000e-07	-4.007131e-06	-1.085953e-09	-2.786981e+01	-7.291465e+01
9.000000e-07	-3.975234e-06	-1.079661e-09	-2.764796e+01	-7.257775e+01
9.100000e-07	-3.943033e-06	-1.073898e-09	-2.742401e+01	-7.223847e+01
9.200000e-07	-3.910461e-06	-1.065036e-09	-2.719746e+01	-7.189668e+01
9.300000e-07	-3.877420e-06	-1.060138e-09	-2.696766e+01	-7.155229e+01
9.400000e-07	-3.843970e-06	-1.056250e-09	-2.673502e+01	-7.120515e+01
9.500000e-07	-3.810106e-06	-1.052326e-09	-2.649949e+01	-7.085514e+01
9.600000e-07	-3.775670e-06	-1.046605e-09	-2.625998e+01	-7.050212e+01
9.700000e-07	-3.740805e-06	-1.039224e-09	-2.601750e+01	-7.014596e+01
9.800000e-07	-3.705703e-06	-1.032019e-09	-2.577337e+01	-6.978651e+01
9.900000e-07	-3.670383e-06	-1.027326e-09	-2.552771e+01	-6.942364e+01
1.000000e-06	-3.634938e-06	-1.023013e-09	-2.528119e+01	-6.905721e+01
1.010000e-06	-3.599358e-06	-1.017870e-09	-2.503373e+01	-6.868707e+01
1.020000e-06	-3.563625e-06	-1.012971e-09	-2.478520e+01	-6.831310e+01
1.030000e-06	-3.527773e-06	-1.007581e-09	-2.453585e+01	-6.793515e+01
1.040000e-06	-3.491719e-06	-1.003840e-09	-2.428509e+01	-6.755310e+01
1.050000e-06	-3.455293e-06	-9.964696e-10	-2.403175e+01	-6.716682e+01
1.060000e-06	-3.418587e-06	-9.883572e-10	-2.377646e+01	-6.677619e+01
1.070000e-06	-3.381665e-06	-9.798452e-10	-2.351966e+01	-6.638110e+01
1.080000e-06	-3.344468e-06	-9.726352e-10	-2.326096e+01	-6.598144e+01
1.090000e-06	-3.307035e-06	-9.647442e-10	-2.300060e+01	-6.557710e+01
1.100000e-06	-3.269381e-06	-9.580338e-10	-2.273872e+01	-6.516799e+01
1.110000e-06	-3.231477e-06	-9.489435e-10	-2.247509e+01	-6.475403e+01
1.120000e-06	-3.193306e-06	-9.402384e-10	-2.220961e+01	-6.433513e+01
1.130000e-06	-3.155016e-06	-9.322148e-10	-2.194330e+01	-6.391122e+01
1.140000e-06	-3.116521e-06	-9.263189e-10	-2.167557e+01	-6.348223e+01
1.150000e-06	-3.077701e-06	-9.197318e-10	-2.140558e+01	-6.304810e+01
1.160000e-06	-3.038631e-06	-9.105283e-10	-2.113384e+01	-6.260879e+01
1.170000e-06	-2.999419e-06	-9.029622e-10	-2.086112e+01	-6.216424e+01
1.180000e-06	-2.960099e-06	-8.988375e-10	-2.058765e+01	-6.171441e+01
1.190000e-06	-2.920641e-06	-8.917832e-10	-2.031322e+01	-6.125926e+01
1.200000e-06	-2.881104e-06	-8.860570e-10	-2.003823e+01	-6.079875e+01
1.210000e-06	-2.841461e-06	-8.780162e-10	-1.976251e+01	-6.033287e+01
1.220000e-06	-2.801649e-06	-8.691267e-10	-1.948562e+01	-5.986157e+01
1.230000e-06	-2.761640e-06	-8.599508e-10	-1.920735e+01	-5.938484e+01
1.240000e-06	-2.721440e-06	-8.528402e-10	-1.892776e+01	-5.890263e+01
1.250000e-06	-2.681094e-06	-8.445526e-10	-1.864715e+01	-5.841493e+01
1.260000e-06	-2.640617e-06	-8.393117e-10	-1.836564e+01	-5.792170e+01
1.270000e-06	-2.599756e-06	-8.347089e-10	-1.808144e+01	-5.742290e+01
1.280000e-06	-2.558484e-06	-8.258748e-10	-1.779440e+01	-5.691850e+01
1.290000e-06	-2.517122e-06	-8.170153e-10	-1.750672e+01	-5.640844e+01
1.300000e-06	-2.475527e-06	-8.069308e-10	-1.721742e+01	-5.589268e+01
1.310000e-06	-2.433474e-06	-7.946117e-10	-1.692494e+01	-5.537115e+01
1.320000e-06	-2.391001e-06	-7.841203e-10	-1.662954e+01	-5.484377e+01
1.330000e-06	-2.348301e-06	-7.784395e-10	-1.633256e+01	-5.431046e+01
1.340000e-06	-2.305427e-06	-7.737842e-10	-1.603437e+01	-5.377112e+01
1.350000e-06	-2.262270e-06	-7.655461e-10	-1.573421e+01	-5.322565e+01
1.360000e-06	-2.218967e-06	-7.559798e-10	-1.543303e+01	-5.267390e+01
1.370000e-06	-2.175601e-06	-7.459047e-10	-1.513142e+01	-5.211575e+01
1.380000e-06	-2.132149e-06	-7.376669e-10	-1.482921e+01	-5.155103e+01
1.390000e-06	-2.088582e-06	-7.303277e-10	-1.452620e+01	-5.097956e+01
1.400000e-06	-2.044898e-06	-7.208069e-10	-1.422237e+01	-5.040115e+01
1.410000e-06	-2.001186e-06	-7.095605e-10	-1.391836e+01	-4.981558e+01
1.420000e-06	-1.957363e-06	-6.985857e-10	-1.361357e+01	-4.922261e+01
1.430000e-06	-1.913397e-06	-6.915053e-10	-1.330778e+01	-4.862200e+01
1.440000e-06	-1.869368e-06	-6.837114e-10	-1.300156e+01	-4.801346e+01
1.450000e-06	-1.825246e-06	-6.756950e-10	-1.269468e+01	-4.739670e+01
1.460000e-06	-1.781033e-06	-6.656184e-10	-1.238718e+01	-4.677140e+01
1.470000e-06	-1.736713e-06	-6.552490e-10	-1.207893e+01	-4.613723e+01
1.480000e-06	-1.692236e-06	-6.423445e-10	-1.176959e+01	-4.549383e+01
1.490000e-06	-1.647504e-06	-6.286276e-10	-1.145848e+01	-4.484082e+01
1.500000e-06	-1.602657e-06	-6.173976e-10	-1.114657e+01	-4.417782e+01
1.510000e-06	-1.557716e-06	-6.086404e-10	-1.083400e+01	-4.350440e+01
1.520000e-06	-1.512589e-06	-6.003154e-10	-1.052014e+01	-4.282015e+01
1.530000e-06	-1.467369e-06	-5.923633e-10	-1.020563e+01	-4.212461e+01
1.540000e-06	-1.422090e-06	-5.801776e-10	-9.890709e+00	-4.141735e+01
1.550000e-06	-1.376710e-06	-5.643600e-10	-9.575092e+00	-4.069788e+01
1.560000e-06	-1.331197e-06	-5.499118e-10	-9.258548e+00	-3.996573e+01
1.570000e-06	-1.285564e-06	-5.374590e-10	-8.941167e+00	-3.922042e+01
1.580000e-06	-1.239884e-06	-5.243173e-10	-8.623457e+00	-3.846145e+01
1.590000e-06	-1.194179e-06	-5.154325e-10	-8.305576e+00	-3.768834e+01
1.600000e-06	-1.148396e-06	-5.089003e-10	-7.987157e+00	-3.690058e+01
1.610000e-06	-1.102596e-06	-4.982200e-10	-7.668618e+00	-3.609769e+01
1.620000e-06	-1.056622e-06	-4.841019e-10	-7.348864e+00	-3.527917e+01
1.630000e-06	-1.010503e-06	-4.729031e-10	-7.028101e+00	-3.444454e+01
1.640000e-06	-9.643687e-07	-4.638231e-10	-6.707236e+00	-3.359334e+01
1.650000e-06	-9.182026e-07	-4.514420e-10	-6.386148e+00	-3.272511e+01
1.660000e-06	-8.719650e-07	-4.377854e-10	-6.064564e+00	-3.183940e+01
1.670000e-06	-8.256313e-07	-4.248218e-10	-5.742310e+00	-3.093579e+01
1.680000e-06	-7.792817e-07	-4.112119e-10	-5.419946e+00	-3.001388e+01
1.690000e-06	-7.329553e-07	-3.954418e-10	-5.097743e+00	-2.907329e+01
1.700000e-06	-6.865114e-07	-3.794357e-10	-4.774724e+00	-2.811370e+01
1.710000e-06	-6.399456e-07	-3.645837e-10	-4.450856e+00	-2.713477e+01
1.720000e-06	-5.934500e-07	-3.512084e-10	-4.127476e+00	-2.613623e+01
1.730000e-06	-5.469509e-07	-3.363172e-10	-3.804073e+00	-2.511784e+01
1.740000e-06	-5.003585e-07	-3.204645e-10	-3.480020e+00	-2.407941e+01
1.750000e-06	-4.537607e-07	-3.030693e-10	-3.155930e+00	-2.302078e+01
1.760000e-06	-4.071313e-07	-2.860283e-10	-2.831620e+00	-2.194184e+01
1.770000e-06	-3.604185e-07	-2.699357e-10	-2.506730e+00	-2.084252e+01
1.780000e-06	-3.136932e-07	-2.550234e-10	-2.181753e+00	-1.972284e+01
1.790000e-06	-2.669147e-07	-2.417901e-10	-1.856406e+00	-1.858282e+01
1.800000e-06	-2.201510e-07	-2.263913e-10	-1.531162e+00	-1.742257e+01
1.810000e-06	-1.734205e-07	-2.072587e-10	-1.206149e+00	-1.624226e+01
1.820000e-06	-1.265716e-07	-1.870420e-10	-8.803126e-01	-1.504209e+01
1.830000e-06	-7.964383e-08	-1.680338e-10	-5.539271e-01	-1.382236e+01
1.840000e-06	-3.278356e-08	-1.509818e-10	-2.280115e-01	-1.258339e+01
1.850000e-06	1.396882e-08	-1.337763e-10	9.715388e-02	-1.132558e+01
1.860000e-06	6.071837e-08	-1.176705e-10	4.222995e-01	-1.004942e+01
1.870000e-06	1.074373e-07	-1.009509e-10	7.472322e-01	-8.755409e+00
1.880000e-06	1.541510e-07	-8.064983e-11	1.072129e+00	-7.444151e+00
1.890000e-06	2.009667e-07	-5.785394e-11	1.397734e+00	-6.116292e+00
1.900000e-06	2.477724e-07	-3.412122e-11	1.723270e+00	-4.772545e+00
1.910000e-06	2.945458e-07	-1.145953e-11	2.048582e+00	-3.413681e+00
1.920000e-06	3.413321e-07	7.771106e-12	2.373983e+00	-2.040530e+00
1.930000e-06	3.880877e-07	2.293361e-11	2.699171e+00	-6.539791e-01
1.940000e-06	4.347659e-07	3.975924e-11	3.023820e+00	7.450312e-01
1.950000e-06	4.813738e-07	5.935950e-11	3.347980e+00	2.155508e+00
1.960000e-06	5.279749e-07	8.033736e-11	3.672094e+00	3.576408e+00
1.970000e-06	5.744982e-07	1.044108e-10	3.995666e+00	5.006645e+00
1.980000e-06	6.209534e-07	1.254135e-10	4.318765e+00	6.445085e+00
1.990000e-06	6.674277e-07	1.452496e-10	4.641995e+00	7.890558e+00
2.000000e-06	7.137823e-07	1.635194e-10	4.964394e+00	9.341858e+00
2.010000e-06	7.600389e-07	1.788459e-10	5.286111e+00	1.079775e+01
2.020000e-06	8.062857e-07	1.970224e-10	5.607760e+00	1.225696e+01
2.030000e-06	8.524683e-07	2.193453e-10	5.928963e+00	1.371821e+01
2.040000e-06	8.986310e-07	2.449143e-10	6.250027e+00	1.518019e+01
2.050000e-06	9.447782e-07	2.688395e-10	6.570983e+00	1.664159e+01
2.060000e-06	9.907824e-07	2.908981e-10	6.890945e+00	1.810106e+01
2.070000e-06	1.036659e-06	3.090006e-10	7.210021e+00	1.955729e+01
2.080000e-06	1.082489e-06	3.263558e-10	7.528768e+00	2.100895e+01
2.090000e-06	1.128207e-06	3.443802e-10	7.846743e+00	2.245471e+01
2.100000e-06	1.173854e-06	3.657502e-10	8.164219e+00	2.389325e+01
2.110000e-06	1.219483e-06	3.882500e-10	8.481573e+00	2.532330e+01
2.120000e-06	1.265006e-06	4.092738e-10	8.798183e+00	2.674357e+01
2.130000e-06	1.310492e-06	4.314154e-10	9.114539e+00	2.815282e+01
2.140000e-06	1.355988e-06	4.528552e-10	9.430967e+00	2.954984e+01
2.150000e-06	1.401343e-06	4.731110e-10	9.746416e+00	3.093344e+01
2.160000e-06	1.446628e-06	4.910701e-10	1.006138e+01	3.230250e+01
2.170000e-06	1.491842e-06	5.064910e-10	1.037584e+01	3.365592e+01
2.180000e-06	1.536890e-06	5.256672e-10	1.068915e+01	3.499265e+01
2.190000e-06	1.581841e-06	5.454085e-10	1.100179e+01	3.631170e+01
2.200000e-06	1.626673e-06	5.624168e-10	1.131360e+01	3.761215e+01
2.210000e-06	1.671329e-06	5.788588e-10	1.162418e+01	3.889311e+01
2.220000e-06	1.715794e-06	5.965080e-10	1.193344e+01	4.015378e+01
2.230000e-06	1.760063e-06	6.146869e-10	1.224133e+01	4.139341e+01
2.240000e-06	1.804197e-06	6.310926e-10	1.254829e+01	4.261130e+01
2.250000e-06	1.848269e-06	6.449990e-10	1.285481e+01	4.380687e+01
2.260000e-06	1.892229e-06	6.562712e-10	1.316055e+01	4.497955e+01
2.270000e-06	1.936079e-06	6.657903e-10	1.346553e+01	4.612889e+01
2.280000e-06	1.979840e-06	6.798966e-10	1.376989e+01	4.725449e+01
2.290000e-06	2.023517e-06	6.981827e-10	1.407367e+01	4.835601e+01
2.300000e-06	2.067162e-06	7.183524e-10	1.437723e+01	4.943322e+01
2.310000e-06	2.110733e-06	7.377535e-10	1.468026e+01	5.048592e+01
2.320000e-06	2.154246e-06	7.543270e-10	1.498289e+01	5.151402e+01
2.330000e-06	2.197746e-06	7.674969e-10	1.528544e+01	5.251746e+01
2.340000e-06	2.241144e-06	7.753455e-10	1.558728e+01	5.349628e+01
2.350000e-06	2.284317e-06	7.836495e-10	1.588755e+01	5.445058e+01
2.360000e-06	2.327271e-06	7.971437e-10	1.618630e+01	5.538051e+01
2.370000e-06	2.370046e-06	8.156735e-10	1.648380e+01	5.628630e+01
2.380000e-06	2.412599e-06	8.327294e-10	1.677976e+01	5.716823e+01
2.390000e-06	2.454901e-06	8.481655e-10	1.707397e+01	5.802662e+01
2.400000e-06	2.496871e-06	8.604624e-10	1.736587e+01	5.886188e+01
2.410000e-06	2.538416e-06	8.695977e-10	1.765482e+01	5.967443e+01
2.420000e-06	2.579616e-06	8.782423e-10	1.794137e+01	6.046476e+01
2.430000e-06	2.620605e-06	8.899920e-10	1.822645e+01	6.123339e+01
2.440000e-06	2.661294e-06	9.023902e-10	1.850945e+01	6.198088e+01
2.450000e-06	2.701722e-06	9.142975e-10	1.879062e+01	6.270781e+01
2.460000e-06	2.741974e-06	9.263035e-10	1.907058e+01	6.341481e+01
2.470000e-06	2.781974e-06	9.408952e-10	1.934878e+01	6.410252e+01
2.480000e-06	2.821778e-06	9.547482e-10	1.962562e+01	6.477160e+01
2.490000e-06	2.861440e-06	9.643129e-10	1.990147e+01	6.542272e+01
2.500000e-06	2.900998e-06	9.715097e-10	2.017660e+01	6.605658e+01
2.510000e-06	2.940457e-06	9.772462e-10	2.045104e+01	6.667386e+01
2.520000e-06	2.979761e-06	9.840656e-10	2.072440e+01	6.727525e+01
2.530000e-06	3.018955e-06	9.947445e-10	2.099699e+01	6.786145e+01
2.540000e-06	3.057991e-06	1.006326e-09	2.126849e+01	6.843315e+01
2.550000e-06	3.096808e-06	1.015964e-09	2.153847e+01	6.899102e+01
2.560000e-06	3.135399e-06	1.023180e-09	2.180687e+01	6.953572e+01
2.570000e-06	3.173682e-06	1.029697e-09	2.207313e+01	7.006790e+01
2.580000e-06	3.211705e-06	1.035452e-09	2.233758e+01	7.058818e+01
2.590000e-06	3.249508e-06	1.040804e-09	2.260051e+01	7.109717e+01
2.600000e-06	3.287114e-06	1.048344e-09	2.286205e+01	7.159544e+01
2.610000e-06	3.324549e-06	1.056238e-09	2.312242e+01	7.208355e+01
2.620000e-06	3.361834e-06	1.062538e-09	2.338173e+01	7.256201e+01
2.630000e-06	3.398871e-06	1.067494e-09	2.363933e+01	7.303131e+01
2.640000e-06	3.435596e-06	1.072858e-09	2.389476e+01	7.349191e+01
2.650000e-06	3.472071e-06	1.077002e-09	2.414844e+01	7.394423e+01
2.660000e-06	3.508248e-06	1.081557e-09	2.440006e+01	7.438867e+01
2.670000e-06	3.544197e-06	1.087609e-09	2.465008e+01	7.482556e+01
2.680000e-06	3.580003e-06	1.093273e-09	2.489912e+01	7.525524e+01
2.690000e-06	3.615681e-06	1.099536e-09	2.514725e+01	7.567798e+01
2.700000e-06	3.651231e-06	1.106990e-09	2.539451e+01	7.609403e+01
2.710000e-06	3.686612e-06	1.114159e-09	2.564058e+01	7.650361e+01
2.720000e-06	3.721787e-06	1.120007e-09	2.588523e+01	7.690689e+01
2.730000e-06	3.756700e-06	1.125632e-09	2.612805e+01	7.730403e+01
2.740000e-06	3.791268e-06	1.132009e-09	2.636847e+01	7.769514e+01
2.750000e-06	3.825350e-06	1.136392e-09	2.660552e+01	7.808031e+01
2.760000e-06	3.858916e-06	1.140153e-09	2.683897e+01	7.845960e+01
2.770000e-06	3.891972e-06	1.145773e-09	2.706887e+01	7.883305e+01
2.780000e-06	3.924637e-06	1.152613e-09	2.729606e+01	7.920067e+01
2.790000e-06	3.957038e-06	1.159575e-09	2.752141e+01	7.956244e+01
2.800000e-06	3.989190e-06	1.167498e-09	2.774503e+01	7.991835e+01
2.810000e-06	4.021081e-06	1.173168e-09	2.796684e+01	8.026834e+01
2.820000e-06	4.052717e-06	1.176187e-09	2.818686e+01	8.061236e+01
2.830000e-06	4.084191e-06	1.179036e-09	2.840577e+01	8.095033e+01
2.840000e-06	4.115477e-06	1.183736e-09	2.862337e+01	8.128217e+01
2.850000e-06	4.146521e-06	1.190059e-09	2.883928e+01	8.160780e+01
2.860000e-06	4.177278e-06	1.196791e-09	2.905319e+01	8.192710e+01
2.870000e-06	4.207779e-06	1.201013e-09	2.926533e+01	8.224000e+01
2.880000e-06	4.237997e-06	1.203452e-09	2.947550e+01	8.254639e+01
2.890000e-06	4.267848e-06	1.206339e-09	2.968312e+01	8.284616e+01
2.900000e-06	4.297392e-06	1.209379e-09	2.988859e+01	8.313924e+01
