# Temperatura_=_-3.8
# Concentracion g/m^3_=_1620.0
# C_Vs_to_Am_M_A/Vsm_=_65563218390.804596
# pendiente_HvsI_1/m_=_3716.3
# ordenada_HvsI_A/m_=_1297.0
# frecuencia_Hz_=_135106.8626081627

Tiempo_(s)	Campo_(V.s)	Magnetizacion_(V.s)	Campo_(kA/m)	Magnetizacion_(A/m)
0.000000e+00	-5.507383e-06	-7.691459e-10	-3.836634e+01	-5.173895e+01
1.000000e-08	-5.507460e-06	-7.668741e-10	-3.836688e+01	-5.171004e+01
2.000000e-08	-5.507247e-06	-7.645647e-10	-3.836539e+01	-5.168172e+01
3.000000e-08	-5.506661e-06	-7.609366e-10	-3.836131e+01	-5.165378e+01
4.000000e-08	-5.505615e-06	-7.504718e-10	-3.835402e+01	-5.162602e+01
5.000000e-08	-5.503942e-06	-7.374475e-10	-3.834237e+01	-5.159819e+01
6.000000e-08	-5.501639e-06	-7.444239e-10	-3.832632e+01	-5.157008e+01
7.000000e-08	-5.498861e-06	-7.852892e-10	-3.830697e+01	-5.154144e+01
8.000000e-08	-5.495625e-06	-8.102774e-10	-3.828443e+01	-5.151205e+01
9.000000e-08	-5.491872e-06	-7.862208e-10	-3.825828e+01	-5.148167e+01
1.000000e-07	-5.487696e-06	-7.767428e-10	-3.822919e+01	-5.145008e+01
1.100000e-07	-5.483285e-06	-7.757981e-10	-3.819846e+01	-5.141705e+01
1.200000e-07	-5.478673e-06	-7.679910e-10	-3.816633e+01	-5.138236e+01
1.300000e-07	-5.473677e-06	-7.165672e-10	-3.813153e+01	-5.134582e+01
1.400000e-07	-5.468327e-06	-7.407749e-10	-3.809426e+01	-5.130722e+01
1.500000e-07	-5.462669e-06	-7.649448e-10	-3.805485e+01	-5.126639e+01
1.600000e-07	-5.456595e-06	-7.849291e-10	-3.801253e+01	-5.122315e+01
1.700000e-07	-5.450053e-06	-7.671056e-10	-3.796696e+01	-5.117736e+01
1.800000e-07	-5.443094e-06	-7.742988e-10	-3.791848e+01	-5.112890e+01
1.900000e-07	-5.435772e-06	-7.746613e-10	-3.786747e+01	-5.107763e+01
2.000000e-07	-5.428187e-06	-7.631005e-10	-3.781463e+01	-5.102347e+01
2.100000e-07	-5.420381e-06	-7.696882e-10	-3.776025e+01	-5.096634e+01
2.200000e-07	-5.412300e-06	-7.837023e-10	-3.770395e+01	-5.090620e+01
2.300000e-07	-5.403878e-06	-7.980495e-10	-3.764528e+01	-5.084300e+01
2.400000e-07	-5.394929e-06	-7.809207e-10	-3.758294e+01	-5.077673e+01
2.500000e-07	-5.385270e-06	-7.760612e-10	-3.751565e+01	-5.070741e+01
2.600000e-07	-5.374858e-06	-7.460048e-10	-3.744312e+01	-5.063505e+01
2.700000e-07	-5.363828e-06	-7.457054e-10	-3.736628e+01	-5.055971e+01
2.800000e-07	-5.352348e-06	-7.477090e-10	-3.728631e+01	-5.048146e+01
2.900000e-07	-5.340611e-06	-7.667335e-10	-3.720454e+01	-5.040038e+01
3.000000e-07	-5.328607e-06	-7.330989e-10	-3.712092e+01	-5.031657e+01
3.100000e-07	-5.316161e-06	-7.390744e-10	-3.703422e+01	-5.023015e+01
3.200000e-07	-5.303233e-06	-7.581399e-10	-3.694416e+01	-5.014126e+01
3.300000e-07	-5.289919e-06	-7.636719e-10	-3.685141e+01	-5.005002e+01
3.400000e-07	-5.276204e-06	-7.267386e-10	-3.675586e+01	-4.995661e+01
3.500000e-07	-5.262110e-06	-7.457591e-10	-3.665768e+01	-4.986118e+01
3.600000e-07	-5.247581e-06	-7.534921e-10	-3.655647e+01	-4.976391e+01
3.700000e-07	-5.232552e-06	-7.357439e-10	-3.645177e+01	-4.966497e+01
3.800000e-07	-5.217059e-06	-7.351209e-10	-3.634384e+01	-4.956455e+01
3.900000e-07	-5.201155e-06	-7.685210e-10	-3.623305e+01	-4.946281e+01
4.000000e-07	-5.184774e-06	-7.402313e-10	-3.611893e+01	-4.935995e+01
4.100000e-07	-5.167990e-06	-7.227736e-10	-3.600200e+01	-4.925614e+01
4.200000e-07	-5.150928e-06	-7.667959e-10	-3.588315e+01	-4.915156e+01
4.300000e-07	-5.133453e-06	-7.653358e-10	-3.576141e+01	-4.904637e+01
4.400000e-07	-5.115629e-06	-7.203426e-10	-3.563724e+01	-4.894073e+01
4.500000e-07	-5.097487e-06	-7.428799e-10	-3.551086e+01	-4.883480e+01
4.600000e-07	-5.078932e-06	-7.801482e-10	-3.538160e+01	-4.872872e+01
4.700000e-07	-5.059945e-06	-7.310202e-10	-3.524933e+01	-4.862260e+01
4.800000e-07	-5.040625e-06	-7.312397e-10	-3.511474e+01	-4.851657e+01
4.900000e-07	-5.021066e-06	-7.757901e-10	-3.497848e+01	-4.841073e+01
5.000000e-07	-5.001331e-06	-7.511403e-10	-3.484100e+01	-4.830515e+01
5.100000e-07	-4.981339e-06	-7.088908e-10	-3.470173e+01	-4.819991e+01
5.200000e-07	-4.960994e-06	-7.615947e-10	-3.456000e+01	-4.809506e+01
5.300000e-07	-4.940315e-06	-7.652447e-10	-3.441594e+01	-4.799063e+01
5.400000e-07	-4.919310e-06	-7.197944e-10	-3.426962e+01	-4.788663e+01
5.500000e-07	-4.897984e-06	-7.329587e-10	-3.412105e+01	-4.778308e+01
5.600000e-07	-4.876353e-06	-7.654930e-10	-3.397036e+01	-4.767995e+01
5.700000e-07	-4.854374e-06	-7.242357e-10	-3.381725e+01	-4.757720e+01
5.800000e-07	-4.831996e-06	-7.298057e-10	-3.366136e+01	-4.747480e+01
5.900000e-07	-4.809260e-06	-7.611731e-10	-3.350297e+01	-4.737267e+01
6.000000e-07	-4.786199e-06	-7.357820e-10	-3.334232e+01	-4.727074e+01
6.100000e-07	-4.762796e-06	-7.083758e-10	-3.317929e+01	-4.716891e+01
6.200000e-07	-4.739188e-06	-7.386439e-10	-3.301482e+01	-4.706708e+01
6.300000e-07	-4.715426e-06	-7.277719e-10	-3.284929e+01	-4.696513e+01
6.400000e-07	-4.691389e-06	-7.050499e-10	-3.268184e+01	-4.686295e+01
6.500000e-07	-4.666960e-06	-7.256648e-10	-3.251166e+01	-4.676039e+01
6.600000e-07	-4.642048e-06	-7.335819e-10	-3.233811e+01	-4.665732e+01
6.700000e-07	-4.616607e-06	-7.094546e-10	-3.216088e+01	-4.655359e+01
6.800000e-07	-4.590610e-06	-7.224020e-10	-3.197978e+01	-4.644906e+01
6.900000e-07	-4.564109e-06	-7.347117e-10	-3.179516e+01	-4.634357e+01
7.000000e-07	-4.537181e-06	-7.123862e-10	-3.160758e+01	-4.623697e+01
7.100000e-07	-4.509941e-06	-7.104594e-10	-3.141781e+01	-4.612912e+01
7.200000e-07	-4.482464e-06	-7.235741e-10	-3.122639e+01	-4.601987e+01
7.300000e-07	-4.454758e-06	-7.086658e-10	-3.103339e+01	-4.590907e+01
7.400000e-07	-4.426828e-06	-6.984225e-10	-3.083882e+01	-4.579659e+01
7.500000e-07	-4.398635e-06	-7.120540e-10	-3.064241e+01	-4.568229e+01
7.600000e-07	-4.370182e-06	-7.029610e-10	-3.044420e+01	-4.556606e+01
7.700000e-07	-4.341467e-06	-6.916311e-10	-3.024417e+01	-4.544777e+01
7.800000e-07	-4.312436e-06	-7.018050e-10	-3.004192e+01	-4.532733e+01
7.900000e-07	-4.283087e-06	-7.062141e-10	-2.983747e+01	-4.520463e+01
8.000000e-07	-4.253444e-06	-6.909444e-10	-2.963097e+01	-4.507960e+01
8.100000e-07	-4.223448e-06	-6.961170e-10	-2.942200e+01	-4.495216e+01
8.200000e-07	-4.193115e-06	-6.981110e-10	-2.921069e+01	-4.482225e+01
8.300000e-07	-4.162499e-06	-6.863757e-10	-2.899741e+01	-4.468983e+01
8.400000e-07	-4.131589e-06	-6.805523e-10	-2.878208e+01	-4.455485e+01
8.500000e-07	-4.100527e-06	-6.869102e-10	-2.856569e+01	-4.441729e+01
8.600000e-07	-4.069315e-06	-6.768387e-10	-2.834826e+01	-4.427715e+01
8.700000e-07	-4.037870e-06	-6.699112e-10	-2.812920e+01	-4.413441e+01
8.800000e-07	-4.006229e-06	-6.727901e-10	-2.790878e+01	-4.398909e+01
8.900000e-07	-3.974372e-06	-6.718356e-10	-2.768685e+01	-4.384121e+01
9.000000e-07	-3.942214e-06	-6.599362e-10	-2.746283e+01	-4.369078e+01
9.100000e-07	-3.909807e-06	-6.624716e-10	-2.723707e+01	-4.353786e+01
9.200000e-07	-3.877105e-06	-6.632841e-10	-2.700926e+01	-4.338247e+01
9.300000e-07	-3.843909e-06	-6.560823e-10	-2.677800e+01	-4.322468e+01
9.400000e-07	-3.810206e-06	-6.533028e-10	-2.654321e+01	-4.306453e+01
9.500000e-07	-3.775988e-06	-6.556943e-10	-2.630484e+01	-4.290208e+01
9.600000e-07	-3.741290e-06	-6.440069e-10	-2.606312e+01	-4.273738e+01
9.700000e-07	-3.706287e-06	-6.343582e-10	-2.581928e+01	-4.257051e+01
9.800000e-07	-3.671004e-06	-6.359506e-10	-2.557348e+01	-4.240151e+01
9.900000e-07	-3.635502e-06	-6.358780e-10	-2.532616e+01	-4.223046e+01
1.000000e-06	-3.599913e-06	-6.315862e-10	-2.507824e+01	-4.205740e+01
1.010000e-06	-3.564194e-06	-6.333334e-10	-2.482941e+01	-4.188238e+01
1.020000e-06	-3.528317e-06	-6.346914e-10	-2.457948e+01	-4.170545e+01
1.030000e-06	-3.492268e-06	-6.254094e-10	-2.432835e+01	-4.152666e+01
1.040000e-06	-3.455998e-06	-6.205638e-10	-2.407568e+01	-4.134602e+01
1.050000e-06	-3.419506e-06	-6.191432e-10	-2.382147e+01	-4.116358e+01
1.060000e-06	-3.382743e-06	-6.140062e-10	-2.356536e+01	-4.097933e+01
1.070000e-06	-3.345698e-06	-6.095935e-10	-2.330729e+01	-4.079328e+01
1.080000e-06	-3.308463e-06	-6.128377e-10	-2.304790e+01	-4.060544e+01
1.090000e-06	-3.270939e-06	-6.109888e-10	-2.278650e+01	-4.041577e+01
1.100000e-06	-3.233052e-06	-6.058294e-10	-2.252256e+01	-4.022424e+01
1.110000e-06	-3.194987e-06	-6.017223e-10	-2.225738e+01	-4.003082e+01
1.120000e-06	-3.156786e-06	-5.992174e-10	-2.199126e+01	-3.983544e+01
1.130000e-06	-3.118405e-06	-5.919119e-10	-2.172389e+01	-3.963803e+01
1.140000e-06	-3.079818e-06	-5.890629e-10	-2.145508e+01	-3.943852e+01
1.150000e-06	-3.041043e-06	-5.861732e-10	-2.118496e+01	-3.923681e+01
1.160000e-06	-3.002038e-06	-5.831686e-10	-2.091323e+01	-3.903279e+01
1.170000e-06	-2.962796e-06	-5.810679e-10	-2.063986e+01	-3.882633e+01
1.180000e-06	-2.923398e-06	-5.825117e-10	-2.036540e+01	-3.861731e+01
1.190000e-06	-2.883850e-06	-5.799311e-10	-2.008989e+01	-3.840558e+01
1.200000e-06	-2.844207e-06	-5.761627e-10	-1.981373e+01	-3.819098e+01
1.210000e-06	-2.804393e-06	-5.749033e-10	-1.953638e+01	-3.797335e+01
1.220000e-06	-2.764400e-06	-5.723428e-10	-1.925776e+01	-3.775251e+01
1.230000e-06	-2.724223e-06	-5.669344e-10	-1.897788e+01	-3.752828e+01
1.240000e-06	-2.683879e-06	-5.650623e-10	-1.869683e+01	-3.730046e+01
1.250000e-06	-2.643375e-06	-5.637317e-10	-1.841467e+01	-3.706884e+01
1.260000e-06	-2.602576e-06	-5.575428e-10	-1.813045e+01	-3.683323e+01
1.270000e-06	-2.561549e-06	-5.506323e-10	-1.784463e+01	-3.659340e+01
1.280000e-06	-2.520255e-06	-5.476369e-10	-1.755697e+01	-3.634913e+01
1.290000e-06	-2.478616e-06	-5.442147e-10	-1.726690e+01	-3.610020e+01
1.300000e-06	-2.436687e-06	-5.387414e-10	-1.697480e+01	-3.584638e+01
1.310000e-06	-2.394434e-06	-5.334188e-10	-1.668046e+01	-3.558743e+01
1.320000e-06	-2.351836e-06	-5.273028e-10	-1.638370e+01	-3.532312e+01
1.330000e-06	-2.309064e-06	-5.203591e-10	-1.608574e+01	-3.505321e+01
1.340000e-06	-2.266145e-06	-5.153479e-10	-1.578675e+01	-3.477745e+01
1.350000e-06	-2.222956e-06	-5.127701e-10	-1.548588e+01	-3.449562e+01
1.360000e-06	-2.179611e-06	-5.082432e-10	-1.518392e+01	-3.420746e+01
1.370000e-06	-2.136123e-06	-5.039896e-10	-1.488097e+01	-3.391274e+01
1.380000e-06	-2.092530e-06	-4.995524e-10	-1.457729e+01	-3.361121e+01
1.390000e-06	-2.048886e-06	-4.954403e-10	-1.427325e+01	-3.330264e+01
1.400000e-06	-2.005146e-06	-4.908340e-10	-1.396854e+01	-3.298677e+01
1.410000e-06	-1.961369e-06	-4.870250e-10	-1.366357e+01	-3.266338e+01
1.420000e-06	-1.917581e-06	-4.850744e-10	-1.335853e+01	-3.233222e+01
1.430000e-06	-1.873620e-06	-4.833320e-10	-1.305229e+01	-3.199305e+01
1.440000e-06	-1.829445e-06	-4.773796e-10	-1.274455e+01	-3.164564e+01
1.450000e-06	-1.785159e-06	-4.685092e-10	-1.243603e+01	-3.128975e+01
1.460000e-06	-1.740799e-06	-4.597343e-10	-1.212701e+01	-3.092515e+01
1.470000e-06	-1.696361e-06	-4.498028e-10	-1.181744e+01	-3.055160e+01
1.480000e-06	-1.651818e-06	-4.413743e-10	-1.150713e+01	-3.016886e+01
1.490000e-06	-1.607176e-06	-4.379079e-10	-1.119615e+01	-2.977671e+01
1.500000e-06	-1.562385e-06	-4.366432e-10	-1.088411e+01	-2.937492e+01
1.510000e-06	-1.517412e-06	-4.355568e-10	-1.057082e+01	-2.896324e+01
1.520000e-06	-1.472290e-06	-4.287625e-10	-1.025648e+01	-2.854146e+01
1.530000e-06	-1.427055e-06	-4.184130e-10	-9.941356e+00	-2.810935e+01
1.540000e-06	-1.381774e-06	-4.036871e-10	-9.625917e+00	-2.766668e+01
1.550000e-06	-1.336469e-06	-3.897790e-10	-9.310305e+00	-2.721322e+01
1.560000e-06	-1.291045e-06	-3.792505e-10	-8.993869e+00	-2.674875e+01
1.570000e-06	-1.245461e-06	-3.727383e-10	-8.676310e+00	-2.627306e+01
1.580000e-06	-1.199809e-06	-3.697879e-10	-8.358287e+00	-2.578592e+01
1.590000e-06	-1.154116e-06	-3.682991e-10	-8.039971e+00	-2.528712e+01
1.600000e-06	-1.108298e-06	-3.632602e-10	-7.720784e+00	-2.477645e+01
1.610000e-06	-1.062421e-06	-3.512615e-10	-7.401193e+00	-2.425370e+01
1.620000e-06	-1.016481e-06	-3.376650e-10	-7.081157e+00	-2.371869e+01
1.630000e-06	-9.704591e-07	-3.273869e-10	-6.760554e+00	-2.317121e+01
1.640000e-06	-9.243744e-07	-3.214705e-10	-6.439512e+00	-2.261108e+01
1.650000e-06	-8.782044e-07	-3.144987e-10	-6.117876e+00	-2.203813e+01
1.660000e-06	-8.320257e-07	-3.070324e-10	-5.796179e+00	-2.145219e+01
1.670000e-06	-7.858628e-07	-2.984368e-10	-5.474592e+00	-2.085311e+01
1.680000e-06	-7.397074e-07	-2.876010e-10	-5.153058e+00	-2.024075e+01
1.690000e-06	-6.934623e-07	-2.763696e-10	-4.830898e+00	-1.961498e+01
1.700000e-06	-6.471506e-07	-2.629696e-10	-4.508275e+00	-1.897570e+01
1.710000e-06	-6.007817e-07	-2.497964e-10	-4.185253e+00	-1.832281e+01
1.720000e-06	-5.542951e-07	-2.385884e-10	-3.861412e+00	-1.765625e+01
1.730000e-06	-5.078161e-07	-2.271410e-10	-3.537622e+00	-1.697596e+01
1.740000e-06	-4.612858e-07	-2.161331e-10	-3.213476e+00	-1.628190e+01
1.750000e-06	-4.146548e-07	-2.052930e-10	-2.888629e+00	-1.557409e+01
1.760000e-06	-3.680295e-07	-1.952935e-10	-2.563821e+00	-1.485253e+01
1.770000e-06	-3.213512e-07	-1.846482e-10	-2.238644e+00	-1.411727e+01
1.780000e-06	-2.746250e-07	-1.734745e-10	-1.913133e+00	-1.336839e+01
1.790000e-06	-2.279021e-07	-1.614211e-10	-1.587645e+00	-1.260600e+01
1.800000e-06	-1.811937e-07	-1.486949e-10	-1.262258e+00	-1.183023e+01
1.810000e-06	-1.345177e-07	-1.369201e-10	-9.370969e-01	-1.104125e+01
1.820000e-06	-8.788716e-08	-1.284390e-10	-6.122524e-01	-1.023925e+01
1.830000e-06	-4.123887e-08	-1.226120e-10	-2.872842e-01	-9.424486e+00
1.840000e-06	5.452922e-09	-1.165659e-10	3.798694e-02	-8.597216e+00
1.850000e-06	5.210340e-08	-1.059757e-10	3.629704e-01	-7.757747e+00
1.860000e-06	9.876225e-08	-9.214902e-11	6.880120e-01	-6.906420e+00
1.870000e-06	1.454685e-07	-7.587004e-11	1.013384e+00	-6.043611e+00
1.880000e-06	1.921461e-07	-5.917370e-11	1.338556e+00	-5.169732e+00
1.890000e-06	2.388013e-07	-4.512250e-11	1.663573e+00	-4.285231e+00
1.900000e-06	2.854452e-07	-3.424053e-11	1.988510e+00	-3.390589e+00
1.910000e-06	3.321493e-07	-2.359502e-11	2.313867e+00	-2.486323e+00
1.920000e-06	3.788904e-07	-1.358309e-11	2.639482e+00	-1.572982e+00
1.930000e-06	4.254901e-07	-3.076397e-12	2.964111e+00	-6.511487e-01
1.940000e-06	4.720008e-07	1.067860e-11	3.288121e+00	2.785649e-01
1.950000e-06	5.184692e-07	2.493558e-11	3.611836e+00	1.215516e+00
1.960000e-06	5.649238e-07	3.846171e-11	3.935454e+00	2.159036e+00
1.970000e-06	6.114310e-07	5.096705e-11	4.259440e+00	3.108428e+00
1.980000e-06	6.579029e-07	6.284170e-11	4.583179e+00	4.062973e+00
1.990000e-06	7.042384e-07	7.573184e-11	4.905968e+00	5.021930e+00
2.000000e-06	7.504900e-07	8.642701e-11	5.228173e+00	5.984539e+00
2.010000e-06	7.967111e-07	9.824625e-11	5.550165e+00	6.950024e+00
2.020000e-06	8.428084e-07	1.142718e-10	5.871295e+00	7.917594e+00
2.030000e-06	8.888209e-07	1.322102e-10	6.191834e+00	8.886447e+00
2.040000e-06	9.348229e-07	1.478946e-10	6.512300e+00	9.855774e+00
2.050000e-06	9.807424e-07	1.610005e-10	6.832191e+00	1.082476e+01
2.060000e-06	1.026611e-06	1.741819e-10	7.151728e+00	1.179258e+01
2.070000e-06	1.072401e-06	1.870173e-10	7.470717e+00	1.275843e+01
2.080000e-06	1.118122e-06	2.007339e-10	7.789228e+00	1.372148e+01
2.090000e-06	1.163845e-06	2.170099e-10	8.107749e+00	1.468094e+01
2.100000e-06	1.209466e-06	2.357796e-10	8.425556e+00	1.563599e+01
2.110000e-06	1.254991e-06	2.506332e-10	8.742699e+00	1.658586e+01
2.120000e-06	1.300448e-06	2.627055e-10	9.059369e+00	1.752977e+01
2.130000e-06	1.345765e-06	2.739173e-10	9.375062e+00	1.846696e+01
2.140000e-06	1.390933e-06	2.848776e-10	9.689724e+00	1.939671e+01
2.150000e-06	1.435950e-06	2.974418e-10	1.000333e+01	2.031829e+01
2.160000e-06	1.480843e-06	3.118643e-10	1.031606e+01	2.123103e+01
2.170000e-06	1.525723e-06	3.262201e-10	1.062871e+01	2.213425e+01
2.180000e-06	1.570569e-06	3.433124e-10	1.094113e+01	2.302733e+01
2.190000e-06	1.615268e-06	3.601785e-10	1.125252e+01	2.390967e+01
2.200000e-06	1.659793e-06	3.732747e-10	1.156269e+01	2.478068e+01
2.210000e-06	1.704126e-06	3.823992e-10	1.187153e+01	2.563984e+01
2.220000e-06	1.748336e-06	3.911095e-10	1.217952e+01	2.648664e+01
2.230000e-06	1.792483e-06	4.009562e-10	1.248705e+01	2.732060e+01
2.240000e-06	1.836580e-06	4.099220e-10	1.279425e+01	2.814131e+01
2.250000e-06	1.880628e-06	4.192143e-10	1.310110e+01	2.894835e+01
2.260000e-06	1.924594e-06	4.279930e-10	1.340739e+01	2.974137e+01
2.270000e-06	1.968446e-06	4.416083e-10	1.371287e+01	3.052004e+01
2.280000e-06	2.012201e-06	4.557886e-10	1.401769e+01	3.128407e+01
2.290000e-06	2.055919e-06	4.667778e-10	1.432224e+01	3.203321e+01
2.300000e-06	2.099539e-06	4.764429e-10	1.462612e+01	3.276725e+01
2.310000e-06	2.143022e-06	4.842134e-10	1.492903e+01	3.348599e+01
2.320000e-06	2.186407e-06	4.926566e-10	1.523126e+01	3.418930e+01
2.330000e-06	2.229654e-06	5.025453e-10	1.553254e+01	3.487704e+01
2.340000e-06	2.272767e-06	5.141572e-10	1.583288e+01	3.554915e+01
2.350000e-06	2.315717e-06	5.276594e-10	1.613208e+01	3.620555e+01
2.360000e-06	2.358425e-06	5.402408e-10	1.642961e+01	3.684623e+01
2.370000e-06	2.400814e-06	5.486309e-10	1.672490e+01	3.747119e+01
2.380000e-06	2.442845e-06	5.542061e-10	1.701771e+01	3.808045e+01
2.390000e-06	2.484493e-06	5.598870e-10	1.730784e+01	3.867407e+01
2.400000e-06	2.525809e-06	5.650246e-10	1.759566e+01	3.925211e+01
2.410000e-06	2.566949e-06	5.700693e-10	1.788225e+01	3.981468e+01
2.420000e-06	2.607828e-06	5.772228e-10	1.816703e+01	4.036188e+01
2.430000e-06	2.648374e-06	5.862472e-10	1.844949e+01	4.089386e+01
2.440000e-06	2.688700e-06	5.966890e-10	1.873041e+01	4.141075e+01
2.450000e-06	2.728849e-06	6.058799e-10	1.901010e+01	4.191273e+01
2.460000e-06	2.768814e-06	6.123942e-10	1.928851e+01	4.239996e+01
2.470000e-06	2.808650e-06	6.180477e-10	1.956603e+01	4.287265e+01
2.480000e-06	2.848352e-06	6.233544e-10	1.984260e+01	4.333097e+01
2.490000e-06	2.887918e-06	6.289639e-10	2.011824e+01	4.377516e+01
2.500000e-06	2.927336e-06	6.333756e-10	2.039284e+01	4.420541e+01
2.510000e-06	2.966610e-06	6.391399e-10	2.066643e+01	4.462196e+01
2.520000e-06	3.005793e-06	6.460742e-10	2.093940e+01	4.502503e+01
2.530000e-06	3.044777e-06	6.502534e-10	2.121097e+01	4.541486e+01
2.540000e-06	3.083404e-06	6.528115e-10	2.148006e+01	4.579168e+01
2.550000e-06	3.121794e-06	6.578499e-10	2.174750e+01	4.615575e+01
2.560000e-06	3.160026e-06	6.651904e-10	2.201384e+01	4.650729e+01
2.570000e-06	3.198079e-06	6.708959e-10	2.227893e+01	4.684657e+01
2.580000e-06	3.235965e-06	6.756535e-10	2.254285e+01	4.717383e+01
2.590000e-06	3.273614e-06	6.800672e-10	2.280513e+01	4.748932e+01
2.600000e-06	3.311103e-06	6.835748e-10	2.306629e+01	4.779330e+01
2.610000e-06	3.348383e-06	6.857746e-10	2.332599e+01	4.808602e+01
2.620000e-06	3.385332e-06	6.863292e-10	2.358339e+01	4.836774e+01
2.630000e-06	3.421985e-06	6.871277e-10	2.383873e+01	4.863872e+01
2.640000e-06	3.458359e-06	6.915722e-10	2.409212e+01	4.889921e+01
2.650000e-06	3.494491e-06	6.982835e-10	2.434383e+01	4.914947e+01
2.660000e-06	3.530476e-06	7.042468e-10	2.459452e+01	4.938977e+01
2.670000e-06	3.566334e-06	7.089505e-10	2.484432e+01	4.962037e+01
2.680000e-06	3.602051e-06	7.148261e-10	2.509313e+01	4.984152e+01
2.690000e-06	3.637653e-06	7.201473e-10	2.534115e+01	5.005351e+01
2.700000e-06	3.673100e-06	7.219646e-10	2.558809e+01	5.025658e+01
2.710000e-06	3.708263e-06	7.225074e-10	2.583304e+01	5.045101e+01
2.720000e-06	3.743056e-06	7.232966e-10	2.607543e+01	5.063707e+01
2.730000e-06	3.777461e-06	7.236440e-10	2.631510e+01	5.081502e+01
2.740000e-06	3.811444e-06	7.242451e-10	2.655183e+01	5.098514e+01
2.750000e-06	3.845026e-06	7.255904e-10	2.678578e+01	5.114770e+01
2.760000e-06	3.878127e-06	7.279498e-10	2.701638e+01	5.130296e+01
2.770000e-06	3.910771e-06	7.323758e-10	2.724378e+01	5.145119e+01
2.780000e-06	3.943112e-06	7.369317e-10	2.746908e+01	5.159267e+01
2.790000e-06	3.975185e-06	7.400564e-10	2.769252e+01	5.172767e+01
2.800000e-06	4.007051e-06	7.422263e-10	2.791450e+01	5.185644e+01
2.810000e-06	4.038735e-06	7.436089e-10	2.813523e+01	5.197926e+01
2.820000e-06	4.070249e-06	7.439658e-10	2.835477e+01	5.209639e+01
2.830000e-06	4.101588e-06	7.444820e-10	2.857308e+01	5.220808e+01
2.840000e-06	4.132666e-06	7.478502e-10	2.878958e+01	5.231459e+01
2.850000e-06	4.163440e-06	7.539949e-10	2.900396e+01	5.241616e+01
2.860000e-06	4.193901e-06	7.595814e-10	2.921617e+01	5.251303e+01
2.870000e-06	4.224031e-06	7.622722e-10	2.942606e+01	5.260545e+01
2.880000e-06	4.253842e-06	7.623779e-10	2.963374e+01	5.269363e+01
2.890000e-06	4.283347e-06	7.627442e-10	2.983928e+01	5.277779e+01
2.900000e-06	4.312605e-06	7.649224e-10	3.004310e+01	5.285815e+01
