# Temperatura_=_-4.5
# Concentracion g/m^3_=_1620.0
# C_Vs_to_Am_M_A/Vsm_=_65563218390.804596
# pendiente_HvsI_1/m_=_3716.3
# ordenada_HvsI_A/m_=_1297.0
# frecuencia_Hz_=_135108.5903083149

Tiempo_(s)	Campo_(V.s)	Magnetizacion_(V.s)	Campo_(kA/m)	Magnetizacion_(A/m)
0.000000e+00	-5.488123e-06	-7.528837e-10	-3.836917e+01	-5.012227e+01
1.000000e-08	-5.488315e-06	-7.491478e-10	-3.837052e+01	-5.007680e+01
2.000000e-08	-5.488239e-06	-7.523298e-10	-3.836999e+01	-5.003264e+01
3.000000e-08	-5.487710e-06	-7.582584e-10	-3.836629e+01	-4.998973e+01
4.000000e-08	-5.486635e-06	-7.572050e-10	-3.835877e+01	-4.994798e+01
5.000000e-08	-5.484997e-06	-7.407665e-10	-3.834732e+01	-4.990729e+01
6.000000e-08	-5.482736e-06	-7.196097e-10	-3.833151e+01	-4.986757e+01
7.000000e-08	-5.479963e-06	-7.316569e-10	-3.831213e+01	-4.982871e+01
8.000000e-08	-5.476824e-06	-7.913904e-10	-3.829018e+01	-4.979060e+01
9.000000e-08	-5.473207e-06	-8.550578e-10	-3.826489e+01	-4.975312e+01
1.000000e-07	-5.469093e-06	-8.347048e-10	-3.823613e+01	-4.971615e+01
1.100000e-07	-5.464635e-06	-7.260119e-10	-3.820496e+01	-4.967956e+01
1.200000e-07	-5.460025e-06	-6.449991e-10	-3.817273e+01	-4.964323e+01
1.300000e-07	-5.455231e-06	-7.460528e-10	-3.813921e+01	-4.960704e+01
1.400000e-07	-5.450027e-06	-7.933881e-10	-3.810284e+01	-4.957084e+01
1.500000e-07	-5.444382e-06	-7.282851e-10	-3.806337e+01	-4.953452e+01
1.600000e-07	-5.438414e-06	-6.562346e-10	-3.802165e+01	-4.949795e+01
1.700000e-07	-5.432093e-06	-7.583801e-10	-3.797745e+01	-4.946100e+01
1.800000e-07	-5.425320e-06	-8.731111e-10	-3.793010e+01	-4.942355e+01
1.900000e-07	-5.418111e-06	-7.648111e-10	-3.787970e+01	-4.938547e+01
2.000000e-07	-5.410631e-06	-6.720506e-10	-3.782740e+01	-4.934664e+01
2.100000e-07	-5.402944e-06	-7.003122e-10	-3.777366e+01	-4.930695e+01
2.200000e-07	-5.394962e-06	-8.223965e-10	-3.771786e+01	-4.926628e+01
2.300000e-07	-5.386604e-06	-7.767907e-10	-3.765942e+01	-4.922452e+01
2.400000e-07	-5.377721e-06	-7.413244e-10	-3.759732e+01	-4.918158e+01
2.500000e-07	-5.368184e-06	-7.494053e-10	-3.753064e+01	-4.913733e+01
2.600000e-07	-5.357961e-06	-7.835738e-10	-3.745917e+01	-4.909170e+01
2.700000e-07	-5.347118e-06	-7.151983e-10	-3.738336e+01	-4.904458e+01
2.800000e-07	-5.335826e-06	-6.975575e-10	-3.730442e+01	-4.899589e+01
2.900000e-07	-5.324141e-06	-7.286672e-10	-3.722273e+01	-4.894555e+01
3.000000e-07	-5.312091e-06	-7.401355e-10	-3.713848e+01	-4.889347e+01
3.100000e-07	-5.299756e-06	-7.026873e-10	-3.705225e+01	-4.883958e+01
3.200000e-07	-5.287006e-06	-7.018655e-10	-3.696311e+01	-4.878382e+01
3.300000e-07	-5.273830e-06	-7.259391e-10	-3.687098e+01	-4.872612e+01
3.400000e-07	-5.260359e-06	-7.132229e-10	-3.677681e+01	-4.866641e+01
3.500000e-07	-5.246469e-06	-7.033360e-10	-3.667970e+01	-4.860465e+01
3.600000e-07	-5.232078e-06	-7.019505e-10	-3.657908e+01	-4.854078e+01
3.700000e-07	-5.217283e-06	-7.203185e-10	-3.647565e+01	-4.847475e+01
3.800000e-07	-5.201927e-06	-7.143110e-10	-3.636829e+01	-4.840653e+01
3.900000e-07	-5.185904e-06	-7.062276e-10	-3.625627e+01	-4.833608e+01
4.000000e-07	-5.169460e-06	-6.954909e-10	-3.614130e+01	-4.826336e+01
4.100000e-07	-5.152865e-06	-7.204935e-10	-3.602528e+01	-4.818835e+01
4.200000e-07	-5.135945e-06	-6.993523e-10	-3.590699e+01	-4.811102e+01
4.300000e-07	-5.118597e-06	-6.821821e-10	-3.578570e+01	-4.803136e+01
4.400000e-07	-5.100992e-06	-7.123654e-10	-3.566262e+01	-4.794934e+01
4.500000e-07	-5.083064e-06	-7.552208e-10	-3.553728e+01	-4.786496e+01
4.600000e-07	-5.064650e-06	-6.874607e-10	-3.540854e+01	-4.777822e+01
4.700000e-07	-5.045690e-06	-6.739760e-10	-3.527599e+01	-4.768910e+01
4.800000e-07	-5.026358e-06	-7.249476e-10	-3.514083e+01	-4.759763e+01
4.900000e-07	-5.006820e-06	-7.220154e-10	-3.500424e+01	-4.750379e+01
5.000000e-07	-4.987136e-06	-6.551206e-10	-3.486662e+01	-4.740762e+01
5.100000e-07	-4.967268e-06	-6.984341e-10	-3.472772e+01	-4.730912e+01
5.200000e-07	-4.947045e-06	-7.235751e-10	-3.458633e+01	-4.720832e+01
5.300000e-07	-4.926467e-06	-6.870084e-10	-3.444246e+01	-4.710525e+01
5.400000e-07	-4.905561e-06	-6.960971e-10	-3.429630e+01	-4.699994e+01
5.500000e-07	-4.884313e-06	-7.388123e-10	-3.414775e+01	-4.689243e+01
5.600000e-07	-4.862729e-06	-6.794365e-10	-3.399685e+01	-4.678276e+01
5.700000e-07	-4.840773e-06	-6.629224e-10	-3.384335e+01	-4.667098e+01
5.800000e-07	-4.818501e-06	-7.262521e-10	-3.368764e+01	-4.655714e+01
5.900000e-07	-4.795853e-06	-7.183635e-10	-3.352930e+01	-4.644130e+01
6.000000e-07	-4.772819e-06	-6.656971e-10	-3.336826e+01	-4.632353e+01
6.100000e-07	-4.749599e-06	-7.004469e-10	-3.320592e+01	-4.620388e+01
6.200000e-07	-4.726193e-06	-7.142022e-10	-3.304229e+01	-4.608244e+01
6.300000e-07	-4.702579e-06	-6.637231e-10	-3.287719e+01	-4.595926e+01
6.400000e-07	-4.678721e-06	-6.749385e-10	-3.271040e+01	-4.583444e+01
6.500000e-07	-4.654553e-06	-7.090904e-10	-3.254142e+01	-4.570805e+01
6.600000e-07	-4.629971e-06	-6.850626e-10	-3.236957e+01	-4.558017e+01
6.700000e-07	-4.604848e-06	-6.717967e-10	-3.219392e+01	-4.545089e+01
6.800000e-07	-4.579117e-06	-7.041449e-10	-3.201403e+01	-4.532029e+01
6.900000e-07	-4.552780e-06	-6.875306e-10	-3.182990e+01	-4.518847e+01
7.000000e-07	-4.526009e-06	-6.630858e-10	-3.164273e+01	-4.505550e+01
7.100000e-07	-4.498899e-06	-6.733806e-10	-3.145320e+01	-4.492149e+01
7.200000e-07	-4.471491e-06	-6.854970e-10	-3.126158e+01	-4.478650e+01
7.300000e-07	-4.443876e-06	-6.655978e-10	-3.106852e+01	-4.465064e+01
7.400000e-07	-4.416124e-06	-6.724976e-10	-3.087450e+01	-4.451398e+01
7.500000e-07	-4.388158e-06	-6.767281e-10	-3.067898e+01	-4.437660e+01
7.600000e-07	-4.359840e-06	-6.658689e-10	-3.048100e+01	-4.423857e+01
7.700000e-07	-4.331177e-06	-6.522198e-10	-3.028061e+01	-4.409997e+01
7.800000e-07	-4.302250e-06	-6.598234e-10	-3.007837e+01	-4.396087e+01
7.900000e-07	-4.272978e-06	-6.518635e-10	-2.987372e+01	-4.382132e+01
8.000000e-07	-4.243349e-06	-6.464139e-10	-2.966657e+01	-4.368137e+01
8.100000e-07	-4.213528e-06	-6.439237e-10	-2.945808e+01	-4.354107e+01
8.200000e-07	-4.183511e-06	-6.444960e-10	-2.924823e+01	-4.340046e+01
8.300000e-07	-4.153188e-06	-6.364782e-10	-2.903623e+01	-4.325956e+01
8.400000e-07	-4.122499e-06	-6.382830e-10	-2.882168e+01	-4.311840e+01
8.500000e-07	-4.091459e-06	-6.322945e-10	-2.860466e+01	-4.297699e+01
8.600000e-07	-4.060216e-06	-6.238962e-10	-2.838623e+01	-4.283532e+01
8.700000e-07	-4.028851e-06	-6.193957e-10	-2.816695e+01	-4.269339e+01
8.800000e-07	-3.997349e-06	-6.211953e-10	-2.794671e+01	-4.255117e+01
8.900000e-07	-3.965679e-06	-6.194340e-10	-2.772530e+01	-4.240863e+01
9.000000e-07	-3.933754e-06	-6.176372e-10	-2.750210e+01	-4.226573e+01
9.100000e-07	-3.901571e-06	-6.166660e-10	-2.727710e+01	-4.212242e+01
9.200000e-07	-3.869053e-06	-6.090747e-10	-2.704975e+01	-4.197863e+01
9.300000e-07	-3.836148e-06	-6.036018e-10	-2.681970e+01	-4.183429e+01
9.400000e-07	-3.802806e-06	-6.028987e-10	-2.658660e+01	-4.168931e+01
9.500000e-07	-3.768980e-06	-6.022798e-10	-2.635011e+01	-4.154360e+01
9.600000e-07	-3.734814e-06	-5.955232e-10	-2.611124e+01	-4.139705e+01
9.700000e-07	-3.700233e-06	-5.948577e-10	-2.586948e+01	-4.124955e+01
9.800000e-07	-3.665162e-06	-5.940330e-10	-2.562429e+01	-4.110098e+01
9.900000e-07	-3.629792e-06	-5.918401e-10	-2.537700e+01	-4.095121e+01
1.000000e-06	-3.594286e-06	-5.869582e-10	-2.512877e+01	-4.080010e+01
1.010000e-06	-3.558685e-06	-5.888628e-10	-2.487988e+01	-4.064750e+01
1.020000e-06	-3.522959e-06	-5.871940e-10	-2.463010e+01	-4.049328e+01
1.030000e-06	-3.487089e-06	-5.862270e-10	-2.437932e+01	-4.033728e+01
1.040000e-06	-3.451066e-06	-5.837535e-10	-2.412748e+01	-4.017934e+01
1.050000e-06	-3.414755e-06	-5.814140e-10	-2.387361e+01	-4.001930e+01
1.060000e-06	-3.378082e-06	-5.713590e-10	-2.361722e+01	-3.985700e+01
1.070000e-06	-3.341143e-06	-5.672147e-10	-2.335897e+01	-3.969228e+01
1.080000e-06	-3.303996e-06	-5.628067e-10	-2.309926e+01	-3.952499e+01
1.090000e-06	-3.266620e-06	-5.600160e-10	-2.283795e+01	-3.935495e+01
1.100000e-06	-3.229078e-06	-5.570103e-10	-2.257549e+01	-3.918201e+01
1.110000e-06	-3.191411e-06	-5.568873e-10	-2.231215e+01	-3.900601e+01
1.120000e-06	-3.153433e-06	-5.523186e-10	-2.204663e+01	-3.882680e+01
1.130000e-06	-3.115111e-06	-5.481701e-10	-2.177871e+01	-3.864423e+01
1.140000e-06	-3.076610e-06	-5.451166e-10	-2.150954e+01	-3.845816e+01
1.150000e-06	-3.037895e-06	-5.423053e-10	-2.123887e+01	-3.826844e+01
1.160000e-06	-2.998983e-06	-5.376101e-10	-2.096682e+01	-3.807495e+01
1.170000e-06	-2.959885e-06	-5.367536e-10	-2.069348e+01	-3.787755e+01
1.180000e-06	-2.920600e-06	-5.380316e-10	-2.041882e+01	-3.767612e+01
1.190000e-06	-2.881226e-06	-5.356790e-10	-2.014355e+01	-3.747054e+01
1.200000e-06	-2.841715e-06	-5.301228e-10	-1.986731e+01	-3.726071e+01
1.210000e-06	-2.802056e-06	-5.252429e-10	-1.959005e+01	-3.704651e+01
1.220000e-06	-2.762284e-06	-5.205804e-10	-1.931199e+01	-3.682786e+01
1.230000e-06	-2.722387e-06	-5.149751e-10	-1.903305e+01	-3.660464e+01
1.240000e-06	-2.682310e-06	-5.129936e-10	-1.875286e+01	-3.637679e+01
1.250000e-06	-2.642031e-06	-5.103253e-10	-1.847126e+01	-3.614421e+01
1.260000e-06	-2.601570e-06	-5.060334e-10	-1.818838e+01	-3.590681e+01
1.270000e-06	-2.560898e-06	-4.993052e-10	-1.790404e+01	-3.566453e+01
1.280000e-06	-2.520007e-06	-4.955746e-10	-1.761815e+01	-3.541728e+01
1.290000e-06	-2.478858e-06	-4.887849e-10	-1.733047e+01	-3.516498e+01
1.300000e-06	-2.437276e-06	-4.820734e-10	-1.703976e+01	-3.490757e+01
1.310000e-06	-2.395250e-06	-4.775435e-10	-1.674594e+01	-3.464496e+01
1.320000e-06	-2.352976e-06	-4.753408e-10	-1.645039e+01	-3.437706e+01
1.330000e-06	-2.310445e-06	-4.720769e-10	-1.615304e+01	-3.410381e+01
1.340000e-06	-2.267650e-06	-4.697684e-10	-1.585385e+01	-3.382510e+01
1.350000e-06	-2.224775e-06	-4.653613e-10	-1.555409e+01	-3.354085e+01
1.360000e-06	-2.181682e-06	-4.583457e-10	-1.525282e+01	-3.325095e+01
1.370000e-06	-2.138297e-06	-4.534658e-10	-1.494950e+01	-3.295529e+01
1.380000e-06	-2.094878e-06	-4.535496e-10	-1.464594e+01	-3.265376e+01
1.390000e-06	-2.051407e-06	-4.511097e-10	-1.434202e+01	-3.234622e+01
1.400000e-06	-2.007802e-06	-4.465709e-10	-1.403717e+01	-3.203254e+01
1.410000e-06	-1.964115e-06	-4.435232e-10	-1.373174e+01	-3.171256e+01
1.420000e-06	-1.920401e-06	-4.415973e-10	-1.342612e+01	-3.138611e+01
1.430000e-06	-1.876694e-06	-4.387805e-10	-1.312055e+01	-3.105303e+01
1.440000e-06	-1.832882e-06	-4.353586e-10	-1.281425e+01	-3.071311e+01
1.450000e-06	-1.788928e-06	-4.302971e-10	-1.250695e+01	-3.036616e+01
1.460000e-06	-1.744814e-06	-4.250650e-10	-1.219854e+01	-3.001195e+01
1.470000e-06	-1.700543e-06	-4.176869e-10	-1.188903e+01	-2.965025e+01
1.480000e-06	-1.656190e-06	-4.090561e-10	-1.157894e+01	-2.928081e+01
1.490000e-06	-1.611750e-06	-4.014341e-10	-1.126824e+01	-2.890338e+01
1.500000e-06	-1.567178e-06	-3.964482e-10	-1.095663e+01	-2.851767e+01
1.510000e-06	-1.522508e-06	-3.935686e-10	-1.064432e+01	-2.812340e+01
1.520000e-06	-1.477774e-06	-3.899997e-10	-1.033158e+01	-2.772028e+01
1.530000e-06	-1.432870e-06	-3.845562e-10	-1.001764e+01	-2.730799e+01
1.540000e-06	-1.387778e-06	-3.770240e-10	-9.702386e+00	-2.688623e+01
1.550000e-06	-1.342579e-06	-3.684609e-10	-9.386389e+00	-2.645466e+01
1.560000e-06	-1.297274e-06	-3.596100e-10	-9.069646e+00	-2.601296e+01
1.570000e-06	-1.251909e-06	-3.503745e-10	-8.752486e+00	-2.556080e+01
1.580000e-06	-1.206470e-06	-3.419195e-10	-8.434807e+00	-2.509784e+01
1.590000e-06	-1.160943e-06	-3.351589e-10	-8.116513e+00	-2.462375e+01
1.600000e-06	-1.115382e-06	-3.292855e-10	-7.797985e+00	-2.413820e+01
1.610000e-06	-1.069737e-06	-3.232432e-10	-7.478865e+00	-2.364085e+01
1.620000e-06	-1.023978e-06	-3.154606e-10	-7.158948e+00	-2.313139e+01
1.630000e-06	-9.781013e-07	-3.089095e-10	-6.838211e+00	-2.260951e+01
1.640000e-06	-9.321164e-07	-3.023225e-10	-6.516716e+00	-2.207491e+01
1.650000e-06	-8.860904e-07	-2.934641e-10	-6.194933e+00	-2.152731e+01
1.660000e-06	-8.400299e-07	-2.833096e-10	-5.872910e+00	-2.096643e+01
1.670000e-06	-7.939836e-07	-2.737512e-10	-5.550986e+00	-2.039204e+01
1.680000e-06	-7.478837e-07	-2.635010e-10	-5.228688e+00	-1.980391e+01
1.690000e-06	-7.017028e-07	-2.550747e-10	-4.905822e+00	-1.920184e+01
1.700000e-06	-6.555193e-07	-2.478567e-10	-4.582939e+00	-1.858566e+01
1.710000e-06	-6.093103e-07	-2.385889e-10	-4.259878e+00	-1.795523e+01
1.720000e-06	-5.630252e-07	-2.267942e-10	-3.936285e+00	-1.731042e+01
1.730000e-06	-5.166590e-07	-2.146361e-10	-3.612124e+00	-1.665118e+01
1.740000e-06	-4.702911e-07	-1.996679e-10	-3.287952e+00	-1.597744e+01
1.750000e-06	-4.238964e-07	-1.856827e-10	-2.963591e+00	-1.528922e+01
1.760000e-06	-3.774440e-07	-1.766217e-10	-2.638828e+00	-1.458653e+01
1.770000e-06	-3.309524e-07	-1.706840e-10	-2.313791e+00	-1.386946e+01
1.780000e-06	-2.844680e-07	-1.625141e-10	-1.988804e+00	-1.313812e+01
1.790000e-06	-2.380157e-07	-1.521554e-10	-1.664042e+00	-1.239266e+01
1.800000e-06	-1.915182e-07	-1.411244e-10	-1.338964e+00	-1.163327e+01
1.810000e-06	-1.448943e-07	-1.283200e-10	-1.013001e+00	-1.086021e+01
1.820000e-06	-9.824187e-08	-1.162890e-10	-6.868395e-01	-1.007375e+01
1.830000e-06	-5.170754e-08	-1.074750e-10	-3.615035e-01	-9.274214e+00
1.840000e-06	-5.209715e-09	-1.010151e-10	-3.642274e-02	-8.461971e+00
1.850000e-06	4.128802e-08	-9.318331e-11	2.886574e-01	-7.637427e+00
1.860000e-06	8.781060e-08	-8.440577e-11	6.139112e-01	-6.801030e+00
1.870000e-06	1.343785e-07	-7.252071e-11	9.394822e-01	-5.953266e+00
1.880000e-06	1.809238e-07	-5.812862e-11	1.264894e+00	-5.094660e+00
1.890000e-06	2.274394e-07	-4.392069e-11	1.590100e+00	-4.225771e+00
1.900000e-06	2.739271e-07	-3.019518e-11	1.915109e+00	-3.347192e+00
1.910000e-06	3.203700e-07	-1.718669e-11	2.239807e+00	-2.459549e+00
1.920000e-06	3.668181e-07	-7.647851e-12	2.564539e+00	-1.563497e+00
1.930000e-06	4.132977e-07	4.779419e-13	2.889492e+00	-6.597167e-01
1.940000e-06	4.596928e-07	1.167730e-11	3.213855e+00	2.510854e-01
1.950000e-06	5.060797e-07	2.366624e-11	3.538161e+00	1.168182e+00
1.960000e-06	5.524371e-07	3.698576e-11	3.862259e+00	2.090826e+00
1.970000e-06	5.987529e-07	5.116292e-11	4.186068e+00	3.018256e+00
1.980000e-06	6.450278e-07	6.299242e-11	4.509590e+00	3.949696e+00
1.990000e-06	6.911476e-07	7.545445e-11	4.832028e+00	4.884363e+00
2.000000e-06	7.371741e-07	8.688946e-11	5.153814e+00	5.821463e+00
2.010000e-06	7.831372e-07	1.001892e-10	5.475156e+00	6.760204e+00
2.020000e-06	8.290699e-07	1.153510e-10	5.796285e+00	7.699788e+00
2.030000e-06	8.750160e-07	1.318439e-10	6.117509e+00	8.639422e+00
2.040000e-06	9.209007e-07	1.462180e-10	6.438303e+00	9.578320e+00
2.050000e-06	9.666723e-07	1.579311e-10	6.758307e+00	1.051570e+01
2.060000e-06	1.012367e-06	1.710574e-10	7.077774e+00	1.145080e+01
2.070000e-06	1.058071e-06	1.856973e-10	7.397302e+00	1.238285e+01
2.080000e-06	1.103794e-06	2.002552e-10	7.716968e+00	1.331113e+01
2.090000e-06	1.149425e-06	2.149910e-10	8.035990e+00	1.423491e+01
2.100000e-06	1.194975e-06	2.302544e-10	8.354440e+00	1.515349e+01
2.110000e-06	1.240390e-06	2.415993e-10	8.671950e+00	1.606619e+01
2.120000e-06	1.285691e-06	2.486075e-10	8.988666e+00	1.697236e+01
2.130000e-06	1.330933e-06	2.568947e-10	9.304965e+00	1.787137e+01
2.140000e-06	1.376044e-06	2.679186e-10	9.620353e+00	1.876262e+01
2.150000e-06	1.421046e-06	2.829571e-10	9.934976e+00	1.964554e+01
2.160000e-06	1.465950e-06	2.998173e-10	1.024891e+01	2.051958e+01
2.170000e-06	1.510685e-06	3.150579e-10	1.056167e+01	2.138424e+01
2.180000e-06	1.555256e-06	3.315018e-10	1.087328e+01	2.223903e+01
2.190000e-06	1.599748e-06	3.441928e-10	1.118433e+01	2.308349e+01
2.200000e-06	1.644117e-06	3.536349e-10	1.149453e+01	2.391721e+01
2.210000e-06	1.688322e-06	3.616529e-10	1.180359e+01	2.473979e+01
2.220000e-06	1.732406e-06	3.710805e-10	1.211179e+01	2.555088e+01
2.230000e-06	1.776431e-06	3.839289e-10	1.241958e+01	2.635015e+01
2.240000e-06	1.820404e-06	3.949311e-10	1.272701e+01	2.713729e+01
2.250000e-06	1.864278e-06	4.064110e-10	1.303375e+01	2.791203e+01
2.260000e-06	1.908057e-06	4.157244e-10	1.333982e+01	2.867414e+01
2.270000e-06	1.951750e-06	4.254745e-10	1.364529e+01	2.942339e+01
2.280000e-06	1.995380e-06	4.373118e-10	1.395032e+01	3.015959e+01
2.290000e-06	2.038995e-06	4.490471e-10	1.425525e+01	3.088257e+01
2.300000e-06	2.082569e-06	4.594563e-10	1.455989e+01	3.159220e+01
2.310000e-06	2.126044e-06	4.662786e-10	1.486384e+01	3.228836e+01
2.320000e-06	2.169407e-06	4.753627e-10	1.516700e+01	3.297093e+01
2.330000e-06	2.212670e-06	4.845066e-10	1.546946e+01	3.363985e+01
2.340000e-06	2.255726e-06	4.935871e-10	1.577048e+01	3.429506e+01
2.350000e-06	2.298575e-06	5.058913e-10	1.607006e+01	3.493650e+01
2.360000e-06	2.341228e-06	5.215083e-10	1.636825e+01	3.556414e+01
2.370000e-06	2.383618e-06	5.341600e-10	1.666461e+01	3.617799e+01
2.380000e-06	2.425700e-06	5.431756e-10	1.695882e+01	3.677802e+01
2.390000e-06	2.467285e-06	5.493380e-10	1.724955e+01	3.736426e+01
2.400000e-06	2.508499e-06	5.527206e-10	1.753770e+01	3.793673e+01
2.410000e-06	2.549482e-06	5.559443e-10	1.782422e+01	3.849546e+01
2.420000e-06	2.590152e-06	5.629096e-10	1.810856e+01	3.904049e+01
2.430000e-06	2.630609e-06	5.735244e-10	1.839141e+01	3.957187e+01
2.440000e-06	2.670824e-06	5.836981e-10	1.867256e+01	4.008966e+01
2.450000e-06	2.710851e-06	5.912456e-10	1.895240e+01	4.059394e+01
2.460000e-06	2.750739e-06	5.983465e-10	1.923127e+01	4.108476e+01
2.470000e-06	2.790426e-06	6.049669e-10	1.950873e+01	4.156221e+01
2.480000e-06	2.830031e-06	6.118864e-10	1.978563e+01	4.202638e+01
2.490000e-06	2.869552e-06	6.193394e-10	2.006193e+01	4.247736e+01
2.500000e-06	2.908972e-06	6.254267e-10	2.033753e+01	4.291525e+01
2.510000e-06	2.948300e-06	6.326449e-10	2.061248e+01	4.334015e+01
2.520000e-06	2.987439e-06	6.402144e-10	2.088612e+01	4.375218e+01
2.530000e-06	3.026306e-06	6.462542e-10	2.115785e+01	4.415145e+01
2.540000e-06	3.064932e-06	6.512708e-10	2.142789e+01	4.453808e+01
2.550000e-06	3.103293e-06	6.550676e-10	2.169608e+01	4.491222e+01
2.560000e-06	3.141376e-06	6.588208e-10	2.196234e+01	4.527399e+01
2.570000e-06	3.179269e-06	6.632430e-10	2.222726e+01	4.562355e+01
2.580000e-06	3.216945e-06	6.667975e-10	2.249067e+01	4.596104e+01
2.590000e-06	3.254476e-06	6.696964e-10	2.275306e+01	4.628663e+01
2.600000e-06	3.291883e-06	6.734642e-10	2.301458e+01	4.660048e+01
2.610000e-06	3.329039e-06	6.768627e-10	2.327435e+01	4.690279e+01
2.620000e-06	3.365887e-06	6.779708e-10	2.353196e+01	4.719373e+01
2.630000e-06	3.402451e-06	6.811957e-10	2.378760e+01	4.747350e+01
2.640000e-06	3.438739e-06	6.860825e-10	2.404130e+01	4.774231e+01
2.650000e-06	3.474772e-06	6.920270e-10	2.429321e+01	4.800038e+01
2.660000e-06	3.510638e-06	6.965177e-10	2.454396e+01	4.824793e+01
2.670000e-06	3.546364e-06	6.961134e-10	2.479374e+01	4.848519e+01
2.680000e-06	3.581992e-06	6.942478e-10	2.504282e+01	4.871240e+01
2.690000e-06	3.617510e-06	6.946601e-10	2.529113e+01	4.892983e+01
2.700000e-06	3.652913e-06	7.005174e-10	2.553865e+01	4.913773e+01
2.710000e-06	3.688129e-06	7.071322e-10	2.578486e+01	4.933636e+01
2.720000e-06	3.723059e-06	7.136164e-10	2.602906e+01	4.952601e+01
2.730000e-06	3.757586e-06	7.171278e-10	2.627045e+01	4.970695e+01
2.740000e-06	3.791586e-06	7.161164e-10	2.650816e+01	4.987949e+01
2.750000e-06	3.825005e-06	7.124433e-10	2.674180e+01	5.004390e+01
2.760000e-06	3.857940e-06	7.080194e-10	2.697206e+01	5.020049e+01
2.770000e-06	3.890493e-06	7.072328e-10	2.719965e+01	5.034956e+01
2.780000e-06	3.922774e-06	7.129259e-10	2.742533e+01	5.049141e+01
2.790000e-06	3.954809e-06	7.221384e-10	2.764930e+01	5.062635e+01
2.800000e-06	3.986599e-06	7.297898e-10	2.787155e+01	5.075469e+01
2.810000e-06	4.018236e-06	7.350170e-10	2.809273e+01	5.087672e+01
2.820000e-06	4.049715e-06	7.359811e-10	2.831282e+01	5.099275e+01
2.830000e-06	4.081073e-06	7.326254e-10	2.853205e+01	5.110307e+01
2.840000e-06	4.112177e-06	7.295822e-10	2.874951e+01	5.120798e+01
2.850000e-06	4.142886e-06	7.315518e-10	2.896420e+01	5.130775e+01
2.860000e-06	4.173266e-06	7.352178e-10	2.917660e+01	5.140267e+01
2.870000e-06	4.203322e-06	7.391163e-10	2.938673e+01	5.149301e+01
2.880000e-06	4.233041e-06	7.449432e-10	2.959451e+01	5.157902e+01
2.890000e-06	4.262501e-06	7.493261e-10	2.980047e+01	5.166095e+01
2.900000e-06	4.291729e-06	7.506552e-10	3.000482e+01	5.173903e+01
