# Temperatura_=_-0.96
# Concentracion g/m^3_=_1620.0
# C_Vs_to_Am_M_A/Vsm_=_65563218390.804596
# pendiente_HvsI_1/m_=_3716.3
# ordenada_HvsI_A/m_=_1297.0
# frecuencia_Hz_=_135104.90459343052

Tiempo_(s)	Campo_(V.s)	Magnetizacion_(V.s)	Campo_(kA/m)	Magnetizacion_(A/m)
0.000000e+00	-5.513500e-06	-1.165022e-09	-3.836823e+01	-7.825038e+01
1.000000e-08	-5.513755e-06	-1.158375e-09	-3.837000e+01	-7.822625e+01
2.000000e-08	-5.513786e-06	-1.154705e-09	-3.837022e+01	-7.819954e+01
3.000000e-08	-5.513515e-06	-1.155437e-09	-3.836834e+01	-7.816999e+01
4.000000e-08	-5.512858e-06	-1.155667e-09	-3.836376e+01	-7.813734e+01
5.000000e-08	-5.511758e-06	-1.148654e-09	-3.835611e+01	-7.810132e+01
6.000000e-08	-5.510131e-06	-1.135217e-09	-3.834479e+01	-7.806168e+01
7.000000e-08	-5.507827e-06	-1.133047e-09	-3.832875e+01	-7.801817e+01
8.000000e-08	-5.504942e-06	-1.168192e-09	-3.830868e+01	-7.797057e+01
9.000000e-08	-5.501654e-06	-1.227068e-09	-3.828580e+01	-7.791865e+01
1.000000e-07	-5.497878e-06	-1.248314e-09	-3.825952e+01	-7.786221e+01
1.100000e-07	-5.493637e-06	-1.184574e-09	-3.823001e+01	-7.780106e+01
1.200000e-07	-5.489114e-06	-1.102196e-09	-3.819853e+01	-7.773503e+01
1.300000e-07	-5.484429e-06	-1.079133e-09	-3.816593e+01	-7.766399e+01
1.400000e-07	-5.479495e-06	-1.152031e-09	-3.813159e+01	-7.758780e+01
1.500000e-07	-5.474169e-06	-1.158967e-09	-3.809453e+01	-7.750638e+01
1.600000e-07	-5.468428e-06	-1.116733e-09	-3.805458e+01	-7.741964e+01
1.700000e-07	-5.462262e-06	-1.109870e-09	-3.801167e+01	-7.732754e+01
1.800000e-07	-5.455622e-06	-1.188529e-09	-3.796546e+01	-7.723007e+01
1.900000e-07	-5.448524e-06	-1.216351e-09	-3.791607e+01	-7.712722e+01
2.000000e-07	-5.441073e-06	-1.129105e-09	-3.786422e+01	-7.701903e+01
2.100000e-07	-5.433366e-06	-1.093679e-09	-3.781058e+01	-7.690557e+01
2.200000e-07	-5.425491e-06	-1.152855e-09	-3.775578e+01	-7.678691e+01
2.300000e-07	-5.417389e-06	-1.211651e-09	-3.769940e+01	-7.666317e+01
2.400000e-07	-5.408970e-06	-1.165261e-09	-3.764081e+01	-7.653448e+01
2.500000e-07	-5.399997e-06	-1.138529e-09	-3.757837e+01	-7.640100e+01
2.600000e-07	-5.390235e-06	-1.145133e-09	-3.751044e+01	-7.626292e+01
2.700000e-07	-5.379823e-06	-1.149715e-09	-3.743798e+01	-7.612042e+01
2.800000e-07	-5.368943e-06	-1.109076e-09	-3.736226e+01	-7.597372e+01
2.900000e-07	-5.357614e-06	-1.118981e-09	-3.728343e+01	-7.582305e+01
3.000000e-07	-5.345913e-06	-1.140515e-09	-3.720200e+01	-7.566866e+01
3.100000e-07	-5.333852e-06	-1.133426e-09	-3.711807e+01	-7.551081e+01
3.200000e-07	-5.321274e-06	-1.101169e-09	-3.703054e+01	-7.534974e+01
3.300000e-07	-5.308269e-06	-1.113218e-09	-3.694004e+01	-7.518573e+01
3.400000e-07	-5.294999e-06	-1.125447e-09	-3.684769e+01	-7.501905e+01
3.500000e-07	-5.281394e-06	-1.118285e-09	-3.675302e+01	-7.484996e+01
3.600000e-07	-5.267335e-06	-1.111599e-09	-3.665518e+01	-7.467873e+01
3.700000e-07	-5.252907e-06	-1.123751e-09	-3.655478e+01	-7.450562e+01
3.800000e-07	-5.238041e-06	-1.128886e-09	-3.645133e+01	-7.433089e+01
3.900000e-07	-5.222386e-06	-1.125233e-09	-3.634238e+01	-7.415476e+01
4.000000e-07	-5.206199e-06	-1.122947e-09	-3.622974e+01	-7.397747e+01
4.100000e-07	-5.189737e-06	-1.114487e-09	-3.611518e+01	-7.379922e+01
4.200000e-07	-5.172891e-06	-1.109599e-09	-3.599795e+01	-7.362022e+01
4.300000e-07	-5.155782e-06	-1.102076e-09	-3.587888e+01	-7.344063e+01
4.400000e-07	-5.138330e-06	-1.107476e-09	-3.575744e+01	-7.326060e+01
4.500000e-07	-5.120409e-06	-1.118766e-09	-3.563272e+01	-7.308026e+01
4.600000e-07	-5.102054e-06	-1.130560e-09	-3.550499e+01	-7.289971e+01
4.700000e-07	-5.083349e-06	-1.111116e-09	-3.537483e+01	-7.271903e+01
4.800000e-07	-5.064336e-06	-1.110478e-09	-3.524252e+01	-7.253828e+01
4.900000e-07	-5.045028e-06	-1.122023e-09	-3.510816e+01	-7.235747e+01
5.000000e-07	-5.025458e-06	-1.120290e-09	-3.497197e+01	-7.217661e+01
5.100000e-07	-5.005674e-06	-1.094474e-09	-3.483429e+01	-7.199566e+01
5.200000e-07	-4.985584e-06	-1.097375e-09	-3.469448e+01	-7.181458e+01
5.300000e-07	-4.965096e-06	-1.100114e-09	-3.455191e+01	-7.163328e+01
5.400000e-07	-4.944303e-06	-1.101777e-09	-3.440721e+01	-7.145165e+01
5.500000e-07	-4.923151e-06	-1.105425e-09	-3.426002e+01	-7.126957e+01
5.600000e-07	-4.901624e-06	-1.104325e-09	-3.411021e+01	-7.108688e+01
5.700000e-07	-4.879795e-06	-1.078579e-09	-3.395830e+01	-7.090342e+01
5.800000e-07	-4.857667e-06	-1.081713e-09	-3.380432e+01	-7.071899e+01
5.900000e-07	-4.835164e-06	-1.095864e-09	-3.364772e+01	-7.053339e+01
6.000000e-07	-4.812300e-06	-1.083951e-09	-3.348861e+01	-7.034640e+01
6.100000e-07	-4.789174e-06	-1.065869e-09	-3.332767e+01	-7.015779e+01
6.200000e-07	-4.765771e-06	-1.074156e-09	-3.316481e+01	-6.996731e+01
6.300000e-07	-4.742061e-06	-1.066549e-09	-3.299982e+01	-6.977471e+01
6.400000e-07	-4.718097e-06	-1.048690e-09	-3.283305e+01	-6.957975e+01
6.500000e-07	-4.693902e-06	-1.055807e-09	-3.266468e+01	-6.938216e+01
6.600000e-07	-4.669350e-06	-1.063379e-09	-3.249383e+01	-6.918170e+01
6.700000e-07	-4.644300e-06	-1.051847e-09	-3.231950e+01	-6.897812e+01
6.800000e-07	-4.618738e-06	-1.053223e-09	-3.214162e+01	-6.877118e+01
6.900000e-07	-4.592720e-06	-1.060799e-09	-3.196056e+01	-6.856064e+01
7.000000e-07	-4.566203e-06	-1.045454e-09	-3.177603e+01	-6.834627e+01
7.100000e-07	-4.539184e-06	-1.034613e-09	-3.158801e+01	-6.812788e+01
7.200000e-07	-4.511858e-06	-1.034782e-09	-3.139785e+01	-6.790527e+01
7.300000e-07	-4.484299e-06	-1.027511e-09	-3.120606e+01	-6.767826e+01
7.400000e-07	-4.456542e-06	-1.015435e-09	-3.101290e+01	-6.744670e+01
7.500000e-07	-4.428627e-06	-1.019503e-09	-3.081864e+01	-6.721046e+01
7.600000e-07	-4.400416e-06	-1.015506e-09	-3.062232e+01	-6.696941e+01
7.700000e-07	-4.371944e-06	-1.005253e-09	-3.042419e+01	-6.672348e+01
7.800000e-07	-4.343181e-06	-1.000171e-09	-3.022403e+01	-6.647259e+01
7.900000e-07	-4.314000e-06	-1.002045e-09	-3.002096e+01	-6.621670e+01
8.000000e-07	-4.284530e-06	-9.932742e-10	-2.981588e+01	-6.595579e+01
8.100000e-07	-4.254780e-06	-9.849151e-10	-2.960885e+01	-6.568988e+01
8.200000e-07	-4.224740e-06	-9.746318e-10	-2.939980e+01	-6.541898e+01
8.300000e-07	-4.194405e-06	-9.663596e-10	-2.918870e+01	-6.514316e+01
8.400000e-07	-4.163776e-06	-9.603276e-10	-2.897556e+01	-6.486249e+01
8.500000e-07	-4.132891e-06	-9.600222e-10	-2.876063e+01	-6.457706e+01
8.600000e-07	-4.101769e-06	-9.545083e-10	-2.854405e+01	-6.428700e+01
8.700000e-07	-4.070458e-06	-9.514859e-10	-2.832616e+01	-6.399243e+01
8.800000e-07	-4.038911e-06	-9.484861e-10	-2.810662e+01	-6.369352e+01
8.900000e-07	-4.007132e-06	-9.437261e-10	-2.788547e+01	-6.339042e+01
9.000000e-07	-3.975213e-06	-9.346870e-10	-2.766335e+01	-6.308331e+01
9.100000e-07	-3.943113e-06	-9.268499e-10	-2.743997e+01	-6.277238e+01
9.200000e-07	-3.910630e-06	-9.177901e-10	-2.721392e+01	-6.245783e+01
9.300000e-07	-3.877765e-06	-9.111068e-10	-2.698521e+01	-6.213986e+01
9.400000e-07	-3.844509e-06	-9.068936e-10	-2.675379e+01	-6.181868e+01
9.500000e-07	-3.810843e-06	-9.037329e-10	-2.651951e+01	-6.149448e+01
9.600000e-07	-3.776748e-06	-9.026246e-10	-2.628224e+01	-6.116748e+01
9.700000e-07	-3.742155e-06	-9.010573e-10	-2.604151e+01	-6.083787e+01
9.800000e-07	-3.707138e-06	-8.989038e-10	-2.579783e+01	-6.050584e+01
9.900000e-07	-3.671830e-06	-8.943041e-10	-2.555212e+01	-6.017157e+01
1.000000e-06	-3.636350e-06	-8.898164e-10	-2.530522e+01	-5.983524e+01
1.010000e-06	-3.600711e-06	-8.823315e-10	-2.505721e+01	-5.949700e+01
1.020000e-06	-3.564929e-06	-8.755521e-10	-2.480820e+01	-5.915699e+01
1.030000e-06	-3.529057e-06	-8.695485e-10	-2.455857e+01	-5.881534e+01
1.040000e-06	-3.492979e-06	-8.671165e-10	-2.430750e+01	-5.847216e+01
1.050000e-06	-3.456631e-06	-8.645591e-10	-2.405456e+01	-5.812752e+01
1.060000e-06	-3.420060e-06	-8.631058e-10	-2.380006e+01	-5.778149e+01
1.070000e-06	-3.383201e-06	-8.583452e-10	-2.354356e+01	-5.743411e+01
1.080000e-06	-3.346066e-06	-8.521076e-10	-2.328514e+01	-5.708539e+01
1.090000e-06	-3.308687e-06	-8.448204e-10	-2.302502e+01	-5.673534e+01
1.100000e-06	-3.271049e-06	-8.388231e-10	-2.276310e+01	-5.638392e+01
1.110000e-06	-3.233180e-06	-8.308617e-10	-2.249958e+01	-5.603107e+01
1.120000e-06	-3.195087e-06	-8.243079e-10	-2.223449e+01	-5.567671e+01
1.130000e-06	-3.156792e-06	-8.169359e-10	-2.196800e+01	-5.532075e+01
1.140000e-06	-3.118263e-06	-8.108795e-10	-2.169987e+01	-5.496305e+01
1.150000e-06	-3.079476e-06	-8.045776e-10	-2.142996e+01	-5.460348e+01
1.160000e-06	-3.040507e-06	-8.000568e-10	-2.115877e+01	-5.424185e+01
1.170000e-06	-3.001343e-06	-7.954076e-10	-2.088623e+01	-5.387798e+01
1.180000e-06	-2.961922e-06	-7.911145e-10	-2.061190e+01	-5.351166e+01
1.190000e-06	-2.922359e-06	-7.876407e-10	-2.033658e+01	-5.314267e+01
1.200000e-06	-2.882684e-06	-7.825347e-10	-2.006048e+01	-5.277077e+01
1.210000e-06	-2.842879e-06	-7.739398e-10	-1.978348e+01	-5.239569e+01
1.220000e-06	-2.803017e-06	-7.632434e-10	-1.950609e+01	-5.201718e+01
1.230000e-06	-2.762987e-06	-7.530763e-10	-1.922752e+01	-5.163495e+01
1.240000e-06	-2.722732e-06	-7.439614e-10	-1.894739e+01	-5.124871e+01
1.250000e-06	-2.682271e-06	-7.359968e-10	-1.866582e+01	-5.085818e+01
1.260000e-06	-2.641620e-06	-7.297403e-10	-1.838293e+01	-5.046304e+01
1.270000e-06	-2.600812e-06	-7.245654e-10	-1.809895e+01	-5.006300e+01
1.280000e-06	-2.559771e-06	-7.172350e-10	-1.781334e+01	-4.965775e+01
1.290000e-06	-2.518363e-06	-7.102089e-10	-1.752519e+01	-4.924698e+01
1.300000e-06	-2.476634e-06	-7.029517e-10	-1.723480e+01	-4.883039e+01
1.310000e-06	-2.434746e-06	-6.926303e-10	-1.694330e+01	-4.840767e+01
1.320000e-06	-2.392580e-06	-6.798871e-10	-1.664987e+01	-4.797852e+01
1.330000e-06	-2.350020e-06	-6.676790e-10	-1.635370e+01	-4.754264e+01
1.340000e-06	-2.307181e-06	-6.560209e-10	-1.605558e+01	-4.709975e+01
1.350000e-06	-2.264100e-06	-6.471877e-10	-1.575579e+01	-4.664955e+01
1.360000e-06	-2.220850e-06	-6.416079e-10	-1.545481e+01	-4.619177e+01
1.370000e-06	-2.177494e-06	-6.383777e-10	-1.515310e+01	-4.572614e+01
1.380000e-06	-2.134021e-06	-6.343467e-10	-1.485057e+01	-4.525239e+01
1.390000e-06	-2.090481e-06	-6.294735e-10	-1.454758e+01	-4.477027e+01
1.400000e-06	-2.046822e-06	-6.203328e-10	-1.424375e+01	-4.427952e+01
1.410000e-06	-2.002998e-06	-6.095506e-10	-1.393878e+01	-4.377989e+01
1.420000e-06	-1.959082e-06	-5.999681e-10	-1.363318e+01	-4.327116e+01
1.430000e-06	-1.915073e-06	-5.924829e-10	-1.332692e+01	-4.275308e+01
1.440000e-06	-1.870986e-06	-5.852009e-10	-1.302012e+01	-4.222544e+01
1.450000e-06	-1.826859e-06	-5.788562e-10	-1.271304e+01	-4.168801e+01
1.460000e-06	-1.782690e-06	-5.724034e-10	-1.240567e+01	-4.114057e+01
1.470000e-06	-1.738379e-06	-5.643707e-10	-1.209732e+01	-4.058291e+01
1.480000e-06	-1.693901e-06	-5.541196e-10	-1.178779e+01	-4.001481e+01
1.490000e-06	-1.649340e-06	-5.425024e-10	-1.147769e+01	-3.943606e+01
1.500000e-06	-1.604609e-06	-5.308576e-10	-1.116641e+01	-3.884645e+01
1.510000e-06	-1.559695e-06	-5.218856e-10	-1.085386e+01	-3.824576e+01
1.520000e-06	-1.514710e-06	-5.129368e-10	-1.054080e+01	-3.763379e+01
1.530000e-06	-1.469635e-06	-5.027062e-10	-1.022714e+01	-3.701030e+01
1.540000e-06	-1.424439e-06	-4.913951e-10	-9.912619e+00	-3.637509e+01
1.550000e-06	-1.379169e-06	-4.786629e-10	-9.597586e+00	-3.572793e+01
1.560000e-06	-1.333840e-06	-4.655893e-10	-9.282141e+00	-3.506860e+01
1.570000e-06	-1.288342e-06	-4.530708e-10	-8.965519e+00	-3.439685e+01
1.580000e-06	-1.242631e-06	-4.440559e-10	-8.647419e+00	-3.371246e+01
1.590000e-06	-1.196863e-06	-4.368104e-10	-8.328926e+00	-3.301519e+01
1.600000e-06	-1.151138e-06	-4.297257e-10	-8.010721e+00	-3.230479e+01
1.610000e-06	-1.105365e-06	-4.194248e-10	-7.692189e+00	-3.158102e+01
1.620000e-06	-1.059416e-06	-4.055421e-10	-7.372433e+00	-3.084363e+01
1.630000e-06	-1.013373e-06	-3.936069e-10	-7.052021e+00	-3.009237e+01
1.640000e-06	-9.673170e-07	-3.845620e-10	-6.731522e+00	-2.932698e+01
1.650000e-06	-9.211784e-07	-3.749126e-10	-6.410445e+00	-2.854722e+01
1.660000e-06	-8.749625e-07	-3.645404e-10	-6.088830e+00	-2.775285e+01
1.670000e-06	-8.286838e-07	-3.535400e-10	-5.766779e+00	-2.694361e+01
1.680000e-06	-7.824149e-07	-3.419301e-10	-5.444795e+00	-2.611928e+01
1.690000e-06	-7.360514e-07	-3.291901e-10	-5.122153e+00	-2.527962e+01
1.700000e-06	-6.895630e-07	-3.167358e-10	-4.798642e+00	-2.442443e+01
1.710000e-06	-6.430769e-07	-3.037297e-10	-4.475147e+00	-2.355349e+01
1.720000e-06	-5.965864e-07	-2.898179e-10	-4.151622e+00	-2.266662e+01
1.730000e-06	-5.500681e-07	-2.733649e-10	-3.827903e+00	-2.176366e+01
1.740000e-06	-5.035367e-07	-2.547172e-10	-3.504093e+00	-2.084445e+01
1.750000e-06	-4.569417e-07	-2.373307e-10	-3.179839e+00	-1.990887e+01
1.760000e-06	-4.102178e-07	-2.248833e-10	-2.854690e+00	-1.895684e+01
1.770000e-06	-3.634793e-07	-2.155249e-10	-2.529438e+00	-1.798828e+01
1.780000e-06	-3.167736e-07	-2.069105e-10	-2.204415e+00	-1.700316e+01
1.790000e-06	-2.700563e-07	-1.965756e-10	-1.879311e+00	-1.600149e+01
1.800000e-06	-2.233279e-07	-1.809966e-10	-1.554130e+00	-1.498332e+01
1.810000e-06	-1.765530e-07	-1.613583e-10	-1.228625e+00	-1.394871e+01
1.820000e-06	-1.298141e-07	-1.417410e-10	-9.033714e-01	-1.289780e+01
1.830000e-06	-8.315222e-08	-1.256154e-10	-5.786530e-01	-1.183077e+01
1.840000e-06	-3.645203e-08	-1.135281e-10	-2.536683e-01	-1.074782e+01
1.850000e-06	1.034225e-08	-1.009155e-10	7.197129e-02	-9.649233e+00
1.860000e-06	5.712552e-08	-8.647914e-11	3.975343e-01	-8.535321e+00
1.870000e-06	1.038197e-07	-7.280603e-11	7.224775e-01	-7.406456e+00
1.880000e-06	1.505674e-07	-5.659058e-11	1.047792e+00	-6.263060e+00
1.890000e-06	1.973394e-07	-3.675900e-11	1.373277e+00	-5.105609e+00
1.900000e-06	2.440462e-07	-1.662893e-11	1.698308e+00	-3.934631e+00
1.910000e-06	2.907622e-07	1.528793e-12	2.023403e+00	-2.750709e+00
1.920000e-06	3.375325e-07	1.821259e-11	2.348875e+00	-1.554477e+00
1.930000e-06	3.842220e-07	3.362244e-11	2.673786e+00	-3.466212e-01
1.940000e-06	4.308642e-07	4.979925e-11	2.998367e+00	8.721230e-01
1.950000e-06	4.775142e-07	6.729760e-11	3.323003e+00	2.100970e+00
1.960000e-06	5.240945e-07	8.520668e-11	3.647153e+00	3.339088e+00
1.970000e-06	5.706768e-07	1.037497e-10	3.971318e+00	4.585602e+00
1.980000e-06	6.172121e-07	1.216058e-10	4.295155e+00	5.839593e+00
1.990000e-06	6.636250e-07	1.380472e-10	4.618141e+00	7.100105e+00
2.000000e-06	7.099814e-07	1.539806e-10	4.940733e+00	8.366146e+00
2.010000e-06	7.563629e-07	1.705566e-10	5.263500e+00	9.636693e+00
2.020000e-06	8.026079e-07	1.906843e-10	5.585317e+00	1.091069e+01
2.030000e-06	8.486947e-07	2.125855e-10	5.906033e+00	1.218707e+01
2.040000e-06	8.947942e-07	2.344756e-10	6.226838e+00	1.346473e+01
2.050000e-06	9.408721e-07	2.545671e-10	6.547492e+00	1.474257e+01
2.060000e-06	9.868949e-07	2.715422e-10	6.867763e+00	1.601946e+01
2.070000e-06	1.032798e-06	2.854810e-10	7.187200e+00	1.729427e+01
2.080000e-06	1.078633e-06	2.995219e-10	7.506165e+00	1.856588e+01
2.090000e-06	1.124447e-06	3.162041e-10	7.824985e+00	1.983316e+01
2.100000e-06	1.170174e-06	3.361372e-10	8.143197e+00	2.109500e+01
2.110000e-06	1.215785e-06	3.579000e-10	8.460599e+00	2.235030e+01
2.120000e-06	1.261293e-06	3.769322e-10	8.777292e+00	2.359796e+01
2.130000e-06	1.306756e-06	3.931734e-10	9.093661e+00	2.483694e+01
2.140000e-06	1.352134e-06	4.097610e-10	9.409451e+00	2.606618e+01
2.150000e-06	1.397375e-06	4.279881e-10	9.724280e+00	2.728470e+01
2.160000e-06	1.442445e-06	4.443742e-10	1.003792e+01	2.849151e+01
2.170000e-06	1.487493e-06	4.589641e-10	1.035141e+01	2.968570e+01
2.180000e-06	1.532498e-06	4.745413e-10	1.066460e+01	3.086637e+01
2.190000e-06	1.577343e-06	4.908384e-10	1.097667e+01	3.203268e+01
2.200000e-06	1.622120e-06	5.059211e-10	1.128827e+01	3.318384e+01
2.210000e-06	1.666781e-06	5.207511e-10	1.159907e+01	3.431911e+01
2.220000e-06	1.711254e-06	5.345129e-10	1.190855e+01	3.543779e+01
2.230000e-06	1.755558e-06	5.491018e-10	1.221686e+01	3.653926e+01
2.240000e-06	1.799730e-06	5.648349e-10	1.252425e+01	3.762294e+01
2.250000e-06	1.843823e-06	5.782856e-10	1.283109e+01	3.868831e+01
2.260000e-06	1.887849e-06	5.894695e-10	1.313747e+01	3.973491e+01
2.270000e-06	1.931776e-06	6.005225e-10	1.344316e+01	4.076235e+01
2.280000e-06	1.975616e-06	6.145595e-10	1.374824e+01	4.177028e+01
2.290000e-06	2.019401e-06	6.284439e-10	1.405294e+01	4.275842e+01
2.300000e-06	2.063159e-06	6.430643e-10	1.435745e+01	4.372655e+01
2.310000e-06	2.106846e-06	6.554591e-10	1.466146e+01	4.467451e+01
2.320000e-06	2.150434e-06	6.656214e-10	1.496479e+01	4.560218e+01
2.330000e-06	2.193929e-06	6.778738e-10	1.526747e+01	4.650951e+01
2.340000e-06	2.237324e-06	6.903014e-10	1.556945e+01	4.739649e+01
2.350000e-06	2.280625e-06	7.040733e-10	1.587078e+01	4.826318e+01
2.360000e-06	2.323703e-06	7.188545e-10	1.617056e+01	4.910966e+01
2.370000e-06	2.366473e-06	7.332089e-10	1.646819e+01	4.993608e+01
2.380000e-06	2.408972e-06	7.420419e-10	1.676394e+01	5.074262e+01
2.390000e-06	2.451128e-06	7.472142e-10	1.705730e+01	5.152950e+01
2.400000e-06	2.492852e-06	7.535113e-10	1.734766e+01	5.229697e+01
2.410000e-06	2.534176e-06	7.611876e-10	1.763523e+01	5.304533e+01
2.420000e-06	2.575264e-06	7.706015e-10	1.792116e+01	5.377490e+01
2.430000e-06	2.616167e-06	7.827946e-10	1.820581e+01	5.448603e+01
2.440000e-06	2.656769e-06	7.974599e-10	1.848835e+01	5.517907e+01
2.450000e-06	2.697131e-06	8.106950e-10	1.876923e+01	5.585443e+01
2.460000e-06	2.737336e-06	8.200847e-10	1.904902e+01	5.651250e+01
2.470000e-06	2.777377e-06	8.281550e-10	1.932766e+01	5.715371e+01
2.480000e-06	2.817269e-06	8.364420e-10	1.960527e+01	5.777848e+01
2.490000e-06	2.857031e-06	8.440892e-10	1.988196e+01	5.838726e+01
2.500000e-06	2.896653e-06	8.505260e-10	2.015769e+01	5.898047e+01
2.510000e-06	2.936095e-06	8.576525e-10	2.043217e+01	5.955857e+01
2.520000e-06	2.975404e-06	8.671019e-10	2.070572e+01	6.012200e+01
2.530000e-06	3.014543e-06	8.776733e-10	2.097809e+01	6.067119e+01
2.540000e-06	3.053462e-06	8.877701e-10	2.124892e+01	6.120657e+01
2.550000e-06	3.092179e-06	8.958481e-10	2.151836e+01	6.172858e+01
2.560000e-06	3.130623e-06	9.027365e-10	2.178588e+01	6.223763e+01
2.570000e-06	3.168835e-06	9.109381e-10	2.205180e+01	6.273413e+01
2.580000e-06	3.206859e-06	9.151176e-10	2.231640e+01	6.321848e+01
2.590000e-06	3.244676e-06	9.167526e-10	2.257957e+01	6.369105e+01
2.600000e-06	3.282367e-06	9.216485e-10	2.284187e+01	6.415222e+01
2.610000e-06	3.319868e-06	9.295811e-10	2.310283e+01	6.460234e+01
2.620000e-06	3.357067e-06	9.384123e-10	2.336170e+01	6.504175e+01
2.630000e-06	3.394019e-06	9.470226e-10	2.361884e+01	6.547079e+01
2.640000e-06	3.430706e-06	9.564713e-10	2.387415e+01	6.588974e+01
2.650000e-06	3.467055e-06	9.649483e-10	2.412710e+01	6.629892e+01
2.660000e-06	3.503196e-06	9.714574e-10	2.437861e+01	6.669861e+01
2.670000e-06	3.539222e-06	9.746837e-10	2.462931e+01	6.708905e+01
2.680000e-06	3.575083e-06	9.775420e-10	2.487886e+01	6.747052e+01
2.690000e-06	3.610805e-06	9.838089e-10	2.512745e+01	6.784324e+01
2.700000e-06	3.646375e-06	9.927947e-10	2.537499e+01	6.820744e+01
2.710000e-06	3.681792e-06	9.994225e-10	2.562145e+01	6.856333e+01
2.720000e-06	3.716999e-06	1.004288e-09	2.586645e+01	6.891111e+01
2.730000e-06	3.751828e-06	1.010224e-09	2.610883e+01	6.925096e+01
2.740000e-06	3.786223e-06	1.015554e-09	2.634818e+01	6.958306e+01
2.750000e-06	3.820232e-06	1.020030e-09	2.658484e+01	6.990758e+01
2.760000e-06	3.853795e-06	1.026043e-09	2.681841e+01	7.022469e+01
2.770000e-06	3.886885e-06	1.032003e-09	2.704868e+01	7.053452e+01
2.780000e-06	3.919629e-06	1.037097e-09	2.727654e+01	7.083722e+01
2.790000e-06	3.952025e-06	1.041404e-09	2.750199e+01	7.113292e+01
2.800000e-06	3.984054e-06	1.044724e-09	2.772488e+01	7.142176e+01
2.810000e-06	4.015842e-06	1.048139e-09	2.794609e+01	7.170386e+01
2.820000e-06	4.047493e-06	1.051026e-09	2.816635e+01	7.197933e+01
2.830000e-06	4.079063e-06	1.053506e-09	2.838604e+01	7.224829e+01
2.840000e-06	4.110494e-06	1.058677e-09	2.860477e+01	7.251084e+01
2.850000e-06	4.141634e-06	1.065993e-09	2.882147e+01	7.276710e+01
2.860000e-06	4.172380e-06	1.072177e-09	2.903543e+01	7.301715e+01
2.870000e-06	4.202770e-06	1.074694e-09	2.924692e+01	7.326109e+01
2.880000e-06	4.232838e-06	1.075226e-09	2.945615e+01	7.349901e+01
2.890000e-06	4.262584e-06	1.076711e-09	2.966316e+01	7.373101e+01
2.900000e-06	4.292152e-06	1.078479e-09	2.986892e+01	7.395716e+01
