# Temperatura_=_-0.6
# Concentracion g/m^3_=_1620.0
# C_Vs_to_Am_M_A/Vsm_=_65563218390.804596
# pendiente_HvsI_1/m_=_3716.3
# ordenada_HvsI_A/m_=_1297.0
# frecuencia_Hz_=_135096.96676330714

Tiempo_(s)	Campo_(V.s)	Magnetizacion_(V.s)	Campo_(kA/m)	Magnetizacion_(A/m)
0.000000e+00	-5.519169e-06	-1.377530e-09	-3.837644e+01	-9.015481e+01
1.000000e-08	-5.519315e-06	-1.372722e-09	-3.837745e+01	-9.009926e+01
2.000000e-08	-5.519167e-06	-1.373330e-09	-3.837642e+01	-9.004316e+01
3.000000e-08	-5.518558e-06	-1.375582e-09	-3.837219e+01	-8.998651e+01
4.000000e-08	-5.517379e-06	-1.371830e-09	-3.836399e+01	-8.992927e+01
5.000000e-08	-5.515657e-06	-1.358293e-09	-3.835201e+01	-8.987138e+01
6.000000e-08	-5.513411e-06	-1.351823e-09	-3.833639e+01	-8.981278e+01
7.000000e-08	-5.510588e-06	-1.389491e-09	-3.831677e+01	-8.975342e+01
8.000000e-08	-5.507238e-06	-1.410596e-09	-3.829348e+01	-8.969321e+01
9.000000e-08	-5.503468e-06	-1.413540e-09	-3.826726e+01	-8.963206e+01
1.000000e-07	-5.499363e-06	-1.440224e-09	-3.823871e+01	-8.956988e+01
1.100000e-07	-5.495009e-06	-1.404004e-09	-3.820844e+01	-8.950657e+01
1.200000e-07	-5.490382e-06	-1.311172e-09	-3.817627e+01	-8.944200e+01
1.300000e-07	-5.485453e-06	-1.316010e-09	-3.814199e+01	-8.937607e+01
1.400000e-07	-5.480188e-06	-1.381743e-09	-3.810539e+01	-8.930864e+01
1.500000e-07	-5.474577e-06	-1.434855e-09	-3.806637e+01	-8.923959e+01
1.600000e-07	-5.468497e-06	-1.314892e-09	-3.802410e+01	-8.916879e+01
1.700000e-07	-5.461950e-06	-1.311605e-09	-3.797857e+01	-8.909610e+01
1.800000e-07	-5.455026e-06	-1.385742e-09	-3.793043e+01	-8.902137e+01
1.900000e-07	-5.447723e-06	-1.410862e-09	-3.787965e+01	-8.894447e+01
2.000000e-07	-5.440082e-06	-1.317045e-09	-3.782652e+01	-8.886525e+01
2.100000e-07	-5.432258e-06	-1.301813e-09	-3.777211e+01	-8.878357e+01
2.200000e-07	-5.424197e-06	-1.374388e-09	-3.771607e+01	-8.869928e+01
2.300000e-07	-5.415822e-06	-1.380842e-09	-3.765783e+01	-8.861223e+01
2.400000e-07	-5.407006e-06	-1.325026e-09	-3.759653e+01	-8.852229e+01
2.500000e-07	-5.397461e-06	-1.297256e-09	-3.753016e+01	-8.842930e+01
2.600000e-07	-5.387178e-06	-1.334053e-09	-3.745866e+01	-8.833315e+01
2.700000e-07	-5.376277e-06	-1.332456e-09	-3.738286e+01	-8.823367e+01
2.800000e-07	-5.364942e-06	-1.336092e-09	-3.730405e+01	-8.813075e+01
2.900000e-07	-5.353298e-06	-1.318264e-09	-3.722309e+01	-8.802425e+01
3.000000e-07	-5.341273e-06	-1.329076e-09	-3.713947e+01	-8.791405e+01
3.100000e-07	-5.328821e-06	-1.312962e-09	-3.705289e+01	-8.780004e+01
3.200000e-07	-5.315943e-06	-1.331794e-09	-3.696334e+01	-8.768208e+01
3.300000e-07	-5.302631e-06	-1.288949e-09	-3.687078e+01	-8.756009e+01
3.400000e-07	-5.288908e-06	-1.301045e-09	-3.677536e+01	-8.743396e+01
3.500000e-07	-5.274793e-06	-1.334706e-09	-3.667722e+01	-8.730358e+01
3.600000e-07	-5.260224e-06	-1.333792e-09	-3.657591e+01	-8.716888e+01
3.700000e-07	-5.245209e-06	-1.279589e-09	-3.647151e+01	-8.702977e+01
3.800000e-07	-5.229863e-06	-1.320318e-09	-3.636480e+01	-8.688619e+01
3.900000e-07	-5.213978e-06	-1.329749e-09	-3.625435e+01	-8.673806e+01
4.000000e-07	-5.197460e-06	-1.267721e-09	-3.613950e+01	-8.658534e+01
4.100000e-07	-5.180550e-06	-1.284992e-09	-3.602191e+01	-8.642797e+01
4.200000e-07	-5.163426e-06	-1.354475e-09	-3.590285e+01	-8.626591e+01
4.300000e-07	-5.145971e-06	-1.280617e-09	-3.578147e+01	-8.609914e+01
4.400000e-07	-5.128034e-06	-1.247700e-09	-3.565676e+01	-8.592763e+01
4.500000e-07	-5.109745e-06	-1.350100e-09	-3.552959e+01	-8.575137e+01
4.600000e-07	-5.091155e-06	-1.323373e-09	-3.540033e+01	-8.557037e+01
4.700000e-07	-5.072167e-06	-1.219297e-09	-3.526829e+01	-8.538462e+01
4.800000e-07	-5.052844e-06	-1.298234e-09	-3.513394e+01	-8.519414e+01
4.900000e-07	-5.033263e-06	-1.349371e-09	-3.499778e+01	-8.499896e+01
5.000000e-07	-5.013453e-06	-1.230379e-09	-3.486004e+01	-8.479911e+01
5.100000e-07	-4.993473e-06	-1.249548e-09	-3.472111e+01	-8.459462e+01
5.200000e-07	-4.973210e-06	-1.341792e-09	-3.458022e+01	-8.438556e+01
5.300000e-07	-4.952539e-06	-1.253613e-09	-3.443649e+01	-8.417198e+01
5.400000e-07	-4.931491e-06	-1.204148e-09	-3.429014e+01	-8.395395e+01
5.500000e-07	-4.910135e-06	-1.316651e-09	-3.414164e+01	-8.373153e+01
5.600000e-07	-4.888435e-06	-1.276667e-09	-3.399075e+01	-8.350481e+01
5.700000e-07	-4.866343e-06	-1.189684e-09	-3.383714e+01	-8.327387e+01
5.800000e-07	-4.843971e-06	-1.270382e-09	-3.368158e+01	-8.303881e+01
5.900000e-07	-4.821239e-06	-1.300279e-09	-3.352352e+01	-8.279973e+01
6.000000e-07	-4.798177e-06	-1.196252e-09	-3.336316e+01	-8.255671e+01
6.100000e-07	-4.774950e-06	-1.228178e-09	-3.320166e+01	-8.230988e+01
6.200000e-07	-4.751395e-06	-1.278207e-09	-3.303787e+01	-8.205933e+01
6.300000e-07	-4.727496e-06	-1.210940e-09	-3.287169e+01	-8.180518e+01
6.400000e-07	-4.703333e-06	-1.199725e-09	-3.270369e+01	-8.154753e+01
6.500000e-07	-4.678877e-06	-1.261793e-09	-3.253363e+01	-8.128651e+01
6.600000e-07	-4.653990e-06	-1.219851e-09	-3.236059e+01	-8.102221e+01
6.700000e-07	-4.628558e-06	-1.195727e-09	-3.218375e+01	-8.075475e+01
6.800000e-07	-4.602515e-06	-1.240612e-09	-3.200266e+01	-8.048424e+01
6.900000e-07	-4.575916e-06	-1.229512e-09	-3.181771e+01	-8.021077e+01
7.000000e-07	-4.548846e-06	-1.187573e-09	-3.162949e+01	-7.993446e+01
7.100000e-07	-4.521489e-06	-1.215897e-09	-3.143926e+01	-7.965539e+01
7.200000e-07	-4.493942e-06	-1.219781e-09	-3.124772e+01	-7.937365e+01
7.300000e-07	-4.466146e-06	-1.182587e-09	-3.105445e+01	-7.908933e+01
7.400000e-07	-4.438160e-06	-1.183777e-09	-3.085985e+01	-7.880250e+01
7.500000e-07	-4.410029e-06	-1.196389e-09	-3.066425e+01	-7.851322e+01
7.600000e-07	-4.381651e-06	-1.175021e-09	-3.046693e+01	-7.822155e+01
7.700000e-07	-4.352979e-06	-1.169614e-09	-3.026757e+01	-7.792754e+01
7.800000e-07	-4.323908e-06	-1.180602e-09	-3.006542e+01	-7.763122e+01
7.900000e-07	-4.294491e-06	-1.165864e-09	-2.986088e+01	-7.733262e+01
8.000000e-07	-4.264836e-06	-1.154187e-09	-2.965468e+01	-7.703176e+01
8.100000e-07	-4.234852e-06	-1.158470e-09	-2.944619e+01	-7.672863e+01
8.200000e-07	-4.204580e-06	-1.148233e-09	-2.923570e+01	-7.642323e+01
8.300000e-07	-4.174083e-06	-1.127397e-09	-2.902365e+01	-7.611553e+01
8.400000e-07	-4.143300e-06	-1.132476e-09	-2.880961e+01	-7.580551e+01
8.500000e-07	-4.112206e-06	-1.127200e-09	-2.859340e+01	-7.549311e+01
8.600000e-07	-4.080931e-06	-1.108879e-09	-2.837594e+01	-7.517827e+01
8.700000e-07	-4.049444e-06	-1.104406e-09	-2.815700e+01	-7.486094e+01
8.800000e-07	-4.017692e-06	-1.110083e-09	-2.793622e+01	-7.454101e+01
8.900000e-07	-3.985782e-06	-1.093635e-09	-2.771434e+01	-7.421842e+01
9.000000e-07	-3.953677e-06	-1.085600e-09	-2.749110e+01	-7.389304e+01
9.100000e-07	-3.921263e-06	-1.088627e-09	-2.726572e+01	-7.356477e+01
9.200000e-07	-3.888441e-06	-1.079714e-09	-2.703749e+01	-7.323350e+01
9.300000e-07	-3.855137e-06	-1.065129e-09	-2.680592e+01	-7.289908e+01
9.400000e-07	-3.821385e-06	-1.070526e-09	-2.657123e+01	-7.256138e+01
9.500000e-07	-3.787083e-06	-1.065998e-09	-2.633272e+01	-7.222027e+01
9.600000e-07	-3.752371e-06	-1.049020e-09	-2.609136e+01	-7.187558e+01
9.700000e-07	-3.717395e-06	-1.044801e-09	-2.584816e+01	-7.152718e+01
9.800000e-07	-3.682155e-06	-1.048749e-09	-2.560313e+01	-7.117491e+01
9.900000e-07	-3.646706e-06	-1.036242e-09	-2.535664e+01	-7.081861e+01
1.000000e-06	-3.611045e-06	-1.029474e-09	-2.510867e+01	-7.045812e+01
1.010000e-06	-3.575256e-06	-1.031285e-09	-2.485982e+01	-7.009329e+01
1.020000e-06	-3.539338e-06	-1.022450e-09	-2.461007e+01	-6.972397e+01
1.030000e-06	-3.503286e-06	-1.007565e-09	-2.435940e+01	-6.934999e+01
1.040000e-06	-3.467107e-06	-1.005108e-09	-2.410783e+01	-6.897123e+01
1.050000e-06	-3.430608e-06	-9.997418e-10	-2.385404e+01	-6.858753e+01
1.060000e-06	-3.393765e-06	-9.867183e-10	-2.359786e+01	-6.819876e+01
1.070000e-06	-3.356673e-06	-9.807923e-10	-2.333995e+01	-6.780479e+01
1.080000e-06	-3.319299e-06	-9.768218e-10	-2.308008e+01	-6.740550e+01
1.090000e-06	-3.281710e-06	-9.657430e-10	-2.281871e+01	-6.700077e+01
1.100000e-06	-3.243950e-06	-9.571963e-10	-2.255616e+01	-6.659051e+01
1.110000e-06	-3.205977e-06	-9.558796e-10	-2.229212e+01	-6.617462e+01
1.120000e-06	-3.167808e-06	-9.492715e-10	-2.202672e+01	-6.575301e+01
1.130000e-06	-3.129435e-06	-9.403399e-10	-2.175990e+01	-6.532562e+01
1.140000e-06	-3.090768e-06	-9.342563e-10	-2.149103e+01	-6.489238e+01
1.150000e-06	-3.051805e-06	-9.258227e-10	-2.122011e+01	-6.445324e+01
1.160000e-06	-3.012673e-06	-9.116097e-10	-2.094802e+01	-6.400814e+01
1.170000e-06	-2.973364e-06	-9.046890e-10	-2.067469e+01	-6.355707e+01
1.180000e-06	-2.933882e-06	-9.007046e-10	-2.040016e+01	-6.309998e+01
1.190000e-06	-2.894311e-06	-8.961540e-10	-2.012501e+01	-6.263687e+01
1.200000e-06	-2.854633e-06	-8.905969e-10	-1.984912e+01	-6.216772e+01
1.210000e-06	-2.814787e-06	-8.880948e-10	-1.957206e+01	-6.169253e+01
1.220000e-06	-2.774759e-06	-8.794029e-10	-1.929373e+01	-6.121130e+01
1.230000e-06	-2.734580e-06	-8.696600e-10	-1.901435e+01	-6.072402e+01
1.240000e-06	-2.694234e-06	-8.616122e-10	-1.873381e+01	-6.023071e+01
1.250000e-06	-2.653654e-06	-8.543303e-10	-1.845165e+01	-5.973136e+01
1.260000e-06	-2.612833e-06	-8.462763e-10	-1.816781e+01	-5.922598e+01
1.270000e-06	-2.571676e-06	-8.406306e-10	-1.788164e+01	-5.871458e+01
1.280000e-06	-2.530268e-06	-8.364678e-10	-1.759371e+01	-5.819713e+01
1.290000e-06	-2.488737e-06	-8.308373e-10	-1.730493e+01	-5.767364e+01
1.300000e-06	-2.446935e-06	-8.207906e-10	-1.701427e+01	-5.714408e+01
1.310000e-06	-2.404700e-06	-8.106195e-10	-1.672060e+01	-5.660841e+01
1.320000e-06	-2.362141e-06	-8.000974e-10	-1.642467e+01	-5.606660e+01
1.330000e-06	-2.319339e-06	-7.915792e-10	-1.612706e+01	-5.551857e+01
1.340000e-06	-2.276294e-06	-7.851271e-10	-1.582775e+01	-5.496426e+01
1.350000e-06	-2.233083e-06	-7.776460e-10	-1.552730e+01	-5.440357e+01
1.360000e-06	-2.189679e-06	-7.677688e-10	-1.522549e+01	-5.383639e+01
1.370000e-06	-2.146154e-06	-7.592035e-10	-1.492285e+01	-5.326257e+01
1.380000e-06	-2.102563e-06	-7.528060e-10	-1.461975e+01	-5.268196e+01
1.390000e-06	-2.058836e-06	-7.449632e-10	-1.431571e+01	-5.209437e+01
1.400000e-06	-2.015012e-06	-7.356817e-10	-1.401098e+01	-5.149961e+01
1.410000e-06	-1.971142e-06	-7.251796e-10	-1.370594e+01	-5.089742e+01
1.420000e-06	-1.927187e-06	-7.152055e-10	-1.340031e+01	-5.028756e+01
1.430000e-06	-1.883169e-06	-7.055445e-10	-1.309424e+01	-4.966973e+01
1.440000e-06	-1.839108e-06	-6.959420e-10	-1.278787e+01	-4.904363e+01
1.450000e-06	-1.794982e-06	-6.863242e-10	-1.248105e+01	-4.840890e+01
1.460000e-06	-1.750750e-06	-6.753317e-10	-1.217349e+01	-4.776518e+01
1.470000e-06	-1.706353e-06	-6.614204e-10	-1.186478e+01	-4.711208e+01
1.480000e-06	-1.661737e-06	-6.481898e-10	-1.155456e+01	-4.644917e+01
1.490000e-06	-1.616963e-06	-6.367626e-10	-1.124323e+01	-4.577602e+01
1.500000e-06	-1.572137e-06	-6.284434e-10	-1.093154e+01	-4.509216e+01
1.510000e-06	-1.527138e-06	-6.201310e-10	-1.061864e+01	-4.439710e+01
1.520000e-06	-1.481900e-06	-6.115838e-10	-1.030409e+01	-4.369033e+01
1.530000e-06	-1.436662e-06	-6.008294e-10	-9.989543e+00	-4.297135e+01
1.540000e-06	-1.391409e-06	-5.877039e-10	-9.674885e+00	-4.223960e+01
1.550000e-06	-1.346028e-06	-5.721360e-10	-9.359334e+00	-4.149456e+01
1.560000e-06	-1.300473e-06	-5.565473e-10	-9.042577e+00	-4.073566e+01
1.570000e-06	-1.254790e-06	-5.420920e-10	-8.724929e+00	-3.996234e+01
1.580000e-06	-1.209087e-06	-5.323211e-10	-8.407144e+00	-3.917405e+01
1.590000e-06	-1.163228e-06	-5.260892e-10	-8.088274e+00	-3.837023e+01
1.600000e-06	-1.117186e-06	-5.166911e-10	-7.768127e+00	-3.755033e+01
1.610000e-06	-1.071110e-06	-5.013626e-10	-7.447750e+00	-3.671381e+01
1.620000e-06	-1.025088e-06	-4.843071e-10	-7.127747e+00	-3.586013e+01
1.630000e-06	-9.789991e-07	-4.708790e-10	-6.807274e+00	-3.498879e+01
1.640000e-06	-9.327772e-07	-4.583649e-10	-6.485879e+00	-3.409929e+01
1.650000e-06	-8.865299e-07	-4.433427e-10	-6.164308e+00	-3.319118e+01
1.660000e-06	-8.402624e-07	-4.284380e-10	-5.842596e+00	-3.226402e+01
1.670000e-06	-7.938889e-07	-4.122337e-10	-5.520147e+00	-3.131741e+01
1.680000e-06	-7.474047e-07	-3.973582e-10	-5.196929e+00	-3.035097e+01
1.690000e-06	-7.008817e-07	-3.835196e-10	-4.873440e+00	-2.936440e+01
1.700000e-06	-6.543558e-07	-3.705593e-10	-4.549932e+00	-2.835741e+01
1.710000e-06	-6.078228e-07	-3.555982e-10	-4.226374e+00	-2.732976e+01
1.720000e-06	-5.613180e-07	-3.389585e-10	-3.903012e+00	-2.628128e+01
1.730000e-06	-5.147704e-07	-3.197719e-10	-3.579352e+00	-2.521183e+01
1.740000e-06	-4.681365e-07	-2.973482e-10	-3.255093e+00	-2.412135e+01
1.750000e-06	-4.214565e-07	-2.781306e-10	-2.930513e+00	-2.300982e+01
1.760000e-06	-3.747396e-07	-2.634189e-10	-2.605677e+00	-2.187729e+01
1.770000e-06	-3.279756e-07	-2.522837e-10	-2.280513e+00	-2.072386e+01
1.780000e-06	-2.811037e-07	-2.396865e-10	-1.954598e+00	-1.954972e+01
1.790000e-06	-2.342349e-07	-2.244398e-10	-1.628705e+00	-1.835508e+01
1.800000e-06	-1.873825e-07	-2.057819e-10	-1.302927e+00	-1.714027e+01
1.810000e-06	-1.404947e-07	-1.856470e-10	-9.769014e-01	-1.590564e+01
1.820000e-06	-9.360533e-08	-1.681150e-10	-6.508658e-01	-1.465162e+01
1.830000e-06	-4.679132e-08	-1.540311e-10	-3.253541e-01	-1.337872e+01
1.840000e-06	-7.395506e-12	-1.396996e-10	-5.142317e-05	-1.208749e+01
1.850000e-06	4.680661e-08	-1.246538e-10	3.254603e-01	-1.077856e+01
1.860000e-06	9.363669e-08	-1.103348e-10	6.510839e-01	-9.452619e+00
1.870000e-06	1.404345e-07	-9.540664e-11	9.764831e-01	-8.110406e+00
1.880000e-06	1.871928e-07	-7.511166e-11	1.301608e+00	-6.752724e+00
1.890000e-06	2.340329e-07	-5.321919e-11	1.627301e+00	-5.380430e+00
1.900000e-06	2.809111e-07	-3.250699e-11	1.953259e+00	-3.994430e+00
1.910000e-06	3.277190e-07	-1.276344e-11	2.278728e+00	-2.595682e+00
1.920000e-06	3.743609e-07	5.590675e-12	2.603043e+00	-1.185185e+00
1.930000e-06	4.210330e-07	2.108285e-11	2.927569e+00	2.360179e-01
1.940000e-06	4.677335e-07	3.765171e-11	3.252291e+00	1.666849e+00
1.950000e-06	5.142756e-07	5.524667e-11	3.575912e+00	3.106196e+00
1.960000e-06	5.607975e-07	7.415736e-11	3.899393e+00	4.552918e+00
1.970000e-06	6.073649e-07	9.433633e-11	4.223190e+00	6.005851e+00
1.980000e-06	6.539442e-07	1.155255e-10	4.547069e+00	7.463810e+00
1.990000e-06	7.005113e-07	1.379291e-10	4.870865e+00	8.925595e+00
2.000000e-06	7.469961e-07	1.558038e-10	5.194087e+00	1.039000e+01
2.010000e-06	7.933606e-07	1.725184e-10	5.516474e+00	1.185580e+01
2.020000e-06	8.396596e-07	1.918284e-10	5.838404e+00	1.332178e+01
2.030000e-06	8.859315e-07	2.119297e-10	6.160147e+00	1.478673e+01
2.040000e-06	9.321497e-07	2.333451e-10	6.481516e+00	1.624945e+01
2.050000e-06	9.782736e-07	2.557784e-10	6.802229e+00	1.770873e+01
2.060000e-06	1.024283e-06	2.777348e-10	7.122145e+00	1.916341e+01
2.070000e-06	1.070150e-06	3.002929e-10	7.441073e+00	2.061232e+01
2.080000e-06	1.115932e-06	3.234008e-10	7.759412e+00	2.205433e+01
2.090000e-06	1.161740e-06	3.461020e-10	8.077929e+00	2.348833e+01
2.100000e-06	1.207548e-06	3.678603e-10	8.396445e+00	2.491327e+01
2.110000e-06	1.253187e-06	3.873017e-10	8.713783e+00	2.632809e+01
2.120000e-06	1.298623e-06	4.034246e-10	9.029712e+00	2.773179e+01
2.130000e-06	1.343959e-06	4.205610e-10	9.344951e+00	2.912342e+01
2.140000e-06	1.389236e-06	4.415392e-10	9.659775e+00	3.050206e+01
2.150000e-06	1.434412e-06	4.635135e-10	9.973894e+00	3.186683e+01
2.160000e-06	1.479528e-06	4.848475e-10	1.028760e+01	3.321691e+01
2.170000e-06	1.524593e-06	5.062402e-10	1.060095e+01	3.455153e+01
2.180000e-06	1.569523e-06	5.274616e-10	1.091337e+01	3.586995e+01
2.190000e-06	1.614277e-06	5.444611e-10	1.122455e+01	3.717150e+01
2.200000e-06	1.658940e-06	5.594273e-10	1.153511e+01	3.845554e+01
2.210000e-06	1.703455e-06	5.756460e-10	1.184463e+01	3.972151e+01
2.220000e-06	1.747817e-06	5.924323e-10	1.215310e+01	4.096887e+01
2.230000e-06	1.792142e-06	6.113223e-10	1.246130e+01	4.219716e+01
2.240000e-06	1.836298e-06	6.288865e-10	1.276833e+01	4.340594e+01
2.250000e-06	1.880235e-06	6.452886e-10	1.307384e+01	4.459485e+01
2.260000e-06	1.924072e-06	6.602537e-10	1.337865e+01	4.576357e+01
2.270000e-06	1.967890e-06	6.796689e-10	1.368333e+01	4.691180e+01
2.280000e-06	2.011661e-06	6.981795e-10	1.398768e+01	4.803933e+01
2.290000e-06	2.055367e-06	7.142499e-10	1.429158e+01	4.914596e+01
2.300000e-06	2.099003e-06	7.269455e-10	1.459500e+01	5.023156e+01
2.310000e-06	2.142602e-06	7.388891e-10	1.489816e+01	5.129602e+01
2.320000e-06	2.186134e-06	7.531729e-10	1.520084e+01	5.233928e+01
2.330000e-06	2.229564e-06	7.690629e-10	1.550283e+01	5.336131e+01
2.340000e-06	2.272825e-06	7.871901e-10	1.580363e+01	5.436213e+01
2.350000e-06	2.315822e-06	8.066400e-10	1.610261e+01	5.534178e+01
2.360000e-06	2.358626e-06	8.279662e-10	1.640023e+01	5.630034e+01
2.370000e-06	2.401189e-06	8.431773e-10	1.669619e+01	5.723790e+01
2.380000e-06	2.443495e-06	8.536812e-10	1.699036e+01	5.815462e+01
2.390000e-06	2.485471e-06	8.624549e-10	1.728223e+01	5.905063e+01
2.400000e-06	2.527015e-06	8.694416e-10	1.757109e+01	5.992612e+01
2.410000e-06	2.568237e-06	8.763232e-10	1.785772e+01	6.078130e+01
2.420000e-06	2.609200e-06	8.875815e-10	1.814255e+01	6.161638e+01
2.430000e-06	2.649916e-06	9.049108e-10	1.842566e+01	6.243161e+01
2.440000e-06	2.690417e-06	9.210450e-10	1.870728e+01	6.322723e+01
2.450000e-06	2.730724e-06	9.324300e-10	1.898754e+01	6.400352e+01
2.460000e-06	2.770786e-06	9.430833e-10	1.926610e+01	6.476076e+01
2.470000e-06	2.810663e-06	9.526431e-10	1.954338e+01	6.549923e+01
2.480000e-06	2.850436e-06	9.603562e-10	1.981994e+01	6.621925e+01
2.490000e-06	2.890143e-06	9.672068e-10	2.009603e+01	6.692111e+01
2.500000e-06	2.929732e-06	9.754210e-10	2.037130e+01	6.760514e+01
2.510000e-06	2.969146e-06	9.848678e-10	2.064536e+01	6.827167e+01
2.520000e-06	3.008378e-06	9.967143e-10	2.091816e+01	6.892102e+01
2.530000e-06	3.047437e-06	1.008307e-09	2.118974e+01	6.955353e+01
2.540000e-06	3.086361e-06	1.018562e-09	2.146039e+01	7.016954e+01
2.550000e-06	3.124978e-06	1.027196e-09	2.172891e+01	7.076940e+01
2.560000e-06	3.163324e-06	1.034599e-09	2.199554e+01	7.135344e+01
2.570000e-06	3.201545e-06	1.040460e-09	2.226130e+01	7.192203e+01
2.580000e-06	3.239489e-06	1.045361e-09	2.252514e+01	7.247551e+01
2.590000e-06	3.277146e-06	1.051187e-09	2.278698e+01	7.301424e+01
2.600000e-06	3.314693e-06	1.059142e-09	2.304805e+01	7.353857e+01
2.610000e-06	3.352068e-06	1.067061e-09	2.330793e+01	7.404887e+01
2.620000e-06	3.389157e-06	1.074378e-09	2.356582e+01	7.454548e+01
2.630000e-06	3.426052e-06	1.080511e-09	2.382237e+01	7.502878e+01
2.640000e-06	3.462662e-06	1.085854e-09	2.407693e+01	7.549913e+01
2.650000e-06	3.498892e-06	1.091664e-09	2.432884e+01	7.595688e+01
2.660000e-06	3.534896e-06	1.096232e-09	2.457919e+01	7.640241e+01
2.670000e-06	3.570765e-06	1.100797e-09	2.482860e+01	7.683607e+01
2.680000e-06	3.606471e-06	1.108543e-09	2.507687e+01	7.725822e+01
2.690000e-06	3.642048e-06	1.118831e-09	2.532425e+01	7.766924e+01
2.700000e-06	3.677515e-06	1.127388e-09	2.557086e+01	7.806948e+01
2.710000e-06	3.712824e-06	1.133054e-09	2.581638e+01	7.845930e+01
2.720000e-06	3.747858e-06	1.137846e-09	2.605998e+01	7.883906e+01
2.730000e-06	3.782615e-06	1.141666e-09	2.630165e+01	7.920913e+01
2.740000e-06	3.817048e-06	1.143645e-09	2.654108e+01	7.956985e+01
2.750000e-06	3.850865e-06	1.146981e-09	2.677621e+01	7.992157e+01
2.760000e-06	3.884109e-06	1.152082e-09	2.700737e+01	8.026464e+01
2.770000e-06	3.916990e-06	1.160323e-09	2.723600e+01	8.059941e+01
2.780000e-06	3.949465e-06	1.171020e-09	2.746181e+01	8.092621e+01
2.790000e-06	3.981598e-06	1.180841e-09	2.768524e+01	8.124536e+01
2.800000e-06	4.013521e-06	1.187776e-09	2.790721e+01	8.155720e+01
2.810000e-06	4.045315e-06	1.192709e-09	2.812828e+01	8.186204e+01
2.820000e-06	4.076979e-06	1.195877e-09	2.834845e+01	8.216017e+01
2.830000e-06	4.108448e-06	1.198751e-09	2.856727e+01	8.245190e+01
2.840000e-06	4.139697e-06	1.203775e-09	2.878455e+01	8.273751e+01
2.850000e-06	4.170585e-06	1.212170e-09	2.899932e+01	8.301726e+01
2.860000e-06	4.201094e-06	1.220485e-09	2.921146e+01	8.329143e+01
2.870000e-06	4.231325e-06	1.226465e-09	2.942167e+01	8.356026e+01
2.880000e-06	4.261238e-06	1.230809e-09	2.962966e+01	8.382398e+01
2.890000e-06	4.290871e-06	1.233218e-09	2.983571e+01	8.408279e+01
2.900000e-06	4.320259e-06	1.235048e-09	3.004006e+01	8.433692e+01
