# Temperatura_=_-0.6
# Concentracion g/m^3_=_1620.0
# C_Vs_to_Am_M_A/Vsm_=_65563218390.804596
# pendiente_HvsI_1/m_=_3716.3
# ordenada_HvsI_A/m_=_1297.0
# frecuencia_Hz_=_135098.39681127155

Tiempo_(s)	Campo_(V.s)	Magnetizacion_(V.s)	Campo_(kA/m)	Magnetizacion_(A/m)
0.000000e+00	-5.505947e-06	-1.358998e-09	-3.836418e+01	-8.906445e+01
1.000000e-08	-5.506157e-06	-1.356557e-09	-3.836565e+01	-8.899824e+01
2.000000e-08	-5.505973e-06	-1.357414e-09	-3.836436e+01	-8.892971e+01
3.000000e-08	-5.505296e-06	-1.359791e-09	-3.835965e+01	-8.885883e+01
4.000000e-08	-5.504216e-06	-1.356503e-09	-3.835212e+01	-8.878560e+01
5.000000e-08	-5.502595e-06	-1.340680e-09	-3.834083e+01	-8.870999e+01
6.000000e-08	-5.500355e-06	-1.326860e-09	-3.832522e+01	-8.863200e+01
7.000000e-08	-5.497598e-06	-1.347882e-09	-3.830601e+01	-8.855159e+01
8.000000e-08	-5.494320e-06	-1.401023e-09	-3.828317e+01	-8.846878e+01
9.000000e-08	-5.490586e-06	-1.468981e-09	-3.825715e+01	-8.838356e+01
1.000000e-07	-5.486343e-06	-1.452246e-09	-3.822759e+01	-8.829592e+01
1.100000e-07	-5.481794e-06	-1.312770e-09	-3.819590e+01	-8.820587e+01
1.200000e-07	-5.477261e-06	-1.246381e-09	-3.816431e+01	-8.811341e+01
1.300000e-07	-5.472483e-06	-1.332810e-09	-3.813102e+01	-8.801854e+01
1.400000e-07	-5.467246e-06	-1.401743e-09	-3.809452e+01	-8.792129e+01
1.500000e-07	-5.461611e-06	-1.335508e-09	-3.805526e+01	-8.782166e+01
1.600000e-07	-5.455641e-06	-1.278224e-09	-3.801366e+01	-8.771967e+01
1.700000e-07	-5.449249e-06	-1.386156e-09	-3.796913e+01	-8.761532e+01
1.800000e-07	-5.442332e-06	-1.447274e-09	-3.792093e+01	-8.750865e+01
1.900000e-07	-5.435063e-06	-1.327803e-09	-3.787028e+01	-8.739967e+01
2.000000e-07	-5.427569e-06	-1.212324e-09	-3.781806e+01	-8.728838e+01
2.100000e-07	-5.419829e-06	-1.279392e-09	-3.776414e+01	-8.717482e+01
2.200000e-07	-5.411814e-06	-1.374915e-09	-3.770829e+01	-8.705899e+01
2.300000e-07	-5.403435e-06	-1.347005e-09	-3.764991e+01	-8.694090e+01
2.400000e-07	-5.394556e-06	-1.285414e-09	-3.758804e+01	-8.682058e+01
2.500000e-07	-5.384965e-06	-1.292799e-09	-3.752121e+01	-8.669801e+01
2.600000e-07	-5.374598e-06	-1.304268e-09	-3.744898e+01	-8.657322e+01
2.700000e-07	-5.363710e-06	-1.273253e-09	-3.737311e+01	-8.644619e+01
2.800000e-07	-5.352405e-06	-1.267054e-09	-3.729434e+01	-8.631692e+01
2.900000e-07	-5.340704e-06	-1.290758e-09	-3.721281e+01	-8.618540e+01
3.000000e-07	-5.328690e-06	-1.300008e-09	-3.712910e+01	-8.605162e+01
3.100000e-07	-5.316238e-06	-1.284663e-09	-3.704234e+01	-8.591556e+01
3.200000e-07	-5.303334e-06	-1.282419e-09	-3.695242e+01	-8.577718e+01
3.300000e-07	-5.290053e-06	-1.273029e-09	-3.685989e+01	-8.563646e+01
3.400000e-07	-5.276465e-06	-1.276602e-09	-3.676521e+01	-8.549336e+01
3.500000e-07	-5.262547e-06	-1.274988e-09	-3.666823e+01	-8.534782e+01
3.600000e-07	-5.248132e-06	-1.261205e-09	-3.656779e+01	-8.519982e+01
3.700000e-07	-5.233271e-06	-1.265687e-09	-3.646424e+01	-8.504928e+01
3.800000e-07	-5.217880e-06	-1.290956e-09	-3.635700e+01	-8.489615e+01
3.900000e-07	-5.201894e-06	-1.268712e-09	-3.624561e+01	-8.474036e+01
4.000000e-07	-5.185497e-06	-1.245235e-09	-3.613137e+01	-8.458185e+01
4.100000e-07	-5.168746e-06	-1.275992e-09	-3.601465e+01	-8.442055e+01
4.200000e-07	-5.151666e-06	-1.271831e-09	-3.589564e+01	-8.425637e+01
4.300000e-07	-5.134213e-06	-1.222864e-09	-3.577403e+01	-8.408925e+01
4.400000e-07	-5.116428e-06	-1.260167e-09	-3.565011e+01	-8.391911e+01
4.500000e-07	-5.098317e-06	-1.304911e-09	-3.552391e+01	-8.374587e+01
4.600000e-07	-5.079747e-06	-1.236984e-09	-3.539452e+01	-8.356945e+01
4.700000e-07	-5.060812e-06	-1.209899e-09	-3.526258e+01	-8.338978e+01
4.800000e-07	-5.041615e-06	-1.282927e-09	-3.512883e+01	-8.320679e+01
4.900000e-07	-5.022189e-06	-1.266137e-09	-3.499347e+01	-8.302040e+01
5.000000e-07	-5.002561e-06	-1.197702e-09	-3.485670e+01	-8.283055e+01
5.100000e-07	-4.982666e-06	-1.238195e-09	-3.471808e+01	-8.263719e+01
5.200000e-07	-4.962433e-06	-1.262115e-09	-3.457711e+01	-8.244025e+01
5.300000e-07	-4.941794e-06	-1.209177e-09	-3.443329e+01	-8.223969e+01
5.400000e-07	-4.920777e-06	-1.231543e-09	-3.428685e+01	-8.203548e+01
5.500000e-07	-4.899417e-06	-1.265992e-09	-3.413803e+01	-8.182757e+01
5.600000e-07	-4.877700e-06	-1.193741e-09	-3.398671e+01	-8.161596e+01
5.700000e-07	-4.855621e-06	-1.176379e-09	-3.383286e+01	-8.140062e+01
5.800000e-07	-4.833234e-06	-1.244104e-09	-3.367687e+01	-8.118154e+01
5.900000e-07	-4.810585e-06	-1.224139e-09	-3.351906e+01	-8.095875e+01
6.000000e-07	-4.787616e-06	-1.178130e-09	-3.335902e+01	-8.073225e+01
6.100000e-07	-4.764326e-06	-1.219033e-09	-3.319674e+01	-8.050207e+01
6.200000e-07	-4.740841e-06	-1.219366e-09	-3.303310e+01	-8.026824e+01
6.300000e-07	-4.717127e-06	-1.168272e-09	-3.286786e+01	-8.003081e+01
6.400000e-07	-4.693050e-06	-1.182218e-09	-3.270010e+01	-7.978983e+01
6.500000e-07	-4.668650e-06	-1.203106e-09	-3.253009e+01	-7.954537e+01
6.600000e-07	-4.643794e-06	-1.169264e-09	-3.235690e+01	-7.929749e+01
6.700000e-07	-4.618276e-06	-1.170679e-09	-3.217910e+01	-7.904628e+01
6.800000e-07	-4.592140e-06	-1.194994e-09	-3.199699e+01	-7.879181e+01
6.900000e-07	-4.565597e-06	-1.175006e-09	-3.181204e+01	-7.853418e+01
7.000000e-07	-4.538701e-06	-1.156658e-09	-3.162463e+01	-7.827348e+01
7.100000e-07	-4.511398e-06	-1.170104e-09	-3.143439e+01	-7.800979e+01
7.200000e-07	-4.483876e-06	-1.165283e-09	-3.124263e+01	-7.774323e+01
7.300000e-07	-4.456249e-06	-1.150613e-09	-3.105013e+01	-7.747388e+01
7.400000e-07	-4.428440e-06	-1.156477e-09	-3.085637e+01	-7.720184e+01
7.500000e-07	-4.400353e-06	-1.156666e-09	-3.066066e+01	-7.692721e+01
7.600000e-07	-4.371930e-06	-1.140226e-09	-3.046261e+01	-7.665006e+01
7.700000e-07	-4.343253e-06	-1.132513e-09	-3.026280e+01	-7.637049e+01
7.800000e-07	-4.314340e-06	-1.132329e-09	-3.006134e+01	-7.608857e+01
7.900000e-07	-4.285103e-06	-1.127180e-09	-2.985762e+01	-7.580436e+01
8.000000e-07	-4.255603e-06	-1.124986e-09	-2.965207e+01	-7.551793e+01
8.100000e-07	-4.225823e-06	-1.124775e-09	-2.944457e+01	-7.522932e+01
8.200000e-07	-4.195709e-06	-1.117416e-09	-2.923475e+01	-7.493857e+01
8.300000e-07	-4.165309e-06	-1.110385e-09	-2.902293e+01	-7.464569e+01
8.400000e-07	-4.134604e-06	-1.108969e-09	-2.880898e+01	-7.435069e+01
8.500000e-07	-4.103573e-06	-1.099043e-09	-2.859276e+01	-7.405357e+01
8.600000e-07	-4.072297e-06	-1.088419e-09	-2.837484e+01	-7.375429e+01
8.700000e-07	-4.040860e-06	-1.085898e-09	-2.815579e+01	-7.345283e+01
8.800000e-07	-4.009253e-06	-1.082816e-09	-2.793556e+01	-7.314913e+01
8.900000e-07	-3.977515e-06	-1.076842e-09	-2.771442e+01	-7.284311e+01
9.000000e-07	-3.945589e-06	-1.072203e-09	-2.749197e+01	-7.253468e+01
9.100000e-07	-3.913291e-06	-1.066017e-09	-2.726692e+01	-7.222374e+01
9.200000e-07	-3.880563e-06	-1.055702e-09	-2.703888e+01	-7.191017e+01
9.300000e-07	-3.847383e-06	-1.050143e-09	-2.680769e+01	-7.159382e+01
9.400000e-07	-3.813747e-06	-1.048308e-09	-2.657332e+01	-7.127456e+01
9.500000e-07	-3.779685e-06	-1.039828e-09	-2.633598e+01	-7.095221e+01
9.600000e-07	-3.745180e-06	-1.031856e-09	-2.609556e+01	-7.062660e+01
9.700000e-07	-3.710258e-06	-1.027449e-09	-2.585223e+01	-7.029754e+01
9.800000e-07	-3.675005e-06	-1.021092e-09	-2.560660e+01	-6.996483e+01
9.900000e-07	-3.639564e-06	-1.010807e-09	-2.535966e+01	-6.962827e+01
1.000000e-06	-3.604038e-06	-1.007979e-09	-2.511212e+01	-6.928763e+01
1.010000e-06	-3.568415e-06	-1.006365e-09	-2.486390e+01	-6.894272e+01
1.020000e-06	-3.532679e-06	-9.995374e-10	-2.461490e+01	-6.859329e+01
1.030000e-06	-3.496769e-06	-9.942899e-10	-2.436469e+01	-6.823913e+01
1.040000e-06	-3.460584e-06	-9.922028e-10	-2.411256e+01	-6.788003e+01
1.050000e-06	-3.424100e-06	-9.848103e-10	-2.385835e+01	-6.751575e+01
1.060000e-06	-3.387385e-06	-9.730051e-10	-2.360253e+01	-6.714609e+01
1.070000e-06	-3.350429e-06	-9.635162e-10	-2.334503e+01	-6.677083e+01
1.080000e-06	-3.313157e-06	-9.548668e-10	-2.308533e+01	-6.638978e+01
1.090000e-06	-3.275554e-06	-9.467274e-10	-2.282331e+01	-6.600275e+01
1.100000e-06	-3.237766e-06	-9.433682e-10	-2.256002e+01	-6.560955e+01
1.110000e-06	-3.199900e-06	-9.410464e-10	-2.229617e+01	-6.521003e+01
1.120000e-06	-3.161731e-06	-9.329722e-10	-2.203022e+01	-6.480402e+01
1.130000e-06	-3.123276e-06	-9.225984e-10	-2.176228e+01	-6.439140e+01
1.140000e-06	-3.084607e-06	-9.129199e-10	-2.149284e+01	-6.397204e+01
1.150000e-06	-3.045665e-06	-9.023711e-10	-2.122150e+01	-6.354583e+01
1.160000e-06	-3.006480e-06	-8.925087e-10	-2.094847e+01	-6.311269e+01
1.170000e-06	-2.967116e-06	-8.881904e-10	-2.067419e+01	-6.267256e+01
1.180000e-06	-2.927703e-06	-8.869137e-10	-2.039957e+01	-6.222537e+01
1.190000e-06	-2.888228e-06	-8.825058e-10	-2.012451e+01	-6.177110e+01
1.200000e-06	-2.848598e-06	-8.740096e-10	-1.984838e+01	-6.130973e+01
1.210000e-06	-2.808816e-06	-8.659808e-10	-1.957119e+01	-6.084126e+01
1.220000e-06	-2.768934e-06	-8.553170e-10	-1.929330e+01	-6.036570e+01
1.230000e-06	-2.728943e-06	-8.444157e-10	-1.901465e+01	-5.988308e+01
1.240000e-06	-2.688707e-06	-8.347744e-10	-1.873430e+01	-5.939343e+01
1.250000e-06	-2.648215e-06	-8.292344e-10	-1.845216e+01	-5.889682e+01
1.260000e-06	-2.607539e-06	-8.231166e-10	-1.816874e+01	-5.839330e+01
1.270000e-06	-2.566550e-06	-8.140039e-10	-1.788314e+01	-5.788294e+01
1.280000e-06	-2.525364e-06	-8.071739e-10	-1.759616e+01	-5.736581e+01
1.290000e-06	-2.483909e-06	-7.995661e-10	-1.730731e+01	-5.684197e+01
1.300000e-06	-2.441938e-06	-7.898352e-10	-1.701487e+01	-5.631151e+01
1.310000e-06	-2.399650e-06	-7.798229e-10	-1.672022e+01	-5.577448e+01
1.320000e-06	-2.357176e-06	-7.710510e-10	-1.642426e+01	-5.523095e+01
1.330000e-06	-2.314465e-06	-7.626594e-10	-1.612666e+01	-5.468098e+01
1.340000e-06	-2.271527e-06	-7.554646e-10	-1.582748e+01	-5.412459e+01
1.350000e-06	-2.228380e-06	-7.498133e-10	-1.552685e+01	-5.356182e+01
1.360000e-06	-2.185026e-06	-7.410999e-10	-1.522476e+01	-5.299267e+01
1.370000e-06	-2.141573e-06	-7.314840e-10	-1.492200e+01	-5.241713e+01
1.380000e-06	-2.098029e-06	-7.234991e-10	-1.461859e+01	-5.183515e+01
1.390000e-06	-2.054405e-06	-7.151754e-10	-1.431463e+01	-5.124669e+01
1.400000e-06	-2.010760e-06	-7.055976e-10	-1.401052e+01	-5.065163e+01
1.410000e-06	-1.967050e-06	-6.960832e-10	-1.370596e+01	-5.004987e+01
1.420000e-06	-1.923258e-06	-6.878092e-10	-1.340082e+01	-4.944125e+01
1.430000e-06	-1.879375e-06	-6.796829e-10	-1.309506e+01	-4.882559e+01
1.440000e-06	-1.835371e-06	-6.707199e-10	-1.278845e+01	-4.820265e+01
1.450000e-06	-1.791280e-06	-6.588962e-10	-1.248123e+01	-4.757219e+01
1.460000e-06	-1.747075e-06	-6.456614e-10	-1.217322e+01	-4.693391e+01
1.470000e-06	-1.702744e-06	-6.323188e-10	-1.186433e+01	-4.628748e+01
1.480000e-06	-1.658226e-06	-6.195305e-10	-1.155414e+01	-4.563254e+01
1.490000e-06	-1.613517e-06	-6.101682e-10	-1.124262e+01	-4.496868e+01
1.500000e-06	-1.568630e-06	-6.031214e-10	-1.092986e+01	-4.429546e+01
1.510000e-06	-1.523546e-06	-5.961813e-10	-1.061572e+01	-4.361242e+01
1.520000e-06	-1.478386e-06	-5.883556e-10	-1.030106e+01	-4.291905e+01
1.530000e-06	-1.433169e-06	-5.773575e-10	-9.985997e+00	-4.221481e+01
1.540000e-06	-1.387892e-06	-5.618231e-10	-9.670513e+00	-4.149916e+01
1.550000e-06	-1.342574e-06	-5.466622e-10	-9.354750e+00	-4.077150e+01
1.560000e-06	-1.297263e-06	-5.352609e-10	-9.039030e+00	-4.003122e+01
1.570000e-06	-1.251820e-06	-5.234848e-10	-8.722400e+00	-3.927772e+01
1.580000e-06	-1.206253e-06	-5.135232e-10	-8.404897e+00	-3.851034e+01
1.590000e-06	-1.160611e-06	-5.061063e-10	-8.086870e+00	-3.772844e+01
1.600000e-06	-1.114867e-06	-4.956470e-10	-7.768137e+00	-3.693137e+01
1.610000e-06	-1.069049e-06	-4.811535e-10	-7.448891e+00	-3.611847e+01
1.620000e-06	-1.023112e-06	-4.691922e-10	-7.128809e+00	-3.528911e+01
1.630000e-06	-9.770708e-07	-4.608821e-10	-6.808007e+00	-3.444264e+01
1.640000e-06	-9.310076e-07	-4.506263e-10	-6.487049e+00	-3.357843e+01
1.650000e-06	-8.849171e-07	-4.375295e-10	-6.165901e+00	-3.269589e+01
1.660000e-06	-8.387585e-07	-4.235015e-10	-5.844278e+00	-3.179443e+01
1.670000e-06	-7.925381e-07	-4.064349e-10	-5.522225e+00	-3.087350e+01
1.680000e-06	-7.462298e-07	-3.880970e-10	-5.199559e+00	-2.993260e+01
1.690000e-06	-6.998543e-07	-3.728919e-10	-4.876426e+00	-2.897124e+01
1.700000e-06	-6.534658e-07	-3.591504e-10	-4.553201e+00	-2.798901e+01
1.710000e-06	-6.070088e-07	-3.445025e-10	-4.229499e+00	-2.698551e+01
1.720000e-06	-5.604361e-07	-3.282588e-10	-3.904991e+00	-2.596044e+01
1.730000e-06	-5.137773e-07	-3.090580e-10	-3.579883e+00	-2.491353e+01
1.740000e-06	-4.671149e-07	-2.880885e-10	-3.254750e+00	-2.384457e+01
1.750000e-06	-4.205166e-07	-2.698618e-10	-2.930064e+00	-2.275343e+01
1.760000e-06	-3.738583e-07	-2.531667e-10	-2.604960e+00	-2.164005e+01
1.770000e-06	-3.271449e-07	-2.362409e-10	-2.279471e+00	-2.050442e+01
1.780000e-06	-2.804891e-07	-2.207781e-10	-1.954384e+00	-1.934665e+01
1.790000e-06	-2.337980e-07	-2.063340e-10	-1.629051e+00	-1.816688e+01
1.800000e-06	-1.871125e-07	-1.891963e-10	-1.303757e+00	-1.696535e+01
1.810000e-06	-1.403684e-07	-1.710301e-10	-9.780550e-01	-1.574238e+01
1.820000e-06	-9.351342e-08	-1.549752e-10	-6.515803e-01	-1.449835e+01
1.830000e-06	-4.672815e-08	-1.425830e-10	-3.255911e-01	-1.323376e+01
1.840000e-06	9.740813e-11	-1.289405e-10	6.787177e-04	-1.194915e+01
1.850000e-06	4.689426e-08	-1.111969e-10	3.267485e-01	-1.064515e+01
1.860000e-06	9.359053e-08	-9.538624e-11	6.521175e-01	-9.322464e+00
1.870000e-06	1.403318e-07	-7.888118e-11	9.777998e-01	-7.981881e+00
1.880000e-06	1.870836e-07	-5.803706e-11	1.303556e+00	-6.624248e+00
1.890000e-06	2.337703e-07	-3.638227e-11	1.628858e+00	-5.250488e+00
1.900000e-06	2.803773e-07	-1.572477e-11	1.953605e+00	-3.861582e+00
1.910000e-06	3.270482e-07	3.863912e-12	2.278798e+00	-2.458578e+00
1.920000e-06	3.738000e-07	2.188820e-11	2.604553e+00	-1.042575e+00
1.930000e-06	4.204544e-07	3.944169e-11	2.929631e+00	3.852730e-01
1.940000e-06	4.669726e-07	5.836902e-11	3.253759e+00	1.823767e+00
1.950000e-06	5.134450e-07	7.701920e-11	3.577568e+00	3.271668e+00
1.960000e-06	5.599109e-07	9.691758e-11	3.901332e+00	4.727699e+00
1.970000e-06	6.063573e-07	1.189543e-10	4.224960e+00	6.190555e+00
1.980000e-06	6.527464e-07	1.396504e-10	4.548188e+00	7.658905e+00
1.990000e-06	6.990201e-07	1.593788e-10	4.870613e+00	9.131404e+00
2.000000e-06	7.452332e-07	1.760700e-10	5.192615e+00	1.060669e+01
2.010000e-06	7.913879e-07	1.946651e-10	5.514211e+00	1.208340e+01
2.020000e-06	8.374930e-07	2.168066e-10	5.835460e+00	1.356017e+01
2.030000e-06	8.835677e-07	2.404282e-10	6.156498e+00	1.503565e+01
2.040000e-06	9.295740e-07	2.637928e-10	6.477060e+00	1.650847e+01
2.050000e-06	9.755565e-07	2.840669e-10	6.797456e+00	1.797733e+01
2.060000e-06	1.021422e-06	3.014524e-10	7.117037e+00	1.944091e+01
2.070000e-06	1.067200e-06	3.194717e-10	7.436008e+00	2.089794e+01
2.080000e-06	1.112975e-06	3.390710e-10	7.754959e+00	2.234717e+01
2.090000e-06	1.158642e-06	3.600921e-10	8.073153e+00	2.378742e+01
2.100000e-06	1.204169e-06	3.828044e-10	8.390378e+00	2.521750e+01
2.110000e-06	1.249606e-06	4.022185e-10	8.706967e+00	2.663632e+01
2.120000e-06	1.295026e-06	4.180075e-10	9.023450e+00	2.804281e+01
2.130000e-06	1.340382e-06	4.344435e-10	9.339475e+00	2.943597e+01
2.140000e-06	1.385598e-06	4.523915e-10	9.654530e+00	3.081484e+01
2.150000e-06	1.430712e-06	4.719057e-10	9.968879e+00	3.217853e+01
2.160000e-06	1.475734e-06	4.914663e-10	1.028258e+01	3.352621e+01
2.170000e-06	1.520677e-06	5.097325e-10	1.059573e+01	3.485712e+01
2.180000e-06	1.565546e-06	5.304593e-10	1.090837e+01	3.617055e+01
2.190000e-06	1.610290e-06	5.490605e-10	1.122014e+01	3.746586e+01
2.200000e-06	1.654820e-06	5.660509e-10	1.153041e+01	3.874249e+01
2.210000e-06	1.699160e-06	5.826967e-10	1.183936e+01	3.999991e+01
2.220000e-06	1.743380e-06	5.991121e-10	1.214748e+01	4.123768e+01
2.230000e-06	1.787475e-06	6.164388e-10	1.245472e+01	4.245543e+01
2.240000e-06	1.831453e-06	6.317051e-10	1.276115e+01	4.365282e+01
2.250000e-06	1.875321e-06	6.463894e-10	1.306681e+01	4.482961e+01
2.260000e-06	1.919094e-06	6.596765e-10	1.337181e+01	4.598558e+01
2.270000e-06	1.962784e-06	6.783099e-10	1.367623e+01	4.712059e+01
2.280000e-06	2.006414e-06	6.976760e-10	1.398023e+01	4.823455e+01
2.290000e-06	2.050001e-06	7.154825e-10	1.428394e+01	4.932741e+01
2.300000e-06	2.093553e-06	7.309536e-10	1.458740e+01	5.039917e+01
2.310000e-06	2.137080e-06	7.449106e-10	1.489068e+01	5.144989e+01
2.320000e-06	2.180529e-06	7.596638e-10	1.519343e+01	5.247964e+01
2.330000e-06	2.223886e-06	7.720731e-10	1.549553e+01	5.348857e+01
2.340000e-06	2.267207e-06	7.848459e-10	1.579738e+01	5.447682e+01
2.350000e-06	2.310321e-06	8.003014e-10	1.609779e+01	5.544460e+01
2.360000e-06	2.353109e-06	8.178322e-10	1.639593e+01	5.639211e+01
2.370000e-06	2.395591e-06	8.315101e-10	1.669193e+01	5.731960e+01
2.380000e-06	2.437774e-06	8.425916e-10	1.698585e+01	5.822734e+01
2.390000e-06	2.479717e-06	8.524979e-10	1.727810e+01	5.911560e+01
2.400000e-06	2.521294e-06	8.625692e-10	1.756780e+01	5.998468e+01
2.410000e-06	2.562412e-06	8.720960e-10	1.785431e+01	6.083489e+01
2.420000e-06	2.603196e-06	8.814860e-10	1.813848e+01	6.166653e+01
2.430000e-06	2.643823e-06	8.943091e-10	1.842155e+01	6.247994e+01
2.440000e-06	2.684274e-06	9.075509e-10	1.870341e+01	6.327542e+01
2.450000e-06	2.724398e-06	9.186702e-10	1.898298e+01	6.405331e+01
2.460000e-06	2.764304e-06	9.306271e-10	1.926104e+01	6.481393e+01
2.470000e-06	2.804108e-06	9.420032e-10	1.953838e+01	6.555760e+01
2.480000e-06	2.843782e-06	9.532607e-10	1.981482e+01	6.628463e+01
2.490000e-06	2.883350e-06	9.635756e-10	2.009053e+01	6.699533e+01
2.500000e-06	2.922818e-06	9.722279e-10	2.036553e+01	6.769000e+01
2.510000e-06	2.962199e-06	9.819362e-10	2.063993e+01	6.836895e+01
2.520000e-06	3.001441e-06	9.944511e-10	2.091335e+01	6.903245e+01
2.530000e-06	3.040424e-06	1.007057e-09	2.118498e+01	6.968078e+01
2.540000e-06	3.079184e-06	1.017467e-09	2.145505e+01	7.031422e+01
2.550000e-06	3.117766e-06	1.024532e-09	2.172388e+01	7.093301e+01
2.560000e-06	3.156063e-06	1.030899e-09	2.199073e+01	7.153741e+01
2.570000e-06	3.194040e-06	1.038312e-09	2.225534e+01	7.212765e+01
2.580000e-06	3.231752e-06	1.046108e-09	2.251811e+01	7.270398e+01
2.590000e-06	3.269303e-06	1.055278e-09	2.277976e+01	7.326660e+01
2.600000e-06	3.306727e-06	1.065166e-09	2.304052e+01	7.381575e+01
2.610000e-06	3.343975e-06	1.071270e-09	2.330006e+01	7.435162e+01
2.620000e-06	3.380972e-06	1.073139e-09	2.355784e+01	7.487442e+01
2.630000e-06	3.417739e-06	1.075046e-09	2.381403e+01	7.538435e+01
2.640000e-06	3.454216e-06	1.079531e-09	2.406819e+01	7.588160e+01
2.650000e-06	3.490378e-06	1.086761e-09	2.432016e+01	7.636636e+01
2.660000e-06	3.526323e-06	1.094678e-09	2.457061e+01	7.683883e+01
2.670000e-06	3.562092e-06	1.100583e-09	2.481984e+01	7.729918e+01
2.680000e-06	3.597725e-06	1.106353e-09	2.506813e+01	7.774762e+01
2.690000e-06	3.633263e-06	1.113133e-09	2.531575e+01	7.818431e+01
2.700000e-06	3.668748e-06	1.118554e-09	2.556300e+01	7.860945e+01
2.710000e-06	3.704087e-06	1.122859e-09	2.580923e+01	7.902323e+01
2.720000e-06	3.739109e-06	1.127830e-09	2.605326e+01	7.942584e+01
2.730000e-06	3.773749e-06	1.134693e-09	2.629462e+01	7.981748e+01
2.740000e-06	3.807997e-06	1.140385e-09	2.653325e+01	8.019834e+01
2.750000e-06	3.841710e-06	1.145310e-09	2.676816e+01	8.056861e+01
2.760000e-06	3.874896e-06	1.150711e-09	2.699939e+01	8.092851e+01
2.770000e-06	3.907607e-06	1.155910e-09	2.722732e+01	8.127825e+01
2.780000e-06	3.939867e-06	1.160035e-09	2.745210e+01	8.161802e+01
2.790000e-06	3.971810e-06	1.165960e-09	2.767467e+01	8.194804e+01
2.800000e-06	4.003561e-06	1.172243e-09	2.789590e+01	8.226854e+01
2.810000e-06	4.035189e-06	1.177224e-09	2.811628e+01	8.257973e+01
2.820000e-06	4.066691e-06	1.181328e-09	2.833577e+01	8.288182e+01
2.830000e-06	4.098053e-06	1.184891e-09	2.855430e+01	8.317505e+01
2.840000e-06	4.129193e-06	1.189214e-09	2.877128e+01	8.345964e+01
2.850000e-06	4.160011e-06	1.195000e-09	2.898601e+01	8.373580e+01
2.860000e-06	4.190440e-06	1.200750e-09	2.919803e+01	8.400377e+01
2.870000e-06	4.220546e-06	1.206278e-09	2.940781e+01	8.426376e+01
2.880000e-06	4.250435e-06	1.212248e-09	2.961606e+01	8.451600e+01
2.890000e-06	4.280071e-06	1.218417e-09	2.982256e+01	8.476069e+01
2.900000e-06	4.309409e-06	1.223197e-09	3.002698e+01	8.499807e+01
2.910000e-06	4.338432e-06	1.226007e-09	3.022921e+01	8.522833e+01
