# Temperatura_=_6.6
# Concentracion g/m^3_=_1620.0
# C_Vs_to_Am_M_A/Vsm_=_65563218390.804596
# pendiente_HvsI_1/m_=_3716.3
# ordenada_HvsI_A/m_=_1297.0
# frecuencia_Hz_=_135092.09371095552

Tiempo_(s)	Campo_(V.s)	Magnetizacion_(V.s)	Campo_(kA/m)	Magnetizacion_(A/m)
0.000000e+00	-5.519440e-06	-1.257744e-09	-3.837581e+01	-8.221897e+01
1.000000e-08	-5.519664e-06	-1.253202e-09	-3.837737e+01	-8.218421e+01
2.000000e-08	-5.519679e-06	-1.249785e-09	-3.837747e+01	-8.215097e+01
3.000000e-08	-5.519384e-06	-1.249977e-09	-3.837542e+01	-8.211928e+01
4.000000e-08	-5.518692e-06	-1.249224e-09	-3.837061e+01	-8.208914e+01
5.000000e-08	-5.517420e-06	-1.239364e-09	-3.836177e+01	-8.206052e+01
6.000000e-08	-5.515470e-06	-1.227328e-09	-3.834821e+01	-8.203338e+01
7.000000e-08	-5.512918e-06	-1.239100e-09	-3.833046e+01	-8.200763e+01
8.000000e-08	-5.509862e-06	-1.294603e-09	-3.830922e+01	-8.198317e+01
9.000000e-08	-5.506359e-06	-1.321994e-09	-3.828486e+01	-8.195988e+01
1.000000e-07	-5.502394e-06	-1.291257e-09	-3.825730e+01	-8.193759e+01
1.100000e-07	-5.498123e-06	-1.229630e-09	-3.822760e+01	-8.191614e+01
1.200000e-07	-5.493591e-06	-1.215656e-09	-3.819609e+01	-8.189533e+01
1.300000e-07	-5.488732e-06	-1.242122e-09	-3.816231e+01	-8.187493e+01
1.400000e-07	-5.483511e-06	-1.229419e-09	-3.812601e+01	-8.185469e+01
1.500000e-07	-5.478080e-06	-1.202826e-09	-3.808824e+01	-8.183438e+01
1.600000e-07	-5.472307e-06	-1.214024e-09	-3.804810e+01	-8.181369e+01
1.700000e-07	-5.465997e-06	-1.239803e-09	-3.800423e+01	-8.179235e+01
1.800000e-07	-5.459256e-06	-1.267318e-09	-3.795736e+01	-8.177004e+01
1.900000e-07	-5.452109e-06	-1.238695e-09	-3.790767e+01	-8.174645e+01
2.000000e-07	-5.444705e-06	-1.234617e-09	-3.785619e+01	-8.172126e+01
2.100000e-07	-5.437068e-06	-1.241605e-09	-3.780310e+01	-8.169411e+01
2.200000e-07	-5.429198e-06	-1.266965e-09	-3.774837e+01	-8.166468e+01
2.300000e-07	-5.421164e-06	-1.253571e-09	-3.769251e+01	-8.163262e+01
2.400000e-07	-5.412681e-06	-1.239037e-09	-3.763353e+01	-8.159758e+01
2.500000e-07	-5.403466e-06	-1.239543e-09	-3.756946e+01	-8.155921e+01
2.600000e-07	-5.393589e-06	-1.257007e-09	-3.750079e+01	-8.151717e+01
2.700000e-07	-5.383091e-06	-1.243526e-09	-3.742780e+01	-8.147111e+01
2.800000e-07	-5.371956e-06	-1.230470e-09	-3.735038e+01	-8.142071e+01
2.900000e-07	-5.360464e-06	-1.249301e-09	-3.727048e+01	-8.136564e+01
3.000000e-07	-5.348741e-06	-1.255551e-09	-3.718897e+01	-8.130557e+01
3.100000e-07	-5.336587e-06	-1.234429e-09	-3.710446e+01	-8.124022e+01
3.200000e-07	-5.323913e-06	-1.212116e-09	-3.701634e+01	-8.116927e+01
3.300000e-07	-5.310872e-06	-1.238327e-09	-3.692567e+01	-8.109247e+01
3.400000e-07	-5.297516e-06	-1.226228e-09	-3.683281e+01	-8.100954e+01
3.500000e-07	-5.283682e-06	-1.213470e-09	-3.673662e+01	-8.092025e+01
3.600000e-07	-5.269407e-06	-1.219249e-09	-3.663737e+01	-8.082437e+01
3.700000e-07	-5.254712e-06	-1.233835e-09	-3.653520e+01	-8.072169e+01
3.800000e-07	-5.239514e-06	-1.206106e-09	-3.642953e+01	-8.061205e+01
3.900000e-07	-5.223722e-06	-1.210183e-09	-3.631973e+01	-8.049527e+01
4.000000e-07	-5.207564e-06	-1.227875e-09	-3.620738e+01	-8.037122e+01
4.100000e-07	-5.191091e-06	-1.205913e-09	-3.609285e+01	-8.023979e+01
4.200000e-07	-5.174113e-06	-1.176417e-09	-3.597481e+01	-8.010087e+01
4.300000e-07	-5.156922e-06	-1.212389e-09	-3.585528e+01	-7.995441e+01
4.400000e-07	-5.139485e-06	-1.217367e-09	-3.573404e+01	-7.980037e+01
4.500000e-07	-5.121554e-06	-1.187283e-09	-3.560937e+01	-7.963872e+01
4.600000e-07	-5.103164e-06	-1.189762e-09	-3.548151e+01	-7.946946e+01
4.700000e-07	-5.084378e-06	-1.221234e-09	-3.535089e+01	-7.929262e+01
4.800000e-07	-5.065225e-06	-1.192083e-09	-3.521772e+01	-7.910826e+01
4.900000e-07	-5.045772e-06	-1.183851e-09	-3.508247e+01	-7.891644e+01
5.000000e-07	-5.026161e-06	-1.207077e-09	-3.494612e+01	-7.871725e+01
5.100000e-07	-5.006399e-06	-1.190717e-09	-3.480871e+01	-7.851082e+01
5.200000e-07	-4.986311e-06	-1.157188e-09	-3.466905e+01	-7.829727e+01
5.300000e-07	-4.965841e-06	-1.187110e-09	-3.452672e+01	-7.807675e+01
5.400000e-07	-4.945076e-06	-1.196728e-09	-3.438235e+01	-7.784943e+01
5.500000e-07	-4.923916e-06	-1.159777e-09	-3.423523e+01	-7.761550e+01
5.600000e-07	-4.902385e-06	-1.162830e-09	-3.408552e+01	-7.737515e+01
5.700000e-07	-4.880546e-06	-1.186056e-09	-3.393368e+01	-7.712860e+01
5.800000e-07	-4.858296e-06	-1.162794e-09	-3.377898e+01	-7.687607e+01
5.900000e-07	-4.835701e-06	-1.150117e-09	-3.362188e+01	-7.661778e+01
6.000000e-07	-4.812827e-06	-1.166825e-09	-3.346284e+01	-7.635398e+01
6.100000e-07	-4.789645e-06	-1.148564e-09	-3.330166e+01	-7.608491e+01
6.200000e-07	-4.766181e-06	-1.130885e-09	-3.313852e+01	-7.581084e+01
6.300000e-07	-4.742536e-06	-1.143066e-09	-3.297412e+01	-7.553200e+01
6.400000e-07	-4.718698e-06	-1.142353e-09	-3.280837e+01	-7.524865e+01
6.500000e-07	-4.694501e-06	-1.121459e-09	-3.264014e+01	-7.496106e+01
6.600000e-07	-4.669768e-06	-1.129173e-09	-3.246817e+01	-7.466946e+01
6.700000e-07	-4.644490e-06	-1.127790e-09	-3.229242e+01	-7.437411e+01
6.800000e-07	-4.618635e-06	-1.115532e-09	-3.211266e+01	-7.407525e+01
6.900000e-07	-4.592217e-06	-1.115592e-09	-3.192898e+01	-7.377312e+01
7.000000e-07	-4.565409e-06	-1.123202e-09	-3.174258e+01	-7.346794e+01
7.100000e-07	-4.538248e-06	-1.106950e-09	-3.155374e+01	-7.315993e+01
7.200000e-07	-4.510807e-06	-1.103630e-09	-3.136294e+01	-7.284929e+01
7.300000e-07	-4.483182e-06	-1.103664e-09	-3.117087e+01	-7.253622e+01
7.400000e-07	-4.455368e-06	-1.090649e-09	-3.097749e+01	-7.222089e+01
7.500000e-07	-4.427370e-06	-1.076610e-09	-3.078282e+01	-7.190347e+01
7.600000e-07	-4.399086e-06	-1.079413e-09	-3.058616e+01	-7.158411e+01
7.700000e-07	-4.370497e-06	-1.069194e-09	-3.038739e+01	-7.126293e+01
7.800000e-07	-4.341672e-06	-1.059688e-09	-3.018698e+01	-7.094006e+01
7.900000e-07	-4.312514e-06	-1.061852e-09	-2.998424e+01	-7.061558e+01
8.000000e-07	-4.283039e-06	-1.058467e-09	-2.977931e+01	-7.028958e+01
8.100000e-07	-4.253254e-06	-1.039874e-09	-2.957222e+01	-6.996211e+01
8.200000e-07	-4.223177e-06	-1.033287e-09	-2.936309e+01	-6.963322e+01
8.300000e-07	-4.192877e-06	-1.028833e-09	-2.915242e+01	-6.930293e+01
8.400000e-07	-4.162261e-06	-1.016423e-09	-2.893956e+01	-6.897125e+01
8.500000e-07	-4.131314e-06	-1.007900e-09	-2.872439e+01	-6.863815e+01
8.600000e-07	-4.100103e-06	-1.006120e-09	-2.850738e+01	-6.830362e+01
8.700000e-07	-4.068716e-06	-9.988787e-10	-2.828916e+01	-6.796760e+01
8.800000e-07	-4.037228e-06	-9.913224e-10	-2.807022e+01	-6.763004e+01
8.900000e-07	-4.005538e-06	-9.944654e-10	-2.784989e+01	-6.729085e+01
9.000000e-07	-3.973582e-06	-9.893316e-10	-2.762770e+01	-6.694994e+01
9.100000e-07	-3.941359e-06	-9.764418e-10	-2.740366e+01	-6.660720e+01
9.200000e-07	-3.908820e-06	-9.690728e-10	-2.717742e+01	-6.626253e+01
9.300000e-07	-3.875850e-06	-9.654623e-10	-2.694819e+01	-6.591578e+01
9.400000e-07	-3.842285e-06	-9.526936e-10	-2.671481e+01	-6.556683e+01
9.500000e-07	-3.808212e-06	-9.475383e-10	-2.647791e+01	-6.521553e+01
9.600000e-07	-3.773724e-06	-9.465247e-10	-2.623812e+01	-6.486172e+01
9.700000e-07	-3.738852e-06	-9.376536e-10	-2.599566e+01	-6.450526e+01
9.800000e-07	-3.703719e-06	-9.280812e-10	-2.575138e+01	-6.414597e+01
9.900000e-07	-3.668331e-06	-9.298598e-10	-2.550534e+01	-6.378371e+01
1.000000e-06	-3.632770e-06	-9.245138e-10	-2.525809e+01	-6.341831e+01
1.010000e-06	-3.597172e-06	-9.157264e-10	-2.501058e+01	-6.304960e+01
1.020000e-06	-3.561427e-06	-9.114922e-10	-2.476205e+01	-6.267744e+01
1.030000e-06	-3.525470e-06	-9.104085e-10	-2.451205e+01	-6.230167e+01
1.040000e-06	-3.489317e-06	-9.025811e-10	-2.426068e+01	-6.192213e+01
1.050000e-06	-3.452915e-06	-8.968299e-10	-2.400759e+01	-6.153870e+01
1.060000e-06	-3.416225e-06	-8.900676e-10	-2.375248e+01	-6.115123e+01
1.070000e-06	-3.379337e-06	-8.820802e-10	-2.349601e+01	-6.075961e+01
1.080000e-06	-3.342229e-06	-8.723582e-10	-2.323800e+01	-6.036371e+01
1.090000e-06	-3.304791e-06	-8.660347e-10	-2.297770e+01	-5.996344e+01
1.100000e-06	-3.267124e-06	-8.580476e-10	-2.271581e+01	-5.955870e+01
1.110000e-06	-3.229216e-06	-8.505137e-10	-2.245224e+01	-5.914941e+01
1.120000e-06	-3.191069e-06	-8.477906e-10	-2.218701e+01	-5.873552e+01
1.130000e-06	-3.152734e-06	-8.429940e-10	-2.192047e+01	-5.831695e+01
1.140000e-06	-3.114127e-06	-8.316388e-10	-2.165204e+01	-5.789367e+01
1.150000e-06	-3.075266e-06	-8.200189e-10	-2.138185e+01	-5.746565e+01
1.160000e-06	-3.036255e-06	-8.112308e-10	-2.111061e+01	-5.703287e+01
1.170000e-06	-2.997014e-06	-8.046164e-10	-2.083777e+01	-5.659532e+01
1.180000e-06	-2.957543e-06	-8.030158e-10	-2.056334e+01	-5.615300e+01
1.190000e-06	-2.918006e-06	-8.033008e-10	-2.028844e+01	-5.570594e+01
1.200000e-06	-2.878380e-06	-7.999011e-10	-2.001293e+01	-5.525414e+01
1.210000e-06	-2.838694e-06	-7.913867e-10	-1.973700e+01	-5.479765e+01
1.220000e-06	-2.798876e-06	-7.831705e-10	-1.946015e+01	-5.433649e+01
1.230000e-06	-2.758797e-06	-7.734419e-10	-1.918149e+01	-5.387070e+01
1.240000e-06	-2.718473e-06	-7.613773e-10	-1.890112e+01	-5.340033e+01
1.250000e-06	-2.677973e-06	-7.496265e-10	-1.861953e+01	-5.292542e+01
1.260000e-06	-2.637239e-06	-7.428494e-10	-1.833631e+01	-5.244601e+01
1.270000e-06	-2.596258e-06	-7.359125e-10	-1.805138e+01	-5.196214e+01
1.280000e-06	-2.555024e-06	-7.317593e-10	-1.776469e+01	-5.147384e+01
1.290000e-06	-2.513522e-06	-7.281709e-10	-1.747613e+01	-5.098114e+01
1.300000e-06	-2.471660e-06	-7.229146e-10	-1.718507e+01	-5.048405e+01
1.310000e-06	-2.429366e-06	-7.123929e-10	-1.689101e+01	-4.998258e+01
1.320000e-06	-2.386779e-06	-7.010275e-10	-1.659490e+01	-4.947673e+01
1.330000e-06	-2.343965e-06	-6.902580e-10	-1.629722e+01	-4.896646e+01
1.340000e-06	-2.301039e-06	-6.800344e-10	-1.599877e+01	-4.845173e+01
1.350000e-06	-2.257959e-06	-6.714831e-10	-1.569924e+01	-4.793248e+01
1.360000e-06	-2.214684e-06	-6.640399e-10	-1.539836e+01	-4.740863e+01
1.370000e-06	-2.171288e-06	-6.576157e-10	-1.509663e+01	-4.688006e+01
1.380000e-06	-2.127783e-06	-6.524239e-10	-1.479415e+01	-4.634664e+01
1.390000e-06	-2.084192e-06	-6.471248e-10	-1.449106e+01	-4.580822e+01
1.400000e-06	-2.040502e-06	-6.392999e-10	-1.418729e+01	-4.526459e+01
1.410000e-06	-1.996714e-06	-6.267850e-10	-1.388285e+01	-4.471554e+01
1.420000e-06	-1.952912e-06	-6.137788e-10	-1.357829e+01	-4.416083e+01
1.430000e-06	-1.909049e-06	-6.022016e-10	-1.327332e+01	-4.360018e+01
1.440000e-06	-1.865039e-06	-5.912334e-10	-1.296733e+01	-4.303327e+01
1.450000e-06	-1.820896e-06	-5.825018e-10	-1.266041e+01	-4.245977e+01
1.460000e-06	-1.776596e-06	-5.767665e-10	-1.235240e+01	-4.187930e+01
1.470000e-06	-1.732110e-06	-5.709112e-10	-1.204309e+01	-4.129147e+01
1.480000e-06	-1.687555e-06	-5.625150e-10	-1.173331e+01	-4.069585e+01
1.490000e-06	-1.642928e-06	-5.507397e-10	-1.142303e+01	-4.009198e+01
1.500000e-06	-1.598112e-06	-5.380091e-10	-1.111142e+01	-3.947937e+01
1.510000e-06	-1.553140e-06	-5.280509e-10	-1.079874e+01	-3.885752e+01
1.520000e-06	-1.507985e-06	-5.193386e-10	-1.048478e+01	-3.822590e+01
1.530000e-06	-1.462748e-06	-5.113556e-10	-1.017026e+01	-3.758397e+01
1.540000e-06	-1.417447e-06	-5.011663e-10	-9.855286e+00	-3.693114e+01
1.550000e-06	-1.372050e-06	-4.887744e-10	-9.539650e+00	-3.626684e+01
1.560000e-06	-1.326625e-06	-4.758565e-10	-9.223821e+00	-3.559048e+01
1.570000e-06	-1.281159e-06	-4.619614e-10	-8.907702e+00	-3.490146e+01
1.580000e-06	-1.235581e-06	-4.478772e-10	-8.590802e+00	-3.419917e+01
1.590000e-06	-1.189825e-06	-4.362804e-10	-8.272669e+00	-3.348300e+01
1.600000e-06	-1.143981e-06	-4.265779e-10	-7.953925e+00	-3.275236e+01
1.610000e-06	-1.098133e-06	-4.160765e-10	-7.635146e+00	-3.200665e+01
1.620000e-06	-1.052220e-06	-4.046800e-10	-7.315922e+00	-3.124529e+01
1.630000e-06	-1.006202e-06	-3.944095e-10	-6.995966e+00	-3.046771e+01
1.640000e-06	-9.600163e-07	-3.861121e-10	-6.674845e+00	-2.967337e+01
1.650000e-06	-9.137699e-07	-3.743945e-10	-6.353300e+00	-2.886176e+01
1.660000e-06	-8.674245e-07	-3.598094e-10	-6.031068e+00	-2.803238e+01
1.670000e-06	-8.210201e-07	-3.472323e-10	-5.708425e+00	-2.718478e+01
1.680000e-06	-7.747143e-07	-3.334849e-10	-5.386469e+00	-2.631854e+01
1.690000e-06	-7.283298e-07	-3.197314e-10	-5.063964e+00	-2.543328e+01
1.700000e-06	-6.818466e-07	-3.074967e-10	-4.740774e+00	-2.452869e+01
1.710000e-06	-6.352885e-07	-2.954064e-10	-4.417063e+00	-2.360448e+01
1.720000e-06	-5.886566e-07	-2.828766e-10	-4.092838e+00	-2.266042e+01
1.730000e-06	-5.419173e-07	-2.668798e-10	-3.767867e+00	-2.169636e+01
1.740000e-06	-4.952228e-07	-2.460471e-10	-3.443208e+00	-2.071218e+01
1.750000e-06	-4.486495e-07	-2.248056e-10	-3.119391e+00	-1.970785e+01
1.760000e-06	-4.019592e-07	-2.072792e-10	-2.794760e+00	-1.868337e+01
1.770000e-06	-3.551228e-07	-1.942378e-10	-2.469114e+00	-1.763885e+01
1.780000e-06	-3.083702e-07	-1.834784e-10	-2.144051e+00	-1.657445e+01
1.790000e-06	-2.616423e-07	-1.739337e-10	-1.819159e+00	-1.549038e+01
1.800000e-06	-2.148837e-07	-1.627672e-10	-1.494053e+00	-1.438695e+01
1.810000e-06	-1.681320e-07	-1.475954e-10	-1.168996e+00	-1.326453e+01
1.820000e-06	-1.213237e-07	-1.301655e-10	-8.435452e-01	-1.212357e+01
1.830000e-06	-7.443814e-08	-1.127600e-10	-5.175569e-01	-1.096457e+01
1.840000e-06	-2.756957e-08	-9.567842e-11	-1.916870e-01	-9.788131e+00
1.850000e-06	1.915798e-08	-7.766298e-11	1.332025e-01	-8.594894e+00
1.860000e-06	6.592862e-08	-6.143912e-11	4.583915e-01	-7.385585e+00
1.870000e-06	1.127928e-07	-4.626703e-11	7.842307e-01	-6.160988e+00
1.880000e-06	1.596263e-07	-2.934387e-11	1.109857e+00	-4.921951e+00
1.890000e-06	2.063652e-07	-1.233299e-11	1.434826e+00	-3.669381e+00
1.900000e-06	2.530562e-07	4.245581e-12	1.759461e+00	-2.404243e+00
1.910000e-06	2.997863e-07	2.170750e-11	2.084368e+00	-1.127550e+00
1.920000e-06	3.465736e-07	4.036806e-11	2.409673e+00	1.596321e-01
1.930000e-06	3.933627e-07	5.805145e-11	2.734990e+00	1.456197e+00
1.940000e-06	4.400135e-07	7.432751e-11	3.059346e+00	2.760999e+00
1.950000e-06	4.865776e-07	9.063094e-11	3.383098e+00	4.072856e+00
1.960000e-06	5.332075e-07	1.066804e-10	3.707309e+00	5.390560e+00
1.970000e-06	5.797818e-07	1.237033e-10	4.031133e+00	6.712877e+00
1.980000e-06	6.263052e-07	1.410479e-10	4.354603e+00	8.038557e+00
1.990000e-06	6.728007e-07	1.570322e-10	4.677879e+00	9.366334e+00
2.000000e-06	7.191996e-07	1.718030e-10	5.000483e+00	1.069494e+01
2.010000e-06	7.655488e-07	1.872291e-10	5.322742e+00	1.202310e+01
2.020000e-06	8.118065e-07	2.066712e-10	5.644365e+00	1.334955e+01
2.030000e-06	8.580136e-07	2.289945e-10	5.965636e+00	1.467303e+01
2.040000e-06	9.041367e-07	2.525447e-10	6.286323e+00	1.599229e+01
2.050000e-06	9.502014e-07	2.752429e-10	6.606604e+00	1.730613e+01
2.060000e-06	9.962964e-07	2.928005e-10	6.927095e+00	1.861333e+01
2.070000e-06	1.042351e-06	3.097529e-10	7.247306e+00	1.991274e+01
2.080000e-06	1.088269e-06	3.260517e-10	7.566563e+00	2.120323e+01
2.090000e-06	1.134039e-06	3.424495e-10	7.884796e+00	2.248371e+01
2.100000e-06	1.179732e-06	3.584609e-10	8.202491e+00	2.375313e+01
2.110000e-06	1.225325e-06	3.780659e-10	8.519493e+00	2.501050e+01
2.120000e-06	1.270850e-06	3.980397e-10	8.836025e+00	2.625489e+01
2.130000e-06	1.316349e-06	4.177354e-10	9.152372e+00	2.748538e+01
2.140000e-06	1.361750e-06	4.384043e-10	9.468034e+00	2.870117e+01
2.150000e-06	1.407052e-06	4.555656e-10	9.783017e+00	2.990147e+01
2.160000e-06	1.452326e-06	4.708914e-10	1.009780e+01	3.108558e+01
2.170000e-06	1.497512e-06	4.849203e-10	1.041197e+01	3.225285e+01
2.180000e-06	1.542518e-06	5.017736e-10	1.072489e+01	3.340270e+01
2.190000e-06	1.587364e-06	5.197101e-10	1.103669e+01	3.453461e+01
2.200000e-06	1.632065e-06	5.371178e-10	1.134750e+01	3.564815e+01
2.210000e-06	1.676693e-06	5.548482e-10	1.165779e+01	3.674291e+01
2.220000e-06	1.721200e-06	5.715031e-10	1.196724e+01	3.781858e+01
2.230000e-06	1.765556e-06	5.879658e-10	1.227564e+01	3.887490e+01
2.240000e-06	1.809778e-06	6.025246e-10	1.258310e+01	3.991169e+01
2.250000e-06	1.853835e-06	6.140966e-10	1.288943e+01	4.092880e+01
2.260000e-06	1.897744e-06	6.273570e-10	1.319472e+01	4.192617e+01
2.270000e-06	1.941592e-06	6.392807e-10	1.349959e+01	4.290377e+01
2.280000e-06	1.985439e-06	6.546214e-10	1.380445e+01	4.386164e+01
2.290000e-06	2.029219e-06	6.705639e-10	1.410884e+01	4.479986e+01
2.300000e-06	2.072902e-06	6.858172e-10	1.441257e+01	4.571857e+01
2.310000e-06	2.116473e-06	6.970225e-10	1.471551e+01	4.661795e+01
2.320000e-06	2.159958e-06	7.075888e-10	1.501785e+01	4.749821e+01
2.330000e-06	2.203396e-06	7.197646e-10	1.531987e+01	4.835960e+01
2.340000e-06	2.246747e-06	7.310153e-10	1.562128e+01	4.920242e+01
2.350000e-06	2.289968e-06	7.431479e-10	1.592179e+01	5.002699e+01
2.360000e-06	2.333013e-06	7.592793e-10	1.622108e+01	5.083364e+01
2.370000e-06	2.375790e-06	7.774153e-10	1.651850e+01	5.162273e+01
2.380000e-06	2.418264e-06	7.917619e-10	1.681382e+01	5.239466e+01
2.390000e-06	2.460463e-06	8.014020e-10	1.710722e+01	5.314982e+01
2.400000e-06	2.502304e-06	8.070496e-10	1.739813e+01	5.388861e+01
2.410000e-06	2.543847e-06	8.110392e-10	1.768697e+01	5.461144e+01
2.420000e-06	2.585121e-06	8.155000e-10	1.797395e+01	5.531874e+01
2.430000e-06	2.626003e-06	8.229900e-10	1.825820e+01	5.601092e+01
2.440000e-06	2.666640e-06	8.350771e-10	1.854074e+01	5.668840e+01
2.450000e-06	2.707127e-06	8.499031e-10	1.882223e+01	5.735157e+01
2.460000e-06	2.747302e-06	8.641125e-10	1.910156e+01	5.800086e+01
2.470000e-06	2.787266e-06	8.779675e-10	1.937943e+01	5.863663e+01
2.480000e-06	2.827144e-06	8.861700e-10	1.965670e+01	5.925928e+01
2.490000e-06	2.866864e-06	8.920534e-10	1.993287e+01	5.986916e+01
2.500000e-06	2.906456e-06	8.972803e-10	2.020814e+01	6.046663e+01
2.510000e-06	2.945909e-06	9.038998e-10	2.048245e+01	6.105200e+01
2.520000e-06	2.985274e-06	9.126997e-10	2.075615e+01	6.162561e+01
2.530000e-06	3.024477e-06	9.220660e-10	2.102872e+01	6.218773e+01
2.540000e-06	3.063380e-06	9.327674e-10	2.129920e+01	6.273866e+01
2.550000e-06	3.102078e-06	9.415851e-10	2.156827e+01	6.327863e+01
2.560000e-06	3.140682e-06	9.500444e-10	2.183668e+01	6.380789e+01
2.570000e-06	3.179053e-06	9.571043e-10	2.210346e+01	6.432666e+01
2.580000e-06	3.217127e-06	9.606830e-10	2.236819e+01	6.483514e+01
2.590000e-06	3.254963e-06	9.635686e-10	2.263126e+01	6.533351e+01
2.600000e-06	3.292631e-06	9.681415e-10	2.289315e+01	6.582194e+01
2.610000e-06	3.330162e-06	9.747081e-10	2.315410e+01	6.630057e+01
2.620000e-06	3.367375e-06	9.803133e-10	2.341284e+01	6.676956e+01
2.630000e-06	3.404252e-06	9.852792e-10	2.366924e+01	6.722902e+01
2.640000e-06	3.440901e-06	9.923203e-10	2.392405e+01	6.767906e+01
2.650000e-06	3.477308e-06	1.000604e-09	2.417718e+01	6.811980e+01
2.660000e-06	3.513495e-06	1.009579e-09	2.442879e+01	6.855133e+01
2.670000e-06	3.549474e-06	1.016230e-09	2.467895e+01	6.897374e+01
2.680000e-06	3.585302e-06	1.019874e-09	2.492805e+01	6.938712e+01
2.690000e-06	3.621021e-06	1.022985e-09	2.517640e+01	6.979155e+01
2.700000e-06	3.656586e-06	1.025019e-09	2.542368e+01	7.018712e+01
2.710000e-06	3.691974e-06	1.028951e-09	2.566972e+01	7.057391e+01
2.720000e-06	3.727175e-06	1.034812e-09	2.591447e+01	7.095201e+01
2.730000e-06	3.762006e-06	1.041303e-09	2.615665e+01	7.132151e+01
2.740000e-06	3.796475e-06	1.048053e-09	2.639630e+01	7.168249e+01
2.750000e-06	3.830631e-06	1.053744e-09	2.663379e+01	7.203506e+01
2.760000e-06	3.864280e-06	1.057863e-09	2.686774e+01	7.237933e+01
2.770000e-06	3.897464e-06	1.062912e-09	2.709846e+01	7.271541e+01
2.780000e-06	3.930132e-06	1.067667e-09	2.732560e+01	7.304343e+01
2.790000e-06	3.962358e-06	1.071429e-09	2.754966e+01	7.336351e+01
2.800000e-06	3.994310e-06	1.076807e-09	2.777182e+01	7.367579e+01
2.810000e-06	4.026095e-06	1.082008e-09	2.799281e+01	7.398042e+01
2.820000e-06	4.057754e-06	1.086464e-09	2.821294e+01	7.427757e+01
2.830000e-06	4.089269e-06	1.092267e-09	2.843206e+01	7.456740e+01
2.840000e-06	4.120600e-06	1.098988e-09	2.864989e+01	7.485008e+01
2.850000e-06	4.151587e-06	1.104756e-09	2.886534e+01	7.512580e+01
2.860000e-06	4.182338e-06	1.109256e-09	2.907915e+01	7.539475e+01
2.870000e-06	4.212809e-06	1.113116e-09	2.929101e+01	7.565713e+01
2.880000e-06	4.242989e-06	1.116019e-09	2.950085e+01	7.591313e+01
2.890000e-06	4.272930e-06	1.117452e-09	2.970902e+01	7.616297e+01
2.900000e-06	4.302462e-06	1.120238e-09	2.991435e+01	7.640686e+01
2.910000e-06	4.331704e-06	1.124379e-09	3.011766e+01	7.664501e+01
