# Temperatura_=_13.2
# Concentracion g/m^3_=_1620.0
# C_Vs_to_Am_M_A/Vsm_=_65563218390.804596
# pendiente_HvsI_1/m_=_3716.3
# ordenada_HvsI_A/m_=_1297.0
# frecuencia_Hz_=_135094.74031407863

Tiempo_(s)	Campo_(V.s)	Magnetizacion_(V.s)	Campo_(kA/m)	Magnetizacion_(A/m)
0.000000e+00	-5.500234e-06	-1.606560e-09	-3.836955e+01	-1.054513e+02
1.000000e-08	-5.500362e-06	-1.605671e-09	-3.837045e+01	-1.054496e+02
2.000000e-08	-5.500104e-06	-1.608712e-09	-3.836865e+01	-1.054444e+02
3.000000e-08	-5.499380e-06	-1.611482e-09	-3.836360e+01	-1.054354e+02
4.000000e-08	-5.498073e-06	-1.607376e-09	-3.835448e+01	-1.054223e+02
5.000000e-08	-5.496161e-06	-1.591889e-09	-3.834114e+01	-1.054048e+02
6.000000e-08	-5.493823e-06	-1.578243e-09	-3.832483e+01	-1.053826e+02
7.000000e-08	-5.491036e-06	-1.598553e-09	-3.830539e+01	-1.053555e+02
8.000000e-08	-5.487695e-06	-1.675520e-09	-3.828208e+01	-1.053233e+02
9.000000e-08	-5.483777e-06	-1.733974e-09	-3.825475e+01	-1.052855e+02
1.000000e-07	-5.479479e-06	-1.637547e-09	-3.822477e+01	-1.052421e+02
1.100000e-07	-5.475069e-06	-1.517448e-09	-3.819400e+01	-1.051928e+02
1.200000e-07	-5.470501e-06	-1.507422e-09	-3.816214e+01	-1.051373e+02
1.300000e-07	-5.465599e-06	-1.645121e-09	-3.812794e+01	-1.050755e+02
1.400000e-07	-5.460303e-06	-1.634494e-09	-3.809099e+01	-1.050073e+02
1.500000e-07	-5.454654e-06	-1.513071e-09	-3.805159e+01	-1.049323e+02
1.600000e-07	-5.448651e-06	-1.532008e-09	-3.800971e+01	-1.048507e+02
1.700000e-07	-5.442137e-06	-1.664981e-09	-3.796427e+01	-1.047621e+02
1.800000e-07	-5.435118e-06	-1.698473e-09	-3.791530e+01	-1.046666e+02
1.900000e-07	-5.427793e-06	-1.545903e-09	-3.786420e+01	-1.045642e+02
2.000000e-07	-5.420224e-06	-1.533324e-09	-3.781140e+01	-1.044547e+02
2.100000e-07	-5.412331e-06	-1.624991e-09	-3.775634e+01	-1.043382e+02
2.200000e-07	-5.404230e-06	-1.677409e-09	-3.769983e+01	-1.042147e+02
2.300000e-07	-5.395876e-06	-1.589360e-09	-3.764156e+01	-1.040843e+02
2.400000e-07	-5.386979e-06	-1.573855e-09	-3.757949e+01	-1.039470e+02
2.500000e-07	-5.377288e-06	-1.617684e-09	-3.751189e+01	-1.038030e+02
2.600000e-07	-5.366897e-06	-1.632796e-09	-3.743940e+01	-1.036523e+02
2.700000e-07	-5.356018e-06	-1.564068e-09	-3.736351e+01	-1.034951e+02
2.800000e-07	-5.344651e-06	-1.561981e-09	-3.728421e+01	-1.033315e+02
2.900000e-07	-5.332906e-06	-1.606193e-09	-3.720228e+01	-1.031617e+02
3.000000e-07	-5.320878e-06	-1.602248e-09	-3.711837e+01	-1.029858e+02
3.100000e-07	-5.308483e-06	-1.549430e-09	-3.703190e+01	-1.028041e+02
3.200000e-07	-5.295600e-06	-1.548775e-09	-3.694203e+01	-1.026168e+02
3.300000e-07	-5.282344e-06	-1.588969e-09	-3.684956e+01	-1.024239e+02
3.400000e-07	-5.268742e-06	-1.580025e-09	-3.675467e+01	-1.022258e+02
3.500000e-07	-5.254572e-06	-1.552621e-09	-3.665582e+01	-1.020226e+02
3.600000e-07	-5.240007e-06	-1.563804e-09	-3.655422e+01	-1.018145e+02
3.700000e-07	-5.225203e-06	-1.580912e-09	-3.645094e+01	-1.016018e+02
3.800000e-07	-5.209639e-06	-1.544841e-09	-3.634237e+01	-1.013845e+02
3.900000e-07	-5.193336e-06	-1.536222e-09	-3.622864e+01	-1.011629e+02
4.000000e-07	-5.176879e-06	-1.563953e-09	-3.611383e+01	-1.009370e+02
4.100000e-07	-5.160167e-06	-1.554345e-09	-3.599725e+01	-1.007072e+02
4.200000e-07	-5.142992e-06	-1.498539e-09	-3.587744e+01	-1.004735e+02
4.300000e-07	-5.125615e-06	-1.537612e-09	-3.575622e+01	-1.002360e+02
4.400000e-07	-5.107948e-06	-1.577648e-09	-3.563297e+01	-9.999479e+01
4.500000e-07	-5.089808e-06	-1.538687e-09	-3.550643e+01	-9.975002e+01
4.600000e-07	-5.071156e-06	-1.492295e-09	-3.537631e+01	-9.950172e+01
4.700000e-07	-5.052097e-06	-1.543524e-09	-3.524335e+01	-9.924993e+01
4.800000e-07	-5.032838e-06	-1.538512e-09	-3.510901e+01	-9.899469e+01
4.900000e-07	-5.013381e-06	-1.501414e-09	-3.497327e+01	-9.873601e+01
5.000000e-07	-4.993734e-06	-1.510877e-09	-3.483622e+01	-9.847386e+01
5.100000e-07	-4.973831e-06	-1.528213e-09	-3.469738e+01	-9.820823e+01
5.200000e-07	-4.953520e-06	-1.479398e-09	-3.455569e+01	-9.793907e+01
5.300000e-07	-4.932852e-06	-1.496354e-09	-3.441151e+01	-9.766632e+01
5.400000e-07	-4.911883e-06	-1.535035e-09	-3.426522e+01	-9.738989e+01
5.500000e-07	-4.890524e-06	-1.500287e-09	-3.411622e+01	-9.710970e+01
5.600000e-07	-4.868756e-06	-1.463076e-09	-3.396438e+01	-9.682565e+01
5.700000e-07	-4.846703e-06	-1.509184e-09	-3.381053e+01	-9.653761e+01
5.800000e-07	-4.824320e-06	-1.511322e-09	-3.365439e+01	-9.624548e+01
5.900000e-07	-4.801496e-06	-1.468500e-09	-3.349517e+01	-9.594913e+01
6.000000e-07	-4.778362e-06	-1.473612e-09	-3.333378e+01	-9.564841e+01
6.100000e-07	-4.754962e-06	-1.484567e-09	-3.317055e+01	-9.534319e+01
6.200000e-07	-4.731340e-06	-1.449195e-09	-3.300576e+01	-9.503335e+01
6.300000e-07	-4.707596e-06	-1.441200e-09	-3.284012e+01	-9.471874e+01
6.400000e-07	-4.683560e-06	-1.462482e-09	-3.267245e+01	-9.439923e+01
6.500000e-07	-4.659115e-06	-1.448028e-09	-3.250192e+01	-9.407469e+01
6.600000e-07	-4.634223e-06	-1.439145e-09	-3.232828e+01	-9.374502e+01
6.700000e-07	-4.608730e-06	-1.448585e-09	-3.215043e+01	-9.341009e+01
6.800000e-07	-4.582634e-06	-1.440498e-09	-3.196839e+01	-9.306981e+01
6.900000e-07	-4.556043e-06	-1.416592e-09	-3.178289e+01	-9.272408e+01
7.000000e-07	-4.529112e-06	-1.418118e-09	-3.159502e+01	-9.237284e+01
7.100000e-07	-4.501868e-06	-1.411133e-09	-3.140497e+01	-9.201601e+01
7.200000e-07	-4.474353e-06	-1.402058e-09	-3.121302e+01	-9.165356e+01
7.300000e-07	-4.446717e-06	-1.395853e-09	-3.102024e+01	-9.128544e+01
7.400000e-07	-4.418912e-06	-1.396073e-09	-3.082627e+01	-9.091164e+01
7.500000e-07	-4.390892e-06	-1.387550e-09	-3.063080e+01	-9.053217e+01
7.600000e-07	-4.362596e-06	-1.386849e-09	-3.043341e+01	-9.014703e+01
7.700000e-07	-4.333861e-06	-1.372945e-09	-3.023295e+01	-8.975624e+01
7.800000e-07	-4.304698e-06	-1.363238e-09	-3.002951e+01	-8.935987e+01
7.900000e-07	-4.275297e-06	-1.359767e-09	-2.982441e+01	-8.895796e+01
8.000000e-07	-4.245714e-06	-1.355347e-09	-2.961804e+01	-8.855059e+01
8.100000e-07	-4.215802e-06	-1.335288e-09	-2.940938e+01	-8.813783e+01
8.200000e-07	-4.185523e-06	-1.331290e-09	-2.919815e+01	-8.771979e+01
8.300000e-07	-4.154879e-06	-1.331319e-09	-2.898438e+01	-8.729657e+01
8.400000e-07	-4.123923e-06	-1.321271e-09	-2.876843e+01	-8.686828e+01
8.500000e-07	-4.092750e-06	-1.307913e-09	-2.855097e+01	-8.643504e+01
8.600000e-07	-4.061443e-06	-1.307222e-09	-2.833257e+01	-8.599696e+01
8.700000e-07	-4.030022e-06	-1.297573e-09	-2.811338e+01	-8.555418e+01
8.800000e-07	-3.998405e-06	-1.287812e-09	-2.789282e+01	-8.510682e+01
8.900000e-07	-3.966553e-06	-1.287527e-09	-2.767062e+01	-8.465501e+01
9.000000e-07	-3.934441e-06	-1.279722e-09	-2.744660e+01	-8.419887e+01
9.100000e-07	-3.902014e-06	-1.263658e-09	-2.722039e+01	-8.373851e+01
9.200000e-07	-3.869157e-06	-1.256683e-09	-2.699118e+01	-8.327405e+01
9.300000e-07	-3.835836e-06	-1.254767e-09	-2.675874e+01	-8.280560e+01
9.400000e-07	-3.802025e-06	-1.242540e-09	-2.652287e+01	-8.233324e+01
9.500000e-07	-3.767802e-06	-1.234549e-09	-2.628413e+01	-8.185706e+01
9.600000e-07	-3.733305e-06	-1.229133e-09	-2.604349e+01	-8.137714e+01
9.700000e-07	-3.698446e-06	-1.221134e-09	-2.580031e+01	-8.089351e+01
9.800000e-07	-3.663256e-06	-1.211562e-09	-2.555482e+01	-8.040624e+01
9.900000e-07	-3.627928e-06	-1.210699e-09	-2.530838e+01	-7.991535e+01
1.000000e-06	-3.592464e-06	-1.203944e-09	-2.506098e+01	-7.942085e+01
1.010000e-06	-3.556810e-06	-1.191221e-09	-2.481226e+01	-7.892273e+01
1.020000e-06	-3.521029e-06	-1.181918e-09	-2.456265e+01	-7.842098e+01
1.030000e-06	-3.485025e-06	-1.177288e-09	-2.431148e+01	-7.791556e+01
1.040000e-06	-3.448680e-06	-1.166207e-09	-2.405794e+01	-7.740641e+01
1.050000e-06	-3.412118e-06	-1.160485e-09	-2.380288e+01	-7.689346e+01
1.060000e-06	-3.375334e-06	-1.154814e-09	-2.354628e+01	-7.637663e+01
1.070000e-06	-3.338297e-06	-1.148834e-09	-2.328791e+01	-7.585582e+01
1.080000e-06	-3.301092e-06	-1.138087e-09	-2.302837e+01	-7.533092e+01
1.090000e-06	-3.263645e-06	-1.129727e-09	-2.276714e+01	-7.480179e+01
1.100000e-06	-3.225842e-06	-1.118523e-09	-2.250343e+01	-7.426830e+01
1.110000e-06	-3.187837e-06	-1.107121e-09	-2.223830e+01	-7.373031e+01
1.120000e-06	-3.149702e-06	-1.098227e-09	-2.197227e+01	-7.318766e+01
1.130000e-06	-3.111325e-06	-1.092994e-09	-2.170456e+01	-7.264017e+01
1.140000e-06	-3.072700e-06	-1.084664e-09	-2.143511e+01	-7.208769e+01
1.150000e-06	-3.033867e-06	-1.073018e-09	-2.116421e+01	-7.153003e+01
1.160000e-06	-2.994939e-06	-1.062098e-09	-2.089265e+01	-7.096702e+01
1.170000e-06	-2.955816e-06	-1.052762e-09	-2.061973e+01	-7.039848e+01
1.180000e-06	-2.916454e-06	-1.045198e-09	-2.034514e+01	-6.982422e+01
1.190000e-06	-2.876985e-06	-1.038014e-09	-2.006981e+01	-6.924408e+01
1.200000e-06	-2.837390e-06	-1.027989e-09	-1.979359e+01	-6.865787e+01
1.210000e-06	-2.797655e-06	-1.017874e-09	-1.951640e+01	-6.806541e+01
1.220000e-06	-2.757769e-06	-1.008932e-09	-1.923816e+01	-6.746656e+01
1.230000e-06	-2.717749e-06	-1.000081e-09	-1.895898e+01	-6.686113e+01
1.240000e-06	-2.677518e-06	-9.903256e-10	-1.867832e+01	-6.624897e+01
1.250000e-06	-2.637044e-06	-9.786359e-10	-1.839598e+01	-6.562993e+01
1.260000e-06	-2.596383e-06	-9.668954e-10	-1.811233e+01	-6.500388e+01
1.270000e-06	-2.555415e-06	-9.548346e-10	-1.782654e+01	-6.437066e+01
1.280000e-06	-2.514061e-06	-9.463310e-10	-1.753805e+01	-6.373016e+01
1.290000e-06	-2.472320e-06	-9.371172e-10	-1.724687e+01	-6.308225e+01
1.300000e-06	-2.430255e-06	-9.255386e-10	-1.695342e+01	-6.242681e+01
1.310000e-06	-2.388024e-06	-9.107476e-10	-1.665882e+01	-6.176373e+01
1.320000e-06	-2.345602e-06	-8.960647e-10	-1.636289e+01	-6.109290e+01
1.330000e-06	-2.302906e-06	-8.832477e-10	-1.606504e+01	-6.041422e+01
1.340000e-06	-2.259962e-06	-8.752817e-10	-1.576546e+01	-5.972759e+01
1.350000e-06	-2.216807e-06	-8.662212e-10	-1.546442e+01	-5.903290e+01
1.360000e-06	-2.173472e-06	-8.555108e-10	-1.516211e+01	-5.833006e+01
1.370000e-06	-2.129971e-06	-8.446778e-10	-1.485865e+01	-5.761896e+01
1.380000e-06	-2.086384e-06	-8.363881e-10	-1.455458e+01	-5.689949e+01
1.390000e-06	-2.042813e-06	-8.249473e-10	-1.425064e+01	-5.617155e+01
1.400000e-06	-1.999222e-06	-8.111137e-10	-1.394655e+01	-5.543500e+01
1.410000e-06	-1.955524e-06	-7.971822e-10	-1.364170e+01	-5.468972e+01
1.420000e-06	-1.911771e-06	-7.852045e-10	-1.333649e+01	-5.393557e+01
1.430000e-06	-1.867942e-06	-7.738732e-10	-1.303074e+01	-5.317240e+01
1.440000e-06	-1.823987e-06	-7.626541e-10	-1.272411e+01	-5.240004e+01
1.450000e-06	-1.779868e-06	-7.500101e-10	-1.241633e+01	-5.161832e+01
1.460000e-06	-1.735584e-06	-7.387566e-10	-1.210741e+01	-5.082702e+01
1.470000e-06	-1.691228e-06	-7.277251e-10	-1.179798e+01	-5.002594e+01
1.480000e-06	-1.646779e-06	-7.172780e-10	-1.148790e+01	-4.921485e+01
1.490000e-06	-1.602143e-06	-7.042596e-10	-1.117653e+01	-4.839349e+01
1.500000e-06	-1.557355e-06	-6.906480e-10	-1.086408e+01	-4.756159e+01
1.510000e-06	-1.512524e-06	-6.748544e-10	-1.055135e+01	-4.671886e+01
1.520000e-06	-1.467499e-06	-6.592534e-10	-1.023725e+01	-4.586500e+01
1.530000e-06	-1.422324e-06	-6.460871e-10	-9.922109e+00	-4.499967e+01
1.540000e-06	-1.377156e-06	-6.308387e-10	-9.607018e+00	-4.412253e+01
1.550000e-06	-1.331977e-06	-6.185383e-10	-9.291851e+00	-4.323322e+01
1.560000e-06	-1.286675e-06	-6.063987e-10	-8.975830e+00	-4.233136e+01
1.570000e-06	-1.241232e-06	-5.912187e-10	-8.658814e+00	-4.141657e+01
1.580000e-06	-1.195734e-06	-5.757271e-10	-8.341426e+00	-4.048844e+01
1.590000e-06	-1.150113e-06	-5.615545e-10	-8.023174e+00	-3.954657e+01
1.600000e-06	-1.104456e-06	-5.444178e-10	-7.704668e+00	-3.859054e+01
1.610000e-06	-1.058737e-06	-5.255812e-10	-7.385736e+00	-3.761995e+01
1.620000e-06	-1.012809e-06	-5.108398e-10	-7.065340e+00	-3.663436e+01
1.630000e-06	-9.667430e-07	-5.016810e-10	-6.743985e+00	-3.563338e+01
1.640000e-06	-9.207144e-07	-4.900668e-10	-6.422890e+00	-3.461661e+01
1.650000e-06	-8.747417e-07	-4.765356e-10	-6.102186e+00	-3.358365e+01
1.660000e-06	-8.286824e-07	-4.584041e-10	-5.780877e+00	-3.253413e+01
1.670000e-06	-7.824700e-07	-4.368535e-10	-5.458499e+00	-3.146770e+01
1.680000e-06	-7.362169e-07	-4.155678e-10	-5.135839e+00	-3.038403e+01
1.690000e-06	-6.899334e-07	-3.973943e-10	-4.812966e+00	-2.928284e+01
1.700000e-06	-6.436732e-07	-3.800505e-10	-4.490255e+00	-2.816384e+01
1.710000e-06	-5.974290e-07	-3.659195e-10	-4.167657e+00	-2.702683e+01
1.720000e-06	-5.511085e-07	-3.500126e-10	-3.844525e+00	-2.587161e+01
1.730000e-06	-5.048056e-07	-3.298062e-10	-3.521516e+00	-2.469805e+01
1.740000e-06	-4.584048e-07	-3.067444e-10	-3.197826e+00	-2.350607e+01
1.750000e-06	-4.118698e-07	-2.857054e-10	-2.873198e+00	-2.229562e+01
1.760000e-06	-3.653703e-07	-2.685941e-10	-2.548818e+00	-2.106673e+01
1.770000e-06	-3.188940e-07	-2.544579e-10	-2.224600e+00	-1.981949e+01
1.780000e-06	-2.722757e-07	-2.419335e-10	-1.899392e+00	-1.855404e+01
1.790000e-06	-2.255254e-07	-2.258613e-10	-1.573262e+00	-1.727060e+01
1.800000e-06	-1.788773e-07	-2.054783e-10	-1.247845e+00	-1.596944e+01
1.810000e-06	-1.322348e-07	-1.852449e-10	-9.224680e-01	-1.465090e+01
1.820000e-06	-8.554477e-08	-1.674751e-10	-5.967591e-01	-1.331541e+01
1.830000e-06	-3.889821e-08	-1.493663e-10	-2.713533e-01	-1.196345e+01
1.840000e-06	7.717771e-09	-1.310464e-10	5.383906e-02	-1.059558e+01
1.850000e-06	5.428780e-08	-1.116942e-10	3.787109e-01	-9.212410e+00
1.860000e-06	1.009593e-07	-9.399106e-11	7.042906e-01	-7.814647e+00
1.870000e-06	1.476031e-07	-7.510596e-11	1.029677e+00	-6.403046e+00
1.880000e-06	1.941633e-07	-5.437312e-11	1.354481e+00	-4.978431e+00
1.890000e-06	2.407227e-07	-3.305518e-11	1.679278e+00	-3.541689e+00
1.900000e-06	2.873426e-07	-1.069770e-11	2.004498e+00	-2.093764e+00
1.910000e-06	3.340661e-07	1.242525e-11	2.330440e+00	-6.356577e-01
1.920000e-06	3.806956e-07	3.358064e-11	2.655727e+00	8.315774e-01
1.930000e-06	4.272148e-07	5.412713e-11	2.980244e+00	2.306842e+00
1.940000e-06	4.737002e-07	7.368066e-11	3.304526e+00	3.788994e+00
1.950000e-06	5.201522e-07	9.235782e-11	3.628575e+00	5.276854e+00
1.960000e-06	5.664998e-07	1.120297e-10	3.951894e+00	6.769210e+00
1.970000e-06	6.128192e-07	1.326732e-10	4.275018e+00	8.264827e+00
1.980000e-06	6.591160e-07	1.539490e-10	4.597984e+00	9.762445e+00
1.990000e-06	7.053530e-07	1.758217e-10	4.920532e+00	1.126079e+01
2.000000e-06	7.515664e-07	1.949527e-10	5.242917e+00	1.275859e+01
2.010000e-06	7.976533e-07	2.146718e-10	5.564418e+00	1.425456e+01
2.020000e-06	8.436255e-07	2.373992e-10	5.885119e+00	1.574743e+01
2.030000e-06	8.895835e-07	2.629704e-10	6.205722e+00	1.723592e+01
2.040000e-06	9.354339e-07	2.883701e-10	6.525573e+00	1.871879e+01
2.050000e-06	9.811870e-07	3.086883e-10	6.844747e+00	2.019481e+01
2.060000e-06	1.026915e-06	3.246485e-10	7.163745e+00	2.166280e+01
2.070000e-06	1.072514e-06	3.413864e-10	7.481841e+00	2.312159e+01
2.080000e-06	1.118059e-06	3.607805e-10	7.799563e+00	2.457005e+01
2.090000e-06	1.163615e-06	3.833984e-10	8.117360e+00	2.600712e+01
2.100000e-06	1.209110e-06	4.085682e-10	8.434735e+00	2.743178e+01
2.110000e-06	1.254555e-06	4.303404e-10	8.751757e+00	2.884304e+01
2.120000e-06	1.299963e-06	4.497452e-10	9.068522e+00	3.024000e+01
2.130000e-06	1.345202e-06	4.687490e-10	9.384112e+00	3.162181e+01
2.140000e-06	1.390276e-06	4.865765e-10	9.698546e+00	3.298768e+01
2.150000e-06	1.435336e-06	5.046305e-10	1.001288e+01	3.433690e+01
2.160000e-06	1.480414e-06	5.234782e-10	1.032735e+01	3.566882e+01
2.170000e-06	1.525379e-06	5.434036e-10	1.064102e+01	3.698286e+01
2.180000e-06	1.570166e-06	5.644710e-10	1.095345e+01	3.827850e+01
2.190000e-06	1.614773e-06	5.831290e-10	1.126463e+01	3.955532e+01
2.200000e-06	1.659276e-06	6.009088e-10	1.157508e+01	4.081296e+01
2.210000e-06	1.703636e-06	6.173126e-10	1.188454e+01	4.205111e+01
2.220000e-06	1.747751e-06	6.338416e-10	1.219229e+01	4.326956e+01
2.230000e-06	1.791740e-06	6.501635e-10	1.249916e+01	4.446815e+01
2.240000e-06	1.835626e-06	6.659372e-10	1.280530e+01	4.564679e+01
2.250000e-06	1.879438e-06	6.831011e-10	1.311093e+01	4.680546e+01
2.260000e-06	1.923221e-06	7.001274e-10	1.341636e+01	4.794418e+01
2.270000e-06	1.966945e-06	7.201561e-10	1.372138e+01	4.906305e+01
2.280000e-06	2.010608e-06	7.375140e-10	1.402597e+01	5.016221e+01
2.290000e-06	2.054234e-06	7.541645e-10	1.433031e+01	5.124186e+01
2.300000e-06	2.097783e-06	7.688189e-10	1.463411e+01	5.230223e+01
2.310000e-06	2.141268e-06	7.825156e-10	1.493745e+01	5.334360e+01
2.320000e-06	2.184740e-06	7.978217e-10	1.524072e+01	5.436629e+01
2.330000e-06	2.228006e-06	8.128625e-10	1.554254e+01	5.537064e+01
2.340000e-06	2.271051e-06	8.284093e-10	1.584282e+01	5.635704e+01
2.350000e-06	2.313965e-06	8.447400e-10	1.614219e+01	5.732587e+01
2.360000e-06	2.356611e-06	8.615896e-10	1.643969e+01	5.827755e+01
2.370000e-06	2.398894e-06	8.724168e-10	1.673465e+01	5.921251e+01
2.380000e-06	2.440780e-06	8.808021e-10	1.702684e+01	6.013119e+01
2.390000e-06	2.482300e-06	8.917278e-10	1.731649e+01	6.103403e+01
2.400000e-06	2.523563e-06	9.026653e-10	1.760434e+01	6.192147e+01
2.410000e-06	2.564567e-06	9.150210e-10	1.789039e+01	6.279394e+01
2.420000e-06	2.605359e-06	9.309466e-10	1.817494e+01	6.365189e+01
2.430000e-06	2.645947e-06	9.487224e-10	1.845809e+01	6.449573e+01
2.440000e-06	2.686296e-06	9.641122e-10	1.873956e+01	6.532588e+01
2.450000e-06	2.726470e-06	9.756653e-10	1.901981e+01	6.614272e+01
2.460000e-06	2.766419e-06	9.883008e-10	1.929850e+01	6.694664e+01
2.470000e-06	2.806181e-06	9.973797e-10	1.957588e+01	6.773799e+01
2.480000e-06	2.845844e-06	1.005843e-09	1.985257e+01	6.851711e+01
2.490000e-06	2.885425e-06	1.017358e-09	2.012868e+01	6.928431e+01
2.500000e-06	2.924917e-06	1.029691e-09	2.040418e+01	7.003989e+01
2.510000e-06	2.964199e-06	1.042591e-09	2.067821e+01	7.078411e+01
2.520000e-06	3.003222e-06	1.056047e-09	2.095043e+01	7.151721e+01
2.530000e-06	3.042089e-06	1.066702e-09	2.122157e+01	7.223942e+01
2.540000e-06	3.080820e-06	1.075191e-09	2.149176e+01	7.295094e+01
2.550000e-06	3.119262e-06	1.083919e-09	2.175993e+01	7.365194e+01
2.560000e-06	3.157392e-06	1.092809e-09	2.202592e+01	7.434258e+01
2.570000e-06	3.195319e-06	1.100905e-09	2.229050e+01	7.502301e+01
2.580000e-06	3.233046e-06	1.109293e-09	2.255369e+01	7.569333e+01
2.590000e-06	3.270556e-06	1.118968e-09	2.281535e+01	7.635366e+01
2.600000e-06	3.307838e-06	1.129002e-09	2.307543e+01	7.700408e+01
2.610000e-06	3.344968e-06	1.137488e-09	2.333445e+01	7.764468e+01
2.620000e-06	3.381913e-06	1.146309e-09	2.359218e+01	7.827553e+01
2.630000e-06	3.418508e-06	1.155029e-09	2.384747e+01	7.889669e+01
2.640000e-06	3.454761e-06	1.163500e-09	2.410036e+01	7.950821e+01
2.650000e-06	3.490796e-06	1.173875e-09	2.435174e+01	8.011017e+01
2.660000e-06	3.526698e-06	1.182650e-09	2.460219e+01	8.070260e+01
2.670000e-06	3.562457e-06	1.188601e-09	2.485165e+01	8.128556e+01
2.680000e-06	3.598092e-06	1.195136e-09	2.510024e+01	8.185912e+01
2.690000e-06	3.633621e-06	1.204847e-09	2.534809e+01	8.242334e+01
2.700000e-06	3.668988e-06	1.215702e-09	2.559481e+01	8.297828e+01
2.710000e-06	3.704135e-06	1.226913e-09	2.583999e+01	8.352403e+01
2.720000e-06	3.739074e-06	1.238407e-09	2.608372e+01	8.406067e+01
2.730000e-06	3.773701e-06	1.247747e-09	2.632528e+01	8.458831e+01
2.740000e-06	3.807777e-06	1.256588e-09	2.656300e+01	8.510704e+01
2.750000e-06	3.841318e-06	1.262742e-09	2.679698e+01	8.561699e+01
2.760000e-06	3.874366e-06	1.269676e-09	2.702752e+01	8.611828e+01
2.770000e-06	3.906922e-06	1.277338e-09	2.725463e+01	8.661106e+01
2.780000e-06	3.939132e-06	1.283117e-09	2.747933e+01	8.709549e+01
2.790000e-06	3.971055e-06	1.291339e-09	2.770203e+01	8.757172e+01
2.800000e-06	4.002774e-06	1.299041e-09	2.792330e+01	8.803992e+01
2.810000e-06	4.034379e-06	1.309670e-09	2.814377e+01	8.850028e+01
2.820000e-06	4.065908e-06	1.318519e-09	2.836372e+01	8.895299e+01
2.830000e-06	4.097272e-06	1.325627e-09	2.858251e+01	8.939824e+01
2.840000e-06	4.128430e-06	1.332016e-09	2.879987e+01	8.983623e+01
2.850000e-06	4.159240e-06	1.338620e-09	2.901480e+01	9.026715e+01
2.860000e-06	4.189591e-06	1.344020e-09	2.922652e+01	9.069123e+01
2.870000e-06	4.219620e-06	1.350930e-09	2.943601e+01	9.110864e+01
2.880000e-06	4.249360e-06	1.359075e-09	2.964348e+01	9.151961e+01
2.890000e-06	4.278815e-06	1.367878e-09	2.984895e+01	9.192431e+01
2.900000e-06	4.308027e-06	1.374660e-09	3.005274e+01	9.232294e+01
2.910000e-06	4.337021e-06	1.379434e-09	3.025500e+01	9.271567e+01
