# Temperatura_=_15.3
# Concentracion g/m^3_=_1620.0
# C_Vs_to_Am_M_A/Vsm_=_65563218390.804596
# pendiente_HvsI_1/m_=_3716.3
# ordenada_HvsI_A/m_=_1297.0
# frecuencia_Hz_=_135101.9551883633

Tiempo_(s)	Campo_(V.s)	Magnetizacion_(V.s)	Campo_(kA/m)	Magnetizacion_(A/m)
0.000000e+00	-5.514391e-06	-1.479474e-09	-3.836220e+01	-9.634893e+01
1.000000e-08	-5.514718e-06	-1.479130e-09	-3.836447e+01	-9.633998e+01
2.000000e-08	-5.514768e-06	-1.478179e-09	-3.836482e+01	-9.632706e+01
3.000000e-08	-5.514459e-06	-1.477392e-09	-3.836267e+01	-9.630996e+01
4.000000e-08	-5.513646e-06	-1.474661e-09	-3.835701e+01	-9.628845e+01
5.000000e-08	-5.512407e-06	-1.466287e-09	-3.834840e+01	-9.626234e+01
6.000000e-08	-5.510743e-06	-1.459681e-09	-3.833682e+01	-9.623143e+01
7.000000e-08	-5.508489e-06	-1.475619e-09	-3.832114e+01	-9.619554e+01
8.000000e-08	-5.505676e-06	-1.496455e-09	-3.830157e+01	-9.615452e+01
9.000000e-08	-5.502345e-06	-1.480498e-09	-3.827840e+01	-9.610824e+01
1.000000e-07	-5.498569e-06	-1.467165e-09	-3.825213e+01	-9.605656e+01
1.100000e-07	-5.494426e-06	-1.493942e-09	-3.822330e+01	-9.599940e+01
1.200000e-07	-5.490031e-06	-1.508845e-09	-3.819273e+01	-9.593667e+01
1.300000e-07	-5.485407e-06	-1.411369e-09	-3.816056e+01	-9.586834e+01
1.400000e-07	-5.480424e-06	-1.388631e-09	-3.812590e+01	-9.579437e+01
1.500000e-07	-5.475065e-06	-1.452179e-09	-3.808862e+01	-9.571477e+01
1.600000e-07	-5.469296e-06	-1.499333e-09	-3.804848e+01	-9.562955e+01
1.700000e-07	-5.463036e-06	-1.439836e-09	-3.800493e+01	-9.553877e+01
1.800000e-07	-5.456360e-06	-1.378845e-09	-3.795850e+01	-9.544249e+01
1.900000e-07	-5.449385e-06	-1.462131e-09	-3.790997e+01	-9.534081e+01
2.000000e-07	-5.441987e-06	-1.464765e-09	-3.785850e+01	-9.523385e+01
2.100000e-07	-5.434298e-06	-1.428696e-09	-3.780501e+01	-9.512173e+01
2.200000e-07	-5.426499e-06	-1.364312e-09	-3.775076e+01	-9.500462e+01
2.300000e-07	-5.418435e-06	-1.416336e-09	-3.769466e+01	-9.488267e+01
2.400000e-07	-5.409923e-06	-1.410597e-09	-3.763544e+01	-9.475608e+01
2.500000e-07	-5.400852e-06	-1.391883e-09	-3.757234e+01	-9.462503e+01
2.600000e-07	-5.391111e-06	-1.356344e-09	-3.750457e+01	-9.448973e+01
2.700000e-07	-5.380723e-06	-1.390865e-09	-3.743231e+01	-9.435039e+01
2.800000e-07	-5.369797e-06	-1.398740e-09	-3.735629e+01	-9.420722e+01
2.900000e-07	-5.358383e-06	-1.404773e-09	-3.727689e+01	-9.406043e+01
3.000000e-07	-5.346558e-06	-1.396770e-09	-3.719463e+01	-9.391025e+01
3.100000e-07	-5.334402e-06	-1.392659e-09	-3.711006e+01	-9.375688e+01
3.200000e-07	-5.321967e-06	-1.408568e-09	-3.702355e+01	-9.360052e+01
3.300000e-07	-5.309118e-06	-1.400962e-09	-3.693417e+01	-9.344137e+01
3.400000e-07	-5.295712e-06	-1.388337e-09	-3.684091e+01	-9.327961e+01
3.500000e-07	-5.281855e-06	-1.384819e-09	-3.674450e+01	-9.311541e+01
3.600000e-07	-5.267616e-06	-1.428763e-09	-3.664545e+01	-9.294893e+01
3.700000e-07	-5.252940e-06	-1.404602e-09	-3.654335e+01	-9.278030e+01
3.800000e-07	-5.237756e-06	-1.388464e-09	-3.643772e+01	-9.260964e+01
3.900000e-07	-5.222114e-06	-1.405233e-09	-3.632891e+01	-9.243705e+01
4.000000e-07	-5.206142e-06	-1.415395e-09	-3.621779e+01	-9.226260e+01
4.100000e-07	-5.189592e-06	-1.354132e-09	-3.610266e+01	-9.208634e+01
4.200000e-07	-5.172563e-06	-1.388122e-09	-3.598419e+01	-9.190830e+01
4.300000e-07	-5.155283e-06	-1.423516e-09	-3.586398e+01	-9.172849e+01
4.400000e-07	-5.137671e-06	-1.379622e-09	-3.574146e+01	-9.154689e+01
4.500000e-07	-5.119697e-06	-1.342276e-09	-3.561641e+01	-9.136345e+01
4.600000e-07	-5.101325e-06	-1.423471e-09	-3.548861e+01	-9.117812e+01
4.700000e-07	-5.082626e-06	-1.395588e-09	-3.535852e+01	-9.099079e+01
4.800000e-07	-5.063599e-06	-1.331880e-09	-3.522615e+01	-9.080136e+01
4.900000e-07	-5.044265e-06	-1.373488e-09	-3.509165e+01	-9.060970e+01
5.000000e-07	-5.024662e-06	-1.421319e-09	-3.495528e+01	-9.041566e+01
5.100000e-07	-5.004818e-06	-1.340722e-09	-3.481723e+01	-9.021908e+01
5.200000e-07	-4.984775e-06	-1.354370e-09	-3.467780e+01	-9.001977e+01
5.300000e-07	-4.964443e-06	-1.409728e-09	-3.453636e+01	-8.981753e+01
5.400000e-07	-4.943679e-06	-1.356056e-09	-3.439190e+01	-8.961217e+01
5.500000e-07	-4.922494e-06	-1.316104e-09	-3.424452e+01	-8.940346e+01
5.600000e-07	-4.900967e-06	-1.390587e-09	-3.409477e+01	-8.919118e+01
5.700000e-07	-4.879091e-06	-1.372878e-09	-3.394258e+01	-8.897510e+01
5.800000e-07	-4.856959e-06	-1.311214e-09	-3.378861e+01	-8.875500e+01
5.900000e-07	-4.834445e-06	-1.356057e-09	-3.363199e+01	-8.853065e+01
6.000000e-07	-4.811519e-06	-1.376788e-09	-3.347250e+01	-8.830183e+01
6.100000e-07	-4.788340e-06	-1.312707e-09	-3.331125e+01	-8.806831e+01
6.200000e-07	-4.764914e-06	-1.317544e-09	-3.314828e+01	-8.782988e+01
6.300000e-07	-4.741265e-06	-1.355267e-09	-3.298376e+01	-8.758635e+01
6.400000e-07	-4.717381e-06	-1.312412e-09	-3.281761e+01	-8.733751e+01
6.500000e-07	-4.693153e-06	-1.301455e-09	-3.264906e+01	-8.708320e+01
6.600000e-07	-4.668528e-06	-1.327977e-09	-3.247775e+01	-8.682325e+01
6.700000e-07	-4.643533e-06	-1.309825e-09	-3.230386e+01	-8.655751e+01
6.800000e-07	-4.618046e-06	-1.284371e-09	-3.212655e+01	-8.628586e+01
6.900000e-07	-4.591983e-06	-1.314238e-09	-3.194524e+01	-8.600819e+01
7.000000e-07	-4.565383e-06	-1.305288e-09	-3.176020e+01	-8.572440e+01
7.100000e-07	-4.538294e-06	-1.285399e-09	-3.157175e+01	-8.543443e+01
7.200000e-07	-4.510824e-06	-1.292466e-09	-3.138064e+01	-8.513824e+01
7.300000e-07	-4.483145e-06	-1.296854e-09	-3.118808e+01	-8.483577e+01
7.400000e-07	-4.455345e-06	-1.266578e-09	-3.099469e+01	-8.452704e+01
7.500000e-07	-4.427406e-06	-1.271397e-09	-3.080033e+01	-8.421204e+01
7.600000e-07	-4.399220e-06	-1.273145e-09	-3.060424e+01	-8.389081e+01
7.700000e-07	-4.370802e-06	-1.264043e-09	-3.040655e+01	-8.356339e+01
7.800000e-07	-4.342130e-06	-1.254904e-09	-3.020708e+01	-8.322983e+01
7.900000e-07	-4.313060e-06	-1.258420e-09	-3.000485e+01	-8.289023e+01
8.000000e-07	-4.283629e-06	-1.240054e-09	-2.980011e+01	-8.254467e+01
8.100000e-07	-4.253904e-06	-1.232780e-09	-2.959331e+01	-8.219325e+01
8.200000e-07	-4.223911e-06	-1.232160e-09	-2.938466e+01	-8.183608e+01
8.300000e-07	-4.193597e-06	-1.224709e-09	-2.917378e+01	-8.147329e+01
8.400000e-07	-4.162986e-06	-1.212250e-09	-2.896082e+01	-8.110501e+01
8.500000e-07	-4.132121e-06	-1.216383e-09	-2.874610e+01	-8.073136e+01
8.600000e-07	-4.100957e-06	-1.209127e-09	-2.852930e+01	-8.035247e+01
8.700000e-07	-4.069551e-06	-1.192338e-09	-2.831082e+01	-7.996850e+01
8.800000e-07	-4.037970e-06	-1.187002e-09	-2.809112e+01	-7.957955e+01
8.900000e-07	-4.006250e-06	-1.186168e-09	-2.787045e+01	-7.918578e+01
9.000000e-07	-3.974357e-06	-1.176404e-09	-2.764858e+01	-7.878729e+01
9.100000e-07	-3.942203e-06	-1.168729e-09	-2.742489e+01	-7.838420e+01
9.200000e-07	-3.909820e-06	-1.170552e-09	-2.719961e+01	-7.797663e+01
9.300000e-07	-3.877121e-06	-1.159040e-09	-2.697213e+01	-7.756468e+01
9.400000e-07	-3.843991e-06	-1.147813e-09	-2.674166e+01	-7.714842e+01
9.500000e-07	-3.810299e-06	-1.145250e-09	-2.650727e+01	-7.672793e+01
9.600000e-07	-3.775998e-06	-1.139567e-09	-2.626865e+01	-7.630327e+01
9.700000e-07	-3.741242e-06	-1.120677e-09	-2.602685e+01	-7.587449e+01
9.800000e-07	-3.706143e-06	-1.116845e-09	-2.578268e+01	-7.544162e+01
9.900000e-07	-3.670843e-06	-1.114622e-09	-2.553711e+01	-7.500468e+01
1.000000e-06	-3.635393e-06	-1.108555e-09	-2.529049e+01	-7.456367e+01
1.010000e-06	-3.599774e-06	-1.100063e-09	-2.504270e+01	-7.411858e+01
1.020000e-06	-3.563977e-06	-1.101451e-09	-2.479367e+01	-7.366937e+01
1.030000e-06	-3.528001e-06	-1.091217e-09	-2.454340e+01	-7.321602e+01
1.040000e-06	-3.491840e-06	-1.078677e-09	-2.429183e+01	-7.275846e+01
1.050000e-06	-3.455525e-06	-1.070002e-09	-2.403919e+01	-7.229662e+01
1.060000e-06	-3.418996e-06	-1.065587e-09	-2.378508e+01	-7.183044e+01
1.070000e-06	-3.382172e-06	-1.053272e-09	-2.352890e+01	-7.135983e+01
1.080000e-06	-3.345065e-06	-1.047638e-09	-2.327076e+01	-7.088468e+01
1.090000e-06	-3.307710e-06	-1.042246e-09	-2.301089e+01	-7.040490e+01
1.100000e-06	-3.270145e-06	-1.034359e-09	-2.274956e+01	-6.992037e+01
1.110000e-06	-3.232398e-06	-1.023789e-09	-2.248696e+01	-6.943099e+01
1.120000e-06	-3.194427e-06	-1.016762e-09	-2.222280e+01	-6.893664e+01
1.130000e-06	-3.156145e-06	-1.006243e-09	-2.195649e+01	-6.843721e+01
1.140000e-06	-3.117575e-06	-9.954854e-10	-2.168816e+01	-6.793257e+01
1.150000e-06	-3.078778e-06	-9.873998e-10	-2.141827e+01	-6.742262e+01
1.160000e-06	-3.039785e-06	-9.797300e-10	-2.114701e+01	-6.690724e+01
1.170000e-06	-3.000617e-06	-9.702845e-10	-2.087452e+01	-6.638633e+01
1.180000e-06	-2.961326e-06	-9.623236e-10	-2.060118e+01	-6.585978e+01
1.190000e-06	-2.921886e-06	-9.562174e-10	-2.032681e+01	-6.532751e+01
1.200000e-06	-2.882275e-06	-9.484205e-10	-2.005124e+01	-6.478942e+01
1.210000e-06	-2.842551e-06	-9.408399e-10	-1.977490e+01	-6.424544e+01
1.220000e-06	-2.802711e-06	-9.333864e-10	-1.949774e+01	-6.369550e+01
1.230000e-06	-2.762725e-06	-9.256743e-10	-1.921957e+01	-6.313953e+01
1.240000e-06	-2.722529e-06	-9.146664e-10	-1.893993e+01	-6.257747e+01
1.250000e-06	-2.682115e-06	-9.067552e-10	-1.865878e+01	-6.200929e+01
1.260000e-06	-2.641564e-06	-8.967973e-10	-1.837668e+01	-6.143494e+01
1.270000e-06	-2.600808e-06	-8.878218e-10	-1.809315e+01	-6.085439e+01
1.280000e-06	-2.559733e-06	-8.785526e-10	-1.780740e+01	-6.026761e+01
1.290000e-06	-2.518398e-06	-8.724176e-10	-1.751985e+01	-5.967458e+01
1.300000e-06	-2.476785e-06	-8.643102e-10	-1.723035e+01	-5.907529e+01
1.310000e-06	-2.434845e-06	-8.543254e-10	-1.693859e+01	-5.846971e+01
1.320000e-06	-2.392599e-06	-8.422835e-10	-1.664469e+01	-5.785782e+01
1.330000e-06	-2.350049e-06	-8.319687e-10	-1.634868e+01	-5.723960e+01
1.340000e-06	-2.307197e-06	-8.212023e-10	-1.605057e+01	-5.661504e+01
1.350000e-06	-2.264055e-06	-8.123295e-10	-1.575045e+01	-5.598409e+01
1.360000e-06	-2.220744e-06	-8.035589e-10	-1.544914e+01	-5.534672e+01
1.370000e-06	-2.177316e-06	-7.952258e-10	-1.514703e+01	-5.470287e+01
1.380000e-06	-2.133755e-06	-7.866277e-10	-1.484398e+01	-5.405248e+01
1.390000e-06	-2.090095e-06	-7.793161e-10	-1.454025e+01	-5.339548e+01
1.400000e-06	-2.046322e-06	-7.673893e-10	-1.423573e+01	-5.273176e+01
1.410000e-06	-2.002451e-06	-7.552526e-10	-1.393053e+01	-5.206121e+01
1.420000e-06	-1.958532e-06	-7.451279e-10	-1.362501e+01	-5.138368e+01
1.430000e-06	-1.914603e-06	-7.369301e-10	-1.331940e+01	-5.069902e+01
1.440000e-06	-1.870669e-06	-7.272064e-10	-1.301376e+01	-5.000705e+01
1.450000e-06	-1.826614e-06	-7.147529e-10	-1.270728e+01	-4.930754e+01
1.460000e-06	-1.782369e-06	-7.009510e-10	-1.239949e+01	-4.860026e+01
1.470000e-06	-1.738014e-06	-6.861580e-10	-1.209091e+01	-4.788494e+01
1.480000e-06	-1.693624e-06	-6.707600e-10	-1.178211e+01	-4.716128e+01
1.490000e-06	-1.649220e-06	-6.550942e-10	-1.147320e+01	-4.642895e+01
1.500000e-06	-1.604626e-06	-6.427263e-10	-1.116297e+01	-4.568762e+01
1.510000e-06	-1.559708e-06	-6.321632e-10	-1.085049e+01	-4.493688e+01
1.520000e-06	-1.514632e-06	-6.199152e-10	-1.053691e+01	-4.417633e+01
1.530000e-06	-1.469461e-06	-6.064731e-10	-1.022266e+01	-4.340555e+01
1.540000e-06	-1.424211e-06	-5.903216e-10	-9.907872e+00	-4.262406e+01
1.550000e-06	-1.378885e-06	-5.716837e-10	-9.592546e+00	-4.183138e+01
1.560000e-06	-1.333484e-06	-5.539953e-10	-9.276708e+00	-4.102702e+01
1.570000e-06	-1.288046e-06	-5.386977e-10	-8.960604e+00	-4.021046e+01
1.580000e-06	-1.242529e-06	-5.252479e-10	-8.643955e+00	-3.938117e+01
1.590000e-06	-1.196954e-06	-5.137849e-10	-8.326901e+00	-3.853860e+01
1.600000e-06	-1.151284e-06	-5.052589e-10	-8.009186e+00	-3.768221e+01
1.610000e-06	-1.105436e-06	-4.931236e-10	-7.690231e+00	-3.681145e+01
1.620000e-06	-1.059462e-06	-4.785766e-10	-7.370406e+00	-3.592576e+01
1.630000e-06	-1.013446e-06	-4.631744e-10	-7.050280e+00	-3.502461e+01
1.640000e-06	-9.673948e-07	-4.496314e-10	-6.729917e+00	-3.410746e+01
1.650000e-06	-9.212651e-07	-4.346456e-10	-6.409005e+00	-3.317380e+01
1.660000e-06	-8.750406e-07	-4.195139e-10	-6.087432e+00	-3.222313e+01
1.670000e-06	-8.287987e-07	-4.038568e-10	-5.765740e+00	-3.125498e+01
1.680000e-06	-7.824763e-07	-3.877888e-10	-5.443486e+00	-3.026893e+01
1.690000e-06	-7.359706e-07	-3.712030e-10	-5.119958e+00	-2.926456e+01
1.700000e-06	-6.893676e-07	-3.570193e-10	-4.795753e+00	-2.824151e+01
1.710000e-06	-6.427037e-07	-3.437531e-10	-4.471124e+00	-2.719946e+01
1.720000e-06	-5.960874e-07	-3.299930e-10	-4.146827e+00	-2.613816e+01
1.730000e-06	-5.495380e-07	-3.122062e-10	-3.822994e+00	-2.505738e+01
1.740000e-06	-5.029470e-07	-2.918329e-10	-3.498873e+00	-2.395697e+01
1.750000e-06	-4.563422e-07	-2.705132e-10	-3.174655e+00	-2.283685e+01
1.760000e-06	-4.097364e-07	-2.510309e-10	-2.850430e+00	-2.169697e+01
1.770000e-06	-3.631004e-07	-2.356606e-10	-2.525996e+00	-2.053738e+01
1.780000e-06	-3.163661e-07	-2.227867e-10	-2.200877e+00	-1.935820e+01
1.790000e-06	-2.695563e-07	-2.106468e-10	-1.875234e+00	-1.815960e+01
1.800000e-06	-2.227163e-07	-1.955442e-10	-1.549380e+00	-1.694185e+01
1.810000e-06	-1.758793e-07	-1.779658e-10	-1.223547e+00	-1.570528e+01
1.820000e-06	-1.290415e-07	-1.603868e-10	-8.977082e-01	-1.445029e+01
1.830000e-06	-8.221438e-08	-1.444694e-10	-5.719443e-01	-1.317737e+01
1.840000e-06	-3.545275e-08	-1.298900e-10	-2.466357e-01	-1.188709e+01
1.850000e-06	1.123309e-08	-1.157104e-10	7.814574e-02	-1.058008e+01
1.860000e-06	5.789638e-08	-9.922213e-11	4.027702e-01	-9.257043e+00
1.870000e-06	1.046743e-07	-8.018549e-11	7.281920e-01	-7.918766e+00
1.880000e-06	1.515069e-07	-5.937248e-11	1.053994e+00	-6.566092e+00
1.890000e-06	1.982637e-07	-3.725291e-11	1.379270e+00	-5.199936e+00
1.900000e-06	2.450152e-07	-1.492272e-11	1.704508e+00	-3.821269e+00
1.910000e-06	2.917438e-07	5.126941e-12	2.029586e+00	-2.431125e+00
1.920000e-06	3.384006e-07	2.129553e-11	2.354166e+00	-1.030586e+00
1.930000e-06	3.849678e-07	3.599395e-11	2.678122e+00	3.792158e-01
1.940000e-06	4.315492e-07	5.219104e-11	3.002177e+00	1.797106e+00
1.950000e-06	4.782312e-07	7.308904e-11	3.326932e+00	3.221872e+00
1.960000e-06	5.248264e-07	9.596101e-11	3.651082e+00	4.652271e+00
1.970000e-06	5.712790e-07	1.204811e-10	3.974241e+00	6.087036e+00
1.980000e-06	6.177597e-07	1.454694e-10	4.297595e+00	7.524877e+00
1.990000e-06	6.642536e-07	1.654714e-10	4.621042e+00	8.964496e+00
2.000000e-06	7.106780e-07	1.807883e-10	4.944004e+00	1.040458e+01
2.010000e-06	7.570533e-07	1.936535e-10	5.266625e+00	1.184383e+01
2.020000e-06	8.033458e-07	2.129520e-10	5.588670e+00	1.328095e+01
2.030000e-06	8.495831e-07	2.376982e-10	5.910331e+00	1.471463e+01
2.040000e-06	8.957685e-07	2.632885e-10	6.231631e+00	1.614362e+01
2.050000e-06	9.418768e-07	2.872025e-10	6.552394e+00	1.756666e+01
2.060000e-06	9.879132e-07	3.089097e-10	6.872658e+00	1.898255e+01
2.070000e-06	1.033857e-06	3.275434e-10	7.192277e+00	2.039009e+01
2.080000e-06	1.079768e-06	3.435444e-10	7.511665e+00	2.178816e+01
2.090000e-06	1.125606e-06	3.589687e-10	7.830548e+00	2.317565e+01
2.100000e-06	1.171332e-06	3.788897e-10	8.148655e+00	2.455152e+01
2.110000e-06	1.216983e-06	4.002984e-10	8.466240e+00	2.591479e+01
2.120000e-06	1.262625e-06	4.199177e-10	8.783758e+00	2.726450e+01
2.130000e-06	1.308174e-06	4.388323e-10	9.100629e+00	2.859979e+01
2.140000e-06	1.353589e-06	4.596162e-10	9.416569e+00	2.991985e+01
2.150000e-06	1.398940e-06	4.821428e-10	9.732063e+00	3.122393e+01
2.160000e-06	1.444142e-06	5.003231e-10	1.004653e+01	3.251134e+01
2.170000e-06	1.489170e-06	5.173595e-10	1.035977e+01	3.378147e+01
2.180000e-06	1.534045e-06	5.340442e-10	1.067196e+01	3.503377e+01
2.190000e-06	1.578834e-06	5.495007e-10	1.098354e+01	3.626776e+01
2.200000e-06	1.623528e-06	5.658560e-10	1.129447e+01	3.748302e+01
2.210000e-06	1.668068e-06	5.839449e-10	1.160432e+01	3.867921e+01
2.220000e-06	1.712478e-06	6.052218e-10	1.191327e+01	3.985604e+01
2.230000e-06	1.756765e-06	6.242164e-10	1.222137e+01	4.101329e+01
2.240000e-06	1.800949e-06	6.405661e-10	1.252874e+01	4.215080e+01
2.250000e-06	1.845032e-06	6.544254e-10	1.283541e+01	4.326847e+01
2.260000e-06	1.889012e-06	6.671184e-10	1.314137e+01	4.436626e+01
2.270000e-06	1.932916e-06	6.808443e-10	1.344680e+01	4.544417e+01
2.280000e-06	1.976738e-06	6.993512e-10	1.375166e+01	4.650225e+01
2.290000e-06	2.020489e-06	7.177655e-10	1.405602e+01	4.754061e+01
2.300000e-06	2.064126e-06	7.329817e-10	1.435959e+01	4.855939e+01
2.310000e-06	2.107697e-06	7.449137e-10	1.466270e+01	4.955877e+01
2.320000e-06	2.151244e-06	7.544010e-10	1.496565e+01	5.053897e+01
2.330000e-06	2.194718e-06	7.651020e-10	1.526809e+01	5.150022e+01
2.340000e-06	2.238097e-06	7.752880e-10	1.556986e+01	5.244281e+01
2.350000e-06	2.281316e-06	7.887197e-10	1.587053e+01	5.336703e+01
2.360000e-06	2.324316e-06	8.081343e-10	1.616967e+01	5.427320e+01
2.370000e-06	2.367074e-06	8.291451e-10	1.646713e+01	5.516163e+01
2.380000e-06	2.409556e-06	8.449065e-10	1.676266e+01	5.603267e+01
2.390000e-06	2.451683e-06	8.533674e-10	1.705573e+01	5.688667e+01
2.400000e-06	2.493527e-06	8.587970e-10	1.734683e+01	5.772399e+01
2.410000e-06	2.535078e-06	8.651617e-10	1.763588e+01	5.854497e+01
2.420000e-06	2.576288e-06	8.738194e-10	1.792257e+01	5.934999e+01
2.430000e-06	2.617140e-06	8.874792e-10	1.820677e+01	6.013938e+01
2.440000e-06	2.657705e-06	9.032537e-10	1.848897e+01	6.091350e+01
2.450000e-06	2.698084e-06	9.172093e-10	1.876988e+01	6.167270e+01
2.460000e-06	2.738225e-06	9.273620e-10	1.904912e+01	6.241730e+01
2.470000e-06	2.778200e-06	9.383295e-10	1.932722e+01	6.314763e+01
2.480000e-06	2.818050e-06	9.488838e-10	1.960445e+01	6.386402e+01
2.490000e-06	2.857798e-06	9.582952e-10	1.988097e+01	6.456676e+01
2.500000e-06	2.897440e-06	9.669135e-10	2.015675e+01	6.525615e+01
2.510000e-06	2.936961e-06	9.762656e-10	2.043168e+01	6.593247e+01
2.520000e-06	2.976321e-06	9.870755e-10	2.070550e+01	6.659600e+01
2.530000e-06	3.015471e-06	9.981242e-10	2.097786e+01	6.724699e+01
2.540000e-06	3.054436e-06	1.006578e-09	2.124893e+01	6.788571e+01
2.550000e-06	3.093176e-06	1.012609e-09	2.151843e+01	6.851239e+01
2.560000e-06	3.131685e-06	1.019025e-09	2.178632e+01	6.912726e+01
2.570000e-06	3.169986e-06	1.027072e-09	2.205278e+01	6.973057e+01
2.580000e-06	3.208003e-06	1.035299e-09	2.231725e+01	7.032252e+01
2.590000e-06	3.245844e-06	1.043973e-09	2.258050e+01	7.090335e+01
2.600000e-06	3.283555e-06	1.053068e-09	2.284284e+01	7.147325e+01
2.610000e-06	3.320988e-06	1.060603e-09	2.310326e+01	7.203245e+01
2.620000e-06	3.358125e-06	1.066132e-09	2.336161e+01	7.258115e+01
2.630000e-06	3.395073e-06	1.071635e-09	2.361865e+01	7.311956e+01
2.640000e-06	3.431820e-06	1.079507e-09	2.387429e+01	7.364791e+01
2.650000e-06	3.468202e-06	1.088495e-09	2.412739e+01	7.416640e+01
2.660000e-06	3.504330e-06	1.098049e-09	2.437872e+01	7.467525e+01
2.670000e-06	3.540347e-06	1.107230e-09	2.462928e+01	7.517468e+01
2.680000e-06	3.576208e-06	1.115421e-09	2.487876e+01	7.566492e+01
2.690000e-06	3.611927e-06	1.124447e-09	2.512725e+01	7.614621e+01
2.700000e-06	3.647558e-06	1.133143e-09	2.537512e+01	7.661877e+01
2.710000e-06	3.683028e-06	1.138655e-09	2.562188e+01	7.708286e+01
2.720000e-06	3.718255e-06	1.143171e-09	2.586694e+01	7.753872e+01
2.730000e-06	3.753178e-06	1.147508e-09	2.610989e+01	7.798661e+01
2.740000e-06	3.787689e-06	1.152988e-09	2.634998e+01	7.842678e+01
2.750000e-06	3.821756e-06	1.159865e-09	2.658697e+01	7.885950e+01
2.760000e-06	3.855374e-06	1.166435e-09	2.682085e+01	7.928503e+01
2.770000e-06	3.888605e-06	1.173147e-09	2.705203e+01	7.970364e+01
2.780000e-06	3.921442e-06	1.180843e-09	2.728046e+01	8.011559e+01
2.790000e-06	3.953815e-06	1.188811e-09	2.750567e+01	8.052116e+01
2.800000e-06	3.985858e-06	1.197032e-09	2.772858e+01	8.092060e+01
2.810000e-06	4.017705e-06	1.203316e-09	2.795014e+01	8.131418e+01
2.820000e-06	4.049417e-06	1.208819e-09	2.817075e+01	8.170215e+01
2.830000e-06	4.081019e-06	1.214553e-09	2.839060e+01	8.208476e+01
2.840000e-06	4.112456e-06	1.220973e-09	2.860930e+01	8.246226e+01
2.850000e-06	4.143656e-06	1.229412e-09	2.882635e+01	8.283486e+01
2.860000e-06	4.174497e-06	1.239438e-09	2.904090e+01	8.320278e+01
2.870000e-06	4.204936e-06	1.247779e-09	2.925266e+01	8.356622e+01
2.880000e-06	4.235055e-06	1.253990e-09	2.946219e+01	8.392537e+01
2.890000e-06	4.264863e-06	1.260238e-09	2.966955e+01	8.428040e+01
2.900000e-06	4.294404e-06	1.265627e-09	2.987507e+01	8.463145e+01
2.910000e-06	4.323741e-06	1.268965e-09	3.007915e+01	8.497865e+01
