# Temperatura_=_14.8
# Concentracion g/m^3_=_1620.0
# C_Vs_to_Am_M_A/Vsm_=_65563218390.804596
# pendiente_HvsI_1/m_=_3716.3
# ordenada_HvsI_A/m_=_1297.0
# frecuencia_Hz_=_135102.43135339933

Tiempo_(s)	Campo_(V.s)	Magnetizacion_(V.s)	Campo_(kA/m)	Magnetizacion_(A/m)
0.000000e+00	-5.506782e-06	-1.521583e-09	-3.837304e+01	-9.911623e+01
1.000000e-08	-5.507053e-06	-1.519556e-09	-3.837493e+01	-9.909983e+01
2.000000e-08	-5.507055e-06	-1.519214e-09	-3.837495e+01	-9.907887e+01
3.000000e-08	-5.506751e-06	-1.520741e-09	-3.837282e+01	-9.905323e+01
4.000000e-08	-5.506068e-06	-1.520372e-09	-3.836807e+01	-9.902283e+01
5.000000e-08	-5.504920e-06	-1.512179e-09	-3.836007e+01	-9.898758e+01
6.000000e-08	-5.503243e-06	-1.501523e-09	-3.834838e+01	-9.894739e+01
7.000000e-08	-5.500947e-06	-1.515123e-09	-3.833238e+01	-9.890220e+01
8.000000e-08	-5.498038e-06	-1.558353e-09	-3.831211e+01	-9.885196e+01
9.000000e-08	-5.494583e-06	-1.571651e-09	-3.828803e+01	-9.879663e+01
1.000000e-07	-5.490628e-06	-1.531525e-09	-3.826048e+01	-9.873617e+01
1.100000e-07	-5.486349e-06	-1.491467e-09	-3.823066e+01	-9.867058e+01
1.200000e-07	-5.481902e-06	-1.482883e-09	-3.819967e+01	-9.859985e+01
1.300000e-07	-5.477169e-06	-1.521422e-09	-3.816669e+01	-9.852400e+01
1.400000e-07	-5.472054e-06	-1.503202e-09	-3.813105e+01	-9.844305e+01
1.500000e-07	-5.466645e-06	-1.483713e-09	-3.809335e+01	-9.835706e+01
1.600000e-07	-5.460877e-06	-1.491065e-09	-3.805316e+01	-9.826608e+01
1.700000e-07	-5.454573e-06	-1.517016e-09	-3.800923e+01	-9.817018e+01
1.800000e-07	-5.447850e-06	-1.530186e-09	-3.796238e+01	-9.806943e+01
1.900000e-07	-5.440857e-06	-1.488600e-09	-3.791365e+01	-9.796394e+01
2.000000e-07	-5.433557e-06	-1.485620e-09	-3.786279e+01	-9.785380e+01
2.100000e-07	-5.425966e-06	-1.482995e-09	-3.780989e+01	-9.773913e+01
2.200000e-07	-5.418106e-06	-1.502761e-09	-3.775512e+01	-9.762004e+01
2.300000e-07	-5.409897e-06	-1.469765e-09	-3.769792e+01	-9.749664e+01
2.400000e-07	-5.401271e-06	-1.457274e-09	-3.763781e+01	-9.736908e+01
2.500000e-07	-5.392106e-06	-1.448410e-09	-3.757394e+01	-9.723746e+01
2.600000e-07	-5.382289e-06	-1.463448e-09	-3.750553e+01	-9.710192e+01
2.700000e-07	-5.371826e-06	-1.447820e-09	-3.743263e+01	-9.696258e+01
2.800000e-07	-5.360831e-06	-1.447507e-09	-3.735601e+01	-9.681955e+01
2.900000e-07	-5.349440e-06	-1.458074e-09	-3.727663e+01	-9.667295e+01
3.000000e-07	-5.337667e-06	-1.462889e-09	-3.719459e+01	-9.652287e+01
3.100000e-07	-5.325595e-06	-1.448680e-09	-3.711048e+01	-9.636942e+01
3.200000e-07	-5.313121e-06	-1.442481e-09	-3.702355e+01	-9.621267e+01
3.300000e-07	-5.300127e-06	-1.455626e-09	-3.693300e+01	-9.605269e+01
3.400000e-07	-5.286724e-06	-1.451556e-09	-3.683961e+01	-9.588953e+01
3.500000e-07	-5.272961e-06	-1.448459e-09	-3.674370e+01	-9.572324e+01
3.600000e-07	-5.258827e-06	-1.442867e-09	-3.664521e+01	-9.555382e+01
3.700000e-07	-5.244248e-06	-1.443881e-09	-3.654362e+01	-9.538129e+01
3.800000e-07	-5.229202e-06	-1.430117e-09	-3.643877e+01	-9.520563e+01
3.900000e-07	-5.213652e-06	-1.436652e-09	-3.633042e+01	-9.502681e+01
4.000000e-07	-5.197571e-06	-1.434817e-09	-3.621836e+01	-9.484477e+01
4.100000e-07	-5.181036e-06	-1.428309e-09	-3.610314e+01	-9.465944e+01
4.200000e-07	-5.164143e-06	-1.418350e-09	-3.598542e+01	-9.447074e+01
4.300000e-07	-5.146985e-06	-1.430611e-09	-3.586586e+01	-9.427856e+01
4.400000e-07	-5.129553e-06	-1.420698e-09	-3.574439e+01	-9.408278e+01
4.500000e-07	-5.111646e-06	-1.417058e-09	-3.561961e+01	-9.388326e+01
4.600000e-07	-5.093194e-06	-1.412732e-09	-3.549102e+01	-9.367984e+01
4.700000e-07	-5.074446e-06	-1.417519e-09	-3.536038e+01	-9.347237e+01
4.800000e-07	-5.055417e-06	-1.410316e-09	-3.522779e+01	-9.326067e+01
4.900000e-07	-5.036028e-06	-1.418754e-09	-3.509268e+01	-9.304455e+01
5.000000e-07	-5.016397e-06	-1.412024e-09	-3.495588e+01	-9.282383e+01
5.100000e-07	-4.996584e-06	-1.404377e-09	-3.481781e+01	-9.259831e+01
5.200000e-07	-4.976564e-06	-1.399784e-09	-3.467831e+01	-9.236779e+01
5.300000e-07	-4.956208e-06	-1.406702e-09	-3.453646e+01	-9.213207e+01
5.400000e-07	-4.935496e-06	-1.395012e-09	-3.439214e+01	-9.189097e+01
5.500000e-07	-4.914463e-06	-1.387543e-09	-3.424557e+01	-9.164429e+01
5.600000e-07	-4.893010e-06	-1.382351e-09	-3.409608e+01	-9.139185e+01
5.700000e-07	-4.871229e-06	-1.381364e-09	-3.394430e+01	-9.113347e+01
5.800000e-07	-4.849167e-06	-1.379488e-09	-3.379057e+01	-9.086901e+01
5.900000e-07	-4.826726e-06	-1.380009e-09	-3.363419e+01	-9.059830e+01
6.000000e-07	-4.803887e-06	-1.372194e-09	-3.347504e+01	-9.032123e+01
6.100000e-07	-4.780716e-06	-1.363185e-09	-3.331358e+01	-9.003768e+01
6.200000e-07	-4.757281e-06	-1.356030e-09	-3.315028e+01	-8.974757e+01
6.300000e-07	-4.733567e-06	-1.344697e-09	-3.298503e+01	-8.945081e+01
6.400000e-07	-4.709651e-06	-1.340539e-09	-3.281837e+01	-8.914738e+01
6.500000e-07	-4.685518e-06	-1.341507e-09	-3.265021e+01	-8.883724e+01
6.600000e-07	-4.661027e-06	-1.340343e-09	-3.247955e+01	-8.852039e+01
6.700000e-07	-4.636128e-06	-1.334093e-09	-3.230604e+01	-8.819688e+01
6.800000e-07	-4.610727e-06	-1.335400e-09	-3.212904e+01	-8.786674e+01
6.900000e-07	-4.584732e-06	-1.326132e-09	-3.194790e+01	-8.753006e+01
7.000000e-07	-4.558141e-06	-1.317737e-09	-3.176261e+01	-8.718694e+01
7.100000e-07	-4.531045e-06	-1.311635e-09	-3.157379e+01	-8.683751e+01
7.200000e-07	-4.503581e-06	-1.308910e-09	-3.138241e+01	-8.648192e+01
7.300000e-07	-4.475857e-06	-1.298281e-09	-3.118922e+01	-8.612034e+01
7.400000e-07	-4.448004e-06	-1.296859e-09	-3.099513e+01	-8.575297e+01
7.500000e-07	-4.420055e-06	-1.291046e-09	-3.080037e+01	-8.538001e+01
7.600000e-07	-4.391904e-06	-1.283442e-09	-3.060421e+01	-8.500171e+01
7.700000e-07	-4.363421e-06	-1.275214e-09	-3.040573e+01	-8.461828e+01
7.800000e-07	-4.334541e-06	-1.275106e-09	-3.020448e+01	-8.423000e+01
7.900000e-07	-4.305311e-06	-1.268976e-09	-3.000080e+01	-8.383713e+01
8.000000e-07	-4.275878e-06	-1.266073e-09	-2.979571e+01	-8.343992e+01
8.100000e-07	-4.246212e-06	-1.258642e-09	-2.958898e+01	-8.303866e+01
8.200000e-07	-4.216252e-06	-1.248472e-09	-2.938021e+01	-8.263362e+01
8.300000e-07	-4.185996e-06	-1.236592e-09	-2.916938e+01	-8.222507e+01
8.400000e-07	-4.155421e-06	-1.231176e-09	-2.895632e+01	-8.181327e+01
8.500000e-07	-4.124490e-06	-1.221267e-09	-2.874078e+01	-8.139848e+01
8.600000e-07	-4.093283e-06	-1.210425e-09	-2.852332e+01	-8.098095e+01
8.700000e-07	-4.061890e-06	-1.201040e-09	-2.830457e+01	-8.056089e+01
8.800000e-07	-4.030275e-06	-1.190865e-09	-2.808426e+01	-8.013853e+01
8.900000e-07	-3.998483e-06	-1.181310e-09	-2.786273e+01	-7.971406e+01
9.000000e-07	-3.966544e-06	-1.173796e-09	-2.764016e+01	-7.928765e+01
9.100000e-07	-3.934365e-06	-1.168162e-09	-2.741593e+01	-7.885944e+01
9.200000e-07	-3.901862e-06	-1.162923e-09	-2.718944e+01	-7.842956e+01
9.300000e-07	-3.868996e-06	-1.159047e-09	-2.696042e+01	-7.799810e+01
9.400000e-07	-3.835769e-06	-1.151952e-09	-2.672888e+01	-7.756512e+01
9.500000e-07	-3.802133e-06	-1.143717e-09	-2.649450e+01	-7.713067e+01
9.600000e-07	-3.767976e-06	-1.135956e-09	-2.625648e+01	-7.669474e+01
9.700000e-07	-3.733357e-06	-1.129232e-09	-2.601524e+01	-7.625730e+01
9.800000e-07	-3.698401e-06	-1.120500e-09	-2.577166e+01	-7.581831e+01
9.900000e-07	-3.663144e-06	-1.115480e-09	-2.552598e+01	-7.537767e+01
1.000000e-06	-3.627624e-06	-1.110222e-09	-2.527846e+01	-7.493526e+01
1.010000e-06	-3.591968e-06	-1.103167e-09	-2.503000e+01	-7.449095e+01
1.020000e-06	-3.556208e-06	-1.090569e-09	-2.478081e+01	-7.404455e+01
1.030000e-06	-3.520284e-06	-1.082918e-09	-2.453048e+01	-7.359586e+01
1.040000e-06	-3.484176e-06	-1.074451e-09	-2.427886e+01	-7.314467e+01
1.050000e-06	-3.447808e-06	-1.065799e-09	-2.402544e+01	-7.269073e+01
1.060000e-06	-3.411214e-06	-1.059764e-09	-2.377044e+01	-7.223377e+01
1.070000e-06	-3.374391e-06	-1.055118e-09	-2.351385e+01	-7.177351e+01
1.080000e-06	-3.337229e-06	-1.047887e-09	-2.325489e+01	-7.130966e+01
1.090000e-06	-3.299743e-06	-1.039118e-09	-2.299368e+01	-7.084190e+01
1.100000e-06	-3.261999e-06	-1.030957e-09	-2.273067e+01	-7.036994e+01
1.110000e-06	-3.224098e-06	-1.024236e-09	-2.246656e+01	-6.989344e+01
1.120000e-06	-3.186058e-06	-1.016004e-09	-2.220149e+01	-6.941208e+01
1.130000e-06	-3.147844e-06	-1.011959e-09	-2.193519e+01	-6.892556e+01
1.140000e-06	-3.109415e-06	-1.006436e-09	-2.166741e+01	-6.843354e+01
1.150000e-06	-3.070735e-06	-9.964268e-10	-2.139788e+01	-6.793572e+01
1.160000e-06	-3.031812e-06	-9.835546e-10	-2.112665e+01	-6.743181e+01
1.170000e-06	-2.992656e-06	-9.720498e-10	-2.085380e+01	-6.692151e+01
1.180000e-06	-2.953279e-06	-9.632675e-10	-2.057940e+01	-6.640456e+01
1.190000e-06	-2.913727e-06	-9.559414e-10	-2.030380e+01	-6.588070e+01
1.200000e-06	-2.874034e-06	-9.499467e-10	-2.002720e+01	-6.534970e+01
1.210000e-06	-2.834190e-06	-9.432177e-10	-1.974955e+01	-6.481135e+01
1.220000e-06	-2.794259e-06	-9.335907e-10	-1.947130e+01	-6.426544e+01
1.230000e-06	-2.754240e-06	-9.227102e-10	-1.919243e+01	-6.371182e+01
1.240000e-06	-2.714089e-06	-9.121962e-10	-1.891265e+01	-6.315034e+01
1.250000e-06	-2.673748e-06	-9.006977e-10	-1.863154e+01	-6.258089e+01
1.260000e-06	-2.633234e-06	-8.916881e-10	-1.834923e+01	-6.200335e+01
1.270000e-06	-2.592570e-06	-8.838999e-10	-1.806587e+01	-6.141767e+01
1.280000e-06	-2.551671e-06	-8.779876e-10	-1.778087e+01	-6.082378e+01
1.290000e-06	-2.510559e-06	-8.733459e-10	-1.749439e+01	-6.022167e+01
1.300000e-06	-2.469177e-06	-8.668972e-10	-1.720602e+01	-5.961133e+01
1.310000e-06	-2.427521e-06	-8.564314e-10	-1.691576e+01	-5.899275e+01
1.320000e-06	-2.385488e-06	-8.430556e-10	-1.662286e+01	-5.836598e+01
1.330000e-06	-2.343034e-06	-8.293859e-10	-1.632702e+01	-5.773104e+01
1.340000e-06	-2.300337e-06	-8.172621e-10	-1.602949e+01	-5.708799e+01
1.350000e-06	-2.257423e-06	-8.068462e-10	-1.573045e+01	-5.643689e+01
1.360000e-06	-2.214248e-06	-7.983015e-10	-1.542960e+01	-5.577779e+01
1.370000e-06	-2.170834e-06	-7.915125e-10	-1.512708e+01	-5.511076e+01
1.380000e-06	-2.127317e-06	-7.869654e-10	-1.482383e+01	-5.443587e+01
1.390000e-06	-2.083680e-06	-7.807912e-10	-1.451976e+01	-5.375316e+01
1.400000e-06	-2.039912e-06	-7.729169e-10	-1.421477e+01	-5.306268e+01
1.410000e-06	-1.996074e-06	-7.630766e-10	-1.390929e+01	-5.236447e+01
1.420000e-06	-1.952202e-06	-7.520931e-10	-1.360358e+01	-5.165854e+01
1.430000e-06	-1.908289e-06	-7.407614e-10	-1.329758e+01	-5.094489e+01
1.440000e-06	-1.864282e-06	-7.308992e-10	-1.299092e+01	-5.022350e+01
1.450000e-06	-1.820114e-06	-7.200970e-10	-1.268315e+01	-4.949432e+01
1.460000e-06	-1.775828e-06	-7.083396e-10	-1.237455e+01	-4.875727e+01
1.470000e-06	-1.731467e-06	-6.966700e-10	-1.206542e+01	-4.801224e+01
1.480000e-06	-1.686994e-06	-6.840637e-10	-1.175552e+01	-4.725910e+01
1.490000e-06	-1.642398e-06	-6.692191e-10	-1.144476e+01	-4.649767e+01
1.500000e-06	-1.597624e-06	-6.545680e-10	-1.113276e+01	-4.572775e+01
1.510000e-06	-1.552799e-06	-6.419594e-10	-1.082041e+01	-4.494908e+01
1.520000e-06	-1.507840e-06	-6.304243e-10	-1.050712e+01	-4.416139e+01
1.530000e-06	-1.462673e-06	-6.202458e-10	-1.019238e+01	-4.336436e+01
1.540000e-06	-1.417486e-06	-6.090339e-10	-9.877500e+00	-4.255764e+01
1.550000e-06	-1.372198e-06	-5.948683e-10	-9.561922e+00	-4.174084e+01
1.560000e-06	-1.326779e-06	-5.774888e-10	-9.245427e+00	-4.091356e+01
1.570000e-06	-1.281316e-06	-5.603283e-10	-8.928627e+00	-4.007533e+01
1.580000e-06	-1.235820e-06	-5.455755e-10	-8.611596e+00	-3.922569e+01
1.590000e-06	-1.190215e-06	-5.344281e-10	-8.293805e+00	-3.836412e+01
1.600000e-06	-1.144500e-06	-5.281417e-10	-7.975244e+00	-3.749012e+01
1.610000e-06	-1.098732e-06	-5.206470e-10	-7.656322e+00	-3.660314e+01
1.620000e-06	-1.052931e-06	-5.068866e-10	-7.337164e+00	-3.570264e+01
1.630000e-06	-1.007080e-06	-4.907690e-10	-7.017662e+00	-3.478804e+01
1.640000e-06	-9.611196e-07	-4.741824e-10	-6.697393e+00	-3.385880e+01
1.650000e-06	-9.150472e-07	-4.556310e-10	-6.376345e+00	-3.291436e+01
1.660000e-06	-8.688755e-07	-4.360595e-10	-6.054606e+00	-3.195416e+01
1.670000e-06	-8.226972e-07	-4.191511e-10	-5.732821e+00	-3.097766e+01
1.680000e-06	-7.765360e-07	-4.039691e-10	-5.411155e+00	-2.998436e+01
1.690000e-06	-7.302332e-07	-3.912189e-10	-5.088502e+00	-2.897376e+01
1.700000e-06	-6.838887e-07	-3.795827e-10	-4.765558e+00	-2.794541e+01
1.710000e-06	-6.375758e-07	-3.659389e-10	-4.442835e+00	-2.689888e+01
1.720000e-06	-5.910839e-07	-3.486630e-10	-4.118864e+00	-2.583380e+01
1.730000e-06	-5.445191e-07	-3.283476e-10	-3.794386e+00	-2.474984e+01
1.740000e-06	-4.980004e-07	-3.070063e-10	-3.470228e+00	-2.364673e+01
1.750000e-06	-4.514834e-07	-2.877833e-10	-3.146083e+00	-2.252427e+01
1.760000e-06	-4.049589e-07	-2.730644e-10	-2.821885e+00	-2.138229e+01
1.770000e-06	-3.583630e-07	-2.617753e-10	-2.497189e+00	-2.022074e+01
1.780000e-06	-3.116530e-07	-2.512071e-10	-2.171699e+00	-1.903959e+01
1.790000e-06	-2.648790e-07	-2.384177e-10	-1.845763e+00	-1.783893e+01
1.800000e-06	-2.180377e-07	-2.218998e-10	-1.519357e+00	-1.661892e+01
1.810000e-06	-1.712403e-07	-2.014958e-10	-1.193258e+00	-1.537977e+01
1.820000e-06	-1.245836e-07	-1.803577e-10	-8.681390e-01	-1.412183e+01
1.830000e-06	-7.790545e-08	-1.616446e-10	-5.428704e-01	-1.284548e+01
1.840000e-06	-3.116830e-08	-1.456701e-10	-2.171908e-01	-1.155122e+01
1.850000e-06	1.553949e-08	-1.309056e-10	1.082842e-01	-1.023963e+01
1.860000e-06	6.214692e-08	-1.161775e-10	4.330599e-01	-8.911360e+00
1.870000e-06	1.087915e-07	-1.010437e-10	7.580945e-01	-7.567165e+00
1.880000e-06	1.554934e-07	-8.344805e-11	1.083528e+00	-6.207867e+00
1.890000e-06	2.021532e-07	-6.353302e-11	1.408669e+00	-4.834369e+00
1.900000e-06	2.488595e-07	-4.298954e-11	1.734134e+00	-3.447650e+00
1.910000e-06	2.956185e-07	-2.205794e-11	2.059965e+00	-2.048762e+00
1.920000e-06	3.423652e-07	-3.049832e-12	2.385711e+00	-6.388187e-01
1.930000e-06	3.890545e-07	1.355102e-11	2.711058e+00	7.810009e-01
1.940000e-06	4.356914e-07	3.108456e-11	3.036039e+00	2.209464e+00
1.950000e-06	4.822133e-07	5.108840e-11	3.360219e+00	3.645289e+00
1.960000e-06	5.286403e-07	7.174829e-11	3.683737e+00	5.087150e+00
1.970000e-06	5.750543e-07	9.305658e-11	4.007164e+00	6.533687e+00
1.980000e-06	6.214203e-07	1.143089e-10	4.330258e+00	7.983509e+00
1.990000e-06	6.677307e-07	1.346236e-10	4.652964e+00	9.435207e+00
2.000000e-06	7.140408e-07	1.534787e-10	4.975668e+00	1.088735e+01
2.010000e-06	7.603035e-07	1.723791e-10	5.298041e+00	1.233852e+01
2.020000e-06	8.064840e-07	1.933627e-10	5.619842e+00	1.378729e+01
2.030000e-06	8.526066e-07	2.156869e-10	5.941239e+00	1.523222e+01
2.040000e-06	8.986505e-07	2.381367e-10	6.262088e+00	1.667193e+01
2.050000e-06	9.446123e-07	2.590467e-10	6.582364e+00	1.810504e+01
2.060000e-06	9.905189e-07	2.777754e-10	6.902257e+00	1.953020e+01
2.070000e-06	1.036408e-06	2.960788e-10	7.222028e+00	2.094611e+01
2.080000e-06	1.082249e-06	3.149608e-10	7.541463e+00	2.235151e+01
2.090000e-06	1.127986e-06	3.346339e-10	7.860174e+00	2.374520e+01
2.100000e-06	1.173589e-06	3.566912e-10	8.177947e+00	2.512602e+01
2.110000e-06	1.219125e-06	3.797826e-10	8.495255e+00	2.649291e+01
2.120000e-06	1.264625e-06	3.999281e-10	8.812315e+00	2.784483e+01
2.130000e-06	1.309999e-06	4.183557e-10	9.128500e+00	2.918085e+01
2.140000e-06	1.355221e-06	4.365052e-10	9.443617e+00	3.050011e+01
2.150000e-06	1.400379e-06	4.534220e-10	9.758293e+00	3.180181e+01
2.160000e-06	1.445441e-06	4.714096e-10	1.007230e+01	3.308526e+01
2.170000e-06	1.490337e-06	4.904514e-10	1.038515e+01	3.434984e+01
2.180000e-06	1.535117e-06	5.100231e-10	1.069719e+01	3.559500e+01
2.190000e-06	1.579853e-06	5.299556e-10	1.100893e+01	3.682032e+01
2.200000e-06	1.624566e-06	5.475165e-10	1.132050e+01	3.802541e+01
2.210000e-06	1.669106e-06	5.618257e-10	1.163087e+01	3.921001e+01
2.220000e-06	1.713473e-06	5.748303e-10	1.194003e+01	4.037391e+01
2.230000e-06	1.757724e-06	5.904903e-10	1.224839e+01	4.151702e+01
2.240000e-06	1.801873e-06	6.077221e-10	1.255603e+01	4.263928e+01
2.250000e-06	1.845951e-06	6.233271e-10	1.286318e+01	4.374075e+01
2.260000e-06	1.889948e-06	6.375794e-10	1.316977e+01	4.482153e+01
2.270000e-06	1.933853e-06	6.523831e-10	1.347571e+01	4.588181e+01
2.280000e-06	1.977643e-06	6.694669e-10	1.378086e+01	4.692183e+01
2.290000e-06	2.021334e-06	6.854696e-10	1.408531e+01	4.794189e+01
2.300000e-06	2.065004e-06	7.010797e-10	1.438962e+01	4.894235e+01
2.310000e-06	2.108666e-06	7.161652e-10	1.469387e+01	4.992361e+01
2.320000e-06	2.152246e-06	7.299411e-10	1.499755e+01	5.088612e+01
2.330000e-06	2.195740e-06	7.428530e-10	1.530063e+01	5.183035e+01
2.340000e-06	2.239047e-06	7.548998e-10	1.560241e+01	5.275683e+01
2.350000e-06	2.282070e-06	7.686582e-10	1.590220e+01	5.366608e+01
2.360000e-06	2.324820e-06	7.858847e-10	1.620010e+01	5.455867e+01
2.370000e-06	2.367243e-06	8.037593e-10	1.649572e+01	5.543516e+01
2.380000e-06	2.409401e-06	8.179416e-10	1.678949e+01	5.629613e+01
2.390000e-06	2.451381e-06	8.299842e-10	1.708202e+01	5.714215e+01
2.400000e-06	2.493067e-06	8.413617e-10	1.737250e+01	5.797381e+01
2.410000e-06	2.534386e-06	8.509971e-10	1.766042e+01	5.879166e+01
2.420000e-06	2.575409e-06	8.599488e-10	1.794628e+01	5.959626e+01
2.430000e-06	2.616181e-06	8.731158e-10	1.823039e+01	6.038815e+01
2.440000e-06	2.656756e-06	8.896613e-10	1.851313e+01	6.116784e+01
2.450000e-06	2.697114e-06	9.042369e-10	1.879436e+01	6.193583e+01
2.460000e-06	2.737248e-06	9.161592e-10	1.907403e+01	6.269257e+01
2.470000e-06	2.777240e-06	9.280150e-10	1.935271e+01	6.343850e+01
2.480000e-06	2.817056e-06	9.383730e-10	1.963016e+01	6.417401e+01
2.490000e-06	2.856752e-06	9.460756e-10	1.990678e+01	6.489949e+01
2.500000e-06	2.896393e-06	9.526909e-10	2.018301e+01	6.561525e+01
2.510000e-06	2.935901e-06	9.603662e-10	2.045831e+01	6.632159e+01
2.520000e-06	2.975221e-06	9.724398e-10	2.073231e+01	6.701877e+01
2.530000e-06	3.014344e-06	9.875270e-10	2.100493e+01	6.770702e+01
2.540000e-06	3.053218e-06	1.000477e-09	2.127581e+01	6.838652e+01
2.550000e-06	3.091878e-06	1.009770e-09	2.154521e+01	6.905742e+01
2.560000e-06	3.130353e-06	1.017883e-09	2.181331e+01	6.971985e+01
2.570000e-06	3.168584e-06	1.024384e-09	2.207972e+01	7.037389e+01
2.580000e-06	3.206619e-06	1.029774e-09	2.234476e+01	7.101959e+01
2.590000e-06	3.244433e-06	1.037471e-09	2.260826e+01	7.165700e+01
2.600000e-06	3.281991e-06	1.047593e-09	2.286998e+01	7.228611e+01
2.610000e-06	3.319324e-06	1.058010e-09	2.313012e+01	7.290690e+01
2.620000e-06	3.356397e-06	1.065769e-09	2.338846e+01	7.351935e+01
2.630000e-06	3.393239e-06	1.072021e-09	2.364519e+01	7.412340e+01
2.640000e-06	3.429845e-06	1.077026e-09	2.390027e+01	7.471899e+01
2.650000e-06	3.466193e-06	1.082525e-09	2.415356e+01	7.530603e+01
2.660000e-06	3.502356e-06	1.089948e-09	2.440555e+01	7.588445e+01
2.670000e-06	3.538420e-06	1.096586e-09	2.465686e+01	7.645415e+01
2.680000e-06	3.574360e-06	1.103965e-09	2.490730e+01	7.701505e+01
2.690000e-06	3.610138e-06	1.113932e-09	2.515661e+01	7.756705e+01
2.700000e-06	3.645726e-06	1.125323e-09	2.540460e+01	7.811009e+01
2.710000e-06	3.681148e-06	1.134462e-09	2.565143e+01	7.864407e+01
2.720000e-06	3.716320e-06	1.140680e-09	2.589653e+01	7.916894e+01
2.730000e-06	3.751098e-06	1.146470e-09	2.613887e+01	7.968463e+01
2.740000e-06	3.785442e-06	1.151403e-09	2.637818e+01	8.019110e+01
2.750000e-06	3.819315e-06	1.155588e-09	2.661422e+01	8.068832e+01
2.760000e-06	3.852692e-06	1.161266e-09	2.684681e+01	8.117628e+01
2.770000e-06	3.885647e-06	1.168054e-09	2.707645e+01	8.165499e+01
2.780000e-06	3.918291e-06	1.175197e-09	2.730392e+01	8.212445e+01
2.790000e-06	3.950642e-06	1.183223e-09	2.752935e+01	8.258472e+01
2.800000e-06	3.982734e-06	1.191418e-09	2.775298e+01	8.303584e+01
2.810000e-06	4.014597e-06	1.197865e-09	2.797501e+01	8.347789e+01
2.820000e-06	4.046301e-06	1.202724e-09	2.819594e+01	8.391097e+01
2.830000e-06	4.077822e-06	1.207582e-09	2.841559e+01	8.433518e+01
2.840000e-06	4.109124e-06	1.213341e-09	2.863371e+01	8.475065e+01
2.850000e-06	4.140183e-06	1.221723e-09	2.885013e+01	8.515752e+01
2.860000e-06	4.170894e-06	1.231497e-09	2.906414e+01	8.555594e+01
2.870000e-06	4.201307e-06	1.240643e-09	2.927607e+01	8.594607e+01
2.880000e-06	4.231499e-06	1.249446e-09	2.948646e+01	8.632810e+01
2.890000e-06	4.261335e-06	1.256687e-09	2.969436e+01	8.670220e+01
2.900000e-06	4.290798e-06	1.262781e-09	2.989967e+01	8.706858e+01
