# Temperatura_=_-5.47
# Concentracion g/m^3_=_1620.0
# C_Vs_to_Am_M_A/Vsm_=_65563218390.804596
# pendiente_HvsI_1/m_=_3716.3
# ordenada_HvsI_A/m_=_1297.0
# frecuencia_Hz_=_135107.71481912467

Tiempo_(s)	Campo_(V.s)	Magnetizacion_(V.s)	Campo_(kA/m)	Magnetizacion_(A/m)
0.000000e+00	-5.496962e-06	-6.884149e-10	-3.836714e+01	-4.780173e+01
1.000000e-08	-5.497240e-06	-6.853135e-10	-3.836908e+01	-4.775266e+01
2.000000e-08	-5.497283e-06	-6.847884e-10	-3.836938e+01	-4.770810e+01
3.000000e-08	-5.496848e-06	-6.860234e-10	-3.836634e+01	-4.766806e+01
4.000000e-08	-5.495748e-06	-6.846310e-10	-3.835867e+01	-4.763255e+01
5.000000e-08	-5.494073e-06	-6.705446e-10	-3.834697e+01	-4.760152e+01
6.000000e-08	-5.491903e-06	-6.503570e-10	-3.833183e+01	-4.757492e+01
7.000000e-08	-5.489080e-06	-6.506142e-10	-3.831213e+01	-4.755265e+01
8.000000e-08	-5.485710e-06	-7.207938e-10	-3.828860e+01	-4.753459e+01
9.000000e-08	-5.482049e-06	-8.430589e-10	-3.826305e+01	-4.752059e+01
1.000000e-07	-5.477947e-06	-8.235947e-10	-3.823442e+01	-4.751047e+01
1.100000e-07	-5.473429e-06	-6.104968e-10	-3.820289e+01	-4.750403e+01
1.200000e-07	-5.468924e-06	-5.446405e-10	-3.817144e+01	-4.750104e+01
1.300000e-07	-5.464198e-06	-7.013889e-10	-3.813846e+01	-4.750126e+01
1.400000e-07	-5.458913e-06	-8.036767e-10	-3.810157e+01	-4.750441e+01
1.500000e-07	-5.453210e-06	-6.374297e-10	-3.806177e+01	-4.751021e+01
1.600000e-07	-5.447238e-06	-5.524237e-10	-3.802008e+01	-4.751835e+01
1.700000e-07	-5.440840e-06	-7.440003e-10	-3.797542e+01	-4.752851e+01
1.800000e-07	-5.433823e-06	-8.690286e-10	-3.792645e+01	-4.754036e+01
1.900000e-07	-5.426454e-06	-6.880534e-10	-3.787501e+01	-4.755355e+01
2.000000e-07	-5.418960e-06	-5.298582e-10	-3.782271e+01	-4.756773e+01
2.100000e-07	-5.411265e-06	-6.642012e-10	-3.776900e+01	-4.758255e+01
2.200000e-07	-5.403269e-06	-8.327132e-10	-3.771319e+01	-4.759763e+01
2.300000e-07	-5.395039e-06	-7.826184e-10	-3.765575e+01	-4.761261e+01
2.400000e-07	-5.386396e-06	-6.781094e-10	-3.759542e+01	-4.762713e+01
2.500000e-07	-5.376951e-06	-7.335193e-10	-3.752950e+01	-4.764081e+01
2.600000e-07	-5.366681e-06	-7.866283e-10	-3.745782e+01	-4.765331e+01
2.700000e-07	-5.355925e-06	-7.242530e-10	-3.738275e+01	-4.766426e+01
2.800000e-07	-5.344710e-06	-6.762244e-10	-3.730447e+01	-4.767332e+01
2.900000e-07	-5.333002e-06	-7.506708e-10	-3.722275e+01	-4.768015e+01
3.000000e-07	-5.321086e-06	-7.805226e-10	-3.713958e+01	-4.768442e+01
3.100000e-07	-5.308853e-06	-7.299548e-10	-3.705420e+01	-4.768583e+01
3.200000e-07	-5.296041e-06	-6.987963e-10	-3.696477e+01	-4.768407e+01
3.300000e-07	-5.282881e-06	-7.521101e-10	-3.687292e+01	-4.767887e+01
3.400000e-07	-5.269502e-06	-7.658473e-10	-3.677953e+01	-4.766996e+01
3.500000e-07	-5.255620e-06	-7.164885e-10	-3.668264e+01	-4.765710e+01
3.600000e-07	-5.241070e-06	-7.026692e-10	-3.658109e+01	-4.764005e+01
3.700000e-07	-5.226156e-06	-7.666534e-10	-3.647699e+01	-4.761862e+01
3.800000e-07	-5.210791e-06	-7.558659e-10	-3.636975e+01	-4.759261e+01
3.900000e-07	-5.194675e-06	-6.871041e-10	-3.625727e+01	-4.756187e+01
4.000000e-07	-5.178168e-06	-7.187220e-10	-3.614206e+01	-4.752625e+01
4.100000e-07	-5.161518e-06	-7.754578e-10	-3.602584e+01	-4.748564e+01
4.200000e-07	-5.144525e-06	-6.939533e-10	-3.590724e+01	-4.743994e+01
4.300000e-07	-5.127182e-06	-6.598604e-10	-3.578619e+01	-4.738908e+01
4.400000e-07	-5.109609e-06	-7.793498e-10	-3.566353e+01	-4.733302e+01
4.500000e-07	-5.091584e-06	-7.729427e-10	-3.553772e+01	-4.727171e+01
4.600000e-07	-5.072988e-06	-6.420406e-10	-3.540793e+01	-4.720517e+01
4.700000e-07	-5.054064e-06	-6.889157e-10	-3.527584e+01	-4.713341e+01
4.800000e-07	-5.034832e-06	-7.851195e-10	-3.514161e+01	-4.705647e+01
4.900000e-07	-5.015273e-06	-6.965513e-10	-3.500509e+01	-4.697440e+01
5.000000e-07	-4.995602e-06	-6.630506e-10	-3.486780e+01	-4.688730e+01
5.100000e-07	-4.975843e-06	-7.477364e-10	-3.472989e+01	-4.679525e+01
5.200000e-07	-4.955724e-06	-7.049592e-10	-3.458946e+01	-4.669839e+01
5.300000e-07	-4.935132e-06	-6.481022e-10	-3.444573e+01	-4.659684e+01
5.400000e-07	-4.914150e-06	-7.541118e-10	-3.429929e+01	-4.649076e+01
5.500000e-07	-4.892802e-06	-7.573344e-10	-3.415028e+01	-4.638031e+01
5.600000e-07	-4.871112e-06	-6.390367e-10	-3.399890e+01	-4.626568e+01
5.700000e-07	-4.849153e-06	-6.798860e-10	-3.384562e+01	-4.614706e+01
5.800000e-07	-4.826920e-06	-7.587939e-10	-3.369044e+01	-4.602465e+01
5.900000e-07	-4.804319e-06	-6.765873e-10	-3.353270e+01	-4.589867e+01
6.000000e-07	-4.781362e-06	-6.534150e-10	-3.337247e+01	-4.576935e+01
6.100000e-07	-4.758078e-06	-7.230033e-10	-3.320995e+01	-4.563691e+01
6.200000e-07	-4.734546e-06	-6.912954e-10	-3.304571e+01	-4.550159e+01
6.300000e-07	-4.710868e-06	-6.435212e-10	-3.288044e+01	-4.536363e+01
6.400000e-07	-4.686965e-06	-6.941254e-10	-3.271360e+01	-4.522328e+01
6.500000e-07	-4.662571e-06	-6.990634e-10	-3.254334e+01	-4.508077e+01
6.600000e-07	-4.637725e-06	-6.615267e-10	-3.236993e+01	-4.493636e+01
6.700000e-07	-4.612466e-06	-6.861988e-10	-3.219362e+01	-4.479028e+01
6.800000e-07	-4.586619e-06	-7.050495e-10	-3.201322e+01	-4.464277e+01
6.900000e-07	-4.560149e-06	-6.768424e-10	-3.182847e+01	-4.449406e+01
7.000000e-07	-4.533151e-06	-6.783909e-10	-3.164003e+01	-4.434439e+01
7.100000e-07	-4.505882e-06	-6.870399e-10	-3.144970e+01	-4.419396e+01
7.200000e-07	-4.478440e-06	-6.692056e-10	-3.125816e+01	-4.404301e+01
7.300000e-07	-4.450830e-06	-6.691631e-10	-3.106545e+01	-4.389171e+01
7.400000e-07	-4.423042e-06	-6.821859e-10	-3.087150e+01	-4.374027e+01
7.500000e-07	-4.395040e-06	-6.740713e-10	-3.067605e+01	-4.358886e+01
7.600000e-07	-4.366836e-06	-6.655785e-10	-3.047920e+01	-4.343765e+01
7.700000e-07	-4.338333e-06	-6.646364e-10	-3.028026e+01	-4.328678e+01
7.800000e-07	-4.309447e-06	-6.547048e-10	-3.007864e+01	-4.313639e+01
7.900000e-07	-4.280242e-06	-6.563157e-10	-2.987480e+01	-4.298660e+01
8.000000e-07	-4.250762e-06	-6.618340e-10	-2.966904e+01	-4.283751e+01
8.100000e-07	-4.221010e-06	-6.487752e-10	-2.946138e+01	-4.268920e+01
8.200000e-07	-4.190970e-06	-6.380308e-10	-2.925171e+01	-4.254174e+01
8.300000e-07	-4.160606e-06	-6.489002e-10	-2.903977e+01	-4.239518e+01
8.400000e-07	-4.129863e-06	-6.496632e-10	-2.882520e+01	-4.224955e+01
8.500000e-07	-4.098865e-06	-6.368154e-10	-2.860884e+01	-4.210486e+01
8.600000e-07	-4.067688e-06	-6.371100e-10	-2.839124e+01	-4.196110e+01
8.700000e-07	-4.036338e-06	-6.412238e-10	-2.817242e+01	-4.181825e+01
8.800000e-07	-4.004784e-06	-6.312156e-10	-2.795219e+01	-4.167627e+01
8.900000e-07	-3.972992e-06	-6.292219e-10	-2.773029e+01	-4.153509e+01
9.000000e-07	-3.940966e-06	-6.301946e-10	-2.750675e+01	-4.139463e+01
9.100000e-07	-3.908638e-06	-6.199510e-10	-2.728112e+01	-4.125480e+01
9.200000e-07	-3.875970e-06	-6.107138e-10	-2.705310e+01	-4.111549e+01
9.300000e-07	-3.842956e-06	-6.177565e-10	-2.682267e+01	-4.097657e+01
9.400000e-07	-3.809495e-06	-6.149884e-10	-2.658913e+01	-4.083790e+01
9.500000e-07	-3.775460e-06	-6.039297e-10	-2.635157e+01	-4.069932e+01
9.600000e-07	-3.740969e-06	-6.024718e-10	-2.611084e+01	-4.056066e+01
9.700000e-07	-3.706145e-06	-6.030384e-10	-2.586778e+01	-4.042175e+01
9.800000e-07	-3.670971e-06	-5.953124e-10	-2.562227e+01	-4.028240e+01
9.900000e-07	-3.635508e-06	-5.940972e-10	-2.537475e+01	-4.014241e+01
1.000000e-06	-3.599927e-06	-5.985652e-10	-2.512641e+01	-4.000157e+01
1.010000e-06	-3.564289e-06	-5.938770e-10	-2.487766e+01	-3.985967e+01
1.020000e-06	-3.528561e-06	-5.879756e-10	-2.462829e+01	-3.971651e+01
1.030000e-06	-3.492666e-06	-5.880984e-10	-2.437775e+01	-3.957185e+01
1.040000e-06	-3.456526e-06	-5.867305e-10	-2.412551e+01	-3.942547e+01
1.050000e-06	-3.420146e-06	-5.824681e-10	-2.387159e+01	-3.927717e+01
1.060000e-06	-3.383431e-06	-5.811302e-10	-2.361533e+01	-3.912671e+01
1.070000e-06	-3.346413e-06	-5.791425e-10	-2.335696e+01	-3.897388e+01
1.080000e-06	-3.309200e-06	-5.749144e-10	-2.309722e+01	-3.881846e+01
1.090000e-06	-3.271773e-06	-5.718888e-10	-2.283599e+01	-3.866025e+01
1.100000e-06	-3.234165e-06	-5.694925e-10	-2.257349e+01	-3.849905e+01
1.110000e-06	-3.196307e-06	-5.627202e-10	-2.230926e+01	-3.833465e+01
1.120000e-06	-3.158173e-06	-5.578769e-10	-2.204310e+01	-3.816688e+01
1.130000e-06	-3.119778e-06	-5.564204e-10	-2.177511e+01	-3.799556e+01
1.140000e-06	-3.081234e-06	-5.561751e-10	-2.150608e+01	-3.782051e+01
1.150000e-06	-3.042491e-06	-5.534724e-10	-2.123567e+01	-3.764159e+01
1.160000e-06	-3.003507e-06	-5.516272e-10	-2.096358e+01	-3.745865e+01
1.170000e-06	-2.964333e-06	-5.519644e-10	-2.069015e+01	-3.727156e+01
1.180000e-06	-2.924977e-06	-5.529124e-10	-2.041546e+01	-3.708019e+01
1.190000e-06	-2.885508e-06	-5.498185e-10	-2.013997e+01	-3.688444e+01
1.200000e-06	-2.845925e-06	-5.444191e-10	-1.986370e+01	-3.668421e+01
1.210000e-06	-2.806223e-06	-5.386903e-10	-1.958659e+01	-3.647942e+01
1.220000e-06	-2.766379e-06	-5.344411e-10	-1.930849e+01	-3.626999e+01
1.230000e-06	-2.726412e-06	-5.307847e-10	-1.902954e+01	-3.605587e+01
1.240000e-06	-2.686289e-06	-5.271318e-10	-1.874949e+01	-3.583699e+01
1.250000e-06	-2.645949e-06	-5.232506e-10	-1.846792e+01	-3.561332e+01
1.260000e-06	-2.605429e-06	-5.182349e-10	-1.818511e+01	-3.538482e+01
1.270000e-06	-2.564654e-06	-5.140098e-10	-1.790052e+01	-3.515147e+01
1.280000e-06	-2.523488e-06	-5.134860e-10	-1.761319e+01	-3.491323e+01
1.290000e-06	-2.481997e-06	-5.128273e-10	-1.732359e+01	-3.467011e+01
1.300000e-06	-2.440293e-06	-5.123480e-10	-1.703251e+01	-3.442207e+01
1.310000e-06	-2.398276e-06	-5.100119e-10	-1.673924e+01	-3.416911e+01
1.320000e-06	-2.355881e-06	-5.050868e-10	-1.644334e+01	-3.391122e+01
1.330000e-06	-2.313210e-06	-5.006070e-10	-1.614551e+01	-3.364838e+01
1.340000e-06	-2.270338e-06	-4.973097e-10	-1.584627e+01	-3.338057e+01
1.350000e-06	-2.227330e-06	-4.955530e-10	-1.554610e+01	-3.310777e+01
1.360000e-06	-2.184144e-06	-4.928221e-10	-1.524467e+01	-3.282994e+01
1.370000e-06	-2.140753e-06	-4.906336e-10	-1.494181e+01	-3.254705e+01
1.380000e-06	-2.097282e-06	-4.884064e-10	-1.463840e+01	-3.225904e+01
1.390000e-06	-2.053743e-06	-4.843678e-10	-1.433451e+01	-3.196585e+01
1.400000e-06	-2.010097e-06	-4.794322e-10	-1.402987e+01	-3.166739e+01
1.410000e-06	-1.966390e-06	-4.759042e-10	-1.372481e+01	-3.136359e+01
1.420000e-06	-1.922640e-06	-4.724579e-10	-1.341945e+01	-3.105432e+01
1.430000e-06	-1.878769e-06	-4.688620e-10	-1.311324e+01	-3.073946e+01
1.440000e-06	-1.834780e-06	-4.652667e-10	-1.280621e+01	-3.041885e+01
1.450000e-06	-1.790712e-06	-4.597513e-10	-1.249863e+01	-3.009233e+01
1.460000e-06	-1.746519e-06	-4.551695e-10	-1.219017e+01	-2.975972e+01
1.470000e-06	-1.702209e-06	-4.513648e-10	-1.188091e+01	-2.942079e+01
1.480000e-06	-1.657811e-06	-4.456427e-10	-1.157102e+01	-2.907532e+01
1.490000e-06	-1.613317e-06	-4.393155e-10	-1.126047e+01	-2.872305e+01
1.500000e-06	-1.568611e-06	-4.327084e-10	-1.094843e+01	-2.836371e+01
1.510000e-06	-1.523662e-06	-4.229885e-10	-1.063470e+01	-2.799701e+01
1.520000e-06	-1.478623e-06	-4.130456e-10	-1.032034e+01	-2.762261e+01
1.530000e-06	-1.433565e-06	-4.051025e-10	-1.000586e+01	-2.724019e+01
1.540000e-06	-1.388451e-06	-3.967427e-10	-9.690972e+00	-2.684939e+01
1.550000e-06	-1.343263e-06	-3.922650e-10	-9.375569e+00	-2.644984e+01
1.560000e-06	-1.297947e-06	-3.912197e-10	-9.059276e+00	-2.604116e+01
1.570000e-06	-1.252472e-06	-3.872288e-10	-8.741879e+00	-2.562294e+01
1.580000e-06	-1.206889e-06	-3.792269e-10	-8.423720e+00	-2.519477e+01
1.590000e-06	-1.161228e-06	-3.719725e-10	-8.105021e+00	-2.475623e+01
1.600000e-06	-1.115533e-06	-3.630633e-10	-7.786086e+00	-2.430690e+01
1.610000e-06	-1.069802e-06	-3.542177e-10	-7.466896e+00	-2.384635e+01
1.620000e-06	-1.023967e-06	-3.494339e-10	-7.146982e+00	-2.337414e+01
1.630000e-06	-9.779726e-07	-3.479460e-10	-6.825954e+00	-2.288986e+01
1.640000e-06	-9.318422e-07	-3.444362e-10	-6.503978e+00	-2.239308e+01
1.650000e-06	-8.856822e-07	-3.337370e-10	-6.181795e+00	-2.188338e+01
1.660000e-06	-8.395788e-07	-3.186150e-10	-5.860007e+00	-2.136038e+01
1.670000e-06	-7.934020e-07	-3.027874e-10	-5.537707e+00	-2.082369e+01
1.680000e-06	-7.470821e-07	-2.895292e-10	-5.214408e+00	-2.027294e+01
1.690000e-06	-7.008092e-07	-2.826774e-10	-4.891437e+00	-1.970780e+01
1.700000e-06	-6.545018e-07	-2.772341e-10	-4.568226e+00	-1.912795e+01
1.710000e-06	-6.080723e-07	-2.722738e-10	-4.244161e+00	-1.853312e+01
1.720000e-06	-5.617102e-07	-2.638879e-10	-3.920568e+00	-1.792304e+01
1.730000e-06	-5.153408e-07	-2.497759e-10	-3.596923e+00	-1.729750e+01
1.740000e-06	-4.688890e-07	-2.334530e-10	-3.272704e+00	-1.665633e+01
1.750000e-06	-4.224208e-07	-2.196353e-10	-2.948370e+00	-1.599941e+01
1.760000e-06	-3.759019e-07	-2.100001e-10	-2.623682e+00	-1.532662e+01
1.770000e-06	-3.293558e-07	-2.034551e-10	-2.298804e+00	-1.463795e+01
1.780000e-06	-2.827837e-07	-1.973161e-10	-1.973745e+00	-1.393339e+01
1.790000e-06	-2.361545e-07	-1.875692e-10	-1.648287e+00	-1.321300e+01
1.800000e-06	-1.895360e-07	-1.770420e-10	-1.322904e+00	-1.247689e+01
1.810000e-06	-1.429316e-07	-1.656245e-10	-9.976197e-01	-1.172523e+01
1.820000e-06	-9.632250e-08	-1.523775e-10	-6.723021e-01	-1.095823e+01
1.830000e-06	-4.973267e-08	-1.387053e-10	-3.471191e-01	-1.017616e+01
1.840000e-06	-3.191251e-09	-1.253569e-10	-2.227397e-02	-9.379366e+00
1.850000e-06	4.333988e-08	-1.114570e-10	3.024993e-01	-8.568215e+00
1.860000e-06	8.991871e-08	-1.012082e-10	6.276055e-01	-7.743147e+00
1.870000e-06	1.365256e-07	-9.250150e-11	9.529077e-01	-6.904653e+00
1.880000e-06	1.831627e-07	-8.294617e-11	1.278420e+00	-6.053275e+00
1.890000e-06	2.297929e-07	-7.062620e-11	1.603885e+00	-5.189607e+00
1.900000e-06	2.763628e-07	-5.706936e-11	1.928929e+00	-4.314288e+00
1.910000e-06	3.228877e-07	-4.327639e-11	2.253659e+00	-3.428008e+00
1.920000e-06	3.693542e-07	-2.894348e-11	2.577981e+00	-2.531496e+00
1.930000e-06	4.158150e-07	-1.672687e-11	2.902263e+00	-1.625524e+00
1.940000e-06	4.623004e-07	-5.626069e-12	3.226718e+00	-7.109025e-01
1.950000e-06	5.087092e-07	4.014671e-12	3.550637e+00	2.115262e-01
1.960000e-06	5.550431e-07	1.334185e-11	3.874033e+00	1.140888e+00
1.970000e-06	6.013061e-07	2.423890e-11	4.196935e+00	2.076282e+00
1.980000e-06	6.475459e-07	3.579436e-11	4.519676e+00	3.016787e+00
1.990000e-06	6.937292e-07	5.048069e-11	4.842021e+00	3.961459e+00
2.000000e-06	7.398624e-07	6.478747e-11	5.164017e+00	4.909344e+00
2.010000e-06	7.860115e-07	8.072914e-11	5.486124e+00	5.859477e+00
2.020000e-06	8.321075e-07	9.787327e-11	5.807859e+00	6.810887e+00
2.030000e-06	8.781163e-07	1.132727e-10	6.128987e+00	7.762601e+00
2.040000e-06	9.241460e-07	1.247303e-10	6.450261e+00	8.713653e+00
2.050000e-06	9.701520e-07	1.341298e-10	6.771369e+00	9.663080e+00
2.060000e-06	1.015995e-06	1.454926e-10	7.091341e+00	1.060994e+01
2.070000e-06	1.061696e-06	1.588243e-10	7.410317e+00	1.155329e+01
2.080000e-06	1.107385e-06	1.751271e-10	7.729215e+00	1.249222e+01
2.090000e-06	1.153036e-06	1.927572e-10	8.047844e+00	1.342584e+01
2.100000e-06	1.198539e-06	2.124048e-10	8.365438e+00	1.435330e+01
2.110000e-06	1.243993e-06	2.278199e-10	8.682694e+00	1.527376e+01
2.120000e-06	1.289354e-06	2.376754e-10	8.999304e+00	1.618642e+01
2.130000e-06	1.334605e-06	2.468153e-10	9.315143e+00	1.709052e+01
2.140000e-06	1.379693e-06	2.575108e-10	9.629838e+00	1.798534e+01
2.150000e-06	1.424620e-06	2.699366e-10	9.943416e+00	1.887021e+01
2.160000e-06	1.469554e-06	2.852716e-10	1.025704e+01	1.974447e+01
2.170000e-06	1.514433e-06	3.024379e-10	1.057029e+01	2.060755e+01
2.180000e-06	1.559132e-06	3.213742e-10	1.088227e+01	2.145888e+01
2.190000e-06	1.603696e-06	3.335899e-10	1.119332e+01	2.229798e+01
2.200000e-06	1.648189e-06	3.394231e-10	1.150386e+01	2.312439e+01
2.210000e-06	1.692486e-06	3.447947e-10	1.181304e+01	2.393770e+01
2.220000e-06	1.736602e-06	3.528586e-10	1.212096e+01	2.473755e+01
2.230000e-06	1.780679e-06	3.655568e-10	1.242860e+01	2.552363e+01
2.240000e-06	1.824663e-06	3.781507e-10	1.273560e+01	2.629567e+01
2.250000e-06	1.868547e-06	3.911184e-10	1.304190e+01	2.705346e+01
2.260000e-06	1.912376e-06	4.023954e-10	1.334781e+01	2.779680e+01
2.270000e-06	1.956142e-06	4.150106e-10	1.365328e+01	2.852558e+01
2.280000e-06	1.999862e-06	4.263116e-10	1.395844e+01	2.923968e+01
2.290000e-06	2.043510e-06	4.365690e-10	1.426308e+01	2.993905e+01
2.300000e-06	2.087057e-06	4.482587e-10	1.456703e+01	3.062366e+01
2.310000e-06	2.130504e-06	4.596972e-10	1.487028e+01	3.129353e+01
2.320000e-06	2.173901e-06	4.714581e-10	1.517318e+01	3.194870e+01
2.330000e-06	2.217247e-06	4.812884e-10	1.547572e+01	3.258923e+01
2.340000e-06	2.260484e-06	4.895306e-10	1.577750e+01	3.321521e+01
2.350000e-06	2.303483e-06	4.998888e-10	1.607762e+01	3.382677e+01
2.360000e-06	2.346165e-06	5.125142e-10	1.637552e+01	3.442403e+01
2.370000e-06	2.388546e-06	5.209087e-10	1.667133e+01	3.500715e+01
2.380000e-06	2.430638e-06	5.251690e-10	1.696512e+01	3.557629e+01
2.390000e-06	2.472434e-06	5.295078e-10	1.725684e+01	3.613164e+01
2.400000e-06	2.513803e-06	5.352942e-10	1.754559e+01	3.667337e+01
2.410000e-06	2.554816e-06	5.414943e-10	1.783185e+01	3.720168e+01
2.420000e-06	2.595662e-06	5.500030e-10	1.811694e+01	3.771677e+01
2.430000e-06	2.636254e-06	5.644190e-10	1.840026e+01	3.821882e+01
2.440000e-06	2.676540e-06	5.776790e-10	1.868144e+01	3.870805e+01
2.450000e-06	2.716620e-06	5.840958e-10	1.896119e+01	3.918465e+01
2.460000e-06	2.756522e-06	5.911833e-10	1.923970e+01	3.964880e+01
2.470000e-06	2.796293e-06	5.989091e-10	1.951728e+01	4.010070e+01
2.480000e-06	2.835973e-06	6.046359e-10	1.979424e+01	4.054052e+01
2.490000e-06	2.875556e-06	6.098122e-10	2.007052e+01	4.096844e+01
2.500000e-06	2.915036e-06	6.146892e-10	2.034607e+01	4.138462e+01
2.510000e-06	2.954375e-06	6.208445e-10	2.062065e+01	4.178923e+01
2.520000e-06	2.993507e-06	6.285168e-10	2.089378e+01	4.218240e+01
2.530000e-06	3.032425e-06	6.346782e-10	2.116542e+01	4.256428e+01
2.540000e-06	3.071076e-06	6.381503e-10	2.143519e+01	4.293501e+01
2.550000e-06	3.109453e-06	6.422594e-10	2.170304e+01	4.329469e+01
2.560000e-06	3.147617e-06	6.474400e-10	2.196942e+01	4.364346e+01
2.570000e-06	3.185623e-06	6.505008e-10	2.223469e+01	4.398141e+01
2.580000e-06	3.223467e-06	6.527089e-10	2.249883e+01	4.430866e+01
2.590000e-06	3.261095e-06	6.569690e-10	2.276146e+01	4.462529e+01
2.600000e-06	3.298577e-06	6.642119e-10	2.302308e+01	4.493141e+01
2.610000e-06	3.335804e-06	6.703698e-10	2.328291e+01	4.522710e+01
2.620000e-06	3.372724e-06	6.720878e-10	2.354060e+01	4.551247e+01
2.630000e-06	3.409414e-06	6.737080e-10	2.379668e+01	4.578760e+01
2.640000e-06	3.445794e-06	6.770713e-10	2.405061e+01	4.605258e+01
2.650000e-06	3.481869e-06	6.807161e-10	2.430240e+01	4.630751e+01
2.660000e-06	3.517825e-06	6.836586e-10	2.455336e+01	4.655250e+01
2.670000e-06	3.553665e-06	6.858108e-10	2.480351e+01	4.678765e+01
2.680000e-06	3.589303e-06	6.878472e-10	2.505225e+01	4.701309e+01
2.690000e-06	3.624816e-06	6.897840e-10	2.530012e+01	4.722892e+01
2.700000e-06	3.660209e-06	6.912940e-10	2.554716e+01	4.743530e+01
2.710000e-06	3.695426e-06	6.911677e-10	2.579296e+01	4.763237e+01
2.720000e-06	3.730419e-06	6.910853e-10	2.603720e+01	4.782028e+01
2.730000e-06	3.765038e-06	6.932847e-10	2.627883e+01	4.799920e+01
2.740000e-06	3.799194e-06	6.959360e-10	2.651723e+01	4.816932e+01
2.750000e-06	3.832837e-06	6.968582e-10	2.675205e+01	4.833085e+01
2.760000e-06	3.865905e-06	6.985135e-10	2.698286e+01	4.848398e+01
2.770000e-06	3.898514e-06	7.029522e-10	2.721045e+01	4.862894e+01
2.780000e-06	3.930777e-06	7.069974e-10	2.743564e+01	4.876598e+01
2.790000e-06	3.962822e-06	7.097308e-10	2.765930e+01	4.889535e+01
2.800000e-06	3.994705e-06	7.128509e-10	2.788184e+01	4.901732e+01
2.810000e-06	4.026370e-06	7.143561e-10	2.810285e+01	4.913215e+01
2.820000e-06	4.057860e-06	7.130672e-10	2.832264e+01	4.924015e+01
2.830000e-06	4.089190e-06	7.129773e-10	2.854131e+01	4.934160e+01
2.840000e-06	4.120265e-06	7.159615e-10	2.875821e+01	4.943683e+01
2.850000e-06	4.151047e-06	7.201291e-10	2.897306e+01	4.952614e+01
2.860000e-06	4.181470e-06	7.227183e-10	2.918540e+01	4.960986e+01
2.870000e-06	4.211579e-06	7.238123e-10	2.939555e+01	4.968830e+01
2.880000e-06	4.241432e-06	7.259552e-10	2.960392e+01	4.976181e+01
2.890000e-06	4.271008e-06	7.301628e-10	2.981035e+01	4.983070e+01
2.900000e-06	4.300330e-06	7.327981e-10	3.001501e+01	4.989531e+01
