# Temperatura_=_-1.1
# Concentracion g/m^3_=_1620.0
# C_Vs_to_Am_M_A/Vsm_=_65563218390.804596
# pendiente_HvsI_1/m_=_3716.3
# ordenada_HvsI_A/m_=_1297.0
# frecuencia_Hz_=_135104.3135249337

Tiempo_(s)	Campo_(V.s)	Magnetizacion_(V.s)	Campo_(kA/m)	Magnetizacion_(A/m)
0.000000e+00	-5.519635e-06	-1.134197e-09	-3.837596e+01	-7.630059e+01
1.000000e-08	-5.519961e-06	-1.131586e-09	-3.837823e+01	-7.627146e+01
2.000000e-08	-5.520018e-06	-1.131667e-09	-3.837863e+01	-7.624151e+01
3.000000e-08	-5.519760e-06	-1.133108e-09	-3.837684e+01	-7.621060e+01
4.000000e-08	-5.519101e-06	-1.130313e-09	-3.837226e+01	-7.617858e+01
5.000000e-08	-5.517875e-06	-1.120003e-09	-3.836373e+01	-7.614530e+01
6.000000e-08	-5.516193e-06	-1.105947e-09	-3.835204e+01	-7.611060e+01
7.000000e-08	-5.513998e-06	-1.109725e-09	-3.833678e+01	-7.607432e+01
8.000000e-08	-5.511057e-06	-1.154360e-09	-3.831632e+01	-7.603631e+01
9.000000e-08	-5.507587e-06	-1.187230e-09	-3.829220e+01	-7.599639e+01
1.000000e-07	-5.503722e-06	-1.159410e-09	-3.826533e+01	-7.595442e+01
1.100000e-07	-5.499476e-06	-1.136755e-09	-3.823581e+01	-7.591023e+01
1.200000e-07	-5.494971e-06	-1.147323e-09	-3.820448e+01	-7.586367e+01
1.300000e-07	-5.490217e-06	-1.110132e-09	-3.817144e+01	-7.581459e+01
1.400000e-07	-5.485161e-06	-1.084107e-09	-3.813628e+01	-7.576285e+01
1.500000e-07	-5.479751e-06	-1.096264e-09	-3.809867e+01	-7.570832e+01
1.600000e-07	-5.473938e-06	-1.150355e-09	-3.805825e+01	-7.565085e+01
1.700000e-07	-5.467725e-06	-1.144834e-09	-3.801506e+01	-7.559034e+01
1.800000e-07	-5.461128e-06	-1.110027e-09	-3.796919e+01	-7.552667e+01
1.900000e-07	-5.454140e-06	-1.137181e-09	-3.792060e+01	-7.545974e+01
2.000000e-07	-5.446778e-06	-1.142854e-09	-3.786942e+01	-7.538945e+01
2.100000e-07	-5.439082e-06	-1.137074e-09	-3.781591e+01	-7.531571e+01
2.200000e-07	-5.431135e-06	-1.117744e-09	-3.776066e+01	-7.523847e+01
2.300000e-07	-5.422948e-06	-1.161239e-09	-3.770374e+01	-7.515765e+01
2.400000e-07	-5.414400e-06	-1.170909e-09	-3.764431e+01	-7.507319e+01
2.500000e-07	-5.405381e-06	-1.160948e-09	-3.758160e+01	-7.498507e+01
2.600000e-07	-5.395823e-06	-1.128268e-09	-3.751515e+01	-7.489323e+01
2.700000e-07	-5.385523e-06	-1.128081e-09	-3.744354e+01	-7.479766e+01
2.800000e-07	-5.374475e-06	-1.127033e-09	-3.736672e+01	-7.469834e+01
2.900000e-07	-5.363054e-06	-1.139502e-09	-3.728732e+01	-7.459526e+01
3.000000e-07	-5.351341e-06	-1.126148e-09	-3.720588e+01	-7.448842e+01
3.100000e-07	-5.339229e-06	-1.104208e-09	-3.712167e+01	-7.437783e+01
3.200000e-07	-5.326650e-06	-1.110413e-09	-3.703422e+01	-7.426350e+01
3.300000e-07	-5.313633e-06	-1.127214e-09	-3.694371e+01	-7.414546e+01
3.400000e-07	-5.300252e-06	-1.109343e-09	-3.685068e+01	-7.402372e+01
3.500000e-07	-5.286422e-06	-1.090838e-09	-3.675452e+01	-7.389833e+01
3.600000e-07	-5.272216e-06	-1.135789e-09	-3.665576e+01	-7.376930e+01
3.700000e-07	-5.257737e-06	-1.135620e-09	-3.655508e+01	-7.363669e+01
3.800000e-07	-5.242696e-06	-1.097166e-09	-3.645051e+01	-7.350052e+01
3.900000e-07	-5.226962e-06	-1.108296e-09	-3.634112e+01	-7.336085e+01
4.000000e-07	-5.210769e-06	-1.141896e-09	-3.622853e+01	-7.321772e+01
4.100000e-07	-5.194153e-06	-1.077217e-09	-3.611301e+01	-7.307118e+01
4.200000e-07	-5.177136e-06	-1.070171e-09	-3.599470e+01	-7.292126e+01
4.300000e-07	-5.159908e-06	-1.139871e-09	-3.587492e+01	-7.276803e+01
4.400000e-07	-5.142330e-06	-1.122907e-09	-3.575270e+01	-7.261153e+01
4.500000e-07	-5.124264e-06	-1.053199e-09	-3.562710e+01	-7.245180e+01
4.600000e-07	-5.105915e-06	-1.119729e-09	-3.549952e+01	-7.228889e+01
4.700000e-07	-5.087249e-06	-1.139070e-09	-3.536975e+01	-7.212286e+01
4.800000e-07	-5.068167e-06	-1.050704e-09	-3.523708e+01	-7.195374e+01
4.900000e-07	-5.048736e-06	-1.065223e-09	-3.510198e+01	-7.178159e+01
5.000000e-07	-5.029080e-06	-1.142763e-09	-3.496532e+01	-7.160644e+01
5.100000e-07	-5.009241e-06	-1.069145e-09	-3.482738e+01	-7.142835e+01
5.200000e-07	-4.989097e-06	-1.038809e-09	-3.468733e+01	-7.124735e+01
5.300000e-07	-4.968601e-06	-1.127934e-09	-3.454483e+01	-7.106350e+01
5.400000e-07	-4.947789e-06	-1.104863e-09	-3.440013e+01	-7.087682e+01
5.500000e-07	-4.926641e-06	-1.024175e-09	-3.425310e+01	-7.068738e+01
5.600000e-07	-4.905146e-06	-1.087145e-09	-3.410365e+01	-7.049521e+01
5.700000e-07	-4.883319e-06	-1.110085e-09	-3.395190e+01	-7.030035e+01
5.800000e-07	-4.861083e-06	-1.029850e-09	-3.379730e+01	-7.010285e+01
5.900000e-07	-4.838549e-06	-1.055263e-09	-3.364063e+01	-6.990276e+01
6.000000e-07	-4.815760e-06	-1.108690e-09	-3.348218e+01	-6.970011e+01
6.100000e-07	-4.792561e-06	-1.040779e-09	-3.332089e+01	-6.949496e+01
6.200000e-07	-4.769076e-06	-1.020038e-09	-3.315761e+01	-6.928735e+01
6.300000e-07	-4.745442e-06	-1.077090e-09	-3.299329e+01	-6.907733e+01
6.400000e-07	-4.721558e-06	-1.046220e-09	-3.282723e+01	-6.886495e+01
6.500000e-07	-4.697276e-06	-1.015002e-09	-3.265841e+01	-6.865026e+01
6.600000e-07	-4.672663e-06	-1.058184e-09	-3.248729e+01	-6.843331e+01
6.700000e-07	-4.647661e-06	-1.053794e-09	-3.231346e+01	-6.821415e+01
6.800000e-07	-4.622168e-06	-1.009125e-09	-3.213621e+01	-6.799282e+01
6.900000e-07	-4.596123e-06	-1.033113e-09	-3.195513e+01	-6.776939e+01
7.000000e-07	-4.569474e-06	-1.039025e-09	-3.176985e+01	-6.754390e+01
7.100000e-07	-4.542403e-06	-1.003825e-09	-3.158164e+01	-6.731641e+01
7.200000e-07	-4.515070e-06	-1.011304e-09	-3.139160e+01	-6.708695e+01
7.300000e-07	-4.487522e-06	-1.032469e-09	-3.120007e+01	-6.685558e+01
7.400000e-07	-4.459751e-06	-1.000918e-09	-3.100699e+01	-6.662234e+01
7.500000e-07	-4.431785e-06	-9.910499e-10	-3.081255e+01	-6.638728e+01
7.600000e-07	-4.403598e-06	-1.001581e-09	-3.061658e+01	-6.615042e+01
7.700000e-07	-4.375115e-06	-9.864647e-10	-3.041855e+01	-6.591181e+01
7.800000e-07	-4.346276e-06	-9.742211e-10	-3.021804e+01	-6.567148e+01
7.900000e-07	-4.317136e-06	-9.944355e-10	-3.001544e+01	-6.542944e+01
8.000000e-07	-4.287726e-06	-9.898008e-10	-2.981096e+01	-6.518572e+01
8.100000e-07	-4.257988e-06	-9.712069e-10	-2.960420e+01	-6.494032e+01
8.200000e-07	-4.227968e-06	-9.726024e-10	-2.939549e+01	-6.469324e+01
8.300000e-07	-4.197669e-06	-9.698707e-10	-2.918483e+01	-6.444449e+01
8.400000e-07	-4.167087e-06	-9.512319e-10	-2.897220e+01	-6.419405e+01
8.500000e-07	-4.136163e-06	-9.556121e-10	-2.875720e+01	-6.394189e+01
8.600000e-07	-4.104915e-06	-9.634541e-10	-2.853994e+01	-6.368799e+01
8.700000e-07	-4.073537e-06	-9.480473e-10	-2.832178e+01	-6.343229e+01
8.800000e-07	-4.041975e-06	-9.389386e-10	-2.810235e+01	-6.317475e+01
8.900000e-07	-4.010158e-06	-9.454729e-10	-2.788113e+01	-6.291530e+01
9.000000e-07	-3.978156e-06	-9.358530e-10	-2.765864e+01	-6.265387e+01
9.100000e-07	-3.945891e-06	-9.202661e-10	-2.743431e+01	-6.239038e+01
9.200000e-07	-3.913353e-06	-9.228425e-10	-2.720808e+01	-6.212473e+01
9.300000e-07	-3.880391e-06	-9.176200e-10	-2.697891e+01	-6.185681e+01
9.400000e-07	-3.846945e-06	-9.042171e-10	-2.674637e+01	-6.158652e+01
9.500000e-07	-3.813129e-06	-9.059747e-10	-2.651127e+01	-6.131373e+01
9.600000e-07	-3.778867e-06	-9.095320e-10	-2.627305e+01	-6.103831e+01
9.700000e-07	-3.744141e-06	-8.937880e-10	-2.603162e+01	-6.076011e+01
9.800000e-07	-3.708968e-06	-8.871455e-10	-2.578708e+01	-6.047900e+01
9.900000e-07	-3.673508e-06	-8.902957e-10	-2.554053e+01	-6.019482e+01
1.000000e-06	-3.637941e-06	-8.834080e-10	-2.529325e+01	-5.990741e+01
1.010000e-06	-3.602259e-06	-8.736206e-10	-2.504516e+01	-5.961660e+01
1.020000e-06	-3.566421e-06	-8.778265e-10	-2.479600e+01	-5.932224e+01
1.030000e-06	-3.530423e-06	-8.753266e-10	-2.454572e+01	-5.902416e+01
1.040000e-06	-3.494280e-06	-8.660323e-10	-2.429443e+01	-5.872219e+01
1.050000e-06	-3.457963e-06	-8.627035e-10	-2.404193e+01	-5.841616e+01
1.060000e-06	-3.421418e-06	-8.605085e-10	-2.378784e+01	-5.810590e+01
1.070000e-06	-3.384541e-06	-8.476462e-10	-2.353145e+01	-5.779126e+01
1.080000e-06	-3.347353e-06	-8.406319e-10	-2.327290e+01	-5.747208e+01
1.090000e-06	-3.309913e-06	-8.367684e-10	-2.301259e+01	-5.714820e+01
1.100000e-06	-3.272229e-06	-8.280080e-10	-2.275059e+01	-5.681948e+01
1.110000e-06	-3.234329e-06	-8.201506e-10	-2.248708e+01	-5.648579e+01
1.120000e-06	-3.196200e-06	-8.192294e-10	-2.222199e+01	-5.614699e+01
1.130000e-06	-3.157906e-06	-8.153486e-10	-2.195575e+01	-5.580297e+01
1.140000e-06	-3.119479e-06	-8.080617e-10	-2.168858e+01	-5.545362e+01
1.150000e-06	-3.080824e-06	-8.034621e-10	-2.141982e+01	-5.509884e+01
1.160000e-06	-3.041908e-06	-7.974004e-10	-2.114925e+01	-5.473855e+01
1.170000e-06	-3.002801e-06	-7.881367e-10	-2.087736e+01	-5.437267e+01
1.180000e-06	-2.963535e-06	-7.825256e-10	-2.060435e+01	-5.400115e+01
1.190000e-06	-2.924108e-06	-7.787416e-10	-2.033023e+01	-5.362393e+01
1.200000e-06	-2.884511e-06	-7.701241e-10	-2.005493e+01	-5.324099e+01
1.210000e-06	-2.844781e-06	-7.608802e-10	-1.977870e+01	-5.285229e+01
1.220000e-06	-2.804941e-06	-7.541195e-10	-1.950171e+01	-5.245782e+01
1.230000e-06	-2.764946e-06	-7.472791e-10	-1.922364e+01	-5.205757e+01
1.240000e-06	-2.724738e-06	-7.393203e-10	-1.894409e+01	-5.165156e+01
1.250000e-06	-2.684373e-06	-7.343724e-10	-1.866345e+01	-5.123980e+01
1.260000e-06	-2.643813e-06	-7.289687e-10	-1.838144e+01	-5.082231e+01
1.270000e-06	-2.602985e-06	-7.222079e-10	-1.809759e+01	-5.039911e+01
1.280000e-06	-2.561919e-06	-7.153406e-10	-1.781207e+01	-4.997024e+01
1.290000e-06	-2.520505e-06	-7.102752e-10	-1.752413e+01	-4.953572e+01
1.300000e-06	-2.478731e-06	-7.029656e-10	-1.723369e+01	-4.909560e+01
1.310000e-06	-2.436622e-06	-6.936125e-10	-1.694093e+01	-4.864989e+01
1.320000e-06	-2.394166e-06	-6.836775e-10	-1.664574e+01	-4.819863e+01
1.330000e-06	-2.351547e-06	-6.745727e-10	-1.634943e+01	-4.774184e+01
1.340000e-06	-2.308868e-06	-6.662398e-10	-1.605270e+01	-4.727952e+01
1.350000e-06	-2.265922e-06	-6.611824e-10	-1.575411e+01	-4.681168e+01
1.360000e-06	-2.222700e-06	-6.551119e-10	-1.545360e+01	-4.633831e+01
1.370000e-06	-2.179284e-06	-6.471653e-10	-1.515175e+01	-4.585938e+01
1.380000e-06	-2.135707e-06	-6.393695e-10	-1.484877e+01	-4.537484e+01
1.390000e-06	-2.092046e-06	-6.323274e-10	-1.454521e+01	-4.488464e+01
1.400000e-06	-2.048304e-06	-6.223150e-10	-1.424110e+01	-4.438868e+01
1.410000e-06	-2.004465e-06	-6.122986e-10	-1.393630e+01	-4.388686e+01
1.420000e-06	-1.960574e-06	-6.050071e-10	-1.363114e+01	-4.337904e+01
1.430000e-06	-1.916642e-06	-6.013043e-10	-1.332570e+01	-4.286507e+01
1.440000e-06	-1.872584e-06	-5.967751e-10	-1.301938e+01	-4.234476e+01
1.450000e-06	-1.828427e-06	-5.893449e-10	-1.271237e+01	-4.181790e+01
1.460000e-06	-1.784229e-06	-5.821332e-10	-1.240508e+01	-4.128425e+01
1.470000e-06	-1.739976e-06	-5.738088e-10	-1.209741e+01	-4.074352e+01
1.480000e-06	-1.695572e-06	-5.611075e-10	-1.178868e+01	-4.019542e+01
1.490000e-06	-1.650962e-06	-5.463058e-10	-1.147853e+01	-3.963962e+01
1.500000e-06	-1.606173e-06	-5.346003e-10	-1.116712e+01	-3.907575e+01
1.510000e-06	-1.561223e-06	-5.270787e-10	-1.085460e+01	-3.850343e+01
1.520000e-06	-1.516121e-06	-5.229458e-10	-1.054103e+01	-3.792223e+01
1.530000e-06	-1.470864e-06	-5.190097e-10	-1.022637e+01	-3.733173e+01
1.540000e-06	-1.425522e-06	-5.112201e-10	-9.911126e+00	-3.673145e+01
1.550000e-06	-1.380164e-06	-4.978454e-10	-9.595769e+00	-3.612090e+01
1.560000e-06	-1.334658e-06	-4.826838e-10	-9.279382e+00	-3.549957e+01
1.570000e-06	-1.289002e-06	-4.699947e-10	-8.961954e+00	-3.486695e+01
1.580000e-06	-1.243361e-06	-4.608686e-10	-8.644626e+00	-3.422250e+01
1.590000e-06	-1.197714e-06	-4.534197e-10	-8.327261e+00	-3.356566e+01
1.600000e-06	-1.151989e-06	-4.470847e-10	-8.009353e+00	-3.289588e+01
1.610000e-06	-1.106151e-06	-4.376353e-10	-7.690658e+00	-3.221261e+01
1.620000e-06	-1.060189e-06	-4.262381e-10	-7.371100e+00	-3.151528e+01
1.630000e-06	-1.014115e-06	-4.164283e-10	-7.050766e+00	-3.080335e+01
1.640000e-06	-9.679256e-07	-4.095970e-10	-6.729626e+00	-3.007627e+01
1.650000e-06	-9.216897e-07	-4.018279e-10	-6.408165e+00	-2.933351e+01
1.660000e-06	-8.754716e-07	-3.913989e-10	-6.086828e+00	-2.857456e+01
1.670000e-06	-8.292544e-07	-3.788303e-10	-5.765497e+00	-2.779892e+01
1.680000e-06	-7.829871e-07	-3.649435e-10	-5.443818e+00	-2.700615e+01
1.690000e-06	-7.366192e-07	-3.507171e-10	-5.121439e+00	-2.619580e+01
1.700000e-06	-6.901678e-07	-3.379056e-10	-4.798480e+00	-2.536748e+01
1.710000e-06	-6.436600e-07	-3.264452e-10	-4.475128e+00	-2.452083e+01
1.720000e-06	-5.971061e-07	-3.134934e-10	-4.151456e+00	-2.365554e+01
1.730000e-06	-5.505095e-07	-2.986220e-10	-3.827487e+00	-2.277134e+01
1.740000e-06	-5.038667e-07	-2.825534e-10	-3.503198e+00	-2.186802e+01
1.750000e-06	-4.571710e-07	-2.663903e-10	-3.178539e+00	-2.094543e+01
1.760000e-06	-4.104517e-07	-2.524020e-10	-2.853718e+00	-2.000345e+01
1.770000e-06	-3.636419e-07	-2.406960e-10	-2.528267e+00	-1.904206e+01
1.780000e-06	-3.167487e-07	-2.290923e-10	-2.202236e+00	-1.806126e+01
1.790000e-06	-2.699028e-07	-2.162545e-10	-1.876534e+00	-1.706114e+01
1.800000e-06	-2.230933e-07	-2.017984e-10	-1.551084e+00	-1.604187e+01
1.810000e-06	-1.762951e-07	-1.853542e-10	-1.225714e+00	-1.500365e+01
1.820000e-06	-1.295420e-07	-1.674512e-10	-9.006571e-01	-1.394677e+01
1.830000e-06	-8.275377e-08	-1.509006e-10	-5.753562e-01	-1.287160e+01
1.840000e-06	-3.591391e-08	-1.384607e-10	-2.496960e-01	-1.177855e+01
1.850000e-06	1.084922e-08	-1.264410e-10	7.543061e-02	-1.066813e+01
1.860000e-06	5.760463e-08	-1.119546e-10	4.005035e-01	-9.540882e+00
1.870000e-06	1.043818e-07	-9.808612e-11	7.257275e-01	-8.397442e+00
1.880000e-06	1.512456e-07	-8.337050e-11	1.051554e+00	-7.238497e+00
1.890000e-06	1.981213e-07	-6.589041e-11	1.377464e+00	-6.064795e+00
1.900000e-06	2.448568e-07	-4.819395e-11	1.702398e+00	-4.877146e+00
1.910000e-06	2.915338e-07	-3.050228e-11	2.026926e+00	-3.676412e+00
1.920000e-06	3.382336e-07	-1.169893e-11	2.351612e+00	-2.463509e+00
1.930000e-06	3.849565e-07	4.431699e-12	2.676459e+00	-1.239400e+00
1.940000e-06	4.316672e-07	1.926653e-11	3.001222e+00	-5.090904e-03
1.950000e-06	4.783586e-07	3.552296e-11	3.325849e+00	1.238372e+00
1.960000e-06	5.249615e-07	5.256287e-11	3.649862e+00	2.489909e+00
1.970000e-06	5.714683e-07	6.977064e-11	3.973207e+00	3.748409e+00
1.980000e-06	6.179432e-07	8.681417e-11	4.296329e+00	5.012738e+00
1.990000e-06	6.643754e-07	1.042415e-10	4.619155e+00	6.281743e+00
2.000000e-06	7.108230e-07	1.217154e-10	4.942088e+00	7.554254e+00
2.010000e-06	7.572100e-07	1.385909e-10	5.264599e+00	8.829095e+00
2.020000e-06	8.034910e-07	1.580988e-10	5.586374e+00	1.010509e+01
2.030000e-06	8.497342e-07	1.791601e-10	5.907885e+00	1.138105e+01
2.040000e-06	8.959259e-07	1.988117e-10	6.229039e+00	1.265581e+01
2.050000e-06	9.420625e-07	2.154426e-10	6.549810e+00	1.392821e+01
2.060000e-06	9.881181e-07	2.303072e-10	6.870017e+00	1.519712e+01
2.070000e-06	1.034091e-06	2.458023e-10	7.189650e+00	1.646140e+01
2.080000e-06	1.080013e-06	2.626091e-10	7.508931e+00	1.771997e+01
2.090000e-06	1.125867e-06	2.818825e-10	7.827737e+00	1.897176e+01
2.100000e-06	1.171613e-06	3.028335e-10	8.145790e+00	2.021575e+01
2.110000e-06	1.217282e-06	3.229993e-10	8.463311e+00	2.145095e+01
2.120000e-06	1.262820e-06	3.393731e-10	8.779914e+00	2.267641e+01
2.130000e-06	1.308270e-06	3.533240e-10	9.095912e+00	2.389123e+01
2.140000e-06	1.353723e-06	3.681247e-10	9.411929e+00	2.509456e+01
2.150000e-06	1.399106e-06	3.834171e-10	9.727462e+00	2.628559e+01
2.160000e-06	1.444357e-06	3.988951e-10	1.004207e+01	2.746357e+01
2.170000e-06	1.489519e-06	4.158717e-10	1.035607e+01	2.862781e+01
2.180000e-06	1.534585e-06	4.340760e-10	1.066940e+01	2.977765e+01
2.190000e-06	1.579461e-06	4.536504e-10	1.098141e+01	3.091252e+01
2.200000e-06	1.624203e-06	4.713755e-10	1.129248e+01	3.203188e+01
2.210000e-06	1.668923e-06	4.865787e-10	1.160340e+01	3.313525e+01
2.220000e-06	1.713499e-06	5.000573e-10	1.191332e+01	3.422221e+01
2.230000e-06	1.757823e-06	5.133237e-10	1.222149e+01	3.529239e+01
2.240000e-06	1.801962e-06	5.259874e-10	1.252837e+01	3.634547e+01
2.250000e-06	1.846041e-06	5.382358e-10	1.283483e+01	3.738121e+01
2.260000e-06	1.890113e-06	5.518107e-10	1.314125e+01	3.839937e+01
2.270000e-06	1.934089e-06	5.667107e-10	1.344700e+01	3.939981e+01
2.280000e-06	1.977964e-06	5.854298e-10	1.375204e+01	4.038239e+01
2.290000e-06	2.021785e-06	6.044397e-10	1.405672e+01	4.134704e+01
2.300000e-06	2.065586e-06	6.210633e-10	1.436125e+01	4.229373e+01
2.310000e-06	2.109397e-06	6.334880e-10	1.466585e+01	4.322246e+01
2.320000e-06	2.153121e-06	6.427832e-10	1.496985e+01	4.413327e+01
2.330000e-06	2.196620e-06	6.528925e-10	1.527228e+01	4.502622e+01
2.340000e-06	2.239994e-06	6.645429e-10	1.557384e+01	4.590141e+01
2.350000e-06	2.283298e-06	6.787187e-10	1.587492e+01	4.675898e+01
2.360000e-06	2.326382e-06	6.954467e-10	1.617447e+01	4.759906e+01
2.370000e-06	2.369225e-06	7.110663e-10	1.647234e+01	4.842182e+01
2.380000e-06	2.411779e-06	7.218328e-10	1.676820e+01	4.922745e+01
2.390000e-06	2.453959e-06	7.309218e-10	1.706146e+01	5.001614e+01
2.400000e-06	2.495792e-06	7.395421e-10	1.735231e+01	5.078811e+01
2.410000e-06	2.537317e-06	7.471474e-10	1.764102e+01	5.154356e+01
2.420000e-06	2.578527e-06	7.568260e-10	1.792754e+01	5.228273e+01
2.430000e-06	2.619439e-06	7.694701e-10	1.821198e+01	5.300583e+01
2.440000e-06	2.660113e-06	7.830968e-10	1.849477e+01	5.371311e+01
2.450000e-06	2.700561e-06	7.948890e-10	1.877600e+01	5.440479e+01
2.460000e-06	2.740778e-06	8.043306e-10	1.905561e+01	5.508110e+01
2.470000e-06	2.780842e-06	8.137034e-10	1.933416e+01	5.574226e+01
2.480000e-06	2.820775e-06	8.246704e-10	1.961180e+01	5.638850e+01
2.490000e-06	2.860578e-06	8.361535e-10	1.988853e+01	5.702004e+01
2.500000e-06	2.900266e-06	8.465423e-10	2.016447e+01	5.763708e+01
2.510000e-06	2.939810e-06	8.571588e-10	2.043940e+01	5.823983e+01
2.520000e-06	2.979186e-06	8.679173e-10	2.071317e+01	5.882849e+01
2.530000e-06	3.018347e-06	8.774786e-10	2.098544e+01	5.940326e+01
2.540000e-06	3.057341e-06	8.853302e-10	2.125655e+01	5.996431e+01
2.550000e-06	3.096085e-06	8.917586e-10	2.152593e+01	6.051184e+01
2.560000e-06	3.134535e-06	8.982016e-10	2.179325e+01	6.104601e+01
2.570000e-06	3.172874e-06	9.050590e-10	2.205981e+01	6.156699e+01
2.580000e-06	3.210967e-06	9.116086e-10	2.232466e+01	6.207496e+01
2.590000e-06	3.248763e-06	9.180611e-10	2.258744e+01	6.257007e+01
2.600000e-06	3.286396e-06	9.244869e-10	2.284909e+01	6.305249e+01
2.610000e-06	3.323824e-06	9.318302e-10	2.310931e+01	6.352237e+01
2.620000e-06	3.361001e-06	9.377094e-10	2.336779e+01	6.397988e+01
2.630000e-06	3.397952e-06	9.413177e-10	2.362470e+01	6.442518e+01
2.640000e-06	3.434709e-06	9.461819e-10	2.388025e+01	6.485842e+01
2.650000e-06	3.471171e-06	9.526994e-10	2.413376e+01	6.527978e+01
2.660000e-06	3.507340e-06	9.597677e-10	2.438523e+01	6.568942e+01
2.670000e-06	3.543325e-06	9.641733e-10	2.463542e+01	6.608752e+01
2.680000e-06	3.579198e-06	9.665077e-10	2.488483e+01	6.647425e+01
2.690000e-06	3.614985e-06	9.707053e-10	2.513364e+01	6.684981e+01
2.700000e-06	3.650610e-06	9.768442e-10	2.538133e+01	6.721439e+01
2.710000e-06	3.686055e-06	9.842891e-10	2.562777e+01	6.756818e+01
2.720000e-06	3.721296e-06	9.918806e-10	2.587279e+01	6.791141e+01
2.730000e-06	3.756163e-06	9.984076e-10	2.611520e+01	6.824427e+01
2.740000e-06	3.790643e-06	1.001568e-09	2.635493e+01	6.856701e+01
2.750000e-06	3.824743e-06	1.001730e-09	2.659202e+01	6.887986e+01
2.760000e-06	3.858362e-06	1.002130e-09	2.682575e+01	6.918305e+01
2.770000e-06	3.891472e-06	1.004717e-09	2.705595e+01	6.947685e+01
2.780000e-06	3.924172e-06	1.010138e-09	2.728331e+01	6.976150e+01
2.790000e-06	3.956561e-06	1.017110e-09	2.750850e+01	7.003727e+01
2.800000e-06	3.988662e-06	1.023528e-09	2.773168e+01	7.030444e+01
2.810000e-06	4.020536e-06	1.030926e-09	2.795329e+01	7.056327e+01
2.820000e-06	4.052244e-06	1.035730e-09	2.817374e+01	7.081404e+01
2.830000e-06	4.083781e-06	1.038167e-09	2.839301e+01	7.105705e+01
2.840000e-06	4.115077e-06	1.041728e-09	2.861060e+01	7.129256e+01
2.850000e-06	4.146086e-06	1.046039e-09	2.882619e+01	7.152086e+01
2.860000e-06	4.176832e-06	1.049734e-09	2.903996e+01	7.174224e+01
2.870000e-06	4.207311e-06	1.051937e-09	2.925187e+01	7.195696e+01
2.880000e-06	4.237447e-06	1.054652e-09	2.946139e+01	7.216532e+01
2.890000e-06	4.267285e-06	1.058883e-09	2.966885e+01	7.236757e+01
2.900000e-06	4.296916e-06	1.063109e-09	2.987486e+01	7.256398e+01
