# Temperatura_=_-3.1
# Concentracion g/m^3_=_1620.0
# C_Vs_to_Am_M_A/Vsm_=_65563218390.804596
# pendiente_HvsI_1/m_=_3716.3
# ordenada_HvsI_A/m_=_1297.0
# frecuencia_Hz_=_135106.83763018338

Tiempo_(s)	Campo_(V.s)	Magnetizacion_(V.s)	Campo_(kA/m)	Magnetizacion_(A/m)
0.000000e+00	-5.518044e-06	-7.695860e-10	-3.836888e+01	-5.246891e+01
1.000000e-08	-5.518244e-06	-7.637459e-10	-3.837027e+01	-5.243504e+01
2.000000e-08	-5.518123e-06	-7.605387e-10	-3.836943e+01	-5.240370e+01
3.000000e-08	-5.517654e-06	-7.597373e-10	-3.836617e+01	-5.237481e+01
4.000000e-08	-5.516735e-06	-7.584164e-10	-3.835978e+01	-5.234830e+01
5.000000e-08	-5.515190e-06	-7.490154e-10	-3.834903e+01	-5.232406e+01
6.000000e-08	-5.512982e-06	-7.383403e-10	-3.833368e+01	-5.230198e+01
7.000000e-08	-5.510200e-06	-7.607111e-10	-3.831434e+01	-5.228191e+01
8.000000e-08	-5.507007e-06	-8.087220e-10	-3.829213e+01	-5.226370e+01
9.000000e-08	-5.503358e-06	-8.451135e-10	-3.826676e+01	-5.224717e+01
1.000000e-07	-5.499175e-06	-8.529425e-10	-3.823768e+01	-5.223214e+01
1.100000e-07	-5.494656e-06	-8.060472e-10	-3.820625e+01	-5.221840e+01
1.200000e-07	-5.489977e-06	-6.934948e-10	-3.817372e+01	-5.220574e+01
1.300000e-07	-5.485164e-06	-7.196175e-10	-3.814025e+01	-5.219395e+01
1.400000e-07	-5.480088e-06	-7.949077e-10	-3.810496e+01	-5.218278e+01
1.500000e-07	-5.474524e-06	-8.068351e-10	-3.806627e+01	-5.217201e+01
1.600000e-07	-5.468502e-06	-7.244533e-10	-3.802439e+01	-5.216140e+01
1.700000e-07	-5.462083e-06	-7.168464e-10	-3.797977e+01	-5.215071e+01
1.800000e-07	-5.455223e-06	-8.577556e-10	-3.793206e+01	-5.213970e+01
1.900000e-07	-5.447925e-06	-8.438631e-10	-3.788132e+01	-5.212813e+01
2.000000e-07	-5.440340e-06	-7.514262e-10	-3.782858e+01	-5.211576e+01
2.100000e-07	-5.432503e-06	-7.122941e-10	-3.777408e+01	-5.210236e+01
2.200000e-07	-5.424413e-06	-8.385802e-10	-3.771783e+01	-5.208772e+01
2.300000e-07	-5.416103e-06	-8.574287e-10	-3.766005e+01	-5.207160e+01
2.400000e-07	-5.407260e-06	-8.110443e-10	-3.759856e+01	-5.205382e+01
2.500000e-07	-5.397625e-06	-7.649951e-10	-3.753156e+01	-5.203417e+01
2.600000e-07	-5.387339e-06	-8.128050e-10	-3.746005e+01	-5.201246e+01
2.700000e-07	-5.376561e-06	-8.020212e-10	-3.738510e+01	-5.198852e+01
2.800000e-07	-5.365328e-06	-7.819109e-10	-3.730699e+01	-5.196220e+01
2.900000e-07	-5.353726e-06	-7.895871e-10	-3.722632e+01	-5.193334e+01
3.000000e-07	-5.341784e-06	-8.085656e-10	-3.714328e+01	-5.190181e+01
3.100000e-07	-5.329486e-06	-7.989810e-10	-3.705777e+01	-5.186750e+01
3.200000e-07	-5.316792e-06	-7.827693e-10	-3.696951e+01	-5.183031e+01
3.300000e-07	-5.303657e-06	-7.889695e-10	-3.687818e+01	-5.179013e+01
3.400000e-07	-5.290120e-06	-7.831344e-10	-3.678404e+01	-5.174691e+01
3.500000e-07	-5.276238e-06	-8.099424e-10	-3.668752e+01	-5.170058e+01
3.600000e-07	-5.261868e-06	-7.974568e-10	-3.658760e+01	-5.165109e+01
3.700000e-07	-5.246948e-06	-7.855991e-10	-3.648385e+01	-5.159843e+01
3.800000e-07	-5.231571e-06	-7.961953e-10	-3.637693e+01	-5.154256e+01
3.900000e-07	-5.215706e-06	-8.259128e-10	-3.626662e+01	-5.148349e+01
4.000000e-07	-5.199358e-06	-7.712947e-10	-3.615295e+01	-5.142122e+01
4.100000e-07	-5.182603e-06	-7.756349e-10	-3.603645e+01	-5.135577e+01
4.200000e-07	-5.165532e-06	-8.129397e-10	-3.591774e+01	-5.128718e+01
4.300000e-07	-5.148151e-06	-7.904469e-10	-3.579689e+01	-5.121547e+01
4.400000e-07	-5.130516e-06	-7.455496e-10	-3.567426e+01	-5.114071e+01
4.500000e-07	-5.112483e-06	-8.300621e-10	-3.554888e+01	-5.106296e+01
4.600000e-07	-5.093884e-06	-8.272946e-10	-3.541955e+01	-5.098226e+01
4.700000e-07	-5.074848e-06	-7.443050e-10	-3.528718e+01	-5.089871e+01
4.800000e-07	-5.055531e-06	-7.734162e-10	-3.515287e+01	-5.081237e+01
4.900000e-07	-5.036082e-06	-8.521079e-10	-3.501763e+01	-5.072332e+01
5.000000e-07	-5.016458e-06	-7.661721e-10	-3.488118e+01	-5.063166e+01
5.100000e-07	-4.996576e-06	-7.439836e-10	-3.474293e+01	-5.053748e+01
5.200000e-07	-4.976361e-06	-8.240457e-10	-3.460237e+01	-5.044086e+01
5.300000e-07	-4.955742e-06	-7.969432e-10	-3.445900e+01	-5.034190e+01
5.400000e-07	-4.934689e-06	-7.395165e-10	-3.431261e+01	-5.024069e+01
5.500000e-07	-4.913268e-06	-8.202474e-10	-3.416366e+01	-5.013734e+01
5.600000e-07	-4.891583e-06	-8.172655e-10	-3.401288e+01	-5.003192e+01
5.700000e-07	-4.869612e-06	-7.303676e-10	-3.386011e+01	-4.992455e+01
5.800000e-07	-4.847274e-06	-7.802341e-10	-3.370478e+01	-4.981531e+01
5.900000e-07	-4.824562e-06	-8.360302e-10	-3.354686e+01	-4.970429e+01
6.000000e-07	-4.801500e-06	-7.596652e-10	-3.338650e+01	-4.959159e+01
6.100000e-07	-4.778157e-06	-7.535823e-10	-3.322419e+01	-4.947728e+01
6.200000e-07	-4.754603e-06	-8.130079e-10	-3.306041e+01	-4.936146e+01
6.300000e-07	-4.730813e-06	-7.617736e-10	-3.289499e+01	-4.924420e+01
6.400000e-07	-4.706761e-06	-7.337883e-10	-3.272774e+01	-4.912559e+01
6.500000e-07	-4.682346e-06	-7.853429e-10	-3.255798e+01	-4.900569e+01
6.600000e-07	-4.657421e-06	-7.780414e-10	-3.238467e+01	-4.888457e+01
6.700000e-07	-4.631989e-06	-7.423778e-10	-3.220783e+01	-4.876231e+01
6.800000e-07	-4.606066e-06	-7.846019e-10	-3.202758e+01	-4.863896e+01
6.900000e-07	-4.579574e-06	-7.827016e-10	-3.184337e+01	-4.851458e+01
7.000000e-07	-4.552589e-06	-7.446170e-10	-3.165573e+01	-4.838923e+01
7.100000e-07	-4.525312e-06	-7.536377e-10	-3.146607e+01	-4.826295e+01
7.200000e-07	-4.497803e-06	-7.717451e-10	-3.127479e+01	-4.813578e+01
7.300000e-07	-4.470072e-06	-7.394140e-10	-3.108196e+01	-4.800778e+01
7.400000e-07	-4.442206e-06	-7.479185e-10	-3.088820e+01	-4.787897e+01
7.500000e-07	-4.414133e-06	-7.629005e-10	-3.069301e+01	-4.774938e+01
7.600000e-07	-4.385646e-06	-7.465419e-10	-3.049493e+01	-4.761903e+01
7.700000e-07	-4.356771e-06	-7.307805e-10	-3.029415e+01	-4.748795e+01
7.800000e-07	-4.327614e-06	-7.446584e-10	-3.009141e+01	-4.735615e+01
7.900000e-07	-4.298253e-06	-7.351184e-10	-2.988725e+01	-4.722363e+01
8.000000e-07	-4.268671e-06	-7.285424e-10	-2.968156e+01	-4.709040e+01
8.100000e-07	-4.238827e-06	-7.360687e-10	-2.947404e+01	-4.695645e+01
8.200000e-07	-4.208694e-06	-7.311135e-10	-2.926452e+01	-4.682177e+01
8.300000e-07	-4.178202e-06	-7.117265e-10	-2.905249e+01	-4.668635e+01
8.400000e-07	-4.147345e-06	-7.168075e-10	-2.883793e+01	-4.655015e+01
8.500000e-07	-4.116224e-06	-7.182743e-10	-2.862154e+01	-4.641316e+01
8.600000e-07	-4.084907e-06	-7.059500e-10	-2.840378e+01	-4.627532e+01
8.700000e-07	-4.053436e-06	-7.069057e-10	-2.818495e+01	-4.613660e+01
8.800000e-07	-4.021879e-06	-7.174023e-10	-2.796553e+01	-4.599695e+01
8.900000e-07	-3.990155e-06	-7.102560e-10	-2.774494e+01	-4.585630e+01
9.000000e-07	-3.958163e-06	-7.000718e-10	-2.752249e+01	-4.571459e+01
9.100000e-07	-3.925756e-06	-7.031644e-10	-2.729714e+01	-4.557175e+01
9.200000e-07	-3.892962e-06	-6.930064e-10	-2.706912e+01	-4.542768e+01
9.300000e-07	-3.859717e-06	-6.826521e-10	-2.683796e+01	-4.528232e+01
9.400000e-07	-3.825956e-06	-6.882705e-10	-2.660321e+01	-4.513555e+01
9.500000e-07	-3.791741e-06	-6.948116e-10	-2.636529e+01	-4.498728e+01
9.600000e-07	-3.757095e-06	-6.817835e-10	-2.612439e+01	-4.483740e+01
9.700000e-07	-3.722173e-06	-6.789602e-10	-2.588156e+01	-4.468579e+01
9.800000e-07	-3.686999e-06	-6.787581e-10	-2.563699e+01	-4.453233e+01
9.900000e-07	-3.651574e-06	-6.730064e-10	-2.539067e+01	-4.437690e+01
1.000000e-06	-3.615999e-06	-6.680403e-10	-2.514330e+01	-4.421937e+01
1.010000e-06	-3.580311e-06	-6.751959e-10	-2.489515e+01	-4.405959e+01
1.020000e-06	-3.544431e-06	-6.723303e-10	-2.464566e+01	-4.389744e+01
1.030000e-06	-3.508349e-06	-6.661732e-10	-2.439477e+01	-4.373276e+01
1.040000e-06	-3.472151e-06	-6.637588e-10	-2.414308e+01	-4.356541e+01
1.050000e-06	-3.435755e-06	-6.620379e-10	-2.389000e+01	-4.339525e+01
1.060000e-06	-3.399084e-06	-6.507527e-10	-2.363501e+01	-4.322213e+01
1.070000e-06	-3.362090e-06	-6.473634e-10	-2.337778e+01	-4.304590e+01
1.080000e-06	-3.324782e-06	-6.466225e-10	-2.311837e+01	-4.286642e+01
1.090000e-06	-3.287200e-06	-6.437095e-10	-2.285705e+01	-4.268353e+01
1.100000e-06	-3.249358e-06	-6.391005e-10	-2.259391e+01	-4.249710e+01
1.110000e-06	-3.211321e-06	-6.376647e-10	-2.232943e+01	-4.230700e+01
1.120000e-06	-3.173111e-06	-6.306984e-10	-2.206374e+01	-4.211307e+01
1.130000e-06	-3.134709e-06	-6.236201e-10	-2.179672e+01	-4.191520e+01
1.140000e-06	-3.096061e-06	-6.200513e-10	-2.152799e+01	-4.171325e+01
1.150000e-06	-3.057166e-06	-6.148415e-10	-2.125754e+01	-4.150712e+01
1.160000e-06	-3.018101e-06	-6.090476e-10	-2.098590e+01	-4.129669e+01
1.170000e-06	-2.978860e-06	-6.086362e-10	-2.071305e+01	-4.108185e+01
1.180000e-06	-2.939494e-06	-6.115195e-10	-2.043933e+01	-4.086251e+01
1.190000e-06	-2.900044e-06	-6.094196e-10	-2.016501e+01	-4.063858e+01
1.200000e-06	-2.860440e-06	-6.051631e-10	-1.988964e+01	-4.040998e+01
1.210000e-06	-2.820681e-06	-6.001479e-10	-1.961318e+01	-4.017664e+01
1.220000e-06	-2.780794e-06	-5.932785e-10	-1.933583e+01	-3.993850e+01
1.230000e-06	-2.740760e-06	-5.860886e-10	-1.905746e+01	-3.969549e+01
1.240000e-06	-2.700514e-06	-5.830796e-10	-1.877762e+01	-3.944758e+01
1.250000e-06	-2.659958e-06	-5.765820e-10	-1.849561e+01	-3.919472e+01
1.260000e-06	-2.619139e-06	-5.705029e-10	-1.821178e+01	-3.893688e+01
1.270000e-06	-2.578004e-06	-5.663160e-10	-1.792576e+01	-3.867404e+01
1.280000e-06	-2.536450e-06	-5.660254e-10	-1.763682e+01	-3.840616e+01
1.290000e-06	-2.494685e-06	-5.630604e-10	-1.734641e+01	-3.813324e+01
1.300000e-06	-2.452732e-06	-5.596349e-10	-1.705470e+01	-3.785525e+01
1.310000e-06	-2.410500e-06	-5.524902e-10	-1.676105e+01	-3.757219e+01
1.320000e-06	-2.367963e-06	-5.440439e-10	-1.646527e+01	-3.728405e+01
1.330000e-06	-2.325156e-06	-5.365422e-10	-1.616762e+01	-3.699080e+01
1.340000e-06	-2.282129e-06	-5.320867e-10	-1.586844e+01	-3.669244e+01
1.350000e-06	-2.238900e-06	-5.282065e-10	-1.556785e+01	-3.638894e+01
1.360000e-06	-2.195531e-06	-5.255533e-10	-1.526629e+01	-3.608029e+01
1.370000e-06	-2.152004e-06	-5.247058e-10	-1.496363e+01	-3.576644e+01
1.380000e-06	-2.108314e-06	-5.258359e-10	-1.465984e+01	-3.544736e+01
1.390000e-06	-2.064555e-06	-5.220907e-10	-1.435557e+01	-3.512300e+01
1.400000e-06	-2.020791e-06	-5.135112e-10	-1.405127e+01	-3.479329e+01
1.410000e-06	-1.977021e-06	-5.038305e-10	-1.374692e+01	-3.445816e+01
1.420000e-06	-1.933148e-06	-4.979075e-10	-1.344185e+01	-3.411751e+01
1.430000e-06	-1.889125e-06	-4.940125e-10	-1.313574e+01	-3.377123e+01
1.440000e-06	-1.844998e-06	-4.902212e-10	-1.282891e+01	-3.341919e+01
1.450000e-06	-1.800784e-06	-4.862315e-10	-1.252148e+01	-3.306126e+01
1.460000e-06	-1.756495e-06	-4.808103e-10	-1.221352e+01	-3.269725e+01
1.470000e-06	-1.712110e-06	-4.744552e-10	-1.190489e+01	-3.232699e+01
1.480000e-06	-1.667567e-06	-4.680831e-10	-1.159517e+01	-3.195025e+01
1.490000e-06	-1.622833e-06	-4.624021e-10	-1.128413e+01	-3.156682e+01
1.500000e-06	-1.578005e-06	-4.570786e-10	-1.097242e+01	-3.117643e+01
1.510000e-06	-1.533048e-06	-4.528453e-10	-1.065981e+01	-3.077880e+01
1.520000e-06	-1.487847e-06	-4.487359e-10	-1.034552e+01	-3.037364e+01
1.530000e-06	-1.442515e-06	-4.443313e-10	-1.003031e+01	-2.996062e+01
1.540000e-06	-1.397199e-06	-4.380080e-10	-9.715214e+00	-2.953941e+01
1.550000e-06	-1.351891e-06	-4.300913e-10	-9.400167e+00	-2.910962e+01
1.560000e-06	-1.306499e-06	-4.229066e-10	-9.084541e+00	-2.867090e+01
1.570000e-06	-1.260919e-06	-4.162461e-10	-8.767607e+00	-2.822282e+01
1.580000e-06	-1.215206e-06	-4.089197e-10	-8.449754e+00	-2.776499e+01
1.590000e-06	-1.169515e-06	-4.014828e-10	-8.132047e+00	-2.729697e+01
1.600000e-06	-1.123752e-06	-3.914558e-10	-7.813837e+00	-2.681833e+01
1.610000e-06	-1.077853e-06	-3.799492e-10	-7.494690e+00	-2.632861e+01
1.620000e-06	-1.031809e-06	-3.710165e-10	-7.174530e+00	-2.582737e+01
1.630000e-06	-9.856416e-07	-3.681913e-10	-6.853509e+00	-2.531415e+01
1.640000e-06	-9.394455e-07	-3.660478e-10	-6.532292e+00	-2.478849e+01
1.650000e-06	-8.931806e-07	-3.581942e-10	-6.210595e+00	-2.424996e+01
1.660000e-06	-8.469122e-07	-3.452919e-10	-5.888876e+00	-2.369810e+01
1.670000e-06	-8.005920e-07	-3.298556e-10	-5.566795e+00	-2.313249e+01
1.680000e-06	-7.542244e-07	-3.124016e-10	-5.244385e+00	-2.255272e+01
1.690000e-06	-7.078732e-07	-3.013886e-10	-4.922089e+00	-2.195838e+01
1.700000e-06	-6.614749e-07	-2.960290e-10	-4.599465e+00	-2.134910e+01
1.710000e-06	-6.150373e-07	-2.926058e-10	-4.276569e+00	-2.072454e+01
1.720000e-06	-5.684906e-07	-2.866514e-10	-3.952913e+00	-2.008438e+01
1.730000e-06	-5.218600e-07	-2.761938e-10	-3.628674e+00	-1.942835e+01
1.740000e-06	-4.752327e-07	-2.605641e-10	-3.304458e+00	-1.875618e+01
1.750000e-06	-4.285515e-07	-2.429100e-10	-2.979868e+00	-1.806769e+01
1.760000e-06	-3.818267e-07	-2.271600e-10	-2.654974e+00	-1.736271e+01
1.770000e-06	-3.350682e-07	-2.159290e-10	-2.329846e+00	-1.664114e+01
1.780000e-06	-2.882687e-07	-2.093911e-10	-2.004433e+00	-1.590290e+01
1.790000e-06	-2.414322e-07	-2.052872e-10	-1.678762e+00	-1.514799e+01
1.800000e-06	-1.945752e-07	-2.010283e-10	-1.352949e+00	-1.437646e+01
1.810000e-06	-1.477887e-07	-1.938378e-10	-1.027626e+00	-1.358840e+01
1.820000e-06	-1.010266e-07	-1.827401e-10	-7.024728e-01	-1.278398e+01
1.830000e-06	-5.422767e-08	-1.696933e-10	-3.770639e-01	-1.196342e+01
1.840000e-06	-7.396668e-09	-1.553451e-10	-5.143161e-02	-1.112700e+01
1.850000e-06	3.942646e-08	-1.395543e-10	2.741459e-01	-1.027506e+01
1.860000e-06	8.622094e-08	-1.269093e-10	5.995242e-01	-9.407999e+00
1.870000e-06	1.330060e-07	-1.168525e-10	9.248367e-01	-8.526280e+00
1.880000e-06	1.797435e-07	-1.076043e-10	1.249819e+00	-7.630425e+00
1.890000e-06	2.265090e-07	-9.796063e-11	1.574996e+00	-6.721014e+00
1.900000e-06	2.732981e-07	-8.691988e-11	1.900337e+00	-5.798681e+00
1.910000e-06	3.200275e-07	-7.190110e-11	2.225262e+00	-4.864118e+00
1.920000e-06	3.667695e-07	-5.539996e-11	2.550276e+00	-3.918067e+00
1.930000e-06	4.135159e-07	-3.930287e-11	2.875320e+00	-2.961320e+00
1.940000e-06	4.601995e-07	-2.455922e-11	3.199927e+00	-1.994714e+00
1.950000e-06	5.067649e-07	-1.246114e-11	3.523713e+00	-1.019130e+00
1.960000e-06	5.532669e-07	-4.605009e-13	3.847057e+00	-3.548666e-02
1.970000e-06	5.997457e-07	1.128609e-11	4.170240e+00	9.552629e-01
1.980000e-06	6.462535e-07	2.288662e-11	4.493626e+00	1.952135e+00
1.990000e-06	6.927260e-07	3.881081e-11	4.816765e+00	2.954119e+00
2.000000e-06	7.390595e-07	5.393912e-11	5.138938e+00	3.960186e+00
2.010000e-06	7.853618e-07	6.860781e-11	5.460894e+00	4.969290e+00
2.020000e-06	8.316427e-07	8.451613e-11	5.782701e+00	5.980373e+00
2.030000e-06	8.778177e-07	1.016342e-10	6.103772e+00	6.992371e+00
2.040000e-06	9.239455e-07	1.172833e-10	6.424515e+00	8.004222e+00
2.050000e-06	9.700237e-07	1.304113e-10	6.744912e+00	9.014866e+00
2.060000e-06	1.015963e-06	1.411637e-10	7.064341e+00	1.002325e+01
2.070000e-06	1.061838e-06	1.521226e-10	7.383333e+00	1.102834e+01
2.080000e-06	1.107722e-06	1.671318e-10	7.702377e+00	1.202913e+01
2.090000e-06	1.153607e-06	1.843431e-10	8.021432e+00	1.302461e+01
2.100000e-06	1.199381e-06	2.029799e-10	8.339711e+00	1.401382e+01
2.110000e-06	1.244983e-06	2.192323e-10	8.656799e+00	1.499583e+01
2.120000e-06	1.290467e-06	2.319169e-10	8.973065e+00	1.596975e+01
2.130000e-06	1.335885e-06	2.429191e-10	9.288872e+00	1.693471e+01
2.140000e-06	1.381229e-06	2.540696e-10	9.604164e+00	1.788991e+01
2.150000e-06	1.426426e-06	2.672131e-10	9.918434e+00	1.883458e+01
2.160000e-06	1.471579e-06	2.822476e-10	1.023240e+01	1.976800e+01
2.170000e-06	1.516707e-06	2.961431e-10	1.054619e+01	2.068950e+01
2.180000e-06	1.561664e-06	3.118778e-10	1.085879e+01	2.159848e+01
2.190000e-06	1.606496e-06	3.252165e-10	1.117053e+01	2.249437e+01
2.200000e-06	1.651159e-06	3.364214e-10	1.148109e+01	2.337666e+01
2.210000e-06	1.695623e-06	3.469715e-10	1.179026e+01	2.424492e+01
2.220000e-06	1.739993e-06	3.569231e-10	1.209878e+01	2.509874e+01
2.230000e-06	1.784278e-06	3.694924e-10	1.240671e+01	2.593778e+01
2.240000e-06	1.828457e-06	3.811506e-10	1.271390e+01	2.676178e+01
2.250000e-06	1.872482e-06	3.922013e-10	1.302002e+01	2.757049e+01
2.260000e-06	1.916337e-06	4.011191e-10	1.332496e+01	2.836373e+01
2.270000e-06	1.960103e-06	4.124604e-10	1.362928e+01	2.914139e+01
2.280000e-06	2.003805e-06	4.265889e-10	1.393315e+01	2.990339e+01
2.290000e-06	2.047471e-06	4.397231e-10	1.423678e+01	3.064969e+01
2.300000e-06	2.091121e-06	4.493541e-10	1.454029e+01	3.138031e+01
2.310000e-06	2.134709e-06	4.575719e-10	1.484338e+01	3.209530e+01
2.320000e-06	2.178207e-06	4.697928e-10	1.514583e+01	3.279474e+01
2.330000e-06	2.221645e-06	4.814553e-10	1.544787e+01	3.347877e+01
2.340000e-06	2.265002e-06	4.916166e-10	1.574934e+01	3.414753e+01
2.350000e-06	2.308157e-06	5.046667e-10	1.604942e+01	3.480122e+01
2.360000e-06	2.351051e-06	5.208071e-10	1.634768e+01	3.544002e+01
2.370000e-06	2.393718e-06	5.333839e-10	1.664436e+01	3.606418e+01
2.380000e-06	2.436099e-06	5.396597e-10	1.693904e+01	3.667392e+01
2.390000e-06	2.478150e-06	5.423343e-10	1.723144e+01	3.726952e+01
2.400000e-06	2.519909e-06	5.458380e-10	1.752181e+01	3.785122e+01
2.410000e-06	2.561341e-06	5.525325e-10	1.780990e+01	3.841930e+01
2.420000e-06	2.602406e-06	5.628328e-10	1.809543e+01	3.897404e+01
2.430000e-06	2.643166e-06	5.764433e-10	1.837885e+01	3.951570e+01
2.440000e-06	2.683745e-06	5.895321e-10	1.866102e+01	4.004456e+01
2.450000e-06	2.724095e-06	5.972327e-10	1.894158e+01	4.056087e+01
2.460000e-06	2.764112e-06	6.028145e-10	1.921984e+01	4.106491e+01
2.470000e-06	2.803900e-06	6.089080e-10	1.949649e+01	4.155691e+01
2.480000e-06	2.843574e-06	6.157161e-10	1.977236e+01	4.203711e+01
2.490000e-06	2.883158e-06	6.238172e-10	2.004760e+01	4.250574e+01
2.500000e-06	2.922692e-06	6.310193e-10	2.032250e+01	4.296299e+01
2.510000e-06	2.962193e-06	6.367961e-10	2.059716e+01	4.340906e+01
2.520000e-06	3.001619e-06	6.435659e-10	2.087130e+01	4.384412e+01
2.530000e-06	3.040823e-06	6.510787e-10	2.114390e+01	4.426835e+01
2.540000e-06	3.079731e-06	6.573238e-10	2.141444e+01	4.468186e+01
2.550000e-06	3.118322e-06	6.627922e-10	2.168278e+01	4.508480e+01
2.560000e-06	3.156619e-06	6.685883e-10	2.194907e+01	4.547728e+01
2.570000e-06	3.194687e-06	6.728320e-10	2.221377e+01	4.585939e+01
2.580000e-06	3.232568e-06	6.757716e-10	2.247717e+01	4.623121e+01
2.590000e-06	3.270284e-06	6.806710e-10	2.273942e+01	4.659281e+01
2.600000e-06	3.307771e-06	6.855450e-10	2.300008e+01	4.694426e+01
2.610000e-06	3.345005e-06	6.873059e-10	2.325898e+01	4.728560e+01
2.620000e-06	3.381997e-06	6.900579e-10	2.351621e+01	4.761686e+01
2.630000e-06	3.418718e-06	6.947494e-10	2.377153e+01	4.793810e+01
2.640000e-06	3.455187e-06	6.992175e-10	2.402512e+01	4.824934e+01
2.650000e-06	3.491414e-06	7.047997e-10	2.427702e+01	4.855060e+01
2.660000e-06	3.527371e-06	7.091059e-10	2.452704e+01	4.884192e+01
2.670000e-06	3.563178e-06	7.117289e-10	2.477601e+01	4.912334e+01
2.680000e-06	3.598897e-06	7.156753e-10	2.502438e+01	4.939488e+01
2.690000e-06	3.634490e-06	7.208233e-10	2.527187e+01	4.965660e+01
2.700000e-06	3.669965e-06	7.246761e-10	2.551854e+01	4.990853e+01
2.710000e-06	3.705319e-06	7.268495e-10	2.576437e+01	5.015075e+01
2.720000e-06	3.740511e-06	7.294059e-10	2.600908e+01	5.038333e+01
2.730000e-06	3.775425e-06	7.324335e-10	2.625184e+01	5.060634e+01
2.740000e-06	3.809932e-06	7.345625e-10	2.649179e+01	5.081990e+01
2.750000e-06	3.843975e-06	7.359512e-10	2.672850e+01	5.102412e+01
2.760000e-06	3.877410e-06	7.374358e-10	2.696098e+01	5.121912e+01
2.770000e-06	3.910233e-06	7.407343e-10	2.718921e+01	5.140507e+01
2.780000e-06	3.942641e-06	7.461027e-10	2.741456e+01	5.158212e+01
2.790000e-06	3.974754e-06	7.513574e-10	2.763785e+01	5.175046e+01
2.800000e-06	4.006659e-06	7.533874e-10	2.785969e+01	5.191030e+01
2.810000e-06	4.038390e-06	7.540717e-10	2.808033e+01	5.206184e+01
2.820000e-06	4.069992e-06	7.566833e-10	2.830007e+01	5.220534e+01
2.830000e-06	4.101509e-06	7.598209e-10	2.851922e+01	5.234104e+01
2.840000e-06	4.132839e-06	7.634214e-10	2.873707e+01	5.246921e+01
2.850000e-06	4.163857e-06	7.691681e-10	2.895275e+01	5.259014e+01
2.860000e-06	4.194493e-06	7.727690e-10	2.916577e+01	5.270412e+01
2.870000e-06	4.224697e-06	7.726474e-10	2.937579e+01	5.281145e+01
2.880000e-06	4.254597e-06	7.707160e-10	2.958369e+01	5.291246e+01
2.890000e-06	4.284287e-06	7.686741e-10	2.979014e+01	5.300745e+01
2.900000e-06	4.313750e-06	7.697045e-10	2.999501e+01	5.309678e+01
