# Temperatura_=_-0.27
# Concentracion g/m^3_=_1620.0
# C_Vs_to_Am_M_A/Vsm_=_65563218390.804596
# pendiente_HvsI_1/m_=_3716.3
# ordenada_HvsI_A/m_=_1297.0
# frecuencia_Hz_=_135094.32552384777

Tiempo_(s)	Campo_(V.s)	Magnetizacion_(V.s)	Campo_(kA/m)	Magnetizacion_(A/m)
0.000000e+00	-5.511986e-06	-1.230530e-09	-3.836568e+01	-8.217506e+01
1.000000e-08	-5.512117e-06	-1.229051e-09	-3.836660e+01	-8.212583e+01
2.000000e-08	-5.511938e-06	-1.229858e-09	-3.836535e+01	-8.207749e+01
3.000000e-08	-5.511278e-06	-1.230924e-09	-3.836075e+01	-8.203007e+01
4.000000e-08	-5.510025e-06	-1.225899e-09	-3.835203e+01	-8.198355e+01
5.000000e-08	-5.508153e-06	-1.210129e-09	-3.833900e+01	-8.193789e+01
6.000000e-08	-5.505725e-06	-1.205663e-09	-3.832210e+01	-8.189303e+01
7.000000e-08	-5.502891e-06	-1.230743e-09	-3.830238e+01	-8.184890e+01
8.000000e-08	-5.499625e-06	-1.241845e-09	-3.827964e+01	-8.180537e+01
9.000000e-08	-5.495830e-06	-1.277592e-09	-3.825323e+01	-8.176233e+01
1.000000e-07	-5.491599e-06	-1.324305e-09	-3.822378e+01	-8.171963e+01
1.100000e-07	-5.487158e-06	-1.250869e-09	-3.819287e+01	-8.167710e+01
1.200000e-07	-5.482552e-06	-1.121372e-09	-3.816081e+01	-8.163454e+01
1.300000e-07	-5.477755e-06	-1.167240e-09	-3.812742e+01	-8.159175e+01
1.400000e-07	-5.472564e-06	-1.273436e-09	-3.809129e+01	-8.154852e+01
1.500000e-07	-5.466808e-06	-1.270736e-09	-3.805122e+01	-8.150459e+01
1.600000e-07	-5.460663e-06	-1.129398e-09	-3.800845e+01	-8.145974e+01
1.700000e-07	-5.454149e-06	-1.187238e-09	-3.796311e+01	-8.141368e+01
1.800000e-07	-5.447122e-06	-1.315926e-09	-3.791420e+01	-8.136617e+01
1.900000e-07	-5.439665e-06	-1.283826e-09	-3.786230e+01	-8.131691e+01
2.000000e-07	-5.431995e-06	-1.164052e-09	-3.780891e+01	-8.126564e+01
2.100000e-07	-5.424168e-06	-1.197076e-09	-3.775443e+01	-8.121206e+01
2.200000e-07	-5.416089e-06	-1.327252e-09	-3.769820e+01	-8.115588e+01
2.300000e-07	-5.407633e-06	-1.319765e-09	-3.763934e+01	-8.109684e+01
2.400000e-07	-5.398694e-06	-1.238097e-09	-3.757713e+01	-8.103464e+01
2.500000e-07	-5.389103e-06	-1.215909e-09	-3.751036e+01	-8.096900e+01
2.600000e-07	-5.378721e-06	-1.265207e-09	-3.743810e+01	-8.089967e+01
2.700000e-07	-5.367751e-06	-1.238719e-09	-3.736175e+01	-8.082636e+01
2.800000e-07	-5.356446e-06	-1.222577e-09	-3.728306e+01	-8.074884e+01
2.900000e-07	-5.344783e-06	-1.224489e-09	-3.720188e+01	-8.066686e+01
3.000000e-07	-5.332688e-06	-1.253885e-09	-3.711769e+01	-8.058019e+01
3.100000e-07	-5.320215e-06	-1.232070e-09	-3.703088e+01	-8.048863e+01
3.200000e-07	-5.307426e-06	-1.229506e-09	-3.694186e+01	-8.039196e+01
3.300000e-07	-5.294203e-06	-1.206613e-09	-3.684982e+01	-8.029001e+01
3.400000e-07	-5.280555e-06	-1.230777e-09	-3.675483e+01	-8.018261e+01
3.500000e-07	-5.266525e-06	-1.238936e-09	-3.665717e+01	-8.006962e+01
3.600000e-07	-5.251980e-06	-1.214322e-09	-3.655593e+01	-7.995091e+01
3.700000e-07	-5.237010e-06	-1.199419e-09	-3.645174e+01	-7.982636e+01
3.800000e-07	-5.221649e-06	-1.248571e-09	-3.634482e+01	-7.969589e+01
3.900000e-07	-5.205657e-06	-1.221231e-09	-3.623351e+01	-7.955942e+01
4.000000e-07	-5.189139e-06	-1.166987e-09	-3.611854e+01	-7.941690e+01
4.100000e-07	-5.172350e-06	-1.225650e-09	-3.600167e+01	-7.926830e+01
4.200000e-07	-5.155236e-06	-1.259120e-09	-3.588256e+01	-7.911360e+01
4.300000e-07	-5.137847e-06	-1.162137e-09	-3.576152e+01	-7.895280e+01
4.400000e-07	-5.120215e-06	-1.172295e-09	-3.563879e+01	-7.878592e+01
4.500000e-07	-5.102141e-06	-1.279556e-09	-3.551299e+01	-7.861301e+01
4.600000e-07	-5.083543e-06	-1.198210e-09	-3.538354e+01	-7.843410e+01
4.700000e-07	-5.064477e-06	-1.117910e-09	-3.525083e+01	-7.824927e+01
4.800000e-07	-5.045186e-06	-1.232417e-09	-3.511656e+01	-7.805860e+01
4.900000e-07	-5.025726e-06	-1.258778e-09	-3.498111e+01	-7.786219e+01
5.000000e-07	-5.006012e-06	-1.131708e-09	-3.484390e+01	-7.766013e+01
5.100000e-07	-4.986046e-06	-1.185065e-09	-3.470492e+01	-7.745254e+01
5.200000e-07	-4.965690e-06	-1.255742e-09	-3.456324e+01	-7.723955e+01
5.300000e-07	-4.944896e-06	-1.153013e-09	-3.441850e+01	-7.702130e+01
5.400000e-07	-4.923700e-06	-1.139982e-09	-3.427097e+01	-7.679791e+01
5.500000e-07	-4.902202e-06	-1.247625e-09	-3.412134e+01	-7.656953e+01
5.600000e-07	-4.880439e-06	-1.163744e-09	-3.396986e+01	-7.633631e+01
5.700000e-07	-4.858380e-06	-1.094254e-09	-3.381631e+01	-7.609840e+01
5.800000e-07	-4.836036e-06	-1.199528e-09	-3.366079e+01	-7.585596e+01
5.900000e-07	-4.813273e-06	-1.203975e-09	-3.350235e+01	-7.560912e+01
6.000000e-07	-4.790157e-06	-1.100345e-09	-3.334145e+01	-7.535806e+01
6.100000e-07	-4.766785e-06	-1.155209e-09	-3.317878e+01	-7.510290e+01
6.200000e-07	-4.743171e-06	-1.189570e-09	-3.301441e+01	-7.484381e+01
6.300000e-07	-4.719363e-06	-1.106651e-09	-3.284870e+01	-7.458091e+01
6.400000e-07	-4.695311e-06	-1.111674e-09	-3.268129e+01	-7.431435e+01
6.500000e-07	-4.671028e-06	-1.167071e-09	-3.251227e+01	-7.404426e+01
6.600000e-07	-4.646243e-06	-1.113395e-09	-3.233975e+01	-7.377075e+01
6.700000e-07	-4.620806e-06	-1.097913e-09	-3.216270e+01	-7.349396e+01
6.800000e-07	-4.594772e-06	-1.148307e-09	-3.198150e+01	-7.321398e+01
6.900000e-07	-4.568116e-06	-1.125628e-09	-3.179596e+01	-7.293091e+01
7.000000e-07	-4.541104e-06	-1.089066e-09	-3.160794e+01	-7.264485e+01
7.100000e-07	-4.513829e-06	-1.118616e-09	-3.141810e+01	-7.235589e+01
7.200000e-07	-4.486273e-06	-1.117744e-09	-3.122630e+01	-7.206408e+01
7.300000e-07	-4.458577e-06	-1.082459e-09	-3.103352e+01	-7.176950e+01
7.400000e-07	-4.430711e-06	-1.092383e-09	-3.083957e+01	-7.147220e+01
7.500000e-07	-4.402632e-06	-1.095233e-09	-3.064412e+01	-7.117222e+01
7.600000e-07	-4.374300e-06	-1.066856e-09	-3.044692e+01	-7.086960e+01
7.700000e-07	-4.345673e-06	-1.062449e-09	-3.024767e+01	-7.056437e+01
7.800000e-07	-4.316727e-06	-1.072606e-09	-3.004619e+01	-7.025654e+01
7.900000e-07	-4.287487e-06	-1.060196e-09	-2.984267e+01	-6.994612e+01
8.000000e-07	-4.257938e-06	-1.059844e-09	-2.963699e+01	-6.963311e+01
8.100000e-07	-4.228046e-06	-1.066164e-09	-2.942893e+01	-6.931750e+01
8.200000e-07	-4.197893e-06	-1.052890e-09	-2.921905e+01	-6.899928e+01
8.300000e-07	-4.167431e-06	-1.036198e-09	-2.900703e+01	-6.867841e+01
8.400000e-07	-4.136619e-06	-1.043069e-09	-2.879257e+01	-6.835487e+01
8.500000e-07	-4.105495e-06	-1.030814e-09	-2.857593e+01	-6.802863e+01
8.600000e-07	-4.074105e-06	-1.016597e-09	-2.835744e+01	-6.769963e+01
8.700000e-07	-4.042551e-06	-1.018291e-09	-2.813781e+01	-6.736784e+01
8.800000e-07	-4.010918e-06	-1.022113e-09	-2.791763e+01	-6.703319e+01
8.900000e-07	-3.979181e-06	-1.006906e-09	-2.769673e+01	-6.669563e+01
9.000000e-07	-3.947178e-06	-1.002152e-09	-2.747397e+01	-6.635511e+01
9.100000e-07	-3.914728e-06	-1.000795e-09	-2.724811e+01	-6.601155e+01
9.200000e-07	-3.881943e-06	-9.859786e-10	-2.701991e+01	-6.566489e+01
9.300000e-07	-3.848778e-06	-9.761240e-10	-2.678907e+01	-6.531506e+01
9.400000e-07	-3.815062e-06	-9.829102e-10	-2.655439e+01	-6.496199e+01
9.500000e-07	-3.780866e-06	-9.768180e-10	-2.631638e+01	-6.460561e+01
9.600000e-07	-3.746276e-06	-9.639104e-10	-2.607562e+01	-6.424585e+01
9.700000e-07	-3.711388e-06	-9.605501e-10	-2.583278e+01	-6.388264e+01
9.800000e-07	-3.676187e-06	-9.556446e-10	-2.558777e+01	-6.351589e+01
9.900000e-07	-3.640717e-06	-9.415600e-10	-2.534088e+01	-6.314555e+01
1.000000e-06	-3.605103e-06	-9.391804e-10	-2.509299e+01	-6.277154e+01
1.010000e-06	-3.569362e-06	-9.424820e-10	-2.484422e+01	-6.239379e+01
1.020000e-06	-3.533528e-06	-9.355580e-10	-2.459480e+01	-6.201223e+01
1.030000e-06	-3.497543e-06	-9.280396e-10	-2.434433e+01	-6.162680e+01
1.040000e-06	-3.461348e-06	-9.246028e-10	-2.409240e+01	-6.123743e+01
1.050000e-06	-3.424887e-06	-9.153331e-10	-2.383862e+01	-6.084406e+01
1.060000e-06	-3.388121e-06	-8.997899e-10	-2.358271e+01	-6.044664e+01
1.070000e-06	-3.351072e-06	-8.941196e-10	-2.332484e+01	-6.004510e+01
1.080000e-06	-3.313706e-06	-8.890298e-10	-2.306475e+01	-5.963939e+01
1.090000e-06	-3.276049e-06	-8.812590e-10	-2.280264e+01	-5.922946e+01
1.100000e-06	-3.238241e-06	-8.755427e-10	-2.253948e+01	-5.881525e+01
1.110000e-06	-3.200260e-06	-8.727443e-10	-2.227512e+01	-5.839673e+01
1.120000e-06	-3.162018e-06	-8.628194e-10	-2.200894e+01	-5.797384e+01
1.130000e-06	-3.123590e-06	-8.523862e-10	-2.174147e+01	-5.754654e+01
1.140000e-06	-3.084998e-06	-8.430044e-10	-2.147285e+01	-5.711480e+01
1.150000e-06	-3.046143e-06	-8.323150e-10	-2.120241e+01	-5.667856e+01
1.160000e-06	-3.007075e-06	-8.184485e-10	-2.093047e+01	-5.623781e+01
1.170000e-06	-2.967817e-06	-8.119933e-10	-2.065722e+01	-5.579249e+01
1.180000e-06	-2.928379e-06	-8.102384e-10	-2.038272e+01	-5.534257e+01
1.190000e-06	-2.888857e-06	-8.077831e-10	-2.010763e+01	-5.488802e+01
1.200000e-06	-2.849237e-06	-8.023264e-10	-1.983186e+01	-5.442879e+01
1.210000e-06	-2.809452e-06	-7.964272e-10	-1.955494e+01	-5.396487e+01
1.220000e-06	-2.769430e-06	-7.852404e-10	-1.927637e+01	-5.349619e+01
1.230000e-06	-2.729328e-06	-7.746930e-10	-1.899724e+01	-5.302274e+01
1.240000e-06	-2.689059e-06	-7.642536e-10	-1.871695e+01	-5.254446e+01
1.250000e-06	-2.648596e-06	-7.539517e-10	-1.843531e+01	-5.206131e+01
1.260000e-06	-2.608018e-06	-7.448373e-10	-1.815287e+01	-5.157323e+01
1.270000e-06	-2.567184e-06	-7.371063e-10	-1.786865e+01	-5.108019e+01
1.280000e-06	-2.526047e-06	-7.334384e-10	-1.758232e+01	-5.058211e+01
1.290000e-06	-2.484557e-06	-7.301908e-10	-1.729353e+01	-5.007894e+01
1.300000e-06	-2.442656e-06	-7.218615e-10	-1.700189e+01	-4.957059e+01
1.310000e-06	-2.400397e-06	-7.105631e-10	-1.670775e+01	-4.905700e+01
1.320000e-06	-2.357893e-06	-6.985660e-10	-1.641190e+01	-4.853806e+01
1.330000e-06	-2.315062e-06	-6.861247e-10	-1.611378e+01	-4.801370e+01
1.340000e-06	-2.271974e-06	-6.753575e-10	-1.581387e+01	-4.748378e+01
1.350000e-06	-2.228714e-06	-6.665885e-10	-1.551276e+01	-4.694821e+01
1.360000e-06	-2.185270e-06	-6.578499e-10	-1.521037e+01	-4.640684e+01
1.370000e-06	-2.141740e-06	-6.517245e-10	-1.490739e+01	-4.585954e+01
1.380000e-06	-2.098137e-06	-6.486793e-10	-1.460389e+01	-4.530614e+01
1.390000e-06	-2.054511e-06	-6.407811e-10	-1.430024e+01	-4.474648e+01
1.400000e-06	-2.010808e-06	-6.308183e-10	-1.399605e+01	-4.418037e+01
1.410000e-06	-1.966982e-06	-6.202152e-10	-1.369100e+01	-4.360762e+01
1.420000e-06	-1.923103e-06	-6.113148e-10	-1.338559e+01	-4.302800e+01
1.430000e-06	-1.879134e-06	-6.015217e-10	-1.307954e+01	-4.244128e+01
1.440000e-06	-1.835030e-06	-5.905161e-10	-1.277256e+01	-4.184723e+01
1.450000e-06	-1.790830e-06	-5.806474e-10	-1.246491e+01	-4.124557e+01
1.460000e-06	-1.746529e-06	-5.710029e-10	-1.215656e+01	-4.063603e+01
1.470000e-06	-1.702146e-06	-5.587368e-10	-1.184764e+01	-4.001831e+01
1.480000e-06	-1.657659e-06	-5.477849e-10	-1.153799e+01	-3.939211e+01
1.490000e-06	-1.613024e-06	-5.375913e-10	-1.122731e+01	-3.875708e+01
1.500000e-06	-1.568249e-06	-5.271148e-10	-1.091566e+01	-3.811291e+01
1.510000e-06	-1.523306e-06	-5.166510e-10	-1.060284e+01	-3.745922e+01
1.520000e-06	-1.478233e-06	-5.073984e-10	-1.028911e+01	-3.679565e+01
1.530000e-06	-1.433074e-06	-4.970255e-10	-9.974781e+00	-3.612183e+01
1.540000e-06	-1.387810e-06	-4.853517e-10	-9.659723e+00	-3.543735e+01
1.550000e-06	-1.342472e-06	-4.717073e-10	-9.344158e+00	-3.474183e+01
1.560000e-06	-1.297077e-06	-4.586630e-10	-9.028187e+00	-3.403484e+01
1.570000e-06	-1.251597e-06	-4.461537e-10	-8.711631e+00	-3.331598e+01
1.580000e-06	-1.205941e-06	-4.359351e-10	-8.393846e+00	-3.258482e+01
1.590000e-06	-1.160171e-06	-4.287340e-10	-8.075264e+00	-3.184095e+01
1.600000e-06	-1.114433e-06	-4.212714e-10	-7.756912e+00	-3.108394e+01
1.610000e-06	-1.068635e-06	-4.099853e-10	-7.438139e+00	-3.031337e+01
1.620000e-06	-1.022686e-06	-3.976076e-10	-7.118316e+00	-2.952882e+01
1.630000e-06	-9.765902e-07	-3.875752e-10	-6.797468e+00	-2.872990e+01
1.640000e-06	-9.304608e-07	-3.748758e-10	-6.476388e+00	-2.791619e+01
1.650000e-06	-8.843390e-07	-3.588854e-10	-6.155362e+00	-2.708731e+01
1.660000e-06	-8.380627e-07	-3.428443e-10	-5.833260e+00	-2.624289e+01
1.670000e-06	-7.917318e-07	-3.282513e-10	-5.510778e+00	-2.538259e+01
1.680000e-06	-7.454331e-07	-3.144602e-10	-5.188519e+00	-2.450607e+01
1.690000e-06	-6.990291e-07	-3.018465e-10	-4.865529e+00	-2.361302e+01
1.700000e-06	-6.525615e-07	-2.896782e-10	-4.542096e+00	-2.270317e+01
1.710000e-06	-6.060969e-07	-2.782316e-10	-4.218683e+00	-2.177626e+01
1.720000e-06	-5.596039e-07	-2.633860e-10	-3.895072e+00	-2.083210e+01
1.730000e-06	-5.129636e-07	-2.452642e-10	-3.570437e+00	-1.987048e+01
1.740000e-06	-4.663057e-07	-2.248560e-10	-3.245679e+00	-1.889129e+01
1.750000e-06	-4.197421e-07	-2.058372e-10	-2.921577e+00	-1.789442e+01
1.760000e-06	-3.731751e-07	-1.914370e-10	-2.597452e+00	-1.687982e+01
1.770000e-06	-3.265471e-07	-1.804049e-10	-2.272901e+00	-1.584748e+01
1.780000e-06	-2.798283e-07	-1.682665e-10	-1.947719e+00	-1.479745e+01
1.790000e-06	-2.330550e-07	-1.558042e-10	-1.622158e+00	-1.372983e+01
1.800000e-06	-1.862468e-07	-1.420176e-10	-1.296354e+00	-1.264475e+01
1.810000e-06	-1.394949e-07	-1.249800e-10	-9.709417e-01	-1.154242e+01
1.820000e-06	-9.270329e-08	-1.076614e-10	-6.452529e-01	-1.042311e+01
1.830000e-06	-4.580604e-08	-9.344429e-11	-3.188288e-01	-9.287112e+00
1.840000e-06	1.011437e-09	-7.848957e-11	7.040015e-03	-8.134815e+00
1.850000e-06	4.767107e-08	-6.169085e-11	3.318102e-01	-6.966642e+00
1.860000e-06	9.430453e-08	-4.807278e-11	6.563982e-01	-5.783082e+00
1.870000e-06	1.409809e-07	-3.205911e-11	9.812845e-01	-4.584681e+00
1.880000e-06	1.876677e-07	-1.220855e-11	1.306244e+00	-3.372039e+00
1.890000e-06	2.343298e-07	5.942728e-12	1.631031e+00	-2.145817e+00
1.900000e-06	2.809514e-07	2.409819e-11	1.955537e+00	-9.067279e-01
1.910000e-06	3.276197e-07	4.411009e-11	2.280367e+00	3.444619e-01
1.920000e-06	3.743194e-07	6.077956e-11	2.605417e+00	1.606934e+00
1.930000e-06	4.210236e-07	7.468820e-11	2.930497e+00	2.879820e+00
1.940000e-06	4.676843e-07	9.237219e-11	3.255274e+00	4.162207e+00
1.950000e-06	5.143001e-07	1.119003e-10	3.579739e+00	5.453136e+00
1.960000e-06	5.608528e-07	1.304556e-10	3.903765e+00	6.751610e+00
1.970000e-06	6.072786e-07	1.491986e-10	4.226908e+00	8.056594e+00
1.980000e-06	6.536895e-07	1.687165e-10	4.549947e+00	9.367018e+00
1.990000e-06	7.000870e-07	1.892621e-10	4.872892e+00	1.068179e+01
2.000000e-06	7.463383e-07	2.060132e-10	5.194820e+00	1.199977e+01
2.010000e-06	7.924648e-07	2.217958e-10	5.515880e+00	1.331984e+01
2.020000e-06	8.386079e-07	2.398510e-10	5.837055e+00	1.464082e+01
2.030000e-06	8.847738e-07	2.605928e-10	6.158388e+00	1.596155e+01
2.040000e-06	9.308522e-07	2.824313e-10	6.479113e+00	1.728084e+01
2.050000e-06	9.768434e-07	3.029790e-10	6.799230e+00	1.859753e+01
2.060000e-06	1.022813e-06	3.211830e-10	7.119200e+00	1.991042e+01
2.070000e-06	1.068713e-06	3.395505e-10	7.438681e+00	2.121836e+01
2.080000e-06	1.114499e-06	3.588277e-10	7.757369e+00	2.252018e+01
2.090000e-06	1.160221e-06	3.775700e-10	8.075613e+00	2.381475e+01
2.100000e-06	1.205811e-06	3.963557e-10	8.392935e+00	2.510095e+01
2.110000e-06	1.251292e-06	4.133455e-10	8.709505e+00	2.637770e+01
2.120000e-06	1.296679e-06	4.291775e-10	9.025420e+00	2.764393e+01
2.130000e-06	1.341971e-06	4.466803e-10	9.340669e+00	2.889862e+01
2.140000e-06	1.387281e-06	4.649140e-10	9.656042e+00	3.014079e+01
2.150000e-06	1.432490e-06	4.819281e-10	9.970720e+00	3.136949e+01
2.160000e-06	1.477523e-06	4.986381e-10	1.028417e+01	3.258384e+01
2.170000e-06	1.522437e-06	5.159664e-10	1.059679e+01	3.378300e+01
2.180000e-06	1.567199e-06	5.355475e-10	1.090835e+01	3.496616e+01
2.190000e-06	1.611904e-06	5.521539e-10	1.121951e+01	3.613260e+01
2.200000e-06	1.656480e-06	5.665418e-10	1.152978e+01	3.728164e+01
2.210000e-06	1.700854e-06	5.800066e-10	1.183864e+01	3.841266e+01
2.220000e-06	1.745141e-06	5.920890e-10	1.214690e+01	3.952511e+01
2.230000e-06	1.789372e-06	6.044085e-10	1.245476e+01	4.061849e+01
2.240000e-06	1.833503e-06	6.166040e-10	1.276193e+01	4.169236e+01
2.250000e-06	1.877496e-06	6.320858e-10	1.306814e+01	4.274636e+01
2.260000e-06	1.921405e-06	6.477969e-10	1.337377e+01	4.378018e+01
2.270000e-06	1.965213e-06	6.675734e-10	1.367869e+01	4.479358e+01
2.280000e-06	2.008949e-06	6.864988e-10	1.398311e+01	4.578637e+01
2.290000e-06	2.052659e-06	7.012212e-10	1.428735e+01	4.675844e+01
2.300000e-06	2.096316e-06	7.108493e-10	1.459122e+01	4.770971e+01
2.310000e-06	2.139856e-06	7.172384e-10	1.489427e+01	4.864019e+01
2.320000e-06	2.183238e-06	7.260133e-10	1.519623e+01	4.954991e+01
2.330000e-06	2.226554e-06	7.353551e-10	1.549773e+01	5.043899e+01
2.340000e-06	2.269806e-06	7.487455e-10	1.579878e+01	5.130756e+01
2.350000e-06	2.312872e-06	7.674764e-10	1.609853e+01	5.215584e+01
2.360000e-06	2.355620e-06	7.873755e-10	1.639608e+01	5.298405e+01
2.370000e-06	2.398080e-06	8.007510e-10	1.669162e+01	5.379247e+01
2.380000e-06	2.440308e-06	8.099683e-10	1.698554e+01	5.458144e+01
2.390000e-06	2.482169e-06	8.188928e-10	1.727691e+01	5.535128e+01
2.400000e-06	2.523638e-06	8.271947e-10	1.756556e+01	5.610239e+01
2.410000e-06	2.564784e-06	8.354738e-10	1.785195e+01	5.683516e+01
2.420000e-06	2.605653e-06	8.458428e-10	1.813641e+01	5.755003e+01
2.430000e-06	2.646286e-06	8.597416e-10	1.841924e+01	5.824743e+01
2.440000e-06	2.686677e-06	8.734543e-10	1.870038e+01	5.892782e+01
2.450000e-06	2.726880e-06	8.851817e-10	1.898020e+01	5.959168e+01
2.460000e-06	2.766919e-06	8.973749e-10	1.925889e+01	6.023947e+01
2.470000e-06	2.806744e-06	9.082661e-10	1.953609e+01	6.087168e+01
2.480000e-06	2.846469e-06	9.180191e-10	1.981259e+01	6.148878e+01
2.490000e-06	2.886121e-06	9.255307e-10	2.008858e+01	6.209125e+01
2.500000e-06	2.925651e-06	9.323428e-10	2.036373e+01	6.267956e+01
2.510000e-06	2.965034e-06	9.399592e-10	2.063785e+01	6.325416e+01
2.520000e-06	3.004151e-06	9.488014e-10	2.091012e+01	6.381551e+01
2.530000e-06	3.043109e-06	9.568672e-10	2.118128e+01	6.436405e+01
2.540000e-06	3.081917e-06	9.637298e-10	2.145141e+01	6.490019e+01
2.550000e-06	3.120456e-06	9.709153e-10	2.171965e+01	6.542434e+01
2.560000e-06	3.158734e-06	9.792527e-10	2.198608e+01	6.593687e+01
2.570000e-06	3.196777e-06	9.855443e-10	2.225088e+01	6.643816e+01
2.580000e-06	3.234639e-06	9.906583e-10	2.251441e+01	6.692855e+01
2.590000e-06	3.272327e-06	9.975726e-10	2.277674e+01	6.740836e+01
2.600000e-06	3.309762e-06	1.005125e-09	2.303730e+01	6.787789e+01
2.610000e-06	3.347029e-06	1.012092e-09	2.329670e+01	6.833743e+01
2.620000e-06	3.384155e-06	1.017467e-09	2.355510e+01	6.878721e+01
2.630000e-06	3.420925e-06	1.020679e-09	2.381104e+01	6.922750e+01
2.640000e-06	3.457422e-06	1.023305e-09	2.406507e+01	6.965848e+01
2.650000e-06	3.493725e-06	1.028467e-09	2.431776e+01	7.008038e+01
2.660000e-06	3.529804e-06	1.034025e-09	2.456888e+01	7.049335e+01
2.670000e-06	3.565701e-06	1.038952e-09	2.481874e+01	7.089755e+01
2.680000e-06	3.601420e-06	1.045392e-09	2.506736e+01	7.129314e+01
2.690000e-06	3.636982e-06	1.052925e-09	2.531488e+01	7.168024e+01
2.700000e-06	3.672436e-06	1.059243e-09	2.556166e+01	7.205895e+01
2.710000e-06	3.707792e-06	1.063196e-09	2.580775e+01	7.242939e+01
2.720000e-06	3.742834e-06	1.065919e-09	2.605166e+01	7.279164e+01
2.730000e-06	3.777445e-06	1.068246e-09	2.629256e+01	7.314579e+01
2.740000e-06	3.811664e-06	1.068757e-09	2.653074e+01	7.349191e+01
2.750000e-06	3.845461e-06	1.070838e-09	2.676599e+01	7.383009e+01
2.760000e-06	3.878839e-06	1.076381e-09	2.699831e+01	7.416037e+01
2.770000e-06	3.911756e-06	1.084904e-09	2.722742e+01	7.448285e+01
2.780000e-06	3.944260e-06	1.094466e-09	2.745367e+01	7.479757e+01
2.790000e-06	3.976408e-06	1.101366e-09	2.767743e+01	7.510461e+01
2.800000e-06	4.008290e-06	1.104129e-09	2.789934e+01	7.540404e+01
2.810000e-06	4.039995e-06	1.104693e-09	2.812002e+01	7.569594e+01
2.820000e-06	4.071562e-06	1.104264e-09	2.833974e+01	7.598038e+01
2.830000e-06	4.103015e-06	1.105390e-09	2.855866e+01	7.625745e+01
2.840000e-06	4.134207e-06	1.111000e-09	2.877578e+01	7.652724e+01
2.850000e-06	4.165103e-06	1.122231e-09	2.899082e+01	7.678986e+01
2.860000e-06	4.195774e-06	1.132372e-09	2.920431e+01	7.704540e+01
2.870000e-06	4.226033e-06	1.138080e-09	2.941492e+01	7.729399e+01
2.880000e-06	4.255891e-06	1.141108e-09	2.962274e+01	7.753574e+01
2.890000e-06	4.285489e-06	1.143294e-09	2.982876e+01	7.777079e+01
2.900000e-06	4.314729e-06	1.143337e-09	3.003228e+01	7.799927e+01
2.910000e-06	4.343693e-06	1.143360e-09	3.023388e+01	7.822132e+01
