# Temperatura_=_-0.49
# Concentracion g/m^3_=_1620.0
# C_Vs_to_Am_M_A/Vsm_=_65563218390.804596
# pendiente_HvsI_1/m_=_3716.3
# ordenada_HvsI_A/m_=_1297.0
# frecuencia_Hz_=_135095.75504572442

Tiempo_(s)	Campo_(V.s)	Magnetizacion_(V.s)	Campo_(kA/m)	Magnetizacion_(A/m)
0.000000e+00	-5.517732e-06	-1.288370e-09	-3.837735e+01	-8.479248e+01
1.000000e-08	-5.517860e-06	-1.284129e-09	-3.837824e+01	-8.474279e+01
2.000000e-08	-5.517745e-06	-1.282548e-09	-3.837744e+01	-8.469451e+01
3.000000e-08	-5.517250e-06	-1.281970e-09	-3.837400e+01	-8.464757e+01
4.000000e-08	-5.516235e-06	-1.275057e-09	-3.836693e+01	-8.460189e+01
5.000000e-08	-5.514568e-06	-1.257009e-09	-3.835534e+01	-8.455736e+01
6.000000e-08	-5.512271e-06	-1.240380e-09	-3.833936e+01	-8.451382e+01
7.000000e-08	-5.509379e-06	-1.254504e-09	-3.831925e+01	-8.447112e+01
8.000000e-08	-5.506002e-06	-1.340705e-09	-3.829576e+01	-8.442907e+01
9.000000e-08	-5.502112e-06	-1.459404e-09	-3.826871e+01	-8.438745e+01
1.000000e-07	-5.497711e-06	-1.390403e-09	-3.823809e+01	-8.434604e+01
1.100000e-07	-5.493077e-06	-1.185651e-09	-3.820586e+01	-8.430459e+01
1.200000e-07	-5.488405e-06	-1.134718e-09	-3.817337e+01	-8.426282e+01
1.300000e-07	-5.483527e-06	-1.311905e-09	-3.813944e+01	-8.422048e+01
1.400000e-07	-5.478114e-06	-1.373892e-09	-3.810180e+01	-8.417725e+01
1.500000e-07	-5.472242e-06	-1.204577e-09	-3.806095e+01	-8.413284e+01
1.600000e-07	-5.466144e-06	-1.157145e-09	-3.801854e+01	-8.408694e+01
1.700000e-07	-5.459671e-06	-1.348535e-09	-3.797352e+01	-8.403923e+01
1.800000e-07	-5.452692e-06	-1.436722e-09	-3.792498e+01	-8.398940e+01
1.900000e-07	-5.445398e-06	-1.259106e-09	-3.787425e+01	-8.393712e+01
2.000000e-07	-5.437893e-06	-1.168033e-09	-3.782205e+01	-8.388208e+01
2.100000e-07	-5.430060e-06	-1.307504e-09	-3.776756e+01	-8.382395e+01
2.200000e-07	-5.421909e-06	-1.430533e-09	-3.771087e+01	-8.376244e+01
2.300000e-07	-5.413510e-06	-1.343251e-09	-3.765246e+01	-8.369724e+01
2.400000e-07	-5.404639e-06	-1.265026e-09	-3.759076e+01	-8.362806e+01
2.500000e-07	-5.394941e-06	-1.309962e-09	-3.752331e+01	-8.355461e+01
2.600000e-07	-5.384484e-06	-1.355324e-09	-3.745058e+01	-8.347662e+01
2.700000e-07	-5.373627e-06	-1.293407e-09	-3.737506e+01	-8.339384e+01
2.800000e-07	-5.362386e-06	-1.266825e-09	-3.729688e+01	-8.330603e+01
2.900000e-07	-5.350700e-06	-1.322116e-09	-3.721560e+01	-8.321298e+01
3.000000e-07	-5.338636e-06	-1.344728e-09	-3.713169e+01	-8.311446e+01
3.100000e-07	-5.326161e-06	-1.289312e-09	-3.704492e+01	-8.301031e+01
3.200000e-07	-5.313176e-06	-1.263177e-09	-3.695460e+01	-8.290035e+01
3.300000e-07	-5.299841e-06	-1.303981e-09	-3.686186e+01	-8.278444e+01
3.400000e-07	-5.286237e-06	-1.316942e-09	-3.676724e+01	-8.266245e+01
3.500000e-07	-5.272066e-06	-1.269702e-09	-3.666868e+01	-8.253429e+01
3.600000e-07	-5.257356e-06	-1.263122e-09	-3.656636e+01	-8.239985e+01
3.700000e-07	-5.242492e-06	-1.309758e-09	-3.646298e+01	-8.225910e+01
3.800000e-07	-5.227154e-06	-1.286908e-09	-3.635630e+01	-8.211197e+01
3.900000e-07	-5.211041e-06	-1.237976e-09	-3.624423e+01	-8.195846e+01
4.000000e-07	-5.194472e-06	-1.279125e-09	-3.612898e+01	-8.179856e+01
4.100000e-07	-5.177629e-06	-1.309108e-09	-3.601184e+01	-8.163228e+01
4.200000e-07	-5.160489e-06	-1.220369e-09	-3.589263e+01	-8.145966e+01
4.300000e-07	-5.143020e-06	-1.215703e-09	-3.577112e+01	-8.128075e+01
4.400000e-07	-5.125343e-06	-1.311558e-09	-3.564817e+01	-8.109563e+01
4.500000e-07	-5.107207e-06	-1.280352e-09	-3.552203e+01	-8.090436e+01
4.600000e-07	-5.088483e-06	-1.180199e-09	-3.539180e+01	-8.070706e+01
4.700000e-07	-5.069395e-06	-1.247233e-09	-3.525904e+01	-8.050383e+01
4.800000e-07	-5.050061e-06	-1.298966e-09	-3.512457e+01	-8.029480e+01
4.900000e-07	-5.030539e-06	-1.217791e-09	-3.498878e+01	-8.008009e+01
5.000000e-07	-5.010822e-06	-1.210318e-09	-3.485165e+01	-7.985984e+01
5.100000e-07	-4.990834e-06	-1.273241e-09	-3.471263e+01	-7.963422e+01
5.200000e-07	-4.970452e-06	-1.209956e-09	-3.457087e+01	-7.940336e+01
5.300000e-07	-4.949719e-06	-1.183549e-09	-3.442666e+01	-7.916744e+01
5.400000e-07	-4.928631e-06	-1.268357e-09	-3.427999e+01	-7.892662e+01
5.500000e-07	-4.907210e-06	-1.240891e-09	-3.413100e+01	-7.868106e+01
5.600000e-07	-4.885481e-06	-1.147614e-09	-3.397987e+01	-7.843093e+01
5.700000e-07	-4.863446e-06	-1.207422e-09	-3.382661e+01	-7.817641e+01
5.800000e-07	-4.841042e-06	-1.255858e-09	-3.367078e+01	-7.791765e+01
5.900000e-07	-4.818125e-06	-1.181211e-09	-3.351139e+01	-7.765483e+01
6.000000e-07	-4.794920e-06	-1.176664e-09	-3.334999e+01	-7.738811e+01
6.100000e-07	-4.771555e-06	-1.229003e-09	-3.318748e+01	-7.711765e+01
6.200000e-07	-4.747934e-06	-1.180725e-09	-3.302319e+01	-7.684361e+01
6.300000e-07	-4.724123e-06	-1.141567e-09	-3.285758e+01	-7.656612e+01
6.400000e-07	-4.700116e-06	-1.181027e-09	-3.269061e+01	-7.628535e+01
6.500000e-07	-4.675775e-06	-1.167965e-09	-3.252130e+01	-7.600141e+01
6.600000e-07	-4.650959e-06	-1.134125e-09	-3.234870e+01	-7.571445e+01
6.700000e-07	-4.625487e-06	-1.164065e-09	-3.217154e+01	-7.542459e+01
6.800000e-07	-4.599311e-06	-1.175952e-09	-3.198948e+01	-7.513192e+01
6.900000e-07	-4.572609e-06	-1.138342e-09	-3.180376e+01	-7.483657e+01
7.000000e-07	-4.545500e-06	-1.138184e-09	-3.161521e+01	-7.453863e+01
7.100000e-07	-4.518078e-06	-1.149732e-09	-3.142448e+01	-7.423818e+01
7.200000e-07	-4.490488e-06	-1.130234e-09	-3.123258e+01	-7.393530e+01
7.300000e-07	-4.462813e-06	-1.120979e-09	-3.104010e+01	-7.363006e+01
7.400000e-07	-4.434961e-06	-1.133093e-09	-3.084638e+01	-7.332251e+01
7.500000e-07	-4.406870e-06	-1.119319e-09	-3.065100e+01	-7.301272e+01
7.600000e-07	-4.378429e-06	-1.103996e-09	-3.045318e+01	-7.270070e+01
7.700000e-07	-4.349592e-06	-1.102807e-09	-3.025262e+01	-7.238650e+01
7.800000e-07	-4.320419e-06	-1.099206e-09	-3.004970e+01	-7.207014e+01
7.900000e-07	-4.290945e-06	-1.095205e-09	-2.984471e+01	-7.175163e+01
8.000000e-07	-4.261228e-06	-1.101383e-09	-2.963802e+01	-7.143097e+01
8.100000e-07	-4.231151e-06	-1.089607e-09	-2.942882e+01	-7.110816e+01
8.200000e-07	-4.200789e-06	-1.070700e-09	-2.921764e+01	-7.078318e+01
8.300000e-07	-4.170215e-06	-1.066531e-09	-2.900500e+01	-7.045601e+01
8.400000e-07	-4.139359e-06	-1.062004e-09	-2.879038e+01	-7.012663e+01
8.500000e-07	-4.108283e-06	-1.043207e-09	-2.857424e+01	-6.979499e+01
8.600000e-07	-4.076989e-06	-1.039915e-09	-2.835658e+01	-6.946106e+01
8.700000e-07	-4.045486e-06	-1.043443e-09	-2.813747e+01	-6.912478e+01
8.800000e-07	-4.013839e-06	-1.036387e-09	-2.791736e+01	-6.878610e+01
8.900000e-07	-3.981985e-06	-1.032099e-09	-2.769581e+01	-6.844495e+01
9.000000e-07	-3.949864e-06	-1.029661e-09	-2.747239e+01	-6.810127e+01
9.100000e-07	-3.917452e-06	-1.015640e-09	-2.724696e+01	-6.775498e+01
9.200000e-07	-3.884609e-06	-1.002821e-09	-2.701853e+01	-6.740602e+01
9.300000e-07	-3.851283e-06	-1.004173e-09	-2.678674e+01	-6.705428e+01
9.400000e-07	-3.817554e-06	-9.972841e-10	-2.655214e+01	-6.669970e+01
9.500000e-07	-3.783392e-06	-9.832402e-10	-2.631454e+01	-6.634218e+01
9.600000e-07	-3.748746e-06	-9.785918e-10	-2.607356e+01	-6.598164e+01
9.700000e-07	-3.713752e-06	-9.762572e-10	-2.583017e+01	-6.561798e+01
9.800000e-07	-3.678506e-06	-9.654903e-10	-2.558503e+01	-6.525110e+01
9.900000e-07	-3.643041e-06	-9.609324e-10	-2.533835e+01	-6.488091e+01
1.000000e-06	-3.607441e-06	-9.589420e-10	-2.509075e+01	-6.450732e+01
1.010000e-06	-3.571692e-06	-9.482797e-10	-2.484210e+01	-6.413023e+01
1.020000e-06	-3.535813e-06	-9.380826e-10	-2.459255e+01	-6.374954e+01
1.030000e-06	-3.499754e-06	-9.346421e-10	-2.434175e+01	-6.336516e+01
1.040000e-06	-3.463420e-06	-9.247147e-10	-2.408904e+01	-6.297700e+01
1.050000e-06	-3.426798e-06	-9.125026e-10	-2.383433e+01	-6.258496e+01
1.060000e-06	-3.389919e-06	-9.070049e-10	-2.357782e+01	-6.218895e+01
1.070000e-06	-3.352782e-06	-9.042023e-10	-2.331953e+01	-6.178889e+01
1.080000e-06	-3.315345e-06	-8.956489e-10	-2.305914e+01	-6.138470e+01
1.090000e-06	-3.277717e-06	-8.914266e-10	-2.279743e+01	-6.097628e+01
1.100000e-06	-3.239896e-06	-8.886503e-10	-2.253437e+01	-6.056358e+01
1.110000e-06	-3.201834e-06	-8.798222e-10	-2.226964e+01	-6.014651e+01
1.120000e-06	-3.163583e-06	-8.688469e-10	-2.200359e+01	-5.972500e+01
1.130000e-06	-3.125067e-06	-8.617544e-10	-2.173571e+01	-5.929899e+01
1.140000e-06	-3.086323e-06	-8.515468e-10	-2.146623e+01	-5.886842e+01
1.150000e-06	-3.047464e-06	-8.370619e-10	-2.119596e+01	-5.843324e+01
1.160000e-06	-3.008353e-06	-8.283101e-10	-2.092393e+01	-5.799339e+01
1.170000e-06	-2.969025e-06	-8.262581e-10	-2.065039e+01	-5.754882e+01
1.180000e-06	-2.929638e-06	-8.245886e-10	-2.037644e+01	-5.709949e+01
1.190000e-06	-2.890157e-06	-8.216778e-10	-2.010184e+01	-5.664536e+01
1.200000e-06	-2.850515e-06	-8.155962e-10	-1.982612e+01	-5.618640e+01
1.210000e-06	-2.810681e-06	-8.050291e-10	-1.954906e+01	-5.572256e+01
1.220000e-06	-2.770738e-06	-7.933677e-10	-1.927124e+01	-5.525381e+01
1.230000e-06	-2.730607e-06	-7.840939e-10	-1.899213e+01	-5.478013e+01
1.240000e-06	-2.690187e-06	-7.748891e-10	-1.871100e+01	-5.430147e+01
1.250000e-06	-2.649557e-06	-7.658403e-10	-1.842840e+01	-5.381781e+01
1.260000e-06	-2.608760e-06	-7.592125e-10	-1.814464e+01	-5.332912e+01
1.270000e-06	-2.567729e-06	-7.521863e-10	-1.785926e+01	-5.283535e+01
1.280000e-06	-2.526321e-06	-7.446774e-10	-1.757126e+01	-5.233648e+01
1.290000e-06	-2.484664e-06	-7.363233e-10	-1.728152e+01	-5.183245e+01
1.300000e-06	-2.442699e-06	-7.292474e-10	-1.698964e+01	-5.132321e+01
1.310000e-06	-2.400310e-06	-7.209411e-10	-1.669482e+01	-5.080872e+01
1.320000e-06	-2.357708e-06	-7.107348e-10	-1.639851e+01	-5.028889e+01
1.330000e-06	-2.314939e-06	-7.006953e-10	-1.610104e+01	-4.976367e+01
1.340000e-06	-2.271918e-06	-6.915973e-10	-1.580181e+01	-4.923295e+01
1.350000e-06	-2.228719e-06	-6.823072e-10	-1.550136e+01	-4.869664e+01
1.360000e-06	-2.185387e-06	-6.741690e-10	-1.519997e+01	-4.815463e+01
1.370000e-06	-2.141873e-06	-6.688023e-10	-1.489732e+01	-4.760680e+01
1.380000e-06	-2.098257e-06	-6.656518e-10	-1.459396e+01	-4.705298e+01
1.390000e-06	-2.054582e-06	-6.588680e-10	-1.429018e+01	-4.649303e+01
1.400000e-06	-2.010850e-06	-6.503501e-10	-1.398602e+01	-4.592676e+01
1.410000e-06	-1.967015e-06	-6.410735e-10	-1.368113e+01	-4.535397e+01
1.420000e-06	-1.923089e-06	-6.310172e-10	-1.337561e+01	-4.477444e+01
1.430000e-06	-1.879066e-06	-6.198059e-10	-1.306942e+01	-4.418793e+01
1.440000e-06	-1.834897e-06	-6.082513e-10	-1.276222e+01	-4.359418e+01
1.450000e-06	-1.790597e-06	-5.966116e-10	-1.245410e+01	-4.299289e+01
1.460000e-06	-1.746243e-06	-5.868305e-10	-1.214560e+01	-4.238376e+01
1.470000e-06	-1.701789e-06	-5.793665e-10	-1.183642e+01	-4.176646e+01
1.480000e-06	-1.657178e-06	-5.709926e-10	-1.152613e+01	-4.114063e+01
1.490000e-06	-1.612478e-06	-5.625663e-10	-1.121523e+01	-4.050589e+01
1.500000e-06	-1.567632e-06	-5.566909e-10	-1.090332e+01	-3.986186e+01
1.510000e-06	-1.522604e-06	-5.493569e-10	-1.059013e+01	-3.920812e+01
1.520000e-06	-1.477479e-06	-5.395127e-10	-1.027627e+01	-3.854422e+01
1.530000e-06	-1.432219e-06	-5.284978e-10	-9.961478e+00	-3.786971e+01
1.540000e-06	-1.386729e-06	-5.128152e-10	-9.645083e+00	-3.718413e+01
1.550000e-06	-1.341179e-06	-4.971477e-10	-9.328272e+00	-3.648698e+01
1.560000e-06	-1.295624e-06	-4.821601e-10	-9.011426e+00	-3.577776e+01
1.570000e-06	-1.249964e-06	-4.679098e-10	-8.693844e+00	-3.505598e+01
1.580000e-06	-1.204226e-06	-4.590923e-10	-8.375726e+00	-3.432112e+01
1.590000e-06	-1.158431e-06	-4.526570e-10	-8.057208e+00	-3.357264e+01
1.600000e-06	-1.112461e-06	-4.422217e-10	-7.737472e+00	-3.281004e+01
1.610000e-06	-1.066400e-06	-4.284882e-10	-7.417103e+00	-3.203280e+01
1.620000e-06	-1.020277e-06	-4.159414e-10	-7.096309e+00	-3.124039e+01
1.630000e-06	-9.741625e-07	-4.053461e-10	-6.775569e+00	-3.043231e+01
1.640000e-06	-9.280614e-07	-3.921153e-10	-6.454923e+00	-2.960806e+01
1.650000e-06	-8.818411e-07	-3.766689e-10	-6.133448e+00	-2.876718e+01
1.660000e-06	-8.355736e-07	-3.626937e-10	-5.811645e+00	-2.790919e+01
1.670000e-06	-7.891289e-07	-3.469490e-10	-5.488609e+00	-2.703366e+01
1.680000e-06	-7.426077e-07	-3.310399e-10	-5.165041e+00	-2.614019e+01
1.690000e-06	-6.961850e-07	-3.184877e-10	-4.842159e+00	-2.522839e+01
1.700000e-06	-6.497228e-07	-3.056449e-10	-4.519001e+00	-2.429794e+01
1.710000e-06	-6.032435e-07	-2.933409e-10	-4.195725e+00	-2.334852e+01
1.720000e-06	-5.567369e-07	-2.783988e-10	-3.872259e+00	-2.237988e+01
1.730000e-06	-5.100827e-07	-2.597927e-10	-3.547766e+00	-2.139182e+01
1.740000e-06	-4.634225e-07	-2.399492e-10	-3.223232e+00	-2.038416e+01
1.750000e-06	-4.167979e-07	-2.228860e-10	-2.898945e+00	-1.935680e+01
1.760000e-06	-3.700651e-07	-2.097185e-10	-2.573905e+00	-1.830969e+01
1.770000e-06	-3.232335e-07	-1.970672e-10	-2.248178e+00	-1.724283e+01
1.780000e-06	-2.764083e-07	-1.853521e-10	-1.922496e+00	-1.615631e+01
1.790000e-06	-2.296135e-07	-1.722877e-10	-1.597025e+00	-1.505025e+01
1.800000e-06	-1.828212e-07	-1.553153e-10	-1.271572e+00	-1.392486e+01
1.810000e-06	-1.360258e-07	-1.378103e-10	-9.460973e-01	-1.278039e+01
1.820000e-06	-8.926540e-08	-1.222736e-10	-6.208655e-01	-1.161719e+01
1.830000e-06	-4.249577e-08	-1.088552e-10	-2.955698e-01	-1.043566e+01
1.840000e-06	4.387426e-09	-9.495365e-11	3.051576e-02	-9.236278e+00
1.850000e-06	5.135748e-08	-7.907911e-11	3.572055e-01	-8.019584e+00
1.860000e-06	9.831275e-08	-6.142336e-11	6.837923e-01	-6.786191e+00
1.870000e-06	1.452005e-07	-4.208419e-11	1.009910e+00	-5.536779e+00
1.880000e-06	1.920124e-07	-2.156477e-11	1.335499e+00	-4.272094e+00
1.890000e-06	2.388180e-07	-1.540590e-12	1.661045e+00	-2.992945e+00
1.900000e-06	2.856150e-07	1.643108e-11	1.986531e+00	-1.700206e+00
1.910000e-06	3.324048e-07	3.126810e-11	2.311967e+00	-3.948073e-01
1.920000e-06	3.791965e-07	4.368061e-11	2.637417e+00	9.222633e-01
1.930000e-06	4.258623e-07	5.850883e-11	2.961990e+00	2.249966e+00
1.940000e-06	4.724435e-07	7.837898e-11	3.285975e+00	3.587212e+00
1.950000e-06	5.190626e-07	9.924668e-11	3.610224e+00	4.932867e+00
1.960000e-06	5.656932e-07	1.201465e-10	3.934552e+00	6.285760e+00
1.970000e-06	6.122504e-07	1.418263e-10	4.258371e+00	7.644683e+00
1.980000e-06	6.587203e-07	1.600943e-10	4.581581e+00	9.008397e+00
1.990000e-06	7.051718e-07	1.763311e-10	4.904665e+00	1.037564e+01
2.000000e-06	7.515587e-07	1.913132e-10	5.227298e+00	1.174513e+01
2.010000e-06	7.978723e-07	2.087714e-10	5.549422e+00	1.311558e+01
2.020000e-06	8.441590e-07	2.288507e-10	5.871359e+00	1.448568e+01
2.030000e-06	8.903455e-07	2.493575e-10	6.192598e+00	1.585412e+01
2.040000e-06	9.364237e-07	2.689698e-10	6.513085e+00	1.721962e+01
2.050000e-06	9.824957e-07	2.876170e-10	6.833529e+00	1.858088e+01
2.060000e-06	1.028495e-06	3.081910e-10	7.153468e+00	1.993662e+01
2.070000e-06	1.074361e-06	3.295244e-10	7.472476e+00	2.128560e+01
2.080000e-06	1.120189e-06	3.499806e-10	7.791221e+00	2.262659e+01
2.090000e-06	1.165956e-06	3.700800e-10	8.109549e+00	2.395839e+01
2.100000e-06	1.211552e-06	3.889577e-10	8.426680e+00	2.527986e+01
2.110000e-06	1.257015e-06	4.044447e-10	8.742888e+00	2.658989e+01
2.120000e-06	1.302439e-06	4.184952e-10	9.058820e+00	2.788739e+01
2.130000e-06	1.347848e-06	4.346539e-10	9.374658e+00	2.917137e+01
2.140000e-06	1.393230e-06	4.546891e-10	9.690302e+00	3.044087e+01
2.150000e-06	1.438470e-06	4.766715e-10	1.000495e+01	3.169497e+01
2.160000e-06	1.483503e-06	4.985120e-10	1.031817e+01	3.293285e+01
2.170000e-06	1.528404e-06	5.193073e-10	1.063047e+01	3.415373e+01
2.180000e-06	1.573330e-06	5.374433e-10	1.094294e+01	3.535691e+01
2.190000e-06	1.618166e-06	5.507520e-10	1.125479e+01	3.654174e+01
2.200000e-06	1.662792e-06	5.616828e-10	1.156518e+01	3.770765e+01
2.210000e-06	1.707276e-06	5.735677e-10	1.187457e+01	3.885415e+01
2.220000e-06	1.751587e-06	5.883385e-10	1.218277e+01	3.998081e+01
2.230000e-06	1.795761e-06	6.061586e-10	1.249001e+01	4.108726e+01
2.240000e-06	1.839833e-06	6.236586e-10	1.279654e+01	4.217323e+01
2.250000e-06	1.883797e-06	6.395568e-10	1.310233e+01	4.323849e+01
2.260000e-06	1.927722e-06	6.534122e-10	1.340784e+01	4.428290e+01
2.270000e-06	1.971549e-06	6.721030e-10	1.371267e+01	4.530637e+01
2.280000e-06	2.015263e-06	6.889023e-10	1.401671e+01	4.630887e+01
2.290000e-06	2.058960e-06	7.014616e-10	1.432064e+01	4.729045e+01
2.300000e-06	2.102593e-06	7.105425e-10	1.462411e+01	4.825121e+01
2.310000e-06	2.146138e-06	7.201199e-10	1.492699e+01	4.919129e+01
2.320000e-06	2.189650e-06	7.329390e-10	1.522962e+01	5.011090e+01
2.330000e-06	2.233092e-06	7.481180e-10	1.553177e+01	5.101029e+01
2.340000e-06	2.276334e-06	7.652857e-10	1.583253e+01	5.188976e+01
2.350000e-06	2.319317e-06	7.829506e-10	1.613149e+01	5.274963e+01
2.360000e-06	2.362118e-06	8.019592e-10	1.642918e+01	5.359028e+01
2.370000e-06	2.404710e-06	8.163927e-10	1.672542e+01	5.441210e+01
2.380000e-06	2.447019e-06	8.262276e-10	1.701970e+01	5.521551e+01
2.390000e-06	2.488928e-06	8.331720e-10	1.731118e+01	5.600097e+01
2.400000e-06	2.530412e-06	8.379415e-10	1.759972e+01	5.676893e+01
2.410000e-06	2.571653e-06	8.438798e-10	1.788656e+01	5.751988e+01
2.420000e-06	2.612601e-06	8.541076e-10	1.817136e+01	5.825429e+01
2.430000e-06	2.653256e-06	8.683288e-10	1.845412e+01	5.897266e+01
2.440000e-06	2.693651e-06	8.838331e-10	1.873509e+01	5.967547e+01
2.450000e-06	2.733827e-06	8.967349e-10	1.901452e+01	6.036322e+01
2.460000e-06	2.773890e-06	9.095576e-10	1.929317e+01	6.103638e+01
2.470000e-06	2.813769e-06	9.197501e-10	1.957054e+01	6.169542e+01
2.480000e-06	2.853474e-06	9.276721e-10	1.984670e+01	6.234080e+01
2.490000e-06	2.893093e-06	9.352184e-10	2.012226e+01	6.297296e+01
2.500000e-06	2.932628e-06	9.400892e-10	2.039724e+01	6.359234e+01
2.510000e-06	2.972020e-06	9.453447e-10	2.067122e+01	6.419932e+01
2.520000e-06	3.011267e-06	9.568541e-10	2.094420e+01	6.479430e+01
2.530000e-06	3.050327e-06	9.689442e-10	2.121586e+01	6.537764e+01
2.540000e-06	3.089085e-06	9.778537e-10	2.148544e+01	6.594967e+01
2.550000e-06	3.127563e-06	9.868561e-10	2.175306e+01	6.651071e+01
2.560000e-06	3.165837e-06	9.960214e-10	2.201927e+01	6.706104e+01
2.570000e-06	3.203899e-06	1.001093e-09	2.228400e+01	6.760092e+01
2.580000e-06	3.241712e-06	1.005177e-09	2.254700e+01	6.813059e+01
2.590000e-06	3.279334e-06	1.011081e-09	2.280868e+01	6.865027e+01
2.600000e-06	3.316850e-06	1.018348e-09	2.306961e+01	6.916013e+01
2.610000e-06	3.354095e-06	1.024603e-09	2.332866e+01	6.966036e+01
2.620000e-06	3.391135e-06	1.029681e-09	2.358628e+01	7.015109e+01
2.630000e-06	3.427912e-06	1.034797e-09	2.384207e+01	7.063245e+01
2.640000e-06	3.464338e-06	1.039852e-09	2.409543e+01	7.110455e+01
2.650000e-06	3.500581e-06	1.047440e-09	2.434751e+01	7.156748e+01
2.660000e-06	3.536566e-06	1.055583e-09	2.459779e+01	7.202132e+01
2.670000e-06	3.572347e-06	1.062872e-09	2.484666e+01	7.246613e+01
2.680000e-06	3.608040e-06	1.070695e-09	2.509492e+01	7.290197e+01
2.690000e-06	3.643672e-06	1.078318e-09	2.534274e+01	7.332888e+01
2.700000e-06	3.679148e-06	1.081644e-09	2.558949e+01	7.374690e+01
2.710000e-06	3.714496e-06	1.081386e-09	2.583535e+01	7.415608e+01
2.720000e-06	3.749718e-06	1.083394e-09	2.608032e+01	7.455645e+01
2.730000e-06	3.784450e-06	1.088643e-09	2.632190e+01	7.494804e+01
2.740000e-06	3.818605e-06	1.093734e-09	2.655945e+01	7.533089e+01
2.750000e-06	3.852328e-06	1.099619e-09	2.679401e+01	7.570505e+01
2.760000e-06	3.885495e-06	1.105960e-09	2.702469e+01	7.607055e+01
2.770000e-06	3.918175e-06	1.113521e-09	2.725199e+01	7.642746e+01
2.780000e-06	3.950584e-06	1.121356e-09	2.747740e+01	7.677584e+01
2.790000e-06	3.982720e-06	1.127353e-09	2.770092e+01	7.711576e+01
2.800000e-06	4.014566e-06	1.131741e-09	2.792242e+01	7.744729e+01
2.810000e-06	4.046238e-06	1.136018e-09	2.814270e+01	7.777054e+01
2.820000e-06	4.077820e-06	1.140957e-09	2.836236e+01	7.808561e+01
2.830000e-06	4.109229e-06	1.144942e-09	2.858082e+01	7.839260e+01
2.840000e-06	4.140411e-06	1.150534e-09	2.879770e+01	7.869166e+01
2.850000e-06	4.171328e-06	1.160453e-09	2.901274e+01	7.898290e+01
2.860000e-06	4.201849e-06	1.168577e-09	2.922502e+01	7.926649e+01
2.870000e-06	4.232052e-06	1.173368e-09	2.943509e+01	7.954258e+01
2.880000e-06	4.261984e-06	1.176479e-09	2.964328e+01	7.981134e+01
2.890000e-06	4.291583e-06	1.180118e-09	2.984915e+01	8.007294e+01
2.900000e-06	4.320916e-06	1.183937e-09	3.005316e+01	8.032757e+01
2.910000e-06	4.350017e-06	1.185885e-09	3.025557e+01	8.057541e+01
