# Temperatura_=_-1.5
# Concentracion g/m^3_=_1620.0
# C_Vs_to_Am_M_A/Vsm_=_65563218390.804596
# pendiente_HvsI_1/m_=_3716.3
# ordenada_HvsI_A/m_=_1297.0
# frecuencia_Hz_=_135105.91329195068

Tiempo_(s)	Campo_(V.s)	Magnetizacion_(V.s)	Campo_(kA/m)	Magnetizacion_(A/m)
0.000000e+00	-5.505818e-06	-9.594277e-10	-3.837820e+01	-6.553072e+01
1.000000e-08	-5.505962e-06	-9.569750e-10	-3.837920e+01	-6.549528e+01
2.000000e-08	-5.505812e-06	-9.550876e-10	-3.837816e+01	-6.546079e+01
3.000000e-08	-5.505321e-06	-9.520063e-10	-3.837473e+01	-6.542705e+01
4.000000e-08	-5.504381e-06	-9.417855e-10	-3.836818e+01	-6.539386e+01
5.000000e-08	-5.502941e-06	-9.229206e-10	-3.835814e+01	-6.536101e+01
6.000000e-08	-5.500948e-06	-9.104531e-10	-3.834425e+01	-6.532828e+01
7.000000e-08	-5.498348e-06	-9.220226e-10	-3.832612e+01	-6.529543e+01
8.000000e-08	-5.495146e-06	-9.780568e-10	-3.830381e+01	-6.526222e+01
9.000000e-08	-5.491431e-06	-1.054811e-09	-3.827791e+01	-6.522843e+01
1.000000e-07	-5.487339e-06	-1.039031e-09	-3.824939e+01	-6.519380e+01
1.100000e-07	-5.482958e-06	-8.938285e-10	-3.821885e+01	-6.515810e+01
1.200000e-07	-5.478434e-06	-8.557269e-10	-3.818732e+01	-6.512110e+01
1.300000e-07	-5.473574e-06	-9.433676e-10	-3.815344e+01	-6.508255e+01
1.400000e-07	-5.468227e-06	-1.000994e-09	-3.811617e+01	-6.504225e+01
1.500000e-07	-5.462565e-06	-9.032294e-10	-3.807670e+01	-6.499996e+01
1.600000e-07	-5.456639e-06	-8.434536e-10	-3.803539e+01	-6.495549e+01
1.700000e-07	-5.450201e-06	-9.587219e-10	-3.799052e+01	-6.490863e+01
1.800000e-07	-5.443231e-06	-1.045133e-09	-3.794193e+01	-6.485921e+01
1.900000e-07	-5.436017e-06	-9.657570e-10	-3.789165e+01	-6.480705e+01
2.000000e-07	-5.428560e-06	-8.861867e-10	-3.783967e+01	-6.475201e+01
2.100000e-07	-5.420784e-06	-9.471015e-10	-3.778547e+01	-6.469393e+01
2.200000e-07	-5.412776e-06	-1.028096e-09	-3.772965e+01	-6.463271e+01
2.300000e-07	-5.404643e-06	-9.959208e-10	-3.767296e+01	-6.456822e+01
2.400000e-07	-5.396077e-06	-9.494018e-10	-3.761325e+01	-6.450040e+01
2.500000e-07	-5.386627e-06	-9.935526e-10	-3.754738e+01	-6.442916e+01
2.600000e-07	-5.376456e-06	-1.015253e-09	-3.747648e+01	-6.435445e+01
2.700000e-07	-5.365835e-06	-9.671655e-10	-3.740245e+01	-6.427624e+01
2.800000e-07	-5.354656e-06	-9.434165e-10	-3.732452e+01	-6.419451e+01
2.900000e-07	-5.343019e-06	-9.908627e-10	-3.724341e+01	-6.410925e+01
3.000000e-07	-5.331074e-06	-9.950378e-10	-3.716014e+01	-6.402048e+01
3.100000e-07	-5.318681e-06	-9.606137e-10	-3.707376e+01	-6.392822e+01
3.200000e-07	-5.305741e-06	-9.519338e-10	-3.698357e+01	-6.383252e+01
3.300000e-07	-5.292469e-06	-9.837463e-10	-3.689105e+01	-6.373344e+01
3.400000e-07	-5.278982e-06	-9.762301e-10	-3.679704e+01	-6.363103e+01
3.500000e-07	-5.265123e-06	-9.520008e-10	-3.670044e+01	-6.352537e+01
3.600000e-07	-5.250726e-06	-9.509584e-10	-3.660008e+01	-6.341654e+01
3.700000e-07	-5.235978e-06	-9.801876e-10	-3.649728e+01	-6.330465e+01
3.800000e-07	-5.220815e-06	-9.644825e-10	-3.639159e+01	-6.318978e+01
3.900000e-07	-5.204983e-06	-9.388649e-10	-3.628123e+01	-6.307203e+01
4.000000e-07	-5.188635e-06	-9.680205e-10	-3.616728e+01	-6.295152e+01
4.100000e-07	-5.171965e-06	-9.906378e-10	-3.605108e+01	-6.282834e+01
4.200000e-07	-5.154871e-06	-9.349415e-10	-3.593193e+01	-6.270260e+01
4.300000e-07	-5.137371e-06	-9.187668e-10	-3.580994e+01	-6.257441e+01
4.400000e-07	-5.119697e-06	-9.905647e-10	-3.568675e+01	-6.244387e+01
4.500000e-07	-5.101720e-06	-9.847311e-10	-3.556144e+01	-6.231106e+01
4.600000e-07	-5.083267e-06	-9.124373e-10	-3.543281e+01	-6.217609e+01
4.700000e-07	-5.064452e-06	-9.488770e-10	-3.530167e+01	-6.203904e+01
4.800000e-07	-5.045304e-06	-1.001659e-09	-3.516819e+01	-6.189997e+01
4.900000e-07	-5.025750e-06	-9.402064e-10	-3.503189e+01	-6.175897e+01
5.000000e-07	-5.005953e-06	-9.238561e-10	-3.489390e+01	-6.161608e+01
5.100000e-07	-4.985998e-06	-9.839544e-10	-3.475480e+01	-6.147135e+01
5.200000e-07	-4.965740e-06	-9.551823e-10	-3.461359e+01	-6.132483e+01
5.300000e-07	-4.945132e-06	-9.146391e-10	-3.446994e+01	-6.117654e+01
5.400000e-07	-4.924248e-06	-9.773101e-10	-3.432438e+01	-6.102648e+01
5.500000e-07	-4.902984e-06	-9.747526e-10	-3.417615e+01	-6.087468e+01
5.600000e-07	-4.881300e-06	-8.985069e-10	-3.402500e+01	-6.072112e+01
5.700000e-07	-4.859303e-06	-9.270864e-10	-3.387167e+01	-6.056579e+01
5.800000e-07	-4.837022e-06	-9.773742e-10	-3.371637e+01	-6.040865e+01
5.900000e-07	-4.814397e-06	-9.269008e-10	-3.355866e+01	-6.024967e+01
6.000000e-07	-4.791435e-06	-9.179583e-10	-3.339860e+01	-6.008880e+01
6.100000e-07	-4.768195e-06	-9.624556e-10	-3.323661e+01	-5.992600e+01
6.200000e-07	-4.744659e-06	-9.335414e-10	-3.307255e+01	-5.976119e+01
6.300000e-07	-4.720895e-06	-8.971324e-10	-3.290691e+01	-5.959431e+01
6.400000e-07	-4.696945e-06	-9.278604e-10	-3.273996e+01	-5.942528e+01
6.500000e-07	-4.672719e-06	-9.254376e-10	-3.257110e+01	-5.925403e+01
6.600000e-07	-4.648066e-06	-8.971559e-10	-3.239926e+01	-5.908046e+01
6.700000e-07	-4.622881e-06	-9.129245e-10	-3.222370e+01	-5.890451e+01
6.800000e-07	-4.597176e-06	-9.238149e-10	-3.204452e+01	-5.872608e+01
6.900000e-07	-4.570889e-06	-9.011242e-10	-3.186129e+01	-5.854508e+01
7.000000e-07	-4.544062e-06	-9.013089e-10	-3.167429e+01	-5.836144e+01
7.100000e-07	-4.516845e-06	-9.087581e-10	-3.148458e+01	-5.817506e+01
7.200000e-07	-4.489360e-06	-8.979129e-10	-3.129299e+01	-5.798587e+01
7.300000e-07	-4.461672e-06	-8.907515e-10	-3.110000e+01	-5.779380e+01
7.400000e-07	-4.433824e-06	-8.895490e-10	-3.090588e+01	-5.759878e+01
7.500000e-07	-4.405800e-06	-8.808591e-10	-3.071054e+01	-5.740074e+01
7.600000e-07	-4.377524e-06	-8.769345e-10	-3.051344e+01	-5.719962e+01
7.700000e-07	-4.348976e-06	-8.746559e-10	-3.031445e+01	-5.699539e+01
7.800000e-07	-4.320033e-06	-8.657109e-10	-3.011271e+01	-5.678799e+01
7.900000e-07	-4.290700e-06	-8.650541e-10	-2.990824e+01	-5.657739e+01
8.000000e-07	-4.261106e-06	-8.674491e-10	-2.970195e+01	-5.636358e+01
8.100000e-07	-4.231257e-06	-8.591205e-10	-2.949390e+01	-5.614654e+01
8.200000e-07	-4.201144e-06	-8.512056e-10	-2.928399e+01	-5.592626e+01
8.300000e-07	-4.170726e-06	-8.508519e-10	-2.907196e+01	-5.570274e+01
8.400000e-07	-4.139986e-06	-8.406598e-10	-2.885769e+01	-5.547601e+01
8.500000e-07	-4.108931e-06	-8.245203e-10	-2.864122e+01	-5.524608e+01
8.600000e-07	-4.077634e-06	-8.207048e-10	-2.842307e+01	-5.501297e+01
8.700000e-07	-4.046210e-06	-8.229901e-10	-2.820403e+01	-5.477674e+01
8.800000e-07	-4.014620e-06	-8.182898e-10	-2.798383e+01	-5.453741e+01
8.900000e-07	-3.982807e-06	-8.216904e-10	-2.776208e+01	-5.429505e+01
9.000000e-07	-3.950802e-06	-8.221667e-10	-2.753899e+01	-5.404970e+01
9.100000e-07	-3.918544e-06	-8.096093e-10	-2.731413e+01	-5.380142e+01
9.200000e-07	-3.885965e-06	-7.954899e-10	-2.708705e+01	-5.355028e+01
9.300000e-07	-3.853015e-06	-7.905614e-10	-2.685736e+01	-5.329634e+01
9.400000e-07	-3.819563e-06	-7.834113e-10	-2.662419e+01	-5.303967e+01
9.500000e-07	-3.785551e-06	-7.780240e-10	-2.638711e+01	-5.278033e+01
9.600000e-07	-3.751106e-06	-7.804695e-10	-2.614701e+01	-5.251839e+01
9.700000e-07	-3.716369e-06	-7.820652e-10	-2.590488e+01	-5.225390e+01
9.800000e-07	-3.681267e-06	-7.763118e-10	-2.566020e+01	-5.198694e+01
9.900000e-07	-3.645825e-06	-7.722857e-10	-2.541315e+01	-5.171754e+01
1.000000e-06	-3.610212e-06	-7.680073e-10	-2.516491e+01	-5.144577e+01
1.010000e-06	-3.574501e-06	-7.574214e-10	-2.491599e+01	-5.117166e+01
1.020000e-06	-3.538658e-06	-7.512485e-10	-2.466614e+01	-5.089524e+01
1.030000e-06	-3.502662e-06	-7.512033e-10	-2.441523e+01	-5.061655e+01
1.040000e-06	-3.466507e-06	-7.493669e-10	-2.416322e+01	-5.033560e+01
1.050000e-06	-3.430134e-06	-7.448626e-10	-2.390968e+01	-5.005239e+01
1.060000e-06	-3.393428e-06	-7.424748e-10	-2.365382e+01	-4.976693e+01
1.070000e-06	-3.356386e-06	-7.377878e-10	-2.339562e+01	-4.947919e+01
1.080000e-06	-3.319173e-06	-7.275806e-10	-2.313623e+01	-4.918915e+01
1.090000e-06	-3.281772e-06	-7.183413e-10	-2.287553e+01	-4.889677e+01
1.100000e-06	-3.244107e-06	-7.121759e-10	-2.261299e+01	-4.860200e+01
1.110000e-06	-3.206230e-06	-7.072001e-10	-2.234896e+01	-4.830477e+01
1.120000e-06	-3.168174e-06	-7.051298e-10	-2.208370e+01	-4.800501e+01
1.130000e-06	-3.129881e-06	-7.062302e-10	-2.181677e+01	-4.770264e+01
1.140000e-06	-3.091326e-06	-7.063175e-10	-2.154803e+01	-4.739754e+01
1.150000e-06	-3.052548e-06	-6.998427e-10	-2.127773e+01	-4.708962e+01
1.160000e-06	-3.013543e-06	-6.899316e-10	-2.100584e+01	-4.677874e+01
1.170000e-06	-2.974314e-06	-6.806788e-10	-2.073240e+01	-4.646477e+01
1.180000e-06	-2.934921e-06	-6.768297e-10	-2.045781e+01	-4.614758e+01
1.190000e-06	-2.895420e-06	-6.754228e-10	-2.018247e+01	-4.582700e+01
1.200000e-06	-2.855776e-06	-6.750855e-10	-1.990613e+01	-4.550287e+01
1.210000e-06	-2.815973e-06	-6.752823e-10	-1.962868e+01	-4.517503e+01
1.220000e-06	-2.776049e-06	-6.740188e-10	-1.935040e+01	-4.484329e+01
1.230000e-06	-2.735951e-06	-6.674416e-10	-1.907089e+01	-4.450747e+01
1.240000e-06	-2.695651e-06	-6.565442e-10	-1.878998e+01	-4.416739e+01
1.250000e-06	-2.655288e-06	-6.451625e-10	-1.850863e+01	-4.382284e+01
1.260000e-06	-2.614810e-06	-6.345353e-10	-1.822648e+01	-4.347362e+01
1.270000e-06	-2.574060e-06	-6.266893e-10	-1.794244e+01	-4.311954e+01
1.280000e-06	-2.533105e-06	-6.256992e-10	-1.765696e+01	-4.276038e+01
1.290000e-06	-2.491905e-06	-6.261680e-10	-1.736978e+01	-4.239595e+01
1.300000e-06	-2.450364e-06	-6.251180e-10	-1.708021e+01	-4.202602e+01
1.310000e-06	-2.408598e-06	-6.196468e-10	-1.678908e+01	-4.165039e+01
1.320000e-06	-2.366545e-06	-6.107520e-10	-1.649596e+01	-4.126885e+01
1.330000e-06	-2.324090e-06	-6.001311e-10	-1.620002e+01	-4.088118e+01
1.340000e-06	-2.281340e-06	-5.897295e-10	-1.590203e+01	-4.048719e+01
1.350000e-06	-2.238347e-06	-5.812687e-10	-1.560236e+01	-4.008665e+01
1.360000e-06	-2.195076e-06	-5.731307e-10	-1.530073e+01	-3.967936e+01
1.370000e-06	-2.151556e-06	-5.688491e-10	-1.499738e+01	-3.926511e+01
1.380000e-06	-2.107927e-06	-5.683452e-10	-1.469326e+01	-3.884370e+01
1.390000e-06	-2.064246e-06	-5.658135e-10	-1.438879e+01	-3.841492e+01
1.400000e-06	-2.020491e-06	-5.573836e-10	-1.408379e+01	-3.797856e+01
1.410000e-06	-1.976658e-06	-5.460366e-10	-1.377825e+01	-3.753443e+01
1.420000e-06	-1.932722e-06	-5.352341e-10	-1.347200e+01	-3.708231e+01
1.430000e-06	-1.888713e-06	-5.268255e-10	-1.316524e+01	-3.662202e+01
1.440000e-06	-1.844701e-06	-5.196598e-10	-1.285845e+01	-3.615334e+01
1.450000e-06	-1.800641e-06	-5.110586e-10	-1.255134e+01	-3.567608e+01
1.460000e-06	-1.756416e-06	-5.012044e-10	-1.224306e+01	-3.519003e+01
1.470000e-06	-1.712060e-06	-4.916056e-10	-1.193388e+01	-3.469498e+01
1.480000e-06	-1.667531e-06	-4.806774e-10	-1.162349e+01	-3.419074e+01
1.490000e-06	-1.622803e-06	-4.701562e-10	-1.131172e+01	-3.367710e+01
1.500000e-06	-1.578046e-06	-4.621250e-10	-1.099974e+01	-3.315384e+01
1.510000e-06	-1.533165e-06	-4.560254e-10	-1.068690e+01	-3.262077e+01
1.520000e-06	-1.488114e-06	-4.479383e-10	-1.037287e+01	-3.207766e+01
1.530000e-06	-1.443023e-06	-4.398109e-10	-1.005856e+01	-3.152431e+01
1.540000e-06	-1.397851e-06	-4.299832e-10	-9.743693e+00	-3.096049e+01
1.550000e-06	-1.352589e-06	-4.178513e-10	-9.428194e+00	-3.038599e+01
1.560000e-06	-1.307259e-06	-4.066560e-10	-9.112225e+00	-2.980058e+01
1.570000e-06	-1.261836e-06	-3.971135e-10	-8.795601e+00	-2.920404e+01
1.580000e-06	-1.216262e-06	-3.890257e-10	-8.477932e+00	-2.859615e+01
1.590000e-06	-1.170532e-06	-3.821314e-10	-8.159169e+00	-2.797668e+01
1.600000e-06	-1.124764e-06	-3.755523e-10	-7.840145e+00	-2.734540e+01
1.610000e-06	-1.078921e-06	-3.672956e-10	-7.520597e+00	-2.670208e+01
1.620000e-06	-1.032986e-06	-3.584270e-10	-7.200409e+00	-2.604651e+01
1.630000e-06	-9.870412e-07	-3.512860e-10	-6.880151e+00	-2.537845e+01
1.640000e-06	-9.410128e-07	-3.438184e-10	-6.559312e+00	-2.469769e+01
1.650000e-06	-8.948623e-07	-3.315605e-10	-6.237620e+00	-2.400401e+01
1.660000e-06	-8.486581e-07	-3.181451e-10	-5.915555e+00	-2.329721e+01
1.670000e-06	-8.023894e-07	-3.059801e-10	-5.593040e+00	-2.257707e+01
1.680000e-06	-7.560585e-07	-2.944682e-10	-5.270091e+00	-2.184342e+01
1.690000e-06	-7.097409e-07	-2.839041e-10	-4.947235e+00	-2.109607e+01
1.700000e-06	-6.633923e-07	-2.744682e-10	-4.624163e+00	-2.033485e+01
1.710000e-06	-6.169352e-07	-2.644163e-10	-4.300335e+00	-1.955961e+01
1.720000e-06	-5.704574e-07	-2.519728e-10	-3.976362e+00	-1.877021e+01
1.730000e-06	-5.239670e-07	-2.376602e-10	-3.652302e+00	-1.796654e+01
1.740000e-06	-4.774686e-07	-2.208691e-10	-3.328186e+00	-1.714851e+01
1.750000e-06	-4.310215e-07	-2.050707e-10	-3.004427e+00	-1.631603e+01
1.760000e-06	-3.844698e-07	-1.915131e-10	-2.679939e+00	-1.546907e+01
1.770000e-06	-3.377940e-07	-1.806513e-10	-2.354586e+00	-1.460760e+01
1.780000e-06	-2.911412e-07	-1.708148e-10	-2.029394e+00	-1.373163e+01
1.790000e-06	-2.444755e-07	-1.607772e-10	-1.704112e+00	-1.284121e+01
1.800000e-06	-1.977335e-07	-1.484088e-10	-1.378298e+00	-1.193641e+01
1.810000e-06	-1.509736e-07	-1.338025e-10	-1.052359e+00	-1.101733e+01
1.820000e-06	-1.042097e-07	-1.209082e-10	-7.263919e-01	-1.008413e+01
1.830000e-06	-5.745136e-08	-1.112900e-10	-4.004636e-01	-9.136977e+00
1.840000e-06	-1.067659e-08	-1.013234e-10	-7.442099e-02	-8.176107e+00
1.850000e-06	3.600675e-08	-8.776582e-11	2.509843e-01	-7.201778e+00
1.860000e-06	8.256338e-08	-7.348184e-11	5.755064e-01	-6.214295e+00
1.870000e-06	1.291784e-07	-5.710146e-11	9.004353e-01	-5.214003e+00
1.880000e-06	1.758819e-07	-3.928645e-11	1.225981e+00	-4.201291e+00
1.890000e-06	2.225407e-07	-2.159342e-11	1.551216e+00	-3.176590e+00
1.900000e-06	2.691619e-07	-4.955086e-12	1.876187e+00	-2.140373e+00
1.910000e-06	3.158073e-07	7.098023e-12	2.201328e+00	-1.093157e+00
1.920000e-06	3.624481e-07	1.639311e-11	2.526437e+00	-3.549860e-02
1.930000e-06	4.090658e-07	2.584944e-11	2.851385e+00	1.032003e+00
1.940000e-06	4.556090e-07	4.061766e-11	3.175813e+00	2.108710e+00
1.950000e-06	5.021019e-07	5.875577e-11	3.499891e+00	3.193944e+00
1.960000e-06	5.485243e-07	7.876987e-11	3.823478e+00	4.286992e+00
1.970000e-06	5.948781e-07	9.758675e-11	4.146586e+00	5.387105e+00
1.980000e-06	6.411846e-07	1.117626e-10	4.469365e+00	6.493499e+00
1.990000e-06	6.874939e-07	1.245098e-10	4.792163e+00	7.605362e+00
2.000000e-06	7.337462e-07	1.343696e-10	5.114564e+00	8.721853e+00
2.010000e-06	7.799165e-07	1.455575e-10	5.436393e+00	9.842105e+00
2.020000e-06	8.260797e-07	1.615823e-10	5.758172e+00	1.096523e+01
2.030000e-06	8.721583e-07	1.815487e-10	6.079362e+00	1.209031e+01
2.040000e-06	9.181634e-07	2.010091e-10	6.400040e+00	1.321643e+01
2.050000e-06	9.641955e-07	2.204712e-10	6.720906e+00	1.434265e+01
2.060000e-06	1.010177e-06	2.385369e-10	7.041416e+00	1.546802e+01
2.070000e-06	1.056017e-06	2.553138e-10	7.360944e+00	1.659159e+01
2.080000e-06	1.101761e-06	2.722883e-10	7.679801e+00	1.771239e+01
2.090000e-06	1.147412e-06	2.870230e-10	7.998015e+00	1.882949e+01
2.100000e-06	1.193001e-06	2.993231e-10	8.315789e+00	1.994191e+01
2.110000e-06	1.238547e-06	3.112938e-10	8.633267e+00	2.104874e+01
2.120000e-06	1.283981e-06	3.245940e-10	8.949963e+00	2.214903e+01
2.130000e-06	1.329299e-06	3.418851e-10	9.265852e+00	2.324187e+01
2.140000e-06	1.374503e-06	3.621768e-10	9.580946e+00	2.432637e+01
2.150000e-06	1.419601e-06	3.830018e-10	9.895299e+00	2.540165e+01
2.160000e-06	1.464602e-06	4.006211e-10	1.020898e+01	2.646688e+01
2.170000e-06	1.509457e-06	4.135625e-10	1.052164e+01	2.752122e+01
2.180000e-06	1.554205e-06	4.260227e-10	1.083355e+01	2.856390e+01
2.190000e-06	1.598866e-06	4.371233e-10	1.114486e+01	2.959417e+01
2.200000e-06	1.643399e-06	4.483455e-10	1.145528e+01	3.061129e+01
2.210000e-06	1.687761e-06	4.618856e-10	1.176450e+01	3.161461e+01
2.220000e-06	1.731908e-06	4.766220e-10	1.207223e+01	3.260348e+01
2.230000e-06	1.775974e-06	4.939039e-10	1.237939e+01	3.357730e+01
2.240000e-06	1.820080e-06	5.096990e-10	1.268683e+01	3.453553e+01
2.250000e-06	1.864158e-06	5.211324e-10	1.299407e+01	3.547766e+01
2.260000e-06	1.908165e-06	5.283212e-10	1.330083e+01	3.640323e+01
2.270000e-06	1.952077e-06	5.388231e-10	1.360691e+01	3.731183e+01
2.280000e-06	1.995904e-06	5.524143e-10	1.391241e+01	3.820309e+01
2.290000e-06	2.039672e-06	5.658571e-10	1.421750e+01	3.907668e+01
2.300000e-06	2.083414e-06	5.794862e-10	1.452239e+01	3.993235e+01
2.310000e-06	2.127067e-06	5.929921e-10	1.482668e+01	4.076985e+01
2.320000e-06	2.170582e-06	6.054375e-10	1.513000e+01	4.158902e+01
2.330000e-06	2.213986e-06	6.147014e-10	1.543255e+01	4.238971e+01
2.340000e-06	2.257234e-06	6.236289e-10	1.573400e+01	4.317184e+01
2.350000e-06	2.300248e-06	6.351354e-10	1.603384e+01	4.393536e+01
2.360000e-06	2.342991e-06	6.497546e-10	1.633177e+01	4.468027e+01
2.370000e-06	2.385472e-06	6.612678e-10	1.662789e+01	4.540659e+01
2.380000e-06	2.427649e-06	6.694222e-10	1.692188e+01	4.611440e+01
2.390000e-06	2.469524e-06	6.767925e-10	1.721377e+01	4.680380e+01
2.400000e-06	2.510992e-06	6.836390e-10	1.750282e+01	4.747495e+01
2.410000e-06	2.552080e-06	6.886538e-10	1.778923e+01	4.812801e+01
2.420000e-06	2.592868e-06	6.960741e-10	1.807354e+01	4.876319e+01
2.430000e-06	2.633317e-06	7.084543e-10	1.835549e+01	4.938072e+01
2.440000e-06	2.673631e-06	7.218102e-10	1.863649e+01	4.998086e+01
2.450000e-06	2.713866e-06	7.326835e-10	1.891695e+01	5.056389e+01
2.460000e-06	2.753939e-06	7.447435e-10	1.919628e+01	5.113012e+01
2.470000e-06	2.793889e-06	7.581550e-10	1.947475e+01	5.167985e+01
2.480000e-06	2.833714e-06	7.695543e-10	1.975235e+01	5.221344e+01
2.490000e-06	2.873382e-06	7.775562e-10	2.002885e+01	5.273122e+01
2.500000e-06	2.912978e-06	7.838803e-10	2.030485e+01	5.323357e+01
2.510000e-06	2.952433e-06	7.900662e-10	2.057988e+01	5.372086e+01
2.520000e-06	2.991674e-06	7.977402e-10	2.085341e+01	5.419346e+01
2.530000e-06	3.030647e-06	8.038420e-10	2.112507e+01	5.465177e+01
2.540000e-06	3.069338e-06	8.084661e-10	2.139476e+01	5.509618e+01
2.550000e-06	3.107862e-06	8.147183e-10	2.166329e+01	5.552707e+01
2.560000e-06	3.146222e-06	8.230084e-10	2.193068e+01	5.594485e+01
2.570000e-06	3.184382e-06	8.315775e-10	2.219668e+01	5.634991e+01
2.580000e-06	3.222314e-06	8.371544e-10	2.246108e+01	5.674264e+01
2.590000e-06	3.260028e-06	8.419479e-10	2.272396e+01	5.712343e+01
2.600000e-06	3.297530e-06	8.473570e-10	2.298537e+01	5.749267e+01
2.610000e-06	3.334773e-06	8.497886e-10	2.324497e+01	5.785073e+01
2.620000e-06	3.371759e-06	8.492803e-10	2.350278e+01	5.819800e+01
2.630000e-06	3.408451e-06	8.516374e-10	2.375854e+01	5.853483e+01
2.640000e-06	3.444903e-06	8.580757e-10	2.401263e+01	5.886159e+01
2.650000e-06	3.481173e-06	8.672250e-10	2.426545e+01	5.917863e+01
2.660000e-06	3.517202e-06	8.769369e-10	2.451658e+01	5.948629e+01
2.670000e-06	3.553092e-06	8.849459e-10	2.476676e+01	5.978490e+01
2.680000e-06	3.588885e-06	8.892939e-10	2.501625e+01	6.007480e+01
2.690000e-06	3.624519e-06	8.913143e-10	2.526464e+01	6.035629e+01
2.700000e-06	3.660038e-06	8.917020e-10	2.551223e+01	6.062969e+01
2.710000e-06	3.695450e-06	8.918023e-10	2.575906e+01	6.089528e+01
2.720000e-06	3.730500e-06	8.932026e-10	2.600338e+01	6.115335e+01
2.730000e-06	3.765038e-06	8.965705e-10	2.624412e+01	6.140418e+01
2.740000e-06	3.799092e-06	8.996019e-10	2.648149e+01	6.164804e+01
2.750000e-06	3.832622e-06	9.025208e-10	2.671521e+01	6.188517e+01
2.760000e-06	3.865695e-06	9.058589e-10	2.694575e+01	6.211583e+01
2.770000e-06	3.898431e-06	9.109466e-10	2.717394e+01	6.234025e+01
2.780000e-06	3.930809e-06	9.171068e-10	2.739962e+01	6.255864e+01
2.790000e-06	3.962884e-06	9.217546e-10	2.762321e+01	6.277124e+01
2.800000e-06	3.994829e-06	9.249827e-10	2.784588e+01	6.297823e+01
2.810000e-06	4.026664e-06	9.271329e-10	2.806778e+01	6.317981e+01
2.820000e-06	4.058374e-06	9.298050e-10	2.828882e+01	6.337617e+01
2.830000e-06	4.089907e-06	9.339833e-10	2.850862e+01	6.356748e+01
2.840000e-06	4.121098e-06	9.400840e-10	2.872603e+01	6.375389e+01
2.850000e-06	4.151968e-06	9.488036e-10	2.894121e+01	6.393556e+01
2.860000e-06	4.182517e-06	9.551918e-10	2.915415e+01	6.411263e+01
2.870000e-06	4.212697e-06	9.565995e-10	2.936452e+01	6.428523e+01
2.880000e-06	4.242581e-06	9.561232e-10	2.957283e+01	6.445347e+01
2.890000e-06	4.272240e-06	9.564715e-10	2.977956e+01	6.461747e+01
2.900000e-06	4.301655e-06	9.585218e-10	2.998460e+01	6.477731e+01
