# Temperatura_=_-0.9
# Concentracion g/m^3_=_1620.0
# C_Vs_to_Am_M_A/Vsm_=_65563218390.804596
# pendiente_HvsI_1/m_=_3716.3
# ordenada_HvsI_A/m_=_1297.0
# frecuencia_Hz_=_135101.88563804727

Tiempo_(s)	Campo_(V.s)	Magnetizacion_(V.s)	Campo_(kA/m)	Magnetizacion_(A/m)
0.000000e+00	-5.507048e-06	-1.142252e-09	-3.836458e+01	-7.618785e+01
1.000000e-08	-5.507081e-06	-1.138710e-09	-3.836481e+01	-7.614332e+01
2.000000e-08	-5.506934e-06	-1.138280e-09	-3.836378e+01	-7.609923e+01
3.000000e-08	-5.506439e-06	-1.138392e-09	-3.836033e+01	-7.605547e+01
4.000000e-08	-5.505486e-06	-1.133808e-09	-3.835370e+01	-7.601193e+01
5.000000e-08	-5.503889e-06	-1.121542e-09	-3.834257e+01	-7.596847e+01
6.000000e-08	-5.501641e-06	-1.121246e-09	-3.832691e+01	-7.592495e+01
7.000000e-08	-5.498847e-06	-1.160592e-09	-3.830744e+01	-7.588122e+01
8.000000e-08	-5.495483e-06	-1.211723e-09	-3.828401e+01	-7.583711e+01
9.000000e-08	-5.491591e-06	-1.199526e-09	-3.825690e+01	-7.579243e+01
1.000000e-07	-5.487357e-06	-1.136466e-09	-3.822740e+01	-7.574703e+01
1.100000e-07	-5.482969e-06	-1.095943e-09	-3.819683e+01	-7.570069e+01
1.200000e-07	-5.478337e-06	-1.102201e-09	-3.816456e+01	-7.565323e+01
1.300000e-07	-5.473327e-06	-1.120916e-09	-3.812966e+01	-7.560445e+01
1.400000e-07	-5.467951e-06	-1.127574e-09	-3.809221e+01	-7.555415e+01
1.500000e-07	-5.462251e-06	-1.115004e-09	-3.805250e+01	-7.550213e+01
1.600000e-07	-5.456204e-06	-1.129443e-09	-3.801037e+01	-7.544817e+01
1.700000e-07	-5.449665e-06	-1.132749e-09	-3.796482e+01	-7.539208e+01
1.800000e-07	-5.442635e-06	-1.148446e-09	-3.791584e+01	-7.533365e+01
1.900000e-07	-5.435244e-06	-1.112111e-09	-3.786436e+01	-7.527268e+01
2.000000e-07	-5.427569e-06	-1.113056e-09	-3.781089e+01	-7.520899e+01
2.100000e-07	-5.419610e-06	-1.130339e-09	-3.775544e+01	-7.514237e+01
2.200000e-07	-5.411473e-06	-1.157457e-09	-3.769875e+01	-7.507265e+01
2.300000e-07	-5.403149e-06	-1.145728e-09	-3.764077e+01	-7.499965e+01
2.400000e-07	-5.394270e-06	-1.133895e-09	-3.757891e+01	-7.492320e+01
2.500000e-07	-5.384620e-06	-1.122550e-09	-3.751168e+01	-7.484314e+01
2.600000e-07	-5.374363e-06	-1.105310e-09	-3.744024e+01	-7.475933e+01
2.700000e-07	-5.363582e-06	-1.102431e-09	-3.736513e+01	-7.467163e+01
2.800000e-07	-5.352261e-06	-1.114388e-09	-3.728626e+01	-7.457990e+01
2.900000e-07	-5.340569e-06	-1.123691e-09	-3.720481e+01	-7.448405e+01
3.000000e-07	-5.328508e-06	-1.092820e-09	-3.712079e+01	-7.438395e+01
3.100000e-07	-5.315952e-06	-1.095493e-09	-3.703331e+01	-7.427953e+01
3.200000e-07	-5.303005e-06	-1.102540e-09	-3.694312e+01	-7.417071e+01
3.300000e-07	-5.289786e-06	-1.101393e-09	-3.685103e+01	-7.405743e+01
3.400000e-07	-5.276132e-06	-1.076259e-09	-3.675591e+01	-7.393964e+01
3.500000e-07	-5.262066e-06	-1.112154e-09	-3.665792e+01	-7.381730e+01
3.600000e-07	-5.247710e-06	-1.117753e-09	-3.655791e+01	-7.369040e+01
3.700000e-07	-5.232824e-06	-1.093831e-09	-3.645421e+01	-7.355894e+01
3.800000e-07	-5.217266e-06	-1.079869e-09	-3.634583e+01	-7.342291e+01
3.900000e-07	-5.201215e-06	-1.116405e-09	-3.623400e+01	-7.328235e+01
4.000000e-07	-5.184638e-06	-1.093804e-09	-3.611852e+01	-7.313729e+01
4.100000e-07	-5.167637e-06	-1.072278e-09	-3.600009e+01	-7.298777e+01
4.200000e-07	-5.150377e-06	-1.095873e-09	-3.587984e+01	-7.283386e+01
4.300000e-07	-5.132850e-06	-1.108363e-09	-3.575774e+01	-7.267563e+01
4.400000e-07	-5.115077e-06	-1.072336e-09	-3.563393e+01	-7.251316e+01
4.500000e-07	-5.096968e-06	-1.084031e-09	-3.550777e+01	-7.234655e+01
4.600000e-07	-5.078455e-06	-1.105481e-09	-3.537880e+01	-7.217591e+01
4.700000e-07	-5.059536e-06	-1.078911e-09	-3.524700e+01	-7.200134e+01
4.800000e-07	-5.040219e-06	-1.073519e-09	-3.511243e+01	-7.182297e+01
4.900000e-07	-5.020580e-06	-1.105113e-09	-3.497562e+01	-7.164092e+01
5.000000e-07	-5.000718e-06	-1.080097e-09	-3.483725e+01	-7.145534e+01
5.100000e-07	-4.980650e-06	-1.049110e-09	-3.469745e+01	-7.126635e+01
5.200000e-07	-4.960325e-06	-1.084788e-09	-3.455586e+01	-7.107411e+01
5.300000e-07	-4.939654e-06	-1.090685e-09	-3.441185e+01	-7.087877e+01
5.400000e-07	-4.918542e-06	-1.054859e-09	-3.426478e+01	-7.068046e+01
5.500000e-07	-4.897066e-06	-1.068283e-09	-3.411517e+01	-7.047935e+01
5.600000e-07	-4.875290e-06	-1.091432e-09	-3.396347e+01	-7.027557e+01
5.700000e-07	-4.853139e-06	-1.058162e-09	-3.380915e+01	-7.006929e+01
5.800000e-07	-4.830680e-06	-1.056818e-09	-3.365269e+01	-6.986064e+01
5.900000e-07	-4.807916e-06	-1.077605e-09	-3.349411e+01	-6.964977e+01
6.000000e-07	-4.784799e-06	-1.054405e-09	-3.333307e+01	-6.943682e+01
6.100000e-07	-4.761429e-06	-1.032240e-09	-3.317026e+01	-6.922191e+01
6.200000e-07	-4.737834e-06	-1.058904e-09	-3.300588e+01	-6.900518e+01
6.300000e-07	-4.713922e-06	-1.052854e-09	-3.283930e+01	-6.878674e+01
6.400000e-07	-4.689727e-06	-1.036501e-09	-3.267075e+01	-6.856669e+01
6.500000e-07	-4.665243e-06	-1.051386e-09	-3.250019e+01	-6.834515e+01
6.600000e-07	-4.640312e-06	-1.059867e-09	-3.232650e+01	-6.812220e+01
6.700000e-07	-4.614876e-06	-1.038892e-09	-3.214930e+01	-6.789792e+01
6.800000e-07	-4.588922e-06	-1.045788e-09	-3.196850e+01	-6.767238e+01
6.900000e-07	-4.562515e-06	-1.048879e-09	-3.178454e+01	-6.744564e+01
7.000000e-07	-4.535709e-06	-1.030434e-09	-3.159779e+01	-6.721773e+01
7.100000e-07	-4.508448e-06	-1.025795e-09	-3.140788e+01	-6.698868e+01
7.200000e-07	-4.480798e-06	-1.039774e-09	-3.121526e+01	-6.675853e+01
7.300000e-07	-4.452942e-06	-1.025300e-09	-3.102120e+01	-6.652726e+01
7.400000e-07	-4.424950e-06	-1.014069e-09	-3.082619e+01	-6.629487e+01
7.500000e-07	-4.396766e-06	-1.020920e-09	-3.062985e+01	-6.606135e+01
7.600000e-07	-4.368262e-06	-1.014234e-09	-3.043128e+01	-6.582664e+01
7.700000e-07	-4.339432e-06	-9.979715e-10	-3.023044e+01	-6.559071e+01
7.800000e-07	-4.310304e-06	-1.002657e-09	-3.002752e+01	-6.535350e+01
7.900000e-07	-4.280839e-06	-1.002919e-09	-2.982225e+01	-6.511493e+01
8.000000e-07	-4.251161e-06	-9.873696e-10	-2.961550e+01	-6.487491e+01
8.100000e-07	-4.221265e-06	-9.830830e-10	-2.940723e+01	-6.463336e+01
8.200000e-07	-4.191015e-06	-9.818868e-10	-2.919650e+01	-6.439016e+01
8.300000e-07	-4.160392e-06	-9.683805e-10	-2.898316e+01	-6.414520e+01
8.400000e-07	-4.129430e-06	-9.622000e-10	-2.876747e+01	-6.389836e+01
8.500000e-07	-4.098259e-06	-9.664077e-10	-2.855032e+01	-6.364951e+01
8.600000e-07	-4.066976e-06	-9.566715e-10	-2.833239e+01	-6.339850e+01
8.700000e-07	-4.035427e-06	-9.471893e-10	-2.811260e+01	-6.314520e+01
8.800000e-07	-4.003583e-06	-9.473331e-10	-2.789076e+01	-6.288945e+01
8.900000e-07	-3.971562e-06	-9.422426e-10	-2.766769e+01	-6.263110e+01
9.000000e-07	-3.939367e-06	-9.273202e-10	-2.744341e+01	-6.237001e+01
9.100000e-07	-3.906982e-06	-9.269678e-10	-2.721779e+01	-6.210602e+01
9.200000e-07	-3.874258e-06	-9.256798e-10	-2.698983e+01	-6.183897e+01
9.300000e-07	-3.841089e-06	-9.176483e-10	-2.675876e+01	-6.156871e+01
9.400000e-07	-3.807572e-06	-9.142786e-10	-2.652526e+01	-6.129509e+01
9.500000e-07	-3.773615e-06	-9.165622e-10	-2.628870e+01	-6.101797e+01
9.600000e-07	-3.739111e-06	-9.040758e-10	-2.604833e+01	-6.073721e+01
9.700000e-07	-3.704132e-06	-8.933783e-10	-2.580465e+01	-6.045267e+01
9.800000e-07	-3.668789e-06	-8.916849e-10	-2.555844e+01	-6.016422e+01
9.900000e-07	-3.633231e-06	-8.884169e-10	-2.531072e+01	-5.987175e+01
1.000000e-06	-3.597525e-06	-8.805664e-10	-2.506198e+01	-5.957515e+01
1.010000e-06	-3.561701e-06	-8.814988e-10	-2.481241e+01	-5.927431e+01
1.020000e-06	-3.525793e-06	-8.790067e-10	-2.456226e+01	-5.896915e+01
1.030000e-06	-3.489783e-06	-8.685182e-10	-2.431140e+01	-5.865958e+01
1.040000e-06	-3.453572e-06	-8.613303e-10	-2.405914e+01	-5.834555e+01
1.050000e-06	-3.417009e-06	-8.580138e-10	-2.380442e+01	-5.802698e+01
1.060000e-06	-3.380116e-06	-8.490936e-10	-2.354741e+01	-5.770384e+01
1.070000e-06	-3.342925e-06	-8.413027e-10	-2.328832e+01	-5.737610e+01
1.080000e-06	-3.305527e-06	-8.371331e-10	-2.302779e+01	-5.704373e+01
1.090000e-06	-3.267981e-06	-8.304818e-10	-2.276622e+01	-5.670672e+01
1.100000e-06	-3.230213e-06	-8.226820e-10	-2.250312e+01	-5.636508e+01
1.110000e-06	-3.192166e-06	-8.190598e-10	-2.223806e+01	-5.601882e+01
1.120000e-06	-3.153883e-06	-8.152518e-10	-2.197137e+01	-5.566795e+01
1.130000e-06	-3.115448e-06	-8.079341e-10	-2.170362e+01	-5.531252e+01
1.140000e-06	-3.076798e-06	-8.030544e-10	-2.143436e+01	-5.495255e+01
1.150000e-06	-3.037928e-06	-7.968197e-10	-2.116357e+01	-5.458809e+01
1.160000e-06	-2.998862e-06	-7.895529e-10	-2.089143e+01	-5.421919e+01
1.170000e-06	-2.959614e-06	-7.847558e-10	-2.061800e+01	-5.384592e+01
1.180000e-06	-2.920171e-06	-7.829379e-10	-2.034322e+01	-5.346831e+01
1.190000e-06	-2.880583e-06	-7.767507e-10	-2.006744e+01	-5.308643e+01
1.200000e-06	-2.840896e-06	-7.701572e-10	-1.979096e+01	-5.270035e+01
1.210000e-06	-2.801043e-06	-7.641159e-10	-1.951333e+01	-5.231011e+01
1.220000e-06	-2.761029e-06	-7.565442e-10	-1.923457e+01	-5.191576e+01
1.230000e-06	-2.720912e-06	-7.482624e-10	-1.895510e+01	-5.151735e+01
1.240000e-06	-2.680639e-06	-7.462603e-10	-1.867454e+01	-5.111492e+01
1.250000e-06	-2.640050e-06	-7.449726e-10	-1.839178e+01	-5.070849e+01
1.260000e-06	-2.599192e-06	-7.403900e-10	-1.810714e+01	-5.029809e+01
1.270000e-06	-2.558137e-06	-7.330556e-10	-1.782113e+01	-4.988370e+01
1.280000e-06	-2.516933e-06	-7.256126e-10	-1.753409e+01	-4.946533e+01
1.290000e-06	-2.475497e-06	-7.158119e-10	-1.724543e+01	-4.904293e+01
1.300000e-06	-2.433672e-06	-7.071857e-10	-1.695405e+01	-4.861646e+01
1.310000e-06	-2.391492e-06	-6.999385e-10	-1.666021e+01	-4.818586e+01
1.320000e-06	-2.349034e-06	-6.936477e-10	-1.636443e+01	-4.775102e+01
1.330000e-06	-2.306300e-06	-6.887532e-10	-1.606672e+01	-4.731185e+01
1.340000e-06	-2.263300e-06	-6.851498e-10	-1.576717e+01	-4.686819e+01
1.350000e-06	-2.220143e-06	-6.784029e-10	-1.546651e+01	-4.641989e+01
1.360000e-06	-2.176835e-06	-6.687389e-10	-1.516481e+01	-4.596675e+01
1.370000e-06	-2.133335e-06	-6.604414e-10	-1.486177e+01	-4.550857e+01
1.380000e-06	-2.089739e-06	-6.544043e-10	-1.455806e+01	-4.504510e+01
1.390000e-06	-2.046114e-06	-6.469757e-10	-1.425415e+01	-4.457607e+01
1.400000e-06	-2.002374e-06	-6.397147e-10	-1.394944e+01	-4.410117e+01
1.410000e-06	-1.958489e-06	-6.358394e-10	-1.364372e+01	-4.362010e+01
1.420000e-06	-1.914506e-06	-6.316904e-10	-1.333731e+01	-4.313249e+01
1.430000e-06	-1.870480e-06	-6.231822e-10	-1.303061e+01	-4.263796e+01
1.440000e-06	-1.826402e-06	-6.110853e-10	-1.272354e+01	-4.213612e+01
1.450000e-06	-1.782236e-06	-6.002707e-10	-1.241586e+01	-4.162654e+01
1.460000e-06	-1.737981e-06	-5.899507e-10	-1.210756e+01	-4.110876e+01
1.470000e-06	-1.693545e-06	-5.773754e-10	-1.179800e+01	-4.058233e+01
1.480000e-06	-1.648926e-06	-5.657123e-10	-1.148716e+01	-4.004674e+01
1.490000e-06	-1.604199e-06	-5.579855e-10	-1.117557e+01	-3.950149e+01
1.500000e-06	-1.559367e-06	-5.508052e-10	-1.086325e+01	-3.894606e+01
1.510000e-06	-1.514370e-06	-5.425243e-10	-1.054979e+01	-3.837991e+01
1.520000e-06	-1.469304e-06	-5.304619e-10	-1.023583e+01	-3.780251e+01
1.530000e-06	-1.424173e-06	-5.157119e-10	-9.921431e+00	-3.721329e+01
1.540000e-06	-1.378863e-06	-4.988306e-10	-9.605783e+00	-3.661172e+01
1.550000e-06	-1.333442e-06	-4.844493e-10	-9.289360e+00	-3.599722e+01
1.560000e-06	-1.287972e-06	-4.735575e-10	-8.972590e+00	-3.536925e+01
1.570000e-06	-1.242524e-06	-4.659274e-10	-8.655979e+00	-3.472726e+01
1.580000e-06	-1.197057e-06	-4.594768e-10	-8.339236e+00	-3.407070e+01
1.590000e-06	-1.151433e-06	-4.529823e-10	-8.021403e+00	-3.339906e+01
1.600000e-06	-1.105625e-06	-4.416772e-10	-7.702280e+00	-3.271183e+01
1.610000e-06	-1.059728e-06	-4.264269e-10	-7.382545e+00	-3.200850e+01
1.620000e-06	-1.013757e-06	-4.131605e-10	-7.062291e+00	-3.128862e+01
1.630000e-06	-9.677208e-07	-4.028514e-10	-6.741578e+00	-3.055174e+01
1.640000e-06	-9.216582e-07	-3.943730e-10	-6.420686e+00	-2.979744e+01
1.650000e-06	-8.755296e-07	-3.822447e-10	-6.099334e+00	-2.902535e+01
1.660000e-06	-8.292919e-07	-3.704089e-10	-5.777221e+00	-2.823511e+01
1.670000e-06	-7.830281e-07	-3.547179e-10	-5.454926e+00	-2.742643e+01
1.680000e-06	-7.367406e-07	-3.374908e-10	-5.132466e+00	-2.659902e+01
1.690000e-06	-6.903806e-07	-3.257285e-10	-4.809502e+00	-2.575269e+01
1.700000e-06	-6.439653e-07	-3.163155e-10	-4.486152e+00	-2.488723e+01
1.710000e-06	-5.975313e-07	-3.058074e-10	-4.162672e+00	-2.400254e+01
1.720000e-06	-5.510993e-07	-2.907602e-10	-3.839205e+00	-2.309852e+01
1.730000e-06	-5.045342e-07	-2.729453e-10	-3.514812e+00	-2.217515e+01
1.740000e-06	-4.578900e-07	-2.544978e-10	-3.189868e+00	-2.123246e+01
1.750000e-06	-4.112511e-07	-2.392809e-10	-2.864960e+00	-2.027054e+01
1.760000e-06	-3.645795e-07	-2.272794e-10	-2.539825e+00	-1.928951e+01
1.770000e-06	-3.178086e-07	-2.177583e-10	-2.213997e+00	-1.828956e+01
1.780000e-06	-2.709561e-07	-2.081894e-10	-1.887602e+00	-1.727095e+01
1.790000e-06	-2.242038e-07	-1.947243e-10	-1.561905e+00	-1.623398e+01
1.800000e-06	-1.774842e-07	-1.768353e-10	-1.236435e+00	-1.517900e+01
1.810000e-06	-1.307167e-07	-1.595418e-10	-9.106316e-01	-1.410644e+01
1.820000e-06	-8.391225e-08	-1.472151e-10	-5.845705e-01	-1.301675e+01
1.830000e-06	-3.711588e-08	-1.376202e-10	-2.585660e-01	-1.191047e+01
1.840000e-06	9.639486e-09	-1.265097e-10	6.715300e-02	-1.078815e+01
1.850000e-06	5.643466e-08	-1.124546e-10	3.931493e-01	-9.650421e+00
1.860000e-06	1.032773e-07	-9.625696e-11	7.194759e-01	-8.497951e+00
1.870000e-06	1.501270e-07	-7.970074e-11	1.045852e+00	-7.331452e+00
1.880000e-06	1.968713e-07	-6.410759e-11	1.371494e+00	-6.151680e+00
1.890000e-06	2.435216e-07	-5.117683e-11	1.696481e+00	-4.959429e+00
1.900000e-06	2.902002e-07	-3.638606e-11	2.021665e+00	-3.755533e+00
1.910000e-06	3.368736e-07	-1.983273e-11	2.346813e+00	-2.540858e+00
1.920000e-06	3.835110e-07	-2.162494e-12	2.671710e+00	-1.316300e+00
1.930000e-06	4.301824e-07	1.674461e-11	2.996844e+00	-8.278343e-02
1.940000e-06	4.767605e-07	3.376110e-11	3.321329e+00	1.158743e+00
1.950000e-06	5.232293e-07	5.058305e-11	3.645051e+00	2.407310e+00
1.960000e-06	5.696590e-07	6.693330e-11	3.968501e+00	3.661932e+00
1.970000e-06	6.160835e-07	8.241719e-11	4.291915e+00	4.921611e+00
1.980000e-06	6.624783e-07	9.807786e-11	4.615122e+00	6.185339e+00
1.990000e-06	7.087641e-07	1.167960e-10	4.937570e+00	7.452100e+00
2.000000e-06	7.550319e-07	1.353164e-10	5.259892e+00	8.720878e+00
2.010000e-06	8.012805e-07	1.544667e-10	5.582081e+00	9.990657e+00
2.020000e-06	8.474772e-07	1.743664e-10	5.903908e+00	1.126043e+01
2.030000e-06	8.935888e-07	1.929061e-10	6.225142e+00	1.252918e+01
2.040000e-06	9.396477e-07	2.088261e-10	6.546009e+00	1.379593e+01
2.050000e-06	9.856206e-07	2.251134e-10	6.866277e+00	1.505970e+01
2.060000e-06	1.031486e-06	2.427300e-10	7.185793e+00	1.631952e+01
2.070000e-06	1.077321e-06	2.623516e-10	7.505102e+00	1.757445e+01
2.080000e-06	1.123166e-06	2.820634e-10	7.824482e+00	1.882358e+01
2.090000e-06	1.168952e-06	3.011196e-10	8.143445e+00	2.006602e+01
2.100000e-06	1.214598e-06	3.198422e-10	8.461435e+00	2.130089e+01
2.110000e-06	1.260154e-06	3.368069e-10	8.778802e+00	2.252736e+01
2.120000e-06	1.305647e-06	3.542244e-10	9.095722e+00	2.374463e+01
2.130000e-06	1.350986e-06	3.725910e-10	9.411574e+00	2.495192e+01
2.140000e-06	1.396176e-06	3.909055e-10	9.726387e+00	2.614850e+01
2.150000e-06	1.441326e-06	4.070219e-10	1.004092e+01	2.733365e+01
2.160000e-06	1.486375e-06	4.214388e-10	1.035476e+01	2.850672e+01
2.170000e-06	1.531254e-06	4.359494e-10	1.066740e+01	2.966708e+01
2.180000e-06	1.575967e-06	4.528078e-10	1.097889e+01	3.081413e+01
2.190000e-06	1.620573e-06	4.704928e-10	1.128964e+01	3.194732e+01
2.200000e-06	1.665063e-06	4.880350e-10	1.159958e+01	3.306613e+01
2.210000e-06	1.709402e-06	5.034659e-10	1.190846e+01	3.417009e+01
2.220000e-06	1.753706e-06	5.174563e-10	1.221711e+01	3.525875e+01
2.230000e-06	1.797942e-06	5.308329e-10	1.252527e+01	3.633173e+01
2.240000e-06	1.842107e-06	5.431589e-10	1.283295e+01	3.738864e+01
2.250000e-06	1.886217e-06	5.562370e-10	1.314024e+01	3.842916e+01
2.260000e-06	1.930178e-06	5.715459e-10	1.344649e+01	3.945301e+01
2.270000e-06	1.974017e-06	5.900324e-10	1.375189e+01	4.045992e+01
2.280000e-06	2.017824e-06	6.076718e-10	1.405707e+01	4.144967e+01
2.290000e-06	2.061623e-06	6.237237e-10	1.436220e+01	4.242207e+01
2.300000e-06	2.105339e-06	6.372369e-10	1.466674e+01	4.337695e+01
2.310000e-06	2.148924e-06	6.494407e-10	1.497037e+01	4.431420e+01
2.320000e-06	2.192380e-06	6.613480e-10	1.527311e+01	4.523371e+01
2.330000e-06	2.235685e-06	6.738589e-10	1.557479e+01	4.613540e+01
2.340000e-06	2.278767e-06	6.891848e-10	1.587492e+01	4.701924e+01
2.350000e-06	2.321581e-06	7.062792e-10	1.617318e+01	4.788521e+01
2.360000e-06	2.364104e-06	7.232854e-10	1.646941e+01	4.873330e+01
2.370000e-06	2.406298e-06	7.331767e-10	1.676335e+01	4.956355e+01
2.380000e-06	2.448077e-06	7.403288e-10	1.705441e+01	5.037600e+01
2.390000e-06	2.489469e-06	7.480794e-10	1.734276e+01	5.117072e+01
2.400000e-06	2.530650e-06	7.573023e-10	1.762965e+01	5.194780e+01
2.410000e-06	2.571694e-06	7.680500e-10	1.791558e+01	5.270735e+01
2.420000e-06	2.612489e-06	7.821969e-10	1.819977e+01	5.344948e+01
2.430000e-06	2.652985e-06	7.983025e-10	1.848189e+01	5.417434e+01
2.440000e-06	2.693290e-06	8.088722e-10	1.876267e+01	5.488208e+01
2.450000e-06	2.733457e-06	8.155296e-10	1.904249e+01	5.557286e+01
2.460000e-06	2.773464e-06	8.231459e-10	1.932120e+01	5.624686e+01
2.470000e-06	2.813342e-06	8.308031e-10	1.959900e+01	5.690429e+01
2.480000e-06	2.853124e-06	8.379847e-10	1.987614e+01	5.754533e+01
2.490000e-06	2.892818e-06	8.471918e-10	2.015267e+01	5.817020e+01
2.500000e-06	2.932381e-06	8.574744e-10	2.042829e+01	5.877913e+01
2.510000e-06	2.971737e-06	8.674640e-10	2.070246e+01	5.937235e+01
2.520000e-06	3.010872e-06	8.770164e-10	2.097509e+01	5.995011e+01
2.530000e-06	3.049736e-06	8.840651e-10	2.124583e+01	6.051264e+01
2.540000e-06	3.088371e-06	8.891693e-10	2.151498e+01	6.106022e+01
2.550000e-06	3.126866e-06	8.943209e-10	2.178316e+01	6.159311e+01
2.560000e-06	3.165119e-06	8.994868e-10	2.204965e+01	6.211159e+01
2.570000e-06	3.203092e-06	9.061891e-10	2.231418e+01	6.261592e+01
2.580000e-06	3.240867e-06	9.128700e-10	2.257734e+01	6.310641e+01
2.590000e-06	3.278439e-06	9.204829e-10	2.283908e+01	6.358334e+01
2.600000e-06	3.315842e-06	9.277432e-10	2.309965e+01	6.404700e+01
2.610000e-06	3.353112e-06	9.323701e-10	2.335928e+01	6.449771e+01
2.620000e-06	3.390150e-06	9.351395e-10	2.361731e+01	6.493577e+01
2.630000e-06	3.426871e-06	9.381623e-10	2.387313e+01	6.536149e+01
2.640000e-06	3.463272e-06	9.436659e-10	2.412671e+01	6.577519e+01
2.650000e-06	3.499426e-06	9.519950e-10	2.437858e+01	6.617718e+01
2.660000e-06	3.535433e-06	9.599318e-10	2.462942e+01	6.656779e+01
2.670000e-06	3.571343e-06	9.650251e-10	2.487958e+01	6.694733e+01
2.680000e-06	3.607152e-06	9.688216e-10	2.512905e+01	6.731615e+01
2.690000e-06	3.642844e-06	9.736616e-10	2.537769e+01	6.767455e+01
2.700000e-06	3.678337e-06	9.779945e-10	2.562495e+01	6.802286e+01
2.710000e-06	3.713481e-06	9.824605e-10	2.586978e+01	6.836141e+01
2.720000e-06	3.748243e-06	9.885238e-10	2.611194e+01	6.869053e+01
2.730000e-06	3.782735e-06	9.936648e-10	2.635223e+01	6.901052e+01
2.740000e-06	3.816758e-06	9.970005e-10	2.658926e+01	6.932172e+01
2.750000e-06	3.850181e-06	9.998153e-10	2.682209e+01	6.962444e+01
2.760000e-06	3.883117e-06	1.002982e-09	2.705154e+01	6.991897e+01
2.770000e-06	3.915633e-06	1.006126e-09	2.727806e+01	7.020564e+01
2.780000e-06	3.947889e-06	1.011678e-09	2.750277e+01	7.048473e+01
2.790000e-06	3.979968e-06	1.019109e-09	2.772625e+01	7.075653e+01
2.800000e-06	4.011870e-06	1.026261e-09	2.794849e+01	7.102134e+01
2.810000e-06	4.043664e-06	1.032473e-09	2.816998e+01	7.127941e+01
2.820000e-06	4.075311e-06	1.037156e-09	2.839045e+01	7.153101e+01
2.830000e-06	4.106663e-06	1.041164e-09	2.860886e+01	7.177639e+01
2.840000e-06	4.137659e-06	1.046187e-09	2.882480e+01	7.201579e+01
2.850000e-06	4.168389e-06	1.052227e-09	2.903888e+01	7.224944e+01
2.860000e-06	4.198887e-06	1.056195e-09	2.925134e+01	7.247755e+01
2.870000e-06	4.228996e-06	1.057446e-09	2.946109e+01	7.270032e+01
2.880000e-06	4.258749e-06	1.059927e-09	2.966837e+01	7.291795e+01
2.890000e-06	4.288225e-06	1.064264e-09	2.987371e+01	7.313059e+01
2.900000e-06	4.317433e-06	1.070119e-09	3.007718e+01	7.333840e+01
