# Temperatura_=_-0.6
# Concentracion g/m^3_=_1620.0
# C_Vs_to_Am_M_A/Vsm_=_65563218390.804596
# pendiente_HvsI_1/m_=_3716.3
# ordenada_HvsI_A/m_=_1297.0
# frecuencia_Hz_=_135098.2133434549

Tiempo_(s)	Campo_(V.s)	Magnetizacion_(V.s)	Campo_(kA/m)	Magnetizacion_(A/m)
0.000000e+00	-5.529307e-06	-1.391734e-09	-3.838088e+01	-9.156825e+01
1.000000e-08	-5.529411e-06	-1.394172e-09	-3.838160e+01	-9.149696e+01
2.000000e-08	-5.529230e-06	-1.399931e-09	-3.838035e+01	-9.142304e+01
3.000000e-08	-5.528669e-06	-1.402668e-09	-3.837645e+01	-9.134659e+01
4.000000e-08	-5.527586e-06	-1.394517e-09	-3.836893e+01	-9.126772e+01
5.000000e-08	-5.525838e-06	-1.377198e-09	-3.835680e+01	-9.118653e+01
6.000000e-08	-5.523496e-06	-1.381926e-09	-3.834054e+01	-9.110313e+01
7.000000e-08	-5.520637e-06	-1.427248e-09	-3.832070e+01	-9.101762e+01
8.000000e-08	-5.517248e-06	-1.448375e-09	-3.829717e+01	-9.093012e+01
9.000000e-08	-5.513437e-06	-1.398193e-09	-3.827072e+01	-9.084074e+01
1.000000e-07	-5.509259e-06	-1.342581e-09	-3.824172e+01	-9.074957e+01
1.100000e-07	-5.504793e-06	-1.380642e-09	-3.821072e+01	-9.065673e+01
1.200000e-07	-5.500040e-06	-1.426376e-09	-3.817773e+01	-9.056230e+01
1.300000e-07	-5.494929e-06	-1.388739e-09	-3.814225e+01	-9.046638e+01
1.400000e-07	-5.489537e-06	-1.334689e-09	-3.810482e+01	-9.036906e+01
1.500000e-07	-5.483834e-06	-1.376790e-09	-3.806523e+01	-9.027041e+01
1.600000e-07	-5.477676e-06	-1.438772e-09	-3.802249e+01	-9.017050e+01
1.700000e-07	-5.471048e-06	-1.391602e-09	-3.797648e+01	-9.006939e+01
1.800000e-07	-5.464050e-06	-1.314895e-09	-3.792790e+01	-8.996712e+01
1.900000e-07	-5.456750e-06	-1.319917e-09	-3.787724e+01	-8.986374e+01
2.000000e-07	-5.449169e-06	-1.373219e-09	-3.782461e+01	-8.975927e+01
2.100000e-07	-5.441344e-06	-1.376922e-09	-3.777030e+01	-8.965371e+01
2.200000e-07	-5.433224e-06	-1.339914e-09	-3.771393e+01	-8.954708e+01
2.300000e-07	-5.424727e-06	-1.323479e-09	-3.765495e+01	-8.943934e+01
2.400000e-07	-5.415629e-06	-1.331227e-09	-3.759180e+01	-8.933047e+01
2.500000e-07	-5.405752e-06	-1.321454e-09	-3.752324e+01	-8.922043e+01
2.600000e-07	-5.395336e-06	-1.304432e-09	-3.745094e+01	-8.910914e+01
2.700000e-07	-5.384405e-06	-1.308847e-09	-3.737506e+01	-8.899654e+01
2.800000e-07	-5.372972e-06	-1.337557e-09	-3.729570e+01	-8.888253e+01
2.900000e-07	-5.361218e-06	-1.341350e-09	-3.721411e+01	-8.876701e+01
3.000000e-07	-5.349109e-06	-1.317751e-09	-3.713006e+01	-8.864986e+01
3.100000e-07	-5.336552e-06	-1.312515e-09	-3.704290e+01	-8.853094e+01
3.200000e-07	-5.323512e-06	-1.332668e-09	-3.695238e+01	-8.841011e+01
3.300000e-07	-5.310105e-06	-1.323518e-09	-3.685932e+01	-8.828721e+01
3.400000e-07	-5.296382e-06	-1.298007e-09	-3.676406e+01	-8.816207e+01
3.500000e-07	-5.282214e-06	-1.311025e-09	-3.666572e+01	-8.803451e+01
3.600000e-07	-5.267474e-06	-1.335069e-09	-3.656340e+01	-8.790435e+01
3.700000e-07	-5.252181e-06	-1.317000e-09	-3.645725e+01	-8.777138e+01
3.800000e-07	-5.236313e-06	-1.308656e-09	-3.634710e+01	-8.763542e+01
3.900000e-07	-5.220089e-06	-1.327629e-09	-3.623448e+01	-8.749625e+01
4.000000e-07	-5.203553e-06	-1.308346e-09	-3.611971e+01	-8.735366e+01
4.100000e-07	-5.186562e-06	-1.282629e-09	-3.600176e+01	-8.720746e+01
4.200000e-07	-5.169299e-06	-1.316869e-09	-3.588194e+01	-8.705742e+01
4.300000e-07	-5.151769e-06	-1.333117e-09	-3.576025e+01	-8.690335e+01
4.400000e-07	-5.133893e-06	-1.288941e-09	-3.563617e+01	-8.674504e+01
4.500000e-07	-5.115619e-06	-1.289743e-09	-3.550932e+01	-8.658230e+01
4.600000e-07	-5.096965e-06	-1.324520e-09	-3.537984e+01	-8.641494e+01
4.700000e-07	-5.077996e-06	-1.302608e-09	-3.524817e+01	-8.624278e+01
4.800000e-07	-5.058669e-06	-1.282298e-09	-3.511401e+01	-8.606566e+01
4.900000e-07	-5.039040e-06	-1.309717e-09	-3.497776e+01	-8.588342e+01
5.000000e-07	-5.019190e-06	-1.294858e-09	-3.483997e+01	-8.569591e+01
5.100000e-07	-4.999099e-06	-1.266620e-09	-3.470052e+01	-8.550302e+01
5.200000e-07	-4.978687e-06	-1.299356e-09	-3.455883e+01	-8.530463e+01
5.300000e-07	-4.957941e-06	-1.309733e-09	-3.441483e+01	-8.510066e+01
5.400000e-07	-4.936862e-06	-1.260872e-09	-3.426851e+01	-8.489102e+01
5.500000e-07	-4.915361e-06	-1.261281e-09	-3.411926e+01	-8.467567e+01
5.600000e-07	-4.893559e-06	-1.289553e-09	-3.396792e+01	-8.445456e+01
5.700000e-07	-4.871459e-06	-1.266265e-09	-3.381452e+01	-8.422769e+01
5.800000e-07	-4.848978e-06	-1.252106e-09	-3.365847e+01	-8.399505e+01
5.900000e-07	-4.826145e-06	-1.276945e-09	-3.349998e+01	-8.375668e+01
6.000000e-07	-4.802894e-06	-1.264563e-09	-3.333859e+01	-8.351262e+01
6.100000e-07	-4.779388e-06	-1.238243e-09	-3.317542e+01	-8.326293e+01
6.200000e-07	-4.755778e-06	-1.249912e-09	-3.301154e+01	-8.300770e+01
6.300000e-07	-4.731899e-06	-1.251083e-09	-3.284578e+01	-8.274703e+01
6.400000e-07	-4.707597e-06	-1.232699e-09	-3.267710e+01	-8.248104e+01
6.500000e-07	-4.682896e-06	-1.239049e-09	-3.250564e+01	-8.220986e+01
6.600000e-07	-4.657778e-06	-1.241535e-09	-3.233129e+01	-8.193365e+01
6.700000e-07	-4.632085e-06	-1.223691e-09	-3.215294e+01	-8.165256e+01
6.800000e-07	-4.605739e-06	-1.221920e-09	-3.197007e+01	-8.136678e+01
6.900000e-07	-4.578875e-06	-1.224992e-09	-3.178359e+01	-8.107649e+01
7.000000e-07	-4.551666e-06	-1.209674e-09	-3.159473e+01	-8.078188e+01
7.100000e-07	-4.524210e-06	-1.203700e-09	-3.140414e+01	-8.048315e+01
7.200000e-07	-4.496555e-06	-1.210445e-09	-3.121218e+01	-8.018051e+01
7.300000e-07	-4.468693e-06	-1.201349e-09	-3.101878e+01	-7.987415e+01
7.400000e-07	-4.440642e-06	-1.191140e-09	-3.082407e+01	-7.956429e+01
7.500000e-07	-4.412374e-06	-1.191582e-09	-3.062785e+01	-7.925113e+01
7.600000e-07	-4.383828e-06	-1.182345e-09	-3.042970e+01	-7.893487e+01
7.700000e-07	-4.354949e-06	-1.169047e-09	-3.022924e+01	-7.861569e+01
7.800000e-07	-4.325753e-06	-1.169832e-09	-3.002658e+01	-7.829380e+01
7.900000e-07	-4.296280e-06	-1.168861e-09	-2.982200e+01	-7.796934e+01
8.000000e-07	-4.266553e-06	-1.158547e-09	-2.961566e+01	-7.764250e+01
8.100000e-07	-4.236576e-06	-1.153957e-09	-2.940758e+01	-7.731342e+01
8.200000e-07	-4.206225e-06	-1.152024e-09	-2.919690e+01	-7.698222e+01
8.300000e-07	-4.175581e-06	-1.139516e-09	-2.898419e+01	-7.664903e+01
8.400000e-07	-4.144656e-06	-1.128338e-09	-2.876953e+01	-7.631393e+01
8.500000e-07	-4.113438e-06	-1.123722e-09	-2.855283e+01	-7.597702e+01
8.600000e-07	-4.081985e-06	-1.115052e-09	-2.833450e+01	-7.563834e+01
8.700000e-07	-4.050286e-06	-1.104939e-09	-2.811447e+01	-7.529793e+01
8.800000e-07	-4.018460e-06	-1.104041e-09	-2.789355e+01	-7.495581e+01
8.900000e-07	-3.986508e-06	-1.100968e-09	-2.767176e+01	-7.461196e+01
9.000000e-07	-3.954297e-06	-1.092058e-09	-2.744817e+01	-7.426636e+01
9.100000e-07	-3.921695e-06	-1.089800e-09	-2.722187e+01	-7.391896e+01
9.200000e-07	-3.888702e-06	-1.087754e-09	-2.699286e+01	-7.356968e+01
9.300000e-07	-3.855304e-06	-1.076099e-09	-2.676103e+01	-7.321844e+01
9.400000e-07	-3.821418e-06	-1.066778e-09	-2.652582e+01	-7.286511e+01
9.500000e-07	-3.787028e-06	-1.063803e-09	-2.628710e+01	-7.250958e+01
9.600000e-07	-3.752246e-06	-1.054500e-09	-2.604567e+01	-7.215168e+01
9.700000e-07	-3.717207e-06	-1.044740e-09	-2.580245e+01	-7.179125e+01
9.800000e-07	-3.681879e-06	-1.043274e-09	-2.555723e+01	-7.142811e+01
9.900000e-07	-3.646324e-06	-1.039945e-09	-2.531043e+01	-7.106207e+01
1.000000e-06	-3.610666e-06	-1.030802e-09	-2.506291e+01	-7.069293e+01
1.010000e-06	-3.574861e-06	-1.024008e-09	-2.481437e+01	-7.032046e+01
1.020000e-06	-3.538881e-06	-1.019987e-09	-2.456463e+01	-6.994445e+01
1.030000e-06	-3.502753e-06	-1.011255e-09	-2.431385e+01	-6.956467e+01
1.040000e-06	-3.466396e-06	-1.003553e-09	-2.406148e+01	-6.918088e+01
1.050000e-06	-3.429768e-06	-1.001758e-09	-2.380723e+01	-6.879287e+01
1.060000e-06	-3.392820e-06	-9.967517e-10	-2.355076e+01	-6.840040e+01
1.070000e-06	-3.355506e-06	-9.883627e-10	-2.329175e+01	-6.800324e+01
1.080000e-06	-3.317956e-06	-9.814333e-10	-2.303111e+01	-6.760116e+01
1.090000e-06	-3.280260e-06	-9.732817e-10	-2.276945e+01	-6.719396e+01
1.100000e-06	-3.242359e-06	-9.629931e-10	-2.250636e+01	-6.678143e+01
1.110000e-06	-3.204186e-06	-9.566498e-10	-2.224139e+01	-6.636337e+01
1.120000e-06	-3.165802e-06	-9.536268e-10	-2.197495e+01	-6.593959e+01
1.130000e-06	-3.127211e-06	-9.482610e-10	-2.170708e+01	-6.550993e+01
1.140000e-06	-3.088371e-06	-9.410691e-10	-2.143748e+01	-6.507423e+01
1.150000e-06	-3.049333e-06	-9.360944e-10	-2.116650e+01	-6.463234e+01
1.160000e-06	-3.010113e-06	-9.312289e-10	-2.089426e+01	-6.418414e+01
1.170000e-06	-2.970736e-06	-9.225334e-10	-2.062093e+01	-6.372952e+01
1.180000e-06	-2.931238e-06	-9.125801e-10	-2.034676e+01	-6.326838e+01
1.190000e-06	-2.891590e-06	-9.042110e-10	-2.007155e+01	-6.280065e+01
1.200000e-06	-2.851771e-06	-8.970857e-10	-1.979515e+01	-6.232627e+01
1.210000e-06	-2.811844e-06	-8.933191e-10	-1.951800e+01	-6.184518e+01
1.220000e-06	-2.771826e-06	-8.899313e-10	-1.924023e+01	-6.135736e+01
1.230000e-06	-2.731595e-06	-8.828136e-10	-1.896097e+01	-6.086280e+01
1.240000e-06	-2.691101e-06	-8.740863e-10	-1.867988e+01	-6.036148e+01
1.250000e-06	-2.650385e-06	-8.660056e-10	-1.839726e+01	-5.985340e+01
1.260000e-06	-2.609482e-06	-8.541469e-10	-1.811334e+01	-5.933860e+01
1.270000e-06	-2.568363e-06	-8.418269e-10	-1.782792e+01	-5.881707e+01
1.280000e-06	-2.526910e-06	-8.345340e-10	-1.754018e+01	-5.828886e+01
1.290000e-06	-2.485069e-06	-8.288712e-10	-1.724975e+01	-5.775399e+01
1.300000e-06	-2.442942e-06	-8.206063e-10	-1.695732e+01	-5.721249e+01
1.310000e-06	-2.400534e-06	-8.107520e-10	-1.666296e+01	-5.666439e+01
1.320000e-06	-2.357813e-06	-8.028911e-10	-1.636642e+01	-5.610971e+01
1.330000e-06	-2.314870e-06	-7.948213e-10	-1.606833e+01	-5.554846e+01
1.340000e-06	-2.271739e-06	-7.851292e-10	-1.576894e+01	-5.498065e+01
1.350000e-06	-2.228410e-06	-7.739492e-10	-1.546819e+01	-5.440627e+01
1.360000e-06	-2.184935e-06	-7.646261e-10	-1.516641e+01	-5.382530e+01
1.370000e-06	-2.141400e-06	-7.588044e-10	-1.486422e+01	-5.323769e+01
1.380000e-06	-2.097747e-06	-7.542198e-10	-1.456121e+01	-5.264340e+01
1.390000e-06	-2.053974e-06	-7.456527e-10	-1.425736e+01	-5.204232e+01
1.400000e-06	-2.010155e-06	-7.338510e-10	-1.395320e+01	-5.143436e+01
1.410000e-06	-1.966266e-06	-7.237660e-10	-1.364855e+01	-5.081938e+01
1.420000e-06	-1.922292e-06	-7.163937e-10	-1.334331e+01	-5.019722e+01
1.430000e-06	-1.878202e-06	-7.084247e-10	-1.303726e+01	-4.956768e+01
1.440000e-06	-1.833999e-06	-6.993336e-10	-1.273044e+01	-4.893054e+01
1.450000e-06	-1.789727e-06	-6.901408e-10	-1.242313e+01	-4.828555e+01
1.460000e-06	-1.745304e-06	-6.792531e-10	-1.211478e+01	-4.763242e+01
1.470000e-06	-1.700724e-06	-6.653681e-10	-1.180533e+01	-4.697082e+01
1.480000e-06	-1.656061e-06	-6.504990e-10	-1.149530e+01	-4.630042e+01
1.490000e-06	-1.611204e-06	-6.396854e-10	-1.118394e+01	-4.562082e+01
1.500000e-06	-1.566141e-06	-6.326635e-10	-1.087114e+01	-4.493160e+01
1.510000e-06	-1.520960e-06	-6.259610e-10	-1.055752e+01	-4.423233e+01
1.520000e-06	-1.475699e-06	-6.187566e-10	-1.024335e+01	-4.352253e+01
1.530000e-06	-1.430384e-06	-6.087957e-10	-9.928800e+00	-4.280169e+01
1.540000e-06	-1.385001e-06	-5.943407e-10	-9.613784e+00	-4.206930e+01
1.550000e-06	-1.339572e-06	-5.799800e-10	-9.298441e+00	-4.132480e+01
1.560000e-06	-1.294019e-06	-5.661562e-10	-8.982246e+00	-4.056764e+01
1.570000e-06	-1.248277e-06	-5.528943e-10	-8.664729e+00	-3.979722e+01
1.580000e-06	-1.202422e-06	-5.428441e-10	-8.346440e+00	-3.901296e+01
1.590000e-06	-1.156458e-06	-5.335473e-10	-8.027384e+00	-3.821425e+01
1.600000e-06	-1.110444e-06	-5.224975e-10	-7.707987e+00	-3.740048e+01
1.610000e-06	-1.064460e-06	-5.094965e-10	-7.388797e+00	-3.657106e+01
1.620000e-06	-1.018414e-06	-4.966732e-10	-7.069170e+00	-3.572536e+01
1.630000e-06	-9.722489e-07	-4.863636e-10	-6.748724e+00	-3.486280e+01
1.640000e-06	-9.260009e-07	-4.750607e-10	-6.427701e+00	-3.398280e+01
1.650000e-06	-8.797085e-07	-4.616781e-10	-6.106368e+00	-3.308480e+01
1.660000e-06	-8.333971e-07	-4.472921e-10	-5.784905e+00	-3.216824e+01
1.670000e-06	-7.870573e-07	-4.295401e-10	-5.463244e+00	-3.123261e+01
1.680000e-06	-7.406259e-07	-4.105010e-10	-5.140947e+00	-3.027743e+01
1.690000e-06	-6.940378e-07	-3.937411e-10	-4.817562e+00	-2.930226e+01
1.700000e-06	-6.473623e-07	-3.811931e-10	-4.493571e+00	-2.830669e+01
1.710000e-06	-6.006619e-07	-3.707343e-10	-4.169407e+00	-2.729035e+01
1.720000e-06	-5.539861e-07	-3.563328e-10	-3.845414e+00	-2.625294e+01
1.730000e-06	-5.073520e-07	-3.371408e-10	-3.521710e+00	-2.519420e+01
1.740000e-06	-4.605993e-07	-3.178237e-10	-3.197183e+00	-2.411393e+01
1.750000e-06	-4.137985e-07	-2.997914e-10	-2.872322e+00	-2.301197e+01
1.760000e-06	-3.670487e-07	-2.816305e-10	-2.547815e+00	-2.188827e+01
1.770000e-06	-3.202779e-07	-2.642093e-10	-2.223162e+00	-2.074280e+01
1.780000e-06	-2.734331e-07	-2.480683e-10	-1.897996e+00	-1.957563e+01
1.790000e-06	-2.264836e-07	-2.326734e-10	-1.572103e+00	-1.838687e+01
1.800000e-06	-1.794951e-07	-2.147727e-10	-1.245939e+00	-1.717673e+01
1.810000e-06	-1.324938e-07	-1.970753e-10	-9.196861e-01	-1.594547e+01
1.820000e-06	-8.548905e-08	-1.821583e-10	-5.934098e-01	-1.469345e+01
1.830000e-06	-3.848623e-08	-1.683514e-10	-2.671466e-01	-1.342107e+01
1.840000e-06	8.461498e-09	-1.521037e-10	5.873425e-02	-1.212884e+01
1.850000e-06	5.531604e-08	-1.329199e-10	3.839682e-01	-1.081730e+01
1.860000e-06	1.021966e-07	-1.125644e-10	7.093830e-01	-9.487106e+00
1.870000e-06	1.491591e-07	-9.273361e-11	1.035366e+00	-8.138952e+00
1.880000e-06	1.960654e-07	-7.301039e-11	1.360960e+00	-6.773612e+00
1.890000e-06	2.428812e-07	-5.391316e-11	1.685924e+00	-5.391923e+00
1.900000e-06	2.897243e-07	-3.557894e-11	2.011079e+00	-3.994785e+00
1.910000e-06	3.365502e-07	-1.713723e-11	2.336114e+00	-2.583156e+00
1.920000e-06	3.832576e-07	1.849611e-12	2.660327e+00	-1.158052e+00
1.930000e-06	4.299418e-07	2.207900e-11	2.984378e+00	2.794609e-01
1.940000e-06	4.766627e-07	4.290773e-11	3.308685e+00	1.728270e+00
1.950000e-06	5.233190e-07	6.316213e-11	3.632542e+00	3.187218e+00
1.960000e-06	5.699056e-07	8.374699e-11	3.955917e+00	4.655110e+00
1.970000e-06	6.164796e-07	1.047391e-10	4.279203e+00	6.130717e+00
1.980000e-06	6.629677e-07	1.251251e-10	4.601894e+00	7.612784e+00
1.990000e-06	7.093837e-07	1.463089e-10	4.924083e+00	9.100031e+00
2.000000e-06	7.557993e-07	1.658521e-10	5.246271e+00	1.059116e+01
2.010000e-06	8.021836e-07	1.865095e-10	5.568240e+00	1.208486e+01
2.020000e-06	8.485114e-07	2.079411e-10	5.889818e+00	1.357982e+01
2.030000e-06	8.947309e-07	2.302313e-10	6.210644e+00	1.507472e+01
2.040000e-06	9.409416e-07	2.513522e-10	6.531409e+00	1.656824e+01
2.050000e-06	9.871311e-07	2.722896e-10	6.852026e+00	1.805908e+01
2.060000e-06	1.033203e-06	2.928196e-10	7.171825e+00	1.954595e+01
2.070000e-06	1.079179e-06	3.125889e-10	7.490961e+00	2.102757e+01
2.080000e-06	1.124977e-06	3.337852e-10	7.808866e+00	2.250270e+01
2.090000e-06	1.170733e-06	3.574588e-10	8.126475e+00	2.397012e+01
2.100000e-06	1.216521e-06	3.815563e-10	8.444303e+00	2.542864e+01
2.110000e-06	1.262196e-06	4.021318e-10	8.761349e+00	2.687711e+01
2.120000e-06	1.307703e-06	4.203033e-10	9.077228e+00	2.831443e+01
2.130000e-06	1.353058e-06	4.374126e-10	9.392055e+00	2.973952e+01
2.140000e-06	1.398332e-06	4.555442e-10	9.706320e+00	3.115136e+01
2.150000e-06	1.443574e-06	4.763951e-10	1.002036e+01	3.254900e+01
2.160000e-06	1.488815e-06	4.979576e-10	1.033439e+01	3.393150e+01
2.170000e-06	1.533958e-06	5.199841e-10	1.064775e+01	3.529802e+01
2.180000e-06	1.578897e-06	5.430602e-10	1.095968e+01	3.664775e+01
2.190000e-06	1.623672e-06	5.621686e-10	1.127048e+01	3.797993e+01
2.200000e-06	1.668312e-06	5.767133e-10	1.158034e+01	3.929388e+01
2.210000e-06	1.712849e-06	5.904397e-10	1.188949e+01	4.058896e+01
2.220000e-06	1.757339e-06	6.067540e-10	1.219831e+01	4.186462e+01
2.230000e-06	1.801692e-06	6.243840e-10	1.250618e+01	4.312033e+01
2.240000e-06	1.845915e-06	6.405410e-10	1.281315e+01	4.435565e+01
2.250000e-06	1.890044e-06	6.558703e-10	1.311946e+01	4.557018e+01
2.260000e-06	1.934036e-06	6.715601e-10	1.342483e+01	4.676358e+01
2.270000e-06	1.977896e-06	6.915821e-10	1.372928e+01	4.793558e+01
2.280000e-06	2.021672e-06	7.106227e-10	1.403314e+01	4.908595e+01
2.290000e-06	2.065402e-06	7.276125e-10	1.433669e+01	5.021453e+01
2.300000e-06	2.109041e-06	7.425606e-10	1.463960e+01	5.132118e+01
2.310000e-06	2.152639e-06	7.557235e-10	1.494223e+01	5.240584e+01
2.320000e-06	2.196186e-06	7.691610e-10	1.524450e+01	5.346849e+01
2.330000e-06	2.239606e-06	7.825871e-10	1.554590e+01	5.450914e+01
2.340000e-06	2.282850e-06	7.993064e-10	1.584607e+01	5.552786e+01
2.350000e-06	2.325865e-06	8.184625e-10	1.614465e+01	5.652475e+01
2.360000e-06	2.368677e-06	8.375784e-10	1.644183e+01	5.749993e+01
2.370000e-06	2.411292e-06	8.512522e-10	1.673763e+01	5.845360e+01
2.380000e-06	2.453669e-06	8.614289e-10	1.703179e+01	5.938594e+01
2.390000e-06	2.495776e-06	8.723700e-10	1.732406e+01	6.029718e+01
2.400000e-06	2.537542e-06	8.831340e-10	1.761398e+01	6.118758e+01
2.410000e-06	2.578961e-06	8.930890e-10	1.790148e+01	6.205742e+01
2.420000e-06	2.620026e-06	9.060233e-10	1.818653e+01	6.290700e+01
2.430000e-06	2.660753e-06	9.226476e-10	1.846923e+01	6.373662e+01
2.440000e-06	2.701291e-06	9.378831e-10	1.875062e+01	6.454662e+01
2.450000e-06	2.741630e-06	9.490922e-10	1.903063e+01	6.533733e+01
2.460000e-06	2.781770e-06	9.607832e-10	1.930925e+01	6.610912e+01
2.470000e-06	2.821759e-06	9.726875e-10	1.958683e+01	6.686232e+01
2.480000e-06	2.861605e-06	9.846691e-10	1.986341e+01	6.759733e+01
2.490000e-06	2.901290e-06	9.957978e-10	2.013888e+01	6.831449e+01
2.500000e-06	2.940810e-06	1.006384e-09	2.041320e+01	6.901418e+01
2.510000e-06	2.980217e-06	1.018660e-09	2.068674e+01	6.969677e+01
2.520000e-06	3.019461e-06	1.030954e-09	2.095915e+01	7.036263e+01
2.530000e-06	3.058514e-06	1.040808e-09	2.123023e+01	7.101213e+01
2.540000e-06	3.097414e-06	1.048259e-09	2.150025e+01	7.164564e+01
2.550000e-06	3.136089e-06	1.055684e-09	2.176870e+01	7.226351e+01
2.560000e-06	3.174464e-06	1.064781e-09	2.203508e+01	7.286609e+01
2.570000e-06	3.212546e-06	1.071814e-09	2.229942e+01	7.345375e+01
2.580000e-06	3.250472e-06	1.078041e-09	2.256268e+01	7.402681e+01
2.590000e-06	3.288282e-06	1.087464e-09	2.282513e+01	7.458562e+01
2.600000e-06	3.325795e-06	1.097196e-09	2.308552e+01	7.513050e+01
2.610000e-06	3.363052e-06	1.103193e-09	2.334414e+01	7.566178e+01
2.620000e-06	3.400071e-06	1.105401e-09	2.360110e+01	7.617976e+01
2.630000e-06	3.436855e-06	1.108598e-09	2.385643e+01	7.668475e+01
2.640000e-06	3.473424e-06	1.113301e-09	2.411026e+01	7.717705e+01
2.650000e-06	3.509788e-06	1.119328e-09	2.436268e+01	7.765695e+01
2.660000e-06	3.545968e-06	1.126978e-09	2.461382e+01	7.812473e+01
2.670000e-06	3.581927e-06	1.135597e-09	2.486342e+01	7.858066e+01
2.680000e-06	3.617714e-06	1.145219e-09	2.511183e+01	7.902502e+01
2.690000e-06	3.653377e-06	1.153654e-09	2.535938e+01	7.945806e+01
2.700000e-06	3.688891e-06	1.159949e-09	2.560590e+01	7.988005e+01
2.710000e-06	3.724131e-06	1.164259e-09	2.585051e+01	8.029122e+01
2.720000e-06	3.759062e-06	1.166337e-09	2.609298e+01	8.069181e+01
2.730000e-06	3.793695e-06	1.168713e-09	2.633338e+01	8.108208e+01
2.740000e-06	3.828000e-06	1.171375e-09	2.657150e+01	8.146224e+01
2.750000e-06	3.861845e-06	1.175962e-09	2.680643e+01	8.183253e+01
2.760000e-06	3.895183e-06	1.183574e-09	2.703785e+01	8.219317e+01
2.770000e-06	3.928111e-06	1.192372e-09	2.726641e+01	8.254437e+01
2.780000e-06	3.960650e-06	1.199913e-09	2.749228e+01	8.288634e+01
2.790000e-06	3.992870e-06	1.204865e-09	2.771593e+01	8.321931e+01
2.800000e-06	4.024892e-06	1.208074e-09	2.793820e+01	8.354347e+01
2.810000e-06	4.056754e-06	1.210806e-09	2.815937e+01	8.385902e+01
2.820000e-06	4.088383e-06	1.214865e-09	2.837891e+01	8.416616e+01
2.830000e-06	4.119796e-06	1.220993e-09	2.859696e+01	8.446509e+01
2.840000e-06	4.150977e-06	1.227654e-09	2.881340e+01	8.475600e+01
2.850000e-06	4.181866e-06	1.235540e-09	2.902782e+01	8.503908e+01
2.860000e-06	4.212452e-06	1.241341e-09	2.924012e+01	8.531450e+01
2.870000e-06	4.242697e-06	1.242959e-09	2.945006e+01	8.558246e+01
2.880000e-06	4.272614e-06	1.244482e-09	2.965772e+01	8.584312e+01
2.890000e-06	4.302287e-06	1.248905e-09	2.986370e+01	8.609667e+01
2.900000e-06	4.331689e-06	1.255318e-09	3.006779e+01	8.634328e+01
2.910000e-06	4.360730e-06	1.260306e-09	3.026937e+01	8.658310e+01
