# Temperatura_=_-0.7
# Concentracion g/m^3_=_1620.0
# C_Vs_to_Am_M_A/Vsm_=_65563218390.804596
# pendiente_HvsI_1/m_=_3716.3
# ordenada_HvsI_A/m_=_1297.0
# frecuencia_Hz_=_135099.6929235748

Tiempo_(s)	Campo_(V.s)	Magnetizacion_(V.s)	Campo_(kA/m)	Magnetizacion_(A/m)
0.000000e+00	-5.507087e-06	-1.236376e-09	-3.837477e+01	-8.246674e+01
1.000000e-08	-5.507171e-06	-1.237767e-09	-3.837535e+01	-8.241594e+01
2.000000e-08	-5.506953e-06	-1.238766e-09	-3.837383e+01	-8.236555e+01
3.000000e-08	-5.506396e-06	-1.237038e-09	-3.836995e+01	-8.231547e+01
4.000000e-08	-5.505399e-06	-1.230378e-09	-3.836300e+01	-8.226555e+01
5.000000e-08	-5.503755e-06	-1.218200e-09	-3.835154e+01	-8.221564e+01
6.000000e-08	-5.501399e-06	-1.227100e-09	-3.833513e+01	-8.216560e+01
7.000000e-08	-5.498464e-06	-1.243392e-09	-3.831468e+01	-8.211523e+01
8.000000e-08	-5.495023e-06	-1.224900e-09	-3.829070e+01	-8.206437e+01
9.000000e-08	-5.491184e-06	-1.280422e-09	-3.826395e+01	-8.201284e+01
1.000000e-07	-5.487059e-06	-1.373605e-09	-3.823521e+01	-8.196044e+01
1.100000e-07	-5.482606e-06	-1.259803e-09	-3.820418e+01	-8.190699e+01
1.200000e-07	-5.477985e-06	-1.108658e-09	-3.817197e+01	-8.185228e+01
1.300000e-07	-5.473194e-06	-1.160499e-09	-3.813859e+01	-8.179612e+01
1.400000e-07	-5.467918e-06	-1.322879e-09	-3.810182e+01	-8.173832e+01
1.500000e-07	-5.462109e-06	-1.289762e-09	-3.806135e+01	-8.167870e+01
1.600000e-07	-5.455928e-06	-1.104905e-09	-3.801827e+01	-8.161707e+01
1.700000e-07	-5.449464e-06	-1.195263e-09	-3.797323e+01	-8.155324e+01
1.800000e-07	-5.442502e-06	-1.343185e-09	-3.792472e+01	-8.148704e+01
1.900000e-07	-5.435057e-06	-1.301415e-09	-3.787284e+01	-8.141831e+01
2.000000e-07	-5.427431e-06	-1.112232e-09	-3.781971e+01	-8.134690e+01
2.100000e-07	-5.419648e-06	-1.143616e-09	-3.776547e+01	-8.127264e+01
2.200000e-07	-5.411454e-06	-1.265156e-09	-3.770837e+01	-8.119542e+01
2.300000e-07	-5.402904e-06	-1.271402e-09	-3.764879e+01	-8.111510e+01
2.400000e-07	-5.394041e-06	-1.177929e-09	-3.758703e+01	-8.103156e+01
2.500000e-07	-5.384442e-06	-1.179348e-09	-3.752014e+01	-8.094470e+01
2.600000e-07	-5.374011e-06	-1.225614e-09	-3.744746e+01	-8.085442e+01
2.700000e-07	-5.363059e-06	-1.207789e-09	-3.737114e+01	-8.076066e+01
2.800000e-07	-5.351732e-06	-1.171987e-09	-3.729222e+01	-8.066332e+01
2.900000e-07	-5.339977e-06	-1.172861e-09	-3.721030e+01	-8.056237e+01
3.000000e-07	-5.327815e-06	-1.213655e-09	-3.712555e+01	-8.045774e+01
3.100000e-07	-5.315376e-06	-1.211945e-09	-3.703887e+01	-8.034939e+01
3.200000e-07	-5.302536e-06	-1.196661e-09	-3.694940e+01	-8.023731e+01
3.300000e-07	-5.289185e-06	-1.163008e-09	-3.685637e+01	-8.012147e+01
3.400000e-07	-5.275492e-06	-1.217196e-09	-3.676096e+01	-8.000186e+01
3.500000e-07	-5.261511e-06	-1.221668e-09	-3.666353e+01	-7.987848e+01
3.600000e-07	-5.247011e-06	-1.167645e-09	-3.656249e+01	-7.975133e+01
3.700000e-07	-5.231887e-06	-1.163078e-09	-3.645710e+01	-7.962042e+01
3.800000e-07	-5.216364e-06	-1.245556e-09	-3.634893e+01	-7.948577e+01
3.900000e-07	-5.200301e-06	-1.181753e-09	-3.623700e+01	-7.934740e+01
4.000000e-07	-5.183719e-06	-1.127312e-09	-3.612146e+01	-7.920533e+01
4.100000e-07	-5.166936e-06	-1.222718e-09	-3.600451e+01	-7.905960e+01
4.200000e-07	-5.149807e-06	-1.237745e-09	-3.588515e+01	-7.891023e+01
4.300000e-07	-5.132256e-06	-1.098028e-09	-3.576285e+01	-7.875727e+01
4.400000e-07	-5.114434e-06	-1.169511e-09	-3.563866e+01	-7.860073e+01
4.500000e-07	-5.096245e-06	-1.286245e-09	-3.551191e+01	-7.844066e+01
4.600000e-07	-5.077503e-06	-1.152753e-09	-3.538132e+01	-7.827709e+01
4.700000e-07	-5.058331e-06	-1.088687e-09	-3.524772e+01	-7.811006e+01
4.800000e-07	-5.038945e-06	-1.250889e-09	-3.511263e+01	-7.793959e+01
4.900000e-07	-5.019362e-06	-1.208640e-09	-3.497617e+01	-7.776572e+01
5.000000e-07	-4.999602e-06	-1.077762e-09	-3.483848e+01	-7.758848e+01
5.100000e-07	-4.979617e-06	-1.198879e-09	-3.469922e+01	-7.740789e+01
5.200000e-07	-4.959308e-06	-1.243591e-09	-3.455771e+01	-7.722398e+01
5.300000e-07	-4.938570e-06	-1.092005e-09	-3.441320e+01	-7.703677e+01
5.400000e-07	-4.917467e-06	-1.153050e-09	-3.426614e+01	-7.684629e+01
5.500000e-07	-4.896064e-06	-1.266240e-09	-3.411701e+01	-7.665255e+01
5.600000e-07	-4.874242e-06	-1.118202e-09	-3.396494e+01	-7.645556e+01
5.700000e-07	-4.852062e-06	-1.080129e-09	-3.381039e+01	-7.625535e+01
5.800000e-07	-4.829660e-06	-1.224563e-09	-3.365428e+01	-7.605192e+01
5.900000e-07	-4.806912e-06	-1.171750e-09	-3.349577e+01	-7.584528e+01
6.000000e-07	-4.783784e-06	-1.074509e-09	-3.333461e+01	-7.563544e+01
6.100000e-07	-4.760450e-06	-1.182594e-09	-3.317201e+01	-7.542241e+01
6.200000e-07	-4.736854e-06	-1.185257e-09	-3.300759e+01	-7.520620e+01
6.300000e-07	-4.712906e-06	-1.084059e-09	-3.284071e+01	-7.498681e+01
6.400000e-07	-4.688743e-06	-1.134298e-09	-3.267234e+01	-7.476424e+01
6.500000e-07	-4.664278e-06	-1.181730e-09	-3.250186e+01	-7.453851e+01
6.600000e-07	-4.639314e-06	-1.094624e-09	-3.232790e+01	-7.430961e+01
6.700000e-07	-4.613879e-06	-1.111373e-09	-3.215067e+01	-7.407755e+01
6.800000e-07	-4.587950e-06	-1.166869e-09	-3.196999e+01	-7.384235e+01
6.900000e-07	-4.561365e-06	-1.111141e-09	-3.178474e+01	-7.360400e+01
7.000000e-07	-4.534271e-06	-1.082462e-09	-3.159594e+01	-7.336251e+01
7.100000e-07	-4.506916e-06	-1.135726e-09	-3.140532e+01	-7.311791e+01
7.200000e-07	-4.479337e-06	-1.110260e-09	-3.121314e+01	-7.287018e+01
7.300000e-07	-4.451570e-06	-1.077483e-09	-3.101966e+01	-7.261936e+01
7.400000e-07	-4.423631e-06	-1.108833e-09	-3.082497e+01	-7.236544e+01
7.500000e-07	-4.395546e-06	-1.108072e-09	-3.062927e+01	-7.210846e+01
7.600000e-07	-4.367201e-06	-1.068601e-09	-3.043175e+01	-7.184841e+01
7.700000e-07	-4.338467e-06	-1.078196e-09	-3.023153e+01	-7.158532e+01
7.800000e-07	-4.309388e-06	-1.080980e-09	-3.002890e+01	-7.131921e+01
7.900000e-07	-4.280016e-06	-1.053147e-09	-2.982422e+01	-7.105008e+01
8.000000e-07	-4.250314e-06	-1.057785e-09	-2.961726e+01	-7.077797e+01
8.100000e-07	-4.220280e-06	-1.071532e-09	-2.940797e+01	-7.050288e+01
8.200000e-07	-4.189943e-06	-1.046102e-09	-2.919658e+01	-7.022483e+01
8.300000e-07	-4.159431e-06	-1.036452e-09	-2.898396e+01	-6.994383e+01
8.400000e-07	-4.128741e-06	-1.053320e-09	-2.877011e+01	-6.965990e+01
8.500000e-07	-4.097684e-06	-1.034316e-09	-2.855369e+01	-6.937306e+01
8.600000e-07	-4.066259e-06	-1.012861e-09	-2.833472e+01	-6.908330e+01
8.700000e-07	-4.034635e-06	-1.024479e-09	-2.811435e+01	-6.879063e+01
8.800000e-07	-4.002953e-06	-1.023392e-09	-2.789358e+01	-6.849506e+01
8.900000e-07	-3.971090e-06	-1.001348e-09	-2.767155e+01	-6.819658e+01
9.000000e-07	-3.938947e-06	-1.006911e-09	-2.744757e+01	-6.789520e+01
9.100000e-07	-3.906473e-06	-1.004894e-09	-2.722128e+01	-6.759089e+01
9.200000e-07	-3.873573e-06	-9.791679e-10	-2.699203e+01	-6.728364e+01
9.300000e-07	-3.840316e-06	-9.716948e-10	-2.676028e+01	-6.697344e+01
9.400000e-07	-3.806622e-06	-9.876270e-10	-2.652550e+01	-6.666025e+01
9.500000e-07	-3.772344e-06	-9.743527e-10	-2.628664e+01	-6.634406e+01
9.600000e-07	-3.737637e-06	-9.601301e-10	-2.604479e+01	-6.602481e+01
9.700000e-07	-3.702627e-06	-9.645982e-10	-2.580083e+01	-6.570247e+01
9.800000e-07	-3.667333e-06	-9.583920e-10	-2.555490e+01	-6.537700e+01
9.900000e-07	-3.631899e-06	-9.376521e-10	-2.530798e+01	-6.504833e+01
1.000000e-06	-3.596309e-06	-9.401098e-10	-2.505998e+01	-6.471641e+01
1.010000e-06	-3.560558e-06	-9.453547e-10	-2.481086e+01	-6.438117e+01
1.020000e-06	-3.524666e-06	-9.351829e-10	-2.456076e+01	-6.404255e+01
1.030000e-06	-3.488574e-06	-9.313344e-10	-2.430926e+01	-6.370048e+01
1.040000e-06	-3.452217e-06	-9.344989e-10	-2.405591e+01	-6.335487e+01
1.050000e-06	-3.415615e-06	-9.190468e-10	-2.380086e+01	-6.300564e+01
1.060000e-06	-3.378787e-06	-9.065511e-10	-2.354424e+01	-6.265271e+01
1.070000e-06	-3.341672e-06	-9.075616e-10	-2.328561e+01	-6.229598e+01
1.080000e-06	-3.304380e-06	-9.023230e-10	-2.302575e+01	-6.193538e+01
1.090000e-06	-3.266916e-06	-8.909823e-10	-2.276469e+01	-6.157080e+01
1.100000e-06	-3.229191e-06	-8.897741e-10	-2.250181e+01	-6.120216e+01
1.110000e-06	-3.191162e-06	-8.862346e-10	-2.223682e+01	-6.082935e+01
1.120000e-06	-3.152868e-06	-8.710601e-10	-2.196997e+01	-6.045228e+01
1.130000e-06	-3.114330e-06	-8.641853e-10	-2.170144e+01	-6.007086e+01
1.140000e-06	-3.075544e-06	-8.638874e-10	-2.143116e+01	-5.968498e+01
1.150000e-06	-3.036630e-06	-8.574390e-10	-2.116000e+01	-5.929456e+01
1.160000e-06	-2.997489e-06	-8.478769e-10	-2.088725e+01	-5.889950e+01
1.170000e-06	-2.958137e-06	-8.452748e-10	-2.061304e+01	-5.849971e+01
1.180000e-06	-2.918694e-06	-8.384110e-10	-2.033820e+01	-5.809510e+01
1.190000e-06	-2.879121e-06	-8.269625e-10	-2.006244e+01	-5.768557e+01
1.200000e-06	-2.839396e-06	-8.205740e-10	-1.978562e+01	-5.727104e+01
1.210000e-06	-2.799542e-06	-8.168060e-10	-1.950791e+01	-5.685143e+01
1.220000e-06	-2.759553e-06	-8.083015e-10	-1.922926e+01	-5.642664e+01
1.230000e-06	-2.719385e-06	-8.046328e-10	-1.894936e+01	-5.599658e+01
1.240000e-06	-2.679049e-06	-7.992455e-10	-1.866829e+01	-5.556119e+01
1.250000e-06	-2.638577e-06	-7.889865e-10	-1.838627e+01	-5.512037e+01
1.260000e-06	-2.597844e-06	-7.774737e-10	-1.810243e+01	-5.467403e+01
1.270000e-06	-2.556854e-06	-7.700142e-10	-1.781680e+01	-5.422209e+01
1.280000e-06	-2.515710e-06	-7.642533e-10	-1.753010e+01	-5.376446e+01
1.290000e-06	-2.474259e-06	-7.577303e-10	-1.724126e+01	-5.330105e+01
1.300000e-06	-2.432444e-06	-7.489629e-10	-1.694988e+01	-5.283175e+01
1.310000e-06	-2.390305e-06	-7.402898e-10	-1.665625e+01	-5.235647e+01
1.320000e-06	-2.347919e-06	-7.306794e-10	-1.636089e+01	-5.187510e+01
1.330000e-06	-2.305236e-06	-7.233101e-10	-1.606347e+01	-5.138752e+01
1.340000e-06	-2.262202e-06	-7.174863e-10	-1.576359e+01	-5.089361e+01
1.350000e-06	-2.218926e-06	-7.102876e-10	-1.546204e+01	-5.039322e+01
1.360000e-06	-2.175483e-06	-7.013698e-10	-1.515931e+01	-4.988623e+01
1.370000e-06	-2.131940e-06	-6.939289e-10	-1.485589e+01	-4.937245e+01
1.380000e-06	-2.088395e-06	-6.851643e-10	-1.455246e+01	-4.885173e+01
1.390000e-06	-2.044773e-06	-6.748740e-10	-1.424849e+01	-4.832386e+01
1.400000e-06	-2.001046e-06	-6.637735e-10	-1.394379e+01	-4.778866e+01
1.410000e-06	-1.957278e-06	-6.530644e-10	-1.363880e+01	-4.724590e+01
1.420000e-06	-1.913384e-06	-6.453039e-10	-1.333294e+01	-4.669534e+01
1.430000e-06	-1.869402e-06	-6.388506e-10	-1.302646e+01	-4.613672e+01
1.440000e-06	-1.825335e-06	-6.326640e-10	-1.271939e+01	-4.556976e+01
1.450000e-06	-1.781057e-06	-6.259078e-10	-1.241085e+01	-4.499418e+01
1.460000e-06	-1.736669e-06	-6.178419e-10	-1.210154e+01	-4.440965e+01
1.470000e-06	-1.692304e-06	-6.059979e-10	-1.179240e+01	-4.381585e+01
1.480000e-06	-1.647822e-06	-5.939474e-10	-1.148243e+01	-4.321240e+01
1.490000e-06	-1.603145e-06	-5.843352e-10	-1.117111e+01	-4.259895e+01
1.500000e-06	-1.558358e-06	-5.762727e-10	-1.085903e+01	-4.197509e+01
1.510000e-06	-1.513487e-06	-5.686013e-10	-1.054636e+01	-4.134042e+01
1.520000e-06	-1.468530e-06	-5.610358e-10	-1.023309e+01	-4.069450e+01
1.530000e-06	-1.423424e-06	-5.501889e-10	-9.918776e+00	-4.003690e+01
1.540000e-06	-1.378145e-06	-5.369377e-10	-9.603262e+00	-3.936715e+01
1.550000e-06	-1.332812e-06	-5.213692e-10	-9.287370e+00	-3.868478e+01
1.560000e-06	-1.287419e-06	-5.055774e-10	-8.971058e+00	-3.798932e+01
1.570000e-06	-1.241885e-06	-4.900983e-10	-8.653767e+00	-3.728027e+01
1.580000e-06	-1.196235e-06	-4.796791e-10	-8.335663e+00	-3.655715e+01
1.590000e-06	-1.150477e-06	-4.725102e-10	-8.016816e+00	-3.581944e+01
1.600000e-06	-1.104701e-06	-4.642545e-10	-7.697837e+00	-3.506667e+01
1.610000e-06	-1.058837e-06	-4.533222e-10	-7.378245e+00	-3.429833e+01
1.620000e-06	-1.012828e-06	-4.434208e-10	-7.057638e+00	-3.351393e+01
1.630000e-06	-9.668242e-07	-4.357768e-10	-6.737074e+00	-3.271301e+01
1.640000e-06	-9.208078e-07	-4.256603e-10	-6.416420e+00	-3.189509e+01
1.650000e-06	-8.747453e-07	-4.130614e-10	-6.095445e+00	-3.105974e+01
1.660000e-06	-8.286156e-07	-4.001672e-10	-5.774002e+00	-3.020651e+01
1.670000e-06	-7.823912e-07	-3.829650e-10	-5.451899e+00	-2.933503e+01
1.680000e-06	-7.361161e-07	-3.639844e-10	-5.129442e+00	-2.844490e+01
1.690000e-06	-6.897842e-07	-3.498776e-10	-4.806589e+00	-2.753579e+01
1.700000e-06	-6.432667e-07	-3.372257e-10	-4.482444e+00	-2.660739e+01
1.710000e-06	-5.967175e-07	-3.227503e-10	-4.158077e+00	-2.565944e+01
1.720000e-06	-5.502361e-07	-3.072386e-10	-3.834184e+00	-2.469171e+01
1.730000e-06	-5.037194e-07	-2.907123e-10	-3.510044e+00	-2.370402e+01
1.740000e-06	-4.571480e-07	-2.729130e-10	-3.185522e+00	-2.269625e+01
1.750000e-06	-4.105050e-07	-2.571056e-10	-2.860502e+00	-2.166832e+01
1.760000e-06	-3.638403e-07	-2.422149e-10	-2.535331e+00	-2.062020e+01
1.770000e-06	-3.172657e-07	-2.302178e-10	-2.210787e+00	-1.955193e+01
1.780000e-06	-2.706650e-07	-2.170347e-10	-1.886061e+00	-1.846360e+01
1.790000e-06	-2.239220e-07	-2.035073e-10	-1.560345e+00	-1.735537e+01
1.800000e-06	-1.771825e-07	-1.893034e-10	-1.234652e+00	-1.622746e+01
1.810000e-06	-1.304879e-07	-1.729429e-10	-9.092726e-01	-1.508015e+01
1.820000e-06	-8.376063e-08	-1.559053e-10	-5.836651e-01	-1.391378e+01
1.830000e-06	-3.702139e-08	-1.398007e-10	-2.579743e-01	-1.272876e+01
1.840000e-06	9.676202e-09	-1.248900e-10	6.742621e-02	-1.152558e+01
1.850000e-06	5.633346e-08	-1.101354e-10	3.925457e-01	-1.030477e+01
1.860000e-06	1.029694e-07	-9.869908e-11	7.175167e-01	-9.066933e+00
1.870000e-06	1.496663e-07	-8.452456e-11	1.042912e+00	-7.812744e+00
1.880000e-06	1.964346e-07	-6.490297e-11	1.368805e+00	-6.542930e+00
1.890000e-06	2.431409e-07	-4.289595e-11	1.694267e+00	-5.258279e+00
1.900000e-06	2.898269e-07	-2.152278e-11	2.019587e+00	-3.959637e+00
1.910000e-06	3.365450e-07	-3.777896e-12	2.345130e+00	-2.647905e+00
1.920000e-06	3.831801e-07	9.825979e-12	2.670095e+00	-1.324032e+00
1.930000e-06	4.296812e-07	2.217509e-11	2.994126e+00	1.098085e-02
1.940000e-06	4.761107e-07	3.681214e-11	3.317659e+00	1.356090e+00
1.950000e-06	5.224894e-07	5.529010e-11	3.640837e+00	2.710213e+00
1.960000e-06	5.687821e-07	7.625647e-11	3.963416e+00	4.072227e+00
1.970000e-06	6.150995e-07	9.915417e-11	4.286168e+00	5.440983e+00
1.980000e-06	6.614495e-07	1.196934e-10	4.609146e+00	6.815301e+00
1.990000e-06	7.077215e-07	1.377286e-10	4.931581e+00	8.193980e+00
2.000000e-06	7.538899e-07	1.539762e-10	5.253294e+00	9.575801e+00
2.010000e-06	7.999776e-07	1.724782e-10	5.574445e+00	1.095954e+01
2.020000e-06	8.460698e-07	1.947366e-10	5.895627e+00	1.234394e+01
2.030000e-06	8.921314e-07	2.176813e-10	6.216596e+00	1.372779e+01
2.040000e-06	9.380915e-07	2.395421e-10	6.536857e+00	1.510983e+01
2.050000e-06	9.839791e-07	2.592480e-10	6.856613e+00	1.648884e+01
2.060000e-06	1.029828e-06	2.774872e-10	7.176100e+00	1.786361e+01
2.070000e-06	1.075641e-06	2.962789e-10	7.495340e+00	1.923294e+01
2.080000e-06	1.121358e-06	3.144869e-10	7.813904e+00	2.059565e+01
2.090000e-06	1.167009e-06	3.345095e-10	8.132009e+00	2.195060e+01
2.100000e-06	1.212600e-06	3.571242e-10	8.449704e+00	2.329666e+01
2.110000e-06	1.258078e-06	3.773795e-10	8.766605e+00	2.463277e+01
2.120000e-06	1.303482e-06	3.953208e-10	9.082989e+00	2.595788e+01
2.130000e-06	1.348797e-06	4.123515e-10	9.398754e+00	2.727099e+01
2.140000e-06	1.394000e-06	4.292919e-10	9.713739e+00	2.857114e+01
2.150000e-06	1.439123e-06	4.476998e-10	1.002817e+01	2.985745e+01
2.160000e-06	1.484123e-06	4.676049e-10	1.034174e+01	3.112904e+01
2.170000e-06	1.528969e-06	4.855136e-10	1.065424e+01	3.238514e+01
2.180000e-06	1.573766e-06	5.043002e-10	1.096640e+01	3.362498e+01
2.190000e-06	1.618476e-06	5.220370e-10	1.127794e+01	3.484789e+01
2.200000e-06	1.662989e-06	5.388433e-10	1.158812e+01	3.605324e+01
2.210000e-06	1.707330e-06	5.546266e-10	1.189710e+01	3.724045e+01
2.220000e-06	1.751512e-06	5.705259e-10	1.220497e+01	3.840902e+01
2.230000e-06	1.795667e-06	5.857560e-10	1.251266e+01	3.955848e+01
2.240000e-06	1.839761e-06	5.995730e-10	1.281992e+01	4.068846e+01
2.250000e-06	1.883724e-06	6.154865e-10	1.312626e+01	4.179860e+01
2.260000e-06	1.927603e-06	6.309844e-10	1.343202e+01	4.288862e+01
2.270000e-06	1.971367e-06	6.491390e-10	1.373698e+01	4.395830e+01
2.280000e-06	2.015070e-06	6.662974e-10	1.404152e+01	4.500747e+01
2.290000e-06	2.058772e-06	6.819520e-10	1.434604e+01	4.603600e+01
2.300000e-06	2.102423e-06	6.947513e-10	1.465021e+01	4.704382e+01
2.310000e-06	2.145956e-06	7.058309e-10	1.495356e+01	4.803091e+01
2.320000e-06	2.189345e-06	7.177440e-10	1.525590e+01	4.899728e+01
2.330000e-06	2.232669e-06	7.303139e-10	1.555780e+01	4.994300e+01
2.340000e-06	2.275974e-06	7.457262e-10	1.585956e+01	5.086815e+01
2.350000e-06	2.319000e-06	7.631608e-10	1.615937e+01	5.177289e+01
2.360000e-06	2.361635e-06	7.789511e-10	1.645647e+01	5.265737e+01
2.370000e-06	2.404021e-06	7.891112e-10	1.675182e+01	5.352180e+01
2.380000e-06	2.446029e-06	7.974866e-10	1.704455e+01	5.436640e+01
2.390000e-06	2.487698e-06	8.065285e-10	1.733490e+01	5.519143e+01
2.400000e-06	2.529112e-06	8.153083e-10	1.762349e+01	5.599715e+01
2.410000e-06	2.570198e-06	8.264722e-10	1.790979e+01	5.678385e+01
2.420000e-06	2.611041e-06	8.384344e-10	1.819439e+01	5.755185e+01
2.430000e-06	2.651599e-06	8.511427e-10	1.847701e+01	5.830145e+01
2.440000e-06	2.691868e-06	8.613111e-10	1.875761e+01	5.903300e+01
2.450000e-06	2.731920e-06	8.666790e-10	1.903670e+01	5.974682e+01
2.460000e-06	2.771876e-06	8.746853e-10	1.931513e+01	6.044327e+01
2.470000e-06	2.811730e-06	8.852149e-10	1.959284e+01	6.112269e+01
2.480000e-06	2.851451e-06	8.966761e-10	1.986963e+01	6.178543e+01
2.490000e-06	2.891093e-06	9.067152e-10	2.014586e+01	6.243184e+01
2.500000e-06	2.930543e-06	9.147902e-10	2.042076e+01	6.306227e+01
2.510000e-06	2.969880e-06	9.208264e-10	2.069487e+01	6.367707e+01
2.520000e-06	3.009037e-06	9.272450e-10	2.096773e+01	6.427658e+01
2.530000e-06	3.048023e-06	9.335954e-10	2.123939e+01	6.486115e+01
2.540000e-06	3.086751e-06	9.399210e-10	2.150926e+01	6.543111e+01
2.550000e-06	3.125206e-06	9.464420e-10	2.177722e+01	6.598678e+01
2.560000e-06	3.163489e-06	9.521034e-10	2.204399e+01	6.652850e+01
2.570000e-06	3.201503e-06	9.563118e-10	2.230888e+01	6.705658e+01
2.580000e-06	3.239404e-06	9.619431e-10	2.257298e+01	6.757134e+01
2.590000e-06	3.277123e-06	9.712736e-10	2.283581e+01	6.807307e+01
2.600000e-06	3.314571e-06	9.811202e-10	2.309676e+01	6.856208e+01
2.610000e-06	3.351838e-06	9.878465e-10	2.335645e+01	6.903867e+01
2.620000e-06	3.388829e-06	9.933702e-10	2.361421e+01	6.950312e+01
2.630000e-06	3.425385e-06	9.982442e-10	2.386894e+01	6.995572e+01
2.640000e-06	3.461673e-06	1.004084e-09	2.412180e+01	7.039675e+01
2.650000e-06	3.497780e-06	1.008575e-09	2.437341e+01	7.082648e+01
2.660000e-06	3.533668e-06	1.012442e-09	2.462348e+01	7.124520e+01
2.670000e-06	3.569487e-06	1.017612e-09	2.487308e+01	7.165318e+01
2.680000e-06	3.605224e-06	1.024875e-09	2.512211e+01	7.205067e+01
2.690000e-06	3.640787e-06	1.033462e-09	2.536992e+01	7.243796e+01
2.700000e-06	3.676220e-06	1.041999e-09	2.561683e+01	7.281530e+01
2.710000e-06	3.711517e-06	1.049147e-09	2.586279e+01	7.318296e+01
2.720000e-06	3.746540e-06	1.051545e-09	2.610683e+01	7.354121e+01
2.730000e-06	3.781083e-06	1.051705e-09	2.634754e+01	7.389031e+01
2.740000e-06	3.815098e-06	1.051695e-09	2.658456e+01	7.423052e+01
2.750000e-06	3.848642e-06	1.054505e-09	2.681831e+01	7.456211e+01
2.760000e-06	3.881712e-06	1.061339e-09	2.704874e+01	7.488534e+01
2.770000e-06	3.914282e-06	1.070727e-09	2.727570e+01	7.520047e+01
2.780000e-06	3.946479e-06	1.080771e-09	2.750006e+01	7.550776e+01
2.790000e-06	3.978494e-06	1.089997e-09	2.772315e+01	7.580748e+01
2.800000e-06	4.010332e-06	1.096582e-09	2.794500e+01	7.609986e+01
2.810000e-06	4.042057e-06	1.100472e-09	2.816607e+01	7.638518e+01
2.820000e-06	4.073665e-06	1.100944e-09	2.838632e+01	7.666368e+01
2.830000e-06	4.105067e-06	1.103391e-09	2.860514e+01	7.693561e+01
2.840000e-06	4.136136e-06	1.109426e-09	2.882164e+01	7.720120e+01
2.850000e-06	4.166908e-06	1.117730e-09	2.903606e+01	7.746069e+01
2.860000e-06	4.197413e-06	1.123951e-09	2.924863e+01	7.771431e+01
2.870000e-06	4.227532e-06	1.127545e-09	2.945850e+01	7.796227e+01
2.880000e-06	4.257341e-06	1.130158e-09	2.966622e+01	7.820480e+01
2.890000e-06	4.286861e-06	1.132834e-09	2.987193e+01	7.844207e+01
2.900000e-06	4.316062e-06	1.136237e-09	3.007540e+01	7.867429e+01
2.910000e-06	4.345013e-06	1.140806e-09	3.027714e+01	7.890163e+01
