# Temperatura_=_14.3
# Concentracion g/m^3_=_1620.0
# C_Vs_to_Am_M_A/Vsm_=_65563218390.804596
# pendiente_HvsI_1/m_=_3716.3
# ordenada_HvsI_A/m_=_1297.0
# frecuencia_Hz_=_135097.54180090246

Tiempo_(s)	Campo_(V.s)	Magnetizacion_(V.s)	Campo_(kA/m)	Magnetizacion_(A/m)
0.000000e+00	-5.523673e-06	-1.604155e-09	-3.836537e+01	-1.053567e+02
1.000000e-08	-5.523960e-06	-1.602006e-09	-3.836737e+01	-1.053706e+02
2.000000e-08	-5.524058e-06	-1.600462e-09	-3.836804e+01	-1.053811e+02
3.000000e-08	-5.523876e-06	-1.600430e-09	-3.836679e+01	-1.053879e+02
4.000000e-08	-5.523172e-06	-1.599197e-09	-3.836190e+01	-1.053907e+02
5.000000e-08	-5.521966e-06	-1.591332e-09	-3.835352e+01	-1.053892e+02
6.000000e-08	-5.520153e-06	-1.574791e-09	-3.834093e+01	-1.053832e+02
7.000000e-08	-5.517657e-06	-1.565920e-09	-3.832359e+01	-1.053723e+02
8.000000e-08	-5.514676e-06	-1.603079e-09	-3.830288e+01	-1.053561e+02
9.000000e-08	-5.511233e-06	-1.682993e-09	-3.827897e+01	-1.053346e+02
1.000000e-07	-5.507339e-06	-1.713275e-09	-3.825192e+01	-1.053073e+02
1.100000e-07	-5.503079e-06	-1.607917e-09	-3.822233e+01	-1.052742e+02
1.200000e-07	-5.498606e-06	-1.487672e-09	-3.819127e+01	-1.052348e+02
1.300000e-07	-5.493950e-06	-1.555887e-09	-3.815893e+01	-1.051891e+02
1.400000e-07	-5.488927e-06	-1.631988e-09	-3.812404e+01	-1.051368e+02
1.500000e-07	-5.483468e-06	-1.607555e-09	-3.808613e+01	-1.050779e+02
1.600000e-07	-5.477686e-06	-1.504781e-09	-3.804596e+01	-1.050121e+02
1.700000e-07	-5.471604e-06	-1.561537e-09	-3.800372e+01	-1.049395e+02
1.800000e-07	-5.464982e-06	-1.663285e-09	-3.795773e+01	-1.048598e+02
1.900000e-07	-5.457902e-06	-1.616102e-09	-3.790855e+01	-1.047731e+02
2.000000e-07	-5.450611e-06	-1.511177e-09	-3.785791e+01	-1.046793e+02
2.100000e-07	-5.443080e-06	-1.517300e-09	-3.780560e+01	-1.045785e+02
2.200000e-07	-5.435286e-06	-1.629484e-09	-3.775147e+01	-1.044707e+02
2.300000e-07	-5.427146e-06	-1.632830e-09	-3.769493e+01	-1.043559e+02
2.400000e-07	-5.418635e-06	-1.569556e-09	-3.763582e+01	-1.042342e+02
2.500000e-07	-5.409567e-06	-1.536979e-09	-3.757283e+01	-1.041058e+02
2.600000e-07	-5.399719e-06	-1.591803e-09	-3.750444e+01	-1.039707e+02
2.700000e-07	-5.389324e-06	-1.571597e-09	-3.743223e+01	-1.038290e+02
2.800000e-07	-5.378486e-06	-1.549423e-09	-3.735696e+01	-1.036811e+02
2.900000e-07	-5.367087e-06	-1.567643e-09	-3.727778e+01	-1.035269e+02
3.000000e-07	-5.355257e-06	-1.617397e-09	-3.719562e+01	-1.033668e+02
3.100000e-07	-5.343047e-06	-1.577214e-09	-3.711081e+01	-1.032008e+02
3.200000e-07	-5.330383e-06	-1.530528e-09	-3.702285e+01	-1.030292e+02
3.300000e-07	-5.317253e-06	-1.541482e-09	-3.693165e+01	-1.028522e+02
3.400000e-07	-5.303844e-06	-1.577668e-09	-3.683852e+01	-1.026700e+02
3.500000e-07	-5.290148e-06	-1.555634e-09	-3.674339e+01	-1.024828e+02
3.600000e-07	-5.275912e-06	-1.543050e-09	-3.664452e+01	-1.022907e+02
3.700000e-07	-5.261219e-06	-1.574838e-09	-3.654246e+01	-1.020939e+02
3.800000e-07	-5.246181e-06	-1.583397e-09	-3.643802e+01	-1.018926e+02
3.900000e-07	-5.230602e-06	-1.528137e-09	-3.632981e+01	-1.016871e+02
4.000000e-07	-5.214419e-06	-1.521526e-09	-3.621741e+01	-1.014773e+02
4.100000e-07	-5.197842e-06	-1.564335e-09	-3.610227e+01	-1.012635e+02
4.200000e-07	-5.180953e-06	-1.536407e-09	-3.598497e+01	-1.010457e+02
4.300000e-07	-5.163725e-06	-1.503290e-09	-3.586530e+01	-1.008240e+02
4.400000e-07	-5.146241e-06	-1.551809e-09	-3.574387e+01	-1.005986e+02
4.500000e-07	-5.128486e-06	-1.584215e-09	-3.562055e+01	-1.003694e+02
4.600000e-07	-5.110204e-06	-1.505093e-09	-3.549357e+01	-1.001365e+02
4.700000e-07	-5.091392e-06	-1.498361e-09	-3.536291e+01	-9.989990e+01
4.800000e-07	-5.072260e-06	-1.546250e-09	-3.523003e+01	-9.965955e+01
4.900000e-07	-5.052866e-06	-1.524155e-09	-3.509532e+01	-9.941543e+01
5.000000e-07	-5.033234e-06	-1.483475e-09	-3.495897e+01	-9.916749e+01
5.100000e-07	-5.013435e-06	-1.533610e-09	-3.482145e+01	-9.891564e+01
5.200000e-07	-4.993349e-06	-1.520339e-09	-3.468194e+01	-9.865978e+01
5.300000e-07	-4.972819e-06	-1.476990e-09	-3.453934e+01	-9.839980e+01
5.400000e-07	-4.951956e-06	-1.510705e-09	-3.439444e+01	-9.813557e+01
5.500000e-07	-4.930748e-06	-1.537450e-09	-3.424714e+01	-9.786694e+01
5.600000e-07	-4.909185e-06	-1.462095e-09	-3.409737e+01	-9.759377e+01
5.700000e-07	-4.887369e-06	-1.461865e-09	-3.394585e+01	-9.731587e+01
5.800000e-07	-4.865288e-06	-1.510471e-09	-3.379248e+01	-9.703309e+01
5.900000e-07	-4.842857e-06	-1.482536e-09	-3.363668e+01	-9.674525e+01
6.000000e-07	-4.819993e-06	-1.448670e-09	-3.347787e+01	-9.645216e+01
6.100000e-07	-4.796776e-06	-1.484718e-09	-3.331662e+01	-9.615365e+01
6.200000e-07	-4.773251e-06	-1.470083e-09	-3.315322e+01	-9.584955e+01
6.300000e-07	-4.749529e-06	-1.429572e-09	-3.298846e+01	-9.553969e+01
6.400000e-07	-4.725656e-06	-1.448090e-09	-3.282264e+01	-9.522389e+01
6.500000e-07	-4.701510e-06	-1.454869e-09	-3.265493e+01	-9.490202e+01
6.600000e-07	-4.676949e-06	-1.422013e-09	-3.248434e+01	-9.457394e+01
6.700000e-07	-4.651850e-06	-1.428750e-09	-3.231002e+01	-9.423951e+01
6.800000e-07	-4.626178e-06	-1.444570e-09	-3.213171e+01	-9.389863e+01
6.900000e-07	-4.599910e-06	-1.421189e-09	-3.194926e+01	-9.355121e+01
7.000000e-07	-4.573154e-06	-1.417541e-09	-3.176343e+01	-9.319717e+01
7.100000e-07	-4.545998e-06	-1.425846e-09	-3.157481e+01	-9.283647e+01
7.200000e-07	-4.518498e-06	-1.412486e-09	-3.138380e+01	-9.246907e+01
7.300000e-07	-4.490812e-06	-1.401990e-09	-3.119150e+01	-9.209497e+01
7.400000e-07	-4.463011e-06	-1.409043e-09	-3.099841e+01	-9.171418e+01
7.500000e-07	-4.435038e-06	-1.391181e-09	-3.080412e+01	-9.132673e+01
7.600000e-07	-4.406768e-06	-1.378178e-09	-3.060776e+01	-9.093268e+01
7.700000e-07	-4.378195e-06	-1.376394e-09	-3.040931e+01	-9.053211e+01
7.800000e-07	-4.349347e-06	-1.369121e-09	-3.020894e+01	-9.012513e+01
7.900000e-07	-4.320181e-06	-1.358683e-09	-3.000636e+01	-8.971184e+01
8.000000e-07	-4.290751e-06	-1.367484e-09	-2.980195e+01	-8.929239e+01
8.100000e-07	-4.261009e-06	-1.357596e-09	-2.959538e+01	-8.886693e+01
8.200000e-07	-4.230896e-06	-1.338735e-09	-2.938622e+01	-8.843563e+01
8.300000e-07	-4.200454e-06	-1.332800e-09	-2.917479e+01	-8.799867e+01
8.400000e-07	-4.169677e-06	-1.332499e-09	-2.896102e+01	-8.755625e+01
8.500000e-07	-4.138662e-06	-1.312358e-09	-2.874560e+01	-8.710856e+01
8.600000e-07	-4.107473e-06	-1.305629e-09	-2.852898e+01	-8.665582e+01
8.700000e-07	-4.076114e-06	-1.307290e-09	-2.831116e+01	-8.619823e+01
8.800000e-07	-4.044547e-06	-1.294951e-09	-2.809192e+01	-8.573602e+01
8.900000e-07	-4.012770e-06	-1.281514e-09	-2.787120e+01	-8.526938e+01
9.000000e-07	-3.980793e-06	-1.282890e-09	-2.764910e+01	-8.479853e+01
9.100000e-07	-3.948588e-06	-1.270490e-09	-2.742542e+01	-8.432366e+01
9.200000e-07	-3.916038e-06	-1.254207e-09	-2.719934e+01	-8.384498e+01
9.300000e-07	-3.883066e-06	-1.253150e-09	-2.697033e+01	-8.336267e+01
9.400000e-07	-3.849613e-06	-1.249984e-09	-2.673798e+01	-8.287688e+01
9.500000e-07	-3.815696e-06	-1.232895e-09	-2.650240e+01	-8.238778e+01
9.600000e-07	-3.781310e-06	-1.223218e-09	-2.626357e+01	-8.189550e+01
9.700000e-07	-3.746448e-06	-1.219178e-09	-2.602143e+01	-8.140016e+01
9.800000e-07	-3.711281e-06	-1.203708e-09	-2.577717e+01	-8.090185e+01
9.900000e-07	-3.675922e-06	-1.194222e-09	-2.553158e+01	-8.040066e+01
1.000000e-06	-3.640401e-06	-1.193750e-09	-2.528487e+01	-7.989663e+01
1.010000e-06	-3.604746e-06	-1.186508e-09	-2.503722e+01	-7.938979e+01
1.020000e-06	-3.569003e-06	-1.173141e-09	-2.478897e+01	-7.888016e+01
1.030000e-06	-3.533076e-06	-1.170124e-09	-2.453943e+01	-7.836771e+01
1.040000e-06	-3.496913e-06	-1.161512e-09	-2.428825e+01	-7.785241e+01
1.050000e-06	-3.460490e-06	-1.146760e-09	-2.403527e+01	-7.733420e+01
1.060000e-06	-3.423801e-06	-1.138304e-09	-2.378044e+01	-7.681298e+01
1.070000e-06	-3.386822e-06	-1.135498e-09	-2.352361e+01	-7.628866e+01
1.080000e-06	-3.349562e-06	-1.125812e-09	-2.326481e+01	-7.576110e+01
1.090000e-06	-3.312126e-06	-1.118266e-09	-2.300479e+01	-7.523017e+01
1.100000e-06	-3.274500e-06	-1.110650e-09	-2.274346e+01	-7.469569e+01
1.110000e-06	-3.236692e-06	-1.100113e-09	-2.248085e+01	-7.415750e+01
1.120000e-06	-3.198673e-06	-1.084593e-09	-2.221679e+01	-7.361539e+01
1.130000e-06	-3.160370e-06	-1.077016e-09	-2.195075e+01	-7.306917e+01
1.140000e-06	-3.121769e-06	-1.068612e-09	-2.168264e+01	-7.251862e+01
1.150000e-06	-3.082938e-06	-1.058729e-09	-2.141294e+01	-7.196353e+01
1.160000e-06	-3.043914e-06	-1.050181e-09	-2.114189e+01	-7.140366e+01
1.170000e-06	-3.004637e-06	-1.044529e-09	-2.086909e+01	-7.083879e+01
1.180000e-06	-2.965274e-06	-1.036239e-09	-2.059569e+01	-7.026869e+01
1.190000e-06	-2.925808e-06	-1.028648e-09	-2.032157e+01	-6.969313e+01
1.200000e-06	-2.886126e-06	-1.019971e-09	-2.004595e+01	-6.911188e+01
1.210000e-06	-2.846349e-06	-1.009701e-09	-1.976968e+01	-6.852473e+01
1.220000e-06	-2.806482e-06	-1.000827e-09	-1.949278e+01	-6.793145e+01
1.230000e-06	-2.766462e-06	-9.918487e-10	-1.921481e+01	-6.733185e+01
1.240000e-06	-2.726242e-06	-9.806579e-10	-1.893546e+01	-6.672573e+01
1.250000e-06	-2.685845e-06	-9.673802e-10	-1.865488e+01	-6.611290e+01
1.260000e-06	-2.645223e-06	-9.565993e-10	-1.837273e+01	-6.549318e+01
1.270000e-06	-2.604267e-06	-9.447748e-10	-1.808826e+01	-6.486643e+01
1.280000e-06	-2.563023e-06	-9.330881e-10	-1.780180e+01	-6.423248e+01
1.290000e-06	-2.521507e-06	-9.247410e-10	-1.751344e+01	-6.359120e+01
1.300000e-06	-2.479768e-06	-9.160913e-10	-1.722355e+01	-6.294246e+01
1.310000e-06	-2.437688e-06	-9.052340e-10	-1.693127e+01	-6.228616e+01
1.320000e-06	-2.395174e-06	-8.954230e-10	-1.663599e+01	-6.162219e+01
1.330000e-06	-2.352424e-06	-8.836521e-10	-1.633906e+01	-6.095046e+01
1.340000e-06	-2.309444e-06	-8.718354e-10	-1.604054e+01	-6.027089e+01
1.350000e-06	-2.266229e-06	-8.599036e-10	-1.574038e+01	-5.958341e+01
1.360000e-06	-2.222906e-06	-8.496369e-10	-1.543948e+01	-5.888794e+01
1.370000e-06	-2.179490e-06	-8.399586e-10	-1.513793e+01	-5.818442e+01
1.380000e-06	-2.135951e-06	-8.343718e-10	-1.483552e+01	-5.747280e+01
1.390000e-06	-2.092297e-06	-8.271185e-10	-1.453231e+01	-5.675300e+01
1.400000e-06	-2.048562e-06	-8.170159e-10	-1.422855e+01	-5.602496e+01
1.410000e-06	-2.004763e-06	-8.067166e-10	-1.392434e+01	-5.528863e+01
1.420000e-06	-1.960887e-06	-7.960451e-10	-1.361959e+01	-5.454391e+01
1.430000e-06	-1.916928e-06	-7.835667e-10	-1.331427e+01	-5.379073e+01
1.440000e-06	-1.872852e-06	-7.707031e-10	-1.300813e+01	-5.302899e+01
1.450000e-06	-1.828610e-06	-7.569403e-10	-1.270084e+01	-5.225858e+01
1.460000e-06	-1.784184e-06	-7.427617e-10	-1.239227e+01	-5.147937e+01
1.470000e-06	-1.739735e-06	-7.292966e-10	-1.208355e+01	-5.069123e+01
1.480000e-06	-1.695229e-06	-7.179203e-10	-1.177443e+01	-4.989399e+01
1.490000e-06	-1.650562e-06	-7.064623e-10	-1.146419e+01	-4.908747e+01
1.500000e-06	-1.605836e-06	-6.955091e-10	-1.115354e+01	-4.827147e+01
1.510000e-06	-1.561030e-06	-6.842358e-10	-1.084233e+01	-4.744575e+01
1.520000e-06	-1.515958e-06	-6.695569e-10	-1.052928e+01	-4.661008e+01
1.530000e-06	-1.470654e-06	-6.516644e-10	-1.021462e+01	-4.576416e+01
1.540000e-06	-1.425277e-06	-6.332866e-10	-9.899445e+00	-4.490771e+01
1.550000e-06	-1.379855e-06	-6.148739e-10	-9.583956e+00	-4.404040e+01
1.560000e-06	-1.334334e-06	-6.003972e-10	-9.267784e+00	-4.316189e+01
1.570000e-06	-1.288713e-06	-5.881722e-10	-8.950923e+00	-4.227181e+01
1.580000e-06	-1.243107e-06	-5.764220e-10	-8.634157e+00	-4.136977e+01
1.590000e-06	-1.197398e-06	-5.652074e-10	-8.316683e+00	-4.045537e+01
1.600000e-06	-1.151544e-06	-5.513393e-10	-7.998193e+00	-3.952820e+01
1.610000e-06	-1.105650e-06	-5.350256e-10	-7.679431e+00	-3.858781e+01
1.620000e-06	-1.059710e-06	-5.195939e-10	-7.360348e+00	-3.763377e+01
1.630000e-06	-1.013637e-06	-5.078037e-10	-7.040342e+00	-3.666562e+01
1.640000e-06	-9.674620e-07	-4.968960e-10	-6.719630e+00	-3.568292e+01
1.650000e-06	-9.212863e-07	-4.838873e-10	-6.398911e+00	-3.468521e+01
1.660000e-06	-8.750027e-07	-4.670037e-10	-6.077442e+00	-3.367205e+01
1.670000e-06	-8.286081e-07	-4.480127e-10	-5.755203e+00	-3.264300e+01
1.680000e-06	-7.822563e-07	-4.260869e-10	-5.433261e+00	-3.159764e+01
1.690000e-06	-7.358466e-07	-4.072367e-10	-5.110916e+00	-3.053558e+01
1.700000e-06	-6.893046e-07	-3.920985e-10	-4.787653e+00	-2.945642e+01
1.710000e-06	-6.427316e-07	-3.787717e-10	-4.464174e+00	-2.835984e+01
1.720000e-06	-5.961370e-07	-3.648388e-10	-4.140546e+00	-2.724550e+01
1.730000e-06	-5.495094e-07	-3.484327e-10	-3.816687e+00	-2.611314e+01
1.740000e-06	-5.028331e-07	-3.277434e-10	-3.492491e+00	-2.496251e+01
1.750000e-06	-4.561063e-07	-3.052293e-10	-3.167944e+00	-2.379345e+01
1.760000e-06	-4.093609e-07	-2.848491e-10	-2.843268e+00	-2.260581e+01
1.770000e-06	-3.625733e-07	-2.683132e-10	-2.518299e+00	-2.139952e+01
1.780000e-06	-3.156938e-07	-2.544875e-10	-2.192691e+00	-2.017456e+01
1.790000e-06	-2.688403e-07	-2.402693e-10	-1.867265e+00	-1.893098e+01
1.800000e-06	-2.220185e-07	-2.240564e-10	-1.542058e+00	-1.766890e+01
1.810000e-06	-1.751026e-07	-2.054056e-10	-1.216197e+00	-1.638849e+01
1.820000e-06	-1.281713e-07	-1.870912e-10	-8.902298e-01	-1.509000e+01
1.830000e-06	-8.127436e-08	-1.714580e-10	-5.645014e-01	-1.377378e+01
1.840000e-06	-3.442296e-08	-1.554761e-10	-2.390890e-01	-1.244021e+01
1.850000e-06	1.241745e-08	-1.375511e-10	8.624697e-02	-1.108977e+01
1.860000e-06	5.927736e-08	-1.183787e-10	4.117184e-01	-9.723018e+00
1.870000e-06	1.061646e-07	-9.938567e-11	7.373797e-01	-8.340567e+00
1.880000e-06	1.530765e-07	-8.042601e-11	1.063212e+00	-6.943117e+00
1.890000e-06	1.999829e-07	-5.951059e-11	1.389007e+00	-5.531438e+00
1.900000e-06	2.468567e-07	-3.754944e-11	1.714574e+00	-4.106365e+00
1.910000e-06	2.937336e-07	-1.596234e-11	2.040164e+00	-2.668802e+00
1.920000e-06	3.405704e-07	4.264058e-12	2.365475e+00	-1.219716e+00
1.930000e-06	3.873541e-07	2.314688e-11	2.690417e+00	2.398680e-01
1.940000e-06	4.341346e-07	4.370040e-11	3.015337e+00	1.708868e+00
1.950000e-06	4.809185e-07	6.529075e-11	3.340281e+00	3.186154e+00
1.960000e-06	5.277315e-07	8.580045e-11	3.665426e+00	4.670548e+00
1.970000e-06	5.744916e-07	1.075160e-10	3.990205e+00	6.160837e+00
1.980000e-06	6.211180e-07	1.290896e-10	4.314054e+00	7.655770e+00
1.990000e-06	6.675899e-07	1.515377e-10	4.636831e+00	9.154069e+00
2.000000e-06	7.140099e-07	1.738740e-10	4.959246e+00	1.065444e+01
2.010000e-06	7.604457e-07	1.950133e-10	5.281772e+00	1.215556e+01
2.020000e-06	8.068897e-07	2.174815e-10	5.604355e+00	1.365612e+01
2.030000e-06	8.533130e-07	2.402355e-10	5.926794e+00	1.515479e+01
2.040000e-06	8.996153e-07	2.616337e-10	6.248392e+00	1.665026e+01
2.050000e-06	9.458549e-07	2.821537e-10	6.569556e+00	1.814122e+01
2.060000e-06	9.920835e-07	3.006257e-10	6.890642e+00	1.962638e+01
2.070000e-06	1.038197e-06	3.195184e-10	7.210927e+00	2.110448e+01
2.080000e-06	1.084165e-06	3.426394e-10	7.530202e+00	2.257430e+01
2.090000e-06	1.130029e-06	3.684031e-10	7.848762e+00	2.403464e+01
2.100000e-06	1.175808e-06	3.928031e-10	8.166721e+00	2.548435e+01
2.110000e-06	1.221486e-06	4.141867e-10	8.483983e+00	2.692233e+01
2.120000e-06	1.267054e-06	4.312827e-10	8.800486e+00	2.834754e+01
2.130000e-06	1.312533e-06	4.466713e-10	9.116365e+00	2.975897e+01
2.140000e-06	1.358021e-06	4.628759e-10	9.432305e+00	3.115571e+01
2.150000e-06	1.403478e-06	4.824193e-10	9.748036e+00	3.253688e+01
2.160000e-06	1.448799e-06	5.044779e-10	1.006282e+01	3.390170e+01
2.170000e-06	1.494042e-06	5.252445e-10	1.037706e+01	3.524943e+01
2.180000e-06	1.539152e-06	5.455959e-10	1.069037e+01	3.657942e+01
2.190000e-06	1.584027e-06	5.662369e-10	1.100206e+01	3.789110e+01
2.200000e-06	1.628735e-06	5.830769e-10	1.131258e+01	3.918395e+01
2.210000e-06	1.673380e-06	5.955587e-10	1.162267e+01	4.045754e+01
2.220000e-06	1.717931e-06	6.074862e-10	1.193211e+01	4.171152e+01
2.230000e-06	1.762269e-06	6.230245e-10	1.224006e+01	4.294560e+01
2.240000e-06	1.806484e-06	6.409121e-10	1.254716e+01	4.415956e+01
2.250000e-06	1.850635e-06	6.581244e-10	1.285382e+01	4.535328e+01
2.260000e-06	1.894638e-06	6.738816e-10	1.315945e+01	4.652666e+01
2.270000e-06	1.938514e-06	6.896952e-10	1.346420e+01	4.767970e+01
2.280000e-06	1.982324e-06	7.097098e-10	1.376848e+01	4.881244e+01
2.290000e-06	2.026100e-06	7.278804e-10	1.407254e+01	4.992500e+01
2.300000e-06	2.069839e-06	7.451846e-10	1.437633e+01	5.101753e+01
2.310000e-06	2.113505e-06	7.604197e-10	1.467962e+01	5.209026e+01
2.320000e-06	2.157098e-06	7.739817e-10	1.498240e+01	5.314342e+01
2.330000e-06	2.200629e-06	7.874073e-10	1.528475e+01	5.417732e+01
2.340000e-06	2.244032e-06	8.002019e-10	1.558621e+01	5.519229e+01
2.350000e-06	2.287252e-06	8.152652e-10	1.588640e+01	5.618870e+01
2.360000e-06	2.330203e-06	8.342718e-10	1.618472e+01	5.716694e+01
2.370000e-06	2.372919e-06	8.533572e-10	1.648141e+01	5.812740e+01
2.380000e-06	2.415483e-06	8.672420e-10	1.677704e+01	5.907054e+01
2.390000e-06	2.457828e-06	8.778015e-10	1.707115e+01	5.999677e+01
2.400000e-06	2.499789e-06	8.890225e-10	1.736260e+01	6.090656e+01
2.410000e-06	2.541368e-06	8.991489e-10	1.765140e+01	6.180036e+01
2.420000e-06	2.582687e-06	9.095508e-10	1.793838e+01	6.267861e+01
2.430000e-06	2.623675e-06	9.246433e-10	1.822307e+01	6.354176e+01
2.440000e-06	2.664340e-06	9.414333e-10	1.850551e+01	6.439025e+01
2.450000e-06	2.704784e-06	9.568768e-10	1.878642e+01	6.522451e+01
2.460000e-06	2.745034e-06	9.698580e-10	1.906598e+01	6.604496e+01
2.470000e-06	2.785149e-06	9.821575e-10	1.934461e+01	6.685198e+01
2.480000e-06	2.825134e-06	9.932569e-10	1.962233e+01	6.764596e+01
2.490000e-06	2.864996e-06	1.003741e-09	1.989919e+01	6.842726e+01
2.500000e-06	2.904714e-06	1.015132e-09	2.017506e+01	6.919622e+01
2.510000e-06	2.944289e-06	1.027206e-09	2.044993e+01	6.995315e+01
2.520000e-06	2.983744e-06	1.039431e-09	2.072398e+01	7.069835e+01
2.530000e-06	3.023039e-06	1.050612e-09	2.099690e+01	7.143207e+01
2.540000e-06	3.062087e-06	1.058367e-09	2.126811e+01	7.215458e+01
2.550000e-06	3.100817e-06	1.065103e-09	2.153712e+01	7.286609e+01
2.560000e-06	3.139368e-06	1.073735e-09	2.180488e+01	7.356681e+01
2.570000e-06	3.177721e-06	1.085499e-09	2.207127e+01	7.425692e+01
2.580000e-06	3.215814e-06	1.097286e-09	2.233585e+01	7.493657e+01
2.590000e-06	3.253706e-06	1.108067e-09	2.259903e+01	7.560591e+01
2.600000e-06	3.291424e-06	1.118769e-09	2.286101e+01	7.626507e+01
2.610000e-06	3.328920e-06	1.128223e-09	2.312144e+01	7.691416e+01
2.620000e-06	3.366143e-06	1.134536e-09	2.337997e+01	7.755328e+01
2.630000e-06	3.403113e-06	1.139969e-09	2.363675e+01	7.818252e+01
2.640000e-06	3.439885e-06	1.148424e-09	2.389216e+01	7.880197e+01
2.650000e-06	3.476361e-06	1.158460e-09	2.414551e+01	7.941169e+01
2.660000e-06	3.512506e-06	1.168743e-09	2.439656e+01	8.001176e+01
2.670000e-06	3.548463e-06	1.177270e-09	2.464630e+01	8.060225e+01
2.680000e-06	3.584279e-06	1.183359e-09	2.489506e+01	8.118323e+01
2.690000e-06	3.620010e-06	1.190624e-09	2.514324e+01	8.175477e+01
2.700000e-06	3.655634e-06	1.199755e-09	2.539067e+01	8.231695e+01
2.710000e-06	3.691092e-06	1.208903e-09	2.563695e+01	8.286985e+01
2.720000e-06	3.726315e-06	1.216323e-09	2.588159e+01	8.341355e+01
2.730000e-06	3.761314e-06	1.222950e-09	2.612469e+01	8.394815e+01
2.740000e-06	3.796028e-06	1.229338e-09	2.636579e+01	8.447375e+01
2.750000e-06	3.830286e-06	1.237266e-09	2.660374e+01	8.499048e+01
2.760000e-06	3.863985e-06	1.245956e-09	2.683780e+01	8.549845e+01
2.770000e-06	3.897091e-06	1.255421e-09	2.706774e+01	8.599779e+01
2.780000e-06	3.929774e-06	1.265875e-09	2.729475e+01	8.648865e+01
2.790000e-06	3.962195e-06	1.274713e-09	2.751993e+01	8.697119e+01
2.800000e-06	3.994356e-06	1.283001e-09	2.774330e+01	8.744556e+01
2.810000e-06	4.026274e-06	1.289614e-09	2.796500e+01	8.791194e+01
2.820000e-06	4.058044e-06	1.296932e-09	2.818566e+01	8.837051e+01
2.830000e-06	4.089651e-06	1.305280e-09	2.840519e+01	8.882144e+01
2.840000e-06	4.121014e-06	1.311781e-09	2.862303e+01	8.926494e+01
2.850000e-06	4.152064e-06	1.319182e-09	2.883869e+01	8.970119e+01
2.860000e-06	4.182888e-06	1.327661e-09	2.905278e+01	9.013039e+01
2.870000e-06	4.213476e-06	1.334227e-09	2.926523e+01	9.055273e+01
2.880000e-06	4.243678e-06	1.339570e-09	2.947500e+01	9.096841e+01
2.890000e-06	4.273558e-06	1.344328e-09	2.968254e+01	9.137761e+01
2.900000e-06	4.303252e-06	1.350856e-09	2.988879e+01	9.178052e+01
