# Temperatura_=_-1.52
# Concentracion g/m^3_=_1620.0
# C_Vs_to_Am_M_A/Vsm_=_65563218390.804596
# pendiente_HvsI_1/m_=_3716.3
# ordenada_HvsI_A/m_=_1297.0
# frecuencia_Hz_=_135105.71289250016

Tiempo_(s)	Campo_(V.s)	Magnetizacion_(V.s)	Campo_(kA/m)	Magnetizacion_(A/m)
0.000000e+00	-5.509284e-06	-8.973947e-10	-3.836941e+01	-6.083751e+01
1.000000e-08	-5.509549e-06	-8.960166e-10	-3.837126e+01	-6.078998e+01
2.000000e-08	-5.509588e-06	-8.972120e-10	-3.837153e+01	-6.074542e+01
3.000000e-08	-5.509306e-06	-9.001023e-10	-3.836957e+01	-6.070370e+01
4.000000e-08	-5.508564e-06	-9.001768e-10	-3.836440e+01	-6.066468e+01
5.000000e-08	-5.507215e-06	-8.904397e-10	-3.835501e+01	-6.062818e+01
6.000000e-08	-5.505211e-06	-8.737178e-10	-3.834105e+01	-6.059401e+01
7.000000e-08	-5.502704e-06	-8.812992e-10	-3.832359e+01	-6.056196e+01
8.000000e-08	-5.499683e-06	-9.316753e-10	-3.830255e+01	-6.053178e+01
9.000000e-08	-5.496136e-06	-9.637871e-10	-3.827784e+01	-6.050322e+01
1.000000e-07	-5.492186e-06	-9.422231e-10	-3.825034e+01	-6.047601e+01
1.100000e-07	-5.487905e-06	-9.271559e-10	-3.822052e+01	-6.044986e+01
1.200000e-07	-5.483369e-06	-8.843313e-10	-3.818893e+01	-6.042447e+01
1.300000e-07	-5.478518e-06	-8.584021e-10	-3.815515e+01	-6.039953e+01
1.400000e-07	-5.473379e-06	-8.723387e-10	-3.811935e+01	-6.037473e+01
1.500000e-07	-5.467920e-06	-8.978560e-10	-3.808134e+01	-6.034974e+01
1.600000e-07	-5.462084e-06	-9.088899e-10	-3.804069e+01	-6.032424e+01
1.700000e-07	-5.455870e-06	-8.681460e-10	-3.799741e+01	-6.029792e+01
1.800000e-07	-5.449179e-06	-9.091486e-10	-3.795081e+01	-6.027044e+01
1.900000e-07	-5.442022e-06	-9.261436e-10	-3.790097e+01	-6.024149e+01
2.000000e-07	-5.434563e-06	-9.108436e-10	-3.784902e+01	-6.021077e+01
2.100000e-07	-5.426917e-06	-8.674472e-10	-3.779577e+01	-6.017799e+01
2.200000e-07	-5.419089e-06	-9.029106e-10	-3.774125e+01	-6.014284e+01
2.300000e-07	-5.410942e-06	-9.380088e-10	-3.768451e+01	-6.010508e+01
2.400000e-07	-5.402287e-06	-9.345172e-10	-3.762423e+01	-6.006443e+01
2.500000e-07	-5.393076e-06	-9.010670e-10	-3.756008e+01	-6.002066e+01
2.600000e-07	-5.383185e-06	-8.960872e-10	-3.749120e+01	-5.997355e+01
2.700000e-07	-5.372650e-06	-8.996350e-10	-3.741783e+01	-5.992290e+01
2.800000e-07	-5.361619e-06	-8.939197e-10	-3.734100e+01	-5.986854e+01
2.900000e-07	-5.350197e-06	-8.958292e-10	-3.726145e+01	-5.981032e+01
3.000000e-07	-5.338410e-06	-8.886088e-10	-3.717936e+01	-5.974809e+01
3.100000e-07	-5.326193e-06	-8.874379e-10	-3.709428e+01	-5.968176e+01
3.200000e-07	-5.313602e-06	-8.822204e-10	-3.700659e+01	-5.961123e+01
3.300000e-07	-5.300592e-06	-8.943335e-10	-3.691598e+01	-5.953646e+01
3.400000e-07	-5.287149e-06	-8.768266e-10	-3.682235e+01	-5.945739e+01
3.500000e-07	-5.273279e-06	-8.936207e-10	-3.672576e+01	-5.937403e+01
3.600000e-07	-5.259031e-06	-9.078174e-10	-3.662653e+01	-5.928638e+01
3.700000e-07	-5.244289e-06	-8.937497e-10	-3.652386e+01	-5.919447e+01
3.800000e-07	-5.228987e-06	-8.644566e-10	-3.641729e+01	-5.909836e+01
3.900000e-07	-5.213300e-06	-8.998933e-10	-3.630803e+01	-5.899812e+01
4.000000e-07	-5.197174e-06	-8.941200e-10	-3.619573e+01	-5.889385e+01
4.100000e-07	-5.180639e-06	-8.561262e-10	-3.608056e+01	-5.878565e+01
4.200000e-07	-5.163770e-06	-8.742727e-10	-3.596308e+01	-5.867365e+01
4.300000e-07	-5.146583e-06	-9.182520e-10	-3.584338e+01	-5.855800e+01
4.400000e-07	-5.129092e-06	-8.719999e-10	-3.572157e+01	-5.843884e+01
4.500000e-07	-5.111269e-06	-8.676785e-10	-3.559744e+01	-5.831633e+01
4.600000e-07	-5.093069e-06	-9.199111e-10	-3.547069e+01	-5.819066e+01
4.700000e-07	-5.074420e-06	-8.956310e-10	-3.534080e+01	-5.806201e+01
4.800000e-07	-5.055311e-06	-8.419337e-10	-3.520772e+01	-5.793054e+01
4.900000e-07	-5.035861e-06	-8.968455e-10	-3.507226e+01	-5.779646e+01
5.000000e-07	-5.016243e-06	-9.114845e-10	-3.493563e+01	-5.765995e+01
5.100000e-07	-4.996450e-06	-8.450938e-10	-3.479778e+01	-5.752120e+01
5.200000e-07	-4.976406e-06	-8.625990e-10	-3.465818e+01	-5.738039e+01
5.300000e-07	-4.956088e-06	-9.134286e-10	-3.451668e+01	-5.723770e+01
5.400000e-07	-4.935416e-06	-8.650352e-10	-3.437271e+01	-5.709331e+01
5.500000e-07	-4.914371e-06	-8.527765e-10	-3.422614e+01	-5.694739e+01
5.600000e-07	-4.892958e-06	-9.066651e-10	-3.407701e+01	-5.680008e+01
5.700000e-07	-4.871174e-06	-8.731820e-10	-3.392530e+01	-5.665154e+01
5.800000e-07	-4.849009e-06	-8.325206e-10	-3.377093e+01	-5.650190e+01
5.900000e-07	-4.826446e-06	-8.805101e-10	-3.361379e+01	-5.635128e+01
6.000000e-07	-4.803555e-06	-8.830173e-10	-3.345436e+01	-5.619979e+01
6.100000e-07	-4.780364e-06	-8.287503e-10	-3.329285e+01	-5.604752e+01
6.200000e-07	-4.756867e-06	-8.539783e-10	-3.312920e+01	-5.589454e+01
6.300000e-07	-4.733161e-06	-8.735583e-10	-3.296411e+01	-5.574092e+01
6.400000e-07	-4.709330e-06	-8.365504e-10	-3.279813e+01	-5.558669e+01
6.500000e-07	-4.685224e-06	-8.396447e-10	-3.263025e+01	-5.543190e+01
6.600000e-07	-4.660619e-06	-8.704619e-10	-3.245889e+01	-5.527654e+01
6.700000e-07	-4.635507e-06	-8.430381e-10	-3.228399e+01	-5.512061e+01
6.800000e-07	-4.609869e-06	-8.359758e-10	-3.210544e+01	-5.496409e+01
6.900000e-07	-4.583696e-06	-8.556220e-10	-3.192315e+01	-5.480694e+01
7.000000e-07	-4.557018e-06	-8.416698e-10	-3.173736e+01	-5.464911e+01
7.100000e-07	-4.529868e-06	-8.190339e-10	-3.154827e+01	-5.449052e+01
7.200000e-07	-4.502432e-06	-8.357189e-10	-3.135719e+01	-5.433111e+01
7.300000e-07	-4.474826e-06	-8.309635e-10	-3.116493e+01	-5.417077e+01
7.400000e-07	-4.447057e-06	-8.156152e-10	-3.097153e+01	-5.400940e+01
7.500000e-07	-4.419104e-06	-8.232947e-10	-3.077685e+01	-5.384687e+01
7.600000e-07	-4.390892e-06	-8.296978e-10	-3.058037e+01	-5.368307e+01
7.700000e-07	-4.362369e-06	-8.136418e-10	-3.038173e+01	-5.351786e+01
7.800000e-07	-4.333530e-06	-8.128343e-10	-3.018087e+01	-5.335109e+01
7.900000e-07	-4.304315e-06	-8.154796e-10	-2.997741e+01	-5.318262e+01
8.000000e-07	-4.274735e-06	-8.024154e-10	-2.977139e+01	-5.301229e+01
8.100000e-07	-4.244939e-06	-7.926585e-10	-2.956388e+01	-5.283995e+01
8.200000e-07	-4.214929e-06	-7.953069e-10	-2.935488e+01	-5.266543e+01
8.300000e-07	-4.184643e-06	-7.889522e-10	-2.914395e+01	-5.248859e+01
8.400000e-07	-4.154088e-06	-7.837583e-10	-2.893115e+01	-5.230925e+01
8.500000e-07	-4.123218e-06	-7.883014e-10	-2.871616e+01	-5.212726e+01
8.600000e-07	-4.092028e-06	-7.858987e-10	-2.849894e+01	-5.194248e+01
8.700000e-07	-4.060590e-06	-7.759138e-10	-2.827998e+01	-5.175473e+01
8.800000e-07	-4.028967e-06	-7.725202e-10	-2.805974e+01	-5.156389e+01
8.900000e-07	-3.997206e-06	-7.711638e-10	-2.783854e+01	-5.136980e+01
9.000000e-07	-3.965305e-06	-7.573280e-10	-2.761637e+01	-5.117235e+01
9.100000e-07	-3.933212e-06	-7.502495e-10	-2.739286e+01	-5.097139e+01
9.200000e-07	-3.900740e-06	-7.482388e-10	-2.716671e+01	-5.076681e+01
9.300000e-07	-3.867787e-06	-7.442428e-10	-2.693721e+01	-5.055851e+01
9.400000e-07	-3.834402e-06	-7.431068e-10	-2.670470e+01	-5.034637e+01
9.500000e-07	-3.800551e-06	-7.504561e-10	-2.646894e+01	-5.013032e+01
9.600000e-07	-3.766202e-06	-7.462254e-10	-2.622972e+01	-4.991027e+01
9.700000e-07	-3.731488e-06	-7.362728e-10	-2.598796e+01	-4.968615e+01
9.800000e-07	-3.696486e-06	-7.310561e-10	-2.574418e+01	-4.945790e+01
9.900000e-07	-3.661193e-06	-7.281297e-10	-2.549838e+01	-4.922546e+01
1.000000e-06	-3.625687e-06	-7.173781e-10	-2.525110e+01	-4.898880e+01
1.010000e-06	-3.590025e-06	-7.138699e-10	-2.500273e+01	-4.874788e+01
1.020000e-06	-3.554239e-06	-7.153718e-10	-2.475350e+01	-4.850269e+01
1.030000e-06	-3.518349e-06	-7.136596e-10	-2.450355e+01	-4.825320e+01
1.040000e-06	-3.482222e-06	-7.078497e-10	-2.425194e+01	-4.799942e+01
1.050000e-06	-3.445854e-06	-7.062186e-10	-2.399865e+01	-4.774135e+01
1.060000e-06	-3.409287e-06	-6.998080e-10	-2.374398e+01	-4.747899e+01
1.070000e-06	-3.372394e-06	-6.911881e-10	-2.348704e+01	-4.721237e+01
1.080000e-06	-3.335201e-06	-6.864851e-10	-2.322801e+01	-4.694151e+01
1.090000e-06	-3.297771e-06	-6.838810e-10	-2.296733e+01	-4.666643e+01
1.100000e-06	-3.260156e-06	-6.775805e-10	-2.270536e+01	-4.638717e+01
1.110000e-06	-3.222304e-06	-6.715280e-10	-2.244174e+01	-4.610377e+01
1.120000e-06	-3.184157e-06	-6.665867e-10	-2.217606e+01	-4.581625e+01
1.130000e-06	-3.145793e-06	-6.591245e-10	-2.190888e+01	-4.552467e+01
1.140000e-06	-3.107268e-06	-6.526129e-10	-2.164057e+01	-4.522906e+01
1.150000e-06	-3.068561e-06	-6.489109e-10	-2.137100e+01	-4.492947e+01
1.160000e-06	-3.029619e-06	-6.441413e-10	-2.109978e+01	-4.462593e+01
1.170000e-06	-2.990528e-06	-6.383791e-10	-2.082754e+01	-4.431847e+01
1.180000e-06	-2.951297e-06	-6.365256e-10	-2.055431e+01	-4.400715e+01
1.190000e-06	-2.911861e-06	-6.347406e-10	-2.027966e+01	-4.369197e+01
1.200000e-06	-2.872268e-06	-6.302032e-10	-2.000392e+01	-4.337298e+01
1.210000e-06	-2.832575e-06	-6.233361e-10	-1.972747e+01	-4.305018e+01
1.220000e-06	-2.792758e-06	-6.175081e-10	-1.945016e+01	-4.272360e+01
1.230000e-06	-2.752760e-06	-6.107013e-10	-1.917160e+01	-4.239324e+01
1.240000e-06	-2.712635e-06	-6.058695e-10	-1.889215e+01	-4.205909e+01
1.250000e-06	-2.672328e-06	-6.016069e-10	-1.861143e+01	-4.172114e+01
1.260000e-06	-2.631698e-06	-5.970465e-10	-1.832846e+01	-4.137938e+01
1.270000e-06	-2.590839e-06	-5.904855e-10	-1.804390e+01	-4.103377e+01
1.280000e-06	-2.549792e-06	-5.849271e-10	-1.775803e+01	-4.068427e+01
1.290000e-06	-2.508458e-06	-5.804471e-10	-1.747016e+01	-4.033082e+01
1.300000e-06	-2.466745e-06	-5.743984e-10	-1.717965e+01	-3.997336e+01
1.310000e-06	-2.424733e-06	-5.659515e-10	-1.688705e+01	-3.961181e+01
1.320000e-06	-2.382502e-06	-5.590733e-10	-1.659294e+01	-3.924608e+01
1.330000e-06	-2.339991e-06	-5.515810e-10	-1.629687e+01	-3.887606e+01
1.340000e-06	-2.297320e-06	-5.455733e-10	-1.599969e+01	-3.850162e+01
1.350000e-06	-2.254395e-06	-5.415251e-10	-1.570074e+01	-3.812265e+01
1.360000e-06	-2.211192e-06	-5.385649e-10	-1.539985e+01	-3.773898e+01
1.370000e-06	-2.167807e-06	-5.348138e-10	-1.509770e+01	-3.735046e+01
1.380000e-06	-2.124273e-06	-5.328429e-10	-1.479450e+01	-3.695691e+01
1.390000e-06	-2.080664e-06	-5.293821e-10	-1.449078e+01	-3.655814e+01
1.400000e-06	-2.036952e-06	-5.204575e-10	-1.418636e+01	-3.615394e+01
1.410000e-06	-1.993157e-06	-5.082444e-10	-1.388134e+01	-3.574410e+01
1.420000e-06	-1.949339e-06	-4.977117e-10	-1.357618e+01	-3.532837e+01
1.430000e-06	-1.905450e-06	-4.906534e-10	-1.327051e+01	-3.490652e+01
1.440000e-06	-1.861471e-06	-4.870948e-10	-1.296422e+01	-3.447828e+01
1.450000e-06	-1.817404e-06	-4.846387e-10	-1.265731e+01	-3.404337e+01
1.460000e-06	-1.773201e-06	-4.803242e-10	-1.234946e+01	-3.360152e+01
1.470000e-06	-1.728890e-06	-4.715507e-10	-1.204086e+01	-3.315242e+01
1.480000e-06	-1.684383e-06	-4.587159e-10	-1.173088e+01	-3.269576e+01
1.490000e-06	-1.639693e-06	-4.461454e-10	-1.141964e+01	-3.223123e+01
1.500000e-06	-1.594929e-06	-4.350236e-10	-1.110789e+01	-3.175850e+01
1.510000e-06	-1.550063e-06	-4.284861e-10	-1.079541e+01	-3.127723e+01
1.520000e-06	-1.505044e-06	-4.247185e-10	-1.048188e+01	-3.078708e+01
1.530000e-06	-1.459901e-06	-4.194543e-10	-1.016748e+01	-3.028770e+01
1.540000e-06	-1.414652e-06	-4.105487e-10	-9.852343e+00	-2.977874e+01
1.550000e-06	-1.369349e-06	-4.008967e-10	-9.536830e+00	-2.925984e+01
1.560000e-06	-1.323962e-06	-3.916095e-10	-9.220737e+00	-2.873064e+01
1.570000e-06	-1.278472e-06	-3.829386e-10	-8.903917e+00	-2.819079e+01
1.580000e-06	-1.232916e-06	-3.736281e-10	-8.586642e+00	-2.763993e+01
1.590000e-06	-1.187274e-06	-3.660726e-10	-8.268769e+00	-2.707770e+01
1.600000e-06	-1.141580e-06	-3.599618e-10	-7.950536e+00	-2.650376e+01
1.610000e-06	-1.095781e-06	-3.525807e-10	-7.631566e+00	-2.591776e+01
1.620000e-06	-1.049839e-06	-3.421874e-10	-7.311604e+00	-2.531938e+01
1.630000e-06	-1.003875e-06	-3.321304e-10	-6.991486e+00	-2.470828e+01
1.640000e-06	-9.579288e-07	-3.261103e-10	-6.671496e+00	-2.408415e+01
1.650000e-06	-9.119120e-07	-3.205846e-10	-6.351012e+00	-2.344671e+01
1.660000e-06	-8.657612e-07	-3.111544e-10	-6.029594e+00	-2.279566e+01
1.670000e-06	-8.195007e-07	-2.992198e-10	-5.707413e+00	-2.213076e+01
1.680000e-06	-7.730854e-07	-2.868785e-10	-5.384154e+00	-2.145175e+01
1.690000e-06	-7.265836e-07	-2.755965e-10	-5.060292e+00	-2.075843e+01
1.700000e-06	-6.801647e-07	-2.660459e-10	-4.737008e+00	-2.005058e+01
1.710000e-06	-6.337762e-07	-2.582771e-10	-4.413935e+00	-1.932806e+01
1.720000e-06	-5.873300e-07	-2.495731e-10	-4.090460e+00	-1.859071e+01
1.730000e-06	-5.407934e-07	-2.369830e-10	-3.766356e+00	-1.783843e+01
1.740000e-06	-4.941295e-07	-2.210160e-10	-3.441366e+00	-1.707113e+01
1.750000e-06	-4.473924e-07	-2.061883e-10	-3.115865e+00	-1.628879e+01
1.760000e-06	-4.007320e-07	-1.943271e-10	-2.790898e+00	-1.549137e+01
1.770000e-06	-3.540780e-07	-1.840093e-10	-2.465976e+00	-1.467892e+01
1.780000e-06	-3.074192e-07	-1.747537e-10	-2.141021e+00	-1.385149e+01
1.790000e-06	-2.607549e-07	-1.639615e-10	-1.816028e+00	-1.300918e+01
1.800000e-06	-2.139410e-07	-1.498968e-10	-1.489992e+00	-1.215214e+01
1.810000e-06	-1.670720e-07	-1.344078e-10	-1.163573e+00	-1.128055e+01
1.820000e-06	-1.202918e-07	-1.195894e-10	-8.377724e-01	-1.039464e+01
1.830000e-06	-7.353159e-08	-1.070327e-10	-5.121109e-01	-9.494653e+00
1.840000e-06	-2.670237e-08	-9.841904e-11	-1.859687e-01	-8.580911e+00
1.850000e-06	2.010289e-08	-8.974912e-11	1.400066e-01	-7.653758e+00
1.860000e-06	6.686307e-08	-7.804009e-11	4.656679e-01	-6.713581e+00
1.870000e-06	1.135949e-07	-6.621153e-11	7.911319e-01	-5.760811e+00
1.880000e-06	1.602685e-07	-5.418590e-11	1.116190e+00	-4.795916e+00
1.890000e-06	2.069617e-07	-3.890529e-11	1.441385e+00	-3.819407e+00
1.900000e-06	2.536980e-07	-2.146922e-11	1.766880e+00	-2.831831e+00
1.910000e-06	3.003329e-07	-4.360704e-12	2.091669e+00	-1.833774e+00
1.920000e-06	3.469112e-07	7.846488e-12	2.416064e+00	-8.258559e-01
1.930000e-06	3.935138e-07	1.641190e-11	2.740627e+00	1.912667e-01
1.940000e-06	4.401318e-07	2.609001e-11	3.065298e+00	1.216907e+00
1.950000e-06	4.867676e-07	3.853987e-11	3.390094e+00	2.250346e+00
1.960000e-06	5.333723e-07	5.335279e-11	3.714672e+00	3.290839e+00
1.970000e-06	5.799106e-07	6.785428e-11	4.038788e+00	4.337614e+00
1.980000e-06	6.263899e-07	8.057546e-11	4.362493e+00	5.389875e+00
1.990000e-06	6.728458e-07	9.385026e-11	4.686035e+00	6.446807e+00
2.000000e-06	7.192475e-07	1.074556e-10	5.009200e+00	7.507578e+00
2.010000e-06	7.655623e-07	1.209782e-10	5.331760e+00	8.571337e+00
2.020000e-06	8.118461e-07	1.360915e-10	5.654103e+00	9.637227e+00
2.030000e-06	8.581486e-07	1.534044e-10	5.976577e+00	1.070438e+01
2.040000e-06	9.043755e-07	1.703887e-10	6.298524e+00	1.177191e+01
2.050000e-06	9.505079e-07	1.850627e-10	6.619813e+00	1.283896e+01
2.060000e-06	9.965079e-07	1.979862e-10	6.940181e+00	1.390463e+01
2.070000e-06	1.042373e-06	2.102322e-10	7.259604e+00	1.496807e+01
2.080000e-06	1.088153e-06	2.238562e-10	7.578440e+00	1.602840e+01
2.090000e-06	1.133918e-06	2.398316e-10	7.897176e+00	1.708476e+01
2.100000e-06	1.179649e-06	2.581672e-10	8.215666e+00	1.813631e+01
2.110000e-06	1.225203e-06	2.776797e-10	8.532924e+00	1.918223e+01
2.120000e-06	1.270659e-06	2.944658e-10	8.849508e+00	2.022170e+01
2.130000e-06	1.316079e-06	3.092113e-10	9.165830e+00	2.125393e+01
2.140000e-06	1.361380e-06	3.219908e-10	9.481332e+00	2.227816e+01
2.150000e-06	1.406599e-06	3.320291e-10	9.796263e+00	2.329365e+01
2.160000e-06	1.451693e-06	3.424669e-10	1.011032e+01	2.429969e+01
2.170000e-06	1.496558e-06	3.543425e-10	1.042278e+01	2.529559e+01
2.180000e-06	1.541351e-06	3.712643e-10	1.073474e+01	2.628071e+01
2.190000e-06	1.586113e-06	3.900151e-10	1.104649e+01	2.725443e+01
2.200000e-06	1.630748e-06	4.061855e-10	1.135735e+01	2.821617e+01
2.210000e-06	1.675246e-06	4.190163e-10	1.166725e+01	2.916539e+01
2.220000e-06	1.719593e-06	4.301136e-10	1.197611e+01	3.010158e+01
2.230000e-06	1.763776e-06	4.414280e-10	1.228382e+01	3.102426e+01
2.240000e-06	1.807920e-06	4.538707e-10	1.259126e+01	3.193301e+01
2.250000e-06	1.851966e-06	4.664694e-10	1.289802e+01	3.282744e+01
2.260000e-06	1.895886e-06	4.784641e-10	1.320390e+01	3.370719e+01
2.270000e-06	1.939761e-06	4.920155e-10	1.350947e+01	3.457194e+01
2.280000e-06	1.983559e-06	5.067209e-10	1.381450e+01	3.542142e+01
2.290000e-06	2.027342e-06	5.195481e-10	1.411943e+01	3.625540e+01
2.300000e-06	2.071061e-06	5.297369e-10	1.442391e+01	3.707366e+01
2.310000e-06	2.114694e-06	5.380939e-10	1.472779e+01	3.787604e+01
2.320000e-06	2.158263e-06	5.489692e-10	1.503123e+01	3.866241e+01
2.330000e-06	2.201760e-06	5.621668e-10	1.533416e+01	3.943267e+01
2.340000e-06	2.245086e-06	5.753141e-10	1.563591e+01	4.018676e+01
2.350000e-06	2.288086e-06	5.899633e-10	1.593538e+01	4.092465e+01
2.360000e-06	2.330838e-06	6.069503e-10	1.623313e+01	4.164633e+01
2.370000e-06	2.373403e-06	6.197951e-10	1.652957e+01	4.235182e+01
2.380000e-06	2.415699e-06	6.256693e-10	1.682414e+01	4.304117e+01
2.390000e-06	2.457665e-06	6.305178e-10	1.711641e+01	4.371446e+01
2.400000e-06	2.499305e-06	6.373725e-10	1.740641e+01	4.437178e+01
2.410000e-06	2.540671e-06	6.475044e-10	1.769451e+01	4.501325e+01
2.420000e-06	2.581667e-06	6.602080e-10	1.798002e+01	4.563900e+01
2.430000e-06	2.622408e-06	6.752679e-10	1.826376e+01	4.624919e+01
2.440000e-06	2.662984e-06	6.896080e-10	1.854636e+01	4.684399e+01
2.450000e-06	2.703298e-06	6.974050e-10	1.882712e+01	4.742357e+01
2.460000e-06	2.743416e-06	6.983559e-10	1.910652e+01	4.798814e+01
2.470000e-06	2.783335e-06	6.997959e-10	1.938454e+01	4.853788e+01
2.480000e-06	2.823090e-06	7.055291e-10	1.966141e+01	4.907302e+01
2.490000e-06	2.862772e-06	7.151657e-10	1.993778e+01	4.959377e+01
2.500000e-06	2.902329e-06	7.255078e-10	2.021328e+01	5.010036e+01
2.510000e-06	2.941699e-06	7.363175e-10	2.048747e+01	5.059301e+01
2.520000e-06	2.980948e-06	7.466144e-10	2.076081e+01	5.107197e+01
2.530000e-06	3.020044e-06	7.541235e-10	2.103310e+01	5.153746e+01
2.540000e-06	3.058864e-06	7.583553e-10	2.130346e+01	5.198973e+01
2.550000e-06	3.097505e-06	7.608162e-10	2.157257e+01	5.242901e+01
2.560000e-06	3.135959e-06	7.648612e-10	2.184039e+01	5.285554e+01
2.570000e-06	3.174177e-06	7.703624e-10	2.210656e+01	5.326956e+01
2.580000e-06	3.212194e-06	7.755101e-10	2.237133e+01	5.367131e+01
2.590000e-06	3.249997e-06	7.817855e-10	2.263461e+01	5.406102e+01
2.600000e-06	3.287670e-06	7.897472e-10	2.289698e+01	5.443894e+01
2.610000e-06	3.325114e-06	7.960055e-10	2.315776e+01	5.480530e+01
2.620000e-06	3.362238e-06	7.987059e-10	2.341631e+01	5.516033e+01
2.630000e-06	3.399090e-06	8.008852e-10	2.367297e+01	5.550427e+01
2.640000e-06	3.435681e-06	8.056912e-10	2.392780e+01	5.583735e+01
2.650000e-06	3.472040e-06	8.119500e-10	2.418102e+01	5.615979e+01
2.660000e-06	3.508152e-06	8.172386e-10	2.443253e+01	5.647184e+01
2.670000e-06	3.544061e-06	8.208188e-10	2.468261e+01	5.677373e+01
2.680000e-06	3.579846e-06	8.237618e-10	2.493184e+01	5.706568e+01
2.690000e-06	3.615524e-06	8.265305e-10	2.518032e+01	5.734792e+01
2.700000e-06	3.651089e-06	8.300689e-10	2.542802e+01	5.762069e+01
2.710000e-06	3.686451e-06	8.348395e-10	2.567429e+01	5.788422e+01
2.720000e-06	3.721489e-06	8.417719e-10	2.591831e+01	5.813875e+01
2.730000e-06	3.756176e-06	8.499704e-10	2.615989e+01	5.838450e+01
2.740000e-06	3.790520e-06	8.553462e-10	2.639908e+01	5.862172e+01
2.750000e-06	3.824479e-06	8.586389e-10	2.663559e+01	5.885065e+01
2.760000e-06	3.857955e-06	8.576040e-10	2.686873e+01	5.907151e+01
2.770000e-06	3.890936e-06	8.580674e-10	2.709842e+01	5.928455e+01
2.780000e-06	3.923475e-06	8.604206e-10	2.732505e+01	5.949002e+01
2.790000e-06	3.955643e-06	8.642332e-10	2.754908e+01	5.968815e+01
2.800000e-06	3.987573e-06	8.712331e-10	2.777146e+01	5.987918e+01
2.810000e-06	4.019363e-06	8.772669e-10	2.799286e+01	6.006336e+01
2.820000e-06	4.051020e-06	8.817135e-10	2.821333e+01	6.024092e+01
2.830000e-06	4.082465e-06	8.856486e-10	2.843233e+01	6.041212e+01
2.840000e-06	4.113687e-06	8.913163e-10	2.864978e+01	6.057718e+01
2.850000e-06	4.144607e-06	8.983772e-10	2.886512e+01	6.073635e+01
2.860000e-06	4.175154e-06	9.036653e-10	2.907786e+01	6.088985e+01
2.870000e-06	4.205460e-06	9.035445e-10	2.928893e+01	6.103792e+01
2.880000e-06	4.235518e-06	9.003942e-10	2.949827e+01	6.118078e+01
2.890000e-06	4.265276e-06	8.976094e-10	2.970552e+01	6.131865e+01
2.900000e-06	4.294766e-06	9.001558e-10	2.991090e+01	6.145174e+01
