# Temperatura_=_-0.5
# Concentracion g/m^3_=_1620.0
# C_Vs_to_Am_M_A/Vsm_=_65563218390.804596
# pendiente_HvsI_1/m_=_3716.3
# ordenada_HvsI_A/m_=_1297.0
# frecuencia_Hz_=_135098.98584876728

Tiempo_(s)	Campo_(V.s)	Magnetizacion_(V.s)	Campo_(kA/m)	Magnetizacion_(A/m)
0.000000e+00	-5.515392e-06	-1.364432e-09	-3.838391e+01	-9.002248e+01
1.000000e-08	-5.515653e-06	-1.360602e-09	-3.838573e+01	-8.997926e+01
2.000000e-08	-5.515684e-06	-1.358961e-09	-3.838594e+01	-8.993672e+01
3.000000e-08	-5.515292e-06	-1.360555e-09	-3.838321e+01	-8.989476e+01
4.000000e-08	-5.514378e-06	-1.362667e-09	-3.837685e+01	-8.985324e+01
5.000000e-08	-5.512893e-06	-1.353008e-09	-3.836652e+01	-8.981203e+01
6.000000e-08	-5.510749e-06	-1.337418e-09	-3.835160e+01	-8.977098e+01
7.000000e-08	-5.508068e-06	-1.338768e-09	-3.833294e+01	-8.972990e+01
8.000000e-08	-5.504927e-06	-1.383702e-09	-3.831108e+01	-8.968860e+01
9.000000e-08	-5.501316e-06	-1.470573e-09	-3.828595e+01	-8.964688e+01
1.000000e-07	-5.497211e-06	-1.513003e-09	-3.825738e+01	-8.960452e+01
1.100000e-07	-5.492784e-06	-1.381781e-09	-3.822657e+01	-8.956129e+01
1.200000e-07	-5.488247e-06	-1.220106e-09	-3.819499e+01	-8.951696e+01
1.300000e-07	-5.483518e-06	-1.298447e-09	-3.816208e+01	-8.947128e+01
1.400000e-07	-5.478435e-06	-1.439055e-09	-3.812671e+01	-8.942401e+01
1.500000e-07	-5.472902e-06	-1.409816e-09	-3.808820e+01	-8.937490e+01
1.600000e-07	-5.466979e-06	-1.276706e-09	-3.804698e+01	-8.932370e+01
1.700000e-07	-5.460696e-06	-1.332500e-09	-3.800326e+01	-8.927015e+01
1.800000e-07	-5.454009e-06	-1.508030e-09	-3.795672e+01	-8.921401e+01
1.900000e-07	-5.446832e-06	-1.437979e-09	-3.790677e+01	-8.915502e+01
2.000000e-07	-5.439357e-06	-1.270172e-09	-3.785475e+01	-8.909296e+01
2.100000e-07	-5.431678e-06	-1.249864e-09	-3.780131e+01	-8.902758e+01
2.200000e-07	-5.423683e-06	-1.428179e-09	-3.774567e+01	-8.895865e+01
2.300000e-07	-5.415493e-06	-1.458763e-09	-3.768867e+01	-8.888595e+01
2.400000e-07	-5.406905e-06	-1.376036e-09	-3.762890e+01	-8.880927e+01
2.500000e-07	-5.397600e-06	-1.335709e-09	-3.756414e+01	-8.872840e+01
2.600000e-07	-5.387466e-06	-1.391393e-09	-3.749362e+01	-8.864316e+01
2.700000e-07	-5.376638e-06	-1.360077e-09	-3.741826e+01	-8.855335e+01
2.800000e-07	-5.365373e-06	-1.307152e-09	-3.733986e+01	-8.845881e+01
2.900000e-07	-5.353766e-06	-1.328703e-09	-3.725908e+01	-8.835938e+01
3.000000e-07	-5.341793e-06	-1.373164e-09	-3.717576e+01	-8.825491e+01
3.100000e-07	-5.329499e-06	-1.358182e-09	-3.709020e+01	-8.814526e+01
3.200000e-07	-5.316830e-06	-1.317043e-09	-3.700203e+01	-8.803031e+01
3.300000e-07	-5.303607e-06	-1.332784e-09	-3.691001e+01	-8.790993e+01
3.400000e-07	-5.289998e-06	-1.347809e-09	-3.681530e+01	-8.778404e+01
3.500000e-07	-5.276088e-06	-1.344891e-09	-3.671850e+01	-8.765253e+01
3.600000e-07	-5.261692e-06	-1.306613e-09	-3.661831e+01	-8.751533e+01
3.700000e-07	-5.246827e-06	-1.329416e-09	-3.651486e+01	-8.737237e+01
3.800000e-07	-5.231557e-06	-1.353049e-09	-3.640858e+01	-8.722359e+01
3.900000e-07	-5.215698e-06	-1.324445e-09	-3.629821e+01	-8.706894e+01
4.000000e-07	-5.199312e-06	-1.280728e-09	-3.618418e+01	-8.690837e+01
4.100000e-07	-5.182611e-06	-1.331839e-09	-3.606795e+01	-8.674187e+01
4.200000e-07	-5.165530e-06	-1.329510e-09	-3.594908e+01	-8.656940e+01
4.300000e-07	-5.148089e-06	-1.267280e-09	-3.582769e+01	-8.639096e+01
4.400000e-07	-5.130383e-06	-1.293682e-09	-3.570447e+01	-8.620654e+01
4.500000e-07	-5.112335e-06	-1.380830e-09	-3.557887e+01	-8.601614e+01
4.600000e-07	-5.093778e-06	-1.302646e-09	-3.544972e+01	-8.581977e+01
4.700000e-07	-5.074851e-06	-1.241877e-09	-3.531800e+01	-8.561746e+01
4.800000e-07	-5.055656e-06	-1.320014e-09	-3.518441e+01	-8.540923e+01
4.900000e-07	-5.036172e-06	-1.337517e-09	-3.504882e+01	-8.519511e+01
5.000000e-07	-5.016517e-06	-1.243537e-09	-3.491203e+01	-8.497514e+01
5.100000e-07	-4.996690e-06	-1.280524e-09	-3.477405e+01	-8.474937e+01
5.200000e-07	-4.976532e-06	-1.323110e-09	-3.463376e+01	-8.451786e+01
5.300000e-07	-4.955978e-06	-1.256171e-09	-3.449072e+01	-8.428065e+01
5.400000e-07	-4.935064e-06	-1.265545e-09	-3.434516e+01	-8.403783e+01
5.500000e-07	-4.913792e-06	-1.339937e-09	-3.419712e+01	-8.378946e+01
5.600000e-07	-4.892175e-06	-1.265934e-09	-3.404668e+01	-8.353562e+01
5.700000e-07	-4.870246e-06	-1.211044e-09	-3.389407e+01	-8.327640e+01
5.800000e-07	-4.847908e-06	-1.293605e-09	-3.373861e+01	-8.301190e+01
5.900000e-07	-4.825186e-06	-1.291111e-09	-3.358048e+01	-8.274221e+01
6.000000e-07	-4.802146e-06	-1.214866e-09	-3.342013e+01	-8.246743e+01
6.100000e-07	-4.778780e-06	-1.252918e-09	-3.325752e+01	-8.218770e+01
6.200000e-07	-4.755229e-06	-1.279661e-09	-3.309362e+01	-8.190311e+01
6.300000e-07	-4.731535e-06	-1.210215e-09	-3.292872e+01	-8.161379e+01
6.400000e-07	-4.707658e-06	-1.220174e-09	-3.276255e+01	-8.131988e+01
6.500000e-07	-4.683402e-06	-1.261797e-09	-3.259374e+01	-8.102151e+01
6.600000e-07	-4.658621e-06	-1.224681e-09	-3.242128e+01	-8.071882e+01
6.700000e-07	-4.633229e-06	-1.209021e-09	-3.224457e+01	-8.041195e+01
6.800000e-07	-4.607264e-06	-1.249393e-09	-3.206387e+01	-8.010106e+01
6.900000e-07	-4.580774e-06	-1.219508e-09	-3.187951e+01	-7.978629e+01
7.000000e-07	-4.553789e-06	-1.189948e-09	-3.169172e+01	-7.946780e+01
7.100000e-07	-4.526513e-06	-1.208584e-09	-3.150189e+01	-7.914575e+01
7.200000e-07	-4.499021e-06	-1.206135e-09	-3.131056e+01	-7.882029e+01
7.300000e-07	-4.471332e-06	-1.178214e-09	-3.111786e+01	-7.849158e+01
7.400000e-07	-4.443484e-06	-1.199134e-09	-3.092405e+01	-7.815978e+01
7.500000e-07	-4.415431e-06	-1.202911e-09	-3.072883e+01	-7.782503e+01
7.600000e-07	-4.387077e-06	-1.180162e-09	-3.053149e+01	-7.748750e+01
7.700000e-07	-4.358393e-06	-1.172227e-09	-3.033187e+01	-7.714733e+01
7.800000e-07	-4.329441e-06	-1.173269e-09	-3.013038e+01	-7.680467e+01
7.900000e-07	-4.300172e-06	-1.152538e-09	-2.992669e+01	-7.645964e+01
8.000000e-07	-4.270616e-06	-1.152846e-09	-2.972100e+01	-7.611237e+01
8.100000e-07	-4.240792e-06	-1.158964e-09	-2.951344e+01	-7.576299e+01
8.200000e-07	-4.210609e-06	-1.141948e-09	-2.930338e+01	-7.541160e+01
8.300000e-07	-4.180156e-06	-1.130764e-09	-2.909144e+01	-7.505831e+01
8.400000e-07	-4.149453e-06	-1.139878e-09	-2.887777e+01	-7.470319e+01
8.500000e-07	-4.118460e-06	-1.127386e-09	-2.866208e+01	-7.434632e+01
8.600000e-07	-4.087153e-06	-1.110527e-09	-2.844420e+01	-7.398776e+01
8.700000e-07	-4.055647e-06	-1.114591e-09	-2.822493e+01	-7.362755e+01
8.800000e-07	-4.024081e-06	-1.112087e-09	-2.800526e+01	-7.326572e+01
8.900000e-07	-3.992380e-06	-1.097084e-09	-2.778464e+01	-7.290228e+01
9.000000e-07	-3.960476e-06	-1.092566e-09	-2.756260e+01	-7.253723e+01
9.100000e-07	-3.928331e-06	-1.090201e-09	-2.733889e+01	-7.217053e+01
9.200000e-07	-3.895849e-06	-1.073396e-09	-2.711284e+01	-7.180215e+01
9.300000e-07	-3.862890e-06	-1.069541e-09	-2.688346e+01	-7.143204e+01
9.400000e-07	-3.829328e-06	-1.075006e-09	-2.664989e+01	-7.106011e+01
9.500000e-07	-3.795235e-06	-1.068166e-09	-2.641262e+01	-7.068627e+01
9.600000e-07	-3.760734e-06	-1.054759e-09	-2.617252e+01	-7.031041e+01
9.700000e-07	-3.725870e-06	-1.053718e-09	-2.592988e+01	-6.993241e+01
9.800000e-07	-3.690707e-06	-1.043864e-09	-2.568517e+01	-6.955212e+01
9.900000e-07	-3.655347e-06	-1.031129e-09	-2.543908e+01	-6.916938e+01
1.000000e-06	-3.619826e-06	-1.026080e-09	-2.519187e+01	-6.878404e+01
1.010000e-06	-3.584155e-06	-1.023124e-09	-2.494363e+01	-6.839589e+01
1.020000e-06	-3.548389e-06	-1.010941e-09	-2.469471e+01	-6.800476e+01
1.030000e-06	-3.512525e-06	-1.007466e-09	-2.444512e+01	-6.761044e+01
1.040000e-06	-3.476429e-06	-1.006394e-09	-2.419392e+01	-6.721271e+01
1.050000e-06	-3.440055e-06	-9.979347e-10	-2.394078e+01	-6.681136e+01
1.060000e-06	-3.403412e-06	-9.852959e-10	-2.368576e+01	-6.640618e+01
1.070000e-06	-3.366465e-06	-9.807369e-10	-2.342863e+01	-6.599693e+01
1.080000e-06	-3.329219e-06	-9.708678e-10	-2.316942e+01	-6.558339e+01
1.090000e-06	-3.291717e-06	-9.580768e-10	-2.290843e+01	-6.516534e+01
1.100000e-06	-3.254077e-06	-9.488447e-10	-2.264648e+01	-6.474255e+01
1.110000e-06	-3.216211e-06	-9.388372e-10	-2.238295e+01	-6.431483e+01
1.120000e-06	-3.178022e-06	-9.271113e-10	-2.211718e+01	-6.388194e+01
1.130000e-06	-3.139585e-06	-9.222693e-10	-2.184968e+01	-6.344370e+01
1.140000e-06	-3.100998e-06	-9.216748e-10	-2.158113e+01	-6.299991e+01
1.150000e-06	-3.062199e-06	-9.162611e-10	-2.131111e+01	-6.255040e+01
1.160000e-06	-3.023198e-06	-9.071349e-10	-2.103969e+01	-6.209499e+01
1.170000e-06	-2.984076e-06	-8.996731e-10	-2.076743e+01	-6.163354e+01
1.180000e-06	-2.944742e-06	-8.885239e-10	-2.049368e+01	-6.116590e+01
1.190000e-06	-2.905171e-06	-8.771256e-10	-2.021830e+01	-6.069195e+01
1.200000e-06	-2.865503e-06	-8.694418e-10	-1.994223e+01	-6.021159e+01
1.210000e-06	-2.825746e-06	-8.621012e-10	-1.966554e+01	-5.972472e+01
1.220000e-06	-2.785882e-06	-8.552603e-10	-1.938811e+01	-5.923128e+01
1.230000e-06	-2.745872e-06	-8.504500e-10	-1.910966e+01	-5.873120e+01
1.240000e-06	-2.705685e-06	-8.460144e-10	-1.882999e+01	-5.822444e+01
1.250000e-06	-2.665403e-06	-8.355195e-10	-1.854965e+01	-5.771097e+01
1.260000e-06	-2.624906e-06	-8.247969e-10	-1.826781e+01	-5.719077e+01
1.270000e-06	-2.583971e-06	-8.136714e-10	-1.798293e+01	-5.666386e+01
1.280000e-06	-2.542632e-06	-8.035248e-10	-1.769524e+01	-5.613023e+01
1.290000e-06	-2.500934e-06	-7.929017e-10	-1.740504e+01	-5.558991e+01
1.300000e-06	-2.458908e-06	-7.837959e-10	-1.711256e+01	-5.504293e+01
1.310000e-06	-2.416736e-06	-7.745326e-10	-1.681907e+01	-5.448931e+01
1.320000e-06	-2.374291e-06	-7.658487e-10	-1.652368e+01	-5.392910e+01
1.330000e-06	-2.331524e-06	-7.580584e-10	-1.622604e+01	-5.336232e+01
1.340000e-06	-2.288562e-06	-7.520062e-10	-1.592705e+01	-5.278902e+01
1.350000e-06	-2.245409e-06	-7.428993e-10	-1.562674e+01	-5.220923e+01
1.360000e-06	-2.202097e-06	-7.327122e-10	-1.532531e+01	-5.162296e+01
1.370000e-06	-2.158647e-06	-7.210026e-10	-1.502292e+01	-5.103023e+01
1.380000e-06	-2.115094e-06	-7.137335e-10	-1.471982e+01	-5.043103e+01
1.390000e-06	-2.071441e-06	-7.060482e-10	-1.441602e+01	-4.982536e+01
1.400000e-06	-2.027708e-06	-6.978252e-10	-1.411166e+01	-4.921317e+01
1.410000e-06	-1.983925e-06	-6.869808e-10	-1.380696e+01	-4.859441e+01
1.420000e-06	-1.940036e-06	-6.785562e-10	-1.350152e+01	-4.796899e+01
1.430000e-06	-1.896038e-06	-6.703635e-10	-1.319531e+01	-4.733680e+01
1.440000e-06	-1.852030e-06	-6.581007e-10	-1.288904e+01	-4.669772e+01
1.450000e-06	-1.807989e-06	-6.474104e-10	-1.258255e+01	-4.605158e+01
1.460000e-06	-1.763811e-06	-6.386035e-10	-1.227509e+01	-4.539816e+01
1.470000e-06	-1.719495e-06	-6.279194e-10	-1.196668e+01	-4.473725e+01
1.480000e-06	-1.675077e-06	-6.161718e-10	-1.165756e+01	-4.406857e+01
1.490000e-06	-1.630501e-06	-6.048813e-10	-1.134733e+01	-4.339182e+01
1.500000e-06	-1.585753e-06	-5.942504e-10	-1.103592e+01	-4.270666e+01
1.510000e-06	-1.540826e-06	-5.827880e-10	-1.072325e+01	-4.201273e+01
1.520000e-06	-1.495687e-06	-5.703695e-10	-1.040911e+01	-4.130960e+01
1.530000e-06	-1.450447e-06	-5.582487e-10	-1.009427e+01	-4.059683e+01
1.540000e-06	-1.405135e-06	-5.445253e-10	-9.778921e+00	-3.987396e+01
1.550000e-06	-1.359746e-06	-5.318150e-10	-9.463042e+00	-3.914047e+01
1.560000e-06	-1.314299e-06	-5.175615e-10	-9.146752e+00	-3.839582e+01
1.570000e-06	-1.268796e-06	-5.058700e-10	-8.830079e+00	-3.763946e+01
1.580000e-06	-1.223223e-06	-4.954851e-10	-8.512920e+00	-3.687079e+01
1.590000e-06	-1.177533e-06	-4.866955e-10	-8.194940e+00	-3.608921e+01
1.600000e-06	-1.131716e-06	-4.748360e-10	-7.876081e+00	-3.529410e+01
1.610000e-06	-1.085885e-06	-4.594401e-10	-7.557127e+00	-3.448482e+01
1.620000e-06	-1.039967e-06	-4.444899e-10	-7.237562e+00	-3.366074e+01
1.630000e-06	-9.938995e-07	-4.332011e-10	-6.916960e+00	-3.282120e+01
1.640000e-06	-9.477338e-07	-4.229944e-10	-6.595674e+00	-3.196557e+01
1.650000e-06	-9.015372e-07	-4.118828e-10	-6.274173e+00	-3.109321e+01
1.660000e-06	-8.553295e-07	-3.999524e-10	-5.952594e+00	-3.020349e+01
1.670000e-06	-8.090405e-07	-3.866320e-10	-5.630450e+00	-2.929582e+01
1.680000e-06	-7.627285e-07	-3.693206e-10	-5.308145e+00	-2.836962e+01
1.690000e-06	-7.162588e-07	-3.508418e-10	-4.984743e+00	-2.742433e+01
1.700000e-06	-6.697979e-07	-3.349230e-10	-4.661403e+00	-2.645945e+01
1.710000e-06	-6.233979e-07	-3.200453e-10	-4.338486e+00	-2.547449e+01
1.720000e-06	-5.768038e-07	-3.042394e-10	-4.014218e+00	-2.446904e+01
1.730000e-06	-5.301980e-07	-2.879227e-10	-3.689869e+00	-2.344272e+01
1.740000e-06	-4.836833e-07	-2.702927e-10	-3.366153e+00	-2.239520e+01
1.750000e-06	-4.370584e-07	-2.523346e-10	-3.041671e+00	-2.132625e+01
1.760000e-06	-3.903289e-07	-2.352147e-10	-2.716461e+00	-2.023566e+01
1.770000e-06	-3.436019e-07	-2.193791e-10	-2.391268e+00	-1.912332e+01
1.780000e-06	-2.968049e-07	-2.060190e-10	-2.065589e+00	-1.798918e+01
1.790000e-06	-2.499459e-07	-1.935487e-10	-1.739477e+00	-1.683328e+01
1.800000e-06	-2.030988e-07	-1.769181e-10	-1.413449e+00	-1.565574e+01
1.810000e-06	-1.562958e-07	-1.571680e-10	-1.087727e+00	-1.445675e+01
1.820000e-06	-1.094983e-07	-1.388864e-10	-7.620441e-01	-1.323658e+01
1.830000e-06	-6.272463e-08	-1.232338e-10	-4.365268e-01	-1.199562e+01
1.840000e-06	-1.595374e-08	-1.100968e-10	-1.110287e-01	-1.073431e+01
1.850000e-06	3.085147e-08	-9.579267e-11	2.147083e-01	-9.453200e+00
1.860000e-06	7.761221e-08	-8.101692e-11	5.401357e-01	-8.152909e+00
1.870000e-06	1.243428e-07	-6.326357e-11	8.653532e-01	-6.834151e+00
1.880000e-06	1.710354e-07	-4.274070e-11	1.190306e+00	-5.497723e+00
1.890000e-06	2.177783e-07	-1.973639e-11	1.515610e+00	-4.144498e+00
1.900000e-06	2.645969e-07	2.349427e-12	1.841440e+00	-2.775431e+00
1.910000e-06	3.113171e-07	2.240737e-11	2.166585e+00	-1.391549e+00
1.920000e-06	3.579583e-07	3.964490e-11	2.491181e+00	6.050951e-03
1.930000e-06	4.045757e-07	5.446003e-11	2.815611e+00	1.416206e+00
1.940000e-06	4.511789e-07	6.961788e-11	3.139942e+00	2.837693e+00
1.950000e-06	4.977948e-07	8.710862e-11	3.464361e+00	4.269234e+00
1.960000e-06	5.443294e-07	1.080068e-10	3.788215e+00	5.709503e+00
1.970000e-06	5.908058e-07	1.308325e-10	4.111664e+00	7.157130e+00
1.980000e-06	6.372517e-07	1.511955e-10	4.434900e+00	8.610711e+00
1.990000e-06	6.836650e-07	1.690767e-10	4.757910e+00	1.006881e+01
2.000000e-06	7.300557e-07	1.845353e-10	5.080762e+00	1.152998e+01
2.010000e-06	7.763611e-07	2.020456e-10	5.403020e+00	1.299274e+01
2.020000e-06	8.225755e-07	2.247056e-10	5.724646e+00	1.445561e+01
2.030000e-06	8.687235e-07	2.488074e-10	6.045809e+00	1.591713e+01
2.040000e-06	9.148106e-07	2.709324e-10	6.366548e+00	1.737581e+01
2.050000e-06	9.607733e-07	2.903402e-10	6.686422e+00	1.883021e+01
2.060000e-06	1.006674e-06	3.087439e-10	7.005863e+00	2.027889e+01
2.070000e-06	1.052535e-06	3.270754e-10	7.325032e+00	2.172045e+01
2.080000e-06	1.098383e-06	3.462727e-10	7.644101e+00	2.315351e+01
2.090000e-06	1.144195e-06	3.659853e-10	7.962926e+00	2.457676e+01
2.100000e-06	1.189849e-06	3.873030e-10	8.280655e+00	2.598891e+01
2.110000e-06	1.235417e-06	4.078165e-10	8.597779e+00	2.738874e+01
2.120000e-06	1.280839e-06	4.275915e-10	8.913889e+00	2.877507e+01
2.130000e-06	1.326200e-06	4.468670e-10	9.229580e+00	3.014681e+01
2.140000e-06	1.371585e-06	4.658668e-10	9.545429e+00	3.150293e+01
2.150000e-06	1.416845e-06	4.839771e-10	9.860414e+00	3.284244e+01
2.160000e-06	1.461975e-06	5.016173e-10	1.017449e+01	3.416447e+01
2.170000e-06	1.507008e-06	5.174188e-10	1.048790e+01	3.546821e+01
2.180000e-06	1.551937e-06	5.345895e-10	1.080057e+01	3.675290e+01
2.190000e-06	1.596724e-06	5.531379e-10	1.111226e+01	3.801791e+01
2.200000e-06	1.641319e-06	5.723130e-10	1.142262e+01	3.926266e+01
2.210000e-06	1.685749e-06	5.912626e-10	1.173183e+01	4.048666e+01
2.220000e-06	1.730040e-06	6.100243e-10	1.204007e+01	4.168948e+01
2.230000e-06	1.774190e-06	6.293937e-10	1.234733e+01	4.287081e+01
2.240000e-06	1.818233e-06	6.450404e-10	1.265384e+01	4.403039e+01
2.250000e-06	1.862241e-06	6.572246e-10	1.296011e+01	4.516803e+01
2.260000e-06	1.906254e-06	6.672767e-10	1.326642e+01	4.628364e+01
2.270000e-06	1.950130e-06	6.800443e-10	1.357177e+01	4.737718e+01
2.280000e-06	1.993823e-06	6.965428e-10	1.387585e+01	4.844868e+01
2.290000e-06	2.037509e-06	7.149119e-10	1.417987e+01	4.949824e+01
2.300000e-06	2.081239e-06	7.325095e-10	1.448421e+01	5.052601e+01
2.310000e-06	2.124914e-06	7.471605e-10	1.478816e+01	5.153221e+01
2.320000e-06	2.168478e-06	7.612480e-10	1.509134e+01	5.251709e+01
2.330000e-06	2.211908e-06	7.738561e-10	1.539359e+01	5.348095e+01
2.340000e-06	2.255170e-06	7.842482e-10	1.569466e+01	5.442415e+01
2.350000e-06	2.298254e-06	7.964507e-10	1.599451e+01	5.534706e+01
2.360000e-06	2.341170e-06	8.120740e-10	1.629318e+01	5.625009e+01
2.370000e-06	2.383859e-06	8.268903e-10	1.659027e+01	5.713367e+01
2.380000e-06	2.426258e-06	8.406682e-10	1.688534e+01	5.799826e+01
2.390000e-06	2.468253e-06	8.545127e-10	1.717760e+01	5.884432e+01
2.400000e-06	2.509838e-06	8.674136e-10	1.746701e+01	5.967234e+01
2.410000e-06	2.551121e-06	8.798197e-10	1.775431e+01	6.048279e+01
2.420000e-06	2.592248e-06	8.925623e-10	1.804053e+01	6.127615e+01
2.430000e-06	2.633175e-06	9.072606e-10	1.832536e+01	6.205291e+01
2.440000e-06	2.673783e-06	9.211190e-10	1.860797e+01	6.281353e+01
2.450000e-06	2.714127e-06	9.307632e-10	1.888874e+01	6.355847e+01
2.460000e-06	2.754244e-06	9.388704e-10	1.916793e+01	6.428819e+01
2.470000e-06	2.794173e-06	9.483485e-10	1.944581e+01	6.500310e+01
2.480000e-06	2.833934e-06	9.593697e-10	1.972253e+01	6.570362e+01
2.490000e-06	2.873617e-06	9.709765e-10	1.999870e+01	6.639012e+01
2.500000e-06	2.913211e-06	9.820774e-10	2.027425e+01	6.706299e+01
2.510000e-06	2.952706e-06	9.933000e-10	2.054911e+01	6.772254e+01
2.520000e-06	2.992026e-06	1.004752e-09	2.082276e+01	6.836911e+01
2.530000e-06	3.031022e-06	1.013792e-09	2.109415e+01	6.900297e+01
2.540000e-06	3.069866e-06	1.018823e-09	2.136448e+01	6.962438e+01
2.550000e-06	3.108510e-06	1.023797e-09	2.163341e+01	7.023358e+01
2.560000e-06	3.146834e-06	1.032664e-09	2.190013e+01	7.083079e+01
2.570000e-06	3.184869e-06	1.043651e-09	2.216483e+01	7.141618e+01
2.580000e-06	3.222707e-06	1.052972e-09	2.242816e+01	7.198993e+01
2.590000e-06	3.260476e-06	1.059605e-09	2.269101e+01	7.255218e+01
2.600000e-06	3.298111e-06	1.065193e-09	2.295293e+01	7.310305e+01
2.610000e-06	3.335450e-06	1.070704e-09	2.321278e+01	7.364264e+01
2.620000e-06	3.372466e-06	1.075727e-09	2.347039e+01	7.417105e+01
2.630000e-06	3.409288e-06	1.080177e-09	2.372666e+01	7.468837e+01
2.640000e-06	3.445920e-06	1.086596e-09	2.398160e+01	7.519465e+01
2.650000e-06	3.482275e-06	1.095615e-09	2.423460e+01	7.568996e+01
2.660000e-06	3.518297e-06	1.103769e-09	2.448529e+01	7.617436e+01
2.670000e-06	3.554141e-06	1.108834e-09	2.473474e+01	7.664790e+01
2.680000e-06	3.589882e-06	1.113074e-09	2.498348e+01	7.711062e+01
2.690000e-06	3.625497e-06	1.117738e-09	2.523134e+01	7.756260e+01
2.700000e-06	3.660996e-06	1.122834e-09	2.547840e+01	7.800389e+01
2.710000e-06	3.696365e-06	1.129821e-09	2.572454e+01	7.843454e+01
2.720000e-06	3.731596e-06	1.137917e-09	2.596973e+01	7.885465e+01
2.730000e-06	3.766454e-06	1.145512e-09	2.621232e+01	7.926430e+01
2.740000e-06	3.800808e-06	1.151383e-09	2.645141e+01	7.966357e+01
2.750000e-06	3.834778e-06	1.155335e-09	2.668782e+01	8.005259e+01
2.760000e-06	3.868264e-06	1.157595e-09	2.692086e+01	8.043147e+01
2.770000e-06	3.901107e-06	1.159035e-09	2.714942e+01	8.080035e+01
2.780000e-06	3.933548e-06	1.162296e-09	2.737520e+01	8.115940e+01
2.790000e-06	3.965757e-06	1.168282e-09	2.759936e+01	8.150878e+01
2.800000e-06	3.997748e-06	1.174653e-09	2.782200e+01	8.184867e+01
2.810000e-06	4.029565e-06	1.181547e-09	2.804342e+01	8.217928e+01
2.820000e-06	4.061197e-06	1.189673e-09	2.826356e+01	8.250083e+01
2.830000e-06	4.092703e-06	1.197042e-09	2.848283e+01	8.281354e+01
2.840000e-06	4.124064e-06	1.203089e-09	2.870108e+01	8.311765e+01
2.850000e-06	4.155071e-06	1.208697e-09	2.891687e+01	8.341343e+01
2.860000e-06	4.185669e-06	1.213782e-09	2.912981e+01	8.370113e+01
2.870000e-06	4.215994e-06	1.217343e-09	2.934086e+01	8.398103e+01
2.880000e-06	4.245993e-06	1.220106e-09	2.954963e+01	8.425340e+01
2.890000e-06	4.275686e-06	1.223256e-09	2.975628e+01	8.451853e+01
2.900000e-06	4.305158e-06	1.228315e-09	2.996139e+01	8.477671e+01
2.910000e-06	4.334374e-06	1.236220e-09	3.016471e+01	8.502821e+01
