# Temperatura_=_-6.67
# Concentracion g/m^3_=_1620.0
# C_Vs_to_Am_M_A/Vsm_=_65563218390.804596
# pendiente_HvsI_1/m_=_3716.3
# ordenada_HvsI_A/m_=_1297.0
# frecuencia_Hz_=_135109.13153592104

Tiempo_(s)	Campo_(V.s)	Magnetizacion_(V.s)	Campo_(kA/m)	Magnetizacion_(A/m)
0.000000e+00	-5.510758e-06	-6.223768e-10	-3.836909e+01	-4.260567e+01
1.000000e-08	-5.511081e-06	-6.237099e-10	-3.837134e+01	-4.259105e+01
2.000000e-08	-5.511085e-06	-6.272323e-10	-3.837136e+01	-4.257975e+01
3.000000e-08	-5.510628e-06	-6.306482e-10	-3.836818e+01	-4.257169e+01
4.000000e-08	-5.509605e-06	-6.281054e-10	-3.836105e+01	-4.256675e+01
5.000000e-08	-5.508090e-06	-6.140309e-10	-3.835051e+01	-4.256477e+01
6.000000e-08	-5.506058e-06	-6.003362e-10	-3.833636e+01	-4.256559e+01
7.000000e-08	-5.503432e-06	-6.160107e-10	-3.831808e+01	-4.256899e+01
8.000000e-08	-5.500299e-06	-6.569587e-10	-3.829626e+01	-4.257475e+01
9.000000e-08	-5.496703e-06	-6.737854e-10	-3.827123e+01	-4.258263e+01
1.000000e-07	-5.492693e-06	-6.649951e-10	-3.824331e+01	-4.259235e+01
1.100000e-07	-5.488413e-06	-6.520682e-10	-3.821351e+01	-4.260363e+01
1.200000e-07	-5.483881e-06	-6.307892e-10	-3.818195e+01	-4.261616e+01
1.300000e-07	-5.479144e-06	-5.946008e-10	-3.814897e+01	-4.262964e+01
1.400000e-07	-5.474140e-06	-6.124467e-10	-3.811413e+01	-4.264373e+01
1.500000e-07	-5.468709e-06	-6.176984e-10	-3.807632e+01	-4.265810e+01
1.600000e-07	-5.462851e-06	-6.208525e-10	-3.803553e+01	-4.267243e+01
1.700000e-07	-5.456614e-06	-6.008124e-10	-3.799210e+01	-4.268638e+01
1.800000e-07	-5.449987e-06	-6.410072e-10	-3.794596e+01	-4.269961e+01
1.900000e-07	-5.442957e-06	-6.636602e-10	-3.789701e+01	-4.271180e+01
2.000000e-07	-5.435557e-06	-6.519947e-10	-3.784550e+01	-4.272264e+01
2.100000e-07	-5.427885e-06	-6.305758e-10	-3.779207e+01	-4.273180e+01
2.200000e-07	-5.419987e-06	-6.455777e-10	-3.773709e+01	-4.273901e+01
2.300000e-07	-5.411821e-06	-6.682523e-10	-3.768023e+01	-4.274398e+01
2.400000e-07	-5.403132e-06	-6.688747e-10	-3.761973e+01	-4.274645e+01
2.500000e-07	-5.393649e-06	-6.762105e-10	-3.755370e+01	-4.274619e+01
2.600000e-07	-5.383551e-06	-6.640352e-10	-3.748340e+01	-4.274297e+01
2.700000e-07	-5.373015e-06	-6.552890e-10	-3.741004e+01	-4.273660e+01
2.800000e-07	-5.361981e-06	-6.436970e-10	-3.733321e+01	-4.272693e+01
2.900000e-07	-5.350514e-06	-6.634361e-10	-3.725338e+01	-4.271379e+01
3.000000e-07	-5.338655e-06	-6.481144e-10	-3.717081e+01	-4.269709e+01
3.100000e-07	-5.326327e-06	-6.436992e-10	-3.708497e+01	-4.267673e+01
3.200000e-07	-5.313573e-06	-6.468008e-10	-3.699617e+01	-4.265264e+01
3.300000e-07	-5.300469e-06	-6.639179e-10	-3.690493e+01	-4.262481e+01
3.400000e-07	-5.287001e-06	-6.307281e-10	-3.681116e+01	-4.259322e+01
3.500000e-07	-5.273099e-06	-6.376206e-10	-3.671437e+01	-4.255788e+01
3.600000e-07	-5.258760e-06	-6.599216e-10	-3.661453e+01	-4.251885e+01
3.700000e-07	-5.243968e-06	-6.576196e-10	-3.651154e+01	-4.247619e+01
3.800000e-07	-5.228527e-06	-6.297395e-10	-3.640403e+01	-4.242999e+01
3.900000e-07	-5.212570e-06	-6.599100e-10	-3.629293e+01	-4.238036e+01
4.000000e-07	-5.196322e-06	-6.608401e-10	-3.617980e+01	-4.232743e+01
4.100000e-07	-5.179691e-06	-6.296180e-10	-3.606401e+01	-4.227135e+01
4.200000e-07	-5.162766e-06	-6.478197e-10	-3.594616e+01	-4.221227e+01
4.300000e-07	-5.145627e-06	-6.787759e-10	-3.582683e+01	-4.215037e+01
4.400000e-07	-5.128112e-06	-6.387401e-10	-3.570488e+01	-4.208583e+01
4.500000e-07	-5.110084e-06	-6.275402e-10	-3.557936e+01	-4.201883e+01
4.600000e-07	-5.091609e-06	-6.753956e-10	-3.545073e+01	-4.194958e+01
4.700000e-07	-5.072774e-06	-6.498762e-10	-3.531959e+01	-4.187826e+01
4.800000e-07	-5.053632e-06	-6.155173e-10	-3.518631e+01	-4.180508e+01
4.900000e-07	-5.034231e-06	-6.678485e-10	-3.505123e+01	-4.173022e+01
5.000000e-07	-5.014622e-06	-6.832195e-10	-3.491470e+01	-4.165388e+01
5.100000e-07	-4.994853e-06	-6.177566e-10	-3.477705e+01	-4.157623e+01
5.200000e-07	-4.974756e-06	-6.400175e-10	-3.463713e+01	-4.149746e+01
5.300000e-07	-4.954290e-06	-6.819449e-10	-3.449464e+01	-4.141773e+01
5.400000e-07	-4.933453e-06	-6.390268e-10	-3.434955e+01	-4.133718e+01
5.500000e-07	-4.912209e-06	-6.228230e-10	-3.420164e+01	-4.125596e+01
5.600000e-07	-4.890645e-06	-6.743356e-10	-3.405150e+01	-4.117418e+01
5.700000e-07	-4.868783e-06	-6.464154e-10	-3.389928e+01	-4.109197e+01
5.800000e-07	-4.846583e-06	-6.181871e-10	-3.374471e+01	-4.100940e+01
5.900000e-07	-4.824043e-06	-6.609583e-10	-3.358778e+01	-4.092655e+01
6.000000e-07	-4.801106e-06	-6.631820e-10	-3.342808e+01	-4.084349e+01
6.100000e-07	-4.777836e-06	-6.121053e-10	-3.326606e+01	-4.076025e+01
6.200000e-07	-4.754450e-06	-6.341616e-10	-3.310323e+01	-4.067686e+01
6.300000e-07	-4.730845e-06	-6.497931e-10	-3.293888e+01	-4.059332e+01
6.400000e-07	-4.706839e-06	-6.144745e-10	-3.277174e+01	-4.050962e+01
6.500000e-07	-4.682420e-06	-6.174727e-10	-3.260172e+01	-4.042575e+01
6.600000e-07	-4.657585e-06	-6.460751e-10	-3.242880e+01	-4.034167e+01
6.700000e-07	-4.632238e-06	-6.228116e-10	-3.225232e+01	-4.025733e+01
6.800000e-07	-4.606305e-06	-6.184386e-10	-3.207176e+01	-4.017266e+01
6.900000e-07	-4.579898e-06	-6.423357e-10	-3.188790e+01	-4.008761e+01
7.000000e-07	-4.553155e-06	-6.302383e-10	-3.170170e+01	-4.000209e+01
7.100000e-07	-4.526058e-06	-6.104514e-10	-3.151304e+01	-3.991602e+01
7.200000e-07	-4.498646e-06	-6.255527e-10	-3.132218e+01	-3.982931e+01
7.300000e-07	-4.471065e-06	-6.252743e-10	-3.113014e+01	-3.974187e+01
7.400000e-07	-4.443369e-06	-6.097500e-10	-3.093730e+01	-3.965361e+01
7.500000e-07	-4.415413e-06	-6.174804e-10	-3.074266e+01	-3.956445e+01
7.600000e-07	-4.387159e-06	-6.214332e-10	-3.054594e+01	-3.947428e+01
7.700000e-07	-4.358645e-06	-6.078908e-10	-3.034741e+01	-3.938303e+01
7.800000e-07	-4.329801e-06	-6.067809e-10	-3.014658e+01	-3.929061e+01
7.900000e-07	-4.300628e-06	-6.154721e-10	-2.994346e+01	-3.919697e+01
8.000000e-07	-4.271117e-06	-6.049990e-10	-2.973799e+01	-3.910203e+01
8.100000e-07	-4.241341e-06	-6.000131e-10	-2.953067e+01	-3.900573e+01
8.200000e-07	-4.211275e-06	-6.057789e-10	-2.932133e+01	-3.890804e+01
8.300000e-07	-4.180803e-06	-6.027719e-10	-2.910917e+01	-3.880892e+01
8.400000e-07	-4.150051e-06	-5.929861e-10	-2.889506e+01	-3.870835e+01
8.500000e-07	-4.119098e-06	-5.968178e-10	-2.867955e+01	-3.860632e+01
8.600000e-07	-4.087925e-06	-5.931230e-10	-2.846250e+01	-3.850283e+01
8.700000e-07	-4.056576e-06	-5.831775e-10	-2.824423e+01	-3.839789e+01
8.800000e-07	-4.025042e-06	-5.820953e-10	-2.802467e+01	-3.829153e+01
8.900000e-07	-3.993317e-06	-5.882328e-10	-2.780378e+01	-3.818378e+01
9.000000e-07	-3.961296e-06	-5.808169e-10	-2.758083e+01	-3.807468e+01
9.100000e-07	-3.928986e-06	-5.791275e-10	-2.735587e+01	-3.796430e+01
9.200000e-07	-3.896295e-06	-5.803603e-10	-2.712826e+01	-3.785268e+01
9.300000e-07	-3.863156e-06	-5.747280e-10	-2.689753e+01	-3.773990e+01
9.400000e-07	-3.829630e-06	-5.693673e-10	-2.666410e+01	-3.762602e+01
9.500000e-07	-3.795650e-06	-5.757036e-10	-2.642751e+01	-3.751113e+01
9.600000e-07	-3.761247e-06	-5.753057e-10	-2.618798e+01	-3.739530e+01
9.700000e-07	-3.726470e-06	-5.682024e-10	-2.594584e+01	-3.727860e+01
9.800000e-07	-3.691387e-06	-5.683627e-10	-2.570157e+01	-3.716111e+01
9.900000e-07	-3.656129e-06	-5.716743e-10	-2.545609e+01	-3.704290e+01
1.000000e-06	-3.620731e-06	-5.656950e-10	-2.520962e+01	-3.692404e+01
1.010000e-06	-3.585193e-06	-5.627398e-10	-2.496219e+01	-3.680457e+01
1.020000e-06	-3.549503e-06	-5.666105e-10	-2.471369e+01	-3.668455e+01
1.030000e-06	-3.513607e-06	-5.646676e-10	-2.446376e+01	-3.656402e+01
1.040000e-06	-3.477456e-06	-5.609347e-10	-2.421206e+01	-3.644298e+01
1.050000e-06	-3.441060e-06	-5.617432e-10	-2.395865e+01	-3.632146e+01
1.060000e-06	-3.404394e-06	-5.585661e-10	-2.370336e+01	-3.619945e+01
1.070000e-06	-3.367443e-06	-5.509895e-10	-2.344609e+01	-3.607691e+01
1.080000e-06	-3.330242e-06	-5.490809e-10	-2.318707e+01	-3.595380e+01
1.090000e-06	-3.292804e-06	-5.463448e-10	-2.292640e+01	-3.583006e+01
1.100000e-06	-3.255185e-06	-5.420331e-10	-2.266448e+01	-3.570561e+01
1.110000e-06	-3.217351e-06	-5.413158e-10	-2.240106e+01	-3.558034e+01
1.120000e-06	-3.179270e-06	-5.423909e-10	-2.213592e+01	-3.545413e+01
1.130000e-06	-3.140905e-06	-5.365701e-10	-2.186880e+01	-3.532683e+01
1.140000e-06	-3.102314e-06	-5.315352e-10	-2.160010e+01	-3.519827e+01
1.150000e-06	-3.063500e-06	-5.289992e-10	-2.132986e+01	-3.506828e+01
1.160000e-06	-3.024518e-06	-5.257371e-10	-2.105844e+01	-3.493664e+01
1.170000e-06	-2.985404e-06	-5.218251e-10	-2.078611e+01	-3.480313e+01
1.180000e-06	-2.946081e-06	-5.247345e-10	-2.051232e+01	-3.466751e+01
1.190000e-06	-2.906634e-06	-5.258279e-10	-2.023767e+01	-3.452952e+01
1.200000e-06	-2.867094e-06	-5.228539e-10	-1.996237e+01	-3.438890e+01
1.210000e-06	-2.827417e-06	-5.189464e-10	-1.968611e+01	-3.424535e+01
1.220000e-06	-2.787629e-06	-5.151620e-10	-1.940908e+01	-3.409859e+01
1.230000e-06	-2.747664e-06	-5.088608e-10	-1.913082e+01	-3.394831e+01
1.240000e-06	-2.707411e-06	-5.035394e-10	-1.885056e+01	-3.379419e+01
1.250000e-06	-2.666911e-06	-5.002430e-10	-1.856858e+01	-3.363593e+01
1.260000e-06	-2.626206e-06	-4.982632e-10	-1.828516e+01	-3.347320e+01
1.270000e-06	-2.585293e-06	-4.940577e-10	-1.800030e+01	-3.330569e+01
1.280000e-06	-2.544038e-06	-4.914638e-10	-1.771306e+01	-3.313307e+01
1.290000e-06	-2.502455e-06	-4.907438e-10	-1.742354e+01	-3.295503e+01
1.300000e-06	-2.460641e-06	-4.871504e-10	-1.713241e+01	-3.277126e+01
1.310000e-06	-2.418592e-06	-4.811881e-10	-1.683963e+01	-3.258147e+01
1.320000e-06	-2.376243e-06	-4.769506e-10	-1.654478e+01	-3.238536e+01
1.330000e-06	-2.333571e-06	-4.736347e-10	-1.624767e+01	-3.218265e+01
1.340000e-06	-2.290611e-06	-4.698690e-10	-1.594856e+01	-3.197307e+01
1.350000e-06	-2.247413e-06	-4.673078e-10	-1.564779e+01	-3.175637e+01
1.360000e-06	-2.204093e-06	-4.637500e-10	-1.534617e+01	-3.153232e+01
1.370000e-06	-2.160638e-06	-4.600111e-10	-1.504361e+01	-3.130069e+01
1.380000e-06	-2.117118e-06	-4.594350e-10	-1.474060e+01	-3.106127e+01
1.390000e-06	-2.073568e-06	-4.591658e-10	-1.443738e+01	-3.081388e+01
1.400000e-06	-2.029947e-06	-4.543923e-10	-1.413367e+01	-3.055834e+01
1.410000e-06	-1.986212e-06	-4.486684e-10	-1.382916e+01	-3.029451e+01
1.420000e-06	-1.942381e-06	-4.440313e-10	-1.352398e+01	-3.002225e+01
1.430000e-06	-1.898520e-06	-4.401347e-10	-1.321859e+01	-2.974145e+01
1.440000e-06	-1.854540e-06	-4.358636e-10	-1.291238e+01	-2.945199e+01
1.450000e-06	-1.810326e-06	-4.330436e-10	-1.260454e+01	-2.915379e+01
1.460000e-06	-1.765937e-06	-4.293307e-10	-1.229547e+01	-2.884678e+01
1.470000e-06	-1.721451e-06	-4.241162e-10	-1.198574e+01	-2.853089e+01
1.480000e-06	-1.676832e-06	-4.176158e-10	-1.167508e+01	-2.820608e+01
1.490000e-06	-1.632079e-06	-4.103558e-10	-1.136348e+01	-2.787231e+01
1.500000e-06	-1.587215e-06	-4.029399e-10	-1.105111e+01	-2.752954e+01
1.510000e-06	-1.542219e-06	-3.975449e-10	-1.073782e+01	-2.717775e+01
1.520000e-06	-1.497122e-06	-3.931476e-10	-1.042383e+01	-2.681691e+01
1.530000e-06	-1.451955e-06	-3.885106e-10	-1.010935e+01	-2.644700e+01
1.540000e-06	-1.406673e-06	-3.825640e-10	-9.794073e+00	-2.606799e+01
1.550000e-06	-1.361282e-06	-3.755969e-10	-9.478034e+00	-2.567986e+01
1.560000e-06	-1.315851e-06	-3.664670e-10	-9.161714e+00	-2.528259e+01
1.570000e-06	-1.270336e-06	-3.574130e-10	-8.844811e+00	-2.487613e+01
1.580000e-06	-1.224681e-06	-3.503665e-10	-8.526939e+00	-2.446045e+01
1.590000e-06	-1.178982e-06	-3.481240e-10	-8.208758e+00	-2.403548e+01
1.600000e-06	-1.133249e-06	-3.483987e-10	-7.890339e+00	-2.360117e+01
1.610000e-06	-1.087442e-06	-3.455597e-10	-7.571399e+00	-2.315744e+01
1.620000e-06	-1.041584e-06	-3.389242e-10	-7.252108e+00	-2.270420e+01
1.630000e-06	-9.955367e-07	-3.318605e-10	-6.931502e+00	-2.224136e+01
1.640000e-06	-9.493596e-07	-3.249964e-10	-6.609991e+00	-2.176878e+01
1.650000e-06	-9.031889e-07	-3.159980e-10	-6.288524e+00	-2.128635e+01
1.660000e-06	-8.570756e-07	-3.066597e-10	-5.967456e+00	-2.079392e+01
1.670000e-06	-8.109850e-07	-2.985898e-10	-5.646547e+00	-2.029132e+01
1.680000e-06	-7.647456e-07	-2.900495e-10	-5.324601e+00	-1.977840e+01
1.690000e-06	-7.183597e-07	-2.829195e-10	-5.001636e+00	-1.925497e+01
1.700000e-06	-6.719485e-07	-2.794786e-10	-4.678494e+00	-1.872083e+01
1.710000e-06	-6.255926e-07	-2.734185e-10	-4.355738e+00	-1.817579e+01
1.720000e-06	-5.791606e-07	-2.616535e-10	-4.032451e+00	-1.761964e+01
1.730000e-06	-5.326250e-07	-2.478638e-10	-3.708443e+00	-1.705217e+01
1.740000e-06	-4.860593e-07	-2.356403e-10	-3.384226e+00	-1.647316e+01
1.750000e-06	-4.394756e-07	-2.256049e-10	-3.059884e+00	-1.588242e+01
1.760000e-06	-3.928071e-07	-2.196108e-10	-2.734950e+00	-1.527973e+01
1.770000e-06	-3.461027e-07	-2.144833e-10	-2.409767e+00	-1.466490e+01
1.780000e-06	-2.994285e-07	-2.085243e-10	-2.084794e+00	-1.403774e+01
1.790000e-06	-2.527177e-07	-1.993780e-10	-1.759567e+00	-1.339809e+01
1.800000e-06	-2.059424e-07	-1.861152e-10	-1.433890e+00	-1.274579e+01
1.810000e-06	-1.591058e-07	-1.742645e-10	-1.107787e+00	-1.208072e+01
1.820000e-06	-1.122752e-07	-1.654908e-10	-7.817248e-01	-1.140276e+01
1.830000e-06	-6.549955e-08	-1.564926e-10	-4.560457e-01	-1.071186e+01
1.840000e-06	-1.866675e-08	-1.467931e-10	-1.299687e-01	-1.000797e+01
1.850000e-06	2.816575e-08	-1.377879e-10	1.961062e-01	-9.291089e+00
1.860000e-06	7.490959e-08	-1.306584e-10	5.215639e-01	-8.561256e+00
1.870000e-06	1.217039e-07	-1.200207e-10	8.473728e-01	-7.818554e+00
1.880000e-06	1.684657e-07	-1.045850e-10	1.172956e+00	-7.063111e+00
1.890000e-06	2.151487e-07	-8.782866e-11	1.497990e+00	-6.295104e+00
1.900000e-06	2.618664e-07	-7.419953e-11	1.823265e+00	-5.514760e+00
1.910000e-06	3.086068e-07	-6.471130e-11	2.148699e+00	-4.722362e+00
1.920000e-06	3.553115e-07	-5.641331e-11	2.473884e+00	-3.918246e+00
1.930000e-06	4.019523e-07	-4.821904e-11	2.798624e+00	-3.102802e+00
1.940000e-06	4.484925e-07	-3.717231e-11	3.122664e+00	-2.276478e+00
1.950000e-06	4.949046e-07	-2.368568e-11	3.445812e+00	-1.439779e+00
1.960000e-06	5.413547e-07	-8.744938e-12	3.769224e+00	-5.932654e-01
1.970000e-06	5.877758e-07	5.072654e-12	4.092435e+00	2.624465e-01
1.980000e-06	6.341173e-07	1.579676e-11	4.415092e+00	1.126686e+00
1.990000e-06	6.804846e-07	2.717370e-11	4.737928e+00	1.998729e+00
2.000000e-06	7.267635e-07	3.933199e-11	5.060148e+00	2.877803e+00
2.010000e-06	7.729477e-07	5.265072e-11	5.381709e+00	3.763083e+00
2.020000e-06	8.190527e-07	6.768150e-11	5.702719e+00	4.653705e+00
2.030000e-06	8.650079e-07	8.210893e-11	6.022686e+00	5.548757e+00
2.040000e-06	9.109276e-07	9.417037e-11	6.342405e+00	6.447295e+00
2.050000e-06	9.569535e-07	1.055060e-10	6.662864e+00	7.348338e+00
2.060000e-06	1.002910e-06	1.170406e-10	6.982840e+00	8.250879e+00
2.070000e-06	1.048743e-06	1.289674e-10	7.301954e+00	9.153883e+00
2.080000e-06	1.094511e-06	1.432840e-10	7.620622e+00	1.005630e+01
2.090000e-06	1.140182e-06	1.581910e-10	7.938605e+00	1.095707e+01
2.100000e-06	1.185799e-06	1.734852e-10	8.256216e+00	1.185511e+01
2.110000e-06	1.231357e-06	1.869493e-10	8.573419e+00	1.274936e+01
2.120000e-06	1.276792e-06	1.966912e-10	8.889767e+00	1.363874e+01
2.130000e-06	1.322093e-06	2.051550e-10	9.205173e+00	1.452220e+01
2.140000e-06	1.367304e-06	2.170487e-10	9.519960e+00	1.539868e+01
2.150000e-06	1.412473e-06	2.315527e-10	9.834455e+00	1.626717e+01
2.160000e-06	1.457563e-06	2.445324e-10	1.014839e+01	1.712666e+01
2.170000e-06	1.502533e-06	2.556720e-10	1.046151e+01	1.797619e+01
2.180000e-06	1.547352e-06	2.686633e-10	1.077356e+01	1.881484e+01
2.190000e-06	1.592070e-06	2.801185e-10	1.108491e+01	1.964172e+01
2.200000e-06	1.636762e-06	2.891406e-10	1.139608e+01	2.045599e+01
2.210000e-06	1.681325e-06	2.984244e-10	1.170636e+01	2.125687e+01
2.220000e-06	1.725714e-06	3.077359e-10	1.201542e+01	2.204362e+01
2.230000e-06	1.769987e-06	3.181992e-10	1.232367e+01	2.281557e+01
2.240000e-06	1.814112e-06	3.291993e-10	1.263090e+01	2.357212e+01
2.250000e-06	1.858095e-06	3.398313e-10	1.293713e+01	2.431270e+01
2.260000e-06	1.901997e-06	3.490067e-10	1.324281e+01	2.503684e+01
2.270000e-06	1.945821e-06	3.603755e-10	1.354793e+01	2.574414e+01
2.280000e-06	1.989531e-06	3.741662e-10	1.385226e+01	2.643423e+01
2.290000e-06	2.033140e-06	3.860166e-10	1.415590e+01	2.710685e+01
2.300000e-06	2.076686e-06	3.949482e-10	1.445909e+01	2.776180e+01
2.310000e-06	2.120148e-06	4.009525e-10	1.476170e+01	2.839892e+01
2.320000e-06	2.163534e-06	4.068376e-10	1.506378e+01	2.901815e+01
2.330000e-06	2.206864e-06	4.156368e-10	1.536546e+01	2.961949e+01
2.340000e-06	2.250094e-06	4.261029e-10	1.566646e+01	3.020298e+01
2.350000e-06	2.293139e-06	4.388668e-10	1.596616e+01	3.076875e+01
2.360000e-06	2.336015e-06	4.523249e-10	1.626469e+01	3.131698e+01
2.370000e-06	2.378782e-06	4.622763e-10	1.656246e+01	3.184789e+01
2.380000e-06	2.421332e-06	4.670787e-10	1.685871e+01	3.236176e+01
2.390000e-06	2.463551e-06	4.707153e-10	1.715267e+01	3.285892e+01
2.400000e-06	2.505417e-06	4.738631e-10	1.744416e+01	3.333973e+01
2.410000e-06	2.546911e-06	4.770903e-10	1.773307e+01	3.380461e+01
2.420000e-06	2.588019e-06	4.837280e-10	1.801928e+01	3.425400e+01
2.430000e-06	2.628745e-06	4.939537e-10	1.830284e+01	3.468834e+01
2.440000e-06	2.669238e-06	5.049271e-10	1.858478e+01	3.510815e+01
2.450000e-06	2.709562e-06	5.136436e-10	1.886554e+01	3.551392e+01
2.460000e-06	2.749620e-06	5.223505e-10	1.914445e+01	3.590617e+01
2.470000e-06	2.789449e-06	5.296901e-10	1.942176e+01	3.628542e+01
2.480000e-06	2.829149e-06	5.334023e-10	1.969817e+01	3.665222e+01
2.490000e-06	2.868775e-06	5.363283e-10	1.997407e+01	3.700708e+01
2.500000e-06	2.908317e-06	5.388886e-10	2.024938e+01	3.735052e+01
2.510000e-06	2.947695e-06	5.429819e-10	2.052356e+01	3.768306e+01
2.520000e-06	2.986869e-06	5.496554e-10	2.079631e+01	3.800519e+01
2.530000e-06	3.025913e-06	5.559618e-10	2.106815e+01	3.831740e+01
2.540000e-06	3.064786e-06	5.607305e-10	2.133881e+01	3.862013e+01
2.550000e-06	3.103417e-06	5.648467e-10	2.160778e+01	3.891382e+01
2.560000e-06	3.141926e-06	5.689302e-10	2.187591e+01	3.919887e+01
2.570000e-06	3.180223e-06	5.719968e-10	2.214255e+01	3.947567e+01
2.580000e-06	3.218141e-06	5.747644e-10	2.240656e+01	3.974455e+01
2.590000e-06	3.255792e-06	5.783186e-10	2.266871e+01	4.000582e+01
2.600000e-06	3.293280e-06	5.839115e-10	2.292972e+01	4.025978e+01
2.610000e-06	3.330659e-06	5.888074e-10	2.318998e+01	4.050667e+01
2.620000e-06	3.367827e-06	5.910205e-10	2.344876e+01	4.074669e+01
2.630000e-06	3.404639e-06	5.927520e-10	2.370507e+01	4.098004e+01
2.640000e-06	3.441154e-06	5.943397e-10	2.395930e+01	4.120686e+01
2.650000e-06	3.477425e-06	5.961849e-10	2.421185e+01	4.142726e+01
2.660000e-06	3.513493e-06	6.003028e-10	2.446297e+01	4.164135e+01
2.670000e-06	3.549336e-06	6.051183e-10	2.471253e+01	4.184917e+01
2.680000e-06	3.584975e-06	6.092550e-10	2.496067e+01	4.205078e+01
2.690000e-06	3.620512e-06	6.127001e-10	2.520810e+01	4.224617e+01
2.700000e-06	3.655925e-06	6.162009e-10	2.545466e+01	4.243534e+01
2.710000e-06	3.691158e-06	6.191032e-10	2.569998e+01	4.261827e+01
2.720000e-06	3.726204e-06	6.210123e-10	2.594399e+01	4.279493e+01
2.730000e-06	3.761035e-06	6.228040e-10	2.618650e+01	4.296525e+01
2.740000e-06	3.795539e-06	6.240348e-10	2.642674e+01	4.312918e+01
2.750000e-06	3.829636e-06	6.246987e-10	2.666414e+01	4.328667e+01
2.760000e-06	3.863220e-06	6.260558e-10	2.689798e+01	4.343763e+01
2.770000e-06	3.896280e-06	6.291239e-10	2.712816e+01	4.358202e+01
2.780000e-06	3.928905e-06	6.318132e-10	2.735531e+01	4.371976e+01
2.790000e-06	3.961165e-06	6.336314e-10	2.757992e+01	4.385080e+01
2.800000e-06	3.993090e-06	6.365789e-10	2.780220e+01	4.397511e+01
2.810000e-06	4.024759e-06	6.396603e-10	2.802270e+01	4.409265e+01
2.820000e-06	4.056320e-06	6.416606e-10	2.824245e+01	4.420339e+01
2.830000e-06	4.087741e-06	6.427391e-10	2.846122e+01	4.430735e+01
2.840000e-06	4.118975e-06	6.442335e-10	2.867869e+01	4.440453e+01
2.850000e-06	4.149993e-06	6.472648e-10	2.889465e+01	4.449497e+01
2.860000e-06	4.180717e-06	6.506159e-10	2.910857e+01	4.457873e+01
2.870000e-06	4.211139e-06	6.528419e-10	2.932039e+01	4.465587e+01
2.880000e-06	4.241286e-06	6.536238e-10	2.953029e+01	4.472652e+01
2.890000e-06	4.271076e-06	6.540519e-10	2.973770e+01	4.479077e+01
2.900000e-06	4.300540e-06	6.546591e-10	2.994285e+01	4.484877e+01
