# Temperatura_=_-0.6
# Concentracion g/m^3_=_1620.0
# C_Vs_to_Am_M_A/Vsm_=_65563218390.804596
# pendiente_HvsI_1/m_=_3716.3
# ordenada_HvsI_A/m_=_1297.0
# frecuencia_Hz_=_135099.185801161

Tiempo_(s)	Campo_(V.s)	Magnetizacion_(V.s)	Campo_(kA/m)	Magnetizacion_(A/m)
0.000000e+00	-5.515512e-06	-1.298884e-09	-3.837527e+01	-8.550428e+01
1.000000e-08	-5.515704e-06	-1.298215e-09	-3.837661e+01	-8.545802e+01
2.000000e-08	-5.515619e-06	-1.299181e-09	-3.837602e+01	-8.541140e+01
3.000000e-08	-5.515256e-06	-1.302688e-09	-3.837349e+01	-8.536441e+01
4.000000e-08	-5.514476e-06	-1.300863e-09	-3.836806e+01	-8.531700e+01
5.000000e-08	-5.513159e-06	-1.287926e-09	-3.835890e+01	-8.526914e+01
6.000000e-08	-5.511289e-06	-1.274077e-09	-3.834589e+01	-8.522077e+01
7.000000e-08	-5.508843e-06	-1.289856e-09	-3.832887e+01	-8.517181e+01
8.000000e-08	-5.505839e-06	-1.352719e-09	-3.830797e+01	-8.512219e+01
9.000000e-08	-5.502354e-06	-1.401519e-09	-3.828372e+01	-8.507181e+01
1.000000e-07	-5.498427e-06	-1.344191e-09	-3.825640e+01	-8.502057e+01
1.100000e-07	-5.494165e-06	-1.244132e-09	-3.822675e+01	-8.496835e+01
1.200000e-07	-5.489676e-06	-1.260649e-09	-3.819551e+01	-8.491503e+01
1.300000e-07	-5.484807e-06	-1.324159e-09	-3.816163e+01	-8.486047e+01
1.400000e-07	-5.479512e-06	-1.317266e-09	-3.812479e+01	-8.480453e+01
1.500000e-07	-5.473917e-06	-1.242321e-09	-3.808587e+01	-8.474706e+01
1.600000e-07	-5.468085e-06	-1.252169e-09	-3.804529e+01	-8.468790e+01
1.700000e-07	-5.461746e-06	-1.331404e-09	-3.800119e+01	-8.462688e+01
1.800000e-07	-5.454863e-06	-1.354157e-09	-3.795330e+01	-8.456383e+01
1.900000e-07	-5.447761e-06	-1.300518e-09	-3.790388e+01	-8.449857e+01
2.000000e-07	-5.440389e-06	-1.280614e-09	-3.785259e+01	-8.443093e+01
2.100000e-07	-5.432636e-06	-1.321729e-09	-3.779865e+01	-8.436072e+01
2.200000e-07	-5.424686e-06	-1.347483e-09	-3.774333e+01	-8.428774e+01
2.300000e-07	-5.416545e-06	-1.318191e-09	-3.768669e+01	-8.421180e+01
2.400000e-07	-5.407887e-06	-1.299984e-09	-3.762645e+01	-8.413273e+01
2.500000e-07	-5.398566e-06	-1.326986e-09	-3.756159e+01	-8.405031e+01
2.600000e-07	-5.388585e-06	-1.327471e-09	-3.749215e+01	-8.396437e+01
2.700000e-07	-5.378004e-06	-1.293868e-09	-3.741853e+01	-8.387471e+01
2.800000e-07	-5.366816e-06	-1.284078e-09	-3.734069e+01	-8.378114e+01
2.900000e-07	-5.355173e-06	-1.306548e-09	-3.725968e+01	-8.368348e+01
3.000000e-07	-5.343291e-06	-1.288225e-09	-3.717701e+01	-8.358156e+01
3.100000e-07	-5.331025e-06	-1.256451e-09	-3.709166e+01	-8.347519e+01
3.200000e-07	-5.318292e-06	-1.261126e-09	-3.700307e+01	-8.336422e+01
3.300000e-07	-5.305223e-06	-1.294005e-09	-3.691214e+01	-8.324848e+01
3.400000e-07	-5.291802e-06	-1.280076e-09	-3.681877e+01	-8.312782e+01
3.500000e-07	-5.277931e-06	-1.261622e-09	-3.672225e+01	-8.300210e+01
3.600000e-07	-5.263592e-06	-1.277182e-09	-3.662249e+01	-8.287120e+01
3.700000e-07	-5.248879e-06	-1.288069e-09	-3.652012e+01	-8.273499e+01
3.800000e-07	-5.233819e-06	-1.245964e-09	-3.641534e+01	-8.259337e+01
3.900000e-07	-5.218122e-06	-1.245460e-09	-3.630612e+01	-8.244624e+01
4.000000e-07	-5.201862e-06	-1.286995e-09	-3.619299e+01	-8.229353e+01
4.100000e-07	-5.185288e-06	-1.263252e-09	-3.607767e+01	-8.213518e+01
4.200000e-07	-5.168300e-06	-1.210694e-09	-3.595947e+01	-8.197114e+01
4.300000e-07	-5.150955e-06	-1.248210e-09	-3.583880e+01	-8.180138e+01
4.400000e-07	-5.133428e-06	-1.283539e-09	-3.571684e+01	-8.162589e+01
4.500000e-07	-5.115611e-06	-1.230834e-09	-3.559288e+01	-8.144468e+01
4.600000e-07	-5.097238e-06	-1.217465e-09	-3.546505e+01	-8.125775e+01
4.700000e-07	-5.078392e-06	-1.267415e-09	-3.533392e+01	-8.106517e+01
4.800000e-07	-5.059265e-06	-1.246162e-09	-3.520084e+01	-8.086699e+01
4.900000e-07	-5.039802e-06	-1.203823e-09	-3.506543e+01	-8.066328e+01
5.000000e-07	-5.020092e-06	-1.237249e-09	-3.492829e+01	-8.045415e+01
5.100000e-07	-5.000217e-06	-1.238726e-09	-3.479000e+01	-8.023971e+01
5.200000e-07	-4.979988e-06	-1.190543e-09	-3.464926e+01	-8.002009e+01
5.300000e-07	-4.959391e-06	-1.215876e-09	-3.450595e+01	-7.979545e+01
5.400000e-07	-4.938482e-06	-1.251090e-09	-3.436047e+01	-7.956595e+01
5.500000e-07	-4.917162e-06	-1.201642e-09	-3.421213e+01	-7.933178e+01
5.600000e-07	-4.895492e-06	-1.187177e-09	-3.406136e+01	-7.909313e+01
5.700000e-07	-4.873526e-06	-1.225064e-09	-3.390852e+01	-7.885022e+01
5.800000e-07	-4.851298e-06	-1.202571e-09	-3.375387e+01	-7.860327e+01
5.900000e-07	-4.828713e-06	-1.172952e-09	-3.359673e+01	-7.835251e+01
6.000000e-07	-4.805680e-06	-1.206245e-09	-3.343648e+01	-7.809820e+01
6.100000e-07	-4.782337e-06	-1.202772e-09	-3.327406e+01	-7.784059e+01
6.200000e-07	-4.758751e-06	-1.166707e-09	-3.310996e+01	-7.757993e+01
6.300000e-07	-4.734971e-06	-1.178119e-09	-3.294451e+01	-7.731649e+01
6.400000e-07	-4.710972e-06	-1.185971e-09	-3.277752e+01	-7.705054e+01
6.500000e-07	-4.686646e-06	-1.155131e-09	-3.260827e+01	-7.678235e+01
6.600000e-07	-4.661948e-06	-1.159446e-09	-3.243643e+01	-7.651217e+01
6.700000e-07	-4.636753e-06	-1.176766e-09	-3.226113e+01	-7.624027e+01
6.800000e-07	-4.610928e-06	-1.162487e-09	-3.208145e+01	-7.596690e+01
6.900000e-07	-4.584613e-06	-1.157840e-09	-3.189836e+01	-7.569231e+01
7.000000e-07	-4.557924e-06	-1.168374e-09	-3.171266e+01	-7.541673e+01
7.100000e-07	-4.530814e-06	-1.151579e-09	-3.152404e+01	-7.514039e+01
7.200000e-07	-4.503411e-06	-1.139614e-09	-3.133338e+01	-7.486350e+01
7.300000e-07	-4.475816e-06	-1.146888e-09	-3.114138e+01	-7.458624e+01
7.400000e-07	-4.447989e-06	-1.136761e-09	-3.094776e+01	-7.430879e+01
7.500000e-07	-4.419918e-06	-1.125285e-09	-3.075246e+01	-7.403129e+01
7.600000e-07	-4.391619e-06	-1.134614e-09	-3.055556e+01	-7.375388e+01
7.700000e-07	-4.363079e-06	-1.128699e-09	-3.035699e+01	-7.347666e+01
7.800000e-07	-4.334156e-06	-1.112356e-09	-3.015575e+01	-7.319971e+01
7.900000e-07	-4.304912e-06	-1.117018e-09	-2.995228e+01	-7.292308e+01
8.000000e-07	-4.275448e-06	-1.116511e-09	-2.974728e+01	-7.264680e+01
8.100000e-07	-4.245645e-06	-1.097869e-09	-2.953992e+01	-7.237087e+01
8.200000e-07	-4.215510e-06	-1.095019e-09	-2.933025e+01	-7.209525e+01
8.300000e-07	-4.185108e-06	-1.101238e-09	-2.911872e+01	-7.181987e+01
8.400000e-07	-4.154383e-06	-1.090140e-09	-2.890495e+01	-7.154466e+01
8.500000e-07	-4.123366e-06	-1.083428e-09	-2.868914e+01	-7.126949e+01
8.600000e-07	-4.092124e-06	-1.085468e-09	-2.847176e+01	-7.099422e+01
8.700000e-07	-4.060684e-06	-1.073797e-09	-2.825301e+01	-7.071866e+01
8.800000e-07	-4.029084e-06	-1.059006e-09	-2.803315e+01	-7.044262e+01
8.900000e-07	-3.997255e-06	-1.060710e-09	-2.781169e+01	-7.016588e+01
9.000000e-07	-3.965207e-06	-1.056505e-09	-2.758871e+01	-6.988817e+01
9.100000e-07	-3.932959e-06	-1.043316e-09	-2.736434e+01	-6.960923e+01
9.200000e-07	-3.900392e-06	-1.041492e-09	-2.713775e+01	-6.932876e+01
9.300000e-07	-3.867437e-06	-1.042410e-09	-2.690846e+01	-6.904646e+01
9.400000e-07	-3.834030e-06	-1.029826e-09	-2.667602e+01	-6.876199e+01
9.500000e-07	-3.800089e-06	-1.023883e-09	-2.643988e+01	-6.847503e+01
9.600000e-07	-3.765718e-06	-1.023344e-09	-2.620073e+01	-6.818521e+01
9.700000e-07	-3.730995e-06	-1.011472e-09	-2.595914e+01	-6.789218e+01
9.800000e-07	-3.695939e-06	-9.999442e-10	-2.571523e+01	-6.759559e+01
9.900000e-07	-3.660594e-06	-1.000388e-09	-2.546931e+01	-6.729506e+01
1.000000e-06	-3.625005e-06	-9.964269e-10	-2.522170e+01	-6.699025e+01
1.010000e-06	-3.589250e-06	-9.875456e-10	-2.497292e+01	-6.668078e+01
1.020000e-06	-3.553366e-06	-9.847713e-10	-2.472325e+01	-6.636632e+01
1.030000e-06	-3.517350e-06	-9.804441e-10	-2.447266e+01	-6.604653e+01
1.040000e-06	-3.481159e-06	-9.692982e-10	-2.422086e+01	-6.572109e+01
1.050000e-06	-3.444721e-06	-9.635934e-10	-2.396733e+01	-6.538968e+01
1.060000e-06	-3.408010e-06	-9.608959e-10	-2.371191e+01	-6.505203e+01
1.070000e-06	-3.371032e-06	-9.509958e-10	-2.345462e+01	-6.470785e+01
1.080000e-06	-3.333787e-06	-9.415459e-10	-2.319549e+01	-6.435692e+01
1.090000e-06	-3.296301e-06	-9.364471e-10	-2.293467e+01	-6.399902e+01
1.100000e-06	-3.258604e-06	-9.273338e-10	-2.267239e+01	-6.363395e+01
1.110000e-06	-3.220682e-06	-9.178369e-10	-2.240854e+01	-6.326157e+01
1.120000e-06	-3.182589e-06	-9.144135e-10	-2.214350e+01	-6.288173e+01
1.130000e-06	-3.144369e-06	-9.082947e-10	-2.187757e+01	-6.249434e+01
1.140000e-06	-3.105873e-06	-8.990013e-10	-2.160973e+01	-6.209933e+01
1.150000e-06	-3.067043e-06	-8.909546e-10	-2.133956e+01	-6.169667e+01
1.160000e-06	-3.027952e-06	-8.822758e-10	-2.106758e+01	-6.128636e+01
1.170000e-06	-2.988698e-06	-8.734816e-10	-2.079446e+01	-6.086841e+01
1.180000e-06	-2.949373e-06	-8.676375e-10	-2.052085e+01	-6.044290e+01
1.190000e-06	-2.909941e-06	-8.629419e-10	-2.024649e+01	-6.000990e+01
1.200000e-06	-2.870339e-06	-8.540826e-10	-1.997096e+01	-5.956952e+01
1.210000e-06	-2.830529e-06	-8.475521e-10	-1.969397e+01	-5.912190e+01
1.220000e-06	-2.790530e-06	-8.455668e-10	-1.941567e+01	-5.866721e+01
1.230000e-06	-2.750399e-06	-8.379285e-10	-1.913645e+01	-5.820561e+01
1.240000e-06	-2.710154e-06	-8.287140e-10	-1.885644e+01	-5.773731e+01
1.250000e-06	-2.669726e-06	-8.188884e-10	-1.857515e+01	-5.726251e+01
1.260000e-06	-2.629022e-06	-8.092983e-10	-1.829194e+01	-5.678142e+01
1.270000e-06	-2.588019e-06	-7.984106e-10	-1.800666e+01	-5.629428e+01
1.280000e-06	-2.546801e-06	-7.923355e-10	-1.771987e+01	-5.580131e+01
1.290000e-06	-2.505408e-06	-7.892174e-10	-1.743187e+01	-5.530273e+01
1.300000e-06	-2.463737e-06	-7.845446e-10	-1.714194e+01	-5.479875e+01
1.310000e-06	-2.421778e-06	-7.769544e-10	-1.685001e+01	-5.428959e+01
1.320000e-06	-2.379557e-06	-7.668183e-10	-1.655624e+01	-5.377544e+01
1.330000e-06	-2.336997e-06	-7.538421e-10	-1.626012e+01	-5.325646e+01
1.340000e-06	-2.294061e-06	-7.427172e-10	-1.596139e+01	-5.273281e+01
1.350000e-06	-2.250891e-06	-7.350754e-10	-1.566102e+01	-5.220461e+01
1.360000e-06	-2.207548e-06	-7.270817e-10	-1.535946e+01	-5.167195e+01
1.370000e-06	-2.164043e-06	-7.222047e-10	-1.505676e+01	-5.113489e+01
1.380000e-06	-2.120403e-06	-7.207984e-10	-1.475313e+01	-5.059345e+01
1.390000e-06	-2.076643e-06	-7.172414e-10	-1.444866e+01	-5.004759e+01
1.400000e-06	-2.032821e-06	-7.073583e-10	-1.414376e+01	-4.949726e+01
1.410000e-06	-1.988934e-06	-6.937942e-10	-1.383841e+01	-4.894233e+01
1.420000e-06	-1.944954e-06	-6.823083e-10	-1.353241e+01	-4.838265e+01
1.430000e-06	-1.900901e-06	-6.743648e-10	-1.322590e+01	-4.781801e+01
1.440000e-06	-1.856828e-06	-6.670041e-10	-1.291925e+01	-4.724813e+01
1.450000e-06	-1.812735e-06	-6.606022e-10	-1.261246e+01	-4.667270e+01
1.460000e-06	-1.768511e-06	-6.539992e-10	-1.230477e+01	-4.609135e+01
1.470000e-06	-1.724057e-06	-6.455029e-10	-1.199547e+01	-4.550366e+01
1.480000e-06	-1.679464e-06	-6.330527e-10	-1.168521e+01	-4.490916e+01
1.490000e-06	-1.634816e-06	-6.195550e-10	-1.137456e+01	-4.430732e+01
1.500000e-06	-1.590103e-06	-6.078704e-10	-1.106346e+01	-4.369756e+01
1.510000e-06	-1.545242e-06	-5.993830e-10	-1.075133e+01	-4.307929e+01
1.520000e-06	-1.500242e-06	-5.898742e-10	-1.043823e+01	-4.245182e+01
1.530000e-06	-1.455164e-06	-5.800681e-10	-1.012460e+01	-4.181447e+01
1.540000e-06	-1.409957e-06	-5.695858e-10	-9.810056e+00	-4.116650e+01
1.550000e-06	-1.364624e-06	-5.577593e-10	-9.494641e+00	-4.050714e+01
1.560000e-06	-1.319152e-06	-5.467467e-10	-9.178262e+00	-3.983561e+01
1.570000e-06	-1.273606e-06	-5.371533e-10	-8.861367e+00	-3.915108e+01
1.580000e-06	-1.228047e-06	-5.264222e-10	-8.544381e+00	-3.845272e+01
1.590000e-06	-1.182339e-06	-5.165479e-10	-8.226358e+00	-3.773971e+01
1.600000e-06	-1.136516e-06	-5.069240e-10	-7.907536e+00	-3.701118e+01
1.610000e-06	-1.090657e-06	-4.946712e-10	-7.588464e+00	-3.626631e+01
1.620000e-06	-1.044728e-06	-4.816023e-10	-7.268903e+00	-3.550426e+01
1.630000e-06	-9.988118e-07	-4.705891e-10	-6.949431e+00	-3.472420e+01
1.640000e-06	-9.528101e-07	-4.617583e-10	-6.629366e+00	-3.392535e+01
1.650000e-06	-9.066560e-07	-4.509729e-10	-6.308239e+00	-3.310693e+01
1.660000e-06	-8.604296e-07	-4.376915e-10	-5.986610e+00	-3.226822e+01
1.670000e-06	-8.141473e-07	-4.232313e-10	-5.664592e+00	-3.140852e+01
1.680000e-06	-7.678427e-07	-4.067722e-10	-5.342419e+00	-3.052719e+01
1.690000e-06	-7.214993e-07	-3.896851e-10	-5.019975e+00	-2.962363e+01
1.700000e-06	-6.750877e-07	-3.747512e-10	-4.697057e+00	-2.869732e+01
1.710000e-06	-6.286825e-07	-3.625381e-10	-4.374184e+00	-2.774780e+01
1.720000e-06	-5.822723e-07	-3.494342e-10	-4.051276e+00	-2.677467e+01
1.730000e-06	-5.357107e-07	-3.322848e-10	-3.727314e+00	-2.577760e+01
1.740000e-06	-4.890972e-07	-3.126155e-10	-3.402991e+00	-2.475637e+01
1.750000e-06	-4.424954e-07	-2.939328e-10	-3.078750e+00	-2.371080e+01
1.760000e-06	-3.958130e-07	-2.766877e-10	-2.753948e+00	-2.264084e+01
1.770000e-06	-3.490666e-07	-2.605085e-10	-2.428700e+00	-2.154650e+01
1.780000e-06	-3.023683e-07	-2.463452e-10	-2.103787e+00	-2.042788e+01
1.790000e-06	-2.557509e-07	-2.315658e-10	-1.779438e+00	-1.928519e+01
1.800000e-06	-2.091329e-07	-2.153790e-10	-1.455084e+00	-1.811873e+01
1.810000e-06	-1.624646e-07	-1.971299e-10	-1.130380e+00	-1.692888e+01
1.820000e-06	-1.157162e-07	-1.778597e-10	-8.051185e-01	-1.571613e+01
1.830000e-06	-6.892534e-08	-1.622112e-10	-4.795618e-01	-1.448104e+01
1.840000e-06	-2.218105e-08	-1.465858e-10	-1.543290e-01	-1.322429e+01
1.850000e-06	2.451696e-08	-1.313070e-10	1.705816e-01	-1.194662e+01
1.860000e-06	7.121980e-08	-1.159782e-10	4.955259e-01	-1.064887e+01
1.870000e-06	1.179097e-07	-9.923210e-11	8.203801e-01	-9.331961e+00
1.880000e-06	1.646227e-07	-7.756193e-11	1.145395e+00	-7.996893e+00
1.890000e-06	2.113427e-07	-5.493112e-11	1.470459e+00	-6.644733e+00
1.900000e-06	2.580770e-07	-3.661670e-11	1.795622e+00	-5.276620e+00
1.910000e-06	3.047844e-07	-1.930462e-11	2.120598e+00	-3.893757e+00
1.920000e-06	3.514660e-07	-4.296722e-12	2.445395e+00	-2.497401e+00
1.930000e-06	3.981215e-07	1.096041e-11	2.770009e+00	-1.088862e+00
1.940000e-06	4.447263e-07	2.816117e-11	3.094271e+00	3.305080e-01
1.950000e-06	4.913096e-07	4.840219e-11	3.418385e+00	1.759317e+00
1.960000e-06	5.378174e-07	6.997785e-11	3.741971e+00	3.196143e+00
1.970000e-06	5.842674e-07	8.990421e-11	4.065157e+00	4.639542e+00
1.980000e-06	6.306383e-07	1.076847e-10	4.387791e+00	6.088053e+00
1.990000e-06	6.768590e-07	1.257880e-10	4.709381e+00	7.540204e+00
2.000000e-06	7.230130e-07	1.432488e-10	5.030507e+00	8.994524e+00
2.010000e-06	7.692016e-07	1.619311e-10	5.351873e+00	1.044955e+01
2.020000e-06	8.153529e-07	1.831851e-10	5.672980e+00	1.190381e+01
2.030000e-06	8.615074e-07	2.088196e-10	5.994109e+00	1.335589e+01
2.040000e-06	9.076659e-07	2.319342e-10	6.315266e+00	1.480436e+01
2.050000e-06	9.537218e-07	2.496430e-10	6.635709e+00	1.624786e+01
2.060000e-06	9.996874e-07	2.660870e-10	6.955524e+00	1.768503e+01
2.070000e-06	1.045614e-06	2.805214e-10	7.275070e+00	1.911457e+01
2.080000e-06	1.091522e-06	2.989483e-10	7.594481e+00	2.053524e+01
2.090000e-06	1.137422e-06	3.215632e-10	7.913841e+00	2.194583e+01
2.100000e-06	1.183202e-06	3.468163e-10	8.232364e+00	2.334521e+01
2.110000e-06	1.228788e-06	3.721741e-10	8.549539e+00	2.473229e+01
2.120000e-06	1.274274e-06	3.930523e-10	8.866018e+00	2.610605e+01
2.130000e-06	1.319674e-06	4.091607e-10	9.181894e+00	2.746554e+01
2.140000e-06	1.365037e-06	4.210511e-10	9.497514e+00	2.880988e+01
2.150000e-06	1.410364e-06	4.352634e-10	9.812886e+00	3.013825e+01
2.160000e-06	1.455595e-06	4.547211e-10	1.012759e+01	3.144992e+01
2.170000e-06	1.500675e-06	4.754831e-10	1.044124e+01	3.274420e+01
2.180000e-06	1.545575e-06	5.004760e-10	1.075365e+01	3.402051e+01
2.190000e-06	1.590345e-06	5.251178e-10	1.106514e+01	3.527831e+01
2.200000e-06	1.634917e-06	5.433785e-10	1.137526e+01	3.651715e+01
2.210000e-06	1.679319e-06	5.574035e-10	1.168420e+01	3.773663e+01
2.220000e-06	1.723714e-06	5.692744e-10	1.199309e+01	3.893644e+01
2.230000e-06	1.768009e-06	5.832253e-10	1.230128e+01	4.011631e+01
2.240000e-06	1.812219e-06	5.996011e-10	1.260887e+01	4.127606e+01
2.250000e-06	1.856373e-06	6.187490e-10	1.291608e+01	4.241553e+01
2.260000e-06	1.900389e-06	6.367679e-10	1.322234e+01	4.353465e+01
2.270000e-06	1.944321e-06	6.551510e-10	1.352800e+01	4.463339e+01
2.280000e-06	1.988215e-06	6.739315e-10	1.383340e+01	4.571177e+01
2.290000e-06	2.032082e-06	6.880496e-10	1.413862e+01	4.676984e+01
2.300000e-06	2.075851e-06	6.993035e-10	1.444315e+01	4.780772e+01
2.310000e-06	2.119476e-06	7.115225e-10	1.474668e+01	4.882554e+01
2.320000e-06	2.163018e-06	7.258533e-10	1.504963e+01	4.982346e+01
2.330000e-06	2.206489e-06	7.410176e-10	1.535209e+01	5.080169e+01
2.340000e-06	2.249877e-06	7.571607e-10	1.565397e+01	5.176044e+01
2.350000e-06	2.293114e-06	7.767993e-10	1.595480e+01	5.269997e+01
2.360000e-06	2.336101e-06	7.981188e-10	1.625388e+01	5.362051e+01
2.370000e-06	2.378734e-06	8.148412e-10	1.655051e+01	5.452235e+01
2.380000e-06	2.421032e-06	8.257537e-10	1.684481e+01	5.540576e+01
2.390000e-06	2.463019e-06	8.333676e-10	1.713695e+01	5.627101e+01
2.400000e-06	2.504605e-06	8.409278e-10	1.742629e+01	5.711840e+01
2.410000e-06	2.545816e-06	8.500773e-10	1.771302e+01	5.794819e+01
2.420000e-06	2.586752e-06	8.633740e-10	1.799784e+01	5.876068e+01
2.430000e-06	2.627435e-06	8.811115e-10	1.828090e+01	5.955612e+01
2.440000e-06	2.667853e-06	8.998359e-10	1.856212e+01	6.033478e+01
2.450000e-06	2.708140e-06	9.162103e-10	1.884243e+01	6.109692e+01
2.460000e-06	2.748319e-06	9.282783e-10	1.912198e+01	6.184278e+01
2.470000e-06	2.788364e-06	9.400988e-10	1.940060e+01	6.257258e+01
2.480000e-06	2.828277e-06	9.486439e-10	1.967830e+01	6.328655e+01
2.490000e-06	2.868055e-06	9.544399e-10	1.995506e+01	6.398489e+01
2.500000e-06	2.907749e-06	9.619325e-10	2.023124e+01	6.466779e+01
2.510000e-06	2.947328e-06	9.711904e-10	2.050662e+01	6.533542e+01
2.520000e-06	2.986716e-06	9.841815e-10	2.078067e+01	6.598795e+01
2.530000e-06	3.025893e-06	9.969887e-10	2.105325e+01	6.662554e+01
2.540000e-06	3.064886e-06	1.006774e-09	2.132456e+01	6.724833e+01
2.550000e-06	3.103654e-06	1.011805e-09	2.159429e+01	6.785644e+01
2.560000e-06	3.142136e-06	1.015869e-09	2.186203e+01	6.845001e+01
2.570000e-06	3.180372e-06	1.020264e-09	2.212807e+01	6.902915e+01
2.580000e-06	3.218366e-06	1.027730e-09	2.239242e+01	6.959398e+01
2.590000e-06	3.256111e-06	1.037808e-09	2.265504e+01	7.014460e+01
2.600000e-06	3.293698e-06	1.049489e-09	2.291656e+01	7.068112e+01
2.610000e-06	3.331107e-06	1.060354e-09	2.317684e+01	7.120364e+01
2.620000e-06	3.368286e-06	1.065449e-09	2.343552e+01	7.171229e+01
2.630000e-06	3.405239e-06	1.067269e-09	2.369263e+01	7.220716e+01
2.640000e-06	3.441907e-06	1.067453e-09	2.394775e+01	7.268838e+01
2.650000e-06	3.478252e-06	1.068409e-09	2.420063e+01	7.315608e+01
2.660000e-06	3.514338e-06	1.075049e-09	2.445170e+01	7.361038e+01
2.670000e-06	3.550266e-06	1.083681e-09	2.470168e+01	7.405144e+01
2.680000e-06	3.586082e-06	1.091329e-09	2.495088e+01	7.447941e+01
2.690000e-06	3.621797e-06	1.098431e-09	2.519938e+01	7.489447e+01
2.700000e-06	3.657390e-06	1.105283e-09	2.544702e+01	7.529679e+01
2.710000e-06	3.692810e-06	1.108967e-09	2.569346e+01	7.568657e+01
2.720000e-06	3.727973e-06	1.109464e-09	2.593811e+01	7.606402e+01
2.730000e-06	3.762751e-06	1.110434e-09	2.618009e+01	7.642939e+01
2.740000e-06	3.797041e-06	1.112341e-09	2.641867e+01	7.678290e+01
2.750000e-06	3.830904e-06	1.116537e-09	2.665428e+01	7.712482e+01
2.760000e-06	3.864365e-06	1.120981e-09	2.688709e+01	7.745543e+01
2.770000e-06	3.897344e-06	1.127694e-09	2.711654e+01	7.777502e+01
2.780000e-06	3.929874e-06	1.134000e-09	2.734288e+01	7.808388e+01
2.790000e-06	3.962086e-06	1.137208e-09	2.756700e+01	7.838235e+01
2.800000e-06	3.994091e-06	1.139302e-09	2.778968e+01	7.867074e+01
2.810000e-06	4.025924e-06	1.141344e-09	2.801116e+01	7.894940e+01
2.820000e-06	4.057636e-06	1.145603e-09	2.823181e+01	7.921869e+01
2.830000e-06	4.089206e-06	1.150879e-09	2.845146e+01	7.947895e+01
2.840000e-06	4.120526e-06	1.155960e-09	2.866938e+01	7.973055e+01
2.850000e-06	4.151563e-06	1.162181e-09	2.888532e+01	7.997386e+01
2.860000e-06	4.182230e-06	1.167864e-09	2.909870e+01	8.020925e+01
2.870000e-06	4.212569e-06	1.170731e-09	2.930979e+01	8.043709e+01
2.880000e-06	4.242643e-06	1.172197e-09	2.951903e+01	8.065776e+01
2.890000e-06	4.272402e-06	1.175882e-09	2.972608e+01	8.087160e+01
2.900000e-06	4.301902e-06	1.180507e-09	2.993134e+01	8.107900e+01
