# Temperatura_=_14.81
# Concentracion g/m^3_=_1620.0
# C_Vs_to_Am_M_A/Vsm_=_65563218390.804596
# pendiente_HvsI_1/m_=_3716.3
# ordenada_HvsI_A/m_=_1297.0
# frecuencia_Hz_=_135103.0701912948

Tiempo_(s)	Campo_(V.s)	Magnetizacion_(V.s)	Campo_(kA/m)	Magnetizacion_(A/m)
0.000000e+00	-5.494834e-06	-1.556203e-09	-3.837031e+01	-1.010654e+02
1.000000e-08	-5.495030e-06	-1.551913e-09	-3.837168e+01	-1.010365e+02
2.000000e-08	-5.495049e-06	-1.550453e-09	-3.837181e+01	-1.010032e+02
3.000000e-08	-5.494857e-06	-1.552768e-09	-3.837047e+01	-1.009655e+02
4.000000e-08	-5.494297e-06	-1.554047e-09	-3.836656e+01	-1.009234e+02
5.000000e-08	-5.493213e-06	-1.548772e-09	-3.835899e+01	-1.008770e+02
6.000000e-08	-5.491568e-06	-1.534176e-09	-3.834751e+01	-1.008261e+02
7.000000e-08	-5.489288e-06	-1.526509e-09	-3.833158e+01	-1.007708e+02
8.000000e-08	-5.486413e-06	-1.548869e-09	-3.831150e+01	-1.007111e+02
9.000000e-08	-5.483032e-06	-1.590779e-09	-3.828790e+01	-1.006470e+02
1.000000e-07	-5.479143e-06	-1.625841e-09	-3.826074e+01	-1.005785e+02
1.100000e-07	-5.474899e-06	-1.610686e-09	-3.823111e+01	-1.005055e+02
1.200000e-07	-5.470414e-06	-1.523546e-09	-3.819978e+01	-1.004282e+02
1.300000e-07	-5.465722e-06	-1.446170e-09	-3.816702e+01	-1.003466e+02
1.400000e-07	-5.460779e-06	-1.519494e-09	-3.813251e+01	-1.002607e+02
1.500000e-07	-5.455355e-06	-1.573857e-09	-3.809463e+01	-1.001705e+02
1.600000e-07	-5.449495e-06	-1.543838e-09	-3.805371e+01	-1.000760e+02
1.700000e-07	-5.443269e-06	-1.469496e-09	-3.801023e+01	-9.997742e+01
1.800000e-07	-5.436564e-06	-1.520409e-09	-3.796341e+01	-9.987471e+01
1.900000e-07	-5.429474e-06	-1.584482e-09	-3.791391e+01	-9.976795e+01
2.000000e-07	-5.422062e-06	-1.514917e-09	-3.786215e+01	-9.965721e+01
2.100000e-07	-5.414397e-06	-1.448741e-09	-3.780862e+01	-9.954255e+01
2.200000e-07	-5.406543e-06	-1.478730e-09	-3.775378e+01	-9.942405e+01
2.300000e-07	-5.398469e-06	-1.557089e-09	-3.769740e+01	-9.930177e+01
2.400000e-07	-5.390050e-06	-1.515535e-09	-3.763861e+01	-9.917580e+01
2.500000e-07	-5.381128e-06	-1.465988e-09	-3.757630e+01	-9.904621e+01
2.600000e-07	-5.371504e-06	-1.456067e-09	-3.750910e+01	-9.891305e+01
2.700000e-07	-5.361192e-06	-1.495926e-09	-3.743709e+01	-9.877641e+01
2.800000e-07	-5.350377e-06	-1.481177e-09	-3.736157e+01	-9.863634e+01
2.900000e-07	-5.339109e-06	-1.483007e-09	-3.728288e+01	-9.849291e+01
3.000000e-07	-5.327428e-06	-1.486305e-09	-3.720132e+01	-9.834615e+01
3.100000e-07	-5.315345e-06	-1.495687e-09	-3.711694e+01	-9.819611e+01
3.200000e-07	-5.302819e-06	-1.471587e-09	-3.702947e+01	-9.804283e+01
3.300000e-07	-5.289902e-06	-1.458871e-09	-3.693927e+01	-9.788633e+01
3.400000e-07	-5.276605e-06	-1.452113e-09	-3.684642e+01	-9.772663e+01
3.500000e-07	-5.262918e-06	-1.468742e-09	-3.675085e+01	-9.756372e+01
3.600000e-07	-5.248832e-06	-1.484820e-09	-3.665248e+01	-9.739759e+01
3.700000e-07	-5.234313e-06	-1.475100e-09	-3.655110e+01	-9.722822e+01
3.800000e-07	-5.219256e-06	-1.469656e-09	-3.644596e+01	-9.705557e+01
3.900000e-07	-5.203752e-06	-1.482847e-09	-3.633769e+01	-9.687960e+01
4.000000e-07	-5.187786e-06	-1.469906e-09	-3.622620e+01	-9.670023e+01
4.100000e-07	-5.171161e-06	-1.440179e-09	-3.611011e+01	-9.651739e+01
4.200000e-07	-5.154243e-06	-1.466623e-09	-3.599197e+01	-9.633098e+01
4.300000e-07	-5.137137e-06	-1.471762e-09	-3.587252e+01	-9.614090e+01
4.400000e-07	-5.119674e-06	-1.437558e-09	-3.575058e+01	-9.594704e+01
4.500000e-07	-5.101934e-06	-1.448809e-09	-3.562670e+01	-9.574925e+01
4.600000e-07	-5.083873e-06	-1.496846e-09	-3.550058e+01	-9.554740e+01
4.700000e-07	-5.065378e-06	-1.441347e-09	-3.537143e+01	-9.534134e+01
4.800000e-07	-5.046486e-06	-1.406523e-09	-3.523950e+01	-9.513091e+01
4.900000e-07	-5.027196e-06	-1.454704e-09	-3.510480e+01	-9.491593e+01
5.000000e-07	-5.007589e-06	-1.461143e-09	-3.496789e+01	-9.469623e+01
5.100000e-07	-4.987782e-06	-1.395292e-09	-3.482958e+01	-9.447164e+01
5.200000e-07	-4.967754e-06	-1.423174e-09	-3.468972e+01	-9.424196e+01
5.300000e-07	-4.947384e-06	-1.447740e-09	-3.454748e+01	-9.400702e+01
5.400000e-07	-4.926634e-06	-1.403606e-09	-3.440258e+01	-9.376663e+01
5.500000e-07	-4.905557e-06	-1.403756e-09	-3.425540e+01	-9.352061e+01
5.600000e-07	-4.884183e-06	-1.448830e-09	-3.410615e+01	-9.326878e+01
5.700000e-07	-4.862515e-06	-1.397072e-09	-3.395484e+01	-9.301098e+01
5.800000e-07	-4.840448e-06	-1.368715e-09	-3.380075e+01	-9.274703e+01
5.900000e-07	-4.818023e-06	-1.416280e-09	-3.364415e+01	-9.247680e+01
6.000000e-07	-4.795325e-06	-1.405042e-09	-3.348566e+01	-9.220012e+01
6.100000e-07	-4.772224e-06	-1.351920e-09	-3.332434e+01	-9.191689e+01
6.200000e-07	-4.748733e-06	-1.380165e-09	-3.316030e+01	-9.162698e+01
6.300000e-07	-4.725058e-06	-1.391435e-09	-3.299498e+01	-9.133029e+01
6.400000e-07	-4.701241e-06	-1.346513e-09	-3.282867e+01	-9.102676e+01
6.500000e-07	-4.677167e-06	-1.352203e-09	-3.266056e+01	-9.071631e+01
6.600000e-07	-4.652816e-06	-1.373263e-09	-3.249052e+01	-9.039891e+01
6.700000e-07	-4.628200e-06	-1.341086e-09	-3.231862e+01	-9.007453e+01
6.800000e-07	-4.603062e-06	-1.330838e-09	-3.214309e+01	-8.974319e+01
6.900000e-07	-4.577177e-06	-1.352087e-09	-3.196233e+01	-8.940489e+01
7.000000e-07	-4.550678e-06	-1.330887e-09	-3.177729e+01	-8.905969e+01
7.100000e-07	-4.523745e-06	-1.315279e-09	-3.158922e+01	-8.870765e+01
7.200000e-07	-4.496479e-06	-1.329218e-09	-3.139882e+01	-8.834886e+01
7.300000e-07	-4.468962e-06	-1.325590e-09	-3.120667e+01	-8.798343e+01
7.400000e-07	-4.441195e-06	-1.302480e-09	-3.101277e+01	-8.761148e+01
7.500000e-07	-4.413243e-06	-1.308017e-09	-3.081758e+01	-8.723316e+01
7.600000e-07	-4.385120e-06	-1.302786e-09	-3.062120e+01	-8.684864e+01
7.700000e-07	-4.356753e-06	-1.284722e-09	-3.042312e+01	-8.645810e+01
7.800000e-07	-4.328076e-06	-1.276870e-09	-3.022287e+01	-8.606173e+01
7.900000e-07	-4.298977e-06	-1.277388e-09	-3.001967e+01	-8.565974e+01
8.000000e-07	-4.269509e-06	-1.264960e-09	-2.981389e+01	-8.525235e+01
8.100000e-07	-4.239827e-06	-1.261888e-09	-2.960663e+01	-8.483980e+01
8.200000e-07	-4.209933e-06	-1.258532e-09	-2.939788e+01	-8.442231e+01
8.300000e-07	-4.179798e-06	-1.247878e-09	-2.918744e+01	-8.400013e+01
8.400000e-07	-4.149275e-06	-1.238691e-09	-2.897430e+01	-8.357351e+01
8.500000e-07	-4.118351e-06	-1.240330e-09	-2.875836e+01	-8.314268e+01
8.600000e-07	-4.087181e-06	-1.229062e-09	-2.854070e+01	-8.270788e+01
8.700000e-07	-4.055808e-06	-1.216779e-09	-2.832163e+01	-8.226935e+01
8.800000e-07	-4.024204e-06	-1.212530e-09	-2.810093e+01	-8.182732e+01
8.900000e-07	-3.992458e-06	-1.210767e-09	-2.787925e+01	-8.138201e+01
9.000000e-07	-3.960643e-06	-1.199798e-09	-2.765709e+01	-8.093363e+01
9.100000e-07	-3.928649e-06	-1.192948e-09	-2.743367e+01	-8.048235e+01
9.200000e-07	-3.896321e-06	-1.187495e-09	-2.720792e+01	-8.002838e+01
9.300000e-07	-3.863626e-06	-1.174992e-09	-2.697962e+01	-7.957185e+01
9.400000e-07	-3.830504e-06	-1.168396e-09	-2.674833e+01	-7.911291e+01
9.500000e-07	-3.796938e-06	-1.168208e-09	-2.651394e+01	-7.865168e+01
9.600000e-07	-3.762939e-06	-1.160799e-09	-2.627652e+01	-7.818826e+01
9.700000e-07	-3.728484e-06	-1.147158e-09	-2.603593e+01	-7.772271e+01
9.800000e-07	-3.693585e-06	-1.142409e-09	-2.579223e+01	-7.725510e+01
9.900000e-07	-3.658313e-06	-1.137074e-09	-2.554592e+01	-7.678543e+01
1.000000e-06	-3.622830e-06	-1.126992e-09	-2.529814e+01	-7.631371e+01
1.010000e-06	-3.587183e-06	-1.120495e-09	-2.504922e+01	-7.583992e+01
1.020000e-06	-3.551447e-06	-1.118239e-09	-2.479968e+01	-7.536400e+01
1.030000e-06	-3.515591e-06	-1.110051e-09	-2.454930e+01	-7.488588e+01
1.040000e-06	-3.479586e-06	-1.102856e-09	-2.429787e+01	-7.440546e+01
1.050000e-06	-3.443388e-06	-1.096675e-09	-2.404511e+01	-7.392262e+01
1.060000e-06	-3.406948e-06	-1.089144e-09	-2.379065e+01	-7.343722e+01
1.070000e-06	-3.370202e-06	-1.076974e-09	-2.353405e+01	-7.294909e+01
1.080000e-06	-3.333062e-06	-1.067952e-09	-2.327470e+01	-7.245805e+01
1.090000e-06	-3.295686e-06	-1.056581e-09	-2.301370e+01	-7.196391e+01
1.100000e-06	-3.258145e-06	-1.046103e-09	-2.275156e+01	-7.146644e+01
1.110000e-06	-3.220453e-06	-1.037852e-09	-2.248836e+01	-7.096543e+01
1.120000e-06	-3.182585e-06	-1.031911e-09	-2.222392e+01	-7.046063e+01
1.130000e-06	-3.144459e-06	-1.023168e-09	-2.195769e+01	-6.995181e+01
1.140000e-06	-3.106134e-06	-1.016780e-09	-2.169007e+01	-6.943869e+01
1.150000e-06	-3.067559e-06	-1.011043e-09	-2.142070e+01	-6.892103e+01
1.160000e-06	-3.028762e-06	-1.001797e-09	-2.114978e+01	-6.839857e+01
1.170000e-06	-2.989778e-06	-9.877672e-10	-2.087756e+01	-6.787104e+01
1.180000e-06	-2.950539e-06	-9.792061e-10	-2.060355e+01	-6.733819e+01
1.190000e-06	-2.911122e-06	-9.717037e-10	-2.032830e+01	-6.679977e+01
1.200000e-06	-2.871595e-06	-9.631969e-10	-2.005229e+01	-6.625552e+01
1.210000e-06	-2.831956e-06	-9.566652e-10	-1.977549e+01	-6.570521e+01
1.220000e-06	-2.792200e-06	-9.492225e-10	-1.949787e+01	-6.514861e+01
1.230000e-06	-2.752304e-06	-9.386393e-10	-1.921928e+01	-6.458549e+01
1.240000e-06	-2.712297e-06	-9.262810e-10	-1.893991e+01	-6.401564e+01
1.250000e-06	-2.672114e-06	-9.153832e-10	-1.865931e+01	-6.343888e+01
1.260000e-06	-2.631741e-06	-9.026817e-10	-1.837739e+01	-6.285502e+01
1.270000e-06	-2.591156e-06	-8.920497e-10	-1.809399e+01	-6.226389e+01
1.280000e-06	-2.550317e-06	-8.834778e-10	-1.780881e+01	-6.166533e+01
1.290000e-06	-2.509210e-06	-8.770324e-10	-1.752176e+01	-6.105922e+01
1.300000e-06	-2.467825e-06	-8.676195e-10	-1.723277e+01	-6.044541e+01
1.310000e-06	-2.426240e-06	-8.554789e-10	-1.694238e+01	-5.982380e+01
1.320000e-06	-2.384453e-06	-8.420764e-10	-1.665059e+01	-5.919429e+01
1.330000e-06	-2.342302e-06	-8.309460e-10	-1.635625e+01	-5.855679e+01
1.340000e-06	-2.299675e-06	-8.222412e-10	-1.605858e+01	-5.791121e+01
1.350000e-06	-2.256734e-06	-8.157559e-10	-1.575873e+01	-5.725750e+01
1.360000e-06	-2.213549e-06	-8.075794e-10	-1.545717e+01	-5.659557e+01
1.370000e-06	-2.170193e-06	-7.965632e-10	-1.515441e+01	-5.592538e+01
1.380000e-06	-2.126781e-06	-7.840447e-10	-1.485127e+01	-5.524687e+01
1.390000e-06	-2.083194e-06	-7.734234e-10	-1.454690e+01	-5.455997e+01
1.400000e-06	-2.039464e-06	-7.607138e-10	-1.424153e+01	-5.386464e+01
1.410000e-06	-1.995707e-06	-7.485395e-10	-1.393598e+01	-5.316080e+01
1.420000e-06	-1.951877e-06	-7.383940e-10	-1.362991e+01	-5.244840e+01
1.430000e-06	-1.907977e-06	-7.290989e-10	-1.332337e+01	-5.172735e+01
1.440000e-06	-1.864041e-06	-7.196871e-10	-1.301656e+01	-5.099757e+01
1.450000e-06	-1.820058e-06	-7.095038e-10	-1.270942e+01	-5.025895e+01
1.460000e-06	-1.775965e-06	-6.987561e-10	-1.240153e+01	-4.951138e+01
1.470000e-06	-1.731734e-06	-6.859022e-10	-1.209266e+01	-4.875473e+01
1.480000e-06	-1.687384e-06	-6.714108e-10	-1.178297e+01	-4.798883e+01
1.490000e-06	-1.642936e-06	-6.569444e-10	-1.147259e+01	-4.721353e+01
1.500000e-06	-1.598394e-06	-6.438402e-10	-1.116155e+01	-4.642862e+01
1.510000e-06	-1.553708e-06	-6.328265e-10	-1.084951e+01	-4.563389e+01
1.520000e-06	-1.508841e-06	-6.235560e-10	-1.053621e+01	-4.482909e+01
1.530000e-06	-1.463837e-06	-6.146185e-10	-1.022194e+01	-4.401397e+01
1.540000e-06	-1.418751e-06	-6.037870e-10	-9.907108e+00	-4.318824e+01
1.550000e-06	-1.373563e-06	-5.891552e-10	-9.591559e+00	-4.235157e+01
1.560000e-06	-1.328295e-06	-5.722666e-10	-9.275453e+00	-4.150364e+01
1.570000e-06	-1.282977e-06	-5.545347e-10	-8.959000e+00	-4.064409e+01
1.580000e-06	-1.237595e-06	-5.367439e-10	-8.642098e+00	-3.977255e+01
1.590000e-06	-1.192093e-06	-5.219969e-10	-8.324358e+00	-3.888861e+01
1.600000e-06	-1.146456e-06	-5.132456e-10	-8.005681e+00	-3.799187e+01
1.610000e-06	-1.100706e-06	-5.053183e-10	-7.686204e+00	-3.708189e+01
1.620000e-06	-1.054913e-06	-4.945529e-10	-7.366435e+00	-3.615824e+01
1.630000e-06	-1.009095e-06	-4.815399e-10	-7.046490e+00	-3.522048e+01
1.640000e-06	-9.630839e-07	-4.676021e-10	-6.725195e+00	-3.426815e+01
1.650000e-06	-9.170322e-07	-4.500792e-10	-6.403616e+00	-3.330081e+01
1.660000e-06	-8.710066e-07	-4.306418e-10	-6.082220e+00	-3.231800e+01
1.670000e-06	-8.249285e-07	-4.132901e-10	-5.760458e+00	-3.131930e+01
1.680000e-06	-7.788482e-07	-3.976299e-10	-5.438681e+00	-3.030426e+01
1.690000e-06	-7.327206e-07	-3.827443e-10	-5.116573e+00	-2.927249e+01
1.700000e-06	-6.865493e-07	-3.696266e-10	-4.794160e+00	-2.822360e+01
1.710000e-06	-6.403131e-07	-3.546451e-10	-4.471293e+00	-2.715722e+01
1.720000e-06	-5.940420e-07	-3.372537e-10	-4.148183e+00	-2.607303e+01
1.730000e-06	-5.476832e-07	-3.171714e-10	-3.824460e+00	-2.497072e+01
1.740000e-06	-5.012243e-07	-2.960377e-10	-3.500039e+00	-2.385006e+01
1.750000e-06	-4.547878e-07	-2.761807e-10	-3.175774e+00	-2.271084e+01
1.760000e-06	-4.082812e-07	-2.594536e-10	-2.851019e+00	-2.155289e+01
1.770000e-06	-3.617522e-07	-2.460403e-10	-2.526108e+00	-2.037612e+01
1.780000e-06	-3.152575e-07	-2.338511e-10	-2.201436e+00	-1.918048e+01
1.790000e-06	-2.687383e-07	-2.205479e-10	-1.876594e+00	-1.796600e+01
1.800000e-06	-2.221600e-07	-2.037529e-10	-1.551339e+00	-1.673275e+01
1.810000e-06	-1.755507e-07	-1.835523e-10	-1.225867e+00	-1.548090e+01
1.820000e-06	-1.290168e-07	-1.627987e-10	-9.009213e-01	-1.421066e+01
1.830000e-06	-8.248237e-08	-1.438653e-10	-5.759727e-01	-1.292233e+01
1.840000e-06	-3.591869e-08	-1.261806e-10	-2.508195e-01	-1.161628e+01
1.850000e-06	1.064026e-08	-1.111118e-10	7.430071e-02	-1.029296e+01
1.860000e-06	5.715096e-08	-9.666362e-11	3.990839e-01	-8.952899e+00
1.870000e-06	1.036731e-07	-8.110111e-11	7.239472e-01	-7.596691e+00
1.880000e-06	1.502898e-07	-6.207967e-11	1.049470e+00	-6.225014e+00
1.890000e-06	1.969294e-07	-3.882966e-11	1.375154e+00	-4.838619e+00
1.900000e-06	2.435779e-07	-1.307298e-11	1.700899e+00	-3.438328e+00
1.910000e-06	2.902059e-07	1.238499e-11	2.026502e+00	-2.025039e+00
1.920000e-06	3.367956e-07	3.472097e-11	2.351837e+00	-5.997124e-01
1.930000e-06	3.833655e-07	5.200288e-11	2.677033e+00	8.366219e-01
1.940000e-06	4.298493e-07	6.590916e-11	3.001629e+00	2.282875e+00
1.950000e-06	4.762398e-07	8.071184e-11	3.325573e+00	3.737901e+00
1.960000e-06	5.225754e-07	9.933430e-11	3.649133e+00	5.200502e+00
1.970000e-06	5.689123e-07	1.223440e-10	3.972702e+00	6.669432e+00
1.980000e-06	6.152425e-07	1.475822e-10	4.296225e+00	8.143404e+00
1.990000e-06	6.614523e-07	1.723097e-10	4.618907e+00	9.621098e+00
2.000000e-06	7.075789e-07	1.945770e-10	4.941009e+00	1.110116e+01
2.010000e-06	7.536672e-07	2.133769e-10	5.262842e+00	1.258222e+01
2.020000e-06	7.996904e-07	2.332888e-10	5.584221e+00	1.406288e+01
2.030000e-06	8.457207e-07	2.544341e-10	5.905650e+00	1.554175e+01
2.040000e-06	8.917756e-07	2.743864e-10	6.227250e+00	1.701741e+01
2.050000e-06	9.377524e-07	2.932770e-10	6.548306e+00	1.848849e+01
2.060000e-06	9.836112e-07	3.130944e-10	6.868536e+00	1.995358e+01
2.070000e-06	1.029389e-06	3.344278e-10	7.188200e+00	2.141133e+01
2.080000e-06	1.075070e-06	3.557019e-10	7.507190e+00	2.286038e+01
2.090000e-06	1.120649e-06	3.775505e-10	7.825465e+00	2.429943e+01
2.100000e-06	1.166183e-06	4.003128e-10	8.143432e+00	2.572721e+01
2.110000e-06	1.211705e-06	4.225245e-10	8.461314e+00	2.714248e+01
2.120000e-06	1.257168e-06	4.414446e-10	8.778777e+00	2.854408e+01
2.130000e-06	1.302526e-06	4.579746e-10	9.095511e+00	2.993087e+01
2.140000e-06	1.347781e-06	4.751064e-10	9.411525e+00	3.130180e+01
2.150000e-06	1.392959e-06	4.933404e-10	9.727006e+00	3.265587e+01
2.160000e-06	1.438007e-06	5.112752e-10	1.004157e+01	3.399215e+01
2.170000e-06	1.482859e-06	5.292849e-10	1.035477e+01	3.530979e+01
2.180000e-06	1.527576e-06	5.482402e-10	1.066703e+01	3.660801e+01
2.190000e-06	1.572225e-06	5.684750e-10	1.097881e+01	3.788611e+01
2.200000e-06	1.616774e-06	5.872208e-10	1.128990e+01	3.914348e+01
2.210000e-06	1.661231e-06	6.042332e-10	1.160034e+01	4.037957e+01
2.220000e-06	1.705584e-06	6.198085e-10	1.191006e+01	4.159394e+01
2.230000e-06	1.749820e-06	6.339492e-10	1.221896e+01	4.278620e+01
2.240000e-06	1.793950e-06	6.482864e-10	1.252711e+01	4.395608e+01
2.250000e-06	1.837974e-06	6.629738e-10	1.283453e+01	4.510337e+01
2.260000e-06	1.881909e-06	6.764350e-10	1.314133e+01	4.622794e+01
2.270000e-06	1.925758e-06	6.899285e-10	1.344753e+01	4.732974e+01
2.280000e-06	1.969594e-06	7.080033e-10	1.375364e+01	4.840881e+01
2.290000e-06	2.013398e-06	7.282402e-10	1.405952e+01	4.946525e+01
2.300000e-06	2.057132e-06	7.471865e-10	1.436491e+01	5.049922e+01
2.310000e-06	2.100757e-06	7.626692e-10	1.466954e+01	5.151097e+01
2.320000e-06	2.144253e-06	7.749779e-10	1.497327e+01	5.250080e+01
2.330000e-06	2.187637e-06	7.863395e-10	1.527622e+01	5.346906e+01
2.340000e-06	2.230882e-06	7.963429e-10	1.557821e+01	5.441617e+01
2.350000e-06	2.273923e-06	8.092700e-10	1.587875e+01	5.534259e+01
2.360000e-06	2.316683e-06	8.279623e-10	1.617735e+01	5.624882e+01
2.370000e-06	2.359138e-06	8.468679e-10	1.647381e+01	5.713539e+01
2.380000e-06	2.401238e-06	8.597879e-10	1.676779e+01	5.800289e+01
2.390000e-06	2.442927e-06	8.702366e-10	1.705891e+01	5.885191e+01
2.400000e-06	2.484289e-06	8.798647e-10	1.734774e+01	5.968306e+01
2.410000e-06	2.525374e-06	8.875941e-10	1.763464e+01	6.049700e+01
2.420000e-06	2.566211e-06	8.965427e-10	1.791980e+01	6.129436e+01
2.430000e-06	2.606868e-06	9.093161e-10	1.820371e+01	6.207580e+01
2.440000e-06	2.647313e-06	9.245746e-10	1.848613e+01	6.284198e+01
2.450000e-06	2.687544e-06	9.365374e-10	1.876706e+01	6.359354e+01
2.460000e-06	2.727633e-06	9.459615e-10	1.904701e+01	6.433112e+01
2.470000e-06	2.767626e-06	9.560991e-10	1.932628e+01	6.505537e+01
2.480000e-06	2.807506e-06	9.674814e-10	1.960476e+01	6.576689e+01
2.490000e-06	2.847244e-06	9.798678e-10	1.988224e+01	6.646628e+01
2.500000e-06	2.886834e-06	9.914625e-10	2.015870e+01	6.715410e+01
2.510000e-06	2.926308e-06	1.001493e-09	2.043435e+01	6.783091e+01
2.520000e-06	2.965677e-06	1.011084e-09	2.070926e+01	6.849722e+01
2.530000e-06	3.004860e-06	1.021025e-09	2.098287e+01	6.915351e+01
2.540000e-06	3.043732e-06	1.030844e-09	2.125432e+01	6.980024e+01
2.550000e-06	3.082311e-06	1.039911e-09	2.152371e+01	7.043784e+01
2.560000e-06	3.120711e-06	1.049296e-09	2.179186e+01	7.106669e+01
2.570000e-06	3.158861e-06	1.058528e-09	2.205826e+01	7.168714e+01
2.580000e-06	3.196715e-06	1.066907e-09	2.232259e+01	7.229950e+01
2.590000e-06	3.234378e-06	1.075717e-09	2.258559e+01	7.290407e+01
2.600000e-06	3.271851e-06	1.085256e-09	2.284727e+01	7.350108e+01
2.610000e-06	3.309144e-06	1.094392e-09	2.310768e+01	7.409076e+01
2.620000e-06	3.346186e-06	1.102420e-09	2.336635e+01	7.467328e+01
2.630000e-06	3.382967e-06	1.110166e-09	2.362319e+01	7.524880e+01
2.640000e-06	3.419530e-06	1.116899e-09	2.387850e+01	7.581744e+01
2.650000e-06	3.455813e-06	1.124066e-09	2.413187e+01	7.637930e+01
2.660000e-06	3.491898e-06	1.132568e-09	2.438385e+01	7.693444e+01
2.670000e-06	3.527876e-06	1.140595e-09	2.463509e+01	7.748292e+01
2.680000e-06	3.563754e-06	1.147935e-09	2.488562e+01	7.802475e+01
2.690000e-06	3.599516e-06	1.156334e-09	2.513535e+01	7.855995e+01
2.700000e-06	3.635133e-06	1.165728e-09	2.538406e+01	7.908850e+01
2.710000e-06	3.670563e-06	1.174194e-09	2.563147e+01	7.961039e+01
2.720000e-06	3.705748e-06	1.181064e-09	2.587716e+01	8.012558e+01
2.730000e-06	3.740491e-06	1.187323e-09	2.611977e+01	8.063404e+01
2.740000e-06	3.774773e-06	1.193011e-09	2.635916e+01	8.113571e+01
2.750000e-06	3.808592e-06	1.196689e-09	2.659532e+01	8.163053e+01
2.760000e-06	3.841907e-06	1.199889e-09	2.682795e+01	8.211847e+01
2.770000e-06	3.874790e-06	1.205772e-09	2.705758e+01	8.259945e+01
2.780000e-06	3.907283e-06	1.213718e-09	2.728447e+01	8.307344e+01
2.790000e-06	3.939467e-06	1.222059e-09	2.750922e+01	8.354038e+01
2.800000e-06	3.971437e-06	1.230630e-09	2.773246e+01	8.400024e+01
2.810000e-06	4.003276e-06	1.238977e-09	2.795480e+01	8.445296e+01
2.820000e-06	4.034955e-06	1.246336e-09	2.817601e+01	8.489853e+01
2.830000e-06	4.066414e-06	1.252416e-09	2.839569e+01	8.533693e+01
2.840000e-06	4.097679e-06	1.256618e-09	2.861400e+01	8.576814e+01
2.850000e-06	4.128738e-06	1.259857e-09	2.883089e+01	8.619216e+01
2.860000e-06	4.159443e-06	1.264191e-09	2.904530e+01	8.660900e+01
2.870000e-06	4.189760e-06	1.269567e-09	2.925701e+01	8.701869e+01
2.880000e-06	4.219748e-06	1.274265e-09	2.946641e+01	8.742125e+01
2.890000e-06	4.249465e-06	1.279306e-09	2.967392e+01	8.781673e+01
2.900000e-06	4.278954e-06	1.286955e-09	2.987985e+01	8.820517e+01
