# Temperatura_=_-2.8
# Concentracion g/m^3_=_1620.0
# C_Vs_to_Am_M_A/Vsm_=_65563218390.804596
# pendiente_HvsI_1/m_=_3716.3
# ordenada_HvsI_A/m_=_1297.0
# frecuencia_Hz_=_135107.25823806753

Tiempo_(s)	Campo_(V.s)	Magnetizacion_(V.s)	Campo_(kA/m)	Magnetizacion_(A/m)
0.000000e+00	-5.508285e-06	-8.351532e-10	-3.836922e+01	-5.623217e+01
1.000000e-08	-5.508496e-06	-8.330397e-10	-3.837069e+01	-5.620466e+01
2.000000e-08	-5.508525e-06	-8.308051e-10	-3.837089e+01	-5.617848e+01
3.000000e-08	-5.508287e-06	-8.309420e-10	-3.836923e+01	-5.615347e+01
4.000000e-08	-5.507541e-06	-8.289513e-10	-3.836403e+01	-5.612950e+01
5.000000e-08	-5.506221e-06	-8.175803e-10	-3.835484e+01	-5.610640e+01
6.000000e-08	-5.504315e-06	-8.021207e-10	-3.834156e+01	-5.608397e+01
7.000000e-08	-5.501786e-06	-8.014700e-10	-3.832394e+01	-5.606203e+01
8.000000e-08	-5.498686e-06	-8.487202e-10	-3.830235e+01	-5.604037e+01
9.000000e-08	-5.495095e-06	-9.338004e-10	-3.827734e+01	-5.601877e+01
1.000000e-07	-5.491039e-06	-9.412772e-10	-3.824909e+01	-5.599703e+01
1.100000e-07	-5.486687e-06	-8.113342e-10	-3.821877e+01	-5.597490e+01
1.200000e-07	-5.482225e-06	-7.398776e-10	-3.818769e+01	-5.595217e+01
1.300000e-07	-5.477507e-06	-7.927886e-10	-3.815482e+01	-5.592860e+01
1.400000e-07	-5.472360e-06	-8.754701e-10	-3.811898e+01	-5.590396e+01
1.500000e-07	-5.466839e-06	-8.099156e-10	-3.808052e+01	-5.587803e+01
1.600000e-07	-5.461025e-06	-7.439248e-10	-3.804002e+01	-5.585058e+01
1.700000e-07	-5.454821e-06	-8.386649e-10	-3.799680e+01	-5.582139e+01
1.800000e-07	-5.448052e-06	-9.290516e-10	-3.794965e+01	-5.579025e+01
1.900000e-07	-5.440855e-06	-8.823600e-10	-3.789951e+01	-5.575697e+01
2.000000e-07	-5.433478e-06	-7.642227e-10	-3.784813e+01	-5.572133e+01
2.100000e-07	-5.425895e-06	-8.012930e-10	-3.779531e+01	-5.568318e+01
2.200000e-07	-5.418009e-06	-8.714711e-10	-3.774037e+01	-5.564234e+01
2.300000e-07	-5.409857e-06	-8.784844e-10	-3.768359e+01	-5.559865e+01
2.400000e-07	-5.401323e-06	-8.201055e-10	-3.762415e+01	-5.555198e+01
2.500000e-07	-5.392049e-06	-8.433529e-10	-3.755955e+01	-5.550221e+01
2.600000e-07	-5.382014e-06	-8.639638e-10	-3.748965e+01	-5.544922e+01
2.700000e-07	-5.371543e-06	-8.285763e-10	-3.741671e+01	-5.539293e+01
2.800000e-07	-5.360636e-06	-7.826125e-10	-3.734073e+01	-5.533326e+01
2.900000e-07	-5.349209e-06	-8.174605e-10	-3.726114e+01	-5.527017e+01
3.000000e-07	-5.337379e-06	-8.453080e-10	-3.717873e+01	-5.520360e+01
3.100000e-07	-5.325169e-06	-8.136219e-10	-3.709368e+01	-5.513354e+01
3.200000e-07	-5.312488e-06	-7.948794e-10	-3.700534e+01	-5.505999e+01
3.300000e-07	-5.299468e-06	-8.267914e-10	-3.691466e+01	-5.498294e+01
3.400000e-07	-5.286165e-06	-8.459380e-10	-3.682199e+01	-5.490244e+01
3.500000e-07	-5.272356e-06	-8.051034e-10	-3.672580e+01	-5.481852e+01
3.600000e-07	-5.258128e-06	-7.977236e-10	-3.662669e+01	-5.473123e+01
3.700000e-07	-5.243545e-06	-8.269727e-10	-3.652511e+01	-5.464065e+01
3.800000e-07	-5.228303e-06	-8.256334e-10	-3.641894e+01	-5.454685e+01
3.900000e-07	-5.212374e-06	-7.904370e-10	-3.630798e+01	-5.444993e+01
4.000000e-07	-5.196107e-06	-8.203012e-10	-3.619467e+01	-5.434999e+01
4.100000e-07	-5.179598e-06	-8.371232e-10	-3.607967e+01	-5.424713e+01
4.200000e-07	-5.162695e-06	-7.938433e-10	-3.596193e+01	-5.414148e+01
4.300000e-07	-5.145401e-06	-7.767535e-10	-3.584147e+01	-5.403315e+01
4.400000e-07	-5.127839e-06	-8.411269e-10	-3.571913e+01	-5.392227e+01
4.500000e-07	-5.109893e-06	-8.313502e-10	-3.559412e+01	-5.380897e+01
4.600000e-07	-5.091486e-06	-7.839082e-10	-3.546591e+01	-5.369339e+01
4.700000e-07	-5.072783e-06	-8.028766e-10	-3.533563e+01	-5.357564e+01
4.800000e-07	-5.053785e-06	-8.378720e-10	-3.520329e+01	-5.345588e+01
4.900000e-07	-5.034404e-06	-7.978278e-10	-3.506829e+01	-5.333422e+01
5.000000e-07	-5.014810e-06	-8.019021e-10	-3.493180e+01	-5.321079e+01
5.100000e-07	-4.995064e-06	-8.270101e-10	-3.479426e+01	-5.308572e+01
5.200000e-07	-4.974977e-06	-7.930405e-10	-3.465434e+01	-5.295911e+01
5.300000e-07	-4.954525e-06	-7.755127e-10	-3.451187e+01	-5.283110e+01
5.400000e-07	-4.933705e-06	-8.343418e-10	-3.436685e+01	-5.270177e+01
5.500000e-07	-4.912399e-06	-8.260351e-10	-3.421844e+01	-5.257124e+01
5.600000e-07	-4.890693e-06	-7.747496e-10	-3.406724e+01	-5.243958e+01
5.700000e-07	-4.868742e-06	-7.947767e-10	-3.391433e+01	-5.230689e+01
5.800000e-07	-4.846533e-06	-8.202314e-10	-3.375963e+01	-5.217323e+01
5.900000e-07	-4.824008e-06	-7.851492e-10	-3.360273e+01	-5.203867e+01
6.000000e-07	-4.801152e-06	-7.852397e-10	-3.344352e+01	-5.190326e+01
6.100000e-07	-4.777990e-06	-8.108018e-10	-3.328218e+01	-5.176706e+01
6.200000e-07	-4.754550e-06	-7.847657e-10	-3.311890e+01	-5.163011e+01
6.300000e-07	-4.730919e-06	-7.688369e-10	-3.295429e+01	-5.149242e+01
6.400000e-07	-4.707065e-06	-7.874537e-10	-3.278813e+01	-5.135403e+01
6.500000e-07	-4.682885e-06	-7.834751e-10	-3.261970e+01	-5.121495e+01
6.600000e-07	-4.658241e-06	-7.690206e-10	-3.244804e+01	-5.107518e+01
6.700000e-07	-4.633095e-06	-7.864969e-10	-3.227288e+01	-5.093471e+01
6.800000e-07	-4.607371e-06	-7.867779e-10	-3.209369e+01	-5.079355e+01
6.900000e-07	-4.581050e-06	-7.724480e-10	-3.191035e+01	-5.065167e+01
7.000000e-07	-4.554356e-06	-7.743823e-10	-3.172441e+01	-5.050907e+01
7.100000e-07	-4.527268e-06	-7.781575e-10	-3.153572e+01	-5.036570e+01
7.200000e-07	-4.499829e-06	-7.621900e-10	-3.134458e+01	-5.022154e+01
7.300000e-07	-4.472221e-06	-7.617442e-10	-3.115228e+01	-5.007656e+01
7.400000e-07	-4.444389e-06	-7.651916e-10	-3.095840e+01	-4.993071e+01
7.500000e-07	-4.416387e-06	-7.615156e-10	-3.076335e+01	-4.978397e+01
7.600000e-07	-4.388267e-06	-7.568650e-10	-3.056748e+01	-4.963629e+01
7.700000e-07	-4.359844e-06	-7.596270e-10	-3.036949e+01	-4.948762e+01
7.800000e-07	-4.331016e-06	-7.454470e-10	-3.016868e+01	-4.933793e+01
7.900000e-07	-4.301853e-06	-7.381161e-10	-2.996554e+01	-4.918716e+01
8.000000e-07	-4.272411e-06	-7.378194e-10	-2.976046e+01	-4.903528e+01
8.100000e-07	-4.242661e-06	-7.323150e-10	-2.955322e+01	-4.888224e+01
8.200000e-07	-4.212564e-06	-7.263476e-10	-2.934357e+01	-4.872799e+01
8.300000e-07	-4.182209e-06	-7.350967e-10	-2.913213e+01	-4.857249e+01
8.400000e-07	-4.151588e-06	-7.377264e-10	-2.891884e+01	-4.841570e+01
8.500000e-07	-4.120611e-06	-7.260286e-10	-2.870306e+01	-4.825758e+01
8.600000e-07	-4.089389e-06	-7.182242e-10	-2.848557e+01	-4.809809e+01
8.700000e-07	-4.057997e-06	-7.134852e-10	-2.826690e+01	-4.793719e+01
8.800000e-07	-4.026426e-06	-7.037062e-10	-2.804699e+01	-4.777484e+01
8.900000e-07	-3.994678e-06	-7.036313e-10	-2.782584e+01	-4.761100e+01
9.000000e-07	-3.962712e-06	-7.085816e-10	-2.760317e+01	-4.744563e+01
9.100000e-07	-3.930411e-06	-7.030855e-10	-2.737817e+01	-4.727870e+01
9.200000e-07	-3.897763e-06	-6.968792e-10	-2.715076e+01	-4.711017e+01
9.300000e-07	-3.864818e-06	-6.966724e-10	-2.692127e+01	-4.694000e+01
9.400000e-07	-3.831459e-06	-6.904705e-10	-2.668890e+01	-4.676816e+01
9.500000e-07	-3.797639e-06	-6.810879e-10	-2.645332e+01	-4.659459e+01
9.600000e-07	-3.763405e-06	-6.821927e-10	-2.621485e+01	-4.641927e+01
9.700000e-07	-3.728665e-06	-6.831022e-10	-2.597286e+01	-4.624215e+01
9.800000e-07	-3.693561e-06	-6.793224e-10	-2.572834e+01	-4.606318e+01
9.900000e-07	-3.658260e-06	-6.752842e-10	-2.548244e+01	-4.588231e+01
1.000000e-06	-3.622756e-06	-6.740945e-10	-2.523513e+01	-4.569949e+01
1.010000e-06	-3.587091e-06	-6.676482e-10	-2.498670e+01	-4.551467e+01
1.020000e-06	-3.551285e-06	-6.650904e-10	-2.473728e+01	-4.532778e+01
1.030000e-06	-3.515334e-06	-6.644467e-10	-2.448686e+01	-4.513877e+01
1.040000e-06	-3.479189e-06	-6.618148e-10	-2.423508e+01	-4.494755e+01
1.050000e-06	-3.442802e-06	-6.559659e-10	-2.398162e+01	-4.475407e+01
1.060000e-06	-3.406165e-06	-6.522791e-10	-2.372642e+01	-4.455823e+01
1.070000e-06	-3.369260e-06	-6.480531e-10	-2.346935e+01	-4.435997e+01
1.080000e-06	-3.332126e-06	-6.433918e-10	-2.321068e+01	-4.415918e+01
1.090000e-06	-3.294741e-06	-6.404168e-10	-2.295027e+01	-4.395578e+01
1.100000e-06	-3.257052e-06	-6.402272e-10	-2.268774e+01	-4.374966e+01
1.110000e-06	-3.219143e-06	-6.363441e-10	-2.242367e+01	-4.354072e+01
1.120000e-06	-3.180973e-06	-6.330466e-10	-2.215780e+01	-4.332886e+01
1.130000e-06	-3.142650e-06	-6.301874e-10	-2.189085e+01	-4.311395e+01
1.140000e-06	-3.104231e-06	-6.258371e-10	-2.162323e+01	-4.289588e+01
1.150000e-06	-3.065559e-06	-6.186402e-10	-2.135385e+01	-4.267453e+01
1.160000e-06	-3.026694e-06	-6.139074e-10	-2.108312e+01	-4.244976e+01
1.170000e-06	-2.987582e-06	-6.117772e-10	-2.081068e+01	-4.222145e+01
1.180000e-06	-2.948152e-06	-6.099905e-10	-2.053602e+01	-4.198946e+01
1.190000e-06	-2.908539e-06	-6.077309e-10	-2.026009e+01	-4.175366e+01
1.200000e-06	-2.868863e-06	-6.036659e-10	-1.998372e+01	-4.151389e+01
1.210000e-06	-2.829118e-06	-5.974185e-10	-1.970687e+01	-4.127003e+01
1.220000e-06	-2.789271e-06	-5.909558e-10	-1.942930e+01	-4.102192e+01
1.230000e-06	-2.749317e-06	-5.875262e-10	-1.915100e+01	-4.076942e+01
1.240000e-06	-2.709184e-06	-5.829265e-10	-1.887144e+01	-4.051237e+01
1.250000e-06	-2.668811e-06	-5.774926e-10	-1.859021e+01	-4.025063e+01
1.260000e-06	-2.628168e-06	-5.734467e-10	-1.830710e+01	-3.998406e+01
1.270000e-06	-2.587352e-06	-5.700404e-10	-1.802279e+01	-3.971249e+01
1.280000e-06	-2.546331e-06	-5.649926e-10	-1.773705e+01	-3.943577e+01
1.290000e-06	-2.504996e-06	-5.605749e-10	-1.744912e+01	-3.915376e+01
1.300000e-06	-2.463386e-06	-5.567039e-10	-1.715928e+01	-3.886631e+01
1.310000e-06	-2.421391e-06	-5.527576e-10	-1.686675e+01	-3.857325e+01
1.320000e-06	-2.378992e-06	-5.477825e-10	-1.657141e+01	-3.827444e+01
1.330000e-06	-2.336319e-06	-5.433681e-10	-1.627416e+01	-3.796973e+01
1.340000e-06	-2.293410e-06	-5.386994e-10	-1.597527e+01	-3.765897e+01
1.350000e-06	-2.250341e-06	-5.344913e-10	-1.567526e+01	-3.734199e+01
1.360000e-06	-2.207091e-06	-5.311320e-10	-1.537400e+01	-3.701865e+01
1.370000e-06	-2.163630e-06	-5.294697e-10	-1.507126e+01	-3.668879e+01
1.380000e-06	-2.120049e-06	-5.270958e-10	-1.476769e+01	-3.635225e+01
1.390000e-06	-2.076436e-06	-5.231850e-10	-1.446389e+01	-3.600887e+01
1.400000e-06	-2.032752e-06	-5.172529e-10	-1.415960e+01	-3.565850e+01
1.410000e-06	-1.988959e-06	-5.113674e-10	-1.385455e+01	-3.530097e+01
1.420000e-06	-1.945084e-06	-5.045399e-10	-1.354893e+01	-3.493611e+01
1.430000e-06	-1.901101e-06	-4.981340e-10	-1.324255e+01	-3.456375e+01
1.440000e-06	-1.857004e-06	-4.917174e-10	-1.293538e+01	-3.418372e+01
1.450000e-06	-1.812840e-06	-4.844655e-10	-1.262775e+01	-3.379583e+01
1.460000e-06	-1.768624e-06	-4.781799e-10	-1.231976e+01	-3.339991e+01
1.470000e-06	-1.724326e-06	-4.731309e-10	-1.201118e+01	-3.299575e+01
1.480000e-06	-1.679824e-06	-4.667751e-10	-1.170120e+01	-3.258317e+01
1.490000e-06	-1.635118e-06	-4.597891e-10	-1.138979e+01	-3.216196e+01
1.500000e-06	-1.590260e-06	-4.541667e-10	-1.107732e+01	-3.173192e+01
1.510000e-06	-1.545274e-06	-4.496812e-10	-1.076396e+01	-3.129282e+01
1.520000e-06	-1.500243e-06	-4.432610e-10	-1.045029e+01	-3.084445e+01
1.530000e-06	-1.455105e-06	-4.347767e-10	-1.013587e+01	-3.038657e+01
1.540000e-06	-1.409895e-06	-4.248373e-10	-9.820942e+00	-2.991896e+01
1.550000e-06	-1.364634e-06	-4.141042e-10	-9.505668e+00	-2.944137e+01
1.560000e-06	-1.319244e-06	-4.056722e-10	-9.189493e+00	-2.895355e+01
1.570000e-06	-1.273748e-06	-3.984495e-10	-8.872585e+00	-2.845526e+01
1.580000e-06	-1.228210e-06	-3.906573e-10	-8.555376e+00	-2.794623e+01
1.590000e-06	-1.182580e-06	-3.837363e-10	-8.237528e+00	-2.742621e+01
1.600000e-06	-1.136821e-06	-3.783230e-10	-7.918787e+00	-2.689494e+01
1.610000e-06	-1.090974e-06	-3.708607e-10	-7.599431e+00	-2.635214e+01
1.620000e-06	-1.045007e-06	-3.615249e-10	-7.279234e+00	-2.579757e+01
1.630000e-06	-9.989075e-07	-3.533051e-10	-6.958118e+00	-2.523095e+01
1.640000e-06	-9.527424e-07	-3.474028e-10	-6.636545e+00	-2.465202e+01
1.650000e-06	-9.065834e-07	-3.406463e-10	-6.315013e+00	-2.406053e+01
1.660000e-06	-8.604350e-07	-3.319990e-10	-5.993557e+00	-2.345624e+01
1.670000e-06	-8.142209e-07	-3.207667e-10	-5.671642e+00	-2.283889e+01
1.680000e-06	-7.678821e-07	-3.082251e-10	-5.348858e+00	-2.220825e+01
1.690000e-06	-7.215131e-07	-2.955433e-10	-5.025864e+00	-2.156412e+01
1.700000e-06	-6.750988e-07	-2.844018e-10	-4.702555e+00	-2.090627e+01
1.710000e-06	-6.286067e-07	-2.752635e-10	-4.378704e+00	-2.023454e+01
1.720000e-06	-5.822010e-07	-2.666357e-10	-4.055454e+00	-1.954873e+01
1.730000e-06	-5.357748e-07	-2.546996e-10	-3.732062e+00	-1.884871e+01
1.740000e-06	-4.892473e-07	-2.413431e-10	-3.407963e+00	-1.813436e+01
1.750000e-06	-4.426697e-07	-2.285436e-10	-3.083517e+00	-1.740557e+01
1.760000e-06	-3.960352e-07	-2.165608e-10	-2.758673e+00	-1.666226e+01
1.770000e-06	-3.493699e-07	-2.068367e-10	-2.433616e+00	-1.590441e+01
1.780000e-06	-3.026572e-07	-1.990317e-10	-2.108227e+00	-1.513200e+01
1.790000e-06	-2.559315e-07	-1.905757e-10	-1.782749e+00	-1.434505e+01
1.800000e-06	-2.092532e-07	-1.784764e-10	-1.457601e+00	-1.354362e+01
1.810000e-06	-1.625702e-07	-1.656922e-10	-1.132420e+00	-1.272782e+01
1.820000e-06	-1.157948e-07	-1.540731e-10	-8.065949e-01	-1.189777e+01
1.830000e-06	-6.905296e-08	-1.432168e-10	-4.810042e-01	-1.105367e+01
1.840000e-06	-2.237547e-08	-1.323451e-10	-1.558615e-01	-1.019572e+01
1.850000e-06	2.431760e-08	-1.194410e-10	1.693898e-01	-9.324185e+00
1.860000e-06	7.099916e-08	-1.055808e-10	4.945608e-01	-8.439375e+00
1.870000e-06	1.176430e-07	-9.321783e-11	8.194690e-01	-7.541636e+00
1.880000e-06	1.643245e-07	-8.131441e-11	1.144640e+00	-6.631361e+00
1.890000e-06	2.110670e-07	-6.813796e-11	1.470235e+00	-5.708986e+00
1.900000e-06	2.577339e-07	-5.512165e-11	1.795304e+00	-4.774992e+00
1.910000e-06	3.043800e-07	-4.253504e-11	2.120228e+00	-3.829902e+00
1.920000e-06	3.510247e-07	-2.927883e-11	2.445143e+00	-2.874280e+00
1.930000e-06	3.976341e-07	-1.611989e-11	2.769811e+00	-1.908734e+00
1.940000e-06	4.441958e-07	-2.292570e-12	3.094147e+00	-9.339091e-01
1.950000e-06	4.906788e-07	1.130580e-11	3.417935e+00	4.951062e-02
1.960000e-06	5.370827e-07	2.501645e-11	3.741172e+00	1.040805e+00
1.970000e-06	5.834855e-07	3.873765e-11	4.064401e+00	2.039220e+00
1.980000e-06	6.298839e-07	5.130659e-11	4.387600e+00	3.043971e+00
1.990000e-06	6.762144e-07	6.451988e-11	4.710326e+00	4.054244e+00
2.000000e-06	7.225121e-07	7.775416e-11	5.032823e+00	5.069198e+00
2.010000e-06	7.687754e-07	9.332120e-11	5.355081e+00	6.087971e+00
2.020000e-06	8.149709e-07	1.124257e-10	5.676866e+00	7.109680e+00
2.030000e-06	8.611064e-07	1.304407e-10	5.998233e+00	8.133425e+00
2.040000e-06	9.072765e-07	1.472907e-10	6.319842e+00	9.158296e+00
2.050000e-06	9.533565e-07	1.604952e-10	6.640822e+00	1.018337e+01
2.060000e-06	9.993077e-07	1.722623e-10	6.960906e+00	1.120772e+01
2.070000e-06	1.045195e-06	1.857815e-10	7.280541e+00	1.223042e+01
2.080000e-06	1.091019e-06	2.016201e-10	7.599745e+00	1.325054e+01
2.090000e-06	1.136795e-06	2.176429e-10	7.918605e+00	1.426716e+01
2.100000e-06	1.182441e-06	2.350631e-10	8.236560e+00	1.527937e+01
2.110000e-06	1.227963e-06	2.521562e-10	8.553660e+00	1.628626e+01
2.120000e-06	1.273425e-06	2.657474e-10	8.870336e+00	1.728696e+01
2.130000e-06	1.318777e-06	2.795983e-10	9.186241e+00	1.828060e+01
2.140000e-06	1.364007e-06	2.931180e-10	9.501299e+00	1.926635e+01
2.150000e-06	1.409186e-06	3.067811e-10	9.816007e+00	2.024337e+01
2.160000e-06	1.454260e-06	3.221246e-10	1.012998e+01	2.121091e+01
2.170000e-06	1.499117e-06	3.361424e-10	1.044244e+01	2.216819e+01
2.180000e-06	1.543942e-06	3.494098e-10	1.075468e+01	2.311450e+01
2.190000e-06	1.588751e-06	3.616700e-10	1.106681e+01	2.404917e+01
2.200000e-06	1.633383e-06	3.717497e-10	1.137770e+01	2.497154e+01
2.210000e-06	1.677871e-06	3.830012e-10	1.168759e+01	2.588103e+01
2.220000e-06	1.722227e-06	3.954724e-10	1.199656e+01	2.677706e+01
2.230000e-06	1.766474e-06	4.107303e-10	1.230478e+01	2.765912e+01
2.240000e-06	1.810611e-06	4.240537e-10	1.261222e+01	2.852675e+01
2.250000e-06	1.854608e-06	4.350560e-10	1.291869e+01	2.937952e+01
2.260000e-06	1.898479e-06	4.435643e-10	1.322429e+01	3.021705e+01
2.270000e-06	1.942300e-06	4.535659e-10	1.352953e+01	3.103901e+01
2.280000e-06	1.986104e-06	4.668311e-10	1.383466e+01	3.184510e+01
2.290000e-06	2.029874e-06	4.800211e-10	1.413955e+01	3.263509e+01
2.300000e-06	2.073614e-06	4.928493e-10	1.444423e+01	3.340878e+01
2.310000e-06	2.117328e-06	5.050587e-10	1.474873e+01	3.416602e+01
2.320000e-06	2.160968e-06	5.154658e-10	1.505272e+01	3.490670e+01
2.330000e-06	2.204509e-06	5.244995e-10	1.535601e+01	3.563074e+01
2.340000e-06	2.247899e-06	5.349025e-10	1.565825e+01	3.633812e+01
2.350000e-06	2.291060e-06	5.484622e-10	1.595890e+01	3.702884e+01
2.360000e-06	2.333913e-06	5.613010e-10	1.625741e+01	3.770296e+01
2.370000e-06	2.376467e-06	5.707057e-10	1.655382e+01	3.836054e+01
2.380000e-06	2.418794e-06	5.785011e-10	1.684866e+01	3.900171e+01
2.390000e-06	2.460766e-06	5.845084e-10	1.714103e+01	3.962659e+01
2.400000e-06	2.502344e-06	5.902493e-10	1.743065e+01	4.023536e+01
2.410000e-06	2.543505e-06	5.971124e-10	1.771737e+01	4.082822e+01
2.420000e-06	2.584362e-06	6.059178e-10	1.800196e+01	4.140536e+01
2.430000e-06	2.625108e-06	6.177085e-10	1.828579e+01	4.196704e+01
2.440000e-06	2.665582e-06	6.314102e-10	1.856772e+01	4.251349e+01
2.450000e-06	2.705763e-06	6.406322e-10	1.884761e+01	4.304500e+01
2.460000e-06	2.745792e-06	6.467512e-10	1.912644e+01	4.356183e+01
2.470000e-06	2.785706e-06	6.535421e-10	1.940447e+01	4.406427e+01
2.480000e-06	2.825534e-06	6.608557e-10	1.968190e+01	4.455263e+01
2.490000e-06	2.865310e-06	6.692194e-10	1.995897e+01	4.502721e+01
2.500000e-06	2.904941e-06	6.780740e-10	2.023503e+01	4.548832e+01
2.510000e-06	2.944375e-06	6.864177e-10	2.050972e+01	4.593626e+01
2.520000e-06	2.983654e-06	6.947882e-10	2.078332e+01	4.637135e+01
2.530000e-06	3.022750e-06	7.010952e-10	2.105566e+01	4.679390e+01
2.540000e-06	3.061499e-06	7.061691e-10	2.132557e+01	4.720421e+01
2.550000e-06	3.100022e-06	7.103371e-10	2.159391e+01	4.760258e+01
2.560000e-06	3.138452e-06	7.143244e-10	2.186160e+01	4.798933e+01
2.570000e-06	3.176636e-06	7.196531e-10	2.212758e+01	4.836473e+01
2.580000e-06	3.214612e-06	7.255807e-10	2.239211e+01	4.872908e+01
2.590000e-06	3.252466e-06	7.306824e-10	2.265579e+01	4.908265e+01
2.600000e-06	3.290173e-06	7.352150e-10	2.291845e+01	4.942571e+01
2.610000e-06	3.327628e-06	7.390125e-10	2.317935e+01	4.975854e+01
2.620000e-06	3.364800e-06	7.405770e-10	2.343828e+01	5.008138e+01
2.630000e-06	3.401653e-06	7.414460e-10	2.369499e+01	5.039448e+01
2.640000e-06	3.438199e-06	7.445971e-10	2.394956e+01	5.069808e+01
2.650000e-06	3.474512e-06	7.515474e-10	2.420250e+01	5.099242e+01
2.660000e-06	3.510596e-06	7.586736e-10	2.445386e+01	5.127771e+01
2.670000e-06	3.546519e-06	7.627525e-10	2.470408e+01	5.155418e+01
2.680000e-06	3.582344e-06	7.647811e-10	2.495364e+01	5.182203e+01
2.690000e-06	3.618037e-06	7.662152e-10	2.520226e+01	5.208147e+01
2.700000e-06	3.653519e-06	7.678613e-10	2.544942e+01	5.233271e+01
2.710000e-06	3.688858e-06	7.708109e-10	2.569558e+01	5.257592e+01
2.720000e-06	3.724000e-06	7.753651e-10	2.594037e+01	5.281131e+01
2.730000e-06	3.758793e-06	7.800974e-10	2.618273e+01	5.303905e+01
2.740000e-06	3.793180e-06	7.845940e-10	2.642226e+01	5.325934e+01
2.750000e-06	3.827083e-06	7.879765e-10	2.665842e+01	5.347234e+01
2.760000e-06	3.860462e-06	7.883699e-10	2.689093e+01	5.367825e+01
2.770000e-06	3.893370e-06	7.889937e-10	2.712016e+01	5.387723e+01
2.780000e-06	3.925896e-06	7.912345e-10	2.734672e+01	5.406946e+01
2.790000e-06	3.958148e-06	7.941357e-10	2.757138e+01	5.425511e+01
2.800000e-06	3.990194e-06	7.983801e-10	2.779461e+01	5.443435e+01
2.810000e-06	4.022049e-06	8.030958e-10	2.801650e+01	5.460736e+01
2.820000e-06	4.053723e-06	8.074539e-10	2.823713e+01	5.477431e+01
2.830000e-06	4.085185e-06	8.117085e-10	2.845629e+01	5.493536e+01
2.840000e-06	4.116399e-06	8.164960e-10	2.867372e+01	5.509070e+01
2.850000e-06	4.147365e-06	8.218455e-10	2.888942e+01	5.524048e+01
2.860000e-06	4.178016e-06	8.246380e-10	2.910293e+01	5.538488e+01
2.870000e-06	4.208281e-06	8.253598e-10	2.931374e+01	5.552406e+01
2.880000e-06	4.238256e-06	8.259036e-10	2.952254e+01	5.565819e+01
2.890000e-06	4.267963e-06	8.274364e-10	2.972947e+01	5.578744e+01
2.900000e-06	4.297428e-06	8.313131e-10	2.993472e+01	5.591195e+01
