# Temperatura_=_-0.6
# Concentracion g/m^3_=_1620.0
# C_Vs_to_Am_M_A/Vsm_=_65563218390.804596
# pendiente_HvsI_1/m_=_3716.3
# ordenada_HvsI_A/m_=_1297.0
# frecuencia_Hz_=_135096.51827967557

Tiempo_(s)	Campo_(V.s)	Magnetizacion_(V.s)	Campo_(kA/m)	Magnetizacion_(A/m)
0.000000e+00	-5.516593e-06	-1.367160e-09	-3.836573e+01	-9.044329e+01
1.000000e-08	-5.516830e-06	-1.362925e-09	-3.836738e+01	-9.038963e+01
2.000000e-08	-5.516793e-06	-1.361495e-09	-3.836713e+01	-9.033361e+01
3.000000e-08	-5.516361e-06	-1.362224e-09	-3.836412e+01	-9.027517e+01
4.000000e-08	-5.515296e-06	-1.356409e-09	-3.835671e+01	-9.021428e+01
5.000000e-08	-5.513535e-06	-1.341043e-09	-3.834446e+01	-9.015088e+01
6.000000e-08	-5.511360e-06	-1.333678e-09	-3.832934e+01	-9.008492e+01
7.000000e-08	-5.508662e-06	-1.356717e-09	-3.831058e+01	-9.001637e+01
8.000000e-08	-5.505355e-06	-1.400837e-09	-3.828758e+01	-8.994519e+01
9.000000e-08	-5.501709e-06	-1.419793e-09	-3.826222e+01	-8.987134e+01
1.000000e-07	-5.497628e-06	-1.415836e-09	-3.823383e+01	-8.979478e+01
1.100000e-07	-5.493169e-06	-1.343393e-09	-3.820283e+01	-8.971549e+01
1.200000e-07	-5.488550e-06	-1.301058e-09	-3.817070e+01	-8.963345e+01
1.300000e-07	-5.483694e-06	-1.317098e-09	-3.813693e+01	-8.954863e+01
1.400000e-07	-5.478482e-06	-1.359899e-09	-3.810068e+01	-8.946103e+01
1.500000e-07	-5.472792e-06	-1.344123e-09	-3.806112e+01	-8.937064e+01
1.600000e-07	-5.466715e-06	-1.325611e-09	-3.801885e+01	-8.927746e+01
1.700000e-07	-5.460303e-06	-1.329413e-09	-3.797426e+01	-8.918149e+01
1.800000e-07	-5.453518e-06	-1.384493e-09	-3.792707e+01	-8.908273e+01
1.900000e-07	-5.446351e-06	-1.355276e-09	-3.787723e+01	-8.898120e+01
2.000000e-07	-5.438830e-06	-1.305643e-09	-3.782492e+01	-8.887691e+01
2.100000e-07	-5.431034e-06	-1.275379e-09	-3.777070e+01	-8.876988e+01
2.200000e-07	-5.423025e-06	-1.321077e-09	-3.771500e+01	-8.866014e+01
2.300000e-07	-5.414631e-06	-1.336872e-09	-3.765663e+01	-8.854771e+01
2.400000e-07	-5.405729e-06	-1.308934e-09	-3.759471e+01	-8.843261e+01
2.500000e-07	-5.396248e-06	-1.298320e-09	-3.752878e+01	-8.831486e+01
2.600000e-07	-5.386031e-06	-1.306150e-09	-3.745773e+01	-8.819450e+01
2.700000e-07	-5.375261e-06	-1.305922e-09	-3.738282e+01	-8.807155e+01
2.800000e-07	-5.364047e-06	-1.285837e-09	-3.730484e+01	-8.794603e+01
2.900000e-07	-5.352404e-06	-1.300590e-09	-3.722386e+01	-8.781796e+01
3.000000e-07	-5.340453e-06	-1.292117e-09	-3.714075e+01	-8.768736e+01
3.100000e-07	-5.328123e-06	-1.300118e-09	-3.705499e+01	-8.755423e+01
3.200000e-07	-5.315381e-06	-1.284038e-09	-3.696638e+01	-8.741860e+01
3.300000e-07	-5.302272e-06	-1.299269e-09	-3.687521e+01	-8.728045e+01
3.400000e-07	-5.288715e-06	-1.283446e-09	-3.678093e+01	-8.713979e+01
3.500000e-07	-5.274704e-06	-1.306180e-09	-3.668349e+01	-8.699659e+01
3.600000e-07	-5.260270e-06	-1.291812e-09	-3.658310e+01	-8.685085e+01
3.700000e-07	-5.245438e-06	-1.289963e-09	-3.647996e+01	-8.670253e+01
3.800000e-07	-5.230045e-06	-1.282302e-09	-3.637290e+01	-8.655160e+01
3.900000e-07	-5.214062e-06	-1.298598e-09	-3.626175e+01	-8.639802e+01
4.000000e-07	-5.197737e-06	-1.280551e-09	-3.614821e+01	-8.624173e+01
4.100000e-07	-5.181064e-06	-1.282209e-09	-3.603226e+01	-8.608267e+01
4.200000e-07	-5.164066e-06	-1.292498e-09	-3.591404e+01	-8.592077e+01
4.300000e-07	-5.146795e-06	-1.283354e-09	-3.579393e+01	-8.575596e+01
4.400000e-07	-5.129069e-06	-1.267447e-09	-3.567066e+01	-8.558816e+01
4.500000e-07	-5.110864e-06	-1.292277e-09	-3.554405e+01	-8.541726e+01
4.600000e-07	-5.092279e-06	-1.290930e-09	-3.541480e+01	-8.524318e+01
4.700000e-07	-5.073409e-06	-1.261729e-09	-3.528356e+01	-8.506582e+01
4.800000e-07	-5.054257e-06	-1.273276e-09	-3.515037e+01	-8.488505e+01
4.900000e-07	-5.034830e-06	-1.294212e-09	-3.501526e+01	-8.470079e+01
5.000000e-07	-5.015166e-06	-1.262118e-09	-3.487850e+01	-8.451290e+01
5.100000e-07	-4.995244e-06	-1.245057e-09	-3.473996e+01	-8.432128e+01
5.200000e-07	-4.974975e-06	-1.275970e-09	-3.459899e+01	-8.412580e+01
5.300000e-07	-4.954334e-06	-1.265071e-09	-3.445544e+01	-8.392637e+01
5.400000e-07	-4.933440e-06	-1.246039e-09	-3.431013e+01	-8.372285e+01
5.500000e-07	-4.912186e-06	-1.266058e-09	-3.416232e+01	-8.351514e+01
5.600000e-07	-4.890591e-06	-1.267219e-09	-3.401213e+01	-8.330314e+01
5.700000e-07	-4.868658e-06	-1.229423e-09	-3.385960e+01	-8.308675e+01
5.800000e-07	-4.846360e-06	-1.243461e-09	-3.370453e+01	-8.286588e+01
5.900000e-07	-4.823717e-06	-1.255933e-09	-3.354705e+01	-8.264044e+01
6.000000e-07	-4.800685e-06	-1.229211e-09	-3.338687e+01	-8.241035e+01
6.100000e-07	-4.777409e-06	-1.218683e-09	-3.322500e+01	-8.217556e+01
6.200000e-07	-4.753950e-06	-1.241081e-09	-3.306185e+01	-8.193601e+01
6.300000e-07	-4.730241e-06	-1.220200e-09	-3.289697e+01	-8.169165e+01
6.400000e-07	-4.706225e-06	-1.207763e-09	-3.272994e+01	-8.144247e+01
6.500000e-07	-4.681794e-06	-1.217589e-09	-3.256003e+01	-8.118845e+01
6.600000e-07	-4.656913e-06	-1.211226e-09	-3.238700e+01	-8.092958e+01
6.700000e-07	-4.631595e-06	-1.191376e-09	-3.221092e+01	-8.066588e+01
6.800000e-07	-4.605794e-06	-1.207439e-09	-3.203148e+01	-8.039738e+01
6.900000e-07	-4.579498e-06	-1.204659e-09	-3.184860e+01	-8.012412e+01
7.000000e-07	-4.552734e-06	-1.187915e-09	-3.166247e+01	-7.984615e+01
7.100000e-07	-4.525599e-06	-1.187526e-09	-3.147376e+01	-7.956355e+01
7.200000e-07	-4.498194e-06	-1.191048e-09	-3.128317e+01	-7.927641e+01
7.300000e-07	-4.470608e-06	-1.170202e-09	-3.109132e+01	-7.898481e+01
7.400000e-07	-4.442883e-06	-1.163200e-09	-3.089850e+01	-7.868887e+01
7.500000e-07	-4.414847e-06	-1.164832e-09	-3.070352e+01	-7.838871e+01
7.600000e-07	-4.386472e-06	-1.155500e-09	-3.050619e+01	-7.808446e+01
7.700000e-07	-4.357750e-06	-1.148006e-09	-3.030643e+01	-7.777625e+01
7.800000e-07	-4.328655e-06	-1.150062e-09	-3.010409e+01	-7.746423e+01
7.900000e-07	-4.299335e-06	-1.144017e-09	-2.990018e+01	-7.714855e+01
8.000000e-07	-4.269738e-06	-1.133334e-09	-2.969434e+01	-7.682938e+01
8.100000e-07	-4.239822e-06	-1.127513e-09	-2.948629e+01	-7.650687e+01
8.200000e-07	-4.209628e-06	-1.116207e-09	-2.927630e+01	-7.618117e+01
8.300000e-07	-4.179209e-06	-1.106481e-09	-2.906475e+01	-7.585246e+01
8.400000e-07	-4.148467e-06	-1.104028e-09	-2.885096e+01	-7.552088e+01
8.500000e-07	-4.117342e-06	-1.103991e-09	-2.863449e+01	-7.518659e+01
8.600000e-07	-4.086005e-06	-1.096082e-09	-2.841656e+01	-7.484974e+01
8.700000e-07	-4.054505e-06	-1.093808e-09	-2.819749e+01	-7.451047e+01
8.800000e-07	-4.022856e-06	-1.090494e-09	-2.797738e+01	-7.416890e+01
8.900000e-07	-3.991042e-06	-1.083219e-09	-2.775612e+01	-7.382517e+01
9.000000e-07	-3.958972e-06	-1.070108e-09	-2.753309e+01	-7.347937e+01
9.100000e-07	-3.926593e-06	-1.067193e-09	-2.730791e+01	-7.313159e+01
9.200000e-07	-3.893868e-06	-1.060407e-09	-2.708032e+01	-7.278193e+01
9.300000e-07	-3.860785e-06	-1.056958e-09	-2.685024e+01	-7.243044e+01
9.400000e-07	-3.827244e-06	-1.055320e-09	-2.661697e+01	-7.207716e+01
9.500000e-07	-3.793103e-06	-1.054174e-09	-2.637954e+01	-7.172213e+01
9.600000e-07	-3.758511e-06	-1.041938e-09	-2.613896e+01	-7.136535e+01
9.700000e-07	-3.723606e-06	-1.034544e-09	-2.589622e+01	-7.100682e+01
9.800000e-07	-3.688387e-06	-1.031263e-09	-2.565128e+01	-7.064649e+01
9.900000e-07	-3.652944e-06	-1.027447e-09	-2.540479e+01	-7.028432e+01
1.000000e-06	-3.617353e-06	-1.022155e-09	-2.515726e+01	-6.992025e+01
1.010000e-06	-3.581658e-06	-1.020542e-09	-2.490902e+01	-6.955418e+01
1.020000e-06	-3.545857e-06	-1.016823e-09	-2.466004e+01	-6.918600e+01
1.030000e-06	-3.509848e-06	-1.010321e-09	-2.440961e+01	-6.881559e+01
1.040000e-06	-3.473522e-06	-1.003441e-09	-2.415698e+01	-6.844280e+01
1.050000e-06	-3.436931e-06	-9.968670e-10	-2.390250e+01	-6.806747e+01
1.060000e-06	-3.400101e-06	-9.886728e-10	-2.364636e+01	-6.768942e+01
1.070000e-06	-3.363018e-06	-9.834291e-10	-2.338847e+01	-6.730845e+01
1.080000e-06	-3.325688e-06	-9.791204e-10	-2.312885e+01	-6.692438e+01
1.090000e-06	-3.288079e-06	-9.722760e-10	-2.286729e+01	-6.653696e+01
1.100000e-06	-3.250266e-06	-9.658877e-10	-2.260432e+01	-6.614598e+01
1.110000e-06	-3.212297e-06	-9.598232e-10	-2.234026e+01	-6.575120e+01
1.120000e-06	-3.174130e-06	-9.521910e-10	-2.207483e+01	-6.535236e+01
1.130000e-06	-3.135648e-06	-9.411423e-10	-2.180720e+01	-6.494923e+01
1.140000e-06	-3.096896e-06	-9.334137e-10	-2.153769e+01	-6.454154e+01
1.150000e-06	-3.058037e-06	-9.221139e-10	-2.126744e+01	-6.412904e+01
1.160000e-06	-3.019002e-06	-9.141861e-10	-2.099597e+01	-6.371147e+01
1.170000e-06	-2.979830e-06	-9.094912e-10	-2.072354e+01	-6.328856e+01
1.180000e-06	-2.940549e-06	-9.082420e-10	-2.045036e+01	-6.286006e+01
1.190000e-06	-2.901085e-06	-9.035936e-10	-2.017590e+01	-6.242573e+01
1.200000e-06	-2.861422e-06	-8.961167e-10	-1.990006e+01	-6.198530e+01
1.210000e-06	-2.821613e-06	-8.861269e-10	-1.962321e+01	-6.153853e+01
1.220000e-06	-2.781622e-06	-8.746989e-10	-1.934509e+01	-6.108519e+01
1.230000e-06	-2.741387e-06	-8.635925e-10	-1.906526e+01	-6.062506e+01
1.240000e-06	-2.701031e-06	-8.564440e-10	-1.878460e+01	-6.015790e+01
1.250000e-06	-2.660505e-06	-8.525884e-10	-1.850276e+01	-5.968350e+01
1.260000e-06	-2.619714e-06	-8.495286e-10	-1.821908e+01	-5.920167e+01
1.270000e-06	-2.578693e-06	-8.432494e-10	-1.793379e+01	-5.871221e+01
1.280000e-06	-2.537414e-06	-8.363104e-10	-1.764671e+01	-5.821493e+01
1.290000e-06	-2.495827e-06	-8.254566e-10	-1.735750e+01	-5.770966e+01
1.300000e-06	-2.453928e-06	-8.132746e-10	-1.706610e+01	-5.719623e+01
1.310000e-06	-2.411767e-06	-8.014504e-10	-1.677289e+01	-5.667448e+01
1.320000e-06	-2.369328e-06	-7.925977e-10	-1.647774e+01	-5.614426e+01
1.330000e-06	-2.326641e-06	-7.841925e-10	-1.618087e+01	-5.560541e+01
1.340000e-06	-2.283738e-06	-7.755377e-10	-1.588250e+01	-5.505781e+01
1.350000e-06	-2.240670e-06	-7.681085e-10	-1.558298e+01	-5.450130e+01
1.360000e-06	-2.197432e-06	-7.595628e-10	-1.528228e+01	-5.393576e+01
1.370000e-06	-2.153994e-06	-7.516405e-10	-1.498018e+01	-5.336104e+01
1.380000e-06	-2.110475e-06	-7.425281e-10	-1.467752e+01	-5.277702e+01
1.390000e-06	-2.066859e-06	-7.319165e-10	-1.437419e+01	-5.218356e+01
1.400000e-06	-2.023181e-06	-7.216137e-10	-1.407043e+01	-5.158052e+01
1.410000e-06	-1.979454e-06	-7.116193e-10	-1.376632e+01	-5.096775e+01
1.420000e-06	-1.935574e-06	-7.022277e-10	-1.346115e+01	-5.034510e+01
1.430000e-06	-1.891575e-06	-6.940064e-10	-1.315516e+01	-4.971240e+01
1.440000e-06	-1.847486e-06	-6.852228e-10	-1.284854e+01	-4.906950e+01
1.450000e-06	-1.803295e-06	-6.751573e-10	-1.254121e+01	-4.841620e+01
1.460000e-06	-1.758960e-06	-6.632725e-10	-1.223287e+01	-4.775232e+01
1.470000e-06	-1.714496e-06	-6.515250e-10	-1.192364e+01	-4.707763e+01
1.480000e-06	-1.669982e-06	-6.396620e-10	-1.161407e+01	-4.639194e+01
1.490000e-06	-1.625295e-06	-6.291795e-10	-1.130329e+01	-4.569499e+01
1.500000e-06	-1.580420e-06	-6.185281e-10	-1.099120e+01	-4.498653e+01
1.510000e-06	-1.535421e-06	-6.094557e-10	-1.067825e+01	-4.426630e+01
1.520000e-06	-1.490285e-06	-6.007592e-10	-1.036434e+01	-4.353401e+01
1.530000e-06	-1.445085e-06	-5.893432e-10	-1.005000e+01	-4.278936e+01
1.540000e-06	-1.399801e-06	-5.720556e-10	-9.735064e+00	-4.203203e+01
1.550000e-06	-1.354423e-06	-5.551842e-10	-9.419478e+00	-4.126169e+01
1.560000e-06	-1.308969e-06	-5.405881e-10	-9.103364e+00	-4.047800e+01
1.570000e-06	-1.263413e-06	-5.272760e-10	-8.786543e+00	-3.968060e+01
1.580000e-06	-1.217767e-06	-5.170886e-10	-8.469090e+00	-3.886911e+01
1.590000e-06	-1.172062e-06	-5.099663e-10	-8.151229e+00	-3.804317e+01
1.600000e-06	-1.126267e-06	-4.984940e-10	-7.832746e+00	-3.720237e+01
1.610000e-06	-1.080315e-06	-4.814505e-10	-7.513167e+00	-3.634634e+01
1.620000e-06	-1.034341e-06	-4.661941e-10	-7.193436e+00	-3.547467e+01
1.630000e-06	-9.883582e-07	-4.538234e-10	-6.873642e+00	-3.458698e+01
1.640000e-06	-9.422590e-07	-4.405037e-10	-6.553040e+00	-3.368287e+01
1.650000e-06	-8.960703e-07	-4.253779e-10	-6.231816e+00	-3.276196e+01
1.660000e-06	-8.498260e-07	-4.109939e-10	-5.910205e+00	-3.182388e+01
1.670000e-06	-8.034514e-07	-3.956300e-10	-5.587688e+00	-3.086826e+01
1.680000e-06	-7.570865e-07	-3.806835e-10	-5.265238e+00	-2.989476e+01
1.690000e-06	-7.108050e-07	-3.669885e-10	-4.943369e+00	-2.890305e+01
1.700000e-06	-6.643992e-07	-3.530784e-10	-4.620635e+00	-2.789284e+01
1.710000e-06	-6.178717e-07	-3.382267e-10	-4.297055e+00	-2.686386e+01
1.720000e-06	-5.713065e-07	-3.217761e-10	-3.973212e+00	-2.581585e+01
1.730000e-06	-5.247566e-07	-3.017334e-10	-3.649476e+00	-2.474863e+01
1.740000e-06	-4.781428e-07	-2.802179e-10	-3.325295e+00	-2.366202e+01
1.750000e-06	-4.314426e-07	-2.627922e-10	-3.000513e+00	-2.255589e+01
1.760000e-06	-3.847577e-07	-2.494348e-10	-2.675838e+00	-2.143018e+01
1.770000e-06	-3.381117e-07	-2.363004e-10	-2.351434e+00	-2.028484e+01
1.780000e-06	-2.913201e-07	-2.231841e-10	-2.026017e+00	-1.911990e+01
1.790000e-06	-2.444531e-07	-2.101282e-10	-1.700075e+00	-1.793543e+01
1.800000e-06	-1.976537e-07	-1.938456e-10	-1.374603e+00	-1.673158e+01
1.810000e-06	-1.508008e-07	-1.739687e-10	-1.048760e+00	-1.550852e+01
1.820000e-06	-1.039060e-07	-1.554923e-10	-7.226254e-01	-1.426650e+01
1.830000e-06	-5.700079e-08	-1.398033e-10	-3.964180e-01	-1.300584e+01
1.840000e-06	-1.013134e-08	-1.244464e-10	-7.045945e-02	-1.172692e+01
1.850000e-06	3.668742e-08	-1.076612e-10	2.551466e-01	-1.043016e+01
1.860000e-06	8.357827e-08	-9.157698e-11	5.812539e-01	-9.116080e+00
1.870000e-06	1.304336e-07	-7.355861e-11	9.071146e-01	-7.785231e+00
1.880000e-06	1.771818e-07	-5.342234e-11	1.232230e+00	-6.438243e+00
1.890000e-06	2.240143e-07	-3.252118e-11	1.557931e+00	-5.075806e+00
1.900000e-06	2.708086e-07	-1.231449e-11	1.883367e+00	-3.698667e+00
1.910000e-06	3.175490e-07	6.762009e-12	2.208428e+00	-2.307635e+00
1.920000e-06	3.642738e-07	2.577714e-11	2.533381e+00	-9.035719e-01
1.930000e-06	4.109433e-07	4.347723e-11	2.857949e+00	5.126037e-01
1.940000e-06	4.575930e-07	6.258649e-11	3.182379e+00	1.939924e+00
1.950000e-06	5.042147e-07	8.343190e-11	3.506614e+00	3.377373e+00
1.960000e-06	5.507837e-07	1.042654e-10	3.830484e+00	4.823891e+00
1.970000e-06	5.972856e-07	1.247096e-10	4.153886e+00	6.278378e+00
1.980000e-06	6.438514e-07	1.446572e-10	4.477733e+00	7.739699e+00
1.990000e-06	6.903317e-07	1.658724e-10	4.800985e+00	9.206685e+00
2.000000e-06	7.366049e-07	1.854372e-10	5.122797e+00	1.067814e+01
2.010000e-06	7.828252e-07	2.061268e-10	5.444241e+00	1.215285e+01
2.020000e-06	8.289858e-07	2.292592e-10	5.765270e+00	1.362959e+01
2.030000e-06	8.751728e-07	2.525378e-10	6.086482e+00	1.510709e+01
2.040000e-06	9.214164e-07	2.741732e-10	6.408088e+00	1.658412e+01
2.050000e-06	9.675234e-07	2.938982e-10	6.728744e+00	1.805942e+01
2.060000e-06	1.013441e-06	3.135372e-10	7.048086e+00	1.953172e+01
2.070000e-06	1.059251e-06	3.332803e-10	7.366674e+00	2.099980e+01
2.080000e-06	1.105077e-06	3.539735e-10	7.685375e+00	2.246242e+01
2.090000e-06	1.150873e-06	3.754826e-10	8.003868e+00	2.391836e+01
2.100000e-06	1.196544e-06	3.973581e-10	8.321492e+00	2.536643e+01
2.110000e-06	1.242088e-06	4.163398e-10	8.638234e+00	2.680548e+01
2.120000e-06	1.287527e-06	4.345125e-10	8.954244e+00	2.823437e+01
2.130000e-06	1.332853e-06	4.543040e-10	9.269471e+00	2.965200e+01
2.140000e-06	1.378066e-06	4.759260e-10	9.583907e+00	3.105731e+01
2.150000e-06	1.423236e-06	4.973034e-10	9.898045e+00	3.244931e+01
2.160000e-06	1.468354e-06	5.171408e-10	1.021182e+01	3.382700e+01
2.170000e-06	1.513409e-06	5.343188e-10	1.052517e+01	3.518949e+01
2.180000e-06	1.558389e-06	5.520765e-10	1.083799e+01	3.653590e+01
2.190000e-06	1.603260e-06	5.689131e-10	1.115004e+01	3.786541e+01
2.200000e-06	1.647943e-06	5.854897e-10	1.146080e+01	3.917728e+01
2.210000e-06	1.692426e-06	6.014290e-10	1.177016e+01	4.047080e+01
2.220000e-06	1.736756e-06	6.170335e-10	1.207845e+01	4.174532e+01
2.230000e-06	1.780940e-06	6.347245e-10	1.238574e+01	4.300027e+01
2.240000e-06	1.825010e-06	6.517372e-10	1.269223e+01	4.423512e+01
2.250000e-06	1.869017e-06	6.692478e-10	1.299828e+01	4.544941e+01
2.260000e-06	1.912941e-06	6.844042e-10	1.330375e+01	4.664273e+01
2.270000e-06	1.956734e-06	7.007747e-10	1.360831e+01	4.781473e+01
2.280000e-06	2.000474e-06	7.169392e-10	1.391251e+01	4.896512e+01
2.290000e-06	2.044199e-06	7.321762e-10	1.421660e+01	5.009366e+01
2.300000e-06	2.087883e-06	7.460521e-10	1.452040e+01	5.120018e+01
2.310000e-06	2.131492e-06	7.593736e-10	1.482369e+01	5.228455e+01
2.320000e-06	2.175006e-06	7.735088e-10	1.512631e+01	5.334668e+01
2.330000e-06	2.218427e-06	7.872246e-10	1.542829e+01	5.438655e+01
2.340000e-06	2.261723e-06	8.034016e-10	1.572939e+01	5.540418e+01
2.350000e-06	2.304807e-06	8.223497e-10	1.602903e+01	5.639961e+01
2.360000e-06	2.347692e-06	8.395758e-10	1.632728e+01	5.737296e+01
2.370000e-06	2.390360e-06	8.506660e-10	1.662401e+01	5.832435e+01
2.380000e-06	2.432797e-06	8.589578e-10	1.691915e+01	5.925396e+01
2.390000e-06	2.475043e-06	8.676557e-10	1.721295e+01	6.016199e+01
2.400000e-06	2.516896e-06	8.771586e-10	1.750402e+01	6.104867e+01
2.410000e-06	2.558248e-06	8.898400e-10	1.779161e+01	6.191426e+01
2.420000e-06	2.599287e-06	9.061553e-10	1.807702e+01	6.275904e+01
2.430000e-06	2.640011e-06	9.234327e-10	1.836023e+01	6.358330e+01
2.440000e-06	2.680413e-06	9.372045e-10	1.864121e+01	6.438737e+01
2.450000e-06	2.720708e-06	9.455845e-10	1.892145e+01	6.517157e+01
2.460000e-06	2.760872e-06	9.539383e-10	1.920078e+01	6.593625e+01
2.470000e-06	2.800797e-06	9.634676e-10	1.947844e+01	6.668177e+01
2.480000e-06	2.840548e-06	9.747351e-10	1.975489e+01	6.740847e+01
2.490000e-06	2.880191e-06	9.873435e-10	2.003059e+01	6.811673e+01
2.500000e-06	2.919729e-06	9.994667e-10	2.030557e+01	6.880693e+01
2.510000e-06	2.959124e-06	1.010332e-09	2.057954e+01	6.947942e+01
2.520000e-06	2.998364e-06	1.019916e-09	2.085244e+01	7.013457e+01
2.530000e-06	3.037369e-06	1.026435e-09	2.112370e+01	7.077277e+01
2.540000e-06	3.076204e-06	1.030939e-09	2.139379e+01	7.139437e+01
2.550000e-06	3.114866e-06	1.037972e-09	2.166267e+01	7.199975e+01
2.560000e-06	3.153229e-06	1.049062e-09	2.192946e+01	7.258925e+01
2.570000e-06	3.191313e-06	1.059643e-09	2.219433e+01	7.316323e+01
2.580000e-06	3.229144e-06	1.067608e-09	2.245742e+01	7.372204e+01
2.590000e-06	3.266817e-06	1.074703e-09	2.271942e+01	7.426603e+01
2.600000e-06	3.304360e-06	1.080940e-09	2.298053e+01	7.479553e+01
2.610000e-06	3.341694e-06	1.083844e-09	2.324016e+01	7.531086e+01
2.620000e-06	3.378718e-06	1.086204e-09	2.349765e+01	7.581236e+01
2.630000e-06	3.415512e-06	1.091974e-09	2.375354e+01	7.630035e+01
2.640000e-06	3.452101e-06	1.100762e-09	2.400800e+01	7.677512e+01
2.650000e-06	3.488450e-06	1.111560e-09	2.426079e+01	7.723700e+01
2.660000e-06	3.524577e-06	1.120255e-09	2.451205e+01	7.768628e+01
2.670000e-06	3.560486e-06	1.125995e-09	2.476178e+01	7.812325e+01
2.680000e-06	3.596253e-06	1.131224e-09	2.501052e+01	7.854822e+01
2.690000e-06	3.631898e-06	1.134107e-09	2.525842e+01	7.896147e+01
2.700000e-06	3.667409e-06	1.137012e-09	2.550538e+01	7.936328e+01
2.710000e-06	3.702745e-06	1.141362e-09	2.575114e+01	7.975393e+01
2.720000e-06	3.737826e-06	1.147309e-09	2.599511e+01	8.013372e+01
2.730000e-06	3.772507e-06	1.154410e-09	2.623630e+01	8.050290e+01
2.740000e-06	3.806818e-06	1.162062e-09	2.647492e+01	8.086176e+01
2.750000e-06	3.840827e-06	1.166323e-09	2.671144e+01	8.121056e+01
2.760000e-06	3.874296e-06	1.169968e-09	2.694421e+01	8.154959e+01
2.770000e-06	3.907218e-06	1.174494e-09	2.717316e+01	8.187911e+01
2.780000e-06	3.939804e-06	1.175717e-09	2.739978e+01	8.219938e+01
2.790000e-06	3.972045e-06	1.177439e-09	2.762401e+01	8.251068e+01
2.800000e-06	4.003956e-06	1.180571e-09	2.784594e+01	8.281326e+01
2.810000e-06	4.035648e-06	1.185868e-09	2.806634e+01	8.310740e+01
2.820000e-06	4.067251e-06	1.191236e-09	2.828613e+01	8.339335e+01
2.830000e-06	4.098755e-06	1.196525e-09	2.850522e+01	8.367137e+01
2.840000e-06	4.130055e-06	1.201870e-09	2.872291e+01	8.394172e+01
2.850000e-06	4.161113e-06	1.206715e-09	2.893891e+01	8.420464e+01
2.860000e-06	4.191755e-06	1.209325e-09	2.915201e+01	8.446038e+01
2.870000e-06	4.221959e-06	1.210845e-09	2.936207e+01	8.470920e+01
2.880000e-06	4.251911e-06	1.212733e-09	2.957037e+01	8.495132e+01
2.890000e-06	4.281609e-06	1.215200e-09	2.977691e+01	8.518698e+01
2.900000e-06	4.311051e-06	1.220988e-09	2.998166e+01	8.541640e+01
