# Temperatura_=_-1.11
# Concentracion g/m^3_=_1620.0
# C_Vs_to_Am_M_A/Vsm_=_65563218390.804596
# pendiente_HvsI_1/m_=_3716.3
# ordenada_HvsI_A/m_=_1297.0
# frecuencia_Hz_=_135106.870621497

Tiempo_(s)	Campo_(V.s)	Magnetizacion_(V.s)	Campo_(kA/m)	Magnetizacion_(A/m)
0.000000e+00	-5.524923e-06	-1.004693e-09	-3.836811e+01	-6.858794e+01
1.000000e-08	-5.525011e-06	-1.003485e-09	-3.836872e+01	-6.854145e+01
2.000000e-08	-5.524812e-06	-1.006409e-09	-3.836734e+01	-6.849371e+01
3.000000e-08	-5.524192e-06	-1.007466e-09	-3.836303e+01	-6.844457e+01
4.000000e-08	-5.522980e-06	-1.000076e-09	-3.835462e+01	-6.839385e+01
5.000000e-08	-5.521202e-06	-9.830564e-10	-3.834227e+01	-6.834139e+01
6.000000e-08	-5.518959e-06	-9.714623e-10	-3.832669e+01	-6.828702e+01
7.000000e-08	-5.516221e-06	-1.003349e-09	-3.830768e+01	-6.823057e+01
8.000000e-08	-5.512985e-06	-1.068019e-09	-3.828521e+01	-6.817184e+01
9.000000e-08	-5.509308e-06	-1.100023e-09	-3.825967e+01	-6.811068e+01
1.000000e-07	-5.505216e-06	-1.040242e-09	-3.823126e+01	-6.804690e+01
1.100000e-07	-5.500783e-06	-9.748842e-10	-3.820047e+01	-6.798033e+01
1.200000e-07	-5.496138e-06	-9.324786e-10	-3.816821e+01	-6.791082e+01
1.300000e-07	-5.491173e-06	-1.019425e-09	-3.813373e+01	-6.783820e+01
1.400000e-07	-5.485766e-06	-1.010886e-09	-3.809618e+01	-6.776233e+01
1.500000e-07	-5.479956e-06	-9.735683e-10	-3.805584e+01	-6.768308e+01
1.600000e-07	-5.473729e-06	-9.477186e-10	-3.801259e+01	-6.760032e+01
1.700000e-07	-5.467140e-06	-1.043985e-09	-3.796683e+01	-6.751395e+01
1.800000e-07	-5.460219e-06	-1.103261e-09	-3.791877e+01	-6.742386e+01
1.900000e-07	-5.452925e-06	-1.011727e-09	-3.786812e+01	-6.733000e+01
2.000000e-07	-5.445350e-06	-9.463165e-10	-3.781551e+01	-6.723229e+01
2.100000e-07	-5.437563e-06	-9.896515e-10	-3.776144e+01	-6.713070e+01
2.200000e-07	-5.429555e-06	-1.078108e-09	-3.770582e+01	-6.702521e+01
2.300000e-07	-5.421202e-06	-1.034978e-09	-3.764781e+01	-6.691581e+01
2.400000e-07	-5.412241e-06	-1.012984e-09	-3.758558e+01	-6.680252e+01
2.500000e-07	-5.402608e-06	-1.020101e-09	-3.751869e+01	-6.668537e+01
2.600000e-07	-5.392344e-06	-1.043905e-09	-3.744741e+01	-6.656442e+01
2.700000e-07	-5.381505e-06	-9.746831e-10	-3.737213e+01	-6.643975e+01
2.800000e-07	-5.370201e-06	-9.792498e-10	-3.729363e+01	-6.631144e+01
2.900000e-07	-5.358478e-06	-1.004024e-09	-3.721223e+01	-6.617960e+01
3.000000e-07	-5.346397e-06	-1.009137e-09	-3.712832e+01	-6.604436e+01
3.100000e-07	-5.333924e-06	-9.569755e-10	-3.704171e+01	-6.590587e+01
3.200000e-07	-5.320962e-06	-9.843224e-10	-3.695169e+01	-6.576426e+01
3.300000e-07	-5.307630e-06	-1.003012e-09	-3.685911e+01	-6.561972e+01
3.400000e-07	-5.294043e-06	-9.932129e-10	-3.676475e+01	-6.547242e+01
3.500000e-07	-5.279951e-06	-9.635735e-10	-3.666689e+01	-6.532254e+01
3.600000e-07	-5.265401e-06	-9.807634e-10	-3.656585e+01	-6.517029e+01
3.700000e-07	-5.250483e-06	-9.763321e-10	-3.646224e+01	-6.501585e+01
3.800000e-07	-5.235014e-06	-9.792389e-10	-3.635482e+01	-6.485945e+01
3.900000e-07	-5.218980e-06	-9.889156e-10	-3.624348e+01	-6.470127e+01
4.000000e-07	-5.202465e-06	-9.832595e-10	-3.612878e+01	-6.454154e+01
4.100000e-07	-5.185608e-06	-9.671556e-10	-3.601172e+01	-6.438044e+01
4.200000e-07	-5.168487e-06	-9.659571e-10	-3.589282e+01	-6.421820e+01
4.300000e-07	-5.151066e-06	-9.746769e-10	-3.577184e+01	-6.405498e+01
4.400000e-07	-5.133295e-06	-9.658133e-10	-3.564843e+01	-6.389100e+01
4.500000e-07	-5.115106e-06	-9.792387e-10	-3.552211e+01	-6.372641e+01
4.600000e-07	-5.096453e-06	-9.610133e-10	-3.539258e+01	-6.356140e+01
4.700000e-07	-5.077399e-06	-9.495792e-10	-3.526026e+01	-6.339611e+01
4.800000e-07	-5.058101e-06	-9.575902e-10	-3.512624e+01	-6.323068e+01
4.900000e-07	-5.038573e-06	-9.813147e-10	-3.499063e+01	-6.306524e+01
5.000000e-07	-5.018784e-06	-9.464085e-10	-3.485320e+01	-6.289991e+01
5.100000e-07	-4.998730e-06	-9.442386e-10	-3.471394e+01	-6.273477e+01
5.200000e-07	-4.978352e-06	-9.579880e-10	-3.457242e+01	-6.256989e+01
5.300000e-07	-4.957646e-06	-9.661830e-10	-3.442863e+01	-6.240535e+01
5.400000e-07	-4.936588e-06	-9.546512e-10	-3.428239e+01	-6.224117e+01
5.500000e-07	-4.915169e-06	-9.684038e-10	-3.413364e+01	-6.207737e+01
5.600000e-07	-4.893387e-06	-9.393110e-10	-3.398238e+01	-6.191396e+01
5.700000e-07	-4.871321e-06	-9.283077e-10	-3.382914e+01	-6.175093e+01
5.800000e-07	-4.848915e-06	-9.465805e-10	-3.367354e+01	-6.158823e+01
5.900000e-07	-4.826128e-06	-9.560966e-10	-3.351529e+01	-6.142581e+01
6.000000e-07	-4.802986e-06	-9.267809e-10	-3.335458e+01	-6.126361e+01
6.100000e-07	-4.779547e-06	-9.369557e-10	-3.319181e+01	-6.110155e+01
6.200000e-07	-4.755937e-06	-9.408605e-10	-3.302785e+01	-6.093952e+01
6.300000e-07	-4.732116e-06	-9.179113e-10	-3.286243e+01	-6.077741e+01
6.400000e-07	-4.707990e-06	-9.111172e-10	-3.269488e+01	-6.061509e+01
6.500000e-07	-4.683576e-06	-9.305146e-10	-3.252533e+01	-6.045244e+01
6.600000e-07	-4.658701e-06	-9.191201e-10	-3.235259e+01	-6.028930e+01
6.700000e-07	-4.633163e-06	-9.095274e-10	-3.217524e+01	-6.012553e+01
6.800000e-07	-4.607051e-06	-9.241209e-10	-3.199390e+01	-5.996097e+01
6.900000e-07	-4.580450e-06	-9.192695e-10	-3.180917e+01	-5.979544e+01
7.000000e-07	-4.553405e-06	-9.011949e-10	-3.162135e+01	-5.962879e+01
7.100000e-07	-4.526008e-06	-9.035424e-10	-3.143109e+01	-5.946084e+01
7.200000e-07	-4.498410e-06	-9.099736e-10	-3.123944e+01	-5.929143e+01
7.300000e-07	-4.470671e-06	-8.977672e-10	-3.104680e+01	-5.912039e+01
7.400000e-07	-4.442720e-06	-9.019739e-10	-3.085270e+01	-5.894755e+01
7.500000e-07	-4.414539e-06	-9.069135e-10	-3.065699e+01	-5.877276e+01
7.600000e-07	-4.386093e-06	-8.975798e-10	-3.045945e+01	-5.859586e+01
7.700000e-07	-4.357337e-06	-8.818024e-10	-3.025975e+01	-5.841670e+01
7.800000e-07	-4.328252e-06	-8.892936e-10	-3.005777e+01	-5.823514e+01
7.900000e-07	-4.298838e-06	-8.867637e-10	-2.985350e+01	-5.805105e+01
8.000000e-07	-4.269146e-06	-8.817250e-10	-2.964730e+01	-5.786431e+01
8.100000e-07	-4.239185e-06	-8.778048e-10	-2.943924e+01	-5.767481e+01
8.200000e-07	-4.208883e-06	-8.813082e-10	-2.922881e+01	-5.748245e+01
8.300000e-07	-4.178199e-06	-8.694036e-10	-2.901572e+01	-5.728713e+01
8.400000e-07	-4.147174e-06	-8.640864e-10	-2.880026e+01	-5.708878e+01
8.500000e-07	-4.115886e-06	-8.562949e-10	-2.858298e+01	-5.688733e+01
8.600000e-07	-4.084480e-06	-8.520326e-10	-2.836488e+01	-5.668272e+01
8.700000e-07	-4.052870e-06	-8.443036e-10	-2.814537e+01	-5.647490e+01
8.800000e-07	-4.021111e-06	-8.476773e-10	-2.792481e+01	-5.626385e+01
8.900000e-07	-3.989301e-06	-8.452391e-10	-2.770390e+01	-5.604954e+01
9.000000e-07	-3.957201e-06	-8.388874e-10	-2.748098e+01	-5.583194e+01
9.100000e-07	-3.924672e-06	-8.312767e-10	-2.725509e+01	-5.561106e+01
9.200000e-07	-3.891663e-06	-8.282383e-10	-2.702585e+01	-5.538689e+01
9.300000e-07	-3.858221e-06	-8.222760e-10	-2.679361e+01	-5.515944e+01
9.400000e-07	-3.824440e-06	-8.200937e-10	-2.655902e+01	-5.492873e+01
9.500000e-07	-3.790264e-06	-8.191275e-10	-2.632168e+01	-5.469477e+01
9.600000e-07	-3.755610e-06	-8.154611e-10	-2.608103e+01	-5.445758e+01
9.700000e-07	-3.720540e-06	-8.110260e-10	-2.583748e+01	-5.421720e+01
9.800000e-07	-3.685202e-06	-8.088748e-10	-2.559207e+01	-5.397363e+01
9.900000e-07	-3.649704e-06	-8.056425e-10	-2.534555e+01	-5.372692e+01
1.000000e-06	-3.614017e-06	-7.989579e-10	-2.509773e+01	-5.347709e+01
1.010000e-06	-3.578183e-06	-7.969020e-10	-2.484887e+01	-5.322415e+01
1.020000e-06	-3.542200e-06	-7.940797e-10	-2.459899e+01	-5.296813e+01
1.030000e-06	-3.505974e-06	-7.897322e-10	-2.434742e+01	-5.270905e+01
1.040000e-06	-3.469523e-06	-7.850229e-10	-2.409428e+01	-5.244692e+01
1.050000e-06	-3.432881e-06	-7.830383e-10	-2.383982e+01	-5.218174e+01
1.060000e-06	-3.396014e-06	-7.752650e-10	-2.358379e+01	-5.191352e+01
1.070000e-06	-3.358875e-06	-7.718235e-10	-2.332588e+01	-5.164224e+01
1.080000e-06	-3.321467e-06	-7.688389e-10	-2.306610e+01	-5.136789e+01
1.090000e-06	-3.283819e-06	-7.667027e-10	-2.280465e+01	-5.109045e+01
1.100000e-06	-3.245977e-06	-7.597404e-10	-2.254185e+01	-5.080988e+01
1.110000e-06	-3.207889e-06	-7.552442e-10	-2.227735e+01	-5.052614e+01
1.120000e-06	-3.169433e-06	-7.492663e-10	-2.201029e+01	-5.023918e+01
1.130000e-06	-3.130813e-06	-7.459792e-10	-2.174209e+01	-4.994894e+01
1.140000e-06	-3.092066e-06	-7.401922e-10	-2.147301e+01	-4.965535e+01
1.150000e-06	-3.053025e-06	-7.357624e-10	-2.120189e+01	-4.935833e+01
1.160000e-06	-3.013767e-06	-7.281222e-10	-2.092926e+01	-4.905780e+01
1.170000e-06	-2.974380e-06	-7.229626e-10	-2.065574e+01	-4.875365e+01
1.180000e-06	-2.934964e-06	-7.199218e-10	-2.038201e+01	-4.844578e+01
1.190000e-06	-2.895428e-06	-7.166287e-10	-2.010745e+01	-4.813408e+01
1.200000e-06	-2.855708e-06	-7.111877e-10	-1.983161e+01	-4.781842e+01
1.210000e-06	-2.815850e-06	-7.096500e-10	-1.955482e+01	-4.749869e+01
1.220000e-06	-2.775825e-06	-7.057121e-10	-1.927686e+01	-4.717474e+01
1.230000e-06	-2.735556e-06	-6.994016e-10	-1.899721e+01	-4.684643e+01
1.240000e-06	-2.695080e-06	-6.899368e-10	-1.871612e+01	-4.651362e+01
1.250000e-06	-2.654391e-06	-6.786727e-10	-1.843356e+01	-4.617616e+01
1.260000e-06	-2.613408e-06	-6.688430e-10	-1.814895e+01	-4.583389e+01
1.270000e-06	-2.572205e-06	-6.621904e-10	-1.786281e+01	-4.548664e+01
1.280000e-06	-2.530776e-06	-6.604529e-10	-1.757511e+01	-4.513427e+01
1.290000e-06	-2.489029e-06	-6.593533e-10	-1.728519e+01	-4.477659e+01
1.300000e-06	-2.447079e-06	-6.552381e-10	-1.699386e+01	-4.441344e+01
1.310000e-06	-2.404917e-06	-6.464387e-10	-1.670107e+01	-4.404464e+01
1.320000e-06	-2.362343e-06	-6.355876e-10	-1.640541e+01	-4.367003e+01
1.330000e-06	-2.319410e-06	-6.229974e-10	-1.610726e+01	-4.328942e+01
1.340000e-06	-2.276262e-06	-6.126567e-10	-1.580762e+01	-4.290262e+01
1.350000e-06	-2.233014e-06	-6.059313e-10	-1.550728e+01	-4.250946e+01
1.360000e-06	-2.189666e-06	-6.008245e-10	-1.520625e+01	-4.210976e+01
1.370000e-06	-2.146184e-06	-5.990042e-10	-1.490429e+01	-4.170331e+01
1.380000e-06	-2.102620e-06	-6.010577e-10	-1.460175e+01	-4.128994e+01
1.390000e-06	-2.058970e-06	-5.971149e-10	-1.429862e+01	-4.086943e+01
1.400000e-06	-2.015213e-06	-5.868926e-10	-1.399475e+01	-4.044160e+01
1.410000e-06	-1.971334e-06	-5.734376e-10	-1.369003e+01	-4.000624e+01
1.420000e-06	-1.927336e-06	-5.635272e-10	-1.338448e+01	-3.956314e+01
1.430000e-06	-1.883219e-06	-5.565857e-10	-1.307811e+01	-3.911208e+01
1.440000e-06	-1.839041e-06	-5.541044e-10	-1.277131e+01	-3.865285e+01
1.450000e-06	-1.794761e-06	-5.505612e-10	-1.246381e+01	-3.818521e+01
1.460000e-06	-1.750292e-06	-5.462710e-10	-1.215499e+01	-3.770893e+01
1.470000e-06	-1.705722e-06	-5.378505e-10	-1.184548e+01	-3.722378e+01
1.480000e-06	-1.661071e-06	-5.279974e-10	-1.153540e+01	-3.672949e+01
1.490000e-06	-1.616292e-06	-5.183955e-10	-1.122442e+01	-3.622582e+01
1.500000e-06	-1.571325e-06	-5.104601e-10	-1.091215e+01	-3.571249e+01
1.510000e-06	-1.526192e-06	-5.033311e-10	-1.059872e+01	-3.518923e+01
1.520000e-06	-1.481025e-06	-4.967322e-10	-1.028506e+01	-3.465576e+01
1.530000e-06	-1.435765e-06	-4.882970e-10	-9.970743e+00	-3.411178e+01
1.540000e-06	-1.390342e-06	-4.786713e-10	-9.655303e+00	-3.355700e+01
1.550000e-06	-1.344907e-06	-4.690192e-10	-9.339775e+00	-3.299109e+01
1.560000e-06	-1.299393e-06	-4.611716e-10	-9.023701e+00	-3.241374e+01
1.570000e-06	-1.253696e-06	-4.513879e-10	-8.706357e+00	-3.182462e+01
1.580000e-06	-1.207906e-06	-4.428487e-10	-8.388367e+00	-3.122341e+01
1.590000e-06	-1.162066e-06	-4.361780e-10	-8.070026e+00	-3.060977e+01
1.600000e-06	-1.116196e-06	-4.296602e-10	-7.751480e+00	-2.998334e+01
1.610000e-06	-1.070272e-06	-4.209514e-10	-7.432556e+00	-2.934380e+01
1.620000e-06	-1.024195e-06	-4.106689e-10	-7.112572e+00	-2.869079e+01
1.630000e-06	-9.779807e-07	-4.033710e-10	-6.791637e+00	-2.802396e+01
1.640000e-06	-9.317269e-07	-3.961422e-10	-6.470425e+00	-2.734298e+01
1.650000e-06	-8.854596e-07	-3.865580e-10	-6.149120e+00	-2.664750e+01
1.660000e-06	-8.391003e-07	-3.737496e-10	-5.827175e+00	-2.593720e+01
1.670000e-06	-7.926420e-07	-3.603701e-10	-5.504543e+00	-2.521176e+01
1.680000e-06	-7.461796e-07	-3.476402e-10	-5.181882e+00	-2.447086e+01
1.690000e-06	-6.996943e-07	-3.380672e-10	-4.859063e+00	-2.371421e+01
1.700000e-06	-6.531791e-07	-3.260789e-10	-4.536035e+00	-2.294153e+01
1.710000e-06	-6.065679e-07	-3.142813e-10	-4.212342e+00	-2.215257e+01
1.720000e-06	-5.598624e-07	-3.016606e-10	-3.887993e+00	-2.134709e+01
1.730000e-06	-5.131238e-07	-2.853099e-10	-3.563415e+00	-2.052490e+01
1.740000e-06	-4.663928e-07	-2.639504e-10	-3.238889e+00	-1.968581e+01
1.750000e-06	-4.196286e-07	-2.453292e-10	-2.914132e+00	-1.882967e+01
1.760000e-06	-3.728624e-07	-2.322674e-10	-2.589362e+00	-1.795639e+01
1.770000e-06	-3.261112e-07	-2.221034e-10	-2.264696e+00	-1.706589e+01
1.780000e-06	-2.792963e-07	-2.118054e-10	-1.939588e+00	-1.615814e+01
1.790000e-06	-2.324190e-07	-2.005986e-10	-1.614046e+00	-1.523316e+01
1.800000e-06	-1.855265e-07	-1.862065e-10	-1.288398e+00	-1.429102e+01
1.810000e-06	-1.387254e-07	-1.688962e-10	-9.633853e-01	-1.333181e+01
1.820000e-06	-9.194061e-08	-1.516628e-10	-6.384863e-01	-1.235571e+01
1.830000e-06	-4.515214e-08	-1.376914e-10	-3.135614e-01	-1.136293e+01
1.840000e-06	1.656851e-09	-1.259061e-10	1.150608e-02	-1.035373e+01
1.850000e-06	4.855961e-08	-1.131010e-10	3.372247e-01	-9.328443e+00
1.860000e-06	9.542165e-08	-9.984557e-11	6.626605e-01	-8.287442e+00
1.870000e-06	1.422624e-07	-8.498760e-11	9.879483e-01	-7.231164e+00
1.880000e-06	1.891472e-07	-6.776979e-11	1.313542e+00	-6.160104e+00
1.890000e-06	2.359905e-07	-4.982313e-11	1.638848e+00	-5.074812e+00
1.900000e-06	2.827618e-07	-3.273117e-11	1.963654e+00	-3.975896e+00
1.910000e-06	3.295459e-07	-1.640462e-11	2.288549e+00	-2.864017e+00
1.920000e-06	3.763959e-07	-2.332488e-12	2.613901e+00	-1.739894e+00
1.930000e-06	4.232207e-07	9.349595e-12	2.939078e+00	-6.042969e-01
1.940000e-06	4.699505e-07	2.329164e-11	3.263595e+00	5.419535e-01
1.950000e-06	5.165879e-07	4.084845e-11	3.587471e+00	1.697987e+00
1.960000e-06	5.631419e-07	5.906774e-11	3.910768e+00	2.862888e+00
1.970000e-06	6.096675e-07	7.736150e-11	4.233867e+00	4.035697e+00
1.980000e-06	6.562108e-07	9.339378e-11	4.557089e+00	5.215417e+00
1.990000e-06	7.027435e-07	1.086079e-10	4.880238e+00	6.401013e+00
2.000000e-06	7.492907e-07	1.225784e-10	5.203488e+00	7.591418e+00
2.010000e-06	7.958051e-07	1.398560e-10	5.526509e+00	8.785540e+00
2.020000e-06	8.422109e-07	1.584647e-10	5.848777e+00	9.982261e+00
2.030000e-06	8.885166e-07	1.759204e-10	6.170349e+00	1.118044e+01
2.040000e-06	9.347214e-07	1.934582e-10	6.491221e+00	1.237894e+01
2.050000e-06	9.808482e-07	2.114222e-10	6.811550e+00	1.357660e+01
2.060000e-06	1.026926e-06	2.283245e-10	7.131538e+00	1.477224e+01
2.070000e-06	1.072939e-06	2.435783e-10	7.451081e+00	1.596472e+01
2.080000e-06	1.118860e-06	2.596649e-10	7.769979e+00	1.715288e+01
2.090000e-06	1.164724e-06	2.779584e-10	8.088485e+00	1.833557e+01
2.100000e-06	1.210497e-06	2.959522e-10	8.406355e+00	1.951168e+01
2.110000e-06	1.256126e-06	3.117291e-10	8.723234e+00	2.068008e+01
2.120000e-06	1.301664e-06	3.271924e-10	9.039472e+00	2.183971e+01
2.130000e-06	1.347144e-06	3.431460e-10	9.355308e+00	2.298952e+01
2.140000e-06	1.392534e-06	3.596776e-10	9.670526e+00	2.412850e+01
2.150000e-06	1.437800e-06	3.760579e-10	9.984877e+00	2.525567e+01
2.160000e-06	1.482961e-06	3.916885e-10	1.029850e+01	2.637011e+01
2.170000e-06	1.528069e-06	4.081818e-10	1.061175e+01	2.747093e+01
2.180000e-06	1.573038e-06	4.250335e-10	1.092405e+01	2.855730e+01
2.190000e-06	1.617826e-06	4.386231e-10	1.123507e+01	2.962846e+01
2.200000e-06	1.662565e-06	4.512611e-10	1.154577e+01	3.068366e+01
2.210000e-06	1.707253e-06	4.638605e-10	1.185611e+01	3.172227e+01
2.220000e-06	1.751780e-06	4.768577e-10	1.216533e+01	3.274366e+01
2.230000e-06	1.796122e-06	4.913799e-10	1.247326e+01	3.374731e+01
2.240000e-06	1.840290e-06	5.062210e-10	1.277999e+01	3.473274e+01
2.250000e-06	1.884345e-06	5.204565e-10	1.308593e+01	3.569953e+01
2.260000e-06	1.928356e-06	5.327338e-10	1.339157e+01	3.664733e+01
2.270000e-06	1.972296e-06	5.454640e-10	1.369671e+01	3.757586e+01
2.280000e-06	2.016132e-06	5.585314e-10	1.400113e+01	3.848489e+01
2.290000e-06	2.059869e-06	5.711061e-10	1.430487e+01	3.937426e+01
2.300000e-06	2.103528e-06	5.835655e-10	1.460806e+01	4.024387e+01
2.310000e-06	2.147103e-06	5.959675e-10	1.491067e+01	4.109367e+01
2.320000e-06	2.190623e-06	6.096745e-10	1.521290e+01	4.192368e+01
2.330000e-06	2.234057e-06	6.232348e-10	1.551452e+01	4.273397e+01
2.340000e-06	2.277373e-06	6.350297e-10	1.581533e+01	4.352465e+01
2.350000e-06	2.320537e-06	6.465415e-10	1.611509e+01	4.429589e+01
2.360000e-06	2.363463e-06	6.596317e-10	1.641319e+01	4.504791e+01
2.370000e-06	2.406070e-06	6.696240e-10	1.670907e+01	4.578094e+01
2.380000e-06	2.448348e-06	6.773028e-10	1.700268e+01	4.649530e+01
2.390000e-06	2.490281e-06	6.851367e-10	1.729389e+01	4.719129e+01
2.400000e-06	2.531907e-06	6.945688e-10	1.758296e+01	4.786928e+01
2.410000e-06	2.573320e-06	7.040393e-10	1.787056e+01	4.852966e+01
2.420000e-06	2.614503e-06	7.128142e-10	1.815655e+01	4.917281e+01
2.430000e-06	2.655363e-06	7.220167e-10	1.844030e+01	4.979918e+01
2.440000e-06	2.695891e-06	7.307346e-10	1.872176e+01	5.040919e+01
2.450000e-06	2.736192e-06	7.388886e-10	1.900162e+01	5.100330e+01
2.460000e-06	2.776325e-06	7.481112e-10	1.928033e+01	5.158197e+01
2.470000e-06	2.816334e-06	7.578195e-10	1.955817e+01	5.214565e+01
2.480000e-06	2.856179e-06	7.670360e-10	1.983488e+01	5.269481e+01
2.490000e-06	2.895862e-06	7.751370e-10	2.011046e+01	5.322990e+01
2.500000e-06	2.935412e-06	7.809018e-10	2.038512e+01	5.375138e+01
2.510000e-06	2.974847e-06	7.864665e-10	2.065897e+01	5.425969e+01
2.520000e-06	3.014126e-06	7.937260e-10	2.093175e+01	5.475527e+01
2.530000e-06	3.053179e-06	8.005341e-10	2.120296e+01	5.523853e+01
2.540000e-06	3.092011e-06	8.066146e-10	2.147263e+01	5.570988e+01
2.550000e-06	3.130718e-06	8.138262e-10	2.174143e+01	5.616971e+01
2.560000e-06	3.169243e-06	8.216115e-10	2.200897e+01	5.661838e+01
2.570000e-06	3.207541e-06	8.279063e-10	2.227493e+01	5.705624e+01
2.580000e-06	3.245649e-06	8.330480e-10	2.253958e+01	5.748363e+01
2.590000e-06	3.283464e-06	8.390221e-10	2.280219e+01	5.790084e+01
2.600000e-06	3.320969e-06	8.454230e-10	2.306264e+01	5.830816e+01
2.610000e-06	3.358219e-06	8.506578e-10	2.332132e+01	5.870586e+01
2.620000e-06	3.395264e-06	8.545449e-10	2.357858e+01	5.909418e+01
2.630000e-06	3.432038e-06	8.576583e-10	2.383396e+01	5.947334e+01
2.640000e-06	3.468534e-06	8.613077e-10	2.408741e+01	5.984355e+01
2.650000e-06	3.504804e-06	8.683634e-10	2.433929e+01	6.020498e+01
2.660000e-06	3.540871e-06	8.763949e-10	2.458976e+01	6.055779e+01
2.670000e-06	3.576775e-06	8.821551e-10	2.483910e+01	6.090215e+01
2.680000e-06	3.612537e-06	8.852138e-10	2.508745e+01	6.123817e+01
2.690000e-06	3.648180e-06	8.875355e-10	2.533497e+01	6.156597e+01
2.700000e-06	3.683708e-06	8.892857e-10	2.558170e+01	6.188566e+01
2.710000e-06	3.719045e-06	8.914980e-10	2.582710e+01	6.219734e+01
2.720000e-06	3.754117e-06	8.964810e-10	2.607065e+01	6.250108e+01
2.730000e-06	3.788827e-06	9.019153e-10	2.631170e+01	6.279697e+01
2.740000e-06	3.823129e-06	9.062316e-10	2.654992e+01	6.308506e+01
2.750000e-06	3.856941e-06	9.103338e-10	2.678472e+01	6.336544e+01
2.760000e-06	3.890163e-06	9.136373e-10	2.701543e+01	6.363816e+01
2.770000e-06	3.923042e-06	9.161529e-10	2.724376e+01	6.390329e+01
2.780000e-06	3.955681e-06	9.187710e-10	2.747043e+01	6.416089e+01
2.790000e-06	3.987960e-06	9.224588e-10	2.769459e+01	6.441102e+01
2.800000e-06	4.019941e-06	9.258955e-10	2.791669e+01	6.465375e+01
2.810000e-06	4.051697e-06	9.289395e-10	2.813721e+01	6.488915e+01
2.820000e-06	4.083281e-06	9.331833e-10	2.835655e+01	6.511731e+01
2.830000e-06	4.114710e-06	9.383333e-10	2.857481e+01	6.533829e+01
2.840000e-06	4.145883e-06	9.427750e-10	2.879129e+01	6.555219e+01
2.850000e-06	4.176748e-06	9.481390e-10	2.900564e+01	6.575910e+01
2.860000e-06	4.207263e-06	9.535209e-10	2.921756e+01	6.595913e+01
2.870000e-06	4.237395e-06	9.546718e-10	2.942680e+01	6.615238e+01
2.880000e-06	4.267304e-06	9.547617e-10	2.963451e+01	6.633897e+01
2.890000e-06	4.296982e-06	9.572508e-10	2.984061e+01	6.651902e+01
2.900000e-06	4.326372e-06	9.607208e-10	3.004471e+01	6.669267e+01
