# Temperatura_=_-0.9
# Concentracion g/m^3_=_1620.0
# C_Vs_to_Am_M_A/Vsm_=_65563218390.804596
# pendiente_HvsI_1/m_=_3716.3
# ordenada_HvsI_A/m_=_1297.0
# frecuencia_Hz_=_135104.53417597522

Tiempo_(s)	Campo_(V.s)	Magnetizacion_(V.s)	Campo_(kA/m)	Magnetizacion_(A/m)
0.000000e+00	-5.523220e-06	-1.135215e-09	-3.837060e+01	-7.531908e+01
1.000000e-08	-5.523498e-06	-1.131373e-09	-3.837253e+01	-7.528157e+01
2.000000e-08	-5.523503e-06	-1.132588e-09	-3.837257e+01	-7.524427e+01
3.000000e-08	-5.523172e-06	-1.136421e-09	-3.837027e+01	-7.520699e+01
4.000000e-08	-5.522436e-06	-1.134889e-09	-3.836516e+01	-7.516950e+01
5.000000e-08	-5.521187e-06	-1.123178e-09	-3.835648e+01	-7.513159e+01
6.000000e-08	-5.519405e-06	-1.106423e-09	-3.834410e+01	-7.509300e+01
7.000000e-08	-5.517034e-06	-1.109557e-09	-3.832763e+01	-7.505349e+01
8.000000e-08	-5.514035e-06	-1.155563e-09	-3.830679e+01	-7.501280e+01
9.000000e-08	-5.510506e-06	-1.208276e-09	-3.828227e+01	-7.497065e+01
1.000000e-07	-5.506600e-06	-1.202827e-09	-3.825514e+01	-7.492680e+01
1.100000e-07	-5.502402e-06	-1.134024e-09	-3.822597e+01	-7.488096e+01
1.200000e-07	-5.497890e-06	-1.049268e-09	-3.819463e+01	-7.483288e+01
1.300000e-07	-5.493128e-06	-1.097765e-09	-3.816155e+01	-7.478230e+01
1.400000e-07	-5.488075e-06	-1.157306e-09	-3.812644e+01	-7.472895e+01
1.500000e-07	-5.482578e-06	-1.132516e-09	-3.808825e+01	-7.467261e+01
1.600000e-07	-5.476735e-06	-1.081959e-09	-3.804766e+01	-7.461303e+01
1.700000e-07	-5.470527e-06	-1.103739e-09	-3.800454e+01	-7.455000e+01
1.800000e-07	-5.463815e-06	-1.204879e-09	-3.795791e+01	-7.448332e+01
1.900000e-07	-5.456648e-06	-1.156943e-09	-3.790811e+01	-7.441280e+01
2.000000e-07	-5.449204e-06	-1.071017e-09	-3.785640e+01	-7.433827e+01
2.100000e-07	-5.441531e-06	-1.053588e-09	-3.780309e+01	-7.425959e+01
2.200000e-07	-5.433605e-06	-1.163039e-09	-3.774803e+01	-7.417663e+01
2.300000e-07	-5.425389e-06	-1.179004e-09	-3.769096e+01	-7.408927e+01
2.400000e-07	-5.416810e-06	-1.131960e-09	-3.763135e+01	-7.399744e+01
2.500000e-07	-5.407610e-06	-1.103111e-09	-3.756744e+01	-7.390107e+01
2.600000e-07	-5.397696e-06	-1.140567e-09	-3.749857e+01	-7.380013e+01
2.700000e-07	-5.387130e-06	-1.120947e-09	-3.742516e+01	-7.369458e+01
2.800000e-07	-5.376061e-06	-1.086765e-09	-3.734827e+01	-7.358443e+01
2.900000e-07	-5.364661e-06	-1.103343e-09	-3.726907e+01	-7.346972e+01
3.000000e-07	-5.352883e-06	-1.123556e-09	-3.718725e+01	-7.335047e+01
3.100000e-07	-5.340723e-06	-1.099089e-09	-3.710277e+01	-7.322674e+01
3.200000e-07	-5.328098e-06	-1.070372e-09	-3.701506e+01	-7.309863e+01
3.300000e-07	-5.314987e-06	-1.099058e-09	-3.692397e+01	-7.296623e+01
3.400000e-07	-5.301483e-06	-1.101912e-09	-3.683017e+01	-7.282964e+01
3.500000e-07	-5.287645e-06	-1.101118e-09	-3.673403e+01	-7.268899e+01
3.600000e-07	-5.273447e-06	-1.095242e-09	-3.663540e+01	-7.254442e+01
3.700000e-07	-5.258825e-06	-1.106283e-09	-3.653381e+01	-7.239607e+01
3.800000e-07	-5.243602e-06	-1.090311e-09	-3.642806e+01	-7.224410e+01
3.900000e-07	-5.227871e-06	-1.090133e-09	-3.631877e+01	-7.208866e+01
4.000000e-07	-5.211721e-06	-1.078231e-09	-3.620658e+01	-7.192993e+01
4.100000e-07	-5.195112e-06	-1.087356e-09	-3.609119e+01	-7.176807e+01
4.200000e-07	-5.178147e-06	-1.088016e-09	-3.597333e+01	-7.160325e+01
4.300000e-07	-5.160855e-06	-1.090968e-09	-3.585320e+01	-7.143564e+01
4.400000e-07	-5.143187e-06	-1.085594e-09	-3.573046e+01	-7.126540e+01
4.500000e-07	-5.125147e-06	-1.112320e-09	-3.560513e+01	-7.109270e+01
4.600000e-07	-5.106707e-06	-1.092392e-09	-3.547702e+01	-7.091768e+01
4.700000e-07	-5.087810e-06	-1.058357e-09	-3.534575e+01	-7.074050e+01
4.800000e-07	-5.068616e-06	-1.070343e-09	-3.521240e+01	-7.056129e+01
4.900000e-07	-5.049196e-06	-1.105886e-09	-3.507749e+01	-7.038019e+01
5.000000e-07	-5.029521e-06	-1.070091e-09	-3.494080e+01	-7.019731e+01
5.100000e-07	-5.009618e-06	-1.057488e-09	-3.480253e+01	-7.001277e+01
5.200000e-07	-4.989424e-06	-1.084352e-09	-3.466224e+01	-6.982665e+01
5.300000e-07	-4.968849e-06	-1.074345e-09	-3.451930e+01	-6.963905e+01
5.400000e-07	-4.947946e-06	-1.050097e-09	-3.437409e+01	-6.945002e+01
5.500000e-07	-4.926746e-06	-1.079656e-09	-3.422681e+01	-6.925964e+01
5.600000e-07	-4.905192e-06	-1.071572e-09	-3.407707e+01	-6.906793e+01
5.700000e-07	-4.883271e-06	-1.031430e-09	-3.392478e+01	-6.887494e+01
5.800000e-07	-4.860869e-06	-1.059040e-09	-3.376916e+01	-6.868069e+01
5.900000e-07	-4.838086e-06	-1.083812e-09	-3.361088e+01	-6.848516e+01
6.000000e-07	-4.815088e-06	-1.042099e-09	-3.345111e+01	-6.828837e+01
6.100000e-07	-4.791873e-06	-1.032680e-09	-3.328983e+01	-6.809029e+01
6.200000e-07	-4.768375e-06	-1.059320e-09	-3.312659e+01	-6.789090e+01
6.300000e-07	-4.744635e-06	-1.029322e-09	-3.296166e+01	-6.769015e+01
6.400000e-07	-4.720694e-06	-1.015436e-09	-3.279534e+01	-6.748801e+01
6.500000e-07	-4.696414e-06	-1.042489e-09	-3.262666e+01	-6.728441e+01
6.600000e-07	-4.671736e-06	-1.037949e-09	-3.245522e+01	-6.707929e+01
6.700000e-07	-4.646642e-06	-1.015403e-09	-3.228089e+01	-6.687259e+01
6.800000e-07	-4.620968e-06	-1.037854e-09	-3.210252e+01	-6.666424e+01
6.900000e-07	-4.594666e-06	-1.032423e-09	-3.191981e+01	-6.645415e+01
7.000000e-07	-4.567810e-06	-1.007068e-09	-3.173323e+01	-6.624226e+01
7.100000e-07	-4.540586e-06	-1.007186e-09	-3.154410e+01	-6.602847e+01
7.200000e-07	-4.513198e-06	-1.016888e-09	-3.135383e+01	-6.581271e+01
7.300000e-07	-4.485598e-06	-9.987187e-10	-3.116209e+01	-6.559490e+01
7.400000e-07	-4.457769e-06	-1.002003e-09	-3.096876e+01	-6.537495e+01
7.500000e-07	-4.429734e-06	-1.006569e-09	-3.077400e+01	-6.515278e+01
7.600000e-07	-4.401479e-06	-9.960722e-10	-3.057770e+01	-6.492832e+01
7.700000e-07	-4.372946e-06	-9.852395e-10	-3.037948e+01	-6.470149e+01
7.800000e-07	-4.344055e-06	-9.885272e-10	-3.017877e+01	-6.447221e+01
7.900000e-07	-4.314839e-06	-9.793408e-10	-2.997581e+01	-6.424042e+01
8.000000e-07	-4.285316e-06	-9.732292e-10	-2.977070e+01	-6.400605e+01
8.100000e-07	-4.255536e-06	-9.707265e-10	-2.956382e+01	-6.376904e+01
8.200000e-07	-4.225528e-06	-9.643541e-10	-2.935535e+01	-6.352932e+01
8.300000e-07	-4.195202e-06	-9.570731e-10	-2.914467e+01	-6.328685e+01
8.400000e-07	-4.164513e-06	-9.606056e-10	-2.893147e+01	-6.304157e+01
8.500000e-07	-4.133506e-06	-9.570786e-10	-2.871606e+01	-6.279343e+01
8.600000e-07	-4.102212e-06	-9.463850e-10	-2.849865e+01	-6.254239e+01
8.700000e-07	-4.070677e-06	-9.415653e-10	-2.827958e+01	-6.228840e+01
8.800000e-07	-4.039032e-06	-9.379887e-10	-2.805973e+01	-6.203142e+01
8.900000e-07	-4.007240e-06	-9.308370e-10	-2.783887e+01	-6.177142e+01
9.000000e-07	-3.975228e-06	-9.217958e-10	-2.761648e+01	-6.150835e+01
9.100000e-07	-3.942953e-06	-9.168958e-10	-2.739226e+01	-6.124218e+01
9.200000e-07	-3.910387e-06	-9.084636e-10	-2.716602e+01	-6.097287e+01
9.300000e-07	-3.877478e-06	-9.078845e-10	-2.693740e+01	-6.070038e+01
9.400000e-07	-3.844053e-06	-9.124044e-10	-2.670519e+01	-6.042468e+01
9.500000e-07	-3.810086e-06	-9.115289e-10	-2.646921e+01	-6.014572e+01
9.600000e-07	-3.775811e-06	-8.996489e-10	-2.623110e+01	-5.986346e+01
9.700000e-07	-3.741231e-06	-8.911195e-10	-2.599087e+01	-5.957786e+01
9.800000e-07	-3.706160e-06	-8.812073e-10	-2.574723e+01	-5.928888e+01
9.900000e-07	-3.670779e-06	-8.714649e-10	-2.550143e+01	-5.899645e+01
1.000000e-06	-3.635278e-06	-8.652589e-10	-2.525480e+01	-5.870054e+01
1.010000e-06	-3.599612e-06	-8.674607e-10	-2.500702e+01	-5.840109e+01
1.020000e-06	-3.563755e-06	-8.669402e-10	-2.475792e+01	-5.809803e+01
1.030000e-06	-3.527727e-06	-8.677899e-10	-2.450763e+01	-5.779130e+01
1.040000e-06	-3.491527e-06	-8.648855e-10	-2.425614e+01	-5.748084e+01
1.050000e-06	-3.455104e-06	-8.580563e-10	-2.400310e+01	-5.716658e+01
1.060000e-06	-3.418449e-06	-8.466805e-10	-2.374846e+01	-5.684844e+01
1.070000e-06	-3.381530e-06	-8.414727e-10	-2.349198e+01	-5.652635e+01
1.080000e-06	-3.344293e-06	-8.369058e-10	-2.323328e+01	-5.620024e+01
1.090000e-06	-3.306768e-06	-8.318678e-10	-2.297259e+01	-5.587002e+01
1.100000e-06	-3.269020e-06	-8.265248e-10	-2.271035e+01	-5.553561e+01
1.110000e-06	-3.231034e-06	-8.209614e-10	-2.244645e+01	-5.519694e+01
1.120000e-06	-3.192851e-06	-8.129491e-10	-2.218119e+01	-5.485391e+01
1.130000e-06	-3.154519e-06	-8.062157e-10	-2.191489e+01	-5.450645e+01
1.140000e-06	-3.115928e-06	-8.012283e-10	-2.164680e+01	-5.415447e+01
1.150000e-06	-3.077092e-06	-7.919250e-10	-2.137700e+01	-5.379789e+01
1.160000e-06	-3.038085e-06	-7.807177e-10	-2.110601e+01	-5.343663e+01
1.170000e-06	-2.998890e-06	-7.735163e-10	-2.083372e+01	-5.307062e+01
1.180000e-06	-2.959510e-06	-7.686941e-10	-2.056014e+01	-5.269978e+01
1.190000e-06	-2.919935e-06	-7.642037e-10	-2.028520e+01	-5.232403e+01
1.200000e-06	-2.880240e-06	-7.592841e-10	-2.000944e+01	-5.194331e+01
1.210000e-06	-2.840461e-06	-7.522909e-10	-1.973309e+01	-5.155756e+01
1.220000e-06	-2.800580e-06	-7.438072e-10	-1.945603e+01	-5.116670e+01
1.230000e-06	-2.760591e-06	-7.347257e-10	-1.917822e+01	-5.077069e+01
1.240000e-06	-2.720400e-06	-7.289207e-10	-1.889901e+01	-5.036946e+01
1.250000e-06	-2.679868e-06	-7.213077e-10	-1.861742e+01	-4.996296e+01
1.260000e-06	-2.639097e-06	-7.154288e-10	-1.833419e+01	-4.955114e+01
1.270000e-06	-2.598136e-06	-7.095162e-10	-1.804962e+01	-4.913396e+01
1.280000e-06	-2.556884e-06	-7.032229e-10	-1.776304e+01	-4.871137e+01
1.290000e-06	-2.515509e-06	-6.964108e-10	-1.747560e+01	-4.828332e+01
1.300000e-06	-2.473911e-06	-6.882933e-10	-1.718662e+01	-4.784977e+01
1.310000e-06	-2.431934e-06	-6.769857e-10	-1.689499e+01	-4.741068e+01
1.320000e-06	-2.389553e-06	-6.663602e-10	-1.660057e+01	-4.696598e+01
1.330000e-06	-2.346822e-06	-6.593382e-10	-1.630371e+01	-4.651565e+01
1.340000e-06	-2.303911e-06	-6.547890e-10	-1.600560e+01	-4.605961e+01
1.350000e-06	-2.260806e-06	-6.502083e-10	-1.570614e+01	-4.559780e+01
1.360000e-06	-2.217458e-06	-6.472729e-10	-1.540500e+01	-4.513017e+01
1.370000e-06	-2.173944e-06	-6.421625e-10	-1.510270e+01	-4.465662e+01
1.380000e-06	-2.130370e-06	-6.379530e-10	-1.479998e+01	-4.417707e+01
1.390000e-06	-2.086747e-06	-6.331716e-10	-1.449693e+01	-4.369141e+01
1.400000e-06	-2.042979e-06	-6.264355e-10	-1.419287e+01	-4.319955e+01
1.410000e-06	-1.999104e-06	-6.158741e-10	-1.388806e+01	-4.270133e+01
1.420000e-06	-1.955222e-06	-6.055640e-10	-1.358321e+01	-4.219663e+01
1.430000e-06	-1.911298e-06	-5.975601e-10	-1.327806e+01	-4.168526e+01
1.440000e-06	-1.867210e-06	-5.922300e-10	-1.297177e+01	-4.116705e+01
1.450000e-06	-1.822990e-06	-5.877845e-10	-1.266457e+01	-4.064180e+01
1.460000e-06	-1.778634e-06	-5.815816e-10	-1.235643e+01	-4.010928e+01
1.470000e-06	-1.734168e-06	-5.730975e-10	-1.204751e+01	-3.956923e+01
1.480000e-06	-1.689604e-06	-5.616479e-10	-1.173792e+01	-3.902140e+01
1.490000e-06	-1.644899e-06	-5.490914e-10	-1.142735e+01	-3.846548e+01
1.500000e-06	-1.600057e-06	-5.373264e-10	-1.111582e+01	-3.790115e+01
1.510000e-06	-1.555006e-06	-5.263851e-10	-1.080285e+01	-3.732807e+01
1.520000e-06	-1.509843e-06	-5.173160e-10	-1.048909e+01	-3.674589e+01
1.530000e-06	-1.464640e-06	-5.107442e-10	-1.017507e+01	-3.615420e+01
1.540000e-06	-1.419255e-06	-5.026702e-10	-9.859769e+00	-3.555259e+01
1.550000e-06	-1.373754e-06	-4.925348e-10	-9.543662e+00	-3.494065e+01
1.560000e-06	-1.328252e-06	-4.792031e-10	-9.227556e+00	-3.431791e+01
1.570000e-06	-1.282677e-06	-4.667599e-10	-8.910939e+00	-3.368391e+01
1.580000e-06	-1.236990e-06	-4.554561e-10	-8.593549e+00	-3.303816e+01
1.590000e-06	-1.191195e-06	-4.439474e-10	-8.275401e+00	-3.238017e+01
1.600000e-06	-1.145330e-06	-4.326315e-10	-7.956773e+00	-3.170943e+01
1.610000e-06	-1.099410e-06	-4.214450e-10	-7.637759e+00	-3.102543e+01
1.620000e-06	-1.053401e-06	-4.099578e-10	-7.318129e+00	-3.032764e+01
1.630000e-06	-1.007328e-06	-4.017065e-10	-6.998055e+00	-2.961554e+01
1.640000e-06	-9.612543e-07	-3.955713e-10	-6.677971e+00	-2.888862e+01
1.650000e-06	-9.150100e-07	-3.878864e-10	-6.356706e+00	-2.814635e+01
1.660000e-06	-8.686360e-07	-3.776215e-10	-6.034539e+00	-2.738825e+01
1.670000e-06	-8.222664e-07	-3.648993e-10	-5.712402e+00	-2.661382e+01
1.680000e-06	-7.758714e-07	-3.477859e-10	-5.390090e+00	-2.582259e+01
1.690000e-06	-7.295030e-07	-3.308963e-10	-5.067962e+00	-2.501411e+01
1.700000e-06	-6.830863e-07	-3.174169e-10	-4.745498e+00	-2.418796e+01
1.710000e-06	-6.365621e-07	-3.052548e-10	-4.422288e+00	-2.334376e+01
1.720000e-06	-5.899510e-07	-2.925123e-10	-4.098474e+00	-2.248114e+01
1.730000e-06	-5.432625e-07	-2.782131e-10	-3.774122e+00	-2.159980e+01
1.740000e-06	-4.965258e-07	-2.611622e-10	-3.449436e+00	-2.069947e+01
1.750000e-06	-4.497718e-07	-2.442147e-10	-3.124629e+00	-1.977991e+01
1.760000e-06	-4.029684e-07	-2.302904e-10	-2.799479e+00	-1.884097e+01
1.770000e-06	-3.560929e-07	-2.185811e-10	-2.473828e+00	-1.788252e+01
1.780000e-06	-3.092108e-07	-2.066068e-10	-2.148132e+00	-1.690451e+01
1.790000e-06	-2.623418e-07	-1.934439e-10	-1.822526e+00	-1.590693e+01
1.800000e-06	-2.154977e-07	-1.789058e-10	-1.497093e+00	-1.488986e+01
1.810000e-06	-1.686446e-07	-1.620003e-10	-1.171598e+00	-1.385342e+01
1.820000e-06	-1.217718e-07	-1.449292e-10	-8.459664e-01	-1.279781e+01
1.830000e-06	-7.486886e-08	-1.307769e-10	-5.201247e-01	-1.172331e+01
1.840000e-06	-2.796634e-08	-1.191713e-10	-1.942862e-01	-1.063024e+01
1.850000e-06	1.886519e-08	-1.065141e-10	1.310592e-01	-9.519023e+00
1.860000e-06	6.564008e-08	-9.387705e-11	4.560110e-01	-8.390133e+00
1.870000e-06	1.125103e-07	-7.989085e-11	7.816253e-01	-7.244120e+00
1.880000e-06	1.595266e-07	-6.310521e-11	1.108254e+00	-6.081604e+00
1.890000e-06	2.065434e-07	-4.462478e-11	1.434887e+00	-4.903270e+00
1.900000e-06	2.534824e-07	-2.674415e-11	1.760978e+00	-3.709874e+00
1.910000e-06	3.004376e-07	-9.628411e-12	2.087183e+00	-2.502232e+00
1.920000e-06	3.474269e-07	7.407991e-12	2.413624e+00	-1.281223e+00
1.930000e-06	3.942720e-07	2.404958e-11	2.739064e+00	-4.778423e-02
1.940000e-06	4.410537e-07	3.992713e-11	3.064063e+00	1.197093e+00
1.950000e-06	4.878588e-07	5.561906e-11	3.389225e+00	2.452366e+00
1.960000e-06	5.345155e-07	7.098214e-11	3.713356e+00	3.716948e+00
1.970000e-06	5.810310e-07	8.607262e-11	4.036506e+00	4.989706e+00
1.980000e-06	6.275627e-07	1.012702e-10	4.359768e+00	6.269476e+00
1.990000e-06	6.740481e-07	1.178165e-10	4.682709e+00	7.555058e+00
2.000000e-06	7.204587e-07	1.350662e-10	5.005130e+00	8.845227e+00
2.010000e-06	7.668151e-07	1.537912e-10	5.327174e+00	1.013874e+01
2.020000e-06	8.130981e-07	1.748441e-10	5.648709e+00	1.143434e+01
2.030000e-06	8.593912e-07	1.962908e-10	5.970314e+00	1.273075e+01
2.040000e-06	9.056296e-07	2.155086e-10	6.291539e+00	1.402670e+01
2.050000e-06	9.517294e-07	2.319573e-10	6.611801e+00	1.532093e+01
2.060000e-06	9.977295e-07	2.472169e-10	6.931370e+00	1.661217e+01
2.070000e-06	1.043644e-06	2.621754e-10	7.250344e+00	1.789918e+01
2.080000e-06	1.089542e-06	2.799192e-10	7.569201e+00	1.918073e+01
2.090000e-06	1.135424e-06	3.010510e-10	7.887951e+00	2.045563e+01
2.100000e-06	1.181209e-06	3.230131e-10	8.206030e+00	2.172270e+01
2.110000e-06	1.226907e-06	3.438377e-10	8.523498e+00	2.298081e+01
2.120000e-06	1.272520e-06	3.621134e-10	8.840376e+00	2.422887e+01
2.130000e-06	1.318028e-06	3.778544e-10	9.156531e+00	2.546583e+01
2.140000e-06	1.363515e-06	3.923607e-10	9.472532e+00	2.669068e+01
2.150000e-06	1.408949e-06	4.070700e-10	9.788168e+00	2.790248e+01
2.160000e-06	1.454229e-06	4.225676e-10	1.010274e+01	2.910034e+01
2.170000e-06	1.499364e-06	4.385157e-10	1.041630e+01	3.028342e+01
2.180000e-06	1.544322e-06	4.578176e-10	1.072863e+01	3.145094e+01
2.190000e-06	1.589116e-06	4.780115e-10	1.103982e+01	3.260220e+01
2.200000e-06	1.633780e-06	4.968419e-10	1.135010e+01	3.373654e+01
2.210000e-06	1.678354e-06	5.140416e-10	1.165977e+01	3.485339e+01
2.220000e-06	1.722828e-06	5.281935e-10	1.196873e+01	3.595221e+01
2.230000e-06	1.767184e-06	5.414487e-10	1.227688e+01	3.703255e+01
2.240000e-06	1.811447e-06	5.536636e-10	1.258438e+01	3.809402e+01
2.250000e-06	1.855559e-06	5.662491e-10	1.289084e+01	3.913630e+01
2.260000e-06	1.899607e-06	5.801700e-10	1.319684e+01	4.015912e+01
2.270000e-06	1.943598e-06	5.953329e-10	1.350245e+01	4.116227e+01
2.280000e-06	1.987508e-06	6.126374e-10	1.380750e+01	4.214561e+01
2.290000e-06	2.031371e-06	6.296141e-10	1.411222e+01	4.310903e+01
2.300000e-06	2.075130e-06	6.450676e-10	1.441623e+01	4.405252e+01
2.310000e-06	2.118802e-06	6.570043e-10	1.471962e+01	4.497607e+01
2.320000e-06	2.162391e-06	6.674558e-10	1.502244e+01	4.587974e+01
2.330000e-06	2.205869e-06	6.796580e-10	1.532449e+01	4.676364e+01
2.340000e-06	2.249233e-06	6.925982e-10	1.562574e+01	4.762791e+01
2.350000e-06	2.292408e-06	7.059882e-10	1.592569e+01	4.847272e+01
2.360000e-06	2.335321e-06	7.213301e-10	1.622381e+01	4.929829e+01
2.370000e-06	2.377960e-06	7.355178e-10	1.652003e+01	5.010485e+01
2.380000e-06	2.420333e-06	7.451448e-10	1.681440e+01	5.089266e+01
2.390000e-06	2.462411e-06	7.527319e-10	1.710672e+01	5.166202e+01
2.400000e-06	2.504207e-06	7.612573e-10	1.739709e+01	5.241322e+01
2.410000e-06	2.545793e-06	7.712596e-10	1.768599e+01	5.314657e+01
2.420000e-06	2.587057e-06	7.827214e-10	1.797266e+01	5.386240e+01
2.430000e-06	2.628043e-06	7.964881e-10	1.825739e+01	5.456104e+01
2.440000e-06	2.668798e-06	8.105934e-10	1.854052e+01	5.524282e+01
2.450000e-06	2.709271e-06	8.216389e-10	1.882169e+01	5.590808e+01
2.460000e-06	2.749521e-06	8.291747e-10	1.910132e+01	5.655715e+01
2.470000e-06	2.789610e-06	8.357950e-10	1.937982e+01	5.719036e+01
2.480000e-06	2.829589e-06	8.418622e-10	1.965756e+01	5.780803e+01
2.490000e-06	2.869436e-06	8.491612e-10	1.993438e+01	5.841048e+01
2.500000e-06	2.909174e-06	8.597606e-10	2.021045e+01	5.899800e+01
2.510000e-06	2.948748e-06	8.725507e-10	2.048538e+01	5.957089e+01
2.520000e-06	2.988165e-06	8.848286e-10	2.075921e+01	6.012943e+01
2.530000e-06	3.027401e-06	8.944652e-10	2.103179e+01	6.067389e+01
2.540000e-06	3.066415e-06	8.995156e-10	2.130283e+01	6.120452e+01
2.550000e-06	3.105195e-06	9.018337e-10	2.157224e+01	6.172156e+01
2.560000e-06	3.143764e-06	9.071242e-10	2.184018e+01	6.222524e+01
2.570000e-06	3.182128e-06	9.142278e-10	2.210670e+01	6.271579e+01
2.580000e-06	3.220232e-06	9.206119e-10	2.237141e+01	6.319340e+01
2.590000e-06	3.258156e-06	9.285023e-10	2.263488e+01	6.365827e+01
2.600000e-06	3.295900e-06	9.377849e-10	2.289709e+01	6.411058e+01
2.610000e-06	3.333399e-06	9.456355e-10	2.315760e+01	6.455052e+01
2.620000e-06	3.370646e-06	9.498906e-10	2.341636e+01	6.497825e+01
2.630000e-06	3.407621e-06	9.530984e-10	2.367323e+01	6.539393e+01
2.640000e-06	3.444340e-06	9.560724e-10	2.392832e+01	6.579773e+01
2.650000e-06	3.480838e-06	9.603042e-10	2.418188e+01	6.618981e+01
2.660000e-06	3.517094e-06	9.668380e-10	2.443376e+01	6.657033e+01
2.670000e-06	3.553104e-06	9.722313e-10	2.468392e+01	6.693944e+01
2.680000e-06	3.588951e-06	9.758838e-10	2.493296e+01	6.729732e+01
2.690000e-06	3.624753e-06	9.788812e-10	2.518168e+01	6.764412e+01
2.700000e-06	3.660440e-06	9.836021e-10	2.542960e+01	6.798002e+01
2.710000e-06	3.695925e-06	9.893046e-10	2.567612e+01	6.830521e+01
2.720000e-06	3.731161e-06	9.951583e-10	2.592091e+01	6.861987e+01
2.730000e-06	3.766044e-06	1.000265e-09	2.616325e+01	6.892420e+01
2.740000e-06	3.800594e-06	1.004711e-09	2.640327e+01	6.921841e+01
2.750000e-06	3.834732e-06	1.008377e-09	2.664043e+01	6.950272e+01
2.760000e-06	3.868282e-06	1.010665e-09	2.687351e+01	6.977736e+01
2.770000e-06	3.901342e-06	1.012215e-09	2.710318e+01	7.004258e+01
2.780000e-06	3.934024e-06	1.014397e-09	2.733023e+01	7.029863e+01
2.790000e-06	3.966416e-06	1.018713e-09	2.755526e+01	7.054577e+01
2.800000e-06	3.998643e-06	1.024212e-09	2.777915e+01	7.078428e+01
2.810000e-06	4.030701e-06	1.030677e-09	2.800186e+01	7.101446e+01
2.820000e-06	4.062536e-06	1.038414e-09	2.822302e+01	7.123659e+01
2.830000e-06	4.094074e-06	1.045101e-09	2.844212e+01	7.145098e+01
2.840000e-06	4.125345e-06	1.050580e-09	2.865936e+01	7.165794e+01
2.850000e-06	4.156379e-06	1.055206e-09	2.887496e+01	7.185780e+01
2.860000e-06	4.187099e-06	1.058594e-09	2.908837e+01	7.205087e+01
2.870000e-06	4.217499e-06	1.060436e-09	2.929957e+01	7.223748e+01
2.880000e-06	4.247592e-06	1.061751e-09	2.950863e+01	7.241795e+01
2.890000e-06	4.277379e-06	1.064267e-09	2.971556e+01	7.259261e+01
2.900000e-06	4.306904e-06	1.069103e-09	2.992068e+01	7.276177e+01
