# Temperatura_=_-0.9
# Concentracion g/m^3_=_1620.0
# C_Vs_to_Am_M_A/Vsm_=_65563218390.804596
# pendiente_HvsI_1/m_=_3716.3
# ordenada_HvsI_A/m_=_1297.0
# frecuencia_Hz_=_135101.82897046694

Tiempo_(s)	Campo_(V.s)	Magnetizacion_(V.s)	Campo_(kA/m)	Magnetizacion_(A/m)
0.000000e+00	-5.520026e-06	-1.184235e-09	-3.837281e+01	-7.907703e+01
1.000000e-08	-5.520008e-06	-1.178546e-09	-3.837268e+01	-7.901691e+01
2.000000e-08	-5.519779e-06	-1.178913e-09	-3.837109e+01	-7.895605e+01
3.000000e-08	-5.519294e-06	-1.181897e-09	-3.836772e+01	-7.889441e+01
4.000000e-08	-5.518297e-06	-1.176066e-09	-3.836079e+01	-7.883193e+01
5.000000e-08	-5.516737e-06	-1.159268e-09	-3.834995e+01	-7.876852e+01
6.000000e-08	-5.514582e-06	-1.152819e-09	-3.833496e+01	-7.870412e+01
7.000000e-08	-5.511680e-06	-1.178723e-09	-3.831479e+01	-7.863865e+01
8.000000e-08	-5.508244e-06	-1.241006e-09	-3.829091e+01	-7.857201e+01
9.000000e-08	-5.504418e-06	-1.283092e-09	-3.826431e+01	-7.850412e+01
1.000000e-07	-5.500179e-06	-1.206759e-09	-3.823484e+01	-7.843487e+01
1.100000e-07	-5.495665e-06	-1.115811e-09	-3.820346e+01	-7.836418e+01
1.200000e-07	-5.490958e-06	-1.116066e-09	-3.817074e+01	-7.829193e+01
1.300000e-07	-5.485951e-06	-1.187106e-09	-3.813593e+01	-7.821804e+01
1.400000e-07	-5.480541e-06	-1.198444e-09	-3.809832e+01	-7.814239e+01
1.500000e-07	-5.474749e-06	-1.110799e-09	-3.805806e+01	-7.806488e+01
1.600000e-07	-5.468655e-06	-1.132743e-09	-3.801570e+01	-7.798542e+01
1.700000e-07	-5.462166e-06	-1.204511e-09	-3.797059e+01	-7.790390e+01
1.800000e-07	-5.455233e-06	-1.244000e-09	-3.792240e+01	-7.782023e+01
1.900000e-07	-5.447925e-06	-1.150561e-09	-3.787159e+01	-7.773432e+01
2.000000e-07	-5.440240e-06	-1.135808e-09	-3.781817e+01	-7.764609e+01
2.100000e-07	-5.432227e-06	-1.193228e-09	-3.776247e+01	-7.755545e+01
2.200000e-07	-5.424059e-06	-1.241092e-09	-3.770569e+01	-7.746232e+01
2.300000e-07	-5.415608e-06	-1.187113e-09	-3.764694e+01	-7.736664e+01
2.400000e-07	-5.406615e-06	-1.156360e-09	-3.758442e+01	-7.726834e+01
2.500000e-07	-5.396902e-06	-1.180123e-09	-3.751691e+01	-7.716736e+01
2.600000e-07	-5.386572e-06	-1.179538e-09	-3.744509e+01	-7.706366e+01
2.700000e-07	-5.375748e-06	-1.147205e-09	-3.736985e+01	-7.695719e+01
2.800000e-07	-5.364383e-06	-1.145773e-09	-3.729085e+01	-7.684792e+01
2.900000e-07	-5.352633e-06	-1.181680e-09	-3.720917e+01	-7.673581e+01
3.000000e-07	-5.340542e-06	-1.154117e-09	-3.712511e+01	-7.662085e+01
3.100000e-07	-5.327963e-06	-1.124097e-09	-3.703767e+01	-7.650303e+01
3.200000e-07	-5.314882e-06	-1.118733e-09	-3.694673e+01	-7.638233e+01
3.300000e-07	-5.301462e-06	-1.151976e-09	-3.685345e+01	-7.625875e+01
3.400000e-07	-5.287750e-06	-1.135051e-09	-3.675812e+01	-7.613231e+01
3.500000e-07	-5.273616e-06	-1.136149e-09	-3.665988e+01	-7.600300e+01
3.600000e-07	-5.259042e-06	-1.140850e-09	-3.655856e+01	-7.587084e+01
3.700000e-07	-5.244061e-06	-1.148492e-09	-3.645442e+01	-7.573586e+01
3.800000e-07	-5.228304e-06	-1.112823e-09	-3.634488e+01	-7.559807e+01
3.900000e-07	-5.211980e-06	-1.124150e-09	-3.623141e+01	-7.545750e+01
4.000000e-07	-5.195483e-06	-1.141284e-09	-3.611673e+01	-7.531418e+01
4.100000e-07	-5.178512e-06	-1.134611e-09	-3.599875e+01	-7.516813e+01
4.200000e-07	-5.161096e-06	-1.108728e-09	-3.587768e+01	-7.501939e+01
4.300000e-07	-5.143534e-06	-1.143531e-09	-3.575560e+01	-7.486798e+01
4.400000e-07	-5.125787e-06	-1.157274e-09	-3.563223e+01	-7.471394e+01
4.500000e-07	-5.107578e-06	-1.127504e-09	-3.550565e+01	-7.455728e+01
4.600000e-07	-5.088857e-06	-1.114003e-09	-3.537551e+01	-7.439805e+01
4.700000e-07	-5.069781e-06	-1.143604e-09	-3.524290e+01	-7.423624e+01
4.800000e-07	-5.050356e-06	-1.130440e-09	-3.510787e+01	-7.407190e+01
4.900000e-07	-5.030629e-06	-1.113433e-09	-3.497073e+01	-7.390503e+01
5.000000e-07	-5.010761e-06	-1.129253e-09	-3.483262e+01	-7.373564e+01
5.100000e-07	-4.990718e-06	-1.124713e-09	-3.469329e+01	-7.356373e+01
5.200000e-07	-4.970267e-06	-1.097787e-09	-3.455112e+01	-7.338932e+01
5.300000e-07	-4.949438e-06	-1.116324e-09	-3.440633e+01	-7.321239e+01
5.400000e-07	-4.928375e-06	-1.135829e-09	-3.425991e+01	-7.303293e+01
5.500000e-07	-4.906899e-06	-1.102525e-09	-3.411062e+01	-7.285093e+01
5.600000e-07	-4.885076e-06	-1.094109e-09	-3.395891e+01	-7.266637e+01
5.700000e-07	-4.863043e-06	-1.118147e-09	-3.380575e+01	-7.247922e+01
5.800000e-07	-4.840573e-06	-1.112393e-09	-3.364955e+01	-7.228946e+01
5.900000e-07	-4.817688e-06	-1.089555e-09	-3.349046e+01	-7.209703e+01
6.000000e-07	-4.794493e-06	-1.102333e-09	-3.332922e+01	-7.190191e+01
6.100000e-07	-4.770962e-06	-1.095043e-09	-3.316564e+01	-7.170404e+01
6.200000e-07	-4.747184e-06	-1.073414e-09	-3.300035e+01	-7.150338e+01
6.300000e-07	-4.723264e-06	-1.071334e-09	-3.283406e+01	-7.129987e+01
6.400000e-07	-4.699168e-06	-1.081659e-09	-3.266656e+01	-7.109346e+01
6.500000e-07	-4.674697e-06	-1.065414e-09	-3.249645e+01	-7.088409e+01
6.600000e-07	-4.649729e-06	-1.065160e-09	-3.232288e+01	-7.067170e+01
6.700000e-07	-4.624158e-06	-1.070250e-09	-3.214513e+01	-7.045623e+01
6.800000e-07	-4.597973e-06	-1.067477e-09	-3.196309e+01	-7.023763e+01
6.900000e-07	-4.571277e-06	-1.054365e-09	-3.177752e+01	-7.001582e+01
7.000000e-07	-4.544165e-06	-1.056765e-09	-3.158904e+01	-6.979077e+01
7.100000e-07	-4.516773e-06	-1.048796e-09	-3.139863e+01	-6.956240e+01
7.200000e-07	-4.489126e-06	-1.041121e-09	-3.120644e+01	-6.933067e+01
7.300000e-07	-4.461297e-06	-1.036548e-09	-3.101299e+01	-6.909553e+01
7.400000e-07	-4.433368e-06	-1.037452e-09	-3.081883e+01	-6.885694e+01
7.500000e-07	-4.405282e-06	-1.032743e-09	-3.062359e+01	-6.861485e+01
7.600000e-07	-4.376865e-06	-1.031201e-09	-3.042605e+01	-6.836922e+01
7.700000e-07	-4.347999e-06	-1.022812e-09	-3.022539e+01	-6.812004e+01
7.800000e-07	-4.318747e-06	-1.013664e-09	-3.002204e+01	-6.786728e+01
7.900000e-07	-4.289254e-06	-1.007677e-09	-2.981702e+01	-6.761091e+01
8.000000e-07	-4.259566e-06	-1.003569e-09	-2.961064e+01	-6.735093e+01
8.100000e-07	-4.229561e-06	-9.960988e-10	-2.940206e+01	-6.708734e+01
8.200000e-07	-4.199200e-06	-9.930844e-10	-2.919100e+01	-6.682014e+01
8.300000e-07	-4.168547e-06	-9.929619e-10	-2.897792e+01	-6.654934e+01
8.400000e-07	-4.137684e-06	-9.856217e-10	-2.876337e+01	-6.627496e+01
8.500000e-07	-4.106575e-06	-9.801371e-10	-2.854712e+01	-6.599701e+01
8.600000e-07	-4.075228e-06	-9.782785e-10	-2.832920e+01	-6.571554e+01
8.700000e-07	-4.043654e-06	-9.746473e-10	-2.810972e+01	-6.543056e+01
8.800000e-07	-4.011850e-06	-9.680191e-10	-2.788863e+01	-6.514213e+01
8.900000e-07	-3.979869e-06	-9.692108e-10	-2.766631e+01	-6.485029e+01
9.000000e-07	-3.947729e-06	-9.629115e-10	-2.744288e+01	-6.455508e+01
9.100000e-07	-3.915276e-06	-9.551323e-10	-2.721728e+01	-6.425656e+01
9.200000e-07	-3.882418e-06	-9.509796e-10	-2.698887e+01	-6.395477e+01
9.300000e-07	-3.849119e-06	-9.502001e-10	-2.675740e+01	-6.364979e+01
9.400000e-07	-3.815355e-06	-9.397636e-10	-2.652268e+01	-6.334165e+01
9.500000e-07	-3.781203e-06	-9.349711e-10	-2.628527e+01	-6.303041e+01
9.600000e-07	-3.746571e-06	-9.312542e-10	-2.604452e+01	-6.271614e+01
9.700000e-07	-3.711431e-06	-9.264663e-10	-2.580025e+01	-6.239888e+01
9.800000e-07	-3.675990e-06	-9.204682e-10	-2.555388e+01	-6.207868e+01
9.900000e-07	-3.640399e-06	-9.205391e-10	-2.530647e+01	-6.175558e+01
1.000000e-06	-3.604669e-06	-9.148099e-10	-2.505809e+01	-6.142963e+01
1.010000e-06	-3.568820e-06	-9.094792e-10	-2.480888e+01	-6.110085e+01
1.020000e-06	-3.532847e-06	-9.067933e-10	-2.455881e+01	-6.076927e+01
1.030000e-06	-3.496698e-06	-9.044536e-10	-2.430751e+01	-6.043492e+01
1.040000e-06	-3.460321e-06	-8.976863e-10	-2.405464e+01	-6.009780e+01
1.050000e-06	-3.423638e-06	-8.945598e-10	-2.379963e+01	-5.975791e+01
1.060000e-06	-3.386658e-06	-8.905726e-10	-2.354257e+01	-5.941524e+01
1.070000e-06	-3.349413e-06	-8.818682e-10	-2.328365e+01	-5.906978e+01
1.080000e-06	-3.311965e-06	-8.731953e-10	-2.302333e+01	-5.872149e+01
1.090000e-06	-3.274330e-06	-8.664874e-10	-2.276171e+01	-5.837033e+01
1.100000e-06	-3.236390e-06	-8.572622e-10	-2.249797e+01	-5.801624e+01
1.110000e-06	-3.198237e-06	-8.481952e-10	-2.223274e+01	-5.765916e+01
1.120000e-06	-3.160011e-06	-8.437558e-10	-2.196702e+01	-5.729901e+01
1.130000e-06	-3.121494e-06	-8.389363e-10	-2.169926e+01	-5.693570e+01
1.140000e-06	-3.082666e-06	-8.315524e-10	-2.142934e+01	-5.656913e+01
1.150000e-06	-3.043716e-06	-8.243683e-10	-2.115858e+01	-5.619917e+01
1.160000e-06	-3.004612e-06	-8.196237e-10	-2.088675e+01	-5.582571e+01
1.170000e-06	-2.965277e-06	-8.125430e-10	-2.061331e+01	-5.544860e+01
1.180000e-06	-2.925777e-06	-8.057485e-10	-2.033873e+01	-5.506769e+01
1.190000e-06	-2.886133e-06	-7.968838e-10	-2.006313e+01	-5.468282e+01
1.200000e-06	-2.846290e-06	-7.870317e-10	-1.978616e+01	-5.429382e+01
1.210000e-06	-2.806337e-06	-7.776561e-10	-1.950843e+01	-5.390050e+01
1.220000e-06	-2.766293e-06	-7.728835e-10	-1.923006e+01	-5.350267e+01
1.230000e-06	-2.726148e-06	-7.669170e-10	-1.895099e+01	-5.310014e+01
1.240000e-06	-2.685792e-06	-7.605962e-10	-1.867045e+01	-5.269269e+01
1.250000e-06	-2.645178e-06	-7.523330e-10	-1.838812e+01	-5.228011e+01
1.260000e-06	-2.604415e-06	-7.428447e-10	-1.810475e+01	-5.186217e+01
1.270000e-06	-2.563358e-06	-7.330861e-10	-1.781935e+01	-5.143864e+01
1.280000e-06	-2.521984e-06	-7.269788e-10	-1.753173e+01	-5.100930e+01
1.290000e-06	-2.480410e-06	-7.219740e-10	-1.724273e+01	-5.057389e+01
1.300000e-06	-2.438472e-06	-7.157568e-10	-1.695119e+01	-5.013218e+01
1.310000e-06	-2.396164e-06	-7.065816e-10	-1.665709e+01	-4.968392e+01
1.320000e-06	-2.353587e-06	-6.990046e-10	-1.636111e+01	-4.922886e+01
1.330000e-06	-2.310770e-06	-6.914205e-10	-1.606347e+01	-4.876675e+01
1.340000e-06	-2.267723e-06	-6.843716e-10	-1.576422e+01	-4.829732e+01
1.350000e-06	-2.224433e-06	-6.769580e-10	-1.546329e+01	-4.782033e+01
1.360000e-06	-2.180958e-06	-6.687463e-10	-1.516107e+01	-4.733552e+01
1.370000e-06	-2.137305e-06	-6.621508e-10	-1.485761e+01	-4.684262e+01
1.380000e-06	-2.093563e-06	-6.569466e-10	-1.455353e+01	-4.634138e+01
1.390000e-06	-2.049770e-06	-6.481184e-10	-1.424911e+01	-4.583155e+01
1.400000e-06	-2.005900e-06	-6.373134e-10	-1.394414e+01	-4.531285e+01
1.410000e-06	-1.961992e-06	-6.259107e-10	-1.363891e+01	-4.478503e+01
1.420000e-06	-1.918008e-06	-6.149579e-10	-1.333315e+01	-4.424784e+01
1.430000e-06	-1.873931e-06	-6.066284e-10	-1.302675e+01	-4.370101e+01
1.440000e-06	-1.829776e-06	-6.001806e-10	-1.271981e+01	-4.314427e+01
1.450000e-06	-1.785568e-06	-5.943191e-10	-1.241249e+01	-4.257738e+01
1.460000e-06	-1.741217e-06	-5.869043e-10	-1.210418e+01	-4.200007e+01
1.470000e-06	-1.696698e-06	-5.762023e-10	-1.179471e+01	-4.141209e+01
1.480000e-06	-1.652026e-06	-5.630768e-10	-1.148416e+01	-4.081316e+01
1.490000e-06	-1.607196e-06	-5.524148e-10	-1.117252e+01	-4.020303e+01
1.500000e-06	-1.562319e-06	-5.418101e-10	-1.086056e+01	-3.958144e+01
1.510000e-06	-1.517350e-06	-5.300395e-10	-1.054796e+01	-3.894813e+01
1.520000e-06	-1.472196e-06	-5.201480e-10	-1.023406e+01	-3.830283e+01
1.530000e-06	-1.426958e-06	-5.141154e-10	-9.919590e+00	-3.764528e+01
1.540000e-06	-1.381652e-06	-5.065738e-10	-9.604638e+00	-3.697523e+01
1.550000e-06	-1.336235e-06	-4.963690e-10	-9.288923e+00	-3.629240e+01
1.560000e-06	-1.290765e-06	-4.829685e-10	-8.972834e+00	-3.559654e+01
1.570000e-06	-1.245177e-06	-4.695160e-10	-8.655929e+00	-3.488738e+01
1.580000e-06	-1.199462e-06	-4.561624e-10	-8.338135e+00	-3.416467e+01
1.590000e-06	-1.153650e-06	-4.444612e-10	-8.019674e+00	-3.342815e+01
1.600000e-06	-1.107783e-06	-4.339067e-10	-7.700820e+00	-3.267757e+01
1.610000e-06	-1.061850e-06	-4.241316e-10	-7.381519e+00	-3.191266e+01
1.620000e-06	-1.015780e-06	-4.152829e-10	-7.061259e+00	-3.113319e+01
1.630000e-06	-9.696448e-07	-4.075995e-10	-6.740547e+00	-3.033892e+01
1.640000e-06	-9.234697e-07	-3.988622e-10	-6.419557e+00	-2.952961e+01
1.650000e-06	-8.772018e-07	-3.864933e-10	-6.097923e+00	-2.870503e+01
1.660000e-06	-8.308595e-07	-3.712583e-10	-5.775772e+00	-2.786498e+01
1.670000e-06	-7.845110e-07	-3.547512e-10	-5.453577e+00	-2.700923e+01
1.680000e-06	-7.381258e-07	-3.379182e-10	-5.131128e+00	-2.613761e+01
1.690000e-06	-6.916703e-07	-3.247761e-10	-4.808190e+00	-2.524994e+01
1.700000e-06	-6.451626e-07	-3.156097e-10	-4.484888e+00	-2.434605e+01
1.710000e-06	-5.986108e-07	-3.060620e-10	-4.161280e+00	-2.342580e+01
1.720000e-06	-5.520503e-07	-2.921386e-10	-3.837612e+00	-2.248907e+01
1.730000e-06	-5.055109e-07	-2.735749e-10	-3.514091e+00	-2.153578e+01
1.740000e-06	-4.589414e-07	-2.535310e-10	-3.190360e+00	-2.056583e+01
1.750000e-06	-4.122846e-07	-2.363708e-10	-2.866023e+00	-1.957918e+01
1.760000e-06	-3.655546e-07	-2.243494e-10	-2.541175e+00	-1.857583e+01
1.770000e-06	-3.187565e-07	-2.138463e-10	-2.215856e+00	-1.755578e+01
1.780000e-06	-2.719150e-07	-2.022982e-10	-1.890234e+00	-1.651908e+01
1.790000e-06	-2.250859e-07	-1.886675e-10	-1.564699e+00	-1.546582e+01
1.800000e-06	-1.782405e-07	-1.728494e-10	-1.239050e+00	-1.439611e+01
1.810000e-06	-1.313371e-07	-1.566153e-10	-9.129978e-01	-1.331011e+01
1.820000e-06	-8.448675e-08	-1.422972e-10	-5.873150e-01	-1.220804e+01
1.830000e-06	-3.764988e-08	-1.297187e-10	-2.617255e-01	-1.109012e+01
1.840000e-06	9.192042e-09	-1.164265e-10	6.389906e-02	-9.956656e+00
1.850000e-06	5.607447e-08	-1.012459e-10	3.898052e-01	-8.807970e+00
1.860000e-06	1.029477e-07	-8.658426e-11	7.156474e-01	-7.644445e+00
1.870000e-06	1.497695e-07	-6.991408e-11	1.041132e+00	-6.466505e+00
1.880000e-06	1.965368e-07	-5.051941e-11	1.366238e+00	-5.274625e+00
1.890000e-06	2.432245e-07	-3.080312e-11	1.690790e+00	-4.069325e+00
1.900000e-06	2.899874e-07	-1.303807e-11	2.015865e+00	-2.851176e+00
1.910000e-06	3.368191e-07	3.772148e-12	2.341419e+00	-1.620793e+00
1.920000e-06	3.836169e-07	1.877560e-11	2.666737e+00	-3.788413e-01
1.930000e-06	4.303667e-07	3.359167e-11	2.991721e+00	8.739696e-01
1.940000e-06	4.770305e-07	5.185039e-11	3.316107e+00	2.136884e+00
1.950000e-06	5.236146e-07	7.273517e-11	3.639940e+00	3.409103e+00
1.960000e-06	5.701827e-07	9.373685e-11	3.963661e+00	4.689785e+00
1.970000e-06	6.166583e-07	1.118948e-10	4.286739e+00	5.978048e+00
1.980000e-06	6.630464e-07	1.280682e-10	4.609208e+00	7.272974e+00
1.990000e-06	7.094412e-07	1.457456e-10	4.931725e+00	8.573608e+00
2.000000e-06	7.558125e-07	1.634441e-10	5.254078e+00	9.878962e+00
2.010000e-06	8.021055e-07	1.804609e-10	5.575887e+00	1.118802e+01
2.020000e-06	8.483853e-07	2.012123e-10	5.897604e+00	1.249974e+01
2.030000e-06	8.946460e-07	2.231356e-10	6.219187e+00	1.381306e+01
2.040000e-06	9.407678e-07	2.422138e-10	6.539806e+00	1.512689e+01
2.050000e-06	9.868552e-07	2.581268e-10	6.860186e+00	1.644014e+01
2.060000e-06	1.032985e-06	2.739000e-10	7.180862e+00	1.775169e+01
2.070000e-06	1.078994e-06	2.926200e-10	7.500695e+00	1.906043e+01
2.080000e-06	1.124871e-06	3.135159e-10	7.819608e+00	2.036525e+01
2.090000e-06	1.170647e-06	3.368035e-10	8.137829e+00	2.166502e+01
2.100000e-06	1.216300e-06	3.569838e-10	8.455187e+00	2.295863e+01
2.110000e-06	1.261833e-06	3.745062e-10	8.771711e+00	2.424499e+01
2.120000e-06	1.307291e-06	3.888068e-10	9.087719e+00	2.552301e+01
2.130000e-06	1.352726e-06	4.015485e-10	9.403562e+00	2.679163e+01
2.140000e-06	1.398109e-06	4.178219e-10	9.719041e+00	2.804981e+01
2.150000e-06	1.443381e-06	4.366333e-10	1.003375e+01	2.929653e+01
2.160000e-06	1.488501e-06	4.558428e-10	1.034741e+01	3.053082e+01
2.170000e-06	1.533569e-06	4.760161e-10	1.066070e+01	3.175174e+01
2.180000e-06	1.578544e-06	4.968711e-10	1.097335e+01	3.295837e+01
2.190000e-06	1.623297e-06	5.111050e-10	1.128445e+01	3.414985e+01
2.200000e-06	1.667887e-06	5.221578e-10	1.159442e+01	3.532537e+01
2.210000e-06	1.712402e-06	5.352520e-10	1.190387e+01	3.648417e+01
2.220000e-06	1.756815e-06	5.500855e-10	1.221261e+01	3.762553e+01
2.230000e-06	1.801096e-06	5.675852e-10	1.252043e+01	3.874878e+01
2.240000e-06	1.845280e-06	5.857067e-10	1.282758e+01	3.985334e+01
2.250000e-06	1.889353e-06	6.013487e-10	1.313396e+01	4.093864e+01
2.260000e-06	1.933379e-06	6.133414e-10	1.344001e+01	4.200420e+01
2.270000e-06	1.977351e-06	6.253881e-10	1.374568e+01	4.304959e+01
2.280000e-06	2.021223e-06	6.389304e-10	1.405066e+01	4.407446e+01
2.290000e-06	2.065000e-06	6.535679e-10	1.435498e+01	4.507849e+01
2.300000e-06	2.108670e-06	6.679980e-10	1.465855e+01	4.606144e+01
2.310000e-06	2.152252e-06	6.801293e-10	1.496152e+01	4.702313e+01
2.320000e-06	2.195749e-06	6.911644e-10	1.526389e+01	4.796343e+01
2.330000e-06	2.239103e-06	7.010654e-10	1.556527e+01	4.888228e+01
2.340000e-06	2.282284e-06	7.137473e-10	1.586544e+01	4.977967e+01
2.350000e-06	2.325277e-06	7.293694e-10	1.616431e+01	5.065565e+01
2.360000e-06	2.368039e-06	7.454630e-10	1.646157e+01	5.151032e+01
2.370000e-06	2.410519e-06	7.586314e-10	1.675688e+01	5.234384e+01
2.380000e-06	2.452658e-06	7.683274e-10	1.704980e+01	5.315639e+01
2.390000e-06	2.494441e-06	7.764305e-10	1.734026e+01	5.394825e+01
2.400000e-06	2.535898e-06	7.833664e-10	1.762846e+01	5.471968e+01
2.410000e-06	2.577231e-06	7.905857e-10	1.791578e+01	5.547102e+01
2.420000e-06	2.618351e-06	8.029456e-10	1.820163e+01	5.620265e+01
2.430000e-06	2.659072e-06	8.196049e-10	1.848471e+01	5.691494e+01
2.440000e-06	2.699554e-06	8.342791e-10	1.876612e+01	5.760834e+01
2.450000e-06	2.739817e-06	8.453150e-10	1.904601e+01	5.828330e+01
2.460000e-06	2.779852e-06	8.557593e-10	1.932432e+01	5.894029e+01
2.470000e-06	2.819785e-06	8.645096e-10	1.960192e+01	5.957980e+01
2.480000e-06	2.859613e-06	8.721701e-10	1.987878e+01	6.020235e+01
2.490000e-06	2.899314e-06	8.816440e-10	2.015477e+01	6.080845e+01
2.500000e-06	2.938871e-06	8.923663e-10	2.042975e+01	6.139864e+01
2.510000e-06	2.978282e-06	9.030773e-10	2.070371e+01	6.197343e+01
2.520000e-06	3.017495e-06	9.136229e-10	2.097630e+01	6.253336e+01
2.530000e-06	3.056488e-06	9.216453e-10	2.124737e+01	6.307897e+01
2.540000e-06	3.095336e-06	9.268878e-10	2.151743e+01	6.361077e+01
2.550000e-06	3.133919e-06	9.338053e-10	2.178563e+01	6.412928e+01
2.560000e-06	3.172265e-06	9.425086e-10	2.205220e+01	6.463500e+01
2.570000e-06	3.210448e-06	9.495405e-10	2.231763e+01	6.512843e+01
2.580000e-06	3.248364e-06	9.545619e-10	2.258121e+01	6.561004e+01
2.590000e-06	3.286084e-06	9.611210e-10	2.284342e+01	6.608028e+01
2.600000e-06	3.323632e-06	9.692146e-10	2.310443e+01	6.653960e+01
2.610000e-06	3.360901e-06	9.750611e-10	2.336352e+01	6.698842e+01
2.620000e-06	3.397877e-06	9.780218e-10	2.362056e+01	6.742712e+01
2.630000e-06	3.434573e-06	9.818819e-10	2.387565e+01	6.785607e+01
2.640000e-06	3.471050e-06	9.874095e-10	2.412922e+01	6.827564e+01
2.650000e-06	3.507358e-06	9.951248e-10	2.438162e+01	6.868614e+01
2.660000e-06	3.543445e-06	1.003440e-09	2.463248e+01	6.908788e+01
2.670000e-06	3.579350e-06	1.010322e-09	2.488208e+01	6.948112e+01
2.680000e-06	3.615104e-06	1.016888e-09	2.513062e+01	6.986612e+01
2.690000e-06	3.650646e-06	1.023404e-09	2.537769e+01	7.024310e+01
2.700000e-06	3.686020e-06	1.027990e-09	2.562360e+01	7.061227e+01
2.710000e-06	3.721189e-06	1.032136e-09	2.586808e+01	7.097382e+01
2.720000e-06	3.756082e-06	1.038667e-09	2.611064e+01	7.132789e+01
2.730000e-06	3.790669e-06	1.046085e-09	2.635107e+01	7.167463e+01
2.740000e-06	3.824855e-06	1.051778e-09	2.658872e+01	7.201415e+01
2.750000e-06	3.858556e-06	1.056518e-09	2.682299e+01	7.234656e+01
2.760000e-06	3.891800e-06	1.061738e-09	2.705409e+01	7.267195e+01
2.770000e-06	3.924622e-06	1.067037e-09	2.728226e+01	7.299038e+01
2.780000e-06	3.957099e-06	1.071086e-09	2.750802e+01	7.330190e+01
2.790000e-06	3.989323e-06	1.076017e-09	2.773203e+01	7.360656e+01
2.800000e-06	4.021324e-06	1.081388e-09	2.795449e+01	7.390439e+01
2.810000e-06	4.053113e-06	1.086526e-09	2.817547e+01	7.419542e+01
2.820000e-06	4.084700e-06	1.091317e-09	2.839505e+01	7.447966e+01
2.830000e-06	4.116054e-06	1.095674e-09	2.861301e+01	7.475712e+01
2.840000e-06	4.147137e-06	1.102104e-09	2.882909e+01	7.502781e+01
2.850000e-06	4.177946e-06	1.109531e-09	2.904325e+01	7.529173e+01
2.860000e-06	4.208439e-06	1.113901e-09	2.925523e+01	7.554887e+01
2.870000e-06	4.238664e-06	1.115932e-09	2.946534e+01	7.579924e+01
2.880000e-06	4.268629e-06	1.118734e-09	2.967364e+01	7.604285e+01
2.890000e-06	4.298251e-06	1.123168e-09	2.987956e+01	7.627968e+01
2.900000e-06	4.327544e-06	1.127772e-09	3.008320e+01	7.650975e+01
2.910000e-06	4.356558e-06	1.132181e-09	3.028488e+01	7.673306e+01
