# Temperatura_=_-4.5
# Concentracion g/m^3_=_1620.0
# C_Vs_to_Am_M_A/Vsm_=_65563218390.804596
# pendiente_HvsI_1/m_=_3716.3
# ordenada_HvsI_A/m_=_1297.0
# frecuencia_Hz_=_135106.86250946412

Tiempo_(s)	Campo_(V.s)	Magnetizacion_(V.s)	Campo_(kA/m)	Magnetizacion_(A/m)
0.000000e+00	-5.520269e-06	-6.587418e-10	-3.836425e+01	-4.664635e+01
1.000000e-08	-5.520546e-06	-6.560016e-10	-3.836617e+01	-4.659975e+01
2.000000e-08	-5.520514e-06	-6.542098e-10	-3.836595e+01	-4.655558e+01
3.000000e-08	-5.520095e-06	-6.525474e-10	-3.836304e+01	-4.651388e+01
4.000000e-08	-5.519063e-06	-6.469827e-10	-3.835587e+01	-4.647468e+01
5.000000e-08	-5.517408e-06	-6.340672e-10	-3.834437e+01	-4.643798e+01
6.000000e-08	-5.515242e-06	-6.306542e-10	-3.832932e+01	-4.640378e+01
7.000000e-08	-5.512533e-06	-6.546309e-10	-3.831049e+01	-4.637203e+01
8.000000e-08	-5.509367e-06	-6.804683e-10	-3.828849e+01	-4.634271e+01
9.000000e-08	-5.505758e-06	-6.900040e-10	-3.826341e+01	-4.631575e+01
1.000000e-07	-5.501655e-06	-6.852911e-10	-3.823489e+01	-4.629108e+01
1.100000e-07	-5.497234e-06	-6.315042e-10	-3.820416e+01	-4.626860e+01
1.200000e-07	-5.492699e-06	-5.549533e-10	-3.817265e+01	-4.624820e+01
1.300000e-07	-5.487908e-06	-6.060364e-10	-3.813936e+01	-4.622976e+01
1.400000e-07	-5.482642e-06	-6.835678e-10	-3.810275e+01	-4.621314e+01
1.500000e-07	-5.476954e-06	-6.742279e-10	-3.806323e+01	-4.619820e+01
1.600000e-07	-5.470986e-06	-5.755864e-10	-3.802175e+01	-4.618476e+01
1.700000e-07	-5.464589e-06	-6.016657e-10	-3.797729e+01	-4.617264e+01
1.800000e-07	-5.457738e-06	-7.257706e-10	-3.792968e+01	-4.616166e+01
1.900000e-07	-5.450499e-06	-7.033714e-10	-3.787937e+01	-4.615161e+01
2.000000e-07	-5.443000e-06	-6.119678e-10	-3.782726e+01	-4.614229e+01
2.100000e-07	-5.435330e-06	-6.095115e-10	-3.777395e+01	-4.613348e+01
2.200000e-07	-5.427360e-06	-7.178819e-10	-3.771856e+01	-4.612496e+01
2.300000e-07	-5.419026e-06	-7.163542e-10	-3.766064e+01	-4.611649e+01
2.400000e-07	-5.410226e-06	-6.648992e-10	-3.759948e+01	-4.610784e+01
2.500000e-07	-5.400741e-06	-6.561810e-10	-3.753357e+01	-4.609877e+01
2.600000e-07	-5.390508e-06	-7.098159e-10	-3.746245e+01	-4.608904e+01
2.700000e-07	-5.379757e-06	-6.976947e-10	-3.738774e+01	-4.607842e+01
2.800000e-07	-5.368614e-06	-6.822961e-10	-3.731030e+01	-4.606666e+01
2.900000e-07	-5.357049e-06	-6.940031e-10	-3.722992e+01	-4.605354e+01
3.000000e-07	-5.345056e-06	-7.152031e-10	-3.714658e+01	-4.603882e+01
3.100000e-07	-5.332619e-06	-7.030676e-10	-3.706014e+01	-4.602227e+01
3.200000e-07	-5.319782e-06	-6.941071e-10	-3.697093e+01	-4.600368e+01
3.300000e-07	-5.306627e-06	-7.022775e-10	-3.687950e+01	-4.598283e+01
3.400000e-07	-5.293155e-06	-7.206423e-10	-3.678588e+01	-4.595954e+01
3.500000e-07	-5.279257e-06	-7.330683e-10	-3.668929e+01	-4.593360e+01
3.600000e-07	-5.264788e-06	-7.113638e-10	-3.658874e+01	-4.590483e+01
3.700000e-07	-5.249796e-06	-7.052492e-10	-3.648454e+01	-4.587308e+01
3.800000e-07	-5.234339e-06	-7.313365e-10	-3.637712e+01	-4.583820e+01
3.900000e-07	-5.218327e-06	-7.204997e-10	-3.626584e+01	-4.580003e+01
4.000000e-07	-5.201890e-06	-6.771896e-10	-3.615161e+01	-4.575848e+01
4.100000e-07	-5.185218e-06	-7.152046e-10	-3.603575e+01	-4.571342e+01
4.200000e-07	-5.168221e-06	-7.429464e-10	-3.591762e+01	-4.566477e+01
4.300000e-07	-5.150805e-06	-6.867427e-10	-3.579658e+01	-4.561247e+01
4.400000e-07	-5.133039e-06	-6.807943e-10	-3.567312e+01	-4.555646e+01
4.500000e-07	-5.114996e-06	-7.579912e-10	-3.554772e+01	-4.549669e+01
4.600000e-07	-5.096579e-06	-7.057318e-10	-3.541973e+01	-4.543317e+01
4.700000e-07	-5.077723e-06	-6.447242e-10	-3.528869e+01	-4.536587e+01
4.800000e-07	-5.058549e-06	-7.190102e-10	-3.515543e+01	-4.529484e+01
4.900000e-07	-5.039159e-06	-7.533168e-10	-3.502068e+01	-4.522008e+01
5.000000e-07	-5.019561e-06	-6.571871e-10	-3.488448e+01	-4.514167e+01
5.100000e-07	-4.999717e-06	-6.874931e-10	-3.474657e+01	-4.505966e+01
5.200000e-07	-4.979523e-06	-7.538152e-10	-3.460623e+01	-4.497415e+01
5.300000e-07	-4.958932e-06	-6.910664e-10	-3.446312e+01	-4.488522e+01
5.400000e-07	-4.937947e-06	-6.666467e-10	-3.431729e+01	-4.479299e+01
5.500000e-07	-4.916578e-06	-7.499556e-10	-3.416878e+01	-4.469759e+01
5.600000e-07	-4.894848e-06	-7.065642e-10	-3.401776e+01	-4.459916e+01
5.700000e-07	-4.872789e-06	-6.449610e-10	-3.386445e+01	-4.449783e+01
5.800000e-07	-4.850442e-06	-7.176496e-10	-3.370915e+01	-4.439377e+01
5.900000e-07	-4.827718e-06	-7.393838e-10	-3.355123e+01	-4.428715e+01
6.000000e-07	-4.804664e-06	-6.603560e-10	-3.339100e+01	-4.417813e+01
6.100000e-07	-4.781388e-06	-6.858746e-10	-3.322925e+01	-4.406689e+01
6.200000e-07	-4.757912e-06	-7.302375e-10	-3.306609e+01	-4.395362e+01
6.300000e-07	-4.734237e-06	-6.749225e-10	-3.290156e+01	-4.383851e+01
6.400000e-07	-4.710317e-06	-6.669909e-10	-3.273532e+01	-4.372172e+01
6.500000e-07	-4.686005e-06	-7.157020e-10	-3.256636e+01	-4.360346e+01
6.600000e-07	-4.661123e-06	-6.905565e-10	-3.239344e+01	-4.348390e+01
6.700000e-07	-4.635707e-06	-6.652176e-10	-3.221681e+01	-4.336323e+01
6.800000e-07	-4.609728e-06	-7.081140e-10	-3.203626e+01	-4.324163e+01
6.900000e-07	-4.583203e-06	-7.040891e-10	-3.185192e+01	-4.311925e+01
7.000000e-07	-4.556275e-06	-6.705552e-10	-3.166478e+01	-4.299627e+01
7.100000e-07	-4.529081e-06	-6.862739e-10	-3.147579e+01	-4.287284e+01
7.200000e-07	-4.501718e-06	-7.024741e-10	-3.128562e+01	-4.274911e+01
7.300000e-07	-4.474186e-06	-6.737347e-10	-3.109428e+01	-4.262520e+01
7.400000e-07	-4.446467e-06	-6.747557e-10	-3.090164e+01	-4.250125e+01
7.500000e-07	-4.418488e-06	-6.880209e-10	-3.070720e+01	-4.237737e+01
7.600000e-07	-4.390160e-06	-6.779132e-10	-3.051033e+01	-4.225365e+01
7.700000e-07	-4.361425e-06	-6.683129e-10	-3.031063e+01	-4.213018e+01
7.800000e-07	-4.332342e-06	-6.808775e-10	-3.010850e+01	-4.200702e+01
7.900000e-07	-4.303034e-06	-6.747578e-10	-2.990483e+01	-4.188424e+01
8.000000e-07	-4.273515e-06	-6.654421e-10	-2.969968e+01	-4.176187e+01
8.100000e-07	-4.243697e-06	-6.664446e-10	-2.949245e+01	-4.163994e+01
8.200000e-07	-4.213571e-06	-6.629815e-10	-2.928308e+01	-4.151846e+01
8.300000e-07	-4.183120e-06	-6.497269e-10	-2.907146e+01	-4.139742e+01
8.400000e-07	-4.152325e-06	-6.557492e-10	-2.885744e+01	-4.127680e+01
8.500000e-07	-4.121263e-06	-6.549699e-10	-2.864157e+01	-4.115657e+01
8.600000e-07	-4.090027e-06	-6.432060e-10	-2.842449e+01	-4.103668e+01
8.700000e-07	-4.058612e-06	-6.419623e-10	-2.820616e+01	-4.091706e+01
8.800000e-07	-4.027004e-06	-6.481355e-10	-2.798650e+01	-4.079763e+01
8.900000e-07	-3.995250e-06	-6.388556e-10	-2.776582e+01	-4.067832e+01
9.000000e-07	-3.963266e-06	-6.337096e-10	-2.754354e+01	-4.055901e+01
9.100000e-07	-3.930890e-06	-6.392414e-10	-2.731853e+01	-4.043960e+01
9.200000e-07	-3.898089e-06	-6.341489e-10	-2.709058e+01	-4.031997e+01
9.300000e-07	-3.864913e-06	-6.279824e-10	-2.686001e+01	-4.019997e+01
9.400000e-07	-3.831264e-06	-6.317058e-10	-2.662616e+01	-4.007948e+01
9.500000e-07	-3.797083e-06	-6.273555e-10	-2.638861e+01	-3.995835e+01
9.600000e-07	-3.762447e-06	-6.127161e-10	-2.614791e+01	-3.983643e+01
9.700000e-07	-3.727462e-06	-6.126633e-10	-2.590477e+01	-3.971355e+01
9.800000e-07	-3.692247e-06	-6.155660e-10	-2.566003e+01	-3.958957e+01
9.900000e-07	-3.656910e-06	-6.096236e-10	-2.541445e+01	-3.946431e+01
1.000000e-06	-3.621479e-06	-6.073802e-10	-2.516822e+01	-3.933762e+01
1.010000e-06	-3.585861e-06	-6.125550e-10	-2.492068e+01	-3.920932e+01
1.020000e-06	-3.550019e-06	-6.063822e-10	-2.467159e+01	-3.907926e+01
1.030000e-06	-3.513985e-06	-5.982300e-10	-2.442117e+01	-3.894727e+01
1.040000e-06	-3.477783e-06	-5.959441e-10	-2.416957e+01	-3.881319e+01
1.050000e-06	-3.441279e-06	-5.913791e-10	-2.391588e+01	-3.867687e+01
1.060000e-06	-3.404455e-06	-5.818323e-10	-2.365997e+01	-3.853814e+01
1.070000e-06	-3.367385e-06	-5.828422e-10	-2.340234e+01	-3.839687e+01
1.080000e-06	-3.330035e-06	-5.831278e-10	-2.314277e+01	-3.825290e+01
1.090000e-06	-3.292429e-06	-5.786838e-10	-2.288142e+01	-3.810610e+01
1.100000e-06	-3.254487e-06	-5.762932e-10	-2.261773e+01	-3.795634e+01
1.110000e-06	-3.216306e-06	-5.785096e-10	-2.235238e+01	-3.780349e+01
1.120000e-06	-3.178012e-06	-5.736142e-10	-2.208625e+01	-3.764743e+01
1.130000e-06	-3.139544e-06	-5.691361e-10	-2.181891e+01	-3.748805e+01
1.140000e-06	-3.100775e-06	-5.688338e-10	-2.154948e+01	-3.732524e+01
1.150000e-06	-3.061744e-06	-5.642822e-10	-2.127822e+01	-3.715890e+01
1.160000e-06	-3.022650e-06	-5.555993e-10	-2.100653e+01	-3.698893e+01
1.170000e-06	-2.983452e-06	-5.538358e-10	-2.073412e+01	-3.681525e+01
1.180000e-06	-2.944110e-06	-5.546833e-10	-2.046070e+01	-3.663777e+01
1.190000e-06	-2.904656e-06	-5.546301e-10	-2.018651e+01	-3.645641e+01
1.200000e-06	-2.865085e-06	-5.557550e-10	-1.991150e+01	-3.627109e+01
1.210000e-06	-2.825361e-06	-5.546964e-10	-1.963543e+01	-3.608174e+01
1.220000e-06	-2.785440e-06	-5.479330e-10	-1.935799e+01	-3.588829e+01
1.230000e-06	-2.745279e-06	-5.407054e-10	-1.907889e+01	-3.569067e+01
1.240000e-06	-2.704947e-06	-5.374412e-10	-1.879859e+01	-3.548881e+01
1.250000e-06	-2.664462e-06	-5.334748e-10	-1.851723e+01	-3.528263e+01
1.260000e-06	-2.623740e-06	-5.290876e-10	-1.823422e+01	-3.507207e+01
1.270000e-06	-2.582677e-06	-5.251576e-10	-1.794885e+01	-3.485704e+01
1.280000e-06	-2.541257e-06	-5.233784e-10	-1.766099e+01	-3.463748e+01
1.290000e-06	-2.499617e-06	-5.202410e-10	-1.737161e+01	-3.441330e+01
1.300000e-06	-2.457711e-06	-5.153840e-10	-1.708037e+01	-3.418440e+01
1.310000e-06	-2.415438e-06	-5.101135e-10	-1.678659e+01	-3.395069e+01
1.320000e-06	-2.372875e-06	-5.051206e-10	-1.649079e+01	-3.371207e+01
1.330000e-06	-2.330080e-06	-4.993303e-10	-1.619337e+01	-3.346843e+01
1.340000e-06	-2.287102e-06	-4.965132e-10	-1.589469e+01	-3.321963e+01
1.350000e-06	-2.244011e-06	-4.942245e-10	-1.559522e+01	-3.296555e+01
1.360000e-06	-2.200733e-06	-4.903185e-10	-1.529445e+01	-3.270605e+01
1.370000e-06	-2.157322e-06	-4.867650e-10	-1.499275e+01	-3.244096e+01
1.380000e-06	-2.113843e-06	-4.870951e-10	-1.469059e+01	-3.217011e+01
1.390000e-06	-2.070255e-06	-4.855437e-10	-1.438766e+01	-3.189334e+01
1.400000e-06	-2.026556e-06	-4.809966e-10	-1.408397e+01	-3.161044e+01
1.410000e-06	-1.982745e-06	-4.756836e-10	-1.377950e+01	-3.132120e+01
1.420000e-06	-1.938827e-06	-4.705043e-10	-1.347428e+01	-3.102541e+01
1.430000e-06	-1.894873e-06	-4.664073e-10	-1.316881e+01	-3.072282e+01
1.440000e-06	-1.850798e-06	-4.631038e-10	-1.286250e+01	-3.041320e+01
1.450000e-06	-1.806603e-06	-4.576088e-10	-1.255536e+01	-3.009629e+01
1.460000e-06	-1.762335e-06	-4.513291e-10	-1.224771e+01	-2.977181e+01
1.470000e-06	-1.717915e-06	-4.451693e-10	-1.193901e+01	-2.943948e+01
1.480000e-06	-1.673327e-06	-4.381100e-10	-1.162914e+01	-2.909901e+01
1.490000e-06	-1.628586e-06	-4.298739e-10	-1.131820e+01	-2.875009e+01
1.500000e-06	-1.583720e-06	-4.254377e-10	-1.100639e+01	-2.839242e+01
1.510000e-06	-1.538682e-06	-4.236362e-10	-1.069339e+01	-2.802567e+01
1.520000e-06	-1.493505e-06	-4.207367e-10	-1.037942e+01	-2.764953e+01
1.530000e-06	-1.448270e-06	-4.164343e-10	-1.006505e+01	-2.726365e+01
1.540000e-06	-1.402948e-06	-4.084399e-10	-9.750074e+00	-2.686772e+01
1.550000e-06	-1.357550e-06	-3.978096e-10	-9.434576e+00	-2.646140e+01
1.560000e-06	-1.312081e-06	-3.885620e-10	-9.118580e+00	-2.604435e+01
1.570000e-06	-1.266546e-06	-3.802236e-10	-8.802122e+00	-2.561624e+01
1.580000e-06	-1.220964e-06	-3.736186e-10	-8.485343e+00	-2.517675e+01
1.590000e-06	-1.175272e-06	-3.720383e-10	-8.167798e+00	-2.472555e+01
1.600000e-06	-1.129448e-06	-3.704825e-10	-7.849332e+00	-2.426234e+01
1.610000e-06	-1.083530e-06	-3.660480e-10	-7.530218e+00	-2.378681e+01
1.620000e-06	-1.037610e-06	-3.616721e-10	-7.211083e+00	-2.329866e+01
1.630000e-06	-9.917121e-07	-3.568955e-10	-6.892108e+00	-2.279763e+01
1.640000e-06	-9.456831e-07	-3.478176e-10	-6.572220e+00	-2.228345e+01
1.650000e-06	-8.994901e-07	-3.365714e-10	-6.251193e+00	-2.175587e+01
1.660000e-06	-8.533007e-07	-3.269328e-10	-5.930190e+00	-2.121468e+01
1.670000e-06	-8.069929e-07	-3.175640e-10	-5.608364e+00	-2.065967e+01
1.680000e-06	-7.605395e-07	-3.074839e-10	-5.285526e+00	-2.009067e+01
1.690000e-06	-7.140698e-07	-3.003481e-10	-4.962576e+00	-1.950751e+01
1.700000e-06	-6.674932e-07	-2.925555e-10	-4.638882e+00	-1.891009e+01
1.710000e-06	-6.208849e-07	-2.833752e-10	-4.314968e+00	-1.829830e+01
1.720000e-06	-5.743479e-07	-2.715084e-10	-3.991550e+00	-1.767207e+01
1.730000e-06	-5.278289e-07	-2.565046e-10	-3.668256e+00	-1.703136e+01
1.740000e-06	-4.812667e-07	-2.411406e-10	-3.344662e+00	-1.637618e+01
1.750000e-06	-4.346830e-07	-2.300224e-10	-3.020919e+00	-1.570656e+01
1.760000e-06	-3.879793e-07	-2.235967e-10	-2.696343e+00	-1.502255e+01
1.770000e-06	-3.411263e-07	-2.188614e-10	-2.370728e+00	-1.432427e+01
1.780000e-06	-2.942739e-07	-2.123323e-10	-2.045117e+00	-1.361184e+01
1.790000e-06	-2.474946e-07	-2.023872e-10	-1.720015e+00	-1.288544e+01
1.800000e-06	-2.007434e-07	-1.905436e-10	-1.395108e+00	-1.214527e+01
1.810000e-06	-1.539244e-07	-1.785424e-10	-1.069729e+00	-1.139158e+01
1.820000e-06	-1.070678e-07	-1.671730e-10	-7.440900e-01	-1.062465e+01
1.830000e-06	-6.024833e-08	-1.567460e-10	-4.187083e-01	-9.844796e+00
1.840000e-06	-1.347904e-08	-1.451337e-10	-9.367537e-02	-9.052373e+00
1.850000e-06	3.328534e-08	-1.318494e-10	2.313233e-01	-8.247766e+00
1.860000e-06	8.009454e-08	-1.213279e-10	5.566336e-01	-7.431398e+00
1.870000e-06	1.269481e-07	-1.095637e-10	8.822518e-01	-6.603722e+00
1.880000e-06	1.737871e-07	-9.515682e-11	1.207769e+00	-5.765227e+00
1.890000e-06	2.205308e-07	-8.123302e-11	1.532625e+00	-4.916429e+00
1.900000e-06	2.672444e-07	-6.844914e-11	1.857270e+00	-4.057877e+00
1.910000e-06	3.139251e-07	-5.560100e-11	2.181687e+00	-3.190147e+00
1.920000e-06	3.605616e-07	-4.485251e-11	2.505797e+00	-2.313839e+00
1.930000e-06	4.072379e-07	-3.775838e-11	2.830184e+00	-1.429581e+00
1.940000e-06	4.539268e-07	-2.893528e-11	3.154658e+00	-5.380231e-01
1.950000e-06	5.005227e-07	-1.545813e-11	3.478486e+00	3.601648e-01
1.960000e-06	5.470636e-07	4.065184e-13	3.801932e+00	1.264293e+00
1.970000e-06	5.936666e-07	1.467919e-11	4.125809e+00	2.173655e+00
1.980000e-06	6.401947e-07	2.816738e-11	4.449166e+00	3.087529e+00
1.990000e-06	6.865386e-07	4.314678e-11	4.771242e+00	4.005183e+00
2.000000e-06	7.327622e-07	5.386369e-11	5.092483e+00	4.925872e+00
2.010000e-06	7.789222e-07	6.505083e-11	5.413281e+00	5.848843e+00
2.020000e-06	8.250193e-07	7.973326e-11	5.733643e+00	6.773340e+00
2.030000e-06	8.711603e-07	9.513309e-11	6.054309e+00	7.698601e+00
2.040000e-06	9.173111e-07	1.098680e-10	6.375043e+00	8.623862e+00
2.050000e-06	9.633427e-07	1.251021e-10	6.694949e+00	9.548362e+00
2.060000e-06	1.009323e-06	1.404320e-10	7.014499e+00	1.047134e+01
2.070000e-06	1.055277e-06	1.545548e-10	7.333869e+00	1.139205e+01
2.080000e-06	1.101141e-06	1.679430e-10	7.652605e+00	1.230973e+01
2.090000e-06	1.146879e-06	1.811879e-10	7.970475e+00	1.322366e+01
2.100000e-06	1.192545e-06	1.946767e-10	8.287839e+00	1.413310e+01
2.110000e-06	1.238212e-06	2.051516e-10	8.605208e+00	1.503735e+01
2.120000e-06	1.283838e-06	2.135979e-10	8.922297e+00	1.593570e+01
2.130000e-06	1.329335e-06	2.248538e-10	9.238486e+00	1.682747e+01
2.140000e-06	1.374694e-06	2.402946e-10	9.553722e+00	1.771200e+01
2.150000e-06	1.419947e-06	2.569130e-10	9.868216e+00	1.858865e+01
2.160000e-06	1.465189e-06	2.719910e-10	1.018263e+01	1.945679e+01
2.170000e-06	1.510402e-06	2.842548e-10	1.049685e+01	2.031582e+01
2.180000e-06	1.555447e-06	2.970179e-10	1.080990e+01	2.116517e+01
2.190000e-06	1.600338e-06	3.058993e-10	1.112188e+01	2.200427e+01
2.200000e-06	1.645180e-06	3.128856e-10	1.143352e+01	2.283261e+01
2.210000e-06	1.689886e-06	3.217886e-10	1.174421e+01	2.364969e+01
2.220000e-06	1.734393e-06	3.313105e-10	1.205352e+01	2.445501e+01
2.230000e-06	1.778718e-06	3.437945e-10	1.236157e+01	2.524815e+01
2.240000e-06	1.822888e-06	3.573112e-10	1.266854e+01	2.602868e+01
2.250000e-06	1.866966e-06	3.700887e-10	1.297486e+01	2.679622e+01
2.260000e-06	1.910946e-06	3.803010e-10	1.328051e+01	2.755038e+01
2.270000e-06	1.954849e-06	3.925849e-10	1.358563e+01	2.829086e+01
2.280000e-06	1.998612e-06	4.057068e-10	1.388977e+01	2.901733e+01
2.290000e-06	2.042259e-06	4.172378e-10	1.419310e+01	2.972953e+01
2.300000e-06	2.085866e-06	4.276745e-10	1.449616e+01	3.042721e+01
2.310000e-06	2.129370e-06	4.372600e-10	1.479850e+01	3.111014e+01
2.320000e-06	2.172790e-06	4.472080e-10	1.510026e+01	3.177814e+01
2.330000e-06	2.216145e-06	4.567980e-10	1.540156e+01	3.243104e+01
2.340000e-06	2.259392e-06	4.670104e-10	1.570211e+01	3.306872e+01
2.350000e-06	2.302540e-06	4.783887e-10	1.600198e+01	3.369105e+01
2.360000e-06	2.345607e-06	4.910820e-10	1.630128e+01	3.429795e+01
2.370000e-06	2.388525e-06	5.012564e-10	1.659955e+01	3.488938e+01
2.380000e-06	2.431071e-06	5.083876e-10	1.689523e+01	3.546529e+01
2.390000e-06	2.473262e-06	5.123111e-10	1.718845e+01	3.602567e+01
2.400000e-06	2.515089e-06	5.152392e-10	1.747913e+01	3.657055e+01
2.410000e-06	2.556464e-06	5.213175e-10	1.776668e+01	3.709996e+01
2.420000e-06	2.597589e-06	5.301562e-10	1.805248e+01	3.761396e+01
2.430000e-06	2.638502e-06	5.402572e-10	1.833682e+01	3.811263e+01
2.440000e-06	2.679065e-06	5.503455e-10	1.861872e+01	3.859607e+01
2.450000e-06	2.719400e-06	5.575770e-10	1.889903e+01	3.906440e+01
2.460000e-06	2.759566e-06	5.629507e-10	1.917818e+01	3.951776e+01
2.470000e-06	2.799500e-06	5.691036e-10	1.945570e+01	3.995631e+01
2.480000e-06	2.839241e-06	5.756002e-10	1.973190e+01	4.038021e+01
2.490000e-06	2.878854e-06	5.834698e-10	2.000719e+01	4.078965e+01
2.500000e-06	2.918400e-06	5.896506e-10	2.028202e+01	4.118484e+01
2.510000e-06	2.957811e-06	5.941128e-10	2.055592e+01	4.156598e+01
2.520000e-06	2.997107e-06	5.976696e-10	2.082902e+01	4.193332e+01
2.530000e-06	3.036260e-06	5.992612e-10	2.110112e+01	4.228710e+01
2.540000e-06	3.075175e-06	6.028252e-10	2.137157e+01	4.262755e+01
2.550000e-06	3.113879e-06	6.090725e-10	2.164054e+01	4.295495e+01
2.560000e-06	3.152305e-06	6.169979e-10	2.190760e+01	4.326957e+01
2.570000e-06	3.190503e-06	6.236977e-10	2.217306e+01	4.357168e+01
2.580000e-06	3.228497e-06	6.287277e-10	2.243711e+01	4.386159e+01
2.590000e-06	3.266167e-06	6.315969e-10	2.269891e+01	4.413957e+01
2.600000e-06	3.303669e-06	6.337640e-10	2.295953e+01	4.440593e+01
2.610000e-06	3.341094e-06	6.344964e-10	2.321963e+01	4.466098e+01
2.620000e-06	3.378291e-06	6.353189e-10	2.347813e+01	4.490503e+01
2.630000e-06	3.415205e-06	6.378046e-10	2.373467e+01	4.513839e+01
2.640000e-06	3.451828e-06	6.411818e-10	2.398919e+01	4.536138e+01
2.650000e-06	3.488188e-06	6.461299e-10	2.424189e+01	4.557433e+01
2.660000e-06	3.524286e-06	6.508146e-10	2.449275e+01	4.577754e+01
2.670000e-06	3.560165e-06	6.551081e-10	2.474210e+01	4.597134e+01
2.680000e-06	3.595909e-06	6.590670e-10	2.499051e+01	4.615607e+01
2.690000e-06	3.631527e-06	6.624763e-10	2.523805e+01	4.633202e+01
2.700000e-06	3.667015e-06	6.662877e-10	2.548468e+01	4.649954e+01
2.710000e-06	3.702320e-06	6.687451e-10	2.573004e+01	4.665893e+01
2.720000e-06	3.737415e-06	6.697466e-10	2.597394e+01	4.681052e+01
2.730000e-06	3.772259e-06	6.702166e-10	2.621609e+01	4.695461e+01
2.740000e-06	3.806772e-06	6.726712e-10	2.645595e+01	4.709151e+01
2.750000e-06	3.840794e-06	6.776500e-10	2.669239e+01	4.722154e+01
2.760000e-06	3.874269e-06	6.831217e-10	2.692503e+01	4.734498e+01
2.770000e-06	3.907303e-06	6.889285e-10	2.715461e+01	4.746214e+01
2.780000e-06	3.939911e-06	6.930457e-10	2.738123e+01	4.757330e+01
2.790000e-06	3.972135e-06	6.958964e-10	2.760517e+01	4.767874e+01
2.800000e-06	4.004102e-06	6.966972e-10	2.782734e+01	4.777874e+01
2.810000e-06	4.035908e-06	6.960624e-10	2.804838e+01	4.787357e+01
2.820000e-06	4.067497e-06	6.954307e-10	2.826791e+01	4.796349e+01
2.830000e-06	4.098859e-06	6.958296e-10	2.848587e+01	4.804875e+01
2.840000e-06	4.129993e-06	6.992006e-10	2.870224e+01	4.812958e+01
2.850000e-06	4.160927e-06	7.057793e-10	2.891723e+01	4.820623e+01
2.860000e-06	4.191681e-06	7.095468e-10	2.913095e+01	4.827891e+01
2.870000e-06	4.222106e-06	7.101139e-10	2.934240e+01	4.834784e+01
2.880000e-06	4.252218e-06	7.097256e-10	2.955167e+01	4.841322e+01
2.890000e-06	4.281991e-06	7.119141e-10	2.975858e+01	4.847525e+01
2.900000e-06	4.311463e-06	7.136049e-10	2.996341e+01	4.853411e+01
