# Temperatura_=_-0.7
# Concentracion g/m^3_=_1620.0
# C_Vs_to_Am_M_A/Vsm_=_65563218390.804596
# pendiente_HvsI_1/m_=_3716.3
# ordenada_HvsI_A/m_=_1297.0
# frecuencia_Hz_=_135099.3214640971

Tiempo_(s)	Campo_(V.s)	Magnetizacion_(V.s)	Campo_(kA/m)	Magnetizacion_(A/m)
0.000000e+00	-5.519893e-06	-1.340152e-09	-3.837319e+01	-8.878928e+01
1.000000e-08	-5.520266e-06	-1.338284e-09	-3.837578e+01	-8.872538e+01
2.000000e-08	-5.520407e-06	-1.340218e-09	-3.837676e+01	-8.865890e+01
3.000000e-08	-5.520230e-06	-1.342127e-09	-3.837553e+01	-8.858989e+01
4.000000e-08	-5.519655e-06	-1.342439e-09	-3.837153e+01	-8.851839e+01
5.000000e-08	-5.518583e-06	-1.335101e-09	-3.836408e+01	-8.844445e+01
6.000000e-08	-5.516921e-06	-1.316087e-09	-3.835253e+01	-8.836815e+01
7.000000e-08	-5.514625e-06	-1.306680e-09	-3.833656e+01	-8.828954e+01
8.000000e-08	-5.511638e-06	-1.347325e-09	-3.831580e+01	-8.820871e+01
9.000000e-08	-5.508126e-06	-1.406287e-09	-3.829139e+01	-8.812572e+01
1.000000e-07	-5.504179e-06	-1.433560e-09	-3.826394e+01	-8.804067e+01
1.100000e-07	-5.499890e-06	-1.379027e-09	-3.823413e+01	-8.795363e+01
1.200000e-07	-5.495462e-06	-1.272107e-09	-3.820335e+01	-8.786469e+01
1.300000e-07	-5.490756e-06	-1.282883e-09	-3.817063e+01	-8.777395e+01
1.400000e-07	-5.485635e-06	-1.333624e-09	-3.813503e+01	-8.768149e+01
1.500000e-07	-5.480187e-06	-1.361132e-09	-3.809715e+01	-8.758742e+01
1.600000e-07	-5.474370e-06	-1.309299e-09	-3.805671e+01	-8.749181e+01
1.700000e-07	-5.468214e-06	-1.285463e-09	-3.801392e+01	-8.739477e+01
1.800000e-07	-5.461582e-06	-1.371957e-09	-3.796782e+01	-8.729638e+01
1.900000e-07	-5.454467e-06	-1.373855e-09	-3.791836e+01	-8.719673e+01
2.000000e-07	-5.447073e-06	-1.318788e-09	-3.786696e+01	-8.709589e+01
2.100000e-07	-5.439443e-06	-1.256256e-09	-3.781391e+01	-8.699393e+01
2.200000e-07	-5.431574e-06	-1.325169e-09	-3.775921e+01	-8.689093e+01
2.300000e-07	-5.423508e-06	-1.350016e-09	-3.770314e+01	-8.678693e+01
2.400000e-07	-5.415149e-06	-1.327166e-09	-3.764502e+01	-8.668199e+01
2.500000e-07	-5.406117e-06	-1.286757e-09	-3.758224e+01	-8.657615e+01
2.600000e-07	-5.396282e-06	-1.311611e-09	-3.751387e+01	-8.646942e+01
2.700000e-07	-5.385824e-06	-1.309707e-09	-3.744117e+01	-8.636182e+01
2.800000e-07	-5.374878e-06	-1.301330e-09	-3.736507e+01	-8.625335e+01
2.900000e-07	-5.363458e-06	-1.296122e-09	-3.728568e+01	-8.614400e+01
3.000000e-07	-5.351660e-06	-1.306008e-09	-3.720366e+01	-8.603374e+01
3.100000e-07	-5.339513e-06	-1.308314e-09	-3.711922e+01	-8.592251e+01
3.200000e-07	-5.326985e-06	-1.289352e-09	-3.703213e+01	-8.581026e+01
3.300000e-07	-5.313999e-06	-1.287313e-09	-3.694185e+01	-8.569692e+01
3.400000e-07	-5.300616e-06	-1.280617e-09	-3.684881e+01	-8.558239e+01
3.500000e-07	-5.286901e-06	-1.303274e-09	-3.675347e+01	-8.546656e+01
3.600000e-07	-5.272801e-06	-1.302807e-09	-3.665545e+01	-8.534931e+01
3.700000e-07	-5.258204e-06	-1.297697e-09	-3.655397e+01	-8.523050e+01
3.800000e-07	-5.243123e-06	-1.288889e-09	-3.644914e+01	-8.510998e+01
3.900000e-07	-5.227430e-06	-1.296771e-09	-3.634004e+01	-8.498758e+01
4.000000e-07	-5.211187e-06	-1.276229e-09	-3.622712e+01	-8.486311e+01
4.100000e-07	-5.194663e-06	-1.274177e-09	-3.611225e+01	-8.473640e+01
4.200000e-07	-5.177797e-06	-1.283071e-09	-3.599500e+01	-8.460723e+01
4.300000e-07	-5.160603e-06	-1.282847e-09	-3.587547e+01	-8.447539e+01
4.400000e-07	-5.143103e-06	-1.260290e-09	-3.575382e+01	-8.434066e+01
4.500000e-07	-5.125253e-06	-1.297485e-09	-3.562972e+01	-8.420282e+01
4.600000e-07	-5.106934e-06	-1.296919e-09	-3.550238e+01	-8.406164e+01
4.700000e-07	-5.088116e-06	-1.259294e-09	-3.537156e+01	-8.391688e+01
4.800000e-07	-5.068951e-06	-1.248064e-09	-3.523832e+01	-8.376830e+01
4.900000e-07	-5.049559e-06	-1.286702e-09	-3.510352e+01	-8.361567e+01
5.000000e-07	-5.029966e-06	-1.259047e-09	-3.496731e+01	-8.345877e+01
5.100000e-07	-5.010144e-06	-1.242170e-09	-3.482951e+01	-8.329736e+01
5.200000e-07	-4.990017e-06	-1.265812e-09	-3.468959e+01	-8.313123e+01
5.300000e-07	-4.969596e-06	-1.268949e-09	-3.454763e+01	-8.296017e+01
5.400000e-07	-4.948812e-06	-1.237722e-09	-3.440315e+01	-8.278397e+01
5.500000e-07	-4.927692e-06	-1.257889e-09	-3.425632e+01	-8.260244e+01
5.600000e-07	-4.906212e-06	-1.257419e-09	-3.410700e+01	-8.241542e+01
5.700000e-07	-4.884381e-06	-1.218551e-09	-3.395523e+01	-8.222275e+01
5.800000e-07	-4.862216e-06	-1.222356e-09	-3.380115e+01	-8.202428e+01
5.900000e-07	-4.839649e-06	-1.252183e-09	-3.364426e+01	-8.181990e+01
6.000000e-07	-4.816689e-06	-1.229024e-09	-3.348465e+01	-8.160950e+01
6.100000e-07	-4.793406e-06	-1.212185e-09	-3.332279e+01	-8.139300e+01
6.200000e-07	-4.769858e-06	-1.229712e-09	-3.315909e+01	-8.117035e+01
6.300000e-07	-4.746129e-06	-1.211291e-09	-3.299413e+01	-8.094150e+01
6.400000e-07	-4.722219e-06	-1.190230e-09	-3.282792e+01	-8.070645e+01
6.500000e-07	-4.698023e-06	-1.202323e-09	-3.265971e+01	-8.046520e+01
6.600000e-07	-4.673456e-06	-1.208298e-09	-3.248893e+01	-8.021778e+01
6.700000e-07	-4.648408e-06	-1.191411e-09	-3.231480e+01	-7.996426e+01
6.800000e-07	-4.622751e-06	-1.204301e-09	-3.213643e+01	-7.970470e+01
6.900000e-07	-4.596570e-06	-1.204554e-09	-3.195443e+01	-7.943922e+01
7.000000e-07	-4.569995e-06	-1.187781e-09	-3.176969e+01	-7.916792e+01
7.100000e-07	-4.542938e-06	-1.177296e-09	-3.158159e+01	-7.889096e+01
7.200000e-07	-4.515521e-06	-1.180928e-09	-3.139099e+01	-7.860850e+01
7.300000e-07	-4.487905e-06	-1.165507e-09	-3.119901e+01	-7.832070e+01
7.400000e-07	-4.460117e-06	-1.162895e-09	-3.100583e+01	-7.802776e+01
7.500000e-07	-4.432147e-06	-1.162406e-09	-3.081140e+01	-7.772990e+01
7.600000e-07	-4.404022e-06	-1.159677e-09	-3.061587e+01	-7.742731e+01
7.700000e-07	-4.375606e-06	-1.146832e-09	-3.041833e+01	-7.712024e+01
7.800000e-07	-4.346781e-06	-1.145521e-09	-3.021794e+01	-7.680892e+01
7.900000e-07	-4.317582e-06	-1.137176e-09	-3.001496e+01	-7.649359e+01
8.000000e-07	-4.288103e-06	-1.130992e-09	-2.981003e+01	-7.617448e+01
8.100000e-07	-4.258432e-06	-1.125138e-09	-2.960376e+01	-7.585184e+01
8.200000e-07	-4.228499e-06	-1.119979e-09	-2.939567e+01	-7.552591e+01
8.300000e-07	-4.198229e-06	-1.109208e-09	-2.918524e+01	-7.519693e+01
8.400000e-07	-4.167641e-06	-1.105514e-09	-2.897260e+01	-7.486512e+01
8.500000e-07	-4.136717e-06	-1.101312e-09	-2.875762e+01	-7.453069e+01
8.600000e-07	-4.105489e-06	-1.092742e-09	-2.854053e+01	-7.419387e+01
8.700000e-07	-4.074033e-06	-1.085718e-09	-2.832186e+01	-7.385483e+01
8.800000e-07	-4.042400e-06	-1.082566e-09	-2.810195e+01	-7.351375e+01
8.900000e-07	-4.010629e-06	-1.074978e-09	-2.788109e+01	-7.317080e+01
9.000000e-07	-3.978695e-06	-1.066454e-09	-2.765909e+01	-7.282611e+01
9.100000e-07	-3.946549e-06	-1.061345e-09	-2.743561e+01	-7.247979e+01
9.200000e-07	-3.914060e-06	-1.054650e-09	-2.720976e+01	-7.213195e+01
9.300000e-07	-3.881180e-06	-1.047726e-09	-2.698118e+01	-7.178266e+01
9.400000e-07	-3.847947e-06	-1.043705e-09	-2.675015e+01	-7.143196e+01
9.500000e-07	-3.814269e-06	-1.040749e-09	-2.651603e+01	-7.107987e+01
9.600000e-07	-3.779985e-06	-1.029544e-09	-2.627769e+01	-7.072640e+01
9.700000e-07	-3.745212e-06	-1.022382e-09	-2.603596e+01	-7.037151e+01
9.800000e-07	-3.710152e-06	-1.015585e-09	-2.579223e+01	-7.001515e+01
9.900000e-07	-3.674816e-06	-1.010159e-09	-2.554658e+01	-6.965723e+01
1.000000e-06	-3.639245e-06	-1.003294e-09	-2.529930e+01	-6.929767e+01
1.010000e-06	-3.603525e-06	-1.001973e-09	-2.505098e+01	-6.893632e+01
1.020000e-06	-3.567725e-06	-9.950380e-10	-2.480211e+01	-6.857304e+01
1.030000e-06	-3.531839e-06	-9.879746e-10	-2.455263e+01	-6.820766e+01
1.040000e-06	-3.495703e-06	-9.805623e-10	-2.430143e+01	-6.783999e+01
1.050000e-06	-3.459255e-06	-9.769262e-10	-2.404804e+01	-6.746981e+01
1.060000e-06	-3.422509e-06	-9.685682e-10	-2.379259e+01	-6.709691e+01
1.070000e-06	-3.385498e-06	-9.652584e-10	-2.353530e+01	-6.672105e+01
1.080000e-06	-3.348260e-06	-9.603199e-10	-2.327643e+01	-6.634197e+01
1.090000e-06	-3.310770e-06	-9.529022e-10	-2.301580e+01	-6.595941e+01
1.100000e-06	-3.273103e-06	-9.441636e-10	-2.275395e+01	-6.557311e+01
1.110000e-06	-3.235281e-06	-9.379285e-10	-2.249102e+01	-6.518279e+01
1.120000e-06	-3.197208e-06	-9.300202e-10	-2.222635e+01	-6.478818e+01
1.130000e-06	-3.158895e-06	-9.228790e-10	-2.196001e+01	-6.438899e+01
1.140000e-06	-3.120396e-06	-9.171074e-10	-2.169237e+01	-6.398495e+01
1.150000e-06	-3.081681e-06	-9.116695e-10	-2.142323e+01	-6.357579e+01
1.160000e-06	-3.042773e-06	-9.036757e-10	-2.115275e+01	-6.316124e+01
1.170000e-06	-3.003655e-06	-8.957842e-10	-2.088081e+01	-6.274104e+01
1.180000e-06	-2.964333e-06	-8.879778e-10	-2.060744e+01	-6.231494e+01
1.190000e-06	-2.924807e-06	-8.802722e-10	-2.033267e+01	-6.188271e+01
1.200000e-06	-2.885122e-06	-8.729050e-10	-2.005679e+01	-6.144411e+01
1.210000e-06	-2.845369e-06	-8.657745e-10	-1.978043e+01	-6.099894e+01
1.220000e-06	-2.805524e-06	-8.602741e-10	-1.950344e+01	-6.054700e+01
1.230000e-06	-2.765556e-06	-8.530757e-10	-1.922559e+01	-6.008810e+01
1.240000e-06	-2.725433e-06	-8.467862e-10	-1.894666e+01	-5.962208e+01
1.250000e-06	-2.685097e-06	-8.386160e-10	-1.866625e+01	-5.914880e+01
1.260000e-06	-2.644552e-06	-8.302151e-10	-1.838440e+01	-5.866811e+01
1.270000e-06	-2.603738e-06	-8.203332e-10	-1.810067e+01	-5.817989e+01
1.280000e-06	-2.562592e-06	-8.118338e-10	-1.781462e+01	-5.768406e+01
1.290000e-06	-2.521145e-06	-8.058131e-10	-1.752649e+01	-5.718051e+01
1.300000e-06	-2.479330e-06	-8.008549e-10	-1.723580e+01	-5.666918e+01
1.310000e-06	-2.437232e-06	-7.933308e-10	-1.694315e+01	-5.615000e+01
1.320000e-06	-2.394910e-06	-7.842810e-10	-1.664893e+01	-5.562293e+01
1.330000e-06	-2.352271e-06	-7.742709e-10	-1.635252e+01	-5.508791e+01
1.340000e-06	-2.309404e-06	-7.633203e-10	-1.605451e+01	-5.454492e+01
1.350000e-06	-2.266277e-06	-7.504871e-10	-1.575470e+01	-5.399392e+01
1.360000e-06	-2.222899e-06	-7.408349e-10	-1.545315e+01	-5.343488e+01
1.370000e-06	-2.179423e-06	-7.313164e-10	-1.515091e+01	-5.286778e+01
1.380000e-06	-2.135853e-06	-7.249907e-10	-1.484802e+01	-5.229258e+01
1.390000e-06	-2.092188e-06	-7.191171e-10	-1.454447e+01	-5.170925e+01
1.400000e-06	-2.048428e-06	-7.120075e-10	-1.424026e+01	-5.111775e+01
1.410000e-06	-2.004609e-06	-7.014738e-10	-1.393564e+01	-5.051802e+01
1.420000e-06	-1.960743e-06	-6.904267e-10	-1.363069e+01	-4.991000e+01
1.430000e-06	-1.916811e-06	-6.793948e-10	-1.332528e+01	-4.929361e+01
1.440000e-06	-1.872780e-06	-6.684286e-10	-1.301919e+01	-4.866875e+01
1.450000e-06	-1.828649e-06	-6.585066e-10	-1.271240e+01	-4.803530e+01
1.460000e-06	-1.784371e-06	-6.521790e-10	-1.240459e+01	-4.739313e+01
1.470000e-06	-1.739949e-06	-6.453017e-10	-1.209578e+01	-4.674207e+01
1.480000e-06	-1.695460e-06	-6.354910e-10	-1.178650e+01	-4.608195e+01
1.490000e-06	-1.650808e-06	-6.241306e-10	-1.147609e+01	-4.541254e+01
1.500000e-06	-1.605988e-06	-6.119647e-10	-1.116450e+01	-4.473361e+01
1.510000e-06	-1.561060e-06	-5.991150e-10	-1.085218e+01	-4.404490e+01
1.520000e-06	-1.515982e-06	-5.883580e-10	-1.053880e+01	-4.334611e+01
1.530000e-06	-1.470735e-06	-5.795741e-10	-1.022426e+01	-4.263691e+01
1.540000e-06	-1.425400e-06	-5.690558e-10	-9.909095e+00	-4.191696e+01
1.550000e-06	-1.379983e-06	-5.582852e-10	-9.593362e+00	-4.118589e+01
1.560000e-06	-1.334504e-06	-5.470152e-10	-9.277204e+00	-4.044328e+01
1.570000e-06	-1.288981e-06	-5.357296e-10	-8.960733e+00	-3.968872e+01
1.580000e-06	-1.243365e-06	-5.249984e-10	-8.643626e+00	-3.892175e+01
1.590000e-06	-1.197698e-06	-5.155859e-10	-8.326155e+00	-3.814191e+01
1.600000e-06	-1.151942e-06	-5.030763e-10	-8.008068e+00	-3.734871e+01
1.610000e-06	-1.106059e-06	-4.902376e-10	-7.689101e+00	-3.654163e+01
1.620000e-06	-1.060096e-06	-4.775330e-10	-7.369572e+00	-3.572018e+01
1.630000e-06	-1.014067e-06	-4.654618e-10	-7.049590e+00	-3.488383e+01
1.640000e-06	-9.679436e-07	-4.563159e-10	-6.728949e+00	-3.403205e+01
1.650000e-06	-9.216943e-07	-4.484435e-10	-6.407433e+00	-3.316431e+01
1.660000e-06	-8.753996e-07	-4.357866e-10	-6.085602e+00	-3.228010e+01
1.670000e-06	-8.291185e-07	-4.191999e-10	-5.763865e+00	-3.137888e+01
1.680000e-06	-7.827261e-07	-4.013638e-10	-5.441354e+00	-3.046018e+01
1.690000e-06	-7.362575e-07	-3.840021e-10	-5.118314e+00	-2.952349e+01
1.700000e-06	-6.897452e-07	-3.702248e-10	-4.794970e+00	-2.856835e+01
1.710000e-06	-6.431890e-07	-3.597706e-10	-4.471320e+00	-2.759434e+01
1.720000e-06	-5.967110e-07	-3.477786e-10	-4.148215e+00	-2.660104e+01
1.730000e-06	-5.501381e-07	-3.329200e-10	-3.824450e+00	-2.558809e+01
1.740000e-06	-5.034364e-07	-3.136133e-10	-3.499788e+00	-2.455517e+01
1.750000e-06	-4.567240e-07	-2.939627e-10	-3.175053e+00	-2.350199e+01
1.760000e-06	-4.100319e-07	-2.773851e-10	-2.850459e+00	-2.242833e+01
1.770000e-06	-3.633115e-07	-2.631257e-10	-2.525668e+00	-2.133401e+01
1.780000e-06	-3.164962e-07	-2.501048e-10	-2.200218e+00	-2.021891e+01
1.790000e-06	-2.696457e-07	-2.380005e-10	-1.874523e+00	-1.908297e+01
1.800000e-06	-2.227942e-07	-2.221320e-10	-1.548821e+00	-1.792621e+01
1.810000e-06	-1.759431e-07	-2.010949e-10	-1.223121e+00	-1.674871e+01
1.820000e-06	-1.290760e-07	-1.815498e-10	-8.973101e-01	-1.555060e+01
1.830000e-06	-8.214614e-08	-1.646247e-10	-5.710634e-01	-1.433210e+01
1.840000e-06	-3.517166e-08	-1.490264e-10	-2.445063e-01	-1.309352e+01
1.850000e-06	1.166935e-08	-1.327201e-10	8.112299e-02	-1.183521e+01
1.860000e-06	5.840513e-08	-1.163725e-10	4.060207e-01	-1.055762e+01
1.870000e-06	1.051938e-07	-9.807262e-11	7.312860e-01	-9.261260e+00
1.880000e-06	1.520234e-07	-7.804696e-11	1.056836e+00	-7.946727e+00
1.890000e-06	1.988566e-07	-5.734492e-11	1.382411e+00	-6.614687e+00
1.900000e-06	2.455923e-07	-3.752647e-11	1.707308e+00	-5.265877e+00
1.910000e-06	2.922875e-07	-1.883810e-11	2.031924e+00	-3.901109e+00
1.920000e-06	3.390086e-07	-9.708243e-13	2.356719e+00	-2.521261e+00
1.930000e-06	3.856893e-07	1.725988e-11	2.681234e+00	-1.127277e+00
1.940000e-06	4.323321e-07	3.732168e-11	3.005486e+00	2.798368e-01
1.950000e-06	4.789911e-07	5.928023e-11	3.329849e+00	1.699015e+00
1.960000e-06	5.256580e-07	8.030800e-11	3.654269e+00	3.129138e+00
1.970000e-06	5.721998e-07	9.928959e-11	3.977818e+00	4.569035e+00
1.980000e-06	6.186201e-07	1.159032e-10	4.300522e+00	6.017491e+00
1.990000e-06	6.650478e-07	1.336220e-10	4.623279e+00	7.473251e+00
2.000000e-06	7.114509e-07	1.543744e-10	4.945863e+00	8.935024e+00
2.010000e-06	7.577586e-07	1.749140e-10	5.267785e+00	1.040149e+01
2.020000e-06	8.040461e-07	1.960415e-10	5.589567e+00	1.187131e+01
2.030000e-06	8.502760e-07	2.200365e-10	5.910948e+00	1.334312e+01
2.040000e-06	8.963805e-07	2.432632e-10	6.231457e+00	1.481555e+01
2.050000e-06	9.424008e-07	2.628853e-10	6.551381e+00	1.628722e+01
2.060000e-06	9.884154e-07	2.799146e-10	6.871265e+00	1.775676e+01
2.070000e-06	1.034422e-06	2.953113e-10	7.191097e+00	1.922279e+01
2.080000e-06	1.080423e-06	3.130493e-10	7.510880e+00	2.068397e+01
2.090000e-06	1.126372e-06	3.336028e-10	7.830313e+00	2.213895e+01
2.100000e-06	1.172187e-06	3.564388e-10	8.148810e+00	2.358642e+01
2.110000e-06	1.217926e-06	3.802040e-10	8.466777e+00	2.502510e+01
2.120000e-06	1.263590e-06	4.012621e-10	8.784224e+00	2.645374e+01
2.130000e-06	1.309103e-06	4.205798e-10	9.100621e+00	2.787113e+01
2.140000e-06	1.354538e-06	4.394104e-10	9.416473e+00	2.927611e+01
2.150000e-06	1.399896e-06	4.564246e-10	9.731793e+00	3.066756e+01
2.160000e-06	1.445107e-06	4.739782e-10	1.004609e+01	3.204443e+01
2.170000e-06	1.490151e-06	4.923286e-10	1.035923e+01	3.340571e+01
2.180000e-06	1.535147e-06	5.108813e-10	1.067203e+01	3.475046e+01
2.190000e-06	1.580084e-06	5.288440e-10	1.098442e+01	3.607780e+01
2.200000e-06	1.624891e-06	5.459438e-10	1.129592e+01	3.738690e+01
2.210000e-06	1.669610e-06	5.633333e-10	1.160679e+01	3.867703e+01
2.220000e-06	1.714111e-06	5.799366e-10	1.191616e+01	3.994749e+01
2.230000e-06	1.758421e-06	5.961301e-10	1.222419e+01	4.119768e+01
2.240000e-06	1.802640e-06	6.134394e-10	1.253159e+01	4.242704e+01
2.250000e-06	1.846794e-06	6.283960e-10	1.283854e+01	4.363512e+01
2.260000e-06	1.890844e-06	6.415230e-10	1.314477e+01	4.482151e+01
2.270000e-06	1.934830e-06	6.564623e-10	1.345055e+01	4.598586e+01
2.280000e-06	1.978742e-06	6.752469e-10	1.375582e+01	4.712791e+01
2.290000e-06	2.022548e-06	6.936363e-10	1.406035e+01	4.824746e+01
2.300000e-06	2.066310e-06	7.112933e-10	1.436457e+01	4.934437e+01
2.310000e-06	2.109996e-06	7.281721e-10	1.466827e+01	5.041855e+01
2.320000e-06	2.153602e-06	7.432699e-10	1.497141e+01	5.147001e+01
2.330000e-06	2.197102e-06	7.581100e-10	1.527381e+01	5.249876e+01
2.340000e-06	2.240460e-06	7.716908e-10	1.557523e+01	5.350490e+01
2.350000e-06	2.283674e-06	7.859551e-10	1.587564e+01	5.448858e+01
2.360000e-06	2.326701e-06	8.020708e-10	1.617476e+01	5.544997e+01
2.370000e-06	2.369433e-06	8.174151e-10	1.647182e+01	5.638931e+01
2.380000e-06	2.411835e-06	8.306846e-10	1.676659e+01	5.730688e+01
2.390000e-06	2.453939e-06	8.427122e-10	1.705929e+01	5.820296e+01
2.400000e-06	2.495808e-06	8.538910e-10	1.735035e+01	5.907790e+01
2.410000e-06	2.537303e-06	8.643561e-10	1.763882e+01	5.993207e+01
2.420000e-06	2.578411e-06	8.747285e-10	1.792460e+01	6.076585e+01
2.430000e-06	2.619232e-06	8.865976e-10	1.820837e+01	6.157965e+01
2.440000e-06	2.659778e-06	8.995710e-10	1.849024e+01	6.237388e+01
2.450000e-06	2.700172e-06	9.114087e-10	1.877105e+01	6.314900e+01
2.460000e-06	2.740365e-06	9.211956e-10	1.905046e+01	6.390545e+01
2.470000e-06	2.780434e-06	9.327266e-10	1.932902e+01	6.464367e+01
2.480000e-06	2.820380e-06	9.436763e-10	1.960672e+01	6.536414e+01
2.490000e-06	2.860155e-06	9.528378e-10	1.988322e+01	6.606729e+01
2.500000e-06	2.899830e-06	9.619990e-10	2.015903e+01	6.675359e+01
2.510000e-06	2.939399e-06	9.711474e-10	2.043411e+01	6.742348e+01
2.520000e-06	2.978811e-06	9.811027e-10	2.070810e+01	6.807741e+01
2.530000e-06	3.018048e-06	9.924989e-10	2.098086e+01	6.871581e+01
2.540000e-06	3.057082e-06	1.003040e-09	2.125222e+01	6.933909e+01
2.550000e-06	3.095831e-06	1.011476e-09	2.152159e+01	6.994767e+01
2.560000e-06	3.134332e-06	1.020391e-09	2.178925e+01	7.054195e+01
2.570000e-06	3.172617e-06	1.028265e-09	2.205540e+01	7.112230e+01
2.580000e-06	3.210666e-06	1.034224e-09	2.231991e+01	7.168908e+01
2.590000e-06	3.248494e-06	1.041455e-09	2.258288e+01	7.224265e+01
2.600000e-06	3.286174e-06	1.052199e-09	2.284482e+01	7.278333e+01
2.610000e-06	3.323676e-06	1.062819e-09	2.310553e+01	7.331144e+01
2.620000e-06	3.360887e-06	1.069741e-09	2.336421e+01	7.382727e+01
2.630000e-06	3.397872e-06	1.075055e-09	2.362132e+01	7.433112e+01
2.640000e-06	3.434663e-06	1.078600e-09	2.387709e+01	7.482323e+01
2.650000e-06	3.471233e-06	1.082724e-09	2.413131e+01	7.530387e+01
2.660000e-06	3.507577e-06	1.089726e-09	2.438397e+01	7.577326e+01
2.670000e-06	3.543653e-06	1.098761e-09	2.463476e+01	7.623163e+01
2.680000e-06	3.579542e-06	1.106016e-09	2.488426e+01	7.667918e+01
2.690000e-06	3.615301e-06	1.112671e-09	2.513284e+01	7.711611e+01
2.700000e-06	3.650924e-06	1.121042e-09	2.538049e+01	7.754259e+01
2.710000e-06	3.686396e-06	1.127551e-09	2.562709e+01	7.795881e+01
2.720000e-06	3.721669e-06	1.132066e-09	2.587230e+01	7.836493e+01
2.730000e-06	3.756634e-06	1.136823e-09	2.611536e+01	7.876110e+01
2.740000e-06	3.791156e-06	1.142465e-09	2.635535e+01	7.914747e+01
2.750000e-06	3.825231e-06	1.147890e-09	2.659223e+01	7.952419e+01
2.760000e-06	3.858867e-06	1.154145e-09	2.682607e+01	7.989139e+01
2.770000e-06	3.891998e-06	1.161783e-09	2.705639e+01	8.024920e+01
2.780000e-06	3.924659e-06	1.167403e-09	2.728344e+01	8.059777e+01
2.790000e-06	3.956975e-06	1.172967e-09	2.750810e+01	8.093722e+01
2.800000e-06	3.989079e-06	1.178578e-09	2.773128e+01	8.126767e+01
2.810000e-06	4.020986e-06	1.181334e-09	2.795309e+01	8.158926e+01
2.820000e-06	4.052742e-06	1.184743e-09	2.817384e+01	8.190211e+01
2.830000e-06	4.084403e-06	1.189313e-09	2.839394e+01	8.220635e+01
2.840000e-06	4.115809e-06	1.193875e-09	2.861228e+01	8.250212e+01
2.850000e-06	4.146926e-06	1.199790e-09	2.882860e+01	8.278954e+01
2.860000e-06	4.177785e-06	1.207163e-09	2.904312e+01	8.306875e+01
2.870000e-06	4.208298e-06	1.211079e-09	2.925524e+01	8.333988e+01
2.880000e-06	4.238462e-06	1.210882e-09	2.946493e+01	8.360307e+01
2.890000e-06	4.268325e-06	1.211632e-09	2.967253e+01	8.385847e+01
2.900000e-06	4.297911e-06	1.215639e-09	2.987821e+01	8.410620e+01
