# Temperatura_=_11.7
# Concentracion g/m^3_=_1620.0
# C_Vs_to_Am_M_A/Vsm_=_65563218390.804596
# pendiente_HvsI_1/m_=_3716.3
# ordenada_HvsI_A/m_=_1297.0
# frecuencia_Hz_=_135088.5677872838

Tiempo_(s)	Campo_(V.s)	Magnetizacion_(V.s)	Campo_(kA/m)	Magnetizacion_(A/m)
0.000000e+00	-5.508355e-06	-1.537046e-09	-3.837991e+01	-1.002811e+02
1.000000e-08	-5.508480e-06	-1.535548e-09	-3.838078e+01	-1.002957e+02
2.000000e-08	-5.508248e-06	-1.535618e-09	-3.837916e+01	-1.003069e+02
3.000000e-08	-5.507597e-06	-1.536710e-09	-3.837463e+01	-1.003145e+02
4.000000e-08	-5.506294e-06	-1.532078e-09	-3.836555e+01	-1.003182e+02
5.000000e-08	-5.504364e-06	-1.517094e-09	-3.835210e+01	-1.003178e+02
6.000000e-08	-5.501964e-06	-1.509080e-09	-3.833538e+01	-1.003130e+02
7.000000e-08	-5.498986e-06	-1.545492e-09	-3.831463e+01	-1.003037e+02
8.000000e-08	-5.495512e-06	-1.572337e-09	-3.829042e+01	-1.002896e+02
9.000000e-08	-5.491611e-06	-1.599069e-09	-3.826324e+01	-1.002705e+02
1.000000e-07	-5.487278e-06	-1.601079e-09	-3.823305e+01	-1.002462e+02
1.100000e-07	-5.482675e-06	-1.522174e-09	-3.820098e+01	-1.002165e+02
1.200000e-07	-5.477939e-06	-1.411833e-09	-3.816798e+01	-1.001812e+02
1.300000e-07	-5.473010e-06	-1.489441e-09	-3.813364e+01	-1.001401e+02
1.400000e-07	-5.467670e-06	-1.545907e-09	-3.809644e+01	-1.000931e+02
1.500000e-07	-5.461905e-06	-1.544230e-09	-3.805627e+01	-1.000401e+02
1.600000e-07	-5.455849e-06	-1.416529e-09	-3.801407e+01	-9.998086e+01
1.700000e-07	-5.449361e-06	-1.530053e-09	-3.796886e+01	-9.991541e+01
1.800000e-07	-5.442372e-06	-1.601763e-09	-3.792017e+01	-9.984361e+01
1.900000e-07	-5.434962e-06	-1.561176e-09	-3.786854e+01	-9.976543e+01
2.000000e-07	-5.427312e-06	-1.429511e-09	-3.781523e+01	-9.968081e+01
2.100000e-07	-5.419456e-06	-1.458200e-09	-3.776050e+01	-9.958974e+01
2.200000e-07	-5.411266e-06	-1.538433e-09	-3.770343e+01	-9.949223e+01
2.300000e-07	-5.402811e-06	-1.520390e-09	-3.764452e+01	-9.938829e+01
2.400000e-07	-5.393894e-06	-1.476844e-09	-3.758239e+01	-9.927796e+01
2.500000e-07	-5.384205e-06	-1.462800e-09	-3.751488e+01	-9.916130e+01
2.600000e-07	-5.373727e-06	-1.511862e-09	-3.744188e+01	-9.903839e+01
2.700000e-07	-5.362749e-06	-1.477479e-09	-3.736539e+01	-9.890930e+01
2.800000e-07	-5.351434e-06	-1.478816e-09	-3.728655e+01	-9.877415e+01
2.900000e-07	-5.339688e-06	-1.468401e-09	-3.720471e+01	-9.863304e+01
3.000000e-07	-5.327568e-06	-1.511878e-09	-3.712026e+01	-9.848610e+01
3.100000e-07	-5.315113e-06	-1.460644e-09	-3.703348e+01	-9.833347e+01
3.200000e-07	-5.302224e-06	-1.480194e-09	-3.694367e+01	-9.817527e+01
3.300000e-07	-5.288858e-06	-1.444350e-09	-3.685054e+01	-9.801166e+01
3.400000e-07	-5.275158e-06	-1.498250e-09	-3.675509e+01	-9.784277e+01
3.500000e-07	-5.261058e-06	-1.482173e-09	-3.665685e+01	-9.766876e+01
3.600000e-07	-5.246329e-06	-1.476795e-09	-3.655422e+01	-9.748977e+01
3.700000e-07	-5.231083e-06	-1.442511e-09	-3.644799e+01	-9.730595e+01
3.800000e-07	-5.215461e-06	-1.505025e-09	-3.633914e+01	-9.711742e+01
3.900000e-07	-5.199282e-06	-1.465940e-09	-3.622642e+01	-9.692432e+01
4.000000e-07	-5.182571e-06	-1.421492e-09	-3.610998e+01	-9.672678e+01
4.100000e-07	-5.165569e-06	-1.454490e-09	-3.599152e+01	-9.652489e+01
4.200000e-07	-5.148336e-06	-1.488318e-09	-3.587145e+01	-9.631877e+01
4.300000e-07	-5.130914e-06	-1.407606e-09	-3.575006e+01	-9.610849e+01
4.400000e-07	-5.113176e-06	-1.432267e-09	-3.562646e+01	-9.589413e+01
4.500000e-07	-5.094947e-06	-1.516121e-09	-3.549945e+01	-9.567575e+01
4.600000e-07	-5.076253e-06	-1.439374e-09	-3.536920e+01	-9.545339e+01
4.700000e-07	-5.057157e-06	-1.375896e-09	-3.523615e+01	-9.522707e+01
4.800000e-07	-5.037826e-06	-1.473096e-09	-3.510146e+01	-9.499682e+01
4.900000e-07	-5.018317e-06	-1.476185e-09	-3.496553e+01	-9.476261e+01
5.000000e-07	-4.998604e-06	-1.361297e-09	-3.482817e+01	-9.452443e+01
5.100000e-07	-4.978606e-06	-1.420697e-09	-3.468884e+01	-9.428225e+01
5.200000e-07	-4.958285e-06	-1.471056e-09	-3.454725e+01	-9.403600e+01
5.300000e-07	-4.937611e-06	-1.386709e-09	-3.440320e+01	-9.378562e+01
5.400000e-07	-4.916593e-06	-1.390691e-09	-3.425676e+01	-9.353102e+01
5.500000e-07	-4.895253e-06	-1.485509e-09	-3.410807e+01	-9.327213e+01
5.600000e-07	-4.873494e-06	-1.391266e-09	-3.395646e+01	-9.300882e+01
5.700000e-07	-4.851302e-06	-1.345731e-09	-3.380184e+01	-9.274099e+01
5.800000e-07	-4.828777e-06	-1.434517e-09	-3.364490e+01	-9.246851e+01
5.900000e-07	-4.805967e-06	-1.425190e-09	-3.348597e+01	-9.219125e+01
6.000000e-07	-4.782892e-06	-1.327692e-09	-3.332519e+01	-9.190908e+01
6.100000e-07	-4.759571e-06	-1.395354e-09	-3.316270e+01	-9.162187e+01
6.200000e-07	-4.735976e-06	-1.410907e-09	-3.299829e+01	-9.132948e+01
6.300000e-07	-4.712150e-06	-1.339545e-09	-3.283229e+01	-9.103177e+01
6.400000e-07	-4.688035e-06	-1.347668e-09	-3.266426e+01	-9.072861e+01
6.500000e-07	-4.663629e-06	-1.399415e-09	-3.249421e+01	-9.041987e+01
6.600000e-07	-4.638809e-06	-1.337353e-09	-3.232128e+01	-9.010543e+01
6.700000e-07	-4.613322e-06	-1.333743e-09	-3.214370e+01	-8.978518e+01
6.800000e-07	-4.587271e-06	-1.373463e-09	-3.196218e+01	-8.945901e+01
6.900000e-07	-4.560711e-06	-1.348874e-09	-3.177712e+01	-8.912684e+01
7.000000e-07	-4.533650e-06	-1.313351e-09	-3.158857e+01	-8.878858e+01
7.100000e-07	-4.506272e-06	-1.345354e-09	-3.139782e+01	-8.844417e+01
7.200000e-07	-4.478662e-06	-1.332822e-09	-3.120544e+01	-8.809357e+01
7.300000e-07	-4.450912e-06	-1.299916e-09	-3.101209e+01	-8.773674e+01
7.400000e-07	-4.422956e-06	-1.311440e-09	-3.081730e+01	-8.737367e+01
7.500000e-07	-4.394740e-06	-1.317382e-09	-3.062071e+01	-8.700437e+01
7.600000e-07	-4.366273e-06	-1.292875e-09	-3.042236e+01	-8.662884e+01
7.700000e-07	-4.337505e-06	-1.292319e-09	-3.022192e+01	-8.624714e+01
7.800000e-07	-4.308430e-06	-1.298638e-09	-3.001933e+01	-8.585932e+01
7.900000e-07	-4.279062e-06	-1.277548e-09	-2.981471e+01	-8.546545e+01
8.000000e-07	-4.249392e-06	-1.270953e-09	-2.960798e+01	-8.506563e+01
8.100000e-07	-4.219376e-06	-1.268314e-09	-2.939884e+01	-8.465996e+01
8.200000e-07	-4.189163e-06	-1.254366e-09	-2.918833e+01	-8.424857e+01
8.300000e-07	-4.158728e-06	-1.240245e-09	-2.897627e+01	-8.383160e+01
8.400000e-07	-4.127956e-06	-1.251286e-09	-2.876187e+01	-8.340919e+01
8.500000e-07	-4.096845e-06	-1.237424e-09	-2.854510e+01	-8.298151e+01
8.600000e-07	-4.065456e-06	-1.224531e-09	-2.832640e+01	-8.254873e+01
8.700000e-07	-4.033898e-06	-1.222266e-09	-2.810651e+01	-8.211103e+01
8.800000e-07	-4.002199e-06	-1.221813e-09	-2.788564e+01	-8.166859e+01
8.900000e-07	-3.970259e-06	-1.197887e-09	-2.766310e+01	-8.122162e+01
9.000000e-07	-3.938059e-06	-1.194811e-09	-2.743874e+01	-8.077028e+01
9.100000e-07	-3.905616e-06	-1.191669e-09	-2.721270e+01	-8.031479e+01
9.200000e-07	-3.872804e-06	-1.180922e-09	-2.698407e+01	-7.985532e+01
9.300000e-07	-3.839555e-06	-1.169202e-09	-2.675241e+01	-7.939207e+01
9.400000e-07	-3.805825e-06	-1.175681e-09	-2.651739e+01	-7.892522e+01
9.500000e-07	-3.771591e-06	-1.162082e-09	-2.627886e+01	-7.845493e+01
9.600000e-07	-3.736996e-06	-1.147104e-09	-2.603782e+01	-7.798137e+01
9.700000e-07	-3.702094e-06	-1.143221e-09	-2.579464e+01	-7.750468e+01
9.800000e-07	-3.666871e-06	-1.141597e-09	-2.554922e+01	-7.702501e+01
9.900000e-07	-3.631420e-06	-1.126469e-09	-2.530221e+01	-7.654247e+01
1.000000e-06	-3.595854e-06	-1.125848e-09	-2.505441e+01	-7.605717e+01
1.010000e-06	-3.560137e-06	-1.123856e-09	-2.480554e+01	-7.556918e+01
1.020000e-06	-3.524262e-06	-1.109539e-09	-2.455558e+01	-7.507859e+01
1.030000e-06	-3.488265e-06	-1.097033e-09	-2.430477e+01	-7.458543e+01
1.040000e-06	-3.452041e-06	-1.096106e-09	-2.405238e+01	-7.408972e+01
1.050000e-06	-3.415619e-06	-1.088181e-09	-2.379860e+01	-7.359149e+01
1.060000e-06	-3.378901e-06	-1.076095e-09	-2.354276e+01	-7.309069e+01
1.070000e-06	-3.341811e-06	-1.073780e-09	-2.328434e+01	-7.258731e+01
1.080000e-06	-3.304431e-06	-1.065383e-09	-2.302389e+01	-7.208127e+01
1.090000e-06	-3.266848e-06	-1.051763e-09	-2.276203e+01	-7.157249e+01
1.100000e-06	-3.228981e-06	-1.042737e-09	-2.249818e+01	-7.106087e+01
1.110000e-06	-3.190931e-06	-1.038362e-09	-2.223307e+01	-7.054628e+01
1.120000e-06	-3.152843e-06	-1.024569e-09	-2.196769e+01	-7.002859e+01
1.130000e-06	-3.114556e-06	-1.015908e-09	-2.170092e+01	-6.950762e+01
1.140000e-06	-3.076070e-06	-1.009930e-09	-2.143276e+01	-6.898321e+01
1.150000e-06	-3.037312e-06	-1.001501e-09	-2.116272e+01	-6.845515e+01
1.160000e-06	-2.998186e-06	-9.901538e-10	-2.089010e+01	-6.792324e+01
1.170000e-06	-2.958807e-06	-9.877668e-10	-2.061572e+01	-6.738724e+01
1.180000e-06	-2.919364e-06	-9.790965e-10	-2.034091e+01	-6.684694e+01
1.190000e-06	-2.879857e-06	-9.691734e-10	-2.006564e+01	-6.630207e+01
1.200000e-06	-2.840232e-06	-9.587581e-10	-1.978955e+01	-6.575240e+01
1.210000e-06	-2.800447e-06	-9.526326e-10	-1.951234e+01	-6.519766e+01
1.220000e-06	-2.760517e-06	-9.395905e-10	-1.923413e+01	-6.463758e+01
1.230000e-06	-2.720446e-06	-9.327796e-10	-1.895493e+01	-6.407190e+01
1.240000e-06	-2.680130e-06	-9.264103e-10	-1.867402e+01	-6.350034e+01
1.250000e-06	-2.639562e-06	-9.173533e-10	-1.839136e+01	-6.292265e+01
1.260000e-06	-2.598786e-06	-9.026037e-10	-1.810725e+01	-6.233854e+01
1.270000e-06	-2.557875e-06	-8.899517e-10	-1.782220e+01	-6.174775e+01
1.280000e-06	-2.516759e-06	-8.790089e-10	-1.753572e+01	-6.115002e+01
1.290000e-06	-2.475256e-06	-8.674196e-10	-1.724655e+01	-6.054509e+01
1.300000e-06	-2.433452e-06	-8.566351e-10	-1.695527e+01	-5.993271e+01
1.310000e-06	-2.391334e-06	-8.474257e-10	-1.666182e+01	-5.931262e+01
1.320000e-06	-2.348738e-06	-8.372500e-10	-1.636502e+01	-5.868459e+01
1.330000e-06	-2.305943e-06	-8.281249e-10	-1.606684e+01	-5.804839e+01
1.340000e-06	-2.263061e-06	-8.175825e-10	-1.576806e+01	-5.740379e+01
1.350000e-06	-2.219956e-06	-8.061959e-10	-1.546772e+01	-5.675057e+01
1.360000e-06	-2.176654e-06	-7.934727e-10	-1.516601e+01	-5.608852e+01
1.370000e-06	-2.133169e-06	-7.862762e-10	-1.486303e+01	-5.541744e+01
1.380000e-06	-2.089564e-06	-7.830269e-10	-1.455920e+01	-5.473713e+01
1.390000e-06	-2.045908e-06	-7.756210e-10	-1.425503e+01	-5.404741e+01
1.400000e-06	-2.002190e-06	-7.662265e-10	-1.395042e+01	-5.334808e+01
1.410000e-06	-1.958370e-06	-7.535203e-10	-1.364510e+01	-5.263898e+01
1.420000e-06	-1.914426e-06	-7.420112e-10	-1.333892e+01	-5.191992e+01
1.430000e-06	-1.870365e-06	-7.287126e-10	-1.303192e+01	-5.119073e+01
1.440000e-06	-1.826299e-06	-7.160549e-10	-1.272489e+01	-5.045125e+01
1.450000e-06	-1.782219e-06	-7.042362e-10	-1.241776e+01	-4.970130e+01
1.460000e-06	-1.738006e-06	-6.938983e-10	-1.210970e+01	-4.894072e+01
1.470000e-06	-1.693590e-06	-6.812385e-10	-1.180023e+01	-4.816935e+01
1.480000e-06	-1.649037e-06	-6.677629e-10	-1.148980e+01	-4.738700e+01
1.490000e-06	-1.604472e-06	-6.541381e-10	-1.117929e+01	-4.659351e+01
1.500000e-06	-1.559774e-06	-6.423283e-10	-1.086785e+01	-4.578870e+01
1.510000e-06	-1.514810e-06	-6.290845e-10	-1.055456e+01	-4.497238e+01
1.520000e-06	-1.469724e-06	-6.146250e-10	-1.024042e+01	-4.414439e+01
1.530000e-06	-1.424607e-06	-5.996432e-10	-9.926064e+00	-4.330451e+01
1.540000e-06	-1.379463e-06	-5.905871e-10	-9.611520e+00	-4.245256e+01
1.550000e-06	-1.334164e-06	-5.778292e-10	-9.295897e+00	-4.158834e+01
1.560000e-06	-1.288753e-06	-5.657277e-10	-8.979493e+00	-4.071163e+01
1.570000e-06	-1.243285e-06	-5.486643e-10	-8.662691e+00	-3.982222e+01
1.580000e-06	-1.197696e-06	-5.332047e-10	-8.345041e+00	-3.891989e+01
1.590000e-06	-1.152094e-06	-5.183965e-10	-8.027309e+00	-3.800442e+01
1.600000e-06	-1.106449e-06	-5.031510e-10	-7.709273e+00	-3.707558e+01
1.610000e-06	-1.060616e-06	-4.888716e-10	-7.389925e+00	-3.613314e+01
1.620000e-06	-1.014611e-06	-4.783023e-10	-7.069382e+00	-3.517687e+01
1.630000e-06	-9.685553e-07	-4.715333e-10	-6.748487e+00	-3.420655e+01
1.640000e-06	-9.224460e-07	-4.605365e-10	-6.427217e+00	-3.322193e+01
1.650000e-06	-8.763133e-07	-4.434423e-10	-6.105784e+00	-3.222280e+01
1.660000e-06	-8.300899e-07	-4.235870e-10	-5.783718e+00	-3.120895e+01
1.670000e-06	-7.837974e-07	-4.019861e-10	-5.461172e+00	-3.018015e+01
1.680000e-06	-7.375160e-07	-3.807323e-10	-5.138702e+00	-2.913622e+01
1.690000e-06	-6.912428e-07	-3.669773e-10	-4.816290e+00	-2.807697e+01
1.700000e-06	-6.449932e-07	-3.559785e-10	-4.494042e+00	-2.700224e+01
1.710000e-06	-5.986595e-07	-3.448281e-10	-4.171208e+00	-2.591188e+01
1.720000e-06	-5.522641e-07	-3.275812e-10	-3.847945e+00	-2.480576e+01
1.730000e-06	-5.058976e-07	-3.061386e-10	-3.524882e+00	-2.368378e+01
1.740000e-06	-4.594923e-07	-2.834294e-10	-3.201550e+00	-2.254588e+01
1.750000e-06	-4.129755e-07	-2.638909e-10	-2.877440e+00	-2.139202e+01
1.760000e-06	-3.663507e-07	-2.482258e-10	-2.552578e+00	-2.022218e+01
1.770000e-06	-3.197117e-07	-2.360609e-10	-2.227617e+00	-1.903641e+01
1.780000e-06	-2.731072e-07	-2.232505e-10	-1.902897e+00	-1.783478e+01
1.790000e-06	-2.264292e-07	-2.104243e-10	-1.577663e+00	-1.661740e+01
1.800000e-06	-1.797039e-07	-1.918607e-10	-1.252101e+00	-1.538444e+01
1.810000e-06	-1.330076e-07	-1.708049e-10	-9.267413e-01	-1.413609e+01
1.820000e-06	-8.632504e-08	-1.501525e-10	-6.014767e-01	-1.287262e+01
1.830000e-06	-3.967082e-08	-1.348348e-10	-2.764096e-01	-1.159433e+01
1.840000e-06	7.062650e-09	-1.205893e-10	4.920959e-02	-1.030157e+01
1.850000e-06	5.385603e-08	-1.043765e-10	3.752462e-01	-8.994767e+00
1.860000e-06	1.006870e-07	-8.832053e-11	7.015449e-01	-7.674376e+00
1.870000e-06	1.475734e-07	-6.866754e-11	1.028230e+00	-6.340915e+00
1.880000e-06	1.944271e-07	-4.672643e-11	1.354687e+00	-4.994958e+00
1.890000e-06	2.411478e-07	-2.543573e-11	1.680217e+00	-3.637129e+00
1.900000e-06	2.877859e-07	-5.067298e-12	2.005171e+00	-2.268107e+00
1.910000e-06	3.343511e-07	1.401085e-11	2.329618e+00	-8.886216e-01
1.920000e-06	3.808744e-07	3.252510e-11	2.653773e+00	5.005470e-01
1.930000e-06	4.274691e-07	5.054131e-11	2.978426e+00	1.898571e+00
1.940000e-06	4.739217e-07	7.122137e-11	3.302088e+00	3.304576e+00
1.950000e-06	5.202227e-07	9.255466e-11	3.624694e+00	4.717645e+00
1.960000e-06	5.665118e-07	1.134931e-10	3.947217e+00	6.136820e+00
1.970000e-06	6.128405e-07	1.342128e-10	4.270016e+00	7.561106e+00
1.980000e-06	6.591646e-07	1.545869e-10	4.592783e+00	8.989476e+00
1.990000e-06	7.053936e-07	1.771118e-10	4.914887e+00	1.042087e+01
2.000000e-06	7.515824e-07	1.970134e-10	5.236711e+00	1.185421e+01
2.010000e-06	7.977656e-07	2.178917e-10	5.558497e+00	1.328839e+01
2.020000e-06	8.438890e-07	2.414113e-10	5.879864e+00	1.472228e+01
2.030000e-06	8.899557e-07	2.644757e-10	6.200838e+00	1.615476e+01
2.040000e-06	9.359392e-07	2.829168e-10	6.521232e+00	1.758469e+01
2.050000e-06	9.818468e-07	3.000870e-10	6.841096e+00	1.901093e+01
2.060000e-06	1.027777e-06	3.173935e-10	7.161119e+00	2.043234e+01
2.070000e-06	1.073626e-06	3.366470e-10	7.480578e+00	2.184778e+01
2.080000e-06	1.119326e-06	3.584069e-10	7.798991e+00	2.325615e+01
2.090000e-06	1.164911e-06	3.826712e-10	8.116614e+00	2.465634e+01
2.100000e-06	1.210458e-06	4.080713e-10	8.433966e+00	2.604729e+01
2.110000e-06	1.255973e-06	4.281520e-10	8.751096e+00	2.742794e+01
2.120000e-06	1.301361e-06	4.436430e-10	9.067341e+00	2.879727e+01
2.130000e-06	1.346586e-06	4.598963e-10	9.382449e+00	3.015431e+01
2.140000e-06	1.391806e-06	4.783422e-10	9.697518e+00	3.149812e+01
2.150000e-06	1.437001e-06	4.989296e-10	1.001242e+01	3.282781e+01
2.160000e-06	1.482039e-06	5.181399e-10	1.032623e+01	3.414252e+01
2.170000e-06	1.526890e-06	5.376905e-10	1.063873e+01	3.544147e+01
2.180000e-06	1.571595e-06	5.588122e-10	1.095022e+01	3.672391e+01
2.190000e-06	1.616215e-06	5.776476e-10	1.126111e+01	3.798915e+01
2.200000e-06	1.660774e-06	5.943419e-10	1.157157e+01	3.923658e+01
2.210000e-06	1.705238e-06	6.103051e-10	1.188138e+01	4.046561e+01
2.220000e-06	1.749558e-06	6.269918e-10	1.219018e+01	4.167575e+01
2.230000e-06	1.793744e-06	6.433144e-10	1.249806e+01	4.286655e+01
2.240000e-06	1.837823e-06	6.581729e-10	1.280518e+01	4.403764e+01
2.250000e-06	1.881786e-06	6.728892e-10	1.311150e+01	4.518868e+01
2.260000e-06	1.925576e-06	6.870360e-10	1.341661e+01	4.631944e+01
2.270000e-06	1.969269e-06	7.041253e-10	1.372104e+01	4.742971e+01
2.280000e-06	2.012929e-06	7.192436e-10	1.402525e+01	4.851937e+01
2.290000e-06	2.056583e-06	7.346513e-10	1.432941e+01	4.958833e+01
2.300000e-06	2.100176e-06	7.483820e-10	1.463314e+01	5.063659e+01
2.310000e-06	2.143662e-06	7.611501e-10	1.493614e+01	5.166418e+01
2.320000e-06	2.187082e-06	7.759009e-10	1.523867e+01	5.267119e+01
2.330000e-06	2.230495e-06	7.887175e-10	1.554115e+01	5.365778e+01
2.340000e-06	2.273800e-06	8.015929e-10	1.584289e+01	5.462413e+01
2.350000e-06	2.316849e-06	8.172952e-10	1.614283e+01	5.557047e+01
2.360000e-06	2.359700e-06	8.353233e-10	1.644140e+01	5.649709e+01
2.370000e-06	2.402188e-06	8.481554e-10	1.673744e+01	5.740430e+01
2.380000e-06	2.444262e-06	8.598438e-10	1.703059e+01	5.829244e+01
2.390000e-06	2.486078e-06	8.708388e-10	1.732195e+01	5.916189e+01
2.400000e-06	2.527595e-06	8.785196e-10	1.761122e+01	6.001307e+01
2.410000e-06	2.568791e-06	8.861986e-10	1.789826e+01	6.084640e+01
2.420000e-06	2.609626e-06	8.983716e-10	1.818278e+01	6.166232e+01
2.430000e-06	2.650182e-06	9.122377e-10	1.846536e+01	6.246131e+01
2.440000e-06	2.690497e-06	9.250646e-10	1.874626e+01	6.324384e+01
2.450000e-06	2.730670e-06	9.367458e-10	1.902616e+01	6.401039e+01
2.460000e-06	2.770721e-06	9.486884e-10	1.930522e+01	6.476147e+01
2.470000e-06	2.810595e-06	9.584241e-10	1.958305e+01	6.549755e+01
2.480000e-06	2.850354e-06	9.679427e-10	1.986007e+01	6.621913e+01
2.490000e-06	2.889979e-06	9.786802e-10	2.013616e+01	6.692670e+01
2.500000e-06	2.929507e-06	9.891220e-10	2.041157e+01	6.762074e+01
2.510000e-06	2.968893e-06	1.001131e-09	2.068600e+01	6.830173e+01
2.520000e-06	3.008088e-06	1.016240e-09	2.095910e+01	6.897013e+01
2.530000e-06	3.047078e-06	1.029198e-09	2.123076e+01	6.962638e+01
2.540000e-06	3.085872e-06	1.037844e-09	2.150106e+01	7.027092e+01
2.550000e-06	3.124359e-06	1.045484e-09	2.176923e+01	7.090418e+01
2.560000e-06	3.162421e-06	1.052642e-09	2.203442e+01	7.152654e+01
2.570000e-06	3.200317e-06	1.059834e-09	2.229847e+01	7.213841e+01
2.580000e-06	3.238118e-06	1.068770e-09	2.256185e+01	7.274013e+01
2.590000e-06	3.275706e-06	1.079467e-09	2.282375e+01	7.333205e+01
2.600000e-06	3.313042e-06	1.089914e-09	2.308389e+01	7.391450e+01
2.610000e-06	3.350235e-06	1.096905e-09	2.334303e+01	7.448778e+01
2.620000e-06	3.387287e-06	1.101338e-09	2.360120e+01	7.505217e+01
2.630000e-06	3.423959e-06	1.106646e-09	2.385671e+01	7.560795e+01
2.640000e-06	3.460278e-06	1.115222e-09	2.410977e+01	7.615536e+01
2.650000e-06	3.496356e-06	1.125887e-09	2.436114e+01	7.669461e+01
2.660000e-06	3.532236e-06	1.134907e-09	2.461114e+01	7.722593e+01
2.670000e-06	3.567979e-06	1.143225e-09	2.486018e+01	7.774951e+01
2.680000e-06	3.603625e-06	1.151815e-09	2.510855e+01	7.826552e+01
2.690000e-06	3.639157e-06	1.159279e-09	2.535612e+01	7.877413e+01
2.700000e-06	3.674507e-06	1.165126e-09	2.560242e+01	7.927547e+01
2.710000e-06	3.709715e-06	1.170049e-09	2.584774e+01	7.976969e+01
2.720000e-06	3.744647e-06	1.174919e-09	2.609113e+01	8.025691e+01
2.730000e-06	3.779130e-06	1.180582e-09	2.633140e+01	8.073724e+01
2.740000e-06	3.813200e-06	1.187684e-09	2.656878e+01	8.121078e+01
2.750000e-06	3.846871e-06	1.194347e-09	2.680338e+01	8.167763e+01
2.760000e-06	3.880002e-06	1.201551e-09	2.703423e+01	8.213787e+01
2.770000e-06	3.912529e-06	1.209803e-09	2.726086e+01	8.259158e+01
2.780000e-06	3.944723e-06	1.215177e-09	2.748518e+01	8.303883e+01
2.790000e-06	3.976698e-06	1.221791e-09	2.770797e+01	8.347969e+01
2.800000e-06	4.008479e-06	1.228571e-09	2.792940e+01	8.391422e+01
2.810000e-06	4.040143e-06	1.234016e-09	2.815002e+01	8.434249e+01
2.820000e-06	4.071645e-06	1.239758e-09	2.836951e+01	8.476454e+01
2.830000e-06	4.102995e-06	1.246440e-09	2.858795e+01	8.518043e+01
2.840000e-06	4.134163e-06	1.253735e-09	2.880511e+01	8.559021e+01
2.850000e-06	4.165022e-06	1.261558e-09	2.902013e+01	8.599393e+01
2.860000e-06	4.195501e-06	1.268245e-09	2.923249e+01	8.639162e+01
2.870000e-06	4.225546e-06	1.272742e-09	2.944183e+01	8.678334e+01
2.880000e-06	4.255294e-06	1.277963e-09	2.964910e+01	8.716911e+01
2.890000e-06	4.284844e-06	1.284742e-09	2.985500e+01	8.754899e+01
2.900000e-06	4.314120e-06	1.290038e-09	3.005898e+01	8.792299e+01
2.910000e-06	4.343099e-06	1.293597e-09	3.026090e+01	8.829115e+01
