# Temperatura_=_-0.74
# Concentracion g/m^3_=_1620.0
# C_Vs_to_Am_M_A/Vsm_=_65563218390.804596
# pendiente_HvsI_1/m_=_3716.3
# ordenada_HvsI_A/m_=_1297.0
# frecuencia_Hz_=_135101.24482047057

Tiempo_(s)	Campo_(V.s)	Magnetizacion_(V.s)	Campo_(kA/m)	Magnetizacion_(A/m)
0.000000e+00	-5.524762e-06	-1.231079e-09	-3.837407e+01	-8.163272e+01
1.000000e-08	-5.525032e-06	-1.229017e-09	-3.837595e+01	-8.159472e+01
2.000000e-08	-5.525037e-06	-1.228355e-09	-3.837598e+01	-8.155741e+01
3.000000e-08	-5.524660e-06	-1.228050e-09	-3.837337e+01	-8.152054e+01
4.000000e-08	-5.523854e-06	-1.226829e-09	-3.836777e+01	-8.148386e+01
5.000000e-08	-5.522502e-06	-1.218614e-09	-3.835838e+01	-8.144710e+01
6.000000e-08	-5.520530e-06	-1.204973e-09	-3.834468e+01	-8.140997e+01
7.000000e-08	-5.518080e-06	-1.213905e-09	-3.832766e+01	-8.137219e+01
8.000000e-08	-5.515161e-06	-1.236376e-09	-3.830739e+01	-8.133347e+01
9.000000e-08	-5.511714e-06	-1.272249e-09	-3.828344e+01	-8.129350e+01
1.000000e-07	-5.507724e-06	-1.303021e-09	-3.825573e+01	-8.125198e+01
1.100000e-07	-5.503344e-06	-1.266685e-09	-3.822531e+01	-8.120862e+01
1.200000e-07	-5.498808e-06	-1.160542e-09	-3.819380e+01	-8.116313e+01
1.300000e-07	-5.494068e-06	-1.143739e-09	-3.816088e+01	-8.111523e+01
1.400000e-07	-5.488972e-06	-1.207672e-09	-3.812548e+01	-8.106463e+01
1.500000e-07	-5.483464e-06	-1.250987e-09	-3.808722e+01	-8.101107e+01
1.600000e-07	-5.477561e-06	-1.167755e-09	-3.804623e+01	-8.095431e+01
1.700000e-07	-5.471306e-06	-1.183290e-09	-3.800278e+01	-8.089411e+01
1.800000e-07	-5.464590e-06	-1.262830e-09	-3.795613e+01	-8.083024e+01
1.900000e-07	-5.457360e-06	-1.300298e-09	-3.790591e+01	-8.076252e+01
2.000000e-07	-5.449785e-06	-1.179533e-09	-3.785330e+01	-8.069077e+01
2.100000e-07	-5.442081e-06	-1.152270e-09	-3.779978e+01	-8.061481e+01
2.200000e-07	-5.434208e-06	-1.228522e-09	-3.774510e+01	-8.053452e+01
2.300000e-07	-5.426012e-06	-1.292778e-09	-3.768817e+01	-8.044978e+01
2.400000e-07	-5.417379e-06	-1.250351e-09	-3.762821e+01	-8.036050e+01
2.500000e-07	-5.408112e-06	-1.219042e-09	-3.756384e+01	-8.026661e+01
2.600000e-07	-5.398168e-06	-1.235907e-09	-3.749477e+01	-8.016806e+01
2.700000e-07	-5.387667e-06	-1.214125e-09	-3.742183e+01	-8.006482e+01
2.800000e-07	-5.376620e-06	-1.187794e-09	-3.734510e+01	-7.995689e+01
2.900000e-07	-5.365084e-06	-1.188543e-09	-3.726498e+01	-7.984428e+01
3.000000e-07	-5.353155e-06	-1.225175e-09	-3.718212e+01	-7.972703e+01
3.100000e-07	-5.340822e-06	-1.194524e-09	-3.709646e+01	-7.960520e+01
3.200000e-07	-5.328068e-06	-1.197137e-09	-3.700787e+01	-7.947885e+01
3.300000e-07	-5.314931e-06	-1.187437e-09	-3.691663e+01	-7.934807e+01
3.400000e-07	-5.301469e-06	-1.210327e-09	-3.682311e+01	-7.921296e+01
3.500000e-07	-5.287674e-06	-1.186584e-09	-3.672730e+01	-7.907364e+01
3.600000e-07	-5.273501e-06	-1.194881e-09	-3.662885e+01	-7.893022e+01
3.700000e-07	-5.258750e-06	-1.179582e-09	-3.652640e+01	-7.878285e+01
3.800000e-07	-5.243380e-06	-1.212136e-09	-3.641964e+01	-7.863166e+01
3.900000e-07	-5.227442e-06	-1.200697e-09	-3.630894e+01	-7.847679e+01
4.000000e-07	-5.211051e-06	-1.178481e-09	-3.619509e+01	-7.831840e+01
4.100000e-07	-5.194333e-06	-1.171634e-09	-3.607897e+01	-7.815663e+01
4.200000e-07	-5.177336e-06	-1.205184e-09	-3.596091e+01	-7.799163e+01
4.300000e-07	-5.160050e-06	-1.173868e-09	-3.584085e+01	-7.782355e+01
4.400000e-07	-5.142403e-06	-1.161360e-09	-3.571827e+01	-7.765254e+01
4.500000e-07	-5.124394e-06	-1.206782e-09	-3.559318e+01	-7.747872e+01
4.600000e-07	-5.105922e-06	-1.211095e-09	-3.546488e+01	-7.730223e+01
4.700000e-07	-5.087043e-06	-1.147758e-09	-3.533375e+01	-7.712320e+01
4.800000e-07	-5.067848e-06	-1.168951e-09	-3.520042e+01	-7.694173e+01
4.900000e-07	-5.048368e-06	-1.212669e-09	-3.506512e+01	-7.675794e+01
5.000000e-07	-5.028696e-06	-1.168905e-09	-3.492848e+01	-7.657190e+01
5.100000e-07	-5.008835e-06	-1.145730e-09	-3.479053e+01	-7.638370e+01
5.200000e-07	-4.988713e-06	-1.184276e-09	-3.465077e+01	-7.619341e+01
5.300000e-07	-4.968182e-06	-1.170861e-09	-3.450816e+01	-7.600109e+01
5.400000e-07	-4.947274e-06	-1.143136e-09	-3.436294e+01	-7.580676e+01
5.500000e-07	-4.926041e-06	-1.181637e-09	-3.421546e+01	-7.561046e+01
5.600000e-07	-4.904474e-06	-1.166257e-09	-3.406565e+01	-7.541221e+01
5.700000e-07	-4.882544e-06	-1.116950e-09	-3.391333e+01	-7.521200e+01
5.800000e-07	-4.860264e-06	-1.138503e-09	-3.375858e+01	-7.500982e+01
5.900000e-07	-4.837695e-06	-1.169399e-09	-3.360182e+01	-7.480566e+01
6.000000e-07	-4.814736e-06	-1.121970e-09	-3.344235e+01	-7.459947e+01
6.100000e-07	-4.791454e-06	-1.120845e-09	-3.328064e+01	-7.439121e+01
6.200000e-07	-4.767929e-06	-1.142531e-09	-3.311724e+01	-7.418082e+01
6.300000e-07	-4.744177e-06	-1.118075e-09	-3.295226e+01	-7.396824e+01
6.400000e-07	-4.720217e-06	-1.094452e-09	-3.278584e+01	-7.375340e+01
6.500000e-07	-4.695887e-06	-1.126948e-09	-3.261684e+01	-7.353622e+01
6.600000e-07	-4.671036e-06	-1.114903e-09	-3.244424e+01	-7.331661e+01
6.700000e-07	-4.645800e-06	-1.098396e-09	-3.226895e+01	-7.309449e+01
6.800000e-07	-4.620140e-06	-1.113788e-09	-3.209072e+01	-7.286976e+01
6.900000e-07	-4.593842e-06	-1.119815e-09	-3.190806e+01	-7.264232e+01
7.000000e-07	-4.567022e-06	-1.089284e-09	-3.172178e+01	-7.241209e+01
7.100000e-07	-4.539840e-06	-1.092843e-09	-3.153297e+01	-7.217896e+01
7.200000e-07	-4.512385e-06	-1.095291e-09	-3.134228e+01	-7.194283e+01
7.300000e-07	-4.484761e-06	-1.082039e-09	-3.115040e+01	-7.170363e+01
7.400000e-07	-4.456928e-06	-1.078571e-09	-3.095708e+01	-7.146125e+01
7.500000e-07	-4.428871e-06	-1.089176e-09	-3.076220e+01	-7.121561e+01
7.600000e-07	-4.400642e-06	-1.073762e-09	-3.056613e+01	-7.096663e+01
7.700000e-07	-4.372127e-06	-1.061699e-09	-3.036806e+01	-7.071422e+01
7.800000e-07	-4.343213e-06	-1.063307e-09	-3.016723e+01	-7.045833e+01
7.900000e-07	-4.313959e-06	-1.054675e-09	-2.996404e+01	-7.019888e+01
8.000000e-07	-4.284401e-06	-1.043711e-09	-2.975874e+01	-6.993581e+01
8.100000e-07	-4.254551e-06	-1.042503e-09	-2.955140e+01	-6.966907e+01
8.200000e-07	-4.224380e-06	-1.036588e-09	-2.934183e+01	-6.939862e+01
8.300000e-07	-4.193936e-06	-1.023608e-09	-2.913038e+01	-6.912442e+01
8.400000e-07	-4.163227e-06	-1.023879e-09	-2.891708e+01	-6.884644e+01
8.500000e-07	-4.132164e-06	-1.019457e-09	-2.870132e+01	-6.856464e+01
8.600000e-07	-4.100780e-06	-1.008062e-09	-2.848333e+01	-6.827902e+01
8.700000e-07	-4.069258e-06	-1.000776e-09	-2.826439e+01	-6.798956e+01
8.800000e-07	-4.037646e-06	-1.000078e-09	-2.804481e+01	-6.769625e+01
8.900000e-07	-4.005860e-06	-9.906247e-10	-2.782403e+01	-6.739909e+01
9.000000e-07	-3.973823e-06	-9.878708e-10	-2.760151e+01	-6.709808e+01
9.100000e-07	-3.941419e-06	-9.832530e-10	-2.737644e+01	-6.679323e+01
9.200000e-07	-3.908659e-06	-9.754001e-10	-2.714889e+01	-6.648455e+01
9.300000e-07	-3.875581e-06	-9.644182e-10	-2.691914e+01	-6.617205e+01
9.400000e-07	-3.842067e-06	-9.658884e-10	-2.668636e+01	-6.585574e+01
9.500000e-07	-3.808097e-06	-9.616377e-10	-2.645041e+01	-6.553564e+01
9.600000e-07	-3.773709e-06	-9.561976e-10	-2.621155e+01	-6.521177e+01
9.700000e-07	-3.738876e-06	-9.507975e-10	-2.596961e+01	-6.488414e+01
9.800000e-07	-3.703663e-06	-9.507572e-10	-2.572502e+01	-6.455277e+01
9.900000e-07	-3.668214e-06	-9.421696e-10	-2.547880e+01	-6.421766e+01
1.000000e-06	-3.632655e-06	-9.325802e-10	-2.523181e+01	-6.387885e+01
1.010000e-06	-3.596955e-06	-9.249367e-10	-2.498385e+01	-6.353632e+01
1.020000e-06	-3.561096e-06	-9.212692e-10	-2.473478e+01	-6.319009e+01
1.030000e-06	-3.525067e-06	-9.166475e-10	-2.448453e+01	-6.284016e+01
1.040000e-06	-3.488844e-06	-9.159040e-10	-2.423293e+01	-6.248654e+01
1.050000e-06	-3.452366e-06	-9.123341e-10	-2.397956e+01	-6.212921e+01
1.060000e-06	-3.415594e-06	-9.033322e-10	-2.372415e+01	-6.176816e+01
1.070000e-06	-3.378515e-06	-8.925987e-10	-2.346660e+01	-6.140339e+01
1.080000e-06	-3.341177e-06	-8.860070e-10	-2.320726e+01	-6.103488e+01
1.090000e-06	-3.303656e-06	-8.807592e-10	-2.294664e+01	-6.066259e+01
1.100000e-06	-3.265933e-06	-8.763941e-10	-2.268463e+01	-6.028651e+01
1.110000e-06	-3.228050e-06	-8.724474e-10	-2.242150e+01	-5.990660e+01
1.120000e-06	-3.189921e-06	-8.654742e-10	-2.215666e+01	-5.952282e+01
1.130000e-06	-3.151560e-06	-8.595023e-10	-2.189021e+01	-5.913512e+01
1.140000e-06	-3.112966e-06	-8.533468e-10	-2.162214e+01	-5.874347e+01
1.150000e-06	-3.074104e-06	-8.467310e-10	-2.135222e+01	-5.834780e+01
1.160000e-06	-3.035043e-06	-8.373070e-10	-2.108090e+01	-5.794806e+01
1.170000e-06	-2.995814e-06	-8.319250e-10	-2.080842e+01	-5.754419e+01
1.180000e-06	-2.956398e-06	-8.278664e-10	-2.053465e+01	-5.713611e+01
1.190000e-06	-2.916839e-06	-8.234757e-10	-2.025988e+01	-5.672377e+01
1.200000e-06	-2.877226e-06	-8.149205e-10	-1.998473e+01	-5.630708e+01
1.210000e-06	-2.837444e-06	-8.090845e-10	-1.970841e+01	-5.588597e+01
1.220000e-06	-2.797492e-06	-8.027339e-10	-1.943091e+01	-5.546034e+01
1.230000e-06	-2.757397e-06	-7.977266e-10	-1.915242e+01	-5.503012e+01
1.240000e-06	-2.717123e-06	-7.902831e-10	-1.887268e+01	-5.459520e+01
1.250000e-06	-2.676650e-06	-7.827025e-10	-1.859156e+01	-5.415549e+01
1.260000e-06	-2.636027e-06	-7.736425e-10	-1.830940e+01	-5.371089e+01
1.270000e-06	-2.595177e-06	-7.635088e-10	-1.802567e+01	-5.326128e+01
1.280000e-06	-2.553932e-06	-7.537158e-10	-1.773919e+01	-5.280655e+01
1.290000e-06	-2.512344e-06	-7.474637e-10	-1.745032e+01	-5.234658e+01
1.300000e-06	-2.470527e-06	-7.400371e-10	-1.715987e+01	-5.188124e+01
1.310000e-06	-2.428515e-06	-7.319752e-10	-1.686806e+01	-5.141039e+01
1.320000e-06	-2.386162e-06	-7.234111e-10	-1.657388e+01	-5.093389e+01
1.330000e-06	-2.343403e-06	-7.150795e-10	-1.627688e+01	-5.045159e+01
1.340000e-06	-2.300360e-06	-7.056592e-10	-1.597792e+01	-4.996333e+01
1.350000e-06	-2.257185e-06	-6.966840e-10	-1.567803e+01	-4.946892e+01
1.360000e-06	-2.213824e-06	-6.863201e-10	-1.537685e+01	-4.896820e+01
1.370000e-06	-2.170289e-06	-6.774032e-10	-1.507446e+01	-4.846096e+01
1.380000e-06	-2.126669e-06	-6.711828e-10	-1.477149e+01	-4.794699e+01
1.390000e-06	-2.083006e-06	-6.653991e-10	-1.446821e+01	-4.742608e+01
1.400000e-06	-2.039290e-06	-6.581931e-10	-1.416457e+01	-4.689799e+01
1.410000e-06	-1.995434e-06	-6.492478e-10	-1.385995e+01	-4.636248e+01
1.420000e-06	-1.951482e-06	-6.403264e-10	-1.355467e+01	-4.581927e+01
1.430000e-06	-1.907496e-06	-6.307832e-10	-1.324915e+01	-4.526808e+01
1.440000e-06	-1.863403e-06	-6.197977e-10	-1.294288e+01	-4.470863e+01
1.450000e-06	-1.819245e-06	-6.103304e-10	-1.263617e+01	-4.414060e+01
1.460000e-06	-1.775014e-06	-6.034586e-10	-1.232895e+01	-4.356367e+01
1.470000e-06	-1.730563e-06	-5.942190e-10	-1.202020e+01	-4.297748e+01
1.480000e-06	-1.686042e-06	-5.823675e-10	-1.171097e+01	-4.238168e+01
1.490000e-06	-1.641406e-06	-5.699334e-10	-1.140093e+01	-4.177589e+01
1.500000e-06	-1.596561e-06	-5.605923e-10	-1.108945e+01	-4.115972e+01
1.510000e-06	-1.551634e-06	-5.519496e-10	-1.077739e+01	-4.053277e+01
1.520000e-06	-1.506597e-06	-5.438304e-10	-1.046457e+01	-3.989462e+01
1.530000e-06	-1.461386e-06	-5.351796e-10	-1.015054e+01	-3.924482e+01
1.540000e-06	-1.416060e-06	-5.262297e-10	-9.835719e+00	-3.858295e+01
1.550000e-06	-1.370662e-06	-5.138759e-10	-9.520392e+00	-3.790855e+01
1.560000e-06	-1.325168e-06	-5.020790e-10	-9.204398e+00	-3.722116e+01
1.570000e-06	-1.279602e-06	-4.887228e-10	-8.887901e+00	-3.652032e+01
1.580000e-06	-1.233950e-06	-4.746427e-10	-8.570814e+00	-3.580554e+01
1.590000e-06	-1.188161e-06	-4.630973e-10	-8.252764e+00	-3.507637e+01
1.600000e-06	-1.142249e-06	-4.548779e-10	-7.933868e+00	-3.433233e+01
1.610000e-06	-1.096262e-06	-4.448843e-10	-7.614456e+00	-3.357296e+01
1.620000e-06	-1.050248e-06	-4.347195e-10	-7.294846e+00	-3.279780e+01
1.630000e-06	-1.004230e-06	-4.264615e-10	-6.975215e+00	-3.200640e+01
1.640000e-06	-9.581333e-07	-4.185934e-10	-6.655034e+00	-3.119832e+01
1.650000e-06	-9.119904e-07	-4.076457e-10	-6.334533e+00	-3.037314e+01
1.660000e-06	-8.657722e-07	-3.941669e-10	-6.013509e+00	-2.953047e+01
1.670000e-06	-8.194297e-07	-3.811096e-10	-5.691622e+00	-2.866992e+01
1.680000e-06	-7.730584e-07	-3.661080e-10	-5.369534e+00	-2.779115e+01
1.690000e-06	-7.266416e-07	-3.519522e-10	-5.047131e+00	-2.689383e+01
1.700000e-06	-6.801721e-07	-3.400538e-10	-4.724362e+00	-2.597768e+01
1.710000e-06	-6.336252e-07	-3.283287e-10	-4.401055e+00	-2.504245e+01
1.720000e-06	-5.870014e-07	-3.138290e-10	-4.077214e+00	-2.408791e+01
1.730000e-06	-5.403751e-07	-2.968587e-10	-3.753355e+00	-2.311391e+01
1.740000e-06	-4.936833e-07	-2.789748e-10	-3.429041e+00	-2.212032e+01
1.750000e-06	-4.469859e-07	-2.610591e-10	-3.104689e+00	-2.110707e+01
1.760000e-06	-4.003637e-07	-2.457440e-10	-2.780859e+00	-2.007412e+01
1.770000e-06	-3.536499e-07	-2.340531e-10	-2.456393e+00	-1.902152e+01
1.780000e-06	-3.068053e-07	-2.219218e-10	-2.131018e+00	-1.794935e+01
1.790000e-06	-2.599757e-07	-2.081289e-10	-1.805748e+00	-1.685775e+01
1.800000e-06	-2.131976e-07	-1.916895e-10	-1.480835e+00	-1.574692e+01
1.810000e-06	-1.663462e-07	-1.733927e-10	-1.155413e+00	-1.461713e+01
1.820000e-06	-1.193924e-07	-1.566578e-10	-8.292798e-01	-1.346870e+01
1.830000e-06	-7.246144e-08	-1.425880e-10	-5.033050e-01	-1.230202e+01
1.840000e-06	-2.569820e-08	-1.290979e-10	-1.784954e-01	-1.111753e+01
1.850000e-06	2.100425e-08	-1.152769e-10	1.458920e-01	-9.915736e+00
1.860000e-06	6.778548e-08	-1.004835e-10	4.708266e-01	-8.697219e+00
1.870000e-06	1.145720e-07	-8.487050e-11	7.957981e-01	-7.462604e+00
1.880000e-06	1.613775e-07	-6.666419e-11	1.120901e+00	-6.212582e+00
1.890000e-06	2.082074e-07	-4.751107e-11	1.446173e+00	-4.947897e+00
1.900000e-06	2.550544e-07	-2.702236e-11	1.771565e+00	-3.669353e+00
1.910000e-06	3.018326e-07	-6.276347e-12	2.096479e+00	-2.377802e+00
1.920000e-06	3.485307e-07	1.233137e-11	2.420836e+00	-1.074149e+00
1.930000e-06	3.952941e-07	2.849652e-11	2.745647e+00	2.406557e-01
1.940000e-06	4.420516e-07	4.622565e-11	3.070417e+00	1.565619e+00
1.950000e-06	4.887049e-07	6.623235e-11	3.394462e+00	2.899706e+00
1.960000e-06	5.353246e-07	8.416006e-11	3.718275e+00	4.241849e+00
1.970000e-06	5.819864e-07	1.020165e-10	4.042380e+00	5.590947e+00
1.980000e-06	6.285601e-07	1.193801e-10	4.365874e+00	6.945873e+00
1.990000e-06	6.750404e-07	1.384077e-10	4.688718e+00	8.305476e+00
2.000000e-06	7.214865e-07	1.573980e-10	5.011324e+00	9.668589e+00
2.010000e-06	7.678497e-07	1.763354e-10	5.333356e+00	1.103403e+01
2.020000e-06	8.141734e-07	1.962631e-10	5.655113e+00	1.240062e+01
2.030000e-06	8.604743e-07	2.166324e-10	5.976711e+00	1.376715e+01
2.040000e-06	9.067491e-07	2.361906e-10	6.298128e+00	1.513244e+01
2.050000e-06	9.529285e-07	2.545033e-10	6.618882e+00	1.649531e+01
2.060000e-06	9.990158e-07	2.716141e-10	6.938997e+00	1.785458e+01
2.070000e-06	1.045090e-06	2.901711e-10	7.259021e+00	1.920910e+01
2.080000e-06	1.091046e-06	3.105665e-10	7.578221e+00	2.055774e+01
2.090000e-06	1.136836e-06	3.326530e-10	7.896273e+00	2.189938e+01
2.100000e-06	1.182549e-06	3.554611e-10	8.213785e+00	2.323295e+01
2.110000e-06	1.228178e-06	3.758261e-10	8.530719e+00	2.455739e+01
2.120000e-06	1.273726e-06	3.922501e-10	8.847089e+00	2.587171e+01
2.130000e-06	1.319220e-06	4.066250e-10	9.163085e+00	2.717492e+01
2.140000e-06	1.364612e-06	4.241048e-10	9.478370e+00	2.846611e+01
2.150000e-06	1.409888e-06	4.424667e-10	9.792850e+00	2.974438e+01
2.160000e-06	1.455089e-06	4.609579e-10	1.010680e+01	3.100892e+01
2.170000e-06	1.500190e-06	4.795247e-10	1.042007e+01	3.225894e+01
2.180000e-06	1.545143e-06	4.982596e-10	1.073231e+01	3.349372e+01
2.190000e-06	1.589996e-06	5.159700e-10	1.104385e+01	3.471257e+01
2.200000e-06	1.634778e-06	5.317449e-10	1.135490e+01	3.591488e+01
2.210000e-06	1.679448e-06	5.463337e-10	1.166517e+01	3.710009e+01
2.220000e-06	1.723946e-06	5.615169e-10	1.197424e+01	3.826768e+01
2.230000e-06	1.768268e-06	5.781054e-10	1.228209e+01	3.941721e+01
2.240000e-06	1.812497e-06	5.950367e-10	1.258930e+01	4.054827e+01
2.250000e-06	1.856670e-06	6.109161e-10	1.289612e+01	4.166052e+01
2.260000e-06	1.900750e-06	6.254247e-10	1.320229e+01	4.275366e+01
2.270000e-06	1.944696e-06	6.411379e-10	1.350753e+01	4.382748e+01
2.280000e-06	1.988563e-06	6.589032e-10	1.381223e+01	4.488176e+01
2.290000e-06	2.032378e-06	6.759826e-10	1.411656e+01	4.591637e+01
2.300000e-06	2.076135e-06	6.898477e-10	1.442049e+01	4.693122e+01
2.310000e-06	2.119820e-06	7.007035e-10	1.472392e+01	4.792625e+01
2.320000e-06	2.163431e-06	7.136138e-10	1.502683e+01	4.890146e+01
2.330000e-06	2.206986e-06	7.273225e-10	1.532935e+01	4.985687e+01
2.340000e-06	2.250355e-06	7.427652e-10	1.563059e+01	5.079255e+01
2.350000e-06	2.293548e-06	7.596717e-10	1.593060e+01	5.170859e+01
2.360000e-06	2.336606e-06	7.768931e-10	1.622968e+01	5.260513e+01
2.370000e-06	2.379407e-06	7.903523e-10	1.652696e+01	5.348231e+01
2.380000e-06	2.421955e-06	7.980238e-10	1.682250e+01	5.434032e+01
2.390000e-06	2.464255e-06	8.051234e-10	1.711630e+01	5.517936e+01
2.400000e-06	2.506246e-06	8.148457e-10	1.740797e+01	5.599965e+01
2.410000e-06	2.547794e-06	8.267457e-10	1.769655e+01	5.680142e+01
2.420000e-06	2.588912e-06	8.400453e-10	1.798215e+01	5.758491e+01
2.430000e-06	2.629791e-06	8.535862e-10	1.826609e+01	5.835040e+01
2.440000e-06	2.670503e-06	8.662057e-10	1.854887e+01	5.909815e+01
2.450000e-06	2.711005e-06	8.764306e-10	1.883019e+01	5.982842e+01
2.460000e-06	2.751248e-06	8.836572e-10	1.910971e+01	6.054151e+01
2.470000e-06	2.791323e-06	8.920452e-10	1.938807e+01	6.123770e+01
2.480000e-06	2.831278e-06	9.012590e-10	1.966558e+01	6.191726e+01
2.490000e-06	2.871076e-06	9.115387e-10	1.994202e+01	6.258048e+01
2.500000e-06	2.910749e-06	9.227756e-10	2.021757e+01	6.322763e+01
2.510000e-06	2.950346e-06	9.330478e-10	2.049261e+01	6.385901e+01
2.520000e-06	2.989775e-06	9.422096e-10	2.076648e+01	6.447488e+01
2.530000e-06	3.029010e-06	9.512370e-10	2.103900e+01	6.507552e+01
2.540000e-06	3.068064e-06	9.587625e-10	2.131026e+01	6.566119e+01
2.550000e-06	3.106884e-06	9.661967e-10	2.157990e+01	6.623216e+01
2.560000e-06	3.145557e-06	9.744072e-10	2.184851e+01	6.678868e+01
2.570000e-06	3.183939e-06	9.828009e-10	2.211511e+01	6.733102e+01
2.580000e-06	3.221974e-06	9.889201e-10	2.237929e+01	6.785942e+01
2.590000e-06	3.259764e-06	9.936765e-10	2.264178e+01	6.837413e+01
2.600000e-06	3.297330e-06	9.997838e-10	2.290270e+01	6.887540e+01
2.610000e-06	3.334843e-06	1.007973e-09	2.316326e+01	6.936347e+01
2.620000e-06	3.372149e-06	1.014752e-09	2.342238e+01	6.983857e+01
2.630000e-06	3.409082e-06	1.020077e-09	2.367892e+01	7.030096e+01
2.640000e-06	3.445731e-06	1.026497e-09	2.393347e+01	7.075087e+01
2.650000e-06	3.482155e-06	1.033214e-09	2.418646e+01	7.118854e+01
2.660000e-06	3.518388e-06	1.040130e-09	2.443814e+01	7.161421e+01
2.670000e-06	3.554440e-06	1.046359e-09	2.468854e+01	7.202813e+01
2.680000e-06	3.590353e-06	1.052100e-09	2.493799e+01	7.243054e+01
2.690000e-06	3.626117e-06	1.059400e-09	2.518640e+01	7.282169e+01
2.700000e-06	3.661717e-06	1.066794e-09	2.543368e+01	7.320184e+01
2.710000e-06	3.697118e-06	1.072239e-09	2.567956e+01	7.357124e+01
2.720000e-06	3.732304e-06	1.076959e-09	2.592396e+01	7.393015e+01
2.730000e-06	3.767174e-06	1.081934e-09	2.616616e+01	7.427883e+01
2.740000e-06	3.801643e-06	1.086258e-09	2.640558e+01	7.461757e+01
2.750000e-06	3.835709e-06	1.088985e-09	2.664219e+01	7.494662e+01
2.760000e-06	3.869306e-06	1.090737e-09	2.687555e+01	7.526628e+01
2.770000e-06	3.902385e-06	1.093207e-09	2.710532e+01	7.557681e+01
2.780000e-06	3.934991e-06	1.098242e-09	2.733179e+01	7.587850e+01
2.790000e-06	3.967249e-06	1.104321e-09	2.755585e+01	7.617165e+01
2.800000e-06	3.999314e-06	1.109183e-09	2.777856e+01	7.645653e+01
2.810000e-06	4.031215e-06	1.113343e-09	2.800015e+01	7.673343e+01
2.820000e-06	4.062932e-06	1.117528e-09	2.822044e+01	7.700264e+01
2.830000e-06	4.094479e-06	1.121457e-09	2.843957e+01	7.726445e+01
2.840000e-06	4.125802e-06	1.125502e-09	2.865713e+01	7.751913e+01
2.850000e-06	4.156854e-06	1.130931e-09	2.887282e+01	7.776696e+01
2.860000e-06	4.187642e-06	1.137862e-09	2.908666e+01	7.800821e+01
2.870000e-06	4.218104e-06	1.142925e-09	2.929825e+01	7.824315e+01
2.880000e-06	4.248232e-06	1.145841e-09	2.950751e+01	7.847204e+01
2.890000e-06	4.278099e-06	1.147817e-09	2.971496e+01	7.869510e+01
2.900000e-06	4.307610e-06	1.149078e-09	2.991994e+01	7.891258e+01
