# Temperatura_=_6.5
# Concentracion g/m^3_=_1620.0
# C_Vs_to_Am_M_A/Vsm_=_65563218390.804596
# pendiente_HvsI_1/m_=_3716.3
# ordenada_HvsI_A/m_=_1297.0
# frecuencia_Hz_=_135093.7283946552

Tiempo_(s)	Campo_(V.s)	Magnetizacion_(V.s)	Campo_(kA/m)	Magnetizacion_(A/m)
0.000000e+00	-5.513777e-06	-1.261456e-09	-3.837223e+01	-8.446279e+01
1.000000e-08	-5.514035e-06	-1.257898e-09	-3.837402e+01	-8.444187e+01
2.000000e-08	-5.513990e-06	-1.259332e-09	-3.837371e+01	-8.442131e+01
3.000000e-08	-5.513529e-06	-1.264741e-09	-3.837050e+01	-8.440104e+01
4.000000e-08	-5.512556e-06	-1.267510e-09	-3.836374e+01	-8.438098e+01
5.000000e-08	-5.510959e-06	-1.257614e-09	-3.835262e+01	-8.436103e+01
6.000000e-08	-5.508780e-06	-1.241549e-09	-3.833745e+01	-8.434105e+01
7.000000e-08	-5.506135e-06	-1.248701e-09	-3.831905e+01	-8.432088e+01
8.000000e-08	-5.502999e-06	-1.284158e-09	-3.829722e+01	-8.430035e+01
9.000000e-08	-5.499490e-06	-1.317578e-09	-3.827280e+01	-8.427926e+01
1.000000e-07	-5.495659e-06	-1.346022e-09	-3.824614e+01	-8.425738e+01
1.100000e-07	-5.491509e-06	-1.314311e-09	-3.821726e+01	-8.423449e+01
1.200000e-07	-5.487056e-06	-1.202016e-09	-3.818627e+01	-8.421032e+01
1.300000e-07	-5.482271e-06	-1.193987e-09	-3.815297e+01	-8.418461e+01
1.400000e-07	-5.477141e-06	-1.271410e-09	-3.811726e+01	-8.415708e+01
1.500000e-07	-5.471565e-06	-1.311442e-09	-3.807846e+01	-8.412743e+01
1.600000e-07	-5.465586e-06	-1.247559e-09	-3.803685e+01	-8.409539e+01
1.700000e-07	-5.459276e-06	-1.198024e-09	-3.799294e+01	-8.406063e+01
1.800000e-07	-5.452533e-06	-1.291609e-09	-3.794601e+01	-8.402287e+01
1.900000e-07	-5.445402e-06	-1.302433e-09	-3.789638e+01	-8.398178e+01
2.000000e-07	-5.437962e-06	-1.245050e-09	-3.784461e+01	-8.393708e+01
2.100000e-07	-5.430198e-06	-1.205924e-09	-3.779057e+01	-8.388846e+01
2.200000e-07	-5.422220e-06	-1.307461e-09	-3.773505e+01	-8.383563e+01
2.300000e-07	-5.414016e-06	-1.351321e-09	-3.767796e+01	-8.377831e+01
2.400000e-07	-5.405467e-06	-1.314402e-09	-3.761846e+01	-8.371623e+01
2.500000e-07	-5.396263e-06	-1.258853e-09	-3.755441e+01	-8.364914e+01
2.600000e-07	-5.386199e-06	-1.279616e-09	-3.748437e+01	-8.357678e+01
2.700000e-07	-5.375424e-06	-1.285918e-09	-3.740938e+01	-8.349894e+01
2.800000e-07	-5.364278e-06	-1.276597e-09	-3.733181e+01	-8.341542e+01
2.900000e-07	-5.352830e-06	-1.285384e-09	-3.725214e+01	-8.332602e+01
3.000000e-07	-5.340885e-06	-1.296860e-09	-3.716901e+01	-8.323058e+01
3.100000e-07	-5.328477e-06	-1.297397e-09	-3.708266e+01	-8.312896e+01
3.200000e-07	-5.315684e-06	-1.278333e-09	-3.699363e+01	-8.302105e+01
3.300000e-07	-5.302507e-06	-1.272644e-09	-3.690193e+01	-8.290674e+01
3.400000e-07	-5.288965e-06	-1.251637e-09	-3.680769e+01	-8.278597e+01
3.500000e-07	-5.275160e-06	-1.276470e-09	-3.671161e+01	-8.265869e+01
3.600000e-07	-5.261056e-06	-1.275785e-09	-3.661346e+01	-8.252487e+01
3.700000e-07	-5.246250e-06	-1.268492e-09	-3.651042e+01	-8.238453e+01
3.800000e-07	-5.230774e-06	-1.274544e-09	-3.640272e+01	-8.223769e+01
3.900000e-07	-5.214948e-06	-1.294193e-09	-3.629258e+01	-8.208438e+01
4.000000e-07	-5.198705e-06	-1.240348e-09	-3.617954e+01	-8.192469e+01
4.100000e-07	-5.182043e-06	-1.236753e-09	-3.606358e+01	-8.175869e+01
4.200000e-07	-5.165076e-06	-1.280599e-09	-3.594550e+01	-8.158651e+01
4.300000e-07	-5.147806e-06	-1.261466e-09	-3.582531e+01	-8.140826e+01
4.400000e-07	-5.130203e-06	-1.207510e-09	-3.570281e+01	-8.122409e+01
4.500000e-07	-5.112305e-06	-1.277835e-09	-3.557825e+01	-8.103414e+01
4.600000e-07	-5.093925e-06	-1.286653e-09	-3.545034e+01	-8.083860e+01
4.700000e-07	-5.075016e-06	-1.198243e-09	-3.531875e+01	-8.063764e+01
4.800000e-07	-5.055772e-06	-1.212788e-09	-3.518482e+01	-8.043145e+01
4.900000e-07	-5.036325e-06	-1.300264e-09	-3.504948e+01	-8.022021e+01
5.000000e-07	-5.016719e-06	-1.232521e-09	-3.491303e+01	-8.000414e+01
5.100000e-07	-4.996862e-06	-1.190955e-09	-3.477484e+01	-7.978342e+01
5.200000e-07	-4.976717e-06	-1.268220e-09	-3.463465e+01	-7.955825e+01
5.300000e-07	-4.956290e-06	-1.254948e-09	-3.449249e+01	-7.932885e+01
5.400000e-07	-4.935449e-06	-1.182516e-09	-3.434745e+01	-7.909539e+01
5.500000e-07	-4.914249e-06	-1.236791e-09	-3.419991e+01	-7.885807e+01
5.600000e-07	-4.892795e-06	-1.255647e-09	-3.405061e+01	-7.861708e+01
5.700000e-07	-4.870984e-06	-1.174174e-09	-3.389882e+01	-7.837257e+01
5.800000e-07	-4.848794e-06	-1.200308e-09	-3.374439e+01	-7.812472e+01
5.900000e-07	-4.826252e-06	-1.259609e-09	-3.358751e+01	-7.787367e+01
6.000000e-07	-4.803341e-06	-1.196759e-09	-3.342807e+01	-7.761956e+01
6.100000e-07	-4.780138e-06	-1.167068e-09	-3.326659e+01	-7.736252e+01
6.200000e-07	-4.756666e-06	-1.219509e-09	-3.310324e+01	-7.710264e+01
6.300000e-07	-4.733012e-06	-1.189944e-09	-3.293862e+01	-7.684003e+01
6.400000e-07	-4.709079e-06	-1.155218e-09	-3.277207e+01	-7.657475e+01
6.500000e-07	-4.684712e-06	-1.192722e-09	-3.260249e+01	-7.630686e+01
6.600000e-07	-4.659826e-06	-1.193212e-09	-3.242930e+01	-7.603641e+01
6.700000e-07	-4.634436e-06	-1.148132e-09	-3.225260e+01	-7.576343e+01
6.800000e-07	-4.608571e-06	-1.168836e-09	-3.207260e+01	-7.548791e+01
6.900000e-07	-4.582198e-06	-1.175353e-09	-3.188906e+01	-7.520985e+01
7.000000e-07	-4.555385e-06	-1.144612e-09	-3.170246e+01	-7.492924e+01
7.100000e-07	-4.528173e-06	-1.140883e-09	-3.151308e+01	-7.464602e+01
7.200000e-07	-4.500710e-06	-1.160312e-09	-3.132196e+01	-7.436016e+01
7.300000e-07	-4.473041e-06	-1.141845e-09	-3.112940e+01	-7.407159e+01
7.400000e-07	-4.445260e-06	-1.131985e-09	-3.093606e+01	-7.378023e+01
7.500000e-07	-4.417275e-06	-1.130833e-09	-3.074130e+01	-7.348600e+01
7.600000e-07	-4.388953e-06	-1.117516e-09	-3.054420e+01	-7.318879e+01
7.700000e-07	-4.360282e-06	-1.100856e-09	-3.034467e+01	-7.288852e+01
7.800000e-07	-4.331232e-06	-1.104344e-09	-3.014250e+01	-7.258507e+01
7.900000e-07	-4.301908e-06	-1.098754e-09	-2.993842e+01	-7.227833e+01
8.000000e-07	-4.272402e-06	-1.094067e-09	-2.973309e+01	-7.196817e+01
8.100000e-07	-4.242659e-06	-1.094075e-09	-2.952609e+01	-7.165450e+01
8.200000e-07	-4.212578e-06	-1.086872e-09	-2.931675e+01	-7.133718e+01
8.300000e-07	-4.182172e-06	-1.070742e-09	-2.910514e+01	-7.101611e+01
8.400000e-07	-4.151433e-06	-1.068008e-09	-2.889122e+01	-7.069116e+01
8.500000e-07	-4.120407e-06	-1.066501e-09	-2.867530e+01	-7.036224e+01
8.600000e-07	-4.089137e-06	-1.054323e-09	-2.845768e+01	-7.002923e+01
8.700000e-07	-4.057687e-06	-1.046555e-09	-2.823881e+01	-6.969205e+01
8.800000e-07	-4.026122e-06	-1.045024e-09	-2.801913e+01	-6.935061e+01
8.900000e-07	-3.994371e-06	-1.036083e-09	-2.779817e+01	-6.900482e+01
9.000000e-07	-3.962386e-06	-1.023512e-09	-2.757558e+01	-6.865461e+01
9.100000e-07	-3.930152e-06	-1.023546e-09	-2.735125e+01	-6.829994e+01
9.200000e-07	-3.897509e-06	-1.018643e-09	-2.712408e+01	-6.794075e+01
9.300000e-07	-3.864379e-06	-1.010321e-09	-2.689351e+01	-6.757700e+01
9.400000e-07	-3.830866e-06	-1.007685e-09	-2.666029e+01	-6.720868e+01
9.500000e-07	-3.796817e-06	-1.007536e-09	-2.642333e+01	-6.683576e+01
9.600000e-07	-3.762242e-06	-9.911841e-10	-2.618271e+01	-6.645826e+01
9.700000e-07	-3.727397e-06	-9.773603e-10	-2.594021e+01	-6.607617e+01
9.800000e-07	-3.692286e-06	-9.701067e-10	-2.569586e+01	-6.568953e+01
9.900000e-07	-3.656952e-06	-9.641368e-10	-2.544996e+01	-6.529837e+01
1.000000e-06	-3.621516e-06	-9.553811e-10	-2.520334e+01	-6.490273e+01
1.010000e-06	-3.585926e-06	-9.562393e-10	-2.495566e+01	-6.450266e+01
1.020000e-06	-3.550178e-06	-9.537896e-10	-2.470688e+01	-6.409823e+01
1.030000e-06	-3.514272e-06	-9.456099e-10	-2.445700e+01	-6.368950e+01
1.040000e-06	-3.478145e-06	-9.354930e-10	-2.420558e+01	-6.327656e+01
1.050000e-06	-3.441733e-06	-9.281879e-10	-2.395218e+01	-6.285949e+01
1.060000e-06	-3.405012e-06	-9.143301e-10	-2.369662e+01	-6.243836e+01
1.070000e-06	-3.368050e-06	-9.057811e-10	-2.343939e+01	-6.201327e+01
1.080000e-06	-3.330809e-06	-9.028652e-10	-2.318022e+01	-6.158431e+01
1.090000e-06	-3.293249e-06	-8.973519e-10	-2.291883e+01	-6.115157e+01
1.100000e-06	-3.255520e-06	-8.885276e-10	-2.265626e+01	-6.071513e+01
1.110000e-06	-3.217652e-06	-8.838241e-10	-2.239272e+01	-6.027508e+01
1.120000e-06	-3.179567e-06	-8.770223e-10	-2.212767e+01	-5.983151e+01
1.130000e-06	-3.141106e-06	-8.666715e-10	-2.186001e+01	-5.938448e+01
1.140000e-06	-3.102418e-06	-8.574207e-10	-2.159077e+01	-5.893406e+01
1.150000e-06	-3.063626e-06	-8.482092e-10	-2.132080e+01	-5.848032e+01
1.160000e-06	-3.024609e-06	-8.381860e-10	-2.104927e+01	-5.802330e+01
1.170000e-06	-2.985429e-06	-8.295673e-10	-2.077661e+01	-5.756304e+01
1.180000e-06	-2.946125e-06	-8.258989e-10	-2.050307e+01	-5.709957e+01
1.190000e-06	-2.906749e-06	-8.215095e-10	-2.022904e+01	-5.663289e+01
1.200000e-06	-2.867232e-06	-8.137226e-10	-1.995403e+01	-5.616301e+01
1.210000e-06	-2.827546e-06	-8.054385e-10	-1.967785e+01	-5.568990e+01
1.220000e-06	-2.787710e-06	-7.997198e-10	-1.940061e+01	-5.521354e+01
1.230000e-06	-2.747707e-06	-7.918627e-10	-1.912222e+01	-5.473386e+01
1.240000e-06	-2.707506e-06	-7.847908e-10	-1.884245e+01	-5.425081e+01
1.250000e-06	-2.667038e-06	-7.770714e-10	-1.856082e+01	-5.376430e+01
1.260000e-06	-2.626271e-06	-7.682135e-10	-1.827711e+01	-5.327421e+01
1.270000e-06	-2.585242e-06	-7.565150e-10	-1.799157e+01	-5.278043e+01
1.280000e-06	-2.544064e-06	-7.468703e-10	-1.770500e+01	-5.228281e+01
1.290000e-06	-2.502648e-06	-7.377829e-10	-1.741677e+01	-5.178120e+01
1.300000e-06	-2.460886e-06	-7.296307e-10	-1.712613e+01	-5.127540e+01
1.310000e-06	-2.418764e-06	-7.203815e-10	-1.683299e+01	-5.076523e+01
1.320000e-06	-2.376269e-06	-7.114258e-10	-1.653725e+01	-5.025046e+01
1.330000e-06	-2.333486e-06	-7.021041e-10	-1.623951e+01	-4.973086e+01
1.340000e-06	-2.290491e-06	-6.930247e-10	-1.594030e+01	-4.920617e+01
1.350000e-06	-2.247367e-06	-6.842610e-10	-1.564018e+01	-4.867613e+01
1.360000e-06	-2.204110e-06	-6.744896e-10	-1.533914e+01	-4.814046e+01
1.370000e-06	-2.160659e-06	-6.614830e-10	-1.503675e+01	-4.759884e+01
1.380000e-06	-2.117035e-06	-6.538328e-10	-1.473316e+01	-4.705098e+01
1.390000e-06	-2.073353e-06	-6.478371e-10	-1.442916e+01	-4.649652e+01
1.400000e-06	-2.029628e-06	-6.394546e-10	-1.412486e+01	-4.593515e+01
1.410000e-06	-1.985828e-06	-6.292464e-10	-1.382005e+01	-4.536649e+01
1.420000e-06	-1.941999e-06	-6.192345e-10	-1.351502e+01	-4.479020e+01
1.430000e-06	-1.898116e-06	-6.096435e-10	-1.320963e+01	-4.420588e+01
1.440000e-06	-1.854150e-06	-6.012313e-10	-1.290366e+01	-4.361317e+01
1.450000e-06	-1.810092e-06	-5.937790e-10	-1.259704e+01	-4.301168e+01
1.460000e-06	-1.765873e-06	-5.846607e-10	-1.228930e+01	-4.240100e+01
1.470000e-06	-1.721502e-06	-5.721246e-10	-1.198051e+01	-4.178074e+01
1.480000e-06	-1.677037e-06	-5.580707e-10	-1.167107e+01	-4.115051e+01
1.490000e-06	-1.632452e-06	-5.449862e-10	-1.136078e+01	-4.050988e+01
1.500000e-06	-1.587752e-06	-5.356436e-10	-1.104970e+01	-3.985846e+01
1.510000e-06	-1.542843e-06	-5.291466e-10	-1.073716e+01	-3.919585e+01
1.520000e-06	-1.497724e-06	-5.209250e-10	-1.042317e+01	-3.852163e+01
1.530000e-06	-1.452599e-06	-5.122932e-10	-1.010912e+01	-3.783542e+01
1.540000e-06	-1.407418e-06	-5.004696e-10	-9.794694e+00	-3.713681e+01
1.550000e-06	-1.362057e-06	-4.859437e-10	-9.479013e+00	-3.642543e+01
1.560000e-06	-1.316603e-06	-4.705949e-10	-9.162686e+00	-3.570088e+01
1.570000e-06	-1.271115e-06	-4.551412e-10	-8.846118e+00	-3.496281e+01
1.580000e-06	-1.225563e-06	-4.414459e-10	-8.529107e+00	-3.421084e+01
1.590000e-06	-1.179944e-06	-4.321254e-10	-8.211628e+00	-3.344463e+01
1.600000e-06	-1.134276e-06	-4.235041e-10	-7.893806e+00	-3.266385e+01
1.610000e-06	-1.088539e-06	-4.139517e-10	-7.575507e+00	-3.186818e+01
1.620000e-06	-1.042666e-06	-4.029248e-10	-7.256263e+00	-3.105732e+01
1.630000e-06	-9.968045e-07	-3.929409e-10	-6.937098e+00	-3.023098e+01
1.640000e-06	-9.508412e-07	-3.824218e-10	-6.617224e+00	-2.938890e+01
1.650000e-06	-9.046546e-07	-3.698282e-10	-6.295796e+00	-2.853084e+01
1.660000e-06	-8.584070e-07	-3.539180e-10	-5.973943e+00	-2.765657e+01
1.670000e-06	-8.121911e-07	-3.363250e-10	-5.652311e+00	-2.676591e+01
1.680000e-06	-7.659539e-07	-3.192460e-10	-5.330531e+00	-2.585869e+01
1.690000e-06	-7.196932e-07	-3.050936e-10	-5.008587e+00	-2.493475e+01
1.700000e-06	-6.733610e-07	-2.935205e-10	-4.686146e+00	-2.399400e+01
1.710000e-06	-6.269214e-07	-2.842920e-10	-4.362957e+00	-2.303635e+01
1.720000e-06	-5.805068e-07	-2.731175e-10	-4.039942e+00	-2.206175e+01
1.730000e-06	-5.340641e-07	-2.579735e-10	-3.716732e+00	-2.107019e+01
1.740000e-06	-4.875349e-07	-2.391493e-10	-3.392919e+00	-2.006168e+01
1.750000e-06	-4.408625e-07	-2.196473e-10	-3.068111e+00	-1.903628e+01
1.760000e-06	-3.941847e-07	-2.004595e-10	-2.743264e+00	-1.799409e+01
1.770000e-06	-3.475213e-07	-1.856246e-10	-2.418517e+00	-1.693523e+01
1.780000e-06	-3.007638e-07	-1.742382e-10	-2.093116e+00	-1.585987e+01
1.790000e-06	-2.539431e-07	-1.619026e-10	-1.767275e+00	-1.476824e+01
1.800000e-06	-2.071427e-07	-1.486377e-10	-1.441576e+00	-1.366057e+01
1.810000e-06	-1.604312e-07	-1.318072e-10	-1.116494e+00	-1.253717e+01
1.820000e-06	-1.137893e-07	-1.153930e-10	-7.918981e-01	-1.139838e+01
1.830000e-06	-6.708676e-08	-1.018780e-10	-4.668793e-01	-1.024457e+01
1.840000e-06	-2.028024e-08	-9.057669e-11	-1.411370e-01	-9.076168e+00
1.850000e-06	2.653675e-08	-7.829330e-11	1.846782e-01	-7.893645e+00
1.860000e-06	7.337112e-08	-6.731462e-11	5.106143e-01	-6.697511e+00
1.870000e-06	1.202046e-07	-5.336633e-11	8.365445e-01	-5.488322e+00
1.880000e-06	1.670312e-07	-3.489936e-11	1.162426e+00	-4.266675e+00
1.890000e-06	2.138558e-07	-1.471383e-11	1.488294e+00	-3.033210e+00
1.900000e-06	2.606431e-07	6.008215e-12	1.813903e+00	-1.788607e+00
1.910000e-06	3.073319e-07	2.395916e-11	2.138826e+00	-5.335892e-01
1.920000e-06	3.539515e-07	3.863870e-11	2.463268e+00	7.310847e-01
1.930000e-06	4.005100e-07	5.208455e-11	2.787284e+00	2.004617e+00
1.940000e-06	4.470553e-07	6.784604e-11	3.111208e+00	3.286173e+00
1.950000e-06	4.936171e-07	8.753750e-11	3.435247e+00	4.574888e+00
1.960000e-06	5.401665e-07	1.072859e-10	3.759200e+00	5.869861e+00
1.970000e-06	5.866404e-07	1.273674e-10	4.082628e+00	7.170166e+00
1.980000e-06	6.330506e-07	1.461392e-10	4.405612e+00	8.474848e+00
1.990000e-06	6.794067e-07	1.648256e-10	4.728220e+00	9.782928e+00
2.000000e-06	7.256858e-07	1.811939e-10	5.050292e+00	1.109341e+01
2.010000e-06	7.720134e-07	1.975997e-10	5.372701e+00	1.240527e+01
2.020000e-06	8.183042e-07	2.168367e-10	5.694854e+00	1.371748e+01
2.030000e-06	8.644220e-07	2.363794e-10	6.015804e+00	1.502900e+01
2.040000e-06	9.103941e-07	2.557094e-10	6.335739e+00	1.633877e+01
2.050000e-06	9.563547e-07	2.743870e-10	6.655594e+00	1.764575e+01
2.060000e-06	1.002340e-06	2.926746e-10	6.975624e+00	1.894887e+01
2.070000e-06	1.048219e-06	3.109824e-10	7.294911e+00	2.024709e+01
2.080000e-06	1.093980e-06	3.311598e-10	7.613378e+00	2.153935e+01
2.090000e-06	1.139686e-06	3.520200e-10	7.931459e+00	2.282463e+01
2.100000e-06	1.185302e-06	3.728641e-10	8.248918e+00	2.410191e+01
2.110000e-06	1.230814e-06	3.918067e-10	8.565650e+00	2.537018e+01
2.120000e-06	1.276257e-06	4.072087e-10	8.881902e+00	2.662848e+01
2.130000e-06	1.321634e-06	4.192020e-10	9.197696e+00	2.787583e+01
2.140000e-06	1.366973e-06	4.336613e-10	9.513222e+00	2.911133e+01
2.150000e-06	1.412282e-06	4.516535e-10	9.828544e+00	3.033409e+01
2.160000e-06	1.457447e-06	4.704303e-10	1.014286e+01	3.154324e+01
2.170000e-06	1.502509e-06	4.892244e-10	1.045646e+01	3.273798e+01
2.180000e-06	1.547542e-06	5.111689e-10	1.076986e+01	3.391752e+01
2.190000e-06	1.592445e-06	5.308177e-10	1.108236e+01	3.508115e+01
2.200000e-06	1.637144e-06	5.453012e-10	1.139344e+01	3.622819e+01
2.210000e-06	1.681603e-06	5.574598e-10	1.170284e+01	3.735799e+01
2.220000e-06	1.725990e-06	5.691617e-10	1.201174e+01	3.846999e+01
2.230000e-06	1.770318e-06	5.819400e-10	1.232024e+01	3.956364e+01
2.240000e-06	1.814502e-06	5.953369e-10	1.262773e+01	4.063849e+01
2.250000e-06	1.858573e-06	6.116058e-10	1.293443e+01	4.169410e+01
2.260000e-06	1.902474e-06	6.273398e-10	1.323996e+01	4.273013e+01
2.270000e-06	1.946278e-06	6.428353e-10	1.354480e+01	4.374625e+01
2.280000e-06	1.990018e-06	6.615507e-10	1.384921e+01	4.474222e+01
2.290000e-06	2.033648e-06	6.786355e-10	1.415284e+01	4.571785e+01
2.300000e-06	2.077195e-06	6.920972e-10	1.445590e+01	4.667299e+01
2.310000e-06	2.120723e-06	7.039336e-10	1.475882e+01	4.760757e+01
2.320000e-06	2.164202e-06	7.169358e-10	1.506141e+01	4.852155e+01
2.330000e-06	2.207596e-06	7.279508e-10	1.536341e+01	4.941496e+01
2.340000e-06	2.250909e-06	7.364078e-10	1.566484e+01	5.028786e+01
2.350000e-06	2.294039e-06	7.481707e-10	1.596499e+01	5.114037e+01
2.360000e-06	2.336897e-06	7.648849e-10	1.626325e+01	5.197267e+01
2.370000e-06	2.379534e-06	7.806572e-10	1.655998e+01	5.278497e+01
2.380000e-06	2.421943e-06	7.927404e-10	1.685512e+01	5.357751e+01
2.390000e-06	2.464092e-06	8.024660e-10	1.714844e+01	5.435058e+01
2.400000e-06	2.506005e-06	8.106159e-10	1.744013e+01	5.510452e+01
2.410000e-06	2.547531e-06	8.178441e-10	1.772913e+01	5.583967e+01
2.420000e-06	2.588591e-06	8.254342e-10	1.801487e+01	5.655643e+01
2.430000e-06	2.629423e-06	8.360059e-10	1.829904e+01	5.725522e+01
2.440000e-06	2.670013e-06	8.471571e-10	1.858152e+01	5.793645e+01
2.450000e-06	2.710274e-06	8.570795e-10	1.886171e+01	5.860060e+01
2.460000e-06	2.750341e-06	8.658212e-10	1.914055e+01	5.924813e+01
2.470000e-06	2.790260e-06	8.745429e-10	1.941836e+01	5.987953e+01
2.480000e-06	2.830055e-06	8.841572e-10	1.969530e+01	6.049528e+01
2.490000e-06	2.869713e-06	8.949406e-10	1.997130e+01	6.109590e+01
2.500000e-06	2.909232e-06	9.045414e-10	2.024633e+01	6.168187e+01
2.510000e-06	2.948654e-06	9.127503e-10	2.052067e+01	6.225371e+01
2.520000e-06	2.987889e-06	9.199767e-10	2.079373e+01	6.281190e+01
2.530000e-06	3.026916e-06	9.254108e-10	2.106532e+01	6.335696e+01
2.540000e-06	3.065788e-06	9.287577e-10	2.133585e+01	6.388936e+01
2.550000e-06	3.104464e-06	9.324406e-10	2.160501e+01	6.440957e+01
2.560000e-06	3.142927e-06	9.396425e-10	2.187269e+01	6.491807e+01
2.570000e-06	3.181196e-06	9.497573e-10	2.213901e+01	6.541531e+01
2.580000e-06	3.219195e-06	9.595440e-10	2.240346e+01	6.590171e+01
2.590000e-06	3.256893e-06	9.681402e-10	2.266581e+01	6.637769e+01
2.600000e-06	3.294346e-06	9.731915e-10	2.292646e+01	6.684366e+01
2.610000e-06	3.331716e-06	9.758125e-10	2.318653e+01	6.729999e+01
2.620000e-06	3.368933e-06	9.782148e-10	2.344554e+01	6.774703e+01
2.630000e-06	3.405806e-06	9.804779e-10	2.370215e+01	6.818514e+01
2.640000e-06	3.442376e-06	9.856044e-10	2.395665e+01	6.861463e+01
2.650000e-06	3.478714e-06	9.939614e-10	2.420954e+01	6.903578e+01
2.660000e-06	3.514758e-06	1.001699e-09	2.446038e+01	6.944889e+01
2.670000e-06	3.550534e-06	1.006871e-09	2.470936e+01	6.985420e+01
2.680000e-06	3.586230e-06	1.012163e-09	2.495778e+01	7.025196e+01
2.690000e-06	3.621824e-06	1.017652e-09	2.520549e+01	7.064237e+01
2.700000e-06	3.657262e-06	1.022282e-09	2.545212e+01	7.102563e+01
2.710000e-06	3.692532e-06	1.028298e-09	2.569757e+01	7.140193e+01
2.720000e-06	3.727648e-06	1.035521e-09	2.594195e+01	7.177143e+01
2.730000e-06	3.762593e-06	1.040889e-09	2.618515e+01	7.213429e+01
2.740000e-06	3.797187e-06	1.045471e-09	2.642590e+01	7.249063e+01
2.750000e-06	3.831229e-06	1.048597e-09	2.666281e+01	7.284057e+01
2.760000e-06	3.864848e-06	1.049089e-09	2.689678e+01	7.318424e+01
2.770000e-06	3.898040e-06	1.051564e-09	2.712777e+01	7.352173e+01
2.780000e-06	3.930674e-06	1.059011e-09	2.735489e+01	7.385314e+01
2.790000e-06	3.962905e-06	1.069357e-09	2.757919e+01	7.417855e+01
2.800000e-06	3.994871e-06	1.078508e-09	2.780165e+01	7.449804e+01
2.810000e-06	4.026625e-06	1.084368e-09	2.802263e+01	7.481168e+01
2.820000e-06	4.058206e-06	1.087901e-09	2.824242e+01	7.511956e+01
2.830000e-06	4.089613e-06	1.088003e-09	2.846099e+01	7.542173e+01
2.840000e-06	4.120807e-06	1.087304e-09	2.867808e+01	7.571827e+01
2.850000e-06	4.151819e-06	1.091053e-09	2.889390e+01	7.600924e+01
2.860000e-06	4.182556e-06	1.100528e-09	2.910782e+01	7.629471e+01
2.870000e-06	4.212903e-06	1.109315e-09	2.931901e+01	7.657474e+01
2.880000e-06	4.242829e-06	1.114846e-09	2.952728e+01	7.684942e+01
2.890000e-06	4.272421e-06	1.121023e-09	2.973322e+01	7.711879e+01
2.900000e-06	4.301891e-06	1.128233e-09	2.993830e+01	7.738295e+01
2.910000e-06	4.331132e-06	1.133823e-09	3.014180e+01	7.764196e+01
