# Temperatura_=_-2.2
# Concentracion g/m^3_=_1620.0
# C_Vs_to_Am_M_A/Vsm_=_65563218390.804596
# pendiente_HvsI_1/m_=_3716.3
# ordenada_HvsI_A/m_=_1297.0
# frecuencia_Hz_=_135106.36269422984

Tiempo_(s)	Campo_(V.s)	Magnetizacion_(V.s)	Campo_(kA/m)	Magnetizacion_(A/m)
0.000000e+00	-5.510984e-06	-8.445266e-10	-3.836467e+01	-5.810158e+01
1.000000e-08	-5.511144e-06	-8.451836e-10	-3.836578e+01	-5.809067e+01
2.000000e-08	-5.510982e-06	-8.472584e-10	-3.836465e+01	-5.808196e+01
3.000000e-08	-5.510251e-06	-8.449235e-10	-3.835956e+01	-5.807519e+01
4.000000e-08	-5.508950e-06	-8.348816e-10	-3.835051e+01	-5.807012e+01
5.000000e-08	-5.507111e-06	-8.190392e-10	-3.833771e+01	-5.806648e+01
6.000000e-08	-5.504657e-06	-8.187944e-10	-3.832063e+01	-5.806396e+01
7.000000e-08	-5.501806e-06	-8.609174e-10	-3.830077e+01	-5.806228e+01
8.000000e-08	-5.498490e-06	-8.998482e-10	-3.827769e+01	-5.806110e+01
9.000000e-08	-5.494677e-06	-8.986416e-10	-3.825115e+01	-5.806011e+01
1.000000e-07	-5.490534e-06	-8.892104e-10	-3.822231e+01	-5.805898e+01
1.100000e-07	-5.486118e-06	-8.325273e-10	-3.819156e+01	-5.805736e+01
1.200000e-07	-5.481454e-06	-8.088671e-10	-3.815910e+01	-5.805492e+01
1.300000e-07	-5.476492e-06	-8.192925e-10	-3.812455e+01	-5.805133e+01
1.400000e-07	-5.471164e-06	-8.505935e-10	-3.808746e+01	-5.804625e+01
1.500000e-07	-5.465409e-06	-8.405511e-10	-3.804740e+01	-5.803936e+01
1.600000e-07	-5.459207e-06	-8.089038e-10	-3.800423e+01	-5.803035e+01
1.700000e-07	-5.452610e-06	-8.744776e-10	-3.795830e+01	-5.801891e+01
1.800000e-07	-5.445710e-06	-9.023886e-10	-3.791027e+01	-5.800476e+01
1.900000e-07	-5.438433e-06	-8.748921e-10	-3.785960e+01	-5.798761e+01
2.000000e-07	-5.430766e-06	-8.002199e-10	-3.780623e+01	-5.796722e+01
2.100000e-07	-5.422922e-06	-8.457975e-10	-3.775162e+01	-5.794334e+01
2.200000e-07	-5.414851e-06	-8.903986e-10	-3.769544e+01	-5.791576e+01
2.300000e-07	-5.406412e-06	-9.002484e-10	-3.763669e+01	-5.788428e+01
2.400000e-07	-5.397385e-06	-8.647484e-10	-3.757385e+01	-5.784874e+01
2.500000e-07	-5.387628e-06	-8.846772e-10	-3.750592e+01	-5.780897e+01
2.600000e-07	-5.377217e-06	-8.756561e-10	-3.743345e+01	-5.776486e+01
2.700000e-07	-5.366276e-06	-8.575882e-10	-3.735729e+01	-5.771631e+01
2.800000e-07	-5.354974e-06	-8.636696e-10	-3.727860e+01	-5.766324e+01
2.900000e-07	-5.343337e-06	-8.921324e-10	-3.719760e+01	-5.760560e+01
3.000000e-07	-5.331307e-06	-8.811757e-10	-3.711385e+01	-5.754337e+01
3.100000e-07	-5.318894e-06	-8.531804e-10	-3.702744e+01	-5.747654e+01
3.200000e-07	-5.306059e-06	-8.776456e-10	-3.693808e+01	-5.740513e+01
3.300000e-07	-5.292754e-06	-8.715030e-10	-3.684546e+01	-5.732919e+01
3.400000e-07	-5.279067e-06	-8.595379e-10	-3.675018e+01	-5.724879e+01
3.500000e-07	-5.265052e-06	-8.561414e-10	-3.665262e+01	-5.716400e+01
3.600000e-07	-5.250570e-06	-8.744027e-10	-3.655180e+01	-5.707494e+01
3.700000e-07	-5.235555e-06	-8.626287e-10	-3.644727e+01	-5.698171e+01
3.800000e-07	-5.219984e-06	-8.834973e-10	-3.633888e+01	-5.688447e+01
3.900000e-07	-5.203848e-06	-8.755248e-10	-3.622655e+01	-5.678335e+01
4.000000e-07	-5.187316e-06	-8.452774e-10	-3.611146e+01	-5.667852e+01
4.100000e-07	-5.170435e-06	-8.454968e-10	-3.599394e+01	-5.657016e+01
4.200000e-07	-5.153316e-06	-8.856505e-10	-3.587477e+01	-5.645845e+01
4.300000e-07	-5.135979e-06	-8.485808e-10	-3.575408e+01	-5.634357e+01
4.400000e-07	-5.118253e-06	-8.459513e-10	-3.563068e+01	-5.622573e+01
4.500000e-07	-5.100006e-06	-8.878860e-10	-3.550365e+01	-5.610511e+01
4.600000e-07	-5.081332e-06	-8.744578e-10	-3.537365e+01	-5.598192e+01
4.700000e-07	-5.062286e-06	-8.130879e-10	-3.524106e+01	-5.585635e+01
4.800000e-07	-5.042920e-06	-8.667908e-10	-3.510624e+01	-5.572861e+01
4.900000e-07	-5.023397e-06	-8.910688e-10	-3.497034e+01	-5.559888e+01
5.000000e-07	-5.003667e-06	-8.312779e-10	-3.483299e+01	-5.546735e+01
5.100000e-07	-4.983590e-06	-8.260087e-10	-3.469322e+01	-5.533421e+01
5.200000e-07	-4.963226e-06	-8.839314e-10	-3.455146e+01	-5.519963e+01
5.300000e-07	-4.942542e-06	-8.503206e-10	-3.440747e+01	-5.506378e+01
5.400000e-07	-4.921462e-06	-8.289341e-10	-3.426072e+01	-5.492680e+01
5.500000e-07	-4.900036e-06	-8.653433e-10	-3.411156e+01	-5.478885e+01
5.600000e-07	-4.878296e-06	-8.455668e-10	-3.396021e+01	-5.465006e+01
5.700000e-07	-4.856195e-06	-8.059958e-10	-3.380636e+01	-5.451054e+01
5.800000e-07	-4.833731e-06	-8.468407e-10	-3.364998e+01	-5.437042e+01
5.900000e-07	-4.810901e-06	-8.552721e-10	-3.349104e+01	-5.422977e+01
6.000000e-07	-4.787705e-06	-8.075139e-10	-3.332957e+01	-5.408869e+01
6.100000e-07	-4.764299e-06	-8.196928e-10	-3.316663e+01	-5.394724e+01
6.200000e-07	-4.740734e-06	-8.413519e-10	-3.300258e+01	-5.380548e+01
6.300000e-07	-4.716931e-06	-8.134598e-10	-3.283687e+01	-5.366345e+01
6.400000e-07	-4.692832e-06	-8.101196e-10	-3.266911e+01	-5.352118e+01
6.500000e-07	-4.668352e-06	-8.394980e-10	-3.249869e+01	-5.337868e+01
6.600000e-07	-4.643411e-06	-8.165115e-10	-3.232506e+01	-5.323595e+01
6.700000e-07	-4.617941e-06	-8.056693e-10	-3.214776e+01	-5.309299e+01
6.800000e-07	-4.591882e-06	-8.218301e-10	-3.196635e+01	-5.294978e+01
6.900000e-07	-4.565289e-06	-8.217757e-10	-3.178122e+01	-5.280628e+01
7.000000e-07	-4.538334e-06	-8.014689e-10	-3.159357e+01	-5.266245e+01
7.100000e-07	-4.511052e-06	-8.142701e-10	-3.140365e+01	-5.251824e+01
7.200000e-07	-4.483476e-06	-8.159124e-10	-3.121168e+01	-5.237360e+01
7.300000e-07	-4.455736e-06	-8.082392e-10	-3.101857e+01	-5.222844e+01
7.400000e-07	-4.427810e-06	-8.032314e-10	-3.082416e+01	-5.208271e+01
7.500000e-07	-4.399592e-06	-8.046861e-10	-3.062772e+01	-5.193631e+01
7.600000e-07	-4.371055e-06	-7.904770e-10	-3.042906e+01	-5.178915e+01
7.700000e-07	-4.342272e-06	-7.907595e-10	-3.022869e+01	-5.164115e+01
7.800000e-07	-4.313247e-06	-7.947923e-10	-3.002664e+01	-5.149220e+01
7.900000e-07	-4.283922e-06	-7.977872e-10	-2.982248e+01	-5.134221e+01
8.000000e-07	-4.254278e-06	-7.926915e-10	-2.961612e+01	-5.119106e+01
8.100000e-07	-4.224321e-06	-7.933412e-10	-2.940757e+01	-5.103866e+01
8.200000e-07	-4.194036e-06	-7.856254e-10	-2.919674e+01	-5.088488e+01
8.300000e-07	-4.163498e-06	-7.784605e-10	-2.898415e+01	-5.072963e+01
8.400000e-07	-4.132736e-06	-7.742682e-10	-2.877000e+01	-5.057278e+01
8.500000e-07	-4.101720e-06	-7.716650e-10	-2.855409e+01	-5.041423e+01
8.600000e-07	-4.070451e-06	-7.688086e-10	-2.833641e+01	-5.025386e+01
8.700000e-07	-4.038946e-06	-7.708170e-10	-2.811709e+01	-5.009155e+01
8.800000e-07	-4.007274e-06	-7.767484e-10	-2.789660e+01	-4.992720e+01
8.900000e-07	-3.975432e-06	-7.757836e-10	-2.767493e+01	-4.976070e+01
9.000000e-07	-3.943317e-06	-7.702622e-10	-2.745137e+01	-4.959193e+01
9.100000e-07	-3.910858e-06	-7.640265e-10	-2.722541e+01	-4.942078e+01
9.200000e-07	-3.877974e-06	-7.583204e-10	-2.699648e+01	-4.924715e+01
9.300000e-07	-3.844690e-06	-7.522813e-10	-2.676478e+01	-4.907092e+01
9.400000e-07	-3.811000e-06	-7.544835e-10	-2.653024e+01	-4.889199e+01
9.500000e-07	-3.776815e-06	-7.540055e-10	-2.629226e+01	-4.871027e+01
9.600000e-07	-3.742147e-06	-7.496765e-10	-2.605092e+01	-4.852564e+01
9.700000e-07	-3.707062e-06	-7.432120e-10	-2.580668e+01	-4.833800e+01
9.800000e-07	-3.671704e-06	-7.439433e-10	-2.556054e+01	-4.814726e+01
9.900000e-07	-3.636201e-06	-7.388717e-10	-2.531338e+01	-4.795332e+01
1.000000e-06	-3.600611e-06	-7.349913e-10	-2.506562e+01	-4.775608e+01
1.010000e-06	-3.564906e-06	-7.327237e-10	-2.481706e+01	-4.755546e+01
1.020000e-06	-3.529016e-06	-7.342374e-10	-2.456721e+01	-4.735136e+01
1.030000e-06	-3.492947e-06	-7.269691e-10	-2.431612e+01	-4.714369e+01
1.040000e-06	-3.456621e-06	-7.217525e-10	-2.406324e+01	-4.693237e+01
1.050000e-06	-3.420043e-06	-7.150724e-10	-2.380860e+01	-4.671731e+01
1.060000e-06	-3.383266e-06	-7.088361e-10	-2.355258e+01	-4.649844e+01
1.070000e-06	-3.346219e-06	-7.034279e-10	-2.329467e+01	-4.627567e+01
1.080000e-06	-3.308902e-06	-7.043929e-10	-2.303490e+01	-4.604892e+01
1.090000e-06	-3.271375e-06	-7.027429e-10	-2.277365e+01	-4.581813e+01
1.100000e-06	-3.233688e-06	-6.993474e-10	-2.251129e+01	-4.558322e+01
1.110000e-06	-3.195701e-06	-6.950490e-10	-2.224685e+01	-4.534412e+01
1.120000e-06	-3.157422e-06	-6.905534e-10	-2.198036e+01	-4.510077e+01
1.130000e-06	-3.119028e-06	-6.837796e-10	-2.171309e+01	-4.485311e+01
1.140000e-06	-3.080458e-06	-6.773579e-10	-2.144458e+01	-4.460107e+01
1.150000e-06	-3.041642e-06	-6.706214e-10	-2.117436e+01	-4.434459e+01
1.160000e-06	-3.002564e-06	-6.649733e-10	-2.090232e+01	-4.408363e+01
1.170000e-06	-2.963297e-06	-6.613274e-10	-2.062897e+01	-4.381812e+01
1.180000e-06	-2.923954e-06	-6.590167e-10	-2.035508e+01	-4.354803e+01
1.190000e-06	-2.884492e-06	-6.547644e-10	-2.008037e+01	-4.327329e+01
1.200000e-06	-2.844867e-06	-6.473138e-10	-1.980452e+01	-4.299387e+01
1.210000e-06	-2.805110e-06	-6.426417e-10	-1.952775e+01	-4.270973e+01
1.220000e-06	-2.765263e-06	-6.366224e-10	-1.925035e+01	-4.242081e+01
1.230000e-06	-2.725223e-06	-6.301781e-10	-1.897161e+01	-4.212707e+01
1.240000e-06	-2.684938e-06	-6.229825e-10	-1.869117e+01	-4.182848e+01
1.250000e-06	-2.644445e-06	-6.185596e-10	-1.840928e+01	-4.152499e+01
1.260000e-06	-2.603707e-06	-6.127950e-10	-1.812568e+01	-4.121656e+01
1.270000e-06	-2.562607e-06	-6.077493e-10	-1.783956e+01	-4.090315e+01
1.280000e-06	-2.521147e-06	-6.048428e-10	-1.755094e+01	-4.058470e+01
1.290000e-06	-2.479440e-06	-6.021803e-10	-1.726060e+01	-4.026118e+01
1.300000e-06	-2.437508e-06	-5.962047e-10	-1.696869e+01	-3.993252e+01
1.310000e-06	-2.395386e-06	-5.890755e-10	-1.667546e+01	-3.959867e+01
1.320000e-06	-2.352994e-06	-5.807489e-10	-1.638035e+01	-3.925956e+01
1.330000e-06	-2.310256e-06	-5.739211e-10	-1.608283e+01	-3.891514e+01
1.340000e-06	-2.267171e-06	-5.680123e-10	-1.578289e+01	-3.856531e+01
1.350000e-06	-2.223836e-06	-5.660130e-10	-1.548121e+01	-3.821000e+01
1.360000e-06	-2.180388e-06	-5.614139e-10	-1.517875e+01	-3.784911e+01
1.370000e-06	-2.136841e-06	-5.568230e-10	-1.487560e+01	-3.748254e+01
1.380000e-06	-2.093234e-06	-5.543678e-10	-1.457203e+01	-3.711018e+01
1.390000e-06	-2.049581e-06	-5.511529e-10	-1.426814e+01	-3.673189e+01
1.400000e-06	-2.005827e-06	-5.447890e-10	-1.396355e+01	-3.634753e+01
1.410000e-06	-1.962023e-06	-5.388913e-10	-1.365861e+01	-3.595696e+01
1.420000e-06	-1.918226e-06	-5.329063e-10	-1.335371e+01	-3.556001e+01
1.430000e-06	-1.874286e-06	-5.249099e-10	-1.304783e+01	-3.515650e+01
1.440000e-06	-1.830153e-06	-5.163936e-10	-1.274060e+01	-3.474622e+01
1.450000e-06	-1.785887e-06	-5.096273e-10	-1.243244e+01	-3.432897e+01
1.460000e-06	-1.741502e-06	-5.022011e-10	-1.212345e+01	-3.390452e+01
1.470000e-06	-1.697031e-06	-4.935668e-10	-1.181387e+01	-3.347263e+01
1.480000e-06	-1.652399e-06	-4.848208e-10	-1.150316e+01	-3.303303e+01
1.490000e-06	-1.607615e-06	-4.791519e-10	-1.119140e+01	-3.258546e+01
1.500000e-06	-1.562721e-06	-4.754930e-10	-1.087887e+01	-3.212962e+01
1.510000e-06	-1.517644e-06	-4.698823e-10	-1.056507e+01	-3.166522e+01
1.520000e-06	-1.472501e-06	-4.604095e-10	-1.025080e+01	-3.119192e+01
1.530000e-06	-1.427354e-06	-4.480272e-10	-9.936510e+00	-3.070942e+01
1.540000e-06	-1.382062e-06	-4.370497e-10	-9.621211e+00	-3.021736e+01
1.550000e-06	-1.336603e-06	-4.269262e-10	-9.304750e+00	-2.971539e+01
1.560000e-06	-1.291040e-06	-4.179423e-10	-8.987565e+00	-2.920316e+01
1.570000e-06	-1.245511e-06	-4.103204e-10	-8.670611e+00	-2.868029e+01
1.580000e-06	-1.200016e-06	-4.061076e-10	-8.353903e+00	-2.814643e+01
1.590000e-06	-1.154326e-06	-4.012194e-10	-8.035833e+00	-2.760118e+01
1.600000e-06	-1.108444e-06	-3.916143e-10	-7.716423e+00	-2.704419e+01
1.610000e-06	-1.062519e-06	-3.787484e-10	-7.396715e+00	-2.647507e+01
1.620000e-06	-1.016449e-06	-3.662466e-10	-7.076003e+00	-2.589346e+01
1.630000e-06	-9.703332e-07	-3.557337e-10	-6.754966e+00	-2.529900e+01
1.640000e-06	-9.243128e-07	-3.465577e-10	-6.434596e+00	-2.469133e+01
1.650000e-06	-8.782491e-07	-3.363910e-10	-6.113924e+00	-2.407011e+01
1.660000e-06	-8.320250e-07	-3.266340e-10	-5.792135e+00	-2.343502e+01
1.670000e-06	-7.856754e-07	-3.153268e-10	-5.469473e+00	-2.278575e+01
1.680000e-06	-7.392833e-07	-3.040888e-10	-5.146514e+00	-2.212202e+01
1.690000e-06	-6.928725e-07	-2.929523e-10	-4.823426e+00	-2.144356e+01
1.700000e-06	-6.464238e-07	-2.819534e-10	-4.500074e+00	-2.075015e+01
1.710000e-06	-5.999470e-07	-2.709683e-10	-4.176526e+00	-2.004156e+01
1.720000e-06	-5.534502e-07	-2.591348e-10	-3.852839e+00	-1.931764e+01
1.730000e-06	-5.068317e-07	-2.434237e-10	-3.528305e+00	-1.857824e+01
1.740000e-06	-4.601693e-07	-2.293600e-10	-3.203465e+00	-1.782326e+01
1.750000e-06	-4.135443e-07	-2.183060e-10	-2.878885e+00	-1.705263e+01
1.760000e-06	-3.669342e-07	-2.063989e-10	-2.554409e+00	-1.626635e+01
1.770000e-06	-3.202899e-07	-1.965971e-10	-2.229695e+00	-1.546443e+01
1.780000e-06	-2.734840e-07	-1.881564e-10	-1.903856e+00	-1.464695e+01
1.790000e-06	-2.266654e-07	-1.762981e-10	-1.577930e+00	-1.381402e+01
1.800000e-06	-1.799488e-07	-1.621012e-10	-1.252712e+00	-1.296580e+01
1.810000e-06	-1.331612e-07	-1.491417e-10	-9.270005e-01	-1.210251e+01
1.820000e-06	-8.624575e-08	-1.372879e-10	-6.003991e-01	-1.122442e+01
1.830000e-06	-3.938308e-08	-1.275585e-10	-2.741649e-01	-1.033184e+01
1.840000e-06	7.354462e-09	-1.191333e-10	5.119802e-02	-9.425127e+00
1.850000e-06	5.403475e-08	-1.097133e-10	3.761625e-01	-8.504708e+00
1.860000e-06	1.007090e-07	-9.716304e-11	7.010851e-01	-7.571044e+00
1.870000e-06	1.474357e-07	-8.231664e-11	1.026372e+00	-6.624649e+00
1.880000e-06	1.942077e-07	-6.576005e-11	1.351975e+00	-5.666084e+00
1.890000e-06	2.410229e-07	-4.937118e-11	1.677879e+00	-4.695955e+00
1.900000e-06	2.877688e-07	-3.576683e-11	2.003300e+00	-3.714914e+00
1.910000e-06	3.343595e-07	-2.659143e-11	2.327641e+00	-2.723655e+00
1.920000e-06	3.809844e-07	-1.729485e-11	2.652219e+00	-1.722912e+00
1.930000e-06	4.277070e-07	-5.170733e-12	2.977479e+00	-7.134532e-01
1.940000e-06	4.743571e-07	9.209693e-12	3.302233e+00	3.039153e-01
1.950000e-06	5.209474e-07	2.522691e-11	3.626571e+00	1.328358e+00
1.960000e-06	5.674582e-07	4.303723e-11	3.950356e+00	2.359012e+00
1.970000e-06	6.138164e-07	5.971620e-11	4.273078e+00	3.394990e+00
1.980000e-06	6.600997e-07	7.367017e-11	4.595279e+00	4.435383e+00
1.990000e-06	7.063268e-07	8.397027e-11	4.917088e+00	5.479267e+00
2.000000e-06	7.524720e-07	9.353927e-11	5.238327e+00	6.525704e+00
2.010000e-06	7.986830e-07	1.071690e-10	5.560025e+00	7.573748e+00
2.020000e-06	8.449957e-07	1.253296e-10	5.882430e+00	8.622446e+00
2.030000e-06	8.911495e-07	1.455225e-10	6.203730e+00	9.670848e+00
2.040000e-06	9.371819e-07	1.632616e-10	6.524184e+00	1.071800e+01
2.050000e-06	9.831627e-07	1.783629e-10	6.844279e+00	1.176297e+01
2.060000e-06	1.029042e-06	1.903709e-10	7.163667e+00	1.280482e+01
2.070000e-06	1.074899e-06	2.018933e-10	7.482902e+00	1.384264e+01
2.080000e-06	1.120676e-06	2.147847e-10	7.801578e+00	1.487553e+01
2.090000e-06	1.166329e-06	2.303514e-10	8.119392e+00	1.590260e+01
2.100000e-06	1.211963e-06	2.482205e-10	8.437074e+00	1.692303e+01
2.110000e-06	1.257582e-06	2.660198e-10	8.754644e+00	1.793597e+01
2.120000e-06	1.303099e-06	2.821912e-10	9.071513e+00	1.894065e+01
2.130000e-06	1.348527e-06	2.955903e-10	9.387762e+00	1.993629e+01
2.140000e-06	1.393855e-06	3.077849e-10	9.703312e+00	2.092220e+01
2.150000e-06	1.439033e-06	3.195313e-10	1.001782e+01	2.189767e+01
2.160000e-06	1.484048e-06	3.308765e-10	1.033119e+01	2.286207e+01
2.170000e-06	1.528961e-06	3.429592e-10	1.064385e+01	2.381481e+01
2.180000e-06	1.573741e-06	3.565471e-10	1.095558e+01	2.475531e+01
2.190000e-06	1.618331e-06	3.695393e-10	1.126600e+01	2.568306e+01
2.200000e-06	1.662789e-06	3.821752e-10	1.157549e+01	2.659760e+01
2.210000e-06	1.707163e-06	3.957841e-10	1.188440e+01	2.749850e+01
2.220000e-06	1.751450e-06	4.089566e-10	1.219271e+01	2.838537e+01
2.230000e-06	1.795593e-06	4.221715e-10	1.250000e+01	2.925788e+01
2.240000e-06	1.839583e-06	4.335605e-10	1.280624e+01	3.011573e+01
2.250000e-06	1.883482e-06	4.431531e-10	1.311184e+01	3.095867e+01
2.260000e-06	1.927328e-06	4.533790e-10	1.341708e+01	3.178648e+01
2.270000e-06	1.971125e-06	4.686682e-10	1.372197e+01	3.259900e+01
2.280000e-06	2.014832e-06	4.845250e-10	1.402624e+01	3.339608e+01
2.290000e-06	2.058478e-06	4.972499e-10	1.433008e+01	3.417764e+01
2.300000e-06	2.102085e-06	5.065492e-10	1.463365e+01	3.494361e+01
2.310000e-06	2.145630e-06	5.143784e-10	1.493679e+01	3.569396e+01
2.320000e-06	2.189083e-06	5.232848e-10	1.523928e+01	3.642869e+01
2.330000e-06	2.232388e-06	5.330490e-10	1.554075e+01	3.714783e+01
2.340000e-06	2.275570e-06	5.455824e-10	1.584136e+01	3.785143e+01
2.350000e-06	2.318580e-06	5.606274e-10	1.614078e+01	3.853957e+01
2.360000e-06	2.361274e-06	5.753989e-10	1.643799e+01	3.921234e+01
2.370000e-06	2.403758e-06	5.862341e-10	1.673374e+01	3.986987e+01
2.380000e-06	2.446061e-06	5.951922e-10	1.702823e+01	4.051228e+01
2.390000e-06	2.487995e-06	6.030980e-10	1.732016e+01	4.113973e+01
2.400000e-06	2.529554e-06	6.100335e-10	1.760947e+01	4.175237e+01
2.410000e-06	2.570726e-06	6.168729e-10	1.789609e+01	4.235036e+01
2.420000e-06	2.611581e-06	6.256579e-10	1.818050e+01	4.293389e+01
2.430000e-06	2.652145e-06	6.353462e-10	1.846288e+01	4.350313e+01
2.440000e-06	2.692439e-06	6.449857e-10	1.874339e+01	4.405827e+01
2.450000e-06	2.732553e-06	6.557554e-10	1.902265e+01	4.459950e+01
2.460000e-06	2.772441e-06	6.667450e-10	1.930032e+01	4.512700e+01
2.470000e-06	2.812194e-06	6.751982e-10	1.957706e+01	4.564097e+01
2.480000e-06	2.851871e-06	6.821868e-10	1.985328e+01	4.614158e+01
2.490000e-06	2.891426e-06	6.867814e-10	2.012864e+01	4.662904e+01
2.500000e-06	2.930855e-06	6.899585e-10	2.040312e+01	4.710352e+01
2.510000e-06	2.970164e-06	6.952949e-10	2.067677e+01	4.756519e+01
2.520000e-06	3.009324e-06	7.035800e-10	2.094939e+01	4.801425e+01
2.530000e-06	3.048299e-06	7.131946e-10	2.122071e+01	4.845086e+01
2.540000e-06	3.087143e-06	7.215917e-10	2.149112e+01	4.887520e+01
2.550000e-06	3.125761e-06	7.284026e-10	2.175996e+01	4.928743e+01
2.560000e-06	3.164023e-06	7.342645e-10	2.202632e+01	4.968772e+01
2.570000e-06	3.202002e-06	7.381395e-10	2.229071e+01	5.007623e+01
2.580000e-06	3.239750e-06	7.398326e-10	2.255349e+01	5.045314e+01
2.590000e-06	3.277331e-06	7.422456e-10	2.281511e+01	5.081859e+01
2.600000e-06	3.314774e-06	7.471315e-10	2.307577e+01	5.117277e+01
2.610000e-06	3.351951e-06	7.518337e-10	2.333458e+01	5.151582e+01
2.620000e-06	3.388814e-06	7.548021e-10	2.359120e+01	5.184793e+01
2.630000e-06	3.425440e-06	7.582824e-10	2.384617e+01	5.216925e+01
2.640000e-06	3.461893e-06	7.639431e-10	2.409994e+01	5.247996e+01
2.650000e-06	3.498157e-06	7.697504e-10	2.435239e+01	5.278025e+01
2.660000e-06	3.534160e-06	7.729634e-10	2.460302e+01	5.307029e+01
2.670000e-06	3.569941e-06	7.748934e-10	2.485211e+01	5.335028e+01
2.680000e-06	3.605627e-06	7.768611e-10	2.510054e+01	5.362042e+01
2.690000e-06	3.641231e-06	7.802157e-10	2.534840e+01	5.388091e+01
2.700000e-06	3.676642e-06	7.849008e-10	2.559491e+01	5.413197e+01
2.710000e-06	3.711861e-06	7.897469e-10	2.584009e+01	5.437382e+01
2.720000e-06	3.746880e-06	7.940009e-10	2.608388e+01	5.460670e+01
2.730000e-06	3.781506e-06	7.984998e-10	2.632492e+01	5.483083e+01
2.740000e-06	3.815604e-06	8.015551e-10	2.656229e+01	5.504648e+01
2.750000e-06	3.849186e-06	8.015987e-10	2.679608e+01	5.525391e+01
2.760000e-06	3.882342e-06	8.023233e-10	2.702689e+01	5.545337e+01
2.770000e-06	3.915152e-06	8.069141e-10	2.725529e+01	5.564515e+01
2.780000e-06	3.947585e-06	8.125620e-10	2.748108e+01	5.582952e+01
2.790000e-06	3.979680e-06	8.176978e-10	2.770451e+01	5.600677e+01
2.800000e-06	4.011550e-06	8.237343e-10	2.792637e+01	5.617720e+01
2.810000e-06	4.043270e-06	8.289494e-10	2.814719e+01	5.634110e+01
2.820000e-06	4.074834e-06	8.317656e-10	2.836692e+01	5.649877e+01
2.830000e-06	4.106205e-06	8.334815e-10	2.858531e+01	5.665050e+01
2.840000e-06	4.137390e-06	8.352424e-10	2.880241e+01	5.679661e+01
2.850000e-06	4.168285e-06	8.378103e-10	2.901748e+01	5.693739e+01
2.860000e-06	4.198750e-06	8.407139e-10	2.922957e+01	5.707312e+01
2.870000e-06	4.228854e-06	8.440859e-10	2.943913e+01	5.720411e+01
2.880000e-06	4.258684e-06	8.475770e-10	2.964679e+01	5.733063e+01
2.890000e-06	4.288253e-06	8.517604e-10	2.985263e+01	5.745296e+01
2.900000e-06	4.317576e-06	8.562769e-10	3.005677e+01	5.757136e+01
