# Temperatura_=_-1.0
# Concentracion g/m^3_=_1620.0
# C_Vs_to_Am_M_A/Vsm_=_65563218390.804596
# pendiente_HvsI_1/m_=_3716.3
# ordenada_HvsI_A/m_=_1297.0
# frecuencia_Hz_=_135103.30902111705

Tiempo_(s)	Campo_(V.s)	Magnetizacion_(V.s)	Campo_(kA/m)	Magnetizacion_(A/m)
0.000000e+00	-5.518460e-06	-1.128579e-09	-3.837966e+01	-7.517443e+01
1.000000e-08	-5.518692e-06	-1.125062e-09	-3.838128e+01	-7.512936e+01
2.000000e-08	-5.518677e-06	-1.123163e-09	-3.838117e+01	-7.508333e+01
3.000000e-08	-5.518412e-06	-1.125072e-09	-3.837933e+01	-7.503614e+01
4.000000e-08	-5.517726e-06	-1.127465e-09	-3.837456e+01	-7.498760e+01
5.000000e-08	-5.516489e-06	-1.120559e-09	-3.836596e+01	-7.493750e+01
6.000000e-08	-5.514678e-06	-1.102714e-09	-3.835336e+01	-7.488565e+01
7.000000e-08	-5.512271e-06	-1.086334e-09	-3.833662e+01	-7.483183e+01
8.000000e-08	-5.509265e-06	-1.116618e-09	-3.831571e+01	-7.477585e+01
9.000000e-08	-5.505746e-06	-1.214874e-09	-3.829124e+01	-7.471751e+01
1.000000e-07	-5.501764e-06	-1.268865e-09	-3.826355e+01	-7.465662e+01
1.100000e-07	-5.497427e-06	-1.144305e-09	-3.823338e+01	-7.459300e+01
1.200000e-07	-5.492976e-06	-1.025280e-09	-3.820243e+01	-7.452648e+01
1.300000e-07	-5.488404e-06	-1.045254e-09	-3.817063e+01	-7.445689e+01
1.400000e-07	-5.483429e-06	-1.176845e-09	-3.813603e+01	-7.438409e+01
1.500000e-07	-5.477931e-06	-1.137141e-09	-3.809779e+01	-7.430795e+01
1.600000e-07	-5.472091e-06	-1.033118e-09	-3.805718e+01	-7.422834e+01
1.700000e-07	-5.465868e-06	-1.082271e-09	-3.801390e+01	-7.414518e+01
1.800000e-07	-5.459180e-06	-1.210129e-09	-3.796738e+01	-7.405837e+01
1.900000e-07	-5.452158e-06	-1.200932e-09	-3.791855e+01	-7.396786e+01
2.000000e-07	-5.444785e-06	-1.046279e-09	-3.786727e+01	-7.387360e+01
2.100000e-07	-5.437110e-06	-1.041284e-09	-3.781389e+01	-7.377555e+01
2.200000e-07	-5.429183e-06	-1.148455e-09	-3.775876e+01	-7.367371e+01
2.300000e-07	-5.421059e-06	-1.209325e-09	-3.770226e+01	-7.356809e+01
2.400000e-07	-5.412680e-06	-1.130147e-09	-3.764399e+01	-7.345870e+01
2.500000e-07	-5.403674e-06	-1.116020e-09	-3.758135e+01	-7.334560e+01
2.600000e-07	-5.393784e-06	-1.150467e-09	-3.751257e+01	-7.322884e+01
2.700000e-07	-5.383206e-06	-1.153434e-09	-3.743900e+01	-7.310848e+01
2.800000e-07	-5.372154e-06	-1.082577e-09	-3.736214e+01	-7.298462e+01
2.900000e-07	-5.360670e-06	-1.094438e-09	-3.728227e+01	-7.285735e+01
3.000000e-07	-5.348888e-06	-1.137596e-09	-3.720033e+01	-7.272677e+01
3.100000e-07	-5.336810e-06	-1.125816e-09	-3.711633e+01	-7.259301e+01
3.200000e-07	-5.324335e-06	-1.075045e-09	-3.702957e+01	-7.245617e+01
3.300000e-07	-5.311414e-06	-1.096749e-09	-3.693970e+01	-7.231639e+01
3.400000e-07	-5.298105e-06	-1.129991e-09	-3.684714e+01	-7.217380e+01
3.500000e-07	-5.284390e-06	-1.097315e-09	-3.675176e+01	-7.202854e+01
3.600000e-07	-5.270125e-06	-1.067529e-09	-3.665255e+01	-7.188072e+01
3.700000e-07	-5.255430e-06	-1.102069e-09	-3.655035e+01	-7.173048e+01
3.800000e-07	-5.240331e-06	-1.112541e-09	-3.644534e+01	-7.157796e+01
3.900000e-07	-5.224636e-06	-1.067121e-09	-3.633618e+01	-7.142326e+01
4.000000e-07	-5.208423e-06	-1.082592e-09	-3.622343e+01	-7.126651e+01
4.100000e-07	-5.191908e-06	-1.115866e-09	-3.610856e+01	-7.110781e+01
4.200000e-07	-5.175126e-06	-1.073381e-09	-3.599185e+01	-7.094726e+01
4.300000e-07	-5.157932e-06	-1.030084e-09	-3.587227e+01	-7.078494e+01
4.400000e-07	-5.140358e-06	-1.096651e-09	-3.575005e+01	-7.062094e+01
4.500000e-07	-5.122407e-06	-1.111632e-09	-3.562521e+01	-7.045531e+01
4.600000e-07	-5.103986e-06	-1.056976e-09	-3.549709e+01	-7.028812e+01
4.700000e-07	-5.085163e-06	-1.054059e-09	-3.536618e+01	-7.011938e+01
4.800000e-07	-5.066031e-06	-1.103053e-09	-3.523312e+01	-6.994914e+01
4.900000e-07	-5.046611e-06	-1.070715e-09	-3.509806e+01	-6.977741e+01
5.000000e-07	-5.026928e-06	-1.061434e-09	-3.496117e+01	-6.960417e+01
5.100000e-07	-5.007084e-06	-1.086904e-09	-3.482315e+01	-6.942943e+01
5.200000e-07	-4.987056e-06	-1.068279e-09	-3.468387e+01	-6.925314e+01
5.300000e-07	-4.966697e-06	-1.032398e-09	-3.454227e+01	-6.907529e+01
5.400000e-07	-4.945990e-06	-1.082633e-09	-3.439826e+01	-6.889581e+01
5.500000e-07	-4.924898e-06	-1.090397e-09	-3.425157e+01	-6.871464e+01
5.600000e-07	-4.903383e-06	-1.038330e-09	-3.410194e+01	-6.853173e+01
5.700000e-07	-4.881552e-06	-1.033577e-09	-3.395011e+01	-6.834700e+01
5.800000e-07	-4.859470e-06	-1.071182e-09	-3.379653e+01	-6.816036e+01
5.900000e-07	-4.837006e-06	-1.051768e-09	-3.364030e+01	-6.797173e+01
6.000000e-07	-4.814126e-06	-1.035974e-09	-3.348118e+01	-6.778102e+01
6.100000e-07	-4.790965e-06	-1.048975e-09	-3.332010e+01	-6.758814e+01
6.200000e-07	-4.767561e-06	-1.035213e-09	-3.315733e+01	-6.739299e+01
6.300000e-07	-4.743924e-06	-1.010780e-09	-3.299294e+01	-6.719548e+01
6.400000e-07	-4.720040e-06	-1.019953e-09	-3.282683e+01	-6.699553e+01
6.500000e-07	-4.695833e-06	-1.024826e-09	-3.265848e+01	-6.679305e+01
6.600000e-07	-4.671263e-06	-1.018052e-09	-3.248759e+01	-6.658794e+01
6.700000e-07	-4.646302e-06	-1.024894e-09	-3.231400e+01	-6.638015e+01
6.800000e-07	-4.620765e-06	-1.028000e-09	-3.213639e+01	-6.616959e+01
6.900000e-07	-4.594635e-06	-1.019972e-09	-3.195467e+01	-6.595621e+01
7.000000e-07	-4.568013e-06	-1.009439e-09	-3.176951e+01	-6.573996e+01
7.100000e-07	-4.540909e-06	-1.002687e-09	-3.158101e+01	-6.552078e+01
7.200000e-07	-4.513466e-06	-9.901276e-10	-3.139016e+01	-6.529866e+01
7.300000e-07	-4.485832e-06	-9.905796e-10	-3.119797e+01	-6.507355e+01
7.400000e-07	-4.458054e-06	-9.869249e-10	-3.100477e+01	-6.484546e+01
7.500000e-07	-4.430114e-06	-9.849488e-10	-3.081046e+01	-6.461437e+01
7.600000e-07	-4.401944e-06	-9.838546e-10	-3.061455e+01	-6.438029e+01
7.700000e-07	-4.373405e-06	-9.818918e-10	-3.041606e+01	-6.414325e+01
7.800000e-07	-4.344502e-06	-9.637284e-10	-3.021505e+01	-6.390326e+01
7.900000e-07	-4.315331e-06	-9.613475e-10	-3.001217e+01	-6.366037e+01
8.000000e-07	-4.285883e-06	-9.620763e-10	-2.980737e+01	-6.341461e+01
8.100000e-07	-4.256088e-06	-9.536904e-10	-2.960015e+01	-6.316603e+01
8.200000e-07	-4.225979e-06	-9.404495e-10	-2.939075e+01	-6.291470e+01
8.300000e-07	-4.195587e-06	-9.443092e-10	-2.917938e+01	-6.266066e+01
8.400000e-07	-4.164956e-06	-9.420065e-10	-2.896635e+01	-6.240399e+01
8.500000e-07	-4.134026e-06	-9.345445e-10	-2.875123e+01	-6.214474e+01
8.600000e-07	-4.102756e-06	-9.307388e-10	-2.853376e+01	-6.188299e+01
8.700000e-07	-4.071318e-06	-9.315491e-10	-2.831511e+01	-6.161880e+01
8.800000e-07	-4.039725e-06	-9.199440e-10	-2.809539e+01	-6.135223e+01
8.900000e-07	-4.007938e-06	-9.153169e-10	-2.787432e+01	-6.108334e+01
9.000000e-07	-3.975954e-06	-9.155115e-10	-2.765188e+01	-6.081218e+01
9.100000e-07	-3.943703e-06	-9.072151e-10	-2.742758e+01	-6.053880e+01
9.200000e-07	-3.911135e-06	-8.980967e-10	-2.720107e+01	-6.026324e+01
9.300000e-07	-3.878266e-06	-8.977464e-10	-2.697248e+01	-5.998552e+01
9.400000e-07	-3.844970e-06	-8.950638e-10	-2.674091e+01	-5.970566e+01
9.500000e-07	-3.811115e-06	-8.846917e-10	-2.650546e+01	-5.942367e+01
9.600000e-07	-3.776790e-06	-8.815872e-10	-2.626674e+01	-5.913955e+01
9.700000e-07	-3.742113e-06	-8.811538e-10	-2.602556e+01	-5.885326e+01
9.800000e-07	-3.707135e-06	-8.732686e-10	-2.578230e+01	-5.856479e+01
9.900000e-07	-3.671884e-06	-8.670083e-10	-2.553714e+01	-5.827407e+01
1.000000e-06	-3.636346e-06	-8.670038e-10	-2.528998e+01	-5.798105e+01
1.010000e-06	-3.600652e-06	-8.606187e-10	-2.504174e+01	-5.768566e+01
1.020000e-06	-3.564847e-06	-8.527834e-10	-2.479272e+01	-5.738778e+01
1.030000e-06	-3.528822e-06	-8.496301e-10	-2.454217e+01	-5.708733e+01
1.040000e-06	-3.492610e-06	-8.471347e-10	-2.429033e+01	-5.678418e+01
1.050000e-06	-3.456229e-06	-8.382191e-10	-2.403731e+01	-5.647819e+01
1.060000e-06	-3.419643e-06	-8.358845e-10	-2.378286e+01	-5.616921e+01
1.070000e-06	-3.382813e-06	-8.317212e-10	-2.352671e+01	-5.585710e+01
1.080000e-06	-3.345621e-06	-8.260744e-10	-2.326805e+01	-5.554167e+01
1.090000e-06	-3.308157e-06	-8.176240e-10	-2.300750e+01	-5.522276e+01
1.100000e-06	-3.270492e-06	-8.122148e-10	-2.274555e+01	-5.490017e+01
1.110000e-06	-3.232629e-06	-8.050704e-10	-2.248222e+01	-5.457371e+01
1.120000e-06	-3.194560e-06	-7.984839e-10	-2.221745e+01	-5.424319e+01
1.130000e-06	-3.156159e-06	-7.930324e-10	-2.195038e+01	-5.390840e+01
1.140000e-06	-3.117558e-06	-7.873728e-10	-2.168192e+01	-5.356914e+01
1.150000e-06	-3.078782e-06	-7.773225e-10	-2.141225e+01	-5.322521e+01
1.160000e-06	-3.039866e-06	-7.717810e-10	-2.114159e+01	-5.287640e+01
1.170000e-06	-3.000832e-06	-7.665529e-10	-2.087012e+01	-5.252252e+01
1.180000e-06	-2.961546e-06	-7.627837e-10	-2.059690e+01	-5.216338e+01
1.190000e-06	-2.922069e-06	-7.599160e-10	-2.032234e+01	-5.179878e+01
1.200000e-06	-2.882450e-06	-7.555597e-10	-2.004680e+01	-5.142855e+01
1.210000e-06	-2.842706e-06	-7.475822e-10	-1.977039e+01	-5.105251e+01
1.220000e-06	-2.802816e-06	-7.395266e-10	-1.949297e+01	-5.067051e+01
1.230000e-06	-2.762787e-06	-7.319593e-10	-1.921457e+01	-5.028238e+01
1.240000e-06	-2.722525e-06	-7.225593e-10	-1.893456e+01	-4.988799e+01
1.250000e-06	-2.682028e-06	-7.136155e-10	-1.865291e+01	-4.948722e+01
1.260000e-06	-2.641414e-06	-7.081055e-10	-1.837044e+01	-4.907993e+01
1.270000e-06	-2.600618e-06	-7.036022e-10	-1.808672e+01	-4.866603e+01
1.280000e-06	-2.559519e-06	-6.987394e-10	-1.780089e+01	-4.824543e+01
1.290000e-06	-2.518124e-06	-6.962302e-10	-1.751299e+01	-4.781804e+01
1.300000e-06	-2.476459e-06	-6.909055e-10	-1.722322e+01	-4.738379e+01
1.310000e-06	-2.434409e-06	-6.816350e-10	-1.693077e+01	-4.694263e+01
1.320000e-06	-2.392082e-06	-6.707674e-10	-1.663640e+01	-4.649449e+01
1.330000e-06	-2.349545e-06	-6.612997e-10	-1.634056e+01	-4.603934e+01
1.340000e-06	-2.306708e-06	-6.523995e-10	-1.604264e+01	-4.557715e+01
1.350000e-06	-2.263648e-06	-6.456981e-10	-1.574317e+01	-4.510788e+01
1.360000e-06	-2.220412e-06	-6.390014e-10	-1.544247e+01	-4.463150e+01
1.370000e-06	-2.177032e-06	-6.336362e-10	-1.514077e+01	-4.414799e+01
1.380000e-06	-2.133496e-06	-6.289395e-10	-1.483799e+01	-4.365731e+01
1.390000e-06	-2.089805e-06	-6.258256e-10	-1.453413e+01	-4.315945e+01
1.400000e-06	-2.046059e-06	-6.187112e-10	-1.422988e+01	-4.265437e+01
1.410000e-06	-2.002253e-06	-6.098304e-10	-1.392523e+01	-4.214202e+01
1.420000e-06	-1.958370e-06	-6.015577e-10	-1.362003e+01	-4.162236e+01
1.430000e-06	-1.914367e-06	-5.940607e-10	-1.331400e+01	-4.109533e+01
1.440000e-06	-1.870245e-06	-5.853605e-10	-1.300714e+01	-4.056084e+01
1.450000e-06	-1.826081e-06	-5.772582e-10	-1.269999e+01	-4.001882e+01
1.460000e-06	-1.781759e-06	-5.684728e-10	-1.239174e+01	-3.946915e+01
1.470000e-06	-1.737255e-06	-5.593534e-10	-1.208222e+01	-3.891171e+01
1.480000e-06	-1.692630e-06	-5.483420e-10	-1.177187e+01	-3.834634e+01
1.490000e-06	-1.647909e-06	-5.379651e-10	-1.146084e+01	-3.777289e+01
1.500000e-06	-1.603058e-06	-5.277099e-10	-1.114891e+01	-3.719116e+01
1.510000e-06	-1.558051e-06	-5.181881e-10	-1.083590e+01	-3.660093e+01
1.520000e-06	-1.512973e-06	-5.099061e-10	-1.052239e+01	-3.600197e+01
1.530000e-06	-1.467814e-06	-5.001949e-10	-1.020832e+01	-3.539400e+01
1.540000e-06	-1.422541e-06	-4.883258e-10	-9.893457e+00	-3.477674e+01
1.550000e-06	-1.377138e-06	-4.771934e-10	-9.577688e+00	-3.414987e+01
1.560000e-06	-1.331612e-06	-4.653762e-10	-9.261067e+00	-3.351305e+01
1.570000e-06	-1.285982e-06	-4.504827e-10	-8.943719e+00	-3.286593e+01
1.580000e-06	-1.240294e-06	-4.372515e-10	-8.625966e+00	-3.220811e+01
1.590000e-06	-1.194577e-06	-4.292498e-10	-8.308018e+00	-3.153920e+01
1.600000e-06	-1.148765e-06	-4.216468e-10	-7.989403e+00	-3.085878e+01
1.610000e-06	-1.102838e-06	-4.108256e-10	-7.669993e+00	-3.016640e+01
1.620000e-06	-1.056853e-06	-4.011953e-10	-7.350176e+00	-2.946162e+01
1.630000e-06	-1.010785e-06	-3.919216e-10	-7.029786e+00	-2.874398e+01
1.640000e-06	-9.645853e-07	-3.826206e-10	-6.708477e+00	-2.801301e+01
1.650000e-06	-9.183347e-07	-3.729528e-10	-6.386814e+00	-2.726825e+01
1.660000e-06	-8.720796e-07	-3.615515e-10	-6.065120e+00	-2.650924e+01
1.670000e-06	-8.257231e-07	-3.473217e-10	-5.742721e+00	-2.573550e+01
1.680000e-06	-7.793168e-07	-3.340761e-10	-5.419975e+00	-2.494660e+01
1.690000e-06	-7.329892e-07	-3.215369e-10	-5.097777e+00	-2.414208e+01
1.700000e-06	-6.865785e-07	-3.091489e-10	-4.775001e+00	-2.332153e+01
1.710000e-06	-6.400233e-07	-2.972713e-10	-4.451220e+00	-2.248455e+01
1.720000e-06	-5.934317e-07	-2.850595e-10	-4.127186e+00	-2.163077e+01
1.730000e-06	-5.468286e-07	-2.693591e-10	-3.803072e+00	-2.075985e+01
1.740000e-06	-5.002280e-07	-2.509007e-10	-3.478975e+00	-1.987148e+01
1.750000e-06	-4.535867e-07	-2.325533e-10	-3.154595e+00	-1.896540e+01
1.760000e-06	-4.068648e-07	-2.178707e-10	-2.829654e+00	-1.804140e+01
1.770000e-06	-3.600529e-07	-2.058709e-10	-2.504088e+00	-1.709929e+01
1.780000e-06	-3.132368e-07	-1.960917e-10	-2.178492e+00	-1.613896e+01
1.790000e-06	-2.664449e-07	-1.865321e-10	-1.853065e+00	-1.516034e+01
1.800000e-06	-2.196664e-07	-1.747254e-10	-1.527731e+00	-1.416344e+01
1.810000e-06	-1.728064e-07	-1.590631e-10	-1.201830e+00	-1.314829e+01
1.820000e-06	-1.259183e-07	-1.401237e-10	-8.757335e-01	-1.211503e+01
1.830000e-06	-7.916075e-08	-1.222557e-10	-5.505454e-01	-1.106383e+01
1.840000e-06	-3.238024e-08	-1.076083e-10	-2.251974e-01	-9.994940e+00
1.850000e-06	1.442537e-08	-9.418218e-11	1.003253e-01	-8.908691e+00
1.860000e-06	6.121641e-08	-8.146278e-11	4.257465e-01	-7.805465e+00
1.870000e-06	1.080667e-07	-6.863110e-11	7.515801e-01	-6.685722e+00
1.880000e-06	1.548795e-07	-5.277192e-11	1.077152e+00	-5.549986e+00
1.890000e-06	2.016639e-07	-3.385033e-11	1.402528e+00	-4.398853e+00
1.900000e-06	2.484539e-07	-1.370136e-11	1.727942e+00	-3.232985e+00
1.910000e-06	2.951233e-07	5.862851e-12	2.052517e+00	-2.053108e+00
1.920000e-06	3.417989e-07	2.450097e-11	2.377135e+00	-8.600121e-01
1.930000e-06	3.885068e-07	4.048876e-11	2.701978e+00	3.454541e-01
1.940000e-06	4.351627e-07	5.567723e-11	3.026460e+00	1.562384e+00
1.950000e-06	4.817470e-07	7.255765e-11	3.350444e+00	2.789816e+00
1.960000e-06	5.282948e-07	9.061384e-11	3.674173e+00	4.026743e+00
1.970000e-06	5.748758e-07	1.085885e-10	3.998134e+00	5.272108e+00
1.980000e-06	6.213663e-07	1.250021e-10	4.321465e+00	6.524818e+00
1.990000e-06	6.677712e-07	1.393079e-10	4.644200e+00	7.783741e+00
2.000000e-06	7.141159e-07	1.535980e-10	4.966517e+00	9.047716e+00
2.010000e-06	7.604451e-07	1.684424e-10	5.288727e+00	1.031556e+01
2.020000e-06	8.067485e-07	1.869577e-10	5.610756e+00	1.158606e+01
2.030000e-06	8.529760e-07	2.079956e-10	5.932259e+00	1.285800e+01
2.040000e-06	8.991231e-07	2.281295e-10	6.253202e+00	1.413016e+01
2.050000e-06	9.451467e-07	2.459823e-10	6.573285e+00	1.540130e+01
2.060000e-06	9.911157e-07	2.615245e-10	6.892990e+00	1.667021e+01
2.070000e-06	1.037037e-06	2.769864e-10	7.212360e+00	1.793566e+01
2.080000e-06	1.082943e-06	2.948125e-10	7.531631e+00	1.919645e+01
2.090000e-06	1.128780e-06	3.131490e-10	7.850416e+00	2.045140e+01
2.100000e-06	1.174473e-06	3.317813e-10	8.168202e+00	2.169937e+01
2.110000e-06	1.220104e-06	3.516147e-10	8.485553e+00	2.293922e+01
2.120000e-06	1.265680e-06	3.694361e-10	8.802526e+00	2.416986e+01
2.130000e-06	1.311177e-06	3.843596e-10	9.118946e+00	2.539026e+01
2.140000e-06	1.356570e-06	3.988619e-10	9.434643e+00	2.659940e+01
2.150000e-06	1.401870e-06	4.145706e-10	9.749693e+00	2.779633e+01
2.160000e-06	1.447071e-06	4.312459e-10	1.006406e+01	2.898014e+01
2.170000e-06	1.492131e-06	4.473663e-10	1.037744e+01	3.014999e+01
2.180000e-06	1.537096e-06	4.636365e-10	1.069016e+01	3.130509e+01
2.190000e-06	1.581995e-06	4.805010e-10	1.100242e+01	3.244469e+01
2.200000e-06	1.626710e-06	4.953247e-10	1.131341e+01	3.356812e+01
2.210000e-06	1.671316e-06	5.094027e-10	1.162363e+01	3.467478e+01
2.220000e-06	1.715862e-06	5.241084e-10	1.193344e+01	3.576411e+01
2.230000e-06	1.760260e-06	5.407813e-10	1.224222e+01	3.683562e+01
2.240000e-06	1.804533e-06	5.562939e-10	1.255012e+01	3.788889e+01
2.250000e-06	1.848681e-06	5.681075e-10	1.285716e+01	3.892356e+01
2.260000e-06	1.892688e-06	5.794573e-10	1.316323e+01	3.993932e+01
2.270000e-06	1.936607e-06	5.929892e-10	1.346867e+01	4.093594e+01
2.280000e-06	1.980477e-06	6.105902e-10	1.377378e+01	4.191322e+01
2.290000e-06	2.024266e-06	6.288422e-10	1.407832e+01	4.287104e+01
2.300000e-06	2.067964e-06	6.443652e-10	1.438223e+01	4.380931e+01
2.310000e-06	2.111621e-06	6.560842e-10	1.468586e+01	4.472803e+01
2.320000e-06	2.155223e-06	6.662446e-10	1.498909e+01	4.562719e+01
2.330000e-06	2.198664e-06	6.774961e-10	1.529122e+01	4.650688e+01
2.340000e-06	2.241971e-06	6.896816e-10	1.559241e+01	4.736720e+01
2.350000e-06	2.285145e-06	7.051168e-10	1.589268e+01	4.820828e+01
2.360000e-06	2.328166e-06	7.248240e-10	1.619188e+01	4.903032e+01
2.370000e-06	2.370988e-06	7.429310e-10	1.648970e+01	4.983352e+01
2.380000e-06	2.413409e-06	7.538986e-10	1.678472e+01	5.061810e+01
2.390000e-06	2.455443e-06	7.611078e-10	1.707706e+01	5.138435e+01
2.400000e-06	2.497217e-06	7.664674e-10	1.736759e+01	5.213252e+01
2.410000e-06	2.538732e-06	7.714364e-10	1.765632e+01	5.286291e+01
2.420000e-06	2.579886e-06	7.793419e-10	1.794254e+01	5.357584e+01
2.430000e-06	2.620641e-06	7.927001e-10	1.822597e+01	5.427161e+01
2.440000e-06	2.661153e-06	8.099279e-10	1.850773e+01	5.495055e+01
2.450000e-06	2.701599e-06	8.249615e-10	1.878902e+01	5.561299e+01
2.460000e-06	2.741937e-06	8.347371e-10	1.906956e+01	5.625926e+01
2.470000e-06	2.782028e-06	8.420955e-10	1.934839e+01	5.688968e+01
2.480000e-06	2.821954e-06	8.488531e-10	1.962607e+01	5.750458e+01
2.490000e-06	2.861798e-06	8.561954e-10	1.990317e+01	5.810427e+01
2.500000e-06	2.901487e-06	8.650708e-10	2.017920e+01	5.868907e+01
2.510000e-06	2.941004e-06	8.736518e-10	2.045403e+01	5.925928e+01
2.520000e-06	2.980414e-06	8.845842e-10	2.072812e+01	5.981519e+01
2.530000e-06	3.019657e-06	8.960516e-10	2.100104e+01	6.035709e+01
2.540000e-06	3.058673e-06	9.038147e-10	2.127239e+01	6.088525e+01
2.550000e-06	3.097426e-06	9.107405e-10	2.154191e+01	6.139994e+01
2.560000e-06	3.135913e-06	9.193457e-10	2.180958e+01	6.190141e+01
2.570000e-06	3.174161e-06	9.270824e-10	2.207558e+01	6.238990e+01
2.580000e-06	3.212161e-06	9.322208e-10	2.233986e+01	6.286565e+01
2.590000e-06	3.249983e-06	9.365039e-10	2.260291e+01	6.332887e+01
2.600000e-06	3.287638e-06	9.422193e-10	2.286479e+01	6.377978e+01
2.610000e-06	3.325078e-06	9.476530e-10	2.312518e+01	6.421860e+01
2.620000e-06	3.362328e-06	9.502361e-10	2.338424e+01	6.464551e+01
2.630000e-06	3.399316e-06	9.526744e-10	2.364149e+01	6.506071e+01
2.640000e-06	3.435979e-06	9.578792e-10	2.389647e+01	6.546441e+01
2.650000e-06	3.472346e-06	9.659978e-10	2.414940e+01	6.585677e+01
2.660000e-06	3.508477e-06	9.735236e-10	2.440068e+01	6.623799e+01
2.670000e-06	3.544430e-06	9.769835e-10	2.465072e+01	6.660826e+01
2.680000e-06	3.580229e-06	9.784116e-10	2.489970e+01	6.696776e+01
2.690000e-06	3.615925e-06	9.813634e-10	2.514795e+01	6.731668e+01
2.700000e-06	3.651567e-06	9.868782e-10	2.539584e+01	6.765522e+01
2.710000e-06	3.687065e-06	9.942163e-10	2.564271e+01	6.798356e+01
2.720000e-06	3.722336e-06	1.001516e-09	2.588802e+01	6.830191e+01
2.730000e-06	3.757283e-06	1.008716e-09	2.613107e+01	6.861049e+01
2.740000e-06	3.791856e-06	1.014218e-09	2.637152e+01	6.890949e+01
2.750000e-06	3.825979e-06	1.016781e-09	2.660883e+01	6.919914e+01
2.760000e-06	3.859475e-06	1.016725e-09	2.684179e+01	6.947968e+01
2.770000e-06	3.892463e-06	1.017962e-09	2.707121e+01	6.975133e+01
2.780000e-06	3.925099e-06	1.022336e-09	2.729819e+01	7.001433e+01
2.790000e-06	3.957394e-06	1.027951e-09	2.752280e+01	7.026894e+01
2.800000e-06	3.989404e-06	1.034137e-09	2.774542e+01	7.051541e+01
2.810000e-06	4.021264e-06	1.038738e-09	2.796700e+01	7.075399e+01
2.820000e-06	4.053009e-06	1.041018e-09	2.818778e+01	7.098497e+01
2.830000e-06	4.084591e-06	1.042346e-09	2.840742e+01	7.120859e+01
2.840000e-06	4.115998e-06	1.045880e-09	2.862585e+01	7.142515e+01
2.850000e-06	4.147140e-06	1.053236e-09	2.884244e+01	7.163490e+01
2.860000e-06	4.177947e-06	1.061878e-09	2.905669e+01	7.183813e+01
2.870000e-06	4.208347e-06	1.066593e-09	2.926812e+01	7.203511e+01
2.880000e-06	4.238393e-06	1.067282e-09	2.947708e+01	7.222610e+01
2.890000e-06	4.268224e-06	1.067435e-09	2.968455e+01	7.241138e+01
2.900000e-06	4.297830e-06	1.069159e-09	2.989045e+01	7.259120e+01
