# Temperatura_=_-0.6
# Concentracion g/m^3_=_1620.0
# C_Vs_to_Am_M_A/Vsm_=_65563218390.804596
# pendiente_HvsI_1/m_=_3716.3
# ordenada_HvsI_A/m_=_1297.0
# frecuencia_Hz_=_135098.443967895

Tiempo_(s)	Campo_(V.s)	Magnetizacion_(V.s)	Campo_(kA/m)	Magnetizacion_(A/m)
0.000000e+00	-5.497157e-06	-1.369927e-09	-3.837085e+01	-8.995770e+01
1.000000e-08	-5.497483e-06	-1.368974e-09	-3.837312e+01	-8.987058e+01
2.000000e-08	-5.497562e-06	-1.367736e-09	-3.837368e+01	-8.977891e+01
3.000000e-08	-5.497266e-06	-1.366859e-09	-3.837161e+01	-8.968278e+01
4.000000e-08	-5.496476e-06	-1.363157e-09	-3.836610e+01	-8.958231e+01
5.000000e-08	-5.495077e-06	-1.350198e-09	-3.835633e+01	-8.947765e+01
6.000000e-08	-5.493043e-06	-1.333997e-09	-3.834214e+01	-8.936892e+01
7.000000e-08	-5.490485e-06	-1.349438e-09	-3.832428e+01	-8.925632e+01
8.000000e-08	-5.487458e-06	-1.395618e-09	-3.830315e+01	-8.914001e+01
9.000000e-08	-5.483989e-06	-1.413806e-09	-3.827894e+01	-8.902019e+01
1.000000e-07	-5.480117e-06	-1.371267e-09	-3.825191e+01	-8.889707e+01
1.100000e-07	-5.475957e-06	-1.343605e-09	-3.822287e+01	-8.877087e+01
1.200000e-07	-5.471560e-06	-1.333610e-09	-3.819218e+01	-8.864180e+01
1.300000e-07	-5.466902e-06	-1.356990e-09	-3.815967e+01	-8.851011e+01
1.400000e-07	-5.461927e-06	-1.326483e-09	-3.812494e+01	-8.837600e+01
1.500000e-07	-5.456628e-06	-1.332032e-09	-3.808796e+01	-8.823973e+01
1.600000e-07	-5.450898e-06	-1.335595e-09	-3.804795e+01	-8.810151e+01
1.700000e-07	-5.444766e-06	-1.364004e-09	-3.800515e+01	-8.796157e+01
1.800000e-07	-5.438230e-06	-1.344964e-09	-3.795953e+01	-8.782012e+01
1.900000e-07	-5.431274e-06	-1.319361e-09	-3.791098e+01	-8.767738e+01
2.000000e-07	-5.423948e-06	-1.298743e-09	-3.785984e+01	-8.753355e+01
2.100000e-07	-5.416299e-06	-1.313395e-09	-3.780645e+01	-8.738880e+01
2.200000e-07	-5.408462e-06	-1.340272e-09	-3.775175e+01	-8.724331e+01
2.300000e-07	-5.400344e-06	-1.334021e-09	-3.769509e+01	-8.709722e+01
2.400000e-07	-5.391857e-06	-1.320569e-09	-3.763585e+01	-8.695067e+01
2.500000e-07	-5.382895e-06	-1.297696e-09	-3.757329e+01	-8.680378e+01
2.600000e-07	-5.373241e-06	-1.303079e-09	-3.750590e+01	-8.665662e+01
2.700000e-07	-5.362816e-06	-1.280052e-09	-3.743313e+01	-8.650927e+01
2.800000e-07	-5.351797e-06	-1.291169e-09	-3.735622e+01	-8.636178e+01
2.900000e-07	-5.340432e-06	-1.301504e-09	-3.727689e+01	-8.621416e+01
3.000000e-07	-5.328765e-06	-1.320709e-09	-3.719545e+01	-8.606641e+01
3.100000e-07	-5.316636e-06	-1.286591e-09	-3.711079e+01	-8.591850e+01
3.200000e-07	-5.304009e-06	-1.291712e-09	-3.702265e+01	-8.577037e+01
3.300000e-07	-5.290960e-06	-1.291472e-09	-3.693157e+01	-8.562195e+01
3.400000e-07	-5.277597e-06	-1.291903e-09	-3.683829e+01	-8.547313e+01
3.500000e-07	-5.263880e-06	-1.266580e-09	-3.674255e+01	-8.532380e+01
3.600000e-07	-5.249803e-06	-1.291206e-09	-3.664429e+01	-8.517380e+01
3.700000e-07	-5.235396e-06	-1.289017e-09	-3.654372e+01	-8.502297e+01
3.800000e-07	-5.220408e-06	-1.283508e-09	-3.643911e+01	-8.487113e+01
3.900000e-07	-5.204667e-06	-1.285697e-09	-3.632923e+01	-8.471807e+01
4.000000e-07	-5.188473e-06	-1.291456e-09	-3.621620e+01	-8.456359e+01
4.100000e-07	-5.171991e-06	-1.259465e-09	-3.610115e+01	-8.440744e+01
4.200000e-07	-5.155162e-06	-1.261969e-09	-3.598368e+01	-8.424940e+01
4.300000e-07	-5.138006e-06	-1.289133e-09	-3.586393e+01	-8.408922e+01
4.400000e-07	-5.120501e-06	-1.271420e-09	-3.574175e+01	-8.392664e+01
4.500000e-07	-5.102677e-06	-1.253207e-09	-3.561733e+01	-8.376142e+01
4.600000e-07	-5.084467e-06	-1.272000e-09	-3.549022e+01	-8.359329e+01
4.700000e-07	-5.065809e-06	-1.271068e-09	-3.535999e+01	-8.342200e+01
4.800000e-07	-5.046757e-06	-1.239274e-09	-3.522700e+01	-8.324731e+01
4.900000e-07	-5.027483e-06	-1.260718e-09	-3.509247e+01	-8.306898e+01
5.000000e-07	-5.008020e-06	-1.267819e-09	-3.495661e+01	-8.288676e+01
5.100000e-07	-4.988272e-06	-1.233117e-09	-3.481877e+01	-8.270045e+01
5.200000e-07	-4.968282e-06	-1.225793e-09	-3.467924e+01	-8.250984e+01
5.300000e-07	-4.947938e-06	-1.261656e-09	-3.453724e+01	-8.231473e+01
5.400000e-07	-4.927226e-06	-1.239786e-09	-3.439266e+01	-8.211496e+01
5.500000e-07	-4.906205e-06	-1.222611e-09	-3.424593e+01	-8.191038e+01
5.600000e-07	-4.884774e-06	-1.238559e-09	-3.409634e+01	-8.170085e+01
5.700000e-07	-4.863067e-06	-1.241289e-09	-3.394482e+01	-8.148627e+01
5.800000e-07	-4.840971e-06	-1.216004e-09	-3.379059e+01	-8.126655e+01
5.900000e-07	-4.818448e-06	-1.232476e-09	-3.363338e+01	-8.104164e+01
6.000000e-07	-4.795657e-06	-1.229139e-09	-3.347429e+01	-8.081148e+01
6.100000e-07	-4.772562e-06	-1.203006e-09	-3.331308e+01	-8.057609e+01
6.200000e-07	-4.749179e-06	-1.198400e-09	-3.314987e+01	-8.033546e+01
6.300000e-07	-4.725512e-06	-1.212150e-09	-3.298467e+01	-8.008964e+01
6.400000e-07	-4.701603e-06	-1.194014e-09	-3.281778e+01	-7.983869e+01
6.500000e-07	-4.677430e-06	-1.194905e-09	-3.264905e+01	-7.958269e+01
6.600000e-07	-4.652874e-06	-1.206383e-09	-3.247765e+01	-7.932175e+01
6.700000e-07	-4.628012e-06	-1.193338e-09	-3.230411e+01	-7.905599e+01
6.800000e-07	-4.602553e-06	-1.175850e-09	-3.212640e+01	-7.878557e+01
6.900000e-07	-4.576354e-06	-1.185867e-09	-3.194353e+01	-7.851064e+01
7.000000e-07	-4.549754e-06	-1.178956e-09	-3.175786e+01	-7.823139e+01
7.100000e-07	-4.522779e-06	-1.165338e-09	-3.156957e+01	-7.794800e+01
7.200000e-07	-4.495451e-06	-1.172808e-09	-3.137881e+01	-7.766068e+01
7.300000e-07	-4.467925e-06	-1.174474e-09	-3.118668e+01	-7.736963e+01
7.400000e-07	-4.440278e-06	-1.158537e-09	-3.099370e+01	-7.707507e+01
7.500000e-07	-4.412425e-06	-1.150630e-09	-3.079928e+01	-7.677722e+01
7.600000e-07	-4.384309e-06	-1.147952e-09	-3.060303e+01	-7.647630e+01
7.700000e-07	-4.355944e-06	-1.128771e-09	-3.040504e+01	-7.617253e+01
7.800000e-07	-4.327278e-06	-1.122595e-09	-3.020495e+01	-7.586611e+01
7.900000e-07	-4.298167e-06	-1.126306e-09	-3.000175e+01	-7.555726e+01
8.000000e-07	-4.268690e-06	-1.120544e-09	-2.979599e+01	-7.524617e+01
8.100000e-07	-4.239016e-06	-1.109844e-09	-2.958887e+01	-7.493302e+01
8.200000e-07	-4.209103e-06	-1.113398e-09	-2.938007e+01	-7.461798e+01
8.300000e-07	-4.178933e-06	-1.107171e-09	-2.916948e+01	-7.430120e+01
8.400000e-07	-4.148465e-06	-1.097918e-09	-2.895681e+01	-7.398283e+01
8.500000e-07	-4.117676e-06	-1.092683e-09	-2.874190e+01	-7.366297e+01
8.600000e-07	-4.086557e-06	-1.089420e-09	-2.852468e+01	-7.334172e+01
8.700000e-07	-4.055161e-06	-1.076060e-09	-2.830554e+01	-7.301914e+01
8.800000e-07	-4.023654e-06	-1.072637e-09	-2.808562e+01	-7.269529e+01
8.900000e-07	-3.992017e-06	-1.070186e-09	-2.786478e+01	-7.237018e+01
9.000000e-07	-3.960180e-06	-1.065687e-09	-2.764256e+01	-7.204382e+01
9.100000e-07	-3.928055e-06	-1.059103e-09	-2.741832e+01	-7.171616e+01
9.200000e-07	-3.895603e-06	-1.060314e-09	-2.719180e+01	-7.138717e+01
9.300000e-07	-3.862891e-06	-1.053023e-09	-2.696347e+01	-7.105675e+01
9.400000e-07	-3.829794e-06	-1.042312e-09	-2.673244e+01	-7.072481e+01
9.500000e-07	-3.796113e-06	-1.037369e-09	-2.649735e+01	-7.039122e+01
9.600000e-07	-3.761932e-06	-1.034431e-09	-2.625876e+01	-7.005583e+01
9.700000e-07	-3.727367e-06	-1.024759e-09	-2.601749e+01	-6.971846e+01
9.800000e-07	-3.692431e-06	-1.019950e-09	-2.577363e+01	-6.937893e+01
9.900000e-07	-3.657275e-06	-1.017702e-09	-2.552824e+01	-6.903702e+01
1.000000e-06	-3.621956e-06	-1.011625e-09	-2.528171e+01	-6.869251e+01
1.010000e-06	-3.586431e-06	-1.004806e-09	-2.503374e+01	-6.834517e+01
1.020000e-06	-3.550705e-06	-1.001385e-09	-2.478437e+01	-6.799474e+01
1.030000e-06	-3.514842e-06	-9.965832e-10	-2.453404e+01	-6.764095e+01
1.040000e-06	-3.478843e-06	-9.888559e-10	-2.428277e+01	-6.728354e+01
1.050000e-06	-3.442581e-06	-9.844108e-10	-2.402965e+01	-6.692224e+01
1.060000e-06	-3.406013e-06	-9.771915e-10	-2.377440e+01	-6.655678e+01
1.070000e-06	-3.369148e-06	-9.681214e-10	-2.351708e+01	-6.618686e+01
1.080000e-06	-3.331978e-06	-9.600457e-10	-2.325763e+01	-6.581223e+01
1.090000e-06	-3.294568e-06	-9.539537e-10	-2.299650e+01	-6.543261e+01
1.100000e-06	-3.256985e-06	-9.456514e-10	-2.273417e+01	-6.504775e+01
1.110000e-06	-3.219298e-06	-9.418881e-10	-2.247111e+01	-6.465738e+01
1.120000e-06	-3.181485e-06	-9.385873e-10	-2.220717e+01	-6.426127e+01
1.130000e-06	-3.143409e-06	-9.344480e-10	-2.194139e+01	-6.385919e+01
1.140000e-06	-3.105000e-06	-9.264364e-10	-2.167329e+01	-6.345092e+01
1.150000e-06	-3.066403e-06	-9.188166e-10	-2.140388e+01	-6.303627e+01
1.160000e-06	-3.027602e-06	-9.092166e-10	-2.113305e+01	-6.261505e+01
1.170000e-06	-2.988529e-06	-9.010816e-10	-2.086031e+01	-6.218711e+01
1.180000e-06	-2.949270e-06	-8.929716e-10	-2.058628e+01	-6.175229e+01
1.190000e-06	-2.909806e-06	-8.879494e-10	-2.031081e+01	-6.131047e+01
1.200000e-06	-2.870211e-06	-8.831567e-10	-2.003443e+01	-6.086155e+01
1.210000e-06	-2.830578e-06	-8.791867e-10	-1.975779e+01	-6.040544e+01
1.220000e-06	-2.790875e-06	-8.724593e-10	-1.948066e+01	-5.994206e+01
1.230000e-06	-2.751096e-06	-8.635034e-10	-1.920300e+01	-5.947137e+01
1.240000e-06	-2.711145e-06	-8.534291e-10	-1.892414e+01	-5.899333e+01
1.250000e-06	-2.670990e-06	-8.450885e-10	-1.864385e+01	-5.850793e+01
1.260000e-06	-2.630675e-06	-8.386033e-10	-1.836245e+01	-5.801515e+01
1.270000e-06	-2.590131e-06	-8.314831e-10	-1.807944e+01	-5.751501e+01
1.280000e-06	-2.549343e-06	-8.242680e-10	-1.779473e+01	-5.700752e+01
1.290000e-06	-2.508255e-06	-8.186074e-10	-1.750793e+01	-5.649271e+01
1.300000e-06	-2.466748e-06	-8.103004e-10	-1.721821e+01	-5.597061e+01
1.310000e-06	-2.424798e-06	-7.989500e-10	-1.692539e+01	-5.544126e+01
1.320000e-06	-2.382520e-06	-7.877046e-10	-1.663029e+01	-5.490469e+01
1.330000e-06	-2.340027e-06	-7.785244e-10	-1.633368e+01	-5.436093e+01
1.340000e-06	-2.297361e-06	-7.711737e-10	-1.603587e+01	-5.381002e+01
1.350000e-06	-2.254506e-06	-7.643198e-10	-1.573673e+01	-5.325198e+01
1.360000e-06	-2.211380e-06	-7.563376e-10	-1.543571e+01	-5.268682e+01
1.370000e-06	-2.168007e-06	-7.466102e-10	-1.513296e+01	-5.211455e+01
1.380000e-06	-2.124518e-06	-7.387184e-10	-1.482941e+01	-5.153514e+01
1.390000e-06	-2.080972e-06	-7.306641e-10	-1.452545e+01	-5.094856e+01
1.400000e-06	-2.037395e-06	-7.203600e-10	-1.422127e+01	-5.035477e+01
1.410000e-06	-1.993762e-06	-7.085463e-10	-1.391671e+01	-4.975368e+01
1.420000e-06	-1.950029e-06	-6.997910e-10	-1.361145e+01	-4.914520e+01
1.430000e-06	-1.906191e-06	-6.933897e-10	-1.330546e+01	-4.852920e+01
1.440000e-06	-1.862243e-06	-6.871926e-10	-1.299869e+01	-4.790552e+01
1.450000e-06	-1.818252e-06	-6.777674e-10	-1.269163e+01	-4.727399e+01
1.460000e-06	-1.774154e-06	-6.665781e-10	-1.238382e+01	-4.663439e+01
1.470000e-06	-1.729917e-06	-6.524059e-10	-1.207504e+01	-4.598647e+01
1.480000e-06	-1.685553e-06	-6.366337e-10	-1.176537e+01	-4.532997e+01
1.490000e-06	-1.640941e-06	-6.229089e-10	-1.145397e+01	-4.466457e+01
1.500000e-06	-1.596215e-06	-6.135640e-10	-1.114178e+01	-4.398994e+01
1.510000e-06	-1.551433e-06	-6.065452e-10	-1.082920e+01	-4.330571e+01
1.520000e-06	-1.506570e-06	-6.005965e-10	-1.051605e+01	-4.261148e+01
1.530000e-06	-1.461598e-06	-5.918456e-10	-1.020214e+01	-4.190684e+01
1.540000e-06	-1.416472e-06	-5.796646e-10	-9.887157e+00	-4.119132e+01
1.550000e-06	-1.371267e-06	-5.658244e-10	-9.571617e+00	-4.046446e+01
1.560000e-06	-1.325965e-06	-5.536190e-10	-9.255402e+00	-3.972576e+01
1.570000e-06	-1.280593e-06	-5.410475e-10	-8.938702e+00	-3.897470e+01
1.580000e-06	-1.235165e-06	-5.289011e-10	-8.621609e+00	-3.821075e+01
1.590000e-06	-1.189628e-06	-5.190401e-10	-8.303754e+00	-3.743337e+01
1.600000e-06	-1.143872e-06	-5.093964e-10	-7.984370e+00	-3.664201e+01
1.610000e-06	-1.097963e-06	-4.973989e-10	-7.663918e+00	-3.583609e+01
1.620000e-06	-1.052041e-06	-4.840567e-10	-7.343378e+00	-3.501507e+01
1.630000e-06	-1.006219e-06	-4.710528e-10	-7.023533e+00	-3.417838e+01
1.640000e-06	-9.603924e-07	-4.601064e-10	-6.703660e+00	-3.332547e+01
1.650000e-06	-9.143478e-07	-4.500193e-10	-6.382263e+00	-3.245580e+01
1.660000e-06	-8.682145e-07	-4.370235e-10	-6.060247e+00	-3.156884e+01
1.670000e-06	-8.220593e-07	-4.208813e-10	-5.738078e+00	-3.066409e+01
1.680000e-06	-7.758531e-07	-4.016360e-10	-5.415553e+00	-2.974106e+01
1.690000e-06	-7.296603e-07	-3.835286e-10	-5.093121e+00	-2.879930e+01
1.700000e-06	-6.833947e-07	-3.671240e-10	-4.770182e+00	-2.783839e+01
1.710000e-06	-6.370354e-07	-3.536607e-10	-4.446588e+00	-2.685795e+01
1.720000e-06	-5.907009e-07	-3.412331e-10	-4.123167e+00	-2.585763e+01
1.730000e-06	-5.443074e-07	-3.267183e-10	-3.799334e+00	-2.483713e+01
1.740000e-06	-4.979214e-07	-3.075199e-10	-3.475554e+00	-2.379621e+01
1.750000e-06	-4.515327e-07	-2.864771e-10	-3.151756e+00	-2.273466e+01
1.760000e-06	-4.050443e-07	-2.681948e-10	-2.827260e+00	-2.165235e+01
1.770000e-06	-3.585337e-07	-2.526531e-10	-2.502611e+00	-2.054919e+01
1.780000e-06	-3.119997e-07	-2.386255e-10	-2.177797e+00	-1.942515e+01
1.790000e-06	-2.654517e-07	-2.257390e-10	-1.852886e+00	-1.828028e+01
1.800000e-06	-2.188790e-07	-2.116832e-10	-1.527803e+00	-1.711468e+01
1.810000e-06	-1.723053e-07	-1.945303e-10	-1.202713e+00	-1.592852e+01
1.820000e-06	-1.256791e-07	-1.755762e-10	-8.772563e-01	-1.472204e+01
1.830000e-06	-7.898204e-08	-1.583994e-10	-5.513046e-01	-1.349553e+01
1.840000e-06	-3.234815e-08	-1.439887e-10	-2.257942e-01	-1.224938e+01
1.850000e-06	1.422098e-08	-1.290211e-10	9.926424e-02	-1.098402e+01
1.860000e-06	6.091540e-08	-1.116863e-10	4.251972e-01	-9.699970e+00
1.870000e-06	1.076854e-07	-9.251438e-11	7.516578e-01	-8.397798e+00
1.880000e-06	1.544684e-07	-7.223077e-11	1.078209e+00	-7.078147e+00
1.890000e-06	2.011927e-07	-5.168479e-11	1.404350e+00	-5.741723e+00
1.900000e-06	2.477810e-07	-3.160669e-11	1.729543e+00	-4.389292e+00
1.910000e-06	2.943552e-07	-1.306765e-11	2.054636e+00	-3.021681e+00
1.920000e-06	3.409545e-07	5.396239e-12	2.379906e+00	-1.639773e+00
1.930000e-06	3.875382e-07	2.233809e-11	2.705066e+00	-2.445067e-01
1.940000e-06	4.340667e-07	3.953250e-11	3.029841e+00	1.163132e+00
1.950000e-06	4.806875e-07	5.978723e-11	3.355260e+00	2.582107e+00
1.960000e-06	5.272858e-07	8.147871e-11	3.680521e+00	4.011342e+00
1.970000e-06	5.736869e-07	1.043122e-10	4.004407e+00	5.449720e+00
1.980000e-06	6.200072e-07	1.226779e-10	4.327728e+00	6.896090e+00
1.990000e-06	6.664040e-07	1.393300e-10	4.651584e+00	8.349269e+00
2.000000e-06	7.127784e-07	1.576700e-10	4.975283e+00	9.808049e+00
2.010000e-06	7.589937e-07	1.787840e-10	5.297872e+00	1.127120e+01
2.020000e-06	8.051102e-07	2.024332e-10	5.619771e+00	1.273748e+01
2.030000e-06	8.511003e-07	2.269884e-10	5.940788e+00	1.420563e+01
2.040000e-06	8.970083e-07	2.482371e-10	6.261231e+00	1.567438e+01
2.050000e-06	9.428854e-07	2.660657e-10	6.581459e+00	1.714247e+01
2.060000e-06	9.886695e-07	2.838873e-10	6.901038e+00	1.860863e+01
2.070000e-06	1.034439e-06	3.023314e-10	7.220516e+00	2.007160e+01
2.080000e-06	1.080258e-06	3.232817e-10	7.540335e+00	2.153014e+01
2.090000e-06	1.125972e-06	3.473597e-10	7.859427e+00	2.298301e+01
2.100000e-06	1.171594e-06	3.724851e-10	8.177877e+00	2.442901e+01
2.110000e-06	1.217101e-06	3.955568e-10	8.495516e+00	2.586694e+01
2.120000e-06	1.262472e-06	4.144924e-10	8.812214e+00	2.729564e+01
2.130000e-06	1.307827e-06	4.307637e-10	9.128795e+00	2.871400e+01
2.140000e-06	1.353079e-06	4.475073e-10	9.444660e+00	3.012091e+01
2.150000e-06	1.398160e-06	4.651519e-10	9.759335e+00	3.151531e+01
2.160000e-06	1.443193e-06	4.843028e-10	1.007367e+01	3.289621e+01
2.170000e-06	1.488154e-06	5.029673e-10	1.038751e+01	3.426261e+01
2.180000e-06	1.533007e-06	5.222011e-10	1.070058e+01	3.561361e+01
2.190000e-06	1.577779e-06	5.438127e-10	1.101310e+01	3.694832e+01
2.200000e-06	1.622354e-06	5.645994e-10	1.132424e+01	3.826593e+01
2.210000e-06	1.666728e-06	5.821551e-10	1.163397e+01	3.956565e+01
2.220000e-06	1.711014e-06	5.980474e-10	1.194309e+01	4.084677e+01
2.230000e-06	1.755270e-06	6.134376e-10	1.225201e+01	4.210862e+01
2.240000e-06	1.799363e-06	6.279613e-10	1.255978e+01	4.335060e+01
2.250000e-06	1.843314e-06	6.406996e-10	1.286656e+01	4.457214e+01
2.260000e-06	1.887264e-06	6.556467e-10	1.317334e+01	4.577276e+01
2.270000e-06	1.931124e-06	6.739143e-10	1.347949e+01	4.695201e+01
2.280000e-06	1.974822e-06	6.956712e-10	1.378451e+01	4.810951e+01
2.290000e-06	2.018465e-06	7.181009e-10	1.408914e+01	4.924492e+01
2.300000e-06	2.062081e-06	7.380171e-10	1.439359e+01	5.035797e+01
2.310000e-06	2.105618e-06	7.516804e-10	1.469748e+01	5.144844e+01
2.320000e-06	2.149062e-06	7.630633e-10	1.500072e+01	5.251618e+01
2.330000e-06	2.192380e-06	7.756333e-10	1.530309e+01	5.356105e+01
2.340000e-06	2.235573e-06	7.876008e-10	1.560459e+01	5.458299e+01
2.350000e-06	2.278500e-06	8.014110e-10	1.590422e+01	5.558200e+01
2.360000e-06	2.321133e-06	8.208258e-10	1.620180e+01	5.655811e+01
2.370000e-06	2.363439e-06	8.414268e-10	1.649710e+01	5.751138e+01
2.380000e-06	2.405462e-06	8.556589e-10	1.679043e+01	5.844195e+01
2.390000e-06	2.447265e-06	8.657909e-10	1.708222e+01	5.934998e+01
2.400000e-06	2.488768e-06	8.751728e-10	1.737192e+01	6.023568e+01
2.410000e-06	2.530033e-06	8.835490e-10	1.765995e+01	6.109927e+01
2.420000e-06	2.571018e-06	8.916835e-10	1.794603e+01	6.194104e+01
2.430000e-06	2.611695e-06	9.037064e-10	1.822996e+01	6.276130e+01
2.440000e-06	2.652082e-06	9.191324e-10	1.851187e+01	6.356039e+01
2.450000e-06	2.692340e-06	9.338129e-10	1.879287e+01	6.433867e+01
2.460000e-06	2.732487e-06	9.469797e-10	1.907311e+01	6.509653e+01
2.470000e-06	2.772450e-06	9.600952e-10	1.935205e+01	6.583440e+01
2.480000e-06	2.812276e-06	9.710689e-10	1.963004e+01	6.655271e+01
2.490000e-06	2.851943e-06	9.809407e-10	1.990692e+01	6.725192e+01
2.500000e-06	2.891473e-06	9.899151e-10	2.018285e+01	6.793248e+01
2.510000e-06	2.930821e-06	9.986652e-10	2.045750e+01	6.859490e+01
2.520000e-06	2.969942e-06	1.008970e-09	2.073057e+01	6.923967e+01
2.530000e-06	3.008901e-06	1.019678e-09	2.100251e+01	6.986728e+01
2.540000e-06	3.047648e-06	1.028640e-09	2.127297e+01	7.047826e+01
2.550000e-06	3.086183e-06	1.035818e-09	2.154195e+01	7.107311e+01
2.560000e-06	3.124523e-06	1.041577e-09	2.180957e+01	7.165235e+01
2.570000e-06	3.162650e-06	1.048085e-09	2.207569e+01	7.221650e+01
2.580000e-06	3.200606e-06	1.054934e-09	2.234063e+01	7.276607e+01
2.590000e-06	3.238402e-06	1.061864e-09	2.260445e+01	7.330157e+01
2.600000e-06	3.275990e-06	1.070305e-09	2.286683e+01	7.382351e+01
2.610000e-06	3.313295e-06	1.079067e-09	2.312722e+01	7.433239e+01
2.620000e-06	3.350374e-06	1.085009e-09	2.338603e+01	7.482868e+01
2.630000e-06	3.387314e-06	1.088036e-09	2.364388e+01	7.531286e+01
2.640000e-06	3.423969e-06	1.091682e-09	2.389974e+01	7.578540e+01
2.650000e-06	3.460315e-06	1.098115e-09	2.415343e+01	7.624673e+01
2.660000e-06	3.496417e-06	1.105148e-09	2.440543e+01	7.669730e+01
2.670000e-06	3.532288e-06	1.111183e-09	2.465582e+01	7.713751e+01
2.680000e-06	3.568009e-06	1.117091e-09	2.490516e+01	7.756777e+01
2.690000e-06	3.603605e-06	1.124604e-09	2.515362e+01	7.798844e+01
2.700000e-06	3.639084e-06	1.133283e-09	2.540126e+01	7.839989e+01
2.710000e-06	3.674401e-06	1.141275e-09	2.564779e+01	7.880245e+01
2.720000e-06	3.709451e-06	1.147074e-09	2.589244e+01	7.919644e+01
2.730000e-06	3.744107e-06	1.151312e-09	2.613434e+01	7.958215e+01
2.740000e-06	3.778367e-06	1.156024e-09	2.637348e+01	7.995984e+01
2.750000e-06	3.812270e-06	1.159873e-09	2.661012e+01	8.032977e+01
2.760000e-06	3.845743e-06	1.163564e-09	2.684377e+01	8.069217e+01
2.770000e-06	3.878700e-06	1.169152e-09	2.707382e+01	8.104724e+01
2.780000e-06	3.911248e-06	1.177067e-09	2.730101e+01	8.139516e+01
2.790000e-06	3.943494e-06	1.186873e-09	2.752609e+01	8.173608e+01
2.800000e-06	3.975497e-06	1.195421e-09	2.774947e+01	8.207016e+01
2.810000e-06	4.007339e-06	1.199687e-09	2.797173e+01	8.239750e+01
2.820000e-06	4.038989e-06	1.202117e-09	2.819265e+01	8.271821e+01
2.830000e-06	4.070413e-06	1.205438e-09	2.841199e+01	8.303237e+01
2.840000e-06	4.101659e-06	1.209080e-09	2.863010e+01	8.334003e+01
2.850000e-06	4.132632e-06	1.213179e-09	2.884629e+01	8.364125e+01
2.860000e-06	4.163242e-06	1.220000e-09	2.905995e+01	8.393605e+01
2.870000e-06	4.193529e-06	1.226178e-09	2.927136e+01	8.422445e+01
2.880000e-06	4.223513e-06	1.230012e-09	2.948066e+01	8.450645e+01
2.890000e-06	4.253199e-06	1.233053e-09	2.968787e+01	8.478204e+01
2.900000e-06	4.282679e-06	1.236833e-09	2.989364e+01	8.505120e+01
