# Temperatura_=_-1.7
# Concentracion g/m^3_=_1620.0
# C_Vs_to_Am_M_A/Vsm_=_65563218390.804596
# pendiente_HvsI_1/m_=_3716.3
# ordenada_HvsI_A/m_=_1297.0
# frecuencia_Hz_=_135105.94222062407

Tiempo_(s)	Campo_(V.s)	Magnetizacion_(V.s)	Campo_(kA/m)	Magnetizacion_(A/m)
0.000000e+00	-5.515148e-06	-9.337055e-10	-3.836336e+01	-6.237759e+01
1.000000e-08	-5.515387e-06	-9.306327e-10	-3.836502e+01	-6.235515e+01
2.000000e-08	-5.515355e-06	-9.298916e-10	-3.836480e+01	-6.233282e+01
3.000000e-08	-5.514886e-06	-9.317124e-10	-3.836154e+01	-6.231026e+01
4.000000e-08	-5.513885e-06	-9.302422e-10	-3.835457e+01	-6.228714e+01
5.000000e-08	-5.512266e-06	-9.179350e-10	-3.834331e+01	-6.226309e+01
6.000000e-08	-5.510123e-06	-9.059022e-10	-3.832841e+01	-6.223776e+01
7.000000e-08	-5.507434e-06	-9.180910e-10	-3.830970e+01	-6.221079e+01
8.000000e-08	-5.504162e-06	-9.561596e-10	-3.828694e+01	-6.218182e+01
9.000000e-08	-5.500414e-06	-1.007550e-09	-3.826087e+01	-6.215051e+01
1.000000e-07	-5.496303e-06	-1.023772e-09	-3.823227e+01	-6.211651e+01
1.100000e-07	-5.491944e-06	-9.294226e-10	-3.820195e+01	-6.207950e+01
1.200000e-07	-5.487402e-06	-8.221431e-10	-3.817036e+01	-6.203917e+01
1.300000e-07	-5.482703e-06	-8.818933e-10	-3.813767e+01	-6.199523e+01
1.400000e-07	-5.477555e-06	-9.704788e-10	-3.810186e+01	-6.194740e+01
1.500000e-07	-5.471906e-06	-9.446285e-10	-3.806257e+01	-6.189544e+01
1.600000e-07	-5.465896e-06	-8.490252e-10	-3.802076e+01	-6.183912e+01
1.700000e-07	-5.459515e-06	-8.973992e-10	-3.797638e+01	-6.177827e+01
1.800000e-07	-5.452732e-06	-1.024432e-09	-3.792919e+01	-6.171270e+01
1.900000e-07	-5.445554e-06	-9.626454e-10	-3.787926e+01	-6.164230e+01
2.000000e-07	-5.438057e-06	-8.640376e-10	-3.782711e+01	-6.156696e+01
2.100000e-07	-5.430294e-06	-8.658930e-10	-3.777311e+01	-6.148661e+01
2.200000e-07	-5.422246e-06	-9.874258e-10	-3.771713e+01	-6.140123e+01
2.300000e-07	-5.413867e-06	-9.783576e-10	-3.765885e+01	-6.131082e+01
2.400000e-07	-5.405067e-06	-9.236412e-10	-3.759763e+01	-6.121540e+01
2.500000e-07	-5.395570e-06	-9.057504e-10	-3.753158e+01	-6.111504e+01
2.600000e-07	-5.385306e-06	-9.481371e-10	-3.746018e+01	-6.100985e+01
2.700000e-07	-5.374481e-06	-9.161841e-10	-3.738488e+01	-6.089995e+01
2.800000e-07	-5.363218e-06	-8.929224e-10	-3.730654e+01	-6.078549e+01
2.900000e-07	-5.351550e-06	-9.103350e-10	-3.722537e+01	-6.066667e+01
3.000000e-07	-5.339551e-06	-9.246375e-10	-3.714190e+01	-6.054368e+01
3.100000e-07	-5.327187e-06	-9.018889e-10	-3.705590e+01	-6.041677e+01
3.200000e-07	-5.314354e-06	-8.806857e-10	-3.696663e+01	-6.028617e+01
3.300000e-07	-5.301171e-06	-8.960342e-10	-3.687493e+01	-6.015217e+01
3.400000e-07	-5.287688e-06	-8.995756e-10	-3.678115e+01	-6.001503e+01
3.500000e-07	-5.273724e-06	-9.070171e-10	-3.668401e+01	-5.987507e+01
3.600000e-07	-5.259201e-06	-8.932987e-10	-3.658299e+01	-5.973257e+01
3.700000e-07	-5.244248e-06	-9.112762e-10	-3.647898e+01	-5.958785e+01
3.800000e-07	-5.228817e-06	-9.164064e-10	-3.637164e+01	-5.944122e+01
3.900000e-07	-5.212774e-06	-9.014053e-10	-3.626005e+01	-5.929299e+01
4.000000e-07	-5.196277e-06	-8.718099e-10	-3.614529e+01	-5.914346e+01
4.100000e-07	-5.179537e-06	-9.046348e-10	-3.602885e+01	-5.899293e+01
4.200000e-07	-5.162472e-06	-8.967661e-10	-3.591015e+01	-5.884169e+01
4.300000e-07	-5.145008e-06	-8.641538e-10	-3.578866e+01	-5.869001e+01
4.400000e-07	-5.127303e-06	-8.913114e-10	-3.566551e+01	-5.853815e+01
4.500000e-07	-5.109306e-06	-9.543323e-10	-3.554032e+01	-5.838636e+01
4.600000e-07	-5.090782e-06	-8.888005e-10	-3.541147e+01	-5.823486e+01
4.700000e-07	-5.071763e-06	-8.509635e-10	-3.527918e+01	-5.808384e+01
4.800000e-07	-5.052436e-06	-9.078316e-10	-3.514474e+01	-5.793349e+01
4.900000e-07	-5.032892e-06	-9.161144e-10	-3.500879e+01	-5.778395e+01
5.000000e-07	-5.013122e-06	-8.425263e-10	-3.487127e+01	-5.763535e+01
5.100000e-07	-4.993125e-06	-8.812603e-10	-3.473217e+01	-5.748778e+01
5.200000e-07	-4.972858e-06	-9.198437e-10	-3.459119e+01	-5.734132e+01
5.300000e-07	-4.952285e-06	-8.696805e-10	-3.444808e+01	-5.719601e+01
5.400000e-07	-4.931325e-06	-8.697316e-10	-3.430229e+01	-5.705185e+01
5.500000e-07	-4.909956e-06	-9.260699e-10	-3.415365e+01	-5.690884e+01
5.600000e-07	-4.888300e-06	-8.708289e-10	-3.400300e+01	-5.676693e+01
5.700000e-07	-4.866395e-06	-8.300422e-10	-3.385063e+01	-5.662604e+01
5.800000e-07	-4.844128e-06	-8.932534e-10	-3.369574e+01	-5.648609e+01
5.900000e-07	-4.821410e-06	-8.987899e-10	-3.353772e+01	-5.634695e+01
6.000000e-07	-4.798333e-06	-8.412411e-10	-3.337719e+01	-5.620849e+01
6.100000e-07	-4.774985e-06	-8.643975e-10	-3.321479e+01	-5.607053e+01
6.200000e-07	-4.751365e-06	-8.865834e-10	-3.305049e+01	-5.593290e+01
6.300000e-07	-4.727557e-06	-8.346022e-10	-3.288488e+01	-5.579539e+01
6.400000e-07	-4.703610e-06	-8.345279e-10	-3.271830e+01	-5.565779e+01
6.500000e-07	-4.679346e-06	-8.664455e-10	-3.254952e+01	-5.551988e+01
6.600000e-07	-4.654632e-06	-8.486317e-10	-3.237761e+01	-5.538140e+01
6.700000e-07	-4.629414e-06	-8.360615e-10	-3.220219e+01	-5.524213e+01
6.800000e-07	-4.603515e-06	-8.668716e-10	-3.202204e+01	-5.510180e+01
6.900000e-07	-4.576975e-06	-8.544680e-10	-3.183743e+01	-5.496016e+01
7.000000e-07	-4.550041e-06	-8.351651e-10	-3.165007e+01	-5.481697e+01
7.100000e-07	-4.522826e-06	-8.420113e-10	-3.146077e+01	-5.467196e+01
7.200000e-07	-4.495363e-06	-8.472824e-10	-3.126974e+01	-5.452489e+01
7.300000e-07	-4.467712e-06	-8.282759e-10	-3.107739e+01	-5.437552e+01
7.400000e-07	-4.439935e-06	-8.340451e-10	-3.088418e+01	-5.422362e+01
7.500000e-07	-4.411879e-06	-8.352655e-10	-3.068902e+01	-5.406896e+01
7.600000e-07	-4.383474e-06	-8.274989e-10	-3.049144e+01	-5.391134e+01
7.700000e-07	-4.354766e-06	-8.188948e-10	-3.029174e+01	-5.375056e+01
7.800000e-07	-4.325718e-06	-8.215880e-10	-3.008969e+01	-5.358643e+01
7.900000e-07	-4.296361e-06	-8.157831e-10	-2.988548e+01	-5.341880e+01
8.000000e-07	-4.266729e-06	-8.162574e-10	-2.967936e+01	-5.324752e+01
8.100000e-07	-4.236886e-06	-8.120591e-10	-2.947177e+01	-5.307245e+01
8.200000e-07	-4.206741e-06	-8.032694e-10	-2.926208e+01	-5.289349e+01
8.300000e-07	-4.176202e-06	-7.943363e-10	-2.904965e+01	-5.271055e+01
8.400000e-07	-4.145299e-06	-7.968936e-10	-2.883469e+01	-5.252355e+01
8.500000e-07	-4.114105e-06	-7.910974e-10	-2.861770e+01	-5.233244e+01
8.600000e-07	-4.082753e-06	-7.855303e-10	-2.839962e+01	-5.213719e+01
8.700000e-07	-4.051263e-06	-7.864768e-10	-2.818058e+01	-5.193778e+01
8.800000e-07	-4.019596e-06	-7.847017e-10	-2.796030e+01	-5.173420e+01
8.900000e-07	-3.987782e-06	-7.745289e-10	-2.773901e+01	-5.152647e+01
9.000000e-07	-3.955811e-06	-7.646663e-10	-2.751662e+01	-5.131462e+01
9.100000e-07	-3.923535e-06	-7.601762e-10	-2.729210e+01	-5.109870e+01
9.200000e-07	-3.890740e-06	-7.503463e-10	-2.706398e+01	-5.087876e+01
9.300000e-07	-3.857398e-06	-7.465833e-10	-2.683206e+01	-5.065487e+01
9.400000e-07	-3.823625e-06	-7.491522e-10	-2.659713e+01	-5.042711e+01
9.500000e-07	-3.789496e-06	-7.483909e-10	-2.635973e+01	-5.019555e+01
9.600000e-07	-3.755006e-06	-7.379733e-10	-2.611981e+01	-4.996029e+01
9.700000e-07	-3.720108e-06	-7.348366e-10	-2.587706e+01	-4.972142e+01
9.800000e-07	-3.684880e-06	-7.300166e-10	-2.563202e+01	-4.947903e+01
9.900000e-07	-3.649461e-06	-7.231566e-10	-2.538564e+01	-4.923323e+01
1.000000e-06	-3.613887e-06	-7.176704e-10	-2.513819e+01	-4.898410e+01
1.010000e-06	-3.578199e-06	-7.196591e-10	-2.488995e+01	-4.873174e+01
1.020000e-06	-3.542373e-06	-7.165262e-10	-2.464074e+01	-4.847624e+01
1.030000e-06	-3.506357e-06	-7.131005e-10	-2.439021e+01	-4.821768e+01
1.040000e-06	-3.470145e-06	-7.090054e-10	-2.413832e+01	-4.795613e+01
1.050000e-06	-3.433599e-06	-7.059053e-10	-2.388411e+01	-4.769166e+01
1.060000e-06	-3.396696e-06	-6.963165e-10	-2.362741e+01	-4.742433e+01
1.070000e-06	-3.359565e-06	-6.927478e-10	-2.336913e+01	-4.715418e+01
1.080000e-06	-3.322276e-06	-6.897668e-10	-2.310974e+01	-4.688126e+01
1.090000e-06	-3.284819e-06	-6.858271e-10	-2.284919e+01	-4.660557e+01
1.100000e-06	-3.247112e-06	-6.812554e-10	-2.258691e+01	-4.632714e+01
1.110000e-06	-3.209121e-06	-6.790502e-10	-2.232264e+01	-4.604596e+01
1.120000e-06	-3.170850e-06	-6.726479e-10	-2.205643e+01	-4.576201e+01
1.130000e-06	-3.132320e-06	-6.653640e-10	-2.178841e+01	-4.547526e+01
1.140000e-06	-3.093570e-06	-6.612602e-10	-2.151887e+01	-4.518568e+01
1.150000e-06	-3.054731e-06	-6.577356e-10	-2.124871e+01	-4.489320e+01
1.160000e-06	-3.015748e-06	-6.532575e-10	-2.097754e+01	-4.459776e+01
1.170000e-06	-2.976503e-06	-6.516841e-10	-2.070455e+01	-4.429926e+01
1.180000e-06	-2.937153e-06	-6.508110e-10	-2.043083e+01	-4.399763e+01
1.190000e-06	-2.897742e-06	-6.460053e-10	-2.015669e+01	-4.369274e+01
1.200000e-06	-2.858140e-06	-6.395471e-10	-1.988121e+01	-4.338449e+01
1.210000e-06	-2.818372e-06	-6.317893e-10	-1.960459e+01	-4.307275e+01
1.220000e-06	-2.778447e-06	-6.231254e-10	-1.932687e+01	-4.275737e+01
1.230000e-06	-2.738281e-06	-6.162590e-10	-1.904748e+01	-4.243822e+01
1.240000e-06	-2.697905e-06	-6.136168e-10	-1.876662e+01	-4.211514e+01
1.250000e-06	-2.657417e-06	-6.106400e-10	-1.848499e+01	-4.178796e+01
1.260000e-06	-2.616812e-06	-6.076218e-10	-1.820254e+01	-4.145653e+01
1.270000e-06	-2.575951e-06	-6.018589e-10	-1.791831e+01	-4.112067e+01
1.280000e-06	-2.534866e-06	-5.984678e-10	-1.763252e+01	-4.078020e+01
1.290000e-06	-2.493436e-06	-5.925704e-10	-1.734433e+01	-4.043493e+01
1.300000e-06	-2.451548e-06	-5.848717e-10	-1.705296e+01	-4.008470e+01
1.310000e-06	-2.409290e-06	-5.764960e-10	-1.675902e+01	-3.972929e+01
1.320000e-06	-2.366718e-06	-5.696769e-10	-1.646288e+01	-3.936853e+01
1.330000e-06	-2.323946e-06	-5.620022e-10	-1.616536e+01	-3.900222e+01
1.340000e-06	-2.281001e-06	-5.550023e-10	-1.586664e+01	-3.863017e+01
1.350000e-06	-2.237826e-06	-5.479898e-10	-1.556631e+01	-3.825218e+01
1.360000e-06	-2.194503e-06	-5.407648e-10	-1.526496e+01	-3.786805e+01
1.370000e-06	-2.151093e-06	-5.348965e-10	-1.496300e+01	-3.747759e+01
1.380000e-06	-2.107526e-06	-5.331069e-10	-1.465995e+01	-3.708058e+01
1.390000e-06	-2.063804e-06	-5.278109e-10	-1.435581e+01	-3.667684e+01
1.400000e-06	-2.019983e-06	-5.200098e-10	-1.405100e+01	-3.626616e+01
1.410000e-06	-1.976108e-06	-5.119111e-10	-1.374580e+01	-3.584832e+01
1.420000e-06	-1.932182e-06	-5.050560e-10	-1.344025e+01	-3.542314e+01
1.430000e-06	-1.888197e-06	-4.976934e-10	-1.313429e+01	-3.499038e+01
1.440000e-06	-1.844181e-06	-4.904023e-10	-1.282812e+01	-3.454985e+01
1.450000e-06	-1.800053e-06	-4.829027e-10	-1.252116e+01	-3.410132e+01
1.460000e-06	-1.755720e-06	-4.739848e-10	-1.221279e+01	-3.364457e+01
1.470000e-06	-1.711249e-06	-4.653253e-10	-1.190344e+01	-3.317939e+01
1.480000e-06	-1.666654e-06	-4.571617e-10	-1.159324e+01	-3.270554e+01
1.490000e-06	-1.621905e-06	-4.488510e-10	-1.128196e+01	-3.222279e+01
1.500000e-06	-1.577041e-06	-4.417383e-10	-1.096989e+01	-3.173091e+01
1.510000e-06	-1.531993e-06	-4.350709e-10	-1.065654e+01	-3.122965e+01
1.520000e-06	-1.486805e-06	-4.265409e-10	-1.034221e+01	-3.071876e+01
1.530000e-06	-1.441528e-06	-4.184143e-10	-1.002727e+01	-3.019800e+01
1.540000e-06	-1.396156e-06	-4.084306e-10	-9.711660e+00	-2.966710e+01
1.550000e-06	-1.350692e-06	-3.964670e-10	-9.395409e+00	-2.912582e+01
1.560000e-06	-1.305156e-06	-3.857740e-10	-9.078664e+00	-2.857387e+01
1.570000e-06	-1.259646e-06	-3.765722e-10	-8.762097e+00	-2.801100e+01
1.580000e-06	-1.214056e-06	-3.679938e-10	-8.444974e+00	-2.743693e+01
1.590000e-06	-1.168318e-06	-3.627451e-10	-8.126817e+00	-2.685140e+01
1.600000e-06	-1.122522e-06	-3.558526e-10	-7.808260e+00	-2.625412e+01
1.610000e-06	-1.076674e-06	-3.455481e-10	-7.489343e+00	-2.564484e+01
1.620000e-06	-1.030762e-06	-3.352251e-10	-7.169980e+00	-2.502327e+01
1.630000e-06	-9.847955e-07	-3.273462e-10	-6.850235e+00	-2.438915e+01
1.640000e-06	-9.387008e-07	-3.187386e-10	-6.529601e+00	-2.374223e+01
1.650000e-06	-8.924243e-07	-3.085075e-10	-6.207702e+00	-2.308224e+01
1.660000e-06	-8.460603e-07	-2.997614e-10	-5.885194e+00	-2.240895e+01
1.670000e-06	-7.996963e-07	-2.906657e-10	-5.562686e+00	-2.172211e+01
1.680000e-06	-7.533159e-07	-2.794049e-10	-5.240064e+00	-2.102151e+01
1.690000e-06	-7.069291e-07	-2.697823e-10	-4.917398e+00	-2.030695e+01
1.700000e-06	-6.605396e-07	-2.599828e-10	-4.594712e+00	-1.957823e+01
1.710000e-06	-6.141231e-07	-2.493525e-10	-4.271839e+00	-1.883518e+01
1.720000e-06	-5.676426e-07	-2.374083e-10	-3.948521e+00	-1.807768e+01
1.730000e-06	-5.211375e-07	-2.243897e-10	-3.625031e+00	-1.730558e+01
1.740000e-06	-4.746064e-07	-2.090828e-10	-3.301361e+00	-1.651880e+01
1.750000e-06	-4.280393e-07	-1.959341e-10	-2.977441e+00	-1.571729e+01
1.760000e-06	-3.813703e-07	-1.856080e-10	-2.652811e+00	-1.490100e+01
1.770000e-06	-3.346432e-07	-1.755136e-10	-2.327777e+00	-1.406994e+01
1.780000e-06	-2.878904e-07	-1.688365e-10	-2.002565e+00	-1.322415e+01
1.790000e-06	-2.410830e-07	-1.624258e-10	-1.676973e+00	-1.236370e+01
1.800000e-06	-1.943224e-07	-1.512889e-10	-1.351706e+00	-1.148871e+01
1.810000e-06	-1.474787e-07	-1.365605e-10	-1.025861e+00	-1.059934e+01
1.820000e-06	-1.005747e-07	-1.220990e-10	-6.995973e-01	-9.695787e+00
1.830000e-06	-5.378249e-08	-1.104104e-10	-3.741109e-01	-8.778295e+00
1.840000e-06	-7.020230e-09	-9.991588e-11	-4.883270e-02	-7.847149e+00
1.850000e-06	3.982711e-08	-8.892220e-11	2.770373e-01	-6.902683e+00
1.860000e-06	8.662180e-08	-8.003656e-11	6.025411e-01	-5.945274e+00
1.870000e-06	1.333442e-07	-7.005161e-11	9.275419e-01	-4.975345e+00
1.880000e-06	1.800792e-07	-5.436786e-11	1.252631e+00	-3.993362e+00
1.890000e-06	2.267767e-07	-3.588770e-11	1.577458e+00	-2.999838e+00
1.900000e-06	2.735030e-07	-1.869421e-11	1.902487e+00	-1.995329e+00
1.910000e-06	3.202863e-07	-4.200631e-12	2.227911e+00	-9.804322e-01
1.920000e-06	3.670079e-07	6.706438e-12	2.552907e+00	4.421312e-02
1.930000e-06	4.136648e-07	1.732558e-11	2.877451e+00	1.077929e+00
1.940000e-06	4.602997e-07	3.106901e-11	3.201844e+00	2.119999e+00
1.950000e-06	5.068759e-07	4.844234e-11	3.525828e+00	3.169675e+00
1.960000e-06	5.534171e-07	6.709250e-11	3.849568e+00	4.226172e+00
1.970000e-06	5.998972e-07	8.307496e-11	4.172884e+00	5.288678e+00
1.980000e-06	6.462900e-07	9.502428e-11	4.495592e+00	6.356354e+00
1.990000e-06	6.925878e-07	1.071463e-10	4.817639e+00	7.428339e+00
2.000000e-06	7.388382e-07	1.200890e-10	5.139357e+00	8.503748e+00
2.010000e-06	7.850815e-07	1.373922e-10	5.461026e+00	9.581682e+00
2.020000e-06	8.312865e-07	1.570989e-10	5.782427e+00	1.066123e+01
2.030000e-06	8.774773e-07	1.761449e-10	6.103731e+00	1.174147e+01
2.040000e-06	9.236736e-07	1.922593e-10	6.425072e+00	1.282147e+01
2.050000e-06	9.698763e-07	2.064085e-10	6.746458e+00	1.390031e+01
2.060000e-06	1.015911e-06	2.189570e-10	7.066673e+00	1.497706e+01
2.070000e-06	1.061777e-06	2.314030e-10	7.385721e+00	1.605080e+01
2.080000e-06	1.107631e-06	2.455984e-10	7.704679e+00	1.712061e+01
2.090000e-06	1.153368e-06	2.624384e-10	8.022823e+00	1.818560e+01
2.100000e-06	1.198982e-06	2.828401e-10	8.340118e+00	1.924489e+01
2.110000e-06	1.244568e-06	3.005766e-10	8.657215e+00	2.029761e+01
2.120000e-06	1.290085e-06	3.142961e-10	8.973830e+00	2.134293e+01
2.130000e-06	1.335427e-06	3.268521e-10	9.289227e+00	2.238004e+01
2.140000e-06	1.380652e-06	3.411071e-10	9.603810e+00	2.340815e+01
2.150000e-06	1.425866e-06	3.558664e-10	9.918321e+00	2.442652e+01
2.160000e-06	1.470999e-06	3.712603e-10	1.023226e+01	2.543443e+01
2.170000e-06	1.516017e-06	3.867920e-10	1.054541e+01	2.643119e+01
2.180000e-06	1.560950e-06	4.036480e-10	1.085797e+01	2.741617e+01
2.190000e-06	1.605743e-06	4.168225e-10	1.116954e+01	2.838877e+01
2.200000e-06	1.650412e-06	4.270183e-10	1.148027e+01	2.934841e+01
2.210000e-06	1.694978e-06	4.372945e-10	1.179026e+01	3.029460e+01
2.220000e-06	1.739359e-06	4.487730e-10	1.209898e+01	3.122684e+01
2.230000e-06	1.783558e-06	4.625532e-10	1.240643e+01	3.214470e+01
2.240000e-06	1.827636e-06	4.749419e-10	1.271303e+01	3.304779e+01
2.250000e-06	1.871610e-06	4.876972e-10	1.301892e+01	3.393577e+01
2.260000e-06	1.915553e-06	4.986864e-10	1.332459e+01	3.480832e+01
2.270000e-06	1.959428e-06	5.121477e-10	1.362978e+01	3.566518e+01
2.280000e-06	2.003188e-06	5.254178e-10	1.393417e+01	3.650612e+01
2.290000e-06	2.046900e-06	5.375108e-10	1.423823e+01	3.733097e+01
2.300000e-06	2.090572e-06	5.499470e-10	1.454201e+01	3.813957e+01
2.310000e-06	2.134216e-06	5.607897e-10	1.484561e+01	3.893181e+01
2.320000e-06	2.177798e-06	5.713787e-10	1.514876e+01	3.970761e+01
2.330000e-06	2.221230e-06	5.816347e-10	1.545087e+01	4.046693e+01
2.340000e-06	2.264479e-06	5.930560e-10	1.575171e+01	4.120976e+01
2.350000e-06	2.307583e-06	6.066714e-10	1.605154e+01	4.193611e+01
2.360000e-06	2.350555e-06	6.208441e-10	1.635046e+01	4.264603e+01
2.370000e-06	2.393223e-06	6.304173e-10	1.664725e+01	4.333957e+01
2.380000e-06	2.435432e-06	6.377167e-10	1.694086e+01	4.401683e+01
2.390000e-06	2.477280e-06	6.451246e-10	1.723196e+01	4.467792e+01
2.400000e-06	2.518803e-06	6.527913e-10	1.752079e+01	4.532295e+01
2.410000e-06	2.560086e-06	6.598625e-10	1.780795e+01	4.595208e+01
2.420000e-06	2.601186e-06	6.689472e-10	1.809384e+01	4.656546e+01
2.430000e-06	2.641980e-06	6.821428e-10	1.837761e+01	4.716325e+01
2.440000e-06	2.682538e-06	6.941414e-10	1.865973e+01	4.774563e+01
2.450000e-06	2.722966e-06	7.010511e-10	1.894094e+01	4.831279e+01
2.460000e-06	2.763180e-06	7.079768e-10	1.922068e+01	4.886492e+01
2.470000e-06	2.803163e-06	7.153396e-10	1.949880e+01	4.940222e+01
2.480000e-06	2.843018e-06	7.212493e-10	1.977603e+01	4.992489e+01
2.490000e-06	2.882714e-06	7.267471e-10	2.005215e+01	5.043314e+01
2.500000e-06	2.922254e-06	7.315787e-10	2.032719e+01	5.092718e+01
2.510000e-06	2.961718e-06	7.380043e-10	2.060171e+01	5.140721e+01
2.520000e-06	3.001071e-06	7.464717e-10	2.087544e+01	5.187344e+01
2.530000e-06	3.040199e-06	7.538999e-10	2.114762e+01	5.232609e+01
2.540000e-06	3.079040e-06	7.600875e-10	2.141779e+01	5.276538e+01
2.550000e-06	3.117603e-06	7.650145e-10	2.168604e+01	5.319151e+01
2.560000e-06	3.155946e-06	7.697966e-10	2.195275e+01	5.360469e+01
2.570000e-06	3.194054e-06	7.751185e-10	2.221783e+01	5.400515e+01
2.580000e-06	3.231917e-06	7.799508e-10	2.248121e+01	5.439309e+01
2.590000e-06	3.269660e-06	7.843360e-10	2.274375e+01	5.476874e+01
2.600000e-06	3.307259e-06	7.901377e-10	2.300529e+01	5.513232e+01
2.610000e-06	3.344602e-06	7.958288e-10	2.326504e+01	5.548403e+01
2.620000e-06	3.381705e-06	8.004090e-10	2.352314e+01	5.582412e+01
2.630000e-06	3.418600e-06	8.050297e-10	2.377978e+01	5.615280e+01
2.640000e-06	3.455262e-06	8.098983e-10	2.403479e+01	5.647032e+01
2.650000e-06	3.491633e-06	8.148890e-10	2.428779e+01	5.677689e+01
2.660000e-06	3.527705e-06	8.186365e-10	2.453871e+01	5.707278e+01
2.670000e-06	3.563579e-06	8.212314e-10	2.478825e+01	5.735823e+01
2.680000e-06	3.599321e-06	8.246682e-10	2.503687e+01	5.763348e+01
2.690000e-06	3.634920e-06	8.296955e-10	2.528449e+01	5.789881e+01
2.700000e-06	3.670413e-06	8.348619e-10	2.553139e+01	5.815447e+01
2.710000e-06	3.705728e-06	8.395297e-10	2.577704e+01	5.840075e+01
2.720000e-06	3.740734e-06	8.439287e-10	2.602054e+01	5.863792e+01
2.730000e-06	3.775418e-06	8.482856e-10	2.626180e+01	5.886627e+01
2.740000e-06	3.809720e-06	8.520586e-10	2.650041e+01	5.908610e+01
2.750000e-06	3.843531e-06	8.554581e-10	2.673559e+01	5.929771e+01
2.760000e-06	3.876772e-06	8.591219e-10	2.696682e+01	5.950139e+01
2.770000e-06	3.909586e-06	8.637685e-10	2.719507e+01	5.969747e+01
2.780000e-06	3.942012e-06	8.675348e-10	2.742063e+01	5.988625e+01
2.790000e-06	3.974129e-06	8.709403e-10	2.764403e+01	6.006804e+01
2.800000e-06	4.006063e-06	8.724408e-10	2.786616e+01	6.024318e+01
2.810000e-06	4.037779e-06	8.734745e-10	2.808678e+01	6.041198e+01
2.820000e-06	4.069347e-06	8.771813e-10	2.830637e+01	6.057474e+01
2.830000e-06	4.100753e-06	8.822861e-10	2.852483e+01	6.073180e+01
2.840000e-06	4.131945e-06	8.885027e-10	2.874180e+01	6.088345e+01
2.850000e-06	4.162886e-06	8.973141e-10	2.895703e+01	6.103001e+01
2.860000e-06	4.193486e-06	9.030198e-10	2.916988e+01	6.117177e+01
2.870000e-06	4.223727e-06	9.053196e-10	2.938024e+01	6.130902e+01
2.880000e-06	4.253689e-06	9.040320e-10	2.958865e+01	6.144204e+01
2.890000e-06	4.283396e-06	9.021679e-10	2.979530e+01	6.157110e+01
2.900000e-06	4.312868e-06	9.013579e-10	3.000030e+01	6.169644e+01
