# Temperatura_=_-0.6
# Concentracion g/m^3_=_1620.0
# C_Vs_to_Am_M_A/Vsm_=_65563218390.804596
# pendiente_HvsI_1/m_=_3716.3
# ordenada_HvsI_A/m_=_1297.0
# frecuencia_Hz_=_135100.18121453532

Tiempo_(s)	Campo_(V.s)	Magnetizacion_(V.s)	Campo_(kA/m)	Magnetizacion_(A/m)
0.000000e+00	-5.508172e-06	-1.387869e-09	-3.837139e+01	-9.046697e+01
1.000000e-08	-5.508378e-06	-1.384026e-09	-3.837282e+01	-9.041512e+01
2.000000e-08	-5.508280e-06	-1.383668e-09	-3.837214e+01	-9.036150e+01
3.000000e-08	-5.507743e-06	-1.385411e-09	-3.836840e+01	-9.030603e+01
4.000000e-08	-5.506731e-06	-1.383022e-09	-3.836135e+01	-9.024867e+01
5.000000e-08	-5.505129e-06	-1.366894e-09	-3.835019e+01	-9.018936e+01
6.000000e-08	-5.502950e-06	-1.347054e-09	-3.833502e+01	-9.012803e+01
7.000000e-08	-5.500224e-06	-1.361308e-09	-3.831602e+01	-9.006465e+01
8.000000e-08	-5.496947e-06	-1.431299e-09	-3.829319e+01	-8.999915e+01
9.000000e-08	-5.493163e-06	-1.514292e-09	-3.826683e+01	-8.993151e+01
1.000000e-07	-5.488865e-06	-1.458456e-09	-3.823689e+01	-8.986168e+01
1.100000e-07	-5.484276e-06	-1.310507e-09	-3.820492e+01	-8.978964e+01
1.200000e-07	-5.479650e-06	-1.265703e-09	-3.817270e+01	-8.971535e+01
1.300000e-07	-5.474742e-06	-1.397893e-09	-3.813851e+01	-8.963880e+01
1.400000e-07	-5.469360e-06	-1.435126e-09	-3.810101e+01	-8.955998e+01
1.500000e-07	-5.463610e-06	-1.327730e-09	-3.806096e+01	-8.947888e+01
1.600000e-07	-5.457545e-06	-1.291867e-09	-3.801871e+01	-8.939550e+01
1.700000e-07	-5.451087e-06	-1.424646e-09	-3.797372e+01	-8.930984e+01
1.800000e-07	-5.444180e-06	-1.474823e-09	-3.792560e+01	-8.922192e+01
1.900000e-07	-5.436849e-06	-1.328079e-09	-3.787453e+01	-8.913173e+01
2.000000e-07	-5.429269e-06	-1.248584e-09	-3.782173e+01	-8.903930e+01
2.100000e-07	-5.421461e-06	-1.327170e-09	-3.776734e+01	-8.894465e+01
2.200000e-07	-5.413402e-06	-1.412419e-09	-3.771120e+01	-8.884778e+01
2.300000e-07	-5.405130e-06	-1.353608e-09	-3.765357e+01	-8.874872e+01
2.400000e-07	-5.396405e-06	-1.305710e-09	-3.759279e+01	-8.864749e+01
2.500000e-07	-5.386905e-06	-1.320639e-09	-3.752661e+01	-8.854410e+01
2.600000e-07	-5.376538e-06	-1.350273e-09	-3.745439e+01	-8.843856e+01
2.700000e-07	-5.365628e-06	-1.312650e-09	-3.737839e+01	-8.833087e+01
2.800000e-07	-5.354371e-06	-1.310360e-09	-3.729997e+01	-8.822105e+01
2.900000e-07	-5.342724e-06	-1.335508e-09	-3.721883e+01	-8.810907e+01
3.000000e-07	-5.330673e-06	-1.348809e-09	-3.713488e+01	-8.799494e+01
3.100000e-07	-5.318227e-06	-1.315787e-09	-3.704818e+01	-8.787863e+01
3.200000e-07	-5.305315e-06	-1.305460e-09	-3.695824e+01	-8.776010e+01
3.300000e-07	-5.292021e-06	-1.317529e-09	-3.686562e+01	-8.763932e+01
3.400000e-07	-5.278470e-06	-1.332149e-09	-3.677123e+01	-8.751624e+01
3.500000e-07	-5.264493e-06	-1.317272e-09	-3.667386e+01	-8.739079e+01
3.600000e-07	-5.250050e-06	-1.309528e-09	-3.657325e+01	-8.726290e+01
3.700000e-07	-5.235271e-06	-1.325178e-09	-3.647029e+01	-8.713249e+01
3.800000e-07	-5.220004e-06	-1.321472e-09	-3.636394e+01	-8.699946e+01
3.900000e-07	-5.204089e-06	-1.293668e-09	-3.625307e+01	-8.686370e+01
4.000000e-07	-5.187694e-06	-1.300196e-09	-3.613885e+01	-8.672509e+01
4.100000e-07	-5.171018e-06	-1.324027e-09	-3.602269e+01	-8.658350e+01
4.200000e-07	-5.154029e-06	-1.289862e-09	-3.590434e+01	-8.643879e+01
4.300000e-07	-5.136688e-06	-1.280955e-09	-3.578353e+01	-8.629081e+01
4.400000e-07	-5.119015e-06	-1.330530e-09	-3.566042e+01	-8.613941e+01
4.500000e-07	-5.100910e-06	-1.334868e-09	-3.553429e+01	-8.598442e+01
4.600000e-07	-5.082293e-06	-1.265874e-09	-3.540460e+01	-8.582567e+01
4.700000e-07	-5.063290e-06	-1.285490e-09	-3.527222e+01	-8.566298e+01
4.800000e-07	-5.043947e-06	-1.323924e-09	-3.513747e+01	-8.549617e+01
4.900000e-07	-5.024337e-06	-1.291793e-09	-3.500086e+01	-8.532507e+01
5.000000e-07	-5.004644e-06	-1.263721e-09	-3.486368e+01	-8.514950e+01
5.100000e-07	-4.984788e-06	-1.298722e-09	-3.472536e+01	-8.496927e+01
5.200000e-07	-4.964567e-06	-1.278084e-09	-3.458449e+01	-8.478421e+01
5.300000e-07	-4.943951e-06	-1.263217e-09	-3.444088e+01	-8.459415e+01
5.400000e-07	-4.922948e-06	-1.302453e-09	-3.429457e+01	-8.439893e+01
5.500000e-07	-4.901498e-06	-1.298419e-09	-3.414514e+01	-8.419839e+01
5.600000e-07	-4.879723e-06	-1.234137e-09	-3.399345e+01	-8.399238e+01
5.700000e-07	-4.857706e-06	-1.252373e-09	-3.384007e+01	-8.378078e+01
5.800000e-07	-4.835283e-06	-1.282777e-09	-3.368387e+01	-8.356347e+01
5.900000e-07	-4.812400e-06	-1.244343e-09	-3.352446e+01	-8.334033e+01
6.000000e-07	-4.789201e-06	-1.229576e-09	-3.336285e+01	-8.311128e+01
6.100000e-07	-4.765812e-06	-1.263493e-09	-3.319991e+01	-8.287625e+01
6.200000e-07	-4.742286e-06	-1.243180e-09	-3.303603e+01	-8.263517e+01
6.300000e-07	-4.718539e-06	-1.216302e-09	-3.287060e+01	-8.238802e+01
6.400000e-07	-4.694467e-06	-1.237173e-09	-3.270290e+01	-8.213478e+01
6.500000e-07	-4.670071e-06	-1.235840e-09	-3.253296e+01	-8.187544e+01
6.600000e-07	-4.645241e-06	-1.211596e-09	-3.235998e+01	-8.161003e+01
6.700000e-07	-4.619905e-06	-1.222932e-09	-3.218348e+01	-8.133859e+01
6.800000e-07	-4.594056e-06	-1.231688e-09	-3.200342e+01	-8.106118e+01
6.900000e-07	-4.567677e-06	-1.205898e-09	-3.181966e+01	-8.077789e+01
7.000000e-07	-4.540852e-06	-1.200422e-09	-3.163279e+01	-8.048879e+01
7.100000e-07	-4.513617e-06	-1.205410e-09	-3.144305e+01	-8.019402e+01
7.200000e-07	-4.486083e-06	-1.196022e-09	-3.125125e+01	-7.989370e+01
7.300000e-07	-4.458396e-06	-1.187226e-09	-3.105837e+01	-7.958797e+01
7.400000e-07	-4.430518e-06	-1.194174e-09	-3.086417e+01	-7.927701e+01
7.500000e-07	-4.402383e-06	-1.183867e-09	-3.066817e+01	-7.896097e+01
7.600000e-07	-4.374077e-06	-1.169444e-09	-3.047098e+01	-7.864003e+01
7.700000e-07	-4.345502e-06	-1.159550e-09	-3.027192e+01	-7.831440e+01
7.800000e-07	-4.316519e-06	-1.155222e-09	-3.007002e+01	-7.798425e+01
7.900000e-07	-4.287190e-06	-1.150429e-09	-2.986571e+01	-7.764980e+01
8.000000e-07	-4.257586e-06	-1.153758e-09	-2.965947e+01	-7.731124e+01
8.100000e-07	-4.227774e-06	-1.146876e-09	-2.945180e+01	-7.696878e+01
8.200000e-07	-4.197716e-06	-1.138843e-09	-2.924241e+01	-7.662261e+01
8.300000e-07	-4.167306e-06	-1.133554e-09	-2.903056e+01	-7.627293e+01
8.400000e-07	-4.136462e-06	-1.127876e-09	-2.881569e+01	-7.591993e+01
8.500000e-07	-4.105324e-06	-1.111348e-09	-2.859878e+01	-7.556378e+01
8.600000e-07	-4.074020e-06	-1.103282e-09	-2.838071e+01	-7.520466e+01
8.700000e-07	-4.042540e-06	-1.100198e-09	-2.816141e+01	-7.484273e+01
8.800000e-07	-4.010890e-06	-1.097123e-09	-2.794093e+01	-7.447811e+01
8.900000e-07	-3.979061e-06	-1.093559e-09	-2.771920e+01	-7.411095e+01
9.000000e-07	-3.947076e-06	-1.089596e-09	-2.749638e+01	-7.374135e+01
9.100000e-07	-3.914833e-06	-1.077870e-09	-2.727177e+01	-7.336940e+01
9.200000e-07	-3.882228e-06	-1.065735e-09	-2.704463e+01	-7.299518e+01
9.300000e-07	-3.849176e-06	-1.062425e-09	-2.681438e+01	-7.261873e+01
9.400000e-07	-3.815522e-06	-1.058116e-09	-2.657994e+01	-7.224009e+01
9.500000e-07	-3.781331e-06	-1.049039e-09	-2.634176e+01	-7.185926e+01
9.600000e-07	-3.746685e-06	-1.042052e-09	-2.610040e+01	-7.147623e+01
9.700000e-07	-3.711720e-06	-1.038263e-09	-2.585683e+01	-7.109098e+01
9.800000e-07	-3.676596e-06	-1.029284e-09	-2.561214e+01	-7.070345e+01
9.900000e-07	-3.641211e-06	-1.023025e-09	-2.536564e+01	-7.031357e+01
1.000000e-06	-3.605583e-06	-1.017782e-09	-2.511745e+01	-6.992123e+01
1.010000e-06	-3.569849e-06	-1.007307e-09	-2.486852e+01	-6.952634e+01
1.020000e-06	-3.534036e-06	-9.966273e-10	-2.461904e+01	-6.912876e+01
1.030000e-06	-3.498075e-06	-9.942935e-10	-2.436852e+01	-6.872836e+01
1.040000e-06	-3.461878e-06	-9.884579e-10	-2.411636e+01	-6.832497e+01
1.050000e-06	-3.425484e-06	-9.805586e-10	-2.386283e+01	-6.791842e+01
1.060000e-06	-3.388865e-06	-9.733443e-10	-2.360773e+01	-6.750853e+01
1.070000e-06	-3.351877e-06	-9.682750e-10	-2.335006e+01	-6.709512e+01
1.080000e-06	-3.314503e-06	-9.592419e-10	-2.308971e+01	-6.667799e+01
1.090000e-06	-3.276893e-06	-9.516654e-10	-2.282771e+01	-6.625694e+01
1.100000e-06	-3.239108e-06	-9.431561e-10	-2.256449e+01	-6.583176e+01
1.110000e-06	-3.201106e-06	-9.340614e-10	-2.229975e+01	-6.540226e+01
1.120000e-06	-3.162931e-06	-9.251155e-10	-2.203382e+01	-6.496823e+01
1.130000e-06	-3.124561e-06	-9.219199e-10	-2.176652e+01	-6.452947e+01
1.140000e-06	-3.085973e-06	-9.164658e-10	-2.149771e+01	-6.408580e+01
1.150000e-06	-3.047137e-06	-9.054963e-10	-2.122717e+01	-6.363702e+01
1.160000e-06	-3.008072e-06	-8.950367e-10	-2.095503e+01	-6.318296e+01
1.170000e-06	-2.968814e-06	-8.870536e-10	-2.068155e+01	-6.272345e+01
1.180000e-06	-2.929372e-06	-8.801357e-10	-2.040679e+01	-6.225834e+01
1.190000e-06	-2.889826e-06	-8.745726e-10	-2.013130e+01	-6.178748e+01
1.200000e-06	-2.850176e-06	-8.702346e-10	-1.985508e+01	-6.131075e+01
1.210000e-06	-2.810408e-06	-8.666463e-10	-1.957805e+01	-6.082802e+01
1.220000e-06	-2.770535e-06	-8.613105e-10	-1.930028e+01	-6.033918e+01
1.230000e-06	-2.730485e-06	-8.531892e-10	-1.902129e+01	-5.984416e+01
1.240000e-06	-2.690246e-06	-8.402012e-10	-1.874097e+01	-5.934288e+01
1.250000e-06	-2.649836e-06	-8.272746e-10	-1.845946e+01	-5.883526e+01
1.260000e-06	-2.609136e-06	-8.187339e-10	-1.817594e+01	-5.832126e+01
1.270000e-06	-2.568049e-06	-8.121883e-10	-1.788971e+01	-5.780084e+01
1.280000e-06	-2.526728e-06	-8.081878e-10	-1.760186e+01	-5.727397e+01
1.290000e-06	-2.485252e-06	-8.034115e-10	-1.731293e+01	-5.674062e+01
1.300000e-06	-2.443510e-06	-7.960489e-10	-1.702214e+01	-5.620077e+01
1.310000e-06	-2.401378e-06	-7.856244e-10	-1.672864e+01	-5.565442e+01
1.320000e-06	-2.358934e-06	-7.746488e-10	-1.643296e+01	-5.510155e+01
1.330000e-06	-2.316166e-06	-7.635675e-10	-1.613502e+01	-5.454215e+01
1.340000e-06	-2.273063e-06	-7.539216e-10	-1.583476e+01	-5.397620e+01
1.350000e-06	-2.229812e-06	-7.435688e-10	-1.553346e+01	-5.340369e+01
1.360000e-06	-2.186467e-06	-7.354632e-10	-1.523151e+01	-5.282460e+01
1.370000e-06	-2.143021e-06	-7.308775e-10	-1.492886e+01	-5.223887e+01
1.380000e-06	-2.099434e-06	-7.274623e-10	-1.462522e+01	-5.164646e+01
1.390000e-06	-2.055766e-06	-7.181828e-10	-1.432101e+01	-5.104731e+01
1.400000e-06	-2.012058e-06	-7.028846e-10	-1.401653e+01	-5.044132e+01
1.410000e-06	-1.968269e-06	-6.862900e-10	-1.371149e+01	-4.982839e+01
1.420000e-06	-1.924367e-06	-6.731791e-10	-1.340565e+01	-4.920839e+01
1.430000e-06	-1.880453e-06	-6.661986e-10	-1.309974e+01	-4.858116e+01
1.440000e-06	-1.836527e-06	-6.624658e-10	-1.279374e+01	-4.794652e+01
1.450000e-06	-1.792455e-06	-6.560555e-10	-1.248672e+01	-4.730426e+01
1.460000e-06	-1.748283e-06	-6.462510e-10	-1.217900e+01	-4.665413e+01
1.470000e-06	-1.703985e-06	-6.318782e-10	-1.187041e+01	-4.599586e+01
1.480000e-06	-1.659450e-06	-6.144499e-10	-1.156017e+01	-4.532915e+01
1.490000e-06	-1.614742e-06	-5.983912e-10	-1.124872e+01	-4.465364e+01
1.500000e-06	-1.569846e-06	-5.890510e-10	-1.093596e+01	-4.396898e+01
1.510000e-06	-1.524803e-06	-5.840485e-10	-1.062218e+01	-4.327475e+01
1.520000e-06	-1.479724e-06	-5.792980e-10	-1.030815e+01	-4.257051e+01
1.530000e-06	-1.434575e-06	-5.715341e-10	-9.993633e+00	-4.185581e+01
1.540000e-06	-1.389385e-06	-5.578572e-10	-9.678823e+00	-4.113015e+01
1.550000e-06	-1.344062e-06	-5.405530e-10	-9.363090e+00	-4.039299e+01
1.560000e-06	-1.298592e-06	-5.244206e-10	-9.046338e+00	-3.964380e+01
1.570000e-06	-1.253067e-06	-5.095063e-10	-8.729195e+00	-3.888200e+01
1.580000e-06	-1.207436e-06	-4.984936e-10	-8.411319e+00	-3.810701e+01
1.590000e-06	-1.161733e-06	-4.933660e-10	-8.092943e+00	-3.731821e+01
1.600000e-06	-1.115951e-06	-4.874919e-10	-7.774014e+00	-3.651500e+01
1.610000e-06	-1.070086e-06	-4.764872e-10	-7.454500e+00	-3.569675e+01
1.620000e-06	-1.024191e-06	-4.632382e-10	-7.134788e+00	-3.486284e+01
1.630000e-06	-9.782468e-07	-4.504259e-10	-6.814727e+00	-3.401264e+01
1.640000e-06	-9.322148e-07	-4.345091e-10	-6.494056e+00	-3.314552e+01
1.650000e-06	-8.861029e-07	-4.157027e-10	-6.172828e+00	-3.226090e+01
1.660000e-06	-8.399256e-07	-4.006648e-10	-5.851145e+00	-3.135817e+01
1.670000e-06	-7.936257e-07	-3.885819e-10	-5.528608e+00	-3.043677e+01
1.680000e-06	-7.473318e-07	-3.753429e-10	-5.206112e+00	-2.949616e+01
1.690000e-06	-7.010721e-07	-3.638367e-10	-4.883854e+00	-2.853583e+01
1.700000e-06	-6.547602e-07	-3.511989e-10	-4.561233e+00	-2.755532e+01
1.710000e-06	-6.083507e-07	-3.367161e-10	-4.237933e+00	-2.655418e+01
1.720000e-06	-5.618518e-07	-3.198426e-10	-3.914009e+00	-2.553206e+01
1.730000e-06	-5.153361e-07	-2.991838e-10	-3.589968e+00	-2.448861e+01
1.740000e-06	-4.687283e-07	-2.760925e-10	-3.265286e+00	-2.342357e+01
1.750000e-06	-4.220863e-07	-2.576056e-10	-2.940365e+00	-2.233673e+01
1.760000e-06	-3.754705e-07	-2.442742e-10	-2.615627e+00	-2.122795e+01
1.770000e-06	-3.288615e-07	-2.322333e-10	-2.290937e+00	-2.009716e+01
1.780000e-06	-2.821276e-07	-2.199843e-10	-1.965376e+00	-1.894435e+01
1.790000e-06	-2.352912e-07	-2.065880e-10	-1.639101e+00	-1.776960e+01
1.800000e-06	-1.884609e-07	-1.897176e-10	-1.312868e+00	-1.657305e+01
1.810000e-06	-1.416716e-07	-1.705586e-10	-9.869220e-01	-1.535495e+01
1.820000e-06	-9.491483e-08	-1.521266e-10	-6.612019e-01	-1.411558e+01
1.830000e-06	-4.815042e-08	-1.356820e-10	-3.354286e-01	-1.285535e+01
1.840000e-06	-1.446450e-09	-1.197189e-10	-1.007635e-02	-1.157473e+01
1.850000e-06	4.519134e-08	-1.045942e-10	3.148149e-01	-1.027427e+01
1.860000e-06	9.187391e-08	-9.246767e-11	6.400181e-01	-8.954585e+00
1.870000e-06	1.385810e-07	-7.716782e-11	9.653920e-01	-7.616401e+00
1.880000e-06	1.853091e-07	-5.714576e-11	1.290912e+00	-6.260497e+00
1.890000e-06	2.320490e-07	-3.616254e-11	1.616515e+00	-4.887732e+00
1.900000e-06	2.786795e-07	-1.567670e-11	1.941355e+00	-3.499034e+00
1.910000e-06	3.252555e-07	3.683293e-12	2.265817e+00	-2.095400e+00
1.920000e-06	3.719062e-07	2.118561e-11	2.590798e+00	-6.778887e-01
1.930000e-06	4.185696e-07	3.824227e-11	2.915867e+00	7.523819e-01
1.940000e-06	4.651517e-07	5.665622e-11	3.240370e+00	2.194240e+00
1.950000e-06	5.116570e-07	7.510512e-11	3.564338e+00	3.646466e+00
1.960000e-06	5.580730e-07	9.531801e-11	3.887685e+00	5.107796e+00
1.970000e-06	6.044907e-07	1.159835e-10	4.211043e+00	6.576929e+00
1.980000e-06	6.508696e-07	1.359600e-10	4.534131e+00	8.052531e+00
1.990000e-06	6.971969e-07	1.574385e-10	4.856859e+00	9.533247e+00
2.000000e-06	7.434961e-07	1.764507e-10	5.179392e+00	1.101770e+01
2.010000e-06	7.897192e-07	1.977686e-10	5.501394e+00	1.250449e+01
2.020000e-06	8.358838e-07	2.193595e-10	5.822989e+00	1.399224e+01
2.030000e-06	8.819964e-07	2.421760e-10	6.144221e+00	1.547954e+01
2.040000e-06	9.281170e-07	2.629722e-10	6.465510e+00	1.696501e+01
2.050000e-06	9.741517e-07	2.808292e-10	6.786200e+00	1.844726e+01
2.060000e-06	1.020054e-06	2.995355e-10	7.105969e+00	1.992495e+01
2.070000e-06	1.065898e-06	3.218190e-10	7.425330e+00	2.139673e+01
2.080000e-06	1.111639e-06	3.460968e-10	7.743974e+00	2.286131e+01
2.090000e-06	1.157353e-06	3.698400e-10	8.062431e+00	2.431741e+01
2.100000e-06	1.202999e-06	3.928889e-10	8.380413e+00	2.576382e+01
2.110000e-06	1.248452e-06	4.108107e-10	8.697049e+00	2.719934e+01
2.120000e-06	1.293844e-06	4.278253e-10	9.013264e+00	2.862284e+01
2.130000e-06	1.339283e-06	4.467270e-10	9.329803e+00	3.003325e+01
2.140000e-06	1.384635e-06	4.683202e-10	9.645736e+00	3.142955e+01
2.150000e-06	1.429843e-06	4.905896e-10	9.960669e+00	3.281076e+01
2.160000e-06	1.474952e-06	5.104103e-10	1.027491e+01	3.417599e+01
2.170000e-06	1.519947e-06	5.278570e-10	1.058835e+01	3.552439e+01
2.180000e-06	1.564823e-06	5.465004e-10	1.090097e+01	3.685521e+01
2.190000e-06	1.609500e-06	5.628781e-10	1.121220e+01	3.816772e+01
2.200000e-06	1.654008e-06	5.782255e-10	1.152226e+01	3.946130e+01
2.210000e-06	1.698386e-06	5.919545e-10	1.183141e+01	4.073537e+01
2.220000e-06	1.742603e-06	6.102381e-10	1.213943e+01	4.198942e+01
2.230000e-06	1.786754e-06	6.304551e-10	1.244700e+01	4.322303e+01
2.240000e-06	1.830856e-06	6.473047e-10	1.275423e+01	4.443581e+01
2.250000e-06	1.874851e-06	6.633213e-10	1.306071e+01	4.562746e+01
2.260000e-06	1.918735e-06	6.756538e-10	1.336642e+01	4.679773e+01
2.270000e-06	1.962550e-06	6.929585e-10	1.367165e+01	4.794642e+01
2.280000e-06	2.006304e-06	7.113040e-10	1.397644e+01	4.907342e+01
2.290000e-06	2.049977e-06	7.281975e-10	1.428068e+01	5.017863e+01
2.300000e-06	2.093600e-06	7.426710e-10	1.458457e+01	5.126203e+01
2.310000e-06	2.137190e-06	7.552431e-10	1.488823e+01	5.232365e+01
2.320000e-06	2.180720e-06	7.700269e-10	1.519147e+01	5.336354e+01
2.330000e-06	2.224144e-06	7.842370e-10	1.549398e+01	5.438181e+01
2.340000e-06	2.267421e-06	8.002689e-10	1.579546e+01	5.537860e+01
2.350000e-06	2.310420e-06	8.169854e-10	1.609500e+01	5.635410e+01
2.360000e-06	2.353179e-06	8.318744e-10	1.639287e+01	5.730850e+01
2.370000e-06	2.395752e-06	8.430543e-10	1.668944e+01	5.824204e+01
2.380000e-06	2.437951e-06	8.532693e-10	1.698341e+01	5.915498e+01
2.390000e-06	2.479781e-06	8.642203e-10	1.727481e+01	6.004758e+01
2.400000e-06	2.521253e-06	8.749151e-10	1.756372e+01	6.092014e+01
2.410000e-06	2.562389e-06	8.868274e-10	1.785028e+01	6.177297e+01
2.420000e-06	2.603276e-06	8.996369e-10	1.813511e+01	6.260637e+01
2.430000e-06	2.643896e-06	9.133296e-10	1.841809e+01	6.342067e+01
2.440000e-06	2.684233e-06	9.257252e-10	1.869908e+01	6.421620e+01
2.450000e-06	2.724365e-06	9.338054e-10	1.897865e+01	6.499328e+01
2.460000e-06	2.764336e-06	9.434270e-10	1.925710e+01	6.575224e+01
2.470000e-06	2.804138e-06	9.541754e-10	1.953437e+01	6.649341e+01
2.480000e-06	2.843869e-06	9.642681e-10	1.981115e+01	6.721711e+01
2.490000e-06	2.883561e-06	9.750851e-10	2.008765e+01	6.792367e+01
2.500000e-06	2.923086e-06	9.862758e-10	2.036300e+01	6.861339e+01
2.510000e-06	2.962467e-06	9.987317e-10	2.063733e+01	6.928659e+01
2.520000e-06	3.001726e-06	1.010800e-09	2.091082e+01	6.994357e+01
2.530000e-06	3.040766e-06	1.019673e-09	2.118278e+01	7.058461e+01
2.540000e-06	3.079487e-06	1.025845e-09	2.145253e+01	7.121001e+01
2.550000e-06	3.117960e-06	1.032310e-09	2.172054e+01	7.182005e+01
2.560000e-06	3.156307e-06	1.039809e-09	2.198767e+01	7.241500e+01
2.570000e-06	3.194436e-06	1.049155e-09	2.225329e+01	7.299512e+01
2.580000e-06	3.232350e-06	1.060291e-09	2.251741e+01	7.356067e+01
2.590000e-06	3.270109e-06	1.070451e-09	2.278045e+01	7.411191e+01
2.600000e-06	3.307703e-06	1.078956e-09	2.304234e+01	7.464910e+01
2.610000e-06	3.345125e-06	1.083892e-09	2.330303e+01	7.517246e+01
2.620000e-06	3.382279e-06	1.085359e-09	2.356185e+01	7.568226e+01
2.630000e-06	3.419113e-06	1.086239e-09	2.381845e+01	7.617873e+01
2.640000e-06	3.455628e-06	1.091285e-09	2.407282e+01	7.666211e+01
2.650000e-06	3.491781e-06	1.102513e-09	2.432468e+01	7.713264e+01
2.660000e-06	3.527740e-06	1.113335e-09	2.457517e+01	7.759058e+01
2.670000e-06	3.563580e-06	1.122155e-09	2.482485e+01	7.803616e+01
2.680000e-06	3.599263e-06	1.129672e-09	2.507342e+01	7.846963e+01
2.690000e-06	3.634858e-06	1.135354e-09	2.532139e+01	7.889124e+01
2.700000e-06	3.670322e-06	1.139565e-09	2.556844e+01	7.930125e+01
2.710000e-06	3.705576e-06	1.143926e-09	2.581403e+01	7.969991e+01
2.720000e-06	3.740577e-06	1.149986e-09	2.605785e+01	8.008750e+01
2.730000e-06	3.775314e-06	1.156285e-09	2.629984e+01	8.046428e+01
2.740000e-06	3.809504e-06	1.161372e-09	2.653802e+01	8.083052e+01
2.750000e-06	3.843087e-06	1.167567e-09	2.677196e+01	8.118651e+01
2.760000e-06	3.876219e-06	1.173940e-09	2.700277e+01	8.153253e+01
2.770000e-06	3.908927e-06	1.179884e-09	2.723063e+01	8.186887e+01
2.780000e-06	3.941291e-06	1.184784e-09	2.745608e+01	8.219582e+01
2.790000e-06	3.973384e-06	1.188723e-09	2.767965e+01	8.251367e+01
2.800000e-06	4.005283e-06	1.192550e-09	2.790186e+01	8.282272e+01
2.810000e-06	4.037015e-06	1.195671e-09	2.812292e+01	8.312327e+01
2.820000e-06	4.068639e-06	1.198778e-09	2.834322e+01	8.341562e+01
2.830000e-06	4.100083e-06	1.204861e-09	2.856227e+01	8.370007e+01
2.840000e-06	4.131260e-06	1.214698e-09	2.877946e+01	8.397690e+01
2.850000e-06	4.162110e-06	1.225072e-09	2.899436e+01	8.424642e+01
2.860000e-06	4.192645e-06	1.232470e-09	2.920708e+01	8.450890e+01
2.870000e-06	4.222825e-06	1.235219e-09	2.941732e+01	8.476462e+01
2.880000e-06	4.252680e-06	1.233831e-09	2.962530e+01	8.501387e+01
2.890000e-06	4.282297e-06	1.232310e-09	2.983162e+01	8.525689e+01
2.900000e-06	4.311647e-06	1.234958e-09	3.003608e+01	8.549396e+01
