# Temperatura_=_6.7
# Concentracion g/m^3_=_1620.0
# C_Vs_to_Am_M_A/Vsm_=_65563218390.804596
# pendiente_HvsI_1/m_=_3716.3
# ordenada_HvsI_A/m_=_1297.0
# frecuencia_Hz_=_135090.80928533874

Tiempo_(s)	Campo_(V.s)	Magnetizacion_(V.s)	Campo_(kA/m)	Magnetizacion_(A/m)
0.000000e+00	-5.526549e-06	-1.190405e-09	-3.838065e+01	-8.171996e+01
1.000000e-08	-5.526635e-06	-1.188562e-09	-3.838125e+01	-8.168763e+01
2.000000e-08	-5.526288e-06	-1.186651e-09	-3.837884e+01	-8.165889e+01
3.000000e-08	-5.525509e-06	-1.183728e-09	-3.837343e+01	-8.163376e+01
4.000000e-08	-5.524290e-06	-1.178965e-09	-3.836496e+01	-8.161226e+01
5.000000e-08	-5.522416e-06	-1.168982e-09	-3.835195e+01	-8.159431e+01
6.000000e-08	-5.519940e-06	-1.183081e-09	-3.833475e+01	-8.157981e+01
7.000000e-08	-5.517043e-06	-1.230389e-09	-3.831463e+01	-8.156860e+01
8.000000e-08	-5.513635e-06	-1.218703e-09	-3.829097e+01	-8.156046e+01
9.000000e-08	-5.509858e-06	-1.166026e-09	-3.826474e+01	-8.155514e+01
1.000000e-07	-5.505803e-06	-1.222024e-09	-3.823658e+01	-8.155234e+01
1.100000e-07	-5.501367e-06	-1.208901e-09	-3.820577e+01	-8.155170e+01
1.200000e-07	-5.496655e-06	-1.161787e-09	-3.817305e+01	-8.155284e+01
1.300000e-07	-5.491675e-06	-1.141592e-09	-3.813846e+01	-8.155532e+01
1.400000e-07	-5.486304e-06	-1.187597e-09	-3.810116e+01	-8.155867e+01
1.500000e-07	-5.480550e-06	-1.227580e-09	-3.806120e+01	-8.156241e+01
1.600000e-07	-5.474492e-06	-1.154560e-09	-3.801913e+01	-8.156600e+01
1.700000e-07	-5.468120e-06	-1.183773e-09	-3.797488e+01	-8.156890e+01
1.800000e-07	-5.461239e-06	-1.235622e-09	-3.792709e+01	-8.157055e+01
1.900000e-07	-5.453922e-06	-1.252275e-09	-3.787628e+01	-8.157036e+01
2.000000e-07	-5.446413e-06	-1.192631e-09	-3.782412e+01	-8.156775e+01
2.100000e-07	-5.438693e-06	-1.195142e-09	-3.777051e+01	-8.156213e+01
2.200000e-07	-5.430536e-06	-1.228399e-09	-3.771386e+01	-8.155289e+01
2.300000e-07	-5.421841e-06	-1.251702e-09	-3.765348e+01	-8.153946e+01
2.400000e-07	-5.412642e-06	-1.235362e-09	-3.758959e+01	-8.152126e+01
2.500000e-07	-5.402927e-06	-1.236637e-09	-3.752212e+01	-8.149773e+01
2.600000e-07	-5.392593e-06	-1.247764e-09	-3.745036e+01	-8.146832e+01
2.700000e-07	-5.381714e-06	-1.232083e-09	-3.737481e+01	-8.143252e+01
2.800000e-07	-5.370365e-06	-1.227540e-09	-3.729599e+01	-8.138984e+01
2.900000e-07	-5.358591e-06	-1.227611e-09	-3.721422e+01	-8.133982e+01
3.000000e-07	-5.346457e-06	-1.224127e-09	-3.712995e+01	-8.128202e+01
3.100000e-07	-5.333979e-06	-1.225948e-09	-3.704330e+01	-8.121608e+01
3.200000e-07	-5.321156e-06	-1.247838e-09	-3.695425e+01	-8.114164e+01
3.300000e-07	-5.307934e-06	-1.223587e-09	-3.686242e+01	-8.105840e+01
3.400000e-07	-5.294297e-06	-1.224026e-09	-3.676771e+01	-8.096610e+01
3.500000e-07	-5.280192e-06	-1.242021e-09	-3.666976e+01	-8.086453e+01
3.600000e-07	-5.265634e-06	-1.216590e-09	-3.656865e+01	-8.075353e+01
3.700000e-07	-5.250495e-06	-1.188061e-09	-3.646352e+01	-8.063299e+01
3.800000e-07	-5.234833e-06	-1.246490e-09	-3.635475e+01	-8.050283e+01
3.900000e-07	-5.218861e-06	-1.236838e-09	-3.624383e+01	-8.036304e+01
4.000000e-07	-5.202416e-06	-1.169803e-09	-3.612962e+01	-8.021364e+01
4.100000e-07	-5.185478e-06	-1.204097e-09	-3.601199e+01	-8.005471e+01
4.200000e-07	-5.168226e-06	-1.260858e-09	-3.589218e+01	-7.988636e+01
4.300000e-07	-5.150704e-06	-1.172718e-09	-3.577049e+01	-7.970877e+01
4.400000e-07	-5.132807e-06	-1.164919e-09	-3.564620e+01	-7.952212e+01
4.500000e-07	-5.114453e-06	-1.263755e-09	-3.551874e+01	-7.932665e+01
4.600000e-07	-5.095701e-06	-1.215426e-09	-3.538851e+01	-7.912265e+01
4.700000e-07	-5.076671e-06	-1.136389e-09	-3.525635e+01	-7.891041e+01
4.800000e-07	-5.057436e-06	-1.234352e-09	-3.512277e+01	-7.869026e+01
4.900000e-07	-5.037918e-06	-1.246920e-09	-3.498722e+01	-7.846256e+01
5.000000e-07	-5.018176e-06	-1.127744e-09	-3.485011e+01	-7.822769e+01
5.100000e-07	-4.998213e-06	-1.173489e-09	-3.471148e+01	-7.798604e+01
5.200000e-07	-4.977902e-06	-1.252538e-09	-3.457042e+01	-7.773802e+01
5.300000e-07	-4.957178e-06	-1.157145e-09	-3.442649e+01	-7.748404e+01
5.400000e-07	-4.936021e-06	-1.139707e-09	-3.427956e+01	-7.722452e+01
5.500000e-07	-4.914519e-06	-1.235205e-09	-3.413024e+01	-7.695987e+01
5.600000e-07	-4.892694e-06	-1.171377e-09	-3.397867e+01	-7.669053e+01
5.700000e-07	-4.870534e-06	-1.109109e-09	-3.382477e+01	-7.641689e+01
5.800000e-07	-4.848064e-06	-1.200031e-09	-3.366873e+01	-7.613936e+01
5.900000e-07	-4.825240e-06	-1.199166e-09	-3.351022e+01	-7.585831e+01
6.000000e-07	-4.802077e-06	-1.113852e-09	-3.334936e+01	-7.557413e+01
6.100000e-07	-4.778768e-06	-1.157053e-09	-3.318748e+01	-7.528715e+01
6.200000e-07	-4.755284e-06	-1.182015e-09	-3.302439e+01	-7.499771e+01
6.300000e-07	-4.731494e-06	-1.113718e-09	-3.285917e+01	-7.470610e+01
6.400000e-07	-4.707414e-06	-1.124607e-09	-3.269194e+01	-7.441260e+01
6.500000e-07	-4.682858e-06	-1.170520e-09	-3.252141e+01	-7.411745e+01
6.600000e-07	-4.657765e-06	-1.123701e-09	-3.234714e+01	-7.382087e+01
6.700000e-07	-4.632155e-06	-1.113225e-09	-3.216929e+01	-7.352305e+01
6.800000e-07	-4.605957e-06	-1.150779e-09	-3.198735e+01	-7.322413e+01
6.900000e-07	-4.579306e-06	-1.125691e-09	-3.180226e+01	-7.292424e+01
7.000000e-07	-4.552372e-06	-1.094262e-09	-3.161521e+01	-7.262347e+01
7.100000e-07	-4.525096e-06	-1.121105e-09	-3.142578e+01	-7.232188e+01
7.200000e-07	-4.497539e-06	-1.114007e-09	-3.123440e+01	-7.201948e+01
7.300000e-07	-4.469807e-06	-1.088853e-09	-3.104181e+01	-7.171628e+01
7.400000e-07	-4.441829e-06	-1.100696e-09	-3.084751e+01	-7.141225e+01
7.500000e-07	-4.413603e-06	-1.105261e-09	-3.065149e+01	-7.110733e+01
7.600000e-07	-4.385057e-06	-1.081073e-09	-3.045324e+01	-7.080142e+01
7.700000e-07	-4.356191e-06	-1.077577e-09	-3.025278e+01	-7.049443e+01
7.800000e-07	-4.327055e-06	-1.082980e-09	-3.005043e+01	-7.018623e+01
7.900000e-07	-4.297616e-06	-1.066843e-09	-2.984599e+01	-6.987665e+01
8.000000e-07	-4.267901e-06	-1.058634e-09	-2.963962e+01	-6.956555e+01
8.100000e-07	-4.237815e-06	-1.065889e-09	-2.943068e+01	-6.925274e+01
8.200000e-07	-4.207409e-06	-1.055376e-09	-2.921951e+01	-6.893802e+01
8.300000e-07	-4.176835e-06	-1.042000e-09	-2.900719e+01	-6.862121e+01
8.400000e-07	-4.145961e-06	-1.045230e-09	-2.879277e+01	-6.830209e+01
8.500000e-07	-4.114868e-06	-1.036775e-09	-2.857684e+01	-6.798045e+01
8.600000e-07	-4.083610e-06	-1.021633e-09	-2.835976e+01	-6.765608e+01
8.700000e-07	-4.052138e-06	-1.023491e-09	-2.814120e+01	-6.732877e+01
8.800000e-07	-4.020490e-06	-1.024551e-09	-2.792141e+01	-6.699833e+01
8.900000e-07	-3.988582e-06	-1.009241e-09	-2.769981e+01	-6.666454e+01
9.000000e-07	-3.956352e-06	-1.005836e-09	-2.747598e+01	-6.632721e+01
9.100000e-07	-3.923728e-06	-1.010650e-09	-2.724942e+01	-6.598617e+01
9.200000e-07	-3.890676e-06	-9.996262e-10	-2.701988e+01	-6.564125e+01
9.300000e-07	-3.857194e-06	-9.870516e-10	-2.678735e+01	-6.529228e+01
9.400000e-07	-3.823256e-06	-9.883205e-10	-2.655166e+01	-6.493913e+01
9.500000e-07	-3.788961e-06	-9.785516e-10	-2.631349e+01	-6.458168e+01
9.600000e-07	-3.754265e-06	-9.607487e-10	-2.607253e+01	-6.421980e+01
9.700000e-07	-3.719247e-06	-9.564091e-10	-2.582934e+01	-6.385341e+01
9.800000e-07	-3.683977e-06	-9.555159e-10	-2.558440e+01	-6.348243e+01
9.900000e-07	-3.648448e-06	-9.432014e-10	-2.533766e+01	-6.310681e+01
1.000000e-06	-3.612847e-06	-9.394576e-10	-2.509042e+01	-6.272650e+01
1.010000e-06	-3.577182e-06	-9.422482e-10	-2.484273e+01	-6.234149e+01
1.020000e-06	-3.541313e-06	-9.359333e-10	-2.459363e+01	-6.195175e+01
1.030000e-06	-3.505149e-06	-9.234196e-10	-2.434248e+01	-6.155731e+01
1.040000e-06	-3.468764e-06	-9.170021e-10	-2.408979e+01	-6.115817e+01
1.050000e-06	-3.432176e-06	-9.071208e-10	-2.383570e+01	-6.075439e+01
1.060000e-06	-3.395358e-06	-8.955766e-10	-2.358000e+01	-6.034601e+01
1.070000e-06	-3.358302e-06	-8.926655e-10	-2.332266e+01	-5.993309e+01
1.080000e-06	-3.320931e-06	-8.900878e-10	-2.306312e+01	-5.951569e+01
1.090000e-06	-3.283274e-06	-8.805209e-10	-2.280160e+01	-5.909390e+01
1.100000e-06	-3.245290e-06	-8.714049e-10	-2.253782e+01	-5.866779e+01
1.110000e-06	-3.207074e-06	-8.635434e-10	-2.227242e+01	-5.823744e+01
1.120000e-06	-3.168726e-06	-8.520044e-10	-2.200610e+01	-5.780296e+01
1.130000e-06	-3.130102e-06	-8.416272e-10	-2.173786e+01	-5.736441e+01
1.140000e-06	-3.091254e-06	-8.355911e-10	-2.146807e+01	-5.692189e+01
1.150000e-06	-3.052314e-06	-8.278563e-10	-2.119764e+01	-5.647548e+01
1.160000e-06	-3.013221e-06	-8.184516e-10	-2.092615e+01	-5.602526e+01
1.170000e-06	-2.973968e-06	-8.120534e-10	-2.065354e+01	-5.557128e+01
1.180000e-06	-2.934577e-06	-8.047974e-10	-2.037999e+01	-5.511362e+01
1.190000e-06	-2.895024e-06	-7.932294e-10	-2.010530e+01	-5.465231e+01
1.200000e-06	-2.855352e-06	-7.855342e-10	-1.982978e+01	-5.418740e+01
1.210000e-06	-2.815591e-06	-7.829211e-10	-1.955365e+01	-5.371890e+01
1.220000e-06	-2.775637e-06	-7.760952e-10	-1.927618e+01	-5.324683e+01
1.230000e-06	-2.735425e-06	-7.691435e-10	-1.899691e+01	-5.277117e+01
1.240000e-06	-2.695040e-06	-7.573915e-10	-1.871645e+01	-5.229189e+01
1.250000e-06	-2.654435e-06	-7.449848e-10	-1.843446e+01	-5.180895e+01
1.260000e-06	-2.613531e-06	-7.342832e-10	-1.815039e+01	-5.132229e+01
1.270000e-06	-2.572361e-06	-7.244844e-10	-1.786447e+01	-5.083183e+01
1.280000e-06	-2.530911e-06	-7.212104e-10	-1.757661e+01	-5.033744e+01
1.290000e-06	-2.489104e-06	-7.183407e-10	-1.728628e+01	-4.983903e+01
1.300000e-06	-2.446890e-06	-7.101827e-10	-1.699311e+01	-4.933643e+01
1.310000e-06	-2.404488e-06	-6.994185e-10	-1.669863e+01	-4.882949e+01
1.320000e-06	-2.361908e-06	-6.870539e-10	-1.640292e+01	-4.831802e+01
1.330000e-06	-2.318998e-06	-6.748700e-10	-1.610492e+01	-4.780181e+01
1.340000e-06	-2.275896e-06	-6.652398e-10	-1.580559e+01	-4.728065e+01
1.350000e-06	-2.232665e-06	-6.582704e-10	-1.550536e+01	-4.675428e+01
1.360000e-06	-2.189287e-06	-6.501290e-10	-1.520411e+01	-4.622244e+01
1.370000e-06	-2.145771e-06	-6.445156e-10	-1.490190e+01	-4.568486e+01
1.380000e-06	-2.102207e-06	-6.418787e-10	-1.459936e+01	-4.514124e+01
1.390000e-06	-2.058566e-06	-6.355455e-10	-1.429629e+01	-4.459127e+01
1.400000e-06	-2.014894e-06	-6.231155e-10	-1.399299e+01	-4.403461e+01
1.410000e-06	-1.971143e-06	-6.090561e-10	-1.368915e+01	-4.347092e+01
1.420000e-06	-1.927194e-06	-5.964608e-10	-1.338393e+01	-4.289986e+01
1.430000e-06	-1.883107e-06	-5.865157e-10	-1.307776e+01	-4.232106e+01
1.440000e-06	-1.838928e-06	-5.793271e-10	-1.277095e+01	-4.173413e+01
1.450000e-06	-1.794684e-06	-5.730715e-10	-1.246368e+01	-4.113869e+01
1.460000e-06	-1.750339e-06	-5.648397e-10	-1.215571e+01	-4.053435e+01
1.470000e-06	-1.705839e-06	-5.539258e-10	-1.184667e+01	-3.992071e+01
1.480000e-06	-1.661233e-06	-5.413288e-10	-1.153689e+01	-3.929736e+01
1.490000e-06	-1.616423e-06	-5.280805e-10	-1.122570e+01	-3.866389e+01
1.500000e-06	-1.571365e-06	-5.169947e-10	-1.091278e+01	-3.801989e+01
1.510000e-06	-1.526189e-06	-5.085563e-10	-1.059904e+01	-3.736494e+01
1.520000e-06	-1.480960e-06	-5.013322e-10	-1.028494e+01	-3.669863e+01
1.530000e-06	-1.435633e-06	-4.904981e-10	-9.970154e+00	-3.602055e+01
1.540000e-06	-1.390226e-06	-4.765322e-10	-9.654811e+00	-3.533028e+01
1.550000e-06	-1.344810e-06	-4.633019e-10	-9.339405e+00	-3.462742e+01
1.560000e-06	-1.299251e-06	-4.496400e-10	-9.023006e+00	-3.391158e+01
1.570000e-06	-1.253554e-06	-4.358200e-10	-8.705650e+00	-3.318236e+01
1.580000e-06	-1.207743e-06	-4.267016e-10	-8.387508e+00	-3.243937e+01
1.590000e-06	-1.161904e-06	-4.178642e-10	-8.069166e+00	-3.168224e+01
1.600000e-06	-1.116047e-06	-4.065539e-10	-7.750698e+00	-3.091062e+01
1.610000e-06	-1.070093e-06	-3.948099e-10	-7.431559e+00	-3.012416e+01
1.620000e-06	-1.024033e-06	-3.835552e-10	-7.111679e+00	-2.932251e+01
1.630000e-06	-9.778876e-07	-3.726419e-10	-6.791211e+00	-2.850538e+01
1.640000e-06	-9.317238e-07	-3.618006e-10	-6.470614e+00	-2.767246e+01
1.650000e-06	-8.854571e-07	-3.496243e-10	-6.149302e+00	-2.682348e+01
1.660000e-06	-8.390273e-07	-3.359282e-10	-5.826858e+00	-2.595818e+01
1.670000e-06	-7.925660e-07	-3.222567e-10	-5.504195e+00	-2.507634e+01
1.680000e-06	-7.461504e-07	-3.080944e-10	-5.181848e+00	-2.417775e+01
1.690000e-06	-6.996574e-07	-2.938568e-10	-4.858965e+00	-2.326224e+01
1.700000e-06	-6.531386e-07	-2.814710e-10	-4.535902e+00	-2.232966e+01
1.710000e-06	-6.066357e-07	-2.680769e-10	-4.212950e+00	-2.137989e+01
1.720000e-06	-5.601113e-07	-2.512184e-10	-3.889848e+00	-2.041286e+01
1.730000e-06	-5.135015e-07	-2.317458e-10	-3.566153e+00	-1.942852e+01
1.740000e-06	-4.668365e-07	-2.107708e-10	-3.242076e+00	-1.842686e+01
1.750000e-06	-4.201214e-07	-1.937582e-10	-2.917650e+00	-1.740791e+01
1.760000e-06	-3.732723e-07	-1.812453e-10	-2.592293e+00	-1.637175e+01
1.770000e-06	-3.264122e-07	-1.687489e-10	-2.266860e+00	-1.531848e+01
1.780000e-06	-2.795922e-07	-1.560194e-10	-1.941706e+00	-1.424826e+01
1.790000e-06	-2.327079e-07	-1.428694e-10	-1.616105e+00	-1.316129e+01
1.800000e-06	-1.857774e-07	-1.281578e-10	-1.290183e+00	-1.205782e+01
1.810000e-06	-1.388725e-07	-1.117573e-10	-9.644382e-01	-1.093815e+01
1.820000e-06	-9.196781e-08	-9.561758e-11	-6.386960e-01	-9.802613e+00
1.830000e-06	-4.508328e-08	-8.219407e-11	-3.130934e-01	-8.651613e+00
1.840000e-06	1.600550e-09	-6.752114e-11	1.111546e-02	-7.485590e+00
1.850000e-06	4.829166e-08	-5.162235e-11	3.353748e-01	-6.305038e+00
1.860000e-06	9.522993e-08	-3.660333e-11	6.613507e-01	-5.110502e+00
1.870000e-06	1.421625e-07	-2.026526e-11	9.872868e-01	-3.902578e+00
1.880000e-06	1.890220e-07	-3.028678e-12	1.312715e+00	-2.681911e+00
1.890000e-06	2.358217e-07	1.482542e-11	1.637729e+00	-1.449198e+00
1.900000e-06	2.826111e-07	3.436122e-11	1.962671e+00	-2.051812e-01
1.910000e-06	3.294091e-07	5.385659e-11	2.287673e+00	1.049346e+00
1.920000e-06	3.761426e-07	7.098015e-11	2.612226e+00	2.313544e+00
1.930000e-06	4.228360e-07	8.663059e-11	2.936502e+00	3.586533e+00
1.940000e-06	4.695811e-07	1.037485e-10	3.261136e+00	4.867385e+00
1.950000e-06	5.163361e-07	1.213165e-10	3.585839e+00	6.155137e+00
1.960000e-06	5.629951e-07	1.400716e-10	3.909876e+00	7.448785e+00
1.970000e-06	6.096316e-07	1.585008e-10	4.233756e+00	8.747294e+00
1.980000e-06	6.562111e-07	1.759246e-10	4.557240e+00	1.004960e+01
1.990000e-06	7.026249e-07	1.934061e-10	4.879573e+00	1.135459e+01
2.000000e-06	7.489910e-07	2.087528e-10	5.201575e+00	1.266117e+01
2.010000e-06	7.953797e-07	2.270452e-10	5.523735e+00	1.396819e+01
2.020000e-06	8.417183e-07	2.485728e-10	5.845546e+00	1.527450e+01
2.030000e-06	8.880252e-07	2.694988e-10	6.167137e+00	1.657893e+01
2.040000e-06	9.342425e-07	2.888430e-10	6.488106e+00	1.788031e+01
2.050000e-06	9.803318e-07	3.075049e-10	6.808186e+00	1.917747e+01
2.060000e-06	1.026346e-06	3.236275e-10	7.127746e+00	2.046924e+01
2.070000e-06	1.072210e-06	3.385118e-10	7.446259e+00	2.175447e+01
2.080000e-06	1.117986e-06	3.557654e-10	7.764163e+00	2.303200e+01
2.090000e-06	1.163707e-06	3.757529e-10	8.081684e+00	2.430072e+01
2.100000e-06	1.209328e-06	3.976813e-10	8.398513e+00	2.555950e+01
2.110000e-06	1.254963e-06	4.178855e-10	8.715442e+00	2.680729e+01
2.120000e-06	1.300548e-06	4.357226e-10	9.032014e+00	2.804303e+01
2.130000e-06	1.346059e-06	4.509835e-10	9.348081e+00	2.926573e+01
2.140000e-06	1.391500e-06	4.647817e-10	9.663656e+00	3.047441e+01
2.150000e-06	1.436838e-06	4.796464e-10	9.978517e+00	3.166818e+01
2.160000e-06	1.482086e-06	4.951403e-10	1.029276e+01	3.284615e+01
2.170000e-06	1.527151e-06	5.104781e-10	1.060573e+01	3.400753e+01
2.180000e-06	1.572078e-06	5.283474e-10	1.091773e+01	3.515157e+01
2.190000e-06	1.616899e-06	5.450256e-10	1.122900e+01	3.627756e+01
2.200000e-06	1.661628e-06	5.593005e-10	1.153963e+01	3.738489e+01
2.210000e-06	1.706175e-06	5.733736e-10	1.184901e+01	3.847301e+01
2.220000e-06	1.750510e-06	5.879595e-10	1.215690e+01	3.954140e+01
2.230000e-06	1.794710e-06	6.012444e-10	1.246386e+01	4.058966e+01
2.240000e-06	1.838755e-06	6.124584e-10	1.276975e+01	4.161743e+01
2.250000e-06	1.882705e-06	6.244370e-10	1.307497e+01	4.262444e+01
2.260000e-06	1.926562e-06	6.342433e-10	1.337954e+01	4.361047e+01
2.270000e-06	1.970359e-06	6.502366e-10	1.368371e+01	4.457538e+01
2.280000e-06	2.014147e-06	6.683838e-10	1.398780e+01	4.551910e+01
2.290000e-06	2.057856e-06	6.851423e-10	1.429135e+01	4.644165e+01
2.300000e-06	2.101418e-06	6.984807e-10	1.459388e+01	4.734307e+01
2.310000e-06	2.144901e-06	7.099695e-10	1.489586e+01	4.822350e+01
2.320000e-06	2.188412e-06	7.203857e-10	1.519804e+01	4.908314e+01
2.330000e-06	2.231872e-06	7.287012e-10	1.549985e+01	4.992223e+01
2.340000e-06	2.275217e-06	7.410271e-10	1.580087e+01	5.074107e+01
2.350000e-06	2.318401e-06	7.573796e-10	1.610078e+01	5.154004e+01
2.360000e-06	2.361423e-06	7.750334e-10	1.639955e+01	5.231952e+01
2.370000e-06	2.404200e-06	7.881070e-10	1.669664e+01	5.307997e+01
2.380000e-06	2.446564e-06	7.986156e-10	1.699085e+01	5.382187e+01
2.390000e-06	2.488613e-06	8.066612e-10	1.728286e+01	5.454573e+01
2.400000e-06	2.530448e-06	8.108520e-10	1.757340e+01	5.525211e+01
2.410000e-06	2.571945e-06	8.148378e-10	1.786158e+01	5.594157e+01
2.420000e-06	2.612992e-06	8.220105e-10	1.814665e+01	5.661469e+01
2.430000e-06	2.653713e-06	8.322380e-10	1.842945e+01	5.727209e+01
2.440000e-06	2.694166e-06	8.444990e-10	1.871038e+01	5.791436e+01
2.450000e-06	2.734372e-06	8.548227e-10	1.898961e+01	5.854211e+01
2.460000e-06	2.774413e-06	8.656767e-10	1.926768e+01	5.915596e+01
2.470000e-06	2.814330e-06	8.752690e-10	1.954489e+01	5.975649e+01
2.480000e-06	2.854081e-06	8.834536e-10	1.982095e+01	6.034431e+01
2.490000e-06	2.893671e-06	8.910463e-10	2.009590e+01	6.091998e+01
2.500000e-06	2.933143e-06	8.973732e-10	2.037003e+01	6.148405e+01
2.510000e-06	2.972506e-06	9.043775e-10	2.064339e+01	6.203705e+01
2.520000e-06	3.011822e-06	9.138205e-10	2.091643e+01	6.257949e+01
2.530000e-06	3.050967e-06	9.238264e-10	2.118829e+01	6.311183e+01
2.540000e-06	3.089863e-06	9.335745e-10	2.145841e+01	6.363451e+01
2.550000e-06	3.128473e-06	9.422683e-10	2.172655e+01	6.414794e+01
2.560000e-06	3.166758e-06	9.491181e-10	2.199243e+01	6.465248e+01
2.570000e-06	3.204846e-06	9.554786e-10	2.225694e+01	6.514846e+01
2.580000e-06	3.242722e-06	9.610625e-10	2.251998e+01	6.563616e+01
2.590000e-06	3.280359e-06	9.652625e-10	2.278136e+01	6.611585e+01
2.600000e-06	3.317886e-06	9.713347e-10	2.304198e+01	6.658773e+01
2.610000e-06	3.355259e-06	9.765835e-10	2.330153e+01	6.705197e+01
2.620000e-06	3.392441e-06	9.794899e-10	2.355975e+01	6.750870e+01
2.630000e-06	3.429397e-06	9.860974e-10	2.381640e+01	6.795803e+01
2.640000e-06	3.466054e-06	9.955014e-10	2.407097e+01	6.840002e+01
2.650000e-06	3.502455e-06	1.005079e-09	2.432377e+01	6.883470e+01
2.660000e-06	3.538548e-06	1.012789e-09	2.457443e+01	6.926208e+01
2.670000e-06	3.574362e-06	1.016142e-09	2.482315e+01	6.968211e+01
2.680000e-06	3.610022e-06	1.018239e-09	2.507080e+01	7.009475e+01
2.690000e-06	3.645593e-06	1.021680e-09	2.531783e+01	7.049994e+01
2.700000e-06	3.681106e-06	1.026674e-09	2.556446e+01	7.089757e+01
2.710000e-06	3.716494e-06	1.033614e-09	2.581022e+01	7.128754e+01
2.720000e-06	3.751595e-06	1.039981e-09	2.605399e+01	7.166975e+01
2.730000e-06	3.786395e-06	1.046850e-09	2.629567e+01	7.204405e+01
2.740000e-06	3.820845e-06	1.052465e-09	2.653492e+01	7.241033e+01
2.750000e-06	3.854793e-06	1.054367e-09	2.677068e+01	7.276846e+01
2.760000e-06	3.888300e-06	1.054458e-09	2.700337e+01	7.311831e+01
2.770000e-06	3.921397e-06	1.058034e-09	2.723323e+01	7.345978e+01
2.780000e-06	3.953968e-06	1.064604e-09	2.745943e+01	7.379275e+01
2.790000e-06	3.986112e-06	1.072983e-09	2.768266e+01	7.411713e+01
2.800000e-06	4.017995e-06	1.081458e-09	2.790408e+01	7.443286e+01
2.810000e-06	4.049685e-06	1.087559e-09	2.812416e+01	7.473986e+01
2.820000e-06	4.081255e-06	1.090874e-09	2.834341e+01	7.503812e+01
2.830000e-06	4.112712e-06	1.091989e-09	2.856187e+01	7.532761e+01
2.840000e-06	4.143965e-06	1.095603e-09	2.877891e+01	7.560835e+01
2.850000e-06	4.174919e-06	1.102839e-09	2.899388e+01	7.588038e+01
2.860000e-06	4.205500e-06	1.109337e-09	2.920626e+01	7.614377e+01
2.870000e-06	4.235744e-06	1.114249e-09	2.941630e+01	7.639861e+01
2.880000e-06	4.265623e-06	1.116634e-09	2.962380e+01	7.664503e+01
2.890000e-06	4.295191e-06	1.117980e-09	2.982915e+01	7.688318e+01
2.900000e-06	4.324568e-06	1.120887e-09	3.003316e+01	7.711323e+01
2.910000e-06	4.353680e-06	1.126881e-09	3.023534e+01	7.733538e+01
