# Temperatura_=_-5.11
# Concentracion g/m^3_=_1620.0
# C_Vs_to_Am_M_A/Vsm_=_65563218390.804596
# pendiente_HvsI_1/m_=_3716.3
# ordenada_HvsI_A/m_=_1297.0
# frecuencia_Hz_=_135108.72870666764

Tiempo_(s)	Campo_(V.s)	Magnetizacion_(V.s)	Campo_(kA/m)	Magnetizacion_(A/m)
0.000000e+00	-5.510961e-06	-6.811159e-10	-3.836672e+01	-4.608962e+01
1.000000e-08	-5.511038e-06	-6.791215e-10	-3.836725e+01	-4.603130e+01
2.000000e-08	-5.510839e-06	-6.791032e-10	-3.836586e+01	-4.597578e+01
3.000000e-08	-5.510252e-06	-6.791378e-10	-3.836178e+01	-4.592322e+01
4.000000e-08	-5.509166e-06	-6.732674e-10	-3.835422e+01	-4.587380e+01
5.000000e-08	-5.507549e-06	-6.580581e-10	-3.834296e+01	-4.582769e+01
6.000000e-08	-5.505298e-06	-6.527417e-10	-3.832729e+01	-4.578501e+01
7.000000e-08	-5.502333e-06	-7.001861e-10	-3.830665e+01	-4.574587e+01
8.000000e-08	-5.498866e-06	-7.612341e-10	-3.828251e+01	-4.571036e+01
9.000000e-08	-5.495032e-06	-7.424188e-10	-3.825581e+01	-4.567855e+01
1.000000e-07	-5.490886e-06	-6.619067e-10	-3.822695e+01	-4.565047e+01
1.100000e-07	-5.486563e-06	-6.510901e-10	-3.819686e+01	-4.562614e+01
1.200000e-07	-5.481940e-06	-6.819930e-10	-3.816467e+01	-4.560553e+01
1.300000e-07	-5.476897e-06	-6.919961e-10	-3.812956e+01	-4.558861e+01
1.400000e-07	-5.471513e-06	-6.303237e-10	-3.809208e+01	-4.557529e+01
1.500000e-07	-5.465732e-06	-6.417641e-10	-3.805183e+01	-4.556548e+01
1.600000e-07	-5.459554e-06	-6.869215e-10	-3.800882e+01	-4.555904e+01
1.700000e-07	-5.452969e-06	-7.168255e-10	-3.796298e+01	-4.555583e+01
1.800000e-07	-5.446006e-06	-6.639222e-10	-3.791450e+01	-4.555564e+01
1.900000e-07	-5.438735e-06	-6.352765e-10	-3.786388e+01	-4.555828e+01
2.000000e-07	-5.431135e-06	-6.377399e-10	-3.781097e+01	-4.556351e+01
2.100000e-07	-5.423288e-06	-6.776237e-10	-3.775635e+01	-4.557107e+01
2.200000e-07	-5.415243e-06	-6.727976e-10	-3.770033e+01	-4.558069e+01
2.300000e-07	-5.406895e-06	-6.505742e-10	-3.764221e+01	-4.559206e+01
2.400000e-07	-5.397946e-06	-6.315536e-10	-3.757991e+01	-4.560488e+01
2.500000e-07	-5.388287e-06	-6.314307e-10	-3.751267e+01	-4.561881e+01
2.600000e-07	-5.378012e-06	-6.492674e-10	-3.744113e+01	-4.563351e+01
2.700000e-07	-5.367156e-06	-6.420670e-10	-3.736556e+01	-4.564863e+01
2.800000e-07	-5.355772e-06	-6.594816e-10	-3.728631e+01	-4.566381e+01
2.900000e-07	-5.344035e-06	-6.706817e-10	-3.720459e+01	-4.567869e+01
3.000000e-07	-5.331970e-06	-6.772373e-10	-3.712060e+01	-4.569291e+01
3.100000e-07	-5.319416e-06	-6.359554e-10	-3.703320e+01	-4.570609e+01
3.200000e-07	-5.306453e-06	-6.449730e-10	-3.694295e+01	-4.571788e+01
3.300000e-07	-5.293220e-06	-6.466440e-10	-3.685082e+01	-4.572793e+01
3.400000e-07	-5.279598e-06	-6.508673e-10	-3.675599e+01	-4.573588e+01
3.500000e-07	-5.265482e-06	-6.380742e-10	-3.665772e+01	-4.574140e+01
3.600000e-07	-5.250895e-06	-6.816016e-10	-3.655616e+01	-4.574418e+01
3.700000e-07	-5.235812e-06	-6.692953e-10	-3.645115e+01	-4.574390e+01
3.800000e-07	-5.220250e-06	-6.554767e-10	-3.634281e+01	-4.574029e+01
3.900000e-07	-5.204187e-06	-6.651837e-10	-3.623098e+01	-4.573308e+01
4.000000e-07	-5.187801e-06	-6.786630e-10	-3.611691e+01	-4.572202e+01
4.100000e-07	-5.171045e-06	-6.364930e-10	-3.600025e+01	-4.570689e+01
4.200000e-07	-5.153826e-06	-6.497827e-10	-3.588037e+01	-4.568749e+01
4.300000e-07	-5.136374e-06	-6.924012e-10	-3.575888e+01	-4.566367e+01
4.400000e-07	-5.118661e-06	-6.754976e-10	-3.563556e+01	-4.563527e+01
4.500000e-07	-5.100471e-06	-6.480785e-10	-3.550892e+01	-4.560219e+01
4.600000e-07	-5.081902e-06	-6.835504e-10	-3.537965e+01	-4.556432e+01
4.700000e-07	-5.062999e-06	-6.873262e-10	-3.524805e+01	-4.552162e+01
4.800000e-07	-5.043672e-06	-6.534629e-10	-3.511349e+01	-4.547406e+01
4.900000e-07	-5.024074e-06	-6.702253e-10	-3.497706e+01	-4.542163e+01
5.000000e-07	-5.004290e-06	-6.827272e-10	-3.483932e+01	-4.536435e+01
5.100000e-07	-4.984258e-06	-6.480732e-10	-3.469986e+01	-4.530227e+01
5.200000e-07	-4.963922e-06	-6.531923e-10	-3.455828e+01	-4.523548e+01
5.300000e-07	-4.943213e-06	-6.916408e-10	-3.441411e+01	-4.516406e+01
5.400000e-07	-4.922162e-06	-6.629307e-10	-3.426756e+01	-4.508813e+01
5.500000e-07	-4.900754e-06	-6.431128e-10	-3.411852e+01	-4.500785e+01
5.600000e-07	-4.878938e-06	-6.691196e-10	-3.396664e+01	-4.492336e+01
5.700000e-07	-4.856769e-06	-6.716085e-10	-3.381230e+01	-4.483484e+01
5.800000e-07	-4.834219e-06	-6.466990e-10	-3.365530e+01	-4.474250e+01
5.900000e-07	-4.811334e-06	-6.680772e-10	-3.349598e+01	-4.464652e+01
6.000000e-07	-4.788199e-06	-6.694405e-10	-3.333492e+01	-4.454712e+01
6.100000e-07	-4.764867e-06	-6.479267e-10	-3.317249e+01	-4.444454e+01
6.200000e-07	-4.741321e-06	-6.468914e-10	-3.300856e+01	-4.433899e+01
6.300000e-07	-4.717475e-06	-6.600610e-10	-3.284255e+01	-4.423070e+01
6.400000e-07	-4.693261e-06	-6.434792e-10	-3.267397e+01	-4.411992e+01
6.500000e-07	-4.668646e-06	-6.485890e-10	-3.250261e+01	-4.400688e+01
6.600000e-07	-4.643634e-06	-6.585274e-10	-3.232847e+01	-4.389180e+01
6.700000e-07	-4.618178e-06	-6.541765e-10	-3.215125e+01	-4.377490e+01
6.800000e-07	-4.592198e-06	-6.475927e-10	-3.197038e+01	-4.365642e+01
6.900000e-07	-4.565661e-06	-6.570210e-10	-3.178564e+01	-4.353655e+01
7.000000e-07	-4.538665e-06	-6.492264e-10	-3.159769e+01	-4.341549e+01
7.100000e-07	-4.511334e-06	-6.461899e-10	-3.140742e+01	-4.329343e+01
7.200000e-07	-4.483718e-06	-6.504062e-10	-3.121516e+01	-4.317054e+01
7.300000e-07	-4.455937e-06	-6.476489e-10	-3.102175e+01	-4.304698e+01
7.400000e-07	-4.428037e-06	-6.382657e-10	-3.082751e+01	-4.292288e+01
7.500000e-07	-4.399923e-06	-6.409928e-10	-3.063179e+01	-4.279838e+01
7.600000e-07	-4.371543e-06	-6.399108e-10	-3.043421e+01	-4.267359e+01
7.700000e-07	-4.342817e-06	-6.335669e-10	-3.023422e+01	-4.254858e+01
7.800000e-07	-4.313697e-06	-6.356115e-10	-3.003149e+01	-4.242344e+01
7.900000e-07	-4.284315e-06	-6.384347e-10	-2.982694e+01	-4.229822e+01
8.000000e-07	-4.254700e-06	-6.325552e-10	-2.962076e+01	-4.217295e+01
8.100000e-07	-4.224744e-06	-6.270248e-10	-2.941221e+01	-4.204765e+01
8.200000e-07	-4.194423e-06	-6.284158e-10	-2.920111e+01	-4.192233e+01
8.300000e-07	-4.163801e-06	-6.214848e-10	-2.898793e+01	-4.179697e+01
8.400000e-07	-4.132973e-06	-6.154784e-10	-2.877331e+01	-4.167153e+01
8.500000e-07	-4.101962e-06	-6.151446e-10	-2.855741e+01	-4.154597e+01
8.600000e-07	-4.070752e-06	-6.177851e-10	-2.834013e+01	-4.142024e+01
8.700000e-07	-4.039320e-06	-6.136612e-10	-2.812131e+01	-4.129426e+01
8.800000e-07	-4.007705e-06	-6.166343e-10	-2.790121e+01	-4.116795e+01
8.900000e-07	-3.975867e-06	-6.159586e-10	-2.767955e+01	-4.104121e+01
9.000000e-07	-3.943718e-06	-6.110394e-10	-2.745574e+01	-4.091395e+01
9.100000e-07	-3.911275e-06	-6.048573e-10	-2.722987e+01	-4.078606e+01
9.200000e-07	-3.878495e-06	-6.047763e-10	-2.700166e+01	-4.065741e+01
9.300000e-07	-3.845249e-06	-5.979829e-10	-2.677021e+01	-4.052790e+01
9.400000e-07	-3.811472e-06	-5.951087e-10	-2.653506e+01	-4.039739e+01
9.500000e-07	-3.777348e-06	-5.968051e-10	-2.629749e+01	-4.026578e+01
9.600000e-07	-3.742823e-06	-5.987417e-10	-2.605713e+01	-4.013292e+01
9.700000e-07	-3.707833e-06	-5.951580e-10	-2.581353e+01	-3.999870e+01
9.800000e-07	-3.672552e-06	-5.963393e-10	-2.556791e+01	-3.986300e+01
9.900000e-07	-3.637050e-06	-5.952222e-10	-2.532075e+01	-3.972570e+01
1.000000e-06	-3.601414e-06	-5.893908e-10	-2.507265e+01	-3.958668e+01
1.010000e-06	-3.565712e-06	-5.837946e-10	-2.482410e+01	-3.944584e+01
1.020000e-06	-3.529887e-06	-5.855631e-10	-2.457469e+01	-3.930306e+01
1.030000e-06	-3.493821e-06	-5.848682e-10	-2.432360e+01	-3.915825e+01
1.040000e-06	-3.457510e-06	-5.832417e-10	-2.407081e+01	-3.901132e+01
1.050000e-06	-3.421036e-06	-5.837002e-10	-2.381688e+01	-3.886217e+01
1.060000e-06	-3.384262e-06	-5.818758e-10	-2.356087e+01	-3.871074e+01
1.070000e-06	-3.347107e-06	-5.759578e-10	-2.330220e+01	-3.855694e+01
1.080000e-06	-3.309733e-06	-5.712057e-10	-2.304200e+01	-3.840070e+01
1.090000e-06	-3.272160e-06	-5.687039e-10	-2.278042e+01	-3.824197e+01
1.100000e-06	-3.234337e-06	-5.667579e-10	-2.251711e+01	-3.808068e+01
1.110000e-06	-3.196337e-06	-5.677230e-10	-2.225255e+01	-3.791679e+01
1.120000e-06	-3.158142e-06	-5.684436e-10	-2.198664e+01	-3.775025e+01
1.130000e-06	-3.119622e-06	-5.678822e-10	-2.171847e+01	-3.758100e+01
1.140000e-06	-3.080875e-06	-5.620057e-10	-2.144871e+01	-3.740902e+01
1.150000e-06	-3.041972e-06	-5.560489e-10	-2.117788e+01	-3.723425e+01
1.160000e-06	-3.002828e-06	-5.509378e-10	-2.090536e+01	-3.705666e+01
1.170000e-06	-2.963496e-06	-5.472922e-10	-2.063154e+01	-3.687620e+01
1.180000e-06	-2.924018e-06	-5.449653e-10	-2.035670e+01	-3.669283e+01
1.190000e-06	-2.884402e-06	-5.464686e-10	-2.008090e+01	-3.650650e+01
1.200000e-06	-2.844676e-06	-5.469510e-10	-1.980433e+01	-3.631716e+01
1.210000e-06	-2.804866e-06	-5.477539e-10	-1.952717e+01	-3.612474e+01
1.220000e-06	-2.764987e-06	-5.447108e-10	-1.924954e+01	-3.592920e+01
1.230000e-06	-2.724950e-06	-5.401201e-10	-1.897080e+01	-3.573044e+01
1.240000e-06	-2.684715e-06	-5.316383e-10	-1.869070e+01	-3.552840e+01
1.250000e-06	-2.644303e-06	-5.235392e-10	-1.840935e+01	-3.532297e+01
1.260000e-06	-2.603650e-06	-5.168060e-10	-1.812633e+01	-3.511406e+01
1.270000e-06	-2.562647e-06	-5.119437e-10	-1.784087e+01	-3.490155e+01
1.280000e-06	-2.521254e-06	-5.117441e-10	-1.755270e+01	-3.468531e+01
1.290000e-06	-2.479579e-06	-5.160094e-10	-1.726256e+01	-3.446521e+01
1.300000e-06	-2.437567e-06	-5.175522e-10	-1.697008e+01	-3.424109e+01
1.310000e-06	-2.395280e-06	-5.134817e-10	-1.667568e+01	-3.401277e+01
1.320000e-06	-2.352870e-06	-5.059765e-10	-1.638043e+01	-3.378009e+01
1.330000e-06	-2.310211e-06	-4.968487e-10	-1.608344e+01	-3.354284e+01
1.340000e-06	-2.267348e-06	-4.862116e-10	-1.578503e+01	-3.330080e+01
1.350000e-06	-2.224282e-06	-4.775570e-10	-1.548521e+01	-3.305377e+01
1.360000e-06	-2.180948e-06	-4.745328e-10	-1.518352e+01	-3.280149e+01
1.370000e-06	-2.137457e-06	-4.780475e-10	-1.488075e+01	-3.254371e+01
1.380000e-06	-2.093891e-06	-4.845937e-10	-1.457744e+01	-3.228018e+01
1.390000e-06	-2.050224e-06	-4.880405e-10	-1.427344e+01	-3.201060e+01
1.400000e-06	-2.006467e-06	-4.845657e-10	-1.396881e+01	-3.173470e+01
1.410000e-06	-1.962596e-06	-4.744475e-10	-1.366338e+01	-3.145218e+01
1.420000e-06	-1.918598e-06	-4.626852e-10	-1.335707e+01	-3.116272e+01
1.430000e-06	-1.874535e-06	-4.525808e-10	-1.305031e+01	-3.086601e+01
1.440000e-06	-1.830373e-06	-4.469923e-10	-1.274286e+01	-3.056173e+01
1.450000e-06	-1.786111e-06	-4.466803e-10	-1.243471e+01	-3.024955e+01
1.460000e-06	-1.741739e-06	-4.470341e-10	-1.212580e+01	-2.992913e+01
1.470000e-06	-1.697201e-06	-4.437601e-10	-1.181573e+01	-2.960015e+01
1.480000e-06	-1.652543e-06	-4.352944e-10	-1.150482e+01	-2.926226e+01
1.490000e-06	-1.607754e-06	-4.263709e-10	-1.119301e+01	-2.891513e+01
1.500000e-06	-1.562838e-06	-4.190489e-10	-1.088031e+01	-2.855843e+01
1.510000e-06	-1.517881e-06	-4.129371e-10	-1.056732e+01	-2.819182e+01
1.520000e-06	-1.472804e-06	-4.076208e-10	-1.025350e+01	-2.781498e+01
1.530000e-06	-1.427616e-06	-4.046331e-10	-9.938910e+00	-2.742759e+01
1.540000e-06	-1.382418e-06	-4.026459e-10	-9.624246e+00	-2.702933e+01
1.550000e-06	-1.337064e-06	-3.969602e-10	-9.308496e+00	-2.661991e+01
1.560000e-06	-1.291556e-06	-3.894879e-10	-8.991676e+00	-2.619904e+01
1.570000e-06	-1.246016e-06	-3.791335e-10	-8.674627e+00	-2.576643e+01
1.580000e-06	-1.200391e-06	-3.712750e-10	-8.356993e+00	-2.532183e+01
1.590000e-06	-1.154672e-06	-3.657417e-10	-8.038699e+00	-2.486498e+01
1.600000e-06	-1.108887e-06	-3.604967e-10	-7.719952e+00	-2.439564e+01
1.610000e-06	-1.063020e-06	-3.527182e-10	-7.400632e+00	-2.391360e+01
1.620000e-06	-1.017043e-06	-3.458294e-10	-7.080543e+00	-2.341867e+01
1.630000e-06	-9.709767e-07	-3.394745e-10	-6.759834e+00	-2.291065e+01
1.640000e-06	-9.248237e-07	-3.320947e-10	-6.438522e+00	-2.238940e+01
1.650000e-06	-8.785850e-07	-3.219007e-10	-6.116613e+00	-2.185476e+01
1.660000e-06	-8.323154e-07	-3.106251e-10	-5.794489e+00	-2.130663e+01
1.670000e-06	-7.859567e-07	-3.002856e-10	-5.471746e+00	-2.074490e+01
1.680000e-06	-7.395475e-07	-2.897182e-10	-5.148649e+00	-2.016950e+01
1.690000e-06	-6.931142e-07	-2.799718e-10	-4.825386e+00	-1.958038e+01
1.700000e-06	-6.466385e-07	-2.734702e-10	-4.501827e+00	-1.897752e+01
1.710000e-06	-6.001028e-07	-2.684742e-10	-4.177850e+00	-1.836090e+01
1.720000e-06	-5.535917e-07	-2.606729e-10	-3.854045e+00	-1.773055e+01
1.730000e-06	-5.070689e-07	-2.472460e-10	-3.530159e+00	-1.708650e+01
1.740000e-06	-4.604459e-07	-2.328627e-10	-3.205575e+00	-1.642884e+01
1.750000e-06	-4.138104e-07	-2.203610e-10	-2.880903e+00	-1.575764e+01
1.760000e-06	-3.671684e-07	-2.101441e-10	-2.556187e+00	-1.507303e+01
1.770000e-06	-3.205295e-07	-2.030850e-10	-2.231491e+00	-1.437514e+01
1.780000e-06	-2.738110e-07	-1.970428e-10	-1.906243e+00	-1.366414e+01
1.790000e-06	-2.269827e-07	-1.905915e-10	-1.580229e+00	-1.294021e+01
1.800000e-06	-1.801601e-07	-1.788574e-10	-1.254255e+00	-1.220356e+01
1.810000e-06	-1.333849e-07	-1.640796e-10	-9.286114e-01	-1.145444e+01
1.820000e-06	-8.663946e-08	-1.503044e-10	-6.031745e-01	-1.069310e+01
1.830000e-06	-3.993940e-08	-1.404492e-10	-2.780538e-01	-9.919826e+00
1.840000e-06	6.739374e-09	-1.300416e-10	4.691879e-02	-9.134916e+00
1.850000e-06	5.343451e-08	-1.193746e-10	3.720053e-01	-8.338702e+00
1.860000e-06	1.001297e-07	-1.110272e-10	6.970925e-01	-7.531536e+00
1.870000e-06	1.469073e-07	-1.008170e-10	1.022753e+00	-6.713791e+00
1.880000e-06	1.936870e-07	-8.817526e-11	1.348428e+00	-5.885863e+00
1.890000e-06	2.403152e-07	-7.517014e-11	1.673048e+00	-5.048169e+00
1.900000e-06	2.868891e-07	-6.127725e-11	1.997291e+00	-4.201150e+00
1.910000e-06	3.334875e-07	-4.884580e-11	2.321703e+00	-3.345266e+00
1.920000e-06	3.801545e-07	-3.959172e-11	2.646594e+00	-2.480997e+00
1.930000e-06	4.268197e-07	-3.045430e-11	2.971472e+00	-1.608847e+00
1.940000e-06	4.734701e-07	-1.737900e-11	3.296247e+00	-7.293365e-01
1.950000e-06	5.200515e-07	-4.231430e-12	3.620542e+00	1.569930e-01
1.960000e-06	5.665395e-07	7.356752e-12	3.944187e+00	1.049581e+00
1.970000e-06	6.129368e-07	1.827896e-11	4.267200e+00	1.947850e+00
1.980000e-06	6.592558e-07	2.873542e-11	4.589667e+00	2.851203e+00
1.990000e-06	7.055327e-07	3.937310e-11	4.911842e+00	3.759028e+00
2.000000e-06	7.518078e-07	4.955426e-11	5.234004e+00	4.670695e+00
2.010000e-06	7.981063e-07	6.396193e-11	5.556329e+00	5.585562e+00
2.020000e-06	8.443455e-07	8.085676e-11	5.878241e+00	6.502971e+00
2.030000e-06	8.905710e-07	9.768377e-11	6.200059e+00	7.422250e+00
2.040000e-06	9.366921e-07	1.121038e-10	6.521149e+00	8.342717e+00
2.050000e-06	9.826288e-07	1.227144e-10	6.840955e+00	9.263680e+00
2.060000e-06	1.028469e-06	1.342955e-10	7.160087e+00	1.018444e+01
2.070000e-06	1.074261e-06	1.464802e-10	7.478892e+00	1.110427e+01
2.080000e-06	1.120052e-06	1.592728e-10	7.797677e+00	1.202248e+01
2.090000e-06	1.165773e-06	1.729345e-10	8.115984e+00	1.293834e+01
2.100000e-06	1.211400e-06	1.878310e-10	8.433634e+00	1.385111e+01
2.110000e-06	1.256978e-06	2.021266e-10	8.750947e+00	1.476009e+01
2.120000e-06	1.302471e-06	2.141767e-10	9.067660e+00	1.566455e+01
2.130000e-06	1.347828e-06	2.285497e-10	9.383435e+00	1.656376e+01
2.140000e-06	1.393099e-06	2.429816e-10	9.698601e+00	1.745702e+01
2.150000e-06	1.438306e-06	2.544557e-10	1.001333e+01	1.834361e+01
2.160000e-06	1.483369e-06	2.643810e-10	1.032705e+01	1.922284e+01
2.170000e-06	1.528351e-06	2.770635e-10	1.064021e+01	2.009402e+01
2.180000e-06	1.573290e-06	2.936210e-10	1.095307e+01	2.095647e+01
2.190000e-06	1.618081e-06	3.087338e-10	1.126491e+01	2.180954e+01
2.200000e-06	1.662741e-06	3.214460e-10	1.157582e+01	2.265259e+01
2.210000e-06	1.707292e-06	3.322172e-10	1.188598e+01	2.348499e+01
2.220000e-06	1.751653e-06	3.422885e-10	1.219482e+01	2.430616e+01
2.230000e-06	1.795855e-06	3.531999e-10	1.250255e+01	2.511551e+01
2.240000e-06	1.839930e-06	3.628749e-10	1.280940e+01	2.591250e+01
2.250000e-06	1.883901e-06	3.738343e-10	1.311551e+01	2.669661e+01
2.260000e-06	1.927811e-06	3.855884e-10	1.342121e+01	2.746735e+01
2.270000e-06	1.971625e-06	4.005931e-10	1.372624e+01	2.822427e+01
2.280000e-06	2.015365e-06	4.161392e-10	1.403075e+01	2.896693e+01
2.290000e-06	2.059026e-06	4.290536e-10	1.433472e+01	2.969496e+01
2.300000e-06	2.102627e-06	4.382822e-10	1.463826e+01	3.040799e+01
2.310000e-06	2.146192e-06	4.455695e-10	1.494155e+01	3.110571e+01
2.320000e-06	2.189697e-06	4.538532e-10	1.524444e+01	3.178785e+01
2.330000e-06	2.233109e-06	4.622836e-10	1.554666e+01	3.245415e+01
2.340000e-06	2.276302e-06	4.737052e-10	1.584737e+01	3.310442e+01
2.350000e-06	2.319204e-06	4.877633e-10	1.614605e+01	3.373849e+01
2.360000e-06	2.361954e-06	5.021217e-10	1.644366e+01	3.435625e+01
2.370000e-06	2.404572e-06	5.121232e-10	1.674037e+01	3.495762e+01
2.380000e-06	2.446808e-06	5.176534e-10	1.703441e+01	3.554253e+01
2.390000e-06	2.488601e-06	5.218840e-10	1.732537e+01	3.611100e+01
2.400000e-06	2.530104e-06	5.255615e-10	1.761431e+01	3.666304e+01
2.410000e-06	2.571255e-06	5.296491e-10	1.790080e+01	3.719874e+01
2.420000e-06	2.612131e-06	5.374522e-10	1.818537e+01	3.771819e+01
2.430000e-06	2.652810e-06	5.496739e-10	1.846857e+01	3.822153e+01
2.440000e-06	2.693162e-06	5.615375e-10	1.874950e+01	3.870893e+01
2.450000e-06	2.733313e-06	5.693513e-10	1.902903e+01	3.918058e+01
2.460000e-06	2.773366e-06	5.765447e-10	1.930787e+01	3.963673e+01
2.470000e-06	2.813290e-06	5.821109e-10	1.958582e+01	4.007763e+01
2.480000e-06	2.853036e-06	5.852203e-10	1.986252e+01	4.050354e+01
2.490000e-06	2.892680e-06	5.884252e-10	2.013852e+01	4.091479e+01
2.500000e-06	2.932200e-06	5.938681e-10	2.041366e+01	4.131169e+01
2.510000e-06	2.971510e-06	6.014260e-10	2.068733e+01	4.169457e+01
2.520000e-06	3.010657e-06	6.101366e-10	2.095987e+01	4.206380e+01
2.530000e-06	3.049627e-06	6.170462e-10	2.123118e+01	4.241974e+01
2.540000e-06	3.088334e-06	6.208840e-10	2.150064e+01	4.276276e+01
2.550000e-06	3.126776e-06	6.251280e-10	2.176827e+01	4.309325e+01
2.560000e-06	3.165013e-06	6.297342e-10	2.203448e+01	4.341159e+01
2.570000e-06	3.203045e-06	6.329320e-10	2.229925e+01	4.371818e+01
2.580000e-06	3.240877e-06	6.371603e-10	2.256263e+01	4.401340e+01
2.590000e-06	3.278517e-06	6.422004e-10	2.282468e+01	4.429764e+01
2.600000e-06	3.315966e-06	6.449218e-10	2.308539e+01	4.457127e+01
2.610000e-06	3.353230e-06	6.437307e-10	2.334482e+01	4.483468e+01
2.620000e-06	3.390251e-06	6.411509e-10	2.360256e+01	4.508823e+01
2.630000e-06	3.426961e-06	6.398819e-10	2.385813e+01	4.533226e+01
2.640000e-06	3.463417e-06	6.412592e-10	2.411193e+01	4.556713e+01
2.650000e-06	3.499633e-06	6.469175e-10	2.436407e+01	4.579316e+01
2.660000e-06	3.535666e-06	6.528353e-10	2.461492e+01	4.601066e+01
2.670000e-06	3.571506e-06	6.568126e-10	2.486444e+01	4.621992e+01
2.680000e-06	3.607162e-06	6.614375e-10	2.511267e+01	4.642124e+01
2.690000e-06	3.642769e-06	6.667113e-10	2.536056e+01	4.661486e+01
2.700000e-06	3.678243e-06	6.692340e-10	2.560753e+01	4.680103e+01
2.710000e-06	3.713472e-06	6.694775e-10	2.585279e+01	4.697999e+01
2.720000e-06	3.748433e-06	6.704660e-10	2.609618e+01	4.715193e+01
2.730000e-06	3.783049e-06	6.725303e-10	2.633718e+01	4.731705e+01
2.740000e-06	3.817204e-06	6.746743e-10	2.657496e+01	4.747551e+01
2.750000e-06	3.850854e-06	6.768437e-10	2.680923e+01	4.762748e+01
2.760000e-06	3.884043e-06	6.801866e-10	2.704029e+01	4.777309e+01
2.770000e-06	3.916755e-06	6.843834e-10	2.726803e+01	4.791247e+01
2.780000e-06	3.949071e-06	6.879546e-10	2.749300e+01	4.804572e+01
2.790000e-06	3.981098e-06	6.892842e-10	2.771597e+01	4.817295e+01
2.800000e-06	4.012921e-06	6.877990e-10	2.793752e+01	4.829424e+01
2.810000e-06	4.044625e-06	6.859597e-10	2.815824e+01	4.840966e+01
2.820000e-06	4.076122e-06	6.859878e-10	2.837752e+01	4.851929e+01
2.830000e-06	4.107388e-06	6.890750e-10	2.859519e+01	4.862318e+01
2.840000e-06	4.138446e-06	6.955059e-10	2.881141e+01	4.872138e+01
2.850000e-06	4.169219e-06	7.036998e-10	2.902565e+01	4.881394e+01
2.860000e-06	4.199623e-06	7.075877e-10	2.923732e+01	4.890092e+01
2.870000e-06	4.229736e-06	7.064156e-10	2.944696e+01	4.898235e+01
2.880000e-06	4.259667e-06	7.033929e-10	2.965534e+01	4.905829e+01
2.890000e-06	4.289377e-06	7.016344e-10	2.986218e+01	4.912879e+01
2.900000e-06	4.318766e-06	7.023213e-10	3.006678e+01	4.919389e+01
