# Temperatura_=_-0.5
# Concentracion g/m^3_=_1620.0
# C_Vs_to_Am_M_A/Vsm_=_65563218390.804596
# pendiente_HvsI_1/m_=_3716.3
# ordenada_HvsI_A/m_=_1297.0
# frecuencia_Hz_=_135094.3757212953

Tiempo_(s)	Campo_(V.s)	Magnetizacion_(V.s)	Campo_(kA/m)	Magnetizacion_(A/m)
0.000000e+00	-5.516297e-06	-1.274781e-09	-3.837364e+01	-8.456097e+01
1.000000e-08	-5.516601e-06	-1.269822e-09	-3.837576e+01	-8.450851e+01
2.000000e-08	-5.516662e-06	-1.267663e-09	-3.837619e+01	-8.445853e+01
3.000000e-08	-5.516423e-06	-1.269045e-09	-3.837452e+01	-8.441119e+01
4.000000e-08	-5.515823e-06	-1.270683e-09	-3.837035e+01	-8.436660e+01
5.000000e-08	-5.514626e-06	-1.261100e-09	-3.836202e+01	-8.432483e+01
6.000000e-08	-5.512771e-06	-1.240606e-09	-3.834912e+01	-8.428592e+01
7.000000e-08	-5.510371e-06	-1.225928e-09	-3.833242e+01	-8.424988e+01
8.000000e-08	-5.507350e-06	-1.267543e-09	-3.831140e+01	-8.421667e+01
9.000000e-08	-5.503921e-06	-1.362146e-09	-3.828755e+01	-8.418621e+01
1.000000e-07	-5.500005e-06	-1.396114e-09	-3.826031e+01	-8.415840e+01
1.100000e-07	-5.495603e-06	-1.270581e-09	-3.822969e+01	-8.413309e+01
1.200000e-07	-5.491149e-06	-1.184348e-09	-3.819870e+01	-8.411009e+01
1.300000e-07	-5.486544e-06	-1.214497e-09	-3.816667e+01	-8.408919e+01
1.400000e-07	-5.481541e-06	-1.314166e-09	-3.813186e+01	-8.407014e+01
1.500000e-07	-5.476052e-06	-1.260459e-09	-3.809368e+01	-8.405266e+01
1.600000e-07	-5.470220e-06	-1.181702e-09	-3.805311e+01	-8.403644e+01
1.700000e-07	-5.464058e-06	-1.233576e-09	-3.801025e+01	-8.402113e+01
1.800000e-07	-5.457392e-06	-1.340721e-09	-3.796388e+01	-8.400638e+01
1.900000e-07	-5.450342e-06	-1.330538e-09	-3.791483e+01	-8.399179e+01
2.000000e-07	-5.442991e-06	-1.210885e-09	-3.786370e+01	-8.397698e+01
2.100000e-07	-5.435312e-06	-1.217632e-09	-3.781028e+01	-8.396150e+01
2.200000e-07	-5.427409e-06	-1.297777e-09	-3.775530e+01	-8.394493e+01
2.300000e-07	-5.419290e-06	-1.346495e-09	-3.769882e+01	-8.392682e+01
2.400000e-07	-5.410840e-06	-1.272467e-09	-3.764004e+01	-8.390672e+01
2.500000e-07	-5.401715e-06	-1.269624e-09	-3.757656e+01	-8.388416e+01
2.600000e-07	-5.391812e-06	-1.298837e-09	-3.750768e+01	-8.385869e+01
2.700000e-07	-5.381391e-06	-1.305741e-09	-3.743518e+01	-8.382984e+01
2.800000e-07	-5.370418e-06	-1.259427e-09	-3.735885e+01	-8.379717e+01
2.900000e-07	-5.358961e-06	-1.283020e-09	-3.727915e+01	-8.376023e+01
3.000000e-07	-5.347211e-06	-1.311651e-09	-3.719741e+01	-8.371857e+01
3.100000e-07	-5.335062e-06	-1.295891e-09	-3.711290e+01	-8.367178e+01
3.200000e-07	-5.322392e-06	-1.253870e-09	-3.702476e+01	-8.361946e+01
3.300000e-07	-5.309287e-06	-1.272319e-09	-3.693360e+01	-8.356120e+01
3.400000e-07	-5.295866e-06	-1.291486e-09	-3.684023e+01	-8.349665e+01
3.500000e-07	-5.282092e-06	-1.268426e-09	-3.674442e+01	-8.342546e+01
3.600000e-07	-5.267900e-06	-1.259411e-09	-3.664569e+01	-8.334731e+01
3.700000e-07	-5.253325e-06	-1.287641e-09	-3.654430e+01	-8.326190e+01
3.800000e-07	-5.238241e-06	-1.283808e-09	-3.643937e+01	-8.316899e+01
3.900000e-07	-5.222478e-06	-1.243723e-09	-3.632971e+01	-8.306832e+01
4.000000e-07	-5.206278e-06	-1.263064e-09	-3.621703e+01	-8.295970e+01
4.100000e-07	-5.189743e-06	-1.280891e-09	-3.610200e+01	-8.284296e+01
4.200000e-07	-5.172782e-06	-1.246216e-09	-3.598401e+01	-8.271794e+01
4.300000e-07	-5.155518e-06	-1.225578e-09	-3.586392e+01	-8.258456e+01
4.400000e-07	-5.138074e-06	-1.281448e-09	-3.574257e+01	-8.244273e+01
4.500000e-07	-5.120304e-06	-1.280748e-09	-3.561896e+01	-8.229242e+01
4.600000e-07	-5.101996e-06	-1.240694e-09	-3.549160e+01	-8.213360e+01
4.700000e-07	-5.083273e-06	-1.241748e-09	-3.536135e+01	-8.196631e+01
4.800000e-07	-5.064171e-06	-1.267984e-09	-3.522847e+01	-8.179059e+01
4.900000e-07	-5.044702e-06	-1.237421e-09	-3.509304e+01	-8.160654e+01
5.000000e-07	-5.025003e-06	-1.240207e-09	-3.495600e+01	-8.141426e+01
5.100000e-07	-5.005159e-06	-1.254317e-09	-3.481796e+01	-8.121388e+01
5.200000e-07	-4.985115e-06	-1.234562e-09	-3.467852e+01	-8.100558e+01
5.300000e-07	-4.964729e-06	-1.218310e-09	-3.453671e+01	-8.078955e+01
5.400000e-07	-4.943954e-06	-1.256069e-09	-3.439219e+01	-8.056599e+01
5.500000e-07	-4.922780e-06	-1.243037e-09	-3.424489e+01	-8.033513e+01
5.600000e-07	-4.901283e-06	-1.203463e-09	-3.409535e+01	-8.009723e+01
5.700000e-07	-4.879526e-06	-1.206799e-09	-3.394400e+01	-7.985256e+01
5.800000e-07	-4.857377e-06	-1.227270e-09	-3.378992e+01	-7.960138e+01
5.900000e-07	-4.834789e-06	-1.209626e-09	-3.363279e+01	-7.934399e+01
6.000000e-07	-4.811865e-06	-1.207304e-09	-3.347333e+01	-7.908070e+01
6.100000e-07	-4.788631e-06	-1.211414e-09	-3.331170e+01	-7.881180e+01
6.200000e-07	-4.765159e-06	-1.195965e-09	-3.314842e+01	-7.853762e+01
6.300000e-07	-4.741501e-06	-1.181572e-09	-3.298384e+01	-7.825846e+01
6.400000e-07	-4.717626e-06	-1.184282e-09	-3.281776e+01	-7.797465e+01
6.500000e-07	-4.693432e-06	-1.181920e-09	-3.264945e+01	-7.768649e+01
6.600000e-07	-4.668810e-06	-1.178096e-09	-3.247817e+01	-7.739429e+01
6.700000e-07	-4.643770e-06	-1.183552e-09	-3.230399e+01	-7.709835e+01
6.800000e-07	-4.618260e-06	-1.182549e-09	-3.212653e+01	-7.679897e+01
6.900000e-07	-4.592108e-06	-1.177045e-09	-3.194460e+01	-7.649642e+01
7.000000e-07	-4.565331e-06	-1.167844e-09	-3.175833e+01	-7.619099e+01
7.100000e-07	-4.538164e-06	-1.160742e-09	-3.156935e+01	-7.588293e+01
7.200000e-07	-4.510741e-06	-1.154650e-09	-3.137858e+01	-7.557248e+01
7.300000e-07	-4.483151e-06	-1.154953e-09	-3.118665e+01	-7.525986e+01
7.400000e-07	-4.455378e-06	-1.144122e-09	-3.099345e+01	-7.494529e+01
7.500000e-07	-4.427437e-06	-1.139497e-09	-3.079909e+01	-7.462895e+01
7.600000e-07	-4.399282e-06	-1.135324e-09	-3.060322e+01	-7.431101e+01
7.700000e-07	-4.370772e-06	-1.127403e-09	-3.040490e+01	-7.399163e+01
7.800000e-07	-4.341973e-06	-1.114531e-09	-3.020456e+01	-7.367091e+01
7.900000e-07	-4.312843e-06	-1.118329e-09	-3.000192e+01	-7.334898e+01
8.000000e-07	-4.283393e-06	-1.116419e-09	-2.979705e+01	-7.302592e+01
8.100000e-07	-4.253681e-06	-1.108677e-09	-2.959036e+01	-7.270177e+01
8.200000e-07	-4.223650e-06	-1.099736e-09	-2.938145e+01	-7.237660e+01
8.300000e-07	-4.193350e-06	-1.097877e-09	-2.917068e+01	-7.205040e+01
8.400000e-07	-4.162797e-06	-1.085578e-09	-2.895814e+01	-7.172317e+01
8.500000e-07	-4.131910e-06	-1.073701e-09	-2.874328e+01	-7.139490e+01
8.600000e-07	-4.100671e-06	-1.067661e-09	-2.852596e+01	-7.106553e+01
8.700000e-07	-4.069231e-06	-1.065052e-09	-2.830725e+01	-7.073499e+01
8.800000e-07	-4.037650e-06	-1.057207e-09	-2.808756e+01	-7.040321e+01
8.900000e-07	-4.005901e-06	-1.056789e-09	-2.786671e+01	-7.007007e+01
9.000000e-07	-3.974010e-06	-1.054226e-09	-2.764485e+01	-6.973545e+01
9.100000e-07	-3.941856e-06	-1.043468e-09	-2.742118e+01	-6.939922e+01
9.200000e-07	-3.909361e-06	-1.034639e-09	-2.719513e+01	-6.906123e+01
9.300000e-07	-3.876541e-06	-1.031113e-09	-2.696682e+01	-6.872130e+01
9.400000e-07	-3.843347e-06	-1.022871e-09	-2.673591e+01	-6.837928e+01
9.500000e-07	-3.809632e-06	-1.013299e-09	-2.650138e+01	-6.803496e+01
9.600000e-07	-3.775384e-06	-1.010341e-09	-2.626313e+01	-6.768816e+01
9.700000e-07	-3.740684e-06	-1.004547e-09	-2.602174e+01	-6.733867e+01
9.800000e-07	-3.705576e-06	-9.976445e-10	-2.577752e+01	-6.698628e+01
9.900000e-07	-3.670232e-06	-9.936655e-10	-2.553165e+01	-6.663078e+01
1.000000e-06	-3.634749e-06	-9.897473e-10	-2.528482e+01	-6.627196e+01
1.010000e-06	-3.599069e-06	-9.804173e-10	-2.503661e+01	-6.590959e+01
1.020000e-06	-3.563253e-06	-9.756961e-10	-2.478746e+01	-6.554347e+01
1.030000e-06	-3.527324e-06	-9.730389e-10	-2.453752e+01	-6.517338e+01
1.040000e-06	-3.491178e-06	-9.639345e-10	-2.428608e+01	-6.479911e+01
1.050000e-06	-3.454809e-06	-9.499840e-10	-2.403308e+01	-6.442045e+01
1.060000e-06	-3.418217e-06	-9.437554e-10	-2.377853e+01	-6.403721e+01
1.070000e-06	-3.381381e-06	-9.365886e-10	-2.352229e+01	-6.364919e+01
1.080000e-06	-3.344246e-06	-9.330260e-10	-2.326396e+01	-6.325621e+01
1.090000e-06	-3.306786e-06	-9.308015e-10	-2.300337e+01	-6.285809e+01
1.100000e-06	-3.269151e-06	-9.301668e-10	-2.274157e+01	-6.245468e+01
1.110000e-06	-3.231341e-06	-9.192475e-10	-2.247855e+01	-6.204582e+01
1.120000e-06	-3.193260e-06	-9.088227e-10	-2.221364e+01	-6.163137e+01
1.130000e-06	-3.154925e-06	-8.996120e-10	-2.194697e+01	-6.121120e+01
1.140000e-06	-3.116300e-06	-8.889126e-10	-2.167827e+01	-6.078519e+01
1.150000e-06	-3.077483e-06	-8.785352e-10	-2.140824e+01	-6.035325e+01
1.160000e-06	-3.038509e-06	-8.712292e-10	-2.113713e+01	-5.991529e+01
1.170000e-06	-2.999338e-06	-8.660783e-10	-2.086464e+01	-5.947124e+01
1.180000e-06	-2.959976e-06	-8.622879e-10	-2.059082e+01	-5.902102e+01
1.190000e-06	-2.920425e-06	-8.557294e-10	-2.031568e+01	-5.856459e+01
1.200000e-06	-2.880762e-06	-8.465349e-10	-2.003978e+01	-5.810192e+01
1.210000e-06	-2.841048e-06	-8.343299e-10	-1.976351e+01	-5.763297e+01
1.220000e-06	-2.801227e-06	-8.242930e-10	-1.948649e+01	-5.715774e+01
1.230000e-06	-2.761266e-06	-8.158317e-10	-1.920851e+01	-5.667622e+01
1.240000e-06	-2.721160e-06	-8.065343e-10	-1.892951e+01	-5.618842e+01
1.250000e-06	-2.680766e-06	-8.001699e-10	-1.864852e+01	-5.569433e+01
1.260000e-06	-2.640073e-06	-7.921763e-10	-1.836544e+01	-5.519400e+01
1.270000e-06	-2.599088e-06	-7.818073e-10	-1.808033e+01	-5.468743e+01
1.280000e-06	-2.557791e-06	-7.730006e-10	-1.779305e+01	-5.417465e+01
1.290000e-06	-2.516358e-06	-7.668097e-10	-1.750482e+01	-5.365569e+01
1.300000e-06	-2.474740e-06	-7.586354e-10	-1.721531e+01	-5.313059e+01
1.310000e-06	-2.432763e-06	-7.504927e-10	-1.692331e+01	-5.259935e+01
1.320000e-06	-2.390462e-06	-7.402192e-10	-1.662904e+01	-5.206202e+01
1.330000e-06	-2.347765e-06	-7.302474e-10	-1.633203e+01	-5.151860e+01
1.340000e-06	-2.304820e-06	-7.207551e-10	-1.603328e+01	-5.096911e+01
1.350000e-06	-2.261798e-06	-7.138756e-10	-1.573400e+01	-5.041354e+01
1.360000e-06	-2.218560e-06	-7.057230e-10	-1.543322e+01	-4.985189e+01
1.370000e-06	-2.175103e-06	-6.971806e-10	-1.513092e+01	-4.928412e+01
1.380000e-06	-2.131512e-06	-6.879152e-10	-1.482768e+01	-4.871021e+01
1.390000e-06	-2.087822e-06	-6.804434e-10	-1.452375e+01	-4.813009e+01
1.400000e-06	-2.044069e-06	-6.710561e-10	-1.421939e+01	-4.754368e+01
1.410000e-06	-2.000258e-06	-6.623473e-10	-1.391462e+01	-4.695090e+01
1.420000e-06	-1.956376e-06	-6.540486e-10	-1.360936e+01	-4.635163e+01
1.430000e-06	-1.912416e-06	-6.461392e-10	-1.330355e+01	-4.574573e+01
1.440000e-06	-1.868363e-06	-6.388135e-10	-1.299711e+01	-4.513303e+01
1.450000e-06	-1.824256e-06	-6.302992e-10	-1.269028e+01	-4.451335e+01
1.460000e-06	-1.780009e-06	-6.190554e-10	-1.238248e+01	-4.388648e+01
1.470000e-06	-1.735586e-06	-6.081977e-10	-1.207345e+01	-4.325217e+01
1.480000e-06	-1.691008e-06	-5.970275e-10	-1.176335e+01	-4.261017e+01
1.490000e-06	-1.646271e-06	-5.854526e-10	-1.145214e+01	-4.196017e+01
1.500000e-06	-1.601444e-06	-5.764568e-10	-1.114031e+01	-4.130186e+01
1.510000e-06	-1.556497e-06	-5.697413e-10	-1.082763e+01	-4.063490e+01
1.520000e-06	-1.511350e-06	-5.596038e-10	-1.051357e+01	-3.995891e+01
1.530000e-06	-1.466128e-06	-5.479325e-10	-1.019899e+01	-3.927350e+01
1.540000e-06	-1.420878e-06	-5.351048e-10	-9.884214e+00	-3.857826e+01
1.550000e-06	-1.375504e-06	-5.191201e-10	-9.568576e+00	-3.787274e+01
1.560000e-06	-1.330107e-06	-5.055628e-10	-9.252772e+00	-3.715649e+01
1.570000e-06	-1.284619e-06	-4.922655e-10	-8.936344e+00	-3.642902e+01
1.580000e-06	-1.238955e-06	-4.807142e-10	-8.618680e+00	-3.568985e+01
1.590000e-06	-1.193162e-06	-4.706323e-10	-8.300128e+00	-3.493848e+01
1.600000e-06	-1.147323e-06	-4.610919e-10	-7.981250e+00	-3.417438e+01
1.610000e-06	-1.101547e-06	-4.486858e-10	-7.662819e+00	-3.339704e+01
1.620000e-06	-1.055698e-06	-4.349412e-10	-7.343875e+00	-3.260592e+01
1.630000e-06	-1.009710e-06	-4.233538e-10	-7.023958e+00	-3.180051e+01
1.640000e-06	-9.636548e-07	-4.136121e-10	-6.703581e+00	-3.098027e+01
1.650000e-06	-9.175438e-07	-4.007527e-10	-6.382814e+00	-3.014470e+01
1.660000e-06	-8.713918e-07	-3.854324e-10	-6.061762e+00	-2.929328e+01
1.670000e-06	-8.251916e-07	-3.714956e-10	-5.740374e+00	-2.842553e+01
1.680000e-06	-7.789013e-07	-3.563793e-10	-5.418360e+00	-2.754097e+01
1.690000e-06	-7.325986e-07	-3.435805e-10	-5.096259e+00	-2.663916e+01
1.700000e-06	-6.863052e-07	-3.333899e-10	-4.774223e+00	-2.571967e+01
1.710000e-06	-6.398537e-07	-3.227289e-10	-4.451087e+00	-2.478212e+01
1.720000e-06	-5.933196e-07	-3.091148e-10	-4.127377e+00	-2.382614e+01
1.730000e-06	-5.467588e-07	-2.906651e-10	-3.803480e+00	-2.285144e+01
1.740000e-06	-5.001833e-07	-2.682709e-10	-3.479482e+00	-2.185773e+01
1.750000e-06	-4.535163e-07	-2.447690e-10	-3.154847e+00	-2.084480e+01
1.760000e-06	-4.067840e-07	-2.283425e-10	-2.829758e+00	-1.981247e+01
1.770000e-06	-3.601057e-07	-2.178409e-10	-2.505044e+00	-1.876062e+01
1.780000e-06	-3.134123e-07	-2.104541e-10	-2.180226e+00	-1.768920e+01
1.790000e-06	-2.666805e-07	-1.994828e-10	-1.855140e+00	-1.659820e+01
1.800000e-06	-2.198705e-07	-1.830497e-10	-1.529510e+00	-1.548769e+01
1.810000e-06	-1.730646e-07	-1.629911e-10	-1.203909e+00	-1.435779e+01
1.820000e-06	-1.263160e-07	-1.405160e-10	-8.787061e-01	-1.320871e+01
1.830000e-06	-7.951996e-08	-1.218769e-10	-5.531737e-01	-1.204071e+01
1.840000e-06	-3.272482e-08	-1.065658e-10	-2.276474e-01	-1.085412e+01
1.850000e-06	1.406404e-08	-9.313439e-11	9.783527e-02	-9.649354e+00
1.860000e-06	6.097437e-08	-8.104678e-11	4.241629e-01	-8.426884e+00
1.870000e-06	1.078701e-07	-6.686763e-11	7.503888e-01	-7.187261e+00
1.880000e-06	1.547194e-07	-4.892998e-11	1.076292e+00	-5.931105e+00
1.890000e-06	2.015729e-07	-2.521169e-11	1.402224e+00	-4.659103e+00
1.900000e-06	2.483115e-07	-2.127398e-12	1.727357e+00	-3.372015e+00
1.910000e-06	2.949714e-07	1.832791e-11	2.051943e+00	-2.070664e+00
1.920000e-06	3.417257e-07	3.498062e-11	2.377185e+00	-7.559377e-01
1.930000e-06	3.884902e-07	4.732462e-11	2.702498e+00	5.712139e-01
1.940000e-06	4.351426e-07	6.001254e-11	3.027032e+00	1.909783e+00
1.950000e-06	4.817269e-07	7.849915e-11	3.351092e+00	3.258707e+00
1.960000e-06	5.282655e-07	9.949695e-11	3.674833e+00	4.616873e+00
1.970000e-06	5.747206e-07	1.212192e-10	3.997994e+00	5.983120e+00
1.980000e-06	6.211644e-07	1.433824e-10	4.321076e+00	7.356247e+00
1.990000e-06	6.676089e-07	1.628204e-10	4.644164e+00	8.735014e+00
2.000000e-06	7.140232e-07	1.804869e-10	4.967040e+00	1.011815e+01
2.010000e-06	7.603879e-07	1.955431e-10	5.289573e+00	1.150436e+01
2.020000e-06	8.066165e-07	2.125662e-10	5.611158e+00	1.289232e+01
2.030000e-06	8.527724e-07	2.353099e-10	5.932237e+00	1.428071e+01
2.040000e-06	8.988961e-07	2.598817e-10	6.253093e+00	1.566817e+01
2.050000e-06	9.449967e-07	2.810483e-10	6.573788e+00	1.705337e+01
2.060000e-06	9.909942e-07	2.984226e-10	6.893765e+00	1.843496e+01
2.070000e-06	1.036908e-06	3.155286e-10	7.213162e+00	1.981161e+01
2.080000e-06	1.082842e-06	3.342458e-10	7.532694e+00	2.118199e+01
2.090000e-06	1.128668e-06	3.542305e-10	7.851480e+00	2.254482e+01
2.100000e-06	1.174351e-06	3.764960e-10	8.169271e+00	2.389882e+01
2.110000e-06	1.220025e-06	3.978363e-10	8.486998e+00	2.524276e+01
2.120000e-06	1.265621e-06	4.155536e-10	8.804182e+00	2.657542e+01
2.130000e-06	1.311176e-06	4.291385e-10	9.121086e+00	2.789566e+01
2.140000e-06	1.356617e-06	4.445571e-10	9.437186e+00	2.920237e+01
2.150000e-06	1.401892e-06	4.629667e-10	9.752137e+00	3.049448e+01
2.160000e-06	1.447101e-06	4.824520e-10	1.006663e+01	3.177099e+01
2.170000e-06	1.492175e-06	5.034345e-10	1.038019e+01	3.303097e+01
2.180000e-06	1.537163e-06	5.243058e-10	1.069314e+01	3.427353e+01
2.190000e-06	1.581991e-06	5.418615e-10	1.100498e+01	3.549786e+01
2.200000e-06	1.626618e-06	5.566225e-10	1.131543e+01	3.670323e+01
2.210000e-06	1.671204e-06	5.696178e-10	1.162558e+01	3.788895e+01
2.220000e-06	1.715691e-06	5.813549e-10	1.193506e+01	3.905444e+01
2.230000e-06	1.759980e-06	5.950683e-10	1.224315e+01	4.019917e+01
2.240000e-06	1.804127e-06	6.116547e-10	1.255025e+01	4.132268e+01
2.250000e-06	1.848185e-06	6.283584e-10	1.285674e+01	4.242461e+01
2.260000e-06	1.892218e-06	6.446412e-10	1.316305e+01	4.350465e+01
2.270000e-06	1.936193e-06	6.591480e-10	1.346896e+01	4.456258e+01
2.280000e-06	1.980052e-06	6.760016e-10	1.377406e+01	4.559823e+01
2.290000e-06	2.023859e-06	6.914396e-10	1.407880e+01	4.661154e+01
2.300000e-06	2.067644e-06	7.052457e-10	1.438339e+01	4.760247e+01
2.310000e-06	2.111340e-06	7.166399e-10	1.468735e+01	4.857108e+01
2.320000e-06	2.154920e-06	7.267757e-10	1.499052e+01	4.951748e+01
2.330000e-06	2.198447e-06	7.388558e-10	1.529330e+01	5.044184e+01
2.340000e-06	2.241935e-06	7.520187e-10	1.559583e+01	5.134440e+01
2.350000e-06	2.285204e-06	7.664898e-10	1.589682e+01	5.222542e+01
2.360000e-06	2.328205e-06	7.824186e-10	1.619596e+01	5.308525e+01
2.370000e-06	2.370991e-06	8.009863e-10	1.649359e+01	5.392425e+01
2.380000e-06	2.413508e-06	8.145983e-10	1.678936e+01	5.474283e+01
2.390000e-06	2.455561e-06	8.237209e-10	1.708190e+01	5.554144e+01
2.400000e-06	2.497140e-06	8.321126e-10	1.737114e+01	5.632055e+01
2.410000e-06	2.538349e-06	8.377043e-10	1.765780e+01	5.708067e+01
2.420000e-06	2.579409e-06	8.420791e-10	1.794344e+01	5.782232e+01
2.430000e-06	2.620420e-06	8.499536e-10	1.822872e+01	5.854603e+01
2.440000e-06	2.661079e-06	8.615717e-10	1.851157e+01	5.925235e+01
2.450000e-06	2.701384e-06	8.759418e-10	1.879194e+01	5.994184e+01
2.460000e-06	2.741532e-06	8.895647e-10	1.907123e+01	6.061505e+01
2.470000e-06	2.781549e-06	9.046043e-10	1.934960e+01	6.127255e+01
2.480000e-06	2.821444e-06	9.159536e-10	1.962713e+01	6.191487e+01
2.490000e-06	2.861281e-06	9.209662e-10	1.990425e+01	6.254256e+01
2.500000e-06	2.900974e-06	9.253056e-10	2.018037e+01	6.315614e+01
2.510000e-06	2.940513e-06	9.311613e-10	2.045543e+01	6.375613e+01
2.520000e-06	2.979933e-06	9.391772e-10	2.072965e+01	6.434302e+01
2.530000e-06	3.019200e-06	9.501985e-10	2.100280e+01	6.491727e+01
2.540000e-06	3.058203e-06	9.604711e-10	2.127413e+01	6.547933e+01
2.550000e-06	3.096899e-06	9.695295e-10	2.154331e+01	6.602963e+01
2.560000e-06	3.135257e-06	9.787507e-10	2.181014e+01	6.656856e+01
2.570000e-06	3.173370e-06	9.859547e-10	2.207527e+01	6.709647e+01
2.580000e-06	3.211369e-06	9.887542e-10	2.233961e+01	6.761371e+01
2.590000e-06	3.249167e-06	9.922422e-10	2.260255e+01	6.812059e+01
2.600000e-06	3.286728e-06	1.000792e-09	2.286384e+01	6.861739e+01
2.610000e-06	3.324130e-06	1.008688e-09	2.312402e+01	6.910435e+01
2.620000e-06	3.361337e-06	1.013230e-09	2.338285e+01	6.958169e+01
2.630000e-06	3.398212e-06	1.017562e-09	2.363937e+01	7.004962e+01
2.640000e-06	3.434799e-06	1.023375e-09	2.389389e+01	7.050829e+01
2.650000e-06	3.471138e-06	1.028795e-09	2.414667e+01	7.095786e+01
2.660000e-06	3.507299e-06	1.034776e-09	2.439822e+01	7.139844e+01
2.670000e-06	3.543321e-06	1.041091e-09	2.464880e+01	7.183014e+01
2.680000e-06	3.579146e-06	1.046377e-09	2.489802e+01	7.225303e+01
2.690000e-06	3.614872e-06	1.052232e-09	2.514654e+01	7.266719e+01
2.700000e-06	3.650486e-06	1.059599e-09	2.539429e+01	7.307267e+01
2.710000e-06	3.685870e-06	1.065219e-09	2.564043e+01	7.346950e+01
2.720000e-06	3.721027e-06	1.068208e-09	2.588500e+01	7.385772e+01
2.730000e-06	3.755929e-06	1.071237e-09	2.612780e+01	7.423736e+01
2.740000e-06	3.790414e-06	1.075022e-09	2.636769e+01	7.460843e+01
2.750000e-06	3.824383e-06	1.077719e-09	2.660399e+01	7.497096e+01
2.760000e-06	3.857824e-06	1.081186e-09	2.683662e+01	7.532497e+01
2.770000e-06	3.890857e-06	1.086232e-09	2.706641e+01	7.567047e+01
2.780000e-06	3.923560e-06	1.094134e-09	2.729391e+01	7.600752e+01
2.790000e-06	3.955882e-06	1.102826e-09	2.751875e+01	7.633613e+01
2.800000e-06	3.987956e-06	1.109325e-09	2.774187e+01	7.665636e+01
2.810000e-06	4.019888e-06	1.113030e-09	2.796401e+01	7.696826e+01
2.820000e-06	4.051676e-06	1.115181e-09	2.818513e+01	7.727191e+01
2.830000e-06	4.083259e-06	1.116991e-09	2.840484e+01	7.756739e+01
2.840000e-06	4.114625e-06	1.119279e-09	2.862303e+01	7.785480e+01
2.850000e-06	4.145689e-06	1.124083e-09	2.883913e+01	7.813425e+01
2.860000e-06	4.176444e-06	1.132344e-09	2.905307e+01	7.840586e+01
2.870000e-06	4.206942e-06	1.140210e-09	2.926523e+01	7.866979e+01
2.880000e-06	4.237020e-06	1.144554e-09	2.947446e+01	7.892619e+01
2.890000e-06	4.266798e-06	1.149041e-09	2.968161e+01	7.917524e+01
2.900000e-06	4.296375e-06	1.153374e-09	2.988736e+01	7.941713e+01
2.910000e-06	4.325620e-06	1.155099e-09	3.009080e+01	7.965206e+01
