# Temperatura_=_11.7
# Concentracion g/m^3_=_1620.0
# C_Vs_to_Am_M_A/Vsm_=_65563218390.804596
# pendiente_HvsI_1/m_=_3716.3
# ordenada_HvsI_A/m_=_1297.0
# frecuencia_Hz_=_135085.0863154588

Tiempo_(s)	Campo_(V.s)	Magnetizacion_(V.s)	Campo_(kA/m)	Magnetizacion_(A/m)
0.000000e+00	-5.502691e-06	-1.606457e-09	-3.836893e+01	-1.053262e+02
1.000000e-08	-5.502943e-06	-1.606443e-09	-3.837069e+01	-1.053364e+02
2.000000e-08	-5.502953e-06	-1.608499e-09	-3.837075e+01	-1.053429e+02
3.000000e-08	-5.502669e-06	-1.609006e-09	-3.836878e+01	-1.053455e+02
4.000000e-08	-5.501910e-06	-1.605726e-09	-3.836348e+01	-1.053439e+02
5.000000e-08	-5.500571e-06	-1.591302e-09	-3.835415e+01	-1.053380e+02
6.000000e-08	-5.498576e-06	-1.572505e-09	-3.834024e+01	-1.053274e+02
7.000000e-08	-5.495943e-06	-1.577495e-09	-3.832188e+01	-1.053120e+02
8.000000e-08	-5.492797e-06	-1.622539e-09	-3.829995e+01	-1.052915e+02
9.000000e-08	-5.489213e-06	-1.655105e-09	-3.827495e+01	-1.052657e+02
1.000000e-07	-5.485234e-06	-1.650586e-09	-3.824721e+01	-1.052343e+02
1.100000e-07	-5.480981e-06	-1.619249e-09	-3.821755e+01	-1.051972e+02
1.200000e-07	-5.476572e-06	-1.556237e-09	-3.818681e+01	-1.051542e+02
1.300000e-07	-5.471863e-06	-1.525375e-09	-3.815398e+01	-1.051051e+02
1.400000e-07	-5.466793e-06	-1.575124e-09	-3.811862e+01	-1.050497e+02
1.500000e-07	-5.461337e-06	-1.584462e-09	-3.808058e+01	-1.049878e+02
1.600000e-07	-5.455412e-06	-1.565522e-09	-3.803926e+01	-1.049193e+02
1.700000e-07	-5.449051e-06	-1.533361e-09	-3.799491e+01	-1.048440e+02
1.800000e-07	-5.442339e-06	-1.618330e-09	-3.794811e+01	-1.047619e+02
1.900000e-07	-5.435280e-06	-1.617605e-09	-3.789889e+01	-1.046729e+02
2.000000e-07	-5.427911e-06	-1.557013e-09	-3.784751e+01	-1.045768e+02
2.100000e-07	-5.420278e-06	-1.520467e-09	-3.779428e+01	-1.044736e+02
2.200000e-07	-5.412422e-06	-1.596139e-09	-3.773951e+01	-1.043632e+02
2.300000e-07	-5.404312e-06	-1.633613e-09	-3.768296e+01	-1.042457e+02
2.400000e-07	-5.395826e-06	-1.605036e-09	-3.762378e+01	-1.041211e+02
2.500000e-07	-5.386643e-06	-1.583293e-09	-3.755976e+01	-1.039892e+02
2.600000e-07	-5.376680e-06	-1.584740e-09	-3.749029e+01	-1.038503e+02
2.700000e-07	-5.366104e-06	-1.576881e-09	-3.741654e+01	-1.037043e+02
2.800000e-07	-5.355037e-06	-1.555319e-09	-3.733937e+01	-1.035512e+02
2.900000e-07	-5.343619e-06	-1.581039e-09	-3.725976e+01	-1.033913e+02
3.000000e-07	-5.331862e-06	-1.583149e-09	-3.717778e+01	-1.032245e+02
3.100000e-07	-5.319728e-06	-1.580413e-09	-3.709317e+01	-1.030509e+02
3.200000e-07	-5.307145e-06	-1.555387e-09	-3.700543e+01	-1.028708e+02
3.300000e-07	-5.294087e-06	-1.575058e-09	-3.691439e+01	-1.026842e+02
3.400000e-07	-5.280622e-06	-1.545724e-09	-3.682050e+01	-1.024913e+02
3.500000e-07	-5.266700e-06	-1.560149e-09	-3.672342e+01	-1.022922e+02
3.600000e-07	-5.252414e-06	-1.556683e-09	-3.662381e+01	-1.020871e+02
3.700000e-07	-5.237763e-06	-1.556322e-09	-3.652165e+01	-1.018762e+02
3.800000e-07	-5.222447e-06	-1.536941e-09	-3.641485e+01	-1.016595e+02
3.900000e-07	-5.206659e-06	-1.570628e-09	-3.630477e+01	-1.014373e+02
4.000000e-07	-5.190439e-06	-1.539022e-09	-3.619167e+01	-1.012098e+02
4.100000e-07	-5.173791e-06	-1.513370e-09	-3.607559e+01	-1.009771e+02
4.200000e-07	-5.156873e-06	-1.542047e-09	-3.595763e+01	-1.007393e+02
4.300000e-07	-5.139635e-06	-1.560291e-09	-3.583743e+01	-1.004968e+02
4.400000e-07	-5.122101e-06	-1.507601e-09	-3.571517e+01	-1.002495e+02
4.500000e-07	-5.104262e-06	-1.530619e-09	-3.559078e+01	-9.999767e+01
4.600000e-07	-5.086004e-06	-1.569906e-09	-3.546347e+01	-9.974146e+01
4.700000e-07	-5.067163e-06	-1.506853e-09	-3.533210e+01	-9.948098e+01
4.800000e-07	-5.047930e-06	-1.481864e-09	-3.519799e+01	-9.921638e+01
4.900000e-07	-5.028492e-06	-1.557943e-09	-3.506246e+01	-9.894776e+01
5.000000e-07	-5.008864e-06	-1.543640e-09	-3.492559e+01	-9.867525e+01
5.100000e-07	-4.989126e-06	-1.475269e-09	-3.478797e+01	-9.839892e+01
5.200000e-07	-4.969172e-06	-1.525308e-09	-3.464883e+01	-9.811888e+01
5.300000e-07	-4.948737e-06	-1.549341e-09	-3.450634e+01	-9.783519e+01
5.400000e-07	-4.927891e-06	-1.487011e-09	-3.436099e+01	-9.754792e+01
5.500000e-07	-4.906779e-06	-1.492060e-09	-3.421378e+01	-9.725711e+01
5.600000e-07	-4.885359e-06	-1.532308e-09	-3.406443e+01	-9.696281e+01
5.700000e-07	-4.863583e-06	-1.469169e-09	-3.391259e+01	-9.666503e+01
5.800000e-07	-4.841424e-06	-1.461007e-09	-3.375807e+01	-9.636380e+01
5.900000e-07	-4.818959e-06	-1.518162e-09	-3.360143e+01	-9.605911e+01
6.000000e-07	-4.796090e-06	-1.495818e-09	-3.344198e+01	-9.575095e+01
6.100000e-07	-4.772897e-06	-1.445023e-09	-3.328026e+01	-9.543931e+01
6.200000e-07	-4.749499e-06	-1.484945e-09	-3.311711e+01	-9.512415e+01
6.300000e-07	-4.725808e-06	-1.473781e-09	-3.295191e+01	-9.480544e+01
6.400000e-07	-4.701896e-06	-1.429344e-09	-3.278518e+01	-9.448313e+01
6.500000e-07	-4.677768e-06	-1.445094e-09	-3.261694e+01	-9.415715e+01
6.600000e-07	-4.653253e-06	-1.463844e-09	-3.244601e+01	-9.382746e+01
6.700000e-07	-4.628240e-06	-1.423126e-09	-3.227159e+01	-9.349397e+01
6.800000e-07	-4.602720e-06	-1.430350e-09	-3.209365e+01	-9.315661e+01
6.900000e-07	-4.576538e-06	-1.447005e-09	-3.191109e+01	-9.281530e+01
7.000000e-07	-4.549772e-06	-1.421037e-09	-3.172446e+01	-9.246996e+01
7.100000e-07	-4.522709e-06	-1.401983e-09	-3.153576e+01	-9.212051e+01
7.200000e-07	-4.495401e-06	-1.416906e-09	-3.134534e+01	-9.176684e+01
7.300000e-07	-4.467864e-06	-1.400982e-09	-3.115333e+01	-9.140888e+01
7.400000e-07	-4.440183e-06	-1.383653e-09	-3.096032e+01	-9.104652e+01
7.500000e-07	-4.412358e-06	-1.387763e-09	-3.076630e+01	-9.067968e+01
7.600000e-07	-4.384295e-06	-1.377360e-09	-3.057062e+01	-9.030827e+01
7.700000e-07	-4.355918e-06	-1.355529e-09	-3.037276e+01	-8.993220e+01
7.800000e-07	-4.327160e-06	-1.355525e-09	-3.017224e+01	-8.955139e+01
7.900000e-07	-4.297927e-06	-1.355407e-09	-2.996840e+01	-8.916574e+01
8.000000e-07	-4.268354e-06	-1.344331e-09	-2.976220e+01	-8.877517e+01
8.100000e-07	-4.238628e-06	-1.342575e-09	-2.955493e+01	-8.837962e+01
8.200000e-07	-4.208751e-06	-1.338817e-09	-2.934660e+01	-8.797901e+01
8.300000e-07	-4.178610e-06	-1.325196e-09	-2.913643e+01	-8.757327e+01
8.400000e-07	-4.148038e-06	-1.314082e-09	-2.892326e+01	-8.716233e+01
8.500000e-07	-4.117102e-06	-1.312660e-09	-2.870756e+01	-8.674614e+01
8.600000e-07	-4.085866e-06	-1.296093e-09	-2.848975e+01	-8.632465e+01
8.700000e-07	-4.054420e-06	-1.282478e-09	-2.827049e+01	-8.589780e+01
8.800000e-07	-4.022896e-06	-1.278261e-09	-2.805068e+01	-8.546555e+01
8.900000e-07	-3.991268e-06	-1.277376e-09	-2.783014e+01	-8.502787e+01
9.000000e-07	-3.959449e-06	-1.264884e-09	-2.760827e+01	-8.458472e+01
9.100000e-07	-3.927303e-06	-1.263467e-09	-2.738413e+01	-8.413609e+01
9.200000e-07	-3.894837e-06	-1.261064e-09	-2.715775e+01	-8.368194e+01
9.300000e-07	-3.861988e-06	-1.253321e-09	-2.692870e+01	-8.322226e+01
9.400000e-07	-3.828760e-06	-1.242949e-09	-2.669701e+01	-8.275704e+01
9.500000e-07	-3.795010e-06	-1.238930e-09	-2.646168e+01	-8.228629e+01
9.600000e-07	-3.760730e-06	-1.222843e-09	-2.622266e+01	-8.180999e+01
9.700000e-07	-3.726146e-06	-1.207941e-09	-2.598151e+01	-8.132815e+01
9.800000e-07	-3.691116e-06	-1.203833e-09	-2.573726e+01	-8.084078e+01
9.900000e-07	-3.655743e-06	-1.204374e-09	-2.549061e+01	-8.034789e+01
1.000000e-06	-3.620253e-06	-1.198106e-09	-2.524314e+01	-7.984951e+01
1.010000e-06	-3.584650e-06	-1.195662e-09	-2.499489e+01	-7.934565e+01
1.020000e-06	-3.548892e-06	-1.189548e-09	-2.474557e+01	-7.883634e+01
1.030000e-06	-3.513044e-06	-1.176964e-09	-2.449561e+01	-7.832159e+01
1.040000e-06	-3.477050e-06	-1.163245e-09	-2.424462e+01	-7.780146e+01
1.050000e-06	-3.440797e-06	-1.154832e-09	-2.399184e+01	-7.727596e+01
1.060000e-06	-3.404258e-06	-1.143611e-09	-2.373707e+01	-7.674514e+01
1.070000e-06	-3.367475e-06	-1.132857e-09	-2.348059e+01	-7.620902e+01
1.080000e-06	-3.330476e-06	-1.129749e-09	-2.322260e+01	-7.566766e+01
1.090000e-06	-3.293203e-06	-1.123931e-09	-2.296270e+01	-7.512108e+01
1.100000e-06	-3.255600e-06	-1.113324e-09	-2.270051e+01	-7.456934e+01
1.110000e-06	-3.217750e-06	-1.103930e-09	-2.243659e+01	-7.401246e+01
1.120000e-06	-3.179763e-06	-1.097057e-09	-2.217171e+01	-7.345050e+01
1.130000e-06	-3.141474e-06	-1.085321e-09	-2.190474e+01	-7.288349e+01
1.140000e-06	-3.102892e-06	-1.078140e-09	-2.163572e+01	-7.231147e+01
1.150000e-06	-3.064140e-06	-1.072770e-09	-2.136550e+01	-7.173448e+01
1.160000e-06	-3.025213e-06	-1.064566e-09	-2.109407e+01	-7.115256e+01
1.170000e-06	-2.986071e-06	-1.052578e-09	-2.082115e+01	-7.056573e+01
1.180000e-06	-2.946809e-06	-1.044626e-09	-2.054738e+01	-6.997402e+01
1.190000e-06	-2.907435e-06	-1.034201e-09	-2.027284e+01	-6.937747e+01
1.200000e-06	-2.867862e-06	-1.022399e-09	-1.999690e+01	-6.877608e+01
1.210000e-06	-2.828145e-06	-1.012198e-09	-1.971997e+01	-6.816988e+01
1.220000e-06	-2.788332e-06	-1.004988e-09	-1.944236e+01	-6.755887e+01
1.230000e-06	-2.748452e-06	-9.939916e-10	-1.916429e+01	-6.694305e+01
1.240000e-06	-2.708398e-06	-9.845014e-10	-1.888501e+01	-6.632240e+01
1.250000e-06	-2.668189e-06	-9.738711e-10	-1.860463e+01	-6.569693e+01
1.260000e-06	-2.627784e-06	-9.623700e-10	-1.832290e+01	-6.506659e+01
1.270000e-06	-2.587017e-06	-9.489922e-10	-1.803864e+01	-6.443134e+01
1.280000e-06	-2.546007e-06	-9.385678e-10	-1.775269e+01	-6.379115e+01
1.290000e-06	-2.504858e-06	-9.302973e-10	-1.746577e+01	-6.314593e+01
1.300000e-06	-2.463334e-06	-9.211757e-10	-1.717623e+01	-6.249563e+01
1.310000e-06	-2.421328e-06	-9.105014e-10	-1.688334e+01	-6.184014e+01
1.320000e-06	-2.379116e-06	-8.998360e-10	-1.658900e+01	-6.117935e+01
1.330000e-06	-2.336691e-06	-8.881541e-10	-1.629318e+01	-6.051315e+01
1.340000e-06	-2.294025e-06	-8.760988e-10	-1.599568e+01	-5.984139e+01
1.350000e-06	-2.251061e-06	-8.631596e-10	-1.569610e+01	-5.916392e+01
1.360000e-06	-2.207778e-06	-8.497121e-10	-1.539430e+01	-5.848055e+01
1.370000e-06	-2.164372e-06	-8.368611e-10	-1.509164e+01	-5.779109e+01
1.380000e-06	-2.120853e-06	-8.278789e-10	-1.478819e+01	-5.709532e+01
1.390000e-06	-2.077220e-06	-8.220178e-10	-1.448395e+01	-5.639301e+01
1.400000e-06	-2.033552e-06	-8.130246e-10	-1.417946e+01	-5.568390e+01
1.410000e-06	-1.989870e-06	-8.012173e-10	-1.387488e+01	-5.496771e+01
1.420000e-06	-1.946086e-06	-7.871095e-10	-1.356958e+01	-5.424415e+01
1.430000e-06	-1.902158e-06	-7.745935e-10	-1.326328e+01	-5.351289e+01
1.440000e-06	-1.858172e-06	-7.610553e-10	-1.295658e+01	-5.277360e+01
1.450000e-06	-1.814111e-06	-7.472923e-10	-1.264935e+01	-5.202593e+01
1.460000e-06	-1.770007e-06	-7.355673e-10	-1.234183e+01	-5.126948e+01
1.470000e-06	-1.725806e-06	-7.239498e-10	-1.203362e+01	-5.050388e+01
1.480000e-06	-1.681449e-06	-7.084622e-10	-1.172433e+01	-4.972870e+01
1.490000e-06	-1.636970e-06	-6.930907e-10	-1.141419e+01	-4.894353e+01
1.500000e-06	-1.592210e-06	-6.778525e-10	-1.110209e+01	-4.814791e+01
1.510000e-06	-1.547355e-06	-6.671851e-10	-1.078933e+01	-4.734140e+01
1.520000e-06	-1.502465e-06	-6.577440e-10	-1.047633e+01	-4.652353e+01
1.530000e-06	-1.457325e-06	-6.472230e-10	-1.016157e+01	-4.569382e+01
1.540000e-06	-1.412081e-06	-6.331961e-10	-9.846101e+00	-4.485180e+01
1.550000e-06	-1.366813e-06	-6.154484e-10	-9.530458e+00	-4.399697e+01
1.560000e-06	-1.321436e-06	-5.972884e-10	-9.214053e+00	-4.312885e+01
1.570000e-06	-1.276009e-06	-5.785581e-10	-8.897301e+00	-4.224695e+01
1.580000e-06	-1.230483e-06	-5.632506e-10	-8.579860e+00	-4.135079e+01
1.590000e-06	-1.184858e-06	-5.503120e-10	-8.261725e+00	-4.043988e+01
1.600000e-06	-1.139144e-06	-5.418805e-10	-7.942973e+00	-3.951377e+01
1.610000e-06	-1.093293e-06	-5.318020e-10	-7.623267e+00	-3.857198e+01
1.620000e-06	-1.047386e-06	-5.161220e-10	-7.303168e+00	-3.761409e+01
1.630000e-06	-1.001471e-06	-4.986070e-10	-6.983018e+00	-3.663966e+01
1.640000e-06	-9.555672e-07	-4.807577e-10	-6.662938e+00	-3.564829e+01
1.650000e-06	-9.095575e-07	-4.605864e-10	-6.342124e+00	-3.463962e+01
1.660000e-06	-8.634239e-07	-4.408301e-10	-6.020446e+00	-3.361329e+01
1.670000e-06	-8.173045e-07	-4.266547e-10	-5.698866e+00	-3.256899e+01
1.680000e-06	-7.711008e-07	-4.133969e-10	-5.376699e+00	-3.150644e+01
1.690000e-06	-7.247690e-07	-4.010878e-10	-5.053639e+00	-3.042539e+01
1.700000e-06	-6.784647e-07	-3.874913e-10	-4.730770e+00	-2.932564e+01
1.710000e-06	-6.321600e-07	-3.711150e-10	-4.407898e+00	-2.820704e+01
1.720000e-06	-5.857632e-07	-3.515453e-10	-4.084385e+00	-2.706948e+01
1.730000e-06	-5.393734e-07	-3.288663e-10	-3.760920e+00	-2.591288e+01
1.740000e-06	-4.929430e-07	-3.064873e-10	-3.437172e+00	-2.473724e+01
1.750000e-06	-4.463900e-07	-2.863946e-10	-3.112569e+00	-2.354260e+01
1.760000e-06	-3.997457e-07	-2.703182e-10	-2.787330e+00	-2.232906e+01
1.770000e-06	-3.530093e-07	-2.578207e-10	-2.461448e+00	-2.109676e+01
1.780000e-06	-3.063949e-07	-2.447690e-10	-2.136418e+00	-1.984593e+01
1.790000e-06	-2.598042e-07	-2.305023e-10	-1.811552e+00	-1.857682e+01
1.800000e-06	-2.130299e-07	-2.116702e-10	-1.485406e+00	-1.728977e+01
1.810000e-06	-1.662613e-07	-1.887577e-10	-1.159300e+00	-1.598516e+01
1.820000e-06	-1.195733e-07	-1.659922e-10	-8.337554e-01	-1.466345e+01
1.830000e-06	-7.281529e-08	-1.486364e-10	-5.077234e-01	-1.332514e+01
1.840000e-06	-2.608909e-08	-1.353423e-10	-1.819129e-01	-1.197079e+01
1.850000e-06	2.053893e-08	-1.199931e-10	1.432130e-01	-1.060102e+01
1.860000e-06	6.726189e-08	-1.038499e-10	4.690008e-01	-9.216524e+00
1.870000e-06	1.139768e-07	-8.509737e-11	7.947328e-01	-7.818025e+00
1.880000e-06	1.605927e-07	-6.235561e-11	1.119774e+00	-6.406310e+00
1.890000e-06	2.072196e-07	-3.834582e-11	1.444892e+00	-4.982216e+00
1.900000e-06	2.538149e-07	-1.554914e-11	1.769790e+00	-3.546624e+00
1.910000e-06	3.003601e-07	5.907795e-12	2.094338e+00	-2.100464e+00
1.920000e-06	3.469055e-07	2.516559e-11	2.418888e+00	-6.447026e-01
1.930000e-06	3.934358e-07	4.124426e-11	2.743332e+00	8.196523e-01
1.940000e-06	4.399769e-07	5.759685e-11	3.067852e+00	2.291560e+00
1.950000e-06	4.865184e-07	7.702563e-11	3.392375e+00	3.769951e+00
1.960000e-06	5.330290e-07	9.993985e-11	3.716682e+00	5.253727e+00
1.970000e-06	5.793942e-07	1.267077e-10	4.039975e+00	6.741769e+00
1.980000e-06	6.256135e-07	1.527960e-10	4.362251e+00	8.232941e+00
1.990000e-06	6.718784e-07	1.760564e-10	4.684845e+00	9.726093e+00
2.000000e-06	7.181087e-07	1.940251e-10	5.007198e+00	1.122007e+01
2.010000e-06	7.642581e-07	2.108466e-10	5.328986e+00	1.271370e+01
2.020000e-06	8.104292e-07	2.322577e-10	5.650926e+00	1.420584e+01
2.030000e-06	8.565321e-07	2.559478e-10	5.972391e+00	1.569531e+01
2.040000e-06	9.025216e-07	2.795993e-10	6.293064e+00	1.718099e+01
2.050000e-06	9.484235e-07	3.034516e-10	6.613127e+00	1.866172e+01
2.060000e-06	9.942754e-07	3.255480e-10	6.932841e+00	2.013641e+01
2.070000e-06	1.040103e-06	3.463385e-10	7.252383e+00	2.160395e+01
2.080000e-06	1.085899e-06	3.682802e-10	7.571714e+00	2.306328e+01
2.090000e-06	1.131587e-06	3.908968e-10	7.890282e+00	2.451337e+01
2.100000e-06	1.177207e-06	4.136082e-10	8.208377e+00	2.595322e+01
2.110000e-06	1.222797e-06	4.350841e-10	8.526269e+00	2.738186e+01
2.120000e-06	1.268270e-06	4.534023e-10	8.843337e+00	2.879837e+01
2.130000e-06	1.313618e-06	4.716045e-10	9.159541e+00	3.020187e+01
2.140000e-06	1.358876e-06	4.920163e-10	9.475111e+00	3.159153e+01
2.150000e-06	1.404068e-06	5.149403e-10	9.790224e+00	3.296655e+01
2.160000e-06	1.449207e-06	5.378452e-10	1.010497e+01	3.432622e+01
2.170000e-06	1.494238e-06	5.581487e-10	1.041896e+01	3.566983e+01
2.180000e-06	1.539091e-06	5.787650e-10	1.073171e+01	3.699677e+01
2.190000e-06	1.583887e-06	5.984399e-10	1.104406e+01	3.830644e+01
2.200000e-06	1.628544e-06	6.153802e-10	1.135545e+01	3.959834e+01
2.210000e-06	1.673001e-06	6.299858e-10	1.166543e+01	4.087199e+01
2.220000e-06	1.717372e-06	6.446099e-10	1.197482e+01	4.212699e+01
2.230000e-06	1.761659e-06	6.614802e-10	1.228362e+01	4.336297e+01
2.240000e-06	1.805793e-06	6.786530e-10	1.259136e+01	4.457963e+01
2.250000e-06	1.849802e-06	6.953239e-10	1.289822e+01	4.577673e+01
2.260000e-06	1.893756e-06	7.109373e-10	1.320470e+01	4.695406e+01
2.270000e-06	1.937595e-06	7.260034e-10	1.351038e+01	4.811148e+01
2.280000e-06	1.981335e-06	7.438363e-10	1.381537e+01	4.924890e+01
2.290000e-06	2.025011e-06	7.604783e-10	1.411991e+01	5.036626e+01
2.300000e-06	2.068613e-06	7.771088e-10	1.442394e+01	5.146356e+01
2.310000e-06	2.112169e-06	7.916127e-10	1.472764e+01	5.254084e+01
2.320000e-06	2.155624e-06	8.051266e-10	1.503064e+01	5.359819e+01
2.330000e-06	2.198927e-06	8.179959e-10	1.533258e+01	5.463572e+01
2.340000e-06	2.242102e-06	8.311314e-10	1.563363e+01	5.565359e+01
2.350000e-06	2.285035e-06	8.471641e-10	1.593300e+01	5.665200e+01
2.360000e-06	2.327691e-06	8.645290e-10	1.623042e+01	5.763115e+01
2.370000e-06	2.370166e-06	8.813391e-10	1.652659e+01	5.859131e+01
2.380000e-06	2.412372e-06	8.946696e-10	1.682089e+01	5.953274e+01
2.390000e-06	2.454222e-06	9.060291e-10	1.711269e+01	6.045575e+01
2.400000e-06	2.495774e-06	9.165892e-10	1.740243e+01	6.136065e+01
2.410000e-06	2.537122e-06	9.255172e-10	1.769073e+01	6.224778e+01
2.420000e-06	2.578098e-06	9.353948e-10	1.797645e+01	6.311749e+01
2.430000e-06	2.618727e-06	9.492525e-10	1.825975e+01	6.397015e+01
2.440000e-06	2.659133e-06	9.638212e-10	1.854149e+01	6.480611e+01
2.450000e-06	2.699375e-06	9.748762e-10	1.882208e+01	6.562578e+01
2.460000e-06	2.739544e-06	9.860214e-10	1.910218e+01	6.642953e+01
2.470000e-06	2.779502e-06	1.000201e-09	1.938079e+01	6.721775e+01
2.480000e-06	2.819243e-06	1.010844e-09	1.965790e+01	6.799085e+01
2.490000e-06	2.858884e-06	1.021539e-09	1.993430e+01	6.874921e+01
2.500000e-06	2.898464e-06	1.032607e-09	2.021029e+01	6.949322e+01
2.510000e-06	2.937902e-06	1.042426e-09	2.048528e+01	7.022327e+01
2.520000e-06	2.977180e-06	1.052546e-09	2.075915e+01	7.093975e+01
2.530000e-06	3.016276e-06	1.062496e-09	2.103176e+01	7.164305e+01
2.540000e-06	3.055059e-06	1.071014e-09	2.130219e+01	7.233352e+01
2.550000e-06	3.093506e-06	1.080014e-09	2.157027e+01	7.301155e+01
2.560000e-06	3.131784e-06	1.090875e-09	2.183717e+01	7.367749e+01
2.570000e-06	3.169913e-06	1.101108e-09	2.210303e+01	7.433169e+01
2.580000e-06	3.207808e-06	1.108379e-09	2.236726e+01	7.497450e+01
2.590000e-06	3.245548e-06	1.114968e-09	2.263042e+01	7.560624e+01
2.600000e-06	3.283129e-06	1.123319e-09	2.289246e+01	7.622726e+01
2.610000e-06	3.320449e-06	1.132432e-09	2.315268e+01	7.683785e+01
2.620000e-06	3.357543e-06	1.138851e-09	2.341134e+01	7.743834e+01
2.630000e-06	3.394430e-06	1.144934e-09	2.366854e+01	7.802901e+01
2.640000e-06	3.431041e-06	1.152355e-09	2.392381e+01	7.861016e+01
2.650000e-06	3.467354e-06	1.160535e-09	2.417702e+01	7.918206e+01
2.660000e-06	3.503423e-06	1.170183e-09	2.442852e+01	7.974500e+01
2.670000e-06	3.539304e-06	1.179177e-09	2.467871e+01	8.029922e+01
2.680000e-06	3.575035e-06	1.186391e-09	2.492785e+01	8.084498e+01
2.690000e-06	3.610651e-06	1.192993e-09	2.517620e+01	8.138253e+01
2.700000e-06	3.646198e-06	1.199422e-09	2.542406e+01	8.191211e+01
2.710000e-06	3.681584e-06	1.205338e-09	2.567079e+01	8.243394e+01
2.720000e-06	3.716636e-06	1.212739e-09	2.591520e+01	8.294824e+01
2.730000e-06	3.751370e-06	1.221540e-09	2.615739e+01	8.345523e+01
2.740000e-06	3.785755e-06	1.230979e-09	2.639715e+01	8.395510e+01
2.750000e-06	3.819641e-06	1.238356e-09	2.663343e+01	8.444807e+01
2.760000e-06	3.852981e-06	1.243466e-09	2.686590e+01	8.493431e+01
2.770000e-06	3.885863e-06	1.249276e-09	2.709518e+01	8.541401e+01
2.780000e-06	3.918395e-06	1.256532e-09	2.732202e+01	8.588734e+01
2.790000e-06	3.950599e-06	1.263451e-09	2.754657e+01	8.635445e+01
2.800000e-06	3.982522e-06	1.271476e-09	2.776916e+01	8.681552e+01
2.810000e-06	4.014285e-06	1.280919e-09	2.799064e+01	8.727068e+01
2.820000e-06	4.045914e-06	1.290288e-09	2.821117e+01	8.772007e+01
2.830000e-06	4.077356e-06	1.298312e-09	2.843042e+01	8.816381e+01
2.840000e-06	4.108642e-06	1.304688e-09	2.864857e+01	8.860203e+01
2.850000e-06	4.139675e-06	1.309695e-09	2.886495e+01	8.903483e+01
2.860000e-06	4.170325e-06	1.316218e-09	2.907867e+01	8.946232e+01
2.870000e-06	4.200638e-06	1.322319e-09	2.929003e+01	8.988456e+01
2.880000e-06	4.230629e-06	1.327775e-09	2.949915e+01	9.030165e+01
2.890000e-06	4.260280e-06	1.335361e-09	2.970590e+01	9.071363e+01
2.900000e-06	4.289603e-06	1.344953e-09	2.991036e+01	9.112057e+01
2.910000e-06	4.318669e-06	1.354646e-09	3.011303e+01	9.152251e+01
