# Temperatura_=_-6.19
# Concentracion g/m^3_=_1620.0
# C_Vs_to_Am_M_A/Vsm_=_65563218390.804596
# pendiente_HvsI_1/m_=_3716.3
# ordenada_HvsI_A/m_=_1297.0
# frecuencia_Hz_=_135106.42530367925

Tiempo_(s)	Campo_(V.s)	Magnetizacion_(V.s)	Campo_(kA/m)	Magnetizacion_(A/m)
0.000000e+00	-5.502786e-06	-6.752383e-10	-3.835601e+01	-4.565148e+01
1.000000e-08	-5.503024e-06	-6.731326e-10	-3.835767e+01	-4.565560e+01
2.000000e-08	-5.503040e-06	-6.718015e-10	-3.835778e+01	-4.566606e+01
3.000000e-08	-5.502698e-06	-6.730696e-10	-3.835540e+01	-4.568275e+01
4.000000e-08	-5.501819e-06	-6.716603e-10	-3.834927e+01	-4.570553e+01
5.000000e-08	-5.500306e-06	-6.627420e-10	-3.833873e+01	-4.573419e+01
6.000000e-08	-5.498075e-06	-6.662589e-10	-3.832318e+01	-4.576849e+01
7.000000e-08	-5.495254e-06	-6.929615e-10	-3.830352e+01	-4.580815e+01
8.000000e-08	-5.492003e-06	-6.954444e-10	-3.828086e+01	-4.585285e+01
9.000000e-08	-5.488367e-06	-6.875662e-10	-3.825551e+01	-4.590222e+01
1.000000e-07	-5.484403e-06	-7.331516e-10	-3.822788e+01	-4.595588e+01
1.100000e-07	-5.480091e-06	-7.101772e-10	-3.819783e+01	-4.601339e+01
1.200000e-07	-5.475494e-06	-6.150833e-10	-3.816578e+01	-4.607429e+01
1.300000e-07	-5.470681e-06	-5.983257e-10	-3.813223e+01	-4.613811e+01
1.400000e-07	-5.465529e-06	-6.999993e-10	-3.809633e+01	-4.620434e+01
1.500000e-07	-5.459917e-06	-7.349938e-10	-3.805720e+01	-4.627243e+01
1.600000e-07	-5.453938e-06	-6.233275e-10	-3.801553e+01	-4.634186e+01
1.700000e-07	-5.447619e-06	-5.893986e-10	-3.797148e+01	-4.641206e+01
1.800000e-07	-5.440903e-06	-7.182338e-10	-3.792468e+01	-4.648247e+01
1.900000e-07	-5.433770e-06	-7.704411e-10	-3.787496e+01	-4.655252e+01
2.000000e-07	-5.426293e-06	-6.929906e-10	-3.782284e+01	-4.662164e+01
2.100000e-07	-5.418608e-06	-6.443256e-10	-3.776927e+01	-4.668926e+01
2.200000e-07	-5.410699e-06	-7.288950e-10	-3.771414e+01	-4.675484e+01
2.300000e-07	-5.402468e-06	-7.602415e-10	-3.765677e+01	-4.681782e+01
2.400000e-07	-5.393692e-06	-7.133425e-10	-3.759560e+01	-4.687767e+01
2.500000e-07	-5.384225e-06	-6.768104e-10	-3.752961e+01	-4.693390e+01
2.600000e-07	-5.373926e-06	-7.281771e-10	-3.745782e+01	-4.698601e+01
2.700000e-07	-5.362999e-06	-7.483506e-10	-3.738166e+01	-4.703355e+01
2.800000e-07	-5.351802e-06	-7.153840e-10	-3.730362e+01	-4.707610e+01
2.900000e-07	-5.340231e-06	-7.061379e-10	-3.722296e+01	-4.711325e+01
3.000000e-07	-5.328208e-06	-7.234098e-10	-3.713916e+01	-4.714466e+01
3.100000e-07	-5.315802e-06	-7.312127e-10	-3.705269e+01	-4.717000e+01
3.200000e-07	-5.303095e-06	-7.041019e-10	-3.696411e+01	-4.718900e+01
3.300000e-07	-5.290004e-06	-6.979965e-10	-3.687286e+01	-4.720141e+01
3.400000e-07	-5.276453e-06	-7.208432e-10	-3.677841e+01	-4.720705e+01
3.500000e-07	-5.262525e-06	-7.566716e-10	-3.668133e+01	-4.720577e+01
3.600000e-07	-5.248189e-06	-7.130619e-10	-3.658140e+01	-4.719745e+01
3.700000e-07	-5.233382e-06	-6.937333e-10	-3.647819e+01	-4.718204e+01
3.800000e-07	-5.218107e-06	-7.309574e-10	-3.637172e+01	-4.715951e+01
3.900000e-07	-5.202289e-06	-7.369834e-10	-3.626146e+01	-4.712991e+01
4.000000e-07	-5.185955e-06	-6.686444e-10	-3.614761e+01	-4.709329e+01
4.100000e-07	-5.169223e-06	-7.118991e-10	-3.603098e+01	-4.704976e+01
4.200000e-07	-5.152155e-06	-7.651612e-10	-3.591202e+01	-4.699948e+01
4.300000e-07	-5.134790e-06	-6.964652e-10	-3.579098e+01	-4.694263e+01
4.400000e-07	-5.117068e-06	-6.728722e-10	-3.566745e+01	-4.687943e+01
4.500000e-07	-5.099004e-06	-7.778565e-10	-3.554154e+01	-4.681013e+01
4.600000e-07	-5.080513e-06	-7.451659e-10	-3.541265e+01	-4.673503e+01
4.700000e-07	-5.061544e-06	-6.535040e-10	-3.528043e+01	-4.665442e+01
4.800000e-07	-5.042274e-06	-7.267655e-10	-3.514611e+01	-4.656864e+01
4.900000e-07	-5.022809e-06	-7.738231e-10	-3.501044e+01	-4.647805e+01
5.000000e-07	-5.003135e-06	-6.709212e-10	-3.487330e+01	-4.638300e+01
5.100000e-07	-4.983259e-06	-6.912458e-10	-3.473476e+01	-4.628388e+01
5.200000e-07	-4.963149e-06	-7.736981e-10	-3.459459e+01	-4.618108e+01
5.300000e-07	-4.942713e-06	-6.964336e-10	-3.445214e+01	-4.607500e+01
5.400000e-07	-4.921883e-06	-6.657276e-10	-3.430696e+01	-4.596602e+01
5.500000e-07	-4.900655e-06	-7.714644e-10	-3.415899e+01	-4.585453e+01
5.600000e-07	-4.879050e-06	-7.365102e-10	-3.400840e+01	-4.574094e+01
5.700000e-07	-4.857112e-06	-6.467961e-10	-3.385548e+01	-4.562561e+01
5.800000e-07	-4.834847e-06	-7.255540e-10	-3.370029e+01	-4.550890e+01
5.900000e-07	-4.812183e-06	-7.550212e-10	-3.354231e+01	-4.539117e+01
6.000000e-07	-4.789217e-06	-6.670187e-10	-3.338224e+01	-4.527274e+01
6.100000e-07	-4.766018e-06	-6.891649e-10	-3.322053e+01	-4.515393e+01
6.200000e-07	-4.742579e-06	-7.448101e-10	-3.305715e+01	-4.503501e+01
6.300000e-07	-4.718941e-06	-6.830611e-10	-3.289239e+01	-4.491626e+01
6.400000e-07	-4.695007e-06	-6.749706e-10	-3.272556e+01	-4.479789e+01
6.500000e-07	-4.670630e-06	-7.274557e-10	-3.255565e+01	-4.468012e+01
6.600000e-07	-4.645752e-06	-6.989528e-10	-3.238224e+01	-4.456311e+01
6.700000e-07	-4.620410e-06	-6.693794e-10	-3.220560e+01	-4.444702e+01
6.800000e-07	-4.594536e-06	-7.125781e-10	-3.202525e+01	-4.433194e+01
6.900000e-07	-4.568118e-06	-7.030080e-10	-3.184111e+01	-4.421795e+01
7.000000e-07	-4.541315e-06	-6.727861e-10	-3.165428e+01	-4.410512e+01
7.100000e-07	-4.514173e-06	-6.950239e-10	-3.146510e+01	-4.399344e+01
7.200000e-07	-4.486766e-06	-7.045696e-10	-3.127406e+01	-4.388291e+01
7.300000e-07	-4.459160e-06	-6.706489e-10	-3.108164e+01	-4.377348e+01
7.400000e-07	-4.431334e-06	-6.752672e-10	-3.088768e+01	-4.366509e+01
7.500000e-07	-4.403277e-06	-6.883063e-10	-3.069212e+01	-4.355763e+01
7.600000e-07	-4.374954e-06	-6.761139e-10	-3.049470e+01	-4.345098e+01
7.700000e-07	-4.346378e-06	-6.735387e-10	-3.029551e+01	-4.334499e+01
7.800000e-07	-4.317457e-06	-6.837678e-10	-3.009393e+01	-4.323951e+01
7.900000e-07	-4.288181e-06	-6.722367e-10	-2.988987e+01	-4.313434e+01
8.000000e-07	-4.258640e-06	-6.660917e-10	-2.968395e+01	-4.302930e+01
8.100000e-07	-4.228853e-06	-6.708249e-10	-2.947633e+01	-4.292416e+01
8.200000e-07	-4.198819e-06	-6.612748e-10	-2.926699e+01	-4.281870e+01
8.300000e-07	-4.168465e-06	-6.513041e-10	-2.905541e+01	-4.271271e+01
8.400000e-07	-4.137724e-06	-6.617855e-10	-2.884114e+01	-4.260593e+01
8.500000e-07	-4.106714e-06	-6.610691e-10	-2.862499e+01	-4.249813e+01
8.600000e-07	-4.075525e-06	-6.459094e-10	-2.840759e+01	-4.238909e+01
8.700000e-07	-4.044110e-06	-6.466959e-10	-2.818862e+01	-4.227856e+01
8.800000e-07	-4.012506e-06	-6.506594e-10	-2.796833e+01	-4.216631e+01
8.900000e-07	-3.980748e-06	-6.410129e-10	-2.774697e+01	-4.205213e+01
9.000000e-07	-3.948824e-06	-6.357615e-10	-2.752445e+01	-4.193581e+01
9.100000e-07	-3.916639e-06	-6.435810e-10	-2.730011e+01	-4.181715e+01
9.200000e-07	-3.884050e-06	-6.360422e-10	-2.707296e+01	-4.169597e+01
9.300000e-07	-3.851004e-06	-6.279022e-10	-2.684262e+01	-4.157209e+01
9.400000e-07	-3.817501e-06	-6.308666e-10	-2.660909e+01	-4.144536e+01
9.500000e-07	-3.783470e-06	-6.294106e-10	-2.637188e+01	-4.131565e+01
9.600000e-07	-3.748991e-06	-6.176044e-10	-2.613156e+01	-4.118285e+01
9.700000e-07	-3.714190e-06	-6.194051e-10	-2.588899e+01	-4.104685e+01
9.800000e-07	-3.679098e-06	-6.207686e-10	-2.564438e+01	-4.090757e+01
9.900000e-07	-3.643803e-06	-6.131359e-10	-2.539837e+01	-4.076497e+01
1.000000e-06	-3.608315e-06	-6.092622e-10	-2.515101e+01	-4.061900e+01
1.010000e-06	-3.572657e-06	-6.133597e-10	-2.490246e+01	-4.046964e+01
1.020000e-06	-3.536814e-06	-6.083509e-10	-2.465262e+01	-4.031690e+01
1.030000e-06	-3.500767e-06	-6.026136e-10	-2.440136e+01	-4.016078e+01
1.040000e-06	-3.464551e-06	-6.047193e-10	-2.414893e+01	-4.000132e+01
1.050000e-06	-3.428099e-06	-6.038748e-10	-2.389484e+01	-3.983857e+01
1.060000e-06	-3.391338e-06	-5.949780e-10	-2.363861e+01	-3.967259e+01
1.070000e-06	-3.354309e-06	-5.940012e-10	-2.338051e+01	-3.950346e+01
1.080000e-06	-3.317053e-06	-5.937582e-10	-2.312082e+01	-3.933125e+01
1.090000e-06	-3.279626e-06	-5.881783e-10	-2.285994e+01	-3.915605e+01
1.100000e-06	-3.242019e-06	-5.843100e-10	-2.259782e+01	-3.897797e+01
1.110000e-06	-3.204126e-06	-5.829746e-10	-2.233369e+01	-3.879710e+01
1.120000e-06	-3.166020e-06	-5.782141e-10	-2.206808e+01	-3.861354e+01
1.130000e-06	-3.127751e-06	-5.741016e-10	-2.180133e+01	-3.842741e+01
1.140000e-06	-3.089216e-06	-5.737928e-10	-2.153273e+01	-3.823879e+01
1.150000e-06	-3.050412e-06	-5.682866e-10	-2.126226e+01	-3.804777e+01
1.160000e-06	-3.011455e-06	-5.605750e-10	-2.099072e+01	-3.785445e+01
1.170000e-06	-2.972312e-06	-5.576848e-10	-2.071788e+01	-3.765891e+01
1.180000e-06	-2.932896e-06	-5.575624e-10	-2.044314e+01	-3.746120e+01
1.190000e-06	-2.893363e-06	-5.556397e-10	-2.016758e+01	-3.726138e+01
1.200000e-06	-2.853814e-06	-5.541103e-10	-1.989191e+01	-3.705948e+01
1.210000e-06	-2.814184e-06	-5.522866e-10	-1.961568e+01	-3.685553e+01
1.220000e-06	-2.774376e-06	-5.479883e-10	-1.933821e+01	-3.664953e+01
1.230000e-06	-2.734403e-06	-5.413189e-10	-1.905959e+01	-3.644146e+01
1.240000e-06	-2.694297e-06	-5.368363e-10	-1.878003e+01	-3.623128e+01
1.250000e-06	-2.653945e-06	-5.311757e-10	-1.849877e+01	-3.601893e+01
1.260000e-06	-2.613342e-06	-5.257791e-10	-1.821575e+01	-3.580432e+01
1.270000e-06	-2.572500e-06	-5.204032e-10	-1.793107e+01	-3.558736e+01
1.280000e-06	-2.531353e-06	-5.190271e-10	-1.764427e+01	-3.536791e+01
1.290000e-06	-2.489916e-06	-5.185659e-10	-1.735544e+01	-3.514582e+01
1.300000e-06	-2.448109e-06	-5.174166e-10	-1.706403e+01	-3.492092e+01
1.310000e-06	-2.405997e-06	-5.131232e-10	-1.677050e+01	-3.469301e+01
1.320000e-06	-2.363676e-06	-5.076656e-10	-1.647551e+01	-3.446186e+01
1.330000e-06	-2.321090e-06	-5.026554e-10	-1.617867e+01	-3.422724e+01
1.340000e-06	-2.278254e-06	-4.988729e-10	-1.588009e+01	-3.398887e+01
1.350000e-06	-2.235177e-06	-4.975304e-10	-1.557983e+01	-3.374649e+01
1.360000e-06	-2.191877e-06	-4.971750e-10	-1.527802e+01	-3.349978e+01
1.370000e-06	-2.148452e-06	-4.967221e-10	-1.497533e+01	-3.324842e+01
1.380000e-06	-2.104968e-06	-4.976700e-10	-1.467224e+01	-3.299209e+01
1.390000e-06	-2.061368e-06	-4.956601e-10	-1.436834e+01	-3.273043e+01
1.400000e-06	-2.017663e-06	-4.889589e-10	-1.406370e+01	-3.246309e+01
1.410000e-06	-1.973903e-06	-4.806555e-10	-1.375868e+01	-3.218968e+01
1.420000e-06	-1.930101e-06	-4.738153e-10	-1.345336e+01	-3.190984e+01
1.430000e-06	-1.886230e-06	-4.674068e-10	-1.314757e+01	-3.162317e+01
1.440000e-06	-1.842240e-06	-4.617330e-10	-1.284095e+01	-3.132928e+01
1.450000e-06	-1.798113e-06	-4.579509e-10	-1.253337e+01	-3.102779e+01
1.460000e-06	-1.753882e-06	-4.544594e-10	-1.222506e+01	-3.071828e+01
1.470000e-06	-1.709533e-06	-4.497359e-10	-1.191594e+01	-3.040037e+01
1.480000e-06	-1.665060e-06	-4.437954e-10	-1.160595e+01	-3.007367e+01
1.490000e-06	-1.620476e-06	-4.374826e-10	-1.129519e+01	-2.973779e+01
1.500000e-06	-1.575671e-06	-4.305540e-10	-1.098289e+01	-2.939235e+01
1.510000e-06	-1.530745e-06	-4.255583e-10	-1.066974e+01	-2.903697e+01
1.520000e-06	-1.485733e-06	-4.216526e-10	-1.035599e+01	-2.867131e+01
1.530000e-06	-1.440532e-06	-4.170971e-10	-1.004093e+01	-2.829500e+01
1.540000e-06	-1.395291e-06	-4.105539e-10	-9.725582e+00	-2.790771e+01
1.550000e-06	-1.349993e-06	-4.034057e-10	-9.409843e+00	-2.750913e+01
1.560000e-06	-1.304553e-06	-3.943295e-10	-9.093110e+00	-2.709893e+01
1.570000e-06	-1.259041e-06	-3.841422e-10	-8.775884e+00	-2.667684e+01
1.580000e-06	-1.213478e-06	-3.767670e-10	-8.458294e+00	-2.624258e+01
1.590000e-06	-1.167857e-06	-3.739498e-10	-8.140301e+00	-2.579590e+01
1.600000e-06	-1.122162e-06	-3.702627e-10	-7.821795e+00	-2.533657e+01
1.610000e-06	-1.076341e-06	-3.610178e-10	-7.502406e+00	-2.486438e+01
1.620000e-06	-1.030403e-06	-3.495541e-10	-7.182209e+00	-2.437913e+01
1.630000e-06	-9.844242e-07	-3.421056e-10	-6.861723e+00	-2.388066e+01
1.640000e-06	-9.383855e-07	-3.354383e-10	-6.540819e+00	-2.336882e+01
1.650000e-06	-8.921801e-07	-3.271707e-10	-6.218754e+00	-2.284348e+01
1.660000e-06	-8.459556e-07	-3.197293e-10	-5.896556e+00	-2.230456e+01
1.670000e-06	-7.996696e-07	-3.113208e-10	-5.573929e+00	-2.175196e+01
1.680000e-06	-7.532708e-07	-3.003365e-10	-5.250516e+00	-2.118563e+01
1.690000e-06	-7.069574e-07	-2.904357e-10	-4.927699e+00	-2.060554e+01
1.700000e-06	-6.607007e-07	-2.811143e-10	-4.605275e+00	-2.001169e+01
1.710000e-06	-6.143299e-07	-2.712754e-10	-4.282058e+00	-1.940408e+01
1.720000e-06	-5.678803e-07	-2.619774e-10	-3.958291e+00	-1.878276e+01
1.730000e-06	-5.213826e-07	-2.519078e-10	-3.634188e+00	-1.814779e+01
1.740000e-06	-4.747834e-07	-2.396142e-10	-3.309378e+00	-1.749925e+01
1.750000e-06	-4.282017e-07	-2.280657e-10	-2.984690e+00	-1.683725e+01
1.760000e-06	-3.816279e-07	-2.198181e-10	-2.660057e+00	-1.616193e+01
1.770000e-06	-3.350845e-07	-2.112096e-10	-2.335636e+00	-1.547343e+01
1.780000e-06	-2.884758e-07	-2.020509e-10	-2.010760e+00	-1.477193e+01
1.790000e-06	-2.417475e-07	-1.944148e-10	-1.685050e+00	-1.405762e+01
1.800000e-06	-1.950729e-07	-1.854437e-10	-1.359715e+00	-1.333075e+01
1.810000e-06	-1.484409e-07	-1.736463e-10	-1.034676e+00	-1.259153e+01
1.820000e-06	-1.017065e-07	-1.635706e-10	-7.089241e-01	-1.184025e+01
1.830000e-06	-5.494007e-08	-1.566550e-10	-3.829483e-01	-1.107719e+01
1.840000e-06	-8.164906e-09	-1.470420e-10	-5.691176e-02	-1.030265e+01
1.850000e-06	3.866897e-08	-1.346674e-10	2.695340e-01	-9.516979e+00
1.860000e-06	8.550469e-08	-1.269512e-10	5.959925e-01	-8.720521e+00
1.870000e-06	1.323376e-07	-1.173420e-10	9.224318e-01	-7.913654e+00
1.880000e-06	1.790652e-07	-1.045442e-10	1.248136e+00	-7.096774e+00
1.890000e-06	2.256550e-07	-9.195554e-11	1.572881e+00	-6.270299e+00
1.900000e-06	2.722672e-07	-7.790878e-11	1.897782e+00	-5.434669e+00
1.910000e-06	3.188739e-07	-6.358258e-11	2.222644e+00	-4.590344e+00
1.920000e-06	3.653963e-07	-5.249403e-11	2.546918e+00	-3.737804e+00
1.930000e-06	4.119472e-07	-4.515877e-11	2.871392e+00	-2.877549e+00
1.940000e-06	4.584945e-07	-3.465347e-11	3.195840e+00	-2.010100e+00
1.950000e-06	5.050065e-07	-2.258897e-11	3.520042e+00	-1.135996e+00
1.960000e-06	5.514357e-07	-1.078652e-11	3.843667e+00	-2.557950e-01
1.970000e-06	5.978163e-07	5.968202e-13	4.166953e+00	6.299281e-01
1.980000e-06	6.442201e-07	1.284351e-11	4.490401e+00	1.520580e+00
1.990000e-06	6.904838e-07	2.814371e-11	4.812872e+00	2.415552e+00
2.000000e-06	7.366296e-07	4.072493e-11	5.134522e+00	3.314220e+00
2.010000e-06	7.827928e-07	5.106134e-11	5.456293e+00	4.215945e+00
2.020000e-06	8.289348e-07	6.340352e-11	5.777916e+00	5.120076e+00
2.030000e-06	8.750313e-07	7.719433e-11	6.099222e+00	6.025950e+00
2.040000e-06	9.211103e-07	9.020267e-11	6.420406e+00	6.932892e+00
2.050000e-06	9.671128e-07	1.043625e-10	6.741057e+00	7.840220e+00
2.060000e-06	1.013012e-06	1.200241e-10	7.060990e+00	8.747244e+00
2.070000e-06	1.058843e-06	1.355144e-10	7.380446e+00	9.653268e+00
2.080000e-06	1.104595e-06	1.506909e-10	7.699345e+00	1.055759e+01
2.090000e-06	1.150214e-06	1.634580e-10	8.017323e+00	1.145951e+01
2.100000e-06	1.195705e-06	1.754301e-10	8.334409e+00	1.235833e+01
2.110000e-06	1.241122e-06	1.859840e-10	8.650982e+00	1.325335e+01
2.120000e-06	1.286453e-06	1.956803e-10	8.966951e+00	1.414386e+01
2.130000e-06	1.331662e-06	2.072076e-10	9.282073e+00	1.502918e+01
2.140000e-06	1.376809e-06	2.212097e-10	9.596757e+00	1.590862e+01
2.150000e-06	1.421883e-06	2.369632e-10	9.910936e+00	1.678152e+01
2.160000e-06	1.466870e-06	2.520510e-10	1.022451e+01	1.764721e+01
2.170000e-06	1.511826e-06	2.656190e-10	1.053787e+01	1.850504e+01
2.180000e-06	1.556728e-06	2.789649e-10	1.085084e+01	1.935439e+01
2.190000e-06	1.601447e-06	2.892212e-10	1.116255e+01	2.019464e+01
2.200000e-06	1.646006e-06	2.991081e-10	1.147314e+01	2.102520e+01
2.210000e-06	1.690459e-06	3.091336e-10	1.178299e+01	2.184550e+01
2.220000e-06	1.734737e-06	3.176792e-10	1.209162e+01	2.265500e+01
2.230000e-06	1.778908e-06	3.288793e-10	1.239950e+01	2.345318e+01
2.240000e-06	1.822968e-06	3.400102e-10	1.270662e+01	2.423954e+01
2.250000e-06	1.866909e-06	3.525795e-10	1.301290e+01	2.501362e+01
2.260000e-06	1.910775e-06	3.621492e-10	1.331866e+01	2.577499e+01
2.270000e-06	1.954546e-06	3.719745e-10	1.362376e+01	2.652324e+01
2.280000e-06	1.998251e-06	3.824938e-10	1.392839e+01	2.725802e+01
2.290000e-06	2.041913e-06	3.932623e-10	1.423273e+01	2.797897e+01
2.300000e-06	2.085512e-06	4.048663e-10	1.453662e+01	2.868579e+01
2.310000e-06	2.128993e-06	4.147076e-10	1.483970e+01	2.937823e+01
2.320000e-06	2.172360e-06	4.255476e-10	1.514198e+01	3.005604e+01
2.330000e-06	2.215582e-06	4.345362e-10	1.544325e+01	3.071902e+01
2.340000e-06	2.258570e-06	4.427605e-10	1.574289e+01	3.136702e+01
2.350000e-06	2.301402e-06	4.545375e-10	1.604144e+01	3.199989e+01
2.360000e-06	2.344182e-06	4.700908e-10	1.633963e+01	3.261754e+01
2.370000e-06	2.386757e-06	4.808649e-10	1.663639e+01	3.321992e+01
2.380000e-06	2.428993e-06	4.874102e-10	1.693078e+01	3.380698e+01
2.390000e-06	2.470930e-06	4.943173e-10	1.722310e+01	3.437873e+01
2.400000e-06	2.512634e-06	4.996210e-10	1.751379e+01	3.493519e+01
2.410000e-06	2.554094e-06	5.047314e-10	1.780278e+01	3.547644e+01
2.420000e-06	2.595271e-06	5.120129e-10	1.808979e+01	3.600255e+01
2.430000e-06	2.636074e-06	5.213802e-10	1.837420e+01	3.651364e+01
2.440000e-06	2.676505e-06	5.299569e-10	1.865602e+01	3.700984e+01
2.450000e-06	2.716679e-06	5.371669e-10	1.893604e+01	3.749132e+01
2.460000e-06	2.756636e-06	5.450788e-10	1.921455e+01	3.795826e+01
2.470000e-06	2.796434e-06	5.517989e-10	1.949196e+01	3.841085e+01
2.480000e-06	2.836110e-06	5.579781e-10	1.976851e+01	3.884933e+01
2.490000e-06	2.875717e-06	5.637519e-10	2.004458e+01	3.927391e+01
2.500000e-06	2.915249e-06	5.710113e-10	2.032013e+01	3.968485e+01
2.510000e-06	2.954620e-06	5.810022e-10	2.059456e+01	4.008240e+01
2.520000e-06	2.993789e-06	5.905634e-10	2.086758e+01	4.046684e+01
2.530000e-06	3.032760e-06	5.980313e-10	2.113922e+01	4.083844e+01
2.540000e-06	3.071510e-06	6.007731e-10	2.140932e+01	4.119748e+01
2.550000e-06	3.110007e-06	6.007801e-10	2.167765e+01	4.154425e+01
2.560000e-06	3.148303e-06	6.032784e-10	2.194458e+01	4.187904e+01
2.570000e-06	3.186379e-06	6.078229e-10	2.220998e+01	4.220214e+01
2.580000e-06	3.224179e-06	6.121156e-10	2.247347e+01	4.251384e+01
2.590000e-06	3.261752e-06	6.162193e-10	2.273536e+01	4.281444e+01
2.600000e-06	3.299179e-06	6.220637e-10	2.299624e+01	4.310422e+01
2.610000e-06	3.336458e-06	6.262006e-10	2.325608e+01	4.338346e+01
2.620000e-06	3.373471e-06	6.272137e-10	2.351407e+01	4.365245e+01
2.630000e-06	3.410205e-06	6.281180e-10	2.377012e+01	4.391146e+01
2.640000e-06	3.446708e-06	6.311325e-10	2.402455e+01	4.416077e+01
2.650000e-06	3.482936e-06	6.364074e-10	2.427708e+01	4.440063e+01
2.660000e-06	3.518923e-06	6.403714e-10	2.452792e+01	4.463130e+01
2.670000e-06	3.554733e-06	6.431268e-10	2.477752e+01	4.485303e+01
2.680000e-06	3.590399e-06	6.464354e-10	2.502612e+01	4.506607e+01
2.690000e-06	3.625954e-06	6.513297e-10	2.527395e+01	4.527066e+01
2.700000e-06	3.661367e-06	6.573686e-10	2.552079e+01	4.546702e+01
2.710000e-06	3.696620e-06	6.607683e-10	2.576652e+01	4.565538e+01
2.720000e-06	3.731612e-06	6.642143e-10	2.601042e+01	4.583595e+01
2.730000e-06	3.766155e-06	6.664257e-10	2.625119e+01	4.600895e+01
2.740000e-06	3.800188e-06	6.657723e-10	2.648841e+01	4.617458e+01
2.750000e-06	3.833735e-06	6.644211e-10	2.672225e+01	4.633304e+01
2.760000e-06	3.866919e-06	6.645034e-10	2.695355e+01	4.648453e+01
2.770000e-06	3.899710e-06	6.687131e-10	2.718211e+01	4.662924e+01
2.780000e-06	3.932108e-06	6.735114e-10	2.740793e+01	4.676735e+01
2.790000e-06	3.964224e-06	6.781980e-10	2.763179e+01	4.689906e+01
2.800000e-06	3.996056e-06	6.812381e-10	2.785367e+01	4.702454e+01
2.810000e-06	4.027739e-06	6.826028e-10	2.807451e+01	4.714398e+01
2.820000e-06	4.059343e-06	6.829983e-10	2.829480e+01	4.725754e+01
2.830000e-06	4.090782e-06	6.828037e-10	2.851394e+01	4.736541e+01
2.840000e-06	4.121956e-06	6.841484e-10	2.873123e+01	4.746776e+01
2.850000e-06	4.152807e-06	6.891567e-10	2.894627e+01	4.756476e+01
2.860000e-06	4.183346e-06	6.967191e-10	2.915914e+01	4.765659e+01
2.870000e-06	4.213561e-06	7.015391e-10	2.936975e+01	4.774341e+01
2.880000e-06	4.243503e-06	7.025168e-10	2.957845e+01	4.782540e+01
2.890000e-06	4.273128e-06	7.032770e-10	2.978494e+01	4.790271e+01
2.900000e-06	4.302374e-06	7.043559e-10	2.998880e+01	4.797553e+01
