# Temperatura_=_-3.4
# Concentracion g/m^3_=_1620.0
# C_Vs_to_Am_M_A/Vsm_=_65563218390.804596
# pendiente_HvsI_1/m_=_3716.3
# ordenada_HvsI_A/m_=_1297.0
# frecuencia_Hz_=_135108.34705530887

Tiempo_(s)	Campo_(V.s)	Magnetizacion_(V.s)	Campo_(kA/m)	Magnetizacion_(A/m)
0.000000e+00	-5.497947e-06	-7.098277e-10	-3.837420e+01	-4.999930e+01
1.000000e-08	-5.498265e-06	-7.067761e-10	-3.837641e+01	-4.996497e+01
2.000000e-08	-5.498302e-06	-7.057151e-10	-3.837668e+01	-4.993427e+01
3.000000e-08	-5.498074e-06	-7.082537e-10	-3.837509e+01	-4.990716e+01
4.000000e-08	-5.497390e-06	-7.090297e-10	-3.837031e+01	-4.988355e+01
5.000000e-08	-5.496113e-06	-7.006404e-10	-3.836140e+01	-4.986333e+01
6.000000e-08	-5.494319e-06	-6.863442e-10	-3.834888e+01	-4.984639e+01
7.000000e-08	-5.491992e-06	-6.912534e-10	-3.833263e+01	-4.983254e+01
8.000000e-08	-5.489039e-06	-7.331221e-10	-3.831202e+01	-4.982160e+01
9.000000e-08	-5.485540e-06	-7.684089e-10	-3.828760e+01	-4.981335e+01
1.000000e-07	-5.481635e-06	-7.494408e-10	-3.826034e+01	-4.980754e+01
1.100000e-07	-5.477368e-06	-7.150695e-10	-3.823056e+01	-4.980391e+01
1.200000e-07	-5.472884e-06	-6.988381e-10	-3.819926e+01	-4.980218e+01
1.300000e-07	-5.468180e-06	-7.064775e-10	-3.816643e+01	-4.980202e+01
1.400000e-07	-5.463088e-06	-7.180845e-10	-3.813089e+01	-4.980313e+01
1.500000e-07	-5.457604e-06	-7.018884e-10	-3.809261e+01	-4.980517e+01
1.600000e-07	-5.451830e-06	-7.032437e-10	-3.805231e+01	-4.980778e+01
1.700000e-07	-5.445765e-06	-7.074813e-10	-3.800998e+01	-4.981061e+01
1.800000e-07	-5.439269e-06	-7.393100e-10	-3.796464e+01	-4.981330e+01
1.900000e-07	-5.432287e-06	-7.503389e-10	-3.791591e+01	-4.981549e+01
2.000000e-07	-5.424943e-06	-7.226742e-10	-3.786465e+01	-4.981680e+01
2.100000e-07	-5.417383e-06	-7.164035e-10	-3.781188e+01	-4.981688e+01
2.200000e-07	-5.409624e-06	-7.504118e-10	-3.775773e+01	-4.981538e+01
2.300000e-07	-5.401579e-06	-7.882139e-10	-3.770158e+01	-4.981194e+01
2.400000e-07	-5.393041e-06	-7.796046e-10	-3.764198e+01	-4.980623e+01
2.500000e-07	-5.383893e-06	-7.742364e-10	-3.757813e+01	-4.979793e+01
2.600000e-07	-5.374104e-06	-7.752700e-10	-3.750981e+01	-4.978674e+01
2.700000e-07	-5.363698e-06	-7.775337e-10	-3.743717e+01	-4.977237e+01
2.800000e-07	-5.352737e-06	-7.601169e-10	-3.736067e+01	-4.975456e+01
2.900000e-07	-5.341296e-06	-7.736618e-10	-3.728082e+01	-4.973307e+01
3.000000e-07	-5.329465e-06	-7.844663e-10	-3.719823e+01	-4.970767e+01
3.100000e-07	-5.317287e-06	-7.737816e-10	-3.711324e+01	-4.967820e+01
3.200000e-07	-5.304748e-06	-7.621748e-10	-3.702572e+01	-4.964447e+01
3.300000e-07	-5.291782e-06	-7.783080e-10	-3.693522e+01	-4.960636e+01
3.400000e-07	-5.278411e-06	-7.767534e-10	-3.684189e+01	-4.956377e+01
3.500000e-07	-5.264649e-06	-7.659369e-10	-3.674584e+01	-4.951662e+01
3.600000e-07	-5.250494e-06	-7.791732e-10	-3.664704e+01	-4.946487e+01
3.700000e-07	-5.235936e-06	-7.793857e-10	-3.654543e+01	-4.940849e+01
3.800000e-07	-5.220858e-06	-7.592742e-10	-3.644019e+01	-4.934752e+01
3.900000e-07	-5.205294e-06	-7.661524e-10	-3.633156e+01	-4.928198e+01
4.000000e-07	-5.189312e-06	-7.808523e-10	-3.622000e+01	-4.921196e+01
4.100000e-07	-5.172856e-06	-7.528028e-10	-3.610515e+01	-4.913754e+01
4.200000e-07	-5.155946e-06	-7.466966e-10	-3.598713e+01	-4.905886e+01
4.300000e-07	-5.138773e-06	-7.775294e-10	-3.586726e+01	-4.897605e+01
4.400000e-07	-5.121397e-06	-7.706799e-10	-3.574598e+01	-4.888929e+01
4.500000e-07	-5.103618e-06	-7.455339e-10	-3.562189e+01	-4.879876e+01
4.600000e-07	-5.085345e-06	-7.688702e-10	-3.549434e+01	-4.870467e+01
4.700000e-07	-5.066645e-06	-7.665960e-10	-3.536383e+01	-4.860723e+01
4.800000e-07	-5.047544e-06	-7.358598e-10	-3.523051e+01	-4.850668e+01
4.900000e-07	-5.028156e-06	-7.548072e-10	-3.509518e+01	-4.840326e+01
5.000000e-07	-5.008632e-06	-7.827522e-10	-3.495891e+01	-4.829722e+01
5.100000e-07	-4.988893e-06	-7.457749e-10	-3.482114e+01	-4.818882e+01
5.200000e-07	-4.968887e-06	-7.410714e-10	-3.468150e+01	-4.807830e+01
5.300000e-07	-4.948558e-06	-7.744550e-10	-3.453961e+01	-4.796594e+01
5.400000e-07	-4.927739e-06	-7.604822e-10	-3.439430e+01	-4.785197e+01
5.500000e-07	-4.906465e-06	-7.380930e-10	-3.424581e+01	-4.773665e+01
5.600000e-07	-4.884913e-06	-7.647565e-10	-3.409539e+01	-4.762021e+01
5.700000e-07	-4.863129e-06	-7.585593e-10	-3.394334e+01	-4.750289e+01
5.800000e-07	-4.841065e-06	-7.348093e-10	-3.378934e+01	-4.738491e+01
5.900000e-07	-4.818582e-06	-7.579218e-10	-3.363241e+01	-4.726645e+01
6.000000e-07	-4.795679e-06	-7.687116e-10	-3.347256e+01	-4.714772e+01
6.100000e-07	-4.772514e-06	-7.351111e-10	-3.331087e+01	-4.702888e+01
6.200000e-07	-4.749155e-06	-7.358882e-10	-3.314783e+01	-4.691007e+01
6.300000e-07	-4.725613e-06	-7.499100e-10	-3.298351e+01	-4.679143e+01
6.400000e-07	-4.701827e-06	-7.298140e-10	-3.281749e+01	-4.667305e+01
6.500000e-07	-4.677770e-06	-7.265483e-10	-3.264958e+01	-4.655503e+01
6.600000e-07	-4.653352e-06	-7.457950e-10	-3.247915e+01	-4.643743e+01
6.700000e-07	-4.628380e-06	-7.364986e-10	-3.230485e+01	-4.632028e+01
6.800000e-07	-4.602729e-06	-7.268029e-10	-3.212581e+01	-4.620360e+01
6.900000e-07	-4.576522e-06	-7.417268e-10	-3.194290e+01	-4.608738e+01
7.000000e-07	-4.549923e-06	-7.377218e-10	-3.175724e+01	-4.597159e+01
7.100000e-07	-4.523011e-06	-7.237184e-10	-3.156940e+01	-4.585617e+01
7.200000e-07	-4.495749e-06	-7.294459e-10	-3.137912e+01	-4.574105e+01
7.300000e-07	-4.468184e-06	-7.302012e-10	-3.118673e+01	-4.562615e+01
7.400000e-07	-4.440442e-06	-7.138409e-10	-3.099309e+01	-4.551134e+01
7.500000e-07	-4.412504e-06	-7.144217e-10	-3.079810e+01	-4.539649e+01
7.600000e-07	-4.384313e-06	-7.196636e-10	-3.060133e+01	-4.528146e+01
7.700000e-07	-4.355873e-06	-7.110981e-10	-3.040283e+01	-4.516610e+01
7.800000e-07	-4.327173e-06	-7.070439e-10	-3.020251e+01	-4.505023e+01
7.900000e-07	-4.298150e-06	-7.145523e-10	-2.999994e+01	-4.493366e+01
8.000000e-07	-4.268806e-06	-7.081321e-10	-2.979512e+01	-4.481621e+01
8.100000e-07	-4.239183e-06	-6.978120e-10	-2.958836e+01	-4.469768e+01
8.200000e-07	-4.209252e-06	-6.964458e-10	-2.937945e+01	-4.457788e+01
8.300000e-07	-4.179012e-06	-6.941326e-10	-2.916839e+01	-4.445659e+01
8.400000e-07	-4.148439e-06	-6.858551e-10	-2.895500e+01	-4.433363e+01
8.500000e-07	-4.117480e-06	-6.867444e-10	-2.873890e+01	-4.420878e+01
8.600000e-07	-4.086312e-06	-6.861289e-10	-2.852137e+01	-4.408185e+01
8.700000e-07	-4.055013e-06	-6.782625e-10	-2.830291e+01	-4.395266e+01
8.800000e-07	-4.023506e-06	-6.724920e-10	-2.808299e+01	-4.382101e+01
8.900000e-07	-3.991826e-06	-6.717645e-10	-2.786188e+01	-4.368674e+01
9.000000e-07	-3.960017e-06	-6.658297e-10	-2.763986e+01	-4.354968e+01
9.100000e-07	-3.927968e-06	-6.610314e-10	-2.741616e+01	-4.340969e+01
9.200000e-07	-3.895569e-06	-6.626336e-10	-2.719003e+01	-4.326662e+01
9.300000e-07	-3.862824e-06	-6.597229e-10	-2.696148e+01	-4.312036e+01
9.400000e-07	-3.829676e-06	-6.531279e-10	-2.673011e+01	-4.297080e+01
9.500000e-07	-3.796046e-06	-6.518283e-10	-2.649539e+01	-4.281783e+01
9.600000e-07	-3.761963e-06	-6.493452e-10	-2.625749e+01	-4.266140e+01
9.700000e-07	-3.727487e-06	-6.416674e-10	-2.601686e+01	-4.250144e+01
9.800000e-07	-3.692584e-06	-6.386533e-10	-2.577325e+01	-4.233790e+01
9.900000e-07	-3.657328e-06	-6.404564e-10	-2.552717e+01	-4.217076e+01
1.000000e-06	-3.621914e-06	-6.393734e-10	-2.527999e+01	-4.200002e+01
1.010000e-06	-3.586389e-06	-6.364664e-10	-2.503204e+01	-4.182567e+01
1.020000e-06	-3.550705e-06	-6.373408e-10	-2.478297e+01	-4.164773e+01
1.030000e-06	-3.514866e-06	-6.353071e-10	-2.453282e+01	-4.146625e+01
1.040000e-06	-3.478910e-06	-6.306519e-10	-2.428186e+01	-4.128126e+01
1.050000e-06	-3.442737e-06	-6.286156e-10	-2.402938e+01	-4.109282e+01
1.060000e-06	-3.406209e-06	-6.277034e-10	-2.377443e+01	-4.090101e+01
1.070000e-06	-3.369361e-06	-6.236219e-10	-2.351724e+01	-4.070590e+01
1.080000e-06	-3.332306e-06	-6.205600e-10	-2.325861e+01	-4.050758e+01
1.090000e-06	-3.295029e-06	-6.170333e-10	-2.299842e+01	-4.030613e+01
1.100000e-06	-3.257530e-06	-6.121414e-10	-2.273669e+01	-4.010165e+01
1.110000e-06	-3.219823e-06	-6.067451e-10	-2.247350e+01	-3.989424e+01
1.120000e-06	-3.181825e-06	-6.038521e-10	-2.220829e+01	-3.968399e+01
1.130000e-06	-3.143584e-06	-6.019730e-10	-2.194137e+01	-3.947100e+01
1.140000e-06	-3.105204e-06	-5.992232e-10	-2.167349e+01	-3.925537e+01
1.150000e-06	-3.066616e-06	-5.944797e-10	-2.140416e+01	-3.903718e+01
1.160000e-06	-3.027767e-06	-5.889786e-10	-2.113300e+01	-3.881651e+01
1.170000e-06	-2.988733e-06	-5.840734e-10	-2.086056e+01	-3.859343e+01
1.180000e-06	-2.949496e-06	-5.823960e-10	-2.058669e+01	-3.836801e+01
1.190000e-06	-2.910072e-06	-5.805397e-10	-2.031152e+01	-3.814031e+01
1.200000e-06	-2.870555e-06	-5.762827e-10	-2.003571e+01	-3.791035e+01
1.210000e-06	-2.830952e-06	-5.721884e-10	-1.975928e+01	-3.767816e+01
1.220000e-06	-2.791222e-06	-5.695776e-10	-1.948198e+01	-3.744376e+01
1.230000e-06	-2.751344e-06	-5.651839e-10	-1.920365e+01	-3.720712e+01
1.240000e-06	-2.711345e-06	-5.581016e-10	-1.892446e+01	-3.696824e+01
1.250000e-06	-2.671187e-06	-5.504844e-10	-1.864417e+01	-3.672707e+01
1.260000e-06	-2.630763e-06	-5.444593e-10	-1.836202e+01	-3.648354e+01
1.270000e-06	-2.590060e-06	-5.397538e-10	-1.807793e+01	-3.623757e+01
1.280000e-06	-2.549197e-06	-5.368458e-10	-1.779271e+01	-3.598906e+01
1.290000e-06	-2.508118e-06	-5.374939e-10	-1.750599e+01	-3.573789e+01
1.300000e-06	-2.466778e-06	-5.355574e-10	-1.721745e+01	-3.548392e+01
1.310000e-06	-2.425080e-06	-5.302868e-10	-1.692641e+01	-3.522699e+01
1.320000e-06	-2.382935e-06	-5.234228e-10	-1.663225e+01	-3.496692e+01
1.330000e-06	-2.340482e-06	-5.173713e-10	-1.633594e+01	-3.470350e+01
1.340000e-06	-2.297765e-06	-5.136040e-10	-1.603779e+01	-3.443652e+01
1.350000e-06	-2.254797e-06	-5.112570e-10	-1.573788e+01	-3.416575e+01
1.360000e-06	-2.211715e-06	-5.087387e-10	-1.543718e+01	-3.389092e+01
1.370000e-06	-2.168528e-06	-5.048326e-10	-1.513575e+01	-3.361178e+01
1.380000e-06	-2.125164e-06	-5.020935e-10	-1.483308e+01	-3.332803e+01
1.390000e-06	-2.081614e-06	-5.000134e-10	-1.452911e+01	-3.303937e+01
1.400000e-06	-2.037908e-06	-4.941849e-10	-1.422405e+01	-3.274549e+01
1.410000e-06	-1.994154e-06	-4.869865e-10	-1.391866e+01	-3.244606e+01
1.420000e-06	-1.950370e-06	-4.806199e-10	-1.361306e+01	-3.214076e+01
1.430000e-06	-1.906537e-06	-4.746446e-10	-1.330712e+01	-3.182923e+01
1.440000e-06	-1.862658e-06	-4.678746e-10	-1.300085e+01	-3.151112e+01
1.450000e-06	-1.818668e-06	-4.613066e-10	-1.269382e+01	-3.118608e+01
1.460000e-06	-1.774551e-06	-4.560536e-10	-1.238589e+01	-3.085373e+01
1.470000e-06	-1.730390e-06	-4.501668e-10	-1.207766e+01	-3.051372e+01
1.480000e-06	-1.686068e-06	-4.427032e-10	-1.176830e+01	-3.016566e+01
1.490000e-06	-1.641577e-06	-4.354454e-10	-1.145777e+01	-2.980919e+01
1.500000e-06	-1.597005e-06	-4.292386e-10	-1.114667e+01	-2.944394e+01
1.510000e-06	-1.552282e-06	-4.244134e-10	-1.083451e+01	-2.906955e+01
1.520000e-06	-1.507364e-06	-4.183508e-10	-1.052100e+01	-2.868563e+01
1.530000e-06	-1.462293e-06	-4.112581e-10	-1.020642e+01	-2.829185e+01
1.540000e-06	-1.417091e-06	-4.041120e-10	-9.890913e+00	-2.788784e+01
1.550000e-06	-1.371813e-06	-3.962085e-10	-9.574891e+00	-2.747325e+01
1.560000e-06	-1.326498e-06	-3.869163e-10	-9.258601e+00	-2.704775e+01
1.570000e-06	-1.281112e-06	-3.769686e-10	-8.941816e+00	-2.661102e+01
1.580000e-06	-1.235646e-06	-3.676924e-10	-8.624478e+00	-2.616273e+01
1.590000e-06	-1.190090e-06	-3.611964e-10	-8.306507e+00	-2.570259e+01
1.600000e-06	-1.144419e-06	-3.577000e-10	-7.987737e+00	-2.523030e+01
1.610000e-06	-1.098675e-06	-3.532524e-10	-7.668458e+00	-2.474558e+01
1.620000e-06	-1.052964e-06	-3.465313e-10	-7.349405e+00	-2.424819e+01
1.630000e-06	-1.007149e-06	-3.397802e-10	-7.029629e+00	-2.373787e+01
1.640000e-06	-9.611691e-07	-3.328711e-10	-6.708703e+00	-2.321440e+01
1.650000e-06	-9.151614e-07	-3.230798e-10	-6.387581e+00	-2.267757e+01
1.660000e-06	-8.691723e-07	-3.117429e-10	-6.066590e+00	-2.212720e+01
1.670000e-06	-8.231711e-07	-3.014500e-10	-5.745513e+00	-2.156312e+01
1.680000e-06	-7.769759e-07	-2.922302e-10	-5.423084e+00	-2.098517e+01
1.690000e-06	-7.306300e-07	-2.830473e-10	-5.099601e+00	-2.039325e+01
1.700000e-06	-6.843218e-07	-2.753608e-10	-4.776383e+00	-1.978724e+01
1.710000e-06	-6.380684e-07	-2.684066e-10	-4.453547e+00	-1.916707e+01
1.720000e-06	-5.918036e-07	-2.592566e-10	-4.130630e+00	-1.853268e+01
1.730000e-06	-5.454360e-07	-2.457279e-10	-3.806997e+00	-1.788405e+01
1.740000e-06	-4.990008e-07	-2.323008e-10	-3.482892e+00	-1.722117e+01
1.750000e-06	-4.525493e-07	-2.205697e-10	-3.158673e+00	-1.654407e+01
1.760000e-06	-4.060950e-07	-2.088222e-10	-2.834435e+00	-1.585279e+01
1.770000e-06	-3.596429e-07	-1.985798e-10	-2.510211e+00	-1.514741e+01
1.780000e-06	-3.131287e-07	-1.914362e-10	-2.185554e+00	-1.442804e+01
1.790000e-06	-2.665870e-07	-1.836200e-10	-1.860706e+00	-1.369481e+01
1.800000e-06	-2.199728e-07	-1.720691e-10	-1.535351e+00	-1.294789e+01
1.810000e-06	-1.732658e-07	-1.602307e-10	-1.209349e+00	-1.218746e+01
1.820000e-06	-1.265853e-07	-1.497768e-10	-8.835313e-01	-1.141374e+01
1.830000e-06	-7.996526e-08	-1.388092e-10	-5.581361e-01	-1.062700e+01
1.840000e-06	-3.338785e-08	-1.282717e-10	-2.330383e-01	-9.827504e+00
1.850000e-06	1.318718e-08	-1.185119e-10	9.204301e-02	-9.015571e+00
1.860000e-06	5.978545e-08	-1.073131e-10	4.172864e-01	-8.191540e+00
1.870000e-06	1.063765e-07	-9.567584e-11	7.424797e-01	-7.355785e+00
1.880000e-06	1.529284e-07	-8.361331e-11	1.067399e+00	-6.508708e+00
1.890000e-06	1.994365e-07	-6.962044e-11	1.392013e+00	-5.650740e+00
1.900000e-06	2.458676e-07	-5.434194e-11	1.716090e+00	-4.782344e+00
1.910000e-06	2.922392e-07	-3.950143e-11	2.039751e+00	-3.904008e+00
1.920000e-06	3.386664e-07	-2.630836e-11	2.363801e+00	-3.016253e+00
1.930000e-06	3.851467e-07	-1.612536e-11	2.688221e+00	-2.119624e+00
1.940000e-06	4.316324e-07	-6.676562e-12	3.012679e+00	-1.214694e+00
1.950000e-06	4.780839e-07	3.808500e-12	3.336898e+00	-3.020633e-01
1.960000e-06	5.243728e-07	1.614150e-11	3.659982e+00	6.176456e-01
1.970000e-06	5.706026e-07	3.024243e-11	3.982653e+00	1.543785e+00
1.980000e-06	6.168943e-07	4.484234e-11	4.305757e+00	2.475687e+00
1.990000e-06	6.631894e-07	6.061195e-11	4.628884e+00	3.412661e+00
2.000000e-06	7.093518e-07	7.496422e-11	4.951086e+00	4.353998e+00
2.010000e-06	7.554016e-07	8.694269e-11	5.272501e+00	5.298974e+00
2.020000e-06	8.013999e-07	9.825986e-11	5.593556e+00	6.246848e+00
2.030000e-06	8.473803e-07	1.107448e-10	5.914487e+00	7.196864e+00
2.040000e-06	8.933979e-07	1.235462e-10	6.235678e+00	8.148260e+00
2.050000e-06	9.394200e-07	1.367138e-10	6.556900e+00	9.100259e+00
2.060000e-06	9.853586e-07	1.523983e-10	6.877539e+00	1.005208e+01
2.070000e-06	1.031162e-06	1.682122e-10	7.197232e+00	1.100295e+01
2.080000e-06	1.076913e-06	1.838821e-10	7.516567e+00	1.195206e+01
2.090000e-06	1.122632e-06	1.987685e-10	7.835671e+00	1.289865e+01
2.100000e-06	1.168235e-06	2.131604e-10	8.153965e+00	1.384192e+01
2.110000e-06	1.213692e-06	2.263287e-10	8.471245e+00	1.478110e+01
2.120000e-06	1.259026e-06	2.366699e-10	8.787662e+00	1.571542e+01
2.130000e-06	1.304309e-06	2.491064e-10	9.103728e+00	1.664413e+01
2.140000e-06	1.349516e-06	2.649647e-10	9.419259e+00	1.756648e+01
2.150000e-06	1.394638e-06	2.818300e-10	9.734202e+00	1.848174e+01
2.160000e-06	1.439747e-06	2.975664e-10	1.004905e+01	1.938921e+01
2.170000e-06	1.484771e-06	3.103032e-10	1.036330e+01	2.028820e+01
2.180000e-06	1.529612e-06	3.217344e-10	1.067628e+01	2.117804e+01
2.190000e-06	1.574259e-06	3.335732e-10	1.098790e+01	2.205809e+01
2.200000e-06	1.618796e-06	3.475144e-10	1.129876e+01	2.292774e+01
2.210000e-06	1.663226e-06	3.612318e-10	1.160887e+01	2.378641e+01
2.220000e-06	1.707566e-06	3.722978e-10	1.191835e+01	2.463354e+01
2.230000e-06	1.751788e-06	3.824208e-10	1.222701e+01	2.546861e+01
2.240000e-06	1.795829e-06	3.921310e-10	1.253440e+01	2.629114e+01
2.250000e-06	1.839715e-06	4.009756e-10	1.284072e+01	2.710068e+01
2.260000e-06	1.883548e-06	4.090109e-10	1.314666e+01	2.789680e+01
2.270000e-06	1.927371e-06	4.185882e-10	1.345253e+01	2.867913e+01
2.280000e-06	1.971096e-06	4.342483e-10	1.375772e+01	2.944733e+01
2.290000e-06	2.014718e-06	4.519731e-10	1.406219e+01	3.020110e+01
2.300000e-06	2.058289e-06	4.659519e-10	1.436631e+01	3.094016e+01
2.310000e-06	2.101843e-06	4.744498e-10	1.467030e+01	3.166428e+01
2.320000e-06	2.145354e-06	4.797532e-10	1.497399e+01	3.237329e+01
2.330000e-06	2.188794e-06	4.855632e-10	1.527719e+01	3.306702e+01
2.340000e-06	2.232052e-06	4.940032e-10	1.557912e+01	3.374535e+01
2.350000e-06	2.274996e-06	5.070024e-10	1.587886e+01	3.440821e+01
2.360000e-06	2.317725e-06	5.236271e-10	1.617710e+01	3.505554e+01
2.370000e-06	2.360315e-06	5.377782e-10	1.647437e+01	3.568734e+01
2.380000e-06	2.402651e-06	5.454229e-10	1.676986e+01	3.630361e+01
2.390000e-06	2.444638e-06	5.508919e-10	1.706291e+01	3.690442e+01
2.400000e-06	2.486348e-06	5.553389e-10	1.735404e+01	3.748983e+01
2.410000e-06	2.527765e-06	5.604247e-10	1.764312e+01	3.805995e+01
2.420000e-06	2.568768e-06	5.688312e-10	1.792931e+01	3.861491e+01
2.430000e-06	2.609416e-06	5.793252e-10	1.821303e+01	3.915486e+01
2.440000e-06	2.649824e-06	5.893233e-10	1.849506e+01	3.967997e+01
2.450000e-06	2.690094e-06	5.973041e-10	1.877613e+01	4.019044e+01
2.460000e-06	2.730209e-06	6.036096e-10	1.905613e+01	4.068648e+01
2.470000e-06	2.770122e-06	6.094757e-10	1.933471e+01	4.116830e+01
2.480000e-06	2.809907e-06	6.161573e-10	1.961240e+01	4.163616e+01
2.490000e-06	2.849600e-06	6.239948e-10	1.988944e+01	4.209028e+01
2.500000e-06	2.889162e-06	6.319169e-10	2.016557e+01	4.253094e+01
2.510000e-06	2.928555e-06	6.380481e-10	2.044053e+01	4.295840e+01
2.520000e-06	2.967771e-06	6.424219e-10	2.071425e+01	4.337291e+01
2.530000e-06	3.006836e-06	6.471649e-10	2.098691e+01	4.377476e+01
2.540000e-06	3.045654e-06	6.515962e-10	2.125785e+01	4.416421e+01
2.550000e-06	3.084232e-06	6.555043e-10	2.152711e+01	4.454154e+01
2.560000e-06	3.122585e-06	6.603891e-10	2.179480e+01	4.490702e+01
2.570000e-06	3.160684e-06	6.670637e-10	2.206073e+01	4.526092e+01
2.580000e-06	3.198617e-06	6.738455e-10	2.232549e+01	4.560349e+01
2.590000e-06	3.236441e-06	6.800924e-10	2.258949e+01	4.593500e+01
2.600000e-06	3.274060e-06	6.867437e-10	2.285206e+01	4.625570e+01
2.610000e-06	3.311442e-06	6.913350e-10	2.311298e+01	4.656584e+01
2.620000e-06	3.348614e-06	6.926431e-10	2.337243e+01	4.686565e+01
2.630000e-06	3.385473e-06	6.915033e-10	2.362969e+01	4.715538e+01
2.640000e-06	3.422026e-06	6.924604e-10	2.388483e+01	4.743523e+01
2.650000e-06	3.458311e-06	6.989518e-10	2.413808e+01	4.770543e+01
2.660000e-06	3.494369e-06	7.064388e-10	2.438976e+01	4.796618e+01
2.670000e-06	3.530250e-06	7.123566e-10	2.464020e+01	4.821769e+01
2.680000e-06	3.565994e-06	7.143872e-10	2.488968e+01	4.846015e+01
2.690000e-06	3.601683e-06	7.164646e-10	2.513878e+01	4.869375e+01
2.700000e-06	3.637250e-06	7.182162e-10	2.538703e+01	4.891866e+01
2.710000e-06	3.672597e-06	7.194282e-10	2.563375e+01	4.913507e+01
2.720000e-06	3.707644e-06	7.208036e-10	2.587836e+01	4.934314e+01
2.730000e-06	3.742306e-06	7.233259e-10	2.612030e+01	4.954304e+01
2.740000e-06	3.776629e-06	7.280280e-10	2.635986e+01	4.973493e+01
2.750000e-06	3.810460e-06	7.315343e-10	2.659599e+01	4.991897e+01
2.760000e-06	3.843801e-06	7.339377e-10	2.682870e+01	5.009532e+01
2.770000e-06	3.876826e-06	7.348766e-10	2.705921e+01	5.026414e+01
2.780000e-06	3.909481e-06	7.373940e-10	2.728713e+01	5.042557e+01
2.790000e-06	3.941747e-06	7.420070e-10	2.751234e+01	5.057979e+01
2.800000e-06	3.973697e-06	7.461465e-10	2.773534e+01	5.072694e+01
2.810000e-06	4.005481e-06	7.489177e-10	2.795719e+01	5.086718e+01
2.820000e-06	4.037167e-06	7.498655e-10	2.817835e+01	5.100068e+01
2.830000e-06	4.068605e-06	7.508070e-10	2.839777e+01	5.112760e+01
2.840000e-06	4.099767e-06	7.533743e-10	2.861528e+01	5.124811e+01
2.850000e-06	4.130675e-06	7.571288e-10	2.883101e+01	5.136237e+01
2.860000e-06	4.161254e-06	7.624930e-10	2.904444e+01	5.147056e+01
2.870000e-06	4.191521e-06	7.647244e-10	2.925569e+01	5.157286e+01
2.880000e-06	4.221503e-06	7.640270e-10	2.946496e+01	5.166945e+01
2.890000e-06	4.251227e-06	7.628114e-10	2.967242e+01	5.176050e+01
2.900000e-06	4.280749e-06	7.644863e-10	2.987848e+01	5.184621e+01
