# Temperatura_=_-3.21
# Concentracion g/m^3_=_1620.0
# C_Vs_to_Am_M_A/Vsm_=_65563218390.804596
# pendiente_HvsI_1/m_=_3716.3
# ordenada_HvsI_A/m_=_1297.0
# frecuencia_Hz_=_135109.5139839648

Tiempo_(s)	Campo_(V.s)	Magnetizacion_(V.s)	Campo_(kA/m)	Magnetizacion_(A/m)
0.000000e+00	-5.514854e-06	-7.574760e-10	-3.836813e+01	-5.174732e+01
1.000000e-08	-5.514973e-06	-7.539664e-10	-3.836897e+01	-5.169614e+01
2.000000e-08	-5.514866e-06	-7.533206e-10	-3.836822e+01	-5.164621e+01
3.000000e-08	-5.514417e-06	-7.545118e-10	-3.836510e+01	-5.159749e+01
4.000000e-08	-5.513440e-06	-7.507359e-10	-3.835829e+01	-5.154995e+01
5.000000e-08	-5.511763e-06	-7.405676e-10	-3.834663e+01	-5.150354e+01
6.000000e-08	-5.509419e-06	-7.430906e-10	-3.833032e+01	-5.145820e+01
7.000000e-08	-5.506479e-06	-7.657922e-10	-3.830987e+01	-5.141387e+01
8.000000e-08	-5.503077e-06	-7.714058e-10	-3.828620e+01	-5.137045e+01
9.000000e-08	-5.499350e-06	-7.805633e-10	-3.826027e+01	-5.132787e+01
1.000000e-07	-5.495260e-06	-8.510837e-10	-3.823182e+01	-5.128602e+01
1.100000e-07	-5.490771e-06	-8.163981e-10	-3.820059e+01	-5.124479e+01
1.200000e-07	-5.486034e-06	-6.746471e-10	-3.816763e+01	-5.120407e+01
1.300000e-07	-5.481130e-06	-6.670984e-10	-3.813351e+01	-5.116375e+01
1.400000e-07	-5.475878e-06	-7.911725e-10	-3.809697e+01	-5.112369e+01
1.500000e-07	-5.470106e-06	-8.358742e-10	-3.805681e+01	-5.108376e+01
1.600000e-07	-5.463913e-06	-6.959790e-10	-3.801372e+01	-5.104383e+01
1.700000e-07	-5.457437e-06	-6.725517e-10	-3.796867e+01	-5.100377e+01
1.800000e-07	-5.450577e-06	-8.386068e-10	-3.792095e+01	-5.096344e+01
1.900000e-07	-5.443329e-06	-8.550542e-10	-3.787052e+01	-5.092268e+01
2.000000e-07	-5.435870e-06	-7.304021e-10	-3.781862e+01	-5.088137e+01
2.100000e-07	-5.428188e-06	-6.728886e-10	-3.776518e+01	-5.083937e+01
2.200000e-07	-5.420132e-06	-8.074911e-10	-3.770913e+01	-5.079653e+01
2.300000e-07	-5.411667e-06	-8.401537e-10	-3.765024e+01	-5.075272e+01
2.400000e-07	-5.402838e-06	-7.793090e-10	-3.758881e+01	-5.070781e+01
2.500000e-07	-5.393494e-06	-7.414237e-10	-3.752381e+01	-5.066167e+01
2.600000e-07	-5.383390e-06	-7.954374e-10	-3.745351e+01	-5.061417e+01
2.700000e-07	-5.372566e-06	-7.933346e-10	-3.737820e+01	-5.056519e+01
2.800000e-07	-5.361263e-06	-7.561407e-10	-3.729957e+01	-5.051462e+01
2.900000e-07	-5.349579e-06	-7.530312e-10	-3.721828e+01	-5.046235e+01
3.000000e-07	-5.337577e-06	-7.745085e-10	-3.713478e+01	-5.040828e+01
3.100000e-07	-5.325271e-06	-7.769256e-10	-3.704916e+01	-5.035231e+01
3.200000e-07	-5.312525e-06	-7.535857e-10	-3.696049e+01	-5.029435e+01
3.300000e-07	-5.299271e-06	-7.491727e-10	-3.686827e+01	-5.023432e+01
3.400000e-07	-5.285583e-06	-7.601398e-10	-3.677304e+01	-5.017215e+01
3.500000e-07	-5.271492e-06	-7.938214e-10	-3.667501e+01	-5.010777e+01
3.600000e-07	-5.256916e-06	-7.505606e-10	-3.657360e+01	-5.004112e+01
3.700000e-07	-5.241889e-06	-7.404997e-10	-3.646906e+01	-4.997216e+01
3.800000e-07	-5.226447e-06	-7.893762e-10	-3.636162e+01	-4.990084e+01
3.900000e-07	-5.210453e-06	-7.948693e-10	-3.625035e+01	-4.982713e+01
4.000000e-07	-5.193918e-06	-7.063051e-10	-3.613531e+01	-4.975099e+01
4.100000e-07	-5.177064e-06	-7.541073e-10	-3.601805e+01	-4.967241e+01
4.200000e-07	-5.159926e-06	-8.166897e-10	-3.589882e+01	-4.959139e+01
4.300000e-07	-5.142477e-06	-7.310008e-10	-3.577742e+01	-4.950790e+01
4.400000e-07	-5.124750e-06	-6.957904e-10	-3.565409e+01	-4.942196e+01
4.500000e-07	-5.106698e-06	-8.335421e-10	-3.552850e+01	-4.933357e+01
4.600000e-07	-5.088185e-06	-7.954628e-10	-3.539970e+01	-4.924275e+01
4.700000e-07	-5.069139e-06	-6.731791e-10	-3.526719e+01	-4.914952e+01
4.800000e-07	-5.049763e-06	-7.638200e-10	-3.513238e+01	-4.905391e+01
4.900000e-07	-5.030294e-06	-8.401861e-10	-3.499693e+01	-4.895595e+01
5.000000e-07	-5.010620e-06	-7.007546e-10	-3.486006e+01	-4.885567e+01
5.100000e-07	-4.990633e-06	-7.095877e-10	-3.472101e+01	-4.875313e+01
5.200000e-07	-4.970341e-06	-8.207792e-10	-3.457983e+01	-4.864836e+01
5.300000e-07	-4.949700e-06	-7.347408e-10	-3.443623e+01	-4.854142e+01
5.400000e-07	-4.928726e-06	-6.836704e-10	-3.429030e+01	-4.843236e+01
5.500000e-07	-4.907421e-06	-8.124328e-10	-3.414208e+01	-4.832125e+01
5.600000e-07	-4.885704e-06	-7.750683e-10	-3.399099e+01	-4.820814e+01
5.700000e-07	-4.863635e-06	-6.603370e-10	-3.383745e+01	-4.809310e+01
5.800000e-07	-4.841280e-06	-7.551758e-10	-3.368192e+01	-4.797619e+01
5.900000e-07	-4.818529e-06	-8.003997e-10	-3.352364e+01	-4.785748e+01
6.000000e-07	-4.795436e-06	-6.873574e-10	-3.336297e+01	-4.773705e+01
6.100000e-07	-4.772120e-06	-7.109978e-10	-3.320076e+01	-4.761495e+01
6.200000e-07	-4.748545e-06	-7.861048e-10	-3.303674e+01	-4.749127e+01
6.300000e-07	-4.724712e-06	-7.068955e-10	-3.287093e+01	-4.736607e+01
6.400000e-07	-4.700657e-06	-6.912215e-10	-3.270357e+01	-4.723943e+01
6.500000e-07	-4.676268e-06	-7.624286e-10	-3.253389e+01	-4.711142e+01
6.600000e-07	-4.651368e-06	-7.324992e-10	-3.236066e+01	-4.698211e+01
6.700000e-07	-4.625946e-06	-6.951742e-10	-3.218379e+01	-4.685156e+01
6.800000e-07	-4.599998e-06	-7.553982e-10	-3.200327e+01	-4.671985e+01
6.900000e-07	-4.573539e-06	-7.447140e-10	-3.181919e+01	-4.658704e+01
7.000000e-07	-4.546677e-06	-6.998364e-10	-3.163230e+01	-4.645320e+01
7.100000e-07	-4.519450e-06	-7.239612e-10	-3.144287e+01	-4.631837e+01
7.200000e-07	-4.491967e-06	-7.359456e-10	-3.125167e+01	-4.618264e+01
7.300000e-07	-4.464326e-06	-6.959192e-10	-3.105937e+01	-4.604603e+01
7.400000e-07	-4.436526e-06	-7.121125e-10	-3.086596e+01	-4.590862e+01
7.500000e-07	-4.408479e-06	-7.317391e-10	-3.067083e+01	-4.577043e+01
7.600000e-07	-4.380148e-06	-7.112527e-10	-3.047372e+01	-4.563151e+01
7.700000e-07	-4.351533e-06	-7.065807e-10	-3.027463e+01	-4.549191e+01
7.800000e-07	-4.322548e-06	-7.200861e-10	-3.007298e+01	-4.535163e+01
7.900000e-07	-4.293153e-06	-6.985846e-10	-2.986847e+01	-4.521072e+01
8.000000e-07	-4.263420e-06	-6.920229e-10	-2.966161e+01	-4.506918e+01
8.100000e-07	-4.233429e-06	-7.061144e-10	-2.945296e+01	-4.492704e+01
8.200000e-07	-4.203155e-06	-6.939448e-10	-2.924234e+01	-4.478428e+01
8.300000e-07	-4.172589e-06	-6.758739e-10	-2.902968e+01	-4.464092e+01
8.400000e-07	-4.141819e-06	-6.911468e-10	-2.881561e+01	-4.449693e+01
8.500000e-07	-4.110826e-06	-6.918842e-10	-2.859998e+01	-4.435231e+01
8.600000e-07	-4.079519e-06	-6.720984e-10	-2.838217e+01	-4.420702e+01
8.700000e-07	-4.048040e-06	-6.746707e-10	-2.816317e+01	-4.406104e+01
8.800000e-07	-4.016446e-06	-6.809138e-10	-2.794336e+01	-4.391431e+01
8.900000e-07	-3.984629e-06	-6.674862e-10	-2.772200e+01	-4.376679e+01
9.000000e-07	-3.952629e-06	-6.628592e-10	-2.749937e+01	-4.361843e+01
9.100000e-07	-3.920347e-06	-6.700604e-10	-2.727478e+01	-4.346916e+01
9.200000e-07	-3.887611e-06	-6.558960e-10	-2.704703e+01	-4.331889e+01
9.300000e-07	-3.854447e-06	-6.480441e-10	-2.681630e+01	-4.316756e+01
9.400000e-07	-3.820846e-06	-6.606047e-10	-2.658252e+01	-4.301507e+01
9.500000e-07	-3.786746e-06	-6.623077e-10	-2.634528e+01	-4.286133e+01
9.600000e-07	-3.752216e-06	-6.456516e-10	-2.610505e+01	-4.270623e+01
9.700000e-07	-3.717330e-06	-6.482598e-10	-2.586234e+01	-4.254967e+01
9.800000e-07	-3.682140e-06	-6.515552e-10	-2.561751e+01	-4.239152e+01
9.900000e-07	-3.646742e-06	-6.428150e-10	-2.537124e+01	-4.223167e+01
1.000000e-06	-3.611187e-06	-6.374254e-10	-2.512388e+01	-4.206999e+01
1.010000e-06	-3.575463e-06	-6.430657e-10	-2.487533e+01	-4.190635e+01
1.020000e-06	-3.539561e-06	-6.354732e-10	-2.462556e+01	-4.174061e+01
1.030000e-06	-3.503514e-06	-6.274894e-10	-2.437477e+01	-4.157264e+01
1.040000e-06	-3.467284e-06	-6.269249e-10	-2.412271e+01	-4.140228e+01
1.050000e-06	-3.430809e-06	-6.216840e-10	-2.386894e+01	-4.122941e+01
1.060000e-06	-3.394044e-06	-6.104917e-10	-2.361316e+01	-4.105388e+01
1.070000e-06	-3.356987e-06	-6.098407e-10	-2.335535e+01	-4.087553e+01
1.080000e-06	-3.319657e-06	-6.077150e-10	-2.309564e+01	-4.069423e+01
1.090000e-06	-3.282158e-06	-6.024422e-10	-2.283475e+01	-4.050983e+01
1.100000e-06	-3.244483e-06	-6.008215e-10	-2.257263e+01	-4.032219e+01
1.110000e-06	-3.206517e-06	-6.022601e-10	-2.230849e+01	-4.013117e+01
1.120000e-06	-3.168271e-06	-5.940173e-10	-2.204241e+01	-3.993663e+01
1.130000e-06	-3.129796e-06	-5.853845e-10	-2.177473e+01	-3.973844e+01
1.140000e-06	-3.091144e-06	-5.835672e-10	-2.150581e+01	-3.953646e+01
1.150000e-06	-3.052243e-06	-5.802217e-10	-2.123517e+01	-3.933058e+01
1.160000e-06	-3.013151e-06	-5.766752e-10	-2.096320e+01	-3.912067e+01
1.170000e-06	-2.973963e-06	-5.766499e-10	-2.069056e+01	-3.890661e+01
1.180000e-06	-2.934641e-06	-5.775626e-10	-2.041698e+01	-3.868830e+01
1.190000e-06	-2.895159e-06	-5.741471e-10	-2.014230e+01	-3.846563e+01
1.200000e-06	-2.855482e-06	-5.685151e-10	-1.986626e+01	-3.823850e+01
1.210000e-06	-2.815695e-06	-5.609172e-10	-1.958945e+01	-3.800682e+01
1.220000e-06	-2.775808e-06	-5.519950e-10	-1.931195e+01	-3.777051e+01
1.230000e-06	-2.735707e-06	-5.449274e-10	-1.903295e+01	-3.752948e+01
1.240000e-06	-2.695422e-06	-5.435658e-10	-1.875268e+01	-3.728366e+01
1.250000e-06	-2.654959e-06	-5.415615e-10	-1.847117e+01	-3.703298e+01
1.260000e-06	-2.614148e-06	-5.402404e-10	-1.818724e+01	-3.677737e+01
1.270000e-06	-2.573061e-06	-5.349648e-10	-1.790139e+01	-3.651676e+01
1.280000e-06	-2.531726e-06	-5.305896e-10	-1.761382e+01	-3.625110e+01
1.290000e-06	-2.490019e-06	-5.244580e-10	-1.732365e+01	-3.598033e+01
1.300000e-06	-2.448096e-06	-5.161784e-10	-1.703198e+01	-3.570440e+01
1.310000e-06	-2.406012e-06	-5.072062e-10	-1.673919e+01	-3.542325e+01
1.320000e-06	-2.363631e-06	-5.013281e-10	-1.644434e+01	-3.513682e+01
1.330000e-06	-2.320956e-06	-4.969194e-10	-1.614743e+01	-3.484506e+01
1.340000e-06	-2.278019e-06	-4.955940e-10	-1.584871e+01	-3.454791e+01
1.350000e-06	-2.234867e-06	-4.960566e-10	-1.554850e+01	-3.424530e+01
1.360000e-06	-2.191560e-06	-4.935629e-10	-1.524719e+01	-3.393718e+01
1.370000e-06	-2.148082e-06	-4.879487e-10	-1.494471e+01	-3.362345e+01
1.380000e-06	-2.104471e-06	-4.847182e-10	-1.464130e+01	-3.330405e+01
1.390000e-06	-2.060822e-06	-4.814000e-10	-1.433762e+01	-3.297887e+01
1.400000e-06	-2.017106e-06	-4.757778e-10	-1.403348e+01	-3.264783e+01
1.410000e-06	-1.973288e-06	-4.698815e-10	-1.372862e+01	-3.231082e+01
1.420000e-06	-1.929429e-06	-4.657036e-10	-1.342349e+01	-3.196770e+01
1.430000e-06	-1.885478e-06	-4.607112e-10	-1.311771e+01	-3.161835e+01
1.440000e-06	-1.841384e-06	-4.554984e-10	-1.281094e+01	-3.126262e+01
1.450000e-06	-1.797156e-06	-4.514616e-10	-1.250324e+01	-3.090035e+01
1.460000e-06	-1.752816e-06	-4.460682e-10	-1.219475e+01	-3.053136e+01
1.470000e-06	-1.708393e-06	-4.391828e-10	-1.188569e+01	-3.015546e+01
1.480000e-06	-1.663842e-06	-4.337274e-10	-1.157574e+01	-2.977245e+01
1.490000e-06	-1.619083e-06	-4.279284e-10	-1.126434e+01	-2.938210e+01
1.500000e-06	-1.574166e-06	-4.211632e-10	-1.095184e+01	-2.898416e+01
1.510000e-06	-1.529162e-06	-4.159625e-10	-1.063874e+01	-2.857840e+01
1.520000e-06	-1.484090e-06	-4.093633e-10	-1.032517e+01	-2.816454e+01
1.530000e-06	-1.438935e-06	-4.005374e-10	-1.001101e+01	-2.774229e+01
1.540000e-06	-1.393639e-06	-3.907156e-10	-9.695875e+00	-2.731136e+01
1.550000e-06	-1.348202e-06	-3.818379e-10	-9.379758e+00	-2.687144e+01
1.560000e-06	-1.302678e-06	-3.742437e-10	-9.063034e+00	-2.642220e+01
1.570000e-06	-1.257149e-06	-3.684064e-10	-8.746282e+00	-2.596331e+01
1.580000e-06	-1.211630e-06	-3.624437e-10	-8.429595e+00	-2.549443e+01
1.590000e-06	-1.165987e-06	-3.587582e-10	-8.112045e+00	-2.501522e+01
1.600000e-06	-1.120145e-06	-3.533113e-10	-7.793112e+00	-2.452531e+01
1.610000e-06	-1.074227e-06	-3.422648e-10	-7.473650e+00	-2.402434e+01
1.620000e-06	-1.028278e-06	-3.309856e-10	-7.153972e+00	-2.351197e+01
1.630000e-06	-9.822192e-07	-3.254656e-10	-6.833530e+00	-2.298783e+01
1.640000e-06	-9.360773e-07	-3.210227e-10	-6.512510e+00	-2.245157e+01
1.650000e-06	-8.898685e-07	-3.128739e-10	-6.191024e+00	-2.190284e+01
1.660000e-06	-8.436333e-07	-3.025514e-10	-5.869355e+00	-2.134130e+01
1.670000e-06	-7.973403e-07	-2.915089e-10	-5.547284e+00	-2.076664e+01
1.680000e-06	-7.509715e-07	-2.793608e-10	-5.224685e+00	-2.017852e+01
1.690000e-06	-7.046433e-07	-2.698664e-10	-4.902369e+00	-1.957668e+01
1.700000e-06	-6.582700e-07	-2.623422e-10	-4.579739e+00	-1.896082e+01
1.710000e-06	-6.117737e-07	-2.551331e-10	-4.256253e+00	-1.833070e+01
1.720000e-06	-5.652264e-07	-2.452971e-10	-3.932413e+00	-1.768610e+01
1.730000e-06	-5.186096e-07	-2.322838e-10	-3.608089e+00	-1.702683e+01
1.740000e-06	-4.719085e-07	-2.165134e-10	-3.283178e+00	-1.635272e+01
1.750000e-06	-4.252268e-07	-2.022285e-10	-2.958403e+00	-1.566364e+01
1.760000e-06	-3.785060e-07	-1.927006e-10	-2.633355e+00	-1.495951e+01
1.770000e-06	-3.317148e-07	-1.847566e-10	-2.307818e+00	-1.424027e+01
1.780000e-06	-2.849785e-07	-1.763909e-10	-1.982662e+00	-1.350592e+01
1.790000e-06	-2.382418e-07	-1.672050e-10	-1.657504e+00	-1.275648e+01
1.800000e-06	-1.914708e-07	-1.560713e-10	-1.332108e+00	-1.199204e+01
1.810000e-06	-1.447409e-07	-1.427457e-10	-1.006996e+00	-1.121272e+01
1.820000e-06	-9.801379e-08	-1.303760e-10	-6.819050e-01	-1.041869e+01
1.830000e-06	-5.130167e-08	-1.200086e-10	-3.569178e-01	-9.610176e+00
1.840000e-06	-4.601670e-09	-1.091256e-10	-3.201490e-02	-8.787447e+00
1.850000e-06	4.211927e-08	-9.648730e-11	2.930336e-01	-7.950824e+00
1.860000e-06	8.881678e-08	-8.727543e-11	6.179192e-01	-7.100678e+00
1.870000e-06	1.355431e-07	-7.839972e-11	9.430053e-01	-6.237428e+00
1.880000e-06	1.822926e-07	-6.575365e-11	1.268252e+00	-5.361545e+00
1.890000e-06	2.290348e-07	-5.006365e-11	1.593449e+00	-4.473545e+00
1.900000e-06	2.757151e-07	-3.419532e-11	1.918215e+00	-3.573995e+00
1.910000e-06	3.223343e-07	-1.848777e-11	2.242555e+00	-2.663503e+00
1.920000e-06	3.689831e-07	-6.147105e-12	2.567102e+00	-1.742726e+00
1.930000e-06	4.156119e-07	2.723160e-12	2.891510e+00	-8.123584e-01
1.940000e-06	4.621851e-07	1.427206e-11	3.215530e+00	1.268625e-01
1.950000e-06	5.087690e-07	2.688844e-11	3.539625e+00	1.074164e+00
1.960000e-06	5.553318e-07	3.880879e-11	3.863574e+00	2.028739e+00
1.970000e-06	6.017641e-07	5.104163e-11	4.186614e+00	2.989749e+00
1.980000e-06	6.481593e-07	6.296402e-11	4.509396e+00	3.956328e+00
1.990000e-06	6.945741e-07	7.705712e-11	4.832315e+00	4.927585e+00
2.000000e-06	7.409957e-07	8.917115e-11	5.155281e+00	5.902610e+00
2.010000e-06	7.873528e-07	1.017206e-10	5.477798e+00	6.880474e+00
2.020000e-06	8.335486e-07	1.177269e-10	5.799193e+00	7.860235e+00
2.030000e-06	8.796330e-07	1.353613e-10	6.119813e+00	8.840943e+00
2.040000e-06	9.256733e-07	1.501929e-10	6.440127e+00	9.821643e+00
2.050000e-06	9.716244e-07	1.616096e-10	6.759819e+00	1.080138e+01
2.060000e-06	1.017522e-06	1.705730e-10	7.079141e+00	1.177919e+01
2.070000e-06	1.063433e-06	1.800365e-10	7.398553e+00	1.275415e+01
2.080000e-06	1.109279e-06	1.922474e-10	7.717514e+00	1.372530e+01
2.090000e-06	1.155014e-06	2.065102e-10	8.035702e+00	1.469172e+01
2.100000e-06	1.200628e-06	2.247674e-10	8.353050e+00	1.565253e+01
2.110000e-06	1.246138e-06	2.421263e-10	8.669674e+00	1.660683e+01
2.120000e-06	1.291574e-06	2.565803e-10	8.985781e+00	1.755377e+01
2.130000e-06	1.336960e-06	2.687030e-10	9.301546e+00	1.849253e+01
2.140000e-06	1.382338e-06	2.799441e-10	9.617249e+00	1.942232e+01
2.150000e-06	1.427617e-06	2.902626e-10	9.932269e+00	2.034236e+01
2.160000e-06	1.472658e-06	3.013413e-10	1.024563e+01	2.125196e+01
2.170000e-06	1.517557e-06	3.154418e-10	1.055800e+01	2.215041e+01
2.180000e-06	1.562406e-06	3.333146e-10	1.087002e+01	2.303709e+01
2.190000e-06	1.607140e-06	3.476240e-10	1.118125e+01	2.391140e+01
2.200000e-06	1.651762e-06	3.598699e-10	1.149170e+01	2.477278e+01
2.210000e-06	1.696266e-06	3.710121e-10	1.180132e+01	2.562073e+01
2.220000e-06	1.740621e-06	3.793660e-10	1.210991e+01	2.645480e+01
2.230000e-06	1.784800e-06	3.896586e-10	1.241727e+01	2.727458e+01
2.240000e-06	1.828846e-06	4.005456e-10	1.272371e+01	2.807970e+01
2.250000e-06	1.872798e-06	4.117028e-10	1.302949e+01	2.886984e+01
2.260000e-06	1.916691e-06	4.219562e-10	1.333487e+01	2.964475e+01
2.270000e-06	1.960518e-06	4.361658e-10	1.363978e+01	3.040420e+01
2.280000e-06	2.004242e-06	4.508038e-10	1.394399e+01	3.114801e+01
2.290000e-06	2.047945e-06	4.608553e-10	1.424803e+01	3.187606e+01
2.300000e-06	2.091590e-06	4.686860e-10	1.455168e+01	3.258826e+01
2.310000e-06	2.135157e-06	4.759016e-10	1.485479e+01	3.328457e+01
2.320000e-06	2.178651e-06	4.854740e-10	1.515739e+01	3.396497e+01
2.330000e-06	2.222094e-06	4.971048e-10	1.545963e+01	3.462951e+01
2.340000e-06	2.265448e-06	5.118701e-10	1.576126e+01	3.527825e+01
2.350000e-06	2.308504e-06	5.285017e-10	1.606081e+01	3.591129e+01
2.360000e-06	2.351238e-06	5.407389e-10	1.635811e+01	3.652876e+01
2.370000e-06	2.393958e-06	5.455900e-10	1.665533e+01	3.713083e+01
2.380000e-06	2.436493e-06	5.479502e-10	1.695126e+01	3.771768e+01
2.390000e-06	2.478561e-06	5.524405e-10	1.724393e+01	3.828951e+01
2.400000e-06	2.520291e-06	5.595664e-10	1.753426e+01	3.884656e+01
2.410000e-06	2.561689e-06	5.694490e-10	1.782227e+01	3.938907e+01
2.420000e-06	2.602688e-06	5.812473e-10	1.810751e+01	3.991731e+01
2.430000e-06	2.643340e-06	5.934007e-10	1.839034e+01	4.043154e+01
2.440000e-06	2.683746e-06	6.024608e-10	1.867145e+01	4.093205e+01
2.450000e-06	2.723944e-06	6.074345e-10	1.895112e+01	4.141913e+01
2.460000e-06	2.763972e-06	6.113912e-10	1.922960e+01	4.189306e+01
2.470000e-06	2.803848e-06	6.157670e-10	1.950703e+01	4.235416e+01
2.480000e-06	2.843613e-06	6.221822e-10	1.978368e+01	4.280270e+01
2.490000e-06	2.883295e-06	6.312275e-10	2.005976e+01	4.323900e+01
2.500000e-06	2.922840e-06	6.408044e-10	2.033489e+01	4.366334e+01
2.510000e-06	2.962232e-06	6.480904e-10	2.060894e+01	4.407600e+01
2.520000e-06	3.001489e-06	6.538235e-10	2.088206e+01	4.447727e+01
2.530000e-06	3.040549e-06	6.568048e-10	2.115381e+01	4.486742e+01
2.540000e-06	3.079392e-06	6.582121e-10	2.142405e+01	4.524672e+01
2.550000e-06	3.118085e-06	6.622305e-10	2.169325e+01	4.561541e+01
2.560000e-06	3.156489e-06	6.694371e-10	2.196044e+01	4.597374e+01
2.570000e-06	3.194552e-06	6.780763e-10	2.222525e+01	4.632194e+01
2.580000e-06	3.232423e-06	6.862010e-10	2.248873e+01	4.666024e+01
2.590000e-06	3.270146e-06	6.910388e-10	2.275117e+01	4.698884e+01
2.600000e-06	3.307694e-06	6.941169e-10	2.301241e+01	4.730794e+01
2.610000e-06	3.345025e-06	6.963825e-10	2.327213e+01	4.761774e+01
2.620000e-06	3.382064e-06	6.958714e-10	2.352981e+01	4.791840e+01
2.630000e-06	3.418830e-06	6.955512e-10	2.378561e+01	4.821009e+01
2.640000e-06	3.455367e-06	6.982695e-10	2.403980e+01	4.849297e+01
2.650000e-06	3.491601e-06	7.039945e-10	2.429189e+01	4.876719e+01
2.660000e-06	3.527601e-06	7.112651e-10	2.454235e+01	4.903289e+01
2.670000e-06	3.563479e-06	7.165973e-10	2.479196e+01	4.929020e+01
2.680000e-06	3.599228e-06	7.196042e-10	2.504067e+01	4.953924e+01
2.690000e-06	3.634845e-06	7.213975e-10	2.528847e+01	4.978013e+01
2.700000e-06	3.670299e-06	7.205623e-10	2.553513e+01	5.001299e+01
2.710000e-06	3.705547e-06	7.184134e-10	2.578036e+01	5.023794e+01
2.720000e-06	3.740635e-06	7.194717e-10	2.602448e+01	5.045508e+01
2.730000e-06	3.775488e-06	7.242283e-10	2.626696e+01	5.066451e+01
2.740000e-06	3.809841e-06	7.283042e-10	2.650596e+01	5.086636e+01
2.750000e-06	3.843622e-06	7.304656e-10	2.674098e+01	5.106071e+01
2.760000e-06	3.876973e-06	7.330632e-10	2.697301e+01	5.124770e+01
2.770000e-06	3.909860e-06	7.372355e-10	2.720182e+01	5.142741e+01
2.780000e-06	3.942245e-06	7.391846e-10	2.742713e+01	5.159998e+01
2.790000e-06	3.974295e-06	7.387879e-10	2.765011e+01	5.176551e+01
2.800000e-06	4.006188e-06	7.387613e-10	2.787199e+01	5.192413e+01
2.810000e-06	4.037924e-06	7.399855e-10	2.809278e+01	5.207596e+01
2.820000e-06	4.069496e-06	7.442146e-10	2.831244e+01	5.222113e+01
2.830000e-06	4.100900e-06	7.511032e-10	2.853093e+01	5.235978e+01
2.840000e-06	4.132086e-06	7.571422e-10	2.874790e+01	5.249204e+01
2.850000e-06	4.162992e-06	7.626011e-10	2.896291e+01	5.261806e+01
2.860000e-06	4.193536e-06	7.673778e-10	2.917542e+01	5.273798e+01
2.870000e-06	4.223719e-06	7.689403e-10	2.938540e+01	5.285196e+01
2.880000e-06	4.253661e-06	7.676108e-10	2.959372e+01	5.296016e+01
2.890000e-06	4.283348e-06	7.673223e-10	2.980026e+01	5.306274e+01
2.900000e-06	4.312713e-06	7.707823e-10	3.000456e+01	5.315985e+01
