# Temperatura_=_4.63
# Concentracion g/m^3_=_1620.0
# C_Vs_to_Am_M_A/Vsm_=_65563218390.804596
# pendiente_HvsI_1/m_=_3716.3
# ordenada_HvsI_A/m_=_1297.0
# frecuencia_Hz_=_135094.38165264117

Tiempo_(s)	Campo_(V.s)	Magnetizacion_(V.s)	Campo_(kA/m)	Magnetizacion_(A/m)
0.000000e+00	-5.519994e-06	-1.222120e-09	-3.837798e+01	-8.139788e+01
1.000000e-08	-5.520122e-06	-1.220048e-09	-3.837887e+01	-8.137720e+01
2.000000e-08	-5.519944e-06	-1.218353e-09	-3.837763e+01	-8.135953e+01
3.000000e-08	-5.519445e-06	-1.217523e-09	-3.837417e+01	-8.134477e+01
4.000000e-08	-5.518599e-06	-1.212807e-09	-3.836829e+01	-8.133277e+01
5.000000e-08	-5.517137e-06	-1.200226e-09	-3.835812e+01	-8.132334e+01
6.000000e-08	-5.515041e-06	-1.196837e-09	-3.834355e+01	-8.131625e+01
7.000000e-08	-5.512387e-06	-1.227230e-09	-3.832510e+01	-8.131125e+01
8.000000e-08	-5.509104e-06	-1.246728e-09	-3.830227e+01	-8.130803e+01
9.000000e-08	-5.505342e-06	-1.234543e-09	-3.827611e+01	-8.130627e+01
1.000000e-07	-5.501230e-06	-1.258399e-09	-3.824752e+01	-8.130560e+01
1.100000e-07	-5.496814e-06	-1.254721e-09	-3.821682e+01	-8.130562e+01
1.200000e-07	-5.492141e-06	-1.179519e-09	-3.818433e+01	-8.130592e+01
1.300000e-07	-5.487280e-06	-1.124667e-09	-3.815054e+01	-8.130606e+01
1.400000e-07	-5.482129e-06	-1.202441e-09	-3.811472e+01	-8.130558e+01
1.500000e-07	-5.476532e-06	-1.258098e-09	-3.807581e+01	-8.130399e+01
1.600000e-07	-5.470537e-06	-1.193042e-09	-3.803413e+01	-8.130081e+01
1.700000e-07	-5.464158e-06	-1.128038e-09	-3.798978e+01	-8.129553e+01
1.800000e-07	-5.457434e-06	-1.237896e-09	-3.794303e+01	-8.128765e+01
1.900000e-07	-5.450246e-06	-1.291599e-09	-3.789305e+01	-8.127666e+01
2.000000e-07	-5.442699e-06	-1.235122e-09	-3.784059e+01	-8.126205e+01
2.100000e-07	-5.434935e-06	-1.167581e-09	-3.778661e+01	-8.124331e+01
2.200000e-07	-5.426826e-06	-1.231074e-09	-3.773023e+01	-8.121996e+01
2.300000e-07	-5.418513e-06	-1.268186e-09	-3.767243e+01	-8.119151e+01
2.400000e-07	-5.409794e-06	-1.241926e-09	-3.761182e+01	-8.115750e+01
2.500000e-07	-5.400310e-06	-1.220982e-09	-3.754587e+01	-8.111748e+01
2.600000e-07	-5.390216e-06	-1.245854e-09	-3.747569e+01	-8.107104e+01
2.700000e-07	-5.379553e-06	-1.261615e-09	-3.740156e+01	-8.101777e+01
2.800000e-07	-5.368349e-06	-1.237337e-09	-3.732367e+01	-8.095730e+01
2.900000e-07	-5.356715e-06	-1.234492e-09	-3.724278e+01	-8.088931e+01
3.000000e-07	-5.344661e-06	-1.232264e-09	-3.715897e+01	-8.081349e+01
3.100000e-07	-5.332263e-06	-1.245749e-09	-3.707277e+01	-8.072957e+01
3.200000e-07	-5.319460e-06	-1.227700e-09	-3.698376e+01	-8.063731e+01
3.300000e-07	-5.306203e-06	-1.224015e-09	-3.689159e+01	-8.053654e+01
3.400000e-07	-5.292558e-06	-1.215939e-09	-3.679673e+01	-8.042709e+01
3.500000e-07	-5.278576e-06	-1.268870e-09	-3.669951e+01	-8.030885e+01
3.600000e-07	-5.264157e-06	-1.247488e-09	-3.659927e+01	-8.018176e+01
3.700000e-07	-5.249215e-06	-1.217076e-09	-3.649538e+01	-8.004578e+01
3.800000e-07	-5.233804e-06	-1.229240e-09	-3.638823e+01	-7.990093e+01
3.900000e-07	-5.217975e-06	-1.266949e-09	-3.627819e+01	-7.974725e+01
4.000000e-07	-5.201535e-06	-1.194000e-09	-3.616388e+01	-7.958483e+01
4.100000e-07	-5.184654e-06	-1.192343e-09	-3.604652e+01	-7.941381e+01
4.200000e-07	-5.167518e-06	-1.262153e-09	-3.592738e+01	-7.923434e+01
4.300000e-07	-5.150019e-06	-1.236016e-09	-3.580571e+01	-7.904663e+01
4.400000e-07	-5.132259e-06	-1.169127e-09	-3.568224e+01	-7.885090e+01
4.500000e-07	-5.114223e-06	-1.250661e-09	-3.555684e+01	-7.864742e+01
4.600000e-07	-5.095778e-06	-1.273502e-09	-3.542860e+01	-7.843647e+01
4.700000e-07	-5.076889e-06	-1.164814e-09	-3.529728e+01	-7.821837e+01
4.800000e-07	-5.057600e-06	-1.180927e-09	-3.516317e+01	-7.799345e+01
4.900000e-07	-5.038012e-06	-1.266194e-09	-3.502698e+01	-7.776207e+01
5.000000e-07	-5.018204e-06	-1.191202e-09	-3.488926e+01	-7.752460e+01
5.100000e-07	-4.998149e-06	-1.151007e-09	-3.474983e+01	-7.728141e+01
5.200000e-07	-4.977858e-06	-1.244402e-09	-3.460876e+01	-7.703291e+01
5.300000e-07	-4.957309e-06	-1.211244e-09	-3.446589e+01	-7.677949e+01
5.400000e-07	-4.936400e-06	-1.135592e-09	-3.432053e+01	-7.652154e+01
5.500000e-07	-4.915088e-06	-1.207395e-09	-3.417235e+01	-7.625947e+01
5.600000e-07	-4.893412e-06	-1.223992e-09	-3.402164e+01	-7.599367e+01
5.700000e-07	-4.871371e-06	-1.121079e-09	-3.386841e+01	-7.572452e+01
5.800000e-07	-4.849036e-06	-1.158757e-09	-3.371312e+01	-7.545241e+01
5.900000e-07	-4.826415e-06	-1.218798e-09	-3.355584e+01	-7.517770e+01
6.000000e-07	-4.803415e-06	-1.143466e-09	-3.339594e+01	-7.490073e+01
6.100000e-07	-4.780101e-06	-1.119240e-09	-3.323384e+01	-7.462182e+01
6.200000e-07	-4.756559e-06	-1.187652e-09	-3.307017e+01	-7.434130e+01
6.300000e-07	-4.732792e-06	-1.144292e-09	-3.290493e+01	-7.405944e+01
6.400000e-07	-4.708737e-06	-1.104918e-09	-3.273769e+01	-7.377650e+01
6.500000e-07	-4.684368e-06	-1.152900e-09	-3.256826e+01	-7.349272e+01
6.600000e-07	-4.659579e-06	-1.151456e-09	-3.239591e+01	-7.320829e+01
6.700000e-07	-4.634261e-06	-1.104021e-09	-3.221989e+01	-7.292340e+01
6.800000e-07	-4.608425e-06	-1.137022e-09	-3.204026e+01	-7.263818e+01
6.900000e-07	-4.582030e-06	-1.143469e-09	-3.185675e+01	-7.235275e+01
7.000000e-07	-4.555089e-06	-1.101872e-09	-3.166944e+01	-7.206720e+01
7.100000e-07	-4.527802e-06	-1.105168e-09	-3.147973e+01	-7.178158e+01
7.200000e-07	-4.500327e-06	-1.125604e-09	-3.128870e+01	-7.149591e+01
7.300000e-07	-4.472625e-06	-1.090281e-09	-3.109611e+01	-7.121018e+01
7.400000e-07	-4.444715e-06	-1.081376e-09	-3.090206e+01	-7.092436e+01
7.500000e-07	-4.416651e-06	-1.100728e-09	-3.070695e+01	-7.063837e+01
7.600000e-07	-4.388310e-06	-1.088458e-09	-3.050990e+01	-7.035213e+01
7.700000e-07	-4.359621e-06	-1.071891e-09	-3.031044e+01	-7.006552e+01
7.800000e-07	-4.330608e-06	-1.080575e-09	-3.010873e+01	-6.977840e+01
7.900000e-07	-4.301317e-06	-1.071392e-09	-2.990508e+01	-6.949061e+01
8.000000e-07	-4.271690e-06	-1.049565e-09	-2.969910e+01	-6.920195e+01
8.100000e-07	-4.241765e-06	-1.053553e-09	-2.949104e+01	-6.891224e+01
8.200000e-07	-4.211544e-06	-1.053047e-09	-2.928093e+01	-6.862125e+01
8.300000e-07	-4.180971e-06	-1.036562e-09	-2.906837e+01	-6.832876e+01
8.400000e-07	-4.150190e-06	-1.038929e-09	-2.885436e+01	-6.803453e+01
8.500000e-07	-4.119185e-06	-1.041408e-09	-2.863880e+01	-6.773831e+01
8.600000e-07	-4.087855e-06	-1.018807e-09	-2.842098e+01	-6.743984e+01
8.700000e-07	-4.056240e-06	-1.007854e-09	-2.820118e+01	-6.713887e+01
8.800000e-07	-4.024518e-06	-1.010241e-09	-2.798063e+01	-6.683515e+01
8.900000e-07	-3.992686e-06	-1.001755e-09	-2.775931e+01	-6.652842e+01
9.000000e-07	-3.960609e-06	-9.882100e-10	-2.753629e+01	-6.621842e+01
9.100000e-07	-3.928326e-06	-9.934947e-10	-2.731185e+01	-6.590492e+01
9.200000e-07	-3.895695e-06	-9.841016e-10	-2.708498e+01	-6.558767e+01
9.300000e-07	-3.862589e-06	-9.682415e-10	-2.685481e+01	-6.526645e+01
9.400000e-07	-3.829067e-06	-9.664237e-10	-2.662174e+01	-6.494106e+01
9.500000e-07	-3.795085e-06	-9.687801e-10	-2.638548e+01	-6.461128e+01
9.600000e-07	-3.760614e-06	-9.505886e-10	-2.614582e+01	-6.427693e+01
9.700000e-07	-3.725785e-06	-9.437291e-10	-2.590367e+01	-6.393786e+01
9.800000e-07	-3.690625e-06	-9.457077e-10	-2.565922e+01	-6.359390e+01
9.900000e-07	-3.655108e-06	-9.370507e-10	-2.541229e+01	-6.324493e+01
1.000000e-06	-3.619355e-06	-9.262947e-10	-2.516371e+01	-6.289084e+01
1.010000e-06	-3.583489e-06	-9.273275e-10	-2.491435e+01	-6.253153e+01
1.020000e-06	-3.547527e-06	-9.200730e-10	-2.466432e+01	-6.216694e+01
1.030000e-06	-3.511472e-06	-9.073383e-10	-2.441365e+01	-6.179701e+01
1.040000e-06	-3.475296e-06	-9.027745e-10	-2.416214e+01	-6.142171e+01
1.050000e-06	-3.438817e-06	-9.011085e-10	-2.390851e+01	-6.104103e+01
1.060000e-06	-3.402050e-06	-8.904014e-10	-2.365289e+01	-6.065498e+01
1.070000e-06	-3.365005e-06	-8.858544e-10	-2.339533e+01	-6.026358e+01
1.080000e-06	-3.327701e-06	-8.838383e-10	-2.313597e+01	-5.986687e+01
1.090000e-06	-3.290182e-06	-8.733299e-10	-2.287512e+01	-5.946492e+01
1.100000e-06	-3.252478e-06	-8.634150e-10	-2.261298e+01	-5.905778e+01
1.110000e-06	-3.214560e-06	-8.575113e-10	-2.234936e+01	-5.864556e+01
1.120000e-06	-3.176360e-06	-8.486458e-10	-2.208377e+01	-5.822834e+01
1.130000e-06	-3.137962e-06	-8.394388e-10	-2.181681e+01	-5.780623e+01
1.140000e-06	-3.099307e-06	-8.378201e-10	-2.154806e+01	-5.737934e+01
1.150000e-06	-3.060348e-06	-8.349366e-10	-2.127719e+01	-5.694778e+01
1.160000e-06	-3.021232e-06	-8.277494e-10	-2.100524e+01	-5.651168e+01
1.170000e-06	-2.981874e-06	-8.184699e-10	-2.073160e+01	-5.607116e+01
1.180000e-06	-2.942297e-06	-8.111399e-10	-2.045644e+01	-5.562634e+01
1.190000e-06	-2.902655e-06	-8.022268e-10	-2.018083e+01	-5.517733e+01
1.200000e-06	-2.862873e-06	-7.967813e-10	-1.990424e+01	-5.472425e+01
1.210000e-06	-2.822963e-06	-7.911334e-10	-1.962676e+01	-5.426719e+01
1.220000e-06	-2.782945e-06	-7.819118e-10	-1.934854e+01	-5.380626e+01
1.230000e-06	-2.742810e-06	-7.706582e-10	-1.906950e+01	-5.334152e+01
1.240000e-06	-2.702507e-06	-7.641184e-10	-1.878929e+01	-5.287305e+01
1.250000e-06	-2.662003e-06	-7.550981e-10	-1.850769e+01	-5.240089e+01
1.260000e-06	-2.621318e-06	-7.460635e-10	-1.822482e+01	-5.192508e+01
1.270000e-06	-2.580394e-06	-7.377819e-10	-1.794029e+01	-5.144562e+01
1.280000e-06	-2.539264e-06	-7.309418e-10	-1.765434e+01	-5.096251e+01
1.290000e-06	-2.497882e-06	-7.235750e-10	-1.736663e+01	-5.047571e+01
1.300000e-06	-2.456166e-06	-7.162787e-10	-1.707659e+01	-4.998516e+01
1.310000e-06	-2.414129e-06	-7.070930e-10	-1.678433e+01	-4.949077e+01
1.320000e-06	-2.371671e-06	-6.973592e-10	-1.648914e+01	-4.899245e+01
1.330000e-06	-2.328883e-06	-6.875651e-10	-1.619165e+01	-4.849004e+01
1.340000e-06	-2.285934e-06	-6.803142e-10	-1.589305e+01	-4.798338e+01
1.350000e-06	-2.242718e-06	-6.731354e-10	-1.559259e+01	-4.747227e+01
1.360000e-06	-2.199262e-06	-6.650409e-10	-1.529046e+01	-4.695650e+01
1.370000e-06	-2.155664e-06	-6.567130e-10	-1.498734e+01	-4.643581e+01
1.380000e-06	-2.111937e-06	-6.500514e-10	-1.468333e+01	-4.590991e+01
1.390000e-06	-2.068142e-06	-6.402420e-10	-1.437884e+01	-4.537850e+01
1.400000e-06	-2.024325e-06	-6.295397e-10	-1.407420e+01	-4.484124e+01
1.410000e-06	-1.980485e-06	-6.195170e-10	-1.376940e+01	-4.429777e+01
1.420000e-06	-1.936527e-06	-6.075197e-10	-1.346378e+01	-4.374769e+01
1.430000e-06	-1.892474e-06	-5.973980e-10	-1.315750e+01	-4.319059e+01
1.440000e-06	-1.848367e-06	-5.897558e-10	-1.285085e+01	-4.262603e+01
1.450000e-06	-1.804157e-06	-5.821126e-10	-1.254348e+01	-4.205356e+01
1.460000e-06	-1.759816e-06	-5.727744e-10	-1.223519e+01	-4.147269e+01
1.470000e-06	-1.715329e-06	-5.628814e-10	-1.192590e+01	-4.088294e+01
1.480000e-06	-1.670805e-06	-5.495682e-10	-1.161634e+01	-4.028377e+01
1.490000e-06	-1.626123e-06	-5.363881e-10	-1.130569e+01	-3.967468e+01
1.500000e-06	-1.581120e-06	-5.260932e-10	-1.099280e+01	-3.905512e+01
1.510000e-06	-1.536017e-06	-5.187626e-10	-1.067922e+01	-3.842454e+01
1.520000e-06	-1.490903e-06	-5.081847e-10	-1.036556e+01	-3.778241e+01
1.530000e-06	-1.445656e-06	-4.977391e-10	-1.005098e+01	-3.712815e+01
1.540000e-06	-1.400293e-06	-4.862509e-10	-9.735596e+00	-3.646121e+01
1.550000e-06	-1.354903e-06	-4.717259e-10	-9.420019e+00	-3.578105e+01
1.560000e-06	-1.309420e-06	-4.544846e-10	-9.103798e+00	-3.508712e+01
1.570000e-06	-1.263870e-06	-4.405643e-10	-8.787106e+00	-3.437888e+01
1.580000e-06	-1.218233e-06	-4.286943e-10	-8.469817e+00	-3.365579e+01
1.590000e-06	-1.172477e-06	-4.181025e-10	-8.151691e+00	-3.291736e+01
1.600000e-06	-1.126641e-06	-4.080886e-10	-7.833015e+00	-3.216309e+01
1.610000e-06	-1.080757e-06	-3.965347e-10	-7.514008e+00	-3.139250e+01
1.620000e-06	-1.034870e-06	-3.845809e-10	-7.194979e+00	-3.060515e+01
1.630000e-06	-9.888298e-07	-3.750342e-10	-6.874879e+00	-2.980062e+01
1.640000e-06	-9.427028e-07	-3.642136e-10	-6.554179e+00	-2.897851e+01
1.650000e-06	-8.964694e-07	-3.509768e-10	-6.232740e+00	-2.813846e+01
1.660000e-06	-8.501666e-07	-3.385117e-10	-5.910818e+00	-2.728015e+01
1.670000e-06	-8.038834e-07	-3.247927e-10	-5.589032e+00	-2.640330e+01
1.680000e-06	-7.575389e-07	-3.086690e-10	-5.266820e+00	-2.550766e+01
1.690000e-06	-7.110844e-07	-2.941868e-10	-4.943843e+00	-2.459304e+01
1.700000e-06	-6.645222e-07	-2.835101e-10	-4.620117e+00	-2.365926e+01
1.710000e-06	-6.179680e-07	-2.710224e-10	-4.296448e+00	-2.270623e+01
1.720000e-06	-5.714302e-07	-2.546321e-10	-3.972892e+00	-2.173388e+01
1.730000e-06	-5.248587e-07	-2.355604e-10	-3.649101e+00	-2.074220e+01
1.740000e-06	-4.782000e-07	-2.166244e-10	-3.324705e+00	-1.973125e+01
1.750000e-06	-4.315169e-07	-2.009907e-10	-3.000138e+00	-1.870110e+01
1.760000e-06	-3.848319e-07	-1.891810e-10	-2.675559e+00	-1.765193e+01
1.770000e-06	-3.380493e-07	-1.799240e-10	-2.350301e+00	-1.658392e+01
1.780000e-06	-2.911323e-07	-1.702014e-10	-2.024109e+00	-1.549734e+01
1.790000e-06	-2.442534e-07	-1.564736e-10	-1.698181e+00	-1.439252e+01
1.800000e-06	-1.974298e-07	-1.399285e-10	-1.372639e+00	-1.326982e+01
1.810000e-06	-1.506245e-07	-1.201069e-10	-1.047223e+00	-1.212968e+01
1.820000e-06	-1.038498e-07	-1.017354e-10	-7.220200e-01	-1.097258e+01
1.830000e-06	-5.710266e-08	-8.804451e-11	-3.970085e-01	-9.799057e+00
1.840000e-06	-1.036642e-08	-7.544490e-11	-7.207299e-02	-8.609715e+00
1.850000e-06	3.640560e-08	-6.293472e-11	2.531114e-01	-7.405196e+00
1.860000e-06	8.311369e-08	-5.121014e-11	5.778513e-01	-6.186198e+00
1.870000e-06	1.298426e-07	-3.689883e-11	9.027358e-01	-4.953470e+00
1.880000e-06	1.766162e-07	-1.863027e-11	1.227931e+00	-3.707804e+00
1.890000e-06	2.233815e-07	2.059500e-12	1.553069e+00	-2.450040e+00
1.900000e-06	2.701328e-07	2.252733e-11	1.878110e+00	-1.181060e+00
1.910000e-06	3.167571e-07	4.270196e-11	2.202267e+00	9.821483e-02
1.920000e-06	3.634424e-07	6.028948e-11	2.526848e+00	1.386826e+00
1.930000e-06	4.103169e-07	7.485472e-11	2.852745e+00	2.683781e+00
1.940000e-06	4.570877e-07	9.049871e-11	3.177921e+00	3.988058e+00
1.950000e-06	5.036856e-07	1.079274e-10	3.501895e+00	5.298607e+00
1.960000e-06	5.502349e-07	1.268321e-10	3.825531e+00	6.614355e+00
1.970000e-06	5.967244e-07	1.469689e-10	4.148751e+00	7.934211e+00
1.980000e-06	6.432557e-07	1.654271e-10	4.472261e+00	9.257064e+00
1.990000e-06	6.898156e-07	1.830147e-10	4.795971e+00	1.058180e+01
2.000000e-06	7.361960e-07	1.994998e-10	5.118432e+00	1.190728e+01
2.010000e-06	7.824238e-07	2.184043e-10	5.439833e+00	1.323238e+01
2.020000e-06	8.285843e-07	2.407306e-10	5.760766e+00	1.455596e+01
2.030000e-06	8.747701e-07	2.640642e-10	6.081874e+00	1.587690e+01
2.040000e-06	9.209202e-07	2.861031e-10	6.402735e+00	1.719409e+01
2.050000e-06	9.669546e-07	3.040242e-10	6.722791e+00	1.850640e+01
2.060000e-06	1.012913e-06	3.179080e-10	7.042316e+00	1.981276e+01
2.070000e-06	1.058787e-06	3.328760e-10	7.361260e+00	2.111209e+01
2.080000e-06	1.104634e-06	3.523463e-10	7.680013e+00	2.240335e+01
2.090000e-06	1.150469e-06	3.737339e-10	7.998683e+00	2.368551e+01
2.100000e-06	1.196245e-06	3.974421e-10	8.316944e+00	2.495759e+01
2.110000e-06	1.241889e-06	4.184341e-10	8.634282e+00	2.621864e+01
2.120000e-06	1.287406e-06	4.353556e-10	8.950743e+00	2.746774e+01
2.130000e-06	1.332805e-06	4.503653e-10	9.266378e+00	2.870401e+01
2.140000e-06	1.378074e-06	4.648808e-10	9.581115e+00	2.992662e+01
2.150000e-06	1.423282e-06	4.789226e-10	9.895424e+00	3.113479e+01
2.160000e-06	1.468423e-06	4.939791e-10	1.020927e+01	3.232776e+01
2.170000e-06	1.513428e-06	5.113827e-10	1.052217e+01	3.350486e+01
2.180000e-06	1.558389e-06	5.331192e-10	1.083476e+01	3.466544e+01
2.190000e-06	1.603266e-06	5.531587e-10	1.114677e+01	3.580891e+01
2.200000e-06	1.647906e-06	5.704341e-10	1.145713e+01	3.693475e+01
2.210000e-06	1.692356e-06	5.851364e-10	1.176618e+01	3.804246e+01
2.220000e-06	1.736738e-06	5.977006e-10	1.207474e+01	3.913162e+01
2.230000e-06	1.781001e-06	6.097012e-10	1.238248e+01	4.020187e+01
2.240000e-06	1.825115e-06	6.185927e-10	1.268919e+01	4.125288e+01
2.250000e-06	1.869184e-06	6.293154e-10	1.299558e+01	4.228439e+01
2.260000e-06	1.913203e-06	6.429586e-10	1.330162e+01	4.329620e+01
2.270000e-06	1.957162e-06	6.623175e-10	1.360725e+01	4.428814e+01
2.280000e-06	2.001069e-06	6.823523e-10	1.391252e+01	4.526012e+01
2.290000e-06	2.044905e-06	6.988732e-10	1.421728e+01	4.621206e+01
2.300000e-06	2.088656e-06	7.111752e-10	1.452146e+01	4.714398e+01
2.310000e-06	2.132380e-06	7.199672e-10	1.482546e+01	4.805589e+01
2.320000e-06	2.176037e-06	7.274280e-10	1.512898e+01	4.894789e+01
2.330000e-06	2.219492e-06	7.366534e-10	1.543111e+01	4.982009e+01
2.340000e-06	2.262782e-06	7.498251e-10	1.573208e+01	5.067267e+01
2.350000e-06	2.305933e-06	7.653891e-10	1.603210e+01	5.150581e+01
2.360000e-06	2.348921e-06	7.824189e-10	1.633097e+01	5.231974e+01
2.370000e-06	2.391573e-06	7.953668e-10	1.662751e+01	5.311474e+01
2.380000e-06	2.433888e-06	8.033788e-10	1.692171e+01	5.389108e+01
2.390000e-06	2.475802e-06	8.097084e-10	1.721311e+01	5.464909e+01
2.400000e-06	2.517251e-06	8.145669e-10	1.750129e+01	5.538910e+01
2.410000e-06	2.558502e-06	8.200444e-10	1.778809e+01	5.611147e+01
2.420000e-06	2.599554e-06	8.296656e-10	1.807350e+01	5.681656e+01
2.430000e-06	2.640229e-06	8.447346e-10	1.835630e+01	5.750476e+01
2.440000e-06	2.680586e-06	8.592802e-10	1.863688e+01	5.817647e+01
2.450000e-06	2.720797e-06	8.684488e-10	1.891645e+01	5.883209e+01
2.460000e-06	2.760880e-06	8.756684e-10	1.919513e+01	5.947201e+01
2.470000e-06	2.800846e-06	8.829646e-10	1.947300e+01	6.009666e+01
2.480000e-06	2.840730e-06	8.895232e-10	1.975029e+01	6.070644e+01
2.490000e-06	2.880492e-06	8.950229e-10	2.002674e+01	6.130176e+01
2.500000e-06	2.920145e-06	9.042299e-10	2.030243e+01	6.188301e+01
2.510000e-06	2.959750e-06	9.137387e-10	2.057778e+01	6.245059e+01
2.520000e-06	2.999134e-06	9.213687e-10	2.085160e+01	6.300489e+01
2.530000e-06	3.038133e-06	9.288706e-10	2.112274e+01	6.354628e+01
2.540000e-06	3.076856e-06	9.354566e-10	2.139196e+01	6.407513e+01
2.550000e-06	3.115443e-06	9.418279e-10	2.166024e+01	6.459180e+01
2.560000e-06	3.153795e-06	9.465776e-10	2.192689e+01	6.509662e+01
2.570000e-06	3.191872e-06	9.476451e-10	2.219162e+01	6.558992e+01
2.580000e-06	3.229761e-06	9.483228e-10	2.245504e+01	6.607202e+01
2.590000e-06	3.267509e-06	9.529842e-10	2.271749e+01	6.654321e+01
2.600000e-06	3.305081e-06	9.612364e-10	2.297871e+01	6.700378e+01
2.610000e-06	3.342521e-06	9.704216e-10	2.323901e+01	6.745400e+01
2.620000e-06	3.379680e-06	9.786898e-10	2.349736e+01	6.789412e+01
2.630000e-06	3.416531e-06	9.849952e-10	2.375357e+01	6.832439e+01
2.640000e-06	3.453178e-06	9.891775e-10	2.400836e+01	6.874504e+01
2.650000e-06	3.489516e-06	9.909553e-10	2.426100e+01	6.915629e+01
2.660000e-06	3.525667e-06	9.932307e-10	2.451235e+01	6.955833e+01
2.670000e-06	3.561680e-06	9.972028e-10	2.476272e+01	6.995138e+01
2.680000e-06	3.597513e-06	1.004189e-09	2.501185e+01	7.033560e+01
2.690000e-06	3.633194e-06	1.014587e-09	2.525993e+01	7.071118e+01
2.700000e-06	3.668729e-06	1.023384e-09	2.550699e+01	7.107829e+01
2.710000e-06	3.704060e-06	1.028938e-09	2.575263e+01	7.143708e+01
2.720000e-06	3.739156e-06	1.032354e-09	2.599663e+01	7.178773e+01
2.730000e-06	3.773879e-06	1.034346e-09	2.623805e+01	7.213037e+01
2.740000e-06	3.808151e-06	1.035686e-09	2.647633e+01	7.246517e+01
2.750000e-06	3.842039e-06	1.038633e-09	2.671193e+01	7.279227e+01
2.760000e-06	3.875532e-06	1.043696e-09	2.694479e+01	7.311181e+01
2.770000e-06	3.908499e-06	1.050575e-09	2.717400e+01	7.342394e+01
2.780000e-06	3.941020e-06	1.058008e-09	2.740010e+01	7.372881e+01
2.790000e-06	3.973229e-06	1.066890e-09	2.762404e+01	7.402656e+01
2.800000e-06	4.005235e-06	1.074065e-09	2.784656e+01	7.431735e+01
2.810000e-06	4.037111e-06	1.078634e-09	2.806818e+01	7.460133e+01
2.820000e-06	4.068789e-06	1.083675e-09	2.828842e+01	7.487864e+01
2.830000e-06	4.100278e-06	1.088569e-09	2.850735e+01	7.514945e+01
2.840000e-06	4.131583e-06	1.093798e-09	2.872500e+01	7.541391e+01
2.850000e-06	4.162530e-06	1.100170e-09	2.894016e+01	7.567218e+01
2.860000e-06	4.193126e-06	1.105523e-09	2.915288e+01	7.592443e+01
2.870000e-06	4.223408e-06	1.107755e-09	2.936341e+01	7.617082e+01
2.880000e-06	4.253323e-06	1.109246e-09	2.957140e+01	7.641151e+01
2.890000e-06	4.282998e-06	1.112508e-09	2.977772e+01	7.664668e+01
2.900000e-06	4.312463e-06	1.115644e-09	2.998257e+01	7.687648e+01
2.910000e-06	4.341682e-06	1.120190e-09	3.018572e+01	7.710108e+01
