# Temperatura_=_-0.67
# Concentracion g/m^3_=_1620.0
# C_Vs_to_Am_M_A/Vsm_=_65563218390.804596
# pendiente_HvsI_1/m_=_3716.3
# ordenada_HvsI_A/m_=_1297.0
# frecuencia_Hz_=_135100.48675603975

Tiempo_(s)	Campo_(V.s)	Magnetizacion_(V.s)	Campo_(kA/m)	Magnetizacion_(A/m)
0.000000e+00	-5.514762e-06	-1.380409e-09	-3.836112e+01	-9.151672e+01
1.000000e-08	-5.514924e-06	-1.378206e-09	-3.836224e+01	-9.145949e+01
2.000000e-08	-5.514823e-06	-1.381046e-09	-3.836154e+01	-9.140129e+01
3.000000e-08	-5.514282e-06	-1.385502e-09	-3.835778e+01	-9.134216e+01
4.000000e-08	-5.513199e-06	-1.383471e-09	-3.835024e+01	-9.128212e+01
5.000000e-08	-5.511501e-06	-1.368065e-09	-3.833843e+01	-9.122120e+01
6.000000e-08	-5.509214e-06	-1.353303e-09	-3.832252e+01	-9.115939e+01
7.000000e-08	-5.506354e-06	-1.372583e-09	-3.830263e+01	-9.109667e+01
8.000000e-08	-5.502925e-06	-1.431163e-09	-3.827878e+01	-9.103303e+01
9.000000e-08	-5.499095e-06	-1.518123e-09	-3.825214e+01	-9.096842e+01
1.000000e-07	-5.494873e-06	-1.509491e-09	-3.822276e+01	-9.090279e+01
1.100000e-07	-5.490350e-06	-1.325717e-09	-3.819130e+01	-9.083607e+01
1.200000e-07	-5.485781e-06	-1.241008e-09	-3.815952e+01	-9.076820e+01
1.300000e-07	-5.480996e-06	-1.366161e-09	-3.812623e+01	-9.069908e+01
1.400000e-07	-5.475678e-06	-1.463327e-09	-3.808924e+01	-9.062861e+01
1.500000e-07	-5.469855e-06	-1.371488e-09	-3.804874e+01	-9.055670e+01
1.600000e-07	-5.463756e-06	-1.272220e-09	-3.800631e+01	-9.048321e+01
1.700000e-07	-5.457269e-06	-1.410063e-09	-3.796119e+01	-9.040803e+01
1.800000e-07	-5.450222e-06	-1.494668e-09	-3.791217e+01	-9.033102e+01
1.900000e-07	-5.442891e-06	-1.371234e-09	-3.786117e+01	-9.025204e+01
2.000000e-07	-5.435407e-06	-1.242485e-09	-3.780911e+01	-9.017095e+01
2.100000e-07	-5.427692e-06	-1.324296e-09	-3.775545e+01	-9.008759e+01
2.200000e-07	-5.419698e-06	-1.431399e-09	-3.769984e+01	-9.000181e+01
2.300000e-07	-5.411434e-06	-1.389940e-09	-3.764235e+01	-8.991346e+01
2.400000e-07	-5.402599e-06	-1.304820e-09	-3.758090e+01	-8.982238e+01
2.500000e-07	-5.392858e-06	-1.318013e-09	-3.751314e+01	-8.972840e+01
2.600000e-07	-5.382437e-06	-1.353100e-09	-3.744065e+01	-8.963136e+01
2.700000e-07	-5.371546e-06	-1.329621e-09	-3.736489e+01	-8.953112e+01
2.800000e-07	-5.360266e-06	-1.321516e-09	-3.728643e+01	-8.942751e+01
2.900000e-07	-5.348646e-06	-1.340536e-09	-3.720560e+01	-8.932038e+01
3.000000e-07	-5.336633e-06	-1.353584e-09	-3.712203e+01	-8.920958e+01
3.100000e-07	-5.324184e-06	-1.330645e-09	-3.703544e+01	-8.909497e+01
3.200000e-07	-5.311277e-06	-1.319186e-09	-3.694566e+01	-8.897642e+01
3.300000e-07	-5.297970e-06	-1.307678e-09	-3.685309e+01	-8.885378e+01
3.400000e-07	-5.284328e-06	-1.330803e-09	-3.675820e+01	-8.872695e+01
3.500000e-07	-5.270243e-06	-1.335987e-09	-3.666022e+01	-8.859580e+01
3.600000e-07	-5.255561e-06	-1.316471e-09	-3.655809e+01	-8.846023e+01
3.700000e-07	-5.240535e-06	-1.323208e-09	-3.645357e+01	-8.832015e+01
3.800000e-07	-5.225145e-06	-1.349420e-09	-3.634652e+01	-8.817546e+01
3.900000e-07	-5.209093e-06	-1.306407e-09	-3.623486e+01	-8.802609e+01
4.000000e-07	-5.192564e-06	-1.286915e-09	-3.611988e+01	-8.787198e+01
4.100000e-07	-5.175812e-06	-1.336499e-09	-3.600335e+01	-8.771307e+01
4.200000e-07	-5.158714e-06	-1.320588e-09	-3.588442e+01	-8.754932e+01
4.300000e-07	-5.141214e-06	-1.256762e-09	-3.576268e+01	-8.738070e+01
4.400000e-07	-5.123438e-06	-1.324420e-09	-3.563903e+01	-8.720718e+01
4.500000e-07	-5.105325e-06	-1.374023e-09	-3.551303e+01	-8.702877e+01
4.600000e-07	-5.086726e-06	-1.275869e-09	-3.538366e+01	-8.684546e+01
4.700000e-07	-5.067692e-06	-1.258465e-09	-3.525126e+01	-8.665726e+01
4.800000e-07	-5.048425e-06	-1.356171e-09	-3.511724e+01	-8.646421e+01
4.900000e-07	-5.028953e-06	-1.314942e-09	-3.498179e+01	-8.626634e+01
5.000000e-07	-5.009272e-06	-1.238804e-09	-3.484489e+01	-8.606369e+01
5.100000e-07	-4.989345e-06	-1.307197e-09	-3.470627e+01	-8.585633e+01
5.200000e-07	-4.969095e-06	-1.317852e-09	-3.456541e+01	-8.564431e+01
5.300000e-07	-4.948463e-06	-1.240183e-09	-3.442189e+01	-8.542771e+01
5.400000e-07	-4.927348e-06	-1.287639e-09	-3.427502e+01	-8.520662e+01
5.500000e-07	-4.905829e-06	-1.332778e-09	-3.412533e+01	-8.498113e+01
5.600000e-07	-4.884078e-06	-1.235871e-09	-3.397403e+01	-8.475133e+01
5.700000e-07	-4.862028e-06	-1.230332e-09	-3.382065e+01	-8.451732e+01
5.800000e-07	-4.839634e-06	-1.314496e-09	-3.366487e+01	-8.427922e+01
5.900000e-07	-4.816825e-06	-1.270401e-09	-3.350621e+01	-8.403714e+01
6.000000e-07	-4.793644e-06	-1.216400e-09	-3.334496e+01	-8.379118e+01
6.100000e-07	-4.770290e-06	-1.278268e-09	-3.318251e+01	-8.354148e+01
6.200000e-07	-4.746715e-06	-1.268621e-09	-3.301852e+01	-8.328815e+01
6.300000e-07	-4.722883e-06	-1.205620e-09	-3.285274e+01	-8.303132e+01
6.400000e-07	-4.698782e-06	-1.235358e-09	-3.268509e+01	-8.277109e+01
6.500000e-07	-4.674358e-06	-1.258804e-09	-3.251519e+01	-8.250759e+01
6.600000e-07	-4.649418e-06	-1.210722e-09	-3.234172e+01	-8.224095e+01
6.700000e-07	-4.623843e-06	-1.222900e-09	-3.216381e+01	-8.197126e+01
6.800000e-07	-4.597721e-06	-1.253886e-09	-3.198211e+01	-8.169864e+01
6.900000e-07	-4.571056e-06	-1.219480e-09	-3.179662e+01	-8.142320e+01
7.000000e-07	-4.543922e-06	-1.199232e-09	-3.160788e+01	-8.114503e+01
7.100000e-07	-4.516524e-06	-1.222490e-09	-3.141730e+01	-8.086423e+01
7.200000e-07	-4.488965e-06	-1.209336e-09	-3.122559e+01	-8.058087e+01
7.300000e-07	-4.461260e-06	-1.191180e-09	-3.103287e+01	-8.029503e+01
7.400000e-07	-4.433400e-06	-1.205808e-09	-3.083907e+01	-8.000679e+01
7.500000e-07	-4.405288e-06	-1.206608e-09	-3.064353e+01	-7.971619e+01
7.600000e-07	-4.376845e-06	-1.185874e-09	-3.044567e+01	-7.942329e+01
7.700000e-07	-4.348077e-06	-1.183252e-09	-3.024556e+01	-7.912811e+01
7.800000e-07	-4.319006e-06	-1.182065e-09	-3.004334e+01	-7.883068e+01
7.900000e-07	-4.289640e-06	-1.168838e-09	-2.983907e+01	-7.853103e+01
8.000000e-07	-4.259990e-06	-1.164919e-09	-2.963282e+01	-7.822914e+01
8.100000e-07	-4.230060e-06	-1.163674e-09	-2.942463e+01	-7.792501e+01
8.200000e-07	-4.199827e-06	-1.151236e-09	-2.921432e+01	-7.761861e+01
8.300000e-07	-4.169216e-06	-1.146931e-09	-2.900139e+01	-7.730992e+01
8.400000e-07	-4.138282e-06	-1.152580e-09	-2.878621e+01	-7.699888e+01
8.500000e-07	-4.107170e-06	-1.139388e-09	-2.856979e+01	-7.668543e+01
8.600000e-07	-4.075904e-06	-1.124902e-09	-2.835230e+01	-7.636952e+01
8.700000e-07	-4.044464e-06	-1.124565e-09	-2.813360e+01	-7.605106e+01
8.800000e-07	-4.012783e-06	-1.121453e-09	-2.791323e+01	-7.572995e+01
8.900000e-07	-3.980898e-06	-1.110696e-09	-2.769143e+01	-7.540610e+01
9.000000e-07	-3.948752e-06	-1.110418e-09	-2.746783e+01	-7.507940e+01
9.100000e-07	-3.916201e-06	-1.109214e-09	-2.724140e+01	-7.474973e+01
9.200000e-07	-3.883322e-06	-1.097814e-09	-2.701269e+01	-7.441697e+01
9.300000e-07	-3.850140e-06	-1.093557e-09	-2.678187e+01	-7.408097e+01
9.400000e-07	-3.816460e-06	-1.095193e-09	-2.654760e+01	-7.374162e+01
9.500000e-07	-3.782194e-06	-1.080849e-09	-2.630923e+01	-7.339875e+01
9.600000e-07	-3.747508e-06	-1.067013e-09	-2.606796e+01	-7.305223e+01
9.700000e-07	-3.712503e-06	-1.066450e-09	-2.582446e+01	-7.270190e+01
9.800000e-07	-3.677220e-06	-1.063442e-09	-2.557902e+01	-7.234761e+01
9.900000e-07	-3.641776e-06	-1.053888e-09	-2.533248e+01	-7.198922e+01
1.000000e-06	-3.606216e-06	-1.053244e-09	-2.508512e+01	-7.162656e+01
1.010000e-06	-3.570504e-06	-1.052087e-09	-2.483670e+01	-7.125949e+01
1.020000e-06	-3.534652e-06	-1.042925e-09	-2.458732e+01	-7.088787e+01
1.030000e-06	-3.498682e-06	-1.034700e-09	-2.433710e+01	-7.051154e+01
1.040000e-06	-3.462471e-06	-1.030440e-09	-2.408521e+01	-7.013037e+01
1.050000e-06	-3.425945e-06	-1.020437e-09	-2.383114e+01	-6.974423e+01
1.060000e-06	-3.389173e-06	-1.011705e-09	-2.357535e+01	-6.935299e+01
1.070000e-06	-3.352103e-06	-1.009519e-09	-2.331749e+01	-6.895653e+01
1.080000e-06	-3.314728e-06	-1.002999e-09	-2.305751e+01	-6.855474e+01
1.090000e-06	-3.277157e-06	-9.921237e-10	-2.279616e+01	-6.814752e+01
1.100000e-06	-3.239409e-06	-9.863087e-10	-2.253358e+01	-6.773478e+01
1.110000e-06	-3.201432e-06	-9.794243e-10	-2.226941e+01	-6.731643e+01
1.120000e-06	-3.163200e-06	-9.677032e-10	-2.200347e+01	-6.689241e+01
1.130000e-06	-3.124756e-06	-9.613190e-10	-2.173605e+01	-6.646264e+01
1.140000e-06	-3.086129e-06	-9.575227e-10	-2.146735e+01	-6.602709e+01
1.150000e-06	-3.047301e-06	-9.479505e-10	-2.119726e+01	-6.558570e+01
1.160000e-06	-3.008354e-06	-9.383763e-10	-2.092634e+01	-6.513845e+01
1.170000e-06	-2.969179e-06	-9.354837e-10	-2.065384e+01	-6.468532e+01
1.180000e-06	-2.929750e-06	-9.321545e-10	-2.037957e+01	-6.422628e+01
1.190000e-06	-2.890124e-06	-9.255846e-10	-2.010393e+01	-6.376134e+01
1.200000e-06	-2.850373e-06	-9.183087e-10	-1.982742e+01	-6.329050e+01
1.210000e-06	-2.810564e-06	-9.108925e-10	-1.955050e+01	-6.281377e+01
1.220000e-06	-2.770588e-06	-8.997555e-10	-1.927243e+01	-6.233115e+01
1.230000e-06	-2.730445e-06	-8.921897e-10	-1.899319e+01	-6.184268e+01
1.240000e-06	-2.690152e-06	-8.865082e-10	-1.871291e+01	-6.134836e+01
1.250000e-06	-2.649561e-06	-8.791569e-10	-1.843055e+01	-6.084823e+01
1.260000e-06	-2.608602e-06	-8.716722e-10	-1.814564e+01	-6.034229e+01
1.270000e-06	-2.567406e-06	-8.639259e-10	-1.785907e+01	-5.983057e+01
1.280000e-06	-2.525982e-06	-8.568066e-10	-1.757092e+01	-5.931309e+01
1.290000e-06	-2.484252e-06	-8.484196e-10	-1.728065e+01	-5.878984e+01
1.300000e-06	-2.442258e-06	-8.382253e-10	-1.698854e+01	-5.826083e+01
1.310000e-06	-2.400051e-06	-8.273063e-10	-1.669494e+01	-5.772604e+01
1.320000e-06	-2.357543e-06	-8.172286e-10	-1.639925e+01	-5.718546e+01
1.330000e-06	-2.314773e-06	-8.095789e-10	-1.610174e+01	-5.663904e+01
1.340000e-06	-2.271748e-06	-8.029839e-10	-1.580246e+01	-5.608674e+01
1.350000e-06	-2.228566e-06	-7.947816e-10	-1.550208e+01	-5.552848e+01
1.360000e-06	-2.185263e-06	-7.824883e-10	-1.520086e+01	-5.496416e+01
1.370000e-06	-2.141760e-06	-7.735549e-10	-1.489825e+01	-5.439369e+01
1.380000e-06	-2.098141e-06	-7.683909e-10	-1.459483e+01	-5.381692e+01
1.390000e-06	-2.054467e-06	-7.607067e-10	-1.429103e+01	-5.323370e+01
1.400000e-06	-2.010722e-06	-7.523314e-10	-1.398674e+01	-5.264383e+01
1.410000e-06	-1.966923e-06	-7.438444e-10	-1.368207e+01	-5.204711e+01
1.420000e-06	-1.923064e-06	-7.334348e-10	-1.337698e+01	-5.144329e+01
1.430000e-06	-1.879032e-06	-7.221749e-10	-1.307069e+01	-5.083212e+01
1.440000e-06	-1.834902e-06	-7.120262e-10	-1.276372e+01	-5.021328e+01
1.450000e-06	-1.790748e-06	-7.025173e-10	-1.245658e+01	-4.958645e+01
1.460000e-06	-1.746560e-06	-6.911764e-10	-1.214921e+01	-4.895127e+01
1.470000e-06	-1.702218e-06	-6.771377e-10	-1.184076e+01	-4.830737e+01
1.480000e-06	-1.657678e-06	-6.653568e-10	-1.153093e+01	-4.765431e+01
1.490000e-06	-1.612980e-06	-6.538056e-10	-1.122001e+01	-4.699166e+01
1.500000e-06	-1.568114e-06	-6.419098e-10	-1.090792e+01	-4.631896e+01
1.510000e-06	-1.523062e-06	-6.324328e-10	-1.059454e+01	-4.563569e+01
1.520000e-06	-1.477838e-06	-6.238581e-10	-1.027996e+01	-4.494136e+01
1.530000e-06	-1.432530e-06	-6.132064e-10	-9.964791e+00	-4.423540e+01
1.540000e-06	-1.387223e-06	-5.978503e-10	-9.649632e+00	-4.351727e+01
1.550000e-06	-1.341848e-06	-5.833597e-10	-9.334001e+00	-4.278638e+01
1.560000e-06	-1.296392e-06	-5.698785e-10	-9.017804e+00	-4.204214e+01
1.570000e-06	-1.250837e-06	-5.576913e-10	-8.700921e+00	-4.128395e+01
1.580000e-06	-1.205184e-06	-5.486836e-10	-8.383350e+00	-4.051119e+01
1.590000e-06	-1.159481e-06	-5.413600e-10	-8.065437e+00	-3.972326e+01
1.600000e-06	-1.113685e-06	-5.289922e-10	-7.746882e+00	-3.891953e+01
1.610000e-06	-1.067705e-06	-5.130304e-10	-7.427036e+00	-3.809938e+01
1.620000e-06	-1.021640e-06	-4.995931e-10	-7.106611e+00	-3.726222e+01
1.630000e-06	-9.755567e-07	-4.894859e-10	-6.786048e+00	-3.640744e+01
1.640000e-06	-9.293840e-07	-4.799004e-10	-6.464867e+00	-3.553446e+01
1.650000e-06	-8.832108e-07	-4.666421e-10	-6.143683e+00	-3.464273e+01
1.660000e-06	-8.370474e-07	-4.525223e-10	-5.822567e+00	-3.373170e+01
1.670000e-06	-7.908804e-07	-4.353495e-10	-5.501425e+00	-3.280087e+01
1.680000e-06	-7.446433e-07	-4.174063e-10	-5.179797e+00	-3.184976e+01
1.690000e-06	-6.982621e-07	-4.043231e-10	-4.857166e+00	-3.087793e+01
1.700000e-06	-6.517879e-07	-3.915466e-10	-4.533887e+00	-2.988499e+01
1.710000e-06	-6.052292e-07	-3.779418e-10	-4.210021e+00	-2.887059e+01
1.720000e-06	-5.586032e-07	-3.620426e-10	-3.885688e+00	-2.783443e+01
1.730000e-06	-5.119720e-07	-3.417847e-10	-3.561317e+00	-2.677625e+01
1.740000e-06	-4.652475e-07	-3.210744e-10	-3.236298e+00	-2.569587e+01
1.750000e-06	-4.184530e-07	-3.037918e-10	-2.910792e+00	-2.459315e+01
1.760000e-06	-3.716810e-07	-2.895275e-10	-2.585442e+00	-2.346803e+01
1.770000e-06	-3.249332e-07	-2.746294e-10	-2.260261e+00	-2.232050e+01
1.780000e-06	-2.781869e-07	-2.611166e-10	-1.935090e+00	-2.115064e+01
1.790000e-06	-2.314275e-07	-2.459352e-10	-1.609827e+00	-1.995857e+01
1.800000e-06	-1.846821e-07	-2.263245e-10	-1.284663e+00	-1.874451e+01
1.810000e-06	-1.379266e-07	-2.054190e-10	-9.594279e-01	-1.750875e+01
1.820000e-06	-9.116835e-08	-1.874295e-10	-6.341741e-01	-1.625163e+01
1.830000e-06	-4.440816e-08	-1.732482e-10	-3.089066e-01	-1.497359e+01
1.840000e-06	2.372477e-09	-1.584372e-10	1.650313e-02	-1.367514e+01
1.850000e-06	4.911837e-08	-1.411045e-10	3.416712e-01	-1.235685e+01
1.860000e-06	9.586688e-08	-1.244571e-10	6.668575e-01	-1.101938e+01
1.870000e-06	1.426138e-07	-1.056179e-10	9.920324e-01	-9.663467e+00
1.880000e-06	1.892992e-07	-8.388225e-11	1.316780e+00	-8.289895e+00
1.890000e-06	2.360157e-07	-6.232308e-11	1.641743e+00	-6.899533e+00
1.900000e-06	2.827552e-07	-4.159689e-11	1.966867e+00	-5.493315e+00
1.910000e-06	3.294487e-07	-2.184771e-11	2.291671e+00	-4.072232e+00
1.920000e-06	3.760996e-07	-4.175385e-12	2.616178e+00	-2.637341e+00
1.930000e-06	4.226786e-07	1.183770e-11	2.940185e+00	-1.189750e+00
1.940000e-06	4.692122e-07	2.871968e-11	3.263876e+00	2.693802e-01
1.950000e-06	5.157212e-07	4.853186e-11	3.587397e+00	1.738840e+00
1.960000e-06	5.622147e-07	6.985950e-11	3.910809e+00	3.217379e+00
1.970000e-06	6.086198e-07	9.053527e-11	4.233607e+00	4.703707e+00
1.980000e-06	6.550078e-07	1.106576e-10	4.556285e+00	6.196505e+00
1.990000e-06	7.013974e-07	1.295097e-10	4.878975e+00	7.694424e+00
2.000000e-06	7.476907e-07	1.461350e-10	5.200995e+00	9.196094e+00
2.010000e-06	7.939488e-07	1.656717e-10	5.522770e+00	1.070013e+01
2.020000e-06	8.401816e-07	1.896163e-10	5.844368e+00	1.220514e+01
2.030000e-06	8.863229e-07	2.152289e-10	6.165331e+00	1.370971e+01
2.040000e-06	9.323601e-07	2.389424e-10	6.485570e+00	1.521247e+01
2.050000e-06	9.783130e-07	2.596824e-10	6.805222e+00	1.671200e+01
2.060000e-06	1.024209e-06	2.767037e-10	7.124479e+00	1.820694e+01
2.070000e-06	1.070050e-06	2.945033e-10	7.443352e+00	1.969593e+01
2.080000e-06	1.115785e-06	3.150261e-10	7.761486e+00	2.117764e+01
2.090000e-06	1.161442e-06	3.373563e-10	8.079078e+00	2.265075e+01
2.100000e-06	1.206999e-06	3.615895e-10	8.395976e+00	2.411401e+01
2.110000e-06	1.252548e-06	3.827919e-10	8.712824e+00	2.556618e+01
2.120000e-06	1.298081e-06	4.024777e-10	9.029552e+00	2.700608e+01
2.130000e-06	1.343482e-06	4.213550e-10	9.345368e+00	2.843257e+01
2.140000e-06	1.388811e-06	4.411157e-10	9.660674e+00	2.984456e+01
2.150000e-06	1.434079e-06	4.585451e-10	9.975563e+00	3.124104e+01
2.160000e-06	1.479334e-06	4.769979e-10	1.029036e+01	3.262103e+01
2.170000e-06	1.524422e-06	4.970323e-10	1.060400e+01	3.398362e+01
2.180000e-06	1.569279e-06	5.197386e-10	1.091603e+01	3.532798e+01
2.190000e-06	1.614079e-06	5.412001e-10	1.122766e+01	3.665333e+01
2.200000e-06	1.658729e-06	5.612550e-10	1.153825e+01	3.795896e+01
2.210000e-06	1.703131e-06	5.795357e-10	1.184711e+01	3.924424e+01
2.220000e-06	1.747336e-06	5.958169e-10	1.215461e+01	4.050860e+01
2.230000e-06	1.791449e-06	6.128372e-10	1.246146e+01	4.175155e+01
2.240000e-06	1.835502e-06	6.266501e-10	1.276790e+01	4.297265e+01
2.250000e-06	1.879499e-06	6.398803e-10	1.307394e+01	4.417156e+01
2.260000e-06	1.923457e-06	6.554120e-10	1.337972e+01	4.534799e+01
2.270000e-06	1.967283e-06	6.775109e-10	1.368457e+01	4.650172e+01
2.280000e-06	2.010980e-06	6.993575e-10	1.398854e+01	4.763261e+01
2.290000e-06	2.054659e-06	7.187053e-10	1.429237e+01	4.874055e+01
2.300000e-06	2.098327e-06	7.334134e-10	1.459612e+01	4.982553e+01
2.310000e-06	2.141905e-06	7.443216e-10	1.489926e+01	5.088757e+01
2.320000e-06	2.185381e-06	7.557074e-10	1.520168e+01	5.192678e+01
2.330000e-06	2.228754e-06	7.678962e-10	1.550339e+01	5.294329e+01
2.340000e-06	2.271981e-06	7.828652e-10	1.580407e+01	5.393729e+01
2.350000e-06	2.315053e-06	8.021839e-10	1.610369e+01	5.490903e+01
2.360000e-06	2.357996e-06	8.234686e-10	1.640241e+01	5.585878e+01
2.370000e-06	2.400639e-06	8.392772e-10	1.669903e+01	5.678687e+01
2.380000e-06	2.442919e-06	8.487914e-10	1.699314e+01	5.769366e+01
2.390000e-06	2.484926e-06	8.558996e-10	1.728534e+01	5.857952e+01
2.400000e-06	2.526619e-06	8.615987e-10	1.757536e+01	5.944488e+01
2.410000e-06	2.567965e-06	8.691751e-10	1.786296e+01	6.029017e+01
2.420000e-06	2.609029e-06	8.814270e-10	1.814861e+01	6.111586e+01
2.430000e-06	2.649764e-06	8.980238e-10	1.843196e+01	6.192240e+01
2.440000e-06	2.690147e-06	9.130482e-10	1.871288e+01	6.271029e+01
2.450000e-06	2.730289e-06	9.236968e-10	1.899210e+01	6.348001e+01
2.460000e-06	2.770285e-06	9.350395e-10	1.927032e+01	6.423207e+01
2.470000e-06	2.810176e-06	9.454954e-10	1.954780e+01	6.496695e+01
2.480000e-06	2.849932e-06	9.538562e-10	1.982435e+01	6.568517e+01
2.490000e-06	2.889584e-06	9.632061e-10	2.010017e+01	6.638719e+01
2.500000e-06	2.929140e-06	9.730998e-10	2.037533e+01	6.707352e+01
2.510000e-06	2.968528e-06	9.831228e-10	2.064931e+01	6.774462e+01
2.520000e-06	3.007769e-06	9.941164e-10	2.092228e+01	6.840096e+01
2.530000e-06	3.046908e-06	1.004349e-09	2.119453e+01	6.904297e+01
2.540000e-06	3.085775e-06	1.012683e-09	2.146489e+01	6.967110e+01
2.550000e-06	3.124275e-06	1.019706e-09	2.173270e+01	7.028575e+01
2.560000e-06	3.162519e-06	1.027078e-09	2.199873e+01	7.088733e+01
2.570000e-06	3.200563e-06	1.033529e-09	2.226337e+01	7.147620e+01
2.580000e-06	3.238460e-06	1.039001e-09	2.252698e+01	7.205272e+01
2.590000e-06	3.276218e-06	1.045246e-09	2.278963e+01	7.261723e+01
2.600000e-06	3.313785e-06	1.052677e-09	2.305095e+01	7.317004e+01
2.610000e-06	3.351119e-06	1.058969e-09	2.331065e+01	7.371145e+01
2.620000e-06	3.388214e-06	1.065380e-09	2.356868e+01	7.424174e+01
2.630000e-06	3.425017e-06	1.072631e-09	2.382468e+01	7.476115e+01
2.640000e-06	3.461518e-06	1.079525e-09	2.407859e+01	7.526992e+01
2.650000e-06	3.497789e-06	1.087346e-09	2.433089e+01	7.576827e+01
2.660000e-06	3.533856e-06	1.095111e-09	2.458178e+01	7.625640e+01
2.670000e-06	3.569712e-06	1.100601e-09	2.483119e+01	7.673449e+01
2.680000e-06	3.605388e-06	1.106557e-09	2.507936e+01	7.720271e+01
2.690000e-06	3.641019e-06	1.114419e-09	2.532721e+01	7.766122e+01
2.700000e-06	3.676579e-06	1.120818e-09	2.557457e+01	7.811016e+01
2.710000e-06	3.711906e-06	1.126110e-09	2.582031e+01	7.854966e+01
2.720000e-06	3.746977e-06	1.133260e-09	2.606426e+01	7.897985e+01
2.730000e-06	3.781708e-06	1.140311e-09	2.630586e+01	7.940084e+01
2.740000e-06	3.815982e-06	1.145135e-09	2.654427e+01	7.981273e+01
2.750000e-06	3.849796e-06	1.149102e-09	2.677948e+01	8.021564e+01
2.760000e-06	3.883013e-06	1.153744e-09	2.701054e+01	8.060966e+01
2.770000e-06	3.915642e-06	1.158914e-09	2.723751e+01	8.099489e+01
2.780000e-06	3.947900e-06	1.164970e-09	2.746190e+01	8.137143e+01
2.790000e-06	3.979920e-06	1.173316e-09	2.768463e+01	8.173937e+01
2.800000e-06	4.011757e-06	1.181692e-09	2.790609e+01	8.209882e+01
2.810000e-06	4.043437e-06	1.188029e-09	2.812646e+01	8.244986e+01
2.820000e-06	4.074987e-06	1.192934e-09	2.834592e+01	8.279261e+01
2.830000e-06	4.106426e-06	1.198435e-09	2.856462e+01	8.312717e+01
2.840000e-06	4.137702e-06	1.203952e-09	2.878218e+01	8.345365e+01
2.850000e-06	4.168554e-06	1.210925e-09	2.899678e+01	8.377217e+01
2.860000e-06	4.198933e-06	1.216402e-09	2.920810e+01	8.408285e+01
2.870000e-06	4.229033e-06	1.218904e-09	2.941748e+01	8.438581e+01
2.880000e-06	4.258861e-06	1.222229e-09	2.962497e+01	8.468118e+01
2.890000e-06	4.288440e-06	1.227891e-09	2.983072e+01	8.496909e+01
2.900000e-06	4.317789e-06	1.233863e-09	3.003488e+01	8.524970e+01
