# Temperatura_=_-1.1
# Concentracion g/m^3_=_1620.0
# C_Vs_to_Am_M_A/Vsm_=_65563218390.804596
# pendiente_HvsI_1/m_=_3716.3
# ordenada_HvsI_A/m_=_1297.0
# frecuencia_Hz_=_135102.2890553006

Tiempo_(s)	Campo_(V.s)	Magnetizacion_(V.s)	Campo_(kA/m)	Magnetizacion_(A/m)
0.000000e+00	-5.507996e-06	-1.154797e-09	-3.837289e+01	-7.537275e+01
1.000000e-08	-5.508257e-06	-1.147154e-09	-3.837471e+01	-7.534925e+01
2.000000e-08	-5.508318e-06	-1.142323e-09	-3.837513e+01	-7.532648e+01
3.000000e-08	-5.508066e-06	-1.142380e-09	-3.837338e+01	-7.530428e+01
4.000000e-08	-5.507436e-06	-1.143018e-09	-3.836899e+01	-7.528248e+01
5.000000e-08	-5.506248e-06	-1.136519e-09	-3.836071e+01	-7.526088e+01
6.000000e-08	-5.504452e-06	-1.121492e-09	-3.834820e+01	-7.523926e+01
7.000000e-08	-5.502034e-06	-1.118040e-09	-3.833135e+01	-7.521740e+01
8.000000e-08	-5.498977e-06	-1.167269e-09	-3.831006e+01	-7.519505e+01
9.000000e-08	-5.495416e-06	-1.240130e-09	-3.828525e+01	-7.517195e+01
1.000000e-07	-5.491441e-06	-1.241285e-09	-3.825756e+01	-7.514785e+01
1.100000e-07	-5.487251e-06	-1.149504e-09	-3.822836e+01	-7.512246e+01
1.200000e-07	-5.482983e-06	-1.079158e-09	-3.819863e+01	-7.509551e+01
1.300000e-07	-5.478433e-06	-1.110145e-09	-3.816693e+01	-7.506672e+01
1.400000e-07	-5.473368e-06	-1.197911e-09	-3.813165e+01	-7.503582e+01
1.500000e-07	-5.467805e-06	-1.135249e-09	-3.809289e+01	-7.500253e+01
1.600000e-07	-5.461975e-06	-1.076667e-09	-3.805227e+01	-7.496657e+01
1.700000e-07	-5.455758e-06	-1.106815e-09	-3.800896e+01	-7.492768e+01
1.800000e-07	-5.449091e-06	-1.231816e-09	-3.796251e+01	-7.488561e+01
1.900000e-07	-5.442064e-06	-1.216842e-09	-3.791356e+01	-7.484010e+01
2.000000e-07	-5.434756e-06	-1.108473e-09	-3.786264e+01	-7.479093e+01
2.100000e-07	-5.427228e-06	-1.111927e-09	-3.781020e+01	-7.473788e+01
2.200000e-07	-5.419408e-06	-1.199258e-09	-3.775572e+01	-7.468075e+01
2.300000e-07	-5.411323e-06	-1.230332e-09	-3.769939e+01	-7.461935e+01
2.400000e-07	-5.402842e-06	-1.151086e-09	-3.764031e+01	-7.455352e+01
2.500000e-07	-5.393745e-06	-1.150835e-09	-3.757693e+01	-7.448311e+01
2.600000e-07	-5.383983e-06	-1.186015e-09	-3.750892e+01	-7.440800e+01
2.700000e-07	-5.373647e-06	-1.186234e-09	-3.743692e+01	-7.432808e+01
2.800000e-07	-5.362756e-06	-1.117413e-09	-3.736104e+01	-7.424328e+01
2.900000e-07	-5.351381e-06	-1.137604e-09	-3.728179e+01	-7.415352e+01
3.000000e-07	-5.339637e-06	-1.161685e-09	-3.719997e+01	-7.405878e+01
3.100000e-07	-5.327553e-06	-1.147841e-09	-3.711579e+01	-7.395903e+01
3.200000e-07	-5.315035e-06	-1.096467e-09	-3.702858e+01	-7.385427e+01
3.300000e-07	-5.302040e-06	-1.127464e-09	-3.693804e+01	-7.374453e+01
3.400000e-07	-5.288719e-06	-1.144039e-09	-3.684524e+01	-7.362985e+01
3.500000e-07	-5.275121e-06	-1.125063e-09	-3.675051e+01	-7.351029e+01
3.600000e-07	-5.261028e-06	-1.104079e-09	-3.665232e+01	-7.338593e+01
3.700000e-07	-5.246306e-06	-1.121448e-09	-3.654976e+01	-7.325685e+01
3.800000e-07	-5.231005e-06	-1.117513e-09	-3.644316e+01	-7.312317e+01
3.900000e-07	-5.215259e-06	-1.111714e-09	-3.633346e+01	-7.298500e+01
4.000000e-07	-5.199069e-06	-1.125298e-09	-3.622067e+01	-7.284248e+01
4.100000e-07	-5.182502e-06	-1.126446e-09	-3.610525e+01	-7.269574e+01
4.200000e-07	-5.165619e-06	-1.101965e-09	-3.598763e+01	-7.254494e+01
4.300000e-07	-5.148368e-06	-1.092832e-09	-3.586745e+01	-7.239022e+01
4.400000e-07	-5.130868e-06	-1.115497e-09	-3.574553e+01	-7.223174e+01
4.500000e-07	-5.113114e-06	-1.116570e-09	-3.562184e+01	-7.206966e+01
4.600000e-07	-5.094885e-06	-1.103447e-09	-3.549484e+01	-7.190415e+01
4.700000e-07	-5.076081e-06	-1.091423e-09	-3.536384e+01	-7.173535e+01
4.800000e-07	-5.056858e-06	-1.106397e-09	-3.522992e+01	-7.156343e+01
4.900000e-07	-5.037360e-06	-1.108425e-09	-3.509408e+01	-7.138854e+01
5.000000e-07	-5.017685e-06	-1.107479e-09	-3.495701e+01	-7.121082e+01
5.100000e-07	-4.997835e-06	-1.092964e-09	-3.481872e+01	-7.103042e+01
5.200000e-07	-4.977798e-06	-1.092729e-09	-3.467913e+01	-7.084746e+01
5.300000e-07	-4.957461e-06	-1.086555e-09	-3.453744e+01	-7.066206e+01
5.400000e-07	-4.936704e-06	-1.098002e-09	-3.439284e+01	-7.047434e+01
5.500000e-07	-4.915593e-06	-1.095776e-09	-3.424576e+01	-7.028439e+01
5.600000e-07	-4.894199e-06	-1.081374e-09	-3.409671e+01	-7.009230e+01
5.700000e-07	-4.872461e-06	-1.058729e-09	-3.394527e+01	-6.989816e+01
5.800000e-07	-4.850307e-06	-1.076637e-09	-3.379093e+01	-6.970202e+01
5.900000e-07	-4.827777e-06	-1.087206e-09	-3.363397e+01	-6.950393e+01
6.000000e-07	-4.804910e-06	-1.074820e-09	-3.347466e+01	-6.930393e+01
6.100000e-07	-4.781698e-06	-1.064621e-09	-3.331295e+01	-6.910205e+01
6.200000e-07	-4.758200e-06	-1.075505e-09	-3.314924e+01	-6.889831e+01
6.300000e-07	-4.734516e-06	-1.056410e-09	-3.298424e+01	-6.869270e+01
6.400000e-07	-4.710701e-06	-1.038865e-09	-3.281832e+01	-6.848521e+01
6.500000e-07	-4.686627e-06	-1.046490e-09	-3.265061e+01	-6.827583e+01
6.600000e-07	-4.662139e-06	-1.051482e-09	-3.248001e+01	-6.806454e+01
6.700000e-07	-4.637120e-06	-1.041021e-09	-3.230570e+01	-6.785128e+01
6.800000e-07	-4.611514e-06	-1.047638e-09	-3.212732e+01	-6.763601e+01
6.900000e-07	-4.585395e-06	-1.052863e-09	-3.194535e+01	-6.741869e+01
7.000000e-07	-4.558845e-06	-1.037841e-09	-3.176038e+01	-6.719926e+01
7.100000e-07	-4.531841e-06	-1.028882e-09	-3.157225e+01	-6.697764e+01
7.200000e-07	-4.504450e-06	-1.027045e-09	-3.138143e+01	-6.675378e+01
7.300000e-07	-4.476844e-06	-1.017550e-09	-3.118910e+01	-6.652760e+01
7.400000e-07	-4.449068e-06	-1.008651e-09	-3.099559e+01	-6.629904e+01
7.500000e-07	-4.421168e-06	-1.015198e-09	-3.080122e+01	-6.606802e+01
7.600000e-07	-4.393063e-06	-1.014005e-09	-3.060542e+01	-6.583447e+01
7.700000e-07	-4.364671e-06	-1.006428e-09	-3.040762e+01	-6.559832e+01
7.800000e-07	-4.335951e-06	-9.993702e-10	-3.020753e+01	-6.535951e+01
7.900000e-07	-4.306777e-06	-1.000734e-09	-3.000428e+01	-6.511796e+01
8.000000e-07	-4.277251e-06	-9.938437e-10	-2.979859e+01	-6.487363e+01
8.100000e-07	-4.247479e-06	-9.868043e-10	-2.959117e+01	-6.462644e+01
8.200000e-07	-4.217455e-06	-9.780432e-10	-2.938200e+01	-6.437636e+01
8.300000e-07	-4.187225e-06	-9.769085e-10	-2.917139e+01	-6.412333e+01
8.400000e-07	-4.156631e-06	-9.712107e-10	-2.895825e+01	-6.386732e+01
8.500000e-07	-4.125641e-06	-9.675516e-10	-2.874236e+01	-6.360829e+01
8.600000e-07	-4.094414e-06	-9.603149e-10	-2.852480e+01	-6.334621e+01
8.700000e-07	-4.063001e-06	-9.581185e-10	-2.830595e+01	-6.308106e+01
8.800000e-07	-4.031415e-06	-9.527933e-10	-2.808590e+01	-6.281283e+01
8.900000e-07	-3.999687e-06	-9.508255e-10	-2.786486e+01	-6.254149e+01
9.000000e-07	-3.967740e-06	-9.453343e-10	-2.764230e+01	-6.226706e+01
9.100000e-07	-3.935529e-06	-9.390864e-10	-2.741789e+01	-6.198952e+01
9.200000e-07	-3.903084e-06	-9.302214e-10	-2.719185e+01	-6.170887e+01
9.300000e-07	-3.870281e-06	-9.259181e-10	-2.696332e+01	-6.142514e+01
9.400000e-07	-3.837021e-06	-9.213609e-10	-2.673161e+01	-6.113832e+01
9.500000e-07	-3.803293e-06	-9.136723e-10	-2.649663e+01	-6.084843e+01
9.600000e-07	-3.769136e-06	-9.051543e-10	-2.625867e+01	-6.055549e+01
9.700000e-07	-3.734600e-06	-8.987332e-10	-2.601806e+01	-6.025950e+01
9.800000e-07	-3.699667e-06	-8.942380e-10	-2.577470e+01	-5.996049e+01
9.900000e-07	-3.664364e-06	-8.932494e-10	-2.552875e+01	-5.965848e+01
1.000000e-06	-3.628840e-06	-8.937762e-10	-2.528126e+01	-5.935347e+01
1.010000e-06	-3.593190e-06	-8.892812e-10	-2.503290e+01	-5.904547e+01
1.020000e-06	-3.557409e-06	-8.833138e-10	-2.478362e+01	-5.873451e+01
1.030000e-06	-3.521494e-06	-8.777146e-10	-2.453340e+01	-5.842057e+01
1.040000e-06	-3.485410e-06	-8.719460e-10	-2.428202e+01	-5.810367e+01
1.050000e-06	-3.449085e-06	-8.630412e-10	-2.402895e+01	-5.778379e+01
1.060000e-06	-3.412559e-06	-8.565107e-10	-2.377448e+01	-5.746093e+01
1.070000e-06	-3.375800e-06	-8.506773e-10	-2.351839e+01	-5.713508e+01
1.080000e-06	-3.338698e-06	-8.474778e-10	-2.325991e+01	-5.680620e+01
1.090000e-06	-3.301335e-06	-8.453789e-10	-2.299961e+01	-5.647428e+01
1.100000e-06	-3.263751e-06	-8.463825e-10	-2.273777e+01	-5.613926e+01
1.110000e-06	-3.225958e-06	-8.407214e-10	-2.247448e+01	-5.580111e+01
1.120000e-06	-3.187953e-06	-8.334030e-10	-2.220971e+01	-5.545978e+01
1.130000e-06	-3.149710e-06	-8.239974e-10	-2.194328e+01	-5.511520e+01
1.140000e-06	-3.111260e-06	-8.147426e-10	-2.167541e+01	-5.476731e+01
1.150000e-06	-3.072556e-06	-8.033361e-10	-2.140576e+01	-5.441602e+01
1.160000e-06	-3.033592e-06	-7.954451e-10	-2.113431e+01	-5.406125e+01
1.170000e-06	-2.994411e-06	-7.915056e-10	-2.086134e+01	-5.370291e+01
1.180000e-06	-2.955031e-06	-7.908287e-10	-2.058699e+01	-5.334090e+01
1.190000e-06	-2.915499e-06	-7.893439e-10	-2.031158e+01	-5.297510e+01
1.200000e-06	-2.875878e-06	-7.852748e-10	-2.003556e+01	-5.260541e+01
1.210000e-06	-2.836169e-06	-7.770003e-10	-1.975891e+01	-5.223169e+01
1.220000e-06	-2.796370e-06	-7.699682e-10	-1.948164e+01	-5.185383e+01
1.230000e-06	-2.756458e-06	-7.638461e-10	-1.920359e+01	-5.147168e+01
1.240000e-06	-2.716375e-06	-7.569085e-10	-1.892433e+01	-5.108509e+01
1.250000e-06	-2.675998e-06	-7.493050e-10	-1.864304e+01	-5.069393e+01
1.260000e-06	-2.635356e-06	-7.431155e-10	-1.835989e+01	-5.029804e+01
1.270000e-06	-2.594586e-06	-7.370871e-10	-1.807586e+01	-4.989725e+01
1.280000e-06	-2.553549e-06	-7.300091e-10	-1.778996e+01	-4.949140e+01
1.290000e-06	-2.512162e-06	-7.245096e-10	-1.750163e+01	-4.908032e+01
1.300000e-06	-2.470532e-06	-7.185179e-10	-1.721160e+01	-4.866385e+01
1.310000e-06	-2.428751e-06	-7.105313e-10	-1.692053e+01	-4.824178e+01
1.320000e-06	-2.386646e-06	-7.015004e-10	-1.662719e+01	-4.781396e+01
1.330000e-06	-2.344201e-06	-6.930938e-10	-1.633148e+01	-4.738017e+01
1.340000e-06	-2.301532e-06	-6.846612e-10	-1.603422e+01	-4.694024e+01
1.350000e-06	-2.258503e-06	-6.765553e-10	-1.573445e+01	-4.649395e+01
1.360000e-06	-2.215209e-06	-6.679506e-10	-1.543283e+01	-4.604112e+01
1.370000e-06	-2.171834e-06	-6.605531e-10	-1.513065e+01	-4.558152e+01
1.380000e-06	-2.128326e-06	-6.562894e-10	-1.482754e+01	-4.511495e+01
1.390000e-06	-2.084691e-06	-6.532416e-10	-1.452354e+01	-4.464119e+01
1.400000e-06	-2.040989e-06	-6.467253e-10	-1.421908e+01	-4.416000e+01
1.410000e-06	-1.997233e-06	-6.384169e-10	-1.391425e+01	-4.367117e+01
1.420000e-06	-1.953417e-06	-6.287069e-10	-1.360899e+01	-4.317444e+01
1.430000e-06	-1.909495e-06	-6.200435e-10	-1.330300e+01	-4.266958e+01
1.440000e-06	-1.865505e-06	-6.115501e-10	-1.299653e+01	-4.215633e+01
1.450000e-06	-1.821387e-06	-6.031889e-10	-1.268917e+01	-4.163444e+01
1.460000e-06	-1.777154e-06	-5.938238e-10	-1.238101e+01	-4.110363e+01
1.470000e-06	-1.732874e-06	-5.858339e-10	-1.207252e+01	-4.056363e+01
1.480000e-06	-1.688414e-06	-5.786361e-10	-1.176278e+01	-4.001416e+01
1.490000e-06	-1.643823e-06	-5.717644e-10	-1.145212e+01	-3.945492e+01
1.500000e-06	-1.599177e-06	-5.646250e-10	-1.114108e+01	-3.888562e+01
1.510000e-06	-1.554336e-06	-5.563600e-10	-1.082869e+01	-3.830595e+01
1.520000e-06	-1.509330e-06	-5.466209e-10	-1.051514e+01	-3.771560e+01
1.530000e-06	-1.464222e-06	-5.364477e-10	-1.020088e+01	-3.711424e+01
1.540000e-06	-1.419049e-06	-5.219203e-10	-9.886172e+00	-3.650154e+01
1.550000e-06	-1.373838e-06	-5.073671e-10	-9.571200e+00	-3.587717e+01
1.560000e-06	-1.328506e-06	-4.947331e-10	-9.255386e+00	-3.524079e+01
1.570000e-06	-1.283036e-06	-4.833258e-10	-8.938606e+00	-3.459206e+01
1.580000e-06	-1.237426e-06	-4.751441e-10	-8.620848e+00	-3.393062e+01
1.590000e-06	-1.191787e-06	-4.679721e-10	-8.302892e+00	-3.325613e+01
1.600000e-06	-1.146139e-06	-4.588973e-10	-7.984879e+00	-3.256823e+01
1.610000e-06	-1.100379e-06	-4.481780e-10	-7.666074e+00	-3.186658e+01
1.620000e-06	-1.054470e-06	-4.358333e-10	-7.346243e+00	-3.115082e+01
1.630000e-06	-1.008420e-06	-4.226077e-10	-7.025419e+00	-3.042063e+01
1.640000e-06	-9.623025e-07	-4.121460e-10	-6.704131e+00	-2.967565e+01
1.650000e-06	-9.161851e-07	-4.019098e-10	-6.382842e+00	-2.891556e+01
1.660000e-06	-8.700094e-07	-3.905253e-10	-6.061147e+00	-2.814005e+01
1.670000e-06	-8.237202e-07	-3.781429e-10	-5.738662e+00	-2.734881e+01
1.680000e-06	-7.774172e-07	-3.659790e-10	-5.416079e+00	-2.654155e+01
1.690000e-06	-7.311422e-07	-3.540798e-10	-5.093693e+00	-2.571802e+01
1.700000e-06	-6.848194e-07	-3.429866e-10	-4.770973e+00	-2.487796e+01
1.710000e-06	-6.384656e-07	-3.314095e-10	-4.448037e+00	-2.402115e+01
1.720000e-06	-5.920734e-07	-3.182071e-10	-4.124834e+00	-2.314738e+01
1.730000e-06	-5.455597e-07	-3.019419e-10	-3.800784e+00	-2.225651e+01
1.740000e-06	-4.989626e-07	-2.843863e-10	-3.476153e+00	-2.134839e+01
1.750000e-06	-4.523344e-07	-2.676403e-10	-3.151306e+00	-2.042292e+01
1.760000e-06	-4.056904e-07	-2.534584e-10	-2.826348e+00	-1.948003e+01
1.770000e-06	-3.590992e-07	-2.412971e-10	-2.501758e+00	-1.851972e+01
1.780000e-06	-3.125449e-07	-2.312014e-10	-2.177426e+00	-1.754199e+01
1.790000e-06	-2.659590e-07	-2.203283e-10	-1.852872e+00	-1.654691e+01
1.800000e-06	-2.191978e-07	-2.073710e-10	-1.527099e+00	-1.553458e+01
1.810000e-06	-1.723139e-07	-1.923143e-10	-1.200470e+00	-1.450517e+01
1.820000e-06	-1.255560e-07	-1.761479e-10	-8.747183e-01	-1.345889e+01
1.830000e-06	-7.886894e-08	-1.622033e-10	-5.494611e-01	-1.239598e+01
1.840000e-06	-3.217767e-08	-1.496921e-10	-2.241741e-01	-1.131677e+01
1.850000e-06	1.450055e-08	-1.361828e-10	1.010219e-01	-1.022161e+01
1.860000e-06	6.116794e-08	-1.221914e-10	4.261424e-01	-9.110924e+00
1.870000e-06	1.078146e-07	-1.072050e-10	7.511186e-01	-7.985175e+00
1.880000e-06	1.545173e-07	-8.968504e-11	1.076485e+00	-6.844888e+00
1.890000e-06	2.012290e-07	-7.177883e-11	1.401914e+00	-5.690640e+00
1.900000e-06	2.478956e-07	-5.418229e-11	1.727029e+00	-4.523057e+00
1.910000e-06	2.945458e-07	-3.700813e-11	2.052030e+00	-3.342818e+00
1.920000e-06	3.412169e-07	-2.109536e-11	2.377176e+00	-2.150651e+00
1.930000e-06	3.877919e-07	-6.053929e-12	2.701653e+00	-9.473316e-01
1.940000e-06	4.343217e-07	1.084389e-11	3.025815e+00	2.663194e-01
1.950000e-06	4.808694e-07	2.971422e-11	3.350102e+00	1.489438e+00
1.960000e-06	5.273320e-07	4.910241e-11	3.673796e+00	2.721120e+00
1.970000e-06	5.737932e-07	6.800724e-11	3.997480e+00	3.960424e+00
1.980000e-06	6.202344e-07	8.510227e-11	4.321025e+00	5.206374e+00
1.990000e-06	6.665669e-07	1.016509e-10	4.643812e+00	6.457965e+00
2.000000e-06	7.127897e-07	1.189406e-10	4.965835e+00	7.714165e+00
2.010000e-06	7.589478e-07	1.353462e-10	5.287408e+00	8.973919e+00
2.020000e-06	8.050726e-07	1.539657e-10	5.608748e+00	1.023615e+01
2.030000e-06	8.511649e-07	1.749435e-10	5.929862e+00	1.149978e+01
2.040000e-06	8.972404e-07	1.955075e-10	6.250859e+00	1.276370e+01
2.050000e-06	9.432566e-07	2.154825e-10	6.571443e+00	1.402682e+01
2.060000e-06	9.891834e-07	2.333677e-10	6.891404e+00	1.528803e+01
2.070000e-06	1.035064e-06	2.487757e-10	7.211043e+00	1.654622e+01
2.080000e-06	1.080876e-06	2.660188e-10	7.530208e+00	1.780032e+01
2.090000e-06	1.126607e-06	2.850361e-10	7.848802e+00	1.904925e+01
2.100000e-06	1.172296e-06	3.058459e-10	8.167106e+00	2.029194e+01
2.110000e-06	1.217924e-06	3.252222e-10	8.484986e+00	2.152735e+01
2.120000e-06	1.263450e-06	3.410810e-10	8.802152e+00	2.275447e+01
2.130000e-06	1.308884e-06	3.541698e-10	9.118680e+00	2.397233e+01
2.140000e-06	1.354257e-06	3.694455e-10	9.434787e+00	2.517996e+01
2.150000e-06	1.399619e-06	3.881659e-10	9.750810e+00	2.637646e+01
2.160000e-06	1.444805e-06	4.080965e-10	1.006561e+01	2.756096e+01
2.170000e-06	1.489785e-06	4.275052e-10	1.037898e+01	2.873263e+01
2.180000e-06	1.534671e-06	4.454592e-10	1.069168e+01	2.989068e+01
2.190000e-06	1.579352e-06	4.621179e-10	1.100297e+01	3.103438e+01
2.200000e-06	1.623920e-06	4.745366e-10	1.131346e+01	3.216305e+01
2.210000e-06	1.668437e-06	4.872578e-10	1.162360e+01	3.327605e+01
2.220000e-06	1.712812e-06	5.031028e-10	1.193275e+01	3.437281e+01
2.230000e-06	1.757116e-06	5.214542e-10	1.224140e+01	3.545280e+01
2.240000e-06	1.801308e-06	5.413518e-10	1.254929e+01	3.651555e+01
2.250000e-06	1.845363e-06	5.583024e-10	1.285621e+01	3.756065e+01
2.260000e-06	1.889322e-06	5.716880e-10	1.316246e+01	3.858774e+01
2.270000e-06	1.933193e-06	5.846496e-10	1.346809e+01	3.959651e+01
2.280000e-06	1.976995e-06	5.994560e-10	1.377325e+01	4.058671e+01
2.290000e-06	2.020722e-06	6.146921e-10	1.407789e+01	4.155814e+01
2.300000e-06	2.064429e-06	6.283723e-10	1.438239e+01	4.251065e+01
2.310000e-06	2.108085e-06	6.424223e-10	1.468653e+01	4.344415e+01
2.320000e-06	2.151675e-06	6.546794e-10	1.499021e+01	4.435858e+01
2.330000e-06	2.195214e-06	6.657869e-10	1.529353e+01	4.525394e+01
2.340000e-06	2.238625e-06	6.762836e-10	1.559597e+01	4.613026e+01
2.350000e-06	2.281809e-06	6.893915e-10	1.589682e+01	4.698762e+01
2.360000e-06	2.324685e-06	7.076425e-10	1.619552e+01	4.782613e+01
2.370000e-06	2.367304e-06	7.255533e-10	1.649244e+01	4.864594e+01
2.380000e-06	2.409671e-06	7.365160e-10	1.678760e+01	4.944723e+01
2.390000e-06	2.451601e-06	7.439114e-10	1.707972e+01	5.023020e+01
2.400000e-06	2.493185e-06	7.509417e-10	1.736942e+01	5.099509e+01
2.410000e-06	2.534464e-06	7.574544e-10	1.765701e+01	5.174214e+01
2.420000e-06	2.575356e-06	7.658817e-10	1.794189e+01	5.247164e+01
2.430000e-06	2.615962e-06	7.795628e-10	1.822478e+01	5.318386e+01
2.440000e-06	2.656407e-06	7.959838e-10	1.850655e+01	5.387911e+01
2.450000e-06	2.696736e-06	8.096793e-10	1.878751e+01	5.455770e+01
2.460000e-06	2.736865e-06	8.190383e-10	1.906709e+01	5.521994e+01
2.470000e-06	2.776853e-06	8.272043e-10	1.934567e+01	5.586616e+01
2.480000e-06	2.816773e-06	8.373762e-10	1.962378e+01	5.649668e+01
2.490000e-06	2.856595e-06	8.486014e-10	1.990122e+01	5.711181e+01
2.500000e-06	2.896213e-06	8.592053e-10	2.017722e+01	5.771188e+01
2.510000e-06	2.935667e-06	8.681683e-10	2.045209e+01	5.829721e+01
2.520000e-06	2.975075e-06	8.761076e-10	2.072663e+01	5.886810e+01
2.530000e-06	3.014313e-06	8.834026e-10	2.100000e+01	5.942486e+01
2.540000e-06	3.053222e-06	8.885700e-10	2.127107e+01	5.996777e+01
2.550000e-06	3.091794e-06	8.968527e-10	2.153979e+01	6.049712e+01
2.560000e-06	3.130166e-06	9.077793e-10	2.180712e+01	6.101319e+01
2.570000e-06	3.168413e-06	9.174446e-10	2.207357e+01	6.151624e+01
2.580000e-06	3.206473e-06	9.238557e-10	2.233873e+01	6.200652e+01
2.590000e-06	3.244287e-06	9.274557e-10	2.260217e+01	6.248428e+01
2.600000e-06	3.281899e-06	9.314333e-10	2.286420e+01	6.294973e+01
2.610000e-06	3.319375e-06	9.354206e-10	2.312529e+01	6.340311e+01
2.620000e-06	3.356564e-06	9.398493e-10	2.338438e+01	6.384462e+01
2.630000e-06	3.393423e-06	9.442973e-10	2.364117e+01	6.427447e+01
2.640000e-06	3.430031e-06	9.498541e-10	2.389620e+01	6.469286e+01
2.650000e-06	3.466402e-06	9.555319e-10	2.414959e+01	6.509996e+01
2.660000e-06	3.502557e-06	9.623354e-10	2.440148e+01	6.549596e+01
2.670000e-06	3.538524e-06	9.673794e-10	2.465205e+01	6.588103e+01
2.680000e-06	3.574358e-06	9.693869e-10	2.490170e+01	6.625535e+01
2.690000e-06	3.610031e-06	9.723353e-10	2.515022e+01	6.661910e+01
2.700000e-06	3.645611e-06	9.779330e-10	2.539810e+01	6.697242e+01
2.710000e-06	3.681034e-06	9.845317e-10	2.564489e+01	6.731550e+01
2.720000e-06	3.716192e-06	9.904017e-10	2.588982e+01	6.764851e+01
2.730000e-06	3.751051e-06	9.958566e-10	2.613268e+01	6.797162e+01
2.740000e-06	3.785516e-06	1.001758e-09	2.637278e+01	6.828499e+01
2.750000e-06	3.819508e-06	1.006181e-09	2.660960e+01	6.858882e+01
2.760000e-06	3.853015e-06	1.011079e-09	2.684303e+01	6.888329e+01
2.770000e-06	3.886008e-06	1.016407e-09	2.707289e+01	6.916858e+01
2.780000e-06	3.918596e-06	1.021842e-09	2.729992e+01	6.944489e+01
2.790000e-06	3.950916e-06	1.026767e-09	2.752508e+01	6.971243e+01
2.800000e-06	3.982928e-06	1.031749e-09	2.774811e+01	6.997141e+01
2.810000e-06	4.014758e-06	1.036160e-09	2.796986e+01	7.022203e+01
2.820000e-06	4.046450e-06	1.038847e-09	2.819065e+01	7.046454e+01
2.830000e-06	4.077916e-06	1.041810e-09	2.840987e+01	7.069914e+01
2.840000e-06	4.109098e-06	1.045681e-09	2.862710e+01	7.092610e+01
2.850000e-06	4.140023e-06	1.051159e-09	2.884255e+01	7.114563e+01
2.860000e-06	4.170676e-06	1.058254e-09	2.905610e+01	7.135800e+01
2.870000e-06	4.201049e-06	1.063775e-09	2.926771e+01	7.156345e+01
2.880000e-06	4.231171e-06	1.066174e-09	2.947756e+01	7.176223e+01
2.890000e-06	4.260979e-06	1.068126e-09	2.968522e+01	7.195461e+01
2.900000e-06	4.290470e-06	1.070735e-09	2.989068e+01	7.214084e+01
