# Temperatura_=_13.99
# Concentracion g/m^3_=_1620.0
# C_Vs_to_Am_M_A/Vsm_=_65563218390.804596
# pendiente_HvsI_1/m_=_3716.3
# ordenada_HvsI_A/m_=_1297.0
# frecuencia_Hz_=_135094.72290974497

Tiempo_(s)	Campo_(V.s)	Magnetizacion_(V.s)	Campo_(kA/m)	Magnetizacion_(A/m)
0.000000e+00	-5.504271e-06	-1.710373e-09	-3.837195e+01	-1.104513e+02
1.000000e-08	-5.504524e-06	-1.706589e-09	-3.837371e+01	-1.104328e+02
2.000000e-08	-5.504583e-06	-1.704090e-09	-3.837413e+01	-1.104086e+02
3.000000e-08	-5.504322e-06	-1.704051e-09	-3.837230e+01	-1.103787e+02
4.000000e-08	-5.503645e-06	-1.704914e-09	-3.836759e+01	-1.103429e+02
5.000000e-08	-5.502373e-06	-1.697958e-09	-3.835872e+01	-1.103011e+02
6.000000e-08	-5.500529e-06	-1.680811e-09	-3.834587e+01	-1.102532e+02
7.000000e-08	-5.498116e-06	-1.667880e-09	-3.832904e+01	-1.101992e+02
8.000000e-08	-5.495147e-06	-1.697034e-09	-3.830835e+01	-1.101389e+02
9.000000e-08	-5.491633e-06	-1.780278e-09	-3.828385e+01	-1.100724e+02
1.000000e-07	-5.487583e-06	-1.862436e-09	-3.825561e+01	-1.099996e+02
1.100000e-07	-5.483190e-06	-1.769869e-09	-3.822499e+01	-1.099205e+02
1.200000e-07	-5.478611e-06	-1.585547e-09	-3.819307e+01	-1.098351e+02
1.300000e-07	-5.473912e-06	-1.570115e-09	-3.816031e+01	-1.097434e+02
1.400000e-07	-5.468883e-06	-1.736213e-09	-3.812525e+01	-1.096455e+02
1.500000e-07	-5.463371e-06	-1.748916e-09	-3.808682e+01	-1.095413e+02
1.600000e-07	-5.457530e-06	-1.620444e-09	-3.804610e+01	-1.094309e+02
1.700000e-07	-5.451406e-06	-1.597546e-09	-3.800341e+01	-1.093145e+02
1.800000e-07	-5.444882e-06	-1.794153e-09	-3.795793e+01	-1.091921e+02
1.900000e-07	-5.437819e-06	-1.792202e-09	-3.790870e+01	-1.090638e+02
2.000000e-07	-5.430449e-06	-1.616698e-09	-3.785732e+01	-1.089298e+02
2.100000e-07	-5.422913e-06	-1.520180e-09	-3.780478e+01	-1.087901e+02
2.200000e-07	-5.415054e-06	-1.653320e-09	-3.774999e+01	-1.086449e+02
2.300000e-07	-5.406888e-06	-1.718524e-09	-3.769306e+01	-1.084944e+02
2.400000e-07	-5.398442e-06	-1.644325e-09	-3.763419e+01	-1.083386e+02
2.500000e-07	-5.389356e-06	-1.593666e-09	-3.757084e+01	-1.081778e+02
2.600000e-07	-5.379408e-06	-1.628389e-09	-3.750150e+01	-1.080120e+02
2.700000e-07	-5.368832e-06	-1.645184e-09	-3.742776e+01	-1.078415e+02
2.800000e-07	-5.357795e-06	-1.593297e-09	-3.735082e+01	-1.076663e+02
2.900000e-07	-5.346369e-06	-1.599967e-09	-3.727117e+01	-1.074866e+02
3.000000e-07	-5.334572e-06	-1.625566e-09	-3.718893e+01	-1.073026e+02
3.100000e-07	-5.322409e-06	-1.643609e-09	-3.710414e+01	-1.071143e+02
3.200000e-07	-5.309777e-06	-1.589825e-09	-3.701607e+01	-1.069218e+02
3.300000e-07	-5.296657e-06	-1.590994e-09	-3.692461e+01	-1.067254e+02
3.400000e-07	-5.283271e-06	-1.590650e-09	-3.683129e+01	-1.065249e+02
3.500000e-07	-5.269562e-06	-1.627097e-09	-3.673572e+01	-1.063206e+02
3.600000e-07	-5.255323e-06	-1.590163e-09	-3.663646e+01	-1.061124e+02
3.700000e-07	-5.240545e-06	-1.589879e-09	-3.653344e+01	-1.059005e+02
3.800000e-07	-5.225422e-06	-1.597304e-09	-3.642801e+01	-1.056847e+02
3.900000e-07	-5.209898e-06	-1.605992e-09	-3.631979e+01	-1.054652e+02
4.000000e-07	-5.193621e-06	-1.554796e-09	-3.620631e+01	-1.052419e+02
4.100000e-07	-5.176827e-06	-1.576782e-09	-3.608924e+01	-1.050148e+02
4.200000e-07	-5.159842e-06	-1.596408e-09	-3.597083e+01	-1.047837e+02
4.300000e-07	-5.142588e-06	-1.550582e-09	-3.585055e+01	-1.045488e+02
4.400000e-07	-5.124980e-06	-1.535996e-09	-3.572780e+01	-1.043098e+02
4.500000e-07	-5.107096e-06	-1.616048e-09	-3.560312e+01	-1.040666e+02
4.600000e-07	-5.088825e-06	-1.591149e-09	-3.547575e+01	-1.038193e+02
4.700000e-07	-5.070000e-06	-1.501964e-09	-3.534451e+01	-1.035676e+02
4.800000e-07	-5.050758e-06	-1.538142e-09	-3.521037e+01	-1.033113e+02
4.900000e-07	-5.031320e-06	-1.589510e-09	-3.507486e+01	-1.030504e+02
5.000000e-07	-5.011736e-06	-1.523817e-09	-3.493834e+01	-1.027848e+02
5.100000e-07	-4.991994e-06	-1.512447e-09	-3.480071e+01	-1.025141e+02
5.200000e-07	-4.971941e-06	-1.570507e-09	-3.466092e+01	-1.022384e+02
5.300000e-07	-4.951515e-06	-1.522664e-09	-3.451852e+01	-1.019574e+02
5.400000e-07	-4.930728e-06	-1.492513e-09	-3.437361e+01	-1.016709e+02
5.500000e-07	-4.909560e-06	-1.557984e-09	-3.422604e+01	-1.013789e+02
5.600000e-07	-4.888061e-06	-1.537326e-09	-3.407616e+01	-1.010811e+02
5.700000e-07	-4.866201e-06	-1.450298e-09	-3.392377e+01	-1.007775e+02
5.800000e-07	-4.844028e-06	-1.505005e-09	-3.376920e+01	-1.004678e+02
5.900000e-07	-4.821578e-06	-1.545321e-09	-3.361269e+01	-1.001520e+02
6.000000e-07	-4.798742e-06	-1.479975e-09	-3.345350e+01	-9.983000e+01
6.100000e-07	-4.775540e-06	-1.471481e-09	-3.329174e+01	-9.950162e+01
6.200000e-07	-4.752121e-06	-1.522721e-09	-3.312848e+01	-9.916684e+01
6.300000e-07	-4.728486e-06	-1.467764e-09	-3.296372e+01	-9.882557e+01
6.400000e-07	-4.704644e-06	-1.437276e-09	-3.279751e+01	-9.847779e+01
6.500000e-07	-4.680550e-06	-1.476187e-09	-3.262954e+01	-9.812347e+01
6.600000e-07	-4.655979e-06	-1.468133e-09	-3.245825e+01	-9.776261e+01
6.700000e-07	-4.630850e-06	-1.428906e-09	-3.228306e+01	-9.739522e+01
6.800000e-07	-4.605158e-06	-1.464408e-09	-3.210396e+01	-9.702133e+01
6.900000e-07	-4.578910e-06	-1.462601e-09	-3.192098e+01	-9.664100e+01
7.000000e-07	-4.552136e-06	-1.423055e-09	-3.173433e+01	-9.625431e+01
7.100000e-07	-4.524921e-06	-1.425493e-09	-3.154460e+01	-9.586134e+01
7.200000e-07	-4.497457e-06	-1.440489e-09	-3.135315e+01	-9.546220e+01
7.300000e-07	-4.469808e-06	-1.407851e-09	-3.116040e+01	-9.505702e+01
7.400000e-07	-4.442038e-06	-1.401912e-09	-3.096680e+01	-9.464592e+01
7.500000e-07	-4.414116e-06	-1.415793e-09	-3.077215e+01	-9.422907e+01
7.600000e-07	-4.385892e-06	-1.401993e-09	-3.057539e+01	-9.380663e+01
7.700000e-07	-4.357314e-06	-1.383317e-09	-3.037616e+01	-9.337875e+01
7.800000e-07	-4.328447e-06	-1.385428e-09	-3.017493e+01	-9.294562e+01
7.900000e-07	-4.299302e-06	-1.376847e-09	-2.997174e+01	-9.250742e+01
8.000000e-07	-4.269876e-06	-1.364477e-09	-2.976661e+01	-9.206432e+01
8.100000e-07	-4.240191e-06	-1.365630e-09	-2.955966e+01	-9.161651e+01
8.200000e-07	-4.210217e-06	-1.353338e-09	-2.935071e+01	-9.116417e+01
8.300000e-07	-4.179928e-06	-1.334009e-09	-2.913955e+01	-9.070746e+01
8.400000e-07	-4.149385e-06	-1.331829e-09	-2.892663e+01	-9.024657e+01
8.500000e-07	-4.118586e-06	-1.331434e-09	-2.871192e+01	-8.978163e+01
8.600000e-07	-4.087459e-06	-1.310997e-09	-2.849492e+01	-8.931279e+01
8.700000e-07	-4.056133e-06	-1.305234e-09	-2.827654e+01	-8.884019e+01
8.800000e-07	-4.024655e-06	-1.303472e-09	-2.805710e+01	-8.836394e+01
8.900000e-07	-3.993001e-06	-1.292456e-09	-2.783643e+01	-8.788414e+01
9.000000e-07	-3.961143e-06	-1.277004e-09	-2.761434e+01	-8.740086e+01
9.100000e-07	-3.929005e-06	-1.275900e-09	-2.739029e+01	-8.691416e+01
9.200000e-07	-3.896535e-06	-1.263551e-09	-2.716394e+01	-8.642409e+01
9.300000e-07	-3.863636e-06	-1.254455e-09	-2.693458e+01	-8.593066e+01
9.400000e-07	-3.830298e-06	-1.255758e-09	-2.670218e+01	-8.543387e+01
9.500000e-07	-3.796508e-06	-1.253086e-09	-2.646661e+01	-8.493368e+01
9.600000e-07	-3.762265e-06	-1.233628e-09	-2.622789e+01	-8.443006e+01
9.700000e-07	-3.727599e-06	-1.225735e-09	-2.598623e+01	-8.392293e+01
9.800000e-07	-3.692567e-06	-1.220574e-09	-2.574201e+01	-8.341220e+01
9.900000e-07	-3.657248e-06	-1.210410e-09	-2.549579e+01	-8.289777e+01
1.000000e-06	-3.621701e-06	-1.200886e-09	-2.524798e+01	-8.237951e+01
1.010000e-06	-3.586059e-06	-1.198988e-09	-2.499951e+01	-8.185727e+01
1.020000e-06	-3.550332e-06	-1.186421e-09	-2.475044e+01	-8.133090e+01
1.030000e-06	-3.514480e-06	-1.174150e-09	-2.450051e+01	-8.080022e+01
1.040000e-06	-3.478455e-06	-1.168607e-09	-2.424937e+01	-8.026505e+01
1.050000e-06	-3.442146e-06	-1.161447e-09	-2.399625e+01	-7.972519e+01
1.060000e-06	-3.405672e-06	-1.149472e-09	-2.374198e+01	-7.918046e+01
1.070000e-06	-3.368961e-06	-1.143817e-09	-2.348606e+01	-7.863065e+01
1.080000e-06	-3.331852e-06	-1.139475e-09	-2.322736e+01	-7.807556e+01
1.090000e-06	-3.294503e-06	-1.127378e-09	-2.296698e+01	-7.751497e+01
1.100000e-06	-3.256936e-06	-1.116229e-09	-2.270509e+01	-7.694870e+01
1.110000e-06	-3.219145e-06	-1.107355e-09	-2.244164e+01	-7.637656e+01
1.120000e-06	-3.181144e-06	-1.095235e-09	-2.217672e+01	-7.579835e+01
1.130000e-06	-3.142814e-06	-1.082421e-09	-2.190952e+01	-7.521390e+01
1.140000e-06	-3.104323e-06	-1.079053e-09	-2.164119e+01	-7.462305e+01
1.150000e-06	-3.065683e-06	-1.072390e-09	-2.137181e+01	-7.402566e+01
1.160000e-06	-3.026774e-06	-1.058457e-09	-2.110056e+01	-7.342159e+01
1.170000e-06	-2.987640e-06	-1.046425e-09	-2.082775e+01	-7.281073e+01
1.180000e-06	-2.948302e-06	-1.039859e-09	-2.055352e+01	-7.219298e+01
1.190000e-06	-2.908908e-06	-1.027654e-09	-2.027888e+01	-7.156827e+01
1.200000e-06	-2.869408e-06	-1.018163e-09	-2.000352e+01	-7.093654e+01
1.210000e-06	-2.829746e-06	-1.010807e-09	-1.972702e+01	-7.029777e+01
1.220000e-06	-2.789949e-06	-1.003150e-09	-1.944959e+01	-6.965192e+01
1.230000e-06	-2.750036e-06	-9.905599e-10	-1.917134e+01	-6.899901e+01
1.240000e-06	-2.710018e-06	-9.803958e-10	-1.889236e+01	-6.833905e+01
1.250000e-06	-2.669867e-06	-9.685804e-10	-1.861246e+01	-6.767210e+01
1.260000e-06	-2.629515e-06	-9.562896e-10	-1.833115e+01	-6.699820e+01
1.270000e-06	-2.588824e-06	-9.443773e-10	-1.804748e+01	-6.631742e+01
1.280000e-06	-2.547687e-06	-9.365906e-10	-1.776070e+01	-6.562985e+01
1.290000e-06	-2.506237e-06	-9.274707e-10	-1.747174e+01	-6.493558e+01
1.300000e-06	-2.464533e-06	-9.171748e-10	-1.718101e+01	-6.423470e+01
1.310000e-06	-2.422564e-06	-9.063242e-10	-1.688843e+01	-6.352733e+01
1.320000e-06	-2.380366e-06	-8.936463e-10	-1.659425e+01	-6.281356e+01
1.330000e-06	-2.337824e-06	-8.794463e-10	-1.629769e+01	-6.209349e+01
1.340000e-06	-2.294924e-06	-8.682220e-10	-1.599862e+01	-6.136722e+01
1.350000e-06	-2.251857e-06	-8.596609e-10	-1.569838e+01	-6.063484e+01
1.360000e-06	-2.208702e-06	-8.492052e-10	-1.539753e+01	-5.989641e+01
1.370000e-06	-2.165425e-06	-8.400653e-10	-1.509584e+01	-5.915200e+01
1.380000e-06	-2.121987e-06	-8.347590e-10	-1.479302e+01	-5.840164e+01
1.390000e-06	-2.078417e-06	-8.256345e-10	-1.448928e+01	-5.764534e+01
1.400000e-06	-2.034764e-06	-8.124598e-10	-1.418496e+01	-5.688309e+01
1.410000e-06	-1.991020e-06	-7.983216e-10	-1.388001e+01	-5.611485e+01
1.420000e-06	-1.947188e-06	-7.843799e-10	-1.357444e+01	-5.534054e+01
1.430000e-06	-1.903260e-06	-7.720779e-10	-1.326821e+01	-5.456005e+01
1.440000e-06	-1.859217e-06	-7.585458e-10	-1.296117e+01	-5.377324e+01
1.450000e-06	-1.815124e-06	-7.485133e-10	-1.265378e+01	-5.297991e+01
1.460000e-06	-1.770994e-06	-7.360625e-10	-1.234614e+01	-5.217984e+01
1.470000e-06	-1.726701e-06	-7.243798e-10	-1.203736e+01	-5.137275e+01
1.480000e-06	-1.682292e-06	-7.144441e-10	-1.172777e+01	-5.055835e+01
1.490000e-06	-1.637828e-06	-7.033765e-10	-1.141780e+01	-4.973628e+01
1.500000e-06	-1.593124e-06	-6.893648e-10	-1.110615e+01	-4.890613e+01
1.510000e-06	-1.548216e-06	-6.753145e-10	-1.079309e+01	-4.806747e+01
1.520000e-06	-1.503241e-06	-6.587963e-10	-1.047955e+01	-4.721983e+01
1.530000e-06	-1.458209e-06	-6.413646e-10	-1.016562e+01	-4.636269e+01
1.540000e-06	-1.413074e-06	-6.254270e-10	-9.850969e+00	-4.549551e+01
1.550000e-06	-1.367771e-06	-6.110118e-10	-9.535146e+00	-4.461769e+01
1.560000e-06	-1.322405e-06	-5.993273e-10	-9.218890e+00	-4.372863e+01
1.570000e-06	-1.276965e-06	-5.884858e-10	-8.902115e+00	-4.282769e+01
1.580000e-06	-1.231368e-06	-5.752443e-10	-8.584241e+00	-4.191422e+01
1.590000e-06	-1.185720e-06	-5.619482e-10	-8.266012e+00	-4.098753e+01
1.600000e-06	-1.140128e-06	-5.464941e-10	-7.948178e+00	-4.004696e+01
1.610000e-06	-1.094491e-06	-5.298764e-10	-7.630030e+00	-3.909180e+01
1.620000e-06	-1.048719e-06	-5.147717e-10	-7.310939e+00	-3.812137e+01
1.630000e-06	-1.002852e-06	-5.014249e-10	-6.991189e+00	-3.713498e+01
1.640000e-06	-9.568968e-07	-4.896624e-10	-6.670819e+00	-3.613196e+01
1.650000e-06	-9.108470e-07	-4.724513e-10	-6.349792e+00	-3.511167e+01
1.660000e-06	-8.647701e-07	-4.547643e-10	-6.028576e+00	-3.407347e+01
1.670000e-06	-8.186345e-07	-4.378777e-10	-5.706951e+00	-3.301677e+01
1.680000e-06	-7.724484e-07	-4.199064e-10	-5.384973e+00	-3.194102e+01
1.690000e-06	-7.262234e-07	-4.017658e-10	-5.062725e+00	-3.084569e+01
1.700000e-06	-6.800041e-07	-3.831271e-10	-4.740516e+00	-2.973034e+01
1.710000e-06	-6.336934e-07	-3.654718e-10	-4.417670e+00	-2.859454e+01
1.720000e-06	-5.872834e-07	-3.477457e-10	-4.094131e+00	-2.743797e+01
1.730000e-06	-5.409148e-07	-3.299644e-10	-3.770882e+00	-2.626034e+01
1.740000e-06	-4.944762e-07	-3.090337e-10	-3.447144e+00	-2.506145e+01
1.750000e-06	-4.480430e-07	-2.874755e-10	-3.123444e+00	-2.384117e+01
1.760000e-06	-4.016032e-07	-2.694188e-10	-2.799698e+00	-2.259945e+01
1.770000e-06	-3.550430e-07	-2.522434e-10	-2.475113e+00	-2.133634e+01
1.780000e-06	-3.083682e-07	-2.360761e-10	-2.149728e+00	-2.005196e+01
1.790000e-06	-2.616621e-07	-2.213404e-10	-1.824126e+00	-1.874651e+01
1.800000e-06	-2.149900e-07	-2.045328e-10	-1.498761e+00	-1.742030e+01
1.810000e-06	-1.683771e-07	-1.839922e-10	-1.173808e+00	-1.607374e+01
1.820000e-06	-1.217846e-07	-1.656285e-10	-8.489979e-01	-1.470729e+01
1.830000e-06	-7.515940e-08	-1.497883e-10	-5.239591e-01	-1.332154e+01
1.840000e-06	-2.854582e-08	-1.328922e-10	-1.990016e-01	-1.191717e+01
1.850000e-06	1.813905e-08	-1.137587e-10	1.264528e-01	-1.049491e+01
1.860000e-06	6.488254e-08	-9.536326e-11	4.523159e-01	-9.055620e+00
1.870000e-06	1.115800e-07	-7.729771e-11	7.778583e-01	-7.600215e+00
1.880000e-06	1.582440e-07	-5.596485e-11	1.103167e+00	-6.129698e+00
1.890000e-06	2.048069e-07	-3.338954e-11	1.427771e+00	-4.645145e+00
1.900000e-06	2.513212e-07	-1.275876e-11	1.752037e+00	-3.147701e+00
1.910000e-06	2.979490e-07	7.063880e-12	2.077093e+00	-1.638572e+00
1.920000e-06	3.445532e-07	2.733580e-11	2.401986e+00	-1.190247e-01
1.930000e-06	3.910959e-07	4.676330e-11	2.726449e+00	1.409627e+00
1.940000e-06	4.376327e-07	6.720621e-11	3.050871e+00	2.946022e+00
1.950000e-06	4.841182e-07	8.818156e-11	3.374936e+00	4.488767e+00
1.960000e-06	5.306266e-07	1.078036e-10	3.699160e+00	6.036435e+00
1.970000e-06	5.770847e-07	1.281266e-10	4.023033e+00	7.587581e+00
1.980000e-06	6.234231e-07	1.474229e-10	4.346072e+00	9.140747e+00
1.990000e-06	6.696361e-07	1.678062e-10	4.668237e+00	1.069447e+01
2.000000e-06	7.158178e-07	1.901162e-10	4.990184e+00	1.224728e+01
2.010000e-06	7.620158e-07	2.132216e-10	5.312245e+00	1.379773e+01
2.020000e-06	8.081528e-07	2.366873e-10	5.633880e+00	1.534439e+01
2.030000e-06	8.542394e-07	2.615082e-10	5.955163e+00	1.688585e+01
2.040000e-06	9.002624e-07	2.852426e-10	6.276004e+00	1.842073e+01
2.050000e-06	9.462467e-07	3.056270e-10	6.596574e+00	1.994771e+01
2.060000e-06	9.921874e-07	3.232987e-10	6.916841e+00	2.146549e+01
2.070000e-06	1.038086e-06	3.399294e-10	7.236813e+00	2.297284e+01
2.080000e-06	1.083874e-06	3.603288e-10	7.556019e+00	2.446859e+01
2.090000e-06	1.129583e-06	3.828483e-10	7.874670e+00	2.595161e+01
2.100000e-06	1.175222e-06	4.072353e-10	8.192828e+00	2.742088e+01
2.110000e-06	1.220747e-06	4.317292e-10	8.510197e+00	2.887541e+01
2.120000e-06	1.266163e-06	4.528165e-10	8.826806e+00	3.031432e+01
2.130000e-06	1.311479e-06	4.719388e-10	9.142720e+00	3.173678e+01
2.140000e-06	1.356733e-06	4.899921e-10	9.458199e+00	3.314207e+01
2.150000e-06	1.401975e-06	5.084141e-10	9.773597e+00	3.452953e+01
2.160000e-06	1.447201e-06	5.273826e-10	1.008888e+01	3.589859e+01
2.170000e-06	1.492249e-06	5.466428e-10	1.040292e+01	3.724877e+01
2.180000e-06	1.537118e-06	5.674555e-10	1.071572e+01	3.857966e+01
2.190000e-06	1.581845e-06	5.898279e-10	1.102752e+01	3.989095e+01
2.200000e-06	1.626509e-06	6.115120e-10	1.133889e+01	4.118238e+01
2.210000e-06	1.671074e-06	6.285573e-10	1.164957e+01	4.245381e+01
2.220000e-06	1.715402e-06	6.434034e-10	1.195859e+01	4.370514e+01
2.230000e-06	1.759575e-06	6.591188e-10	1.226653e+01	4.493636e+01
2.240000e-06	1.803734e-06	6.765048e-10	1.257438e+01	4.614752e+01
2.250000e-06	1.847798e-06	6.911727e-10	1.288157e+01	4.733872e+01
2.260000e-06	1.891713e-06	7.044297e-10	1.318771e+01	4.851016e+01
2.270000e-06	1.935571e-06	7.222091e-10	1.349345e+01	4.966205e+01
2.280000e-06	1.979343e-06	7.442085e-10	1.379860e+01	5.079466e+01
2.290000e-06	2.023035e-06	7.639925e-10	1.410320e+01	5.190833e+01
2.300000e-06	2.066692e-06	7.813305e-10	1.440754e+01	5.300341e+01
2.310000e-06	2.110248e-06	7.970177e-10	1.471118e+01	5.408028e+01
2.320000e-06	2.153681e-06	8.110753e-10	1.501397e+01	5.513936e+01
2.330000e-06	2.197086e-06	8.265965e-10	1.531656e+01	5.618110e+01
2.340000e-06	2.240429e-06	8.416248e-10	1.561872e+01	5.720593e+01
2.350000e-06	2.283574e-06	8.571380e-10	1.591949e+01	5.821433e+01
2.360000e-06	2.326473e-06	8.757965e-10	1.621855e+01	5.920676e+01
2.370000e-06	2.369032e-06	8.947625e-10	1.651524e+01	6.018368e+01
2.380000e-06	2.411258e-06	9.089148e-10	1.680961e+01	6.114555e+01
2.390000e-06	2.453200e-06	9.209604e-10	1.710201e+01	6.209283e+01
2.400000e-06	2.494842e-06	9.330495e-10	1.739230e+01	6.302595e+01
2.410000e-06	2.536239e-06	9.432387e-10	1.768090e+01	6.394534e+01
2.420000e-06	2.577382e-06	9.528440e-10	1.796771e+01	6.485139e+01
2.430000e-06	2.618263e-06	9.655833e-10	1.825271e+01	6.574447e+01
2.440000e-06	2.658769e-06	9.805996e-10	1.853509e+01	6.662495e+01
2.450000e-06	2.698919e-06	9.960242e-10	1.881499e+01	6.749313e+01
2.460000e-06	2.738943e-06	1.010437e-09	1.909401e+01	6.834932e+01
2.470000e-06	2.778939e-06	1.026229e-09	1.937283e+01	6.919378e+01
2.480000e-06	2.818791e-06	1.040895e-09	1.965065e+01	7.002673e+01
2.490000e-06	2.858450e-06	1.053516e-09	1.992713e+01	7.084839e+01
2.500000e-06	2.898050e-06	1.062932e-09	2.020319e+01	7.165893e+01
2.510000e-06	2.937549e-06	1.069835e-09	2.047855e+01	7.245848e+01
2.520000e-06	2.976915e-06	1.080322e-09	2.075298e+01	7.324717e+01
2.530000e-06	3.016069e-06	1.093560e-09	2.102594e+01	7.402507e+01
2.540000e-06	3.054920e-06	1.106728e-09	2.129678e+01	7.479225e+01
2.550000e-06	3.093439e-06	1.119189e-09	2.156530e+01	7.554876e+01
2.560000e-06	3.131695e-06	1.129728e-09	2.183200e+01	7.629460e+01
2.570000e-06	3.169787e-06	1.137066e-09	2.209755e+01	7.702979e+01
2.580000e-06	3.207752e-06	1.142881e-09	2.236222e+01	7.775430e+01
2.590000e-06	3.245587e-06	1.150996e-09	2.262598e+01	7.846811e+01
2.600000e-06	3.283117e-06	1.162184e-09	2.288761e+01	7.917119e+01
2.610000e-06	3.320426e-06	1.172941e-09	2.314770e+01	7.986349e+01
2.620000e-06	3.357554e-06	1.182207e-09	2.340654e+01	8.054498e+01
2.630000e-06	3.394401e-06	1.191584e-09	2.366341e+01	8.121560e+01
2.640000e-06	3.430935e-06	1.201884e-09	2.391809e+01	8.187532e+01
2.650000e-06	3.467184e-06	1.211262e-09	2.417080e+01	8.252409e+01
2.660000e-06	3.503239e-06	1.218845e-09	2.442215e+01	8.316191e+01
2.670000e-06	3.539136e-06	1.223640e-09	2.467240e+01	8.378874e+01
2.680000e-06	3.574918e-06	1.228350e-09	2.492184e+01	8.440459e+01
2.690000e-06	3.610635e-06	1.236541e-09	2.517084e+01	8.500946e+01
2.700000e-06	3.646231e-06	1.246871e-09	2.541899e+01	8.560340e+01
2.710000e-06	3.681616e-06	1.255950e-09	2.566567e+01	8.618644e+01
2.720000e-06	3.716732e-06	1.264029e-09	2.591047e+01	8.675865e+01
2.730000e-06	3.751601e-06	1.272437e-09	2.615356e+01	8.732012e+01
2.740000e-06	3.786143e-06	1.280430e-09	2.639436e+01	8.787096e+01
2.750000e-06	3.820162e-06	1.286683e-09	2.663152e+01	8.841130e+01
2.760000e-06	3.853603e-06	1.293029e-09	2.686464e+01	8.894129e+01
2.770000e-06	3.886570e-06	1.300630e-09	2.709446e+01	8.946109e+01
2.780000e-06	3.919065e-06	1.309956e-09	2.732100e+01	8.997090e+01
2.790000e-06	3.951261e-06	1.319155e-09	2.754544e+01	9.047093e+01
2.800000e-06	3.983261e-06	1.326898e-09	2.776853e+01	9.096140e+01
2.810000e-06	4.015021e-06	1.333913e-09	2.798994e+01	9.144255e+01
2.820000e-06	4.046690e-06	1.339826e-09	2.821071e+01	9.191465e+01
2.830000e-06	4.078209e-06	1.344708e-09	2.843044e+01	9.237795e+01
2.840000e-06	4.109503e-06	1.351401e-09	2.864860e+01	9.283273e+01
2.850000e-06	4.140489e-06	1.361969e-09	2.886461e+01	9.327928e+01
2.860000e-06	4.171123e-06	1.372575e-09	2.907817e+01	9.371788e+01
2.870000e-06	4.201441e-06	1.379365e-09	2.928953e+01	9.414884e+01
2.880000e-06	4.231442e-06	1.382135e-09	2.949867e+01	9.457243e+01
2.890000e-06	4.261105e-06	1.384234e-09	2.970546e+01	9.498894e+01
2.900000e-06	4.290530e-06	1.388274e-09	2.991059e+01	9.539867e+01
