# Temperatura_=_-1.8
# Concentracion g/m^3_=_1620.0
# C_Vs_to_Am_M_A/Vsm_=_65563218390.804596
# pendiente_HvsI_1/m_=_3716.3
# ordenada_HvsI_A/m_=_1297.0
# frecuencia_Hz_=_135108.03399448117

Tiempo_(s)	Campo_(V.s)	Magnetizacion_(V.s)	Campo_(kA/m)	Magnetizacion_(A/m)
0.000000e+00	-5.509613e-06	-8.956274e-10	-3.836479e+01	-6.052988e+01
1.000000e-08	-5.509827e-06	-8.937381e-10	-3.836627e+01	-6.047017e+01
2.000000e-08	-5.509848e-06	-8.922387e-10	-3.836642e+01	-6.041040e+01
3.000000e-08	-5.509547e-06	-8.927988e-10	-3.836433e+01	-6.035055e+01
4.000000e-08	-5.508745e-06	-8.919343e-10	-3.835874e+01	-6.029059e+01
5.000000e-08	-5.507337e-06	-8.818182e-10	-3.834894e+01	-6.023047e+01
6.000000e-08	-5.505379e-06	-8.711465e-10	-3.833530e+01	-6.017017e+01
7.000000e-08	-5.502834e-06	-8.745344e-10	-3.831758e+01	-6.010962e+01
8.000000e-08	-5.499745e-06	-9.059609e-10	-3.829607e+01	-6.004878e+01
9.000000e-08	-5.496215e-06	-9.764530e-10	-3.827149e+01	-5.998759e+01
1.000000e-07	-5.492190e-06	-1.005073e-09	-3.824347e+01	-5.992601e+01
1.100000e-07	-5.487712e-06	-8.895094e-10	-3.821228e+01	-5.986396e+01
1.200000e-07	-5.483055e-06	-8.184108e-10	-3.817985e+01	-5.980140e+01
1.300000e-07	-5.478245e-06	-8.529240e-10	-3.814636e+01	-5.973826e+01
1.400000e-07	-5.473101e-06	-9.411659e-10	-3.811054e+01	-5.967449e+01
1.500000e-07	-5.467555e-06	-8.928277e-10	-3.807193e+01	-5.961002e+01
1.600000e-07	-5.461664e-06	-8.211141e-10	-3.803091e+01	-5.954481e+01
1.700000e-07	-5.455456e-06	-8.941924e-10	-3.798768e+01	-5.947879e+01
1.800000e-07	-5.448773e-06	-9.657046e-10	-3.794114e+01	-5.941192e+01
1.900000e-07	-5.441680e-06	-9.229068e-10	-3.789175e+01	-5.934415e+01
2.000000e-07	-5.434240e-06	-8.180540e-10	-3.783994e+01	-5.927542e+01
2.100000e-07	-5.426454e-06	-8.806893e-10	-3.778573e+01	-5.920570e+01
2.200000e-07	-5.418411e-06	-9.748191e-10	-3.772972e+01	-5.913494e+01
2.300000e-07	-5.410195e-06	-9.756054e-10	-3.767251e+01	-5.906310e+01
2.400000e-07	-5.401682e-06	-8.913244e-10	-3.761324e+01	-5.899016e+01
2.500000e-07	-5.392554e-06	-9.057666e-10	-3.754968e+01	-5.891607e+01
2.600000e-07	-5.382649e-06	-9.218650e-10	-3.748070e+01	-5.884081e+01
2.700000e-07	-5.372068e-06	-8.939927e-10	-3.740703e+01	-5.876434e+01
2.800000e-07	-5.360921e-06	-8.668163e-10	-3.732941e+01	-5.868666e+01
2.900000e-07	-5.349320e-06	-9.093736e-10	-3.724862e+01	-5.860772e+01
3.000000e-07	-5.337396e-06	-9.188564e-10	-3.716559e+01	-5.852751e+01
3.100000e-07	-5.325149e-06	-8.805360e-10	-3.708031e+01	-5.844601e+01
3.200000e-07	-5.312530e-06	-8.675625e-10	-3.699244e+01	-5.836320e+01
3.300000e-07	-5.299500e-06	-8.902002e-10	-3.690171e+01	-5.827905e+01
3.400000e-07	-5.286093e-06	-8.954633e-10	-3.680836e+01	-5.819355e+01
3.500000e-07	-5.272312e-06	-8.685332e-10	-3.671240e+01	-5.810668e+01
3.600000e-07	-5.258050e-06	-8.737710e-10	-3.661309e+01	-5.801842e+01
3.700000e-07	-5.243369e-06	-9.006144e-10	-3.651086e+01	-5.792873e+01
3.800000e-07	-5.228145e-06	-8.987097e-10	-3.640485e+01	-5.783760e+01
3.900000e-07	-5.212269e-06	-8.538360e-10	-3.629431e+01	-5.774499e+01
4.000000e-07	-5.195977e-06	-8.647663e-10	-3.618086e+01	-5.765088e+01
4.100000e-07	-5.179353e-06	-8.941308e-10	-3.606510e+01	-5.755523e+01
4.200000e-07	-5.162303e-06	-8.722589e-10	-3.594638e+01	-5.745801e+01
4.300000e-07	-5.144959e-06	-8.367228e-10	-3.582561e+01	-5.735917e+01
4.400000e-07	-5.127448e-06	-8.907731e-10	-3.570368e+01	-5.725867e+01
4.500000e-07	-5.109583e-06	-9.026235e-10	-3.557928e+01	-5.715647e+01
4.600000e-07	-5.091214e-06	-8.455355e-10	-3.545137e+01	-5.705251e+01
4.700000e-07	-5.072369e-06	-8.395804e-10	-3.532015e+01	-5.694674e+01
4.800000e-07	-5.053166e-06	-8.962683e-10	-3.518643e+01	-5.683910e+01
4.900000e-07	-5.033714e-06	-8.668893e-10	-3.505098e+01	-5.672954e+01
5.000000e-07	-5.014090e-06	-8.408547e-10	-3.491434e+01	-5.661798e+01
5.100000e-07	-4.994278e-06	-8.728221e-10	-3.477638e+01	-5.650438e+01
5.200000e-07	-4.974218e-06	-8.728557e-10	-3.463670e+01	-5.638866e+01
5.300000e-07	-4.953745e-06	-8.369069e-10	-3.449414e+01	-5.627075e+01
5.400000e-07	-4.932860e-06	-8.728050e-10	-3.434871e+01	-5.615059e+01
5.500000e-07	-4.911615e-06	-8.829965e-10	-3.420078e+01	-5.602811e+01
5.600000e-07	-4.890055e-06	-8.322770e-10	-3.405065e+01	-5.590324e+01
5.700000e-07	-4.868236e-06	-8.346024e-10	-3.389872e+01	-5.577592e+01
5.800000e-07	-4.846066e-06	-8.779284e-10	-3.374435e+01	-5.564609e+01
5.900000e-07	-4.823471e-06	-8.539799e-10	-3.358701e+01	-5.551368e+01
6.000000e-07	-4.800466e-06	-8.337467e-10	-3.342682e+01	-5.537865e+01
6.100000e-07	-4.777173e-06	-8.568042e-10	-3.326462e+01	-5.524093e+01
6.200000e-07	-4.753661e-06	-8.458441e-10	-3.310091e+01	-5.510048e+01
6.300000e-07	-4.729943e-06	-8.206229e-10	-3.293575e+01	-5.495726e+01
6.400000e-07	-4.706000e-06	-8.347327e-10	-3.276903e+01	-5.481123e+01
6.500000e-07	-4.681789e-06	-8.416268e-10	-3.260045e+01	-5.466237e+01
6.600000e-07	-4.657252e-06	-8.226753e-10	-3.242959e+01	-5.451065e+01
6.700000e-07	-4.632141e-06	-8.304124e-10	-3.225473e+01	-5.435606e+01
6.800000e-07	-4.606354e-06	-8.367508e-10	-3.207517e+01	-5.419859e+01
6.900000e-07	-4.580090e-06	-8.262655e-10	-3.189229e+01	-5.403825e+01
7.000000e-07	-4.553368e-06	-8.204419e-10	-3.170621e+01	-5.387505e+01
7.100000e-07	-4.526171e-06	-8.224377e-10	-3.151684e+01	-5.370900e+01
7.200000e-07	-4.498659e-06	-8.131679e-10	-3.132526e+01	-5.354015e+01
7.300000e-07	-4.470979e-06	-8.171779e-10	-3.113252e+01	-5.336851e+01
7.400000e-07	-4.443153e-06	-8.165669e-10	-3.093877e+01	-5.319414e+01
7.500000e-07	-4.415117e-06	-8.070966e-10	-3.074354e+01	-5.301709e+01
7.600000e-07	-4.386816e-06	-7.980143e-10	-3.054648e+01	-5.283742e+01
7.700000e-07	-4.358200e-06	-7.965277e-10	-3.034722e+01	-5.265520e+01
7.800000e-07	-4.329197e-06	-7.852260e-10	-3.014526e+01	-5.247050e+01
7.900000e-07	-4.299856e-06	-7.885012e-10	-2.994095e+01	-5.228340e+01
8.000000e-07	-4.270249e-06	-7.958543e-10	-2.973479e+01	-5.209398e+01
8.100000e-07	-4.240400e-06	-7.911790e-10	-2.952694e+01	-5.190233e+01
8.200000e-07	-4.210298e-06	-7.781068e-10	-2.931733e+01	-5.170855e+01
8.300000e-07	-4.179898e-06	-7.772504e-10	-2.910565e+01	-5.151272e+01
8.400000e-07	-4.149174e-06	-7.703661e-10	-2.889172e+01	-5.131494e+01
8.500000e-07	-4.118157e-06	-7.597421e-10	-2.867574e+01	-5.111530e+01
8.600000e-07	-4.086956e-06	-7.580922e-10	-2.845847e+01	-5.091389e+01
8.700000e-07	-4.055580e-06	-7.602292e-10	-2.824000e+01	-5.071080e+01
8.800000e-07	-4.023997e-06	-7.554802e-10	-2.802007e+01	-5.050612e+01
8.900000e-07	-3.992252e-06	-7.573948e-10	-2.779903e+01	-5.029992e+01
9.000000e-07	-3.960344e-06	-7.601931e-10	-2.757685e+01	-5.009229e+01
9.100000e-07	-3.928168e-06	-7.507708e-10	-2.735279e+01	-4.988328e+01
9.200000e-07	-3.895637e-06	-7.413175e-10	-2.712627e+01	-4.967297e+01
9.300000e-07	-3.862726e-06	-7.410517e-10	-2.689710e+01	-4.946139e+01
9.400000e-07	-3.829276e-06	-7.379514e-10	-2.666419e+01	-4.924859e+01
9.500000e-07	-3.795260e-06	-7.297681e-10	-2.642733e+01	-4.903460e+01
9.600000e-07	-3.760849e-06	-7.279653e-10	-2.618771e+01	-4.881944e+01
9.700000e-07	-3.726081e-06	-7.240903e-10	-2.594562e+01	-4.860311e+01
9.800000e-07	-3.690939e-06	-7.194044e-10	-2.570091e+01	-4.838561e+01
9.900000e-07	-3.655509e-06	-7.181573e-10	-2.545421e+01	-4.816691e+01
1.000000e-06	-3.619935e-06	-7.185500e-10	-2.520650e+01	-4.794698e+01
1.010000e-06	-3.584261e-06	-7.111995e-10	-2.495809e+01	-4.772579e+01
1.020000e-06	-3.548490e-06	-7.075449e-10	-2.470901e+01	-4.750326e+01
1.030000e-06	-3.512580e-06	-7.055965e-10	-2.445895e+01	-4.727932e+01
1.040000e-06	-3.476452e-06	-7.013407e-10	-2.420738e+01	-4.705389e+01
1.050000e-06	-3.440047e-06	-6.928126e-10	-2.395389e+01	-4.682687e+01
1.060000e-06	-3.403337e-06	-6.876597e-10	-2.369827e+01	-4.659814e+01
1.070000e-06	-3.366363e-06	-6.801869e-10	-2.344081e+01	-4.636758e+01
1.080000e-06	-3.329150e-06	-6.747960e-10	-2.318169e+01	-4.613506e+01
1.090000e-06	-3.291745e-06	-6.724104e-10	-2.292123e+01	-4.590044e+01
1.100000e-06	-3.254064e-06	-6.708453e-10	-2.265885e+01	-4.566355e+01
1.110000e-06	-3.216110e-06	-6.648335e-10	-2.239456e+01	-4.542424e+01
1.120000e-06	-3.178045e-06	-6.614322e-10	-2.212950e+01	-4.518233e+01
1.130000e-06	-3.139758e-06	-6.580908e-10	-2.186290e+01	-4.493765e+01
1.140000e-06	-3.101123e-06	-6.537987e-10	-2.159388e+01	-4.469002e+01
1.150000e-06	-3.062308e-06	-6.466784e-10	-2.132360e+01	-4.443924e+01
1.160000e-06	-3.023329e-06	-6.388820e-10	-2.105218e+01	-4.418514e+01
1.170000e-06	-2.984160e-06	-6.328423e-10	-2.077944e+01	-4.392752e+01
1.180000e-06	-2.944900e-06	-6.301368e-10	-2.050606e+01	-4.366618e+01
1.190000e-06	-2.905471e-06	-6.288475e-10	-2.023150e+01	-4.340094e+01
1.200000e-06	-2.865868e-06	-6.266850e-10	-1.995574e+01	-4.313161e+01
1.210000e-06	-2.826185e-06	-6.245633e-10	-1.967942e+01	-4.285800e+01
1.220000e-06	-2.786372e-06	-6.230536e-10	-1.940219e+01	-4.257991e+01
1.230000e-06	-2.746389e-06	-6.198318e-10	-1.912378e+01	-4.229719e+01
1.240000e-06	-2.706263e-06	-6.114889e-10	-1.884437e+01	-4.200964e+01
1.250000e-06	-2.665929e-06	-6.032978e-10	-1.856352e+01	-4.171709e+01
1.260000e-06	-2.625384e-06	-5.960321e-10	-1.828119e+01	-4.141939e+01
1.270000e-06	-2.584580e-06	-5.885893e-10	-1.799706e+01	-4.111637e+01
1.280000e-06	-2.543441e-06	-5.835132e-10	-1.771060e+01	-4.080788e+01
1.290000e-06	-2.502079e-06	-5.823328e-10	-1.742259e+01	-4.049377e+01
1.300000e-06	-2.460463e-06	-5.789095e-10	-1.713281e+01	-4.017391e+01
1.310000e-06	-2.418454e-06	-5.743705e-10	-1.684028e+01	-3.984816e+01
1.320000e-06	-2.376163e-06	-5.692621e-10	-1.654580e+01	-3.951640e+01
1.330000e-06	-2.333661e-06	-5.623644e-10	-1.624985e+01	-3.917849e+01
1.340000e-06	-2.290865e-06	-5.547746e-10	-1.595185e+01	-3.883432e+01
1.350000e-06	-2.247753e-06	-5.486053e-10	-1.565166e+01	-3.848378e+01
1.360000e-06	-2.204425e-06	-5.398957e-10	-1.534995e+01	-3.812676e+01
1.370000e-06	-2.160976e-06	-5.326104e-10	-1.504740e+01	-3.776314e+01
1.380000e-06	-2.117401e-06	-5.301029e-10	-1.474398e+01	-3.739283e+01
1.390000e-06	-2.073731e-06	-5.304000e-10	-1.443989e+01	-3.701570e+01
1.400000e-06	-2.030002e-06	-5.281707e-10	-1.413540e+01	-3.663165e+01
1.410000e-06	-1.986208e-06	-5.235672e-10	-1.383045e+01	-3.624058e+01
1.420000e-06	-1.942359e-06	-5.161524e-10	-1.352512e+01	-3.584235e+01
1.430000e-06	-1.898434e-06	-5.075137e-10	-1.321926e+01	-3.543686e+01
1.440000e-06	-1.854377e-06	-4.984531e-10	-1.291248e+01	-3.502398e+01
1.450000e-06	-1.810245e-06	-4.904136e-10	-1.260518e+01	-3.460357e+01
1.460000e-06	-1.765971e-06	-4.829283e-10	-1.229689e+01	-3.417548e+01
1.470000e-06	-1.721517e-06	-4.770708e-10	-1.198735e+01	-3.373958e+01
1.480000e-06	-1.676992e-06	-4.739008e-10	-1.167731e+01	-3.329568e+01
1.490000e-06	-1.632367e-06	-4.685605e-10	-1.136657e+01	-3.284363e+01
1.500000e-06	-1.587575e-06	-4.622840e-10	-1.105467e+01	-3.238323e+01
1.510000e-06	-1.542659e-06	-4.584220e-10	-1.074192e+01	-3.191429e+01
1.520000e-06	-1.497646e-06	-4.525807e-10	-1.042848e+01	-3.143658e+01
1.530000e-06	-1.452512e-06	-4.425940e-10	-1.011420e+01	-3.094990e+01
1.540000e-06	-1.407273e-06	-4.303739e-10	-9.799184e+00	-3.045398e+01
1.550000e-06	-1.361968e-06	-4.199678e-10	-9.483713e+00	-2.994860e+01
1.560000e-06	-1.316618e-06	-4.129518e-10	-9.167931e+00	-2.943346e+01
1.570000e-06	-1.271168e-06	-4.084897e-10	-8.851453e+00	-2.890831e+01
1.580000e-06	-1.225610e-06	-4.039858e-10	-8.534224e+00	-2.837284e+01
1.590000e-06	-1.179902e-06	-3.990064e-10	-8.215944e+00	-2.782677e+01
1.600000e-06	-1.134060e-06	-3.916659e-10	-7.896740e+00	-2.726976e+01
1.610000e-06	-1.088164e-06	-3.806935e-10	-7.577152e+00	-2.670152e+01
1.620000e-06	-1.042167e-06	-3.695410e-10	-7.256863e+00	-2.612171e+01
1.630000e-06	-9.961854e-07	-3.615586e-10	-6.936683e+00	-2.553001e+01
1.640000e-06	-9.502154e-07	-3.567307e-10	-6.616583e+00	-2.492608e+01
1.650000e-06	-9.041009e-07	-3.494366e-10	-6.295476e+00	-2.430960e+01
1.660000e-06	-8.579128e-07	-3.390050e-10	-5.973857e+00	-2.368023e+01
1.670000e-06	-8.117455e-07	-3.246805e-10	-5.652383e+00	-2.303765e+01
1.680000e-06	-7.655089e-07	-3.085834e-10	-5.330426e+00	-2.238155e+01
1.690000e-06	-7.191938e-07	-2.942666e-10	-5.007923e+00	-2.171162e+01
1.700000e-06	-6.728941e-07	-2.815037e-10	-4.685526e+00	-2.102756e+01
1.710000e-06	-6.265435e-07	-2.726857e-10	-4.362776e+00	-2.032912e+01
1.720000e-06	-5.801332e-07	-2.662621e-10	-4.039610e+00	-1.961602e+01
1.730000e-06	-5.336609e-07	-2.566864e-10	-3.716011e+00	-1.888804e+01
1.740000e-06	-4.871011e-07	-2.419463e-10	-3.391804e+00	-1.814498e+01
1.750000e-06	-4.405083e-07	-2.251779e-10	-3.067367e+00	-1.738665e+01
1.760000e-06	-3.939269e-07	-2.109254e-10	-2.743009e+00	-1.661292e+01
1.770000e-06	-3.473199e-07	-1.991006e-10	-2.418473e+00	-1.582367e+01
1.780000e-06	-3.006968e-07	-1.901929e-10	-2.093826e+00	-1.501883e+01
1.790000e-06	-2.540069e-07	-1.813018e-10	-1.768713e+00	-1.419837e+01
1.800000e-06	-2.072730e-07	-1.709110e-10	-1.443293e+00	-1.336230e+01
1.810000e-06	-1.605376e-07	-1.592752e-10	-1.117863e+00	-1.251068e+01
1.820000e-06	-1.138180e-07	-1.479610e-10	-7.925428e-01	-1.164361e+01
1.830000e-06	-6.716676e-08	-1.377683e-10	-4.676986e-01	-1.076124e+01
1.840000e-06	-2.046073e-08	-1.265993e-10	-1.424731e-01	-9.863777e+00
1.850000e-06	2.634502e-08	-1.136340e-10	1.834468e-01	-8.951473e+00
1.860000e-06	7.319281e-08	-9.993024e-11	5.096594e-01	-8.024634e+00
1.870000e-06	1.200274e-07	-8.565050e-11	8.357799e-01	-7.083617e+00
1.880000e-06	1.668298e-07	-7.114902e-11	1.161677e+00	-6.128834e+00
1.890000e-06	2.135294e-07	-5.612110e-11	1.486858e+00	-5.160749e+00
1.900000e-06	2.601790e-07	-4.247523e-11	1.811690e+00	-4.179880e+00
1.910000e-06	3.068578e-07	-3.081216e-11	2.136726e+00	-3.186794e+00
1.920000e-06	3.535164e-07	-1.918025e-11	2.461622e+00	-2.182110e+00
1.930000e-06	4.001375e-07	-6.613302e-12	2.786255e+00	-1.166497e+00
1.940000e-06	4.467037e-07	7.591424e-12	3.110507e+00	-1.406669e-01
1.950000e-06	4.931575e-07	2.304322e-11	3.433976e+00	8.946193e-01
1.960000e-06	5.395315e-07	4.116075e-11	3.756890e+00	1.938560e+00
1.970000e-06	5.859608e-07	5.908163e-11	4.080189e+00	2.990315e+00
1.980000e-06	6.323876e-07	7.270185e-11	4.403469e+00	4.049006e+00
1.990000e-06	6.787734e-07	8.665878e-11	4.726465e+00	5.113722e+00
2.000000e-06	7.251144e-07	9.949802e-11	5.049149e+00	6.183524e+00
2.010000e-06	7.713225e-07	1.112505e-10	5.370907e+00	7.257445e+00
2.020000e-06	8.174614e-07	1.260153e-10	5.692184e+00	8.334498e+00
2.030000e-06	8.636739e-07	1.427323e-10	6.013973e+00	9.413679e+00
2.040000e-06	9.098622e-07	1.587263e-10	6.335593e+00	1.049397e+01
2.050000e-06	9.559045e-07	1.738299e-10	6.656197e+00	1.157434e+01
2.060000e-06	1.001910e-06	1.899868e-10	6.976546e+00	1.265376e+01
2.070000e-06	1.047850e-06	2.068664e-10	7.296437e+00	1.373120e+01
2.080000e-06	1.093650e-06	2.242563e-10	7.615350e+00	1.480563e+01
2.090000e-06	1.139339e-06	2.397776e-10	7.933498e+00	1.587603e+01
2.100000e-06	1.184939e-06	2.540840e-10	8.251019e+00	1.694141e+01
2.110000e-06	1.230449e-06	2.652580e-10	8.567918e+00	1.800076e+01
2.120000e-06	1.275845e-06	2.750494e-10	8.884020e+00	1.905312e+01
2.130000e-06	1.321201e-06	2.887879e-10	9.199846e+00	2.009756e+01
2.140000e-06	1.366524e-06	3.053506e-10	9.515439e+00	2.113316e+01
2.150000e-06	1.411721e-06	3.223593e-10	9.830157e+00	2.215904e+01
2.160000e-06	1.456795e-06	3.384628e-10	1.014402e+01	2.317437e+01
2.170000e-06	1.501710e-06	3.524085e-10	1.045678e+01	2.417834e+01
2.180000e-06	1.546598e-06	3.669995e-10	1.076934e+01	2.517018e+01
2.190000e-06	1.591478e-06	3.792551e-10	1.108185e+01	2.614919e+01
2.200000e-06	1.636156e-06	3.893246e-10	1.139295e+01	2.711469e+01
2.210000e-06	1.680672e-06	3.992493e-10	1.170293e+01	2.806606e+01
2.220000e-06	1.725044e-06	4.095713e-10	1.201191e+01	2.900273e+01
2.230000e-06	1.769308e-06	4.225833e-10	1.232013e+01	2.992419e+01
2.240000e-06	1.813444e-06	4.362162e-10	1.262745e+01	3.082996e+01
2.250000e-06	1.857422e-06	4.496804e-10	1.293369e+01	3.171963e+01
2.260000e-06	1.901337e-06	4.607307e-10	1.323947e+01	3.259284e+01
2.270000e-06	1.945192e-06	4.733748e-10	1.354484e+01	3.344928e+01
2.280000e-06	1.988970e-06	4.883745e-10	1.384968e+01	3.428870e+01
2.290000e-06	2.032679e-06	5.032166e-10	1.415404e+01	3.511087e+01
2.300000e-06	2.076344e-06	5.155506e-10	1.445809e+01	3.591566e+01
2.310000e-06	2.119947e-06	5.241612e-10	1.476171e+01	3.670295e+01
2.320000e-06	2.163482e-06	5.317312e-10	1.506486e+01	3.747268e+01
2.330000e-06	2.206941e-06	5.407851e-10	1.536747e+01	3.822484e+01
2.340000e-06	2.250162e-06	5.529036e-10	1.566843e+01	3.895946e+01
2.350000e-06	2.293143e-06	5.672088e-10	1.596771e+01	3.967660e+01
2.360000e-06	2.336051e-06	5.827921e-10	1.626649e+01	4.037638e+01
2.370000e-06	2.378766e-06	5.952872e-10	1.656393e+01	4.105894e+01
2.380000e-06	2.421144e-06	6.039468e-10	1.685902e+01	4.172445e+01
2.390000e-06	2.463146e-06	6.121949e-10	1.715149e+01	4.237312e+01
2.400000e-06	2.504856e-06	6.196351e-10	1.744193e+01	4.300518e+01
2.410000e-06	2.546260e-06	6.264854e-10	1.773023e+01	4.362090e+01
2.420000e-06	2.587324e-06	6.328324e-10	1.801617e+01	4.422055e+01
2.430000e-06	2.628127e-06	6.415338e-10	1.830029e+01	4.480444e+01
2.440000e-06	2.668659e-06	6.521326e-10	1.858253e+01	4.537287e+01
2.450000e-06	2.709003e-06	6.610517e-10	1.886345e+01	4.592617e+01
2.460000e-06	2.749196e-06	6.710417e-10	1.914332e+01	4.646468e+01
2.470000e-06	2.789225e-06	6.823996e-10	1.942206e+01	4.698875e+01
2.480000e-06	2.829104e-06	6.927825e-10	1.969974e+01	4.749871e+01
2.490000e-06	2.868835e-06	7.018526e-10	1.997640e+01	4.799493e+01
2.500000e-06	2.908395e-06	7.085083e-10	2.025187e+01	4.847776e+01
2.510000e-06	2.947816e-06	7.145126e-10	2.052637e+01	4.894754e+01
2.520000e-06	2.987068e-06	7.212412e-10	2.079969e+01	4.940462e+01
2.530000e-06	3.026107e-06	7.259437e-10	2.107153e+01	4.984934e+01
2.540000e-06	3.064989e-06	7.304005e-10	2.134227e+01	5.028203e+01
2.550000e-06	3.103636e-06	7.366417e-10	2.161138e+01	5.070303e+01
2.560000e-06	3.142049e-06	7.473662e-10	2.187886e+01	5.111264e+01
2.570000e-06	3.180224e-06	7.584026e-10	2.214467e+01	5.151117e+01
2.580000e-06	3.218142e-06	7.652506e-10	2.240871e+01	5.189891e+01
2.590000e-06	3.255926e-06	7.687848e-10	2.267181e+01	5.227616e+01
2.600000e-06	3.293506e-06	7.710175e-10	2.293349e+01	5.264317e+01
2.610000e-06	3.330828e-06	7.727083e-10	2.319337e+01	5.300021e+01
2.620000e-06	3.367864e-06	7.748742e-10	2.345126e+01	5.334753e+01
2.630000e-06	3.404627e-06	7.795292e-10	2.370725e+01	5.368536e+01
2.640000e-06	3.441177e-06	7.870345e-10	2.396176e+01	5.401393e+01
2.650000e-06	3.477470e-06	7.951787e-10	2.421448e+01	5.433344e+01
2.660000e-06	3.513498e-06	8.009577e-10	2.446535e+01	5.464410e+01
2.670000e-06	3.549393e-06	8.041086e-10	2.471529e+01	5.494611e+01
2.680000e-06	3.585226e-06	8.043511e-10	2.496480e+01	5.523964e+01
2.690000e-06	3.620933e-06	8.042696e-10	2.521344e+01	5.552487e+01
2.700000e-06	3.656505e-06	8.073192e-10	2.546114e+01	5.580196e+01
2.710000e-06	3.691848e-06	8.136383e-10	2.570724e+01	5.607109e+01
2.720000e-06	3.726925e-06	8.189221e-10	2.595149e+01	5.633239e+01
2.730000e-06	3.761802e-06	8.213276e-10	2.619435e+01	5.658602e+01
2.740000e-06	3.796270e-06	8.228055e-10	2.643435e+01	5.683212e+01
2.750000e-06	3.830209e-06	8.235515e-10	2.667069e+01	5.707084e+01
2.760000e-06	3.863615e-06	8.244630e-10	2.690329e+01	5.730232e+01
2.770000e-06	3.896425e-06	8.281640e-10	2.713176e+01	5.752668e+01
2.780000e-06	3.928861e-06	8.338494e-10	2.735762e+01	5.774408e+01
2.790000e-06	3.961055e-06	8.406314e-10	2.758180e+01	5.795463e+01
2.800000e-06	3.993029e-06	8.464199e-10	2.780444e+01	5.815849e+01
2.810000e-06	4.024859e-06	8.495279e-10	2.802608e+01	5.835577e+01
2.820000e-06	4.056524e-06	8.515485e-10	2.824657e+01	5.854663e+01
2.830000e-06	4.088009e-06	8.530609e-10	2.846581e+01	5.873120e+01
2.840000e-06	4.119246e-06	8.537850e-10	2.868332e+01	5.890961e+01
2.850000e-06	4.150206e-06	8.578611e-10	2.889890e+01	5.908201e+01
2.860000e-06	4.180787e-06	8.657550e-10	2.911184e+01	5.924854e+01
2.870000e-06	4.211006e-06	8.725460e-10	2.932226e+01	5.940933e+01
2.880000e-06	4.241005e-06	8.767404e-10	2.953116e+01	5.956453e+01
2.890000e-06	4.270742e-06	8.811204e-10	2.973823e+01	5.971429e+01
2.900000e-06	4.300223e-06	8.836809e-10	2.994350e+01	5.985875e+01
