# Temperatura_=_13.9
# Concentracion g/m^3_=_1620.0
# C_Vs_to_Am_M_A/Vsm_=_65563218390.804596
# pendiente_HvsI_1/m_=_3716.3
# ordenada_HvsI_A/m_=_1297.0
# frecuencia_Hz_=_135097.01488305797

Tiempo_(s)	Campo_(V.s)	Magnetizacion_(V.s)	Campo_(kA/m)	Magnetizacion_(A/m)
0.000000e+00	-5.505125e-06	-1.645204e-09	-3.838208e+01	-1.070637e+02
1.000000e-08	-5.505345e-06	-1.647491e-09	-3.838362e+01	-1.070437e+02
2.000000e-08	-5.505266e-06	-1.650740e-09	-3.838306e+01	-1.070212e+02
3.000000e-08	-5.504841e-06	-1.652933e-09	-3.838010e+01	-1.069961e+02
4.000000e-08	-5.503945e-06	-1.649600e-09	-3.837385e+01	-1.069685e+02
5.000000e-08	-5.502521e-06	-1.640106e-09	-3.836393e+01	-1.069382e+02
6.000000e-08	-5.500633e-06	-1.658977e-09	-3.835077e+01	-1.069053e+02
7.000000e-08	-5.498244e-06	-1.693714e-09	-3.833411e+01	-1.068697e+02
8.000000e-08	-5.495327e-06	-1.660271e-09	-3.831377e+01	-1.068313e+02
9.000000e-08	-5.491937e-06	-1.546991e-09	-3.829014e+01	-1.067900e+02
1.000000e-07	-5.488172e-06	-1.572670e-09	-3.826389e+01	-1.067459e+02
1.100000e-07	-5.484028e-06	-1.650250e-09	-3.823500e+01	-1.066987e+02
1.200000e-07	-5.479506e-06	-1.675489e-09	-3.820346e+01	-1.066484e+02
1.300000e-07	-5.474610e-06	-1.602978e-09	-3.816933e+01	-1.065948e+02
1.400000e-07	-5.469414e-06	-1.599110e-09	-3.813310e+01	-1.065379e+02
1.500000e-07	-5.463936e-06	-1.666494e-09	-3.809491e+01	-1.064776e+02
1.600000e-07	-5.458091e-06	-1.653831e-09	-3.805416e+01	-1.064136e+02
1.700000e-07	-5.451845e-06	-1.590228e-09	-3.801061e+01	-1.063459e+02
1.800000e-07	-5.445163e-06	-1.595548e-09	-3.796402e+01	-1.062744e+02
1.900000e-07	-5.438109e-06	-1.635410e-09	-3.791484e+01	-1.061989e+02
2.000000e-07	-5.430832e-06	-1.639704e-09	-3.786411e+01	-1.061193e+02
2.100000e-07	-5.423316e-06	-1.609873e-09	-3.781171e+01	-1.060354e+02
2.200000e-07	-5.415453e-06	-1.619127e-09	-3.775688e+01	-1.059472e+02
2.300000e-07	-5.407099e-06	-1.645405e-09	-3.769864e+01	-1.058545e+02
2.400000e-07	-5.398253e-06	-1.634390e-09	-3.763696e+01	-1.057573e+02
2.500000e-07	-5.388918e-06	-1.616717e-09	-3.757188e+01	-1.056552e+02
2.600000e-07	-5.378986e-06	-1.615336e-09	-3.750263e+01	-1.055484e+02
2.700000e-07	-5.368481e-06	-1.621152e-09	-3.742940e+01	-1.054366e+02
2.800000e-07	-5.357594e-06	-1.615265e-09	-3.735349e+01	-1.053197e+02
2.900000e-07	-5.346360e-06	-1.620000e-09	-3.727516e+01	-1.051977e+02
3.000000e-07	-5.334580e-06	-1.602485e-09	-3.719303e+01	-1.050703e+02
3.100000e-07	-5.322358e-06	-1.608726e-09	-3.710782e+01	-1.049377e+02
3.200000e-07	-5.309748e-06	-1.612911e-09	-3.701991e+01	-1.047995e+02
3.300000e-07	-5.296664e-06	-1.616382e-09	-3.692868e+01	-1.046558e+02
3.400000e-07	-5.283212e-06	-1.590129e-09	-3.683489e+01	-1.045065e+02
3.500000e-07	-5.269419e-06	-1.610097e-09	-3.673873e+01	-1.043514e+02
3.600000e-07	-5.255197e-06	-1.593969e-09	-3.663957e+01	-1.041905e+02
3.700000e-07	-5.240419e-06	-1.574159e-09	-3.653653e+01	-1.040238e+02
3.800000e-07	-5.225131e-06	-1.600613e-09	-3.642995e+01	-1.038510e+02
3.900000e-07	-5.209308e-06	-1.620635e-09	-3.631963e+01	-1.036723e+02
4.000000e-07	-5.192991e-06	-1.555643e-09	-3.620587e+01	-1.034875e+02
4.100000e-07	-5.176435e-06	-1.547543e-09	-3.609043e+01	-1.032966e+02
4.200000e-07	-5.159553e-06	-1.617250e-09	-3.597274e+01	-1.030994e+02
4.300000e-07	-5.142324e-06	-1.589036e-09	-3.585261e+01	-1.028960e+02
4.400000e-07	-5.124705e-06	-1.525759e-09	-3.572977e+01	-1.026864e+02
4.500000e-07	-5.106750e-06	-1.589015e-09	-3.560459e+01	-1.024703e+02
4.600000e-07	-5.088445e-06	-1.611466e-09	-3.547696e+01	-1.022479e+02
4.700000e-07	-5.069704e-06	-1.527006e-09	-3.534630e+01	-1.020191e+02
4.800000e-07	-5.050633e-06	-1.536794e-09	-3.521334e+01	-1.017838e+02
4.900000e-07	-5.031275e-06	-1.596621e-09	-3.507837e+01	-1.015420e+02
5.000000e-07	-5.011628e-06	-1.532410e-09	-3.494139e+01	-1.012938e+02
5.100000e-07	-4.991711e-06	-1.504014e-09	-3.480253e+01	-1.010390e+02
5.200000e-07	-4.971549e-06	-1.580696e-09	-3.466196e+01	-1.007777e+02
5.300000e-07	-4.951089e-06	-1.558173e-09	-3.451931e+01	-1.005099e+02
5.400000e-07	-4.930280e-06	-1.489709e-09	-3.437423e+01	-1.002356e+02
5.500000e-07	-4.909182e-06	-1.532564e-09	-3.422713e+01	-9.995486e+01
5.600000e-07	-4.887752e-06	-1.546275e-09	-3.407772e+01	-9.966761e+01
5.700000e-07	-4.865953e-06	-1.476217e-09	-3.392573e+01	-9.937392e+01
5.800000e-07	-4.843887e-06	-1.494069e-09	-3.377189e+01	-9.907383e+01
5.900000e-07	-4.821465e-06	-1.533749e-09	-3.361557e+01	-9.876739e+01
6.000000e-07	-4.798654e-06	-1.482072e-09	-3.345653e+01	-9.845465e+01
6.100000e-07	-4.775508e-06	-1.461013e-09	-3.329515e+01	-9.813568e+01
6.200000e-07	-4.752042e-06	-1.501033e-09	-3.313154e+01	-9.781056e+01
6.300000e-07	-4.728314e-06	-1.478079e-09	-3.296611e+01	-9.747937e+01
6.400000e-07	-4.704370e-06	-1.452382e-09	-3.279917e+01	-9.714219e+01
6.500000e-07	-4.680097e-06	-1.480212e-09	-3.262993e+01	-9.679913e+01
6.600000e-07	-4.655284e-06	-1.478678e-09	-3.245694e+01	-9.645030e+01
6.700000e-07	-4.630051e-06	-1.439515e-09	-3.228101e+01	-9.609581e+01
6.800000e-07	-4.604399e-06	-1.447750e-09	-3.210217e+01	-9.573579e+01
6.900000e-07	-4.578147e-06	-1.452734e-09	-3.191913e+01	-9.537036e+01
7.000000e-07	-4.551454e-06	-1.429645e-09	-3.173303e+01	-9.499966e+01
7.100000e-07	-4.524469e-06	-1.425903e-09	-3.154489e+01	-9.462382e+01
7.200000e-07	-4.497199e-06	-1.439120e-09	-3.135476e+01	-9.424300e+01
7.300000e-07	-4.469640e-06	-1.427669e-09	-3.116262e+01	-9.385734e+01
7.400000e-07	-4.441833e-06	-1.415121e-09	-3.096875e+01	-9.346697e+01
7.500000e-07	-4.413785e-06	-1.412290e-09	-3.077319e+01	-9.307206e+01
7.600000e-07	-4.385438e-06	-1.401214e-09	-3.057555e+01	-9.267274e+01
7.700000e-07	-4.356854e-06	-1.387111e-09	-3.037627e+01	-9.226916e+01
7.800000e-07	-4.328010e-06	-1.387794e-09	-3.017516e+01	-9.186145e+01
7.900000e-07	-4.298787e-06	-1.387009e-09	-2.997142e+01	-9.144977e+01
8.000000e-07	-4.269268e-06	-1.378966e-09	-2.976561e+01	-9.103422e+01
8.100000e-07	-4.239535e-06	-1.374833e-09	-2.955831e+01	-9.061494e+01
8.200000e-07	-4.209479e-06	-1.368580e-09	-2.934876e+01	-9.019202e+01
8.300000e-07	-4.179142e-06	-1.353988e-09	-2.913725e+01	-8.976559e+01
8.400000e-07	-4.148493e-06	-1.344283e-09	-2.892356e+01	-8.933571e+01
8.500000e-07	-4.117548e-06	-1.341491e-09	-2.870781e+01	-8.890247e+01
8.600000e-07	-4.086387e-06	-1.332093e-09	-2.849055e+01	-8.846593e+01
8.700000e-07	-4.055008e-06	-1.324080e-09	-2.827178e+01	-8.802613e+01
8.800000e-07	-4.023489e-06	-1.316785e-09	-2.805203e+01	-8.758310e+01
8.900000e-07	-3.991808e-06	-1.306782e-09	-2.783114e+01	-8.713687e+01
9.000000e-07	-3.959884e-06	-1.296004e-09	-2.760856e+01	-8.668741e+01
9.100000e-07	-3.927669e-06	-1.293282e-09	-2.738396e+01	-8.623472e+01
9.200000e-07	-3.895160e-06	-1.287355e-09	-2.715730e+01	-8.577876e+01
9.300000e-07	-3.862282e-06	-1.275833e-09	-2.692808e+01	-8.531946e+01
9.400000e-07	-3.829002e-06	-1.268677e-09	-2.669605e+01	-8.485675e+01
9.500000e-07	-3.795284e-06	-1.266940e-09	-2.646097e+01	-8.439053e+01
9.600000e-07	-3.761017e-06	-1.258087e-09	-2.622205e+01	-8.392071e+01
9.700000e-07	-3.726320e-06	-1.247542e-09	-2.598014e+01	-8.344715e+01
9.800000e-07	-3.691335e-06	-1.241613e-09	-2.573622e+01	-8.296971e+01
9.900000e-07	-3.656133e-06	-1.234851e-09	-2.549079e+01	-8.248824e+01
1.000000e-06	-3.620813e-06	-1.223182e-09	-2.524454e+01	-8.200257e+01
1.010000e-06	-3.585267e-06	-1.216970e-09	-2.499671e+01	-8.151251e+01
1.020000e-06	-3.549456e-06	-1.211687e-09	-2.474703e+01	-8.101788e+01
1.030000e-06	-3.513431e-06	-1.202900e-09	-2.449586e+01	-8.051848e+01
1.040000e-06	-3.477233e-06	-1.193366e-09	-2.424349e+01	-8.001409e+01
1.050000e-06	-3.440849e-06	-1.186266e-09	-2.398982e+01	-7.950452e+01
1.060000e-06	-3.404141e-06	-1.175466e-09	-2.373389e+01	-7.898954e+01
1.070000e-06	-3.367189e-06	-1.163617e-09	-2.347626e+01	-7.846895e+01
1.080000e-06	-3.330074e-06	-1.155644e-09	-2.321749e+01	-7.794252e+01
1.090000e-06	-3.292694e-06	-1.146370e-09	-2.295688e+01	-7.741004e+01
1.100000e-06	-3.255068e-06	-1.135079e-09	-2.269454e+01	-7.687131e+01
1.110000e-06	-3.217214e-06	-1.127234e-09	-2.243062e+01	-7.632614e+01
1.120000e-06	-3.179111e-06	-1.122101e-09	-2.216497e+01	-7.577432e+01
1.130000e-06	-3.140819e-06	-1.113597e-09	-2.189799e+01	-7.521568e+01
1.140000e-06	-3.102435e-06	-1.103673e-09	-2.163037e+01	-7.465005e+01
1.150000e-06	-3.063795e-06	-1.093559e-09	-2.136098e+01	-7.407728e+01
1.160000e-06	-3.024853e-06	-1.080906e-09	-2.108947e+01	-7.349723e+01
1.170000e-06	-2.985778e-06	-1.068490e-09	-2.081704e+01	-7.290977e+01
1.180000e-06	-2.946508e-06	-1.058293e-09	-2.054324e+01	-7.231480e+01
1.190000e-06	-2.907034e-06	-1.047921e-09	-2.026803e+01	-7.171224e+01
1.200000e-06	-2.867493e-06	-1.035027e-09	-1.999235e+01	-7.110200e+01
1.210000e-06	-2.827834e-06	-1.026409e-09	-1.971584e+01	-7.048405e+01
1.220000e-06	-2.788020e-06	-1.021966e-09	-1.943825e+01	-6.985834e+01
1.230000e-06	-2.748043e-06	-1.014181e-09	-1.915953e+01	-6.922486e+01
1.240000e-06	-2.707850e-06	-1.004372e-09	-1.887930e+01	-6.858361e+01
1.250000e-06	-2.667455e-06	-9.925976e-10	-1.859767e+01	-6.793462e+01
1.260000e-06	-2.626831e-06	-9.803099e-10	-1.831443e+01	-6.727792e+01
1.270000e-06	-2.586058e-06	-9.653465e-10	-1.803016e+01	-6.661355e+01
1.280000e-06	-2.545044e-06	-9.567236e-10	-1.774421e+01	-6.594157e+01
1.290000e-06	-2.503760e-06	-9.503283e-10	-1.745638e+01	-6.526205e+01
1.300000e-06	-2.462273e-06	-9.398062e-10	-1.716713e+01	-6.457508e+01
1.310000e-06	-2.420387e-06	-9.239557e-10	-1.687509e+01	-6.388074e+01
1.320000e-06	-2.378115e-06	-9.079461e-10	-1.658037e+01	-6.317911e+01
1.330000e-06	-2.335547e-06	-8.948331e-10	-1.628358e+01	-6.247028e+01
1.340000e-06	-2.292696e-06	-8.845842e-10	-1.598482e+01	-6.175434e+01
1.350000e-06	-2.249627e-06	-8.778604e-10	-1.568454e+01	-6.103137e+01
1.360000e-06	-2.206397e-06	-8.674799e-10	-1.538314e+01	-6.030143e+01
1.370000e-06	-2.163096e-06	-8.565655e-10	-1.508125e+01	-5.956459e+01
1.380000e-06	-2.119677e-06	-8.451382e-10	-1.477852e+01	-5.882090e+01
1.390000e-06	-2.076098e-06	-8.311578e-10	-1.447469e+01	-5.807039e+01
1.400000e-06	-2.032466e-06	-8.178924e-10	-1.417049e+01	-5.731306e+01
1.410000e-06	-1.988749e-06	-8.061452e-10	-1.386568e+01	-5.654889e+01
1.420000e-06	-1.944964e-06	-7.992047e-10	-1.356041e+01	-5.577786e+01
1.430000e-06	-1.901109e-06	-7.920401e-10	-1.325465e+01	-5.499989e+01
1.440000e-06	-1.857171e-06	-7.814614e-10	-1.294831e+01	-5.421489e+01
1.450000e-06	-1.813180e-06	-7.696943e-10	-1.264161e+01	-5.342272e+01
1.460000e-06	-1.769053e-06	-7.542184e-10	-1.233395e+01	-5.262322e+01
1.470000e-06	-1.724769e-06	-7.352294e-10	-1.202520e+01	-5.181620e+01
1.480000e-06	-1.680282e-06	-7.180735e-10	-1.171503e+01	-5.100143e+01
1.490000e-06	-1.635642e-06	-7.047670e-10	-1.140380e+01	-5.017862e+01
1.500000e-06	-1.590975e-06	-6.950553e-10	-1.109238e+01	-4.934748e+01
1.510000e-06	-1.546184e-06	-6.882960e-10	-1.078009e+01	-4.850767e+01
1.520000e-06	-1.501313e-06	-6.789208e-10	-1.046725e+01	-4.765880e+01
1.530000e-06	-1.456361e-06	-6.665357e-10	-1.015384e+01	-4.680047e+01
1.540000e-06	-1.411178e-06	-6.502472e-10	-9.838827e+00	-4.593222e+01
1.550000e-06	-1.365956e-06	-6.317015e-10	-9.523534e+00	-4.505359e+01
1.560000e-06	-1.320702e-06	-6.145176e-10	-9.208019e+00	-4.416407e+01
1.570000e-06	-1.275320e-06	-6.004062e-10	-8.891614e+00	-4.326313e+01
1.580000e-06	-1.229831e-06	-5.885590e-10	-8.574458e+00	-4.235022e+01
1.590000e-06	-1.184216e-06	-5.784269e-10	-8.256429e+00	-4.142477e+01
1.600000e-06	-1.138518e-06	-5.664710e-10	-7.937822e+00	-4.048620e+01
1.610000e-06	-1.092737e-06	-5.495898e-10	-7.618633e+00	-3.953392e+01
1.620000e-06	-1.046903e-06	-5.321792e-10	-7.299078e+00	-3.856732e+01
1.630000e-06	-1.000989e-06	-5.167808e-10	-6.978956e+00	-3.758581e+01
1.640000e-06	-9.550209e-07	-5.028851e-10	-6.658467e+00	-3.658879e+01
1.650000e-06	-9.090508e-07	-4.885324e-10	-6.337961e+00	-3.557569e+01
1.660000e-06	-8.630018e-07	-4.746710e-10	-6.016904e+00	-3.454594e+01
1.670000e-06	-8.168802e-07	-4.591295e-10	-5.695341e+00	-3.349899e+01
1.680000e-06	-7.706801e-07	-4.394249e-10	-5.373231e+00	-3.243433e+01
1.690000e-06	-7.243302e-07	-4.190606e-10	-5.050076e+00	-3.135147e+01
1.700000e-06	-6.779057e-07	-4.009540e-10	-4.726402e+00	-3.024998e+01
1.710000e-06	-6.313888e-07	-3.845920e-10	-4.402083e+00	-2.912945e+01
1.720000e-06	-5.848766e-07	-3.690448e-10	-4.077797e+00	-2.798953e+01
1.730000e-06	-5.384659e-07	-3.528868e-10	-3.754219e+00	-2.682993e+01
1.740000e-06	-4.919768e-07	-3.349403e-10	-3.430094e+00	-2.565043e+01
1.750000e-06	-4.453392e-07	-3.160914e-10	-3.104934e+00	-2.445084e+01
1.760000e-06	-3.986778e-07	-2.973305e-10	-2.779607e+00	-2.323107e+01
1.770000e-06	-3.521325e-07	-2.787680e-10	-2.455090e+00	-2.199109e+01
1.780000e-06	-3.055290e-07	-2.603815e-10	-2.130168e+00	-2.073096e+01
1.790000e-06	-2.588368e-07	-2.420006e-10	-1.804627e+00	-1.945080e+01
1.800000e-06	-2.121794e-07	-2.231603e-10	-1.479328e+00	-1.815082e+01
1.810000e-06	-1.654866e-07	-2.032810e-10	-1.153783e+00	-1.683132e+01
1.820000e-06	-1.187515e-07	-1.848601e-10	-8.279434e-01	-1.549268e+01
1.830000e-06	-7.205209e-08	-1.687211e-10	-5.023518e-01	-1.413535e+01
1.840000e-06	-2.542695e-08	-1.519065e-10	-1.772784e-01	-1.275989e+01
1.850000e-06	2.122488e-08	-1.342740e-10	1.479812e-01	-1.136693e+01
1.860000e-06	6.790929e-08	-1.154178e-10	4.734679e-01	-9.957185e+00
1.870000e-06	1.144688e-07	-9.385717e-11	7.980839e-01	-8.531452e+00
1.880000e-06	1.610629e-07	-7.149750e-11	1.122941e+00	-7.090607e+00
1.890000e-06	2.078337e-07	-4.932268e-11	1.449030e+00	-5.635602e+00
1.900000e-06	2.545639e-07	-2.868824e-11	1.774836e+00	-4.167460e+00
1.910000e-06	3.012000e-07	-1.033643e-11	2.099986e+00	-2.687273e+00
1.920000e-06	3.477674e-07	6.845893e-12	2.424657e+00	-1.196193e+00
1.930000e-06	3.943402e-07	2.307700e-11	2.749365e+00	3.045674e-01
1.940000e-06	4.408706e-07	4.136184e-11	3.073778e+00	1.813746e+00
1.950000e-06	4.872792e-07	6.180097e-11	3.397342e+00	3.330033e+00
1.960000e-06	5.335505e-07	8.392393e-11	3.719948e+00	4.852083e+00
1.970000e-06	5.798418e-07	1.083663e-10	4.042694e+00	6.378515e+00
1.980000e-06	6.262367e-07	1.325184e-10	4.366163e+00	7.907926e+00
1.990000e-06	6.726405e-07	1.538835e-10	4.689692e+00	9.438892e+00
2.000000e-06	7.190504e-07	1.717168e-10	5.013265e+00	1.096998e+01
2.010000e-06	7.653414e-07	1.890857e-10	5.336010e+00	1.249976e+01
2.020000e-06	8.115246e-07	2.088482e-10	5.658002e+00	1.402680e+01
2.030000e-06	8.577461e-07	2.316478e-10	5.980260e+00	1.554968e+01
2.040000e-06	9.038823e-07	2.548516e-10	6.301925e+00	1.706701e+01
2.050000e-06	9.497878e-07	2.764632e-10	6.621981e+00	1.857741e+01
2.060000e-06	9.956351e-07	2.966845e-10	6.941632e+00	2.007955e+01
2.070000e-06	1.041417e-06	3.164400e-10	7.260826e+00	2.157213e+01
2.080000e-06	1.087103e-06	3.378505e-10	7.579355e+00	2.305391e+01
2.090000e-06	1.132743e-06	3.595603e-10	7.897557e+00	2.452370e+01
2.100000e-06	1.178286e-06	3.826679e-10	8.215082e+00	2.598035e+01
2.110000e-06	1.223722e-06	4.062536e-10	8.531869e+00	2.742280e+01
2.120000e-06	1.269143e-06	4.270024e-10	8.848545e+00	2.885004e+01
2.130000e-06	1.314496e-06	4.444094e-10	9.164751e+00	3.026115e+01
2.140000e-06	1.359734e-06	4.624654e-10	9.480151e+00	3.165528e+01
2.150000e-06	1.404894e-06	4.822756e-10	9.795008e+00	3.303164e+01
2.160000e-06	1.449908e-06	5.008821e-10	1.010885e+01	3.438955e+01
2.170000e-06	1.494916e-06	5.191451e-10	1.042265e+01	3.572841e+01
2.180000e-06	1.539939e-06	5.393811e-10	1.073655e+01	3.704768e+01
2.190000e-06	1.584740e-06	5.592031e-10	1.104891e+01	3.834692e+01
2.200000e-06	1.629356e-06	5.778186e-10	1.135997e+01	3.962578e+01
2.210000e-06	1.673845e-06	5.953269e-10	1.167015e+01	4.088399e+01
2.220000e-06	1.718143e-06	6.119744e-10	1.197901e+01	4.212135e+01
2.230000e-06	1.762318e-06	6.296439e-10	1.228699e+01	4.333775e+01
2.240000e-06	1.806401e-06	6.462929e-10	1.259434e+01	4.453316e+01
2.250000e-06	1.850312e-06	6.628017e-10	1.290049e+01	4.570761e+01
2.260000e-06	1.894093e-06	6.793996e-10	1.320574e+01	4.686122e+01
2.270000e-06	1.937835e-06	6.962048e-10	1.351071e+01	4.799415e+01
2.280000e-06	1.981545e-06	7.155238e-10	1.381546e+01	4.910665e+01
2.290000e-06	2.025178e-06	7.350046e-10	1.411967e+01	5.019901e+01
2.300000e-06	2.068747e-06	7.522484e-10	1.442343e+01	5.127157e+01
2.310000e-06	2.112240e-06	7.656363e-10	1.472667e+01	5.232472e+01
2.320000e-06	2.155644e-06	7.776465e-10	1.502929e+01	5.335889e+01
2.330000e-06	2.199031e-06	7.912658e-10	1.533179e+01	5.437454e+01
2.340000e-06	2.242285e-06	8.073226e-10	1.563335e+01	5.537217e+01
2.350000e-06	2.285370e-06	8.250376e-10	1.593374e+01	5.635230e+01
2.360000e-06	2.328271e-06	8.450965e-10	1.623286e+01	5.731545e+01
2.370000e-06	2.370834e-06	8.634234e-10	1.652960e+01	5.826218e+01
2.380000e-06	2.413054e-06	8.752927e-10	1.682397e+01	5.919303e+01
2.390000e-06	2.454958e-06	8.854876e-10	1.711613e+01	6.010856e+01
2.400000e-06	2.496587e-06	8.969677e-10	1.740637e+01	6.100931e+01
2.410000e-06	2.537935e-06	9.100732e-10	1.769464e+01	6.189582e+01
2.420000e-06	2.578871e-06	9.240073e-10	1.798005e+01	6.276861e+01
2.430000e-06	2.619494e-06	9.391519e-10	1.826328e+01	6.362818e+01
2.440000e-06	2.660057e-06	9.538708e-10	1.854609e+01	6.447502e+01
2.450000e-06	2.700497e-06	9.646990e-10	1.882803e+01	6.530959e+01
2.460000e-06	2.740600e-06	9.729646e-10	1.910764e+01	6.613231e+01
2.470000e-06	2.780484e-06	9.830838e-10	1.938571e+01	6.694358e+01
2.480000e-06	2.820209e-06	9.954399e-10	1.966268e+01	6.774377e+01
2.490000e-06	2.859752e-06	1.008473e-09	1.993837e+01	6.853319e+01
2.500000e-06	2.899254e-06	1.021761e-09	2.021379e+01	6.931216e+01
2.510000e-06	2.938665e-06	1.035794e-09	2.048856e+01	7.008092e+01
2.520000e-06	2.977907e-06	1.050450e-09	2.076216e+01	7.083970e+01
2.530000e-06	3.016948e-06	1.063369e-09	2.103436e+01	7.158868e+01
2.540000e-06	3.055759e-06	1.072142e-09	2.130495e+01	7.232801e+01
2.550000e-06	3.094336e-06	1.079462e-09	2.157391e+01	7.305781e+01
2.560000e-06	3.132662e-06	1.089018e-09	2.184112e+01	7.377816e+01
2.570000e-06	3.170732e-06	1.099442e-09	2.210655e+01	7.448911e+01
2.580000e-06	3.208628e-06	1.109883e-09	2.237076e+01	7.519069e+01
2.590000e-06	3.246349e-06	1.122003e-09	2.263375e+01	7.588291e+01
2.600000e-06	3.283828e-06	1.133749e-09	2.289506e+01	7.656572e+01
2.610000e-06	3.321109e-06	1.144453e-09	2.315498e+01	7.723910e+01
2.620000e-06	3.358199e-06	1.150436e-09	2.341358e+01	7.790297e+01
2.630000e-06	3.395045e-06	1.153751e-09	2.367047e+01	7.855727e+01
2.640000e-06	3.431607e-06	1.159911e-09	2.392538e+01	7.920191e+01
2.650000e-06	3.467956e-06	1.168563e-09	2.417881e+01	7.983681e+01
2.660000e-06	3.504095e-06	1.179193e-09	2.443077e+01	8.046186e+01
2.670000e-06	3.540005e-06	1.189481e-09	2.468114e+01	8.107698e+01
2.680000e-06	3.575748e-06	1.199820e-09	2.493034e+01	8.168208e+01
2.690000e-06	3.611337e-06	1.210917e-09	2.517847e+01	8.227706e+01
2.700000e-06	3.646733e-06	1.221133e-09	2.542526e+01	8.286187e+01
2.710000e-06	3.681991e-06	1.228031e-09	2.567108e+01	8.343644e+01
2.720000e-06	3.717099e-06	1.235091e-09	2.591586e+01	8.400073e+01
2.730000e-06	3.751886e-06	1.243344e-09	2.615839e+01	8.455470e+01
2.740000e-06	3.786315e-06	1.249364e-09	2.639843e+01	8.509836e+01
2.750000e-06	3.820309e-06	1.254473e-09	2.663544e+01	8.563170e+01
2.760000e-06	3.853755e-06	1.260043e-09	2.686863e+01	8.615478e+01
2.770000e-06	3.886769e-06	1.265927e-09	2.709881e+01	8.666765e+01
2.780000e-06	3.919411e-06	1.272407e-09	2.732638e+01	8.717040e+01
2.790000e-06	3.951802e-06	1.281474e-09	2.755222e+01	8.766313e+01
2.800000e-06	3.983925e-06	1.292134e-09	2.777618e+01	8.814598e+01
2.810000e-06	4.015687e-06	1.300393e-09	2.799762e+01	8.861910e+01
2.820000e-06	4.047216e-06	1.307302e-09	2.821745e+01	8.908269e+01
2.830000e-06	4.078567e-06	1.313553e-09	2.843603e+01	8.953694e+01
2.840000e-06	4.109721e-06	1.318023e-09	2.865324e+01	8.998209e+01
2.850000e-06	4.140659e-06	1.323487e-09	2.886894e+01	9.041838e+01
2.860000e-06	4.171338e-06	1.332617e-09	2.908284e+01	9.084607e+01
2.870000e-06	4.201724e-06	1.342385e-09	2.929469e+01	9.126546e+01
2.880000e-06	4.231790e-06	1.351804e-09	2.950431e+01	9.167682e+01
2.890000e-06	4.261555e-06	1.361348e-09	2.971183e+01	9.208048e+01
2.900000e-06	4.291038e-06	1.370317e-09	2.991739e+01	9.247674e+01
