# Temperatura_=_-0.5
# Concentracion g/m^3_=_1620.0
# C_Vs_to_Am_M_A/Vsm_=_65563218390.804596
# pendiente_HvsI_1/m_=_3716.3
# ordenada_HvsI_A/m_=_1297.0
# frecuencia_Hz_=_135096.0649611309

Tiempo_(s)	Campo_(V.s)	Magnetizacion_(V.s)	Campo_(kA/m)	Magnetizacion_(A/m)
0.000000e+00	-5.512719e-06	-1.375644e-09	-3.837473e+01	-9.088905e+01
1.000000e-08	-5.512842e-06	-1.376616e-09	-3.837559e+01	-9.084179e+01
2.000000e-08	-5.512647e-06	-1.376780e-09	-3.837423e+01	-9.079588e+01
3.000000e-08	-5.511945e-06	-1.372903e-09	-3.836934e+01	-9.075138e+01
4.000000e-08	-5.510729e-06	-1.364784e-09	-3.836088e+01	-9.070835e+01
5.000000e-08	-5.509058e-06	-1.357856e-09	-3.834925e+01	-9.066681e+01
6.000000e-08	-5.506840e-06	-1.379273e-09	-3.833381e+01	-9.062676e+01
7.000000e-08	-5.503918e-06	-1.401857e-09	-3.831347e+01	-9.058817e+01
8.000000e-08	-5.500537e-06	-1.344730e-09	-3.828993e+01	-9.055097e+01
9.000000e-08	-5.496919e-06	-1.358866e-09	-3.826474e+01	-9.051507e+01
1.000000e-07	-5.492958e-06	-1.476009e-09	-3.823717e+01	-9.048035e+01
1.100000e-07	-5.488564e-06	-1.443091e-09	-3.820658e+01	-9.044665e+01
1.200000e-07	-5.483834e-06	-1.291213e-09	-3.817366e+01	-9.041380e+01
1.300000e-07	-5.478879e-06	-1.277740e-09	-3.813917e+01	-9.038159e+01
1.400000e-07	-5.473571e-06	-1.414302e-09	-3.810221e+01	-9.034979e+01
1.500000e-07	-5.467796e-06	-1.457040e-09	-3.806201e+01	-9.031814e+01
1.600000e-07	-5.461618e-06	-1.290921e-09	-3.801901e+01	-9.028637e+01
1.700000e-07	-5.455148e-06	-1.339863e-09	-3.797397e+01	-9.025416e+01
1.800000e-07	-5.448282e-06	-1.439090e-09	-3.792618e+01	-9.022120e+01
1.900000e-07	-5.440979e-06	-1.465090e-09	-3.787534e+01	-9.018716e+01
2.000000e-07	-5.433394e-06	-1.308699e-09	-3.782254e+01	-9.015166e+01
2.100000e-07	-5.425673e-06	-1.332086e-09	-3.776879e+01	-9.011435e+01
2.200000e-07	-5.417649e-06	-1.415652e-09	-3.771294e+01	-9.007485e+01
2.300000e-07	-5.409105e-06	-1.460641e-09	-3.765346e+01	-9.003276e+01
2.400000e-07	-5.400049e-06	-1.395393e-09	-3.759042e+01	-8.998769e+01
2.500000e-07	-5.390328e-06	-1.381425e-09	-3.752275e+01	-8.993925e+01
2.600000e-07	-5.379839e-06	-1.411263e-09	-3.744973e+01	-8.988704e+01
2.700000e-07	-5.368893e-06	-1.394897e-09	-3.737354e+01	-8.983065e+01
2.800000e-07	-5.357605e-06	-1.375070e-09	-3.729496e+01	-8.976969e+01
2.900000e-07	-5.345856e-06	-1.350749e-09	-3.721318e+01	-8.970379e+01
3.000000e-07	-5.333705e-06	-1.382834e-09	-3.712859e+01	-8.963256e+01
3.100000e-07	-5.321254e-06	-1.375685e-09	-3.704192e+01	-8.955564e+01
3.200000e-07	-5.308359e-06	-1.393144e-09	-3.695215e+01	-8.947267e+01
3.300000e-07	-5.294969e-06	-1.330997e-09	-3.685895e+01	-8.938332e+01
3.400000e-07	-5.281277e-06	-1.382093e-09	-3.676363e+01	-8.928729e+01
3.500000e-07	-5.267284e-06	-1.375079e-09	-3.666622e+01	-8.918426e+01
3.600000e-07	-5.252718e-06	-1.343688e-09	-3.656483e+01	-8.907398e+01
3.700000e-07	-5.237627e-06	-1.321469e-09	-3.645978e+01	-8.895618e+01
3.800000e-07	-5.222250e-06	-1.423153e-09	-3.635274e+01	-8.883065e+01
3.900000e-07	-5.206232e-06	-1.353050e-09	-3.624124e+01	-8.869720e+01
4.000000e-07	-5.189625e-06	-1.288777e-09	-3.612563e+01	-8.855564e+01
4.100000e-07	-5.172798e-06	-1.377330e-09	-3.600850e+01	-8.840585e+01
4.200000e-07	-5.155639e-06	-1.424264e-09	-3.588905e+01	-8.824772e+01
4.300000e-07	-5.138078e-06	-1.267539e-09	-3.576681e+01	-8.808115e+01
4.400000e-07	-5.120344e-06	-1.317018e-09	-3.564336e+01	-8.790611e+01
4.500000e-07	-5.102268e-06	-1.448562e-09	-3.551753e+01	-8.772258e+01
4.600000e-07	-5.083601e-06	-1.332783e-09	-3.538759e+01	-8.753056e+01
4.700000e-07	-5.064579e-06	-1.241997e-09	-3.525517e+01	-8.733010e+01
4.800000e-07	-5.045328e-06	-1.405551e-09	-3.512116e+01	-8.712126e+01
4.900000e-07	-5.025745e-06	-1.384145e-09	-3.498484e+01	-8.690414e+01
5.000000e-07	-5.005899e-06	-1.236474e-09	-3.484669e+01	-8.667887e+01
5.100000e-07	-4.985863e-06	-1.343285e-09	-3.470722e+01	-8.644560e+01
5.200000e-07	-4.965547e-06	-1.410832e-09	-3.456580e+01	-8.620451e+01
5.300000e-07	-4.944800e-06	-1.254864e-09	-3.442138e+01	-8.595578e+01
5.400000e-07	-4.923714e-06	-1.282410e-09	-3.427459e+01	-8.569965e+01
5.500000e-07	-4.902310e-06	-1.415318e-09	-3.412560e+01	-8.543635e+01
5.600000e-07	-4.880537e-06	-1.288083e-09	-3.397403e+01	-8.516615e+01
5.700000e-07	-4.858517e-06	-1.230506e-09	-3.382075e+01	-8.488930e+01
5.800000e-07	-4.836240e-06	-1.363807e-09	-3.366568e+01	-8.460610e+01
5.900000e-07	-4.813558e-06	-1.333439e-09	-3.350778e+01	-8.431685e+01
6.000000e-07	-4.790439e-06	-1.218510e-09	-3.334685e+01	-8.402185e+01
6.100000e-07	-4.766987e-06	-1.310846e-09	-3.318360e+01	-8.372142e+01
6.200000e-07	-4.743322e-06	-1.322108e-09	-3.301886e+01	-8.341586e+01
6.300000e-07	-4.719454e-06	-1.226058e-09	-3.285272e+01	-8.310551e+01
6.400000e-07	-4.695347e-06	-1.255440e-09	-3.268490e+01	-8.279067e+01
6.500000e-07	-4.670912e-06	-1.313100e-09	-3.251480e+01	-8.247166e+01
6.600000e-07	-4.646014e-06	-1.229994e-09	-3.234149e+01	-8.214879e+01
6.700000e-07	-4.620606e-06	-1.236149e-09	-3.216462e+01	-8.182237e+01
6.800000e-07	-4.594538e-06	-1.287660e-09	-3.198315e+01	-8.149268e+01
6.900000e-07	-4.567917e-06	-1.252189e-09	-3.179784e+01	-8.116001e+01
7.000000e-07	-4.540944e-06	-1.215739e-09	-3.161008e+01	-8.082463e+01
7.100000e-07	-4.513641e-06	-1.260488e-09	-3.142002e+01	-8.048678e+01
7.200000e-07	-4.486012e-06	-1.240298e-09	-3.122769e+01	-8.014670e+01
7.300000e-07	-4.458205e-06	-1.209955e-09	-3.103412e+01	-7.980462e+01
7.400000e-07	-4.430352e-06	-1.226833e-09	-3.084024e+01	-7.946072e+01
7.500000e-07	-4.402272e-06	-1.230293e-09	-3.064477e+01	-7.911518e+01
7.600000e-07	-4.373795e-06	-1.197852e-09	-3.044654e+01	-7.876816e+01
7.700000e-07	-4.344994e-06	-1.205640e-09	-3.024605e+01	-7.841979e+01
7.800000e-07	-4.315893e-06	-1.204396e-09	-3.004348e+01	-7.807018e+01
7.900000e-07	-4.286458e-06	-1.175808e-09	-2.983857e+01	-7.771941e+01
8.000000e-07	-4.256777e-06	-1.173607e-09	-2.963196e+01	-7.736754e+01
8.100000e-07	-4.226934e-06	-1.181720e-09	-2.942422e+01	-7.701462e+01
8.200000e-07	-4.196781e-06	-1.161747e-09	-2.921432e+01	-7.666064e+01
8.300000e-07	-4.166269e-06	-1.150745e-09	-2.900192e+01	-7.630560e+01
8.400000e-07	-4.135428e-06	-1.167755e-09	-2.878724e+01	-7.594947e+01
8.500000e-07	-4.104273e-06	-1.151434e-09	-2.857036e+01	-7.559218e+01
8.600000e-07	-4.072874e-06	-1.128584e-09	-2.835179e+01	-7.523366e+01
8.700000e-07	-4.041273e-06	-1.125972e-09	-2.813181e+01	-7.487381e+01
8.800000e-07	-4.009555e-06	-1.121685e-09	-2.791102e+01	-7.451250e+01
8.900000e-07	-3.977664e-06	-1.100026e-09	-2.768902e+01	-7.414960e+01
9.000000e-07	-3.945549e-06	-1.107009e-09	-2.746546e+01	-7.378495e+01
9.100000e-07	-3.913192e-06	-1.112195e-09	-2.724022e+01	-7.341839e+01
9.200000e-07	-3.880509e-06	-1.096259e-09	-2.701271e+01	-7.304972e+01
9.300000e-07	-3.847376e-06	-1.082911e-09	-2.678207e+01	-7.267875e+01
9.400000e-07	-3.813727e-06	-1.090193e-09	-2.654783e+01	-7.230527e+01
9.500000e-07	-3.779555e-06	-1.070529e-09	-2.630996e+01	-7.192906e+01
9.600000e-07	-3.744918e-06	-1.049250e-09	-2.606885e+01	-7.154990e+01
9.700000e-07	-3.709916e-06	-1.048244e-09	-2.582519e+01	-7.116757e+01
9.800000e-07	-3.674623e-06	-1.054457e-09	-2.557951e+01	-7.078182e+01
9.900000e-07	-3.639131e-06	-1.044275e-09	-2.533245e+01	-7.039244e+01
1.000000e-06	-3.603491e-06	-1.049844e-09	-2.508436e+01	-6.999918e+01
1.010000e-06	-3.567715e-06	-1.047862e-09	-2.483532e+01	-6.960181e+01
1.020000e-06	-3.531871e-06	-1.032118e-09	-2.458580e+01	-6.920012e+01
1.030000e-06	-3.495873e-06	-1.014385e-09	-2.433521e+01	-6.879387e+01
1.040000e-06	-3.459583e-06	-1.008802e-09	-2.408260e+01	-6.838287e+01
1.050000e-06	-3.423084e-06	-9.964841e-10	-2.382852e+01	-6.796690e+01
1.060000e-06	-3.386300e-06	-9.880932e-10	-2.357246e+01	-6.754577e+01
1.070000e-06	-3.349180e-06	-9.932779e-10	-2.331406e+01	-6.711930e+01
1.080000e-06	-3.311790e-06	-9.940782e-10	-2.305379e+01	-6.668732e+01
1.090000e-06	-3.274121e-06	-9.823503e-10	-2.279157e+01	-6.624967e+01
1.100000e-06	-3.236271e-06	-9.729885e-10	-2.252809e+01	-6.580622e+01
1.110000e-06	-3.198235e-06	-9.624184e-10	-2.226332e+01	-6.535684e+01
1.120000e-06	-3.159954e-06	-9.415395e-10	-2.199683e+01	-6.490141e+01
1.130000e-06	-3.121377e-06	-9.307538e-10	-2.172830e+01	-6.443984e+01
1.140000e-06	-3.082576e-06	-9.293577e-10	-2.145820e+01	-6.397204e+01
1.150000e-06	-3.043715e-06	-9.260193e-10	-2.118768e+01	-6.349797e+01
1.160000e-06	-3.004687e-06	-9.195160e-10	-2.091600e+01	-6.301755e+01
1.170000e-06	-2.965428e-06	-9.178064e-10	-2.064272e+01	-6.253077e+01
1.180000e-06	-2.925951e-06	-9.088856e-10	-2.036791e+01	-6.203759e+01
1.190000e-06	-2.886318e-06	-8.959919e-10	-2.009202e+01	-6.153801e+01
1.200000e-06	-2.846630e-06	-8.829452e-10	-1.981575e+01	-6.103204e+01
1.210000e-06	-2.806783e-06	-8.738683e-10	-1.953837e+01	-6.051969e+01
1.220000e-06	-2.766807e-06	-8.602378e-10	-1.926009e+01	-6.000098e+01
1.230000e-06	-2.726709e-06	-8.560780e-10	-1.898096e+01	-5.947595e+01
1.240000e-06	-2.686339e-06	-8.532145e-10	-1.869995e+01	-5.894463e+01
1.250000e-06	-2.645737e-06	-8.482731e-10	-1.841731e+01	-5.840708e+01
1.260000e-06	-2.604933e-06	-8.355982e-10	-1.813327e+01	-5.786333e+01
1.270000e-06	-2.563858e-06	-8.228725e-10	-1.784734e+01	-5.731343e+01
1.280000e-06	-2.522593e-06	-8.135129e-10	-1.756009e+01	-5.675744e+01
1.290000e-06	-2.481059e-06	-8.062893e-10	-1.727097e+01	-5.619540e+01
1.300000e-06	-2.439088e-06	-7.977183e-10	-1.697880e+01	-5.562734e+01
1.310000e-06	-2.396747e-06	-7.904660e-10	-1.668406e+01	-5.505329e+01
1.320000e-06	-2.354102e-06	-7.815940e-10	-1.638720e+01	-5.447328e+01
1.330000e-06	-2.311264e-06	-7.734393e-10	-1.608900e+01	-5.388733e+01
1.340000e-06	-2.268202e-06	-7.633744e-10	-1.578924e+01	-5.329541e+01
1.350000e-06	-2.224922e-06	-7.517197e-10	-1.548796e+01	-5.269752e+01
1.360000e-06	-2.181542e-06	-7.386289e-10	-1.518599e+01	-5.209363e+01
1.370000e-06	-2.138084e-06	-7.297094e-10	-1.488347e+01	-5.148367e+01
1.380000e-06	-2.094496e-06	-7.215807e-10	-1.458005e+01	-5.086757e+01
1.390000e-06	-2.050752e-06	-7.132719e-10	-1.427554e+01	-5.024522e+01
1.400000e-06	-2.006961e-06	-7.042753e-10	-1.397071e+01	-4.961652e+01
1.410000e-06	-1.963106e-06	-6.933410e-10	-1.366543e+01	-4.898131e+01
1.420000e-06	-1.919128e-06	-6.840663e-10	-1.335929e+01	-4.833942e+01
1.430000e-06	-1.875106e-06	-6.747564e-10	-1.305285e+01	-4.769064e+01
1.440000e-06	-1.831043e-06	-6.637486e-10	-1.274612e+01	-4.703475e+01
1.450000e-06	-1.786809e-06	-6.525893e-10	-1.243820e+01	-4.637149e+01
1.460000e-06	-1.742447e-06	-6.391293e-10	-1.212939e+01	-4.570059e+01
1.470000e-06	-1.697964e-06	-6.218726e-10	-1.181974e+01	-4.502172e+01
1.480000e-06	-1.653415e-06	-6.082280e-10	-1.150963e+01	-4.433455e+01
1.490000e-06	-1.608779e-06	-5.999802e-10	-1.119892e+01	-4.363872e+01
1.500000e-06	-1.563922e-06	-5.953253e-10	-1.088666e+01	-4.293383e+01
1.510000e-06	-1.518859e-06	-5.887435e-10	-1.057297e+01	-4.221947e+01
1.520000e-06	-1.473683e-06	-5.805611e-10	-1.025849e+01	-4.149520e+01
1.530000e-06	-1.428473e-06	-5.662092e-10	-9.943778e+00	-4.076055e+01
1.540000e-06	-1.383182e-06	-5.486300e-10	-9.628501e+00	-4.001506e+01
1.550000e-06	-1.337787e-06	-5.300677e-10	-9.312506e+00	-3.925822e+01
1.560000e-06	-1.292384e-06	-5.153763e-10	-8.996446e+00	-3.848952e+01
1.570000e-06	-1.246876e-06	-5.005319e-10	-8.679658e+00	-3.770844e+01
1.580000e-06	-1.201147e-06	-4.915913e-10	-8.361337e+00	-3.691445e+01
1.590000e-06	-1.155325e-06	-4.841793e-10	-8.042366e+00	-3.610701e+01
1.600000e-06	-1.109470e-06	-4.721805e-10	-7.723163e+00	-3.528557e+01
1.610000e-06	-1.063606e-06	-4.555088e-10	-7.403897e+00	-3.444961e+01
1.620000e-06	-1.017656e-06	-4.419205e-10	-7.084028e+00	-3.359858e+01
1.630000e-06	-9.715718e-07	-4.316608e-10	-6.763233e+00	-3.273196e+01
1.640000e-06	-9.254445e-07	-4.205887e-10	-6.442136e+00	-3.184924e+01
1.650000e-06	-8.792613e-07	-4.067120e-10	-6.120649e+00	-3.094991e+01
1.660000e-06	-8.331077e-07	-3.906728e-10	-5.799368e+00	-3.003350e+01
1.670000e-06	-7.869782e-07	-3.734376e-10	-5.478254e+00	-2.909956e+01
1.680000e-06	-7.406531e-07	-3.555868e-10	-5.155779e+00	-2.814766e+01
1.690000e-06	-6.942600e-07	-3.410078e-10	-4.832831e+00	-2.717740e+01
1.700000e-06	-6.479004e-07	-3.277810e-10	-4.510117e+00	-2.618843e+01
1.710000e-06	-6.014782e-07	-3.161778e-10	-4.186965e+00	-2.518044e+01
1.720000e-06	-5.550543e-07	-3.007824e-10	-3.863803e+00	-2.415313e+01
1.730000e-06	-5.085734e-07	-2.792846e-10	-3.540243e+00	-2.310629e+01
1.740000e-06	-4.619766e-07	-2.579346e-10	-3.215877e+00	-2.203973e+01
1.750000e-06	-4.153021e-07	-2.394003e-10	-2.890970e+00	-2.095334e+01
1.760000e-06	-3.686761e-07	-2.218573e-10	-2.566401e+00	-1.984703e+01
1.770000e-06	-3.220127e-07	-2.084578e-10	-2.241571e+00	-1.872080e+01
1.780000e-06	-2.751904e-07	-1.982887e-10	-1.915635e+00	-1.757470e+01
1.790000e-06	-2.284219e-07	-1.859566e-10	-1.590074e+00	-1.640883e+01
1.800000e-06	-1.817656e-07	-1.695250e-10	-1.265293e+00	-1.522338e+01
1.810000e-06	-1.350465e-07	-1.502721e-10	-9.400759e-01	-1.401858e+01
1.820000e-06	-8.820292e-08	-1.297448e-10	-6.139917e-01	-1.279475e+01
1.830000e-06	-4.132306e-08	-1.117765e-10	-2.876550e-01	-1.155225e+01
1.840000e-06	5.521477e-09	-9.653363e-11	3.843569e-02	-1.029154e+01
1.850000e-06	5.229905e-08	-8.218621e-11	3.640603e-01	-9.013119e+00
1.860000e-06	9.903061e-08	-6.698716e-11	6.893645e-01	-7.717565e+00
1.870000e-06	1.457524e-07	-4.899392e-11	1.014601e+00	-6.405524e+00
1.880000e-06	1.924436e-07	-2.823993e-11	1.339624e+00	-5.077702e+00
1.890000e-06	2.390188e-07	-7.759541e-12	1.663840e+00	-3.734871e+00
1.900000e-06	2.856129e-07	1.282117e-11	1.988187e+00	-2.377861e+00
1.910000e-06	3.322828e-07	3.209094e-11	2.313062e+00	-1.007562e+00
1.920000e-06	3.789248e-07	4.935888e-11	2.637743e+00	3.750789e-01
1.930000e-06	4.255596e-07	6.538228e-11	2.962374e+00	1.769066e+00
1.940000e-06	4.721191e-07	8.300655e-11	3.286481e+00	3.173351e+00
1.950000e-06	5.186383e-07	1.012805e-10	3.610307e+00	4.586843e+00
1.960000e-06	5.651837e-07	1.189549e-10	3.934315e+00	6.008408e+00
1.970000e-06	6.116840e-07	1.368463e-10	4.258010e+00	7.436877e+00
1.980000e-06	6.581288e-07	1.569627e-10	4.581318e+00	8.871048e+00
1.990000e-06	7.045081e-07	1.786240e-10	4.904169e+00	1.030969e+01
2.000000e-06	7.507517e-07	1.963700e-10	5.226077e+00	1.175155e+01
2.010000e-06	7.969709e-07	2.163888e-10	5.547814e+00	1.319537e+01
2.020000e-06	8.432476e-07	2.400650e-10	5.869953e+00	1.463985e+01
2.030000e-06	8.894472e-07	2.614821e-10	6.191554e+00	1.608371e+01
2.040000e-06	9.355427e-07	2.799313e-10	6.512430e+00	1.752567e+01
2.050000e-06	9.815664e-07	2.985601e-10	6.832807e+00	1.896442e+01
2.060000e-06	1.027492e-06	3.169104e-10	7.152504e+00	2.039870e+01
2.070000e-06	1.073328e-06	3.363990e-10	7.471571e+00	2.182725e+01
2.080000e-06	1.119067e-06	3.585608e-10	7.789964e+00	2.324881e+01
2.090000e-06	1.164719e-06	3.819980e-10	8.107756e+00	2.466216e+01
2.100000e-06	1.210247e-06	4.051100e-10	8.424681e+00	2.606613e+01
2.110000e-06	1.255662e-06	4.255573e-10	8.740820e+00	2.745955e+01
2.120000e-06	1.301120e-06	4.419916e-10	9.057259e+00	2.884129e+01
2.130000e-06	1.346525e-06	4.562201e-10	9.373332e+00	3.021030e+01
2.140000e-06	1.391839e-06	4.716989e-10	9.688768e+00	3.156553e+01
2.150000e-06	1.437073e-06	4.915485e-10	1.000365e+01	3.290601e+01
2.160000e-06	1.482127e-06	5.135660e-10	1.031728e+01	3.423081e+01
2.170000e-06	1.527049e-06	5.346003e-10	1.062998e+01	3.553907e+01
2.180000e-06	1.571848e-06	5.558139e-10	1.094183e+01	3.682997e+01
2.190000e-06	1.616529e-06	5.741603e-10	1.125286e+01	3.810276e+01
2.200000e-06	1.661075e-06	5.895710e-10	1.156295e+01	3.935676e+01
2.210000e-06	1.705426e-06	6.026963e-10	1.187169e+01	4.059136e+01
2.220000e-06	1.749656e-06	6.161608e-10	1.217958e+01	4.180598e+01
2.230000e-06	1.793877e-06	6.317252e-10	1.248740e+01	4.300015e+01
2.240000e-06	1.837985e-06	6.466148e-10	1.279444e+01	4.417344e+01
2.250000e-06	1.882023e-06	6.630916e-10	1.310100e+01	4.532549e+01
2.260000e-06	1.925995e-06	6.796412e-10	1.340709e+01	4.645602e+01
2.270000e-06	1.969837e-06	7.003314e-10	1.371229e+01	4.756481e+01
2.280000e-06	2.013633e-06	7.185898e-10	1.401715e+01	4.865169e+01
2.290000e-06	2.057341e-06	7.345544e-10	1.432141e+01	4.971657e+01
2.300000e-06	2.100980e-06	7.469404e-10	1.462518e+01	5.075941e+01
2.310000e-06	2.144575e-06	7.582829e-10	1.492865e+01	5.178023e+01
2.320000e-06	2.188055e-06	7.723957e-10	1.523132e+01	5.277911e+01
2.330000e-06	2.231401e-06	7.828902e-10	1.553307e+01	5.375617e+01
2.340000e-06	2.274612e-06	7.964600e-10	1.583386e+01	5.471162e+01
2.350000e-06	2.317510e-06	8.155951e-10	1.613248e+01	5.564565e+01
2.360000e-06	2.360131e-06	8.370529e-10	1.642917e+01	5.655856e+01
2.370000e-06	2.402525e-06	8.530036e-10	1.672428e+01	5.745066e+01
2.380000e-06	2.444585e-06	8.616327e-10	1.701706e+01	5.832228e+01
2.390000e-06	2.486404e-06	8.709659e-10	1.730817e+01	5.917381e+01
2.400000e-06	2.527981e-06	8.797581e-10	1.759760e+01	6.000566e+01
2.410000e-06	2.569208e-06	8.889505e-10	1.788458e+01	6.081826e+01
2.420000e-06	2.610177e-06	8.990675e-10	1.816977e+01	6.161206e+01
2.430000e-06	2.650910e-06	9.122667e-10	1.845332e+01	6.238754e+01
2.440000e-06	2.691277e-06	9.264090e-10	1.873432e+01	6.314519e+01
2.450000e-06	2.731396e-06	9.365758e-10	1.901359e+01	6.388548e+01
2.460000e-06	2.771405e-06	9.477498e-10	1.929210e+01	6.460893e+01
2.470000e-06	2.811255e-06	9.578679e-10	1.956950e+01	6.531604e+01
2.480000e-06	2.851027e-06	9.691838e-10	1.984636e+01	6.600730e+01
2.490000e-06	2.890734e-06	9.810190e-10	2.012276e+01	6.668322e+01
2.500000e-06	2.930297e-06	9.900900e-10	2.039816e+01	6.734428e+01
2.510000e-06	2.969657e-06	9.993203e-10	2.067215e+01	6.799097e+01
2.520000e-06	3.008824e-06	1.009437e-09	2.094480e+01	6.862374e+01
2.530000e-06	3.047789e-06	1.017828e-09	2.121604e+01	6.924306e+01
2.540000e-06	3.086536e-06	1.025919e-09	2.148576e+01	6.984937e+01
2.550000e-06	3.125041e-06	1.036143e-09	2.175381e+01	7.044307e+01
2.560000e-06	3.163258e-06	1.049400e-09	2.201984e+01	7.102457e+01
2.570000e-06	3.201278e-06	1.057558e-09	2.228450e+01	7.159426e+01
2.580000e-06	3.239178e-06	1.062159e-09	2.254832e+01	7.215247e+01
2.590000e-06	3.276969e-06	1.066726e-09	2.281139e+01	7.269956e+01
2.600000e-06	3.314544e-06	1.072493e-09	2.307296e+01	7.323582e+01
2.610000e-06	3.351816e-06	1.078926e-09	2.333241e+01	7.376156e+01
2.620000e-06	3.388813e-06	1.086120e-09	2.358995e+01	7.427703e+01
2.630000e-06	3.425532e-06	1.095793e-09	2.384556e+01	7.478248e+01
2.640000e-06	3.461920e-06	1.105250e-09	2.409886e+01	7.527812e+01
2.650000e-06	3.498073e-06	1.113422e-09	2.435053e+01	7.576417e+01
2.660000e-06	3.534112e-06	1.120652e-09	2.460140e+01	7.624080e+01
2.670000e-06	3.569945e-06	1.124566e-09	2.485083e+01	7.670817e+01
2.680000e-06	3.605617e-06	1.128597e-09	2.509916e+01	7.716642e+01
2.690000e-06	3.641146e-06	1.135002e-09	2.534648e+01	7.761569e+01
2.700000e-06	3.676429e-06	1.142354e-09	2.559208e+01	7.805608e+01
2.710000e-06	3.711520e-06	1.150091e-09	2.583636e+01	7.848770e+01
2.720000e-06	3.746314e-06	1.156205e-09	2.607856e+01	7.891063e+01
2.730000e-06	3.780838e-06	1.159933e-09	2.631889e+01	7.932494e+01
2.740000e-06	3.815043e-06	1.162358e-09	2.655699e+01	7.973072e+01
2.750000e-06	3.848577e-06	1.166184e-09	2.679043e+01	8.012802e+01
2.760000e-06	3.881662e-06	1.172250e-09	2.702074e+01	8.051691e+01
2.770000e-06	3.914551e-06	1.179085e-09	2.724968e+01	8.089743e+01
2.780000e-06	3.947057e-06	1.186555e-09	2.747596e+01	8.126964e+01
2.790000e-06	3.979162e-06	1.193850e-09	2.769945e+01	8.163359e+01
2.800000e-06	4.011035e-06	1.197679e-09	2.792132e+01	8.198935e+01
2.810000e-06	4.042759e-06	1.199582e-09	2.814215e+01	8.233697e+01
2.820000e-06	4.074308e-06	1.203032e-09	2.836177e+01	8.267651e+01
2.830000e-06	4.105645e-06	1.208801e-09	2.857991e+01	8.300804e+01
2.840000e-06	4.136717e-06	1.215840e-09	2.879621e+01	8.333163e+01
2.850000e-06	4.167534e-06	1.225879e-09	2.901073e+01	8.364736e+01
2.860000e-06	4.198087e-06	1.233966e-09	2.922341e+01	8.395532e+01
2.870000e-06	4.228280e-06	1.238334e-09	2.943359e+01	8.425560e+01
2.880000e-06	4.258194e-06	1.242923e-09	2.964182e+01	8.454831e+01
2.890000e-06	4.287803e-06	1.248928e-09	2.984793e+01	8.483355e+01
2.900000e-06	4.317117e-06	1.254062e-09	3.005199e+01	8.511145e+01
2.910000e-06	4.346172e-06	1.259363e-09	3.025425e+01	8.538212e+01
