# Temperatura_=_-0.6
# Concentracion g/m^3_=_1620.0
# C_Vs_to_Am_M_A/Vsm_=_65563218390.804596
# pendiente_HvsI_1/m_=_3716.3
# ordenada_HvsI_A/m_=_1297.0
# frecuencia_Hz_=_135098.4405353049

Tiempo_(s)	Campo_(V.s)	Magnetizacion_(V.s)	Campo_(kA/m)	Magnetizacion_(A/m)
0.000000e+00	-5.509333e-06	-1.396178e-09	-3.836921e+01	-9.066235e+01
1.000000e-08	-5.509580e-06	-1.393718e-09	-3.837093e+01	-9.060678e+01
2.000000e-08	-5.509610e-06	-1.393582e-09	-3.837114e+01	-9.054868e+01
3.000000e-08	-5.509269e-06	-1.394259e-09	-3.836877e+01	-9.048798e+01
4.000000e-08	-5.508473e-06	-1.394113e-09	-3.836323e+01	-9.042463e+01
5.000000e-08	-5.507201e-06	-1.389067e-09	-3.835436e+01	-9.035858e+01
6.000000e-08	-5.505314e-06	-1.392146e-09	-3.834122e+01	-9.028979e+01
7.000000e-08	-5.502838e-06	-1.411073e-09	-3.832398e+01	-9.021823e+01
8.000000e-08	-5.499806e-06	-1.408799e-09	-3.830286e+01	-9.014386e+01
9.000000e-08	-5.496301e-06	-1.393769e-09	-3.827845e+01	-9.006667e+01
1.000000e-07	-5.492409e-06	-1.422088e-09	-3.825135e+01	-8.998664e+01
1.100000e-07	-5.488038e-06	-1.400039e-09	-3.822091e+01	-8.990375e+01
1.200000e-07	-5.483385e-06	-1.377666e-09	-3.818850e+01	-8.981803e+01
1.300000e-07	-5.478634e-06	-1.348793e-09	-3.815541e+01	-8.972947e+01
1.400000e-07	-5.473538e-06	-1.388802e-09	-3.811992e+01	-8.963809e+01
1.500000e-07	-5.468006e-06	-1.398642e-09	-3.808139e+01	-8.954391e+01
1.600000e-07	-5.462128e-06	-1.363200e-09	-3.804046e+01	-8.944698e+01
1.700000e-07	-5.455881e-06	-1.382327e-09	-3.799695e+01	-8.934731e+01
1.800000e-07	-5.449209e-06	-1.394350e-09	-3.795048e+01	-8.924497e+01
1.900000e-07	-5.442218e-06	-1.387118e-09	-3.790180e+01	-8.913998e+01
2.000000e-07	-5.434908e-06	-1.312012e-09	-3.785089e+01	-8.903242e+01
2.100000e-07	-5.427239e-06	-1.329191e-09	-3.779748e+01	-8.892232e+01
2.200000e-07	-5.419254e-06	-1.348311e-09	-3.774186e+01	-8.880976e+01
2.300000e-07	-5.410983e-06	-1.373450e-09	-3.768426e+01	-8.869479e+01
2.400000e-07	-5.402425e-06	-1.329957e-09	-3.762466e+01	-8.857747e+01
2.500000e-07	-5.393310e-06	-1.335375e-09	-3.756118e+01	-8.845786e+01
2.600000e-07	-5.383396e-06	-1.331634e-09	-3.749213e+01	-8.833601e+01
2.700000e-07	-5.372920e-06	-1.330729e-09	-3.741918e+01	-8.821200e+01
2.800000e-07	-5.361997e-06	-1.319001e-09	-3.734310e+01	-8.808586e+01
2.900000e-07	-5.350510e-06	-1.336739e-09	-3.726311e+01	-8.795765e+01
3.000000e-07	-5.338639e-06	-1.334018e-09	-3.718043e+01	-8.782741e+01
3.100000e-07	-5.326479e-06	-1.318034e-09	-3.709575e+01	-8.769518e+01
3.200000e-07	-5.313879e-06	-1.319138e-09	-3.700799e+01	-8.756099e+01
3.300000e-07	-5.300850e-06	-1.313534e-09	-3.691725e+01	-8.742485e+01
3.400000e-07	-5.287443e-06	-1.320870e-09	-3.682388e+01	-8.728679e+01
3.500000e-07	-5.273630e-06	-1.320011e-09	-3.672768e+01	-8.714680e+01
3.600000e-07	-5.259357e-06	-1.317879e-09	-3.662828e+01	-8.700489e+01
3.700000e-07	-5.244693e-06	-1.306943e-09	-3.652615e+01	-8.686104e+01
3.800000e-07	-5.229593e-06	-1.332426e-09	-3.642099e+01	-8.671522e+01
3.900000e-07	-5.213896e-06	-1.318336e-09	-3.631167e+01	-8.656740e+01
4.000000e-07	-5.197759e-06	-1.290310e-09	-3.619929e+01	-8.641754e+01
4.100000e-07	-5.181245e-06	-1.289580e-09	-3.608428e+01	-8.626557e+01
4.200000e-07	-5.164332e-06	-1.320566e-09	-3.596649e+01	-8.611144e+01
4.300000e-07	-5.147147e-06	-1.286794e-09	-3.584680e+01	-8.595507e+01
4.400000e-07	-5.129682e-06	-1.289252e-09	-3.572517e+01	-8.579637e+01
4.500000e-07	-5.111837e-06	-1.319243e-09	-3.560089e+01	-8.563526e+01
4.600000e-07	-5.093469e-06	-1.314949e-09	-3.547297e+01	-8.547162e+01
4.700000e-07	-5.074671e-06	-1.273887e-09	-3.534205e+01	-8.530537e+01
4.800000e-07	-5.055557e-06	-1.304818e-09	-3.520893e+01	-8.513637e+01
4.900000e-07	-5.036049e-06	-1.304141e-09	-3.507307e+01	-8.496451e+01
5.000000e-07	-5.016326e-06	-1.272440e-09	-3.493571e+01	-8.478967e+01
5.100000e-07	-4.996434e-06	-1.275430e-09	-3.479718e+01	-8.461172e+01
5.200000e-07	-4.976252e-06	-1.303313e-09	-3.465662e+01	-8.443053e+01
5.300000e-07	-4.955771e-06	-1.273606e-09	-3.451399e+01	-8.424597e+01
5.400000e-07	-4.935004e-06	-1.276762e-09	-3.436936e+01	-8.405790e+01
5.500000e-07	-4.913871e-06	-1.297665e-09	-3.422217e+01	-8.386620e+01
5.600000e-07	-4.892413e-06	-1.273404e-09	-3.407273e+01	-8.367074e+01
5.700000e-07	-4.870664e-06	-1.250324e-09	-3.392126e+01	-8.347138e+01
5.800000e-07	-4.848544e-06	-1.277649e-09	-3.376722e+01	-8.326802e+01
5.900000e-07	-4.826031e-06	-1.272639e-09	-3.361043e+01	-8.306053e+01
6.000000e-07	-4.803257e-06	-1.246895e-09	-3.345182e+01	-8.284881e+01
6.100000e-07	-4.780180e-06	-1.257162e-09	-3.329110e+01	-8.263275e+01
6.200000e-07	-4.756701e-06	-1.257033e-09	-3.312758e+01	-8.241226e+01
6.300000e-07	-4.732912e-06	-1.234527e-09	-3.296191e+01	-8.218724e+01
6.400000e-07	-4.708934e-06	-1.233425e-09	-3.279491e+01	-8.195763e+01
6.500000e-07	-4.684734e-06	-1.241828e-09	-3.262638e+01	-8.172336e+01
6.600000e-07	-4.660151e-06	-1.221528e-09	-3.245517e+01	-8.148436e+01
6.700000e-07	-4.635075e-06	-1.219247e-09	-3.228053e+01	-8.124059e+01
6.800000e-07	-4.609412e-06	-1.224995e-09	-3.210180e+01	-8.099202e+01
6.900000e-07	-4.583151e-06	-1.219716e-09	-3.191891e+01	-8.073861e+01
7.000000e-07	-4.556422e-06	-1.206522e-09	-3.173276e+01	-8.048036e+01
7.100000e-07	-4.529351e-06	-1.211630e-09	-3.154422e+01	-8.021725e+01
7.200000e-07	-4.501958e-06	-1.201195e-09	-3.135345e+01	-7.994929e+01
7.300000e-07	-4.474275e-06	-1.194172e-09	-3.116065e+01	-7.967649e+01
7.400000e-07	-4.446408e-06	-1.189525e-09	-3.096658e+01	-7.939888e+01
7.500000e-07	-4.418414e-06	-1.189466e-09	-3.077161e+01	-7.911649e+01
7.600000e-07	-4.390200e-06	-1.177130e-09	-3.057512e+01	-7.882935e+01
7.700000e-07	-4.361685e-06	-1.175904e-09	-3.037653e+01	-7.853752e+01
7.800000e-07	-4.332855e-06	-1.170160e-09	-3.017575e+01	-7.824104e+01
7.900000e-07	-4.303676e-06	-1.164955e-09	-2.997253e+01	-7.793997e+01
8.000000e-07	-4.274194e-06	-1.155631e-09	-2.976721e+01	-7.763436e+01
8.100000e-07	-4.244465e-06	-1.151927e-09	-2.956017e+01	-7.732430e+01
8.200000e-07	-4.214449e-06	-1.139872e-09	-2.935112e+01	-7.700983e+01
8.300000e-07	-4.184087e-06	-1.132628e-09	-2.913967e+01	-7.669103e+01
8.400000e-07	-4.153342e-06	-1.130487e-09	-2.892554e+01	-7.636796e+01
8.500000e-07	-4.122308e-06	-1.125049e-09	-2.870941e+01	-7.604070e+01
8.600000e-07	-4.091112e-06	-1.116669e-09	-2.849215e+01	-7.570930e+01
8.700000e-07	-4.059740e-06	-1.114919e-09	-2.827366e+01	-7.537382e+01
8.800000e-07	-4.028190e-06	-1.110757e-09	-2.805394e+01	-7.503433e+01
8.900000e-07	-3.996518e-06	-1.101011e-09	-2.783336e+01	-7.469087e+01
9.000000e-07	-3.964635e-06	-1.094270e-09	-2.761131e+01	-7.434350e+01
9.100000e-07	-3.932457e-06	-1.088890e-09	-2.738721e+01	-7.399226e+01
9.200000e-07	-3.899951e-06	-1.080439e-09	-2.716083e+01	-7.363718e+01
9.300000e-07	-3.867046e-06	-1.072620e-09	-2.693167e+01	-7.327829e+01
9.400000e-07	-3.833746e-06	-1.070844e-09	-2.669975e+01	-7.291561e+01
9.500000e-07	-3.800056e-06	-1.063676e-09	-2.646512e+01	-7.254917e+01
9.600000e-07	-3.765883e-06	-1.057888e-09	-2.622713e+01	-7.217896e+01
9.700000e-07	-3.731173e-06	-1.050381e-09	-2.598539e+01	-7.180498e+01
9.800000e-07	-3.696029e-06	-1.045062e-09	-2.574064e+01	-7.142723e+01
9.900000e-07	-3.660636e-06	-1.036856e-09	-2.549414e+01	-7.104570e+01
1.000000e-06	-3.625072e-06	-1.032078e-09	-2.524646e+01	-7.066035e+01
1.010000e-06	-3.589336e-06	-1.023631e-09	-2.499758e+01	-7.027117e+01
1.020000e-06	-3.553462e-06	-1.015857e-09	-2.474774e+01	-6.987811e+01
1.030000e-06	-3.517421e-06	-1.009376e-09	-2.449674e+01	-6.948114e+01
1.040000e-06	-3.481172e-06	-1.007239e-09	-2.424429e+01	-6.908021e+01
1.050000e-06	-3.444734e-06	-1.000093e-09	-2.399052e+01	-6.867527e+01
1.060000e-06	-3.408024e-06	-9.942193e-10	-2.373485e+01	-6.826627e+01
1.070000e-06	-3.371049e-06	-9.870159e-10	-2.347734e+01	-6.785316e+01
1.080000e-06	-3.333881e-06	-9.809637e-10	-2.321849e+01	-6.743587e+01
1.090000e-06	-3.296489e-06	-9.707716e-10	-2.295808e+01	-6.701434e+01
1.100000e-06	-3.258938e-06	-9.638440e-10	-2.269656e+01	-6.658852e+01
1.110000e-06	-3.221173e-06	-9.567969e-10	-2.243354e+01	-6.615835e+01
1.120000e-06	-3.183126e-06	-9.484696e-10	-2.216857e+01	-6.572376e+01
1.130000e-06	-3.144877e-06	-9.414807e-10	-2.190219e+01	-6.528471e+01
1.140000e-06	-3.106424e-06	-9.367568e-10	-2.163439e+01	-6.484112e+01
1.150000e-06	-3.067732e-06	-9.281482e-10	-2.136492e+01	-6.439296e+01
1.160000e-06	-3.028834e-06	-9.197219e-10	-2.109402e+01	-6.394016e+01
1.170000e-06	-2.989789e-06	-9.156476e-10	-2.082209e+01	-6.348269e+01
1.180000e-06	-2.950571e-06	-9.102974e-10	-2.054896e+01	-6.302049e+01
1.190000e-06	-2.911176e-06	-9.037743e-10	-2.027460e+01	-6.255352e+01
1.200000e-06	-2.871609e-06	-8.971990e-10	-1.999904e+01	-6.208174e+01
1.210000e-06	-2.831809e-06	-8.888162e-10	-1.972186e+01	-6.160512e+01
1.220000e-06	-2.791897e-06	-8.769723e-10	-1.944390e+01	-6.112363e+01
1.230000e-06	-2.751879e-06	-8.668251e-10	-1.916519e+01	-6.063721e+01
1.240000e-06	-2.711614e-06	-8.570062e-10	-1.888477e+01	-6.014586e+01
1.250000e-06	-2.671150e-06	-8.484777e-10	-1.860297e+01	-5.964953e+01
1.260000e-06	-2.630564e-06	-8.403438e-10	-1.832030e+01	-5.914818e+01
1.270000e-06	-2.589802e-06	-8.314452e-10	-1.803642e+01	-5.864179e+01
1.280000e-06	-2.548798e-06	-8.236671e-10	-1.775085e+01	-5.813031e+01
1.290000e-06	-2.507525e-06	-8.183575e-10	-1.746342e+01	-5.761370e+01
1.300000e-06	-2.465906e-06	-8.101922e-10	-1.717356e+01	-5.709191e+01
1.310000e-06	-2.424024e-06	-8.008883e-10	-1.688188e+01	-5.656488e+01
1.320000e-06	-2.381919e-06	-7.893209e-10	-1.658865e+01	-5.603255e+01
1.330000e-06	-2.339494e-06	-7.787252e-10	-1.629318e+01	-5.549483e+01
1.340000e-06	-2.296766e-06	-7.679753e-10	-1.599560e+01	-5.495164e+01
1.350000e-06	-2.253706e-06	-7.592024e-10	-1.569572e+01	-5.440287e+01
1.360000e-06	-2.210393e-06	-7.515657e-10	-1.539407e+01	-5.384840e+01
1.370000e-06	-2.166949e-06	-7.464156e-10	-1.509150e+01	-5.328810e+01
1.380000e-06	-2.123363e-06	-7.406814e-10	-1.478796e+01	-5.272180e+01
1.390000e-06	-2.079702e-06	-7.338656e-10	-1.448388e+01	-5.214933e+01
1.400000e-06	-2.036007e-06	-7.235118e-10	-1.417958e+01	-5.157049e+01
1.410000e-06	-1.992180e-06	-7.116303e-10	-1.387434e+01	-5.098505e+01
1.420000e-06	-1.948279e-06	-6.999010e-10	-1.356860e+01	-5.039278e+01
1.430000e-06	-1.904350e-06	-6.913163e-10	-1.326266e+01	-4.979340e+01
1.440000e-06	-1.860343e-06	-6.836560e-10	-1.295617e+01	-4.918661e+01
1.450000e-06	-1.816256e-06	-6.751081e-10	-1.264914e+01	-4.857209e+01
1.460000e-06	-1.772065e-06	-6.661501e-10	-1.234137e+01	-4.794948e+01
1.470000e-06	-1.727738e-06	-6.563005e-10	-1.203266e+01	-4.731842e+01
1.480000e-06	-1.683302e-06	-6.443296e-10	-1.172319e+01	-4.667850e+01
1.490000e-06	-1.638761e-06	-6.338473e-10	-1.141299e+01	-4.602929e+01
1.500000e-06	-1.594058e-06	-6.262281e-10	-1.110166e+01	-4.537033e+01
1.510000e-06	-1.549204e-06	-6.172743e-10	-1.078928e+01	-4.470115e+01
1.520000e-06	-1.504232e-06	-6.045543e-10	-1.047608e+01	-4.402125e+01
1.530000e-06	-1.459177e-06	-5.927078e-10	-1.016229e+01	-4.333010e+01
1.540000e-06	-1.414015e-06	-5.838334e-10	-9.847773e+00	-4.262716e+01
1.550000e-06	-1.368712e-06	-5.735226e-10	-9.532264e+00	-4.191188e+01
1.560000e-06	-1.323278e-06	-5.640462e-10	-9.215839e+00	-4.118367e+01
1.570000e-06	-1.277831e-06	-5.525928e-10	-8.899331e+00	-4.044196e+01
1.580000e-06	-1.232364e-06	-5.401599e-10	-8.582678e+00	-3.968614e+01
1.590000e-06	-1.186773e-06	-5.306086e-10	-8.265164e+00	-3.891562e+01
1.600000e-06	-1.141029e-06	-5.222226e-10	-7.946583e+00	-3.812980e+01
1.610000e-06	-1.095184e-06	-5.099565e-10	-7.627303e+00	-3.732807e+01
1.620000e-06	-1.049258e-06	-4.969872e-10	-7.307456e+00	-3.650983e+01
1.630000e-06	-1.003271e-06	-4.859407e-10	-6.987183e+00	-3.567450e+01
1.640000e-06	-9.572953e-07	-4.753126e-10	-6.666990e+00	-3.482151e+01
1.650000e-06	-9.112254e-07	-4.619010e-10	-6.346140e+00	-3.395028e+01
1.660000e-06	-8.651111e-07	-4.480880e-10	-6.024982e+00	-3.306030e+01
1.670000e-06	-8.189820e-07	-4.340562e-10	-5.703721e+00	-3.215104e+01
1.680000e-06	-7.727137e-07	-4.187138e-10	-5.381489e+00	-3.122202e+01
1.690000e-06	-7.263495e-07	-4.047827e-10	-5.058590e+00	-3.027280e+01
1.700000e-06	-6.799800e-07	-3.931429e-10	-4.735654e+00	-2.930297e+01
1.710000e-06	-6.336225e-07	-3.791576e-10	-4.412803e+00	-2.831216e+01
1.720000e-06	-5.871745e-07	-3.640338e-10	-4.089320e+00	-2.730005e+01
1.730000e-06	-5.406174e-07	-3.462653e-10	-3.765077e+00	-2.626637e+01
1.740000e-06	-4.940424e-07	-3.260088e-10	-3.440710e+00	-2.521090e+01
1.750000e-06	-4.474907e-07	-3.075786e-10	-3.116505e+00	-2.413348e+01
1.760000e-06	-4.009699e-07	-2.913363e-10	-2.792516e+00	-2.303400e+01
1.770000e-06	-3.543675e-07	-2.765972e-10	-2.467958e+00	-2.191244e+01
1.780000e-06	-3.076142e-07	-2.639760e-10	-2.142349e+00	-2.076880e+01
1.790000e-06	-2.608414e-07	-2.510671e-10	-1.816604e+00	-1.960319e+01
1.800000e-06	-2.141421e-07	-2.373870e-10	-1.491372e+00	-1.841577e+01
1.810000e-06	-1.674546e-07	-2.225923e-10	-1.166222e+00	-1.720676e+01
1.820000e-06	-1.207286e-07	-2.058386e-10	-8.408028e-01	-1.597647e+01
1.830000e-06	-7.399311e-08	-1.879604e-10	-5.153178e-01	-1.472527e+01
1.840000e-06	-2.727693e-08	-1.701713e-10	-1.899676e-01	-1.345360e+01
1.850000e-06	1.940748e-08	-1.524793e-10	1.351615e-01	-1.216198e+01
1.860000e-06	6.613202e-08	-1.348841e-10	4.605700e-01	-1.085099e+01
1.870000e-06	1.128574e-07	-1.187499e-10	7.859846e-01	-9.521297e+00
1.880000e-06	1.594957e-07	-1.018701e-10	1.110792e+00	-8.173614e+00
1.890000e-06	2.061502e-07	-8.127043e-11	1.435713e+00	-6.808732e+00
1.900000e-06	2.528467e-07	-5.857126e-11	1.760926e+00	-5.427504e+00
1.910000e-06	2.995091e-07	-3.763772e-11	2.085902e+00	-4.030843e+00
1.920000e-06	3.461184e-07	-1.877841e-11	2.410508e+00	-2.619720e+00
1.930000e-06	3.927100e-07	-1.644703e-12	2.734991e+00	-1.195160e+00
1.940000e-06	4.393113e-07	1.799198e-11	3.059541e+00	2.417616e-01
1.950000e-06	4.857779e-07	3.918105e-11	3.383153e+00	1.689923e+00
1.960000e-06	5.322085e-07	5.914322e-11	3.706514e+00	3.148159e+00
1.970000e-06	5.787335e-07	7.761123e-11	4.030533e+00	4.615269e+00
1.980000e-06	6.251956e-07	9.686902e-11	4.354114e+00	6.090017e+00
1.990000e-06	6.715560e-07	1.170389e-10	4.676987e+00	7.571142e+00
2.000000e-06	7.178650e-07	1.379844e-10	4.999501e+00	9.057358e+00
2.010000e-06	7.641398e-07	1.593262e-10	5.321777e+00	1.054736e+01
2.020000e-06	8.103224e-07	1.825633e-10	5.643412e+00	1.203984e+01
2.030000e-06	8.564314e-07	2.074813e-10	5.964533e+00	1.353347e+01
2.040000e-06	9.024446e-07	2.316675e-10	6.284987e+00	1.502693e+01
2.050000e-06	9.484594e-07	2.525230e-10	6.605453e+00	1.651889e+01
2.060000e-06	9.944445e-07	2.699710e-10	6.925712e+00	1.800804e+01
2.070000e-06	1.040302e-06	2.868327e-10	7.245083e+00	1.949310e+01
2.080000e-06	1.086115e-06	3.054123e-10	7.564139e+00	2.097277e+01
2.090000e-06	1.131950e-06	3.276344e-10	7.883356e+00	2.244580e+01
2.100000e-06	1.177675e-06	3.517798e-10	8.201802e+00	2.391097e+01
2.110000e-06	1.223284e-06	3.742564e-10	8.519441e+00	2.536707e+01
2.120000e-06	1.268880e-06	3.949447e-10	8.836990e+00	2.681295e+01
2.130000e-06	1.314296e-06	4.146784e-10	9.153287e+00	2.824749e+01
2.140000e-06	1.359600e-06	4.337667e-10	9.468805e+00	2.966961e+01
2.150000e-06	1.404831e-06	4.532376e-10	9.783806e+00	3.107828e+01
2.160000e-06	1.449870e-06	4.736274e-10	1.009748e+01	3.247253e+01
2.170000e-06	1.494827e-06	4.938632e-10	1.041058e+01	3.385143e+01
2.180000e-06	1.539754e-06	5.145210e-10	1.072347e+01	3.521411e+01
2.190000e-06	1.584634e-06	5.347274e-10	1.103603e+01	3.655975e+01
2.200000e-06	1.629309e-06	5.524680e-10	1.134716e+01	3.788759e+01
2.210000e-06	1.673735e-06	5.702269e-10	1.165656e+01	3.919694e+01
2.220000e-06	1.718124e-06	5.882118e-10	1.196571e+01	4.048715e+01
2.230000e-06	1.762437e-06	6.068394e-10	1.227432e+01	4.175764e+01
2.240000e-06	1.806613e-06	6.229599e-10	1.258198e+01	4.300791e+01
2.250000e-06	1.850641e-06	6.362083e-10	1.288861e+01	4.423748e+01
2.260000e-06	1.894575e-06	6.483653e-10	1.319458e+01	4.544596e+01
2.270000e-06	1.938514e-06	6.628637e-10	1.350059e+01	4.663301e+01
2.280000e-06	1.982425e-06	6.826249e-10	1.380640e+01	4.779834e+01
2.290000e-06	2.026250e-06	7.032156e-10	1.411162e+01	4.894173e+01
2.300000e-06	2.069959e-06	7.218219e-10	1.441603e+01	5.006300e+01
2.310000e-06	2.113594e-06	7.370207e-10	1.471992e+01	5.116204e+01
2.320000e-06	2.157128e-06	7.494950e-10	1.502311e+01	5.223878e+01
2.330000e-06	2.200511e-06	7.608136e-10	1.532525e+01	5.329318e+01
2.340000e-06	2.243721e-06	7.743170e-10	1.562618e+01	5.432528e+01
2.350000e-06	2.286831e-06	7.913300e-10	1.592642e+01	5.533515e+01
2.360000e-06	2.329844e-06	8.101610e-10	1.622597e+01	5.632289e+01
2.370000e-06	2.372481e-06	8.280029e-10	1.652291e+01	5.728865e+01
2.380000e-06	2.414737e-06	8.433738e-10	1.681720e+01	5.823261e+01
2.390000e-06	2.456710e-06	8.549387e-10	1.710952e+01	5.915498e+01
2.400000e-06	2.498394e-06	8.626174e-10	1.739982e+01	6.005601e+01
2.410000e-06	2.539778e-06	8.686032e-10	1.768804e+01	6.093597e+01
2.420000e-06	2.580814e-06	8.763813e-10	1.797383e+01	6.179516e+01
2.430000e-06	2.621557e-06	8.908743e-10	1.825758e+01	6.263388e+01
2.440000e-06	2.662128e-06	9.093455e-10	1.854013e+01	6.345248e+01
2.450000e-06	2.702473e-06	9.253790e-10	1.882111e+01	6.425131e+01
2.460000e-06	2.742642e-06	9.383701e-10	1.910087e+01	6.503072e+01
2.470000e-06	2.782693e-06	9.497246e-10	1.937980e+01	6.579110e+01
2.480000e-06	2.822566e-06	9.594161e-10	1.965748e+01	6.653284e+01
2.490000e-06	2.862301e-06	9.679291e-10	1.993422e+01	6.725631e+01
2.500000e-06	2.901870e-06	9.754815e-10	2.020979e+01	6.796193e+01
2.510000e-06	2.941279e-06	9.847992e-10	2.048425e+01	6.865010e+01
2.520000e-06	2.980575e-06	9.972872e-10	2.075792e+01	6.932121e+01
2.530000e-06	3.019725e-06	1.009594e-09	2.103058e+01	6.997567e+01
2.540000e-06	3.058637e-06	1.020795e-09	2.130158e+01	7.061388e+01
2.550000e-06	3.097224e-06	1.031427e-09	2.157032e+01	7.123623e+01
2.560000e-06	3.135636e-06	1.040755e-09	2.183783e+01	7.184313e+01
2.570000e-06	3.173912e-06	1.048561e-09	2.210440e+01	7.243497e+01
2.580000e-06	3.211968e-06	1.053378e-09	2.236944e+01	7.301212e+01
2.590000e-06	3.249852e-06	1.059355e-09	2.263328e+01	7.357497e+01
2.600000e-06	3.287507e-06	1.068545e-09	2.289552e+01	7.412389e+01
2.610000e-06	3.324905e-06	1.078263e-09	2.315598e+01	7.465924e+01
2.620000e-06	3.362134e-06	1.085024e-09	2.341526e+01	7.518138e+01
2.630000e-06	3.399111e-06	1.089292e-09	2.367278e+01	7.569066e+01
2.640000e-06	3.435757e-06	1.095973e-09	2.392799e+01	7.618742e+01
2.650000e-06	3.472100e-06	1.103880e-09	2.418110e+01	7.667199e+01
2.660000e-06	3.508231e-06	1.111327e-09	2.443273e+01	7.714470e+01
2.670000e-06	3.544229e-06	1.117738e-09	2.468344e+01	7.760585e+01
2.680000e-06	3.580118e-06	1.123147e-09	2.493338e+01	7.805576e+01
2.690000e-06	3.615900e-06	1.128284e-09	2.518258e+01	7.849472e+01
2.700000e-06	3.651446e-06	1.134253e-09	2.543014e+01	7.892302e+01
2.710000e-06	3.686821e-06	1.141057e-09	2.567651e+01	7.934094e+01
2.720000e-06	3.721945e-06	1.148012e-09	2.592112e+01	7.974876e+01
2.730000e-06	3.756653e-06	1.154355e-09	2.616284e+01	8.014673e+01
2.740000e-06	3.791031e-06	1.159406e-09	2.640227e+01	8.053511e+01
2.750000e-06	3.825022e-06	1.162616e-09	2.663899e+01	8.091415e+01
2.760000e-06	3.858556e-06	1.164501e-09	2.687254e+01	8.128408e+01
2.770000e-06	3.891657e-06	1.168825e-09	2.710307e+01	8.164514e+01
2.780000e-06	3.924284e-06	1.176235e-09	2.733030e+01	8.199755e+01
2.790000e-06	3.956537e-06	1.184859e-09	2.755492e+01	8.234152e+01
2.800000e-06	3.988576e-06	1.192621e-09	2.777805e+01	8.267726e+01
2.810000e-06	4.020430e-06	1.198653e-09	2.799990e+01	8.300497e+01
2.820000e-06	4.052132e-06	1.203946e-09	2.822068e+01	8.332483e+01
2.830000e-06	4.083647e-06	1.209048e-09	2.844016e+01	8.363702e+01
2.840000e-06	4.114915e-06	1.215223e-09	2.865792e+01	8.394172e+01
2.850000e-06	4.145923e-06	1.221677e-09	2.887388e+01	8.423910e+01
2.860000e-06	4.176666e-06	1.228037e-09	2.908798e+01	8.452930e+01
2.870000e-06	4.207103e-06	1.233716e-09	2.929996e+01	8.481247e+01
2.880000e-06	4.237176e-06	1.236448e-09	2.950940e+01	8.508877e+01
2.890000e-06	4.266955e-06	1.239530e-09	2.971679e+01	8.535830e+01
2.900000e-06	4.296492e-06	1.245135e-09	2.992250e+01	8.562121e+01
