# Temperatura_=_-1.8
# Concentracion g/m^3_=_1620.0
# C_Vs_to_Am_M_A/Vsm_=_65563218390.804596
# pendiente_HvsI_1/m_=_3716.3
# ordenada_HvsI_A/m_=_1297.0
# frecuencia_Hz_=_135109.02907167905

Tiempo_(s)	Campo_(V.s)	Magnetizacion_(V.s)	Campo_(kA/m)	Magnetizacion_(A/m)
0.000000e+00	-5.506446e-06	-8.974310e-10	-3.837351e+01	-6.112247e+01
1.000000e-08	-5.506676e-06	-8.979846e-10	-3.837512e+01	-6.111187e+01
2.000000e-08	-5.506607e-06	-8.993056e-10	-3.837463e+01	-6.110208e+01
3.000000e-08	-5.506048e-06	-8.991554e-10	-3.837074e+01	-6.109281e+01
4.000000e-08	-5.504948e-06	-8.950981e-10	-3.836307e+01	-6.108374e+01
5.000000e-08	-5.503258e-06	-8.847398e-10	-3.835130e+01	-6.107454e+01
6.000000e-08	-5.500921e-06	-8.811212e-10	-3.833501e+01	-6.106490e+01
7.000000e-08	-5.497953e-06	-8.988256e-10	-3.831432e+01	-6.105446e+01
8.000000e-08	-5.494522e-06	-9.380623e-10	-3.829041e+01	-6.104291e+01
9.000000e-08	-5.490764e-06	-9.829972e-10	-3.826422e+01	-6.102990e+01
1.000000e-07	-5.486614e-06	-9.793816e-10	-3.823530e+01	-6.101510e+01
1.100000e-07	-5.482164e-06	-9.045031e-10	-3.820430e+01	-6.099820e+01
1.200000e-07	-5.477523e-06	-7.969359e-10	-3.817195e+01	-6.097888e+01
1.300000e-07	-5.472595e-06	-8.682654e-10	-3.813761e+01	-6.095684e+01
1.400000e-07	-5.467259e-06	-9.403605e-10	-3.810042e+01	-6.093179e+01
1.500000e-07	-5.461500e-06	-9.147607e-10	-3.806029e+01	-6.090347e+01
1.600000e-07	-5.455355e-06	-8.410081e-10	-3.801746e+01	-6.087162e+01
1.700000e-07	-5.448820e-06	-8.911633e-10	-3.797192e+01	-6.083602e+01
1.800000e-07	-5.441818e-06	-1.019502e-09	-3.792313e+01	-6.079646e+01
1.900000e-07	-5.434458e-06	-9.393562e-10	-3.787184e+01	-6.075274e+01
2.000000e-07	-5.426953e-06	-8.497914e-10	-3.781954e+01	-6.070470e+01
2.100000e-07	-5.419234e-06	-8.526138e-10	-3.776574e+01	-6.065221e+01
2.200000e-07	-5.411151e-06	-9.817106e-10	-3.770941e+01	-6.059516e+01
2.300000e-07	-5.402693e-06	-9.627939e-10	-3.765048e+01	-6.053345e+01
2.400000e-07	-5.393795e-06	-9.166203e-10	-3.758846e+01	-6.046703e+01
2.500000e-07	-5.384146e-06	-8.944128e-10	-3.752122e+01	-6.039585e+01
2.600000e-07	-5.373645e-06	-9.444189e-10	-3.744805e+01	-6.031990e+01
2.700000e-07	-5.362614e-06	-9.087983e-10	-3.737117e+01	-6.023920e+01
2.800000e-07	-5.351225e-06	-8.826690e-10	-3.729180e+01	-6.015378e+01
2.900000e-07	-5.339493e-06	-8.976443e-10	-3.721004e+01	-6.006370e+01
3.000000e-07	-5.327373e-06	-9.234362e-10	-3.712558e+01	-5.996903e+01
3.100000e-07	-5.314804e-06	-9.060365e-10	-3.703799e+01	-5.986987e+01
3.200000e-07	-5.301852e-06	-8.854394e-10	-3.694773e+01	-5.976634e+01
3.300000e-07	-5.288608e-06	-9.028583e-10	-3.685543e+01	-5.965856e+01
3.400000e-07	-5.275043e-06	-9.091085e-10	-3.676090e+01	-5.954669e+01
3.500000e-07	-5.261019e-06	-9.080988e-10	-3.666317e+01	-5.943088e+01
3.600000e-07	-5.246571e-06	-8.810713e-10	-3.656249e+01	-5.931131e+01
3.700000e-07	-5.231675e-06	-8.972470e-10	-3.645868e+01	-5.918815e+01
3.800000e-07	-5.216263e-06	-9.137082e-10	-3.635127e+01	-5.906158e+01
3.900000e-07	-5.200363e-06	-9.050113e-10	-3.624047e+01	-5.893181e+01
4.000000e-07	-5.183962e-06	-8.654749e-10	-3.612617e+01	-5.879902e+01
4.100000e-07	-5.167216e-06	-8.994744e-10	-3.600948e+01	-5.866342e+01
4.200000e-07	-5.150224e-06	-9.008284e-10	-3.589106e+01	-5.852519e+01
4.300000e-07	-5.132882e-06	-8.719760e-10	-3.577021e+01	-5.838454e+01
4.400000e-07	-5.115193e-06	-8.824843e-10	-3.564694e+01	-5.824165e+01
4.500000e-07	-5.097094e-06	-9.482187e-10	-3.552080e+01	-5.809671e+01
4.600000e-07	-5.078526e-06	-8.867368e-10	-3.539141e+01	-5.794991e+01
4.700000e-07	-5.059557e-06	-8.466193e-10	-3.525921e+01	-5.780141e+01
4.800000e-07	-5.040280e-06	-8.972657e-10	-3.512488e+01	-5.765138e+01
4.900000e-07	-5.020814e-06	-9.170115e-10	-3.498922e+01	-5.749998e+01
5.000000e-07	-5.001146e-06	-8.410455e-10	-3.485216e+01	-5.734734e+01
5.100000e-07	-4.981240e-06	-8.738228e-10	-3.471344e+01	-5.719361e+01
5.200000e-07	-4.961027e-06	-9.092793e-10	-3.457258e+01	-5.703890e+01
5.300000e-07	-4.940390e-06	-8.652876e-10	-3.442876e+01	-5.688332e+01
5.400000e-07	-4.919415e-06	-8.614083e-10	-3.428259e+01	-5.672698e+01
5.500000e-07	-4.898145e-06	-9.178217e-10	-3.413436e+01	-5.656996e+01
5.600000e-07	-4.876458e-06	-8.615926e-10	-3.398323e+01	-5.641233e+01
5.700000e-07	-4.854451e-06	-8.263420e-10	-3.382986e+01	-5.625416e+01
5.800000e-07	-4.832116e-06	-8.948785e-10	-3.367422e+01	-5.609549e+01
5.900000e-07	-4.809344e-06	-8.988916e-10	-3.351553e+01	-5.593636e+01
6.000000e-07	-4.786187e-06	-8.362362e-10	-3.335415e+01	-5.577680e+01
6.100000e-07	-4.762777e-06	-8.651986e-10	-3.319101e+01	-5.561683e+01
6.200000e-07	-4.739209e-06	-8.871411e-10	-3.302676e+01	-5.545645e+01
6.300000e-07	-4.715434e-06	-8.294413e-10	-3.286108e+01	-5.529566e+01
6.400000e-07	-4.691388e-06	-8.348594e-10	-3.269350e+01	-5.513444e+01
6.500000e-07	-4.666942e-06	-8.697188e-10	-3.252315e+01	-5.497279e+01
6.600000e-07	-4.641960e-06	-8.423033e-10	-3.234905e+01	-5.481066e+01
6.700000e-07	-4.616404e-06	-8.286570e-10	-3.217096e+01	-5.464803e+01
6.800000e-07	-4.590258e-06	-8.688021e-10	-3.198875e+01	-5.448486e+01
6.900000e-07	-4.563645e-06	-8.487529e-10	-3.180328e+01	-5.432110e+01
7.000000e-07	-4.536663e-06	-8.251251e-10	-3.161526e+01	-5.415670e+01
7.100000e-07	-4.509389e-06	-8.387427e-10	-3.142519e+01	-5.399161e+01
7.200000e-07	-4.481926e-06	-8.406359e-10	-3.123380e+01	-5.382576e+01
7.300000e-07	-4.454304e-06	-8.120879e-10	-3.104131e+01	-5.365910e+01
7.400000e-07	-4.426488e-06	-8.286099e-10	-3.084746e+01	-5.349156e+01
7.500000e-07	-4.398412e-06	-8.344917e-10	-3.065181e+01	-5.332308e+01
7.600000e-07	-4.370093e-06	-8.191726e-10	-3.045446e+01	-5.315358e+01
7.700000e-07	-4.341451e-06	-8.120724e-10	-3.025486e+01	-5.298299e+01
7.800000e-07	-4.312455e-06	-8.229027e-10	-3.005278e+01	-5.281125e+01
7.900000e-07	-4.283142e-06	-8.065331e-10	-2.984850e+01	-5.263828e+01
8.000000e-07	-4.253565e-06	-8.032834e-10	-2.964239e+01	-5.246400e+01
8.100000e-07	-4.223665e-06	-8.045966e-10	-2.943402e+01	-5.228833e+01
8.200000e-07	-4.193399e-06	-7.956878e-10	-2.922311e+01	-5.211120e+01
8.300000e-07	-4.162760e-06	-7.835357e-10	-2.900958e+01	-5.193252e+01
8.400000e-07	-4.131780e-06	-7.917475e-10	-2.879369e+01	-5.175222e+01
8.500000e-07	-4.100609e-06	-7.839054e-10	-2.857647e+01	-5.157022e+01
8.600000e-07	-4.069296e-06	-7.695316e-10	-2.835825e+01	-5.138641e+01
8.700000e-07	-4.037824e-06	-7.691666e-10	-2.813893e+01	-5.120073e+01
8.800000e-07	-4.006183e-06	-7.723148e-10	-2.791843e+01	-5.101307e+01
8.900000e-07	-3.974310e-06	-7.637326e-10	-2.769631e+01	-5.082335e+01
9.000000e-07	-3.942251e-06	-7.588492e-10	-2.747289e+01	-5.063147e+01
9.100000e-07	-3.909932e-06	-7.581716e-10	-2.724767e+01	-5.043734e+01
9.200000e-07	-3.877147e-06	-7.448787e-10	-2.701919e+01	-5.024086e+01
9.300000e-07	-3.843937e-06	-7.384859e-10	-2.678776e+01	-5.004192e+01
9.400000e-07	-3.810205e-06	-7.416770e-10	-2.655269e+01	-4.984043e+01
9.500000e-07	-3.775924e-06	-7.393228e-10	-2.631379e+01	-4.963628e+01
9.600000e-07	-3.741311e-06	-7.296351e-10	-2.607258e+01	-4.942937e+01
9.700000e-07	-3.706398e-06	-7.309672e-10	-2.582927e+01	-4.921957e+01
9.800000e-07	-3.671162e-06	-7.282124e-10	-2.558372e+01	-4.900679e+01
9.900000e-07	-3.635726e-06	-7.207479e-10	-2.533677e+01	-4.879091e+01
1.000000e-06	-3.600161e-06	-7.174409e-10	-2.508892e+01	-4.857182e+01
1.010000e-06	-3.564495e-06	-7.218670e-10	-2.484038e+01	-4.834941e+01
1.020000e-06	-3.528668e-06	-7.154686e-10	-2.459071e+01	-4.812357e+01
1.030000e-06	-3.492674e-06	-7.136048e-10	-2.433987e+01	-4.789418e+01
1.040000e-06	-3.456472e-06	-7.126465e-10	-2.408758e+01	-4.766114e+01
1.050000e-06	-3.419899e-06	-7.097244e-10	-2.383271e+01	-4.742434e+01
1.060000e-06	-3.382990e-06	-6.994983e-10	-2.357550e+01	-4.718367e+01
1.070000e-06	-3.345844e-06	-6.961824e-10	-2.331664e+01	-4.693904e+01
1.080000e-06	-3.308507e-06	-6.896679e-10	-2.305644e+01	-4.669035e+01
1.090000e-06	-3.270984e-06	-6.835134e-10	-2.279495e+01	-4.643751e+01
1.100000e-06	-3.233253e-06	-6.780840e-10	-2.253200e+01	-4.618042e+01
1.110000e-06	-3.195240e-06	-6.756698e-10	-2.226710e+01	-4.591901e+01
1.120000e-06	-3.157000e-06	-6.683075e-10	-2.200061e+01	-4.565321e+01
1.130000e-06	-3.118634e-06	-6.653189e-10	-2.173324e+01	-4.538295e+01
1.140000e-06	-3.080036e-06	-6.621108e-10	-2.146426e+01	-4.510817e+01
1.150000e-06	-3.041112e-06	-6.557125e-10	-2.119301e+01	-4.482881e+01
1.160000e-06	-3.001943e-06	-6.481553e-10	-2.092005e+01	-4.454485e+01
1.170000e-06	-2.962640e-06	-6.445793e-10	-2.064615e+01	-4.425622e+01
1.180000e-06	-2.923255e-06	-6.429614e-10	-2.037168e+01	-4.396292e+01
1.190000e-06	-2.883771e-06	-6.415095e-10	-2.009652e+01	-4.366493e+01
1.200000e-06	-2.844214e-06	-6.409449e-10	-1.982086e+01	-4.336222e+01
1.210000e-06	-2.804506e-06	-6.374905e-10	-1.954414e+01	-4.305479e+01
1.220000e-06	-2.764574e-06	-6.310238e-10	-1.926586e+01	-4.274265e+01
1.230000e-06	-2.724493e-06	-6.256183e-10	-1.898654e+01	-4.242580e+01
1.240000e-06	-2.684130e-06	-6.213821e-10	-1.870526e+01	-4.210426e+01
1.250000e-06	-2.643517e-06	-6.130551e-10	-1.842223e+01	-4.177804e+01
1.260000e-06	-2.602802e-06	-6.066754e-10	-1.813849e+01	-4.144717e+01
1.270000e-06	-2.561892e-06	-6.012575e-10	-1.785340e+01	-4.111165e+01
1.280000e-06	-2.520643e-06	-5.980703e-10	-1.756594e+01	-4.077152e+01
1.290000e-06	-2.478960e-06	-5.935768e-10	-1.727546e+01	-4.042680e+01
1.300000e-06	-2.436922e-06	-5.885426e-10	-1.698251e+01	-4.007749e+01
1.310000e-06	-2.394627e-06	-5.804479e-10	-1.668776e+01	-3.972363e+01
1.320000e-06	-2.352045e-06	-5.727839e-10	-1.639101e+01	-3.936520e+01
1.330000e-06	-2.309221e-06	-5.657840e-10	-1.609258e+01	-3.900221e+01
1.340000e-06	-2.266298e-06	-5.614342e-10	-1.579346e+01	-3.863466e+01
1.350000e-06	-2.223229e-06	-5.563069e-10	-1.549332e+01	-3.826251e+01
1.360000e-06	-2.179945e-06	-5.528548e-10	-1.519168e+01	-3.788572e+01
1.370000e-06	-2.136555e-06	-5.490001e-10	-1.488930e+01	-3.750426e+01
1.380000e-06	-2.093074e-06	-5.467041e-10	-1.458629e+01	-3.711804e+01
1.390000e-06	-2.049450e-06	-5.429165e-10	-1.428227e+01	-3.672698e+01
1.400000e-06	-2.005740e-06	-5.356148e-10	-1.397767e+01	-3.633097e+01
1.410000e-06	-1.961967e-06	-5.259181e-10	-1.367262e+01	-3.592988e+01
1.420000e-06	-1.918117e-06	-5.197854e-10	-1.336704e+01	-3.552355e+01
1.430000e-06	-1.874208e-06	-5.153232e-10	-1.306105e+01	-3.511182e+01
1.440000e-06	-1.830221e-06	-5.092184e-10	-1.275451e+01	-3.469447e+01
1.450000e-06	-1.786078e-06	-5.006975e-10	-1.244688e+01	-3.427128e+01
1.460000e-06	-1.741715e-06	-4.916893e-10	-1.213773e+01	-3.384199e+01
1.470000e-06	-1.697199e-06	-4.827294e-10	-1.182750e+01	-3.340632e+01
1.480000e-06	-1.652661e-06	-4.758225e-10	-1.151712e+01	-3.296396e+01
1.490000e-06	-1.607960e-06	-4.685906e-10	-1.120561e+01	-3.251458e+01
1.500000e-06	-1.563027e-06	-4.633003e-10	-1.089248e+01	-3.205782e+01
1.510000e-06	-1.518017e-06	-4.582501e-10	-1.057881e+01	-3.159330e+01
1.520000e-06	-1.472859e-06	-4.505563e-10	-1.026411e+01	-3.112060e+01
1.530000e-06	-1.427563e-06	-4.421388e-10	-9.948449e+00	-3.063930e+01
1.540000e-06	-1.382326e-06	-4.321945e-10	-9.633202e+00	-3.014896e+01
1.550000e-06	-1.337048e-06	-4.221087e-10	-9.317667e+00	-2.964909e+01
1.560000e-06	-1.291621e-06	-4.117227e-10	-9.001095e+00	-2.913922e+01
1.570000e-06	-1.246115e-06	-4.018383e-10	-8.683969e+00	-2.861886e+01
1.580000e-06	-1.200528e-06	-3.944808e-10	-8.366279e+00	-2.808749e+01
1.590000e-06	-1.154822e-06	-3.884219e-10	-8.047764e+00	-2.754461e+01
1.600000e-06	-1.109011e-06	-3.804093e-10	-7.728517e+00	-2.698970e+01
1.610000e-06	-1.063189e-06	-3.712248e-10	-7.409187e+00	-2.642224e+01
1.620000e-06	-1.017241e-06	-3.656299e-10	-7.088984e+00	-2.584173e+01
1.630000e-06	-9.711278e-07	-3.635665e-10	-6.767629e+00	-2.524765e+01
1.640000e-06	-9.250202e-07	-3.573568e-10	-6.446312e+00	-2.463952e+01
1.650000e-06	-8.789243e-07	-3.466627e-10	-6.125078e+00	-2.401685e+01
1.660000e-06	-8.327573e-07	-3.344919e-10	-5.803348e+00	-2.337920e+01
1.670000e-06	-7.865643e-07	-3.218325e-10	-5.481436e+00	-2.272613e+01
1.680000e-06	-7.402638e-07	-3.088242e-10	-5.158776e+00	-2.205723e+01
1.690000e-06	-6.938458e-07	-2.992512e-10	-4.835297e+00	-2.137213e+01
1.700000e-06	-6.474142e-07	-2.900591e-10	-4.511722e+00	-2.067049e+01
1.710000e-06	-6.008743e-07	-2.801042e-10	-4.187394e+00	-1.995203e+01
1.720000e-06	-5.543106e-07	-2.662474e-10	-3.862899e+00	-1.921648e+01
1.730000e-06	-5.077746e-07	-2.499090e-10	-3.538597e+00	-1.846363e+01
1.740000e-06	-4.612621e-07	-2.333529e-10	-3.214459e+00	-1.769334e+01
1.750000e-06	-4.147494e-07	-2.200213e-10	-2.890320e+00	-1.690549e+01
1.760000e-06	-3.681236e-07	-2.100999e-10	-2.565393e+00	-1.610005e+01
1.770000e-06	-3.215027e-07	-2.018395e-10	-2.240499e+00	-1.527701e+01
1.780000e-06	-2.748709e-07	-1.927058e-10	-1.915530e+00	-1.443645e+01
1.790000e-06	-2.281618e-07	-1.811431e-10	-1.590022e+00	-1.357851e+01
1.800000e-06	-1.814214e-07	-1.668989e-10	-1.264296e+00	-1.270336e+01
1.810000e-06	-1.347063e-07	-1.519624e-10	-9.387462e-01	-1.181128e+01
1.820000e-06	-8.800933e-08	-1.389632e-10	-6.133225e-01	-1.090257e+01
1.830000e-06	-4.126843e-08	-1.284105e-10	-2.875929e-01	-9.977621e+00
1.840000e-06	5.458983e-09	-1.185747e-10	3.804275e-02	-9.036879e+00
1.850000e-06	5.216286e-08	-1.078492e-10	3.635144e-01	-8.080852e+00
1.860000e-06	9.885671e-08	-9.589808e-11	6.889160e-01	-7.110105e+00
1.870000e-06	1.455236e-07	-7.986973e-11	1.014130e+00	-6.125264e+00
1.880000e-06	1.921615e-07	-6.161394e-11	1.339142e+00	-5.127013e+00
1.890000e-06	2.387852e-07	-4.430191e-11	1.664055e+00	-4.116086e+00
1.900000e-06	2.855002e-07	-2.886528e-11	1.989604e+00	-3.093269e+00
1.910000e-06	3.322199e-07	-1.443148e-11	2.315185e+00	-2.059395e+00
1.920000e-06	3.788322e-07	-2.261494e-12	2.640019e+00	-1.015342e+00
1.930000e-06	4.254187e-07	9.176653e-12	2.964673e+00	3.797579e-02
1.940000e-06	4.719658e-07	2.269560e-11	3.289052e+00	1.099606e+00
1.950000e-06	5.184544e-07	3.712936e-11	3.613023e+00	2.168567e+00
1.960000e-06	5.648855e-07	5.340469e-11	3.936594e+00	3.243851e+00
1.970000e-06	6.112461e-07	6.919577e-11	4.259673e+00	4.324429e+00
1.980000e-06	6.575508e-07	8.288465e-11	4.582363e+00	5.409256e+00
1.990000e-06	7.038423e-07	9.578820e-11	4.904961e+00	6.497277e+00
2.000000e-06	7.501051e-07	1.073672e-10	5.227358e+00	7.587428e+00
2.010000e-06	7.963481e-07	1.221266e-10	5.549618e+00	8.678647e+00
2.020000e-06	8.425746e-07	1.401196e-10	5.871763e+00	9.769874e+00
2.030000e-06	8.886831e-07	1.587881e-10	6.193085e+00	1.086006e+01
2.040000e-06	9.346191e-07	1.761196e-10	6.513206e+00	1.194817e+01
2.050000e-06	9.804989e-07	1.916583e-10	6.832934e+00	1.303318e+01
2.060000e-06	1.026394e-06	2.053486e-10	7.152768e+00	1.411410e+01
2.070000e-06	1.072190e-06	2.182709e-10	7.471917e+00	1.518996e+01
2.080000e-06	1.117896e-06	2.315626e-10	7.790432e+00	1.625982e+01
2.090000e-06	1.163537e-06	2.456173e-10	8.108498e+00	1.732279e+01
2.100000e-06	1.209094e-06	2.604883e-10	8.425974e+00	1.837799e+01
2.110000e-06	1.254571e-06	2.756672e-10	8.742897e+00	1.942460e+01
2.120000e-06	1.299967e-06	2.901775e-10	9.059256e+00	2.046184e+01
2.130000e-06	1.345264e-06	3.044273e-10	9.374921e+00	2.148897e+01
2.140000e-06	1.390452e-06	3.179230e-10	9.689829e+00	2.250531e+01
2.150000e-06	1.435530e-06	3.308116e-10	1.000397e+01	2.351022e+01
2.160000e-06	1.480510e-06	3.446273e-10	1.031743e+01	2.450311e+01
2.170000e-06	1.525431e-06	3.601094e-10	1.063048e+01	2.548343e+01
2.180000e-06	1.570277e-06	3.774526e-10	1.094300e+01	2.645070e+01
2.190000e-06	1.614981e-06	3.924163e-10	1.125454e+01	2.740448e+01
2.200000e-06	1.659535e-06	4.047088e-10	1.156503e+01	2.834438e+01
2.210000e-06	1.704000e-06	4.158382e-10	1.187489e+01	2.927007e+01
2.220000e-06	1.748262e-06	4.263343e-10	1.218335e+01	3.018124e+01
2.230000e-06	1.792315e-06	4.382723e-10	1.249035e+01	3.107765e+01
2.240000e-06	1.836304e-06	4.497798e-10	1.279690e+01	3.195911e+01
2.250000e-06	1.880210e-06	4.603865e-10	1.310287e+01	3.282545e+01
2.260000e-06	1.924041e-06	4.705485e-10	1.340832e+01	3.367654e+01
2.270000e-06	1.967825e-06	4.828684e-10	1.371344e+01	3.451232e+01
2.280000e-06	2.011597e-06	4.971996e-10	1.401849e+01	3.533272e+01
2.290000e-06	2.055295e-06	5.118963e-10	1.432301e+01	3.613773e+01
2.300000e-06	2.098857e-06	5.235774e-10	1.462658e+01	3.692736e+01
2.310000e-06	2.142335e-06	5.323650e-10	1.492958e+01	3.770165e+01
2.320000e-06	2.185707e-06	5.416082e-10	1.523183e+01	3.846065e+01
2.330000e-06	2.229001e-06	5.503889e-10	1.553354e+01	3.920445e+01
2.340000e-06	2.272246e-06	5.598859e-10	1.583490e+01	3.993314e+01
2.350000e-06	2.315283e-06	5.716486e-10	1.613482e+01	4.064683e+01
2.360000e-06	2.358064e-06	5.866963e-10	1.643296e+01	4.134563e+01
2.370000e-06	2.400562e-06	6.008643e-10	1.672912e+01	4.202968e+01
2.380000e-06	2.442634e-06	6.107944e-10	1.702231e+01	4.269910e+01
2.390000e-06	2.484351e-06	6.168588e-10	1.731303e+01	4.335403e+01
2.400000e-06	2.525777e-06	6.212034e-10	1.760172e+01	4.399460e+01
2.410000e-06	2.566922e-06	6.249798e-10	1.788845e+01	4.462096e+01
2.420000e-06	2.607797e-06	6.311626e-10	1.817330e+01	4.523323e+01
2.430000e-06	2.648385e-06	6.428813e-10	1.845616e+01	4.583154e+01
2.440000e-06	2.688728e-06	6.575739e-10	1.873730e+01	4.641602e+01
2.450000e-06	2.728875e-06	6.698920e-10	1.901708e+01	4.698678e+01
2.460000e-06	2.768892e-06	6.794923e-10	1.929595e+01	4.754393e+01
2.470000e-06	2.808779e-06	6.872590e-10	1.957391e+01	4.808758e+01
2.480000e-06	2.848505e-06	6.937920e-10	1.985076e+01	4.861783e+01
2.490000e-06	2.888088e-06	7.002368e-10	2.012660e+01	4.913477e+01
2.500000e-06	2.927578e-06	7.061916e-10	2.040180e+01	4.963847e+01
2.510000e-06	2.966944e-06	7.128799e-10	2.067614e+01	5.012903e+01
2.520000e-06	3.006102e-06	7.221984e-10	2.094903e+01	5.060650e+01
2.530000e-06	3.045031e-06	7.314132e-10	2.122031e+01	5.107097e+01
2.540000e-06	3.083734e-06	7.389734e-10	2.149003e+01	5.152251e+01
2.550000e-06	3.122179e-06	7.447859e-10	2.175795e+01	5.196117e+01
2.560000e-06	3.160381e-06	7.488874e-10	2.202417e+01	5.238704e+01
2.570000e-06	3.198425e-06	7.518903e-10	2.228930e+01	5.280017e+01
2.580000e-06	3.236278e-06	7.558632e-10	2.255309e+01	5.320064e+01
2.590000e-06	3.273932e-06	7.622351e-10	2.281549e+01	5.358854e+01
2.600000e-06	3.311388e-06	7.696055e-10	2.307652e+01	5.396394e+01
2.610000e-06	3.348627e-06	7.758230e-10	2.333603e+01	5.432695e+01
2.620000e-06	3.385648e-06	7.789257e-10	2.359402e+01	5.467768e+01
2.630000e-06	3.422369e-06	7.809718e-10	2.384993e+01	5.501624e+01
2.640000e-06	3.458756e-06	7.848620e-10	2.410350e+01	5.534276e+01
2.650000e-06	3.494880e-06	7.899553e-10	2.435524e+01	5.565739e+01
2.660000e-06	3.530808e-06	7.949376e-10	2.460562e+01	5.596031e+01
2.670000e-06	3.566571e-06	7.992569e-10	2.485484e+01	5.625167e+01
2.680000e-06	3.602202e-06	8.043313e-10	2.510315e+01	5.653170e+01
2.690000e-06	3.637693e-06	8.101816e-10	2.535048e+01	5.680060e+01
2.700000e-06	3.673061e-06	8.133359e-10	2.559695e+01	5.705860e+01
2.710000e-06	3.708263e-06	8.153371e-10	2.584227e+01	5.730598e+01
2.720000e-06	3.743131e-06	8.167755e-10	2.608526e+01	5.754298e+01
2.730000e-06	3.777610e-06	8.168766e-10	2.632554e+01	5.776992e+01
2.740000e-06	3.811761e-06	8.182624e-10	2.656353e+01	5.798708e+01
2.750000e-06	3.845534e-06	8.210306e-10	2.679889e+01	5.819482e+01
2.760000e-06	3.878826e-06	8.242806e-10	2.703089e+01	5.839345e+01
2.770000e-06	3.911586e-06	8.285052e-10	2.725919e+01	5.858334e+01
2.780000e-06	3.943894e-06	8.331266e-10	2.748434e+01	5.876485e+01
2.790000e-06	3.975896e-06	8.379954e-10	2.770736e+01	5.893837e+01
2.800000e-06	4.007661e-06	8.419485e-10	2.792873e+01	5.910427e+01
2.810000e-06	4.039291e-06	8.459289e-10	2.814915e+01	5.926296e+01
2.820000e-06	4.070805e-06	8.492025e-10	2.836877e+01	5.941483e+01
2.830000e-06	4.102128e-06	8.516969e-10	2.858705e+01	5.956027e+01
2.840000e-06	4.133213e-06	8.550411e-10	2.880367e+01	5.969969e+01
2.850000e-06	4.164005e-06	8.589529e-10	2.901826e+01	5.983348e+01
2.860000e-06	4.194430e-06	8.624807e-10	2.923029e+01	5.996204e+01
2.870000e-06	4.224479e-06	8.650321e-10	2.943969e+01	6.008573e+01
2.880000e-06	4.254186e-06	8.684852e-10	2.964672e+01	6.020494e+01
2.890000e-06	4.283661e-06	8.720468e-10	2.985213e+01	6.032002e+01
2.900000e-06	4.312929e-06	8.758563e-10	3.005609e+01	6.043131e+01
