# Temperatura_=_6.38
# Concentracion g/m^3_=_1620.0
# C_Vs_to_Am_M_A/Vsm_=_65563218390.804596
# pendiente_HvsI_1/m_=_3716.3
# ordenada_HvsI_A/m_=_1297.0
# frecuencia_Hz_=_135093.1624404174

Tiempo_(s)	Campo_(V.s)	Magnetizacion_(V.s)	Campo_(kA/m)	Magnetizacion_(A/m)
0.000000e+00	-5.513185e-06	-1.263721e-09	-3.837110e+01	-8.287618e+01
1.000000e-08	-5.513474e-06	-1.261641e-09	-3.837312e+01	-8.281592e+01
2.000000e-08	-5.513461e-06	-1.261518e-09	-3.837303e+01	-8.275650e+01
3.000000e-08	-5.513034e-06	-1.262077e-09	-3.837006e+01	-8.269798e+01
4.000000e-08	-5.512033e-06	-1.258150e-09	-3.836309e+01	-8.264037e+01
5.000000e-08	-5.510421e-06	-1.245080e-09	-3.835187e+01	-8.258368e+01
6.000000e-08	-5.508389e-06	-1.233726e-09	-3.833772e+01	-8.252788e+01
7.000000e-08	-5.505881e-06	-1.261149e-09	-3.832027e+01	-8.247292e+01
8.000000e-08	-5.502836e-06	-1.301026e-09	-3.829908e+01	-8.241870e+01
9.000000e-08	-5.499285e-06	-1.317076e-09	-3.827437e+01	-8.236514e+01
1.000000e-07	-5.495282e-06	-1.296028e-09	-3.824651e+01	-8.231211e+01
1.100000e-07	-5.490944e-06	-1.266277e-09	-3.821631e+01	-8.225945e+01
1.200000e-07	-5.486409e-06	-1.234694e-09	-3.818475e+01	-8.220699e+01
1.300000e-07	-5.481623e-06	-1.210338e-09	-3.815144e+01	-8.215454e+01
1.400000e-07	-5.476469e-06	-1.232945e-09	-3.811557e+01	-8.210189e+01
1.500000e-07	-5.470989e-06	-1.259185e-09	-3.807743e+01	-8.204880e+01
1.600000e-07	-5.465136e-06	-1.242564e-09	-3.803669e+01	-8.199505e+01
1.700000e-07	-5.458820e-06	-1.254067e-09	-3.799273e+01	-8.194036e+01
1.800000e-07	-5.452023e-06	-1.256041e-09	-3.794542e+01	-8.188446e+01
1.900000e-07	-5.444869e-06	-1.261113e-09	-3.789563e+01	-8.182708e+01
2.000000e-07	-5.437412e-06	-1.198846e-09	-3.784373e+01	-8.176792e+01
2.100000e-07	-5.429625e-06	-1.230412e-09	-3.778954e+01	-8.170668e+01
2.200000e-07	-5.421546e-06	-1.274523e-09	-3.773331e+01	-8.164307e+01
2.300000e-07	-5.413239e-06	-1.296771e-09	-3.767550e+01	-8.157678e+01
2.400000e-07	-5.404465e-06	-1.259529e-09	-3.761443e+01	-8.150751e+01
2.500000e-07	-5.395013e-06	-1.254181e-09	-3.754864e+01	-8.143495e+01
2.600000e-07	-5.384883e-06	-1.255344e-09	-3.747814e+01	-8.135880e+01
2.700000e-07	-5.374214e-06	-1.253288e-09	-3.740389e+01	-8.127876e+01
2.800000e-07	-5.363028e-06	-1.253450e-09	-3.732603e+01	-8.119456e+01
2.900000e-07	-5.351405e-06	-1.262854e-09	-3.724514e+01	-8.110590e+01
3.000000e-07	-5.339491e-06	-1.267836e-09	-3.716222e+01	-8.101252e+01
3.100000e-07	-5.327143e-06	-1.245438e-09	-3.707628e+01	-8.091416e+01
3.200000e-07	-5.314396e-06	-1.262081e-09	-3.698756e+01	-8.081058e+01
3.300000e-07	-5.301322e-06	-1.246865e-09	-3.689657e+01	-8.070154e+01
3.400000e-07	-5.287879e-06	-1.238794e-09	-3.680300e+01	-8.058683e+01
3.500000e-07	-5.274057e-06	-1.231941e-09	-3.670680e+01	-8.046625e+01
3.600000e-07	-5.259807e-06	-1.267719e-09	-3.660763e+01	-8.033962e+01
3.700000e-07	-5.244941e-06	-1.244101e-09	-3.650416e+01	-8.020678e+01
3.800000e-07	-5.229381e-06	-1.245797e-09	-3.639586e+01	-8.006759e+01
3.900000e-07	-5.213383e-06	-1.253541e-09	-3.628452e+01	-7.992193e+01
4.000000e-07	-5.197073e-06	-1.236213e-09	-3.617101e+01	-7.976970e+01
4.100000e-07	-5.180432e-06	-1.195773e-09	-3.605518e+01	-7.961081e+01
4.200000e-07	-5.163517e-06	-1.231988e-09	-3.593746e+01	-7.944521e+01
4.300000e-07	-5.146288e-06	-1.240865e-09	-3.581755e+01	-7.927285e+01
4.400000e-07	-5.128692e-06	-1.211991e-09	-3.569508e+01	-7.909373e+01
4.500000e-07	-5.110730e-06	-1.219595e-09	-3.557007e+01	-7.890785e+01
4.600000e-07	-5.092302e-06	-1.255466e-09	-3.544181e+01	-7.871523e+01
4.700000e-07	-5.073383e-06	-1.200556e-09	-3.531013e+01	-7.851591e+01
4.800000e-07	-5.054128e-06	-1.187634e-09	-3.517613e+01	-7.830997e+01
4.900000e-07	-5.034713e-06	-1.233969e-09	-3.504100e+01	-7.809749e+01
5.000000e-07	-5.015183e-06	-1.220602e-09	-3.490507e+01	-7.787857e+01
5.100000e-07	-4.995373e-06	-1.170091e-09	-3.476720e+01	-7.765333e+01
5.200000e-07	-4.975236e-06	-1.211875e-09	-3.462705e+01	-7.742191e+01
5.300000e-07	-4.954753e-06	-1.229652e-09	-3.448449e+01	-7.718445e+01
5.400000e-07	-4.933870e-06	-1.179393e-09	-3.433914e+01	-7.694114e+01
5.500000e-07	-4.912612e-06	-1.181362e-09	-3.419119e+01	-7.669215e+01
5.600000e-07	-4.891063e-06	-1.207238e-09	-3.404121e+01	-7.643767e+01
5.700000e-07	-4.869180e-06	-1.167030e-09	-3.388891e+01	-7.617790e+01
5.800000e-07	-4.846899e-06	-1.158373e-09	-3.373383e+01	-7.591306e+01
5.900000e-07	-4.824229e-06	-1.202523e-09	-3.357605e+01	-7.564337e+01
6.000000e-07	-4.801200e-06	-1.179282e-09	-3.341578e+01	-7.536906e+01
6.100000e-07	-4.777883e-06	-1.146904e-09	-3.325349e+01	-7.509035e+01
6.200000e-07	-4.754364e-06	-1.164622e-09	-3.308980e+01	-7.480749e+01
6.300000e-07	-4.730683e-06	-1.160578e-09	-3.292499e+01	-7.452070e+01
6.400000e-07	-4.706710e-06	-1.124328e-09	-3.275814e+01	-7.423024e+01
6.500000e-07	-4.682357e-06	-1.143132e-09	-3.258864e+01	-7.393632e+01
6.600000e-07	-4.657631e-06	-1.150210e-09	-3.241655e+01	-7.363919e+01
6.700000e-07	-4.632377e-06	-1.130012e-09	-3.224079e+01	-7.333908e+01
6.800000e-07	-4.606466e-06	-1.128151e-09	-3.206045e+01	-7.303620e+01
6.900000e-07	-4.580015e-06	-1.142405e-09	-3.187635e+01	-7.273078e+01
7.000000e-07	-4.553199e-06	-1.115503e-09	-3.168972e+01	-7.242301e+01
7.100000e-07	-4.526066e-06	-1.104140e-09	-3.150088e+01	-7.211310e+01
7.200000e-07	-4.498600e-06	-1.107443e-09	-3.130972e+01	-7.180124e+01
7.300000e-07	-4.470931e-06	-1.104590e-09	-3.111714e+01	-7.148758e+01
7.400000e-07	-4.443176e-06	-1.093349e-09	-3.092397e+01	-7.117230e+01
7.500000e-07	-4.415186e-06	-1.100374e-09	-3.072917e+01	-7.085553e+01
7.600000e-07	-4.386787e-06	-1.090726e-09	-3.053151e+01	-7.053740e+01
7.700000e-07	-4.358129e-06	-1.076527e-09	-3.033205e+01	-7.021803e+01
7.800000e-07	-4.329272e-06	-1.071368e-09	-3.013121e+01	-6.989750e+01
7.900000e-07	-4.300033e-06	-1.071864e-09	-2.992771e+01	-6.957588e+01
8.000000e-07	-4.270516e-06	-1.059454e-09	-2.972228e+01	-6.925324e+01
8.100000e-07	-4.240760e-06	-1.056408e-09	-2.951518e+01	-6.892961e+01
8.200000e-07	-4.210713e-06	-1.055362e-09	-2.930606e+01	-6.860501e+01
8.300000e-07	-4.180373e-06	-1.046052e-09	-2.909489e+01	-6.827942e+01
8.400000e-07	-4.149665e-06	-1.038830e-09	-2.888117e+01	-6.795283e+01
8.500000e-07	-4.118626e-06	-1.036922e-09	-2.866514e+01	-6.762520e+01
8.600000e-07	-4.087340e-06	-1.029862e-09	-2.844739e+01	-6.729646e+01
8.700000e-07	-4.055923e-06	-1.017808e-09	-2.822874e+01	-6.696654e+01
8.800000e-07	-4.024385e-06	-1.014499e-09	-2.800924e+01	-6.663532e+01
8.900000e-07	-3.992635e-06	-1.009732e-09	-2.778826e+01	-6.630270e+01
9.000000e-07	-3.960675e-06	-9.991756e-10	-2.756582e+01	-6.596854e+01
9.100000e-07	-3.928377e-06	-9.914435e-10	-2.734103e+01	-6.563269e+01
9.200000e-07	-3.895728e-06	-9.901057e-10	-2.711380e+01	-6.529498e+01
9.300000e-07	-3.862688e-06	-9.793287e-10	-2.688385e+01	-6.495524e+01
9.400000e-07	-3.829111e-06	-9.748400e-10	-2.665016e+01	-6.461328e+01
9.500000e-07	-3.795015e-06	-9.748869e-10	-2.641285e+01	-6.426890e+01
9.600000e-07	-3.760420e-06	-9.695230e-10	-2.617207e+01	-6.392187e+01
9.700000e-07	-3.725527e-06	-9.562093e-10	-2.592922e+01	-6.357200e+01
9.800000e-07	-3.690504e-06	-9.533448e-10	-2.568546e+01	-6.321905e+01
9.900000e-07	-3.655263e-06	-9.453203e-10	-2.544019e+01	-6.286279e+01
1.000000e-06	-3.619779e-06	-9.339775e-10	-2.519323e+01	-6.250300e+01
1.010000e-06	-3.584167e-06	-9.266765e-10	-2.494537e+01	-6.213945e+01
1.020000e-06	-3.548442e-06	-9.294868e-10	-2.469673e+01	-6.177190e+01
1.030000e-06	-3.512515e-06	-9.227339e-10	-2.444668e+01	-6.140013e+01
1.040000e-06	-3.476423e-06	-9.131893e-10	-2.419549e+01	-6.102392e+01
1.050000e-06	-3.440098e-06	-9.064689e-10	-2.394267e+01	-6.064305e+01
1.060000e-06	-3.403451e-06	-9.008570e-10	-2.368761e+01	-6.025732e+01
1.070000e-06	-3.366477e-06	-8.904840e-10	-2.343027e+01	-5.986653e+01
1.080000e-06	-3.329129e-06	-8.844208e-10	-2.317034e+01	-5.947050e+01
1.090000e-06	-3.291592e-06	-8.765562e-10	-2.290908e+01	-5.906905e+01
1.100000e-06	-3.253807e-06	-8.677025e-10	-2.264611e+01	-5.866203e+01
1.110000e-06	-3.215825e-06	-8.629384e-10	-2.238175e+01	-5.824930e+01
1.120000e-06	-3.177678e-06	-8.600660e-10	-2.211626e+01	-5.783074e+01
1.130000e-06	-3.139276e-06	-8.507720e-10	-2.184898e+01	-5.740622e+01
1.140000e-06	-3.100691e-06	-8.391990e-10	-2.158044e+01	-5.697567e+01
1.150000e-06	-3.061873e-06	-8.300911e-10	-2.131027e+01	-5.653901e+01
1.160000e-06	-3.022847e-06	-8.199875e-10	-2.103865e+01	-5.609619e+01
1.170000e-06	-2.983687e-06	-8.113170e-10	-2.076610e+01	-5.564717e+01
1.180000e-06	-2.944420e-06	-8.069496e-10	-2.049281e+01	-5.519193e+01
1.190000e-06	-2.904950e-06	-8.028805e-10	-2.021810e+01	-5.473048e+01
1.200000e-06	-2.865332e-06	-7.927820e-10	-1.994237e+01	-5.426284e+01
1.210000e-06	-2.825640e-06	-7.831671e-10	-1.966612e+01	-5.378904e+01
1.220000e-06	-2.785833e-06	-7.729573e-10	-1.938906e+01	-5.330912e+01
1.230000e-06	-2.745856e-06	-7.651545e-10	-1.911083e+01	-5.282316e+01
1.240000e-06	-2.705639e-06	-7.582927e-10	-1.883092e+01	-5.233123e+01
1.250000e-06	-2.665192e-06	-7.528074e-10	-1.854942e+01	-5.183341e+01
1.260000e-06	-2.624555e-06	-7.454094e-10	-1.826659e+01	-5.132980e+01
1.270000e-06	-2.583640e-06	-7.366343e-10	-1.798182e+01	-5.082050e+01
1.280000e-06	-2.542390e-06	-7.283868e-10	-1.769473e+01	-5.030561e+01
1.290000e-06	-2.500846e-06	-7.207947e-10	-1.740559e+01	-4.978525e+01
1.300000e-06	-2.459072e-06	-7.086792e-10	-1.711485e+01	-4.925951e+01
1.310000e-06	-2.416996e-06	-6.981487e-10	-1.682200e+01	-4.872851e+01
1.320000e-06	-2.374568e-06	-6.885926e-10	-1.652671e+01	-4.819234e+01
1.330000e-06	-2.331855e-06	-6.793600e-10	-1.622943e+01	-4.765108e+01
1.340000e-06	-2.288878e-06	-6.702413e-10	-1.593032e+01	-4.710481e+01
1.350000e-06	-2.245724e-06	-6.631485e-10	-1.562997e+01	-4.655360e+01
1.360000e-06	-2.202404e-06	-6.542311e-10	-1.532847e+01	-4.599750e+01
1.370000e-06	-2.158930e-06	-6.468332e-10	-1.502589e+01	-4.543651e+01
1.380000e-06	-2.115377e-06	-6.409762e-10	-1.472277e+01	-4.487066e+01
1.390000e-06	-2.071763e-06	-6.345553e-10	-1.441922e+01	-4.429991e+01
1.400000e-06	-2.028039e-06	-6.226396e-10	-1.411491e+01	-4.372421e+01
1.410000e-06	-1.984232e-06	-6.108721e-10	-1.381002e+01	-4.314350e+01
1.420000e-06	-1.940372e-06	-6.020829e-10	-1.350476e+01	-4.255766e+01
1.430000e-06	-1.896416e-06	-5.954423e-10	-1.319883e+01	-4.196654e+01
1.440000e-06	-1.852376e-06	-5.879501e-10	-1.289231e+01	-4.136998e+01
1.450000e-06	-1.808218e-06	-5.788590e-10	-1.258498e+01	-4.076776e+01
1.460000e-06	-1.763933e-06	-5.673463e-10	-1.227676e+01	-4.015964e+01
1.470000e-06	-1.719574e-06	-5.547138e-10	-1.196803e+01	-3.954533e+01
1.480000e-06	-1.675150e-06	-5.428714e-10	-1.165884e+01	-3.892451e+01
1.490000e-06	-1.630566e-06	-5.309310e-10	-1.134855e+01	-3.829683e+01
1.500000e-06	-1.585802e-06	-5.206737e-10	-1.103699e+01	-3.766190e+01
1.510000e-06	-1.540926e-06	-5.112898e-10	-1.072466e+01	-3.701928e+01
1.520000e-06	-1.495951e-06	-5.024523e-10	-1.041164e+01	-3.636853e+01
1.530000e-06	-1.450864e-06	-4.926749e-10	-1.009784e+01	-3.570915e+01
1.540000e-06	-1.405576e-06	-4.822190e-10	-9.782642e+00	-3.504063e+01
1.550000e-06	-1.360184e-06	-4.688442e-10	-9.466716e+00	-3.436240e+01
1.560000e-06	-1.314759e-06	-4.545922e-10	-9.150563e+00	-3.367392e+01
1.570000e-06	-1.269221e-06	-4.406800e-10	-8.833623e+00	-3.297457e+01
1.580000e-06	-1.223606e-06	-4.308167e-10	-8.516148e+00	-3.226377e+01
1.590000e-06	-1.177921e-06	-4.219583e-10	-8.198189e+00	-3.154088e+01
1.600000e-06	-1.132159e-06	-4.118963e-10	-7.879692e+00	-3.080527e+01
1.610000e-06	-1.086296e-06	-3.988632e-10	-7.560490e+00	-3.005632e+01
1.620000e-06	-1.040296e-06	-3.866848e-10	-7.240335e+00	-2.929337e+01
1.630000e-06	-9.942780e-07	-3.769634e-10	-6.920055e+00	-2.851582e+01
1.640000e-06	-9.482090e-07	-3.669973e-10	-6.599421e+00	-2.772302e+01
1.650000e-06	-9.020606e-07	-3.539950e-10	-6.278233e+00	-2.691438e+01
1.660000e-06	-8.559030e-07	-3.388840e-10	-5.956982e+00	-2.608932e+01
1.670000e-06	-8.096745e-07	-3.224126e-10	-5.635238e+00	-2.524726e+01
1.680000e-06	-7.633837e-07	-3.049960e-10	-5.313059e+00	-2.438769e+01
1.690000e-06	-7.169654e-07	-2.884961e-10	-4.989993e+00	-2.351010e+01
1.700000e-06	-6.704616e-07	-2.756371e-10	-4.666332e+00	-2.261405e+01
1.710000e-06	-6.240533e-07	-2.648824e-10	-4.343336e+00	-2.169912e+01
1.720000e-06	-5.776079e-07	-2.512249e-10	-4.020082e+00	-2.076496e+01
1.730000e-06	-5.311145e-07	-2.344588e-10	-3.696493e+00	-1.981128e+01
1.740000e-06	-4.845451e-07	-2.170073e-10	-3.372376e+00	-1.883781e+01
1.750000e-06	-4.378691e-07	-1.979323e-10	-3.047517e+00	-1.784439e+01
1.760000e-06	-3.911928e-07	-1.805805e-10	-2.722655e+00	-1.683091e+01
1.770000e-06	-3.444729e-07	-1.664370e-10	-2.397490e+00	-1.579732e+01
1.780000e-06	-2.977423e-07	-1.539524e-10	-2.072251e+00	-1.474365e+01
1.790000e-06	-2.509647e-07	-1.409650e-10	-1.746684e+00	-1.367002e+01
1.800000e-06	-2.042375e-07	-1.254773e-10	-1.421469e+00	-1.257661e+01
1.810000e-06	-1.575729e-07	-1.095024e-10	-1.096688e+00	-1.146368e+01
1.820000e-06	-1.108425e-07	-9.315158e-11	-7.714508e-01	-1.033158e+01
1.830000e-06	-6.405782e-08	-7.887710e-11	-4.458348e-01	-9.180730e+00
1.840000e-06	-1.733144e-08	-6.390418e-11	-1.206247e-01	-8.011643e+00
1.850000e-06	2.934159e-08	-4.693925e-11	2.042140e-01	-6.824902e+00
1.860000e-06	7.606541e-08	-3.240232e-11	5.294061e-01	-5.621171e+00
1.870000e-06	1.227717e-07	-1.865609e-11	8.544766e-01	-4.401193e+00
1.880000e-06	1.695339e-07	-2.461423e-12	1.179935e+00	-3.165782e+00
1.890000e-06	2.163744e-07	1.585302e-11	1.505940e+00	-1.915828e+00
1.900000e-06	2.631418e-07	3.457210e-11	1.831435e+00	-6.522874e-01
1.910000e-06	3.098551e-07	5.250818e-11	2.156554e+00	6.238193e-01
1.920000e-06	3.564904e-07	7.028060e-11	2.481130e+00	1.911410e+00
1.930000e-06	4.030444e-07	8.553543e-11	2.805141e+00	3.209347e+00
1.940000e-06	4.496492e-07	1.014549e-10	3.129505e+00	4.516441e+00
1.950000e-06	4.963162e-07	1.191700e-10	3.454301e+00	5.831461e+00
1.960000e-06	5.429568e-07	1.384244e-10	3.778914e+00	7.153132e+00
1.970000e-06	5.894789e-07	1.584751e-10	4.102703e+00	8.480148e+00
1.980000e-06	6.358784e-07	1.767834e-10	4.425637e+00	9.811177e+00
1.990000e-06	6.821424e-07	1.940809e-10	4.747629e+00	1.114487e+01
2.000000e-06	7.284264e-07	2.104470e-10	5.069761e+00	1.247985e+01
2.010000e-06	7.747288e-07	2.282505e-10	5.392019e+00	1.381474e+01
2.020000e-06	8.208314e-07	2.491197e-10	5.712888e+00	1.514819e+01
2.030000e-06	8.668640e-07	2.701561e-10	6.033269e+00	1.647880e+01
2.040000e-06	9.129433e-07	2.880623e-10	6.353976e+00	1.780524e+01
2.050000e-06	9.590026e-07	3.042863e-10	6.674543e+00	1.912617e+01
2.060000e-06	1.004962e-06	3.197082e-10	6.994416e+00	2.044027e+01
2.070000e-06	1.050855e-06	3.337630e-10	7.313823e+00	2.174629e+01
2.080000e-06	1.096726e-06	3.501502e-10	7.633083e+00	2.304296e+01
2.090000e-06	1.142565e-06	3.693746e-10	7.952119e+00	2.432912e+01
2.100000e-06	1.188263e-06	3.905702e-10	8.270169e+00	2.560361e+01
2.110000e-06	1.233794e-06	4.111651e-10	8.587060e+00	2.686535e+01
2.120000e-06	1.279316e-06	4.278312e-10	8.903889e+00	2.811330e+01
2.130000e-06	1.324814e-06	4.442128e-10	9.220546e+00	2.934652e+01
2.140000e-06	1.370165e-06	4.590566e-10	9.536182e+00	3.056408e+01
2.150000e-06	1.415351e-06	4.736142e-10	9.850674e+00	3.176518e+01
2.160000e-06	1.460387e-06	4.891652e-10	1.016412e+01	3.294905e+01
2.170000e-06	1.505326e-06	5.066557e-10	1.047689e+01	3.411502e+01
2.180000e-06	1.550216e-06	5.250417e-10	1.078932e+01	3.526248e+01
2.190000e-06	1.594990e-06	5.410205e-10	1.110094e+01	3.639090e+01
2.200000e-06	1.639605e-06	5.544507e-10	1.141146e+01	3.749984e+01
2.210000e-06	1.684151e-06	5.662517e-10	1.172149e+01	3.858892e+01
2.220000e-06	1.728579e-06	5.781238e-10	1.203070e+01	3.965786e+01
2.230000e-06	1.772793e-06	5.920976e-10	1.233843e+01	4.070642e+01
2.240000e-06	1.816874e-06	6.057703e-10	1.264523e+01	4.173447e+01
2.250000e-06	1.860843e-06	6.197860e-10	1.295124e+01	4.274193e+01
2.260000e-06	1.904723e-06	6.322248e-10	1.325664e+01	4.372880e+01
2.270000e-06	1.948579e-06	6.459698e-10	1.356187e+01	4.469514e+01
2.280000e-06	1.992320e-06	6.604799e-10	1.386631e+01	4.564107e+01
2.290000e-06	2.035927e-06	6.729757e-10	1.416980e+01	4.656678e+01
2.300000e-06	2.079512e-06	6.857930e-10	1.447315e+01	4.747251e+01
2.310000e-06	2.123079e-06	6.977193e-10	1.477638e+01	4.835853e+01
2.320000e-06	2.166556e-06	7.110366e-10	1.507897e+01	4.922519e+01
2.330000e-06	2.209929e-06	7.237966e-10	1.538084e+01	5.007285e+01
2.340000e-06	2.253224e-06	7.368240e-10	1.568217e+01	5.090193e+01
2.350000e-06	2.296303e-06	7.485707e-10	1.598199e+01	5.171286e+01
2.360000e-06	2.339081e-06	7.604875e-10	1.627973e+01	5.250611e+01
2.370000e-06	2.381645e-06	7.728145e-10	1.657597e+01	5.328216e+01
2.380000e-06	2.423938e-06	7.844534e-10	1.687032e+01	5.404152e+01
2.390000e-06	2.465970e-06	7.965933e-10	1.716286e+01	5.478469e+01
2.400000e-06	2.507846e-06	8.067515e-10	1.745431e+01	5.551219e+01
2.410000e-06	2.549329e-06	8.137837e-10	1.774302e+01	5.622454e+01
2.420000e-06	2.590450e-06	8.218260e-10	1.802922e+01	5.692224e+01
2.430000e-06	2.631339e-06	8.338733e-10	1.831380e+01	5.760581e+01
2.440000e-06	2.671929e-06	8.476470e-10	1.859630e+01	5.827572e+01
2.450000e-06	2.712265e-06	8.577680e-10	1.887704e+01	5.893247e+01
2.460000e-06	2.752437e-06	8.677695e-10	1.915663e+01	5.957651e+01
2.470000e-06	2.792375e-06	8.791893e-10	1.943459e+01	6.020827e+01
2.480000e-06	2.832072e-06	8.881215e-10	1.971088e+01	6.082816e+01
2.490000e-06	2.871655e-06	8.953209e-10	1.998638e+01	6.143657e+01
2.500000e-06	2.911157e-06	9.034961e-10	2.026131e+01	6.203386e+01
2.510000e-06	2.950596e-06	9.136376e-10	2.053579e+01	6.262035e+01
2.520000e-06	2.989838e-06	9.249245e-10	2.080891e+01	6.319633e+01
2.530000e-06	3.028863e-06	9.360021e-10	2.108052e+01	6.376208e+01
2.540000e-06	3.067672e-06	9.445627e-10	2.135063e+01	6.431782e+01
2.550000e-06	3.106261e-06	9.502697e-10	2.161920e+01	6.486376e+01
2.560000e-06	3.144630e-06	9.553465e-10	2.188625e+01	6.540007e+01
2.570000e-06	3.182724e-06	9.611333e-10	2.215138e+01	6.592688e+01
2.580000e-06	3.220592e-06	9.663703e-10	2.241494e+01	6.644432e+01
2.590000e-06	3.258310e-06	9.731138e-10	2.267745e+01	6.695247e+01
2.600000e-06	3.295894e-06	9.826213e-10	2.293903e+01	6.745139e+01
2.610000e-06	3.333269e-06	9.899229e-10	2.319915e+01	6.794112e+01
2.620000e-06	3.370375e-06	9.929007e-10	2.345741e+01	6.842168e+01
2.630000e-06	3.407143e-06	9.955386e-10	2.371331e+01	6.889307e+01
2.640000e-06	3.443637e-06	9.999349e-10	2.396730e+01	6.935527e+01
2.650000e-06	3.479972e-06	1.004193e-09	2.422019e+01	6.980826e+01
2.660000e-06	3.516097e-06	1.009426e-09	2.447161e+01	7.025199e+01
2.670000e-06	3.551999e-06	1.016470e-09	2.472149e+01	7.068644e+01
2.680000e-06	3.587738e-06	1.023932e-09	2.497023e+01	7.111155e+01
2.690000e-06	3.623351e-06	1.031222e-09	2.521809e+01	7.152727e+01
2.700000e-06	3.658842e-06	1.036056e-09	2.546510e+01	7.193356e+01
2.710000e-06	3.694221e-06	1.040491e-09	2.571133e+01	7.233037e+01
2.720000e-06	3.729423e-06	1.045815e-09	2.595633e+01	7.271768e+01
2.730000e-06	3.764265e-06	1.051396e-09	2.619884e+01	7.309545e+01
2.740000e-06	3.798777e-06	1.057286e-09	2.643903e+01	7.346369e+01
2.750000e-06	3.832942e-06	1.063877e-09	2.667682e+01	7.382238e+01
2.760000e-06	3.866499e-06	1.067807e-09	2.691037e+01	7.417155e+01
2.770000e-06	3.899490e-06	1.072338e-09	2.713998e+01	7.451124e+01
2.780000e-06	3.932076e-06	1.078138e-09	2.736678e+01	7.484150e+01
2.790000e-06	3.964335e-06	1.081849e-09	2.759130e+01	7.516240e+01
2.800000e-06	3.996285e-06	1.085357e-09	2.781367e+01	7.547404e+01
2.810000e-06	4.027975e-06	1.090288e-09	2.803422e+01	7.577654e+01
2.820000e-06	4.059547e-06	1.096613e-09	2.825396e+01	7.607004e+01
2.830000e-06	4.090978e-06	1.102272e-09	2.847271e+01	7.635469e+01
2.840000e-06	4.122146e-06	1.108957e-09	2.868964e+01	7.663067e+01
2.850000e-06	4.153030e-06	1.116562e-09	2.890459e+01	7.689818e+01
2.860000e-06	4.183720e-06	1.122690e-09	2.911819e+01	7.715745e+01
2.870000e-06	4.214094e-06	1.125834e-09	2.932959e+01	7.740870e+01
2.880000e-06	4.244111e-06	1.129211e-09	2.953850e+01	7.765219e+01
2.890000e-06	4.273933e-06	1.133079e-09	2.974606e+01	7.788819e+01
2.900000e-06	4.303468e-06	1.137501e-09	2.995162e+01	7.811698e+01
2.910000e-06	4.332628e-06	1.143973e-09	3.015457e+01	7.833884e+01
