# Temperatura_=_8.05
# Concentracion g/m^3_=_1620.0
# C_Vs_to_Am_M_A/Vsm_=_65563218390.804596
# pendiente_HvsI_1/m_=_3716.3
# ordenada_HvsI_A/m_=_1297.0
# frecuencia_Hz_=_135090.9262480024

Tiempo_(s)	Campo_(V.s)	Magnetizacion_(V.s)	Campo_(kA/m)	Magnetizacion_(A/m)
0.000000e+00	-5.522295e-06	-1.337681e-09	-3.837524e+01	-8.736280e+01
1.000000e-08	-5.522620e-06	-1.334448e-09	-3.837750e+01	-8.733156e+01
2.000000e-08	-5.522765e-06	-1.330990e-09	-3.837851e+01	-8.729854e+01
3.000000e-08	-5.522534e-06	-1.330002e-09	-3.837690e+01	-8.726371e+01
4.000000e-08	-5.521776e-06	-1.328356e-09	-3.837163e+01	-8.722708e+01
5.000000e-08	-5.520481e-06	-1.319081e-09	-3.836264e+01	-8.718861e+01
6.000000e-08	-5.518535e-06	-1.303052e-09	-3.834911e+01	-8.714827e+01
7.000000e-08	-5.515982e-06	-1.302059e-09	-3.833137e+01	-8.710602e+01
8.000000e-08	-5.513014e-06	-1.335818e-09	-3.831075e+01	-8.706182e+01
9.000000e-08	-5.509597e-06	-1.375903e-09	-3.828700e+01	-8.701562e+01
1.000000e-07	-5.505652e-06	-1.403474e-09	-3.825959e+01	-8.696735e+01
1.100000e-07	-5.501345e-06	-1.350076e-09	-3.822966e+01	-8.691696e+01
1.200000e-07	-5.496891e-06	-1.250641e-09	-3.819871e+01	-8.686437e+01
1.300000e-07	-5.492196e-06	-1.258619e-09	-3.816608e+01	-8.680952e+01
1.400000e-07	-5.487147e-06	-1.305108e-09	-3.813099e+01	-8.675233e+01
1.500000e-07	-5.481776e-06	-1.337997e-09	-3.809367e+01	-8.669270e+01
1.600000e-07	-5.476037e-06	-1.267458e-09	-3.805379e+01	-8.663057e+01
1.700000e-07	-5.469978e-06	-1.270745e-09	-3.801168e+01	-8.656584e+01
1.800000e-07	-5.463476e-06	-1.360521e-09	-3.796650e+01	-8.649843e+01
1.900000e-07	-5.456541e-06	-1.395541e-09	-3.791831e+01	-8.642823e+01
2.000000e-07	-5.449311e-06	-1.289907e-09	-3.786807e+01	-8.635517e+01
2.100000e-07	-5.441740e-06	-1.234093e-09	-3.781545e+01	-8.627913e+01
2.200000e-07	-5.433932e-06	-1.327727e-09	-3.776119e+01	-8.620003e+01
2.300000e-07	-5.425877e-06	-1.385638e-09	-3.770522e+01	-8.611776e+01
2.400000e-07	-5.417449e-06	-1.322345e-09	-3.764665e+01	-8.603223e+01
2.500000e-07	-5.408417e-06	-1.265845e-09	-3.758389e+01	-8.594334e+01
2.600000e-07	-5.398554e-06	-1.310968e-09	-3.751535e+01	-8.585099e+01
2.700000e-07	-5.388143e-06	-1.315484e-09	-3.744300e+01	-8.575507e+01
2.800000e-07	-5.377231e-06	-1.288804e-09	-3.736717e+01	-8.565548e+01
2.900000e-07	-5.365726e-06	-1.290912e-09	-3.728722e+01	-8.555213e+01
3.000000e-07	-5.353857e-06	-1.328727e-09	-3.720474e+01	-8.544491e+01
3.100000e-07	-5.341709e-06	-1.304494e-09	-3.712033e+01	-8.533372e+01
3.200000e-07	-5.329155e-06	-1.281404e-09	-3.703308e+01	-8.521847e+01
3.300000e-07	-5.316161e-06	-1.283144e-09	-3.694279e+01	-8.509905e+01
3.400000e-07	-5.302863e-06	-1.305648e-09	-3.685038e+01	-8.497536e+01
3.500000e-07	-5.289229e-06	-1.295962e-09	-3.675563e+01	-8.484732e+01
3.600000e-07	-5.275191e-06	-1.301744e-09	-3.665808e+01	-8.471482e+01
3.700000e-07	-5.260566e-06	-1.298529e-09	-3.655645e+01	-8.457777e+01
3.800000e-07	-5.245383e-06	-1.307565e-09	-3.645094e+01	-8.443609e+01
3.900000e-07	-5.229591e-06	-1.294124e-09	-3.634120e+01	-8.428967e+01
4.000000e-07	-5.213265e-06	-1.285736e-09	-3.622774e+01	-8.413844e+01
4.100000e-07	-5.196624e-06	-1.278968e-09	-3.611211e+01	-8.398232e+01
4.200000e-07	-5.179702e-06	-1.289722e-09	-3.599452e+01	-8.382122e+01
4.300000e-07	-5.162555e-06	-1.277467e-09	-3.587536e+01	-8.365507e+01
4.400000e-07	-5.145150e-06	-1.271295e-09	-3.575440e+01	-8.348381e+01
4.500000e-07	-5.127392e-06	-1.300957e-09	-3.563100e+01	-8.330736e+01
4.600000e-07	-5.109140e-06	-1.298186e-09	-3.550417e+01	-8.312567e+01
4.700000e-07	-5.090353e-06	-1.256874e-09	-3.537362e+01	-8.293868e+01
4.800000e-07	-5.071138e-06	-1.255790e-09	-3.524009e+01	-8.274635e+01
4.900000e-07	-5.051644e-06	-1.288145e-09	-3.510462e+01	-8.254864e+01
5.000000e-07	-5.031973e-06	-1.261141e-09	-3.496792e+01	-8.234551e+01
5.100000e-07	-5.012220e-06	-1.242394e-09	-3.483066e+01	-8.213695e+01
5.200000e-07	-4.992217e-06	-1.262910e-09	-3.469165e+01	-8.192293e+01
5.300000e-07	-4.971725e-06	-1.261798e-09	-3.454925e+01	-8.170344e+01
5.400000e-07	-4.950873e-06	-1.236303e-09	-3.440434e+01	-8.147850e+01
5.500000e-07	-4.929708e-06	-1.259612e-09	-3.425727e+01	-8.124811e+01
5.600000e-07	-4.908187e-06	-1.249545e-09	-3.410771e+01	-8.101230e+01
5.700000e-07	-4.886386e-06	-1.209897e-09	-3.395622e+01	-8.077108e+01
5.800000e-07	-4.864184e-06	-1.217536e-09	-3.380193e+01	-8.052452e+01
5.900000e-07	-4.841622e-06	-1.249914e-09	-3.364515e+01	-8.027264e+01
6.000000e-07	-4.818714e-06	-1.218648e-09	-3.348595e+01	-8.001553e+01
6.100000e-07	-4.795467e-06	-1.207144e-09	-3.332440e+01	-7.975324e+01
6.200000e-07	-4.772012e-06	-1.223631e-09	-3.316142e+01	-7.948586e+01
6.300000e-07	-4.748357e-06	-1.208062e-09	-3.299703e+01	-7.921348e+01
6.400000e-07	-4.724540e-06	-1.178525e-09	-3.283153e+01	-7.893620e+01
6.500000e-07	-4.700444e-06	-1.192655e-09	-3.266408e+01	-7.865412e+01
6.600000e-07	-4.675882e-06	-1.189725e-09	-3.249339e+01	-7.836736e+01
6.700000e-07	-4.650782e-06	-1.170416e-09	-3.231897e+01	-7.807605e+01
6.800000e-07	-4.625120e-06	-1.178387e-09	-3.214064e+01	-7.778031e+01
6.900000e-07	-4.598838e-06	-1.190156e-09	-3.195800e+01	-7.748028e+01
7.000000e-07	-4.572045e-06	-1.173798e-09	-3.177182e+01	-7.717610e+01
7.100000e-07	-4.544886e-06	-1.167410e-09	-3.158308e+01	-7.686792e+01
7.200000e-07	-4.517450e-06	-1.169210e-09	-3.139242e+01	-7.655588e+01
7.300000e-07	-4.489874e-06	-1.155434e-09	-3.120080e+01	-7.624013e+01
7.400000e-07	-4.462149e-06	-1.142579e-09	-3.100813e+01	-7.592082e+01
7.500000e-07	-4.434195e-06	-1.144501e-09	-3.081388e+01	-7.559810e+01
7.600000e-07	-4.406033e-06	-1.142640e-09	-3.061817e+01	-7.527211e+01
7.700000e-07	-4.377588e-06	-1.131465e-09	-3.042050e+01	-7.494301e+01
7.800000e-07	-4.348793e-06	-1.128568e-09	-3.022040e+01	-7.461093e+01
7.900000e-07	-4.319684e-06	-1.125384e-09	-3.001812e+01	-7.427601e+01
8.000000e-07	-4.290271e-06	-1.120265e-09	-2.981373e+01	-7.393837e+01
8.100000e-07	-4.260576e-06	-1.110743e-09	-2.960737e+01	-7.359813e+01
8.200000e-07	-4.230523e-06	-1.101861e-09	-2.939853e+01	-7.325541e+01
8.300000e-07	-4.200145e-06	-1.089427e-09	-2.918743e+01	-7.291031e+01
8.400000e-07	-4.169506e-06	-1.086510e-09	-2.897451e+01	-7.256292e+01
8.500000e-07	-4.138537e-06	-1.081530e-09	-2.875931e+01	-7.221332e+01
8.600000e-07	-4.107324e-06	-1.075190e-09	-2.854240e+01	-7.186157e+01
8.700000e-07	-4.076015e-06	-1.067345e-09	-2.832483e+01	-7.150772e+01
8.800000e-07	-4.044556e-06	-1.062069e-09	-2.810622e+01	-7.115183e+01
8.900000e-07	-4.012892e-06	-1.051995e-09	-2.788618e+01	-7.079390e+01
9.000000e-07	-3.981114e-06	-1.045850e-09	-2.766535e+01	-7.043395e+01
9.100000e-07	-3.949094e-06	-1.037465e-09	-2.744284e+01	-7.007199e+01
9.200000e-07	-3.916717e-06	-1.030894e-09	-2.721785e+01	-6.970798e+01
9.300000e-07	-3.883866e-06	-1.024406e-09	-2.698956e+01	-6.934189e+01
9.400000e-07	-3.850461e-06	-1.023982e-09	-2.675742e+01	-6.897368e+01
9.500000e-07	-3.816536e-06	-1.018588e-09	-2.652167e+01	-6.860329e+01
9.600000e-07	-3.782187e-06	-1.010901e-09	-2.628298e+01	-6.823063e+01
9.700000e-07	-3.747405e-06	-9.990436e-10	-2.604127e+01	-6.785563e+01
9.800000e-07	-3.712217e-06	-9.893234e-10	-2.579675e+01	-6.747818e+01
9.900000e-07	-3.676847e-06	-9.827207e-10	-2.555096e+01	-6.709817e+01
1.000000e-06	-3.641374e-06	-9.805112e-10	-2.530444e+01	-6.671547e+01
1.010000e-06	-3.605791e-06	-9.790356e-10	-2.505717e+01	-6.632997e+01
1.020000e-06	-3.570065e-06	-9.749184e-10	-2.480891e+01	-6.594153e+01
1.030000e-06	-3.534175e-06	-9.711062e-10	-2.455950e+01	-6.554999e+01
1.040000e-06	-3.498083e-06	-9.655751e-10	-2.430869e+01	-6.515523e+01
1.050000e-06	-3.461737e-06	-9.564558e-10	-2.405612e+01	-6.475707e+01
1.060000e-06	-3.425106e-06	-9.452437e-10	-2.380157e+01	-6.435538e+01
1.070000e-06	-3.388205e-06	-9.355348e-10	-2.354514e+01	-6.394999e+01
1.080000e-06	-3.351010e-06	-9.259995e-10	-2.328666e+01	-6.354077e+01
1.090000e-06	-3.313597e-06	-9.209363e-10	-2.302668e+01	-6.312755e+01
1.100000e-06	-3.276009e-06	-9.168162e-10	-2.276547e+01	-6.271020e+01
1.110000e-06	-3.238222e-06	-9.122747e-10	-2.250288e+01	-6.228857e+01
1.120000e-06	-3.200094e-06	-9.029701e-10	-2.223792e+01	-6.186253e+01
1.130000e-06	-3.161681e-06	-8.937441e-10	-2.197099e+01	-6.143196e+01
1.140000e-06	-3.123139e-06	-8.829587e-10	-2.170315e+01	-6.099674e+01
1.150000e-06	-3.084382e-06	-8.725920e-10	-2.143383e+01	-6.055676e+01
1.160000e-06	-3.045441e-06	-8.604766e-10	-2.116322e+01	-6.011193e+01
1.170000e-06	-3.006336e-06	-8.533559e-10	-2.089147e+01	-5.966215e+01
1.180000e-06	-2.967044e-06	-8.489686e-10	-2.061843e+01	-5.920736e+01
1.190000e-06	-2.927550e-06	-8.486222e-10	-2.034398e+01	-5.874750e+01
1.200000e-06	-2.887931e-06	-8.465351e-10	-2.006866e+01	-5.828250e+01
1.210000e-06	-2.848202e-06	-8.408629e-10	-1.979257e+01	-5.781233e+01
1.220000e-06	-2.808353e-06	-8.321359e-10	-1.951566e+01	-5.733696e+01
1.230000e-06	-2.768388e-06	-8.212954e-10	-1.923794e+01	-5.685637e+01
1.240000e-06	-2.728223e-06	-8.081578e-10	-1.895882e+01	-5.637055e+01
1.250000e-06	-2.687819e-06	-7.976350e-10	-1.867805e+01	-5.587949e+01
1.260000e-06	-2.647184e-06	-7.907861e-10	-1.839567e+01	-5.538321e+01
1.270000e-06	-2.606196e-06	-7.850226e-10	-1.811084e+01	-5.488171e+01
1.280000e-06	-2.565037e-06	-7.789618e-10	-1.782482e+01	-5.437500e+01
1.290000e-06	-2.523744e-06	-7.743225e-10	-1.753787e+01	-5.386311e+01
1.300000e-06	-2.481994e-06	-7.668465e-10	-1.724774e+01	-5.334605e+01
1.310000e-06	-2.439748e-06	-7.553063e-10	-1.695417e+01	-5.282384e+01
1.320000e-06	-2.397233e-06	-7.419762e-10	-1.665872e+01	-5.229650e+01
1.330000e-06	-2.354538e-06	-7.301034e-10	-1.636203e+01	-5.176402e+01
1.340000e-06	-2.311524e-06	-7.202654e-10	-1.606312e+01	-5.122641e+01
1.350000e-06	-2.268352e-06	-7.131611e-10	-1.576311e+01	-5.068366e+01
1.360000e-06	-2.225107e-06	-7.067495e-10	-1.546260e+01	-5.013574e+01
1.370000e-06	-2.181752e-06	-6.984105e-10	-1.516132e+01	-4.958262e+01
1.380000e-06	-2.138267e-06	-6.923980e-10	-1.485913e+01	-4.902424e+01
1.390000e-06	-2.094623e-06	-6.855325e-10	-1.455584e+01	-4.846053e+01
1.400000e-06	-2.050911e-06	-6.740392e-10	-1.425208e+01	-4.789139e+01
1.410000e-06	-2.007191e-06	-6.625482e-10	-1.394827e+01	-4.731670e+01
1.420000e-06	-1.963341e-06	-6.522338e-10	-1.364354e+01	-4.673633e+01
1.430000e-06	-1.919429e-06	-6.466288e-10	-1.333840e+01	-4.615009e+01
1.440000e-06	-1.875516e-06	-6.419812e-10	-1.303324e+01	-4.555780e+01
1.450000e-06	-1.831414e-06	-6.348759e-10	-1.272676e+01	-4.495923e+01
1.460000e-06	-1.787083e-06	-6.257806e-10	-1.241870e+01	-4.435413e+01
1.470000e-06	-1.742599e-06	-6.131619e-10	-1.210958e+01	-4.374220e+01
1.480000e-06	-1.698062e-06	-5.988918e-10	-1.180009e+01	-4.312313e+01
1.490000e-06	-1.653444e-06	-5.819070e-10	-1.149003e+01	-4.249658e+01
1.500000e-06	-1.608612e-06	-5.716110e-10	-1.117848e+01	-4.186217e+01
1.510000e-06	-1.563610e-06	-5.664748e-10	-1.086576e+01	-4.121950e+01
1.520000e-06	-1.518451e-06	-5.644756e-10	-1.055194e+01	-4.056813e+01
1.530000e-06	-1.473238e-06	-5.581637e-10	-1.023775e+01	-3.990761e+01
1.540000e-06	-1.427974e-06	-5.448879e-10	-9.923204e+00	-3.923744e+01
1.550000e-06	-1.382538e-06	-5.277681e-10	-9.607460e+00	-3.855712e+01
1.560000e-06	-1.337003e-06	-5.093910e-10	-9.291033e+00	-3.786612e+01
1.570000e-06	-1.291471e-06	-4.984639e-10	-8.974620e+00	-3.716390e+01
1.580000e-06	-1.245939e-06	-4.908086e-10	-8.658211e+00	-3.644989e+01
1.590000e-06	-1.200302e-06	-4.873228e-10	-8.341076e+00	-3.572352e+01
1.600000e-06	-1.154614e-06	-4.835650e-10	-8.023584e+00	-3.498422e+01
1.610000e-06	-1.108790e-06	-4.717281e-10	-7.705144e+00	-3.423139e+01
1.620000e-06	-1.062744e-06	-4.556281e-10	-7.385166e+00	-3.346446e+01
1.630000e-06	-1.016724e-06	-4.380065e-10	-7.065364e+00	-3.268284e+01
1.640000e-06	-9.707072e-07	-4.272276e-10	-6.745588e+00	-3.188596e+01
1.650000e-06	-9.246034e-07	-4.165923e-10	-6.425205e+00	-3.107328e+01
1.660000e-06	-8.783950e-07	-4.069207e-10	-6.104097e+00	-3.024425e+01
1.670000e-06	-8.320126e-07	-3.977002e-10	-5.781778e+00	-2.939835e+01
1.680000e-06	-7.855848e-07	-3.838581e-10	-5.459145e+00	-2.853509e+01
1.690000e-06	-7.391694e-07	-3.682424e-10	-5.136597e+00	-2.765403e+01
1.700000e-06	-6.927575e-07	-3.533522e-10	-4.814074e+00	-2.675473e+01
1.710000e-06	-6.462524e-07	-3.409134e-10	-4.490903e+00	-2.583683e+01
1.720000e-06	-5.996461e-07	-3.300465e-10	-4.167029e+00	-2.489999e+01
1.730000e-06	-5.530295e-07	-3.165729e-10	-3.843083e+00	-2.394393e+01
1.740000e-06	-5.063335e-07	-3.001126e-10	-3.518586e+00	-2.296843e+01
1.750000e-06	-4.595593e-07	-2.811506e-10	-3.193546e+00	-2.197330e+01
1.760000e-06	-4.128012e-07	-2.636857e-10	-2.868617e+00	-2.095844e+01
1.770000e-06	-3.660947e-07	-2.466181e-10	-2.544046e+00	-1.992382e+01
1.780000e-06	-3.192510e-07	-2.321132e-10	-2.218523e+00	-1.886944e+01
1.790000e-06	-2.722417e-07	-2.213069e-10	-1.891847e+00	-1.779540e+01
1.800000e-06	-2.253191e-07	-2.096118e-10	-1.565776e+00	-1.670186e+01
1.810000e-06	-1.784895e-07	-1.931531e-10	-1.240350e+00	-1.558905e+01
1.820000e-06	-1.315987e-07	-1.755609e-10	-9.144984e-01	-1.445729e+01
1.830000e-06	-8.463142e-08	-1.601528e-10	-5.881162e-01	-1.330695e+01
1.840000e-06	-3.775663e-08	-1.441831e-10	-2.623764e-01	-1.213850e+01
1.850000e-06	9.037025e-09	-1.278766e-10	6.279962e-02	-1.095245e+01
1.860000e-06	5.584182e-08	-1.122898e-10	3.880530e-01	-9.749408e+00
1.870000e-06	1.026636e-07	-9.710919e-11	7.134245e-01	-8.530054e+00
1.880000e-06	1.495953e-07	-7.991351e-11	1.039560e+00	-7.295127e+00
1.890000e-06	1.964938e-07	-6.059259e-11	1.365464e+00	-6.045436e+00
1.900000e-06	2.432378e-07	-4.070542e-11	1.690295e+00	-4.781855e+00
1.910000e-06	2.899631e-07	-2.410228e-11	2.014996e+00	-3.505319e+00
1.920000e-06	3.366741e-07	-8.796972e-12	2.339598e+00	-2.216820e+00
1.930000e-06	3.834126e-07	7.511566e-12	2.664391e+00	-9.174029e-01
1.940000e-06	4.301716e-07	2.620385e-11	2.989326e+00	3.918392e-01
1.950000e-06	4.768548e-07	4.673592e-11	3.313734e+00	1.709769e+00
1.960000e-06	5.235049e-07	6.811132e-11	3.637913e+00	3.035209e+00
1.970000e-06	5.701283e-07	8.855824e-11	3.961906e+00	4.366951e+00
1.980000e-06	6.166160e-07	1.088473e-10	4.284956e+00	5.703757e+00
1.990000e-06	6.630116e-07	1.263832e-10	4.607366e+00	7.044367e+00
2.000000e-06	7.094015e-07	1.425895e-10	4.929735e+00	8.387507e+00
2.010000e-06	7.557606e-07	1.591014e-10	5.251892e+00	9.731889e+00
2.020000e-06	8.021394e-07	1.782593e-10	5.574185e+00	1.107622e+01
2.030000e-06	8.483633e-07	2.012949e-10	5.895402e+00	1.241922e+01
2.040000e-06	8.944393e-07	2.250192e-10	6.215590e+00	1.375961e+01
2.050000e-06	9.405002e-07	2.454880e-10	6.535675e+00	1.509611e+01
2.060000e-06	9.864639e-07	2.629627e-10	6.855083e+00	1.642749e+01
2.070000e-06	1.032420e-06	2.791397e-10	7.174439e+00	1.775252e+01
2.080000e-06	1.078379e-06	2.963960e-10	7.493814e+00	1.907000e+01
2.090000e-06	1.124242e-06	3.146442e-10	7.812527e+00	2.037879e+01
2.100000e-06	1.169966e-06	3.347832e-10	8.130263e+00	2.167777e+01
2.110000e-06	1.215634e-06	3.555599e-10	8.447622e+00	2.296588e+01
2.120000e-06	1.261257e-06	3.729392e-10	8.764664e+00	2.424208e+01
2.130000e-06	1.306751e-06	3.887820e-10	9.080808e+00	2.550542e+01
2.140000e-06	1.352223e-06	4.037464e-10	9.396798e+00	2.675499e+01
2.150000e-06	1.397631e-06	4.194445e-10	9.712341e+00	2.798993e+01
2.160000e-06	1.442891e-06	4.359865e-10	1.002686e+01	2.920946e+01
2.170000e-06	1.488078e-06	4.546158e-10	1.034087e+01	3.041286e+01
2.180000e-06	1.533185e-06	4.742081e-10	1.065433e+01	3.159947e+01
2.190000e-06	1.578128e-06	4.925632e-10	1.096665e+01	3.276870e+01
2.200000e-06	1.622898e-06	5.087247e-10	1.127776e+01	3.392003e+01
2.210000e-06	1.667584e-06	5.232357e-10	1.158828e+01	3.505300e+01
2.220000e-06	1.712115e-06	5.357531e-10	1.189774e+01	3.616723e+01
2.230000e-06	1.756441e-06	5.498005e-10	1.220577e+01	3.726240e+01
2.240000e-06	1.800662e-06	5.647040e-10	1.251307e+01	3.833827e+01
2.250000e-06	1.844771e-06	5.798136e-10	1.281959e+01	3.939464e+01
2.260000e-06	1.888793e-06	5.953480e-10	1.312550e+01	4.043139e+01
2.270000e-06	1.932734e-06	6.095486e-10	1.343086e+01	4.144846e+01
2.280000e-06	1.976577e-06	6.263842e-10	1.373552e+01	4.244586e+01
2.290000e-06	2.020330e-06	6.402381e-10	1.403957e+01	4.342362e+01
2.300000e-06	2.064025e-06	6.540110e-10	1.434322e+01	4.438186e+01
2.310000e-06	2.107711e-06	6.654881e-10	1.464679e+01	4.532073e+01
2.320000e-06	2.151325e-06	6.756488e-10	1.494988e+01	4.624043e+01
2.330000e-06	2.194784e-06	6.877083e-10	1.525188e+01	4.714121e+01
2.340000e-06	2.238138e-06	6.996353e-10	1.555315e+01	4.802333e+01
2.350000e-06	2.281443e-06	7.116603e-10	1.585408e+01	4.888713e+01
2.360000e-06	2.324585e-06	7.283117e-10	1.615388e+01	4.973294e+01
2.370000e-06	2.367535e-06	7.459560e-10	1.645235e+01	5.056113e+01
2.380000e-06	2.410309e-06	7.588494e-10	1.674959e+01	5.137209e+01
2.390000e-06	2.452717e-06	7.687643e-10	1.704429e+01	5.216625e+01
2.400000e-06	2.494684e-06	7.755652e-10	1.733593e+01	5.294401e+01
2.410000e-06	2.536271e-06	7.828044e-10	1.762492e+01	5.370582e+01
2.420000e-06	2.577539e-06	7.910225e-10	1.791170e+01	5.445213e+01
2.430000e-06	2.618614e-06	8.052295e-10	1.819713e+01	5.518337e+01
2.440000e-06	2.659409e-06	8.209201e-10	1.848063e+01	5.589998e+01
2.450000e-06	2.699842e-06	8.340333e-10	1.876160e+01	5.660243e+01
2.460000e-06	2.739966e-06	8.430072e-10	1.904043e+01	5.729113e+01
2.470000e-06	2.779934e-06	8.523312e-10	1.931817e+01	5.796652e+01
2.480000e-06	2.819830e-06	8.609242e-10	1.959542e+01	5.862901e+01
2.490000e-06	2.859616e-06	8.703594e-10	1.987190e+01	5.927901e+01
2.500000e-06	2.899285e-06	8.806093e-10	2.014756e+01	5.991690e+01
2.510000e-06	2.938792e-06	8.890803e-10	2.042210e+01	6.054307e+01
2.520000e-06	2.978233e-06	8.969410e-10	2.069618e+01	6.115785e+01
2.530000e-06	3.017611e-06	9.047304e-10	2.096982e+01	6.176159e+01
2.540000e-06	3.056734e-06	9.117159e-10	2.124169e+01	6.235461e+01
2.550000e-06	3.095569e-06	9.184975e-10	2.151156e+01	6.293720e+01
2.560000e-06	3.134066e-06	9.278234e-10	2.177909e+01	6.350964e+01
2.570000e-06	3.172215e-06	9.387212e-10	2.204419e+01	6.407219e+01
2.580000e-06	3.210198e-06	9.473569e-10	2.230814e+01	6.462508e+01
2.590000e-06	3.248037e-06	9.542760e-10	2.257109e+01	6.516853e+01
2.600000e-06	3.285736e-06	9.613832e-10	2.283306e+01	6.570275e+01
2.610000e-06	3.323273e-06	9.680855e-10	2.309391e+01	6.622791e+01
2.620000e-06	3.360603e-06	9.724176e-10	2.335333e+01	6.674418e+01
2.630000e-06	3.397661e-06	9.756638e-10	2.361085e+01	6.725172e+01
2.640000e-06	3.434325e-06	9.815484e-10	2.386563e+01	6.775067e+01
2.650000e-06	3.470763e-06	9.913424e-10	2.411884e+01	6.824114e+01
2.660000e-06	3.507051e-06	1.002464e-09	2.437101e+01	6.872325e+01
2.670000e-06	3.543099e-06	1.009918e-09	2.462152e+01	6.919712e+01
2.680000e-06	3.578951e-06	1.015815e-09	2.487066e+01	6.966282e+01
2.690000e-06	3.614692e-06	1.023851e-09	2.511903e+01	7.012047e+01
2.700000e-06	3.650315e-06	1.031935e-09	2.536658e+01	7.057014e+01
2.710000e-06	3.685736e-06	1.036106e-09	2.561272e+01	7.101191e+01
2.720000e-06	3.721023e-06	1.040713e-09	2.585793e+01	7.144586e+01
2.730000e-06	3.755991e-06	1.047754e-09	2.610093e+01	7.187208e+01
2.740000e-06	3.790604e-06	1.055484e-09	2.634146e+01	7.229064e+01
2.750000e-06	3.824994e-06	1.061377e-09	2.658045e+01	7.270163e+01
2.760000e-06	3.858806e-06	1.067773e-09	2.681541e+01	7.310511e+01
2.770000e-06	3.891990e-06	1.075617e-09	2.704601e+01	7.350119e+01
2.780000e-06	3.924792e-06	1.083802e-09	2.727396e+01	7.388995e+01
2.790000e-06	3.957224e-06	1.092437e-09	2.749933e+01	7.427148e+01
2.800000e-06	3.989287e-06	1.100199e-09	2.772215e+01	7.464589e+01
2.810000e-06	4.021127e-06	1.104187e-09	2.794341e+01	7.501327e+01
2.820000e-06	4.052814e-06	1.107083e-09	2.816360e+01	7.537373e+01
2.830000e-06	4.084360e-06	1.111534e-09	2.838282e+01	7.572739e+01
2.840000e-06	4.115785e-06	1.118619e-09	2.860119e+01	7.607436e+01
2.850000e-06	4.146928e-06	1.125420e-09	2.881762e+01	7.641477e+01
2.860000e-06	4.177709e-06	1.133811e-09	2.903151e+01	7.674874e+01
2.870000e-06	4.208183e-06	1.140435e-09	2.924328e+01	7.707640e+01
2.880000e-06	4.238347e-06	1.144316e-09	2.945290e+01	7.739788e+01
2.890000e-06	4.268207e-06	1.148394e-09	2.966040e+01	7.771333e+01
2.900000e-06	4.297832e-06	1.152775e-09	2.986627e+01	7.802286e+01
