# Temperatura_=_-2.5
# Concentracion g/m^3_=_1620.0
# C_Vs_to_Am_M_A/Vsm_=_65563218390.804596
# pendiente_HvsI_1/m_=_3716.3
# ordenada_HvsI_A/m_=_1297.0
# frecuencia_Hz_=_135106.90393965525

Tiempo_(s)	Campo_(V.s)	Magnetizacion_(V.s)	Campo_(kA/m)	Magnetizacion_(A/m)
0.000000e+00	-5.510342e-06	-8.532152e-10	-3.836659e+01	-5.667568e+01
1.000000e-08	-5.510554e-06	-8.501036e-10	-3.836807e+01	-5.662758e+01
2.000000e-08	-5.510421e-06	-8.513884e-10	-3.836714e+01	-5.658237e+01
3.000000e-08	-5.509930e-06	-8.552624e-10	-3.836372e+01	-5.654006e+01
4.000000e-08	-5.508977e-06	-8.537565e-10	-3.835709e+01	-5.650066e+01
5.000000e-08	-5.507436e-06	-8.399488e-10	-3.834636e+01	-5.646415e+01
6.000000e-08	-5.505394e-06	-8.265696e-10	-3.833214e+01	-5.643047e+01
7.000000e-08	-5.502832e-06	-8.532196e-10	-3.831430e+01	-5.639955e+01
8.000000e-08	-5.499682e-06	-9.072395e-10	-3.829237e+01	-5.637129e+01
9.000000e-08	-5.495999e-06	-9.231379e-10	-3.826673e+01	-5.634553e+01
1.000000e-07	-5.491911e-06	-8.732639e-10	-3.823826e+01	-5.632214e+01
1.100000e-07	-5.487632e-06	-8.246973e-10	-3.820847e+01	-5.630092e+01
1.200000e-07	-5.483211e-06	-8.283354e-10	-3.817769e+01	-5.628167e+01
1.300000e-07	-5.478484e-06	-8.720820e-10	-3.814478e+01	-5.626417e+01
1.400000e-07	-5.473291e-06	-8.556016e-10	-3.810862e+01	-5.624816e+01
1.500000e-07	-5.467706e-06	-8.310709e-10	-3.806974e+01	-5.623338e+01
1.600000e-07	-5.461782e-06	-8.331979e-10	-3.802849e+01	-5.621955e+01
1.700000e-07	-5.455492e-06	-8.901675e-10	-3.798469e+01	-5.620638e+01
1.800000e-07	-5.448758e-06	-8.963262e-10	-3.793781e+01	-5.619356e+01
1.900000e-07	-5.441600e-06	-8.601098e-10	-3.788797e+01	-5.618076e+01
2.000000e-07	-5.434182e-06	-8.539359e-10	-3.783632e+01	-5.616768e+01
2.100000e-07	-5.426415e-06	-8.894476e-10	-3.778224e+01	-5.615397e+01
2.200000e-07	-5.418375e-06	-8.996680e-10	-3.772626e+01	-5.613932e+01
2.300000e-07	-5.410085e-06	-8.680547e-10	-3.766854e+01	-5.612337e+01
2.400000e-07	-5.401220e-06	-8.718303e-10	-3.760682e+01	-5.610582e+01
2.500000e-07	-5.391631e-06	-8.815102e-10	-3.754005e+01	-5.608632e+01
2.600000e-07	-5.381474e-06	-8.830492e-10	-3.746933e+01	-5.606456e+01
2.700000e-07	-5.370877e-06	-8.528839e-10	-3.739555e+01	-5.604024e+01
2.800000e-07	-5.359756e-06	-8.621941e-10	-3.731811e+01	-5.601305e+01
2.900000e-07	-5.348165e-06	-8.717205e-10	-3.723741e+01	-5.598271e+01
3.000000e-07	-5.336206e-06	-8.657520e-10	-3.715415e+01	-5.594895e+01
3.100000e-07	-5.323896e-06	-8.361531e-10	-3.706843e+01	-5.591151e+01
3.200000e-07	-5.311221e-06	-8.556227e-10	-3.698018e+01	-5.587016e+01
3.300000e-07	-5.298168e-06	-8.692329e-10	-3.688930e+01	-5.582468e+01
3.400000e-07	-5.284757e-06	-8.607635e-10	-3.679593e+01	-5.577489e+01
3.500000e-07	-5.270935e-06	-8.465326e-10	-3.669968e+01	-5.572060e+01
3.600000e-07	-5.256612e-06	-8.663447e-10	-3.659996e+01	-5.566168e+01
3.700000e-07	-5.241712e-06	-8.602078e-10	-3.649622e+01	-5.559799e+01
3.800000e-07	-5.226241e-06	-8.402329e-10	-3.638850e+01	-5.552944e+01
3.900000e-07	-5.210264e-06	-8.521946e-10	-3.627726e+01	-5.545595e+01
4.000000e-07	-5.193960e-06	-8.735159e-10	-3.616374e+01	-5.537747e+01
4.100000e-07	-5.177317e-06	-8.501755e-10	-3.604786e+01	-5.529398e+01
4.200000e-07	-5.160225e-06	-8.337939e-10	-3.592885e+01	-5.520548e+01
4.300000e-07	-5.142802e-06	-8.613657e-10	-3.580754e+01	-5.511199e+01
4.400000e-07	-5.125109e-06	-8.647054e-10	-3.568435e+01	-5.501356e+01
4.500000e-07	-5.107040e-06	-8.398803e-10	-3.555854e+01	-5.491026e+01
4.600000e-07	-5.088549e-06	-8.405822e-10	-3.542980e+01	-5.480220e+01
4.700000e-07	-5.069734e-06	-8.601885e-10	-3.529880e+01	-5.468947e+01
4.800000e-07	-5.050608e-06	-8.432258e-10	-3.516562e+01	-5.457222e+01
4.900000e-07	-5.031219e-06	-8.375527e-10	-3.503062e+01	-5.445060e+01
5.000000e-07	-5.011652e-06	-8.458997e-10	-3.489439e+01	-5.432478e+01
5.100000e-07	-4.991834e-06	-8.392291e-10	-3.475640e+01	-5.419494e+01
5.200000e-07	-4.971602e-06	-8.251324e-10	-3.461553e+01	-5.406129e+01
5.300000e-07	-4.951014e-06	-8.445550e-10	-3.447219e+01	-5.392404e+01
5.400000e-07	-4.930157e-06	-8.459861e-10	-3.432697e+01	-5.378340e+01
5.500000e-07	-4.908934e-06	-8.312984e-10	-3.417920e+01	-5.363961e+01
5.600000e-07	-4.887355e-06	-8.285981e-10	-3.402895e+01	-5.349289e+01
5.700000e-07	-4.865362e-06	-8.368789e-10	-3.387583e+01	-5.334350e+01
5.800000e-07	-4.842945e-06	-8.251249e-10	-3.371974e+01	-5.319167e+01
5.900000e-07	-4.820281e-06	-8.257746e-10	-3.356194e+01	-5.303764e+01
6.000000e-07	-4.797387e-06	-8.267701e-10	-3.340254e+01	-5.288166e+01
6.100000e-07	-4.774147e-06	-8.168340e-10	-3.324072e+01	-5.272396e+01
6.200000e-07	-4.750674e-06	-8.080044e-10	-3.307729e+01	-5.256477e+01
6.300000e-07	-4.727047e-06	-8.127800e-10	-3.291279e+01	-5.240433e+01
6.400000e-07	-4.703031e-06	-8.067549e-10	-3.274557e+01	-5.224284e+01
6.500000e-07	-4.678611e-06	-8.059031e-10	-3.257554e+01	-5.208051e+01
6.600000e-07	-4.653893e-06	-8.131293e-10	-3.240344e+01	-5.191754e+01
6.700000e-07	-4.628660e-06	-8.103184e-10	-3.222775e+01	-5.175411e+01
6.800000e-07	-4.602749e-06	-8.032650e-10	-3.204734e+01	-5.159039e+01
6.900000e-07	-4.576297e-06	-8.077914e-10	-3.186316e+01	-5.142653e+01
7.000000e-07	-4.549499e-06	-8.024696e-10	-3.167658e+01	-5.126267e+01
7.100000e-07	-4.522427e-06	-7.916672e-10	-3.148809e+01	-5.109893e+01
7.200000e-07	-4.495050e-06	-7.980527e-10	-3.129747e+01	-5.093540e+01
7.300000e-07	-4.467462e-06	-7.994334e-10	-3.110538e+01	-5.077218e+01
7.400000e-07	-4.439682e-06	-7.889489e-10	-3.091196e+01	-5.060932e+01
7.500000e-07	-4.411687e-06	-7.915635e-10	-3.071704e+01	-5.044688e+01
7.600000e-07	-4.383442e-06	-7.984765e-10	-3.052038e+01	-5.028488e+01
7.700000e-07	-4.354831e-06	-7.825796e-10	-3.032118e+01	-5.012333e+01
7.800000e-07	-4.325921e-06	-7.750472e-10	-3.011988e+01	-4.996222e+01
7.900000e-07	-4.296750e-06	-7.822194e-10	-2.991677e+01	-4.980153e+01
8.000000e-07	-4.267277e-06	-7.778902e-10	-2.971156e+01	-4.964120e+01
8.100000e-07	-4.237426e-06	-7.642531e-10	-2.950372e+01	-4.948118e+01
8.200000e-07	-4.207236e-06	-7.680216e-10	-2.929352e+01	-4.932138e+01
8.300000e-07	-4.176768e-06	-7.661708e-10	-2.908138e+01	-4.916171e+01
8.400000e-07	-4.146038e-06	-7.564424e-10	-2.886742e+01	-4.900206e+01
8.500000e-07	-4.115102e-06	-7.520202e-10	-2.865202e+01	-4.884231e+01
8.600000e-07	-4.083894e-06	-7.524758e-10	-2.843473e+01	-4.868231e+01
8.700000e-07	-4.052471e-06	-7.416271e-10	-2.821595e+01	-4.852192e+01
8.800000e-07	-4.020933e-06	-7.394103e-10	-2.799636e+01	-4.836099e+01
8.900000e-07	-3.989171e-06	-7.451359e-10	-2.777521e+01	-4.819934e+01
9.000000e-07	-3.957079e-06	-7.408995e-10	-2.755176e+01	-4.803680e+01
9.100000e-07	-3.924679e-06	-7.310583e-10	-2.732617e+01	-4.787319e+01
9.200000e-07	-3.892004e-06	-7.289652e-10	-2.709867e+01	-4.770832e+01
9.300000e-07	-3.859075e-06	-7.231847e-10	-2.686940e+01	-4.754201e+01
9.400000e-07	-3.825751e-06	-7.165219e-10	-2.663737e+01	-4.737406e+01
9.500000e-07	-3.791844e-06	-7.191863e-10	-2.640129e+01	-4.720428e+01
9.600000e-07	-3.757468e-06	-7.217746e-10	-2.616194e+01	-4.703247e+01
9.700000e-07	-3.722710e-06	-7.143638e-10	-2.591993e+01	-4.685845e+01
9.800000e-07	-3.687608e-06	-7.105467e-10	-2.567553e+01	-4.668203e+01
9.900000e-07	-3.652358e-06	-7.110540e-10	-2.543010e+01	-4.650302e+01
1.000000e-06	-3.616946e-06	-7.048801e-10	-2.518354e+01	-4.632125e+01
1.010000e-06	-3.581307e-06	-6.990214e-10	-2.493539e+01	-4.613654e+01
1.020000e-06	-3.545465e-06	-6.994579e-10	-2.468584e+01	-4.594872e+01
1.030000e-06	-3.509456e-06	-6.966911e-10	-2.443512e+01	-4.575765e+01
1.040000e-06	-3.473266e-06	-6.907165e-10	-2.418314e+01	-4.556318e+01
1.050000e-06	-3.436782e-06	-6.896344e-10	-2.392912e+01	-4.536515e+01
1.060000e-06	-3.400065e-06	-6.855002e-10	-2.367347e+01	-4.516345e+01
1.070000e-06	-3.363147e-06	-6.787265e-10	-2.341642e+01	-4.495795e+01
1.080000e-06	-3.325931e-06	-6.750106e-10	-2.315730e+01	-4.474855e+01
1.090000e-06	-3.288437e-06	-6.730117e-10	-2.289624e+01	-4.453515e+01
1.100000e-06	-3.250751e-06	-6.647287e-10	-2.263385e+01	-4.431766e+01
1.110000e-06	-3.212908e-06	-6.597402e-10	-2.237036e+01	-4.409601e+01
1.120000e-06	-3.174819e-06	-6.580399e-10	-2.210516e+01	-4.387013e+01
1.130000e-06	-3.136404e-06	-6.542464e-10	-2.183769e+01	-4.363996e+01
1.140000e-06	-3.097803e-06	-6.495834e-10	-2.156893e+01	-4.340545e+01
1.150000e-06	-3.059028e-06	-6.464123e-10	-2.129894e+01	-4.316658e+01
1.160000e-06	-3.020039e-06	-6.418098e-10	-2.102748e+01	-4.292332e+01
1.170000e-06	-2.980839e-06	-6.387220e-10	-2.075455e+01	-4.267564e+01
1.180000e-06	-2.941495e-06	-6.375808e-10	-2.048061e+01	-4.242353e+01
1.190000e-06	-2.902083e-06	-6.358850e-10	-2.020620e+01	-4.216698e+01
1.200000e-06	-2.862530e-06	-6.305312e-10	-1.993080e+01	-4.190600e+01
1.210000e-06	-2.822835e-06	-6.270319e-10	-1.965442e+01	-4.164058e+01
1.220000e-06	-2.782948e-06	-6.231317e-10	-1.937670e+01	-4.137073e+01
1.230000e-06	-2.742825e-06	-6.172181e-10	-1.909733e+01	-4.109645e+01
1.240000e-06	-2.702501e-06	-6.104773e-10	-1.881658e+01	-4.081775e+01
1.250000e-06	-2.661973e-06	-6.043324e-10	-1.853439e+01	-4.053464e+01
1.260000e-06	-2.621293e-06	-5.973673e-10	-1.825115e+01	-4.024710e+01
1.270000e-06	-2.580419e-06	-5.884310e-10	-1.796656e+01	-3.995516e+01
1.280000e-06	-2.539218e-06	-5.844949e-10	-1.767969e+01	-3.965878e+01
1.290000e-06	-2.497738e-06	-5.833236e-10	-1.739088e+01	-3.935797e+01
1.300000e-06	-2.455912e-06	-5.795876e-10	-1.709966e+01	-3.905269e+01
1.310000e-06	-2.413687e-06	-5.728557e-10	-1.680566e+01	-3.874292e+01
1.320000e-06	-2.371155e-06	-5.651760e-10	-1.650953e+01	-3.842861e+01
1.330000e-06	-2.328434e-06	-5.579237e-10	-1.621208e+01	-3.810970e+01
1.340000e-06	-2.285540e-06	-5.524373e-10	-1.591342e+01	-3.778612e+01
1.350000e-06	-2.242424e-06	-5.504984e-10	-1.561322e+01	-3.745780e+01
1.360000e-06	-2.199105e-06	-5.484479e-10	-1.531160e+01	-3.712462e+01
1.370000e-06	-2.155688e-06	-5.455214e-10	-1.500930e+01	-3.678648e+01
1.380000e-06	-2.112208e-06	-5.443168e-10	-1.470657e+01	-3.644323e+01
1.390000e-06	-2.068577e-06	-5.414076e-10	-1.440278e+01	-3.609473e+01
1.400000e-06	-2.024840e-06	-5.339495e-10	-1.409826e+01	-3.574081e+01
1.410000e-06	-1.981079e-06	-5.242342e-10	-1.379356e+01	-3.538127e+01
1.420000e-06	-1.937281e-06	-5.175929e-10	-1.348861e+01	-3.501591e+01
1.430000e-06	-1.893391e-06	-5.134278e-10	-1.318302e+01	-3.464449e+01
1.440000e-06	-1.849404e-06	-5.105810e-10	-1.287675e+01	-3.426677e+01
1.450000e-06	-1.805285e-06	-5.082993e-10	-1.256957e+01	-3.388249e+01
1.460000e-06	-1.760970e-06	-5.046257e-10	-1.226102e+01	-3.349134e+01
1.470000e-06	-1.716496e-06	-4.972023e-10	-1.195137e+01	-3.309303e+01
1.480000e-06	-1.671862e-06	-4.872544e-10	-1.164060e+01	-3.268723e+01
1.490000e-06	-1.627064e-06	-4.775668e-10	-1.132868e+01	-3.227360e+01
1.500000e-06	-1.582212e-06	-4.711119e-10	-1.101639e+01	-3.185179e+01
1.510000e-06	-1.537306e-06	-4.672966e-10	-1.070372e+01	-3.142142e+01
1.520000e-06	-1.492298e-06	-4.633698e-10	-1.039035e+01	-3.098211e+01
1.530000e-06	-1.447181e-06	-4.573446e-10	-1.007622e+01	-3.053347e+01
1.540000e-06	-1.401998e-06	-4.503379e-10	-9.761622e+00	-3.007509e+01
1.550000e-06	-1.356764e-06	-4.400540e-10	-9.446675e+00	-2.960655e+01
1.560000e-06	-1.311449e-06	-4.275864e-10	-9.131162e+00	-2.912743e+01
1.570000e-06	-1.265994e-06	-4.158344e-10	-8.814676e+00	-2.863732e+01
1.580000e-06	-1.220419e-06	-4.077488e-10	-8.497351e+00	-2.813578e+01
1.590000e-06	-1.174805e-06	-4.027354e-10	-8.179758e+00	-2.762240e+01
1.600000e-06	-1.129120e-06	-3.967903e-10	-7.861667e+00	-2.709675e+01
1.610000e-06	-1.083308e-06	-3.877954e-10	-7.542695e+00	-2.655842e+01
1.620000e-06	-1.037357e-06	-3.761328e-10	-7.222756e+00	-2.600699e+01
1.630000e-06	-9.913767e-07	-3.645130e-10	-6.902611e+00	-2.544209e+01
1.640000e-06	-9.453360e-07	-3.542758e-10	-6.582045e+00	-2.486332e+01
1.650000e-06	-8.991590e-07	-3.439844e-10	-6.260531e+00	-2.427032e+01
1.660000e-06	-8.529446e-07	-3.336994e-10	-5.938757e+00	-2.366275e+01
1.670000e-06	-8.066663e-07	-3.236259e-10	-5.616537e+00	-2.304029e+01
1.680000e-06	-7.602743e-07	-3.123921e-10	-5.293526e+00	-2.240264e+01
1.690000e-06	-7.138337e-07	-3.014854e-10	-4.970176e+00	-2.174953e+01
1.700000e-06	-6.674047e-07	-2.899436e-10	-4.646907e+00	-2.108073e+01
1.710000e-06	-6.209234e-07	-2.774930e-10	-4.323274e+00	-2.039602e+01
1.720000e-06	-5.743717e-07	-2.631532e-10	-3.999150e+00	-1.969525e+01
1.730000e-06	-5.277942e-07	-2.480683e-10	-3.674847e+00	-1.897827e+01
1.740000e-06	-4.812148e-07	-2.334291e-10	-3.350531e+00	-1.824499e+01
1.750000e-06	-4.346276e-07	-2.219687e-10	-3.026161e+00	-1.749537e+01
1.760000e-06	-3.879491e-07	-2.137165e-10	-2.701155e+00	-1.672939e+01
1.770000e-06	-3.411712e-07	-2.059665e-10	-2.375456e+00	-1.594709e+01
1.780000e-06	-2.944205e-07	-1.964326e-10	-2.049948e+00	-1.514855e+01
1.790000e-06	-2.477330e-07	-1.838574e-10	-1.724879e+00	-1.433390e+01
1.800000e-06	-2.009233e-07	-1.686539e-10	-1.398959e+00	-1.350333e+01
1.810000e-06	-1.540238e-07	-1.544747e-10	-1.072414e+00	-1.265705e+01
1.820000e-06	-1.071514e-07	-1.442180e-10	-7.460576e-01	-1.179534e+01
1.830000e-06	-6.030320e-08	-1.371033e-10	-4.198702e-01	-1.091853e+01
1.840000e-06	-1.351669e-08	-1.295864e-10	-9.411203e-02	-1.002700e+01
1.850000e-06	3.321552e-08	-1.194735e-10	2.312681e-01	-9.121155e+00
1.860000e-06	7.991207e-08	-1.079357e-10	5.564000e-01	-8.201478e+00
1.870000e-06	1.265809e-07	-9.322957e-11	8.813384e-01	-7.268484e+00
1.880000e-06	1.733381e-07	-7.535804e-11	1.206893e+00	-6.322736e+00
1.890000e-06	2.200990e-07	-5.794349e-11	1.532473e+00	-5.364843e+00
1.900000e-06	2.667899e-07	-4.313631e-11	1.857565e+00	-4.395453e+00
1.910000e-06	3.135469e-07	-3.000816e-11	2.183118e+00	-3.415259e+00
1.920000e-06	3.603223e-07	-1.952207e-11	2.508799e+00	-2.424988e+00
1.930000e-06	4.070071e-07	-8.877139e-12	2.833849e+00	-1.425407e+00
1.940000e-06	4.535970e-07	5.629065e-12	3.158238e+00	-4.173132e-01
1.950000e-06	5.002053e-07	2.083412e-11	3.482755e+00	5.984647e-01
1.960000e-06	5.468310e-07	3.758440e-11	3.807394e+00	1.621071e+00
1.970000e-06	5.933841e-07	5.309415e-11	4.131527e+00	2.649625e+00
1.980000e-06	6.398792e-07	6.566729e-11	4.455256e+00	3.683226e+00
1.990000e-06	6.862825e-07	7.733080e-11	4.778346e+00	4.720956e+00
2.000000e-06	7.326239e-07	8.921579e-11	5.101005e+00	5.761882e+00
2.010000e-06	7.789466e-07	1.032495e-10	5.423534e+00	6.805062e+00
2.020000e-06	8.252493e-07	1.188463e-10	5.745923e+00	7.849547e+00
2.030000e-06	8.714807e-07	1.359843e-10	6.067817e+00	8.894386e+00
2.040000e-06	9.175838e-07	1.526533e-10	6.388817e+00	9.938626e+00
2.050000e-06	9.635889e-07	1.675904e-10	6.709134e+00	1.098132e+01
2.060000e-06	1.009521e-06	1.811336e-10	7.028945e+00	1.202153e+01
2.070000e-06	1.055432e-06	1.939060e-10	7.348603e+00	1.305833e+01
2.080000e-06	1.101275e-06	2.070092e-10	7.667797e+00	1.409081e+01
2.090000e-06	1.146981e-06	2.213736e-10	7.986033e+00	1.511808e+01
2.100000e-06	1.192561e-06	2.385297e-10	8.303386e+00	1.613925e+01
2.110000e-06	1.238046e-06	2.550772e-10	8.620082e+00	1.715349e+01
2.120000e-06	1.283478e-06	2.686698e-10	8.936413e+00	1.815998e+01
2.130000e-06	1.328905e-06	2.833829e-10	9.252704e+00	1.915792e+01
2.140000e-06	1.374243e-06	2.981369e-10	9.568373e+00	2.014657e+01
2.150000e-06	1.419460e-06	3.110460e-10	9.883203e+00	2.112519e+01
2.160000e-06	1.464590e-06	3.234324e-10	1.019743e+01	2.209310e+01
2.170000e-06	1.509568e-06	3.353856e-10	1.051060e+01	2.304966e+01
2.180000e-06	1.554401e-06	3.500835e-10	1.082276e+01	2.399427e+01
2.190000e-06	1.599142e-06	3.652741e-10	1.113427e+01	2.492635e+01
2.200000e-06	1.643814e-06	3.789705e-10	1.144530e+01	2.584540e+01
2.210000e-06	1.688333e-06	3.921177e-10	1.175528e+01	2.675092e+01
2.220000e-06	1.732631e-06	4.039462e-10	1.206371e+01	2.764248e+01
2.230000e-06	1.776832e-06	4.167931e-10	1.237147e+01	2.851970e+01
2.240000e-06	1.820947e-06	4.269012e-10	1.267862e+01	2.938223e+01
2.250000e-06	1.864943e-06	4.368030e-10	1.298495e+01	3.022977e+01
2.260000e-06	1.908877e-06	4.461594e-10	1.329084e+01	3.106205e+01
2.270000e-06	1.952718e-06	4.591921e-10	1.359610e+01	3.187886e+01
2.280000e-06	1.996412e-06	4.751518e-10	1.390032e+01	3.268002e+01
2.290000e-06	2.040042e-06	4.896242e-10	1.420410e+01	3.346539e+01
2.300000e-06	2.083659e-06	5.010536e-10	1.450779e+01	3.423488e+01
2.310000e-06	2.127210e-06	5.111918e-10	1.481102e+01	3.498842e+01
2.320000e-06	2.170625e-06	5.224596e-10	1.511331e+01	3.572598e+01
2.330000e-06	2.213918e-06	5.330801e-10	1.541474e+01	3.644758e+01
2.340000e-06	2.257182e-06	5.444874e-10	1.571597e+01	3.715325e+01
2.350000e-06	2.300359e-06	5.583359e-10	1.601660e+01	3.784305e+01
2.360000e-06	2.343283e-06	5.738616e-10	1.631547e+01	3.851709e+01
2.370000e-06	2.385811e-06	5.858492e-10	1.661157e+01	3.917546e+01
2.380000e-06	2.428010e-06	5.943879e-10	1.690539e+01	3.981832e+01
2.390000e-06	2.469982e-06	6.020713e-10	1.719763e+01	4.044582e+01
2.400000e-06	2.511597e-06	6.095287e-10	1.748737e+01	4.105814e+01
2.410000e-06	2.552854e-06	6.166406e-10	1.777463e+01	4.165546e+01
2.420000e-06	2.593817e-06	6.249389e-10	1.805984e+01	4.223799e+01
2.430000e-06	2.634520e-06	6.354427e-10	1.834325e+01	4.280595e+01
2.440000e-06	2.675000e-06	6.464439e-10	1.862509e+01	4.335955e+01
2.450000e-06	2.715304e-06	6.539908e-10	1.890572e+01	4.389902e+01
2.460000e-06	2.755438e-06	6.610431e-10	1.918516e+01	4.442459e+01
2.470000e-06	2.795330e-06	6.688504e-10	1.946291e+01	4.493650e+01
2.480000e-06	2.835062e-06	6.771713e-10	1.973955e+01	4.543498e+01
2.490000e-06	2.874716e-06	6.849028e-10	2.001565e+01	4.592027e+01
2.500000e-06	2.914249e-06	6.892134e-10	2.029090e+01	4.639260e+01
2.510000e-06	2.953621e-06	6.923513e-10	2.056504e+01	4.685219e+01
2.520000e-06	2.992839e-06	7.000333e-10	2.083809e+01	4.729928e+01
2.530000e-06	3.031864e-06	7.101395e-10	2.110982e+01	4.773408e+01
2.540000e-06	3.070673e-06	7.182161e-10	2.138003e+01	4.815680e+01
2.550000e-06	3.109253e-06	7.237839e-10	2.164865e+01	4.856765e+01
2.560000e-06	3.147551e-06	7.287808e-10	2.191530e+01	4.896684e+01
2.570000e-06	3.185607e-06	7.323102e-10	2.218027e+01	4.935456e+01
2.580000e-06	3.223522e-06	7.340082e-10	2.244426e+01	4.973099e+01
2.590000e-06	3.261236e-06	7.368401e-10	2.270685e+01	5.009631e+01
2.600000e-06	3.298753e-06	7.430939e-10	2.296807e+01	5.045071e+01
2.610000e-06	3.335986e-06	7.485320e-10	2.322731e+01	5.079434e+01
2.620000e-06	3.372949e-06	7.512959e-10	2.348467e+01	5.112737e+01
2.630000e-06	3.409762e-06	7.546556e-10	2.374098e+01	5.144997e+01
2.640000e-06	3.446358e-06	7.586398e-10	2.399579e+01	5.176228e+01
2.650000e-06	3.482680e-06	7.621451e-10	2.424869e+01	5.206446e+01
2.660000e-06	3.518745e-06	7.646243e-10	2.449980e+01	5.235666e+01
2.670000e-06	3.554596e-06	7.659757e-10	2.474941e+01	5.263903e+01
2.680000e-06	3.590261e-06	7.673559e-10	2.499774e+01	5.291171e+01
2.690000e-06	3.625806e-06	7.713383e-10	2.524523e+01	5.317486e+01
2.700000e-06	3.661219e-06	7.758424e-10	2.549180e+01	5.342862e+01
2.710000e-06	3.696468e-06	7.790057e-10	2.573722e+01	5.367316e+01
2.720000e-06	3.731455e-06	7.818922e-10	2.598082e+01	5.390862e+01
2.730000e-06	3.766122e-06	7.849239e-10	2.622219e+01	5.413518e+01
2.740000e-06	3.800375e-06	7.874419e-10	2.646069e+01	5.435299e+01
2.750000e-06	3.834142e-06	7.897474e-10	2.669579e+01	5.456223e+01
2.760000e-06	3.867542e-06	7.920098e-10	2.692835e+01	5.476309e+01
2.770000e-06	3.900535e-06	7.950811e-10	2.715807e+01	5.495574e+01
2.780000e-06	3.933060e-06	7.990296e-10	2.738453e+01	5.514038e+01
2.790000e-06	3.965216e-06	8.038875e-10	2.760842e+01	5.531722e+01
2.800000e-06	3.997176e-06	8.082589e-10	2.783094e+01	5.548646e+01
2.810000e-06	4.028968e-06	8.115271e-10	2.805230e+01	5.564832e+01
2.820000e-06	4.060563e-06	8.146782e-10	2.827229e+01	5.580303e+01
2.830000e-06	4.091963e-06	8.174955e-10	2.849092e+01	5.595082e+01
2.840000e-06	4.123155e-06	8.205055e-10	2.870809e+01	5.609193e+01
2.850000e-06	4.154064e-06	8.254553e-10	2.892330e+01	5.622660e+01
2.860000e-06	4.184631e-06	8.285542e-10	2.913613e+01	5.635508e+01
2.870000e-06	4.214873e-06	8.281746e-10	2.934669e+01	5.647764e+01
2.880000e-06	4.244800e-06	8.274385e-10	2.955507e+01	5.659453e+01
2.890000e-06	4.274463e-06	8.295100e-10	2.976160e+01	5.670602e+01
2.900000e-06	4.303889e-06	8.339642e-10	2.996648e+01	5.681237e+01
