# Temperatura_=_-0.62
# Concentracion g/m^3_=_1620.0
# C_Vs_to_Am_M_A/Vsm_=_65563218390.804596
# pendiente_HvsI_1/m_=_3716.3
# ordenada_HvsI_A/m_=_1297.0
# frecuencia_Hz_=_135098.79554886342

Tiempo_(s)	Campo_(V.s)	Magnetizacion_(V.s)	Campo_(kA/m)	Magnetizacion_(A/m)
0.000000e+00	-5.514717e-06	-1.392896e-09	-3.836951e+01	-9.093429e+01
1.000000e-08	-5.515008e-06	-1.391943e-09	-3.837154e+01	-9.086092e+01
2.000000e-08	-5.515034e-06	-1.392310e-09	-3.837172e+01	-9.078507e+01
3.000000e-08	-5.514765e-06	-1.393518e-09	-3.836985e+01	-9.070677e+01
4.000000e-08	-5.514063e-06	-1.391953e-09	-3.836496e+01	-9.062611e+01
5.000000e-08	-5.512832e-06	-1.380873e-09	-3.835640e+01	-9.054315e+01
6.000000e-08	-5.510928e-06	-1.365481e-09	-3.834315e+01	-9.045795e+01
7.000000e-08	-5.508326e-06	-1.367939e-09	-3.832505e+01	-9.037058e+01
8.000000e-08	-5.505232e-06	-1.401963e-09	-3.830352e+01	-9.028112e+01
9.000000e-08	-5.501742e-06	-1.458181e-09	-3.827924e+01	-9.018963e+01
1.000000e-07	-5.497824e-06	-1.497489e-09	-3.825198e+01	-9.009617e+01
1.100000e-07	-5.493462e-06	-1.450943e-09	-3.822163e+01	-9.000082e+01
1.200000e-07	-5.488950e-06	-1.334632e-09	-3.819024e+01	-8.990363e+01
1.300000e-07	-5.484350e-06	-1.309038e-09	-3.815823e+01	-8.980468e+01
1.400000e-07	-5.479336e-06	-1.392765e-09	-3.812335e+01	-8.970401e+01
1.500000e-07	-5.473861e-06	-1.431147e-09	-3.808525e+01	-8.960169e+01
1.600000e-07	-5.468004e-06	-1.362048e-09	-3.804450e+01	-8.949776e+01
1.700000e-07	-5.461803e-06	-1.332842e-09	-3.800135e+01	-8.939226e+01
1.800000e-07	-5.455118e-06	-1.402770e-09	-3.795484e+01	-8.928525e+01
1.900000e-07	-5.447953e-06	-1.429630e-09	-3.790500e+01	-8.917674e+01
2.000000e-07	-5.440537e-06	-1.349797e-09	-3.785339e+01	-8.906677e+01
2.100000e-07	-5.432909e-06	-1.309030e-09	-3.780032e+01	-8.895536e+01
2.200000e-07	-5.425060e-06	-1.356868e-09	-3.774571e+01	-8.884250e+01
2.300000e-07	-5.416818e-06	-1.394871e-09	-3.768837e+01	-8.872822e+01
2.400000e-07	-5.408210e-06	-1.350442e-09	-3.762848e+01	-8.861249e+01
2.500000e-07	-5.399139e-06	-1.307153e-09	-3.756536e+01	-8.849530e+01
2.600000e-07	-5.389248e-06	-1.313075e-09	-3.749655e+01	-8.837663e+01
2.700000e-07	-5.378634e-06	-1.333396e-09	-3.742269e+01	-8.825644e+01
2.800000e-07	-5.367527e-06	-1.333522e-09	-3.734542e+01	-8.813468e+01
2.900000e-07	-5.356111e-06	-1.331666e-09	-3.726599e+01	-8.801131e+01
3.000000e-07	-5.344387e-06	-1.335800e-09	-3.718442e+01	-8.788625e+01
3.100000e-07	-5.332256e-06	-1.332948e-09	-3.710001e+01	-8.775944e+01
3.200000e-07	-5.319606e-06	-1.324200e-09	-3.701200e+01	-8.763079e+01
3.300000e-07	-5.306483e-06	-1.301818e-09	-3.692069e+01	-8.750021e+01
3.400000e-07	-5.293066e-06	-1.297265e-09	-3.682734e+01	-8.736761e+01
3.500000e-07	-5.279398e-06	-1.315045e-09	-3.673225e+01	-8.723287e+01
3.600000e-07	-5.265233e-06	-1.328810e-09	-3.663369e+01	-8.709588e+01
3.700000e-07	-5.250329e-06	-1.313363e-09	-3.653000e+01	-8.695653e+01
3.800000e-07	-5.235025e-06	-1.318926e-09	-3.642351e+01	-8.681469e+01
3.900000e-07	-5.219422e-06	-1.318007e-09	-3.631495e+01	-8.667024e+01
4.000000e-07	-5.203369e-06	-1.292840e-09	-3.620326e+01	-8.652303e+01
4.100000e-07	-5.186854e-06	-1.289205e-09	-3.608835e+01	-8.637293e+01
4.200000e-07	-5.170040e-06	-1.316497e-09	-3.597137e+01	-8.621982e+01
4.300000e-07	-5.152951e-06	-1.293794e-09	-3.585247e+01	-8.606354e+01
4.400000e-07	-5.135511e-06	-1.272871e-09	-3.573113e+01	-8.590397e+01
4.500000e-07	-5.117706e-06	-1.315874e-09	-3.560725e+01	-8.574097e+01
4.600000e-07	-5.099330e-06	-1.324387e-09	-3.547939e+01	-8.557441e+01
4.700000e-07	-5.080397e-06	-1.263602e-09	-3.534766e+01	-8.540415e+01
4.800000e-07	-5.061145e-06	-1.273542e-09	-3.521372e+01	-8.523009e+01
4.900000e-07	-5.041773e-06	-1.319869e-09	-3.507893e+01	-8.505209e+01
5.000000e-07	-5.022256e-06	-1.278897e-09	-3.494314e+01	-8.487005e+01
5.100000e-07	-5.002526e-06	-1.244694e-09	-3.480587e+01	-8.468387e+01
5.200000e-07	-4.982541e-06	-1.289398e-09	-3.466681e+01	-8.449345e+01
5.300000e-07	-4.962183e-06	-1.283384e-09	-3.452517e+01	-8.429871e+01
5.400000e-07	-4.941334e-06	-1.241383e-09	-3.438011e+01	-8.409957e+01
5.500000e-07	-4.920112e-06	-1.273184e-09	-3.423246e+01	-8.389597e+01
5.600000e-07	-4.898604e-06	-1.286506e-09	-3.408281e+01	-8.368786e+01
5.700000e-07	-4.876721e-06	-1.232477e-09	-3.393055e+01	-8.347519e+01
5.800000e-07	-4.854504e-06	-1.241218e-09	-3.377598e+01	-8.325793e+01
5.900000e-07	-4.831958e-06	-1.283233e-09	-3.361911e+01	-8.303606e+01
6.000000e-07	-4.809026e-06	-1.244502e-09	-3.345956e+01	-8.280959e+01
6.100000e-07	-4.785777e-06	-1.219710e-09	-3.329780e+01	-8.257851e+01
6.200000e-07	-4.762341e-06	-1.253721e-09	-3.313474e+01	-8.234283e+01
6.300000e-07	-4.738760e-06	-1.241087e-09	-3.297067e+01	-8.210259e+01
6.400000e-07	-4.714916e-06	-1.206622e-09	-3.280477e+01	-8.185783e+01
6.500000e-07	-4.690734e-06	-1.231607e-09	-3.263652e+01	-8.160859e+01
6.600000e-07	-4.666166e-06	-1.238086e-09	-3.246559e+01	-8.135492e+01
6.700000e-07	-4.641046e-06	-1.207355e-09	-3.229081e+01	-8.109690e+01
6.800000e-07	-4.615342e-06	-1.216371e-09	-3.211197e+01	-8.083460e+01
6.900000e-07	-4.589135e-06	-1.234531e-09	-3.192963e+01	-8.056809e+01
7.000000e-07	-4.562355e-06	-1.207047e-09	-3.174331e+01	-8.029746e+01
7.100000e-07	-4.535139e-06	-1.196844e-09	-3.155394e+01	-8.002280e+01
7.200000e-07	-4.507754e-06	-1.212795e-09	-3.136341e+01	-7.974420e+01
7.300000e-07	-4.480198e-06	-1.201744e-09	-3.117169e+01	-7.946176e+01
7.400000e-07	-4.452434e-06	-1.183958e-09	-3.097851e+01	-7.917556e+01
7.500000e-07	-4.424467e-06	-1.193474e-09	-3.078393e+01	-7.888570e+01
7.600000e-07	-4.396200e-06	-1.190087e-09	-3.058726e+01	-7.859228e+01
7.700000e-07	-4.367610e-06	-1.173199e-09	-3.038834e+01	-7.829538e+01
7.800000e-07	-4.338691e-06	-1.173271e-09	-3.018713e+01	-7.799508e+01
7.900000e-07	-4.309442e-06	-1.175783e-09	-2.998362e+01	-7.769147e+01
8.000000e-07	-4.279950e-06	-1.165512e-09	-2.977843e+01	-7.738461e+01
8.100000e-07	-4.250245e-06	-1.161711e-09	-2.957175e+01	-7.707458e+01
8.200000e-07	-4.220256e-06	-1.158487e-09	-2.936310e+01	-7.676141e+01
8.300000e-07	-4.189947e-06	-1.143236e-09	-2.915222e+01	-7.644517e+01
8.400000e-07	-4.159247e-06	-1.135225e-09	-2.893861e+01	-7.612588e+01
8.500000e-07	-4.128207e-06	-1.135715e-09	-2.872265e+01	-7.580357e+01
8.600000e-07	-4.097030e-06	-1.126090e-09	-2.850573e+01	-7.547826e+01
8.700000e-07	-4.065679e-06	-1.115115e-09	-2.828760e+01	-7.514993e+01
8.800000e-07	-4.034117e-06	-1.114874e-09	-2.806801e+01	-7.481859e+01
8.900000e-07	-4.002427e-06	-1.110047e-09	-2.784752e+01	-7.448420e+01
9.000000e-07	-3.970531e-06	-1.098655e-09	-2.762560e+01	-7.414674e+01
9.100000e-07	-3.938294e-06	-1.094848e-09	-2.740130e+01	-7.380615e+01
9.200000e-07	-3.905635e-06	-1.092443e-09	-2.717407e+01	-7.346238e+01
9.300000e-07	-3.872520e-06	-1.081144e-09	-2.694367e+01	-7.311534e+01
9.400000e-07	-3.839037e-06	-1.076379e-09	-2.671071e+01	-7.276497e+01
9.500000e-07	-3.805129e-06	-1.076213e-09	-2.647478e+01	-7.241117e+01
9.600000e-07	-3.770704e-06	-1.066948e-09	-2.623527e+01	-7.205384e+01
9.700000e-07	-3.735843e-06	-1.055582e-09	-2.599272e+01	-7.169287e+01
9.800000e-07	-3.700663e-06	-1.054739e-09	-2.574795e+01	-7.132814e+01
9.900000e-07	-3.665254e-06	-1.051179e-09	-2.550159e+01	-7.095953e+01
1.000000e-06	-3.629721e-06	-1.043247e-09	-2.525436e+01	-7.058691e+01
1.010000e-06	-3.594111e-06	-1.040230e-09	-2.500659e+01	-7.021016e+01
1.020000e-06	-3.558379e-06	-1.037927e-09	-2.475799e+01	-6.982913e+01
1.030000e-06	-3.522485e-06	-1.027949e-09	-2.450825e+01	-6.944369e+01
1.040000e-06	-3.486353e-06	-1.020383e-09	-2.425685e+01	-6.905372e+01
1.050000e-06	-3.449935e-06	-1.016011e-09	-2.400347e+01	-6.865907e+01
1.060000e-06	-3.413281e-06	-1.007021e-09	-2.374844e+01	-6.825961e+01
1.070000e-06	-3.376343e-06	-9.983501e-10	-2.349144e+01	-6.785523e+01
1.080000e-06	-3.339143e-06	-9.954679e-10	-2.323261e+01	-6.744579e+01
1.090000e-06	-3.301764e-06	-9.894737e-10	-2.297254e+01	-6.703119e+01
1.100000e-06	-3.264124e-06	-9.801611e-10	-2.271066e+01	-6.661131e+01
1.110000e-06	-3.226176e-06	-9.743481e-10	-2.244663e+01	-6.618607e+01
1.120000e-06	-3.187981e-06	-9.673268e-10	-2.218088e+01	-6.575536e+01
1.130000e-06	-3.149617e-06	-9.560415e-10	-2.191396e+01	-6.531910e+01
1.140000e-06	-3.111098e-06	-9.472861e-10	-2.164596e+01	-6.487724e+01
1.150000e-06	-3.072380e-06	-9.406513e-10	-2.137657e+01	-6.442970e+01
1.160000e-06	-3.033434e-06	-9.299128e-10	-2.110559e+01	-6.397643e+01
1.170000e-06	-2.994327e-06	-9.215281e-10	-2.083350e+01	-6.351741e+01
1.180000e-06	-2.955065e-06	-9.187619e-10	-2.056033e+01	-6.305259e+01
1.190000e-06	-2.915638e-06	-9.139774e-10	-2.028601e+01	-6.258196e+01
1.200000e-06	-2.876096e-06	-9.063344e-10	-2.001089e+01	-6.210551e+01
1.210000e-06	-2.836441e-06	-8.998135e-10	-1.973499e+01	-6.162323e+01
1.220000e-06	-2.796590e-06	-8.907664e-10	-1.945772e+01	-6.113514e+01
1.230000e-06	-2.756523e-06	-8.791832e-10	-1.917894e+01	-6.064124e+01
1.240000e-06	-2.716435e-06	-8.695442e-10	-1.890003e+01	-6.014155e+01
1.250000e-06	-2.676248e-06	-8.615378e-10	-1.862042e+01	-5.963609e+01
1.260000e-06	-2.635706e-06	-8.504085e-10	-1.833834e+01	-5.912488e+01
1.270000e-06	-2.594855e-06	-8.391976e-10	-1.805412e+01	-5.860794e+01
1.280000e-06	-2.553707e-06	-8.311428e-10	-1.776782e+01	-5.808530e+01
1.290000e-06	-2.512263e-06	-8.256883e-10	-1.747947e+01	-5.755696e+01
1.300000e-06	-2.470547e-06	-8.197383e-10	-1.718922e+01	-5.702294e+01
1.310000e-06	-2.428411e-06	-8.115322e-10	-1.689605e+01	-5.648324e+01
1.320000e-06	-2.385904e-06	-8.003918e-10	-1.660030e+01	-5.593786e+01
1.330000e-06	-2.343196e-06	-7.877623e-10	-1.630316e+01	-5.538676e+01
1.340000e-06	-2.300320e-06	-7.761162e-10	-1.600484e+01	-5.482992e+01
1.350000e-06	-2.257257e-06	-7.676100e-10	-1.570522e+01	-5.426729e+01
1.360000e-06	-2.214067e-06	-7.605210e-10	-1.540472e+01	-5.369879e+01
1.370000e-06	-2.170752e-06	-7.530836e-10	-1.510335e+01	-5.312434e+01
1.380000e-06	-2.127270e-06	-7.461101e-10	-1.480082e+01	-5.254381e+01
1.390000e-06	-2.083697e-06	-7.394231e-10	-1.449765e+01	-5.195709e+01
1.400000e-06	-2.040023e-06	-7.301578e-10	-1.419378e+01	-5.136399e+01
1.410000e-06	-1.996250e-06	-7.189351e-10	-1.388923e+01	-5.076434e+01
1.420000e-06	-1.952405e-06	-7.080139e-10	-1.358416e+01	-5.015791e+01
1.430000e-06	-1.908477e-06	-6.978931e-10	-1.327853e+01	-4.954446e+01
1.440000e-06	-1.864465e-06	-6.882652e-10	-1.297231e+01	-4.892370e+01
1.450000e-06	-1.820344e-06	-6.792611e-10	-1.266533e+01	-4.829535e+01
1.460000e-06	-1.776146e-06	-6.704213e-10	-1.235782e+01	-4.765905e+01
1.470000e-06	-1.731822e-06	-6.594854e-10	-1.204943e+01	-4.701444e+01
1.480000e-06	-1.687296e-06	-6.457732e-10	-1.173963e+01	-4.636113e+01
1.490000e-06	-1.642615e-06	-6.319200e-10	-1.142875e+01	-4.569868e+01
1.500000e-06	-1.597748e-06	-6.204193e-10	-1.111658e+01	-4.502665e+01
1.510000e-06	-1.552775e-06	-6.110339e-10	-1.080368e+01	-4.434455e+01
1.520000e-06	-1.507780e-06	-6.027328e-10	-1.049062e+01	-4.365188e+01
1.530000e-06	-1.462664e-06	-5.938665e-10	-1.017671e+01	-4.294812e+01
1.540000e-06	-1.417440e-06	-5.827908e-10	-9.862064e+00	-4.223270e+01
1.550000e-06	-1.372123e-06	-5.688164e-10	-9.546765e+00	-4.150507e+01
1.560000e-06	-1.326671e-06	-5.540977e-10	-9.230526e+00	-4.076464e+01
1.570000e-06	-1.281142e-06	-5.395545e-10	-8.913748e+00	-4.001083e+01
1.580000e-06	-1.235523e-06	-5.277543e-10	-8.596347e+00	-3.924302e+01
1.590000e-06	-1.189758e-06	-5.189260e-10	-8.277929e+00	-3.846061e+01
1.600000e-06	-1.143895e-06	-5.097274e-10	-7.958830e+00	-3.766299e+01
1.610000e-06	-1.097984e-06	-4.964306e-10	-7.639397e+00	-3.684955e+01
1.620000e-06	-1.052006e-06	-4.810167e-10	-7.319495e+00	-3.601969e+01
1.630000e-06	-1.005995e-06	-4.682210e-10	-6.999368e+00	-3.517282e+01
1.640000e-06	-9.599266e-07	-4.568285e-10	-6.678841e+00	-3.430838e+01
1.650000e-06	-9.137856e-07	-4.428089e-10	-6.357808e+00	-3.342579e+01
1.660000e-06	-8.676579e-07	-4.273538e-10	-6.036867e+00	-3.252454e+01
1.670000e-06	-8.214660e-07	-4.127132e-10	-5.715479e+00	-3.160412e+01
1.680000e-06	-7.751423e-07	-3.970033e-10	-5.393175e+00	-3.066405e+01
1.690000e-06	-7.287818e-07	-3.820539e-10	-5.070614e+00	-2.970391e+01
1.700000e-06	-6.824319e-07	-3.687964e-10	-4.748128e+00	-2.872330e+01
1.710000e-06	-6.360061e-07	-3.553408e-10	-4.425113e+00	-2.772188e+01
1.720000e-06	-5.894782e-07	-3.412594e-10	-4.101388e+00	-2.669934e+01
1.730000e-06	-5.429149e-07	-3.231486e-10	-3.777416e+00	-2.565544e+01
1.740000e-06	-4.963465e-07	-3.013267e-10	-3.453409e+00	-2.458998e+01
1.750000e-06	-4.497301e-07	-2.806799e-10	-3.129068e+00	-2.350284e+01
1.760000e-06	-4.030255e-07	-2.639988e-10	-2.804114e+00	-2.239394e+01
1.770000e-06	-3.562506e-07	-2.503422e-10	-2.478670e+00	-2.126328e+01
1.780000e-06	-3.094269e-07	-2.381789e-10	-2.152886e+00	-2.011092e+01
1.790000e-06	-2.625729e-07	-2.249589e-10	-1.826893e+00	-1.893698e+01
1.800000e-06	-2.156207e-07	-2.091828e-10	-1.500215e+00	-1.774166e+01
1.810000e-06	-1.686306e-07	-1.919773e-10	-1.173274e+00	-1.652523e+01
1.820000e-06	-1.218139e-07	-1.742687e-10	-8.475393e-01	-1.528803e+01
1.830000e-06	-7.510076e-08	-1.584805e-10	-5.225254e-01	-1.403047e+01
1.840000e-06	-2.830961e-08	-1.433180e-10	-1.969686e-01	-1.275304e+01
1.850000e-06	1.851077e-08	-1.271184e-10	1.287916e-01	-1.145627e+01
1.860000e-06	6.531121e-08	-1.100520e-10	4.544130e-01	-1.014080e+01
1.870000e-06	1.120905e-07	-9.300999e-11	7.798872e-01	-8.807325e+00
1.880000e-06	1.588229e-07	-7.537486e-11	1.105036e+00	-7.456588e+00
1.890000e-06	2.056181e-07	-5.575028e-11	1.430620e+00	-6.089417e+00
1.900000e-06	2.524505e-07	-3.381232e-11	1.756464e+00	-4.706693e+00
1.910000e-06	2.991748e-07	-1.205118e-11	2.081556e+00	-3.309358e+00
1.920000e-06	3.458660e-07	7.664005e-12	2.406417e+00	-1.898409e+00
1.930000e-06	3.925553e-07	2.496653e-11	2.731265e+00	-4.748948e-01
1.940000e-06	4.392558e-07	4.139069e-11	3.056191e+00	9.600884e-01
1.950000e-06	4.859524e-07	5.900906e-11	3.381091e+00	2.405400e+00
1.960000e-06	5.325052e-07	7.818915e-11	3.704989e+00	3.859861e+00
1.970000e-06	5.789538e-07	9.970872e-11	4.028162e+00	5.322257e+00
1.980000e-06	6.253793e-07	1.224953e-10	4.351175e+00	6.791344e+00
1.990000e-06	6.716978e-07	1.453880e-10	4.673443e+00	8.265853e+00
2.000000e-06	7.179380e-07	1.653512e-10	4.995167e+00	9.744496e+00
2.010000e-06	7.641697e-07	1.821080e-10	5.316831e+00	1.122597e+01
2.020000e-06	8.103567e-07	2.000269e-10	5.638185e+00	1.270896e+01
2.030000e-06	8.565341e-07	2.211094e-10	5.959471e+00	1.419214e+01
2.040000e-06	9.026736e-07	2.427927e-10	6.280494e+00	1.567421e+01
2.050000e-06	9.487297e-07	2.632928e-10	6.600937e+00	1.715386e+01
2.060000e-06	9.947966e-07	2.835485e-10	6.921454e+00	1.862977e+01
2.070000e-06	1.040787e-06	3.029697e-10	7.241442e+00	2.010068e+01
2.080000e-06	1.086642e-06	3.216614e-10	7.560485e+00	2.156532e+01
2.090000e-06	1.132422e-06	3.410075e-10	7.879004e+00	2.302244e+01
2.100000e-06	1.178073e-06	3.617737e-10	8.196630e+00	2.447085e+01
2.110000e-06	1.223639e-06	3.825458e-10	8.513663e+00	2.590936e+01
2.120000e-06	1.269147e-06	4.021299e-10	8.830290e+00	2.733685e+01
2.130000e-06	1.314527e-06	4.224123e-10	9.146029e+00	2.875223e+01
2.140000e-06	1.359829e-06	4.430493e-10	9.461222e+00	3.015443e+01
2.150000e-06	1.405153e-06	4.623878e-10	9.776577e+00	3.154246e+01
2.160000e-06	1.450371e-06	4.809540e-10	1.009118e+01	3.291538e+01
2.170000e-06	1.495416e-06	5.001582e-10	1.040459e+01	3.427227e+01
2.180000e-06	1.540368e-06	5.214984e-10	1.071735e+01	3.561231e+01
2.190000e-06	1.585208e-06	5.428638e-10	1.102934e+01	3.693471e+01
2.200000e-06	1.629936e-06	5.616076e-10	1.134053e+01	3.823874e+01
2.210000e-06	1.674543e-06	5.777090e-10	1.165090e+01	3.952374e+01
2.220000e-06	1.718935e-06	5.938417e-10	1.195976e+01	4.078910e+01
2.230000e-06	1.763098e-06	6.113590e-10	1.226703e+01	4.203427e+01
2.240000e-06	1.807224e-06	6.280486e-10	1.257404e+01	4.325877e+01
2.250000e-06	1.851272e-06	6.437560e-10	1.288051e+01	4.446218e+01
2.260000e-06	1.895139e-06	6.587264e-10	1.318573e+01	4.564413e+01
2.270000e-06	1.938970e-06	6.750633e-10	1.349069e+01	4.680431e+01
2.280000e-06	1.982747e-06	6.943615e-10	1.379528e+01	4.794250e+01
2.290000e-06	2.026383e-06	7.123910e-10	1.409888e+01	4.905848e+01
2.300000e-06	2.069943e-06	7.278170e-10	1.440195e+01	5.015213e+01
2.310000e-06	2.113475e-06	7.410403e-10	1.470484e+01	5.122337e+01
2.320000e-06	2.156965e-06	7.547613e-10	1.500742e+01	5.227216e+01
2.330000e-06	2.200395e-06	7.693868e-10	1.530959e+01	5.329853e+01
2.340000e-06	2.243766e-06	7.836618e-10	1.561135e+01	5.430255e+01
2.350000e-06	2.287007e-06	7.993822e-10	1.591221e+01	5.528432e+01
2.360000e-06	2.329966e-06	8.162861e-10	1.621111e+01	5.624399e+01
2.370000e-06	2.372624e-06	8.328985e-10	1.650791e+01	5.718176e+01
2.380000e-06	2.415041e-06	8.458504e-10	1.680303e+01	5.809786e+01
2.390000e-06	2.457145e-06	8.555111e-10	1.709597e+01	5.899254e+01
2.400000e-06	2.498949e-06	8.645389e-10	1.738683e+01	5.986609e+01
2.410000e-06	2.540542e-06	8.728377e-10	1.767622e+01	6.071884e+01
2.420000e-06	2.581798e-06	8.825610e-10	1.796327e+01	6.155113e+01
2.430000e-06	2.622658e-06	8.954841e-10	1.824756e+01	6.236332e+01
2.440000e-06	2.663291e-06	9.100411e-10	1.853026e+01	6.315580e+01
2.450000e-06	2.703705e-06	9.235634e-10	1.881145e+01	6.392898e+01
2.460000e-06	2.743855e-06	9.352221e-10	1.909081e+01	6.468326e+01
2.470000e-06	2.783879e-06	9.474277e-10	1.936928e+01	6.541907e+01
2.480000e-06	2.823710e-06	9.593743e-10	1.964640e+01	6.613685e+01
2.490000e-06	2.863366e-06	9.690727e-10	1.992232e+01	6.683704e+01
2.500000e-06	2.902935e-06	9.754547e-10	2.019763e+01	6.752008e+01
2.510000e-06	2.942366e-06	9.820442e-10	2.047197e+01	6.818644e+01
2.520000e-06	2.981703e-06	9.931693e-10	2.074567e+01	6.883655e+01
2.530000e-06	3.020911e-06	1.006573e-09	2.101847e+01	6.947086e+01
2.540000e-06	3.059930e-06	1.017088e-09	2.128995e+01	7.008982e+01
2.550000e-06	3.098744e-06	1.023536e-09	2.156000e+01	7.069386e+01
2.560000e-06	3.137286e-06	1.029524e-09	2.182816e+01	7.128343e+01
2.570000e-06	3.175538e-06	1.036578e-09	2.209431e+01	7.185894e+01
2.580000e-06	3.213482e-06	1.042410e-09	2.235831e+01	7.242082e+01
2.590000e-06	3.251240e-06	1.048581e-09	2.262102e+01	7.296947e+01
2.600000e-06	3.288858e-06	1.057134e-09	2.288275e+01	7.350529e+01
2.610000e-06	3.326245e-06	1.066210e-09	2.314288e+01	7.402867e+01
2.620000e-06	3.363418e-06	1.072129e-09	2.340151e+01	7.453998e+01
2.630000e-06	3.400401e-06	1.074849e-09	2.365882e+01	7.503959e+01
2.640000e-06	3.437119e-06	1.077977e-09	2.391429e+01	7.552785e+01
2.650000e-06	3.473517e-06	1.083846e-09	2.416754e+01	7.600509e+01
2.660000e-06	3.509627e-06	1.093064e-09	2.441878e+01	7.647165e+01
2.670000e-06	3.545522e-06	1.102052e-09	2.466853e+01	7.692782e+01
2.680000e-06	3.581306e-06	1.107871e-09	2.491750e+01	7.737392e+01
2.690000e-06	3.616936e-06	1.113130e-09	2.516540e+01	7.781023e+01
2.700000e-06	3.652449e-06	1.119854e-09	2.541249e+01	7.823702e+01
2.710000e-06	3.687818e-06	1.125960e-09	2.565858e+01	7.865454e+01
2.720000e-06	3.722994e-06	1.129333e-09	2.590332e+01	7.906306e+01
2.730000e-06	3.757945e-06	1.132672e-09	2.614649e+01	7.946280e+01
2.740000e-06	3.792544e-06	1.138448e-09	2.638722e+01	7.985399e+01
2.750000e-06	3.826734e-06	1.143084e-09	2.662511e+01	8.023683e+01
2.760000e-06	3.860449e-06	1.147511e-09	2.685968e+01	8.061154e+01
2.770000e-06	3.893591e-06	1.156320e-09	2.709027e+01	8.097829e+01
2.780000e-06	3.926234e-06	1.166269e-09	2.731740e+01	8.133727e+01
2.790000e-06	3.958548e-06	1.173721e-09	2.754222e+01	8.168865e+01
2.800000e-06	3.990579e-06	1.178885e-09	2.776509e+01	8.203258e+01
2.810000e-06	4.022399e-06	1.181251e-09	2.798648e+01	8.236922e+01
2.820000e-06	4.054038e-06	1.182045e-09	2.820661e+01	8.269870e+01
2.830000e-06	4.085500e-06	1.185790e-09	2.842551e+01	8.302116e+01
2.840000e-06	4.116828e-06	1.194789e-09	2.864348e+01	8.333673e+01
2.850000e-06	4.147959e-06	1.205091e-09	2.886008e+01	8.364551e+01
2.860000e-06	4.178751e-06	1.214797e-09	2.907432e+01	8.394761e+01
2.870000e-06	4.209171e-06	1.220538e-09	2.928597e+01	8.424315e+01
2.880000e-06	4.239261e-06	1.220765e-09	2.949533e+01	8.453221e+01
2.890000e-06	4.269006e-06	1.220582e-09	2.970229e+01	8.481488e+01
2.900000e-06	4.298483e-06	1.224174e-09	2.990737e+01	8.509125e+01
