# Temperatura_=_-2.04
# Concentracion g/m^3_=_1620.0
# C_Vs_to_Am_M_A/Vsm_=_65563218390.804596
# pendiente_HvsI_1/m_=_3716.3
# ordenada_HvsI_A/m_=_1297.0
# frecuencia_Hz_=_135107.58989477158

Tiempo_(s)	Campo_(V.s)	Magnetizacion_(V.s)	Campo_(kA/m)	Magnetizacion_(A/m)
0.000000e+00	-5.510094e-06	-8.136471e-10	-3.836362e+01	-5.668841e+01
1.000000e-08	-5.510311e-06	-8.129329e-10	-3.836513e+01	-5.666618e+01
2.000000e-08	-5.510186e-06	-8.137543e-10	-3.836426e+01	-5.664748e+01
3.000000e-08	-5.509618e-06	-8.142376e-10	-3.836030e+01	-5.663218e+01
4.000000e-08	-5.508611e-06	-8.098175e-10	-3.835329e+01	-5.662007e+01
5.000000e-08	-5.506970e-06	-7.922434e-10	-3.834187e+01	-5.661095e+01
6.000000e-08	-5.504636e-06	-7.736298e-10	-3.832562e+01	-5.660458e+01
7.000000e-08	-5.501767e-06	-7.945667e-10	-3.830565e+01	-5.660067e+01
8.000000e-08	-5.498493e-06	-8.674002e-10	-3.828285e+01	-5.659894e+01
9.000000e-08	-5.494793e-06	-9.163641e-10	-3.825709e+01	-5.659906e+01
1.000000e-07	-5.490642e-06	-8.602628e-10	-3.822819e+01	-5.660070e+01
1.100000e-07	-5.486233e-06	-7.678644e-10	-3.819749e+01	-5.660349e+01
1.200000e-07	-5.481627e-06	-7.352172e-10	-3.816542e+01	-5.660707e+01
1.300000e-07	-5.476708e-06	-8.194426e-10	-3.813118e+01	-5.661104e+01
1.400000e-07	-5.471402e-06	-8.386163e-10	-3.809423e+01	-5.661503e+01
1.500000e-07	-5.465707e-06	-7.746675e-10	-3.805458e+01	-5.661863e+01
1.600000e-07	-5.459613e-06	-7.600358e-10	-3.801215e+01	-5.662144e+01
1.700000e-07	-5.453113e-06	-8.261024e-10	-3.796689e+01	-5.662307e+01
1.800000e-07	-5.446259e-06	-8.979647e-10	-3.791917e+01	-5.662313e+01
1.900000e-07	-5.439017e-06	-8.094941e-10	-3.786875e+01	-5.662122e+01
2.000000e-07	-5.431506e-06	-7.893283e-10	-3.781646e+01	-5.661698e+01
2.100000e-07	-5.423773e-06	-8.405099e-10	-3.776261e+01	-5.661006e+01
2.200000e-07	-5.415736e-06	-9.318784e-10	-3.770666e+01	-5.660009e+01
2.300000e-07	-5.407338e-06	-8.752004e-10	-3.764819e+01	-5.658677e+01
2.400000e-07	-5.398419e-06	-8.440276e-10	-3.758609e+01	-5.656978e+01
2.500000e-07	-5.388803e-06	-8.605770e-10	-3.751914e+01	-5.654885e+01
2.600000e-07	-5.378426e-06	-8.914193e-10	-3.744689e+01	-5.652374e+01
2.700000e-07	-5.367462e-06	-8.476884e-10	-3.737055e+01	-5.649420e+01
2.800000e-07	-5.356135e-06	-8.462475e-10	-3.729169e+01	-5.646004e+01
2.900000e-07	-5.344472e-06	-8.844737e-10	-3.721049e+01	-5.642110e+01
3.000000e-07	-5.332496e-06	-8.719655e-10	-3.712711e+01	-5.637724e+01
3.100000e-07	-5.320127e-06	-8.386223e-10	-3.704099e+01	-5.632836e+01
3.200000e-07	-5.307283e-06	-8.428612e-10	-3.695157e+01	-5.627437e+01
3.300000e-07	-5.294005e-06	-8.770520e-10	-3.685911e+01	-5.621523e+01
3.400000e-07	-5.280320e-06	-8.447589e-10	-3.676383e+01	-5.615093e+01
3.500000e-07	-5.266146e-06	-8.484309e-10	-3.666515e+01	-5.608149e+01
3.600000e-07	-5.251604e-06	-8.627772e-10	-3.656390e+01	-5.600694e+01
3.700000e-07	-5.236736e-06	-8.707536e-10	-3.646039e+01	-5.592736e+01
3.800000e-07	-5.221318e-06	-8.335102e-10	-3.635304e+01	-5.584286e+01
3.900000e-07	-5.205335e-06	-8.521552e-10	-3.624176e+01	-5.575354e+01
4.000000e-07	-5.188879e-06	-8.504218e-10	-3.612718e+01	-5.565956e+01
4.100000e-07	-5.172086e-06	-8.418614e-10	-3.601026e+01	-5.556107e+01
4.200000e-07	-5.154960e-06	-8.296359e-10	-3.589102e+01	-5.545827e+01
4.300000e-07	-5.137522e-06	-8.571604e-10	-3.576961e+01	-5.535135e+01
4.400000e-07	-5.119777e-06	-8.519963e-10	-3.564607e+01	-5.524053e+01
4.500000e-07	-5.101682e-06	-8.584310e-10	-3.552008e+01	-5.512601e+01
4.600000e-07	-5.083202e-06	-8.414029e-10	-3.539141e+01	-5.500804e+01
4.700000e-07	-5.064255e-06	-8.369827e-10	-3.525950e+01	-5.488685e+01
4.800000e-07	-5.044910e-06	-8.369105e-10	-3.512481e+01	-5.476267e+01
4.900000e-07	-5.025385e-06	-8.545739e-10	-3.498887e+01	-5.463575e+01
5.000000e-07	-5.005665e-06	-8.272456e-10	-3.485157e+01	-5.450632e+01
5.100000e-07	-4.985644e-06	-8.178805e-10	-3.471217e+01	-5.437461e+01
5.200000e-07	-4.965252e-06	-8.332267e-10	-3.457020e+01	-5.424084e+01
5.300000e-07	-4.944612e-06	-8.457968e-10	-3.442649e+01	-5.410522e+01
5.400000e-07	-4.923667e-06	-8.332048e-10	-3.428066e+01	-5.396797e+01
5.500000e-07	-4.902351e-06	-8.381458e-10	-3.413225e+01	-5.382926e+01
5.600000e-07	-4.880713e-06	-8.286774e-10	-3.398160e+01	-5.368927e+01
5.700000e-07	-4.858730e-06	-8.124940e-10	-3.382855e+01	-5.354817e+01
5.800000e-07	-4.836420e-06	-8.259247e-10	-3.367322e+01	-5.340608e+01
5.900000e-07	-4.813801e-06	-8.367892e-10	-3.351573e+01	-5.326314e+01
6.000000e-07	-4.790800e-06	-8.160115e-10	-3.335559e+01	-5.311944e+01
6.100000e-07	-4.767396e-06	-8.116472e-10	-3.319264e+01	-5.297506e+01
6.200000e-07	-4.743787e-06	-8.299324e-10	-3.302826e+01	-5.283008e+01
6.300000e-07	-4.719991e-06	-8.100082e-10	-3.286259e+01	-5.268453e+01
6.400000e-07	-4.695902e-06	-7.973573e-10	-3.269487e+01	-5.253843e+01
6.500000e-07	-4.671438e-06	-8.076874e-10	-3.252454e+01	-5.239178e+01
6.600000e-07	-4.646601e-06	-8.092069e-10	-3.235161e+01	-5.224457e+01
6.700000e-07	-4.621307e-06	-7.893725e-10	-3.217551e+01	-5.209677e+01
6.800000e-07	-4.595444e-06	-8.043479e-10	-3.199544e+01	-5.194832e+01
6.900000e-07	-4.568983e-06	-8.063674e-10	-3.181121e+01	-5.179915e+01
7.000000e-07	-4.541986e-06	-7.899797e-10	-3.162324e+01	-5.164918e+01
7.100000e-07	-4.514643e-06	-7.800751e-10	-3.143286e+01	-5.149830e+01
7.200000e-07	-4.487159e-06	-7.975554e-10	-3.124151e+01	-5.134643e+01
7.300000e-07	-4.459536e-06	-7.864926e-10	-3.104919e+01	-5.119342e+01
7.400000e-07	-4.431712e-06	-7.806030e-10	-3.085547e+01	-5.103916e+01
7.500000e-07	-4.403675e-06	-7.860179e-10	-3.066026e+01	-5.088351e+01
7.600000e-07	-4.375407e-06	-7.866785e-10	-3.046345e+01	-5.072633e+01
7.700000e-07	-4.346835e-06	-7.648426e-10	-3.026452e+01	-5.056747e+01
7.800000e-07	-4.317850e-06	-7.693845e-10	-3.006271e+01	-5.040680e+01
7.900000e-07	-4.288513e-06	-7.762683e-10	-2.985845e+01	-5.024416e+01
8.000000e-07	-4.258862e-06	-7.693068e-10	-2.965201e+01	-5.007942e+01
8.100000e-07	-4.228842e-06	-7.598280e-10	-2.944300e+01	-4.991243e+01
8.200000e-07	-4.198537e-06	-7.639347e-10	-2.923200e+01	-4.974306e+01
8.300000e-07	-4.168000e-06	-7.534268e-10	-2.901939e+01	-4.957118e+01
8.400000e-07	-4.137161e-06	-7.421115e-10	-2.880468e+01	-4.939667e+01
8.500000e-07	-4.106041e-06	-7.404891e-10	-2.858800e+01	-4.921942e+01
8.600000e-07	-4.074722e-06	-7.363908e-10	-2.836995e+01	-4.903931e+01
8.700000e-07	-4.043241e-06	-7.275158e-10	-2.815077e+01	-4.885627e+01
8.800000e-07	-4.011617e-06	-7.302089e-10	-2.793059e+01	-4.867019e+01
8.900000e-07	-3.979805e-06	-7.357129e-10	-2.770910e+01	-4.848102e+01
9.000000e-07	-3.947747e-06	-7.255993e-10	-2.748590e+01	-4.828870e+01
9.100000e-07	-3.915367e-06	-7.221238e-10	-2.726046e+01	-4.809316e+01
9.200000e-07	-3.882665e-06	-7.229597e-10	-2.703277e+01	-4.789439e+01
9.300000e-07	-3.849594e-06	-7.199811e-10	-2.680251e+01	-4.769234e+01
9.400000e-07	-3.815986e-06	-7.142150e-10	-2.656852e+01	-4.748700e+01
9.500000e-07	-3.781888e-06	-7.173929e-10	-2.633111e+01	-4.727838e+01
9.600000e-07	-3.747382e-06	-7.084234e-10	-2.609087e+01	-4.706647e+01
9.700000e-07	-3.712463e-06	-6.988797e-10	-2.584775e+01	-4.685130e+01
9.800000e-07	-3.677199e-06	-6.942669e-10	-2.560222e+01	-4.663287e+01
9.900000e-07	-3.641753e-06	-6.950942e-10	-2.535543e+01	-4.641122e+01
1.000000e-06	-3.606188e-06	-6.874746e-10	-2.510782e+01	-4.618638e+01
1.010000e-06	-3.570514e-06	-6.868682e-10	-2.485944e+01	-4.595840e+01
1.020000e-06	-3.534748e-06	-6.855529e-10	-2.461042e+01	-4.572731e+01
1.030000e-06	-3.498770e-06	-6.822123e-10	-2.435993e+01	-4.549316e+01
1.040000e-06	-3.462489e-06	-6.780948e-10	-2.410732e+01	-4.525600e+01
1.050000e-06	-3.425990e-06	-6.802466e-10	-2.385320e+01	-4.501587e+01
1.060000e-06	-3.389291e-06	-6.745701e-10	-2.359768e+01	-4.477282e+01
1.070000e-06	-3.352301e-06	-6.687267e-10	-2.334015e+01	-4.452689e+01
1.080000e-06	-3.315045e-06	-6.640189e-10	-2.308075e+01	-4.427811e+01
1.090000e-06	-3.277529e-06	-6.568763e-10	-2.281955e+01	-4.402652e+01
1.100000e-06	-3.239773e-06	-6.472882e-10	-2.255668e+01	-4.377215e+01
1.110000e-06	-3.201827e-06	-6.474703e-10	-2.229248e+01	-4.351500e+01
1.120000e-06	-3.163656e-06	-6.480028e-10	-2.202672e+01	-4.325511e+01
1.130000e-06	-3.125240e-06	-6.437921e-10	-2.175925e+01	-4.299246e+01
1.140000e-06	-3.086557e-06	-6.367546e-10	-2.148992e+01	-4.272704e+01
1.150000e-06	-3.047694e-06	-6.288062e-10	-2.121934e+01	-4.245885e+01
1.160000e-06	-3.008697e-06	-6.190310e-10	-2.094783e+01	-4.218786e+01
1.170000e-06	-2.969468e-06	-6.117928e-10	-2.067470e+01	-4.191401e+01
1.180000e-06	-2.930062e-06	-6.102157e-10	-2.040034e+01	-4.163728e+01
1.190000e-06	-2.890549e-06	-6.081368e-10	-2.012524e+01	-4.135758e+01
1.200000e-06	-2.850887e-06	-6.062402e-10	-1.984909e+01	-4.107485e+01
1.210000e-06	-2.811123e-06	-6.050999e-10	-1.957224e+01	-4.078901e+01
1.220000e-06	-2.771221e-06	-6.037015e-10	-1.929442e+01	-4.049996e+01
1.230000e-06	-2.731124e-06	-5.961099e-10	-1.901525e+01	-4.020759e+01
1.240000e-06	-2.690830e-06	-5.898587e-10	-1.873471e+01	-3.991178e+01
1.250000e-06	-2.650344e-06	-5.832859e-10	-1.845282e+01	-3.961241e+01
1.260000e-06	-2.609704e-06	-5.774343e-10	-1.816987e+01	-3.930935e+01
1.270000e-06	-2.568729e-06	-5.719716e-10	-1.788458e+01	-3.900243e+01
1.280000e-06	-2.527378e-06	-5.711532e-10	-1.759668e+01	-3.869152e+01
1.290000e-06	-2.485784e-06	-5.666711e-10	-1.730709e+01	-3.837645e+01
1.300000e-06	-2.443881e-06	-5.584962e-10	-1.701534e+01	-3.805704e+01
1.310000e-06	-2.401609e-06	-5.502297e-10	-1.672102e+01	-3.773312e+01
1.320000e-06	-2.359029e-06	-5.458573e-10	-1.642456e+01	-3.740451e+01
1.330000e-06	-2.316251e-06	-5.392864e-10	-1.612672e+01	-3.707102e+01
1.340000e-06	-2.273279e-06	-5.335283e-10	-1.582754e+01	-3.673246e+01
1.350000e-06	-2.230115e-06	-5.266634e-10	-1.552701e+01	-3.638862e+01
1.360000e-06	-2.186791e-06	-5.191541e-10	-1.522537e+01	-3.603931e+01
1.370000e-06	-2.143329e-06	-5.147337e-10	-1.492277e+01	-3.568431e+01
1.380000e-06	-2.099736e-06	-5.169937e-10	-1.461925e+01	-3.532343e+01
1.390000e-06	-2.056039e-06	-5.156861e-10	-1.431502e+01	-3.495645e+01
1.400000e-06	-2.012291e-06	-5.090121e-10	-1.401042e+01	-3.458316e+01
1.410000e-06	-1.968499e-06	-5.024951e-10	-1.370553e+01	-3.420334e+01
1.420000e-06	-1.924611e-06	-4.982808e-10	-1.339996e+01	-3.381677e+01
1.430000e-06	-1.880658e-06	-4.928926e-10	-1.309394e+01	-3.342323e+01
1.440000e-06	-1.836656e-06	-4.870289e-10	-1.278758e+01	-3.302251e+01
1.450000e-06	-1.792546e-06	-4.794050e-10	-1.248047e+01	-3.261437e+01
1.460000e-06	-1.748241e-06	-4.709642e-10	-1.217200e+01	-3.219860e+01
1.470000e-06	-1.703721e-06	-4.631770e-10	-1.186203e+01	-3.177496e+01
1.480000e-06	-1.659099e-06	-4.546341e-10	-1.155136e+01	-3.134322e+01
1.490000e-06	-1.614426e-06	-4.493461e-10	-1.124032e+01	-3.090316e+01
1.500000e-06	-1.569594e-06	-4.443570e-10	-1.092818e+01	-3.045453e+01
1.510000e-06	-1.524599e-06	-4.418055e-10	-1.061491e+01	-2.999710e+01
1.520000e-06	-1.479533e-06	-4.386436e-10	-1.030114e+01	-2.953064e+01
1.530000e-06	-1.434363e-06	-4.309571e-10	-9.986644e+00	-2.905489e+01
1.540000e-06	-1.389063e-06	-4.193680e-10	-9.671249e+00	-2.856962e+01
1.550000e-06	-1.343632e-06	-4.058955e-10	-9.354935e+00	-2.807458e+01
1.560000e-06	-1.298074e-06	-3.939765e-10	-9.037741e+00	-2.756951e+01
1.570000e-06	-1.252447e-06	-3.845742e-10	-8.720072e+00	-2.705417e+01
1.580000e-06	-1.206858e-06	-3.784705e-10	-8.402659e+00	-2.652831e+01
1.590000e-06	-1.161168e-06	-3.755581e-10	-8.084545e+00	-2.599166e+01
1.600000e-06	-1.115308e-06	-3.722507e-10	-7.765248e+00	-2.544397e+01
1.610000e-06	-1.069359e-06	-3.662043e-10	-7.445330e+00	-2.488499e+01
1.620000e-06	-1.023352e-06	-3.555294e-10	-7.125011e+00	-2.431445e+01
1.630000e-06	-9.773577e-07	-3.473958e-10	-6.804780e+00	-2.373211e+01
1.640000e-06	-9.313517e-07	-3.389206e-10	-6.484467e+00	-2.313772e+01
1.650000e-06	-8.851910e-07	-3.291248e-10	-6.163076e+00	-2.253101e+01
1.660000e-06	-8.389544e-07	-3.215290e-10	-5.841158e+00	-2.191177e+01
1.670000e-06	-7.927643e-07	-3.159932e-10	-5.519562e+00	-2.127973e+01
1.680000e-06	-7.465495e-07	-3.092880e-10	-5.197795e+00	-2.063469e+01
1.690000e-06	-7.002173e-07	-3.015301e-10	-4.875211e+00	-1.997641e+01
1.700000e-06	-6.537589e-07	-2.923393e-10	-4.551747e+00	-1.930471e+01
1.710000e-06	-6.072605e-07	-2.808308e-10	-4.228006e+00	-1.861937e+01
1.720000e-06	-5.607869e-07	-2.652390e-10	-3.904437e+00	-1.792023e+01
1.730000e-06	-5.143251e-07	-2.466297e-10	-3.580951e+00	-1.720713e+01
1.740000e-06	-4.677555e-07	-2.304161e-10	-3.256713e+00	-1.647993e+01
1.750000e-06	-4.210844e-07	-2.210568e-10	-2.931769e+00	-1.573851e+01
1.760000e-06	-3.743784e-07	-2.148570e-10	-2.606582e+00	-1.498279e+01
1.770000e-06	-3.276820e-07	-2.083843e-10	-2.281461e+00	-1.421271e+01
1.780000e-06	-2.809725e-07	-2.010219e-10	-1.956250e+00	-1.342823e+01
1.790000e-06	-2.341774e-07	-1.892659e-10	-1.630443e+00	-1.262935e+01
1.800000e-06	-1.873287e-07	-1.728416e-10	-1.304262e+00	-1.181610e+01
1.810000e-06	-1.405095e-07	-1.572592e-10	-9.782873e-01	-1.098855e+01
1.820000e-06	-9.372970e-08	-1.455471e-10	-6.525861e-01	-1.014681e+01
1.830000e-06	-4.692609e-08	-1.373854e-10	-3.267194e-01	-9.291033e+00
1.840000e-06	-1.666405e-10	-1.313943e-10	-1.160222e-03	-8.421396e+00
1.850000e-06	4.655250e-08	-1.243226e-10	3.241183e-01	-7.538135e+00
1.860000e-06	9.335096e-08	-1.153950e-10	6.499491e-01	-6.641526e+00
1.870000e-06	1.401843e-07	-1.010129e-10	9.760225e-01	-5.731890e+00
1.880000e-06	1.869588e-07	-8.263722e-11	1.301686e+00	-4.809593e+00
1.890000e-06	2.336592e-07	-6.326965e-11	1.626835e+00	-3.875049e+00
1.900000e-06	2.803937e-07	-4.635278e-11	1.952220e+00	-2.928718e+00
1.910000e-06	3.272176e-07	-3.380169e-11	2.278228e+00	-1.971108e+00
1.920000e-06	3.739913e-07	-2.481114e-11	2.603886e+00	-1.002772e+00
1.930000e-06	4.206872e-07	-1.584869e-11	2.929003e+00	-2.430804e-02
1.940000e-06	4.673389e-07	-5.373212e-12	3.253813e+00	9.636390e-01
1.950000e-06	5.139033e-07	8.652734e-12	3.578014e+00	1.960383e+00
1.960000e-06	5.604018e-07	2.688281e-11	3.901756e+00	2.965194e+00
1.970000e-06	6.068282e-07	4.463184e-11	4.224996e+00	3.977305e+00
1.980000e-06	6.531541e-07	5.914793e-11	4.547537e+00	4.995910e+00
1.990000e-06	6.994403e-07	7.308290e-11	4.869801e+00	6.020169e+00
2.000000e-06	7.457104e-07	8.423986e-11	5.191953e+00	7.049209e+00
2.010000e-06	7.919945e-07	9.555775e-11	5.514203e+00	8.082128e+00
2.020000e-06	8.382946e-07	1.102539e-10	5.836564e+00	9.118001e+00
2.030000e-06	8.845513e-07	1.287952e-10	6.158622e+00	1.015588e+01
2.040000e-06	9.306305e-07	1.469798e-10	6.479446e+00	1.119480e+01
2.050000e-06	9.765453e-07	1.643883e-10	6.799124e+00	1.223377e+01
2.060000e-06	1.022463e-06	1.814428e-10	7.118823e+00	1.327181e+01
2.070000e-06	1.068333e-06	1.958877e-10	7.438186e+00	1.430793e+01
2.080000e-06	1.114101e-06	2.098396e-10	7.756843e+00	1.534112e+01
2.090000e-06	1.159753e-06	2.255334e-10	8.074694e+00	1.637039e+01
2.100000e-06	1.205330e-06	2.436409e-10	8.392019e+00	1.739476e+01
2.110000e-06	1.250832e-06	2.580895e-10	8.708827e+00	1.841325e+01
2.120000e-06	1.296218e-06	2.710786e-10	9.024824e+00	1.942491e+01
2.130000e-06	1.341610e-06	2.853489e-10	9.340856e+00	2.042879e+01
2.140000e-06	1.386951e-06	2.995357e-10	9.656542e+00	2.142399e+01
2.150000e-06	1.432185e-06	3.131018e-10	9.971483e+00	2.240962e+01
2.160000e-06	1.477272e-06	3.262375e-10	1.028540e+01	2.338484e+01
2.170000e-06	1.522178e-06	3.386868e-10	1.059805e+01	2.434882e+01
2.180000e-06	1.566927e-06	3.537198e-10	1.090962e+01	2.530080e+01
2.190000e-06	1.611532e-06	3.673848e-10	1.122017e+01	2.624004e+01
2.200000e-06	1.656081e-06	3.793472e-10	1.153034e+01	2.716586e+01
2.210000e-06	1.700581e-06	3.916822e-10	1.184017e+01	2.807763e+01
2.220000e-06	1.744969e-06	4.046358e-10	1.214922e+01	2.897474e+01
2.230000e-06	1.789235e-06	4.171943e-10	1.245742e+01	2.985667e+01
2.240000e-06	1.833394e-06	4.273661e-10	1.276487e+01	3.072293e+01
2.250000e-06	1.877372e-06	4.379500e-10	1.307106e+01	3.157311e+01
2.260000e-06	1.921211e-06	4.479420e-10	1.337629e+01	3.240682e+01
2.270000e-06	1.964994e-06	4.608662e-10	1.368112e+01	3.322374e+01
2.280000e-06	2.008712e-06	4.743266e-10	1.398551e+01	3.402362e+01
2.290000e-06	2.052339e-06	4.871624e-10	1.428926e+01	3.480626e+01
2.300000e-06	2.095887e-06	4.993091e-10	1.459246e+01	3.557149e+01
2.310000e-06	2.139361e-06	5.096969e-10	1.489514e+01	3.631921e+01
2.320000e-06	2.182790e-06	5.201513e-10	1.519751e+01	3.704939e+01
2.330000e-06	2.226195e-06	5.284378e-10	1.549972e+01	3.776202e+01
2.340000e-06	2.269497e-06	5.362935e-10	1.580120e+01	3.845715e+01
2.350000e-06	2.312638e-06	5.487232e-10	1.610157e+01	3.913487e+01
2.360000e-06	2.355580e-06	5.646397e-10	1.640055e+01	3.979532e+01
2.370000e-06	2.398179e-06	5.767137e-10	1.669714e+01	4.043867e+01
2.380000e-06	2.440414e-06	5.850385e-10	1.699120e+01	4.106514e+01
2.390000e-06	2.482316e-06	5.917269e-10	1.728294e+01	4.167497e+01
2.400000e-06	2.523829e-06	5.980424e-10	1.757197e+01	4.226843e+01
2.410000e-06	2.565058e-06	6.046593e-10	1.785902e+01	4.284583e+01
2.420000e-06	2.606056e-06	6.122666e-10	1.814447e+01	4.340749e+01
2.430000e-06	2.646726e-06	6.234854e-10	1.842763e+01	4.395374e+01
2.440000e-06	2.687103e-06	6.341642e-10	1.870876e+01	4.448495e+01
2.450000e-06	2.727272e-06	6.413734e-10	1.898843e+01	4.500149e+01
2.460000e-06	2.767204e-06	6.481291e-10	1.926645e+01	4.550374e+01
2.470000e-06	2.806960e-06	6.553381e-10	1.954325e+01	4.599207e+01
2.480000e-06	2.846634e-06	6.636442e-10	1.981948e+01	4.646688e+01
2.490000e-06	2.886227e-06	6.733978e-10	2.009514e+01	4.692854e+01
2.500000e-06	2.925768e-06	6.814961e-10	2.037044e+01	4.737744e+01
2.510000e-06	2.965208e-06	6.897461e-10	2.064504e+01	4.781396e+01
2.520000e-06	3.004421e-06	6.976291e-10	2.091805e+01	4.823846e+01
2.530000e-06	3.043476e-06	7.035400e-10	2.118997e+01	4.865129e+01
2.540000e-06	3.082292e-06	7.081907e-10	2.146023e+01	4.905279e+01
2.550000e-06	3.120798e-06	7.125704e-10	2.172833e+01	4.944329e+01
2.560000e-06	3.159064e-06	7.213028e-10	2.199475e+01	4.982311e+01
2.570000e-06	3.197057e-06	7.304142e-10	2.225927e+01	5.019252e+01
2.580000e-06	3.234809e-06	7.371753e-10	2.252212e+01	5.055182e+01
2.590000e-06	3.272425e-06	7.413380e-10	2.278402e+01	5.090126e+01
2.600000e-06	3.309865e-06	7.446190e-10	2.304469e+01	5.124107e+01
2.610000e-06	3.347090e-06	7.456838e-10	2.330387e+01	5.157148e+01
2.620000e-06	3.384143e-06	7.460556e-10	2.356185e+01	5.189269e+01
2.630000e-06	3.420884e-06	7.490191e-10	2.381765e+01	5.220489e+01
2.640000e-06	3.457259e-06	7.555865e-10	2.407091e+01	5.250823e+01
2.650000e-06	3.493380e-06	7.640103e-10	2.432240e+01	5.280288e+01
2.660000e-06	3.529344e-06	7.711186e-10	2.457279e+01	5.308897e+01
2.670000e-06	3.565199e-06	7.747732e-10	2.482243e+01	5.336663e+01
2.680000e-06	3.600897e-06	7.773645e-10	2.507098e+01	5.363596e+01
2.690000e-06	3.636439e-06	7.800805e-10	2.531844e+01	5.389707e+01
2.700000e-06	3.671829e-06	7.833948e-10	2.556484e+01	5.415006e+01
2.710000e-06	3.707075e-06	7.863874e-10	2.581023e+01	5.439500e+01
2.720000e-06	3.742083e-06	7.898142e-10	2.605398e+01	5.463198e+01
2.730000e-06	3.776712e-06	7.935565e-10	2.629507e+01	5.486108e+01
2.740000e-06	3.810857e-06	7.969652e-10	2.653281e+01	5.508238e+01
2.750000e-06	3.844550e-06	7.999426e-10	2.676739e+01	5.529594e+01
2.760000e-06	3.877802e-06	7.992748e-10	2.699891e+01	5.550186e+01
2.770000e-06	3.910564e-06	7.998745e-10	2.722701e+01	5.570020e+01
2.780000e-06	3.942954e-06	8.029520e-10	2.745252e+01	5.589106e+01
2.790000e-06	3.975037e-06	8.072953e-10	2.767590e+01	5.607453e+01
2.800000e-06	4.006912e-06	8.111190e-10	2.789782e+01	5.625071e+01
2.810000e-06	4.038642e-06	8.176013e-10	2.811874e+01	5.641970e+01
2.820000e-06	4.070170e-06	8.234882e-10	2.833826e+01	5.658163e+01
2.830000e-06	4.101538e-06	8.263936e-10	2.855666e+01	5.673662e+01
2.840000e-06	4.132722e-06	8.284830e-10	2.877377e+01	5.688480e+01
2.850000e-06	4.163627e-06	8.312277e-10	2.898895e+01	5.702633e+01
2.860000e-06	4.194188e-06	8.328810e-10	2.920172e+01	5.716135e+01
2.870000e-06	4.224431e-06	8.319776e-10	2.941229e+01	5.729003e+01
2.880000e-06	4.254376e-06	8.317825e-10	2.962078e+01	5.741255e+01
2.890000e-06	4.284019e-06	8.347825e-10	2.982716e+01	5.752908e+01
2.900000e-06	4.313415e-06	8.395009e-10	3.003183e+01	5.763983e+01
