# Temperatura_=_2.18
# Concentracion g/m^3_=_1620.0
# C_Vs_to_Am_M_A/Vsm_=_65563218390.804596
# pendiente_HvsI_1/m_=_3716.3
# ordenada_HvsI_A/m_=_1297.0
# frecuencia_Hz_=_135094.68299064387

Tiempo_(s)	Campo_(V.s)	Magnetizacion_(V.s)	Campo_(kA/m)	Magnetizacion_(A/m)
0.000000e+00	-5.523336e-06	-1.303345e-09	-3.837905e+01	-8.621810e+01
1.000000e-08	-5.523582e-06	-1.300720e-09	-3.838076e+01	-8.616826e+01
2.000000e-08	-5.523532e-06	-1.300681e-09	-3.838041e+01	-8.612013e+01
3.000000e-08	-5.523129e-06	-1.302255e-09	-3.837761e+01	-8.607378e+01
4.000000e-08	-5.522281e-06	-1.300749e-09	-3.837171e+01	-8.602926e+01
5.000000e-08	-5.520923e-06	-1.289070e-09	-3.836228e+01	-8.598657e+01
6.000000e-08	-5.519011e-06	-1.273068e-09	-3.834899e+01	-8.594569e+01
7.000000e-08	-5.516329e-06	-1.284464e-09	-3.833036e+01	-8.590657e+01
8.000000e-08	-5.513027e-06	-1.312887e-09	-3.830741e+01	-8.586913e+01
9.000000e-08	-5.509310e-06	-1.366543e-09	-3.828159e+01	-8.583326e+01
1.000000e-07	-5.505225e-06	-1.400765e-09	-3.825320e+01	-8.579881e+01
1.100000e-07	-5.500829e-06	-1.348863e-09	-3.822265e+01	-8.576561e+01
1.200000e-07	-5.496166e-06	-1.197122e-09	-3.819025e+01	-8.573346e+01
1.300000e-07	-5.491405e-06	-1.231445e-09	-3.815717e+01	-8.570212e+01
1.400000e-07	-5.486280e-06	-1.323476e-09	-3.812156e+01	-8.567136e+01
1.500000e-07	-5.480622e-06	-1.360372e-09	-3.808225e+01	-8.564090e+01
1.600000e-07	-5.474563e-06	-1.215999e-09	-3.804015e+01	-8.561043e+01
1.700000e-07	-5.468214e-06	-1.233277e-09	-3.799603e+01	-8.557964e+01
1.800000e-07	-5.461470e-06	-1.374583e-09	-3.794917e+01	-8.554821e+01
1.900000e-07	-5.454211e-06	-1.390459e-09	-3.789873e+01	-8.551577e+01
2.000000e-07	-5.446652e-06	-1.258874e-09	-3.784620e+01	-8.548197e+01
2.100000e-07	-5.438941e-06	-1.229627e-09	-3.779263e+01	-8.544644e+01
2.200000e-07	-5.431024e-06	-1.355486e-09	-3.773761e+01	-8.540880e+01
2.300000e-07	-5.422748e-06	-1.385372e-09	-3.768011e+01	-8.536866e+01
2.400000e-07	-5.413928e-06	-1.336892e-09	-3.761882e+01	-8.532564e+01
2.500000e-07	-5.404503e-06	-1.294597e-09	-3.755333e+01	-8.527935e+01
2.600000e-07	-5.394444e-06	-1.354466e-09	-3.748344e+01	-8.522941e+01
2.700000e-07	-5.383821e-06	-1.334906e-09	-3.740962e+01	-8.517543e+01
2.800000e-07	-5.372745e-06	-1.321561e-09	-3.733266e+01	-8.511705e+01
2.900000e-07	-5.361212e-06	-1.303968e-09	-3.725253e+01	-8.505391e+01
3.000000e-07	-5.349300e-06	-1.344357e-09	-3.716975e+01	-8.498564e+01
3.100000e-07	-5.337035e-06	-1.319791e-09	-3.708453e+01	-8.491192e+01
3.200000e-07	-5.324373e-06	-1.324536e-09	-3.699654e+01	-8.483243e+01
3.300000e-07	-5.311239e-06	-1.295262e-09	-3.690528e+01	-8.474686e+01
3.400000e-07	-5.297721e-06	-1.322890e-09	-3.681135e+01	-8.465493e+01
3.500000e-07	-5.283714e-06	-1.328740e-09	-3.671402e+01	-8.455637e+01
3.600000e-07	-5.269135e-06	-1.321739e-09	-3.661272e+01	-8.445096e+01
3.700000e-07	-5.254167e-06	-1.289772e-09	-3.650872e+01	-8.433846e+01
3.800000e-07	-5.238970e-06	-1.331037e-09	-3.640312e+01	-8.421870e+01
3.900000e-07	-5.223263e-06	-1.322459e-09	-3.629398e+01	-8.409150e+01
4.000000e-07	-5.206865e-06	-1.269145e-09	-3.618004e+01	-8.395672e+01
4.100000e-07	-5.190114e-06	-1.300159e-09	-3.606365e+01	-8.381425e+01
4.200000e-07	-5.173180e-06	-1.346353e-09	-3.594598e+01	-8.366400e+01
4.300000e-07	-5.155926e-06	-1.273616e-09	-3.582609e+01	-8.350591e+01
4.400000e-07	-5.138293e-06	-1.250401e-09	-3.570357e+01	-8.333994e+01
4.500000e-07	-5.120360e-06	-1.358276e-09	-3.557896e+01	-8.316609e+01
4.600000e-07	-5.102064e-06	-1.317113e-09	-3.545183e+01	-8.298436e+01
4.700000e-07	-5.083209e-06	-1.219230e-09	-3.532081e+01	-8.279481e+01
4.800000e-07	-5.063914e-06	-1.292690e-09	-3.518674e+01	-8.259748e+01
4.900000e-07	-5.044407e-06	-1.355049e-09	-3.505120e+01	-8.239248e+01
5.000000e-07	-5.024646e-06	-1.230934e-09	-3.491388e+01	-8.217991e+01
5.100000e-07	-5.004673e-06	-1.243276e-09	-3.477510e+01	-8.195989e+01
5.200000e-07	-4.984481e-06	-1.324402e-09	-3.463480e+01	-8.173257e+01
5.300000e-07	-4.963925e-06	-1.257530e-09	-3.449197e+01	-8.149812e+01
5.400000e-07	-4.942953e-06	-1.212463e-09	-3.434624e+01	-8.125672e+01
5.500000e-07	-4.921570e-06	-1.321361e-09	-3.419766e+01	-8.100855e+01
5.600000e-07	-4.899822e-06	-1.272998e-09	-3.404654e+01	-8.075383e+01
5.700000e-07	-4.877756e-06	-1.185485e-09	-3.389322e+01	-8.049278e+01
5.800000e-07	-4.855394e-06	-1.256669e-09	-3.373784e+01	-8.022560e+01
5.900000e-07	-4.832766e-06	-1.290570e-09	-3.358060e+01	-7.995254e+01
6.000000e-07	-4.809776e-06	-1.186551e-09	-3.342085e+01	-7.967384e+01
6.100000e-07	-4.786434e-06	-1.213558e-09	-3.325866e+01	-7.938973e+01
6.200000e-07	-4.762823e-06	-1.264109e-09	-3.309460e+01	-7.910045e+01
6.300000e-07	-4.738997e-06	-1.201952e-09	-3.292905e+01	-7.880624e+01
6.400000e-07	-4.714968e-06	-1.182800e-09	-3.276208e+01	-7.850734e+01
6.500000e-07	-4.690676e-06	-1.242596e-09	-3.259329e+01	-7.820398e+01
6.600000e-07	-4.665935e-06	-1.204886e-09	-3.242137e+01	-7.789640e+01
6.700000e-07	-4.640635e-06	-1.169904e-09	-3.224557e+01	-7.758482e+01
6.800000e-07	-4.614777e-06	-1.208912e-09	-3.206590e+01	-7.726944e+01
6.900000e-07	-4.588343e-06	-1.204646e-09	-3.188223e+01	-7.695048e+01
7.000000e-07	-4.561472e-06	-1.166207e-09	-3.169551e+01	-7.662812e+01
7.100000e-07	-4.534325e-06	-1.183061e-09	-3.150688e+01	-7.630256e+01
7.200000e-07	-4.506852e-06	-1.190850e-09	-3.131598e+01	-7.597395e+01
7.300000e-07	-4.479120e-06	-1.157426e-09	-3.112329e+01	-7.564246e+01
7.400000e-07	-4.451269e-06	-1.156725e-09	-3.092976e+01	-7.530823e+01
7.500000e-07	-4.423267e-06	-1.163287e-09	-3.073519e+01	-7.497138e+01
7.600000e-07	-4.394989e-06	-1.148044e-09	-3.053870e+01	-7.463203e+01
7.700000e-07	-4.366401e-06	-1.138946e-09	-3.034005e+01	-7.429027e+01
7.800000e-07	-4.337499e-06	-1.147810e-09	-3.013922e+01	-7.394619e+01
7.900000e-07	-4.308219e-06	-1.135006e-09	-2.993577e+01	-7.359985e+01
8.000000e-07	-4.278628e-06	-1.129636e-09	-2.973016e+01	-7.325130e+01
8.100000e-07	-4.248751e-06	-1.127919e-09	-2.952255e+01	-7.290058e+01
8.200000e-07	-4.218606e-06	-1.119920e-09	-2.931309e+01	-7.254770e+01
8.300000e-07	-4.188174e-06	-1.104160e-09	-2.910163e+01	-7.219268e+01
8.400000e-07	-4.157432e-06	-1.113418e-09	-2.888803e+01	-7.183550e+01
8.500000e-07	-4.126380e-06	-1.105503e-09	-2.867226e+01	-7.147614e+01
8.600000e-07	-4.095006e-06	-1.088350e-09	-2.845426e+01	-7.111457e+01
8.700000e-07	-4.063417e-06	-1.077165e-09	-2.823476e+01	-7.075074e+01
8.800000e-07	-4.031666e-06	-1.076122e-09	-2.801414e+01	-7.038459e+01
8.900000e-07	-3.999789e-06	-1.059598e-09	-2.779264e+01	-7.001605e+01
9.000000e-07	-3.967792e-06	-1.055363e-09	-2.757031e+01	-6.964506e+01
9.100000e-07	-3.935562e-06	-1.056364e-09	-2.734635e+01	-6.927151e+01
9.200000e-07	-3.902895e-06	-1.046892e-09	-2.711937e+01	-6.889533e+01
9.300000e-07	-3.869766e-06	-1.034567e-09	-2.688917e+01	-6.851641e+01
9.400000e-07	-3.836287e-06	-1.039504e-09	-2.665654e+01	-6.813465e+01
9.500000e-07	-3.802344e-06	-1.031745e-09	-2.642069e+01	-6.774995e+01
9.600000e-07	-3.767914e-06	-1.015636e-09	-2.618145e+01	-6.736219e+01
9.700000e-07	-3.733074e-06	-1.011839e-09	-2.593936e+01	-6.697127e+01
9.800000e-07	-3.697867e-06	-1.012207e-09	-2.569473e+01	-6.657708e+01
9.900000e-07	-3.662368e-06	-1.000659e-09	-2.544806e+01	-6.617950e+01
1.000000e-06	-3.626716e-06	-9.921698e-10	-2.520033e+01	-6.577842e+01
1.010000e-06	-3.591025e-06	-9.926000e-10	-2.495233e+01	-6.537375e+01
1.020000e-06	-3.555205e-06	-9.846699e-10	-2.470343e+01	-6.496538e+01
1.030000e-06	-3.519200e-06	-9.755304e-10	-2.445326e+01	-6.455321e+01
1.040000e-06	-3.483007e-06	-9.717077e-10	-2.420176e+01	-6.413714e+01
1.050000e-06	-3.446536e-06	-9.663926e-10	-2.394835e+01	-6.371710e+01
1.060000e-06	-3.409710e-06	-9.522919e-10	-2.369246e+01	-6.329299e+01
1.070000e-06	-3.372651e-06	-9.445972e-10	-2.343496e+01	-6.286475e+01
1.080000e-06	-3.335342e-06	-9.360223e-10	-2.317571e+01	-6.243231e+01
1.090000e-06	-3.297746e-06	-9.253255e-10	-2.291447e+01	-6.199561e+01
1.100000e-06	-3.259937e-06	-9.148356e-10	-2.265176e+01	-6.155459e+01
1.110000e-06	-3.221913e-06	-9.116779e-10	-2.238755e+01	-6.110921e+01
1.120000e-06	-3.183704e-06	-9.026812e-10	-2.212205e+01	-6.065943e+01
1.130000e-06	-3.145269e-06	-8.941463e-10	-2.185498e+01	-6.020522e+01
1.140000e-06	-3.106626e-06	-8.865513e-10	-2.158647e+01	-5.974656e+01
1.150000e-06	-3.067771e-06	-8.785161e-10	-2.131649e+01	-5.928343e+01
1.160000e-06	-3.028684e-06	-8.648524e-10	-2.104489e+01	-5.881583e+01
1.170000e-06	-2.989389e-06	-8.592176e-10	-2.077185e+01	-5.834373e+01
1.180000e-06	-2.949894e-06	-8.558088e-10	-2.049741e+01	-5.786715e+01
1.190000e-06	-2.910250e-06	-8.512078e-10	-2.022195e+01	-5.738608e+01
1.200000e-06	-2.870531e-06	-8.394002e-10	-1.994596e+01	-5.690052e+01
1.210000e-06	-2.830710e-06	-8.309150e-10	-1.966926e+01	-5.641050e+01
1.220000e-06	-2.790759e-06	-8.210300e-10	-1.939166e+01	-5.591600e+01
1.230000e-06	-2.750655e-06	-8.117231e-10	-1.911300e+01	-5.541704e+01
1.240000e-06	-2.710402e-06	-8.045113e-10	-1.883330e+01	-5.491362e+01
1.250000e-06	-2.670035e-06	-7.979431e-10	-1.855281e+01	-5.440574e+01
1.260000e-06	-2.629338e-06	-7.892741e-10	-1.827002e+01	-5.389339e+01
1.270000e-06	-2.588269e-06	-7.807421e-10	-1.798465e+01	-5.337657e+01
1.280000e-06	-2.547151e-06	-7.739686e-10	-1.769894e+01	-5.285525e+01
1.290000e-06	-2.505793e-06	-7.670764e-10	-1.741157e+01	-5.232941e+01
1.300000e-06	-2.464114e-06	-7.580006e-10	-1.712196e+01	-5.179901e+01
1.310000e-06	-2.422132e-06	-7.465958e-10	-1.683025e+01	-5.126400e+01
1.320000e-06	-2.379655e-06	-7.355428e-10	-1.653510e+01	-5.072431e+01
1.330000e-06	-2.336833e-06	-7.249166e-10	-1.623754e+01	-5.017986e+01
1.340000e-06	-2.293807e-06	-7.174161e-10	-1.593858e+01	-4.963055e+01
1.350000e-06	-2.250653e-06	-7.087525e-10	-1.563872e+01	-4.907628e+01
1.360000e-06	-2.207338e-06	-6.981440e-10	-1.533775e+01	-4.851691e+01
1.370000e-06	-2.163762e-06	-6.871715e-10	-1.503496e+01	-4.795228e+01
1.380000e-06	-2.120067e-06	-6.789760e-10	-1.473134e+01	-4.738223e+01
1.390000e-06	-2.076321e-06	-6.683371e-10	-1.442737e+01	-4.680656e+01
1.400000e-06	-2.032468e-06	-6.561952e-10	-1.412266e+01	-4.622505e+01
1.410000e-06	-1.988515e-06	-6.454183e-10	-1.381725e+01	-4.563746e+01
1.420000e-06	-1.944495e-06	-6.381346e-10	-1.351138e+01	-4.504352e+01
1.430000e-06	-1.900454e-06	-6.291819e-10	-1.320536e+01	-4.444296e+01
1.440000e-06	-1.856337e-06	-6.221819e-10	-1.289881e+01	-4.383546e+01
1.450000e-06	-1.812088e-06	-6.134535e-10	-1.259134e+01	-4.322068e+01
1.460000e-06	-1.767745e-06	-6.039524e-10	-1.228322e+01	-4.259827e+01
1.470000e-06	-1.723371e-06	-5.919137e-10	-1.197489e+01	-4.196786e+01
1.480000e-06	-1.678749e-06	-5.816989e-10	-1.166483e+01	-4.132904e+01
1.490000e-06	-1.633879e-06	-5.690587e-10	-1.135305e+01	-4.068139e+01
1.500000e-06	-1.588954e-06	-5.576620e-10	-1.104089e+01	-4.002447e+01
1.510000e-06	-1.543962e-06	-5.482266e-10	-1.072826e+01	-3.935783e+01
1.520000e-06	-1.498816e-06	-5.382704e-10	-1.041456e+01	-3.868099e+01
1.530000e-06	-1.453603e-06	-5.275852e-10	-1.010040e+01	-3.799347e+01
1.540000e-06	-1.408305e-06	-5.164204e-10	-9.785647e+00	-3.729477e+01
1.550000e-06	-1.362804e-06	-5.039604e-10	-9.469480e+00	-3.658437e+01
1.560000e-06	-1.317183e-06	-4.934122e-10	-9.152478e+00	-3.586177e+01
1.570000e-06	-1.271557e-06	-4.811242e-10	-8.835449e+00	-3.512645e+01
1.580000e-06	-1.225858e-06	-4.685410e-10	-8.517908e+00	-3.437788e+01
1.590000e-06	-1.180021e-06	-4.573454e-10	-8.199409e+00	-3.361555e+01
1.600000e-06	-1.134203e-06	-4.468417e-10	-7.881041e+00	-3.283894e+01
1.610000e-06	-1.088295e-06	-4.341851e-10	-7.562046e+00	-3.204755e+01
1.620000e-06	-1.042179e-06	-4.204880e-10	-7.241605e+00	-3.124087e+01
1.630000e-06	-9.960728e-07	-4.107986e-10	-6.921238e+00	-3.041844e+01
1.640000e-06	-9.499612e-07	-3.984374e-10	-6.600831e+00	-2.957979e+01
1.650000e-06	-9.037103e-07	-3.817558e-10	-6.279455e+00	-2.872447e+01
1.660000e-06	-8.573547e-07	-3.637795e-10	-5.957352e+00	-2.785208e+01
1.670000e-06	-8.109450e-07	-3.491196e-10	-5.634873e+00	-2.696223e+01
1.680000e-06	-7.646091e-07	-3.364951e-10	-5.312906e+00	-2.605457e+01
1.690000e-06	-7.182933e-07	-3.270188e-10	-4.991080e+00	-2.512877e+01
1.700000e-06	-6.717951e-07	-3.185500e-10	-4.667986e+00	-2.418457e+01
1.710000e-06	-6.252015e-07	-3.064918e-10	-4.344229e+00	-2.322173e+01
1.720000e-06	-5.785672e-07	-2.882756e-10	-4.020189e+00	-2.224005e+01
1.730000e-06	-5.319193e-07	-2.665487e-10	-3.696055e+00	-2.123940e+01
1.740000e-06	-4.852038e-07	-2.436896e-10	-3.371451e+00	-2.021970e+01
1.750000e-06	-4.383359e-07	-2.260100e-10	-3.045789e+00	-1.918089e+01
1.760000e-06	-3.914827e-07	-2.157901e-10	-2.720228e+00	-1.812301e+01
1.770000e-06	-3.446740e-07	-2.085790e-10	-2.394976e+00	-1.704613e+01
1.780000e-06	-2.978637e-07	-1.989691e-10	-2.069713e+00	-1.595039e+01
1.790000e-06	-2.509889e-07	-1.857272e-10	-1.744003e+00	-1.483598e+01
1.800000e-06	-2.040628e-07	-1.664449e-10	-1.417936e+00	-1.370318e+01
1.810000e-06	-1.571696e-07	-1.451754e-10	-1.092097e+00	-1.255231e+01
1.820000e-06	-1.103481e-07	-1.248947e-10	-7.667564e-01	-1.138375e+01
1.830000e-06	-6.361139e-08	-1.091591e-10	-4.420054e-01	-1.019796e+01
1.840000e-06	-1.687825e-08	-9.622582e-11	-1.172790e-01	-8.995443e+00
1.850000e-06	2.988817e-08	-8.398566e-11	2.076787e-01	-7.776788e+00
1.860000e-06	7.669794e-08	-7.202687e-11	5.329377e-01	-6.542631e+00
1.870000e-06	1.235917e-07	-5.638725e-11	8.587805e-01	-5.293670e+00
1.880000e-06	1.704571e-07	-3.389915e-11	1.184426e+00	-4.030663e+00
1.890000e-06	2.172657e-07	-7.198554e-12	1.509677e+00	-2.754424e+00
1.900000e-06	2.640107e-07	1.832169e-11	1.834485e+00	-1.465820e+00
1.910000e-06	3.107910e-07	3.764480e-11	2.159539e+00	-1.657708e-01
1.920000e-06	3.576452e-07	5.134782e-11	2.485107e+00	1.144759e+00
1.930000e-06	4.044601e-07	6.258013e-11	2.810402e+00	2.464758e+00
1.940000e-06	4.511983e-07	7.515302e-11	3.135163e+00	3.793177e+00
1.950000e-06	4.978098e-07	9.208789e-11	3.459044e+00	5.128926e+00
1.960000e-06	5.444387e-07	1.130860e-10	3.783047e+00	6.470887e+00
1.970000e-06	5.911494e-07	1.361679e-10	4.107617e+00	7.817912e+00
1.980000e-06	6.377100e-07	1.583101e-10	4.431145e+00	9.168831e+00
1.990000e-06	6.840966e-07	1.793522e-10	4.753463e+00	1.052245e+01
2.000000e-06	7.304334e-07	1.961343e-10	5.075435e+00	1.187758e+01
2.010000e-06	7.766950e-07	2.110826e-10	5.396885e+00	1.323300e+01
2.020000e-06	8.229188e-07	2.266523e-10	5.718073e+00	1.458750e+01
2.030000e-06	8.691244e-07	2.443015e-10	6.039134e+00	1.593986e+01
2.040000e-06	9.152992e-07	2.626686e-10	6.359981e+00	1.728889e+01
2.050000e-06	9.614420e-07	2.825576e-10	6.680605e+00	1.863339e+01
2.060000e-06	1.007540e-06	3.022590e-10	7.000921e+00	1.997218e+01
2.070000e-06	1.053550e-06	3.226031e-10	7.320619e+00	2.130412e+01
2.080000e-06	1.099455e-06	3.430492e-10	7.639589e+00	2.262807e+01
2.090000e-06	1.145252e-06	3.617917e-10	7.957814e+00	2.394295e+01
2.100000e-06	1.191007e-06	3.814311e-10	8.275741e+00	2.524770e+01
2.110000e-06	1.236711e-06	4.009467e-10	8.593322e+00	2.654129e+01
2.120000e-06	1.282246e-06	4.174782e-10	8.909720e+00	2.782275e+01
2.130000e-06	1.327635e-06	4.330428e-10	9.225104e+00	2.909117e+01
2.140000e-06	1.372940e-06	4.493443e-10	9.539909e+00	3.034565e+01
2.150000e-06	1.418173e-06	4.673748e-10	9.854215e+00	3.158538e+01
2.160000e-06	1.463305e-06	4.867854e-10	1.016781e+01	3.280960e+01
2.170000e-06	1.508343e-06	5.057023e-10	1.048076e+01	3.401759e+01
2.180000e-06	1.553275e-06	5.264311e-10	1.079297e+01	3.520872e+01
2.190000e-06	1.598109e-06	5.442895e-10	1.110450e+01	3.638239e+01
2.200000e-06	1.642844e-06	5.589854e-10	1.141535e+01	3.753808e+01
2.210000e-06	1.687438e-06	5.719755e-10	1.172521e+01	3.867534e+01
2.220000e-06	1.731894e-06	5.818901e-10	1.203411e+01	3.979377e+01
2.230000e-06	1.776255e-06	5.942565e-10	1.234235e+01	4.089305e+01
2.240000e-06	1.820490e-06	6.092537e-10	1.264972e+01	4.197289e+01
2.250000e-06	1.864565e-06	6.259291e-10	1.295598e+01	4.303311e+01
2.260000e-06	1.908533e-06	6.418714e-10	1.326149e+01	4.407355e+01
2.270000e-06	1.952411e-06	6.580087e-10	1.356638e+01	4.509413e+01
2.280000e-06	1.996240e-06	6.750627e-10	1.387092e+01	4.609481e+01
2.290000e-06	2.040067e-06	6.882830e-10	1.417546e+01	4.707564e+01
2.300000e-06	2.083873e-06	6.991308e-10	1.447985e+01	4.803668e+01
2.310000e-06	2.127636e-06	7.104198e-10	1.478393e+01	4.897807e+01
2.320000e-06	2.171344e-06	7.227054e-10	1.508764e+01	4.989997e+01
2.330000e-06	2.214864e-06	7.341624e-10	1.539004e+01	5.080262e+01
2.340000e-06	2.258212e-06	7.474289e-10	1.569125e+01	5.168626e+01
2.350000e-06	2.301378e-06	7.660330e-10	1.599119e+01	5.255118e+01
2.360000e-06	2.344296e-06	7.854197e-10	1.628940e+01	5.339772e+01
2.370000e-06	2.386978e-06	7.974916e-10	1.658598e+01	5.422623e+01
2.380000e-06	2.429328e-06	8.044623e-10	1.688025e+01	5.503708e+01
2.390000e-06	2.471283e-06	8.114177e-10	1.717177e+01	5.583068e+01
2.400000e-06	2.512877e-06	8.199785e-10	1.746079e+01	5.660743e+01
2.410000e-06	2.554224e-06	8.296801e-10	1.774809e+01	5.736776e+01
2.420000e-06	2.595329e-06	8.421309e-10	1.803371e+01	5.811211e+01
2.430000e-06	2.636134e-06	8.580255e-10	1.831724e+01	5.884093e+01
2.440000e-06	2.676675e-06	8.731377e-10	1.859895e+01	5.955464e+01
2.450000e-06	2.717023e-06	8.837625e-10	1.887931e+01	6.025369e+01
2.460000e-06	2.757242e-06	8.919383e-10	1.915877e+01	6.093853e+01
2.470000e-06	2.797317e-06	9.019828e-10	1.943723e+01	6.160956e+01
2.480000e-06	2.837220e-06	9.123192e-10	1.971450e+01	6.226722e+01
2.490000e-06	2.877020e-06	9.220797e-10	1.999105e+01	6.291190e+01
2.500000e-06	2.916729e-06	9.333464e-10	2.026697e+01	6.354399e+01
2.510000e-06	2.956333e-06	9.463268e-10	2.054216e+01	6.416386e+01
2.520000e-06	2.995786e-06	9.617776e-10	2.081630e+01	6.477186e+01
2.530000e-06	3.034929e-06	9.729603e-10	2.108828e+01	6.536832e+01
2.540000e-06	3.073769e-06	9.794205e-10	2.135817e+01	6.595355e+01
2.550000e-06	3.112398e-06	9.832402e-10	2.162658e+01	6.652784e+01
2.560000e-06	3.150791e-06	9.864246e-10	2.189335e+01	6.709145e+01
2.570000e-06	3.188925e-06	9.941346e-10	2.215833e+01	6.764462e+01
2.580000e-06	3.226855e-06	1.003969e-09	2.242189e+01	6.818756e+01
2.590000e-06	3.264648e-06	1.013852e-09	2.268449e+01	6.872048e+01
2.600000e-06	3.302291e-06	1.024691e-09	2.294606e+01	6.924354e+01
2.610000e-06	3.339745e-06	1.033222e-09	2.320631e+01	6.975689e+01
2.620000e-06	3.376987e-06	1.038158e-09	2.346508e+01	7.026067e+01
2.630000e-06	3.413961e-06	1.041886e-09	2.372200e+01	7.075499e+01
2.640000e-06	3.450599e-06	1.046117e-09	2.397658e+01	7.123994e+01
2.650000e-06	3.487038e-06	1.052060e-09	2.422978e+01	7.171560e+01
2.660000e-06	3.523299e-06	1.057933e-09	2.448174e+01	7.218204e+01
2.670000e-06	3.559304e-06	1.065685e-09	2.473192e+01	7.263931e+01
2.680000e-06	3.595133e-06	1.074140e-09	2.498088e+01	7.308745e+01
2.690000e-06	3.630871e-06	1.081417e-09	2.522920e+01	7.352650e+01
2.700000e-06	3.666525e-06	1.086452e-09	2.547695e+01	7.395649e+01
2.710000e-06	3.702037e-06	1.091546e-09	2.572370e+01	7.437744e+01
2.720000e-06	3.737239e-06	1.097520e-09	2.596831e+01	7.478937e+01
2.730000e-06	3.772073e-06	1.103680e-09	2.621035e+01	7.519231e+01
2.740000e-06	3.806589e-06	1.109017e-09	2.645018e+01	7.558629e+01
2.750000e-06	3.840675e-06	1.112755e-09	2.668703e+01	7.597132e+01
2.760000e-06	3.874154e-06	1.115128e-09	2.691966e+01	7.634744e+01
2.770000e-06	3.907091e-06	1.117448e-09	2.714852e+01	7.671471e+01
2.780000e-06	3.939671e-06	1.120738e-09	2.737490e+01	7.707315e+01
2.790000e-06	3.971927e-06	1.127460e-09	2.759904e+01	7.742285e+01
2.800000e-06	4.003938e-06	1.135888e-09	2.782147e+01	7.776385e+01
2.810000e-06	4.035803e-06	1.142125e-09	2.804289e+01	7.809626e+01
2.820000e-06	4.067541e-06	1.146330e-09	2.826342e+01	7.842015e+01
2.830000e-06	4.099140e-06	1.149240e-09	2.848298e+01	7.873565e+01
2.840000e-06	4.130549e-06	1.152719e-09	2.870123e+01	7.904286e+01
2.850000e-06	4.161683e-06	1.158219e-09	2.891757e+01	7.934193e+01
2.860000e-06	4.192473e-06	1.164332e-09	2.913151e+01	7.963300e+01
2.870000e-06	4.222851e-06	1.169945e-09	2.934259e+01	7.991623e+01
2.880000e-06	4.252905e-06	1.177372e-09	2.955142e+01	8.019179e+01
2.890000e-06	4.282707e-06	1.185401e-09	2.975850e+01	8.045987e+01
2.900000e-06	4.312221e-06	1.192877e-09	2.996358e+01	8.072066e+01
2.910000e-06	4.341511e-06	1.199089e-09	3.016711e+01	8.097436e+01
