# Temperatura_=_7.53
# Concentracion g/m^3_=_1620.0
# C_Vs_to_Am_M_A/Vsm_=_65563218390.804596
# pendiente_HvsI_1/m_=_3716.3
# ordenada_HvsI_A/m_=_1297.0
# frecuencia_Hz_=_135091.5433691318

Tiempo_(s)	Campo_(V.s)	Magnetizacion_(V.s)	Campo_(kA/m)	Magnetizacion_(A/m)
0.000000e+00	-5.518992e-06	-1.273254e-09	-3.837163e+01	-8.494162e+01
1.000000e-08	-5.519253e-06	-1.272782e-09	-3.837344e+01	-8.488607e+01
2.000000e-08	-5.519161e-06	-1.271689e-09	-3.837280e+01	-8.483042e+01
3.000000e-08	-5.518641e-06	-1.270545e-09	-3.836918e+01	-8.477478e+01
4.000000e-08	-5.517647e-06	-1.264331e-09	-3.836227e+01	-8.471928e+01
5.000000e-08	-5.515932e-06	-1.248273e-09	-3.835035e+01	-8.466400e+01
6.000000e-08	-5.513555e-06	-1.238704e-09	-3.833382e+01	-8.460902e+01
7.000000e-08	-5.510748e-06	-1.255243e-09	-3.831431e+01	-8.455440e+01
8.000000e-08	-5.507476e-06	-1.293106e-09	-3.829155e+01	-8.450018e+01
9.000000e-08	-5.503732e-06	-1.362591e-09	-3.826553e+01	-8.444636e+01
1.000000e-07	-5.499561e-06	-1.364256e-09	-3.823653e+01	-8.439294e+01
1.100000e-07	-5.495124e-06	-1.214942e-09	-3.820568e+01	-8.433990e+01
1.200000e-07	-5.490673e-06	-1.154045e-09	-3.817473e+01	-8.428717e+01
1.300000e-07	-5.485951e-06	-1.251039e-09	-3.814190e+01	-8.423468e+01
1.400000e-07	-5.480643e-06	-1.339857e-09	-3.810500e+01	-8.418234e+01
1.500000e-07	-5.474942e-06	-1.252858e-09	-3.806536e+01	-8.413002e+01
1.600000e-07	-5.469056e-06	-1.153770e-09	-3.802443e+01	-8.407758e+01
1.700000e-07	-5.462811e-06	-1.271099e-09	-3.798102e+01	-8.402485e+01
1.800000e-07	-5.455983e-06	-1.342674e-09	-3.793355e+01	-8.397165e+01
1.900000e-07	-5.448750e-06	-1.257558e-09	-3.788326e+01	-8.391776e+01
2.000000e-07	-5.441271e-06	-1.145423e-09	-3.783126e+01	-8.386295e+01
2.100000e-07	-5.433483e-06	-1.244470e-09	-3.777711e+01	-8.380698e+01
2.200000e-07	-5.425347e-06	-1.342886e-09	-3.772054e+01	-8.374959e+01
2.300000e-07	-5.416987e-06	-1.313779e-09	-3.766242e+01	-8.369049e+01
2.400000e-07	-5.408148e-06	-1.231178e-09	-3.760096e+01	-8.362939e+01
2.500000e-07	-5.398445e-06	-1.262305e-09	-3.753351e+01	-8.356597e+01
2.600000e-07	-5.387983e-06	-1.296897e-09	-3.746077e+01	-8.349993e+01
2.700000e-07	-5.377056e-06	-1.272778e-09	-3.738479e+01	-8.343093e+01
2.800000e-07	-5.365745e-06	-1.254442e-09	-3.730615e+01	-8.335865e+01
2.900000e-07	-5.354109e-06	-1.290842e-09	-3.722525e+01	-8.328273e+01
3.000000e-07	-5.342171e-06	-1.310373e-09	-3.714225e+01	-8.320284e+01
3.100000e-07	-5.329790e-06	-1.274360e-09	-3.705617e+01	-8.311865e+01
3.200000e-07	-5.316956e-06	-1.263437e-09	-3.696694e+01	-8.302980e+01
3.300000e-07	-5.303738e-06	-1.269376e-09	-3.687504e+01	-8.293598e+01
3.400000e-07	-5.290208e-06	-1.296582e-09	-3.678097e+01	-8.283685e+01
3.500000e-07	-5.276297e-06	-1.272089e-09	-3.668425e+01	-8.273209e+01
3.600000e-07	-5.261738e-06	-1.260725e-09	-3.658303e+01	-8.262141e+01
3.700000e-07	-5.246644e-06	-1.276672e-09	-3.647808e+01	-8.250451e+01
3.800000e-07	-5.231140e-06	-1.294184e-09	-3.637029e+01	-8.238112e+01
3.900000e-07	-5.215071e-06	-1.231878e-09	-3.625857e+01	-8.225098e+01
4.000000e-07	-5.198561e-06	-1.239338e-09	-3.614378e+01	-8.211387e+01
4.100000e-07	-5.181836e-06	-1.291077e-09	-3.602750e+01	-8.196957e+01
4.200000e-07	-5.164844e-06	-1.260130e-09	-3.590936e+01	-8.181789e+01
4.300000e-07	-5.147384e-06	-1.197820e-09	-3.578796e+01	-8.165867e+01
4.400000e-07	-5.129521e-06	-1.281486e-09	-3.566377e+01	-8.149179e+01
4.500000e-07	-5.111362e-06	-1.301793e-09	-3.553751e+01	-8.131713e+01
4.600000e-07	-5.092782e-06	-1.195858e-09	-3.540834e+01	-8.113462e+01
4.700000e-07	-5.073801e-06	-1.201385e-09	-3.527636e+01	-8.094421e+01
4.800000e-07	-5.054612e-06	-1.300303e-09	-3.514295e+01	-8.074590e+01
4.900000e-07	-5.035205e-06	-1.237411e-09	-3.500802e+01	-8.053969e+01
5.000000e-07	-5.015596e-06	-1.182616e-09	-3.487169e+01	-8.032564e+01
5.100000e-07	-4.995741e-06	-1.260308e-09	-3.473364e+01	-8.010382e+01
5.200000e-07	-4.975531e-06	-1.246178e-09	-3.459313e+01	-7.987434e+01
5.300000e-07	-4.954866e-06	-1.166933e-09	-3.444945e+01	-7.963735e+01
5.400000e-07	-4.933792e-06	-1.235585e-09	-3.430294e+01	-7.939301e+01
5.500000e-07	-4.912461e-06	-1.264362e-09	-3.415463e+01	-7.914151e+01
5.600000e-07	-4.890755e-06	-1.159675e-09	-3.400371e+01	-7.888308e+01
5.700000e-07	-4.868621e-06	-1.175791e-09	-3.384982e+01	-7.861797e+01
5.800000e-07	-4.846266e-06	-1.253810e-09	-3.369439e+01	-7.834643e+01
5.900000e-07	-4.823574e-06	-1.193920e-09	-3.353663e+01	-7.806876e+01
6.000000e-07	-4.800621e-06	-1.155065e-09	-3.337704e+01	-7.778526e+01
6.100000e-07	-4.777394e-06	-1.222170e-09	-3.321555e+01	-7.749626e+01
6.200000e-07	-4.753848e-06	-1.196590e-09	-3.305185e+01	-7.720209e+01
6.300000e-07	-4.730152e-06	-1.144835e-09	-3.288710e+01	-7.690310e+01
6.400000e-07	-4.706143e-06	-1.181479e-09	-3.272017e+01	-7.659962e+01
6.500000e-07	-4.681746e-06	-1.191722e-09	-3.255055e+01	-7.629203e+01
6.600000e-07	-4.656769e-06	-1.138154e-09	-3.237689e+01	-7.598068e+01
6.700000e-07	-4.631296e-06	-1.153720e-09	-3.219978e+01	-7.566592e+01
6.800000e-07	-4.605255e-06	-1.172156e-09	-3.201873e+01	-7.534810e+01
6.900000e-07	-4.578568e-06	-1.140229e-09	-3.183319e+01	-7.502756e+01
7.000000e-07	-4.551521e-06	-1.130187e-09	-3.164513e+01	-7.470464e+01
7.100000e-07	-4.524259e-06	-1.153361e-09	-3.145559e+01	-7.437966e+01
7.200000e-07	-4.496828e-06	-1.136240e-09	-3.126487e+01	-7.405291e+01
7.300000e-07	-4.469203e-06	-1.124061e-09	-3.107281e+01	-7.372467e+01
7.400000e-07	-4.441415e-06	-1.128084e-09	-3.087961e+01	-7.339521e+01
7.500000e-07	-4.413352e-06	-1.120215e-09	-3.068449e+01	-7.306476e+01
7.600000e-07	-4.384853e-06	-1.102565e-09	-3.048635e+01	-7.273352e+01
7.700000e-07	-4.356097e-06	-1.102993e-09	-3.028642e+01	-7.240169e+01
7.800000e-07	-4.327112e-06	-1.097555e-09	-3.008490e+01	-7.206942e+01
7.900000e-07	-4.297875e-06	-1.092884e-09	-2.988163e+01	-7.173681e+01
8.000000e-07	-4.268326e-06	-1.093424e-09	-2.967618e+01	-7.140397e+01
8.100000e-07	-4.238463e-06	-1.085907e-09	-2.946855e+01	-7.107094e+01
8.200000e-07	-4.208368e-06	-1.069863e-09	-2.925931e+01	-7.073775e+01
8.300000e-07	-4.177865e-06	-1.065316e-09	-2.904724e+01	-7.040439e+01
8.400000e-07	-4.146905e-06	-1.064332e-09	-2.883198e+01	-7.007080e+01
8.500000e-07	-4.115711e-06	-1.050622e-09	-2.861510e+01	-6.973692e+01
8.600000e-07	-4.084408e-06	-1.043558e-09	-2.839746e+01	-6.940262e+01
8.700000e-07	-4.052937e-06	-1.042631e-09	-2.817865e+01	-6.906777e+01
8.800000e-07	-4.021273e-06	-1.033077e-09	-2.795851e+01	-6.873219e+01
8.900000e-07	-3.989448e-06	-1.021779e-09	-2.773724e+01	-6.839567e+01
9.000000e-07	-3.957371e-06	-1.021076e-09	-2.751422e+01	-6.805799e+01
9.100000e-07	-3.924931e-06	-1.012380e-09	-2.728867e+01	-6.771890e+01
9.200000e-07	-3.892087e-06	-9.989841e-10	-2.706032e+01	-6.737811e+01
9.300000e-07	-3.858780e-06	-9.957138e-10	-2.682875e+01	-6.703532e+01
9.400000e-07	-3.824938e-06	-9.952167e-10	-2.659346e+01	-6.669023e+01
9.500000e-07	-3.790655e-06	-9.806468e-10	-2.635510e+01	-6.634251e+01
9.600000e-07	-3.756129e-06	-9.714945e-10	-2.611505e+01	-6.599181e+01
9.700000e-07	-3.721281e-06	-9.670819e-10	-2.587277e+01	-6.563779e+01
9.800000e-07	-3.686146e-06	-9.594279e-10	-2.562848e+01	-6.528009e+01
9.900000e-07	-3.650798e-06	-9.503719e-10	-2.538273e+01	-6.491836e+01
1.000000e-06	-3.615285e-06	-9.517598e-10	-2.513582e+01	-6.455225e+01
1.010000e-06	-3.579617e-06	-9.466853e-10	-2.488783e+01	-6.418141e+01
1.020000e-06	-3.543761e-06	-9.384209e-10	-2.463853e+01	-6.380549e+01
1.030000e-06	-3.507756e-06	-9.326125e-10	-2.438820e+01	-6.342418e+01
1.040000e-06	-3.471519e-06	-9.288024e-10	-2.413626e+01	-6.303714e+01
1.050000e-06	-3.434945e-06	-9.169808e-10	-2.388197e+01	-6.264409e+01
1.060000e-06	-3.398050e-06	-9.084120e-10	-2.362545e+01	-6.224475e+01
1.070000e-06	-3.360924e-06	-9.024798e-10	-2.336733e+01	-6.183886e+01
1.080000e-06	-3.323615e-06	-8.912259e-10	-2.310793e+01	-6.142619e+01
1.090000e-06	-3.286089e-06	-8.792170e-10	-2.284703e+01	-6.100652e+01
1.100000e-06	-3.248311e-06	-8.753883e-10	-2.258437e+01	-6.057969e+01
1.110000e-06	-3.210277e-06	-8.714928e-10	-2.231994e+01	-6.014554e+01
1.120000e-06	-3.172059e-06	-8.633624e-10	-2.205422e+01	-5.970396e+01
1.130000e-06	-3.133646e-06	-8.543385e-10	-2.178714e+01	-5.925484e+01
1.140000e-06	-3.095022e-06	-8.448244e-10	-2.151861e+01	-5.879815e+01
1.150000e-06	-3.056199e-06	-8.331130e-10	-2.124868e+01	-5.833384e+01
1.160000e-06	-3.017135e-06	-8.238755e-10	-2.097708e+01	-5.786192e+01
1.170000e-06	-2.977846e-06	-8.208372e-10	-2.070392e+01	-5.738243e+01
1.180000e-06	-2.938445e-06	-8.156044e-10	-2.042998e+01	-5.689543e+01
1.190000e-06	-2.899033e-06	-8.080438e-10	-2.015596e+01	-5.640102e+01
1.200000e-06	-2.859503e-06	-8.012582e-10	-1.988113e+01	-5.589929e+01
1.210000e-06	-2.819772e-06	-7.961107e-10	-1.960489e+01	-5.539041e+01
1.220000e-06	-2.779773e-06	-7.864204e-10	-1.932679e+01	-5.487452e+01
1.230000e-06	-2.739635e-06	-7.798133e-10	-1.904773e+01	-5.435182e+01
1.240000e-06	-2.699363e-06	-7.727734e-10	-1.876773e+01	-5.382248e+01
1.250000e-06	-2.658862e-06	-7.617846e-10	-1.848614e+01	-5.328674e+01
1.260000e-06	-2.618092e-06	-7.499325e-10	-1.820268e+01	-5.274479e+01
1.270000e-06	-2.576907e-06	-7.399171e-10	-1.791633e+01	-5.219687e+01
1.280000e-06	-2.535436e-06	-7.320102e-10	-1.762800e+01	-5.164320e+01
1.290000e-06	-2.493618e-06	-7.257248e-10	-1.733725e+01	-5.108402e+01
1.300000e-06	-2.451425e-06	-7.187670e-10	-1.704390e+01	-5.051953e+01
1.310000e-06	-2.409077e-06	-7.108993e-10	-1.674947e+01	-4.994995e+01
1.320000e-06	-2.366547e-06	-6.997591e-10	-1.645377e+01	-4.937548e+01
1.330000e-06	-2.323780e-06	-6.881504e-10	-1.615643e+01	-4.879630e+01
1.340000e-06	-2.280812e-06	-6.777020e-10	-1.585769e+01	-4.821257e+01
1.350000e-06	-2.237672e-06	-6.674331e-10	-1.555775e+01	-4.762444e+01
1.360000e-06	-2.194408e-06	-6.553362e-10	-1.525695e+01	-4.703201e+01
1.370000e-06	-2.150981e-06	-6.479170e-10	-1.495502e+01	-4.643536e+01
1.380000e-06	-2.107411e-06	-6.428943e-10	-1.465209e+01	-4.583455e+01
1.390000e-06	-2.063768e-06	-6.348888e-10	-1.434866e+01	-4.522958e+01
1.400000e-06	-2.020082e-06	-6.242412e-10	-1.404492e+01	-4.462043e+01
1.410000e-06	-1.976364e-06	-6.126482e-10	-1.374097e+01	-4.400703e+01
1.420000e-06	-1.932578e-06	-6.001939e-10	-1.343654e+01	-4.338929e+01
1.430000e-06	-1.888614e-06	-5.889833e-10	-1.313088e+01	-4.276705e+01
1.440000e-06	-1.844454e-06	-5.777698e-10	-1.282384e+01	-4.214011e+01
1.450000e-06	-1.800241e-06	-5.677934e-10	-1.251645e+01	-4.150825e+01
1.460000e-06	-1.755940e-06	-5.570460e-10	-1.220843e+01	-4.087118e+01
1.470000e-06	-1.711457e-06	-5.441394e-10	-1.189917e+01	-4.022857e+01
1.480000e-06	-1.666822e-06	-5.319789e-10	-1.158883e+01	-3.958006e+01
1.490000e-06	-1.622029e-06	-5.207310e-10	-1.127740e+01	-3.892525e+01
1.500000e-06	-1.577120e-06	-5.127618e-10	-1.096517e+01	-3.826367e+01
1.510000e-06	-1.532141e-06	-5.075947e-10	-1.065244e+01	-3.759486e+01
1.520000e-06	-1.486994e-06	-4.986514e-10	-1.033855e+01	-3.691828e+01
1.530000e-06	-1.441746e-06	-4.874316e-10	-1.002396e+01	-3.623339e+01
1.540000e-06	-1.396493e-06	-4.760400e-10	-9.709331e+00	-3.553961e+01
1.550000e-06	-1.351132e-06	-4.601298e-10	-9.393952e+00	-3.483632e+01
1.560000e-06	-1.305676e-06	-4.445505e-10	-9.077907e+00	-3.412291e+01
1.570000e-06	-1.260162e-06	-4.287506e-10	-8.761466e+00	-3.339873e+01
1.580000e-06	-1.214545e-06	-4.162775e-10	-8.444304e+00	-3.266312e+01
1.590000e-06	-1.168806e-06	-4.072936e-10	-8.126297e+00	-3.191543e+01
1.600000e-06	-1.123060e-06	-3.977226e-10	-7.808242e+00	-3.115499e+01
1.610000e-06	-1.077204e-06	-3.857682e-10	-7.489423e+00	-3.038114e+01
1.620000e-06	-1.031197e-06	-3.750498e-10	-7.169550e+00	-2.959323e+01
1.630000e-06	-9.851467e-07	-3.653015e-10	-6.849381e+00	-2.879063e+01
1.640000e-06	-9.390663e-07	-3.529223e-10	-6.529000e+00	-2.797270e+01
1.650000e-06	-8.929024e-07	-3.367862e-10	-6.208039e+00	-2.713887e+01
1.660000e-06	-8.465927e-07	-3.203911e-10	-5.886064e+00	-2.628855e+01
1.670000e-06	-8.002417e-07	-3.057411e-10	-5.563801e+00	-2.542124e+01
1.680000e-06	-7.539227e-07	-2.918464e-10	-5.241762e+00	-2.453642e+01
1.690000e-06	-7.075235e-07	-2.824805e-10	-4.919164e+00	-2.363367e+01
1.700000e-06	-6.610372e-07	-2.722845e-10	-4.595961e+00	-2.271259e+01
1.710000e-06	-6.145735e-07	-2.574665e-10	-4.272915e+00	-2.177283e+01
1.720000e-06	-5.680583e-07	-2.402630e-10	-3.949511e+00	-2.081412e+01
1.730000e-06	-5.215220e-07	-2.175828e-10	-3.625960e+00	-1.983622e+01
1.740000e-06	-4.748808e-07	-1.985142e-10	-3.301681e+00	-1.883899e+01
1.750000e-06	-4.281442e-07	-1.855685e-10	-2.976737e+00	-1.782233e+01
1.760000e-06	-3.813739e-07	-1.770487e-10	-2.651559e+00	-1.678622e+01
1.770000e-06	-3.345549e-07	-1.627823e-10	-2.326043e+00	-1.573072e+01
1.780000e-06	-2.877860e-07	-1.470057e-10	-2.000876e+00	-1.465596e+01
1.790000e-06	-2.409683e-07	-1.310877e-10	-1.675369e+00	-1.356213e+01
1.800000e-06	-1.941449e-07	-1.103198e-10	-1.349821e+00	-1.244952e+01
1.810000e-06	-1.473378e-07	-9.224210e-11	-1.024388e+00	-1.131847e+01
1.820000e-06	-1.005432e-07	-8.183831e-11	-6.990421e-01	-1.016941e+01
1.830000e-06	-5.373651e-08	-7.633726e-11	-3.736112e-01	-9.002841e+00
1.840000e-06	-6.937777e-09	-6.598706e-11	-4.823594e-02	-7.819339e+00
1.850000e-06	3.980519e-08	-5.024632e-11	2.767516e-01	-6.619548e+00
1.860000e-06	8.666314e-08	-3.139369e-11	6.025386e-01	-5.404180e+00
1.870000e-06	1.335478e-07	-6.587409e-12	9.285116e-01	-4.174014e+00
1.880000e-06	1.803972e-07	1.942643e-11	1.254239e+00	-2.929892e+00
1.890000e-06	2.272334e-07	3.984134e-11	1.579874e+00	-1.672713e+00
1.900000e-06	2.740191e-07	5.601615e-11	1.905159e+00	-4.034327e-01
1.910000e-06	3.208081e-07	6.804943e-11	2.230467e+00	8.769442e-01
1.920000e-06	3.676682e-07	8.051674e-11	2.556268e+00	2.167366e+00
1.930000e-06	4.145036e-07	9.364735e-11	2.881898e+00	3.466740e+00
1.940000e-06	4.611904e-07	1.141214e-10	3.206496e+00	4.773937e+00
1.950000e-06	5.078637e-07	1.367430e-10	3.530999e+00	6.087799e+00
1.960000e-06	5.544919e-07	1.594604e-10	3.855189e+00	7.407140e+00
1.970000e-06	6.010355e-07	1.813758e-10	4.178790e+00	8.730757e+00
1.980000e-06	6.475656e-07	1.997185e-10	4.502297e+00	1.005743e+01
1.990000e-06	6.940249e-07	2.142773e-10	4.825313e+00	1.138593e+01
2.000000e-06	7.404246e-07	2.238954e-10	5.147914e+00	1.271504e+01
2.010000e-06	7.867703e-07	2.365255e-10	5.470139e+00	1.404352e+01
2.020000e-06	8.330160e-07	2.563266e-10	5.791670e+00	1.537015e+01
2.030000e-06	8.791407e-07	2.806395e-10	6.112358e+00	1.669374e+01
2.040000e-06	9.251955e-07	3.059155e-10	6.432561e+00	1.801308e+01
2.050000e-06	9.712706e-07	3.286246e-10	6.752906e+00	1.932704e+01
2.060000e-06	1.017311e-06	3.475291e-10	7.073011e+00	2.063446e+01
2.070000e-06	1.063225e-06	3.632203e-10	7.392233e+00	2.193425e+01
2.080000e-06	1.109064e-06	3.787435e-10	7.710937e+00	2.322534e+01
2.090000e-06	1.154839e-06	3.945937e-10	8.029192e+00	2.450672e+01
2.100000e-06	1.200576e-06	4.120769e-10	8.347188e+00	2.577741e+01
2.110000e-06	1.246258e-06	4.309444e-10	8.664794e+00	2.703647e+01
2.120000e-06	1.291808e-06	4.490344e-10	8.981492e+00	2.828304e+01
2.130000e-06	1.337214e-06	4.664633e-10	9.297180e+00	2.951627e+01
2.140000e-06	1.382514e-06	4.839067e-10	9.612137e+00	3.073540e+01
2.150000e-06	1.427675e-06	5.009034e-10	9.926129e+00	3.193973e+01
2.160000e-06	1.472788e-06	5.159528e-10	1.023978e+01	3.312858e+01
2.170000e-06	1.517839e-06	5.301779e-10	1.055301e+01	3.430137e+01
2.180000e-06	1.562732e-06	5.477719e-10	1.086513e+01	3.545756e+01
2.190000e-06	1.607472e-06	5.672427e-10	1.117619e+01	3.659667e+01
2.200000e-06	1.652105e-06	5.856204e-10	1.148651e+01	3.771827e+01
2.210000e-06	1.696678e-06	6.013933e-10	1.179641e+01	3.882201e+01
2.220000e-06	1.741114e-06	6.155725e-10	1.210536e+01	3.990759e+01
2.230000e-06	1.785427e-06	6.300093e-10	1.241345e+01	4.097475e+01
2.240000e-06	1.829632e-06	6.404866e-10	1.272079e+01	4.202330e+01
2.250000e-06	1.873644e-06	6.520020e-10	1.302679e+01	4.305310e+01
2.260000e-06	1.917516e-06	6.643026e-10	1.333182e+01	4.406406e+01
2.270000e-06	1.961360e-06	6.833966e-10	1.363665e+01	4.505614e+01
2.280000e-06	2.005105e-06	7.031396e-10	1.394079e+01	4.602935e+01
2.290000e-06	2.048775e-06	7.191802e-10	1.424442e+01	4.698371e+01
2.300000e-06	2.092411e-06	7.316714e-10	1.454780e+01	4.791933e+01
2.310000e-06	2.135960e-06	7.404720e-10	1.485058e+01	4.883631e+01
2.320000e-06	2.179427e-06	7.503306e-10	1.515280e+01	4.973482e+01
2.330000e-06	2.222825e-06	7.603496e-10	1.545453e+01	5.061505e+01
2.340000e-06	2.266089e-06	7.721846e-10	1.575532e+01	5.147719e+01
2.350000e-06	2.309225e-06	7.887052e-10	1.605523e+01	5.232150e+01
2.360000e-06	2.352137e-06	8.086117e-10	1.635358e+01	5.314823e+01
2.370000e-06	2.394724e-06	8.246102e-10	1.664968e+01	5.395766e+01
2.380000e-06	2.436956e-06	8.358148e-10	1.694331e+01	5.475007e+01
2.390000e-06	2.478850e-06	8.435970e-10	1.723458e+01	5.552577e+01
2.400000e-06	2.520555e-06	8.500665e-10	1.752454e+01	5.628507e+01
2.410000e-06	2.562019e-06	8.565789e-10	1.781282e+01	5.702829e+01
2.420000e-06	2.603189e-06	8.665663e-10	1.809906e+01	5.775575e+01
2.430000e-06	2.644048e-06	8.798224e-10	1.838315e+01	5.846778e+01
2.440000e-06	2.684621e-06	8.925915e-10	1.866524e+01	5.916470e+01
2.450000e-06	2.724935e-06	9.030924e-10	1.894553e+01	5.984683e+01
2.460000e-06	2.764993e-06	9.123956e-10	1.922403e+01	6.051449e+01
2.470000e-06	2.804931e-06	9.251100e-10	1.950171e+01	6.116799e+01
2.480000e-06	2.844777e-06	9.355210e-10	1.977874e+01	6.180764e+01
2.490000e-06	2.884409e-06	9.422293e-10	2.005429e+01	6.243373e+01
2.500000e-06	2.923874e-06	9.477654e-10	2.032867e+01	6.304655e+01
2.510000e-06	2.963219e-06	9.534073e-10	2.060223e+01	6.364637e+01
2.520000e-06	3.002460e-06	9.637155e-10	2.087506e+01	6.423347e+01
2.530000e-06	3.041550e-06	9.717669e-10	2.114684e+01	6.480811e+01
2.540000e-06	3.080412e-06	9.794669e-10	2.141703e+01	6.537052e+01
2.550000e-06	3.119036e-06	9.868962e-10	2.168557e+01	6.592094e+01
2.560000e-06	3.157396e-06	9.932539e-10	2.195227e+01	6.645960e+01
2.570000e-06	3.195575e-06	9.954259e-10	2.221771e+01	6.698671e+01
2.580000e-06	3.233572e-06	9.969536e-10	2.248190e+01	6.750247e+01
2.590000e-06	3.271384e-06	1.002439e-09	2.274479e+01	6.800708e+01
2.600000e-06	3.308995e-06	1.011163e-09	2.300629e+01	6.850072e+01
2.610000e-06	3.346291e-06	1.017740e-09	2.326559e+01	6.898358e+01
2.620000e-06	3.383370e-06	1.020399e-09	2.352339e+01	6.945582e+01
2.630000e-06	3.420185e-06	1.023957e-09	2.377935e+01	6.991762e+01
2.640000e-06	3.456654e-06	1.027783e-09	2.403291e+01	7.036911e+01
2.650000e-06	3.492869e-06	1.032465e-09	2.428470e+01	7.081047e+01
2.660000e-06	3.528899e-06	1.039477e-09	2.453520e+01	7.124185e+01
2.670000e-06	3.564799e-06	1.044031e-09	2.478480e+01	7.166339e+01
2.680000e-06	3.600527e-06	1.051120e-09	2.503321e+01	7.207524e+01
2.690000e-06	3.636091e-06	1.061789e-09	2.528047e+01	7.247756e+01
2.700000e-06	3.671521e-06	1.069186e-09	2.552681e+01	7.287048e+01
2.710000e-06	3.706825e-06	1.070765e-09	2.577226e+01	7.325415e+01
2.720000e-06	3.741895e-06	1.070905e-09	2.601609e+01	7.362873e+01
2.730000e-06	3.776686e-06	1.072844e-09	2.625798e+01	7.399437e+01
2.740000e-06	3.811086e-06	1.075661e-09	2.649715e+01	7.435122e+01
2.750000e-06	3.844975e-06	1.080096e-09	2.673277e+01	7.469945e+01
2.760000e-06	3.878406e-06	1.085264e-09	2.696520e+01	7.503921e+01
2.770000e-06	3.911268e-06	1.093537e-09	2.719368e+01	7.537068e+01
2.780000e-06	3.943705e-06	1.103475e-09	2.741920e+01	7.569402e+01
2.790000e-06	3.975907e-06	1.113664e-09	2.764309e+01	7.600941e+01
2.800000e-06	4.007821e-06	1.119333e-09	2.786498e+01	7.631703e+01
2.810000e-06	4.039519e-06	1.120424e-09	2.808537e+01	7.661706e+01
2.820000e-06	4.071074e-06	1.119439e-09	2.830476e+01	7.690969e+01
2.830000e-06	4.102456e-06	1.118436e-09	2.852294e+01	7.719511e+01
2.840000e-06	4.133638e-06	1.120866e-09	2.873974e+01	7.747351e+01
2.850000e-06	4.164525e-06	1.130655e-09	2.895449e+01	7.774510e+01
2.860000e-06	4.195050e-06	1.142388e-09	2.916672e+01	7.801007e+01
2.870000e-06	4.225303e-06	1.150324e-09	2.937706e+01	7.826861e+01
2.880000e-06	4.255237e-06	1.154124e-09	2.958518e+01	7.852094e+01
2.890000e-06	4.284933e-06	1.156671e-09	2.979164e+01	7.876725e+01
2.900000e-06	4.314392e-06	1.157492e-09	2.999646e+01	7.900774e+01
2.910000e-06	4.343479e-06	1.159117e-09	3.019869e+01	7.924260e+01
