# Temperatura_=_-1.1
# Concentracion g/m^3_=_1620.0
# C_Vs_to_Am_M_A/Vsm_=_65563218390.804596
# pendiente_HvsI_1/m_=_3716.3
# ordenada_HvsI_A/m_=_1297.0
# frecuencia_Hz_=_135103.76980892936

Tiempo_(s)	Campo_(V.s)	Magnetizacion_(V.s)	Campo_(kA/m)	Magnetizacion_(A/m)
0.000000e+00	-5.504696e-06	-1.078376e-09	-3.836119e+01	-7.217409e+01
1.000000e-08	-5.504965e-06	-1.075473e-09	-3.836306e+01	-7.212921e+01
2.000000e-08	-5.504997e-06	-1.079787e-09	-3.836329e+01	-7.208473e+01
3.000000e-08	-5.504611e-06	-1.084252e-09	-3.836060e+01	-7.204061e+01
4.000000e-08	-5.503690e-06	-1.083340e-09	-3.835418e+01	-7.199681e+01
5.000000e-08	-5.502113e-06	-1.071866e-09	-3.834319e+01	-7.195323e+01
6.000000e-08	-5.499965e-06	-1.057007e-09	-3.832822e+01	-7.190980e+01
7.000000e-08	-5.497411e-06	-1.067444e-09	-3.831042e+01	-7.186642e+01
8.000000e-08	-5.494400e-06	-1.111657e-09	-3.828944e+01	-7.182295e+01
9.000000e-08	-5.490884e-06	-1.140755e-09	-3.826494e+01	-7.177928e+01
1.000000e-07	-5.486849e-06	-1.128392e-09	-3.823682e+01	-7.173526e+01
1.100000e-07	-5.482476e-06	-1.089058e-09	-3.820634e+01	-7.169074e+01
1.200000e-07	-5.477895e-06	-1.056629e-09	-3.817442e+01	-7.164556e+01
1.300000e-07	-5.473013e-06	-1.039136e-09	-3.814040e+01	-7.159954e+01
1.400000e-07	-5.467787e-06	-1.078816e-09	-3.810398e+01	-7.155252e+01
1.500000e-07	-5.462212e-06	-1.070931e-09	-3.806513e+01	-7.150430e+01
1.600000e-07	-5.456325e-06	-1.073546e-09	-3.802410e+01	-7.145470e+01
1.700000e-07	-5.449994e-06	-1.056946e-09	-3.797998e+01	-7.140354e+01
1.800000e-07	-5.443201e-06	-1.101122e-09	-3.793264e+01	-7.135062e+01
1.900000e-07	-5.436048e-06	-1.089956e-09	-3.788280e+01	-7.129575e+01
2.000000e-07	-5.428625e-06	-1.057056e-09	-3.783106e+01	-7.123875e+01
2.100000e-07	-5.420984e-06	-1.053944e-09	-3.777782e+01	-7.117943e+01
2.200000e-07	-5.413098e-06	-1.104528e-09	-3.772286e+01	-7.111761e+01
2.300000e-07	-5.404909e-06	-1.129938e-09	-3.766579e+01	-7.105311e+01
2.400000e-07	-5.396266e-06	-1.104659e-09	-3.760556e+01	-7.098577e+01
2.500000e-07	-5.386911e-06	-1.093929e-09	-3.754037e+01	-7.091543e+01
2.600000e-07	-5.376815e-06	-1.085132e-09	-3.747001e+01	-7.084192e+01
2.700000e-07	-5.366171e-06	-1.092041e-09	-3.739583e+01	-7.076512e+01
2.800000e-07	-5.355050e-06	-1.080813e-09	-3.731833e+01	-7.068488e+01
2.900000e-07	-5.343537e-06	-1.104374e-09	-3.723811e+01	-7.060109e+01
3.000000e-07	-5.331687e-06	-1.082629e-09	-3.715552e+01	-7.051363e+01
3.100000e-07	-5.319406e-06	-1.076018e-09	-3.706994e+01	-7.042240e+01
3.200000e-07	-5.306656e-06	-1.067885e-09	-3.698108e+01	-7.032732e+01
3.300000e-07	-5.293586e-06	-1.087645e-09	-3.689001e+01	-7.022831e+01
3.400000e-07	-5.280138e-06	-1.058834e-09	-3.679629e+01	-7.012531e+01
3.500000e-07	-5.266264e-06	-1.080389e-09	-3.669960e+01	-7.001827e+01
3.600000e-07	-5.251973e-06	-1.099869e-09	-3.660001e+01	-6.990716e+01
3.700000e-07	-5.237257e-06	-1.095395e-09	-3.649746e+01	-6.979196e+01
3.800000e-07	-5.222067e-06	-1.060732e-09	-3.639160e+01	-6.967264e+01
3.900000e-07	-5.206381e-06	-1.082294e-09	-3.628229e+01	-6.954921e+01
4.000000e-07	-5.190241e-06	-1.067403e-09	-3.616981e+01	-6.942169e+01
4.100000e-07	-5.173597e-06	-1.035141e-09	-3.605382e+01	-6.929008e+01
4.200000e-07	-5.156606e-06	-1.055479e-09	-3.593541e+01	-6.915444e+01
4.300000e-07	-5.139430e-06	-1.087855e-09	-3.581572e+01	-6.901479e+01
4.400000e-07	-5.121930e-06	-1.055384e-09	-3.569377e+01	-6.887119e+01
4.500000e-07	-5.103902e-06	-1.054233e-09	-3.556813e+01	-6.872371e+01
4.600000e-07	-5.085387e-06	-1.096246e-09	-3.543910e+01	-6.857240e+01
4.700000e-07	-5.066529e-06	-1.059597e-09	-3.530769e+01	-6.841734e+01
4.800000e-07	-5.047335e-06	-1.025028e-09	-3.517393e+01	-6.825861e+01
4.900000e-07	-5.027906e-06	-1.071912e-09	-3.503853e+01	-6.809631e+01
5.000000e-07	-5.008344e-06	-1.075783e-09	-3.490221e+01	-6.793051e+01
5.100000e-07	-4.988518e-06	-1.011883e-09	-3.476404e+01	-6.776132e+01
5.200000e-07	-4.968363e-06	-1.042601e-09	-3.462359e+01	-6.758882e+01
5.300000e-07	-4.947859e-06	-1.078109e-09	-3.448070e+01	-6.741313e+01
5.400000e-07	-4.926996e-06	-1.033938e-09	-3.433531e+01	-6.723434e+01
5.500000e-07	-4.905790e-06	-1.023385e-09	-3.418752e+01	-6.705255e+01
5.600000e-07	-4.884247e-06	-1.069607e-09	-3.403740e+01	-6.686786e+01
5.700000e-07	-4.862394e-06	-1.031027e-09	-3.388511e+01	-6.668038e+01
5.800000e-07	-4.840174e-06	-1.007900e-09	-3.373026e+01	-6.649021e+01
5.900000e-07	-4.817581e-06	-1.047549e-09	-3.357281e+01	-6.629744e+01
6.000000e-07	-4.794650e-06	-1.040004e-09	-3.341302e+01	-6.610217e+01
6.100000e-07	-4.771414e-06	-9.902270e-10	-3.325108e+01	-6.590449e+01
6.200000e-07	-4.747989e-06	-1.017275e-09	-3.308784e+01	-6.570450e+01
6.300000e-07	-4.724377e-06	-1.020959e-09	-3.292329e+01	-6.550228e+01
6.400000e-07	-4.700478e-06	-9.853296e-10	-3.275674e+01	-6.529792e+01
6.500000e-07	-4.676273e-06	-9.964880e-10	-3.258807e+01	-6.509148e+01
6.600000e-07	-4.651699e-06	-1.019329e-09	-3.241682e+01	-6.488305e+01
6.700000e-07	-4.626591e-06	-9.893416e-10	-3.224184e+01	-6.467270e+01
6.800000e-07	-4.600873e-06	-9.902801e-10	-3.206262e+01	-6.446048e+01
6.900000e-07	-4.574642e-06	-1.006140e-09	-3.187982e+01	-6.424646e+01
7.000000e-07	-4.547969e-06	-9.815381e-10	-3.169394e+01	-6.403068e+01
7.100000e-07	-4.520844e-06	-9.644524e-10	-3.150491e+01	-6.381321e+01
7.200000e-07	-4.493402e-06	-9.826564e-10	-3.131367e+01	-6.359406e+01
7.300000e-07	-4.465758e-06	-9.722480e-10	-3.112103e+01	-6.337329e+01
7.400000e-07	-4.437961e-06	-9.590723e-10	-3.092731e+01	-6.315092e+01
7.500000e-07	-4.410042e-06	-9.726508e-10	-3.073275e+01	-6.292698e+01
7.600000e-07	-4.381910e-06	-9.689758e-10	-3.053671e+01	-6.270148e+01
7.700000e-07	-4.353380e-06	-9.527199e-10	-3.033789e+01	-6.247443e+01
7.800000e-07	-4.324436e-06	-9.569197e-10	-3.013618e+01	-6.224584e+01
7.900000e-07	-4.295155e-06	-9.600782e-10	-2.993213e+01	-6.201571e+01
8.000000e-07	-4.265565e-06	-9.404688e-10	-2.972592e+01	-6.178403e+01
8.100000e-07	-4.235771e-06	-9.378661e-10	-2.951829e+01	-6.155079e+01
8.200000e-07	-4.205780e-06	-9.422942e-10	-2.930929e+01	-6.131596e+01
8.300000e-07	-4.175475e-06	-9.328519e-10	-2.909810e+01	-6.107953e+01
8.400000e-07	-4.144797e-06	-9.255586e-10	-2.888431e+01	-6.084146e+01
8.500000e-07	-4.113814e-06	-9.319646e-10	-2.866840e+01	-6.060171e+01
8.600000e-07	-4.082576e-06	-9.231648e-10	-2.845070e+01	-6.036025e+01
8.700000e-07	-4.051183e-06	-9.124555e-10	-2.823193e+01	-6.011701e+01
8.800000e-07	-4.019658e-06	-9.119564e-10	-2.801224e+01	-5.987196e+01
8.900000e-07	-3.987947e-06	-9.125396e-10	-2.779125e+01	-5.962502e+01
9.000000e-07	-3.955967e-06	-8.962389e-10	-2.756839e+01	-5.937613e+01
9.100000e-07	-3.923735e-06	-8.920178e-10	-2.734377e+01	-5.912522e+01
9.200000e-07	-3.891227e-06	-8.900832e-10	-2.711723e+01	-5.887222e+01
9.300000e-07	-3.858297e-06	-8.836587e-10	-2.688774e+01	-5.861704e+01
9.400000e-07	-3.824827e-06	-8.812208e-10	-2.665450e+01	-5.835960e+01
9.500000e-07	-3.790886e-06	-8.915858e-10	-2.641797e+01	-5.809981e+01
9.600000e-07	-3.756615e-06	-8.885531e-10	-2.617914e+01	-5.783757e+01
9.700000e-07	-3.721992e-06	-8.787358e-10	-2.593786e+01	-5.757279e+01
9.800000e-07	-3.686959e-06	-8.762640e-10	-2.569372e+01	-5.730536e+01
9.900000e-07	-3.651571e-06	-8.729258e-10	-2.544711e+01	-5.703518e+01
1.000000e-06	-3.616034e-06	-8.608383e-10	-2.519946e+01	-5.676215e+01
1.010000e-06	-3.580412e-06	-8.548503e-10	-2.495121e+01	-5.648614e+01
1.020000e-06	-3.544677e-06	-8.539260e-10	-2.470219e+01	-5.620706e+01
1.030000e-06	-3.508799e-06	-8.492300e-10	-2.445216e+01	-5.592478e+01
1.040000e-06	-3.472702e-06	-8.454578e-10	-2.420060e+01	-5.563920e+01
1.050000e-06	-3.436275e-06	-8.445855e-10	-2.394675e+01	-5.535019e+01
1.060000e-06	-3.399571e-06	-8.378129e-10	-2.369097e+01	-5.505764e+01
1.070000e-06	-3.362598e-06	-8.274160e-10	-2.343331e+01	-5.476144e+01
1.080000e-06	-3.325342e-06	-8.224821e-10	-2.317368e+01	-5.446148e+01
1.090000e-06	-3.287909e-06	-8.147594e-10	-2.291282e+01	-5.415763e+01
1.100000e-06	-3.250288e-06	-8.058553e-10	-2.265064e+01	-5.384979e+01
1.110000e-06	-3.212471e-06	-8.006828e-10	-2.238711e+01	-5.353785e+01
1.120000e-06	-3.174387e-06	-7.988708e-10	-2.212171e+01	-5.322170e+01
1.130000e-06	-3.136026e-06	-7.924294e-10	-2.185437e+01	-5.290124e+01
1.140000e-06	-3.097432e-06	-7.880806e-10	-2.158542e+01	-5.257637e+01
1.150000e-06	-3.058603e-06	-7.824799e-10	-2.131483e+01	-5.224699e+01
1.160000e-06	-3.019571e-06	-7.743408e-10	-2.104282e+01	-5.191300e+01
1.170000e-06	-2.980381e-06	-7.648151e-10	-2.076971e+01	-5.157432e+01
1.180000e-06	-2.941036e-06	-7.618665e-10	-2.049552e+01	-5.123086e+01
1.190000e-06	-2.901524e-06	-7.594167e-10	-2.022017e+01	-5.088254e+01
1.200000e-06	-2.861910e-06	-7.548847e-10	-1.994411e+01	-5.052929e+01
1.210000e-06	-2.822206e-06	-7.488152e-10	-1.966742e+01	-5.017102e+01
1.220000e-06	-2.782404e-06	-7.428501e-10	-1.939005e+01	-4.980767e+01
1.230000e-06	-2.742496e-06	-7.336417e-10	-1.911194e+01	-4.943916e+01
1.240000e-06	-2.702405e-06	-7.265461e-10	-1.883255e+01	-4.906545e+01
1.250000e-06	-2.662069e-06	-7.201138e-10	-1.855146e+01	-4.868646e+01
1.260000e-06	-2.621517e-06	-7.143902e-10	-1.826886e+01	-4.830213e+01
1.270000e-06	-2.580746e-06	-7.099244e-10	-1.798473e+01	-4.791240e+01
1.280000e-06	-2.539804e-06	-7.073792e-10	-1.769941e+01	-4.751722e+01
1.290000e-06	-2.498508e-06	-7.037437e-10	-1.741163e+01	-4.711653e+01
1.300000e-06	-2.456732e-06	-6.972516e-10	-1.712050e+01	-4.671027e+01
1.310000e-06	-2.414709e-06	-6.857213e-10	-1.682765e+01	-4.629838e+01
1.320000e-06	-2.372476e-06	-6.720488e-10	-1.653334e+01	-4.588078e+01
1.330000e-06	-2.329942e-06	-6.597811e-10	-1.623692e+01	-4.545742e+01
1.340000e-06	-2.287140e-06	-6.520240e-10	-1.593865e+01	-4.502821e+01
1.350000e-06	-2.244111e-06	-6.479873e-10	-1.563879e+01	-4.459307e+01
1.360000e-06	-2.200871e-06	-6.465161e-10	-1.533745e+01	-4.415192e+01
1.370000e-06	-2.157449e-06	-6.449741e-10	-1.503486e+01	-4.370466e+01
1.380000e-06	-2.113925e-06	-6.409917e-10	-1.473155e+01	-4.325118e+01
1.390000e-06	-2.070345e-06	-6.340320e-10	-1.442784e+01	-4.279136e+01
1.400000e-06	-2.026660e-06	-6.220251e-10	-1.412341e+01	-4.232507e+01
1.410000e-06	-1.982894e-06	-6.088719e-10	-1.381841e+01	-4.185215e+01
1.420000e-06	-1.939060e-06	-5.962038e-10	-1.351294e+01	-4.137247e+01
1.430000e-06	-1.895149e-06	-5.888396e-10	-1.320694e+01	-4.088583e+01
1.440000e-06	-1.851169e-06	-5.838358e-10	-1.290045e+01	-4.039205e+01
1.450000e-06	-1.807054e-06	-5.784509e-10	-1.259302e+01	-3.989092e+01
1.460000e-06	-1.762756e-06	-5.717858e-10	-1.228432e+01	-3.938222e+01
1.470000e-06	-1.718368e-06	-5.625647e-10	-1.197498e+01	-3.886570e+01
1.480000e-06	-1.673936e-06	-5.524603e-10	-1.166535e+01	-3.834110e+01
1.490000e-06	-1.629367e-06	-5.429121e-10	-1.135475e+01	-3.780815e+01
1.500000e-06	-1.584613e-06	-5.326679e-10	-1.104287e+01	-3.726654e+01
1.510000e-06	-1.539727e-06	-5.221403e-10	-1.073007e+01	-3.671597e+01
1.520000e-06	-1.494723e-06	-5.133424e-10	-1.041644e+01	-3.615609e+01
1.530000e-06	-1.449627e-06	-5.052380e-10	-1.010218e+01	-3.558656e+01
1.540000e-06	-1.404478e-06	-4.941956e-10	-9.787541e+00	-3.500702e+01
1.550000e-06	-1.359193e-06	-4.844219e-10	-9.471957e+00	-3.441709e+01
1.560000e-06	-1.313679e-06	-4.758263e-10	-9.154781e+00	-3.381636e+01
1.570000e-06	-1.268064e-06	-4.670820e-10	-8.836899e+00	-3.320445e+01
1.580000e-06	-1.222478e-06	-4.584367e-10	-8.519218e+00	-3.258093e+01
1.590000e-06	-1.176837e-06	-4.516568e-10	-8.201157e+00	-3.194537e+01
1.600000e-06	-1.131076e-06	-4.427244e-10	-7.882257e+00	-3.129736e+01
1.610000e-06	-1.085212e-06	-4.316758e-10	-7.562639e+00	-3.063646e+01
1.620000e-06	-1.039291e-06	-4.198740e-10	-7.242625e+00	-2.996223e+01
1.630000e-06	-9.932709e-07	-4.102015e-10	-6.921918e+00	-2.927424e+01
1.640000e-06	-9.471972e-07	-4.012398e-10	-6.600839e+00	-2.857207e+01
1.650000e-06	-9.011345e-07	-3.932139e-10	-6.279837e+00	-2.785529e+01
1.660000e-06	-8.550158e-07	-3.812536e-10	-5.958444e+00	-2.712349e+01
1.670000e-06	-8.088038e-07	-3.673991e-10	-5.636402e+00	-2.637629e+01
1.680000e-06	-7.624704e-07	-3.547999e-10	-5.313513e+00	-2.561329e+01
1.690000e-06	-7.160882e-07	-3.419332e-10	-4.990283e+00	-2.483414e+01
1.700000e-06	-6.697540e-07	-3.279781e-10	-4.667389e+00	-2.403852e+01
1.710000e-06	-6.233847e-07	-3.126128e-10	-4.344251e+00	-2.322610e+01
1.720000e-06	-5.769178e-07	-2.972805e-10	-4.020431e+00	-2.239661e+01
1.730000e-06	-5.304045e-07	-2.822228e-10	-3.696289e+00	-2.154981e+01
1.740000e-06	-4.838041e-07	-2.684998e-10	-3.371540e+00	-2.068550e+01
1.750000e-06	-4.371988e-07	-2.552029e-10	-3.046756e+00	-1.980351e+01
1.760000e-06	-3.906109e-07	-2.440455e-10	-2.722094e+00	-1.890371e+01
1.770000e-06	-3.439674e-07	-2.350003e-10	-2.397044e+00	-1.798603e+01
1.780000e-06	-2.972621e-07	-2.243411e-10	-2.071564e+00	-1.705044e+01
1.790000e-06	-2.504853e-07	-2.109981e-10	-1.745585e+00	-1.609696e+01
1.800000e-06	-2.037263e-07	-1.972608e-10	-1.419730e+00	-1.512567e+01
1.810000e-06	-1.569989e-07	-1.820179e-10	-1.094096e+00	-1.413670e+01
1.820000e-06	-1.102478e-07	-1.658279e-10	-7.682958e-01	-1.313024e+01
1.830000e-06	-6.354403e-08	-1.511939e-10	-4.428264e-01	-1.210652e+01
1.840000e-06	-1.685826e-08	-1.392789e-10	-1.174820e-01	-1.106586e+01
1.850000e-06	2.993489e-08	-1.255835e-10	2.086106e-01	-1.000861e+01
1.860000e-06	7.669518e-08	-1.114693e-10	5.344743e-01	-8.935202e+00
1.870000e-06	1.233776e-07	-9.718926e-11	8.597953e-01	-7.846109e+00
1.880000e-06	1.700578e-07	-8.106440e-11	1.185101e+00	-6.741875e+00
1.890000e-06	2.167358e-07	-6.233200e-11	1.510391e+00	-5.623098e+00
1.900000e-06	2.634407e-07	-4.307798e-11	1.835869e+00	-4.490434e+00
1.910000e-06	3.101830e-07	-2.421855e-11	2.161607e+00	-3.344595e+00
1.920000e-06	3.568568e-07	-7.718542e-12	2.486867e+00	-2.186346e+00
1.930000e-06	4.034095e-07	5.838939e-12	2.811285e+00	-1.016502e+00
1.940000e-06	4.499007e-07	1.985026e-11	3.135273e+00	1.640718e-01
1.950000e-06	4.963442e-07	3.700154e-11	3.458929e+00	1.354464e+00
1.960000e-06	5.428115e-07	5.503629e-11	3.782751e+00	2.553721e+00
1.970000e-06	5.892435e-07	7.293770e-11	4.106327e+00	3.760851e+00
1.980000e-06	6.355773e-07	8.991796e-11	4.429219e+00	4.974826e+00
1.990000e-06	6.819291e-07	1.070706e-10	4.752235e+00	6.194586e+00
2.000000e-06	7.282561e-07	1.228937e-10	5.075080e+00	7.419047e+00
2.010000e-06	7.745240e-07	1.390416e-10	5.397512e+00	8.647099e+00
2.020000e-06	8.207349e-07	1.579122e-10	5.719547e+00	9.877616e+00
2.030000e-06	8.668168e-07	1.789542e-10	6.040683e+00	1.110946e+01
2.040000e-06	9.127802e-07	1.984822e-10	6.360993e+00	1.234148e+01
2.050000e-06	9.587006e-07	2.161297e-10	6.681004e+00	1.357252e+01
2.060000e-06	1.004616e-06	2.315880e-10	7.000982e+00	1.480144e+01
2.070000e-06	1.050472e-06	2.451442e-10	7.320544e+00	1.602709e+01
2.080000e-06	1.096250e-06	2.598602e-10	7.639558e+00	1.724834e+01
2.090000e-06	1.141930e-06	2.763137e-10	7.957893e+00	1.846407e+01
2.100000e-06	1.187514e-06	2.974424e-10	8.275563e+00	1.967319e+01
2.110000e-06	1.232973e-06	3.191593e-10	8.592355e+00	2.087462e+01
2.120000e-06	1.278365e-06	3.385052e-10	8.908683e+00	2.206731e+01
2.130000e-06	1.323751e-06	3.549556e-10	9.224971e+00	2.325027e+01
2.140000e-06	1.369043e-06	3.703774e-10	9.540605e+00	2.442252e+01
2.150000e-06	1.414211e-06	3.838562e-10	9.855372e+00	2.558313e+01
2.160000e-06	1.459282e-06	3.969486e-10	1.016946e+01	2.673121e+01
2.170000e-06	1.504297e-06	4.125330e-10	1.048316e+01	2.786592e+01
2.180000e-06	1.549165e-06	4.311817e-10	1.079584e+01	2.898648e+01
2.190000e-06	1.593808e-06	4.498348e-10	1.110695e+01	3.009214e+01
2.200000e-06	1.638327e-06	4.659791e-10	1.141719e+01	3.118223e+01
2.210000e-06	1.682799e-06	4.805257e-10	1.172711e+01	3.225611e+01
2.220000e-06	1.727176e-06	4.934474e-10	1.203636e+01	3.331322e+01
2.230000e-06	1.771421e-06	5.062847e-10	1.234470e+01	3.435305e+01
2.240000e-06	1.815480e-06	5.191743e-10	1.265174e+01	3.537515e+01
2.250000e-06	1.859388e-06	5.323064e-10	1.295773e+01	3.637911e+01
2.260000e-06	1.903303e-06	5.461062e-10	1.326376e+01	3.736461e+01
2.270000e-06	1.947201e-06	5.609252e-10	1.356968e+01	3.833136e+01
2.280000e-06	1.990986e-06	5.759965e-10	1.387481e+01	3.927916e+01
2.290000e-06	2.034669e-06	5.904740e-10	1.417922e+01	4.020783e+01
2.300000e-06	2.078282e-06	6.029238e-10	1.448316e+01	4.111726e+01
2.310000e-06	2.121821e-06	6.137677e-10	1.478657e+01	4.200739e+01
2.320000e-06	2.165272e-06	6.267907e-10	1.508937e+01	4.287822e+01
2.330000e-06	2.208643e-06	6.414069e-10	1.539162e+01	4.372979e+01
2.340000e-06	2.251841e-06	6.551752e-10	1.569266e+01	4.456219e+01
2.350000e-06	2.294835e-06	6.693432e-10	1.599227e+01	4.537553e+01
2.360000e-06	2.337712e-06	6.834486e-10	1.629108e+01	4.616999e+01
2.370000e-06	2.380300e-06	6.923358e-10	1.658786e+01	4.694578e+01
2.380000e-06	2.422510e-06	6.985032e-10	1.688201e+01	4.770312e+01
2.390000e-06	2.464509e-06	7.063796e-10	1.717470e+01	4.844229e+01
2.400000e-06	2.506165e-06	7.160848e-10	1.746499e+01	4.916357e+01
2.410000e-06	2.547364e-06	7.269471e-10	1.775210e+01	4.986729e+01
2.420000e-06	2.588219e-06	7.403634e-10	1.803681e+01	5.055378e+01
2.430000e-06	2.628825e-06	7.554644e-10	1.831978e+01	5.122339e+01
2.440000e-06	2.669263e-06	7.685231e-10	1.860159e+01	5.187649e+01
2.450000e-06	2.709555e-06	7.780179e-10	1.888238e+01	5.251345e+01
2.460000e-06	2.749592e-06	7.871991e-10	1.916139e+01	5.313465e+01
2.470000e-06	2.789359e-06	7.955074e-10	1.943852e+01	5.374048e+01
2.480000e-06	2.829030e-06	8.020213e-10	1.971498e+01	5.433133e+01
2.490000e-06	2.868657e-06	8.091004e-10	1.999113e+01	5.490758e+01
2.500000e-06	2.908178e-06	8.180414e-10	2.026654e+01	5.546961e+01
2.510000e-06	2.947545e-06	8.289613e-10	2.054088e+01	5.601781e+01
2.520000e-06	2.986820e-06	8.403068e-10	2.081459e+01	5.655253e+01
2.530000e-06	3.025960e-06	8.514096e-10	2.108735e+01	5.707414e+01
2.540000e-06	3.064870e-06	8.591472e-10	2.135850e+01	5.758298e+01
2.550000e-06	3.103539e-06	8.627764e-10	2.162798e+01	5.807938e+01
2.560000e-06	3.141892e-06	8.667032e-10	2.189525e+01	5.856368e+01
2.570000e-06	3.180009e-06	8.714224e-10	2.216088e+01	5.903618e+01
2.580000e-06	3.217896e-06	8.753700e-10	2.242491e+01	5.949716e+01
2.590000e-06	3.255541e-06	8.809751e-10	2.268725e+01	5.994691e+01
2.600000e-06	3.293003e-06	8.900966e-10	2.294831e+01	6.038569e+01
2.610000e-06	3.330314e-06	8.986997e-10	2.320833e+01	6.081374e+01
2.620000e-06	3.367458e-06	9.034908e-10	2.346718e+01	6.123131e+01
2.630000e-06	3.404356e-06	9.072964e-10	2.372432e+01	6.163860e+01
2.640000e-06	3.440925e-06	9.122484e-10	2.397916e+01	6.203582e+01
2.650000e-06	3.477157e-06	9.176413e-10	2.423165e+01	6.242317e+01
2.660000e-06	3.513127e-06	9.219790e-10	2.448232e+01	6.280083e+01
2.670000e-06	3.548956e-06	9.261565e-10	2.473200e+01	6.316896e+01
2.680000e-06	3.584739e-06	9.305193e-10	2.498137e+01	6.352772e+01
2.690000e-06	3.620364e-06	9.359952e-10	2.522963e+01	6.387727e+01
2.700000e-06	3.655830e-06	9.422617e-10	2.547679e+01	6.421775e+01
2.710000e-06	3.691124e-06	9.480882e-10	2.572275e+01	6.454930e+01
2.720000e-06	3.726158e-06	9.541006e-10	2.596689e+01	6.487205e+01
2.730000e-06	3.760867e-06	9.597889e-10	2.620878e+01	6.518614e+01
2.740000e-06	3.795200e-06	9.650845e-10	2.644804e+01	6.549168e+01
2.750000e-06	3.829098e-06	9.693434e-10	2.668426e+01	6.578881e+01
2.760000e-06	3.862446e-06	9.732613e-10	2.691666e+01	6.607765e+01
2.770000e-06	3.895296e-06	9.779650e-10	2.714558e+01	6.635834e+01
2.780000e-06	3.927705e-06	9.819564e-10	2.737144e+01	6.663100e+01
2.790000e-06	3.959796e-06	9.855122e-10	2.759508e+01	6.689576e+01
2.800000e-06	3.991713e-06	9.896214e-10	2.781749e+01	6.715277e+01
2.810000e-06	4.023434e-06	9.945600e-10	2.803855e+01	6.740216e+01
2.820000e-06	4.055038e-06	9.991863e-10	2.825880e+01	6.764408e+01
2.830000e-06	4.086536e-06	1.004433e-09	2.847830e+01	6.787868e+01
2.840000e-06	4.117813e-06	1.010639e-09	2.869626e+01	6.810611e+01
2.850000e-06	4.148777e-06	1.016663e-09	2.891204e+01	6.832654e+01
2.860000e-06	4.179375e-06	1.021675e-09	2.912528e+01	6.854013e+01
2.870000e-06	4.209652e-06	1.023955e-09	2.933627e+01	6.874704e+01
2.880000e-06	4.239649e-06	1.024262e-09	2.954532e+01	6.894747e+01
2.890000e-06	4.269345e-06	1.025337e-09	2.975226e+01	6.914158e+01
2.900000e-06	4.298736e-06	1.027884e-09	2.995708e+01	6.932956e+01
