# Temperatura_=_-0.6
# Concentracion g/m^3_=_1620.0
# C_Vs_to_Am_M_A/Vsm_=_65563218390.804596
# pendiente_HvsI_1/m_=_3716.3
# ordenada_HvsI_A/m_=_1297.0
# frecuencia_Hz_=_135098.1858690489

Tiempo_(s)	Campo_(V.s)	Magnetizacion_(V.s)	Campo_(kA/m)	Magnetizacion_(A/m)
0.000000e+00	-5.508531e-06	-1.324606e-09	-3.837239e+01	-8.849568e+01
1.000000e-08	-5.508760e-06	-1.323932e-09	-3.837398e+01	-8.847463e+01
2.000000e-08	-5.508788e-06	-1.326243e-09	-3.837417e+01	-8.845424e+01
3.000000e-08	-5.508522e-06	-1.330206e-09	-3.837232e+01	-8.843438e+01
4.000000e-08	-5.507811e-06	-1.328028e-09	-3.836737e+01	-8.841487e+01
5.000000e-08	-5.506595e-06	-1.316676e-09	-3.835890e+01	-8.839555e+01
6.000000e-08	-5.504729e-06	-1.302204e-09	-3.834590e+01	-8.837620e+01
7.000000e-08	-5.502225e-06	-1.307109e-09	-3.832846e+01	-8.835663e+01
8.000000e-08	-5.499150e-06	-1.354352e-09	-3.830704e+01	-8.833661e+01
9.000000e-08	-5.495508e-06	-1.385298e-09	-3.828167e+01	-8.831591e+01
1.000000e-07	-5.491451e-06	-1.367654e-09	-3.825341e+01	-8.829426e+01
1.100000e-07	-5.487188e-06	-1.340144e-09	-3.822371e+01	-8.827144e+01
1.200000e-07	-5.482745e-06	-1.337789e-09	-3.819276e+01	-8.824716e+01
1.300000e-07	-5.477980e-06	-1.268960e-09	-3.815957e+01	-8.822118e+01
1.400000e-07	-5.472961e-06	-1.297867e-09	-3.812461e+01	-8.819322e+01
1.500000e-07	-5.467543e-06	-1.303297e-09	-3.808686e+01	-8.816301e+01
1.600000e-07	-5.461687e-06	-1.366781e-09	-3.804607e+01	-8.813030e+01
1.700000e-07	-5.455440e-06	-1.319919e-09	-3.800255e+01	-8.809481e+01
1.800000e-07	-5.448693e-06	-1.307617e-09	-3.795555e+01	-8.805628e+01
1.900000e-07	-5.441539e-06	-1.324638e-09	-3.790572e+01	-8.801447e+01
2.000000e-07	-5.434087e-06	-1.314124e-09	-3.785381e+01	-8.796912e+01
2.100000e-07	-5.426433e-06	-1.307811e-09	-3.780049e+01	-8.792000e+01
2.200000e-07	-5.418623e-06	-1.308443e-09	-3.774609e+01	-8.786687e+01
2.300000e-07	-5.410505e-06	-1.369646e-09	-3.768954e+01	-8.780954e+01
2.400000e-07	-5.401927e-06	-1.349843e-09	-3.762978e+01	-8.774778e+01
2.500000e-07	-5.392813e-06	-1.337987e-09	-3.756630e+01	-8.768141e+01
2.600000e-07	-5.382978e-06	-1.284844e-09	-3.749778e+01	-8.761026e+01
2.700000e-07	-5.372426e-06	-1.305474e-09	-3.742428e+01	-8.753416e+01
2.800000e-07	-5.361358e-06	-1.296064e-09	-3.734718e+01	-8.745296e+01
2.900000e-07	-5.349930e-06	-1.337909e-09	-3.726757e+01	-8.736653e+01
3.000000e-07	-5.338185e-06	-1.303925e-09	-3.718576e+01	-8.727476e+01
3.100000e-07	-5.326056e-06	-1.298441e-09	-3.710126e+01	-8.717756e+01
3.200000e-07	-5.313498e-06	-1.288768e-09	-3.701379e+01	-8.707483e+01
3.300000e-07	-5.300502e-06	-1.320052e-09	-3.692326e+01	-8.696650e+01
3.400000e-07	-5.287090e-06	-1.273616e-09	-3.682983e+01	-8.685254e+01
3.500000e-07	-5.273364e-06	-1.273238e-09	-3.673421e+01	-8.673290e+01
3.600000e-07	-5.259223e-06	-1.314047e-09	-3.663571e+01	-8.660756e+01
3.700000e-07	-5.244532e-06	-1.321398e-09	-3.653337e+01	-8.647651e+01
3.800000e-07	-5.229355e-06	-1.270152e-09	-3.642765e+01	-8.633977e+01
3.900000e-07	-5.213747e-06	-1.294313e-09	-3.631892e+01	-8.619734e+01
4.000000e-07	-5.197648e-06	-1.306564e-09	-3.620677e+01	-8.604926e+01
4.100000e-07	-5.181054e-06	-1.244331e-09	-3.609119e+01	-8.589558e+01
4.200000e-07	-5.164075e-06	-1.261134e-09	-3.597291e+01	-8.573635e+01
4.300000e-07	-5.146905e-06	-1.329769e-09	-3.585330e+01	-8.557163e+01
4.400000e-07	-5.129501e-06	-1.289284e-09	-3.573207e+01	-8.540149e+01
4.500000e-07	-5.111669e-06	-1.234623e-09	-3.560785e+01	-8.522601e+01
4.600000e-07	-5.093408e-06	-1.323506e-09	-3.548064e+01	-8.504528e+01
4.700000e-07	-5.074688e-06	-1.305936e-09	-3.535024e+01	-8.485939e+01
4.800000e-07	-5.055591e-06	-1.223922e-09	-3.521721e+01	-8.466843e+01
4.900000e-07	-5.036196e-06	-1.271564e-09	-3.508211e+01	-8.447251e+01
5.000000e-07	-5.016559e-06	-1.337076e-09	-3.494531e+01	-8.427173e+01
5.100000e-07	-4.996714e-06	-1.224240e-09	-3.480707e+01	-8.406620e+01
5.200000e-07	-4.976634e-06	-1.232579e-09	-3.466720e+01	-8.385603e+01
5.300000e-07	-4.956302e-06	-1.320275e-09	-3.452556e+01	-8.364131e+01
5.400000e-07	-4.935608e-06	-1.268019e-09	-3.438141e+01	-8.342216e+01
5.500000e-07	-4.914432e-06	-1.198064e-09	-3.423390e+01	-8.319870e+01
5.600000e-07	-4.892902e-06	-1.296862e-09	-3.408392e+01	-8.297102e+01
5.700000e-07	-4.871067e-06	-1.280893e-09	-3.393181e+01	-8.273922e+01
5.800000e-07	-4.848939e-06	-1.203092e-09	-3.377767e+01	-8.250342e+01
5.900000e-07	-4.826424e-06	-1.247736e-09	-3.362083e+01	-8.226372e+01
6.000000e-07	-4.803523e-06	-1.279619e-09	-3.346131e+01	-8.202021e+01
6.100000e-07	-4.780339e-06	-1.186321e-09	-3.329981e+01	-8.177298e+01
6.200000e-07	-4.756878e-06	-1.203792e-09	-3.313637e+01	-8.152213e+01
6.300000e-07	-4.733206e-06	-1.255686e-09	-3.297148e+01	-8.126775e+01
6.400000e-07	-4.709262e-06	-1.209118e-09	-3.280469e+01	-8.100992e+01
6.500000e-07	-4.685068e-06	-1.195394e-09	-3.263615e+01	-8.074872e+01
6.600000e-07	-4.660600e-06	-1.246073e-09	-3.246570e+01	-8.048423e+01
6.700000e-07	-4.635634e-06	-1.211122e-09	-3.229179e+01	-8.021652e+01
6.800000e-07	-4.610086e-06	-1.175915e-09	-3.211383e+01	-7.994566e+01
6.900000e-07	-4.583959e-06	-1.210981e-09	-3.193183e+01	-7.967172e+01
7.000000e-07	-4.557233e-06	-1.197655e-09	-3.174565e+01	-7.939476e+01
7.100000e-07	-4.530049e-06	-1.162388e-09	-3.155628e+01	-7.911483e+01
7.200000e-07	-4.502589e-06	-1.190358e-09	-3.136500e+01	-7.883200e+01
7.300000e-07	-4.474969e-06	-1.204565e-09	-3.117260e+01	-7.854631e+01
7.400000e-07	-4.447230e-06	-1.166770e-09	-3.097937e+01	-7.825781e+01
7.500000e-07	-4.419316e-06	-1.170520e-09	-3.078492e+01	-7.796654e+01
7.600000e-07	-4.391210e-06	-1.173321e-09	-3.058914e+01	-7.767255e+01
7.700000e-07	-4.362841e-06	-1.148621e-09	-3.039152e+01	-7.737586e+01
7.800000e-07	-4.334101e-06	-1.140445e-09	-3.019131e+01	-7.707652e+01
7.900000e-07	-4.304951e-06	-1.158311e-09	-2.998825e+01	-7.677456e+01
8.000000e-07	-4.275449e-06	-1.135659e-09	-2.978274e+01	-7.646999e+01
8.100000e-07	-4.245686e-06	-1.124000e-09	-2.957542e+01	-7.616284e+01
8.200000e-07	-4.215698e-06	-1.131933e-09	-2.936652e+01	-7.585312e+01
8.300000e-07	-4.185466e-06	-1.128071e-09	-2.915593e+01	-7.554086e+01
8.400000e-07	-4.154914e-06	-1.105304e-09	-2.894310e+01	-7.522607e+01
8.500000e-07	-4.124011e-06	-1.114312e-09	-2.872783e+01	-7.490873e+01
8.600000e-07	-4.092810e-06	-1.109648e-09	-2.851048e+01	-7.458887e+01
8.700000e-07	-4.061393e-06	-1.090741e-09	-2.829163e+01	-7.426647e+01
8.800000e-07	-4.029801e-06	-1.083147e-09	-2.807156e+01	-7.394153e+01
8.900000e-07	-3.998074e-06	-1.091086e-09	-2.785055e+01	-7.361404e+01
9.000000e-07	-3.966165e-06	-1.072860e-09	-2.762828e+01	-7.328397e+01
9.100000e-07	-3.933977e-06	-1.063649e-09	-2.740406e+01	-7.295130e+01
9.200000e-07	-3.901499e-06	-1.070090e-09	-2.717781e+01	-7.261601e+01
9.300000e-07	-3.868598e-06	-1.064330e-09	-2.694863e+01	-7.227807e+01
9.400000e-07	-3.835218e-06	-1.048773e-09	-2.671610e+01	-7.193742e+01
9.500000e-07	-3.801376e-06	-1.053304e-09	-2.648036e+01	-7.159403e+01
9.600000e-07	-3.767041e-06	-1.049365e-09	-2.624118e+01	-7.124785e+01
9.700000e-07	-3.732354e-06	-1.028261e-09	-2.599955e+01	-7.089881e+01
9.800000e-07	-3.697335e-06	-1.023079e-09	-2.575561e+01	-7.054687e+01
9.900000e-07	-3.662032e-06	-1.025232e-09	-2.550969e+01	-7.019194e+01
1.000000e-06	-3.626543e-06	-1.012833e-09	-2.526247e+01	-6.983396e+01
1.010000e-06	-3.590932e-06	-1.003610e-09	-2.501440e+01	-6.947285e+01
1.020000e-06	-3.555192e-06	-1.010187e-09	-2.476544e+01	-6.910853e+01
1.030000e-06	-3.519271e-06	-1.005569e-09	-2.451521e+01	-6.874089e+01
1.040000e-06	-3.483186e-06	-9.963835e-10	-2.426385e+01	-6.836986e+01
1.050000e-06	-3.446955e-06	-9.943764e-10	-2.401147e+01	-6.799532e+01
1.060000e-06	-3.410530e-06	-9.923830e-10	-2.375773e+01	-6.761719e+01
1.070000e-06	-3.373765e-06	-9.784651e-10	-2.350162e+01	-6.723534e+01
1.080000e-06	-3.336657e-06	-9.750670e-10	-2.324313e+01	-6.684967e+01
1.090000e-06	-3.299288e-06	-9.707441e-10	-2.298282e+01	-6.646006e+01
1.100000e-06	-3.261657e-06	-9.618042e-10	-2.272068e+01	-6.606640e+01
1.110000e-06	-3.223769e-06	-9.516743e-10	-2.245675e+01	-6.566857e+01
1.120000e-06	-3.185669e-06	-9.512317e-10	-2.219135e+01	-6.526643e+01
1.130000e-06	-3.147331e-06	-9.436322e-10	-2.192429e+01	-6.485988e+01
1.140000e-06	-3.108789e-06	-9.368695e-10	-2.165580e+01	-6.444878e+01
1.150000e-06	-3.070106e-06	-9.336880e-10	-2.138633e+01	-6.403299e+01
1.160000e-06	-3.031267e-06	-9.313140e-10	-2.111579e+01	-6.361241e+01
1.170000e-06	-2.992190e-06	-9.220327e-10	-2.084357e+01	-6.318689e+01
1.180000e-06	-2.952865e-06	-9.164362e-10	-2.056964e+01	-6.275630e+01
1.190000e-06	-2.913348e-06	-9.090122e-10	-2.029436e+01	-6.232052e+01
1.200000e-06	-2.873670e-06	-8.988915e-10	-2.001796e+01	-6.187941e+01
1.210000e-06	-2.833927e-06	-8.889643e-10	-1.974111e+01	-6.143285e+01
1.220000e-06	-2.794080e-06	-8.840762e-10	-1.946354e+01	-6.098070e+01
1.230000e-06	-2.754109e-06	-8.764461e-10	-1.918510e+01	-6.052283e+01
1.240000e-06	-2.714050e-06	-8.682286e-10	-1.890605e+01	-6.005911e+01
1.250000e-06	-2.673830e-06	-8.622341e-10	-1.862588e+01	-5.958941e+01
1.260000e-06	-2.633410e-06	-8.544544e-10	-1.834432e+01	-5.911359e+01
1.270000e-06	-2.592700e-06	-8.453724e-10	-1.806073e+01	-5.863152e+01
1.280000e-06	-2.551767e-06	-8.373732e-10	-1.777559e+01	-5.814307e+01
1.290000e-06	-2.510633e-06	-8.300110e-10	-1.748905e+01	-5.764809e+01
1.300000e-06	-2.469143e-06	-8.210396e-10	-1.720003e+01	-5.714645e+01
1.310000e-06	-2.427248e-06	-8.120255e-10	-1.690819e+01	-5.663799e+01
1.320000e-06	-2.384968e-06	-8.028679e-10	-1.661367e+01	-5.612258e+01
1.330000e-06	-2.342445e-06	-7.955886e-10	-1.631745e+01	-5.560005e+01
1.340000e-06	-2.299707e-06	-7.885089e-10	-1.601975e+01	-5.507025e+01
1.350000e-06	-2.256718e-06	-7.828557e-10	-1.572028e+01	-5.453300e+01
1.360000e-06	-2.213481e-06	-7.754691e-10	-1.541909e+01	-5.398814e+01
1.370000e-06	-2.170042e-06	-7.683742e-10	-1.511650e+01	-5.343549e+01
1.380000e-06	-2.126488e-06	-7.612140e-10	-1.481310e+01	-5.287484e+01
1.390000e-06	-2.082861e-06	-7.538822e-10	-1.450919e+01	-5.230600e+01
1.400000e-06	-2.039193e-06	-7.407424e-10	-1.420501e+01	-5.172876e+01
1.410000e-06	-1.995478e-06	-7.273381e-10	-1.390048e+01	-5.114289e+01
1.420000e-06	-1.951674e-06	-7.153305e-10	-1.359534e+01	-5.054815e+01
1.430000e-06	-1.907785e-06	-7.077875e-10	-1.328961e+01	-4.994430e+01
1.440000e-06	-1.863804e-06	-7.005801e-10	-1.298324e+01	-4.933106e+01
1.450000e-06	-1.819691e-06	-6.922649e-10	-1.267595e+01	-4.870816e+01
1.460000e-06	-1.775456e-06	-6.817514e-10	-1.236781e+01	-4.807530e+01
1.470000e-06	-1.731138e-06	-6.709183e-10	-1.205909e+01	-4.743219e+01
1.480000e-06	-1.686755e-06	-6.564281e-10	-1.174992e+01	-4.677849e+01
1.490000e-06	-1.642281e-06	-6.416479e-10	-1.144012e+01	-4.611386e+01
1.500000e-06	-1.597691e-06	-6.292121e-10	-1.112950e+01	-4.543797e+01
1.510000e-06	-1.552934e-06	-6.208417e-10	-1.081773e+01	-4.475043e+01
1.520000e-06	-1.508007e-06	-6.120889e-10	-1.050477e+01	-4.405087e+01
1.530000e-06	-1.462952e-06	-6.028349e-10	-1.019091e+01	-4.333889e+01
1.540000e-06	-1.417755e-06	-5.909096e-10	-9.876072e+00	-4.261410e+01
1.550000e-06	-1.372466e-06	-5.777958e-10	-9.560586e+00	-4.187608e+01
1.560000e-06	-1.327103e-06	-5.643079e-10	-9.244587e+00	-4.112440e+01
1.570000e-06	-1.281658e-06	-5.503952e-10	-8.928022e+00	-4.035863e+01
1.580000e-06	-1.236091e-06	-5.369350e-10	-8.610602e+00	-3.957834e+01
1.590000e-06	-1.190421e-06	-5.244366e-10	-8.292461e+00	-3.878309e+01
1.600000e-06	-1.144670e-06	-5.134926e-10	-7.973765e+00	-3.797244e+01
1.610000e-06	-1.098817e-06	-5.023577e-10	-7.654348e+00	-3.714595e+01
1.620000e-06	-1.052958e-06	-4.899406e-10	-7.334899e+00	-3.630317e+01
1.630000e-06	-1.006982e-06	-4.785717e-10	-7.014627e+00	-3.544369e+01
1.640000e-06	-9.608744e-07	-4.704139e-10	-6.693444e+00	-3.456709e+01
1.650000e-06	-9.148058e-07	-4.599301e-10	-6.372531e+00	-3.367295e+01
1.660000e-06	-8.687025e-07	-4.482103e-10	-6.051375e+00	-3.276088e+01
1.670000e-06	-8.225223e-07	-4.345328e-10	-5.729684e+00	-3.183052e+01
1.680000e-06	-7.763157e-07	-4.185174e-10	-5.407809e+00	-3.088151e+01
1.690000e-06	-7.301407e-07	-3.995007e-10	-5.086155e+00	-2.991353e+01
1.700000e-06	-6.839229e-07	-3.822331e-10	-4.764202e+00	-2.892628e+01
1.710000e-06	-6.376156e-07	-3.661937e-10	-4.441625e+00	-2.791949e+01
1.720000e-06	-5.912610e-07	-3.514405e-10	-4.118720e+00	-2.689294e+01
1.730000e-06	-5.448397e-07	-3.352799e-10	-3.795349e+00	-2.584644e+01
1.740000e-06	-4.982850e-07	-3.189155e-10	-3.471050e+00	-2.477984e+01
1.750000e-06	-4.516287e-07	-3.018762e-10	-3.146042e+00	-2.369304e+01
1.760000e-06	-4.049942e-07	-2.849683e-10	-2.821187e+00	-2.258597e+01
1.770000e-06	-3.583964e-07	-2.680213e-10	-2.496587e+00	-2.145864e+01
1.780000e-06	-3.116370e-07	-2.515994e-10	-2.170861e+00	-2.031109e+01
1.790000e-06	-2.648254e-07	-2.353604e-10	-1.844772e+00	-1.914342e+01
1.800000e-06	-2.181301e-07	-2.202376e-10	-1.519493e+00	-1.795580e+01
1.810000e-06	-1.713517e-07	-2.060872e-10	-1.193635e+00	-1.674843e+01
1.820000e-06	-1.245331e-07	-1.903384e-10	-8.674967e-01	-1.552161e+01
1.830000e-06	-7.774505e-08	-1.743019e-10	-5.415715e-01	-1.427566e+01
1.840000e-06	-3.101705e-08	-1.591607e-10	-2.160645e-01	-1.301099e+01
1.850000e-06	1.563117e-08	-1.427979e-10	1.088866e-01	-1.172806e+01
1.860000e-06	6.227918e-08	-1.239118e-10	4.338363e-01	-1.042741e+01
1.870000e-06	1.089439e-07	-1.048439e-10	7.589025e-01	-9.109606e+00
1.880000e-06	1.556674e-07	-8.546518e-11	1.084378e+00	-7.775317e+00
1.890000e-06	2.023849e-07	-6.580711e-11	1.409812e+00	-6.425249e+00
1.900000e-06	2.489986e-07	-4.627383e-11	1.734523e+00	-5.060173e+00
1.910000e-06	2.956628e-07	-2.671198e-11	2.059585e+00	-3.680917e+00
1.920000e-06	3.423214e-07	-7.420137e-12	2.384608e+00	-2.288366e+00
1.930000e-06	3.889502e-07	1.072019e-11	2.709424e+00	-8.834567e-01
1.940000e-06	4.356218e-07	2.873316e-11	3.034538e+00	5.328228e-01
1.950000e-06	4.823098e-07	4.841848e-11	3.359767e+00	1.959438e+00
1.960000e-06	5.288533e-07	6.898067e-11	3.683988e+00	3.395310e+00
1.970000e-06	5.752449e-07	8.827543e-11	4.007152e+00	4.839321e+00
1.980000e-06	6.216788e-07	1.071734e-10	4.330610e+00	6.290317e+00
1.990000e-06	6.681041e-07	1.267690e-10	4.654009e+00	7.747110e+00
2.000000e-06	7.144179e-07	1.473730e-10	4.976630e+00	9.208487e+00
2.010000e-06	7.606061e-07	1.684430e-10	5.298376e+00	1.067321e+01
2.020000e-06	8.068483e-07	1.917328e-10	5.620499e+00	1.214003e+01
2.030000e-06	8.530217e-07	2.163035e-10	5.942143e+00	1.360767e+01
2.040000e-06	8.990258e-07	2.411647e-10	6.262607e+00	1.507487e+01
2.050000e-06	9.449970e-07	2.624004e-10	6.582842e+00	1.654034e+01
2.060000e-06	9.908809e-07	2.794421e-10	6.902469e+00	1.800280e+01
2.070000e-06	1.036751e-06	2.958103e-10	7.221997e+00	1.946098e+01
2.080000e-06	1.082602e-06	3.137493e-10	7.541400e+00	2.091364e+01
2.090000e-06	1.128366e-06	3.353407e-10	7.860190e+00	2.235952e+01
2.100000e-06	1.174037e-06	3.606846e-10	8.178336e+00	2.379742e+01
2.110000e-06	1.219610e-06	3.866833e-10	8.495792e+00	2.522613e+01
2.120000e-06	1.265088e-06	4.100205e-10	8.812592e+00	2.664450e+01
2.130000e-06	1.310410e-06	4.306827e-10	9.128308e+00	2.805139e+01
2.140000e-06	1.355644e-06	4.485320e-10	9.443407e+00	2.944574e+01
2.150000e-06	1.400864e-06	4.634850e-10	9.758410e+00	3.082648e+01
2.160000e-06	1.446055e-06	4.780158e-10	1.007321e+01	3.219263e+01
2.170000e-06	1.491157e-06	4.944661e-10	1.038739e+01	3.354324e+01
2.180000e-06	1.536074e-06	5.161757e-10	1.070028e+01	3.487741e+01
2.190000e-06	1.580806e-06	5.420413e-10	1.101188e+01	3.619430e+01
2.200000e-06	1.625477e-06	5.668931e-10	1.132306e+01	3.749314e+01
2.210000e-06	1.670045e-06	5.882762e-10	1.163352e+01	3.877319e+01
2.220000e-06	1.714527e-06	6.044637e-10	1.194338e+01	4.003380e+01
2.230000e-06	1.758925e-06	6.176230e-10	1.225266e+01	4.127437e+01
2.240000e-06	1.803113e-06	6.297409e-10	1.256047e+01	4.249436e+01
2.250000e-06	1.847224e-06	6.424331e-10	1.286775e+01	4.369329e+01
2.260000e-06	1.891251e-06	6.563039e-10	1.317444e+01	4.487075e+01
2.270000e-06	1.935151e-06	6.722615e-10	1.348025e+01	4.602639e+01
2.280000e-06	1.978986e-06	6.926351e-10	1.378560e+01	4.715992e+01
2.290000e-06	2.022775e-06	7.133264e-10	1.409064e+01	4.827111e+01
2.300000e-06	2.066521e-06	7.311442e-10	1.439537e+01	4.935979e+01
2.310000e-06	2.110150e-06	7.451391e-10	1.469929e+01	5.042586e+01
2.320000e-06	2.153647e-06	7.570151e-10	1.500229e+01	5.146925e+01
2.330000e-06	2.197031e-06	7.689307e-10	1.530450e+01	5.248996e+01
2.340000e-06	2.240263e-06	7.815506e-10	1.560566e+01	5.348805e+01
2.350000e-06	2.283259e-06	7.958779e-10	1.590517e+01	5.446360e+01
2.360000e-06	2.326070e-06	8.127011e-10	1.620338e+01	5.541676e+01
2.370000e-06	2.368773e-06	8.307830e-10	1.650086e+01	5.634771e+01
2.380000e-06	2.411198e-06	8.446242e-10	1.679639e+01	5.725668e+01
2.390000e-06	2.453213e-06	8.560045e-10	1.708906e+01	5.814392e+01
2.400000e-06	2.494913e-06	8.669908e-10	1.737955e+01	5.900974e+01
2.410000e-06	2.536223e-06	8.774673e-10	1.766731e+01	5.985445e+01
2.420000e-06	2.577225e-06	8.878081e-10	1.795293e+01	6.067840e+01
2.430000e-06	2.618104e-06	8.991940e-10	1.823769e+01	6.148197e+01
2.440000e-06	2.658741e-06	9.131368e-10	1.852077e+01	6.226554e+01
2.450000e-06	2.699071e-06	9.259052e-10	1.880171e+01	6.302954e+01
2.460000e-06	2.739228e-06	9.362547e-10	1.908144e+01	6.377438e+01
2.470000e-06	2.779225e-06	9.470377e-10	1.936006e+01	6.450049e+01
2.480000e-06	2.818994e-06	9.580801e-10	1.963709e+01	6.520833e+01
2.490000e-06	2.858655e-06	9.687145e-10	1.991337e+01	6.589833e+01
2.500000e-06	2.898251e-06	9.779405e-10	2.018919e+01	6.657095e+01
2.510000e-06	2.937709e-06	9.869770e-10	2.046406e+01	6.722665e+01
2.520000e-06	2.976998e-06	9.982313e-10	2.073774e+01	6.786586e+01
2.530000e-06	3.016082e-06	1.009552e-09	2.101000e+01	6.848904e+01
2.540000e-06	3.054937e-06	1.018282e-09	2.128067e+01	6.909663e+01
2.550000e-06	3.093596e-06	1.025532e-09	2.154997e+01	6.968906e+01
2.560000e-06	3.132020e-06	1.031160e-09	2.181763e+01	7.026676e+01
2.570000e-06	3.170184e-06	1.035913e-09	2.208348e+01	7.083014e+01
2.580000e-06	3.208195e-06	1.042249e-09	2.234826e+01	7.137961e+01
2.590000e-06	3.246047e-06	1.049365e-09	2.261194e+01	7.191556e+01
2.600000e-06	3.283688e-06	1.058017e-09	2.287414e+01	7.243838e+01
2.610000e-06	3.321127e-06	1.067811e-09	2.313494e+01	7.294844e+01
2.620000e-06	3.358346e-06	1.076196e-09	2.339422e+01	7.344609e+01
2.630000e-06	3.395293e-06	1.082124e-09	2.365159e+01	7.393168e+01
2.640000e-06	3.431957e-06	1.086989e-09	2.390699e+01	7.440554e+01
2.650000e-06	3.468370e-06	1.092605e-09	2.416064e+01	7.486799e+01
2.660000e-06	3.504519e-06	1.099924e-09	2.441246e+01	7.531934e+01
2.670000e-06	3.540489e-06	1.106964e-09	2.466302e+01	7.575988e+01
2.680000e-06	3.576366e-06	1.111837e-09	2.491294e+01	7.618990e+01
2.690000e-06	3.612114e-06	1.117237e-09	2.516196e+01	7.660968e+01
2.700000e-06	3.647714e-06	1.123444e-09	2.540995e+01	7.701948e+01
2.710000e-06	3.683090e-06	1.129213e-09	2.565638e+01	7.741955e+01
2.720000e-06	3.718177e-06	1.134400e-09	2.590080e+01	7.781014e+01
2.730000e-06	3.752963e-06	1.140269e-09	2.614311e+01	7.819148e+01
2.740000e-06	3.787499e-06	1.147264e-09	2.638369e+01	7.856381e+01
2.750000e-06	3.821699e-06	1.152524e-09	2.662193e+01	7.892734e+01
2.760000e-06	3.855261e-06	1.156382e-09	2.685572e+01	7.928230e+01
2.770000e-06	3.888213e-06	1.160015e-09	2.708526e+01	7.962888e+01
2.780000e-06	3.920798e-06	1.164282e-09	2.731225e+01	7.996731e+01
2.790000e-06	3.953055e-06	1.169928e-09	2.753695e+01	8.029777e+01
2.800000e-06	3.985051e-06	1.175993e-09	2.775984e+01	8.062046e+01
2.810000e-06	4.016912e-06	1.182481e-09	2.798178e+01	8.093557e+01
2.820000e-06	4.048606e-06	1.190643e-09	2.820256e+01	8.124328e+01
2.830000e-06	4.080137e-06	1.200621e-09	2.842220e+01	8.154377e+01
2.840000e-06	4.111474e-06	1.209064e-09	2.864050e+01	8.183723e+01
2.850000e-06	4.142547e-06	1.214587e-09	2.885695e+01	8.212382e+01
2.860000e-06	4.173330e-06	1.217192e-09	2.907139e+01	8.240370e+01
2.870000e-06	4.203716e-06	1.217051e-09	2.928305e+01	8.267705e+01
2.880000e-06	4.233758e-06	1.217340e-09	2.949232e+01	8.294401e+01
2.890000e-06	4.263600e-06	1.220369e-09	2.970021e+01	8.320474e+01
2.900000e-06	4.293136e-06	1.227279e-09	2.990595e+01	8.345939e+01
