# Temperatura_=_-2.1
# Concentracion g/m^3_=_1620.0
# C_Vs_to_Am_M_A/Vsm_=_65563218390.804596
# pendiente_HvsI_1/m_=_3716.3
# ordenada_HvsI_A/m_=_1297.0
# frecuencia_Hz_=_135106.81804818

Tiempo_(s)	Campo_(V.s)	Magnetizacion_(V.s)	Campo_(kA/m)	Magnetizacion_(A/m)
0.000000e+00	-5.522008e-06	-9.063667e-10	-3.837567e+01	-6.083892e+01
1.000000e-08	-5.522203e-06	-9.042470e-10	-3.837703e+01	-6.083483e+01
2.000000e-08	-5.522077e-06	-9.052916e-10	-3.837615e+01	-6.083165e+01
3.000000e-08	-5.521556e-06	-9.044277e-10	-3.837253e+01	-6.082907e+01
4.000000e-08	-5.520493e-06	-8.969965e-10	-3.836515e+01	-6.082670e+01
5.000000e-08	-5.518825e-06	-8.854859e-10	-3.835355e+01	-6.082420e+01
6.000000e-08	-5.516687e-06	-8.922054e-10	-3.833870e+01	-6.082120e+01
7.000000e-08	-5.514113e-06	-9.554896e-10	-3.832081e+01	-6.081732e+01
8.000000e-08	-5.511049e-06	-9.915958e-10	-3.829952e+01	-6.081221e+01
9.000000e-08	-5.507497e-06	-8.730469e-10	-3.827483e+01	-6.080548e+01
1.000000e-07	-5.503534e-06	-7.693426e-10	-3.824729e+01	-6.079680e+01
1.100000e-07	-5.499341e-06	-8.866876e-10	-3.821815e+01	-6.078580e+01
1.200000e-07	-5.494793e-06	-9.853135e-10	-3.818654e+01	-6.077216e+01
1.300000e-07	-5.489774e-06	-9.291765e-10	-3.815166e+01	-6.075556e+01
1.400000e-07	-5.484496e-06	-8.090574e-10	-3.811498e+01	-6.073570e+01
1.500000e-07	-5.479029e-06	-8.891950e-10	-3.807699e+01	-6.071229e+01
1.600000e-07	-5.473083e-06	-9.828217e-10	-3.803567e+01	-6.068507e+01
1.700000e-07	-5.466617e-06	-9.131970e-10	-3.799073e+01	-6.065382e+01
1.800000e-07	-5.459855e-06	-8.331285e-10	-3.794374e+01	-6.061831e+01
1.900000e-07	-5.452786e-06	-8.704747e-10	-3.789462e+01	-6.057837e+01
2.000000e-07	-5.445333e-06	-9.698834e-10	-3.784282e+01	-6.053383e+01
2.100000e-07	-5.437652e-06	-9.428367e-10	-3.778944e+01	-6.048457e+01
2.200000e-07	-5.429760e-06	-8.991202e-10	-3.773459e+01	-6.043048e+01
2.300000e-07	-5.421438e-06	-8.876960e-10	-3.767675e+01	-6.037149e+01
2.400000e-07	-5.412446e-06	-9.331352e-10	-3.761426e+01	-6.030756e+01
2.500000e-07	-5.402840e-06	-9.151536e-10	-3.754751e+01	-6.023867e+01
2.600000e-07	-5.392832e-06	-8.977863e-10	-3.747795e+01	-6.016484e+01
2.700000e-07	-5.382211e-06	-8.846270e-10	-3.740415e+01	-6.008610e+01
2.800000e-07	-5.370999e-06	-9.156942e-10	-3.732622e+01	-6.000253e+01
2.900000e-07	-5.359506e-06	-9.040983e-10	-3.724635e+01	-5.991420e+01
3.000000e-07	-5.347623e-06	-8.673950e-10	-3.716377e+01	-5.982125e+01
3.100000e-07	-5.335159e-06	-8.533571e-10	-3.707716e+01	-5.972379e+01
3.200000e-07	-5.322322e-06	-9.012455e-10	-3.698794e+01	-5.962200e+01
3.300000e-07	-5.309256e-06	-8.991237e-10	-3.689714e+01	-5.951603e+01
3.400000e-07	-5.295702e-06	-8.470064e-10	-3.680294e+01	-5.940609e+01
3.500000e-07	-5.281660e-06	-8.732230e-10	-3.670535e+01	-5.929237e+01
3.600000e-07	-5.267327e-06	-9.182521e-10	-3.660575e+01	-5.917509e+01
3.700000e-07	-5.252452e-06	-8.547381e-10	-3.650237e+01	-5.905448e+01
3.800000e-07	-5.236961e-06	-8.335991e-10	-3.639472e+01	-5.893076e+01
3.900000e-07	-5.221066e-06	-9.298776e-10	-3.628425e+01	-5.880418e+01
4.000000e-07	-5.204774e-06	-8.929961e-10	-3.617103e+01	-5.867496e+01
4.100000e-07	-5.188045e-06	-7.904094e-10	-3.605477e+01	-5.854335e+01
4.200000e-07	-5.170950e-06	-8.793233e-10	-3.593597e+01	-5.840959e+01
4.300000e-07	-5.153579e-06	-9.609029e-10	-3.581524e+01	-5.827389e+01
4.400000e-07	-5.135847e-06	-8.151154e-10	-3.569202e+01	-5.813650e+01
4.500000e-07	-5.117671e-06	-8.102138e-10	-3.556570e+01	-5.799761e+01
4.600000e-07	-5.099085e-06	-9.509167e-10	-3.543654e+01	-5.785745e+01
4.700000e-07	-5.080150e-06	-8.915259e-10	-3.530495e+01	-5.771619e+01
4.800000e-07	-5.060960e-06	-7.874071e-10	-3.517158e+01	-5.757403e+01
4.900000e-07	-5.041565e-06	-9.175415e-10	-3.503680e+01	-5.743112e+01
5.000000e-07	-5.021928e-06	-9.210036e-10	-3.490033e+01	-5.728762e+01
5.100000e-07	-5.001945e-06	-7.910388e-10	-3.476145e+01	-5.714366e+01
5.200000e-07	-4.981686e-06	-8.638635e-10	-3.462066e+01	-5.699935e+01
5.300000e-07	-4.961240e-06	-9.567946e-10	-3.447857e+01	-5.685479e+01
5.400000e-07	-4.940403e-06	-8.143580e-10	-3.433376e+01	-5.671005e+01
5.500000e-07	-4.919151e-06	-8.078697e-10	-3.418607e+01	-5.656520e+01
5.600000e-07	-4.897568e-06	-9.321001e-10	-3.403608e+01	-5.642027e+01
5.700000e-07	-4.875565e-06	-8.699346e-10	-3.388316e+01	-5.627528e+01
5.800000e-07	-4.853123e-06	-8.015078e-10	-3.372720e+01	-5.613025e+01
5.900000e-07	-4.830431e-06	-9.080046e-10	-3.356950e+01	-5.598514e+01
6.000000e-07	-4.807524e-06	-8.889455e-10	-3.341031e+01	-5.583994e+01
6.100000e-07	-4.784287e-06	-7.945193e-10	-3.324882e+01	-5.569459e+01
6.200000e-07	-4.760792e-06	-8.532271e-10	-3.308554e+01	-5.554903e+01
6.300000e-07	-4.737078e-06	-8.827329e-10	-3.292074e+01	-5.540318e+01
6.400000e-07	-4.712977e-06	-8.069422e-10	-3.275325e+01	-5.525695e+01
6.500000e-07	-4.688412e-06	-8.358042e-10	-3.258253e+01	-5.511024e+01
6.600000e-07	-4.663425e-06	-8.835482e-10	-3.240888e+01	-5.496293e+01
6.700000e-07	-4.638024e-06	-8.236592e-10	-3.223235e+01	-5.481490e+01
6.800000e-07	-4.612158e-06	-8.228986e-10	-3.205259e+01	-5.466602e+01
6.900000e-07	-4.585817e-06	-8.698120e-10	-3.186953e+01	-5.451616e+01
7.000000e-07	-4.559023e-06	-8.379843e-10	-3.168333e+01	-5.436518e+01
7.100000e-07	-4.531854e-06	-8.177835e-10	-3.149451e+01	-5.421292e+01
7.200000e-07	-4.504467e-06	-8.614795e-10	-3.130419e+01	-5.405925e+01
7.300000e-07	-4.476868e-06	-8.414531e-10	-3.111238e+01	-5.390401e+01
7.400000e-07	-4.449040e-06	-8.105407e-10	-3.091899e+01	-5.374707e+01
7.500000e-07	-4.420967e-06	-8.314956e-10	-3.072389e+01	-5.358827e+01
7.600000e-07	-4.392561e-06	-8.324277e-10	-3.052649e+01	-5.342747e+01
7.700000e-07	-4.363826e-06	-8.014592e-10	-3.032679e+01	-5.326453e+01
7.800000e-07	-4.334849e-06	-8.231660e-10	-3.012541e+01	-5.309933e+01
7.900000e-07	-4.305601e-06	-8.320510e-10	-2.992215e+01	-5.293174e+01
8.000000e-07	-4.276060e-06	-8.013358e-10	-2.971685e+01	-5.276163e+01
8.100000e-07	-4.246277e-06	-7.974653e-10	-2.950987e+01	-5.258889e+01
8.200000e-07	-4.216119e-06	-8.156686e-10	-2.930028e+01	-5.241342e+01
8.300000e-07	-4.185548e-06	-7.917097e-10	-2.908783e+01	-5.223512e+01
8.400000e-07	-4.154708e-06	-7.802243e-10	-2.887350e+01	-5.205390e+01
8.500000e-07	-4.123660e-06	-7.964854e-10	-2.865773e+01	-5.186968e+01
8.600000e-07	-4.092416e-06	-7.912609e-10	-2.844060e+01	-5.168239e+01
8.700000e-07	-4.060984e-06	-7.713169e-10	-2.822216e+01	-5.149197e+01
8.800000e-07	-4.029399e-06	-7.836038e-10	-2.800266e+01	-5.129835e+01
8.900000e-07	-3.997589e-06	-7.858987e-10	-2.778160e+01	-5.110150e+01
9.000000e-07	-3.965433e-06	-7.652517e-10	-2.755812e+01	-5.090138e+01
9.100000e-07	-3.932956e-06	-7.670706e-10	-2.733242e+01	-5.069795e+01
9.200000e-07	-3.900170e-06	-7.736596e-10	-2.710457e+01	-5.049119e+01
9.300000e-07	-3.866986e-06	-7.509623e-10	-2.687396e+01	-5.028108e+01
9.400000e-07	-3.833348e-06	-7.404887e-10	-2.664019e+01	-5.006761e+01
9.500000e-07	-3.799269e-06	-7.538817e-10	-2.640335e+01	-4.985078e+01
9.600000e-07	-3.764754e-06	-7.463766e-10	-2.616349e+01	-4.963058e+01
9.700000e-07	-3.729889e-06	-7.314822e-10	-2.592119e+01	-4.940702e+01
9.800000e-07	-3.694733e-06	-7.353944e-10	-2.567687e+01	-4.918009e+01
9.900000e-07	-3.659363e-06	-7.364305e-10	-2.543106e+01	-4.894981e+01
1.000000e-06	-3.623874e-06	-7.204195e-10	-2.518443e+01	-4.871619e+01
1.010000e-06	-3.588260e-06	-7.185375e-10	-2.493693e+01	-4.847923e+01
1.020000e-06	-3.552472e-06	-7.218594e-10	-2.468822e+01	-4.823896e+01
1.030000e-06	-3.516477e-06	-7.123762e-10	-2.443807e+01	-4.799537e+01
1.040000e-06	-3.480227e-06	-7.049193e-10	-2.418614e+01	-4.774849e+01
1.050000e-06	-3.443711e-06	-7.082613e-10	-2.393237e+01	-4.749832e+01
1.060000e-06	-3.406903e-06	-6.991458e-10	-2.367657e+01	-4.724486e+01
1.070000e-06	-3.369821e-06	-6.905569e-10	-2.341887e+01	-4.698813e+01
1.080000e-06	-3.332464e-06	-6.894269e-10	-2.315925e+01	-4.672812e+01
1.090000e-06	-3.294803e-06	-6.855688e-10	-2.289752e+01	-4.646484e+01
1.100000e-06	-3.256997e-06	-6.747655e-10	-2.263478e+01	-4.619828e+01
1.110000e-06	-3.219036e-06	-6.749099e-10	-2.237097e+01	-4.592844e+01
1.120000e-06	-3.180825e-06	-6.748628e-10	-2.210542e+01	-4.565530e+01
1.130000e-06	-3.142373e-06	-6.674883e-10	-2.183819e+01	-4.537884e+01
1.140000e-06	-3.103659e-06	-6.611933e-10	-2.156915e+01	-4.509905e+01
1.150000e-06	-3.064777e-06	-6.585650e-10	-2.129893e+01	-4.481590e+01
1.160000e-06	-3.025700e-06	-6.511830e-10	-2.102736e+01	-4.452937e+01
1.170000e-06	-2.986418e-06	-6.467732e-10	-2.075437e+01	-4.423941e+01
1.180000e-06	-2.947027e-06	-6.470009e-10	-2.048062e+01	-4.394599e+01
1.190000e-06	-2.907513e-06	-6.434907e-10	-2.020602e+01	-4.364906e+01
1.200000e-06	-2.867912e-06	-6.372320e-10	-1.993080e+01	-4.334857e+01
1.210000e-06	-2.828222e-06	-6.354249e-10	-1.965498e+01	-4.304447e+01
1.220000e-06	-2.788422e-06	-6.307565e-10	-1.937838e+01	-4.273670e+01
1.230000e-06	-2.748457e-06	-6.212992e-10	-1.910064e+01	-4.242518e+01
1.240000e-06	-2.708243e-06	-6.155797e-10	-1.882117e+01	-4.210985e+01
1.250000e-06	-2.667770e-06	-6.109020e-10	-1.853990e+01	-4.179063e+01
1.260000e-06	-2.627015e-06	-6.036628e-10	-1.825667e+01	-4.146743e+01
1.270000e-06	-2.585899e-06	-5.966613e-10	-1.797093e+01	-4.114016e+01
1.280000e-06	-2.544329e-06	-5.935157e-10	-1.768204e+01	-4.080872e+01
1.290000e-06	-2.502476e-06	-5.894557e-10	-1.739118e+01	-4.047301e+01
1.300000e-06	-2.460504e-06	-5.847984e-10	-1.709949e+01	-4.013292e+01
1.310000e-06	-2.418288e-06	-5.791844e-10	-1.680610e+01	-3.978832e+01
1.320000e-06	-2.375802e-06	-5.740538e-10	-1.651084e+01	-3.943909e+01
1.330000e-06	-2.333049e-06	-5.690710e-10	-1.621373e+01	-3.908509e+01
1.340000e-06	-2.289988e-06	-5.639157e-10	-1.591447e+01	-3.872618e+01
1.350000e-06	-2.246742e-06	-5.561998e-10	-1.561393e+01	-3.836220e+01
1.360000e-06	-2.203420e-06	-5.493167e-10	-1.531286e+01	-3.799298e+01
1.370000e-06	-2.159975e-06	-5.441718e-10	-1.501094e+01	-3.761835e+01
1.380000e-06	-2.116403e-06	-5.417321e-10	-1.470813e+01	-3.723814e+01
1.390000e-06	-2.072759e-06	-5.399002e-10	-1.440482e+01	-3.685213e+01
1.400000e-06	-2.029032e-06	-5.374500e-10	-1.410093e+01	-3.646013e+01
1.410000e-06	-1.985234e-06	-5.314593e-10	-1.379655e+01	-3.606191e+01
1.420000e-06	-1.941339e-06	-5.242375e-10	-1.349151e+01	-3.565726e+01
1.430000e-06	-1.897311e-06	-5.155105e-10	-1.318553e+01	-3.524591e+01
1.440000e-06	-1.853229e-06	-5.056475e-10	-1.287918e+01	-3.482763e+01
1.450000e-06	-1.809102e-06	-4.963079e-10	-1.257251e+01	-3.440214e+01
1.460000e-06	-1.764827e-06	-4.904218e-10	-1.226482e+01	-3.396917e+01
1.470000e-06	-1.720347e-06	-4.840395e-10	-1.195570e+01	-3.352842e+01
1.480000e-06	-1.675718e-06	-4.759907e-10	-1.164555e+01	-3.307960e+01
1.490000e-06	-1.630946e-06	-4.681786e-10	-1.133440e+01	-3.262239e+01
1.500000e-06	-1.586089e-06	-4.620094e-10	-1.102267e+01	-3.215647e+01
1.510000e-06	-1.541135e-06	-4.555739e-10	-1.071025e+01	-3.168150e+01
1.520000e-06	-1.496021e-06	-4.474979e-10	-1.039672e+01	-3.119715e+01
1.530000e-06	-1.450794e-06	-4.366271e-10	-1.008242e+01	-3.070306e+01
1.540000e-06	-1.405434e-06	-4.251458e-10	-9.767187e+00	-3.019888e+01
1.550000e-06	-1.359963e-06	-4.161406e-10	-9.451179e+00	-2.968424e+01
1.560000e-06	-1.314440e-06	-4.068427e-10	-9.134819e+00	-2.915877e+01
1.570000e-06	-1.268882e-06	-3.977550e-10	-8.818204e+00	-2.862210e+01
1.580000e-06	-1.223216e-06	-3.903990e-10	-8.500846e+00	-2.807387e+01
1.590000e-06	-1.177435e-06	-3.846013e-10	-8.182688e+00	-2.751369e+01
1.600000e-06	-1.131580e-06	-3.801132e-10	-7.864011e+00	-2.694121e+01
1.610000e-06	-1.085651e-06	-3.736802e-10	-7.544826e+00	-2.635605e+01
1.620000e-06	-1.039657e-06	-3.631326e-10	-7.225190e+00	-2.575786e+01
1.630000e-06	-9.935387e-07	-3.521919e-10	-6.904684e+00	-2.514630e+01
1.640000e-06	-9.472513e-07	-3.430142e-10	-6.583006e+00	-2.452102e+01
1.650000e-06	-9.009626e-07	-3.334027e-10	-6.261318e+00	-2.388171e+01
1.660000e-06	-8.546953e-07	-3.234306e-10	-5.939779e+00	-2.322805e+01
1.670000e-06	-8.081888e-07	-3.135506e-10	-5.616578e+00	-2.255977e+01
1.680000e-06	-7.615542e-07	-2.993156e-10	-5.292487e+00	-2.187659e+01
1.690000e-06	-7.150326e-07	-2.859031e-10	-4.969182e+00	-2.117828e+01
1.700000e-06	-6.685009e-07	-2.754296e-10	-4.645805e+00	-2.046461e+01
1.710000e-06	-6.218607e-07	-2.654509e-10	-4.321675e+00	-1.973542e+01
1.720000e-06	-5.751132e-07	-2.527535e-10	-3.996800e+00	-1.899053e+01
1.730000e-06	-5.283934e-07	-2.390061e-10	-3.672116e+00	-1.822984e+01
1.740000e-06	-4.817090e-07	-2.244766e-10	-3.347679e+00	-1.745326e+01
1.750000e-06	-4.349437e-07	-2.097326e-10	-3.022679e+00	-1.666074e+01
1.760000e-06	-3.881073e-07	-1.958257e-10	-2.697186e+00	-1.585227e+01
1.770000e-06	-3.412336e-07	-1.850031e-10	-2.371433e+00	-1.502791e+01
1.780000e-06	-2.943657e-07	-1.752207e-10	-2.045720e+00	-1.418771e+01
1.790000e-06	-2.474501e-07	-1.651084e-10	-1.719676e+00	-1.333182e+01
1.800000e-06	-2.005141e-07	-1.545025e-10	-1.393490e+00	-1.246039e+01
1.810000e-06	-1.535909e-07	-1.421797e-10	-1.067393e+00	-1.157366e+01
1.820000e-06	-1.067203e-07	-1.302161e-10	-7.416620e-01	-1.067187e+01
1.830000e-06	-5.981944e-08	-1.184488e-10	-4.157204e-01	-9.755354e+00
1.840000e-06	-1.287590e-08	-1.062934e-10	-8.948222e-02	-8.824462e+00
1.850000e-06	3.402059e-08	-9.344419e-11	2.364290e-01	-7.879606e+00
1.860000e-06	8.089986e-08	-8.173194e-11	5.622206e-01	-6.921243e+00
1.870000e-06	1.277285e-07	-6.630568e-11	8.876601e-01	-5.949874e+00
1.880000e-06	1.745316e-07	-4.871558e-11	1.212923e+00	-4.966051e+00
1.890000e-06	2.214162e-07	-3.417361e-11	1.538751e+00	-3.970365e+00
1.900000e-06	2.683599e-07	-2.249801e-11	1.864990e+00	-2.963454e+00
1.910000e-06	3.151917e-07	-9.844597e-12	2.190452e+00	-1.945995e+00
1.920000e-06	3.619428e-07	3.626881e-12	2.515353e+00	-9.187048e-01
1.930000e-06	4.086101e-07	1.582670e-11	2.839672e+00	1.176623e-01
1.940000e-06	4.551749e-07	3.159099e-11	3.163278e+00	1.162319e+00
1.950000e-06	5.017689e-07	4.842731e-11	3.487086e+00	2.214446e+00
1.960000e-06	5.483402e-07	6.238007e-11	3.810738e+00	3.273194e+00
1.970000e-06	5.949014e-07	7.607586e-11	4.134319e+00	4.337692e+00
1.980000e-06	6.413993e-07	8.921141e-11	4.457460e+00	5.407043e+00
1.990000e-06	6.878149e-07	1.012104e-10	4.780029e+00	6.480333e+00
2.000000e-06	7.342411e-07	1.124317e-10	5.102673e+00	7.556632e+00
2.010000e-06	7.806038e-07	1.283226e-10	5.424874e+00	8.635000e+00
2.020000e-06	8.269017e-07	1.492017e-10	5.746626e+00	9.714487e+00
2.030000e-06	8.731359e-07	1.700489e-10	6.067934e+00	1.079414e+01
2.040000e-06	9.193093e-07	1.882383e-10	6.388820e+00	1.187300e+01
2.050000e-06	9.654412e-07	2.026873e-10	6.709418e+00	1.295013e+01
2.060000e-06	1.011540e-06	2.137226e-10	7.029789e+00	1.402458e+01
2.070000e-06	1.057615e-06	2.256258e-10	7.349988e+00	1.509540e+01
2.080000e-06	1.103651e-06	2.407659e-10	7.669916e+00	1.616169e+01
2.090000e-06	1.149573e-06	2.569824e-10	7.989058e+00	1.722255e+01
2.100000e-06	1.195290e-06	2.764501e-10	8.306774e+00	1.827708e+01
2.110000e-06	1.240953e-06	2.952777e-10	8.624111e+00	1.932443e+01
2.120000e-06	1.286582e-06	3.092333e-10	8.941211e+00	2.036376e+01
2.130000e-06	1.332064e-06	3.202698e-10	9.257293e+00	2.139428e+01
2.140000e-06	1.377474e-06	3.323946e-10	9.572877e+00	2.241521e+01
2.150000e-06	1.422786e-06	3.457556e-10	9.887775e+00	2.342581e+01
2.160000e-06	1.467941e-06	3.600118e-10	1.020158e+01	2.442537e+01
2.170000e-06	1.512969e-06	3.773286e-10	1.051451e+01	2.541324e+01
2.180000e-06	1.557871e-06	3.974788e-10	1.082656e+01	2.638878e+01
2.190000e-06	1.602666e-06	4.129709e-10	1.113787e+01	2.735141e+01
2.200000e-06	1.647358e-06	4.242875e-10	1.144846e+01	2.830058e+01
2.210000e-06	1.691945e-06	4.345500e-10	1.175832e+01	2.923579e+01
2.220000e-06	1.736404e-06	4.427988e-10	1.206729e+01	3.015657e+01
2.230000e-06	1.780727e-06	4.528009e-10	1.237532e+01	3.106250e+01
2.240000e-06	1.824907e-06	4.652606e-10	1.268235e+01	3.195321e+01
2.250000e-06	1.868984e-06	4.791520e-10	1.298867e+01	3.282836e+01
2.260000e-06	1.913014e-06	4.920492e-10	1.329466e+01	3.368766e+01
2.270000e-06	1.956967e-06	5.073877e-10	1.360012e+01	3.453086e+01
2.280000e-06	2.000824e-06	5.235707e-10	1.390490e+01	3.535773e+01
2.290000e-06	2.044553e-06	5.391721e-10	1.420880e+01	3.616812e+01
2.300000e-06	2.088197e-06	5.510044e-10	1.451210e+01	3.696187e+01
2.310000e-06	2.131807e-06	5.596350e-10	1.481518e+01	3.773890e+01
2.320000e-06	2.175287e-06	5.680693e-10	1.511734e+01	3.849914e+01
2.330000e-06	2.218624e-06	5.766684e-10	1.541852e+01	3.924254e+01
2.340000e-06	2.261858e-06	5.872400e-10	1.571898e+01	3.996913e+01
2.350000e-06	2.304907e-06	6.017295e-10	1.601815e+01	4.067891e+01
2.360000e-06	2.347718e-06	6.199499e-10	1.631567e+01	4.137195e+01
2.370000e-06	2.390318e-06	6.330012e-10	1.661172e+01	4.204834e+01
2.380000e-06	2.432673e-06	6.398935e-10	1.690607e+01	4.270817e+01
2.390000e-06	2.474748e-06	6.439522e-10	1.719848e+01	4.335158e+01
2.400000e-06	2.516549e-06	6.466337e-10	1.748898e+01	4.397872e+01
2.410000e-06	2.558068e-06	6.492613e-10	1.777751e+01	4.458975e+01
2.420000e-06	2.599400e-06	6.544390e-10	1.806476e+01	4.518485e+01
2.430000e-06	2.640449e-06	6.659654e-10	1.835003e+01	4.576424e+01
2.440000e-06	2.681136e-06	6.811176e-10	1.863279e+01	4.632812e+01
2.450000e-06	2.721531e-06	6.937486e-10	1.891352e+01	4.687671e+01
2.460000e-06	2.761715e-06	7.036422e-10	1.919278e+01	4.741026e+01
2.470000e-06	2.801726e-06	7.099482e-10	1.947084e+01	4.792900e+01
2.480000e-06	2.841545e-06	7.140905e-10	1.974756e+01	4.843319e+01
2.490000e-06	2.881284e-06	7.184439e-10	2.002373e+01	4.892309e+01
2.500000e-06	2.920929e-06	7.232231e-10	2.029925e+01	4.939896e+01
2.510000e-06	2.960385e-06	7.280260e-10	2.057346e+01	4.986108e+01
2.520000e-06	2.999672e-06	7.349042e-10	2.084648e+01	5.030971e+01
2.530000e-06	3.038706e-06	7.422038e-10	2.111775e+01	5.074515e+01
2.540000e-06	3.077486e-06	7.486074e-10	2.138726e+01	5.116766e+01
2.550000e-06	3.116050e-06	7.553535e-10	2.165526e+01	5.157753e+01
2.560000e-06	3.154428e-06	7.613367e-10	2.192197e+01	5.197505e+01
2.570000e-06	3.192632e-06	7.642965e-10	2.218748e+01	5.236051e+01
2.580000e-06	3.230643e-06	7.651450e-10	2.245163e+01	5.273419e+01
2.590000e-06	3.268463e-06	7.674106e-10	2.271447e+01	5.309639e+01
2.600000e-06	3.306036e-06	7.731809e-10	2.297558e+01	5.344739e+01
2.610000e-06	3.343373e-06	7.791472e-10	2.323506e+01	5.378749e+01
2.620000e-06	3.380476e-06	7.830835e-10	2.349291e+01	5.411699e+01
2.630000e-06	3.417397e-06	7.862300e-10	2.374950e+01	5.443617e+01
2.640000e-06	3.454065e-06	7.889307e-10	2.400433e+01	5.474533e+01
2.650000e-06	3.490412e-06	7.930078e-10	2.425693e+01	5.504476e+01
2.660000e-06	3.526584e-06	7.985569e-10	2.450831e+01	5.533477e+01
2.670000e-06	3.562613e-06	8.026350e-10	2.475869e+01	5.561565e+01
2.680000e-06	3.598468e-06	8.053991e-10	2.500787e+01	5.588769e+01
2.690000e-06	3.634158e-06	8.102270e-10	2.525590e+01	5.615119e+01
2.700000e-06	3.669656e-06	8.164569e-10	2.550259e+01	5.640645e+01
2.710000e-06	3.704925e-06	8.216147e-10	2.574770e+01	5.665375e+01
2.720000e-06	3.739829e-06	8.238231e-10	2.599027e+01	5.689339e+01
2.730000e-06	3.774405e-06	8.238487e-10	2.623056e+01	5.712567e+01
2.740000e-06	3.808692e-06	8.248065e-10	2.646884e+01	5.735086e+01
2.750000e-06	3.842615e-06	8.288440e-10	2.670459e+01	5.756925e+01
2.760000e-06	3.876167e-06	8.341974e-10	2.693776e+01	5.778113e+01
2.770000e-06	3.909300e-06	8.408686e-10	2.716802e+01	5.798677e+01
2.780000e-06	3.942054e-06	8.477867e-10	2.739565e+01	5.818643e+01
2.790000e-06	3.974509e-06	8.532184e-10	2.762120e+01	5.838039e+01
2.800000e-06	4.006661e-06	8.562532e-10	2.784464e+01	5.856889e+01
2.810000e-06	4.038503e-06	8.563990e-10	2.806593e+01	5.875218e+01
2.820000e-06	4.070086e-06	8.570736e-10	2.828542e+01	5.893050e+01
2.830000e-06	4.101447e-06	8.602464e-10	2.850337e+01	5.910408e+01
2.840000e-06	4.132597e-06	8.648779e-10	2.871985e+01	5.927312e+01
2.850000e-06	4.163531e-06	8.723188e-10	2.893482e+01	5.943784e+01
2.860000e-06	4.194207e-06	8.783646e-10	2.914801e+01	5.959841e+01
2.870000e-06	4.224546e-06	8.806331e-10	2.935885e+01	5.975502e+01
2.880000e-06	4.254575e-06	8.809298e-10	2.956754e+01	5.990781e+01
2.890000e-06	4.284315e-06	8.835351e-10	2.977422e+01	6.005694e+01
2.900000e-06	4.313776e-06	8.873096e-10	2.997896e+01	6.020252e+01
2.910000e-06	4.342964e-06	8.910919e-10	3.018181e+01	6.034466e+01
