# Temperatura_=_-0.54
# Concentracion g/m^3_=_1620.0
# C_Vs_to_Am_M_A/Vsm_=_65563218390.804596
# pendiente_HvsI_1/m_=_3716.3
# ordenada_HvsI_A/m_=_1297.0
# frecuencia_Hz_=_135096.06704980702

Tiempo_(s)	Campo_(V.s)	Magnetizacion_(V.s)	Campo_(kA/m)	Magnetizacion_(A/m)
0.000000e+00	-5.523056e-06	-1.344687e-09	-3.837508e+01	-9.081356e+01
1.000000e-08	-5.523154e-06	-1.342809e-09	-3.837576e+01	-9.077627e+01
2.000000e-08	-5.523154e-06	-1.344818e-09	-3.837575e+01	-9.073729e+01
3.000000e-08	-5.522910e-06	-1.349590e-09	-3.837406e+01	-9.069649e+01
4.000000e-08	-5.522178e-06	-1.351277e-09	-3.836897e+01	-9.065373e+01
5.000000e-08	-5.520853e-06	-1.338671e-09	-3.835976e+01	-9.060888e+01
6.000000e-08	-5.518922e-06	-1.316529e-09	-3.834635e+01	-9.056176e+01
7.000000e-08	-5.516400e-06	-1.301973e-09	-3.832883e+01	-9.051222e+01
8.000000e-08	-5.513438e-06	-1.340868e-09	-3.830825e+01	-9.046009e+01
9.000000e-08	-5.509958e-06	-1.456666e-09	-3.828407e+01	-9.040520e+01
1.000000e-07	-5.505970e-06	-1.524416e-09	-3.825636e+01	-9.034736e+01
1.100000e-07	-5.501634e-06	-1.367580e-09	-3.822623e+01	-9.028640e+01
1.200000e-07	-5.497099e-06	-1.169501e-09	-3.819472e+01	-9.022215e+01
1.300000e-07	-5.492432e-06	-1.244206e-09	-3.816229e+01	-9.015443e+01
1.400000e-07	-5.487314e-06	-1.417473e-09	-3.812673e+01	-9.008307e+01
1.500000e-07	-5.481683e-06	-1.382519e-09	-3.808761e+01	-9.000790e+01
1.600000e-07	-5.475781e-06	-1.227260e-09	-3.804660e+01	-8.992876e+01
1.700000e-07	-5.469568e-06	-1.280300e-09	-3.800343e+01	-8.984551e+01
1.800000e-07	-5.462823e-06	-1.465549e-09	-3.795657e+01	-8.975800e+01
1.900000e-07	-5.455584e-06	-1.418122e-09	-3.790626e+01	-8.966610e+01
2.000000e-07	-5.448043e-06	-1.248912e-09	-3.785387e+01	-8.956968e+01
2.100000e-07	-5.440310e-06	-1.248183e-09	-3.780014e+01	-8.946866e+01
2.200000e-07	-5.432370e-06	-1.411567e-09	-3.774497e+01	-8.936292e+01
2.300000e-07	-5.424107e-06	-1.441359e-09	-3.768756e+01	-8.925239e+01
2.400000e-07	-5.415506e-06	-1.340822e-09	-3.762780e+01	-8.913701e+01
2.500000e-07	-5.406302e-06	-1.308937e-09	-3.756385e+01	-8.901672e+01
2.600000e-07	-5.396297e-06	-1.373866e-09	-3.749433e+01	-8.889150e+01
2.700000e-07	-5.385660e-06	-1.361503e-09	-3.742042e+01	-8.876132e+01
2.800000e-07	-5.374554e-06	-1.311790e-09	-3.734326e+01	-8.862619e+01
2.900000e-07	-5.363023e-06	-1.330271e-09	-3.726314e+01	-8.848610e+01
3.000000e-07	-5.351145e-06	-1.372795e-09	-3.718061e+01	-8.834110e+01
3.100000e-07	-5.338918e-06	-1.354759e-09	-3.709565e+01	-8.819123e+01
3.200000e-07	-5.326236e-06	-1.308131e-09	-3.700753e+01	-8.803652e+01
3.300000e-07	-5.313058e-06	-1.321003e-09	-3.691597e+01	-8.787706e+01
3.400000e-07	-5.299504e-06	-1.352427e-09	-3.682180e+01	-8.771292e+01
3.500000e-07	-5.285669e-06	-1.349355e-09	-3.672567e+01	-8.754419e+01
3.600000e-07	-5.271457e-06	-1.318212e-09	-3.662692e+01	-8.737097e+01
3.700000e-07	-5.256832e-06	-1.341563e-09	-3.652531e+01	-8.719337e+01
3.800000e-07	-5.241743e-06	-1.364042e-09	-3.642047e+01	-8.701149e+01
3.900000e-07	-5.225977e-06	-1.316218e-09	-3.631092e+01	-8.682546e+01
4.000000e-07	-5.209657e-06	-1.292971e-09	-3.619752e+01	-8.663540e+01
4.100000e-07	-5.193027e-06	-1.358669e-09	-3.608198e+01	-8.644143e+01
4.200000e-07	-5.176029e-06	-1.342403e-09	-3.596387e+01	-8.624368e+01
4.300000e-07	-5.158704e-06	-1.263644e-09	-3.584350e+01	-8.604228e+01
4.400000e-07	-5.141157e-06	-1.314434e-09	-3.572158e+01	-8.583734e+01
4.500000e-07	-5.123329e-06	-1.397864e-09	-3.559770e+01	-8.562899e+01
4.600000e-07	-5.105014e-06	-1.301995e-09	-3.547045e+01	-8.541734e+01
4.700000e-07	-5.086104e-06	-1.249359e-09	-3.533906e+01	-8.520251e+01
4.800000e-07	-5.066803e-06	-1.346291e-09	-3.520495e+01	-8.498459e+01
4.900000e-07	-5.047258e-06	-1.345547e-09	-3.506915e+01	-8.476368e+01
5.000000e-07	-5.027489e-06	-1.252152e-09	-3.493179e+01	-8.453986e+01
5.100000e-07	-5.007572e-06	-1.302220e-09	-3.479340e+01	-8.431321e+01
5.200000e-07	-4.987417e-06	-1.336702e-09	-3.465337e+01	-8.408380e+01
5.300000e-07	-4.966926e-06	-1.256209e-09	-3.451099e+01	-8.385168e+01
5.400000e-07	-4.946120e-06	-1.279435e-09	-3.436643e+01	-8.361689e+01
5.500000e-07	-4.924952e-06	-1.354980e-09	-3.421935e+01	-8.337946e+01
5.600000e-07	-4.903326e-06	-1.273001e-09	-3.406909e+01	-8.313941e+01
5.700000e-07	-4.881376e-06	-1.224819e-09	-3.391658e+01	-8.289675e+01
5.800000e-07	-4.859095e-06	-1.311667e-09	-3.376176e+01	-8.265148e+01
5.900000e-07	-4.836416e-06	-1.301212e-09	-3.360419e+01	-8.240357e+01
6.000000e-07	-4.813505e-06	-1.225181e-09	-3.344500e+01	-8.215301e+01
6.100000e-07	-4.790368e-06	-1.268082e-09	-3.328424e+01	-8.189975e+01
6.200000e-07	-4.766935e-06	-1.292909e-09	-3.312143e+01	-8.164375e+01
6.300000e-07	-4.743202e-06	-1.226581e-09	-3.295652e+01	-8.138495e+01
6.400000e-07	-4.719206e-06	-1.232868e-09	-3.278980e+01	-8.112329e+01
6.500000e-07	-4.694952e-06	-1.269073e-09	-3.262127e+01	-8.085870e+01
6.600000e-07	-4.670247e-06	-1.230882e-09	-3.244962e+01	-8.059111e+01
6.700000e-07	-4.645112e-06	-1.214752e-09	-3.227498e+01	-8.032043e+01
6.800000e-07	-4.619481e-06	-1.252192e-09	-3.209689e+01	-8.004658e+01
6.900000e-07	-4.593159e-06	-1.234998e-09	-3.191400e+01	-7.976947e+01
7.000000e-07	-4.566279e-06	-1.208304e-09	-3.172724e+01	-7.948903e+01
7.100000e-07	-4.538980e-06	-1.223469e-09	-3.153756e+01	-7.920515e+01
7.200000e-07	-4.511398e-06	-1.221884e-09	-3.134591e+01	-7.891775e+01
7.300000e-07	-4.483681e-06	-1.196062e-09	-3.115333e+01	-7.862676e+01
7.400000e-07	-4.455850e-06	-1.200187e-09	-3.095995e+01	-7.833208e+01
7.500000e-07	-4.427821e-06	-1.201067e-09	-3.076521e+01	-7.803365e+01
7.600000e-07	-4.399587e-06	-1.187145e-09	-3.056903e+01	-7.773139e+01
7.700000e-07	-4.371088e-06	-1.181841e-09	-3.037102e+01	-7.742524e+01
7.800000e-07	-4.342215e-06	-1.181909e-09	-3.017040e+01	-7.711515e+01
7.900000e-07	-4.313006e-06	-1.169355e-09	-2.996745e+01	-7.680106e+01
8.000000e-07	-4.283479e-06	-1.165152e-09	-2.976229e+01	-7.648294e+01
8.100000e-07	-4.253674e-06	-1.161053e-09	-2.955521e+01	-7.616076e+01
8.200000e-07	-4.223611e-06	-1.145650e-09	-2.934632e+01	-7.583448e+01
8.300000e-07	-4.193228e-06	-1.138912e-09	-2.913521e+01	-7.550411e+01
8.400000e-07	-4.162486e-06	-1.147118e-09	-2.892162e+01	-7.516962e+01
8.500000e-07	-4.131330e-06	-1.138401e-09	-2.870514e+01	-7.483105e+01
8.600000e-07	-4.099900e-06	-1.125609e-09	-2.848676e+01	-7.448838e+01
8.700000e-07	-4.068304e-06	-1.123616e-09	-2.826723e+01	-7.414166e+01
8.800000e-07	-4.036599e-06	-1.117064e-09	-2.804693e+01	-7.379091e+01
8.900000e-07	-4.004810e-06	-1.106113e-09	-2.782606e+01	-7.343618e+01
9.000000e-07	-3.972823e-06	-1.103211e-09	-2.760381e+01	-7.307750e+01
9.100000e-07	-3.940597e-06	-1.098402e-09	-2.737990e+01	-7.271494e+01
9.200000e-07	-3.908021e-06	-1.083027e-09	-2.715355e+01	-7.234855e+01
9.300000e-07	-3.875021e-06	-1.079977e-09	-2.692426e+01	-7.197839e+01
9.400000e-07	-3.841648e-06	-1.084149e-09	-2.669238e+01	-7.160454e+01
9.500000e-07	-3.807715e-06	-1.076167e-09	-2.645661e+01	-7.122705e+01
9.600000e-07	-3.773150e-06	-1.063989e-09	-2.621645e+01	-7.084601e+01
9.700000e-07	-3.738247e-06	-1.061214e-09	-2.597394e+01	-7.046148e+01
9.800000e-07	-3.703048e-06	-1.051316e-09	-2.572937e+01	-7.007354e+01
9.900000e-07	-3.667572e-06	-1.038429e-09	-2.548288e+01	-6.968224e+01
1.000000e-06	-3.631952e-06	-1.034411e-09	-2.523538e+01	-6.928766e+01
1.010000e-06	-3.596200e-06	-1.032318e-09	-2.498697e+01	-6.888985e+01
1.020000e-06	-3.560321e-06	-1.022750e-09	-2.473768e+01	-6.848888e+01
1.030000e-06	-3.524276e-06	-1.018043e-09	-2.448723e+01	-6.808478e+01
1.040000e-06	-3.488010e-06	-1.015844e-09	-2.423525e+01	-6.767760e+01
1.050000e-06	-3.451520e-06	-1.007146e-09	-2.398171e+01	-6.726737e+01
1.060000e-06	-3.414811e-06	-9.931192e-10	-2.372665e+01	-6.685412e+01
1.070000e-06	-3.377833e-06	-9.873584e-10	-2.346972e+01	-6.643785e+01
1.080000e-06	-3.340555e-06	-9.809841e-10	-2.321071e+01	-6.601858e+01
1.090000e-06	-3.302990e-06	-9.721301e-10	-2.294970e+01	-6.559629e+01
1.100000e-06	-3.265240e-06	-9.660972e-10	-2.268741e+01	-6.517095e+01
1.110000e-06	-3.227296e-06	-9.613578e-10	-2.242376e+01	-6.474255e+01
1.120000e-06	-3.189098e-06	-9.515532e-10	-2.215836e+01	-6.431104e+01
1.130000e-06	-3.150672e-06	-9.409988e-10	-2.189137e+01	-6.387635e+01
1.140000e-06	-3.112023e-06	-9.330374e-10	-2.162283e+01	-6.343842e+01
1.150000e-06	-3.073155e-06	-9.238539e-10	-2.135277e+01	-6.299716e+01
1.160000e-06	-3.034162e-06	-9.147139e-10	-2.108184e+01	-6.255249e+01
1.170000e-06	-2.995005e-06	-9.103110e-10	-2.080977e+01	-6.210430e+01
1.180000e-06	-2.955572e-06	-9.070528e-10	-2.053579e+01	-6.165246e+01
1.190000e-06	-2.915936e-06	-8.984623e-10	-2.026039e+01	-6.119685e+01
1.200000e-06	-2.876136e-06	-8.865794e-10	-1.998385e+01	-6.073732e+01
1.210000e-06	-2.836236e-06	-8.737656e-10	-1.970662e+01	-6.027373e+01
1.220000e-06	-2.796241e-06	-8.612217e-10	-1.942872e+01	-5.980590e+01
1.230000e-06	-2.756111e-06	-8.516277e-10	-1.914990e+01	-5.933368e+01
1.240000e-06	-2.715848e-06	-8.464531e-10	-1.887014e+01	-5.885687e+01
1.250000e-06	-2.675427e-06	-8.401068e-10	-1.858929e+01	-5.837529e+01
1.260000e-06	-2.634745e-06	-8.314544e-10	-1.830662e+01	-5.788873e+01
1.270000e-06	-2.593797e-06	-8.218404e-10	-1.802212e+01	-5.739700e+01
1.280000e-06	-2.552630e-06	-8.143573e-10	-1.773608e+01	-5.689987e+01
1.290000e-06	-2.511152e-06	-8.064491e-10	-1.744788e+01	-5.639713e+01
1.300000e-06	-2.469368e-06	-7.981622e-10	-1.715756e+01	-5.588856e+01
1.310000e-06	-2.427294e-06	-7.880213e-10	-1.686522e+01	-5.537391e+01
1.320000e-06	-2.384827e-06	-7.773303e-10	-1.657016e+01	-5.485295e+01
1.330000e-06	-2.341991e-06	-7.670405e-10	-1.627252e+01	-5.432544e+01
1.340000e-06	-2.298942e-06	-7.596776e-10	-1.597341e+01	-5.379113e+01
1.350000e-06	-2.255681e-06	-7.526053e-10	-1.567283e+01	-5.324977e+01
1.360000e-06	-2.212224e-06	-7.445151e-10	-1.537088e+01	-5.270110e+01
1.370000e-06	-2.168718e-06	-7.360401e-10	-1.506859e+01	-5.214485e+01
1.380000e-06	-2.125123e-06	-7.298123e-10	-1.476570e+01	-5.158076e+01
1.390000e-06	-2.081432e-06	-7.235223e-10	-1.446212e+01	-5.100855e+01
1.400000e-06	-2.037662e-06	-7.147207e-10	-1.415800e+01	-5.042796e+01
1.410000e-06	-1.993792e-06	-7.036066e-10	-1.385318e+01	-4.983869e+01
1.420000e-06	-1.949781e-06	-6.929766e-10	-1.354739e+01	-4.924046e+01
1.430000e-06	-1.905652e-06	-6.852394e-10	-1.324077e+01	-4.863297e+01
1.440000e-06	-1.861521e-06	-6.781480e-10	-1.293414e+01	-4.801593e+01
1.450000e-06	-1.817361e-06	-6.679484e-10	-1.262732e+01	-4.738903e+01
1.460000e-06	-1.773044e-06	-6.560764e-10	-1.231939e+01	-4.675196e+01
1.470000e-06	-1.728524e-06	-6.437328e-10	-1.201006e+01	-4.610439e+01
1.480000e-06	-1.683908e-06	-6.307118e-10	-1.170006e+01	-4.544602e+01
1.490000e-06	-1.639165e-06	-6.173179e-10	-1.138918e+01	-4.477650e+01
1.500000e-06	-1.594258e-06	-6.061634e-10	-1.107716e+01	-4.409550e+01
1.510000e-06	-1.549206e-06	-5.984350e-10	-1.076413e+01	-4.340268e+01
1.520000e-06	-1.504047e-06	-5.893655e-10	-1.045036e+01	-4.269768e+01
1.530000e-06	-1.458791e-06	-5.781674e-10	-1.013591e+01	-4.198015e+01
1.540000e-06	-1.413384e-06	-5.647616e-10	-9.820417e+00	-4.124972e+01
1.550000e-06	-1.367898e-06	-5.506690e-10	-9.504375e+00	-4.050603e+01
1.560000e-06	-1.322378e-06	-5.372783e-10	-9.188090e+00	-3.974870e+01
1.570000e-06	-1.276807e-06	-5.264690e-10	-8.871459e+00	-3.897737e+01
1.580000e-06	-1.231183e-06	-5.162492e-10	-8.554458e+00	-3.819164e+01
1.590000e-06	-1.185470e-06	-5.068277e-10	-8.236834e+00	-3.739115e+01
1.600000e-06	-1.139635e-06	-4.959410e-10	-7.918365e+00	-3.657551e+01
1.610000e-06	-1.093718e-06	-4.815869e-10	-7.599328e+00	-3.574435e+01
1.620000e-06	-1.047746e-06	-4.688835e-10	-7.279904e+00	-3.489728e+01
1.630000e-06	-1.001703e-06	-4.600417e-10	-6.959992e+00	-3.403394e+01
1.640000e-06	-9.555554e-07	-4.515740e-10	-6.639351e+00	-3.315396e+01
1.650000e-06	-9.092937e-07	-4.403803e-10	-6.317917e+00	-3.225699e+01
1.660000e-06	-8.630503e-07	-4.258743e-10	-5.996611e+00	-3.134269e+01
1.670000e-06	-8.167371e-07	-4.086421e-10	-5.674819e+00	-3.041072e+01
1.680000e-06	-7.702664e-07	-3.897347e-10	-5.351934e+00	-2.946078e+01
1.690000e-06	-7.237707e-07	-3.731100e-10	-5.028874e+00	-2.849257e+01
1.700000e-06	-6.772788e-07	-3.594434e-10	-4.705841e+00	-2.750583e+01
1.710000e-06	-6.308235e-07	-3.471439e-10	-4.383062e+00	-2.650030e+01
1.720000e-06	-5.843022e-07	-3.343135e-10	-4.059825e+00	-2.547577e+01
1.730000e-06	-5.376482e-07	-3.196291e-10	-3.735665e+00	-2.443204e+01
1.740000e-06	-4.909357e-07	-3.012025e-10	-3.411099e+00	-2.336898e+01
1.750000e-06	-4.442193e-07	-2.813836e-10	-3.086507e+00	-2.228647e+01
1.760000e-06	-3.975727e-07	-2.630738e-10	-2.762398e+00	-2.118442e+01
1.770000e-06	-3.509230e-07	-2.469099e-10	-2.438269e+00	-2.006280e+01
1.780000e-06	-3.041374e-07	-2.327909e-10	-2.113195e+00	-1.892163e+01
1.790000e-06	-2.572258e-07	-2.185043e-10	-1.787246e+00	-1.776097e+01
1.800000e-06	-2.103207e-07	-2.018597e-10	-1.461342e+00	-1.658093e+01
1.810000e-06	-1.634757e-07	-1.829877e-10	-1.135855e+00	-1.538167e+01
1.820000e-06	-1.165508e-07	-1.652784e-10	-8.098138e-01	-1.416341e+01
1.830000e-06	-6.966690e-08	-1.505377e-10	-4.840567e-01	-1.292643e+01
1.840000e-06	-2.291944e-08	-1.363718e-10	-1.592479e-01	-1.167105e+01
1.850000e-06	2.386396e-08	-1.206336e-10	1.658106e-01	-1.039767e+01
1.860000e-06	7.072058e-08	-1.052172e-10	4.913778e-01	-9.106750e+00
1.870000e-06	1.175693e-07	-8.808643e-11	8.168902e-01	-7.798793e+00
1.880000e-06	1.642975e-07	-6.815347e-11	1.141565e+00	-6.474376e+00
1.890000e-06	2.110712e-07	-4.609830e-11	1.466556e+00	-5.134134e+00
1.900000e-06	2.579226e-07	-2.457037e-11	1.792088e+00	-3.778764e+00
1.910000e-06	3.047664e-07	-3.982104e-12	2.117565e+00	-2.409020e+00
1.920000e-06	3.516080e-07	1.458627e-11	2.443028e+00	-1.025716e+00
1.930000e-06	3.984377e-07	3.035185e-11	2.768409e+00	3.702775e-01
1.940000e-06	4.452292e-07	4.673149e-11	3.093523e+00	1.778035e+00
1.950000e-06	4.918844e-07	6.536831e-11	3.417691e+00	3.196580e+00
1.960000e-06	5.385497e-07	8.568569e-11	3.741929e+00	4.624884e+00
1.970000e-06	5.852355e-07	1.058551e-10	4.066309e+00	6.061874e+00
1.980000e-06	6.316852e-07	1.265115e-10	4.389049e+00	7.506433e+00
1.990000e-06	6.780493e-07	1.476326e-10	4.711194e+00	8.957406e+00
2.000000e-06	7.244578e-07	1.672348e-10	5.033648e+00	1.041360e+01
2.010000e-06	7.707673e-07	1.873304e-10	5.355414e+00	1.187380e+01
2.020000e-06	8.169970e-07	2.085596e-10	5.676625e+00	1.333674e+01
2.030000e-06	8.632703e-07	2.307938e-10	5.998139e+00	1.480117e+01
2.040000e-06	9.095442e-07	2.542047e-10	6.319658e+00	1.626580e+01
2.050000e-06	9.557129e-07	2.760289e-10	6.640445e+00	1.772932e+01
2.060000e-06	1.001827e-06	2.960456e-10	6.960852e+00	1.919045e+01
2.070000e-06	1.047835e-06	3.156216e-10	7.280523e+00	2.064786e+01
2.080000e-06	1.093749e-06	3.351961e-10	7.599540e+00	2.210027e+01
2.090000e-06	1.139577e-06	3.561088e-10	7.917962e+00	2.354639e+01
2.100000e-06	1.185334e-06	3.793024e-10	8.235888e+00	2.498495e+01
2.110000e-06	1.231063e-06	4.028131e-10	8.553621e+00	2.641468e+01
2.120000e-06	1.276740e-06	4.232201e-10	8.870994e+00	2.783438e+01
2.130000e-06	1.322266e-06	4.413596e-10	9.187313e+00	2.924285e+01
2.140000e-06	1.367586e-06	4.590400e-10	9.502204e+00	3.063892e+01
2.150000e-06	1.412798e-06	4.759145e-10	9.816347e+00	3.202149e+01
2.160000e-06	1.457989e-06	4.925980e-10	1.013034e+01	3.338948e+01
2.170000e-06	1.503128e-06	5.103442e-10	1.044397e+01	3.474189e+01
2.180000e-06	1.548128e-06	5.323751e-10	1.075664e+01	3.607773e+01
2.190000e-06	1.593055e-06	5.543796e-10	1.106880e+01	3.739609e+01
2.200000e-06	1.637843e-06	5.726829e-10	1.137999e+01	3.869615e+01
2.210000e-06	1.682391e-06	5.902269e-10	1.168952e+01	3.997709e+01
2.220000e-06	1.726807e-06	6.042608e-10	1.199813e+01	4.123821e+01
2.230000e-06	1.771107e-06	6.196884e-10	1.230593e+01	4.247885e+01
2.240000e-06	1.815383e-06	6.344692e-10	1.261357e+01	4.369842e+01
2.250000e-06	1.859625e-06	6.483087e-10	1.292097e+01	4.489641e+01
2.260000e-06	1.903643e-06	6.630696e-10	1.322682e+01	4.607238e+01
2.270000e-06	1.947525e-06	6.790555e-10	1.353171e+01	4.722595e+01
2.280000e-06	1.991410e-06	7.003718e-10	1.383663e+01	4.835681e+01
2.290000e-06	2.035234e-06	7.193406e-10	1.414113e+01	4.946474e+01
2.300000e-06	2.078957e-06	7.351063e-10	1.444492e+01	5.054957e+01
2.310000e-06	2.122636e-06	7.466558e-10	1.474841e+01	5.161119e+01
2.320000e-06	2.166229e-06	7.571291e-10	1.505131e+01	5.264957e+01
2.330000e-06	2.209688e-06	7.664585e-10	1.535326e+01	5.366475e+01
2.340000e-06	2.253049e-06	7.775561e-10	1.565454e+01	5.465682e+01
2.350000e-06	2.296245e-06	7.912742e-10	1.595468e+01	5.562591e+01
2.360000e-06	2.339246e-06	8.093127e-10	1.625346e+01	5.657223e+01
2.370000e-06	2.381952e-06	8.295834e-10	1.655018e+01	5.749604e+01
2.380000e-06	2.424361e-06	8.467759e-10	1.684484e+01	5.839762e+01
2.390000e-06	2.466584e-06	8.600614e-10	1.713822e+01	5.927733e+01
2.400000e-06	2.508495e-06	8.680562e-10	1.742942e+01	6.013554e+01
2.410000e-06	2.549992e-06	8.746264e-10	1.771775e+01	6.097267e+01
2.420000e-06	2.591025e-06	8.830601e-10	1.800285e+01	6.178917e+01
2.430000e-06	2.631809e-06	8.949645e-10	1.828623e+01	6.258551e+01
2.440000e-06	2.672469e-06	9.112347e-10	1.856874e+01	6.336219e+01
2.450000e-06	2.712904e-06	9.263567e-10	1.884969e+01	6.411971e+01
2.460000e-06	2.753133e-06	9.402251e-10	1.912921e+01	6.485862e+01
2.470000e-06	2.793219e-06	9.541154e-10	1.940773e+01	6.557944e+01
2.480000e-06	2.833197e-06	9.638086e-10	1.968551e+01	6.628272e+01
2.490000e-06	2.873031e-06	9.720536e-10	1.996227e+01	6.696901e+01
2.500000e-06	2.912711e-06	9.796933e-10	2.023798e+01	6.763885e+01
2.510000e-06	2.952243e-06	9.885045e-10	2.051265e+01	6.829278e+01
2.520000e-06	2.991576e-06	9.976123e-10	2.078595e+01	6.893133e+01
2.530000e-06	3.030724e-06	1.007986e-09	2.105796e+01	6.955502e+01
2.540000e-06	3.069741e-06	1.020081e-09	2.132905e+01	7.016436e+01
2.550000e-06	3.108536e-06	1.031900e-09	2.159860e+01	7.075983e+01
2.560000e-06	3.147023e-06	1.043217e-09	2.186602e+01	7.134192e+01
2.570000e-06	3.185266e-06	1.052603e-09	2.213173e+01	7.191107e+01
2.580000e-06	3.223375e-06	1.058168e-09	2.239652e+01	7.246772e+01
2.590000e-06	3.261311e-06	1.063568e-09	2.266011e+01	7.301227e+01
2.600000e-06	3.299060e-06	1.070199e-09	2.292240e+01	7.354511e+01
2.610000e-06	3.336632e-06	1.078403e-09	2.318345e+01	7.406659e+01
2.620000e-06	3.373981e-06	1.085500e-09	2.344296e+01	7.457706e+01
2.630000e-06	3.411007e-06	1.092365e-09	2.370022e+01	7.507682e+01
2.640000e-06	3.447690e-06	1.099936e-09	2.395510e+01	7.556616e+01
2.650000e-06	3.484128e-06	1.106591e-09	2.420827e+01	7.604534e+01
2.660000e-06	3.520313e-06	1.112115e-09	2.445970e+01	7.651461e+01
2.670000e-06	3.556320e-06	1.117870e-09	2.470988e+01	7.697417e+01
2.680000e-06	3.592161e-06	1.124512e-09	2.495890e+01	7.742424e+01
2.690000e-06	3.627846e-06	1.131694e-09	2.520685e+01	7.786497e+01
2.700000e-06	3.663404e-06	1.138343e-09	2.545392e+01	7.829654e+01
2.710000e-06	3.698847e-06	1.143899e-09	2.570018e+01	7.871907e+01
2.720000e-06	3.734143e-06	1.149424e-09	2.594542e+01	7.913270e+01
2.730000e-06	3.769037e-06	1.155047e-09	2.618787e+01	7.953753e+01
2.740000e-06	3.803426e-06	1.159504e-09	2.642681e+01	7.993367e+01
2.750000e-06	3.837419e-06	1.161895e-09	2.666300e+01	8.032120e+01
2.760000e-06	3.871056e-06	1.164168e-09	2.689671e+01	8.070021e+01
2.770000e-06	3.904236e-06	1.168991e-09	2.712726e+01	8.107076e+01
2.780000e-06	3.936881e-06	1.177024e-09	2.735407e+01	8.143293e+01
2.790000e-06	3.969122e-06	1.185392e-09	2.757809e+01	8.178678e+01
2.800000e-06	4.001140e-06	1.192457e-09	2.780056e+01	8.213238e+01
2.810000e-06	4.033020e-06	1.198896e-09	2.802206e+01	8.246978e+01
2.820000e-06	4.064760e-06	1.203866e-09	2.824260e+01	8.279906e+01
2.830000e-06	4.096315e-06	1.206177e-09	2.846185e+01	8.312027e+01
2.840000e-06	4.127662e-06	1.209048e-09	2.867965e+01	8.343349e+01
2.850000e-06	4.158701e-06	1.213220e-09	2.889532e+01	8.373879e+01
2.860000e-06	4.189416e-06	1.219993e-09	2.910873e+01	8.403624e+01
2.870000e-06	4.219839e-06	1.227860e-09	2.932011e+01	8.432594e+01
2.880000e-06	4.249940e-06	1.234211e-09	2.952926e+01	8.460797e+01
2.890000e-06	4.279740e-06	1.239540e-09	2.973632e+01	8.488242e+01
2.900000e-06	4.309285e-06	1.244048e-09	2.994160e+01	8.514940e+01
