# Temperatura_=_-1.5
# Concentracion g/m^3_=_1620.0
# C_Vs_to_Am_M_A/Vsm_=_65563218390.804596
# pendiente_HvsI_1/m_=_3716.3
# ordenada_HvsI_A/m_=_1297.0
# frecuencia_Hz_=_135106.66493033152

Tiempo_(s)	Campo_(V.s)	Magnetizacion_(V.s)	Campo_(kA/m)	Magnetizacion_(A/m)
0.000000e+00	-5.501361e-06	-9.529151e-10	-3.836601e+01	-6.443266e+01
1.000000e-08	-5.501533e-06	-9.517434e-10	-3.836721e+01	-6.440302e+01
2.000000e-08	-5.501438e-06	-9.548308e-10	-3.836655e+01	-6.437458e+01
3.000000e-08	-5.500967e-06	-9.568565e-10	-3.836327e+01	-6.434721e+01
4.000000e-08	-5.500091e-06	-9.520470e-10	-3.835716e+01	-6.432076e+01
5.000000e-08	-5.498654e-06	-9.362743e-10	-3.834714e+01	-6.429508e+01
6.000000e-08	-5.496602e-06	-9.231403e-10	-3.833283e+01	-6.426999e+01
7.000000e-08	-5.493918e-06	-9.494493e-10	-3.831411e+01	-6.424532e+01
8.000000e-08	-5.490662e-06	-1.004293e-09	-3.829140e+01	-6.422088e+01
9.000000e-08	-5.486916e-06	-1.031344e-09	-3.826528e+01	-6.419647e+01
1.000000e-07	-5.482760e-06	-9.953694e-10	-3.823630e+01	-6.417189e+01
1.100000e-07	-5.478410e-06	-9.303492e-10	-3.820595e+01	-6.414693e+01
1.200000e-07	-5.473895e-06	-8.893322e-10	-3.817447e+01	-6.412138e+01
1.300000e-07	-5.469068e-06	-9.472435e-10	-3.814081e+01	-6.409503e+01
1.400000e-07	-5.463793e-06	-9.776323e-10	-3.810402e+01	-6.406766e+01
1.500000e-07	-5.458150e-06	-9.530858e-10	-3.806467e+01	-6.403905e+01
1.600000e-07	-5.452174e-06	-9.160936e-10	-3.802299e+01	-6.400898e+01
1.700000e-07	-5.445746e-06	-9.445264e-10	-3.797816e+01	-6.397723e+01
1.800000e-07	-5.438799e-06	-9.983491e-10	-3.792971e+01	-6.394359e+01
1.900000e-07	-5.431483e-06	-9.518974e-10	-3.787869e+01	-6.390785e+01
2.000000e-07	-5.423982e-06	-9.247694e-10	-3.782638e+01	-6.386980e+01
2.100000e-07	-5.416276e-06	-9.478476e-10	-3.777264e+01	-6.382923e+01
2.200000e-07	-5.408369e-06	-1.018128e-09	-3.771750e+01	-6.378596e+01
2.300000e-07	-5.400165e-06	-9.920222e-10	-3.766028e+01	-6.373978e+01
2.400000e-07	-5.391479e-06	-9.664602e-10	-3.759971e+01	-6.369053e+01
2.500000e-07	-5.382175e-06	-9.578380e-10	-3.753482e+01	-6.363804e+01
2.600000e-07	-5.372207e-06	-9.843123e-10	-3.746531e+01	-6.358214e+01
2.700000e-07	-5.361498e-06	-9.628559e-10	-3.739062e+01	-6.352268e+01
2.800000e-07	-5.350243e-06	-9.623509e-10	-3.731214e+01	-6.345952e+01
2.900000e-07	-5.338690e-06	-9.738523e-10	-3.723156e+01	-6.339255e+01
3.000000e-07	-5.326757e-06	-9.674524e-10	-3.714834e+01	-6.332164e+01
3.100000e-07	-5.314411e-06	-9.431920e-10	-3.706224e+01	-6.324670e+01
3.200000e-07	-5.301629e-06	-9.462444e-10	-3.697310e+01	-6.316765e+01
3.300000e-07	-5.288462e-06	-9.577098e-10	-3.688128e+01	-6.308440e+01
3.400000e-07	-5.274963e-06	-9.453759e-10	-3.678714e+01	-6.299691e+01
3.500000e-07	-5.260979e-06	-9.646798e-10	-3.668961e+01	-6.290513e+01
3.600000e-07	-5.246577e-06	-9.763838e-10	-3.658918e+01	-6.280903e+01
3.700000e-07	-5.231899e-06	-9.609143e-10	-3.648681e+01	-6.270861e+01
3.800000e-07	-5.216704e-06	-9.339993e-10	-3.638084e+01	-6.260386e+01
3.900000e-07	-5.200843e-06	-9.497230e-10	-3.627023e+01	-6.249481e+01
4.000000e-07	-5.184456e-06	-9.378561e-10	-3.615595e+01	-6.238148e+01
4.100000e-07	-5.167681e-06	-9.338000e-10	-3.603896e+01	-6.226392e+01
4.200000e-07	-5.150615e-06	-9.406708e-10	-3.591994e+01	-6.214220e+01
4.300000e-07	-5.133301e-06	-9.485237e-10	-3.579920e+01	-6.201638e+01
4.400000e-07	-5.115712e-06	-9.323861e-10	-3.567653e+01	-6.188655e+01
4.500000e-07	-5.097685e-06	-9.520912e-10	-3.555081e+01	-6.175282e+01
4.600000e-07	-5.079196e-06	-9.400015e-10	-3.542188e+01	-6.161529e+01
4.700000e-07	-5.060374e-06	-9.175919e-10	-3.529061e+01	-6.147408e+01
4.800000e-07	-5.041145e-06	-9.275660e-10	-3.515651e+01	-6.132933e+01
4.900000e-07	-5.021576e-06	-9.518062e-10	-3.502004e+01	-6.118117e+01
5.000000e-07	-5.001822e-06	-9.127468e-10	-3.488228e+01	-6.102976e+01
5.100000e-07	-4.981890e-06	-9.097047e-10	-3.474327e+01	-6.087524e+01
5.200000e-07	-4.961637e-06	-9.402600e-10	-3.460203e+01	-6.071777e+01
5.300000e-07	-4.941007e-06	-9.315663e-10	-3.445816e+01	-6.055752e+01
5.400000e-07	-4.920019e-06	-9.099868e-10	-3.431179e+01	-6.039466e+01
5.500000e-07	-4.898666e-06	-9.394104e-10	-3.416287e+01	-6.022936e+01
5.600000e-07	-4.877021e-06	-9.327467e-10	-3.401193e+01	-6.006177e+01
5.700000e-07	-4.855119e-06	-8.992924e-10	-3.385918e+01	-5.989208e+01
5.800000e-07	-4.832845e-06	-9.156426e-10	-3.370384e+01	-5.972045e+01
5.900000e-07	-4.810123e-06	-9.274245e-10	-3.354538e+01	-5.954704e+01
6.000000e-07	-4.787088e-06	-8.905716e-10	-3.338474e+01	-5.937200e+01
6.100000e-07	-4.763825e-06	-8.943444e-10	-3.322250e+01	-5.919550e+01
6.200000e-07	-4.740261e-06	-9.199577e-10	-3.305817e+01	-5.901767e+01
6.300000e-07	-4.716403e-06	-9.002981e-10	-3.289179e+01	-5.883865e+01
6.400000e-07	-4.692318e-06	-8.948892e-10	-3.272382e+01	-5.865856e+01
6.500000e-07	-4.667915e-06	-9.133874e-10	-3.255364e+01	-5.847753e+01
6.600000e-07	-4.643090e-06	-9.011661e-10	-3.238051e+01	-5.829565e+01
6.700000e-07	-4.617833e-06	-8.804554e-10	-3.220437e+01	-5.811301e+01
6.800000e-07	-4.592125e-06	-8.972182e-10	-3.202508e+01	-5.792969e+01
6.900000e-07	-4.565790e-06	-8.922494e-10	-3.184142e+01	-5.774576e+01
7.000000e-07	-4.538920e-06	-8.814409e-10	-3.165403e+01	-5.756125e+01
7.100000e-07	-4.511751e-06	-8.890419e-10	-3.146456e+01	-5.737620e+01
7.200000e-07	-4.484259e-06	-8.953217e-10	-3.127283e+01	-5.719063e+01
7.300000e-07	-4.456520e-06	-8.735594e-10	-3.107938e+01	-5.700454e+01
7.400000e-07	-4.428654e-06	-8.668051e-10	-3.088505e+01	-5.681790e+01
7.500000e-07	-4.400587e-06	-8.652926e-10	-3.068931e+01	-5.663068e+01
7.600000e-07	-4.372219e-06	-8.601350e-10	-3.049147e+01	-5.644284e+01
7.700000e-07	-4.343610e-06	-8.553343e-10	-3.029196e+01	-5.625430e+01
7.800000e-07	-4.314663e-06	-8.615800e-10	-3.009009e+01	-5.606499e+01
7.900000e-07	-4.285361e-06	-8.552932e-10	-2.988574e+01	-5.587480e+01
8.000000e-07	-4.255831e-06	-8.490310e-10	-2.967980e+01	-5.568362e+01
8.100000e-07	-4.226015e-06	-8.403091e-10	-2.947186e+01	-5.549133e+01
8.200000e-07	-4.195873e-06	-8.319788e-10	-2.926166e+01	-5.529779e+01
8.300000e-07	-4.165499e-06	-8.224665e-10	-2.904983e+01	-5.510284e+01
8.400000e-07	-4.134814e-06	-8.244582e-10	-2.883583e+01	-5.490633e+01
8.500000e-07	-4.103769e-06	-8.238683e-10	-2.861933e+01	-5.470808e+01
8.600000e-07	-4.072485e-06	-8.207651e-10	-2.840116e+01	-5.450792e+01
8.700000e-07	-4.041009e-06	-8.170312e-10	-2.818165e+01	-5.430566e+01
8.800000e-07	-4.009308e-06	-8.102847e-10	-2.796057e+01	-5.410110e+01
8.900000e-07	-3.977420e-06	-7.991003e-10	-2.773819e+01	-5.389406e+01
9.000000e-07	-3.945381e-06	-7.881484e-10	-2.751475e+01	-5.368434e+01
9.100000e-07	-3.913066e-06	-7.854841e-10	-2.728939e+01	-5.347173e+01
9.200000e-07	-3.880393e-06	-7.815521e-10	-2.706152e+01	-5.325604e+01
9.300000e-07	-3.847384e-06	-7.782752e-10	-2.683132e+01	-5.303707e+01
9.400000e-07	-3.813931e-06	-7.772280e-10	-2.659802e+01	-5.281465e+01
9.500000e-07	-3.779974e-06	-7.771356e-10	-2.636121e+01	-5.258857e+01
9.600000e-07	-3.745619e-06	-7.691873e-10	-2.612163e+01	-5.235867e+01
9.700000e-07	-3.710917e-06	-7.641121e-10	-2.587961e+01	-5.212478e+01
9.800000e-07	-3.675913e-06	-7.596623e-10	-2.563550e+01	-5.188673e+01
9.900000e-07	-3.640582e-06	-7.553644e-10	-2.538911e+01	-5.164439e+01
1.000000e-06	-3.604940e-06	-7.498955e-10	-2.514054e+01	-5.139761e+01
1.010000e-06	-3.569141e-06	-7.495647e-10	-2.489088e+01	-5.114627e+01
1.020000e-06	-3.533299e-06	-7.465977e-10	-2.464092e+01	-5.089027e+01
1.030000e-06	-3.497300e-06	-7.428954e-10	-2.438987e+01	-5.062952e+01
1.040000e-06	-3.461124e-06	-7.378829e-10	-2.413758e+01	-5.036393e+01
1.050000e-06	-3.424777e-06	-7.348434e-10	-2.388410e+01	-5.009345e+01
1.060000e-06	-3.388135e-06	-7.268176e-10	-2.362856e+01	-4.981804e+01
1.070000e-06	-3.351173e-06	-7.212054e-10	-2.337079e+01	-4.953765e+01
1.080000e-06	-3.313917e-06	-7.154171e-10	-2.311097e+01	-4.925229e+01
1.090000e-06	-3.276440e-06	-7.088466e-10	-2.284961e+01	-4.896196e+01
1.100000e-06	-3.238711e-06	-7.014277e-10	-2.258649e+01	-4.866666e+01
1.110000e-06	-3.200718e-06	-6.982133e-10	-2.232153e+01	-4.836645e+01
1.120000e-06	-3.162610e-06	-6.944579e-10	-2.205577e+01	-4.806136e+01
1.130000e-06	-3.124382e-06	-6.904233e-10	-2.178917e+01	-4.775146e+01
1.140000e-06	-3.085873e-06	-6.872743e-10	-2.152061e+01	-4.743681e+01
1.150000e-06	-3.047068e-06	-6.832442e-10	-2.124999e+01	-4.711750e+01
1.160000e-06	-3.008037e-06	-6.764825e-10	-2.097779e+01	-4.679362e+01
1.170000e-06	-2.968807e-06	-6.701208e-10	-2.070420e+01	-4.646526e+01
1.180000e-06	-2.929384e-06	-6.668113e-10	-2.042927e+01	-4.613253e+01
1.190000e-06	-2.889808e-06	-6.629217e-10	-2.015327e+01	-4.579553e+01
1.200000e-06	-2.850107e-06	-6.572431e-10	-1.987640e+01	-4.545436e+01
1.210000e-06	-2.810281e-06	-6.518164e-10	-1.959865e+01	-4.510914e+01
1.220000e-06	-2.770321e-06	-6.486922e-10	-1.931998e+01	-4.475997e+01
1.230000e-06	-2.730256e-06	-6.458545e-10	-1.904057e+01	-4.440694e+01
1.240000e-06	-2.690098e-06	-6.441879e-10	-1.876051e+01	-4.405014e+01
1.250000e-06	-2.649809e-06	-6.412360e-10	-1.847954e+01	-4.368965e+01
1.260000e-06	-2.609331e-06	-6.369636e-10	-1.819725e+01	-4.332554e+01
1.270000e-06	-2.568538e-06	-6.284028e-10	-1.791276e+01	-4.295787e+01
1.280000e-06	-2.527509e-06	-6.218007e-10	-1.762663e+01	-4.258667e+01
1.290000e-06	-2.486266e-06	-6.142661e-10	-1.733900e+01	-4.221197e+01
1.300000e-06	-2.444681e-06	-6.039341e-10	-1.704900e+01	-4.183376e+01
1.310000e-06	-2.402692e-06	-5.934366e-10	-1.675617e+01	-4.145203e+01
1.320000e-06	-2.360421e-06	-5.876909e-10	-1.646137e+01	-4.106673e+01
1.330000e-06	-2.317979e-06	-5.835891e-10	-1.616538e+01	-4.067779e+01
1.340000e-06	-2.275187e-06	-5.789670e-10	-1.586696e+01	-4.028513e+01
1.350000e-06	-2.232193e-06	-5.735868e-10	-1.556712e+01	-3.988861e+01
1.360000e-06	-2.189088e-06	-5.656104e-10	-1.526651e+01	-3.948810e+01
1.370000e-06	-2.145680e-06	-5.553740e-10	-1.496378e+01	-3.908341e+01
1.380000e-06	-2.102083e-06	-5.485592e-10	-1.465974e+01	-3.867435e+01
1.390000e-06	-2.058425e-06	-5.427323e-10	-1.435528e+01	-3.826067e+01
1.400000e-06	-2.014671e-06	-5.388793e-10	-1.405014e+01	-3.784211e+01
1.410000e-06	-1.970862e-06	-5.352531e-10	-1.374462e+01	-3.741839e+01
1.420000e-06	-1.926992e-06	-5.323288e-10	-1.343868e+01	-3.698919e+01
1.430000e-06	-1.883048e-06	-5.258784e-10	-1.313222e+01	-3.655417e+01
1.440000e-06	-1.839049e-06	-5.167509e-10	-1.282537e+01	-3.611295e+01
1.450000e-06	-1.794996e-06	-5.064865e-10	-1.251814e+01	-3.566514e+01
1.460000e-06	-1.750870e-06	-4.957082e-10	-1.221042e+01	-3.521032e+01
1.470000e-06	-1.706637e-06	-4.858371e-10	-1.190194e+01	-3.474806e+01
1.480000e-06	-1.662159e-06	-4.757293e-10	-1.159175e+01	-3.427790e+01
1.490000e-06	-1.617540e-06	-4.671001e-10	-1.128058e+01	-3.379937e+01
1.500000e-06	-1.572865e-06	-4.619103e-10	-1.096903e+01	-3.331199e+01
1.510000e-06	-1.528012e-06	-4.560158e-10	-1.065622e+01	-3.281526e+01
1.520000e-06	-1.483067e-06	-4.490899e-10	-1.034278e+01	-3.230867e+01
1.530000e-06	-1.437988e-06	-4.391910e-10	-1.002840e+01	-3.179172e+01
1.540000e-06	-1.392766e-06	-4.268597e-10	-9.713028e+00	-3.126390e+01
1.550000e-06	-1.347509e-06	-4.150783e-10	-9.397408e+00	-3.072468e+01
1.560000e-06	-1.302185e-06	-4.063842e-10	-9.081324e+00	-3.017358e+01
1.570000e-06	-1.256729e-06	-4.007742e-10	-8.764321e+00	-2.961008e+01
1.580000e-06	-1.211196e-06	-3.952830e-10	-8.446776e+00	-2.903371e+01
1.590000e-06	-1.165629e-06	-3.903513e-10	-8.128996e+00	-2.844398e+01
1.600000e-06	-1.119983e-06	-3.823886e-10	-7.810666e+00	-2.784045e+01
1.610000e-06	-1.074225e-06	-3.703128e-10	-7.491551e+00	-2.722268e+01
1.620000e-06	-1.028394e-06	-3.563760e-10	-7.171927e+00	-2.659025e+01
1.630000e-06	-9.824589e-07	-3.459521e-10	-6.851583e+00	-2.594279e+01
1.640000e-06	-9.364249e-07	-3.360074e-10	-6.530546e+00	-2.527994e+01
1.650000e-06	-8.903468e-07	-3.270279e-10	-6.209202e+00	-2.460138e+01
1.660000e-06	-8.441855e-07	-3.201667e-10	-5.887277e+00	-2.390683e+01
1.670000e-06	-7.979653e-07	-3.124975e-10	-5.564941e+00	-2.319603e+01
1.680000e-06	-7.517346e-07	-2.995891e-10	-5.242532e+00	-2.246879e+01
1.690000e-06	-7.054725e-07	-2.866621e-10	-4.919904e+00	-2.172493e+01
1.700000e-06	-6.591510e-07	-2.732530e-10	-4.596862e+00	-2.096433e+01
1.710000e-06	-6.127941e-07	-2.584918e-10	-4.273573e+00	-2.018693e+01
1.720000e-06	-5.664707e-07	-2.432783e-10	-3.950518e+00	-1.939268e+01
1.730000e-06	-5.201173e-07	-2.303390e-10	-3.627253e+00	-1.858161e+01
1.740000e-06	-4.736781e-07	-2.188952e-10	-3.303390e+00	-1.775379e+01
1.750000e-06	-4.271332e-07	-2.097199e-10	-2.978790e+00	-1.690933e+01
1.760000e-06	-3.805737e-07	-2.004404e-10	-2.654088e+00	-1.604840e+01
1.770000e-06	-3.340932e-07	-1.883417e-10	-2.329937e+00	-1.517121e+01
1.780000e-06	-2.875755e-07	-1.734548e-10	-2.005527e+00	-1.427802e+01
1.790000e-06	-2.410510e-07	-1.576560e-10	-1.681069e+00	-1.336915e+01
1.800000e-06	-1.944337e-07	-1.410269e-10	-1.355964e+00	-1.244495e+01
1.810000e-06	-1.477145e-07	-1.269583e-10	-1.030148e+00	-1.150583e+01
1.820000e-06	-1.010340e-07	-1.172577e-10	-7.046027e-01	-1.055224e+01
1.830000e-06	-5.440673e-08	-1.101357e-10	-3.794278e-01	-9.584658e+00
1.840000e-06	-7.778411e-09	-1.023845e-10	-5.424596e-02	-8.603623e+00
1.850000e-06	3.885131e-08	-9.300684e-11	2.709457e-01	-7.609706e+00
1.860000e-06	8.544775e-08	-8.308987e-11	5.959052e-01	-6.603512e+00
1.870000e-06	1.321042e-07	-6.799343e-11	9.212832e-01	-5.585683e+00
1.880000e-06	1.788084e-07	-5.000060e-11	1.246994e+00	-4.556891e+00
1.890000e-06	2.255211e-07	-3.144337e-11	1.572765e+00	-3.517838e+00
1.900000e-06	2.721967e-07	-1.541287e-11	1.898277e+00	-2.469250e+00
1.910000e-06	3.188510e-07	-3.170121e-12	2.223639e+00	-1.411880e+00
1.920000e-06	3.654770e-07	7.221396e-12	2.548805e+00	-3.464969e-01
1.930000e-06	4.120074e-07	1.762258e-11	2.873304e+00	7.261099e-01
1.940000e-06	4.584433e-07	3.139401e-11	3.197144e+00	1.805138e+00
1.950000e-06	5.047767e-07	4.759291e-11	3.520269e+00	2.889773e+00
1.960000e-06	5.510934e-07	6.669314e-11	3.843278e+00	3.979192e+00
1.970000e-06	5.974228e-07	8.702112e-11	4.166375e+00	5.072568e+00
1.980000e-06	6.437542e-07	1.027741e-10	4.489486e+00	6.169070e+00
1.990000e-06	6.900118e-07	1.174652e-10	4.812083e+00	7.267867e+00
2.000000e-06	7.361070e-07	1.282664e-10	5.133547e+00	8.368132e+00
2.010000e-06	7.821840e-07	1.392530e-10	5.454884e+00	9.469041e+00
2.020000e-06	8.283074e-07	1.534772e-10	5.776544e+00	1.056978e+01
2.030000e-06	8.743532e-07	1.722672e-10	6.097664e+00	1.166955e+01
2.040000e-06	9.203001e-07	1.921440e-10	6.418094e+00	1.276754e+01
2.050000e-06	9.661844e-07	2.093305e-10	6.738087e+00	1.386300e+01
2.060000e-06	1.011979e-06	2.241064e-10	7.057456e+00	1.495514e+01
2.070000e-06	1.057745e-06	2.390142e-10	7.376620e+00	1.604323e+01
2.080000e-06	1.103495e-06	2.550771e-10	7.695682e+00	1.712655e+01
2.090000e-06	1.149179e-06	2.702345e-10	8.014277e+00	1.820438e+01
2.100000e-06	1.194792e-06	2.867722e-10	8.332375e+00	1.927604e+01
2.110000e-06	1.240349e-06	3.028097e-10	8.650089e+00	2.034088e+01
2.120000e-06	1.285759e-06	3.171369e-10	8.966775e+00	2.139825e+01
2.130000e-06	1.330983e-06	3.332635e-10	9.282162e+00	2.244754e+01
2.140000e-06	1.376213e-06	3.510147e-10	9.597592e+00	2.348817e+01
2.150000e-06	1.421397e-06	3.670398e-10	9.912696e+00	2.451957e+01
2.160000e-06	1.466418e-06	3.810743e-10	1.022667e+01	2.554119e+01
2.170000e-06	1.511306e-06	3.937241e-10	1.053972e+01	2.655254e+01
2.180000e-06	1.556074e-06	4.076903e-10	1.085193e+01	2.755311e+01
2.190000e-06	1.600794e-06	4.216103e-10	1.116380e+01	2.854245e+01
2.200000e-06	1.645381e-06	4.377588e-10	1.147474e+01	2.952011e+01
2.210000e-06	1.689765e-06	4.558437e-10	1.178427e+01	3.048569e+01
2.220000e-06	1.733978e-06	4.716278e-10	1.209261e+01	3.143879e+01
2.230000e-06	1.778057e-06	4.844385e-10	1.240001e+01	3.237904e+01
2.240000e-06	1.822062e-06	4.941167e-10	1.270690e+01	3.330611e+01
2.250000e-06	1.866031e-06	5.032271e-10	1.301354e+01	3.421967e+01
2.260000e-06	1.909963e-06	5.145254e-10	1.331992e+01	3.511942e+01
2.270000e-06	1.953821e-06	5.321289e-10	1.362578e+01	3.600508e+01
2.280000e-06	1.997601e-06	5.508910e-10	1.393110e+01	3.687641e+01
2.290000e-06	2.041329e-06	5.670830e-10	1.423605e+01	3.773315e+01
2.300000e-06	2.085017e-06	5.810375e-10	1.454073e+01	3.857511e+01
2.310000e-06	2.128632e-06	5.903991e-10	1.484489e+01	3.940207e+01
2.320000e-06	2.172135e-06	5.982104e-10	1.514828e+01	4.021386e+01
2.330000e-06	2.215511e-06	6.056524e-10	1.545078e+01	4.101032e+01
2.340000e-06	2.258676e-06	6.162533e-10	1.575181e+01	4.179131e+01
2.350000e-06	2.301567e-06	6.309077e-10	1.605093e+01	4.255671e+01
2.360000e-06	2.344130e-06	6.463126e-10	1.634776e+01	4.330640e+01
2.370000e-06	2.386393e-06	6.598920e-10	1.664250e+01	4.404031e+01
2.380000e-06	2.428377e-06	6.724582e-10	1.693529e+01	4.475834e+01
2.390000e-06	2.469967e-06	6.833876e-10	1.722534e+01	4.546046e+01
2.400000e-06	2.511226e-06	6.931232e-10	1.751307e+01	4.614662e+01
2.410000e-06	2.552225e-06	7.007698e-10	1.779900e+01	4.681680e+01
2.420000e-06	2.592961e-06	7.081341e-10	1.808309e+01	4.747099e+01
2.430000e-06	2.633461e-06	7.178166e-10	1.836553e+01	4.810920e+01
2.440000e-06	2.673794e-06	7.283406e-10	1.864681e+01	4.873146e+01
2.450000e-06	2.714008e-06	7.372026e-10	1.892726e+01	4.933782e+01
2.460000e-06	2.754059e-06	7.471772e-10	1.920657e+01	4.992833e+01
2.470000e-06	2.794003e-06	7.587651e-10	1.948513e+01	5.050308e+01
2.480000e-06	2.833859e-06	7.677445e-10	1.976309e+01	5.106216e+01
2.490000e-06	2.873587e-06	7.752370e-10	2.004014e+01	5.160567e+01
2.500000e-06	2.913171e-06	7.810813e-10	2.031620e+01	5.213376e+01
2.510000e-06	2.952555e-06	7.856394e-10	2.059086e+01	5.264656e+01
2.520000e-06	2.991754e-06	7.914212e-10	2.086423e+01	5.314425e+01
2.530000e-06	3.030733e-06	7.973768e-10	2.113607e+01	5.362699e+01
2.540000e-06	3.069427e-06	8.025646e-10	2.140592e+01	5.409499e+01
2.550000e-06	3.107909e-06	8.079801e-10	2.167429e+01	5.454846e+01
2.560000e-06	3.146188e-06	8.153374e-10	2.194125e+01	5.498763e+01
2.570000e-06	3.184232e-06	8.218328e-10	2.220656e+01	5.541274e+01
2.580000e-06	3.222136e-06	8.247151e-10	2.247089e+01	5.582406e+01
2.590000e-06	3.259828e-06	8.287338e-10	2.273376e+01	5.622186e+01
2.600000e-06	3.297236e-06	8.353297e-10	2.299464e+01	5.660644e+01
2.610000e-06	3.334441e-06	8.408152e-10	2.325410e+01	5.697808e+01
2.620000e-06	3.371406e-06	8.455552e-10	2.351189e+01	5.733712e+01
2.630000e-06	3.408115e-06	8.507106e-10	2.376790e+01	5.768388e+01
2.640000e-06	3.444603e-06	8.544387e-10	2.402237e+01	5.801870e+01
2.650000e-06	3.480869e-06	8.582981e-10	2.427528e+01	5.834193e+01
2.660000e-06	3.516912e-06	8.619821e-10	2.452664e+01	5.865392e+01
2.670000e-06	3.552765e-06	8.638930e-10	2.477667e+01	5.895504e+01
2.680000e-06	3.588478e-06	8.671079e-10	2.502573e+01	5.924566e+01
2.690000e-06	3.624093e-06	8.739149e-10	2.527411e+01	5.952615e+01
2.700000e-06	3.659607e-06	8.806445e-10	2.552178e+01	5.979690e+01
2.710000e-06	3.694924e-06	8.847675e-10	2.576808e+01	6.005828e+01
2.720000e-06	3.729884e-06	8.889411e-10	2.601189e+01	6.031068e+01
2.730000e-06	3.764333e-06	8.930322e-10	2.625213e+01	6.055446e+01
2.740000e-06	3.798317e-06	8.950982e-10	2.648913e+01	6.079002e+01
2.750000e-06	3.831885e-06	8.954436e-10	2.672323e+01	6.101771e+01
2.760000e-06	3.865042e-06	8.948132e-10	2.695447e+01	6.123791e+01
2.770000e-06	3.897772e-06	8.977176e-10	2.718272e+01	6.145097e+01
2.780000e-06	3.930075e-06	9.049457e-10	2.740800e+01	6.165725e+01
2.790000e-06	3.962127e-06	9.124839e-10	2.763153e+01	6.185707e+01
2.800000e-06	3.994052e-06	9.178494e-10	2.785418e+01	6.205076e+01
2.810000e-06	4.025857e-06	9.214665e-10	2.807598e+01	6.223865e+01
2.820000e-06	4.057485e-06	9.231580e-10	2.829655e+01	6.242102e+01
2.830000e-06	4.088931e-06	9.245690e-10	2.851585e+01	6.259815e+01
2.840000e-06	4.120061e-06	9.295621e-10	2.873295e+01	6.277032e+01
2.850000e-06	4.150785e-06	9.382257e-10	2.894722e+01	6.293777e+01
2.860000e-06	4.181252e-06	9.437731e-10	2.915969e+01	6.310074e+01
2.870000e-06	4.211420e-06	9.445000e-10	2.937008e+01	6.325942e+01
2.880000e-06	4.241229e-06	9.457307e-10	2.957797e+01	6.341402e+01
2.890000e-06	4.270831e-06	9.489254e-10	2.978440e+01	6.356469e+01
2.900000e-06	4.300220e-06	9.529517e-10	2.998936e+01	6.371160e+01
