# Temperatura_=_-0.59
# Concentracion g/m^3_=_1620.0
# C_Vs_to_Am_M_A/Vsm_=_65563218390.804596
# pendiente_HvsI_1/m_=_3716.3
# ordenada_HvsI_A/m_=_1297.0
# frecuencia_Hz_=_135099.61047035953

Tiempo_(s)	Campo_(V.s)	Magnetizacion_(V.s)	Campo_(kA/m)	Magnetizacion_(A/m)
0.000000e+00	-5.512016e-06	-1.333151e-09	-3.837163e+01	-8.892899e+01
1.000000e-08	-5.512363e-06	-1.328395e-09	-3.837404e+01	-8.889093e+01
2.000000e-08	-5.512515e-06	-1.326220e-09	-3.837510e+01	-8.885419e+01
3.000000e-08	-5.512204e-06	-1.327023e-09	-3.837293e+01	-8.881866e+01
4.000000e-08	-5.511350e-06	-1.325799e-09	-3.836699e+01	-8.878418e+01
5.000000e-08	-5.509936e-06	-1.315394e-09	-3.835714e+01	-8.875056e+01
6.000000e-08	-5.507989e-06	-1.301516e-09	-3.834359e+01	-8.871759e+01
7.000000e-08	-5.505570e-06	-1.313641e-09	-3.832675e+01	-8.868505e+01
8.000000e-08	-5.502527e-06	-1.366708e-09	-3.830557e+01	-8.865269e+01
9.000000e-08	-5.498982e-06	-1.434732e-09	-3.828089e+01	-8.862024e+01
1.000000e-07	-5.495052e-06	-1.410572e-09	-3.825353e+01	-8.858741e+01
1.100000e-07	-5.490745e-06	-1.260213e-09	-3.822355e+01	-8.855390e+01
1.200000e-07	-5.486284e-06	-1.207709e-09	-3.819249e+01	-8.851939e+01
1.300000e-07	-5.481595e-06	-1.350453e-09	-3.815985e+01	-8.848356e+01
1.400000e-07	-5.476398e-06	-1.409919e-09	-3.812367e+01	-8.844607e+01
1.500000e-07	-5.470779e-06	-1.304858e-09	-3.808456e+01	-8.840659e+01
1.600000e-07	-5.464919e-06	-1.212741e-09	-3.804377e+01	-8.836478e+01
1.700000e-07	-5.458733e-06	-1.358484e-09	-3.800070e+01	-8.832028e+01
1.800000e-07	-5.451991e-06	-1.448614e-09	-3.795377e+01	-8.827275e+01
1.900000e-07	-5.444864e-06	-1.331711e-09	-3.790415e+01	-8.822187e+01
2.000000e-07	-5.437581e-06	-1.222525e-09	-3.785345e+01	-8.816728e+01
2.100000e-07	-5.429962e-06	-1.317162e-09	-3.780041e+01	-8.810867e+01
2.200000e-07	-5.421965e-06	-1.442290e-09	-3.774474e+01	-8.804573e+01
2.300000e-07	-5.413681e-06	-1.395158e-09	-3.768707e+01	-8.797814e+01
2.400000e-07	-5.405031e-06	-1.311739e-09	-3.762685e+01	-8.790563e+01
2.500000e-07	-5.395731e-06	-1.332596e-09	-3.756211e+01	-8.782792e+01
2.600000e-07	-5.385687e-06	-1.397510e-09	-3.749219e+01	-8.774475e+01
2.700000e-07	-5.375153e-06	-1.347753e-09	-3.741886e+01	-8.765590e+01
2.800000e-07	-5.364234e-06	-1.299730e-09	-3.734285e+01	-8.756115e+01
2.900000e-07	-5.352837e-06	-1.332049e-09	-3.726351e+01	-8.746031e+01
3.000000e-07	-5.341051e-06	-1.386609e-09	-3.718146e+01	-8.735321e+01
3.100000e-07	-5.328937e-06	-1.329608e-09	-3.709713e+01	-8.723970e+01
3.200000e-07	-5.316324e-06	-1.291135e-09	-3.700932e+01	-8.711966e+01
3.300000e-07	-5.303327e-06	-1.324842e-09	-3.691885e+01	-8.699300e+01
3.400000e-07	-5.290096e-06	-1.368763e-09	-3.682674e+01	-8.685963e+01
3.500000e-07	-5.276359e-06	-1.318399e-09	-3.673111e+01	-8.671952e+01
3.600000e-07	-5.262029e-06	-1.294268e-09	-3.663136e+01	-8.657265e+01
3.700000e-07	-5.247350e-06	-1.336433e-09	-3.652917e+01	-8.641900e+01
3.800000e-07	-5.232293e-06	-1.347065e-09	-3.642435e+01	-8.625861e+01
3.900000e-07	-5.216617e-06	-1.289963e-09	-3.631522e+01	-8.609152e+01
4.000000e-07	-5.200418e-06	-1.310437e-09	-3.620245e+01	-8.591781e+01
4.100000e-07	-5.183908e-06	-1.359964e-09	-3.608752e+01	-8.573755e+01
4.200000e-07	-5.167042e-06	-1.299831e-09	-3.597011e+01	-8.555087e+01
4.300000e-07	-5.149760e-06	-1.256163e-09	-3.584980e+01	-8.535788e+01
4.400000e-07	-5.132252e-06	-1.342609e-09	-3.572792e+01	-8.515875e+01
4.500000e-07	-5.114428e-06	-1.352671e-09	-3.560383e+01	-8.495362e+01
4.600000e-07	-5.096063e-06	-1.242948e-09	-3.547599e+01	-8.474267e+01
4.700000e-07	-5.077284e-06	-1.275544e-09	-3.534526e+01	-8.452609e+01
4.800000e-07	-5.058228e-06	-1.361857e-09	-3.521260e+01	-8.430408e+01
4.900000e-07	-5.038907e-06	-1.291736e-09	-3.507810e+01	-8.407685e+01
5.000000e-07	-5.019290e-06	-1.240755e-09	-3.494154e+01	-8.384461e+01
5.100000e-07	-4.999444e-06	-1.322412e-09	-3.480338e+01	-8.360759e+01
5.200000e-07	-4.979309e-06	-1.290014e-09	-3.466322e+01	-8.336599e+01
5.300000e-07	-4.958780e-06	-1.218772e-09	-3.452030e+01	-8.312007e+01
5.400000e-07	-4.937921e-06	-1.296209e-09	-3.437509e+01	-8.287003e+01
5.500000e-07	-4.916750e-06	-1.326670e-09	-3.422771e+01	-8.261611e+01
5.600000e-07	-4.895189e-06	-1.214575e-09	-3.407762e+01	-8.235852e+01
5.700000e-07	-4.873334e-06	-1.237622e-09	-3.392548e+01	-8.209749e+01
5.800000e-07	-4.851233e-06	-1.320256e-09	-3.377162e+01	-8.183323e+01
5.900000e-07	-4.828762e-06	-1.256353e-09	-3.361519e+01	-8.156593e+01
6.000000e-07	-4.805882e-06	-1.211494e-09	-3.345591e+01	-8.129580e+01
6.100000e-07	-4.782655e-06	-1.280202e-09	-3.329421e+01	-8.102303e+01
6.200000e-07	-4.759151e-06	-1.250968e-09	-3.313059e+01	-8.074778e+01
6.300000e-07	-4.735477e-06	-1.191486e-09	-3.296579e+01	-8.047021e+01
6.400000e-07	-4.711638e-06	-1.234083e-09	-3.279983e+01	-8.019048e+01
6.500000e-07	-4.687429e-06	-1.251408e-09	-3.263131e+01	-7.990873e+01
6.600000e-07	-4.662820e-06	-1.204849e-09	-3.245999e+01	-7.962506e+01
6.700000e-07	-4.637759e-06	-1.222866e-09	-3.228553e+01	-7.933959e+01
6.800000e-07	-4.612129e-06	-1.242227e-09	-3.210711e+01	-7.905241e+01
6.900000e-07	-4.585924e-06	-1.203874e-09	-3.192468e+01	-7.876359e+01
7.000000e-07	-4.559249e-06	-1.197181e-09	-3.173899e+01	-7.847318e+01
7.100000e-07	-4.532251e-06	-1.214505e-09	-3.155104e+01	-7.818124e+01
7.200000e-07	-4.504923e-06	-1.193229e-09	-3.136080e+01	-7.788778e+01
7.300000e-07	-4.477363e-06	-1.182376e-09	-3.116894e+01	-7.759283e+01
7.400000e-07	-4.449614e-06	-1.195914e-09	-3.097577e+01	-7.729636e+01
7.500000e-07	-4.421620e-06	-1.184608e-09	-3.078089e+01	-7.699836e+01
7.600000e-07	-4.393376e-06	-1.171363e-09	-3.058427e+01	-7.669880e+01
7.700000e-07	-4.364890e-06	-1.170958e-09	-3.038597e+01	-7.639762e+01
7.800000e-07	-4.336069e-06	-1.160266e-09	-3.018533e+01	-7.609477e+01
7.900000e-07	-4.306876e-06	-1.151428e-09	-2.998210e+01	-7.579016e+01
8.000000e-07	-4.277406e-06	-1.158681e-09	-2.977695e+01	-7.548372e+01
8.100000e-07	-4.247652e-06	-1.147678e-09	-2.956982e+01	-7.517533e+01
8.200000e-07	-4.217507e-06	-1.133305e-09	-2.935996e+01	-7.486489e+01
8.300000e-07	-4.187103e-06	-1.136234e-09	-2.914831e+01	-7.455228e+01
8.400000e-07	-4.156472e-06	-1.135810e-09	-2.893507e+01	-7.423738e+01
8.500000e-07	-4.125541e-06	-1.113122e-09	-2.871975e+01	-7.392004e+01
8.600000e-07	-4.094437e-06	-1.108382e-09	-2.850322e+01	-7.360013e+01
8.700000e-07	-4.063161e-06	-1.113815e-09	-2.828550e+01	-7.327751e+01
8.800000e-07	-4.031682e-06	-1.105843e-09	-2.806636e+01	-7.295201e+01
8.900000e-07	-3.999946e-06	-1.096742e-09	-2.784543e+01	-7.262349e+01
9.000000e-07	-3.967974e-06	-1.100310e-09	-2.762286e+01	-7.229179e+01
9.100000e-07	-3.935791e-06	-1.087078e-09	-2.739881e+01	-7.195676e+01
9.200000e-07	-3.903269e-06	-1.068736e-09	-2.717241e+01	-7.161823e+01
9.300000e-07	-3.870290e-06	-1.067667e-09	-2.694283e+01	-7.127606e+01
9.400000e-07	-3.836965e-06	-1.065560e-09	-2.671084e+01	-7.093009e+01
9.500000e-07	-3.803232e-06	-1.049185e-09	-2.647601e+01	-7.058017e+01
9.600000e-07	-3.769010e-06	-1.047260e-09	-2.623778e+01	-7.022616e+01
9.700000e-07	-3.734373e-06	-1.050630e-09	-2.599665e+01	-6.986791e+01
9.800000e-07	-3.699304e-06	-1.038962e-09	-2.575252e+01	-6.950529e+01
9.900000e-07	-3.663935e-06	-1.029282e-09	-2.550630e+01	-6.913817e+01
1.000000e-06	-3.628361e-06	-1.032332e-09	-2.525866e+01	-6.876644e+01
1.010000e-06	-3.592682e-06	-1.024559e-09	-2.501028e+01	-6.838997e+01
1.020000e-06	-3.556949e-06	-1.010502e-09	-2.476152e+01	-6.800866e+01
1.030000e-06	-3.521079e-06	-1.010723e-09	-2.451182e+01	-6.762242e+01
1.040000e-06	-3.484958e-06	-1.007937e-09	-2.426036e+01	-6.723116e+01
1.050000e-06	-3.448569e-06	-9.959062e-10	-2.400704e+01	-6.683480e+01
1.060000e-06	-3.412015e-06	-9.892928e-10	-2.375258e+01	-6.643328e+01
1.070000e-06	-3.375149e-06	-9.876341e-10	-2.349594e+01	-6.602654e+01
1.080000e-06	-3.337956e-06	-9.773124e-10	-2.323702e+01	-6.561452e+01
1.090000e-06	-3.300494e-06	-9.681150e-10	-2.297622e+01	-6.519720e+01
1.100000e-06	-3.262753e-06	-9.633162e-10	-2.271350e+01	-6.477454e+01
1.110000e-06	-3.224843e-06	-9.548484e-10	-2.244958e+01	-6.434652e+01
1.120000e-06	-3.186698e-06	-9.430523e-10	-2.218404e+01	-6.391313e+01
1.130000e-06	-3.148279e-06	-9.406054e-10	-2.191659e+01	-6.347437e+01
1.140000e-06	-3.109712e-06	-9.362223e-10	-2.164811e+01	-6.303025e+01
1.150000e-06	-3.071031e-06	-9.251800e-10	-2.137883e+01	-6.258077e+01
1.160000e-06	-3.032178e-06	-9.166451e-10	-2.110836e+01	-6.212595e+01
1.170000e-06	-2.993137e-06	-9.128365e-10	-2.083657e+01	-6.166582e+01
1.180000e-06	-2.953875e-06	-9.046980e-10	-2.056325e+01	-6.120040e+01
1.190000e-06	-2.914467e-06	-8.986194e-10	-2.028892e+01	-6.072973e+01
1.200000e-06	-2.874946e-06	-8.947433e-10	-2.001380e+01	-6.025383e+01
1.210000e-06	-2.835269e-06	-8.883961e-10	-1.973759e+01	-5.977273e+01
1.220000e-06	-2.795468e-06	-8.790267e-10	-1.946051e+01	-5.928647e+01
1.230000e-06	-2.755527e-06	-8.706985e-10	-1.918247e+01	-5.879508e+01
1.240000e-06	-2.715385e-06	-8.593146e-10	-1.890302e+01	-5.829858e+01
1.250000e-06	-2.675028e-06	-8.468361e-10	-1.862207e+01	-5.779698e+01
1.260000e-06	-2.634419e-06	-8.393640e-10	-1.833938e+01	-5.729031e+01
1.270000e-06	-2.593569e-06	-8.321918e-10	-1.805500e+01	-5.677856e+01
1.280000e-06	-2.552488e-06	-8.233806e-10	-1.776902e+01	-5.626174e+01
1.290000e-06	-2.511095e-06	-8.156805e-10	-1.748087e+01	-5.573981e+01
1.300000e-06	-2.469329e-06	-8.080365e-10	-1.719011e+01	-5.521275e+01
1.310000e-06	-2.427164e-06	-7.997006e-10	-1.689658e+01	-5.468052e+01
1.320000e-06	-2.384717e-06	-7.905518e-10	-1.660109e+01	-5.414305e+01
1.330000e-06	-2.342042e-06	-7.811735e-10	-1.630401e+01	-5.360026e+01
1.340000e-06	-2.299141e-06	-7.722039e-10	-1.600535e+01	-5.305205e+01
1.350000e-06	-2.255996e-06	-7.640228e-10	-1.570500e+01	-5.249830e+01
1.360000e-06	-2.212638e-06	-7.559203e-10	-1.540317e+01	-5.193887e+01
1.370000e-06	-2.169225e-06	-7.470702e-10	-1.510096e+01	-5.137359e+01
1.380000e-06	-2.125749e-06	-7.410964e-10	-1.479830e+01	-5.080228e+01
1.390000e-06	-2.082178e-06	-7.361139e-10	-1.449498e+01	-5.022472e+01
1.400000e-06	-2.038526e-06	-7.276134e-10	-1.419110e+01	-4.964066e+01
1.410000e-06	-1.994815e-06	-7.157113e-10	-1.388680e+01	-4.904985e+01
1.420000e-06	-1.950993e-06	-7.037632e-10	-1.358174e+01	-4.845200e+01
1.430000e-06	-1.907057e-06	-6.920643e-10	-1.327589e+01	-4.784677e+01
1.440000e-06	-1.862976e-06	-6.825906e-10	-1.296901e+01	-4.723384e+01
1.450000e-06	-1.818831e-06	-6.734494e-10	-1.266170e+01	-4.661282e+01
1.460000e-06	-1.774602e-06	-6.640848e-10	-1.235380e+01	-4.598333e+01
1.470000e-06	-1.730175e-06	-6.532001e-10	-1.204453e+01	-4.534493e+01
1.480000e-06	-1.685723e-06	-6.429487e-10	-1.173508e+01	-4.469719e+01
1.490000e-06	-1.641169e-06	-6.317741e-10	-1.142492e+01	-4.403964e+01
1.500000e-06	-1.596446e-06	-6.195435e-10	-1.111358e+01	-4.337178e+01
1.510000e-06	-1.551517e-06	-6.101546e-10	-1.080081e+01	-4.269310e+01
1.520000e-06	-1.506380e-06	-6.004331e-10	-1.048659e+01	-4.200309e+01
1.530000e-06	-1.461187e-06	-5.861155e-10	-1.017198e+01	-4.130119e+01
1.540000e-06	-1.415988e-06	-5.701115e-10	-9.857328e+00	-4.058684e+01
1.550000e-06	-1.370685e-06	-5.544814e-10	-9.541955e+00	-3.985949e+01
1.560000e-06	-1.325242e-06	-5.424633e-10	-9.225609e+00	-3.911855e+01
1.570000e-06	-1.279712e-06	-5.319874e-10	-8.908655e+00	-3.836345e+01
1.580000e-06	-1.234115e-06	-5.224586e-10	-8.591227e+00	-3.759360e+01
1.590000e-06	-1.188417e-06	-5.137044e-10	-8.273105e+00	-3.680842e+01
1.600000e-06	-1.142633e-06	-5.019831e-10	-7.954380e+00	-3.600734e+01
1.610000e-06	-1.096823e-06	-4.874273e-10	-7.635482e+00	-3.518978e+01
1.620000e-06	-1.050923e-06	-4.742401e-10	-7.315946e+00	-3.435520e+01
1.630000e-06	-1.004975e-06	-4.627092e-10	-6.996087e+00	-3.350306e+01
1.640000e-06	-9.589064e-07	-4.503145e-10	-6.675379e+00	-3.263283e+01
1.650000e-06	-9.127249e-07	-4.377484e-10	-6.353889e+00	-3.174402e+01
1.660000e-06	-8.665328e-07	-4.254133e-10	-6.032325e+00	-3.083616e+01
1.670000e-06	-8.204005e-07	-4.114175e-10	-5.711178e+00	-2.990882e+01
1.680000e-06	-7.743341e-07	-3.939861e-10	-5.390488e+00	-2.896160e+01
1.690000e-06	-7.282216e-07	-3.770393e-10	-5.069478e+00	-2.799413e+01
1.700000e-06	-6.820344e-07	-3.619648e-10	-4.747949e+00	-2.700610e+01
1.710000e-06	-6.356032e-07	-3.475532e-10	-4.424720e+00	-2.599723e+01
1.720000e-06	-5.889707e-07	-3.325930e-10	-4.100090e+00	-2.496730e+01
1.730000e-06	-5.423058e-07	-3.148228e-10	-3.775235e+00	-2.391615e+01
1.740000e-06	-4.955891e-07	-2.923506e-10	-3.450019e+00	-2.284366e+01
1.750000e-06	-4.488800e-07	-2.706065e-10	-3.124856e+00	-2.174977e+01
1.760000e-06	-4.022693e-07	-2.532081e-10	-2.800378e+00	-2.063449e+01
1.770000e-06	-3.556152e-07	-2.380889e-10	-2.475597e+00	-1.949789e+01
1.780000e-06	-3.089242e-07	-2.248633e-10	-2.150560e+00	-1.834010e+01
1.790000e-06	-2.622662e-07	-2.139569e-10	-1.825753e+00	-1.716133e+01
1.800000e-06	-2.155213e-07	-1.994248e-10	-1.500341e+00	-1.596184e+01
1.810000e-06	-1.687655e-07	-1.807633e-10	-1.174853e+00	-1.474197e+01
1.820000e-06	-1.220561e-07	-1.617140e-10	-8.496878e-01	-1.350213e+01
1.830000e-06	-7.536558e-08	-1.436168e-10	-5.246537e-01	-1.224279e+01
1.840000e-06	-2.872344e-08	-1.269773e-10	-1.999568e-01	-1.096450e+01
1.850000e-06	1.794101e-08	-1.102033e-10	1.248954e-01	-9.667868e+00
1.860000e-06	6.462507e-08	-9.437777e-11	4.498842e-01	-8.353574e+00
1.870000e-06	1.113112e-07	-7.847979e-11	7.748871e-01	-7.022362e+00
1.880000e-06	1.580469e-07	-6.167492e-11	1.100236e+00	-5.675042e+00
1.890000e-06	2.047722e-07	-4.508027e-11	1.425511e+00	-4.312483e+00
1.900000e-06	2.515606e-07	-2.689330e-11	1.751227e+00	-2.935613e+00
1.910000e-06	2.983062e-07	-7.867930e-12	2.076644e+00	-1.545415e+00
1.920000e-06	3.449714e-07	1.171733e-11	2.401501e+00	-1.429265e-01
1.930000e-06	3.917240e-07	2.996524e-11	2.726967e+00	1.270769e+00
1.940000e-06	4.384563e-07	4.802483e-11	3.052292e+00	2.694543e+00
1.950000e-06	4.850728e-07	6.562553e-11	3.376810e+00	4.127226e+00
1.960000e-06	5.316499e-07	8.238969e-11	3.701055e+00	5.567613e+00
1.970000e-06	5.781381e-07	1.014031e-10	4.024680e+00	7.014468e+00
1.980000e-06	6.245365e-07	1.220652e-10	4.347680e+00	8.466528e+00
1.990000e-06	6.708968e-07	1.440220e-10	4.670415e+00	9.922512e+00
2.000000e-06	7.171540e-07	1.657842e-10	4.992432e+00	1.138112e+01
2.010000e-06	7.633263e-07	1.850554e-10	5.313858e+00	1.284104e+01
2.020000e-06	8.094668e-07	2.040957e-10	5.635063e+00	1.430096e+01
2.030000e-06	8.555845e-07	2.255311e-10	5.956109e+00	1.575957e+01
2.040000e-06	9.016655e-07	2.461645e-10	6.276899e+00	1.721555e+01
2.050000e-06	9.477204e-07	2.667246e-10	6.597508e+00	1.866762e+01
2.060000e-06	9.937101e-07	2.884950e-10	6.917663e+00	2.011448e+01
2.070000e-06	1.039630e-06	3.104226e-10	7.237332e+00	2.155488e+01
2.080000e-06	1.085510e-06	3.313994e-10	7.556724e+00	2.298758e+01
2.090000e-06	1.131315e-06	3.519568e-10	7.875592e+00	2.441138e+01
2.100000e-06	1.176961e-06	3.728081e-10	8.193353e+00	2.582511e+01
2.110000e-06	1.222475e-06	3.925943e-10	8.510202e+00	2.722765e+01
2.120000e-06	1.267915e-06	4.112194e-10	8.826531e+00	2.861790e+01
2.130000e-06	1.313278e-06	4.299368e-10	9.142322e+00	2.999484e+01
2.140000e-06	1.358609e-06	4.494339e-10	9.457890e+00	3.135748e+01
2.150000e-06	1.403868e-06	4.693354e-10	9.772957e+00	3.270488e+01
2.160000e-06	1.449015e-06	4.906398e-10	1.008724e+01	3.403617e+01
2.170000e-06	1.494098e-06	5.124806e-10	1.040109e+01	3.535053e+01
2.180000e-06	1.539136e-06	5.332793e-10	1.071462e+01	3.664722e+01
2.190000e-06	1.584026e-06	5.532645e-10	1.102712e+01	3.792552e+01
2.200000e-06	1.628765e-06	5.674663e-10	1.133857e+01	3.918483e+01
2.210000e-06	1.673363e-06	5.787983e-10	1.164903e+01	4.042456e+01
2.220000e-06	1.717765e-06	5.917769e-10	1.195814e+01	4.164422e+01
2.230000e-06	1.761972e-06	6.106253e-10	1.226588e+01	4.284338e+01
2.240000e-06	1.806100e-06	6.307457e-10	1.257307e+01	4.402165e+01
2.250000e-06	1.850144e-06	6.504491e-10	1.287969e+01	4.517874e+01
2.260000e-06	1.894057e-06	6.686307e-10	1.318539e+01	4.631440e+01
2.270000e-06	1.937938e-06	6.820619e-10	1.349086e+01	4.742844e+01
2.280000e-06	1.981738e-06	6.939489e-10	1.379577e+01	4.852073e+01
2.290000e-06	2.025427e-06	7.066747e-10	1.409991e+01	4.959120e+01
2.300000e-06	2.069078e-06	7.225244e-10	1.440378e+01	5.063985e+01
2.310000e-06	2.112689e-06	7.404589e-10	1.470738e+01	5.166670e+01
2.320000e-06	2.156228e-06	7.591015e-10	1.501047e+01	5.267184e+01
2.330000e-06	2.199693e-06	7.759207e-10	1.531305e+01	5.365541e+01
2.340000e-06	2.243009e-06	7.898403e-10	1.561460e+01	5.461757e+01
2.350000e-06	2.286195e-06	8.015510e-10	1.591523e+01	5.555854e+01
2.360000e-06	2.329217e-06	8.141115e-10	1.621473e+01	5.647857e+01
2.370000e-06	2.371909e-06	8.258885e-10	1.651193e+01	5.737795e+01
2.380000e-06	2.414237e-06	8.365229e-10	1.680659e+01	5.825698e+01
2.390000e-06	2.456297e-06	8.481381e-10	1.709939e+01	5.911600e+01
2.400000e-06	2.498102e-06	8.623217e-10	1.739042e+01	5.995536e+01
2.410000e-06	2.539525e-06	8.774513e-10	1.767878e+01	6.077545e+01
2.420000e-06	2.580558e-06	8.907980e-10	1.796443e+01	6.157666e+01
2.430000e-06	2.621328e-06	9.030736e-10	1.824825e+01	6.235938e+01
2.440000e-06	2.661821e-06	9.151841e-10	1.853014e+01	6.312404e+01
2.450000e-06	2.702097e-06	9.250353e-10	1.881052e+01	6.387104e+01
2.460000e-06	2.742251e-06	9.340135e-10	1.909004e+01	6.460081e+01
2.470000e-06	2.782277e-06	9.456225e-10	1.936868e+01	6.531377e+01
2.480000e-06	2.822138e-06	9.593903e-10	1.964617e+01	6.601034e+01
2.490000e-06	2.861831e-06	9.722132e-10	1.992249e+01	6.669091e+01
2.500000e-06	2.901410e-06	9.840284e-10	2.019802e+01	6.735591e+01
2.510000e-06	2.940878e-06	9.928965e-10	2.047278e+01	6.800573e+01
2.520000e-06	2.980210e-06	1.000263e-09	2.074659e+01	6.864076e+01
2.530000e-06	3.019324e-06	1.006585e-09	2.101887e+01	6.926136e+01
2.540000e-06	3.058202e-06	1.011139e-09	2.128952e+01	6.986790e+01
2.550000e-06	3.096810e-06	1.018045e-09	2.155829e+01	7.046074e+01
2.560000e-06	3.135185e-06	1.028797e-09	2.182544e+01	7.104020e+01
2.570000e-06	3.173365e-06	1.039542e-09	2.209122e+01	7.160661e+01
2.580000e-06	3.211327e-06	1.048100e-09	2.235549e+01	7.216027e+01
2.590000e-06	3.249147e-06	1.055906e-09	2.261878e+01	7.270147e+01
2.600000e-06	3.286810e-06	1.062355e-09	2.288097e+01	7.323050e+01
2.610000e-06	3.324234e-06	1.067005e-09	2.314149e+01	7.374761e+01
2.620000e-06	3.361384e-06	1.069665e-09	2.340011e+01	7.425306e+01
2.630000e-06	3.398288e-06	1.073307e-09	2.365702e+01	7.474708e+01
2.640000e-06	3.434934e-06	1.082390e-09	2.391212e+01	7.522991e+01
2.650000e-06	3.471289e-06	1.093474e-09	2.416521e+01	7.570174e+01
2.660000e-06	3.507451e-06	1.106699e-09	2.441695e+01	7.616280e+01
2.670000e-06	3.543468e-06	1.116043e-09	2.466768e+01	7.661328e+01
2.680000e-06	3.579315e-06	1.118560e-09	2.491722e+01	7.705337e+01
2.690000e-06	3.614976e-06	1.121077e-09	2.516547e+01	7.748324e+01
2.700000e-06	3.650450e-06	1.122767e-09	2.541242e+01	7.790309e+01
2.710000e-06	3.685811e-06	1.125438e-09	2.565859e+01	7.831308e+01
2.720000e-06	3.720968e-06	1.131088e-09	2.590333e+01	7.871339e+01
2.730000e-06	3.755861e-06	1.140758e-09	2.614624e+01	7.910418e+01
2.740000e-06	3.790365e-06	1.149124e-09	2.638644e+01	7.948562e+01
2.750000e-06	3.824296e-06	1.156140e-09	2.662265e+01	7.985788e+01
2.760000e-06	3.857831e-06	1.161007e-09	2.685610e+01	8.022113e+01
2.770000e-06	3.890990e-06	1.163543e-09	2.708693e+01	8.057554e+01
2.780000e-06	3.923683e-06	1.166967e-09	2.731452e+01	8.092127e+01
2.790000e-06	3.955949e-06	1.172340e-09	2.753914e+01	8.125850e+01
2.800000e-06	3.987963e-06	1.178932e-09	2.776201e+01	8.158741e+01
2.810000e-06	4.019807e-06	1.185577e-09	2.798368e+01	8.190818e+01
2.820000e-06	4.051457e-06	1.191910e-09	2.820402e+01	8.222098e+01
2.830000e-06	4.082970e-06	1.195951e-09	2.842339e+01	8.252599e+01
2.840000e-06	4.114270e-06	1.198437e-09	2.864128e+01	8.282341e+01
2.850000e-06	4.145239e-06	1.204008e-09	2.885687e+01	8.311341e+01
2.860000e-06	4.175885e-06	1.211459e-09	2.907022e+01	8.339619e+01
2.870000e-06	4.206253e-06	1.216645e-09	2.928162e+01	8.367193e+01
2.880000e-06	4.236282e-06	1.220571e-09	2.949067e+01	8.394082e+01
2.890000e-06	4.266035e-06	1.225463e-09	2.969779e+01	8.420304e+01
2.900000e-06	4.295581e-06	1.230391e-09	2.990348e+01	8.445878e+01
