# Temperatura_=_-0.6
# Concentracion g/m^3_=_1620.0
# C_Vs_to_Am_M_A/Vsm_=_65563218390.804596
# pendiente_HvsI_1/m_=_3716.3
# ordenada_HvsI_A/m_=_1297.0
# frecuencia_Hz_=_135098.81856273784

Tiempo_(s)	Campo_(V.s)	Magnetizacion_(V.s)	Campo_(kA/m)	Magnetizacion_(A/m)
0.000000e+00	-5.513640e-06	-1.392962e-09	-3.837268e+01	-9.149598e+01
1.000000e-08	-5.513789e-06	-1.390606e-09	-3.837372e+01	-9.143955e+01
2.000000e-08	-5.513751e-06	-1.388250e-09	-3.837345e+01	-9.138122e+01
3.000000e-08	-5.513450e-06	-1.386923e-09	-3.837136e+01	-9.132095e+01
4.000000e-08	-5.512739e-06	-1.386066e-09	-3.836641e+01	-9.125868e+01
5.000000e-08	-5.511419e-06	-1.379024e-09	-3.835722e+01	-9.119434e+01
6.000000e-08	-5.509460e-06	-1.370480e-09	-3.834359e+01	-9.112789e+01
7.000000e-08	-5.506993e-06	-1.372440e-09	-3.832642e+01	-9.105924e+01
8.000000e-08	-5.504067e-06	-1.385412e-09	-3.830606e+01	-9.098834e+01
9.000000e-08	-5.500595e-06	-1.429598e-09	-3.828189e+01	-9.091511e+01
1.000000e-07	-5.496607e-06	-1.499489e-09	-3.825414e+01	-9.083948e+01
1.100000e-07	-5.492269e-06	-1.446870e-09	-3.822395e+01	-9.076139e+01
1.200000e-07	-5.487704e-06	-1.285504e-09	-3.819218e+01	-9.068076e+01
1.300000e-07	-5.483044e-06	-1.273496e-09	-3.815974e+01	-9.059751e+01
1.400000e-07	-5.478070e-06	-1.388275e-09	-3.812513e+01	-9.051159e+01
1.500000e-07	-5.472590e-06	-1.430698e-09	-3.808699e+01	-9.042291e+01
1.600000e-07	-5.466698e-06	-1.316556e-09	-3.804598e+01	-9.033143e+01
1.700000e-07	-5.460477e-06	-1.311193e-09	-3.800268e+01	-9.023706e+01
1.800000e-07	-5.453732e-06	-1.437425e-09	-3.795575e+01	-9.013976e+01
1.900000e-07	-5.446527e-06	-1.452966e-09	-3.790560e+01	-9.003946e+01
2.000000e-07	-5.439080e-06	-1.318430e-09	-3.785378e+01	-8.993612e+01
2.100000e-07	-5.431391e-06	-1.265078e-09	-3.780026e+01	-8.982968e+01
2.200000e-07	-5.423479e-06	-1.351551e-09	-3.774520e+01	-8.972010e+01
2.300000e-07	-5.415260e-06	-1.399116e-09	-3.768800e+01	-8.960734e+01
2.400000e-07	-5.406632e-06	-1.343676e-09	-3.762795e+01	-8.949136e+01
2.500000e-07	-5.397390e-06	-1.298248e-09	-3.756363e+01	-8.937213e+01
2.600000e-07	-5.387435e-06	-1.325319e-09	-3.749434e+01	-8.924963e+01
2.700000e-07	-5.376797e-06	-1.323414e-09	-3.742031e+01	-8.912383e+01
2.800000e-07	-5.365715e-06	-1.307356e-09	-3.734318e+01	-8.899471e+01
2.900000e-07	-5.354285e-06	-1.309259e-09	-3.726364e+01	-8.886227e+01
3.000000e-07	-5.342402e-06	-1.327691e-09	-3.718093e+01	-8.872648e+01
3.100000e-07	-5.330151e-06	-1.321127e-09	-3.709567e+01	-8.858736e+01
3.200000e-07	-5.317535e-06	-1.315381e-09	-3.700787e+01	-8.844488e+01
3.300000e-07	-5.304478e-06	-1.295619e-09	-3.691700e+01	-8.829907e+01
3.400000e-07	-5.290994e-06	-1.304306e-09	-3.682316e+01	-8.814991e+01
3.500000e-07	-5.277163e-06	-1.318653e-09	-3.672689e+01	-8.799742e+01
3.600000e-07	-5.262810e-06	-1.313368e-09	-3.662701e+01	-8.784161e+01
3.700000e-07	-5.247954e-06	-1.293800e-09	-3.652361e+01	-8.768248e+01
3.800000e-07	-5.232676e-06	-1.329681e-09	-3.641728e+01	-8.752004e+01
3.900000e-07	-5.216864e-06	-1.329899e-09	-3.630724e+01	-8.735432e+01
4.000000e-07	-5.200632e-06	-1.284521e-09	-3.619427e+01	-8.718533e+01
4.100000e-07	-5.184075e-06	-1.304820e-09	-3.607904e+01	-8.701306e+01
4.200000e-07	-5.167271e-06	-1.343561e-09	-3.596209e+01	-8.683755e+01
4.300000e-07	-5.150190e-06	-1.281223e-09	-3.584321e+01	-8.665880e+01
4.400000e-07	-5.132699e-06	-1.254365e-09	-3.572149e+01	-8.647682e+01
4.500000e-07	-5.114835e-06	-1.342506e-09	-3.559716e+01	-8.629162e+01
4.600000e-07	-5.096570e-06	-1.331027e-09	-3.547004e+01	-8.610321e+01
4.700000e-07	-5.077828e-06	-1.249945e-09	-3.533961e+01	-8.591159e+01
4.800000e-07	-5.058664e-06	-1.297128e-09	-3.520624e+01	-8.571676e+01
4.900000e-07	-5.039241e-06	-1.344593e-09	-3.507106e+01	-8.551873e+01
5.000000e-07	-5.019653e-06	-1.259633e-09	-3.493473e+01	-8.531749e+01
5.100000e-07	-4.999855e-06	-1.250969e-09	-3.479695e+01	-8.511304e+01
5.200000e-07	-4.979772e-06	-1.311481e-09	-3.465718e+01	-8.490536e+01
5.300000e-07	-4.959318e-06	-1.267525e-09	-3.451483e+01	-8.469446e+01
5.400000e-07	-4.938447e-06	-1.239980e-09	-3.436957e+01	-8.448030e+01
5.500000e-07	-4.917208e-06	-1.317479e-09	-3.422175e+01	-8.426288e+01
5.600000e-07	-4.895621e-06	-1.289735e-09	-3.407152e+01	-8.404217e+01
5.700000e-07	-4.873742e-06	-1.214076e-09	-3.391925e+01	-8.381815e+01
5.800000e-07	-4.851572e-06	-1.255506e-09	-3.376495e+01	-8.359080e+01
5.900000e-07	-4.829016e-06	-1.280968e-09	-3.360797e+01	-8.336009e+01
6.000000e-07	-4.806112e-06	-1.211588e-09	-3.344857e+01	-8.312599e+01
6.100000e-07	-4.782852e-06	-1.222311e-09	-3.328669e+01	-8.288847e+01
6.200000e-07	-4.759288e-06	-1.266472e-09	-3.312270e+01	-8.264750e+01
6.300000e-07	-4.735509e-06	-1.225566e-09	-3.295720e+01	-8.240304e+01
6.400000e-07	-4.711538e-06	-1.206717e-09	-3.279038e+01	-8.215506e+01
6.500000e-07	-4.687304e-06	-1.243877e-09	-3.262172e+01	-8.190353e+01
6.600000e-07	-4.662672e-06	-1.221051e-09	-3.245029e+01	-8.164842e+01
6.700000e-07	-4.637583e-06	-1.191753e-09	-3.227568e+01	-8.138969e+01
6.800000e-07	-4.611947e-06	-1.217001e-09	-3.209727e+01	-8.112731e+01
6.900000e-07	-4.585680e-06	-1.218409e-09	-3.191446e+01	-8.086125e+01
7.000000e-07	-4.558845e-06	-1.191084e-09	-3.172770e+01	-8.059148e+01
7.100000e-07	-4.531726e-06	-1.202115e-09	-3.153896e+01	-8.031798e+01
7.200000e-07	-4.504391e-06	-1.212582e-09	-3.134872e+01	-8.004071e+01
7.300000e-07	-4.476743e-06	-1.188605e-09	-3.115630e+01	-7.975967e+01
7.400000e-07	-4.448926e-06	-1.182108e-09	-3.096271e+01	-7.947482e+01
7.500000e-07	-4.420991e-06	-1.184056e-09	-3.076829e+01	-7.918616e+01
7.600000e-07	-4.392770e-06	-1.166150e-09	-3.057188e+01	-7.889367e+01
7.700000e-07	-4.364151e-06	-1.154250e-09	-3.037271e+01	-7.859734e+01
7.800000e-07	-4.335194e-06	-1.160462e-09	-3.017118e+01	-7.829716e+01
7.900000e-07	-4.305922e-06	-1.158135e-09	-2.996746e+01	-7.799313e+01
8.000000e-07	-4.276382e-06	-1.156992e-09	-2.976187e+01	-7.768526e+01
8.100000e-07	-4.246632e-06	-1.161298e-09	-2.955482e+01	-7.737354e+01
8.200000e-07	-4.216640e-06	-1.152597e-09	-2.934609e+01	-7.705797e+01
8.300000e-07	-4.186344e-06	-1.132780e-09	-2.913524e+01	-7.673858e+01
8.400000e-07	-4.155640e-06	-1.128958e-09	-2.892156e+01	-7.641538e+01
8.500000e-07	-4.124662e-06	-1.121390e-09	-2.870596e+01	-7.608836e+01
8.600000e-07	-4.093528e-06	-1.105329e-09	-2.848928e+01	-7.575757e+01
8.700000e-07	-4.062182e-06	-1.101900e-09	-2.827113e+01	-7.542300e+01
8.800000e-07	-4.030614e-06	-1.107285e-09	-2.805143e+01	-7.508469e+01
8.900000e-07	-3.998883e-06	-1.101165e-09	-2.783059e+01	-7.474266e+01
9.000000e-07	-3.967009e-06	-1.095572e-09	-2.760876e+01	-7.439692e+01
9.100000e-07	-3.934855e-06	-1.093297e-09	-2.738498e+01	-7.404751e+01
9.200000e-07	-3.902290e-06	-1.079561e-09	-2.715834e+01	-7.369443e+01
9.300000e-07	-3.869311e-06	-1.063018e-09	-2.692882e+01	-7.333772e+01
9.400000e-07	-3.835779e-06	-1.061879e-09	-2.669545e+01	-7.297740e+01
9.500000e-07	-3.801715e-06	-1.058774e-09	-2.645838e+01	-7.261349e+01
9.600000e-07	-3.767343e-06	-1.048132e-09	-2.621917e+01	-7.224600e+01
9.700000e-07	-3.732648e-06	-1.046890e-09	-2.597771e+01	-7.187494e+01
9.800000e-07	-3.697614e-06	-1.051334e-09	-2.573388e+01	-7.150034e+01
9.900000e-07	-3.662299e-06	-1.044731e-09	-2.548810e+01	-7.112220e+01
1.000000e-06	-3.626782e-06	-1.035942e-09	-2.524092e+01	-7.074052e+01
1.010000e-06	-3.591115e-06	-1.031226e-09	-2.499269e+01	-7.035532e+01
1.020000e-06	-3.555324e-06	-1.020279e-09	-2.474360e+01	-6.996657e+01
1.030000e-06	-3.519444e-06	-1.009265e-09	-2.449389e+01	-6.957428e+01
1.040000e-06	-3.483354e-06	-1.006634e-09	-2.424272e+01	-6.917844e+01
1.050000e-06	-3.446915e-06	-1.004641e-09	-2.398912e+01	-6.877902e+01
1.060000e-06	-3.410182e-06	-9.956205e-10	-2.373347e+01	-6.837600e+01
1.070000e-06	-3.373181e-06	-9.895601e-10	-2.347596e+01	-6.796935e+01
1.080000e-06	-3.335931e-06	-9.832800e-10	-2.321672e+01	-6.755903e+01
1.090000e-06	-3.298427e-06	-9.710629e-10	-2.295570e+01	-6.714501e+01
1.100000e-06	-3.260757e-06	-9.598370e-10	-2.269354e+01	-6.672723e+01
1.110000e-06	-3.222967e-06	-9.560205e-10	-2.243053e+01	-6.630564e+01
1.120000e-06	-3.184954e-06	-9.499308e-10	-2.216598e+01	-6.588018e+01
1.130000e-06	-3.146651e-06	-9.424042e-10	-2.189940e+01	-6.545078e+01
1.140000e-06	-3.108039e-06	-9.398980e-10	-2.163068e+01	-6.501735e+01
1.150000e-06	-3.069207e-06	-9.366685e-10	-2.136043e+01	-6.457983e+01
1.160000e-06	-3.030270e-06	-9.267625e-10	-2.108944e+01	-6.413813e+01
1.170000e-06	-2.991202e-06	-9.192919e-10	-2.081754e+01	-6.369214e+01
1.180000e-06	-2.951956e-06	-9.131541e-10	-2.054440e+01	-6.324176e+01
1.190000e-06	-2.912615e-06	-9.049317e-10	-2.027061e+01	-6.278689e+01
1.200000e-06	-2.873117e-06	-8.972354e-10	-1.999572e+01	-6.232741e+01
1.210000e-06	-2.833391e-06	-8.929526e-10	-1.971924e+01	-6.186320e+01
1.220000e-06	-2.793494e-06	-8.871212e-10	-1.944158e+01	-6.139412e+01
1.230000e-06	-2.753474e-06	-8.798053e-10	-1.916305e+01	-6.092004e+01
1.240000e-06	-2.713314e-06	-8.717957e-10	-1.888356e+01	-6.044082e+01
1.250000e-06	-2.672854e-06	-8.609306e-10	-1.860197e+01	-5.995630e+01
1.260000e-06	-2.632094e-06	-8.497371e-10	-1.831830e+01	-5.946633e+01
1.270000e-06	-2.591109e-06	-8.389566e-10	-1.803306e+01	-5.897074e+01
1.280000e-06	-2.549878e-06	-8.299125e-10	-1.774611e+01	-5.846935e+01
1.290000e-06	-2.508402e-06	-8.243674e-10	-1.745745e+01	-5.796199e+01
1.300000e-06	-2.466595e-06	-8.198441e-10	-1.716649e+01	-5.744846e+01
1.310000e-06	-2.424459e-06	-8.133487e-10	-1.687325e+01	-5.692857e+01
1.320000e-06	-2.382135e-06	-8.035504e-10	-1.657869e+01	-5.640211e+01
1.330000e-06	-2.339577e-06	-7.919073e-10	-1.628250e+01	-5.586887e+01
1.340000e-06	-2.296760e-06	-7.807206e-10	-1.598451e+01	-5.532862e+01
1.350000e-06	-2.253784e-06	-7.705656e-10	-1.568541e+01	-5.478113e+01
1.360000e-06	-2.210600e-06	-7.598451e-10	-1.538487e+01	-5.422615e+01
1.370000e-06	-2.167221e-06	-7.487193e-10	-1.508297e+01	-5.366344e+01
1.380000e-06	-2.123734e-06	-7.422972e-10	-1.478032e+01	-5.309274e+01
1.390000e-06	-2.080108e-06	-7.382918e-10	-1.447670e+01	-5.251377e+01
1.400000e-06	-2.036409e-06	-7.318517e-10	-1.417258e+01	-5.192624e+01
1.410000e-06	-1.992701e-06	-7.234673e-10	-1.386838e+01	-5.132988e+01
1.420000e-06	-1.948928e-06	-7.139645e-10	-1.356374e+01	-5.072436e+01
1.430000e-06	-1.905053e-06	-7.030437e-10	-1.325839e+01	-5.010938e+01
1.440000e-06	-1.861063e-06	-6.914282e-10	-1.295224e+01	-4.948461e+01
1.450000e-06	-1.816978e-06	-6.793395e-10	-1.264542e+01	-4.884972e+01
1.460000e-06	-1.772807e-06	-6.686536e-10	-1.233801e+01	-4.820436e+01
1.470000e-06	-1.728435e-06	-6.583213e-10	-1.202920e+01	-4.754818e+01
1.480000e-06	-1.683918e-06	-6.495143e-10	-1.171938e+01	-4.688080e+01
1.490000e-06	-1.639317e-06	-6.413898e-10	-1.140898e+01	-4.620186e+01
1.500000e-06	-1.594465e-06	-6.325986e-10	-1.109682e+01	-4.551097e+01
1.510000e-06	-1.549463e-06	-6.222223e-10	-1.078363e+01	-4.480773e+01
1.520000e-06	-1.504457e-06	-6.106089e-10	-1.047041e+01	-4.409175e+01
1.530000e-06	-1.459374e-06	-5.971446e-10	-1.015664e+01	-4.336262e+01
1.540000e-06	-1.414195e-06	-5.811509e-10	-9.842218e+00	-4.261993e+01
1.550000e-06	-1.368921e-06	-5.648817e-10	-9.527133e+00	-4.186327e+01
1.560000e-06	-1.323508e-06	-5.518595e-10	-9.211077e+00	-4.109222e+01
1.570000e-06	-1.278014e-06	-5.392477e-10	-8.894455e+00	-4.030636e+01
1.580000e-06	-1.232490e-06	-5.266288e-10	-8.577623e+00	-3.950526e+01
1.590000e-06	-1.186884e-06	-5.164090e-10	-8.260225e+00	-3.868853e+01
1.600000e-06	-1.141114e-06	-5.066518e-10	-7.941685e+00	-3.785573e+01
1.610000e-06	-1.095231e-06	-4.951954e-10	-7.622358e+00	-3.700648e+01
1.620000e-06	-1.049267e-06	-4.835184e-10	-7.302468e+00	-3.614036e+01
1.630000e-06	-1.003221e-06	-4.735103e-10	-6.982007e+00	-3.525700e+01
1.640000e-06	-9.571226e-07	-4.623826e-10	-6.661182e+00	-3.435602e+01
1.650000e-06	-9.109773e-07	-4.475510e-10	-6.340029e+00	-3.343707e+01
1.660000e-06	-8.648382e-07	-4.328491e-10	-6.018920e+00	-3.249980e+01
1.670000e-06	-8.186391e-07	-4.194496e-10	-5.697393e+00	-3.154389e+01
1.680000e-06	-7.723154e-07	-4.022097e-10	-5.374999e+00	-3.056905e+01
1.690000e-06	-7.259995e-07	-3.854291e-10	-5.052660e+00	-2.957500e+01
1.700000e-06	-6.796792e-07	-3.696014e-10	-4.730290e+00	-2.856151e+01
1.710000e-06	-6.332483e-07	-3.555951e-10	-4.407150e+00	-2.752836e+01
1.720000e-06	-5.867609e-07	-3.451647e-10	-4.083616e+00	-2.647538e+01
1.730000e-06	-5.401673e-07	-3.325221e-10	-3.759344e+00	-2.540243e+01
1.740000e-06	-4.934588e-07	-3.139938e-10	-3.434272e+00	-2.430939e+01
1.750000e-06	-4.467977e-07	-2.925729e-10	-3.109529e+00	-2.319623e+01
1.760000e-06	-4.001590e-07	-2.747986e-10	-2.784943e+00	-2.206290e+01
1.770000e-06	-3.533831e-07	-2.579711e-10	-2.459402e+00	-2.090946e+01
1.780000e-06	-3.064665e-07	-2.430858e-10	-2.132881e+00	-1.973596e+01
1.790000e-06	-2.595802e-07	-2.305801e-10	-1.806572e+00	-1.854254e+01
1.800000e-06	-2.127581e-07	-2.177338e-10	-1.480710e+00	-1.732938e+01
1.810000e-06	-1.659554e-07	-2.021385e-10	-1.154982e+00	-1.609671e+01
1.820000e-06	-1.191279e-07	-1.841306e-10	-8.290814e-01	-1.484481e+01
1.830000e-06	-7.231299e-08	-1.655409e-10	-5.032688e-01	-1.357402e+01
1.840000e-06	-2.555624e-08	-1.470745e-10	-1.778610e-01	-1.228474e+01
1.850000e-06	2.118850e-08	-1.293957e-10	1.474633e-01	-1.097743e+01
1.860000e-06	6.791427e-08	-1.129066e-10	4.726556e-01	-9.652582e+00
1.870000e-06	1.146868e-07	-9.676249e-11	7.981729e-01	-8.310778e+00
1.880000e-06	1.614736e-07	-7.868809e-11	1.123790e+00	-6.952635e+00
1.890000e-06	2.081889e-07	-5.717924e-11	1.448910e+00	-5.578833e+00
1.900000e-06	2.549227e-07	-3.388359e-11	1.774158e+00	-4.190104e+00
1.910000e-06	3.016911e-07	-1.443400e-11	2.099647e+00	-2.787236e+00
1.920000e-06	3.483278e-07	8.267978e-14	2.424219e+00	-1.371067e+00
1.930000e-06	3.949514e-07	1.613863e-11	2.748701e+00	5.751446e-02
1.940000e-06	4.416703e-07	3.703540e-11	3.073844e+00	1.497571e+00
1.950000e-06	4.883195e-07	6.006004e-11	3.398504e+00	2.948121e+00
1.960000e-06	5.348481e-07	8.340093e-11	3.722324e+00	4.408139e+00
1.970000e-06	5.812852e-07	1.030513e-10	4.045507e+00	5.876561e+00
1.980000e-06	6.277111e-07	1.198318e-10	4.368613e+00	7.352286e+00
1.990000e-06	6.740409e-07	1.374766e-10	4.691049e+00	8.834180e+00
2.000000e-06	7.202963e-07	1.569402e-10	5.012968e+00	1.032108e+01
2.010000e-06	7.665349e-07	1.784745e-10	5.334770e+00	1.181179e+01
2.020000e-06	8.127127e-07	2.019015e-10	5.656148e+00	1.330511e+01
2.030000e-06	8.588630e-07	2.253058e-10	5.977335e+00	1.479981e+01
2.040000e-06	9.050053e-07	2.482737e-10	6.298467e+00	1.629465e+01
2.050000e-06	9.510944e-07	2.699038e-10	6.619228e+00	1.778838e+01
2.060000e-06	9.970759e-07	2.881395e-10	6.939241e+00	1.927974e+01
2.070000e-06	1.042952e-06	3.046220e-10	7.258521e+00	2.076749e+01
2.080000e-06	1.088722e-06	3.239887e-10	7.577063e+00	2.225038e+01
2.090000e-06	1.134418e-06	3.462650e-10	7.895086e+00	2.372717e+01
2.100000e-06	1.180100e-06	3.701290e-10	8.213011e+00	2.519663e+01
2.110000e-06	1.225707e-06	3.921595e-10	8.530421e+00	2.665757e+01
2.120000e-06	1.271236e-06	4.121932e-10	8.847284e+00	2.810881e+01
2.130000e-06	1.316736e-06	4.314041e-10	9.163941e+00	2.954919e+01
2.140000e-06	1.362153e-06	4.508280e-10	9.480026e+00	3.097758e+01
2.150000e-06	1.407468e-06	4.721413e-10	9.795401e+00	3.239291e+01
2.160000e-06	1.452634e-06	4.942926e-10	1.010974e+01	3.379412e+01
2.170000e-06	1.497694e-06	5.151384e-10	1.042334e+01	3.518021e+01
2.180000e-06	1.542642e-06	5.357958e-10	1.073616e+01	3.655022e+01
2.190000e-06	1.587415e-06	5.555483e-10	1.104776e+01	3.790325e+01
2.200000e-06	1.632093e-06	5.726301e-10	1.135870e+01	3.923842e+01
2.210000e-06	1.676623e-06	5.883000e-10	1.166861e+01	4.055495e+01
2.220000e-06	1.720971e-06	6.033991e-10	1.197725e+01	4.185207e+01
2.230000e-06	1.765200e-06	6.197927e-10	1.228507e+01	4.312911e+01
2.240000e-06	1.809299e-06	6.368767e-10	1.259198e+01	4.438542e+01
2.250000e-06	1.853316e-06	6.558612e-10	1.289832e+01	4.562045e+01
2.260000e-06	1.897231e-06	6.717073e-10	1.320395e+01	4.683368e+01
2.270000e-06	1.941033e-06	6.880664e-10	1.350879e+01	4.802466e+01
2.280000e-06	1.984759e-06	7.063938e-10	1.381311e+01	4.919302e+01
2.290000e-06	2.028448e-06	7.232708e-10	1.411717e+01	5.033843e+01
2.300000e-06	2.072094e-06	7.398630e-10	1.442092e+01	5.146063e+01
2.310000e-06	2.115698e-06	7.534037e-10	1.472439e+01	5.255942e+01
2.320000e-06	2.159243e-06	7.660297e-10	1.502745e+01	5.363467e+01
2.330000e-06	2.202700e-06	7.787205e-10	1.532989e+01	5.468629e+01
2.340000e-06	2.246089e-06	7.941629e-10	1.563186e+01	5.571426e+01
2.350000e-06	2.289345e-06	8.119902e-10	1.593290e+01	5.671861e+01
2.360000e-06	2.332420e-06	8.319491e-10	1.623269e+01	5.769942e+01
2.370000e-06	2.375176e-06	8.494414e-10	1.653026e+01	5.865684e+01
2.380000e-06	2.417505e-06	8.616180e-10	1.682484e+01	5.959104e+01
2.390000e-06	2.459535e-06	8.713418e-10	1.711736e+01	6.050225e+01
2.400000e-06	2.501272e-06	8.792543e-10	1.740783e+01	6.139075e+01
2.410000e-06	2.542623e-06	8.858127e-10	1.769562e+01	6.225683e+01
2.420000e-06	2.583662e-06	8.935084e-10	1.798123e+01	6.310086e+01
2.430000e-06	2.624543e-06	9.064907e-10	1.826574e+01	6.392320e+01
2.440000e-06	2.665211e-06	9.224176e-10	1.854878e+01	6.472427e+01
2.450000e-06	2.705542e-06	9.365010e-10	1.882946e+01	6.550450e+01
2.460000e-06	2.745611e-06	9.504636e-10	1.910833e+01	6.626435e+01
2.470000e-06	2.785487e-06	9.612505e-10	1.938585e+01	6.700431e+01
2.480000e-06	2.825254e-06	9.682990e-10	1.966261e+01	6.772486e+01
2.490000e-06	2.864980e-06	9.747624e-10	1.993909e+01	6.842651e+01
2.500000e-06	2.904560e-06	9.815910e-10	2.021455e+01	6.910980e+01
2.510000e-06	2.943913e-06	9.896199e-10	2.048843e+01	6.977523e+01
2.520000e-06	2.983123e-06	1.001092e-09	2.076131e+01	7.042334e+01
2.530000e-06	3.022218e-06	1.014745e-09	2.103340e+01	7.105467e+01
2.540000e-06	3.061185e-06	1.025690e-09	2.130459e+01	7.166974e+01
2.550000e-06	3.099951e-06	1.033276e-09	2.157439e+01	7.226909e+01
2.560000e-06	3.138451e-06	1.038622e-09	2.184233e+01	7.285323e+01
2.570000e-06	3.176675e-06	1.044870e-09	2.210836e+01	7.342268e+01
2.580000e-06	3.214658e-06	1.051791e-09	2.237270e+01	7.397794e+01
2.590000e-06	3.252461e-06	1.059336e-09	2.263580e+01	7.451950e+01
2.600000e-06	3.290094e-06	1.069525e-09	2.289771e+01	7.504784e+01
2.610000e-06	3.327457e-06	1.080015e-09	2.315774e+01	7.556342e+01
2.620000e-06	3.364570e-06	1.087450e-09	2.341603e+01	7.606669e+01
2.630000e-06	3.401442e-06	1.094067e-09	2.367264e+01	7.655807e+01
2.640000e-06	3.438090e-06	1.099571e-09	2.392770e+01	7.703799e+01
2.650000e-06	3.474540e-06	1.106227e-09	2.418138e+01	7.750682e+01
2.660000e-06	3.510703e-06	1.115299e-09	2.443306e+01	7.796494e+01
2.670000e-06	3.546665e-06	1.121806e-09	2.468334e+01	7.841270e+01
2.680000e-06	3.582484e-06	1.126544e-09	2.493262e+01	7.885045e+01
2.690000e-06	3.618140e-06	1.134598e-09	2.518078e+01	7.927848e+01
2.700000e-06	3.653655e-06	1.143732e-09	2.542794e+01	7.969709e+01
2.710000e-06	3.689004e-06	1.150989e-09	2.567396e+01	8.010657e+01
2.720000e-06	3.724169e-06	1.154537e-09	2.591869e+01	8.050715e+01
2.730000e-06	3.759019e-06	1.158132e-09	2.616123e+01	8.089909e+01
2.740000e-06	3.793421e-06	1.163292e-09	2.640066e+01	8.128260e+01
2.750000e-06	3.827453e-06	1.166516e-09	2.663751e+01	8.165788e+01
2.760000e-06	3.860993e-06	1.170896e-09	2.687093e+01	8.202512e+01
2.770000e-06	3.894093e-06	1.178600e-09	2.710129e+01	8.238449e+01
2.780000e-06	3.926780e-06	1.186821e-09	2.732878e+01	8.273615e+01
2.790000e-06	3.959038e-06	1.194369e-09	2.755329e+01	8.308024e+01
2.800000e-06	3.991060e-06	1.200862e-09	2.777615e+01	8.341689e+01
2.810000e-06	4.022919e-06	1.204799e-09	2.799787e+01	8.374623e+01
2.820000e-06	4.054659e-06	1.206635e-09	2.821877e+01	8.406835e+01
2.830000e-06	4.086231e-06	1.208477e-09	2.843850e+01	8.438337e+01
2.840000e-06	4.117594e-06	1.210959e-09	2.865677e+01	8.469137e+01
2.850000e-06	4.148684e-06	1.216106e-09	2.887314e+01	8.499243e+01
2.860000e-06	4.179489e-06	1.224539e-09	2.908753e+01	8.528663e+01
2.870000e-06	4.209992e-06	1.231492e-09	2.929982e+01	8.557404e+01
2.880000e-06	4.240106e-06	1.235168e-09	2.950941e+01	8.585473e+01
2.890000e-06	4.269862e-06	1.237570e-09	2.971649e+01	8.612876e+01
2.900000e-06	4.299331e-06	1.239540e-09	2.992159e+01	8.639618e+01
