# Temperatura_=_5.45
# Concentracion g/m^3_=_1620.0
# C_Vs_to_Am_M_A/Vsm_=_65563218390.804596
# pendiente_HvsI_1/m_=_3716.3
# ordenada_HvsI_A/m_=_1297.0
# frecuencia_Hz_=_135091.4974039437

Tiempo_(s)	Campo_(V.s)	Magnetizacion_(V.s)	Campo_(kA/m)	Magnetizacion_(A/m)
0.000000e+00	-5.529909e-06	-1.250332e-09	-3.838821e+01	-8.347410e+01
1.000000e-08	-5.529939e-06	-1.250474e-09	-3.838841e+01	-8.343674e+01
2.000000e-08	-5.529763e-06	-1.251049e-09	-3.838719e+01	-8.339930e+01
3.000000e-08	-5.529255e-06	-1.250789e-09	-3.838366e+01	-8.336172e+01
4.000000e-08	-5.528298e-06	-1.244421e-09	-3.837702e+01	-8.332393e+01
5.000000e-08	-5.526723e-06	-1.229048e-09	-3.836609e+01	-8.328584e+01
6.000000e-08	-5.524398e-06	-1.230316e-09	-3.834995e+01	-8.324733e+01
7.000000e-08	-5.521470e-06	-1.258572e-09	-3.832962e+01	-8.320828e+01
8.000000e-08	-5.518037e-06	-1.273734e-09	-3.830579e+01	-8.316855e+01
9.000000e-08	-5.514131e-06	-1.297730e-09	-3.827868e+01	-8.312799e+01
1.000000e-07	-5.509792e-06	-1.343479e-09	-3.824855e+01	-8.308643e+01
1.100000e-07	-5.505245e-06	-1.238904e-09	-3.821699e+01	-8.304370e+01
1.200000e-07	-5.500618e-06	-1.162076e-09	-3.818487e+01	-8.299961e+01
1.300000e-07	-5.495670e-06	-1.176859e-09	-3.815052e+01	-8.295396e+01
1.400000e-07	-5.490264e-06	-1.286845e-09	-3.811299e+01	-8.290653e+01
1.500000e-07	-5.484429e-06	-1.247103e-09	-3.807249e+01	-8.285711e+01
1.600000e-07	-5.478214e-06	-1.146889e-09	-3.802934e+01	-8.280548e+01
1.700000e-07	-5.471596e-06	-1.228328e-09	-3.798340e+01	-8.275141e+01
1.800000e-07	-5.464558e-06	-1.349740e-09	-3.793455e+01	-8.269466e+01
1.900000e-07	-5.457279e-06	-1.307382e-09	-3.788401e+01	-8.263499e+01
2.000000e-07	-5.449765e-06	-1.166643e-09	-3.783185e+01	-8.257218e+01
2.100000e-07	-5.441951e-06	-1.188277e-09	-3.777761e+01	-8.250597e+01
2.200000e-07	-5.433907e-06	-1.276888e-09	-3.772177e+01	-8.243613e+01
2.300000e-07	-5.425542e-06	-1.291065e-09	-3.766370e+01	-8.236243e+01
2.400000e-07	-5.416603e-06	-1.213726e-09	-3.760165e+01	-8.228464e+01
2.500000e-07	-5.406872e-06	-1.240438e-09	-3.753409e+01	-8.220253e+01
2.600000e-07	-5.396446e-06	-1.271387e-09	-3.746172e+01	-8.211587e+01
2.700000e-07	-5.385482e-06	-1.250533e-09	-3.738560e+01	-8.202446e+01
2.800000e-07	-5.374107e-06	-1.202954e-09	-3.730664e+01	-8.192809e+01
2.900000e-07	-5.362424e-06	-1.229952e-09	-3.722554e+01	-8.182657e+01
3.000000e-07	-5.350310e-06	-1.244323e-09	-3.714145e+01	-8.171972e+01
3.100000e-07	-5.337816e-06	-1.237947e-09	-3.705471e+01	-8.160736e+01
3.200000e-07	-5.324925e-06	-1.216515e-09	-3.696523e+01	-8.148934e+01
3.300000e-07	-5.311499e-06	-1.227509e-09	-3.687202e+01	-8.136552e+01
3.400000e-07	-5.297670e-06	-1.243469e-09	-3.677602e+01	-8.123576e+01
3.500000e-07	-5.283616e-06	-1.245287e-09	-3.667846e+01	-8.109994e+01
3.600000e-07	-5.269158e-06	-1.201799e-09	-3.657809e+01	-8.095798e+01
3.700000e-07	-5.254214e-06	-1.213938e-09	-3.647435e+01	-8.080979e+01
3.800000e-07	-5.238727e-06	-1.259063e-09	-3.636684e+01	-8.065529e+01
3.900000e-07	-5.222701e-06	-1.228068e-09	-3.625559e+01	-8.049444e+01
4.000000e-07	-5.206205e-06	-1.182203e-09	-3.614108e+01	-8.032721e+01
4.100000e-07	-5.189318e-06	-1.229920e-09	-3.602385e+01	-8.015358e+01
4.200000e-07	-5.172190e-06	-1.244578e-09	-3.590495e+01	-7.997354e+01
4.300000e-07	-5.154651e-06	-1.161571e-09	-3.578320e+01	-7.978712e+01
4.400000e-07	-5.136796e-06	-1.204438e-09	-3.565925e+01	-7.959434e+01
4.500000e-07	-5.118656e-06	-1.276186e-09	-3.553332e+01	-7.939525e+01
4.600000e-07	-5.100054e-06	-1.200407e-09	-3.540418e+01	-7.918992e+01
4.700000e-07	-5.080997e-06	-1.144306e-09	-3.527189e+01	-7.897841e+01
4.800000e-07	-5.061566e-06	-1.246019e-09	-3.513701e+01	-7.876083e+01
4.900000e-07	-5.041888e-06	-1.225436e-09	-3.500040e+01	-7.853728e+01
5.000000e-07	-5.021985e-06	-1.140606e-09	-3.486224e+01	-7.830786e+01
5.100000e-07	-5.001869e-06	-1.195370e-09	-3.472259e+01	-7.807271e+01
5.200000e-07	-4.981475e-06	-1.239123e-09	-3.458102e+01	-7.783196e+01
5.300000e-07	-4.960744e-06	-1.146751e-09	-3.443710e+01	-7.758577e+01
5.400000e-07	-4.939625e-06	-1.179427e-09	-3.429050e+01	-7.733428e+01
5.500000e-07	-4.918127e-06	-1.243282e-09	-3.414126e+01	-7.707766e+01
5.600000e-07	-4.896299e-06	-1.154647e-09	-3.398973e+01	-7.681608e+01
5.700000e-07	-4.874169e-06	-1.113295e-09	-3.383611e+01	-7.654970e+01
5.800000e-07	-4.851779e-06	-1.209437e-09	-3.368068e+01	-7.627871e+01
5.900000e-07	-4.828981e-06	-1.180687e-09	-3.352242e+01	-7.600328e+01
6.000000e-07	-4.805722e-06	-1.110954e-09	-3.336095e+01	-7.572360e+01
6.100000e-07	-4.782159e-06	-1.162346e-09	-3.319738e+01	-7.543984e+01
6.200000e-07	-4.758419e-06	-1.175859e-09	-3.303258e+01	-7.515218e+01
6.300000e-07	-4.734497e-06	-1.104358e-09	-3.286652e+01	-7.486080e+01
6.400000e-07	-4.710304e-06	-1.123522e-09	-3.269857e+01	-7.456587e+01
6.500000e-07	-4.685659e-06	-1.158495e-09	-3.252749e+01	-7.426755e+01
6.600000e-07	-4.660541e-06	-1.113193e-09	-3.235312e+01	-7.396602e+01
6.700000e-07	-4.634963e-06	-1.107792e-09	-3.217556e+01	-7.366143e+01
6.800000e-07	-4.608864e-06	-1.142193e-09	-3.199439e+01	-7.335393e+01
6.900000e-07	-4.582241e-06	-1.116590e-09	-3.180957e+01	-7.304365e+01
7.000000e-07	-4.555152e-06	-1.087674e-09	-3.162152e+01	-7.273074e+01
7.100000e-07	-4.527697e-06	-1.110454e-09	-3.143093e+01	-7.241530e+01
7.200000e-07	-4.500037e-06	-1.101704e-09	-3.123891e+01	-7.209746e+01
7.300000e-07	-4.472259e-06	-1.076658e-09	-3.104608e+01	-7.177732e+01
7.400000e-07	-4.444271e-06	-1.085677e-09	-3.085179e+01	-7.145495e+01
7.500000e-07	-4.416017e-06	-1.090914e-09	-3.065565e+01	-7.113045e+01
7.600000e-07	-4.387445e-06	-1.061638e-09	-3.045731e+01	-7.080387e+01
7.700000e-07	-4.358572e-06	-1.055177e-09	-3.025687e+01	-7.047527e+01
7.800000e-07	-4.329307e-06	-1.057246e-09	-3.005372e+01	-7.014469e+01
7.900000e-07	-4.299687e-06	-1.047771e-09	-2.984810e+01	-6.981216e+01
8.000000e-07	-4.269842e-06	-1.038088e-09	-2.964092e+01	-6.947770e+01
8.100000e-07	-4.239750e-06	-1.040543e-09	-2.943202e+01	-6.914130e+01
8.200000e-07	-4.209394e-06	-1.026554e-09	-2.922129e+01	-6.880297e+01
8.300000e-07	-4.178749e-06	-1.023000e-09	-2.900856e+01	-6.846268e+01
8.400000e-07	-4.147793e-06	-1.028168e-09	-2.879366e+01	-6.812040e+01
8.500000e-07	-4.116554e-06	-1.021390e-09	-2.857680e+01	-6.777609e+01
8.600000e-07	-4.085105e-06	-1.000725e-09	-2.835849e+01	-6.742971e+01
8.700000e-07	-4.053536e-06	-9.977834e-10	-2.813934e+01	-6.708118e+01
8.800000e-07	-4.021794e-06	-9.905783e-10	-2.791898e+01	-6.673045e+01
8.900000e-07	-3.989847e-06	-9.791215e-10	-2.769721e+01	-6.637744e+01
9.000000e-07	-3.957709e-06	-9.770351e-10	-2.747412e+01	-6.602206e+01
9.100000e-07	-3.925276e-06	-9.783678e-10	-2.724897e+01	-6.566423e+01
9.200000e-07	-3.892424e-06	-9.642459e-10	-2.702091e+01	-6.530384e+01
9.300000e-07	-3.859048e-06	-9.577492e-10	-2.678922e+01	-6.494081e+01
9.400000e-07	-3.825242e-06	-9.601869e-10	-2.655454e+01	-6.457502e+01
9.500000e-07	-3.790984e-06	-9.505672e-10	-2.631672e+01	-6.420638e+01
9.600000e-07	-3.756278e-06	-9.359132e-10	-2.607579e+01	-6.383477e+01
9.700000e-07	-3.721246e-06	-9.324987e-10	-2.583260e+01	-6.346009e+01
9.800000e-07	-3.685900e-06	-9.310618e-10	-2.558724e+01	-6.308223e+01
9.900000e-07	-3.650330e-06	-9.227584e-10	-2.534031e+01	-6.270108e+01
1.000000e-06	-3.614537e-06	-9.228628e-10	-2.509184e+01	-6.231654e+01
1.010000e-06	-3.578613e-06	-9.220282e-10	-2.484246e+01	-6.192850e+01
1.020000e-06	-3.542609e-06	-9.141467e-10	-2.459252e+01	-6.153687e+01
1.030000e-06	-3.506424e-06	-9.040581e-10	-2.434133e+01	-6.114155e+01
1.040000e-06	-3.470017e-06	-8.961935e-10	-2.408859e+01	-6.074245e+01
1.050000e-06	-3.433362e-06	-8.800855e-10	-2.383413e+01	-6.033949e+01
1.060000e-06	-3.396542e-06	-8.679350e-10	-2.357854e+01	-5.993258e+01
1.070000e-06	-3.359522e-06	-8.620056e-10	-2.332155e+01	-5.952165e+01
1.080000e-06	-3.322187e-06	-8.605669e-10	-2.306237e+01	-5.910664e+01
1.090000e-06	-3.284571e-06	-8.536569e-10	-2.280124e+01	-5.868747e+01
1.100000e-06	-3.246759e-06	-8.521812e-10	-2.253875e+01	-5.826411e+01
1.110000e-06	-3.208679e-06	-8.432410e-10	-2.227441e+01	-5.783649e+01
1.120000e-06	-3.170282e-06	-8.310192e-10	-2.200785e+01	-5.740459e+01
1.130000e-06	-3.131676e-06	-8.216194e-10	-2.173985e+01	-5.696835e+01
1.140000e-06	-3.092882e-06	-8.163077e-10	-2.147055e+01	-5.652776e+01
1.150000e-06	-3.053856e-06	-8.073926e-10	-2.119964e+01	-5.608278e+01
1.160000e-06	-3.014588e-06	-7.998686e-10	-2.092704e+01	-5.563340e+01
1.170000e-06	-2.975148e-06	-7.974376e-10	-2.065325e+01	-5.517961e+01
1.180000e-06	-2.935633e-06	-7.962603e-10	-2.037894e+01	-5.472138e+01
1.190000e-06	-2.896025e-06	-7.907931e-10	-2.010399e+01	-5.425871e+01
1.200000e-06	-2.856281e-06	-7.814827e-10	-1.982809e+01	-5.379160e+01
1.210000e-06	-2.816398e-06	-7.700075e-10	-1.955122e+01	-5.332004e+01
1.220000e-06	-2.776319e-06	-7.586706e-10	-1.927299e+01	-5.284401e+01
1.230000e-06	-2.736022e-06	-7.502176e-10	-1.899326e+01	-5.236351e+01
1.240000e-06	-2.695617e-06	-7.431802e-10	-1.871277e+01	-5.187854e+01
1.250000e-06	-2.655015e-06	-7.381285e-10	-1.843091e+01	-5.138906e+01
1.260000e-06	-2.614127e-06	-7.330150e-10	-1.814707e+01	-5.089507e+01
1.270000e-06	-2.572937e-06	-7.252432e-10	-1.786113e+01	-5.039654e+01
1.280000e-06	-2.531504e-06	-7.180548e-10	-1.757351e+01	-4.989342e+01
1.290000e-06	-2.489847e-06	-7.109254e-10	-1.728433e+01	-4.938569e+01
1.300000e-06	-2.447751e-06	-7.005912e-10	-1.699210e+01	-4.887327e+01
1.310000e-06	-2.405356e-06	-6.910347e-10	-1.669780e+01	-4.835611e+01
1.320000e-06	-2.362713e-06	-6.827465e-10	-1.640177e+01	-4.783413e+01
1.330000e-06	-2.319802e-06	-6.762181e-10	-1.610389e+01	-4.730724e+01
1.340000e-06	-2.276679e-06	-6.691262e-10	-1.580453e+01	-4.677532e+01
1.350000e-06	-2.233315e-06	-6.597577e-10	-1.550350e+01	-4.623825e+01
1.360000e-06	-2.189753e-06	-6.463599e-10	-1.520110e+01	-4.569590e+01
1.370000e-06	-2.146157e-06	-6.368804e-10	-1.489846e+01	-4.514809e+01
1.380000e-06	-2.102503e-06	-6.305264e-10	-1.459542e+01	-4.459465e+01
1.390000e-06	-2.058641e-06	-6.213521e-10	-1.429093e+01	-4.403539e+01
1.400000e-06	-2.014669e-06	-6.088289e-10	-1.398568e+01	-4.347008e+01
1.410000e-06	-1.970718e-06	-5.995016e-10	-1.368057e+01	-4.289848e+01
1.420000e-06	-1.926675e-06	-5.919607e-10	-1.337483e+01	-4.232034e+01
1.430000e-06	-1.882492e-06	-5.843710e-10	-1.306812e+01	-4.173538e+01
1.440000e-06	-1.838241e-06	-5.747649e-10	-1.276093e+01	-4.114330e+01
1.450000e-06	-1.793821e-06	-5.671347e-10	-1.245257e+01	-4.054377e+01
1.460000e-06	-1.749299e-06	-5.583478e-10	-1.214350e+01	-3.993645e+01
1.470000e-06	-1.704760e-06	-5.480966e-10	-1.183431e+01	-3.932100e+01
1.480000e-06	-1.660172e-06	-5.365019e-10	-1.152479e+01	-3.869703e+01
1.490000e-06	-1.615399e-06	-5.250493e-10	-1.121397e+01	-3.806416e+01
1.500000e-06	-1.570361e-06	-5.159325e-10	-1.090132e+01	-3.742196e+01
1.510000e-06	-1.525199e-06	-5.068128e-10	-1.058782e+01	-3.677003e+01
1.520000e-06	-1.480010e-06	-4.969129e-10	-1.027412e+01	-3.610792e+01
1.530000e-06	-1.434674e-06	-4.862810e-10	-9.959396e+00	-3.543519e+01
1.540000e-06	-1.389198e-06	-4.733059e-10	-9.643706e+00	-3.475139e+01
1.550000e-06	-1.343654e-06	-4.593776e-10	-9.327542e+00	-3.405606e+01
1.560000e-06	-1.298079e-06	-4.447733e-10	-9.011165e+00	-3.334873e+01
1.570000e-06	-1.252444e-06	-4.318568e-10	-8.694370e+00	-3.262894e+01
1.580000e-06	-1.206633e-06	-4.202520e-10	-8.376357e+00	-3.189623e+01
1.590000e-06	-1.160762e-06	-4.110630e-10	-8.057922e+00	-3.115012e+01
1.600000e-06	-1.114834e-06	-4.036002e-10	-7.739091e+00	-3.039018e+01
1.610000e-06	-1.068719e-06	-3.941630e-10	-7.418966e+00	-2.961596e+01
1.620000e-06	-1.022528e-06	-3.854939e-10	-7.098314e+00	-2.882701e+01
1.630000e-06	-9.762878e-07	-3.774995e-10	-6.777316e+00	-2.802293e+01
1.640000e-06	-9.299855e-07	-3.675642e-10	-6.455888e+00	-2.720332e+01
1.650000e-06	-8.836708e-07	-3.550761e-10	-6.134375e+00	-2.636780e+01
1.660000e-06	-8.372743e-07	-3.439911e-10	-5.812294e+00	-2.551602e+01
1.670000e-06	-7.907760e-07	-3.309083e-10	-5.489507e+00	-2.464765e+01
1.680000e-06	-7.442646e-07	-3.162616e-10	-5.166628e+00	-2.376239e+01
1.690000e-06	-6.977564e-07	-3.017729e-10	-4.843771e+00	-2.285999e+01
1.700000e-06	-6.512233e-07	-2.877376e-10	-4.520742e+00	-2.194023e+01
1.710000e-06	-6.046365e-07	-2.734827e-10	-4.197341e+00	-2.100290e+01
1.720000e-06	-5.579512e-07	-2.606696e-10	-3.873255e+00	-2.004788e+01
1.730000e-06	-5.112555e-07	-2.463340e-10	-3.549097e+00	-1.907506e+01
1.740000e-06	-4.645650e-07	-2.298283e-10	-3.224975e+00	-1.808437e+01
1.750000e-06	-4.178276e-07	-2.143785e-10	-2.900527e+00	-1.707582e+01
1.760000e-06	-3.709572e-07	-2.008237e-10	-2.575157e+00	-1.604945e+01
1.770000e-06	-3.240343e-07	-1.869296e-10	-2.249421e+00	-1.500535e+01
1.780000e-06	-2.771688e-07	-1.734516e-10	-1.924085e+00	-1.394365e+01
1.790000e-06	-2.303076e-07	-1.598373e-10	-1.598777e+00	-1.286458e+01
1.800000e-06	-1.833361e-07	-1.442794e-10	-1.272705e+00	-1.176836e+01
1.810000e-06	-1.363824e-07	-1.274598e-10	-9.467562e-01	-1.065533e+01
1.820000e-06	-8.948912e-08	-1.114413e-10	-6.212266e-01	-9.525831e+00
1.830000e-06	-4.254683e-08	-9.713652e-11	-2.953568e-01	-8.380292e+00
1.840000e-06	4.448070e-09	-8.266314e-11	3.087816e-02	-7.219184e+00
1.850000e-06	5.141739e-08	-6.637525e-11	3.569356e-01	-6.043037e+00
1.860000e-06	9.829710e-08	-4.959507e-11	6.823709e-01	-4.852431e+00
1.870000e-06	1.452537e-07	-3.177956e-11	1.008340e+00	-3.648000e+00
1.880000e-06	1.922077e-07	-1.198510e-11	1.334291e+00	-2.430429e+00
1.890000e-06	2.390554e-07	8.749394e-12	1.659504e+00	-1.200451e+00
1.900000e-06	2.859145e-07	2.802164e-11	1.984797e+00	4.115442e-02
1.910000e-06	3.327846e-07	4.466637e-11	2.310165e+00	1.293561e+00
1.920000e-06	3.795649e-07	5.881003e-11	2.634910e+00	2.555904e+00
1.930000e-06	4.263133e-07	7.121807e-11	2.959434e+00	3.827276e+00
1.940000e-06	4.730193e-07	8.780840e-11	3.283664e+00	5.106735e+00
1.950000e-06	5.197017e-07	1.071062e-10	3.607729e+00	6.393307e+00
1.960000e-06	5.664749e-07	1.268961e-10	3.932425e+00	7.685986e+00
1.970000e-06	6.131307e-07	1.456230e-10	4.256307e+00	8.983743e+00
1.980000e-06	6.595910e-07	1.631306e-10	4.578831e+00	1.028552e+01
1.990000e-06	7.061013e-07	1.822716e-10	4.901701e+00	1.159026e+01
2.000000e-06	7.525808e-07	2.002091e-10	5.224359e+00	1.289686e+01
2.010000e-06	7.989919e-07	2.179340e-10	5.546540e+00	1.420424e+01
2.020000e-06	8.454021e-07	2.384853e-10	5.868717e+00	1.551129e+01
2.030000e-06	8.916992e-07	2.595965e-10	6.190108e+00	1.681691e+01
2.040000e-06	9.378448e-07	2.781308e-10	6.510447e+00	1.811999e+01
2.050000e-06	9.838666e-07	2.955303e-10	6.829927e+00	1.941945e+01
2.060000e-06	1.029907e-06	3.132423e-10	7.149536e+00	2.071419e+01
2.070000e-06	1.075927e-06	3.310737e-10	7.469003e+00	2.200315e+01
2.080000e-06	1.121757e-06	3.490105e-10	7.787152e+00	2.328526e+01
2.090000e-06	1.167533e-06	3.689972e-10	8.104923e+00	2.455952e+01
2.100000e-06	1.213355e-06	3.917716e-10	8.423019e+00	2.582489e+01
2.110000e-06	1.259068e-06	4.108177e-10	8.740356e+00	2.708043e+01
2.120000e-06	1.304716e-06	4.266575e-10	9.057237e+00	2.832516e+01
2.130000e-06	1.350342e-06	4.432763e-10	9.373971e+00	2.955820e+01
2.140000e-06	1.395850e-06	4.605626e-10	9.689885e+00	3.077868e+01
2.150000e-06	1.441185e-06	4.784773e-10	1.000459e+01	3.198575e+01
2.160000e-06	1.486418e-06	4.964902e-10	1.031860e+01	3.317865e+01
2.170000e-06	1.531556e-06	5.139165e-10	1.063195e+01	3.435663e+01
2.180000e-06	1.576568e-06	5.319840e-10	1.094442e+01	3.551900e+01
2.190000e-06	1.621423e-06	5.482813e-10	1.125580e+01	3.666511e+01
2.200000e-06	1.666111e-06	5.635570e-10	1.156602e+01	3.779439e+01
2.210000e-06	1.710703e-06	5.768600e-10	1.187557e+01	3.890629e+01
2.220000e-06	1.755181e-06	5.893971e-10	1.218433e+01	4.000033e+01
2.230000e-06	1.799522e-06	6.028330e-10	1.249214e+01	4.107606e+01
2.240000e-06	1.843631e-06	6.146591e-10	1.279835e+01	4.213312e+01
2.250000e-06	1.887627e-06	6.277042e-10	1.310376e+01	4.317118e+01
2.260000e-06	1.931592e-06	6.415317e-10	1.340897e+01	4.418996e+01
2.270000e-06	1.975505e-06	6.600838e-10	1.371381e+01	4.518924e+01
2.280000e-06	2.019393e-06	6.778062e-10	1.401847e+01	4.616886e+01
2.290000e-06	2.063212e-06	6.941639e-10	1.432266e+01	4.712869e+01
2.300000e-06	2.106991e-06	7.074212e-10	1.462657e+01	4.806866e+01
2.310000e-06	2.150684e-06	7.177081e-10	1.492988e+01	4.898876e+01
2.320000e-06	2.194278e-06	7.287892e-10	1.523251e+01	4.988901e+01
2.330000e-06	2.237731e-06	7.387407e-10	1.553416e+01	5.076947e+01
2.340000e-06	2.281012e-06	7.502493e-10	1.583461e+01	5.163026e+01
2.350000e-06	2.324113e-06	7.670108e-10	1.613381e+01	5.247152e+01
2.360000e-06	2.367011e-06	7.852754e-10	1.643161e+01	5.329344e+01
2.370000e-06	2.409602e-06	7.974785e-10	1.672728e+01	5.409625e+01
2.380000e-06	2.451806e-06	8.062328e-10	1.702025e+01	5.488019e+01
2.390000e-06	2.493707e-06	8.148734e-10	1.731113e+01	5.564555e+01
2.400000e-06	2.535176e-06	8.216205e-10	1.759900e+01	5.639263e+01
2.410000e-06	2.576279e-06	8.293420e-10	1.788433e+01	5.712178e+01
2.420000e-06	2.617164e-06	8.420222e-10	1.816816e+01	5.783335e+01
2.430000e-06	2.657863e-06	8.575723e-10	1.845068e+01	5.852770e+01
2.440000e-06	2.698431e-06	8.707239e-10	1.873230e+01	5.920524e+01
2.450000e-06	2.738768e-06	8.776874e-10	1.901232e+01	5.986636e+01
2.460000e-06	2.778863e-06	8.845777e-10	1.929065e+01	6.051147e+01
2.470000e-06	2.818846e-06	8.915044e-10	1.956821e+01	6.114100e+01
2.480000e-06	2.858705e-06	8.998611e-10	1.984491e+01	6.175538e+01
2.490000e-06	2.898475e-06	9.088223e-10	2.012099e+01	6.235503e+01
2.500000e-06	2.938111e-06	9.174195e-10	2.039614e+01	6.294038e+01
2.510000e-06	2.977604e-06	9.279738e-10	2.067030e+01	6.351187e+01
2.520000e-06	3.016926e-06	9.384832e-10	2.094327e+01	6.406992e+01
2.530000e-06	3.055999e-06	9.449902e-10	2.121451e+01	6.461495e+01
2.540000e-06	3.094858e-06	9.494833e-10	2.148427e+01	6.514738e+01
2.550000e-06	3.133455e-06	9.547768e-10	2.175220e+01	6.566761e+01
2.560000e-06	3.171890e-06	9.615601e-10	2.201902e+01	6.617605e+01
2.570000e-06	3.210145e-06	9.692535e-10	2.228458e+01	6.667307e+01
2.580000e-06	3.248121e-06	9.786254e-10	2.254821e+01	6.715906e+01
2.590000e-06	3.285826e-06	9.885608e-10	2.280995e+01	6.763438e+01
2.600000e-06	3.323365e-06	9.963687e-10	2.307054e+01	6.809937e+01
2.610000e-06	3.360753e-06	1.000292e-09	2.333009e+01	6.855436e+01
2.620000e-06	3.397874e-06	1.003066e-09	2.358778e+01	6.899969e+01
2.630000e-06	3.434643e-06	1.005293e-09	2.384303e+01	6.943565e+01
2.640000e-06	3.471101e-06	1.007792e-09	2.409612e+01	6.986253e+01
2.650000e-06	3.507303e-06	1.014813e-09	2.434743e+01	7.028061e+01
2.660000e-06	3.543311e-06	1.023526e-09	2.459739e+01	7.069014e+01
2.670000e-06	3.579257e-06	1.031170e-09	2.484693e+01	7.109138e+01
2.680000e-06	3.615081e-06	1.039434e-09	2.509562e+01	7.148456e+01
2.690000e-06	3.650796e-06	1.046533e-09	2.534354e+01	7.186988e+01
2.700000e-06	3.686410e-06	1.050897e-09	2.559077e+01	7.224755e+01
2.710000e-06	3.721783e-06	1.055620e-09	2.583633e+01	7.261776e+01
2.720000e-06	3.756824e-06	1.061222e-09	2.607959e+01	7.298069e+01
2.730000e-06	3.791464e-06	1.065759e-09	2.632006e+01	7.333650e+01
2.740000e-06	3.825617e-06	1.069581e-09	2.655714e+01	7.368535e+01
2.750000e-06	3.859161e-06	1.074254e-09	2.679000e+01	7.402737e+01
2.760000e-06	3.892209e-06	1.079497e-09	2.701942e+01	7.436270e+01
2.770000e-06	3.924984e-06	1.086045e-09	2.724694e+01	7.469147e+01
2.780000e-06	3.957448e-06	1.092937e-09	2.747230e+01	7.501377e+01
2.790000e-06	3.989607e-06	1.100920e-09	2.769554e+01	7.532973e+01
2.800000e-06	4.021573e-06	1.106187e-09	2.791745e+01	7.563944e+01
2.810000e-06	4.053412e-06	1.108800e-09	2.813848e+01	7.594298e+01
2.820000e-06	4.085125e-06	1.111133e-09	2.835862e+01	7.624046e+01
2.830000e-06	4.116659e-06	1.114637e-09	2.857753e+01	7.653194e+01
2.840000e-06	4.147927e-06	1.122329e-09	2.879460e+01	7.681750e+01
2.850000e-06	4.178868e-06	1.129058e-09	2.900938e+01	7.709721e+01
2.860000e-06	4.209519e-06	1.136307e-09	2.922216e+01	7.737114e+01
2.870000e-06	4.239859e-06	1.140028e-09	2.943277e+01	7.763936e+01
2.880000e-06	4.269901e-06	1.139389e-09	2.964133e+01	7.790191e+01
2.890000e-06	4.299605e-06	1.142067e-09	2.984753e+01	7.815885e+01
2.900000e-06	4.328991e-06	1.148477e-09	3.005153e+01	7.841025e+01
2.910000e-06	4.358123e-06	1.159102e-09	3.025376e+01	7.865614e+01
