# Temperatura_=_-0.8
# Concentracion g/m^3_=_1620.0
# C_Vs_to_Am_M_A/Vsm_=_65563218390.804596
# pendiente_HvsI_1/m_=_3716.3
# ordenada_HvsI_A/m_=_1297.0
# frecuencia_Hz_=_135103.8172203463

Tiempo_(s)	Campo_(V.s)	Magnetizacion_(V.s)	Campo_(kA/m)	Magnetizacion_(A/m)
0.000000e+00	-5.507236e-06	-1.226668e-09	-3.837026e+01	-8.180798e+01
1.000000e-08	-5.507563e-06	-1.222076e-09	-3.837254e+01	-8.176286e+01
2.000000e-08	-5.507630e-06	-1.222554e-09	-3.837300e+01	-8.171843e+01
3.000000e-08	-5.507346e-06	-1.227666e-09	-3.837103e+01	-8.167467e+01
4.000000e-08	-5.506586e-06	-1.229775e-09	-3.836573e+01	-8.163153e+01
5.000000e-08	-5.505212e-06	-1.218440e-09	-3.835616e+01	-8.158891e+01
6.000000e-08	-5.503160e-06	-1.200774e-09	-3.834186e+01	-8.154672e+01
7.000000e-08	-5.500577e-06	-1.205504e-09	-3.832387e+01	-8.150483e+01
8.000000e-08	-5.497594e-06	-1.265380e-09	-3.830308e+01	-8.146309e+01
9.000000e-08	-5.494100e-06	-1.319655e-09	-3.827874e+01	-8.142134e+01
1.000000e-07	-5.490044e-06	-1.276672e-09	-3.825048e+01	-8.137937e+01
1.100000e-07	-5.485736e-06	-1.163162e-09	-3.822046e+01	-8.133699e+01
1.200000e-07	-5.481304e-06	-1.157047e-09	-3.818958e+01	-8.129398e+01
1.300000e-07	-5.476556e-06	-1.229182e-09	-3.815650e+01	-8.125009e+01
1.400000e-07	-5.471372e-06	-1.272446e-09	-3.812038e+01	-8.120510e+01
1.500000e-07	-5.465845e-06	-1.172280e-09	-3.808188e+01	-8.115874e+01
1.600000e-07	-5.460033e-06	-1.164014e-09	-3.804138e+01	-8.111076e+01
1.700000e-07	-5.453791e-06	-1.237827e-09	-3.799790e+01	-8.106089e+01
1.800000e-07	-5.447036e-06	-1.309979e-09	-3.795083e+01	-8.100887e+01
1.900000e-07	-5.439904e-06	-1.217107e-09	-3.790114e+01	-8.095444e+01
2.000000e-07	-5.432562e-06	-1.158120e-09	-3.784999e+01	-8.089734e+01
2.100000e-07	-5.424971e-06	-1.218347e-09	-3.779710e+01	-8.083732e+01
2.200000e-07	-5.417077e-06	-1.304546e-09	-3.774210e+01	-8.077413e+01
2.300000e-07	-5.408849e-06	-1.275790e-09	-3.768478e+01	-8.070755e+01
2.400000e-07	-5.400149e-06	-1.212328e-09	-3.762416e+01	-8.063735e+01
2.500000e-07	-5.390744e-06	-1.245770e-09	-3.755863e+01	-8.056333e+01
2.600000e-07	-5.380651e-06	-1.263929e-09	-3.748831e+01	-8.048530e+01
2.700000e-07	-5.369950e-06	-1.227282e-09	-3.741376e+01	-8.040308e+01
2.800000e-07	-5.358754e-06	-1.186189e-09	-3.733575e+01	-8.031653e+01
2.900000e-07	-5.347280e-06	-1.244401e-09	-3.725580e+01	-8.022552e+01
3.000000e-07	-5.335496e-06	-1.240467e-09	-3.717370e+01	-8.012992e+01
3.100000e-07	-5.323250e-06	-1.202606e-09	-3.708838e+01	-8.002966e+01
3.200000e-07	-5.310510e-06	-1.171260e-09	-3.699962e+01	-7.992466e+01
3.300000e-07	-5.297470e-06	-1.229464e-09	-3.690877e+01	-7.981488e+01
3.400000e-07	-5.284137e-06	-1.207431e-09	-3.681587e+01	-7.970030e+01
3.500000e-07	-5.270343e-06	-1.187126e-09	-3.671976e+01	-7.958092e+01
3.600000e-07	-5.256040e-06	-1.192308e-09	-3.662011e+01	-7.945675e+01
3.700000e-07	-5.241342e-06	-1.236728e-09	-3.651771e+01	-7.932785e+01
3.800000e-07	-5.226053e-06	-1.198530e-09	-3.641119e+01	-7.919426e+01
3.900000e-07	-5.210132e-06	-1.188019e-09	-3.630026e+01	-7.905608e+01
4.000000e-07	-5.193816e-06	-1.207797e-09	-3.618658e+01	-7.891339e+01
4.100000e-07	-5.177186e-06	-1.206031e-09	-3.607072e+01	-7.876632e+01
4.200000e-07	-5.160247e-06	-1.163710e-09	-3.595270e+01	-7.861498e+01
4.300000e-07	-5.142991e-06	-1.185891e-09	-3.583247e+01	-7.845952e+01
4.400000e-07	-5.125445e-06	-1.221124e-09	-3.571023e+01	-7.830009e+01
4.500000e-07	-5.107475e-06	-1.197442e-09	-3.558503e+01	-7.813684e+01
4.600000e-07	-5.089058e-06	-1.173158e-09	-3.545671e+01	-7.796995e+01
4.700000e-07	-5.070228e-06	-1.193624e-09	-3.532552e+01	-7.779957e+01
4.800000e-07	-5.051063e-06	-1.196172e-09	-3.519199e+01	-7.762588e+01
4.900000e-07	-5.031668e-06	-1.170722e-09	-3.505686e+01	-7.744906e+01
5.000000e-07	-5.012059e-06	-1.178840e-09	-3.492024e+01	-7.726927e+01
5.100000e-07	-4.992233e-06	-1.174460e-09	-3.478211e+01	-7.708668e+01
5.200000e-07	-4.972152e-06	-1.157767e-09	-3.464220e+01	-7.690144e+01
5.300000e-07	-4.951770e-06	-1.169905e-09	-3.450019e+01	-7.671371e+01
5.400000e-07	-4.931059e-06	-1.200529e-09	-3.435589e+01	-7.652364e+01
5.500000e-07	-4.909961e-06	-1.170579e-09	-3.420890e+01	-7.633136e+01
5.600000e-07	-4.888462e-06	-1.152748e-09	-3.405911e+01	-7.613697e+01
5.700000e-07	-4.866665e-06	-1.164470e-09	-3.390724e+01	-7.594060e+01
5.800000e-07	-4.844529e-06	-1.170283e-09	-3.375302e+01	-7.574233e+01
5.900000e-07	-4.822039e-06	-1.145000e-09	-3.359632e+01	-7.554223e+01
6.000000e-07	-4.799190e-06	-1.148818e-09	-3.343713e+01	-7.534037e+01
6.100000e-07	-4.775976e-06	-1.144840e-09	-3.327539e+01	-7.513679e+01
6.200000e-07	-4.752532e-06	-1.138657e-09	-3.311205e+01	-7.493150e+01
6.300000e-07	-4.728874e-06	-1.134556e-09	-3.294722e+01	-7.472452e+01
6.400000e-07	-4.704983e-06	-1.142741e-09	-3.278077e+01	-7.451584e+01
6.500000e-07	-4.680718e-06	-1.133914e-09	-3.261171e+01	-7.430543e+01
6.600000e-07	-4.656050e-06	-1.136739e-09	-3.243984e+01	-7.409323e+01
6.700000e-07	-4.630902e-06	-1.128751e-09	-3.226463e+01	-7.387920e+01
6.800000e-07	-4.605182e-06	-1.118875e-09	-3.208543e+01	-7.366325e+01
6.900000e-07	-4.578833e-06	-1.112600e-09	-3.190185e+01	-7.344530e+01
7.000000e-07	-4.551950e-06	-1.114547e-09	-3.171455e+01	-7.322524e+01
7.100000e-07	-4.524775e-06	-1.104865e-09	-3.152521e+01	-7.300295e+01
7.200000e-07	-4.497393e-06	-1.109156e-09	-3.133443e+01	-7.277830e+01
7.300000e-07	-4.469847e-06	-1.114153e-09	-3.114251e+01	-7.255117e+01
7.400000e-07	-4.442085e-06	-1.102840e-09	-3.094909e+01	-7.232140e+01
7.500000e-07	-4.414072e-06	-1.091802e-09	-3.075392e+01	-7.208885e+01
7.600000e-07	-4.385802e-06	-1.093197e-09	-3.055696e+01	-7.185337e+01
7.700000e-07	-4.357279e-06	-1.082521e-09	-3.035823e+01	-7.161478e+01
7.800000e-07	-4.328420e-06	-1.071341e-09	-3.015716e+01	-7.137295e+01
7.900000e-07	-4.299195e-06	-1.083278e-09	-2.995354e+01	-7.112771e+01
8.000000e-07	-4.269669e-06	-1.083816e-09	-2.974783e+01	-7.087890e+01
8.100000e-07	-4.239912e-06	-1.069728e-09	-2.954050e+01	-7.062637e+01
8.200000e-07	-4.209838e-06	-1.063811e-09	-2.933097e+01	-7.036999e+01
8.300000e-07	-4.179442e-06	-1.065731e-09	-2.911919e+01	-7.010961e+01
8.400000e-07	-4.148820e-06	-1.047968e-09	-2.890585e+01	-6.984509e+01
8.500000e-07	-4.117914e-06	-1.039221e-09	-2.869051e+01	-6.957632e+01
8.600000e-07	-4.086716e-06	-1.039327e-09	-2.847315e+01	-6.930319e+01
8.700000e-07	-4.055198e-06	-1.037387e-09	-2.825356e+01	-6.902559e+01
8.800000e-07	-4.023485e-06	-1.028269e-09	-2.803260e+01	-6.874344e+01
8.900000e-07	-3.991677e-06	-1.033484e-09	-2.781099e+01	-6.845667e+01
9.000000e-07	-3.959720e-06	-1.028267e-09	-2.758834e+01	-6.816521e+01
9.100000e-07	-3.927594e-06	-1.017047e-09	-2.736451e+01	-6.786902e+01
9.200000e-07	-3.895094e-06	-1.009777e-09	-2.713807e+01	-6.756805e+01
9.300000e-07	-3.862086e-06	-1.009549e-09	-2.690810e+01	-6.726229e+01
9.400000e-07	-3.828567e-06	-9.988319e-10	-2.667456e+01	-6.695174e+01
9.500000e-07	-3.794550e-06	-9.961595e-10	-2.643756e+01	-6.663640e+01
9.600000e-07	-3.760090e-06	-9.961666e-10	-2.619746e+01	-6.631628e+01
9.700000e-07	-3.725265e-06	-9.908461e-10	-2.595483e+01	-6.599143e+01
9.800000e-07	-3.690195e-06	-9.817712e-10	-2.571049e+01	-6.566187e+01
9.900000e-07	-3.654907e-06	-9.826887e-10	-2.546463e+01	-6.532768e+01
1.000000e-06	-3.619402e-06	-9.758111e-10	-2.521726e+01	-6.498889e+01
1.010000e-06	-3.583756e-06	-9.629697e-10	-2.496890e+01	-6.464560e+01
1.020000e-06	-3.547976e-06	-9.581323e-10	-2.471962e+01	-6.429787e+01
1.030000e-06	-3.512041e-06	-9.575288e-10	-2.446925e+01	-6.394578e+01
1.040000e-06	-3.475973e-06	-9.517263e-10	-2.421795e+01	-6.358943e+01
1.050000e-06	-3.439706e-06	-9.471510e-10	-2.396527e+01	-6.322891e+01
1.060000e-06	-3.403131e-06	-9.452839e-10	-2.371044e+01	-6.286430e+01
1.070000e-06	-3.366215e-06	-9.368742e-10	-2.345325e+01	-6.249571e+01
1.080000e-06	-3.329011e-06	-9.279678e-10	-2.319403e+01	-6.212321e+01
1.090000e-06	-3.291583e-06	-9.204358e-10	-2.293326e+01	-6.174690e+01
1.100000e-06	-3.253958e-06	-9.113961e-10	-2.267112e+01	-6.136686e+01
1.110000e-06	-3.216172e-06	-9.014289e-10	-2.240786e+01	-6.098317e+01
1.120000e-06	-3.178192e-06	-9.009368e-10	-2.214324e+01	-6.059589e+01
1.130000e-06	-3.139926e-06	-8.992545e-10	-2.187663e+01	-6.020510e+01
1.140000e-06	-3.101357e-06	-8.941194e-10	-2.160791e+01	-5.981083e+01
1.150000e-06	-3.062579e-06	-8.868684e-10	-2.133774e+01	-5.941314e+01
1.160000e-06	-3.023681e-06	-8.812903e-10	-2.106672e+01	-5.901205e+01
1.170000e-06	-2.984627e-06	-8.721151e-10	-2.079462e+01	-5.860758e+01
1.180000e-06	-2.945409e-06	-8.674454e-10	-2.052138e+01	-5.819973e+01
1.190000e-06	-2.906001e-06	-8.627292e-10	-2.024682e+01	-5.778848e+01
1.200000e-06	-2.866352e-06	-8.551263e-10	-1.997058e+01	-5.737382e+01
1.210000e-06	-2.826573e-06	-8.445554e-10	-1.969342e+01	-5.695569e+01
1.220000e-06	-2.786777e-06	-8.391488e-10	-1.941616e+01	-5.653403e+01
1.230000e-06	-2.746867e-06	-8.328003e-10	-1.913810e+01	-5.610878e+01
1.240000e-06	-2.706760e-06	-8.256856e-10	-1.885866e+01	-5.567984e+01
1.250000e-06	-2.666471e-06	-8.197277e-10	-1.857795e+01	-5.524709e+01
1.260000e-06	-2.625891e-06	-8.149136e-10	-1.829522e+01	-5.481040e+01
1.270000e-06	-2.584958e-06	-8.045286e-10	-1.801003e+01	-5.436964e+01
1.280000e-06	-2.543740e-06	-7.941622e-10	-1.772286e+01	-5.392464e+01
1.290000e-06	-2.502217e-06	-7.867192e-10	-1.743356e+01	-5.347522e+01
1.300000e-06	-2.460450e-06	-7.791351e-10	-1.714255e+01	-5.302119e+01
1.310000e-06	-2.418402e-06	-7.707389e-10	-1.684960e+01	-5.256233e+01
1.320000e-06	-2.376006e-06	-7.643762e-10	-1.655421e+01	-5.209841e+01
1.330000e-06	-2.333357e-06	-7.566201e-10	-1.625707e+01	-5.162919e+01
1.340000e-06	-2.290385e-06	-7.472962e-10	-1.595767e+01	-5.115442e+01
1.350000e-06	-2.247170e-06	-7.386234e-10	-1.565658e+01	-5.067381e+01
1.360000e-06	-2.203895e-06	-7.295072e-10	-1.535507e+01	-5.018710e+01
1.370000e-06	-2.160561e-06	-7.201118e-10	-1.505315e+01	-4.969396e+01
1.380000e-06	-2.117130e-06	-7.128242e-10	-1.475056e+01	-4.919410e+01
1.390000e-06	-2.073565e-06	-7.072191e-10	-1.444704e+01	-4.868718e+01
1.400000e-06	-2.029915e-06	-6.986306e-10	-1.414291e+01	-4.817288e+01
1.410000e-06	-1.986209e-06	-6.893100e-10	-1.383840e+01	-4.765084e+01
1.420000e-06	-1.942382e-06	-6.794603e-10	-1.353305e+01	-4.712072e+01
1.430000e-06	-1.898502e-06	-6.700628e-10	-1.322733e+01	-4.658214e+01
1.440000e-06	-1.854562e-06	-6.621563e-10	-1.292119e+01	-4.603474e+01
1.450000e-06	-1.810387e-06	-6.562546e-10	-1.261341e+01	-4.547813e+01
1.460000e-06	-1.766043e-06	-6.464454e-10	-1.230445e+01	-4.491193e+01
1.470000e-06	-1.721652e-06	-6.351198e-10	-1.199517e+01	-4.433574e+01
1.480000e-06	-1.677179e-06	-6.244783e-10	-1.168531e+01	-4.374917e+01
1.490000e-06	-1.632543e-06	-6.149036e-10	-1.137432e+01	-4.315181e+01
1.500000e-06	-1.587745e-06	-6.064250e-10	-1.106221e+01	-4.254326e+01
1.510000e-06	-1.542861e-06	-6.001375e-10	-1.074949e+01	-4.192310e+01
1.520000e-06	-1.497906e-06	-5.924759e-10	-1.043628e+01	-4.129093e+01
1.530000e-06	-1.452804e-06	-5.839814e-10	-1.012204e+01	-4.064634e+01
1.540000e-06	-1.407559e-06	-5.725260e-10	-9.806804e+00	-3.998891e+01
1.550000e-06	-1.362217e-06	-5.612762e-10	-9.490898e+00	-3.931824e+01
1.560000e-06	-1.316794e-06	-5.488624e-10	-9.174423e+00	-3.863391e+01
1.570000e-06	-1.271279e-06	-5.367657e-10	-8.857310e+00	-3.793553e+01
1.580000e-06	-1.225626e-06	-5.256217e-10	-8.539233e+00	-3.722269e+01
1.590000e-06	-1.179942e-06	-5.151499e-10	-8.220946e+00	-3.649501e+01
1.600000e-06	-1.134218e-06	-5.049971e-10	-7.902376e+00	-3.575210e+01
1.610000e-06	-1.088456e-06	-4.953173e-10	-7.583539e+00	-3.499358e+01
1.620000e-06	-1.042604e-06	-4.842563e-10	-7.264075e+00	-3.421908e+01
1.630000e-06	-9.965735e-07	-4.735478e-10	-6.943371e+00	-3.342827e+01
1.640000e-06	-9.505369e-07	-4.641318e-10	-6.622623e+00	-3.262079e+01
1.650000e-06	-9.044499e-07	-4.523211e-10	-6.301524e+00	-3.179633e+01
1.660000e-06	-8.583237e-07	-4.392495e-10	-5.980151e+00	-3.095458e+01
1.670000e-06	-8.122038e-07	-4.259251e-10	-5.658823e+00	-3.009526e+01
1.680000e-06	-7.659233e-07	-4.108260e-10	-5.336375e+00	-2.921810e+01
1.690000e-06	-7.195310e-07	-3.940391e-10	-5.013148e+00	-2.832286e+01
1.700000e-06	-6.731672e-07	-3.804567e-10	-4.690121e+00	-2.740934e+01
1.710000e-06	-6.267477e-07	-3.690727e-10	-4.366704e+00	-2.647735e+01
1.720000e-06	-5.802329e-07	-3.572613e-10	-4.042625e+00	-2.552672e+01
1.730000e-06	-5.336870e-07	-3.412432e-10	-3.718328e+00	-2.455735e+01
1.740000e-06	-4.871534e-07	-3.222779e-10	-3.394117e+00	-2.356914e+01
1.750000e-06	-4.406085e-07	-3.045535e-10	-3.069827e+00	-2.256203e+01
1.760000e-06	-3.939714e-07	-2.899647e-10	-2.744895e+00	-2.153603e+01
1.770000e-06	-3.473215e-07	-2.771168e-10	-2.419874e+00	-2.049114e+01
1.780000e-06	-3.006732e-07	-2.663900e-10	-2.094864e+00	-1.942745e+01
1.790000e-06	-2.539372e-07	-2.546809e-10	-1.769242e+00	-1.834507e+01
1.800000e-06	-2.072494e-07	-2.392473e-10	-1.443957e+00	-1.724415e+01
1.810000e-06	-1.605991e-07	-2.217697e-10	-1.118933e+00	-1.612491e+01
1.820000e-06	-1.138721e-07	-2.053694e-10	-7.933750e-01	-1.498760e+01
1.830000e-06	-6.713721e-08	-1.913660e-10	-4.677614e-01	-1.383253e+01
1.840000e-06	-2.043272e-08	-1.786375e-10	-1.423598e-01	-1.266006e+01
1.850000e-06	2.623154e-08	-1.635088e-10	1.827616e-01	-1.147059e+01
1.860000e-06	7.289409e-08	-1.480115e-10	5.078709e-01	-1.026459e+01
1.870000e-06	1.195987e-07	-1.314857e-10	8.332736e-01	-9.042570e+00
1.880000e-06	1.663101e-07	-1.119852e-10	1.158723e+00	-7.805102e+00
1.890000e-06	2.129674e-07	-9.105807e-11	1.483796e+00	-6.552803e+00
1.900000e-06	2.595620e-07	-7.058475e-11	1.808432e+00	-5.286347e+00
1.910000e-06	3.061194e-07	-5.241353e-11	2.132809e+00	-4.006456e+00
1.920000e-06	3.527283e-07	-3.583001e-11	2.457545e+00	-2.713904e+00
1.930000e-06	3.993830e-07	-1.965481e-11	2.782599e+00	-1.409513e+00
1.940000e-06	4.460301e-07	-2.093824e-12	3.107601e+00	-9.415206e-02
1.950000e-06	4.925479e-07	1.710219e-11	3.431701e+00	1.231265e+00
1.960000e-06	5.388750e-07	3.714318e-11	3.754474e+00	2.565783e+00
1.970000e-06	5.852062e-07	5.682699e-11	4.077274e+00	3.908404e+00
1.980000e-06	6.314867e-07	7.511053e-11	4.399722e+00	5.258094e+00
1.990000e-06	6.777045e-07	9.355469e-11	4.721733e+00	6.613787e+00
2.000000e-06	7.238865e-07	1.115594e-10	5.043494e+00	7.974386e+00
2.010000e-06	7.699970e-07	1.306105e-10	5.364758e+00	9.338764e+00
2.020000e-06	8.161360e-07	1.523595e-10	5.686219e+00	1.070577e+01
2.030000e-06	8.621985e-07	1.747349e-10	6.007148e+00	1.207425e+01
2.040000e-06	9.081662e-07	1.961689e-10	6.327416e+00	1.344302e+01
2.050000e-06	9.541429e-07	2.151629e-10	6.647747e+00	1.481087e+01
2.060000e-06	1.000063e-06	2.320237e-10	6.967683e+00	1.617663e+01
2.070000e-06	1.045861e-06	2.480656e-10	7.286769e+00	1.753909e+01
2.080000e-06	1.091567e-06	2.657737e-10	7.605214e+00	1.889706e+01
2.090000e-06	1.137176e-06	2.871589e-10	7.922980e+00	2.024935e+01
2.100000e-06	1.182746e-06	3.119159e-10	8.240478e+00	2.159479e+01
2.110000e-06	1.228291e-06	3.337253e-10	8.557803e+00	2.293223e+01
2.120000e-06	1.273739e-06	3.518680e-10	8.874452e+00	2.426053e+01
2.130000e-06	1.319029e-06	3.689886e-10	9.189996e+00	2.557860e+01
2.140000e-06	1.364172e-06	3.850377e-10	9.504517e+00	2.688535e+01
2.150000e-06	1.409307e-06	4.017784e-10	9.818988e+00	2.817976e+01
2.160000e-06	1.454391e-06	4.196955e-10	1.013310e+01	2.946082e+01
2.170000e-06	1.499330e-06	4.374662e-10	1.044620e+01	3.072758e+01
2.180000e-06	1.544148e-06	4.574653e-10	1.075846e+01	3.197912e+01
2.190000e-06	1.588914e-06	4.774499e-10	1.107036e+01	3.321461e+01
2.200000e-06	1.633595e-06	4.940981e-10	1.138165e+01	3.443322e+01
2.210000e-06	1.678041e-06	5.078184e-10	1.169132e+01	3.563421e+01
2.220000e-06	1.722295e-06	5.205986e-10	1.199965e+01	3.681689e+01
2.230000e-06	1.766465e-06	5.352411e-10	1.230740e+01	3.798063e+01
2.240000e-06	1.810613e-06	5.493668e-10	1.261498e+01	3.912486e+01
2.250000e-06	1.854652e-06	5.637756e-10	1.292181e+01	4.024907e+01
2.260000e-06	1.898529e-06	5.799930e-10	1.322751e+01	4.135282e+01
2.270000e-06	1.942309e-06	5.980161e-10	1.353254e+01	4.243573e+01
2.280000e-06	1.986000e-06	6.153745e-10	1.383695e+01	4.349748e+01
2.290000e-06	2.029676e-06	6.325061e-10	1.414125e+01	4.453782e+01
2.300000e-06	2.073322e-06	6.484006e-10	1.444534e+01	4.555655e+01
2.310000e-06	2.116862e-06	6.606894e-10	1.474870e+01	4.655355e+01
2.320000e-06	2.160303e-06	6.725123e-10	1.505136e+01	4.752875e+01
2.330000e-06	2.203620e-06	6.847761e-10	1.535316e+01	4.848214e+01
2.340000e-06	2.246848e-06	6.991136e-10	1.565434e+01	4.941376e+01
2.350000e-06	2.289891e-06	7.161353e-10	1.595423e+01	5.032370e+01
2.360000e-06	2.332690e-06	7.355003e-10	1.625242e+01	5.121213e+01
2.370000e-06	2.375320e-06	7.546141e-10	1.654943e+01	5.207922e+01
2.380000e-06	2.417666e-06	7.678144e-10	1.684447e+01	5.292522e+01
2.390000e-06	2.459590e-06	7.781801e-10	1.713657e+01	5.375042e+01
2.400000e-06	2.501231e-06	7.864625e-10	1.742669e+01	5.455513e+01
2.410000e-06	2.542610e-06	7.928277e-10	1.771498e+01	5.533970e+01
2.420000e-06	2.583663e-06	8.021916e-10	1.800101e+01	5.610451e+01
2.430000e-06	2.624493e-06	8.168824e-10	1.828548e+01	5.684997e+01
2.440000e-06	2.665034e-06	8.334332e-10	1.856794e+01	5.757652e+01
2.450000e-06	2.705278e-06	8.461907e-10	1.884833e+01	5.828460e+01
2.460000e-06	2.745331e-06	8.581054e-10	1.912739e+01	5.897467e+01
2.470000e-06	2.785224e-06	8.676339e-10	1.940534e+01	5.964721e+01
2.480000e-06	2.824997e-06	8.749016e-10	1.968244e+01	6.030270e+01
2.490000e-06	2.864692e-06	8.821654e-10	1.995901e+01	6.094163e+01
2.500000e-06	2.904262e-06	8.903816e-10	2.023471e+01	6.156447e+01
2.510000e-06	2.943657e-06	9.003729e-10	2.050918e+01	6.217172e+01
2.520000e-06	2.982898e-06	9.125623e-10	2.078258e+01	6.276385e+01
2.530000e-06	3.022017e-06	9.252113e-10	2.105513e+01	6.334132e+01
2.540000e-06	3.060933e-06	9.349835e-10	2.132627e+01	6.390460e+01
2.550000e-06	3.099579e-06	9.404137e-10	2.159553e+01	6.445414e+01
2.560000e-06	3.137940e-06	9.441316e-10	2.186279e+01	6.499035e+01
2.570000e-06	3.176082e-06	9.497091e-10	2.212854e+01	6.551365e+01
2.580000e-06	3.214097e-06	9.574159e-10	2.239340e+01	6.602445e+01
2.590000e-06	3.251869e-06	9.669191e-10	2.265657e+01	6.652311e+01
2.600000e-06	3.289373e-06	9.789424e-10	2.291786e+01	6.700999e+01
2.610000e-06	3.326656e-06	9.889657e-10	2.317762e+01	6.748543e+01
2.620000e-06	3.363721e-06	9.942220e-10	2.343587e+01	6.794973e+01
2.630000e-06	3.400553e-06	9.969879e-10	2.369248e+01	6.840321e+01
2.640000e-06	3.437129e-06	9.998272e-10	2.394732e+01	6.884612e+01
2.650000e-06	3.473424e-06	1.005411e-09	2.420019e+01	6.927872e+01
2.660000e-06	3.509471e-06	1.013361e-09	2.445134e+01	6.970126e+01
2.670000e-06	3.545364e-06	1.021824e-09	2.470142e+01	7.011394e+01
2.680000e-06	3.581098e-06	1.029750e-09	2.495038e+01	7.051696e+01
2.690000e-06	3.616691e-06	1.037496e-09	2.519837e+01	7.091052e+01
2.700000e-06	3.652141e-06	1.043709e-09	2.544536e+01	7.129477e+01
2.710000e-06	3.687452e-06	1.048117e-09	2.569138e+01	7.166989e+01
2.720000e-06	3.722585e-06	1.052776e-09	2.593616e+01	7.203600e+01
2.730000e-06	3.757364e-06	1.058879e-09	2.617847e+01	7.239326e+01
2.740000e-06	3.791796e-06	1.064774e-09	2.641837e+01	7.274179e+01
2.750000e-06	3.825863e-06	1.068835e-09	2.665572e+01	7.308172e+01
2.760000e-06	3.859309e-06	1.072345e-09	2.688875e+01	7.341315e+01
2.770000e-06	3.892242e-06	1.078222e-09	2.711820e+01	7.373622e+01
2.780000e-06	3.924851e-06	1.084190e-09	2.734539e+01	7.405103e+01
2.790000e-06	3.957110e-06	1.090413e-09	2.757016e+01	7.435770e+01
2.800000e-06	3.989104e-06	1.097009e-09	2.779306e+01	7.465635e+01
2.810000e-06	4.020926e-06	1.102246e-09	2.801477e+01	7.494711e+01
2.820000e-06	4.052559e-06	1.106611e-09	2.823517e+01	7.523008e+01
2.830000e-06	4.084013e-06	1.110762e-09	2.845432e+01	7.550541e+01
2.840000e-06	4.115264e-06	1.113982e-09	2.867205e+01	7.577323e+01
2.850000e-06	4.146341e-06	1.118738e-09	2.888857e+01	7.603369e+01
2.860000e-06	4.177088e-06	1.125171e-09	2.910279e+01	7.628693e+01
2.870000e-06	4.207418e-06	1.129798e-09	2.931411e+01	7.653311e+01
2.880000e-06	4.237420e-06	1.133092e-09	2.952314e+01	7.677239e+01
2.890000e-06	4.267112e-06	1.137757e-09	2.973001e+01	7.700495e+01
2.900000e-06	4.296588e-06	1.142822e-09	2.993538e+01	7.723096e+01
