# Temperatura_=_7.2
# Concentracion g/m^3_=_1620.0
# C_Vs_to_Am_M_A/Vsm_=_65563218390.804596
# pendiente_HvsI_1/m_=_3716.3
# ordenada_HvsI_A/m_=_1297.0
# frecuencia_Hz_=_135092.52679598265

Tiempo_(s)	Campo_(V.s)	Magnetizacion_(V.s)	Campo_(kA/m)	Magnetizacion_(A/m)
0.000000e+00	-5.523314e-06	-1.304038e-09	-3.837973e+01	-8.500078e+01
1.000000e-08	-5.523495e-06	-1.299266e-09	-3.838099e+01	-8.494232e+01
2.000000e-08	-5.523405e-06	-1.297336e-09	-3.838036e+01	-8.488221e+01
3.000000e-08	-5.522918e-06	-1.296153e-09	-3.837698e+01	-8.482036e+01
4.000000e-08	-5.521962e-06	-1.287582e-09	-3.837034e+01	-8.475671e+01
5.000000e-08	-5.520305e-06	-1.271072e-09	-3.835882e+01	-8.469118e+01
6.000000e-08	-5.517913e-06	-1.269897e-09	-3.834220e+01	-8.462367e+01
7.000000e-08	-5.514987e-06	-1.328209e-09	-3.832186e+01	-8.455409e+01
8.000000e-08	-5.511678e-06	-1.384300e-09	-3.829887e+01	-8.448235e+01
9.000000e-08	-5.507861e-06	-1.331482e-09	-3.827235e+01	-8.440833e+01
1.000000e-07	-5.503669e-06	-1.250702e-09	-3.824322e+01	-8.433194e+01
1.100000e-07	-5.499350e-06	-1.297276e-09	-3.821321e+01	-8.425307e+01
1.200000e-07	-5.494655e-06	-1.322130e-09	-3.818058e+01	-8.417160e+01
1.300000e-07	-5.489574e-06	-1.284777e-09	-3.814528e+01	-8.408744e+01
1.400000e-07	-5.484260e-06	-1.208269e-09	-3.810835e+01	-8.400048e+01
1.500000e-07	-5.478655e-06	-1.270492e-09	-3.806941e+01	-8.391060e+01
1.600000e-07	-5.472626e-06	-1.342117e-09	-3.802752e+01	-8.381772e+01
1.700000e-07	-5.466131e-06	-1.276001e-09	-3.798238e+01	-8.372171e+01
1.800000e-07	-5.459344e-06	-1.252150e-09	-3.793522e+01	-8.362250e+01
1.900000e-07	-5.452190e-06	-1.234024e-09	-3.788551e+01	-8.351998e+01
2.000000e-07	-5.444587e-06	-1.279214e-09	-3.783268e+01	-8.341406e+01
2.100000e-07	-5.436701e-06	-1.233245e-09	-3.777788e+01	-8.330467e+01
2.200000e-07	-5.428611e-06	-1.260158e-09	-3.772167e+01	-8.319173e+01
2.300000e-07	-5.420209e-06	-1.247000e-09	-3.766328e+01	-8.307515e+01
2.400000e-07	-5.411128e-06	-1.260224e-09	-3.760018e+01	-8.295488e+01
2.500000e-07	-5.401331e-06	-1.221532e-09	-3.753211e+01	-8.283085e+01
2.600000e-07	-5.391149e-06	-1.221914e-09	-3.746136e+01	-8.270300e+01
2.700000e-07	-5.380372e-06	-1.206085e-09	-3.738647e+01	-8.257130e+01
2.800000e-07	-5.368959e-06	-1.225632e-09	-3.730717e+01	-8.243568e+01
2.900000e-07	-5.357229e-06	-1.237936e-09	-3.722566e+01	-8.229613e+01
3.000000e-07	-5.345033e-06	-1.213277e-09	-3.714091e+01	-8.215261e+01
3.100000e-07	-5.332342e-06	-1.193187e-09	-3.705273e+01	-8.200508e+01
3.200000e-07	-5.319359e-06	-1.213389e-09	-3.696251e+01	-8.185354e+01
3.300000e-07	-5.306114e-06	-1.230222e-09	-3.687048e+01	-8.169796e+01
3.400000e-07	-5.292466e-06	-1.165191e-09	-3.677564e+01	-8.153834e+01
3.500000e-07	-5.278371e-06	-1.188973e-09	-3.667770e+01	-8.137468e+01
3.600000e-07	-5.263897e-06	-1.221497e-09	-3.657712e+01	-8.120697e+01
3.700000e-07	-5.248919e-06	-1.197986e-09	-3.647305e+01	-8.103522e+01
3.800000e-07	-5.233230e-06	-1.161783e-09	-3.636402e+01	-8.085943e+01
3.900000e-07	-5.217152e-06	-1.238487e-09	-3.625231e+01	-8.067962e+01
4.000000e-07	-5.200823e-06	-1.198093e-09	-3.613884e+01	-8.049580e+01
4.100000e-07	-5.183975e-06	-1.135792e-09	-3.602177e+01	-8.030799e+01
4.200000e-07	-5.166796e-06	-1.191321e-09	-3.590240e+01	-8.011621e+01
4.300000e-07	-5.149375e-06	-1.249287e-09	-3.578135e+01	-7.992048e+01
4.400000e-07	-5.131627e-06	-1.136518e-09	-3.565802e+01	-7.972083e+01
4.500000e-07	-5.113510e-06	-1.153449e-09	-3.553213e+01	-7.951727e+01
4.600000e-07	-5.094915e-06	-1.237535e-09	-3.540292e+01	-7.930984e+01
4.700000e-07	-5.075892e-06	-1.178601e-09	-3.527074e+01	-7.909856e+01
4.800000e-07	-5.056494e-06	-1.111332e-09	-3.513595e+01	-7.888347e+01
4.900000e-07	-5.036858e-06	-1.220244e-09	-3.499950e+01	-7.866458e+01
5.000000e-07	-5.017092e-06	-1.194045e-09	-3.486215e+01	-7.844194e+01
5.100000e-07	-4.997090e-06	-1.100613e-09	-3.472317e+01	-7.821557e+01
5.200000e-07	-4.976732e-06	-1.175088e-09	-3.458170e+01	-7.798550e+01
5.300000e-07	-4.956097e-06	-1.230516e-09	-3.443832e+01	-7.775177e+01
5.400000e-07	-4.935091e-06	-1.115059e-09	-3.429236e+01	-7.751439e+01
5.500000e-07	-4.913649e-06	-1.129637e-09	-3.414337e+01	-7.727340e+01
5.600000e-07	-4.891959e-06	-1.210086e-09	-3.399265e+01	-7.702883e+01
5.700000e-07	-4.869952e-06	-1.136857e-09	-3.383972e+01	-7.678071e+01
5.800000e-07	-4.847546e-06	-1.104595e-09	-3.368403e+01	-7.652906e+01
5.900000e-07	-4.824822e-06	-1.189528e-09	-3.352613e+01	-7.627392e+01
6.000000e-07	-4.801723e-06	-1.159552e-09	-3.336563e+01	-7.601531e+01
6.100000e-07	-4.778253e-06	-1.094392e-09	-3.320254e+01	-7.575326e+01
6.200000e-07	-4.754608e-06	-1.150731e-09	-3.303824e+01	-7.548778e+01
6.300000e-07	-4.730786e-06	-1.147359e-09	-3.287271e+01	-7.521892e+01
6.400000e-07	-4.706577e-06	-1.089781e-09	-3.270449e+01	-7.494669e+01
6.500000e-07	-4.682009e-06	-1.115582e-09	-3.253377e+01	-7.467111e+01
6.600000e-07	-4.657013e-06	-1.143377e-09	-3.236008e+01	-7.439220e+01
6.700000e-07	-4.631380e-06	-1.094223e-09	-3.218196e+01	-7.410999e+01
6.800000e-07	-4.605253e-06	-1.109041e-09	-3.200042e+01	-7.382450e+01
6.900000e-07	-4.578718e-06	-1.130373e-09	-3.181604e+01	-7.353574e+01
7.000000e-07	-4.551740e-06	-1.098195e-09	-3.162857e+01	-7.324372e+01
7.100000e-07	-4.524405e-06	-1.077031e-09	-3.143863e+01	-7.294847e+01
7.200000e-07	-4.496873e-06	-1.105463e-09	-3.124732e+01	-7.264999e+01
7.300000e-07	-4.469180e-06	-1.082726e-09	-3.105489e+01	-7.234829e+01
7.400000e-07	-4.441254e-06	-1.068375e-09	-3.086084e+01	-7.204339e+01
7.500000e-07	-4.413091e-06	-1.079749e-09	-3.066514e+01	-7.173528e+01
7.600000e-07	-4.384660e-06	-1.076285e-09	-3.046759e+01	-7.142397e+01
7.700000e-07	-4.355871e-06	-1.049112e-09	-3.026755e+01	-7.110946e+01
7.800000e-07	-4.326767e-06	-1.061272e-09	-3.006531e+01	-7.079174e+01
7.900000e-07	-4.297398e-06	-1.059593e-09	-2.986123e+01	-7.047082e+01
8.000000e-07	-4.267753e-06	-1.040286e-09	-2.965524e+01	-7.014666e+01
8.100000e-07	-4.237728e-06	-1.036018e-09	-2.944660e+01	-6.981928e+01
8.200000e-07	-4.207392e-06	-1.044073e-09	-2.923581e+01	-6.948864e+01
8.300000e-07	-4.176767e-06	-1.024243e-09	-2.902301e+01	-6.915472e+01
8.400000e-07	-4.145815e-06	-1.012720e-09	-2.880793e+01	-6.881751e+01
8.500000e-07	-4.114612e-06	-1.016442e-09	-2.859111e+01	-6.847696e+01
8.600000e-07	-4.083245e-06	-1.005749e-09	-2.837315e+01	-6.813306e+01
8.700000e-07	-4.051738e-06	-9.906299e-10	-2.815422e+01	-6.778576e+01
8.800000e-07	-4.020055e-06	-9.948739e-10	-2.793406e+01	-6.743503e+01
8.900000e-07	-3.988190e-06	-9.949002e-10	-2.771265e+01	-6.708081e+01
9.000000e-07	-3.956036e-06	-9.742043e-10	-2.748922e+01	-6.672307e+01
9.100000e-07	-3.923507e-06	-9.716526e-10	-2.726318e+01	-6.636176e+01
9.200000e-07	-3.890548e-06	-9.702293e-10	-2.703417e+01	-6.599681e+01
9.300000e-07	-3.857140e-06	-9.536123e-10	-2.680202e+01	-6.562819e+01
9.400000e-07	-3.823377e-06	-9.440802e-10	-2.656742e+01	-6.525582e+01
9.500000e-07	-3.789233e-06	-9.553648e-10	-2.633016e+01	-6.487965e+01
9.600000e-07	-3.754634e-06	-9.438133e-10	-2.608974e+01	-6.449963e+01
9.700000e-07	-3.719712e-06	-9.272081e-10	-2.584708e+01	-6.411567e+01
9.800000e-07	-3.684507e-06	-9.232939e-10	-2.560245e+01	-6.372774e+01
9.900000e-07	-3.649061e-06	-9.231969e-10	-2.535615e+01	-6.333576e+01
1.000000e-06	-3.613432e-06	-9.072513e-10	-2.510858e+01	-6.293967e+01
1.010000e-06	-3.577647e-06	-9.082854e-10	-2.485992e+01	-6.253940e+01
1.020000e-06	-3.541758e-06	-9.122395e-10	-2.461053e+01	-6.213491e+01
1.030000e-06	-3.505682e-06	-9.050687e-10	-2.435985e+01	-6.172613e+01
1.040000e-06	-3.469388e-06	-8.939535e-10	-2.410766e+01	-6.131301e+01
1.050000e-06	-3.432880e-06	-8.929693e-10	-2.385398e+01	-6.089549e+01
1.060000e-06	-3.396062e-06	-8.791431e-10	-2.359814e+01	-6.047353e+01
1.070000e-06	-3.358887e-06	-8.647670e-10	-2.333982e+01	-6.004708e+01
1.080000e-06	-3.321468e-06	-8.601177e-10	-2.307981e+01	-5.961610e+01
1.090000e-06	-3.283910e-06	-8.582424e-10	-2.281883e+01	-5.918056e+01
1.100000e-06	-3.246075e-06	-8.479362e-10	-2.255593e+01	-5.874042e+01
1.110000e-06	-3.207951e-06	-8.450611e-10	-2.229101e+01	-5.829565e+01
1.120000e-06	-3.169647e-06	-8.410450e-10	-2.202485e+01	-5.784624e+01
1.130000e-06	-3.131128e-06	-8.266332e-10	-2.175720e+01	-5.739216e+01
1.140000e-06	-3.092363e-06	-8.118110e-10	-2.148783e+01	-5.693341e+01
1.150000e-06	-3.053370e-06	-8.028455e-10	-2.121688e+01	-5.646997e+01
1.160000e-06	-3.014212e-06	-7.944548e-10	-2.094479e+01	-5.600185e+01
1.170000e-06	-2.974909e-06	-7.870604e-10	-2.067169e+01	-5.552904e+01
1.180000e-06	-2.935420e-06	-7.878914e-10	-2.039729e+01	-5.505155e+01
1.190000e-06	-2.895796e-06	-7.880337e-10	-2.012196e+01	-5.456938e+01
1.200000e-06	-2.856062e-06	-7.837668e-10	-1.984586e+01	-5.408255e+01
1.210000e-06	-2.816247e-06	-7.765920e-10	-1.956919e+01	-5.359106e+01
1.220000e-06	-2.776306e-06	-7.666227e-10	-1.929166e+01	-5.309493e+01
1.230000e-06	-2.736192e-06	-7.494053e-10	-1.901292e+01	-5.259416e+01
1.240000e-06	-2.695927e-06	-7.366600e-10	-1.873313e+01	-5.208877e+01
1.250000e-06	-2.655456e-06	-7.303787e-10	-1.845190e+01	-5.157875e+01
1.260000e-06	-2.614616e-06	-7.258833e-10	-1.816813e+01	-5.106411e+01
1.270000e-06	-2.573410e-06	-7.176800e-10	-1.788179e+01	-5.054485e+01
1.280000e-06	-2.531937e-06	-7.142563e-10	-1.759361e+01	-5.002095e+01
1.290000e-06	-2.490184e-06	-7.075305e-10	-1.730349e+01	-4.949239e+01
1.300000e-06	-2.448145e-06	-6.957666e-10	-1.701137e+01	-4.895914e+01
1.310000e-06	-2.405753e-06	-6.798112e-10	-1.671680e+01	-4.842117e+01
1.320000e-06	-2.363060e-06	-6.696551e-10	-1.642014e+01	-4.787841e+01
1.330000e-06	-2.320104e-06	-6.597290e-10	-1.612165e+01	-4.733080e+01
1.340000e-06	-2.277012e-06	-6.515327e-10	-1.582222e+01	-4.677826e+01
1.350000e-06	-2.233812e-06	-6.457381e-10	-1.552204e+01	-4.622068e+01
1.360000e-06	-2.190378e-06	-6.405210e-10	-1.522023e+01	-4.565794e+01
1.370000e-06	-2.146839e-06	-6.314015e-10	-1.491769e+01	-4.508991e+01
1.380000e-06	-2.103297e-06	-6.229810e-10	-1.461513e+01	-4.451643e+01
1.390000e-06	-2.059643e-06	-6.119084e-10	-1.431179e+01	-4.393730e+01
1.400000e-06	-2.015862e-06	-5.989048e-10	-1.400758e+01	-4.335234e+01
1.410000e-06	-1.972041e-06	-5.878983e-10	-1.370308e+01	-4.276132e+01
1.420000e-06	-1.928107e-06	-5.817511e-10	-1.339779e+01	-4.216398e+01
1.430000e-06	-1.884049e-06	-5.744938e-10	-1.309165e+01	-4.156006e+01
1.440000e-06	-1.839903e-06	-5.649209e-10	-1.278489e+01	-4.094924e+01
1.450000e-06	-1.795648e-06	-5.549802e-10	-1.247738e+01	-4.033123e+01
1.460000e-06	-1.751268e-06	-5.438203e-10	-1.216900e+01	-3.970566e+01
1.470000e-06	-1.706769e-06	-5.293898e-10	-1.185979e+01	-3.907218e+01
1.480000e-06	-1.662146e-06	-5.138847e-10	-1.154971e+01	-3.843038e+01
1.490000e-06	-1.617299e-06	-5.016503e-10	-1.123809e+01	-3.777988e+01
1.500000e-06	-1.572246e-06	-4.936249e-10	-1.092503e+01	-3.712022e+01
1.510000e-06	-1.527089e-06	-4.881258e-10	-1.061125e+01	-3.645098e+01
1.520000e-06	-1.481942e-06	-4.805905e-10	-1.029754e+01	-3.577167e+01
1.530000e-06	-1.436853e-06	-4.688859e-10	-9.984231e+00	-3.508184e+01
1.540000e-06	-1.391656e-06	-4.512783e-10	-9.670169e+00	-3.438097e+01
1.550000e-06	-1.346204e-06	-4.351622e-10	-9.354337e+00	-3.366859e+01
1.560000e-06	-1.300586e-06	-4.183668e-10	-9.037352e+00	-3.294417e+01
1.570000e-06	-1.254894e-06	-4.042405e-10	-8.719854e+00	-3.220721e+01
1.580000e-06	-1.209151e-06	-3.921966e-10	-8.402000e+00	-3.145720e+01
1.590000e-06	-1.163334e-06	-3.846282e-10	-8.083631e+00	-3.069363e+01
1.600000e-06	-1.117465e-06	-3.774252e-10	-7.764906e+00	-2.991600e+01
1.610000e-06	-1.071512e-06	-3.671081e-10	-7.445591e+00	-2.912381e+01
1.620000e-06	-1.025449e-06	-3.541583e-10	-7.125515e+00	-2.831659e+01
1.630000e-06	-9.794364e-07	-3.439851e-10	-6.805788e+00	-2.749386e+01
1.640000e-06	-9.333537e-07	-3.328288e-10	-6.485574e+00	-2.665519e+01
1.650000e-06	-8.871110e-07	-3.187929e-10	-6.164248e+00	-2.580015e+01
1.660000e-06	-8.407481e-07	-3.053146e-10	-5.842088e+00	-2.492835e+01
1.670000e-06	-7.943125e-07	-2.924092e-10	-5.519421e+00	-2.403943e+01
1.680000e-06	-7.479030e-07	-2.787672e-10	-5.196937e+00	-2.313306e+01
1.690000e-06	-7.014843e-07	-2.658695e-10	-4.874388e+00	-2.220896e+01
1.700000e-06	-6.550126e-07	-2.540992e-10	-4.551471e+00	-2.126688e+01
1.710000e-06	-6.085188e-07	-2.410289e-10	-4.228401e+00	-2.030661e+01
1.720000e-06	-5.618895e-07	-2.239365e-10	-3.904389e+00	-1.932801e+01
1.730000e-06	-5.151550e-07	-2.040198e-10	-3.579646e+00	-1.833096e+01
1.740000e-06	-4.684115e-07	-1.834601e-10	-3.254840e+00	-1.731542e+01
1.750000e-06	-4.216503e-07	-1.662908e-10	-2.929912e+00	-1.628140e+01
1.760000e-06	-3.749334e-07	-1.532240e-10	-2.605292e+00	-1.522896e+01
1.770000e-06	-3.282111e-07	-1.421282e-10	-2.280633e+00	-1.415822e+01
1.780000e-06	-2.814615e-07	-1.317099e-10	-1.955785e+00	-1.306936e+01
1.790000e-06	-2.346217e-07	-1.188656e-10	-1.630311e+00	-1.196263e+01
1.800000e-06	-1.877318e-07	-1.014109e-10	-1.304487e+00	-1.083835e+01
1.810000e-06	-1.409269e-07	-8.300917e-11	-9.792559e-01	-9.696869e+00
1.820000e-06	-9.411756e-08	-6.709888e-11	-6.539926e-01	-8.538635e+00
1.830000e-06	-4.727373e-08	-5.237831e-11	-3.284899e-01	-7.364141e+00
1.840000e-06	-4.545485e-10	-3.832204e-11	-3.158511e-03	-6.173946e+00
1.850000e-06	4.635572e-08	-2.307564e-11	3.221109e-01	-4.968668e+00
1.860000e-06	9.314037e-08	-6.504041e-12	6.472024e-01	-3.748986e+00
1.870000e-06	1.399376e-07	1.329224e-11	9.723809e-01	-2.515634e+00
1.880000e-06	1.868379e-07	3.379653e-11	1.298276e+00	-1.269404e+00
1.890000e-06	2.337315e-07	5.287556e-11	1.624125e+00	-1.113592e-02
1.900000e-06	2.805637e-07	6.895072e-11	1.949547e+00	1.258277e+00
1.910000e-06	3.273235e-07	8.469172e-11	2.274465e+00	2.537896e+00
1.920000e-06	3.739823e-07	9.965799e-11	2.598683e+00	3.826741e+00
1.930000e-06	4.205868e-07	1.143830e-10	2.922522e+00	5.123793e+00
1.940000e-06	4.672555e-07	1.319458e-10	3.246808e+00	6.427997e+00
1.950000e-06	5.139364e-07	1.517532e-10	3.571178e+00	7.738267e+00
1.960000e-06	5.604603e-07	1.725668e-10	3.894458e+00	9.053494e+00
1.970000e-06	6.069778e-07	1.917568e-10	4.217693e+00	1.037254e+01
1.980000e-06	6.535049e-07	2.081570e-10	4.540995e+00	1.169427e+01
1.990000e-06	6.999919e-07	2.244275e-10	4.864018e+00	1.301750e+01
2.000000e-06	7.464542e-07	2.394510e-10	5.186869e+00	1.434108e+01
2.010000e-06	7.928396e-07	2.566235e-10	5.509187e+00	1.566383e+01
2.020000e-06	8.390695e-07	2.777335e-10	5.830423e+00	1.698458e+01
2.030000e-06	8.852541e-07	2.999626e-10	6.151345e+00	1.830218e+01
2.040000e-06	9.313814e-07	3.218067e-10	6.471869e+00	1.961547e+01
2.050000e-06	9.773833e-07	3.421552e-10	6.791521e+00	2.092333e+01
2.060000e-06	1.023308e-06	3.580387e-10	7.110638e+00	2.222463e+01
2.070000e-06	1.069161e-06	3.727773e-10	7.429252e+00	2.351831e+01
2.080000e-06	1.115043e-06	3.897881e-10	7.748075e+00	2.480330e+01
2.090000e-06	1.160922e-06	4.096655e-10	8.066874e+00	2.607858e+01
2.100000e-06	1.206661e-06	4.293749e-10	8.384695e+00	2.734317e+01
2.110000e-06	1.252252e-06	4.434019e-10	8.701498e+00	2.859613e+01
2.120000e-06	1.297775e-06	4.565490e-10	9.017819e+00	2.983656e+01
2.130000e-06	1.343212e-06	4.731536e-10	9.333550e+00	3.106361e+01
2.140000e-06	1.388563e-06	4.911735e-10	9.648674e+00	3.227647e+01
2.150000e-06	1.433877e-06	5.101793e-10	9.963551e+00	3.347440e+01
2.160000e-06	1.479083e-06	5.287949e-10	1.027767e+01	3.465671e+01
2.170000e-06	1.524131e-06	5.453226e-10	1.059070e+01	3.582274e+01
2.180000e-06	1.569045e-06	5.629620e-10	1.090279e+01	3.697191e+01
2.190000e-06	1.613836e-06	5.778247e-10	1.121402e+01	3.810369e+01
2.200000e-06	1.658460e-06	5.887101e-10	1.152410e+01	3.921761e+01
2.210000e-06	1.702960e-06	5.988543e-10	1.183332e+01	4.031326e+01
2.220000e-06	1.747385e-06	6.134808e-10	1.214201e+01	4.139028e+01
2.230000e-06	1.791703e-06	6.319464e-10	1.244997e+01	4.244836e+01
2.240000e-06	1.835884e-06	6.483050e-10	1.275696e+01	4.348726e+01
2.250000e-06	1.879903e-06	6.632904e-10	1.306284e+01	4.450679e+01
2.260000e-06	1.923827e-06	6.751137e-10	1.336805e+01	4.550681e+01
2.270000e-06	1.967703e-06	6.867082e-10	1.367294e+01	4.648722e+01
2.280000e-06	2.011519e-06	6.991937e-10	1.397740e+01	4.744799e+01
2.290000e-06	2.055247e-06	7.143329e-10	1.428125e+01	4.838914e+01
2.300000e-06	2.098915e-06	7.298231e-10	1.458469e+01	4.931070e+01
2.310000e-06	2.142551e-06	7.435052e-10	1.488790e+01	5.021277e+01
2.320000e-06	2.186143e-06	7.555749e-10	1.519080e+01	5.109549e+01
2.330000e-06	2.229600e-06	7.647664e-10	1.549277e+01	5.195903e+01
2.340000e-06	2.272892e-06	7.740231e-10	1.579359e+01	5.280358e+01
2.350000e-06	2.315975e-06	7.878112e-10	1.609297e+01	5.362939e+01
2.360000e-06	2.358869e-06	8.042692e-10	1.639102e+01	5.443670e+01
2.370000e-06	2.401561e-06	8.185531e-10	1.668767e+01	5.522582e+01
2.380000e-06	2.443905e-06	8.313677e-10	1.698191e+01	5.599704e+01
2.390000e-06	2.485907e-06	8.409855e-10	1.727377e+01	5.675069e+01
2.400000e-06	2.527669e-06	8.452495e-10	1.756396e+01	5.748712e+01
2.410000e-06	2.569108e-06	8.469288e-10	1.785191e+01	5.820667e+01
2.420000e-06	2.610174e-06	8.536738e-10	1.813726e+01	5.890971e+01
2.430000e-06	2.650884e-06	8.670938e-10	1.842014e+01	5.959662e+01
2.440000e-06	2.691314e-06	8.809037e-10	1.870107e+01	6.026777e+01
2.450000e-06	2.731600e-06	8.926027e-10	1.898101e+01	6.092354e+01
2.460000e-06	2.771683e-06	9.052339e-10	1.925953e+01	6.156432e+01
2.470000e-06	2.811592e-06	9.142099e-10	1.953685e+01	6.219047e+01
2.480000e-06	2.851416e-06	9.195482e-10	1.981357e+01	6.280239e+01
2.490000e-06	2.891137e-06	9.239988e-10	2.008958e+01	6.340044e+01
2.500000e-06	2.930714e-06	9.290378e-10	2.036459e+01	6.398499e+01
2.510000e-06	2.970230e-06	9.372330e-10	2.063917e+01	6.455640e+01
2.520000e-06	3.009605e-06	9.462231e-10	2.091277e+01	6.511501e+01
2.530000e-06	3.048685e-06	9.531779e-10	2.118433e+01	6.566118e+01
2.540000e-06	3.087556e-06	9.604097e-10	2.145443e+01	6.619523e+01
2.550000e-06	3.126190e-06	9.691035e-10	2.172288e+01	6.671749e+01
2.560000e-06	3.164611e-06	9.766331e-10	2.198986e+01	6.722826e+01
2.570000e-06	3.202812e-06	9.801964e-10	2.225531e+01	6.772784e+01
2.580000e-06	3.240768e-06	9.846170e-10	2.251905e+01	6.821654e+01
2.590000e-06	3.278551e-06	9.910204e-10	2.278159e+01	6.869462e+01
2.600000e-06	3.316143e-06	9.974262e-10	2.304281e+01	6.916235e+01
2.610000e-06	3.353552e-06	1.002239e-09	2.330275e+01	6.961999e+01
2.620000e-06	3.390639e-06	1.005771e-09	2.356046e+01	7.006780e+01
2.630000e-06	3.427366e-06	1.010372e-09	2.381566e+01	7.050600e+01
2.640000e-06	3.463879e-06	1.018086e-09	2.406938e+01	7.093483e+01
2.650000e-06	3.500216e-06	1.027504e-09	2.432187e+01	7.135451e+01
2.660000e-06	3.536345e-06	1.034419e-09	2.457292e+01	7.176527e+01
2.670000e-06	3.572281e-06	1.038430e-09	2.482263e+01	7.216729e+01
2.680000e-06	3.608055e-06	1.042232e-09	2.507121e+01	7.256080e+01
2.690000e-06	3.643689e-06	1.045890e-09	2.531882e+01	7.294597e+01
2.700000e-06	3.679250e-06	1.050388e-09	2.556592e+01	7.332302e+01
2.710000e-06	3.714671e-06	1.056400e-09	2.581205e+01	7.369211e+01
2.720000e-06	3.749774e-06	1.062648e-09	2.605597e+01	7.405344e+01
2.730000e-06	3.784457e-06	1.069323e-09	2.629697e+01	7.440718e+01
2.740000e-06	3.818643e-06	1.075050e-09	2.653452e+01	7.475352e+01
2.750000e-06	3.852335e-06	1.080014e-09	2.676863e+01	7.509262e+01
2.760000e-06	3.885617e-06	1.083477e-09	2.699990e+01	7.542466e+01
2.770000e-06	3.918505e-06	1.088652e-09	2.722843e+01	7.574981e+01
2.780000e-06	3.950927e-06	1.096354e-09	2.745372e+01	7.606823e+01
2.790000e-06	3.982984e-06	1.103820e-09	2.767647e+01	7.638010e+01
2.800000e-06	4.014882e-06	1.109807e-09	2.789812e+01	7.668557e+01
2.810000e-06	4.046634e-06	1.114767e-09	2.811875e+01	7.698480e+01
2.820000e-06	4.078226e-06	1.118959e-09	2.833828e+01	7.727795e+01
2.830000e-06	4.109649e-06	1.123352e-09	2.855663e+01	7.756519e+01
2.840000e-06	4.140737e-06	1.129298e-09	2.877264e+01	7.784665e+01
2.850000e-06	4.171599e-06	1.136477e-09	2.898710e+01	7.812250e+01
2.860000e-06	4.202237e-06	1.142108e-09	2.919999e+01	7.839287e+01
2.870000e-06	4.232484e-06	1.146077e-09	2.941017e+01	7.865790e+01
2.880000e-06	4.262457e-06	1.149166e-09	2.961844e+01	7.891773e+01
2.890000e-06	4.292123e-06	1.151868e-09	2.982458e+01	7.917250e+01
2.900000e-06	4.321564e-06	1.154547e-09	3.002916e+01	7.942231e+01
2.910000e-06	4.350695e-06	1.159263e-09	3.023158e+01	7.966729e+01
