# Temperatura_=_-0.7
# Concentracion g/m^3_=_1620.0
# C_Vs_to_Am_M_A/Vsm_=_65563218390.804596
# pendiente_HvsI_1/m_=_3716.3
# ordenada_HvsI_A/m_=_1297.0
# frecuencia_Hz_=_135099.66058540493

Tiempo_(s)	Campo_(V.s)	Magnetizacion_(V.s)	Campo_(kA/m)	Magnetizacion_(A/m)
0.000000e+00	-5.533059e-06	-1.305454e-09	-3.837106e+01	-8.691592e+01
1.000000e-08	-5.533096e-06	-1.303602e-09	-3.837132e+01	-8.688234e+01
2.000000e-08	-5.532824e-06	-1.306646e-09	-3.836943e+01	-8.684866e+01
3.000000e-08	-5.532276e-06	-1.310158e-09	-3.836563e+01	-8.681475e+01
4.000000e-08	-5.531289e-06	-1.305542e-09	-3.835879e+01	-8.678049e+01
5.000000e-08	-5.529716e-06	-1.290905e-09	-3.834788e+01	-8.674570e+01
6.000000e-08	-5.527555e-06	-1.290010e-09	-3.833289e+01	-8.671025e+01
7.000000e-08	-5.524912e-06	-1.336306e-09	-3.831456e+01	-8.667394e+01
8.000000e-08	-5.521789e-06	-1.360851e-09	-3.829290e+01	-8.663659e+01
9.000000e-08	-5.518107e-06	-1.336678e-09	-3.826737e+01	-8.659802e+01
1.000000e-07	-5.513951e-06	-1.313076e-09	-3.823855e+01	-8.655801e+01
1.100000e-07	-5.509542e-06	-1.291812e-09	-3.820797e+01	-8.651637e+01
1.200000e-07	-5.504936e-06	-1.288505e-09	-3.817603e+01	-8.647286e+01
1.300000e-07	-5.499962e-06	-1.309340e-09	-3.814154e+01	-8.642729e+01
1.400000e-07	-5.494504e-06	-1.286697e-09	-3.810369e+01	-8.637942e+01
1.500000e-07	-5.488679e-06	-1.305005e-09	-3.806329e+01	-8.632904e+01
1.600000e-07	-5.482540e-06	-1.265695e-09	-3.802072e+01	-8.627592e+01
1.700000e-07	-5.476007e-06	-1.321483e-09	-3.797541e+01	-8.621986e+01
1.800000e-07	-5.469040e-06	-1.319201e-09	-3.792709e+01	-8.616063e+01
1.900000e-07	-5.461746e-06	-1.326330e-09	-3.787652e+01	-8.609803e+01
2.000000e-07	-5.454179e-06	-1.296307e-09	-3.782404e+01	-8.603185e+01
2.100000e-07	-5.446350e-06	-1.330158e-09	-3.776975e+01	-8.596190e+01
2.200000e-07	-5.438251e-06	-1.331780e-09	-3.771358e+01	-8.588799e+01
2.300000e-07	-5.429827e-06	-1.313759e-09	-3.765516e+01	-8.580994e+01
2.400000e-07	-5.420907e-06	-1.304124e-09	-3.759330e+01	-8.572760e+01
2.500000e-07	-5.411415e-06	-1.312646e-09	-3.752748e+01	-8.564079e+01
2.600000e-07	-5.401278e-06	-1.314089e-09	-3.745718e+01	-8.554939e+01
2.700000e-07	-5.390452e-06	-1.279332e-09	-3.738210e+01	-8.545325e+01
2.800000e-07	-5.379126e-06	-1.295787e-09	-3.730355e+01	-8.535227e+01
2.900000e-07	-5.367429e-06	-1.283842e-09	-3.722244e+01	-8.524634e+01
3.000000e-07	-5.355346e-06	-1.277541e-09	-3.713864e+01	-8.513537e+01
3.100000e-07	-5.342832e-06	-1.246856e-09	-3.705186e+01	-8.501929e+01
3.200000e-07	-5.329944e-06	-1.296642e-09	-3.696249e+01	-8.489804e+01
3.300000e-07	-5.316642e-06	-1.272107e-09	-3.687024e+01	-8.477157e+01
3.400000e-07	-5.302960e-06	-1.283159e-09	-3.677535e+01	-8.463986e+01
3.500000e-07	-5.288930e-06	-1.280107e-09	-3.667805e+01	-8.450289e+01
3.600000e-07	-5.274475e-06	-1.293106e-09	-3.657781e+01	-8.436065e+01
3.700000e-07	-5.259527e-06	-1.243295e-09	-3.647415e+01	-8.421316e+01
3.800000e-07	-5.244025e-06	-1.272470e-09	-3.636665e+01	-8.406045e+01
3.900000e-07	-5.228000e-06	-1.276110e-09	-3.625551e+01	-8.390254e+01
4.000000e-07	-5.211596e-06	-1.258388e-09	-3.614175e+01	-8.373949e+01
4.100000e-07	-5.194862e-06	-1.250655e-09	-3.602571e+01	-8.357136e+01
4.200000e-07	-5.177768e-06	-1.288446e-09	-3.590716e+01	-8.339821e+01
4.300000e-07	-5.160326e-06	-1.255872e-09	-3.578621e+01	-8.322013e+01
4.400000e-07	-5.142555e-06	-1.243656e-09	-3.566296e+01	-8.303720e+01
4.500000e-07	-5.124345e-06	-1.273745e-09	-3.553668e+01	-8.284953e+01
4.600000e-07	-5.105734e-06	-1.257797e-09	-3.540762e+01	-8.265720e+01
4.700000e-07	-5.086779e-06	-1.219844e-09	-3.527616e+01	-8.246033e+01
4.800000e-07	-5.067472e-06	-1.260885e-09	-3.514227e+01	-8.225904e+01
4.900000e-07	-5.047878e-06	-1.272009e-09	-3.500640e+01	-8.205343e+01
5.000000e-07	-5.028057e-06	-1.215615e-09	-3.486894e+01	-8.184363e+01
5.100000e-07	-5.007983e-06	-1.233110e-09	-3.472973e+01	-8.162976e+01
5.200000e-07	-4.987562e-06	-1.266654e-09	-3.458811e+01	-8.141195e+01
5.300000e-07	-4.966811e-06	-1.227030e-09	-3.444420e+01	-8.119031e+01
5.400000e-07	-4.945764e-06	-1.213609e-09	-3.429825e+01	-8.096497e+01
5.500000e-07	-4.924357e-06	-1.258575e-09	-3.414979e+01	-8.073605e+01
5.600000e-07	-4.902577e-06	-1.225071e-09	-3.399875e+01	-8.050368e+01
5.700000e-07	-4.880349e-06	-1.202265e-09	-3.384460e+01	-8.026797e+01
5.800000e-07	-4.857787e-06	-1.234210e-09	-3.368813e+01	-8.002903e+01
5.900000e-07	-4.834989e-06	-1.232611e-09	-3.353003e+01	-7.978697e+01
6.000000e-07	-4.811917e-06	-1.187412e-09	-3.337003e+01	-7.954190e+01
6.100000e-07	-4.788576e-06	-1.214618e-09	-3.320817e+01	-7.929392e+01
6.200000e-07	-4.764902e-06	-1.214433e-09	-3.304399e+01	-7.904313e+01
6.300000e-07	-4.740922e-06	-1.184213e-09	-3.287769e+01	-7.878961e+01
6.400000e-07	-4.716693e-06	-1.187074e-09	-3.270967e+01	-7.853346e+01
6.500000e-07	-4.692095e-06	-1.209158e-09	-3.253908e+01	-7.827474e+01
6.600000e-07	-4.667083e-06	-1.174991e-09	-3.236563e+01	-7.801352e+01
6.700000e-07	-4.641612e-06	-1.178474e-09	-3.218899e+01	-7.774988e+01
6.800000e-07	-4.615487e-06	-1.193072e-09	-3.200781e+01	-7.748387e+01
6.900000e-07	-4.588774e-06	-1.178567e-09	-3.182257e+01	-7.721554e+01
7.000000e-07	-4.561696e-06	-1.159808e-09	-3.163478e+01	-7.694493e+01
7.100000e-07	-4.534303e-06	-1.173419e-09	-3.144482e+01	-7.667208e+01
7.200000e-07	-4.506663e-06	-1.163706e-09	-3.125314e+01	-7.639702e+01
7.300000e-07	-4.478863e-06	-1.152552e-09	-3.106035e+01	-7.611978e+01
7.400000e-07	-4.450900e-06	-1.156862e-09	-3.086643e+01	-7.584036e+01
7.500000e-07	-4.422722e-06	-1.157805e-09	-3.067102e+01	-7.555878e+01
7.600000e-07	-4.394262e-06	-1.143037e-09	-3.047365e+01	-7.527503e+01
7.700000e-07	-4.365442e-06	-1.141705e-09	-3.027378e+01	-7.498912e+01
7.800000e-07	-4.336268e-06	-1.139633e-09	-3.007147e+01	-7.470104e+01
7.900000e-07	-4.306804e-06	-1.127083e-09	-2.986714e+01	-7.441076e+01
8.000000e-07	-4.277085e-06	-1.121126e-09	-2.966104e+01	-7.411827e+01
8.100000e-07	-4.247120e-06	-1.122115e-09	-2.945324e+01	-7.382354e+01
8.200000e-07	-4.216729e-06	-1.118215e-09	-2.924248e+01	-7.352652e+01
8.300000e-07	-4.185954e-06	-1.109405e-09	-2.902906e+01	-7.322719e+01
8.400000e-07	-4.154974e-06	-1.110937e-09	-2.881421e+01	-7.292550e+01
8.500000e-07	-4.123789e-06	-1.100123e-09	-2.859795e+01	-7.262140e+01
8.600000e-07	-4.092375e-06	-1.087434e-09	-2.838010e+01	-7.231483e+01
8.700000e-07	-4.060744e-06	-1.077389e-09	-2.816075e+01	-7.200573e+01
8.800000e-07	-4.028911e-06	-1.077253e-09	-2.793999e+01	-7.169405e+01
8.900000e-07	-3.996913e-06	-1.069820e-09	-2.771809e+01	-7.137971e+01
9.000000e-07	-3.964653e-06	-1.068434e-09	-2.749437e+01	-7.106265e+01
9.100000e-07	-3.932059e-06	-1.064758e-09	-2.726833e+01	-7.074278e+01
9.200000e-07	-3.899168e-06	-1.058725e-09	-2.704024e+01	-7.042004e+01
9.300000e-07	-3.865797e-06	-1.046824e-09	-2.680881e+01	-7.009434e+01
9.400000e-07	-3.831895e-06	-1.043908e-09	-2.657371e+01	-6.976560e+01
9.500000e-07	-3.797555e-06	-1.034548e-09	-2.633556e+01	-6.943374e+01
9.600000e-07	-3.762769e-06	-1.025423e-09	-2.609432e+01	-6.909865e+01
9.700000e-07	-3.727678e-06	-1.016870e-09	-2.585097e+01	-6.876027e+01
9.800000e-07	-3.692337e-06	-1.016558e-09	-2.560589e+01	-6.841848e+01
9.900000e-07	-3.656761e-06	-1.010272e-09	-2.535918e+01	-6.807321e+01
1.000000e-06	-3.621088e-06	-1.007418e-09	-2.511178e+01	-6.772435e+01
1.010000e-06	-3.585301e-06	-1.003267e-09	-2.486361e+01	-6.737182e+01
1.020000e-06	-3.549308e-06	-9.972918e-10	-2.461400e+01	-6.701551e+01
1.030000e-06	-3.513106e-06	-9.863000e-10	-2.436294e+01	-6.665534e+01
1.040000e-06	-3.476667e-06	-9.789324e-10	-2.411025e+01	-6.629121e+01
1.050000e-06	-3.439981e-06	-9.699525e-10	-2.385583e+01	-6.592301e+01
1.060000e-06	-3.403095e-06	-9.608922e-10	-2.360003e+01	-6.555067e+01
1.070000e-06	-3.365974e-06	-9.573024e-10	-2.334260e+01	-6.517408e+01
1.080000e-06	-3.328527e-06	-9.542610e-10	-2.308291e+01	-6.479315e+01
1.090000e-06	-3.290776e-06	-9.481698e-10	-2.282111e+01	-6.440780e+01
1.100000e-06	-3.252744e-06	-9.398340e-10	-2.255737e+01	-6.401793e+01
1.110000e-06	-3.214570e-06	-9.302152e-10	-2.229263e+01	-6.362345e+01
1.120000e-06	-3.176291e-06	-9.179351e-10	-2.202718e+01	-6.322427e+01
1.130000e-06	-3.137725e-06	-9.091325e-10	-2.175973e+01	-6.282032e+01
1.140000e-06	-3.098883e-06	-9.039017e-10	-2.149036e+01	-6.241150e+01
1.150000e-06	-3.059858e-06	-9.007127e-10	-2.121972e+01	-6.199774e+01
1.160000e-06	-3.020660e-06	-8.956285e-10	-2.094789e+01	-6.157895e+01
1.170000e-06	-2.981291e-06	-8.926022e-10	-2.067487e+01	-6.115506e+01
1.180000e-06	-2.941733e-06	-8.845482e-10	-2.040054e+01	-6.072598e+01
1.190000e-06	-2.901992e-06	-8.768245e-10	-2.012495e+01	-6.029164e+01
1.200000e-06	-2.862173e-06	-8.682597e-10	-1.984880e+01	-5.985195e+01
1.210000e-06	-2.822256e-06	-8.628522e-10	-1.957198e+01	-5.940685e+01
1.220000e-06	-2.782191e-06	-8.546235e-10	-1.929414e+01	-5.895625e+01
1.230000e-06	-2.741997e-06	-8.485138e-10	-1.901540e+01	-5.850008e+01
1.240000e-06	-2.701646e-06	-8.408755e-10	-1.873557e+01	-5.803824e+01
1.250000e-06	-2.661031e-06	-8.341921e-10	-1.845391e+01	-5.757066e+01
1.260000e-06	-2.620188e-06	-8.250549e-10	-1.817067e+01	-5.709725e+01
1.270000e-06	-2.579113e-06	-8.152986e-10	-1.788582e+01	-5.661793e+01
1.280000e-06	-2.537616e-06	-8.066125e-10	-1.759805e+01	-5.613258e+01
1.290000e-06	-2.495770e-06	-7.979711e-10	-1.730785e+01	-5.564112e+01
1.300000e-06	-2.453716e-06	-7.872317e-10	-1.701621e+01	-5.514343e+01
1.310000e-06	-2.411371e-06	-7.795098e-10	-1.672255e+01	-5.463941e+01
1.320000e-06	-2.368699e-06	-7.735006e-10	-1.642662e+01	-5.412891e+01
1.330000e-06	-2.325780e-06	-7.675149e-10	-1.612899e+01	-5.361182e+01
1.340000e-06	-2.282684e-06	-7.585723e-10	-1.583013e+01	-5.308799e+01
1.350000e-06	-2.239404e-06	-7.486357e-10	-1.552998e+01	-5.255727e+01
1.360000e-06	-2.195934e-06	-7.366216e-10	-1.522852e+01	-5.201947e+01
1.370000e-06	-2.152314e-06	-7.274841e-10	-1.492603e+01	-5.147444e+01
1.380000e-06	-2.108599e-06	-7.222815e-10	-1.462287e+01	-5.092196e+01
1.390000e-06	-2.064816e-06	-7.159388e-10	-1.431924e+01	-5.036184e+01
1.400000e-06	-2.020915e-06	-7.069590e-10	-1.401479e+01	-4.979384e+01
1.410000e-06	-1.976958e-06	-6.977945e-10	-1.370995e+01	-4.921773e+01
1.420000e-06	-1.932938e-06	-6.889343e-10	-1.340468e+01	-4.863325e+01
1.430000e-06	-1.888800e-06	-6.792607e-10	-1.309859e+01	-4.804011e+01
1.440000e-06	-1.844540e-06	-6.694559e-10	-1.279165e+01	-4.743804e+01
1.450000e-06	-1.800131e-06	-6.591273e-10	-1.248368e+01	-4.682671e+01
1.460000e-06	-1.755626e-06	-6.484756e-10	-1.217504e+01	-4.620581e+01
1.470000e-06	-1.711040e-06	-6.353894e-10	-1.186585e+01	-4.557498e+01
1.480000e-06	-1.666296e-06	-6.221427e-10	-1.155555e+01	-4.493386e+01
1.490000e-06	-1.621373e-06	-6.111353e-10	-1.124401e+01	-4.428208e+01
1.500000e-06	-1.576400e-06	-6.045776e-10	-1.093213e+01	-4.361923e+01
1.510000e-06	-1.531380e-06	-5.975366e-10	-1.061993e+01	-4.294491e+01
1.520000e-06	-1.486152e-06	-5.895201e-10	-1.030628e+01	-4.225869e+01
1.530000e-06	-1.440786e-06	-5.787241e-10	-9.991666e+00	-4.156014e+01
1.540000e-06	-1.395389e-06	-5.656799e-10	-9.676845e+00	-4.084881e+01
1.550000e-06	-1.349891e-06	-5.502581e-10	-9.361319e+00	-4.012424e+01
1.560000e-06	-1.304255e-06	-5.375664e-10	-9.044844e+00	-3.938596e+01
1.570000e-06	-1.258534e-06	-5.239485e-10	-8.727771e+00	-3.863351e+01
1.580000e-06	-1.212674e-06	-5.128642e-10	-8.409742e+00	-3.786640e+01
1.590000e-06	-1.166691e-06	-5.033864e-10	-8.090856e+00	-3.708418e+01
1.600000e-06	-1.120682e-06	-4.934251e-10	-7.771790e+00	-3.628635e+01
1.610000e-06	-1.074613e-06	-4.806285e-10	-7.452302e+00	-3.547245e+01
1.620000e-06	-1.028447e-06	-4.665283e-10	-7.132147e+00	-3.464203e+01
1.630000e-06	-9.822604e-07	-4.541634e-10	-6.811851e+00	-3.379462e+01
1.640000e-06	-9.360749e-07	-4.429443e-10	-6.491560e+00	-3.292980e+01
1.650000e-06	-8.897716e-07	-4.294187e-10	-6.170453e+00	-3.204714e+01
1.660000e-06	-8.433468e-07	-4.137058e-10	-5.848503e+00	-3.114625e+01
1.670000e-06	-7.969061e-07	-3.967312e-10	-5.526442e+00	-3.022674e+01
1.680000e-06	-7.504197e-07	-3.804373e-10	-5.204065e+00	-2.928826e+01
1.690000e-06	-7.038924e-07	-3.670586e-10	-4.881404e+00	-2.833050e+01
1.700000e-06	-6.572823e-07	-3.546262e-10	-4.558169e+00	-2.735318e+01
1.710000e-06	-6.105909e-07	-3.421636e-10	-4.234370e+00	-2.635603e+01
1.720000e-06	-5.639413e-07	-3.257965e-10	-3.910862e+00	-2.533885e+01
1.730000e-06	-5.172581e-07	-3.049094e-10	-3.587119e+00	-2.430148e+01
1.740000e-06	-4.704626e-07	-2.828858e-10	-3.262598e+00	-2.324380e+01
1.750000e-06	-4.236196e-07	-2.637226e-10	-2.937748e+00	-2.216573e+01
1.760000e-06	-3.768323e-07	-2.473292e-10	-2.613284e+00	-2.106726e+01
1.770000e-06	-3.300680e-07	-2.338722e-10	-2.288980e+00	-1.994841e+01
1.780000e-06	-2.832140e-07	-2.195797e-10	-1.964053e+00	-1.880929e+01
1.790000e-06	-2.363141e-07	-2.035209e-10	-1.638808e+00	-1.765004e+01
1.800000e-06	-1.893444e-07	-1.845917e-10	-1.313079e+00	-1.647087e+01
1.810000e-06	-1.423487e-07	-1.646642e-10	-9.871700e-01	-1.527204e+01
1.820000e-06	-9.545733e-08	-1.466959e-10	-6.619845e-01	-1.405390e+01
1.830000e-06	-4.859736e-08	-1.316133e-10	-3.370165e-01	-1.281684e+01
1.840000e-06	-1.729127e-09	-1.156465e-10	-1.199127e-02	-1.156131e+01
1.850000e-06	4.512473e-08	-9.759014e-11	3.129343e-01	-1.028783e+01
1.860000e-06	9.206000e-08	-8.072845e-11	6.384244e-01	-8.996997e+00
1.870000e-06	1.390505e-07	-6.320338e-11	9.642977e-01	-7.689450e+00
1.880000e-06	1.859353e-07	-4.361038e-11	1.289438e+00	-6.365900e+00
1.890000e-06	2.327761e-07	-2.403964e-11	1.614273e+00	-5.027113e+00
1.900000e-06	2.796848e-07	-4.099850e-12	1.939578e+00	-3.673916e+00
1.910000e-06	3.265525e-07	1.493612e-11	2.264600e+00	-2.307192e+00
1.920000e-06	3.732600e-07	3.230646e-11	2.588511e+00	-9.278745e-01
1.930000e-06	4.200934e-07	4.869132e-11	2.913294e+00	4.630494e-01
1.940000e-06	4.670008e-07	6.721625e-11	3.238591e+00	1.864547e+00
1.950000e-06	5.136901e-07	8.686299e-11	3.562376e+00	3.275540e+00
1.960000e-06	5.602819e-07	1.064498e-10	3.885484e+00	4.694912e+00
1.970000e-06	6.068308e-07	1.257031e-10	4.208294e+00	6.121508e+00
1.980000e-06	6.534047e-07	1.439102e-10	4.531279e+00	7.554143e+00
1.990000e-06	7.000988e-07	1.629243e-10	4.855096e+00	8.991604e+00
2.000000e-06	7.467116e-07	1.799790e-10	5.178350e+00	1.043266e+01
2.010000e-06	7.930979e-07	1.994995e-10	5.500033e+00	1.187604e+01
2.020000e-06	8.394248e-07	2.224544e-10	5.821304e+00	1.332050e+01
2.030000e-06	8.857975e-07	2.449761e-10	6.142893e+00	1.476474e+01
2.040000e-06	9.321650e-07	2.653117e-10	6.464446e+00	1.620751e+01
2.050000e-06	9.784306e-07	2.847641e-10	6.785292e+00	1.764751e+01
2.060000e-06	1.024553e-06	3.027240e-10	7.105146e+00	1.908348e+01
2.070000e-06	1.070587e-06	3.210234e-10	7.424388e+00	2.051417e+01
2.080000e-06	1.116547e-06	3.416481e-10	7.743111e+00	2.193832e+01
2.090000e-06	1.162438e-06	3.637700e-10	8.061358e+00	2.335474e+01
2.100000e-06	1.208230e-06	3.861302e-10	8.378920e+00	2.476222e+01
2.110000e-06	1.253893e-06	4.061863e-10	8.695587e+00	2.615960e+01
2.120000e-06	1.299495e-06	4.241887e-10	9.011831e+00	2.754577e+01
2.130000e-06	1.345036e-06	4.409987e-10	9.327657e+00	2.891964e+01
2.140000e-06	1.390498e-06	4.595183e-10	9.642929e+00	3.028017e+01
2.150000e-06	1.435865e-06	4.798186e-10	9.957543e+00	3.162636e+01
2.160000e-06	1.481111e-06	4.991331e-10	1.027132e+01	3.295728e+01
2.170000e-06	1.526318e-06	5.190404e-10	1.058482e+01	3.427204e+01
2.180000e-06	1.571472e-06	5.400795e-10	1.089796e+01	3.556980e+01
2.190000e-06	1.616444e-06	5.590133e-10	1.120984e+01	3.684979e+01
2.200000e-06	1.661243e-06	5.751488e-10	1.152051e+01	3.811130e+01
2.210000e-06	1.705894e-06	5.895412e-10	1.183016e+01	3.935367e+01
2.220000e-06	1.750536e-06	6.049055e-10	1.213974e+01	4.057632e+01
2.230000e-06	1.795065e-06	6.217503e-10	1.244855e+01	4.177872e+01
2.240000e-06	1.839330e-06	6.403165e-10	1.275552e+01	4.296041e+01
2.250000e-06	1.883431e-06	6.577221e-10	1.306135e+01	4.412099e+01
2.260000e-06	1.927433e-06	6.738541e-10	1.336650e+01	4.526013e+01
2.270000e-06	1.971399e-06	6.933155e-10	1.367140e+01	4.637755e+01
2.280000e-06	2.015323e-06	7.103667e-10	1.397601e+01	4.747306e+01
2.290000e-06	2.059173e-06	7.264495e-10	1.428010e+01	4.854650e+01
2.300000e-06	2.102942e-06	7.411659e-10	1.458364e+01	4.959779e+01
2.310000e-06	2.146627e-06	7.533525e-10	1.488658e+01	5.062688e+01
2.320000e-06	2.190212e-06	7.660471e-10	1.518884e+01	5.163381e+01
2.330000e-06	2.233763e-06	7.788236e-10	1.549087e+01	5.261865e+01
2.340000e-06	2.277236e-06	7.934088e-10	1.579235e+01	5.358152e+01
2.350000e-06	2.320417e-06	8.111112e-10	1.609179e+01	5.452258e+01
2.360000e-06	2.363350e-06	8.302016e-10	1.638953e+01	5.544206e+01
2.370000e-06	2.406031e-06	8.445047e-10	1.668552e+01	5.634021e+01
2.380000e-06	2.448389e-06	8.578329e-10	1.697926e+01	5.721731e+01
2.390000e-06	2.490453e-06	8.699373e-10	1.727097e+01	5.807368e+01
2.400000e-06	2.532285e-06	8.811565e-10	1.756107e+01	5.890968e+01
2.410000e-06	2.573798e-06	8.896338e-10	1.784896e+01	5.972568e+01
2.420000e-06	2.614885e-06	8.972514e-10	1.813390e+01	6.052209e+01
2.430000e-06	2.655705e-06	9.095522e-10	1.841698e+01	6.129931e+01
2.440000e-06	2.696370e-06	9.223717e-10	1.869898e+01	6.205779e+01
2.450000e-06	2.736845e-06	9.354714e-10	1.897967e+01	6.279796e+01
2.460000e-06	2.777120e-06	9.498794e-10	1.925898e+01	6.352029e+01
2.470000e-06	2.817209e-06	9.626497e-10	1.953699e+01	6.422522e+01
2.480000e-06	2.857069e-06	9.708071e-10	1.981341e+01	6.491323e+01
2.490000e-06	2.896820e-06	9.776540e-10	2.008908e+01	6.558477e+01
2.500000e-06	2.936536e-06	9.828021e-10	2.036451e+01	6.624029e+01
2.510000e-06	2.976114e-06	9.905444e-10	2.063897e+01	6.688026e+01
2.520000e-06	3.015507e-06	1.003828e-09	2.091216e+01	6.750511e+01
2.530000e-06	3.054730e-06	1.017513e-09	2.118417e+01	6.811529e+01
2.540000e-06	3.093699e-06	1.027175e-09	2.145441e+01	6.871121e+01
2.550000e-06	3.132422e-06	1.035170e-09	2.172295e+01	6.929328e+01
2.560000e-06	3.170887e-06	1.043498e-09	2.198970e+01	6.986190e+01
2.570000e-06	3.209025e-06	1.048745e-09	2.225418e+01	7.041745e+01
2.580000e-06	3.246893e-06	1.052544e-09	2.251679e+01	7.096028e+01
2.590000e-06	3.284624e-06	1.058495e-09	2.277845e+01	7.149076e+01
2.600000e-06	3.322278e-06	1.065963e-09	2.303958e+01	7.200920e+01
2.610000e-06	3.359715e-06	1.073488e-09	2.329920e+01	7.251592e+01
2.620000e-06	3.396921e-06	1.079087e-09	2.355721e+01	7.301120e+01
2.630000e-06	3.433948e-06	1.085501e-09	2.381399e+01	7.349533e+01
2.640000e-06	3.470685e-06	1.092743e-09	2.406876e+01	7.396856e+01
2.650000e-06	3.507046e-06	1.098537e-09	2.432092e+01	7.443113e+01
2.660000e-06	3.543179e-06	1.103504e-09	2.457150e+01	7.488326e+01
2.670000e-06	3.579181e-06	1.107287e-09	2.482116e+01	7.532518e+01
2.680000e-06	3.615037e-06	1.112327e-09	2.506982e+01	7.575706e+01
2.690000e-06	3.650817e-06	1.117975e-09	2.531795e+01	7.617910e+01
2.700000e-06	3.686459e-06	1.124355e-09	2.556512e+01	7.659146e+01
2.710000e-06	3.721883e-06	1.131767e-09	2.581078e+01	7.699430e+01
2.720000e-06	3.757026e-06	1.140487e-09	2.605450e+01	7.738777e+01
2.730000e-06	3.791826e-06	1.147103e-09	2.629583e+01	7.777200e+01
2.740000e-06	3.826268e-06	1.149022e-09	2.653468e+01	7.814713e+01
2.750000e-06	3.860233e-06	1.148170e-09	2.677023e+01	7.851328e+01
2.760000e-06	3.893700e-06	1.149033e-09	2.700231e+01	7.887057e+01
2.770000e-06	3.926688e-06	1.155599e-09	2.723108e+01	7.921912e+01
2.780000e-06	3.959164e-06	1.165890e-09	2.745630e+01	7.955902e+01
2.790000e-06	3.991321e-06	1.178282e-09	2.767930e+01	7.989040e+01
2.800000e-06	4.023325e-06	1.187786e-09	2.790125e+01	8.021336e+01
2.810000e-06	4.055166e-06	1.192616e-09	2.812206e+01	8.052801e+01
2.820000e-06	4.086885e-06	1.194772e-09	2.834203e+01	8.083445e+01
2.830000e-06	4.118466e-06	1.193426e-09	2.856104e+01	8.113278e+01
2.840000e-06	4.149817e-06	1.195298e-09	2.877845e+01	8.142312e+01
2.850000e-06	4.180937e-06	1.202887e-09	2.899427e+01	8.170557e+01
2.860000e-06	4.211686e-06	1.213444e-09	2.920750e+01	8.198025e+01
2.870000e-06	4.242030e-06	1.220892e-09	2.941794e+01	8.224726e+01
2.880000e-06	4.272107e-06	1.226707e-09	2.962652e+01	8.250672e+01
2.890000e-06	4.301844e-06	1.231285e-09	2.983274e+01	8.275875e+01
2.900000e-06	4.331332e-06	1.232556e-09	3.003724e+01	8.300346e+01
