# Temperatura_=_-0.6
# Concentracion g/m^3_=_1620.0
# C_Vs_to_Am_M_A/Vsm_=_65563218390.804596
# pendiente_HvsI_1/m_=_3716.3
# ordenada_HvsI_A/m_=_1297.0
# frecuencia_Hz_=_135100.2831055655

Tiempo_(s)	Campo_(V.s)	Magnetizacion_(V.s)	Campo_(kA/m)	Magnetizacion_(A/m)
0.000000e+00	-5.503243e-06	-1.314596e-09	-3.835791e+01	-8.666141e+01
1.000000e-08	-5.503463e-06	-1.313723e-09	-3.835945e+01	-8.660165e+01
2.000000e-08	-5.503472e-06	-1.314525e-09	-3.835950e+01	-8.654092e+01
3.000000e-08	-5.503127e-06	-1.316948e-09	-3.835710e+01	-8.647913e+01
4.000000e-08	-5.502384e-06	-1.316135e-09	-3.835193e+01	-8.641622e+01
5.000000e-08	-5.501096e-06	-1.307846e-09	-3.834294e+01	-8.635208e+01
6.000000e-08	-5.499177e-06	-1.296777e-09	-3.832957e+01	-8.628664e+01
7.000000e-08	-5.496719e-06	-1.309037e-09	-3.831244e+01	-8.621979e+01
8.000000e-08	-5.493688e-06	-1.336235e-09	-3.829131e+01	-8.615142e+01
9.000000e-08	-5.490151e-06	-1.345202e-09	-3.826665e+01	-8.608144e+01
1.000000e-07	-5.486205e-06	-1.364723e-09	-3.823915e+01	-8.600975e+01
1.100000e-07	-5.481970e-06	-1.376719e-09	-3.820963e+01	-8.593623e+01
1.200000e-07	-5.477544e-06	-1.308733e-09	-3.817878e+01	-8.586078e+01
1.300000e-07	-5.472849e-06	-1.227489e-09	-3.814606e+01	-8.578331e+01
1.400000e-07	-5.467830e-06	-1.274795e-09	-3.811108e+01	-8.570372e+01
1.500000e-07	-5.462391e-06	-1.350397e-09	-3.807317e+01	-8.562191e+01
1.600000e-07	-5.456506e-06	-1.336893e-09	-3.803215e+01	-8.553780e+01
1.700000e-07	-5.450210e-06	-1.253408e-09	-3.798827e+01	-8.545130e+01
1.800000e-07	-5.443457e-06	-1.278229e-09	-3.794120e+01	-8.536235e+01
1.900000e-07	-5.436352e-06	-1.343372e-09	-3.789167e+01	-8.527086e+01
2.000000e-07	-5.428994e-06	-1.311702e-09	-3.784039e+01	-8.517679e+01
2.100000e-07	-5.421412e-06	-1.260197e-09	-3.778754e+01	-8.508008e+01
2.200000e-07	-5.413624e-06	-1.275507e-09	-3.773326e+01	-8.498068e+01
2.300000e-07	-5.405531e-06	-1.333165e-09	-3.767685e+01	-8.487855e+01
2.400000e-07	-5.396984e-06	-1.306262e-09	-3.761728e+01	-8.477367e+01
2.500000e-07	-5.387933e-06	-1.258332e-09	-3.755419e+01	-8.466601e+01
2.600000e-07	-5.378153e-06	-1.242995e-09	-3.748602e+01	-8.455555e+01
2.700000e-07	-5.367501e-06	-1.272489e-09	-3.741178e+01	-8.444228e+01
2.800000e-07	-5.356315e-06	-1.268369e-09	-3.733381e+01	-8.432620e+01
2.900000e-07	-5.344840e-06	-1.267641e-09	-3.725383e+01	-8.420731e+01
3.000000e-07	-5.333029e-06	-1.262918e-09	-3.717151e+01	-8.408561e+01
3.100000e-07	-5.320852e-06	-1.266256e-09	-3.708663e+01	-8.396112e+01
3.200000e-07	-5.308274e-06	-1.260815e-09	-3.699897e+01	-8.383385e+01
3.300000e-07	-5.295276e-06	-1.249193e-09	-3.690837e+01	-8.370381e+01
3.400000e-07	-5.281885e-06	-1.230485e-09	-3.681503e+01	-8.357102e+01
3.500000e-07	-5.268167e-06	-1.251321e-09	-3.671942e+01	-8.343550e+01
3.600000e-07	-5.254029e-06	-1.277227e-09	-3.662087e+01	-8.329726e+01
3.700000e-07	-5.239396e-06	-1.258484e-09	-3.651888e+01	-8.315633e+01
3.800000e-07	-5.224202e-06	-1.251640e-09	-3.641298e+01	-8.301272e+01
3.900000e-07	-5.208502e-06	-1.271396e-09	-3.630355e+01	-8.286643e+01
4.000000e-07	-5.192309e-06	-1.242230e-09	-3.619068e+01	-8.271749e+01
4.100000e-07	-5.175623e-06	-1.208670e-09	-3.607438e+01	-8.256589e+01
4.200000e-07	-5.158614e-06	-1.260014e-09	-3.595582e+01	-8.241164e+01
4.300000e-07	-5.141332e-06	-1.268861e-09	-3.583537e+01	-8.225474e+01
4.400000e-07	-5.123782e-06	-1.211457e-09	-3.571305e+01	-8.209517e+01
4.500000e-07	-5.105920e-06	-1.236129e-09	-3.558854e+01	-8.193293e+01
4.600000e-07	-5.087692e-06	-1.295083e-09	-3.546149e+01	-8.176799e+01
4.700000e-07	-5.068954e-06	-1.220921e-09	-3.533089e+01	-8.160033e+01
4.800000e-07	-5.049765e-06	-1.186688e-09	-3.519714e+01	-8.142993e+01
4.900000e-07	-5.030354e-06	-1.258762e-09	-3.506185e+01	-8.125673e+01
5.000000e-07	-5.010762e-06	-1.244385e-09	-3.492529e+01	-8.108071e+01
5.100000e-07	-4.990972e-06	-1.169820e-09	-3.478735e+01	-8.090182e+01
5.200000e-07	-4.970944e-06	-1.231733e-09	-3.464775e+01	-8.072001e+01
5.300000e-07	-4.950573e-06	-1.261215e-09	-3.450577e+01	-8.053522e+01
5.400000e-07	-4.929827e-06	-1.183303e-09	-3.436117e+01	-8.034739e+01
5.500000e-07	-4.908655e-06	-1.193285e-09	-3.421360e+01	-8.015646e+01
5.600000e-07	-4.887140e-06	-1.256703e-09	-3.406364e+01	-7.996238e+01
5.700000e-07	-4.865379e-06	-1.194423e-09	-3.391196e+01	-7.976506e+01
5.800000e-07	-4.843267e-06	-1.169975e-09	-3.375784e+01	-7.956445e+01
5.900000e-07	-4.820694e-06	-1.238719e-09	-3.360050e+01	-7.936049e+01
6.000000e-07	-4.797778e-06	-1.216530e-09	-3.344078e+01	-7.915309e+01
6.100000e-07	-4.774625e-06	-1.155242e-09	-3.327940e+01	-7.894221e+01
6.200000e-07	-4.751196e-06	-1.197016e-09	-3.311610e+01	-7.872777e+01
6.300000e-07	-4.727509e-06	-1.207721e-09	-3.295100e+01	-7.850971e+01
6.400000e-07	-4.703567e-06	-1.156417e-09	-3.278412e+01	-7.828799e+01
6.500000e-07	-4.679354e-06	-1.176851e-09	-3.261536e+01	-7.806255e+01
6.600000e-07	-4.654796e-06	-1.206243e-09	-3.244418e+01	-7.783334e+01
6.700000e-07	-4.629699e-06	-1.168514e-09	-3.226926e+01	-7.760032e+01
6.800000e-07	-4.604030e-06	-1.163929e-09	-3.209035e+01	-7.736346e+01
6.900000e-07	-4.577868e-06	-1.190965e-09	-3.190800e+01	-7.712273e+01
7.000000e-07	-4.551184e-06	-1.161938e-09	-3.172200e+01	-7.687810e+01
7.100000e-07	-4.524046e-06	-1.141149e-09	-3.153285e+01	-7.662957e+01
7.200000e-07	-4.496639e-06	-1.163091e-09	-3.134183e+01	-7.637711e+01
7.300000e-07	-4.469045e-06	-1.162238e-09	-3.114949e+01	-7.612074e+01
7.400000e-07	-4.441292e-06	-1.139790e-09	-3.095605e+01	-7.586045e+01
7.500000e-07	-4.413358e-06	-1.147257e-09	-3.076135e+01	-7.559625e+01
7.600000e-07	-4.385109e-06	-1.144277e-09	-3.056445e+01	-7.532818e+01
7.700000e-07	-4.356566e-06	-1.124147e-09	-3.036551e+01	-7.505624e+01
7.800000e-07	-4.327746e-06	-1.120659e-09	-3.016463e+01	-7.478048e+01
7.900000e-07	-4.298639e-06	-1.126278e-09	-2.996175e+01	-7.450092e+01
8.000000e-07	-4.269271e-06	-1.113363e-09	-2.975705e+01	-7.421761e+01
8.100000e-07	-4.239614e-06	-1.109905e-09	-2.955034e+01	-7.393059e+01
8.200000e-07	-4.209689e-06	-1.109533e-09	-2.934177e+01	-7.363990e+01
8.300000e-07	-4.179478e-06	-1.094549e-09	-2.913119e+01	-7.334559e+01
8.400000e-07	-4.148917e-06	-1.081649e-09	-2.891818e+01	-7.304772e+01
8.500000e-07	-4.118023e-06	-1.087668e-09	-2.870285e+01	-7.274633e+01
8.600000e-07	-4.086881e-06	-1.082510e-09	-2.848579e+01	-7.244147e+01
8.700000e-07	-4.055556e-06	-1.071994e-09	-2.826745e+01	-7.213319e+01
8.800000e-07	-4.024032e-06	-1.073241e-09	-2.804773e+01	-7.182153e+01
8.900000e-07	-3.992290e-06	-1.070636e-09	-2.782648e+01	-7.150654e+01
9.000000e-07	-3.960332e-06	-1.052616e-09	-2.760373e+01	-7.118825e+01
9.100000e-07	-3.928089e-06	-1.045192e-09	-2.737900e+01	-7.086670e+01
9.200000e-07	-3.895531e-06	-1.044158e-09	-2.715207e+01	-7.054191e+01
9.300000e-07	-3.862661e-06	-1.034321e-09	-2.692296e+01	-7.021391e+01
9.400000e-07	-3.829506e-06	-1.032205e-09	-2.669187e+01	-6.988271e+01
9.500000e-07	-3.795879e-06	-1.038717e-09	-2.645749e+01	-6.954832e+01
9.600000e-07	-3.761623e-06	-1.029993e-09	-2.621872e+01	-6.921074e+01
9.700000e-07	-3.726995e-06	-1.013852e-09	-2.597736e+01	-6.886996e+01
9.800000e-07	-3.692083e-06	-1.008536e-09	-2.573403e+01	-6.852596e+01
9.900000e-07	-3.656816e-06	-1.002299e-09	-2.548821e+01	-6.817872e+01
1.000000e-06	-3.621321e-06	-9.903860e-10	-2.524081e+01	-6.782820e+01
1.010000e-06	-3.585656e-06	-9.865362e-10	-2.499222e+01	-6.747437e+01
1.020000e-06	-3.549912e-06	-9.891444e-10	-2.474308e+01	-6.711718e+01
1.030000e-06	-3.514099e-06	-9.797843e-10	-2.449347e+01	-6.675656e+01
1.040000e-06	-3.478008e-06	-9.724548e-10	-2.424191e+01	-6.639246e+01
1.050000e-06	-3.441629e-06	-9.702140e-10	-2.398835e+01	-6.602480e+01
1.060000e-06	-3.405004e-06	-9.618208e-10	-2.373307e+01	-6.565351e+01
1.070000e-06	-3.368123e-06	-9.499170e-10	-2.347601e+01	-6.527850e+01
1.080000e-06	-3.331017e-06	-9.479739e-10	-2.321737e+01	-6.489969e+01
1.090000e-06	-3.293660e-06	-9.428614e-10	-2.295700e+01	-6.451699e+01
1.100000e-06	-3.256042e-06	-9.331981e-10	-2.269479e+01	-6.413029e+01
1.110000e-06	-3.218194e-06	-9.282112e-10	-2.243099e+01	-6.373950e+01
1.120000e-06	-3.180117e-06	-9.242453e-10	-2.216559e+01	-6.334453e+01
1.130000e-06	-3.141789e-06	-9.122570e-10	-2.189844e+01	-6.294527e+01
1.140000e-06	-3.103236e-06	-9.047700e-10	-2.162973e+01	-6.254162e+01
1.150000e-06	-3.064493e-06	-9.026100e-10	-2.135968e+01	-6.213348e+01
1.160000e-06	-3.025501e-06	-8.965953e-10	-2.108791e+01	-6.172074e+01
1.170000e-06	-2.986384e-06	-8.884199e-10	-2.081526e+01	-6.130332e+01
1.180000e-06	-2.947182e-06	-8.838224e-10	-2.054202e+01	-6.088112e+01
1.190000e-06	-2.907747e-06	-8.753498e-10	-2.026716e+01	-6.045403e+01
1.200000e-06	-2.868141e-06	-8.640999e-10	-1.999110e+01	-6.002197e+01
1.210000e-06	-2.828420e-06	-8.569869e-10	-1.971424e+01	-5.958486e+01
1.220000e-06	-2.788557e-06	-8.514939e-10	-1.943640e+01	-5.914259e+01
1.230000e-06	-2.748545e-06	-8.438596e-10	-1.915751e+01	-5.869510e+01
1.240000e-06	-2.708459e-06	-8.381147e-10	-1.887811e+01	-5.824230e+01
1.250000e-06	-2.668170e-06	-8.332322e-10	-1.859730e+01	-5.778411e+01
1.260000e-06	-2.627638e-06	-8.236708e-10	-1.831478e+01	-5.732045e+01
1.270000e-06	-2.586967e-06	-8.127936e-10	-1.803130e+01	-5.685125e+01
1.280000e-06	-2.546042e-06	-8.048317e-10	-1.774606e+01	-5.637643e+01
1.290000e-06	-2.504854e-06	-7.979412e-10	-1.745897e+01	-5.589590e+01
1.300000e-06	-2.463307e-06	-7.884739e-10	-1.716939e+01	-5.540960e+01
1.310000e-06	-2.421392e-06	-7.794324e-10	-1.687724e+01	-5.491743e+01
1.320000e-06	-2.379174e-06	-7.714420e-10	-1.658297e+01	-5.441930e+01
1.330000e-06	-2.336643e-06	-7.633375e-10	-1.628653e+01	-5.391513e+01
1.340000e-06	-2.293837e-06	-7.549351e-10	-1.598817e+01	-5.340480e+01
1.350000e-06	-2.250791e-06	-7.489752e-10	-1.568814e+01	-5.288821e+01
1.360000e-06	-2.207538e-06	-7.419496e-10	-1.538666e+01	-5.236523e+01
1.370000e-06	-2.164099e-06	-7.338877e-10	-1.508389e+01	-5.183573e+01
1.380000e-06	-2.120546e-06	-7.268671e-10	-1.478033e+01	-5.129955e+01
1.390000e-06	-2.076900e-06	-7.205359e-10	-1.447611e+01	-5.075653e+01
1.400000e-06	-2.033204e-06	-7.118820e-10	-1.417154e+01	-5.020649e+01
1.410000e-06	-1.989484e-06	-7.050427e-10	-1.386681e+01	-4.964922e+01
1.420000e-06	-1.945699e-06	-6.987184e-10	-1.356163e+01	-4.908450e+01
1.430000e-06	-1.901847e-06	-6.904084e-10	-1.325598e+01	-4.851209e+01
1.440000e-06	-1.857929e-06	-6.811558e-10	-1.294987e+01	-4.793173e+01
1.450000e-06	-1.813868e-06	-6.729487e-10	-1.264276e+01	-4.734312e+01
1.460000e-06	-1.769628e-06	-6.635355e-10	-1.233441e+01	-4.674595e+01
1.470000e-06	-1.725302e-06	-6.527545e-10	-1.202545e+01	-4.613989e+01
1.480000e-06	-1.680901e-06	-6.406244e-10	-1.171597e+01	-4.552456e+01
1.490000e-06	-1.636353e-06	-6.291856e-10	-1.140547e+01	-4.489959e+01
1.500000e-06	-1.591693e-06	-6.193316e-10	-1.109419e+01	-4.426455e+01
1.510000e-06	-1.546914e-06	-6.085027e-10	-1.078208e+01	-4.361903e+01
1.520000e-06	-1.501947e-06	-6.001294e-10	-1.046865e+01	-4.296255e+01
1.530000e-06	-1.456808e-06	-5.923407e-10	-1.015403e+01	-4.229463e+01
1.540000e-06	-1.411581e-06	-5.842573e-10	-9.838796e+00	-4.161477e+01
1.550000e-06	-1.366275e-06	-5.756484e-10	-9.523016e+00	-4.092245e+01
1.560000e-06	-1.320866e-06	-5.645018e-10	-9.206513e+00	-4.021714e+01
1.570000e-06	-1.275428e-06	-5.509716e-10	-8.889806e+00	-3.949828e+01
1.580000e-06	-1.229916e-06	-5.360406e-10	-8.572586e+00	-3.876530e+01
1.590000e-06	-1.184258e-06	-5.234570e-10	-8.254342e+00	-3.801764e+01
1.600000e-06	-1.138468e-06	-5.124960e-10	-7.935186e+00	-3.725471e+01
1.610000e-06	-1.092651e-06	-5.024767e-10	-7.615836e+00	-3.647594e+01
1.620000e-06	-1.046867e-06	-4.922599e-10	-7.296723e+00	-3.568074e+01
1.630000e-06	-1.001000e-06	-4.833254e-10	-6.977028e+00	-3.486854e+01
1.640000e-06	-9.549641e-07	-4.755948e-10	-6.656153e+00	-3.403877e+01
1.650000e-06	-9.088784e-07	-4.644067e-10	-6.334933e+00	-3.319089e+01
1.660000e-06	-8.628253e-07	-4.493220e-10	-6.013940e+00	-3.232437e+01
1.670000e-06	-8.166866e-07	-4.321630e-10	-5.692351e+00	-3.143868e+01
1.680000e-06	-7.704369e-07	-4.148378e-10	-5.369988e+00	-3.053335e+01
1.690000e-06	-7.241467e-07	-3.995321e-10	-5.047343e+00	-2.960793e+01
1.700000e-06	-6.778561e-07	-3.864690e-10	-4.724695e+00	-2.866199e+01
1.710000e-06	-6.315348e-07	-3.743274e-10	-4.401833e+00	-2.769518e+01
1.720000e-06	-5.852194e-07	-3.608133e-10	-4.079011e+00	-2.670714e+01
1.730000e-06	-5.388584e-07	-3.444829e-10	-3.755873e+00	-2.569761e+01
1.740000e-06	-4.922864e-07	-3.240762e-10	-3.431263e+00	-2.466636e+01
1.750000e-06	-4.456379e-07	-3.028003e-10	-3.106121e+00	-2.361320e+01
1.760000e-06	-3.991356e-07	-2.850281e-10	-2.781997e+00	-2.253804e+01
1.770000e-06	-3.526372e-07	-2.706224e-10	-2.457901e+00	-2.144082e+01
1.780000e-06	-3.061208e-07	-2.582462e-10	-2.133679e+00	-2.032156e+01
1.790000e-06	-2.595355e-07	-2.458897e-10	-1.808977e+00	-1.918035e+01
1.800000e-06	-2.127638e-07	-2.311165e-10	-1.482975e+00	-1.801736e+01
1.810000e-06	-1.660860e-07	-2.112833e-10	-1.157629e+00	-1.683280e+01
1.820000e-06	-1.194655e-07	-1.913191e-10	-8.326810e-01	-1.562699e+01
1.830000e-06	-7.282943e-08	-1.744669e-10	-5.076252e-01	-1.440032e+01
1.840000e-06	-2.623079e-08	-1.604259e-10	-1.828300e-01	-1.315323e+01
1.850000e-06	2.035885e-08	-1.476630e-10	1.419023e-01	-1.188628e+01
1.860000e-06	6.696564e-08	-1.344100e-10	4.667542e-01	-1.060006e+01
1.870000e-06	1.136798e-07	-1.180269e-10	7.923548e-01	-9.295256e+00
1.880000e-06	1.603988e-07	-9.718529e-11	1.117988e+00	-7.972635e+00
1.890000e-06	2.070368e-07	-7.394854e-11	1.443058e+00	-6.633021e+00
1.900000e-06	2.536662e-07	-5.190878e-11	1.768067e+00	-5.277313e+00
1.910000e-06	3.002585e-07	-3.284433e-11	2.092818e+00	-3.906473e+00
1.920000e-06	3.467636e-07	-1.694158e-11	2.416962e+00	-2.521527e+00
1.930000e-06	3.932665e-07	-2.838392e-12	2.741089e+00	-1.123559e+00
1.940000e-06	4.397619e-07	1.323074e-11	3.065165e+00	2.862911e-01
1.950000e-06	4.862688e-07	3.292845e-11	3.389320e+00	1.706836e+00
1.960000e-06	5.327209e-07	5.445629e-11	3.713094e+00	3.136841e+00
1.970000e-06	5.790449e-07	7.658970e-11	4.035975e+00	4.575034e+00
1.980000e-06	6.252844e-07	9.600309e-11	4.358267e+00	6.020105e+00
1.990000e-06	6.714684e-07	1.141634e-10	4.680172e+00	7.470720e+00
2.000000e-06	7.176476e-07	1.317457e-10	5.002044e+00	8.925517e+00
2.010000e-06	7.637812e-07	1.488419e-10	5.323597e+00	1.038312e+01
2.020000e-06	8.098261e-07	1.684441e-10	5.644533e+00	1.184215e+01
2.030000e-06	8.558500e-07	1.914601e-10	5.965322e+00	1.330120e+01
2.040000e-06	9.019217e-07	2.151973e-10	6.286444e+00	1.475889e+01
2.050000e-06	9.479575e-07	2.358162e-10	6.607316e+00	1.621384e+01
2.060000e-06	9.938802e-07	2.542145e-10	6.927400e+00	1.766468e+01
2.070000e-06	1.039717e-06	2.724043e-10	7.246882e+00	1.911006e+01
2.080000e-06	1.085488e-06	2.922709e-10	7.565913e+00	2.054865e+01
2.090000e-06	1.131199e-06	3.149394e-10	7.884523e+00	2.197918e+01
2.100000e-06	1.176780e-06	3.382414e-10	8.202222e+00	2.340038e+01
2.110000e-06	1.222299e-06	3.592443e-10	8.519489e+00	2.481103e+01
2.120000e-06	1.267862e-06	3.782416e-10	8.837069e+00	2.620998e+01
2.130000e-06	1.313321e-06	3.955515e-10	9.153920e+00	2.759610e+01
2.140000e-06	1.358594e-06	4.109818e-10	9.469473e+00	2.896834e+01
2.150000e-06	1.403755e-06	4.257768e-10	9.784253e+00	3.032568e+01
2.160000e-06	1.448851e-06	4.438133e-10	1.009857e+01	3.166719e+01
2.170000e-06	1.493861e-06	4.648217e-10	1.041230e+01	3.299198e+01
2.180000e-06	1.538770e-06	4.873189e-10	1.072531e+01	3.429925e+01
2.190000e-06	1.583585e-06	5.092286e-10	1.103767e+01	3.558824e+01
2.200000e-06	1.628363e-06	5.277671e-10	1.134978e+01	3.685828e+01
2.210000e-06	1.672976e-06	5.439769e-10	1.166074e+01	3.810877e+01
2.220000e-06	1.717293e-06	5.583009e-10	1.196963e+01	3.933917e+01
2.230000e-06	1.761476e-06	5.738515e-10	1.227758e+01	4.054900e+01
2.240000e-06	1.805631e-06	5.920412e-10	1.258535e+01	4.173788e+01
2.250000e-06	1.849728e-06	6.088354e-10	1.289271e+01	4.290548e+01
2.260000e-06	1.893727e-06	6.243732e-10	1.319938e+01	4.405153e+01
2.270000e-06	1.937594e-06	6.401287e-10	1.350514e+01	4.517583e+01
2.280000e-06	1.981380e-06	6.583752e-10	1.381033e+01	4.627826e+01
2.290000e-06	2.025107e-06	6.759854e-10	1.411511e+01	4.735874e+01
2.300000e-06	2.068775e-06	6.928367e-10	1.441948e+01	4.841726e+01
2.310000e-06	2.112394e-06	7.076386e-10	1.472350e+01	4.945385e+01
2.320000e-06	2.155931e-06	7.218059e-10	1.502696e+01	5.046861e+01
2.330000e-06	2.199299e-06	7.360060e-10	1.532924e+01	5.146167e+01
2.340000e-06	2.242503e-06	7.479099e-10	1.563037e+01	5.243321e+01
2.350000e-06	2.285611e-06	7.600169e-10	1.593083e+01	5.338347e+01
2.360000e-06	2.328630e-06	7.747798e-10	1.623068e+01	5.431269e+01
2.370000e-06	2.371356e-06	7.899440e-10	1.652849e+01	5.522116e+01
2.380000e-06	2.413599e-06	8.029412e-10	1.682292e+01	5.610921e+01
2.390000e-06	2.455555e-06	8.154123e-10	1.711536e+01	5.697718e+01
2.400000e-06	2.497120e-06	8.287066e-10	1.740506e+01	5.782543e+01
2.410000e-06	2.538220e-06	8.405680e-10	1.769153e+01	5.865434e+01
2.420000e-06	2.579106e-06	8.502097e-10	1.797651e+01	5.946430e+01
2.430000e-06	2.619835e-06	8.601498e-10	1.826039e+01	6.025571e+01
2.440000e-06	2.660371e-06	8.698923e-10	1.854293e+01	6.102898e+01
2.450000e-06	2.700602e-06	8.811530e-10	1.882334e+01	6.178452e+01
2.460000e-06	2.740620e-06	8.923480e-10	1.910227e+01	6.252274e+01
2.470000e-06	2.780565e-06	9.050186e-10	1.938069e+01	6.324404e+01
2.480000e-06	2.820412e-06	9.180839e-10	1.965843e+01	6.394882e+01
2.490000e-06	2.860118e-06	9.298499e-10	1.993518e+01	6.463747e+01
2.500000e-06	2.899660e-06	9.389650e-10	2.021079e+01	6.531039e+01
2.510000e-06	2.939066e-06	9.469877e-10	2.048545e+01	6.596793e+01
2.520000e-06	2.978346e-06	9.555533e-10	2.075924e+01	6.661046e+01
2.530000e-06	3.017468e-06	9.655607e-10	2.103192e+01	6.723831e+01
2.540000e-06	3.056334e-06	9.757397e-10	2.130282e+01	6.785183e+01
2.550000e-06	3.094923e-06	9.848975e-10	2.157179e+01	6.845132e+01
2.560000e-06	3.133281e-06	9.927363e-10	2.183914e+01	6.903709e+01
2.570000e-06	3.171425e-06	1.000113e-09	2.210501e+01	6.960942e+01
2.580000e-06	3.209389e-06	1.006718e-09	2.236962e+01	7.016857e+01
2.590000e-06	3.247169e-06	1.013541e-09	2.263295e+01	7.071481e+01
2.600000e-06	3.284707e-06	1.022308e-09	2.289459e+01	7.124837e+01
2.610000e-06	3.322014e-06	1.029107e-09	2.315462e+01	7.176949e+01
2.620000e-06	3.359049e-06	1.033376e-09	2.341276e+01	7.227837e+01
2.630000e-06	3.395755e-06	1.037997e-09	2.366860e+01	7.277522e+01
2.640000e-06	3.432264e-06	1.044305e-09	2.392307e+01	7.326023e+01
2.650000e-06	3.468611e-06	1.051878e-09	2.417641e+01	7.373360e+01
2.660000e-06	3.504741e-06	1.059554e-09	2.442824e+01	7.419551e+01
2.670000e-06	3.540707e-06	1.065143e-09	2.467893e+01	7.464611e+01
2.680000e-06	3.576530e-06	1.069912e-09	2.492861e+01	7.508560e+01
2.690000e-06	3.612208e-06	1.076763e-09	2.517729e+01	7.551412e+01
2.700000e-06	3.647777e-06	1.084850e-09	2.542521e+01	7.593185e+01
2.710000e-06	3.683188e-06	1.092755e-09	2.567202e+01	7.633895e+01
2.720000e-06	3.718339e-06	1.101016e-09	2.591703e+01	7.673560e+01
2.730000e-06	3.753218e-06	1.108787e-09	2.616014e+01	7.712194e+01
2.740000e-06	3.787675e-06	1.113369e-09	2.640030e+01	7.749817e+01
2.750000e-06	3.821552e-06	1.115043e-09	2.663643e+01	7.786444e+01
2.760000e-06	3.854933e-06	1.116442e-09	2.686910e+01	7.822094e+01
2.770000e-06	3.887852e-06	1.119037e-09	2.709854e+01	7.856786e+01
2.780000e-06	3.920360e-06	1.125161e-09	2.732513e+01	7.890538e+01
2.790000e-06	3.952561e-06	1.132986e-09	2.754957e+01	7.923371e+01
2.800000e-06	3.984530e-06	1.140327e-09	2.777239e+01	7.955303e+01
2.810000e-06	4.016315e-06	1.146740e-09	2.799394e+01	7.986356e+01
2.820000e-06	4.047967e-06	1.151548e-09	2.821456e+01	8.016552e+01
2.830000e-06	4.079536e-06	1.156175e-09	2.843459e+01	8.045911e+01
2.840000e-06	4.110895e-06	1.160773e-09	2.865316e+01	8.074457e+01
2.850000e-06	4.141871e-06	1.165097e-09	2.886907e+01	8.102211e+01
2.860000e-06	4.172537e-06	1.170648e-09	2.908282e+01	8.129196e+01
2.870000e-06	4.202927e-06	1.175587e-09	2.929463e+01	8.155436e+01
2.880000e-06	4.232987e-06	1.181518e-09	2.950416e+01	8.180954e+01
2.890000e-06	4.262727e-06	1.187798e-09	2.971144e+01	8.205772e+01
2.900000e-06	4.292168e-06	1.192969e-09	2.991665e+01	8.229914e+01
