# Temperatura_=_-1.63
# Concentracion g/m^3_=_1620.0
# C_Vs_to_Am_M_A/Vsm_=_65563218390.804596
# pendiente_HvsI_1/m_=_3716.3
# ordenada_HvsI_A/m_=_1297.0
# frecuencia_Hz_=_135106.15010145426

Tiempo_(s)	Campo_(V.s)	Magnetizacion_(V.s)	Campo_(kA/m)	Magnetizacion_(A/m)
0.000000e+00	-5.500115e-06	-9.809517e-10	-3.837393e+01	-6.574060e+01
1.000000e-08	-5.500247e-06	-9.771296e-10	-3.837485e+01	-6.569898e+01
2.000000e-08	-5.500091e-06	-9.754340e-10	-3.837376e+01	-6.565659e+01
3.000000e-08	-5.499484e-06	-9.730631e-10	-3.836952e+01	-6.561329e+01
4.000000e-08	-5.498250e-06	-9.641597e-10	-3.836092e+01	-6.556890e+01
5.000000e-08	-5.496441e-06	-9.483306e-10	-3.834829e+01	-6.552327e+01
6.000000e-08	-5.494054e-06	-9.489172e-10	-3.833164e+01	-6.547621e+01
7.000000e-08	-5.491095e-06	-9.735415e-10	-3.831100e+01	-6.542755e+01
8.000000e-08	-5.487696e-06	-1.006181e-09	-3.828728e+01	-6.537711e+01
9.000000e-08	-5.483844e-06	-1.038819e-09	-3.826041e+01	-6.532472e+01
1.000000e-07	-5.479641e-06	-1.032561e-09	-3.823108e+01	-6.527018e+01
1.100000e-07	-5.475214e-06	-9.207910e-10	-3.820019e+01	-6.521335e+01
1.200000e-07	-5.470628e-06	-8.777969e-10	-3.816820e+01	-6.515404e+01
1.300000e-07	-5.465734e-06	-9.441333e-10	-3.813406e+01	-6.509209e+01
1.400000e-07	-5.460339e-06	-1.005947e-09	-3.809642e+01	-6.502737e+01
1.500000e-07	-5.454536e-06	-9.404686e-10	-3.805593e+01	-6.495972e+01
1.600000e-07	-5.448438e-06	-8.784666e-10	-3.801338e+01	-6.488902e+01
1.700000e-07	-5.441915e-06	-9.785369e-10	-3.796787e+01	-6.481515e+01
1.800000e-07	-5.434861e-06	-1.059836e-09	-3.791866e+01	-6.473801e+01
1.900000e-07	-5.427509e-06	-9.842265e-10	-3.786736e+01	-6.465750e+01
2.000000e-07	-5.419966e-06	-8.831674e-10	-3.781473e+01	-6.457356e+01
2.100000e-07	-5.412108e-06	-9.274654e-10	-3.775991e+01	-6.448612e+01
2.200000e-07	-5.403965e-06	-1.008249e-09	-3.770310e+01	-6.439514e+01
2.300000e-07	-5.395551e-06	-9.944244e-10	-3.764439e+01	-6.430060e+01
2.400000e-07	-5.386604e-06	-9.338881e-10	-3.758197e+01	-6.420249e+01
2.500000e-07	-5.376900e-06	-9.467546e-10	-3.751427e+01	-6.410082e+01
2.600000e-07	-5.366465e-06	-9.739248e-10	-3.744146e+01	-6.399562e+01
2.700000e-07	-5.355544e-06	-9.400523e-10	-3.736527e+01	-6.388691e+01
2.800000e-07	-5.344257e-06	-9.112819e-10	-3.728652e+01	-6.377476e+01
2.900000e-07	-5.332615e-06	-9.447507e-10	-3.720529e+01	-6.365925e+01
3.000000e-07	-5.320638e-06	-9.545433e-10	-3.712173e+01	-6.354045e+01
3.100000e-07	-5.308251e-06	-9.203532e-10	-3.703530e+01	-6.341846e+01
3.200000e-07	-5.295339e-06	-9.027580e-10	-3.694522e+01	-6.329340e+01
3.300000e-07	-5.282003e-06	-9.302938e-10	-3.685218e+01	-6.316539e+01
3.400000e-07	-5.268312e-06	-9.459986e-10	-3.675665e+01	-6.303455e+01
3.500000e-07	-5.254218e-06	-9.278127e-10	-3.665832e+01	-6.290102e+01
3.600000e-07	-5.239596e-06	-9.088875e-10	-3.655630e+01	-6.276495e+01
3.700000e-07	-5.224410e-06	-9.363504e-10	-3.645035e+01	-6.262649e+01
3.800000e-07	-5.208774e-06	-9.515689e-10	-3.634126e+01	-6.248580e+01
3.900000e-07	-5.192660e-06	-9.152341e-10	-3.622883e+01	-6.234302e+01
4.000000e-07	-5.176154e-06	-9.118738e-10	-3.611367e+01	-6.219832e+01
4.100000e-07	-5.159341e-06	-9.507213e-10	-3.599637e+01	-6.205185e+01
4.200000e-07	-5.142211e-06	-9.246444e-10	-3.587686e+01	-6.190376e+01
4.300000e-07	-5.124726e-06	-8.852891e-10	-3.575486e+01	-6.175420e+01
4.400000e-07	-5.106915e-06	-9.447267e-10	-3.563060e+01	-6.160331e+01
4.500000e-07	-5.088779e-06	-9.656487e-10	-3.550407e+01	-6.145123e+01
4.600000e-07	-5.070150e-06	-8.880998e-10	-3.537409e+01	-6.129808e+01
4.700000e-07	-5.051089e-06	-8.937899e-10	-3.524111e+01	-6.114398e+01
4.800000e-07	-5.031760e-06	-9.610567e-10	-3.510625e+01	-6.098903e+01
4.900000e-07	-5.012252e-06	-9.169144e-10	-3.497015e+01	-6.083334e+01
5.000000e-07	-4.992571e-06	-8.787653e-10	-3.483283e+01	-6.067699e+01
5.100000e-07	-4.972638e-06	-9.385554e-10	-3.469376e+01	-6.052004e+01
5.200000e-07	-4.952436e-06	-9.305299e-10	-3.455281e+01	-6.036255e+01
5.300000e-07	-4.931815e-06	-8.741408e-10	-3.440894e+01	-6.020456e+01
5.400000e-07	-4.910724e-06	-9.254400e-10	-3.426179e+01	-6.004610e+01
5.500000e-07	-4.889305e-06	-9.468377e-10	-3.411235e+01	-5.988720e+01
5.600000e-07	-4.867590e-06	-8.672247e-10	-3.396084e+01	-5.972783e+01
5.700000e-07	-4.845559e-06	-8.747940e-10	-3.380713e+01	-5.956800e+01
5.800000e-07	-4.823171e-06	-9.381504e-10	-3.365093e+01	-5.940768e+01
5.900000e-07	-4.800361e-06	-8.944414e-10	-3.349179e+01	-5.924682e+01
6.000000e-07	-4.777200e-06	-8.630340e-10	-3.333020e+01	-5.908536e+01
6.100000e-07	-4.753832e-06	-9.091589e-10	-3.316716e+01	-5.892326e+01
6.200000e-07	-4.730237e-06	-8.938165e-10	-3.300254e+01	-5.876041e+01
6.300000e-07	-4.706435e-06	-8.518784e-10	-3.283648e+01	-5.859676e+01
6.400000e-07	-4.682402e-06	-8.825555e-10	-3.266880e+01	-5.843218e+01
6.500000e-07	-4.657976e-06	-8.942647e-10	-3.249838e+01	-5.826659e+01
6.600000e-07	-4.633055e-06	-8.634091e-10	-3.232451e+01	-5.809987e+01
6.700000e-07	-4.607521e-06	-8.742311e-10	-3.214636e+01	-5.793191e+01
6.800000e-07	-4.581406e-06	-8.922162e-10	-3.196416e+01	-5.776258e+01
6.900000e-07	-4.554844e-06	-8.704043e-10	-3.177884e+01	-5.759176e+01
7.000000e-07	-4.527874e-06	-8.678018e-10	-3.159067e+01	-5.741932e+01
7.100000e-07	-4.500528e-06	-8.822369e-10	-3.139988e+01	-5.724514e+01
7.200000e-07	-4.472995e-06	-8.682501e-10	-3.120778e+01	-5.706909e+01
7.300000e-07	-4.445337e-06	-8.556998e-10	-3.101481e+01	-5.689104e+01
7.400000e-07	-4.417490e-06	-8.621650e-10	-3.082052e+01	-5.671087e+01
7.500000e-07	-4.389443e-06	-8.568547e-10	-3.062484e+01	-5.652847e+01
7.600000e-07	-4.361102e-06	-8.445584e-10	-3.042711e+01	-5.634372e+01
7.700000e-07	-4.332373e-06	-8.443594e-10	-3.022667e+01	-5.615650e+01
7.800000e-07	-4.303286e-06	-8.417860e-10	-3.002374e+01	-5.596672e+01
7.900000e-07	-4.273927e-06	-8.382412e-10	-2.981890e+01	-5.577429e+01
8.000000e-07	-4.244258e-06	-8.395020e-10	-2.961190e+01	-5.557910e+01
8.100000e-07	-4.214228e-06	-8.330578e-10	-2.940238e+01	-5.538109e+01
8.200000e-07	-4.183981e-06	-8.213977e-10	-2.919135e+01	-5.518018e+01
8.300000e-07	-4.153472e-06	-8.231842e-10	-2.897849e+01	-5.497631e+01
8.400000e-07	-4.122567e-06	-8.252913e-10	-2.876287e+01	-5.476943e+01
8.500000e-07	-4.091408e-06	-8.151234e-10	-2.854548e+01	-5.455949e+01
8.600000e-07	-4.060085e-06	-8.099760e-10	-2.832693e+01	-5.434645e+01
8.700000e-07	-4.028615e-06	-8.132601e-10	-2.810737e+01	-5.413028e+01
8.800000e-07	-3.997015e-06	-8.073739e-10	-2.788690e+01	-5.391098e+01
8.900000e-07	-3.965203e-06	-8.017137e-10	-2.766495e+01	-5.368852e+01
9.000000e-07	-3.933152e-06	-8.024276e-10	-2.744134e+01	-5.346290e+01
9.100000e-07	-3.900792e-06	-7.963776e-10	-2.721556e+01	-5.323413e+01
9.200000e-07	-3.867913e-06	-7.849584e-10	-2.698617e+01	-5.300222e+01
9.300000e-07	-3.834567e-06	-7.854292e-10	-2.675351e+01	-5.276717e+01
9.400000e-07	-3.800817e-06	-7.866821e-10	-2.651804e+01	-5.252901e+01
9.500000e-07	-3.766703e-06	-7.782489e-10	-2.628003e+01	-5.228776e+01
9.600000e-07	-3.732240e-06	-7.730037e-10	-2.603958e+01	-5.204344e+01
9.700000e-07	-3.697343e-06	-7.705635e-10	-2.579611e+01	-5.179609e+01
9.800000e-07	-3.662148e-06	-7.621003e-10	-2.555056e+01	-5.154574e+01
9.900000e-07	-3.626782e-06	-7.571797e-10	-2.530381e+01	-5.129240e+01
1.000000e-06	-3.591246e-06	-7.587926e-10	-2.505588e+01	-5.103612e+01
1.010000e-06	-3.555578e-06	-7.563278e-10	-2.480703e+01	-5.077691e+01
1.020000e-06	-3.519780e-06	-7.503329e-10	-2.455726e+01	-5.051481e+01
1.030000e-06	-3.483836e-06	-7.488501e-10	-2.430649e+01	-5.024983e+01
1.040000e-06	-3.447707e-06	-7.466369e-10	-2.405442e+01	-4.998198e+01
1.050000e-06	-3.411236e-06	-7.368233e-10	-2.379996e+01	-4.971129e+01
1.060000e-06	-3.374478e-06	-7.297328e-10	-2.354350e+01	-4.943776e+01
1.070000e-06	-3.337485e-06	-7.254952e-10	-2.328541e+01	-4.916138e+01
1.080000e-06	-3.300200e-06	-7.194467e-10	-2.302527e+01	-4.888216e+01
1.090000e-06	-3.262685e-06	-7.165213e-10	-2.276353e+01	-4.860007e+01
1.100000e-06	-3.224989e-06	-7.149262e-10	-2.250053e+01	-4.831510e+01
1.110000e-06	-3.187167e-06	-7.085284e-10	-2.223665e+01	-4.802722e+01
1.120000e-06	-3.149039e-06	-6.996576e-10	-2.197063e+01	-4.773638e+01
1.130000e-06	-3.110613e-06	-6.935990e-10	-2.170254e+01	-4.744254e+01
1.140000e-06	-3.072003e-06	-6.872719e-10	-2.143316e+01	-4.714565e+01
1.150000e-06	-3.033144e-06	-6.798116e-10	-2.116204e+01	-4.684564e+01
1.160000e-06	-2.994054e-06	-6.778951e-10	-2.088931e+01	-4.654244e+01
1.170000e-06	-2.954747e-06	-6.777819e-10	-2.061507e+01	-4.623596e+01
1.180000e-06	-2.915320e-06	-6.739132e-10	-2.033999e+01	-4.592612e+01
1.190000e-06	-2.875846e-06	-6.682435e-10	-2.006458e+01	-4.561282e+01
1.200000e-06	-2.836258e-06	-6.619173e-10	-1.978838e+01	-4.529595e+01
1.210000e-06	-2.796535e-06	-6.527960e-10	-1.951123e+01	-4.497540e+01
1.220000e-06	-2.756707e-06	-6.441889e-10	-1.923336e+01	-4.465103e+01
1.230000e-06	-2.716767e-06	-6.381400e-10	-1.895470e+01	-4.432273e+01
1.240000e-06	-2.676658e-06	-6.320447e-10	-1.867486e+01	-4.399036e+01
1.250000e-06	-2.636290e-06	-6.261700e-10	-1.839321e+01	-4.365377e+01
1.260000e-06	-2.595674e-06	-6.204174e-10	-1.810984e+01	-4.331281e+01
1.270000e-06	-2.554820e-06	-6.138653e-10	-1.782481e+01	-4.296732e+01
1.280000e-06	-2.513693e-06	-6.091917e-10	-1.753787e+01	-4.261715e+01
1.290000e-06	-2.472283e-06	-6.048377e-10	-1.724895e+01	-4.226212e+01
1.300000e-06	-2.430548e-06	-5.989171e-10	-1.695777e+01	-4.190206e+01
1.310000e-06	-2.388481e-06	-5.902558e-10	-1.666427e+01	-4.153679e+01
1.320000e-06	-2.346107e-06	-5.813329e-10	-1.636863e+01	-4.116614e+01
1.330000e-06	-2.303372e-06	-5.741038e-10	-1.607047e+01	-4.078991e+01
1.340000e-06	-2.260334e-06	-5.682035e-10	-1.577020e+01	-4.040791e+01
1.350000e-06	-2.217169e-06	-5.620492e-10	-1.546904e+01	-4.001995e+01
1.360000e-06	-2.173846e-06	-5.551901e-10	-1.516678e+01	-3.962582e+01
1.370000e-06	-2.130345e-06	-5.503128e-10	-1.486327e+01	-3.922532e+01
1.380000e-06	-2.086727e-06	-5.468873e-10	-1.455895e+01	-3.881825e+01
1.390000e-06	-2.043059e-06	-5.405078e-10	-1.425428e+01	-3.840439e+01
1.400000e-06	-1.999393e-06	-5.318333e-10	-1.394963e+01	-3.798353e+01
1.410000e-06	-1.955676e-06	-5.248640e-10	-1.364462e+01	-3.755544e+01
1.420000e-06	-1.911850e-06	-5.182736e-10	-1.333885e+01	-3.711990e+01
1.430000e-06	-1.867933e-06	-5.125786e-10	-1.303244e+01	-3.667668e+01
1.440000e-06	-1.823948e-06	-5.074642e-10	-1.272556e+01	-3.622556e+01
1.450000e-06	-1.779849e-06	-4.999333e-10	-1.241789e+01	-3.576628e+01
1.460000e-06	-1.735612e-06	-4.902419e-10	-1.210925e+01	-3.529862e+01
1.470000e-06	-1.691235e-06	-4.798107e-10	-1.179963e+01	-3.482233e+01
1.480000e-06	-1.646719e-06	-4.719261e-10	-1.148905e+01	-3.433715e+01
1.490000e-06	-1.602018e-06	-4.653619e-10	-1.117717e+01	-3.384285e+01
1.500000e-06	-1.557175e-06	-4.599677e-10	-1.086431e+01	-3.333915e+01
1.510000e-06	-1.512321e-06	-4.536415e-10	-1.055136e+01	-3.282580e+01
1.520000e-06	-1.467361e-06	-4.446856e-10	-1.023768e+01	-3.230253e+01
1.530000e-06	-1.422279e-06	-4.328842e-10	-9.923143e+00	-3.176909e+01
1.540000e-06	-1.377040e-06	-4.200345e-10	-9.607514e+00	-3.122520e+01
1.550000e-06	-1.331644e-06	-4.105411e-10	-9.290789e+00	-3.067058e+01
1.560000e-06	-1.286247e-06	-4.016321e-10	-8.974055e+00	-3.010498e+01
1.570000e-06	-1.240758e-06	-3.939377e-10	-8.656684e+00	-2.952811e+01
1.580000e-06	-1.195180e-06	-3.902543e-10	-8.338691e+00	-2.893971e+01
1.590000e-06	-1.149573e-06	-3.858875e-10	-8.020492e+00	-2.833951e+01
1.600000e-06	-1.103888e-06	-3.775362e-10	-7.701752e+00	-2.772723e+01
1.610000e-06	-1.058079e-06	-3.664100e-10	-7.382144e+00	-2.710262e+01
1.620000e-06	-1.012111e-06	-3.571228e-10	-7.061430e+00	-2.646542e+01
1.630000e-06	-9.660907e-07	-3.522612e-10	-6.740349e+00	-2.581537e+01
1.640000e-06	-9.201260e-07	-3.481987e-10	-6.419656e+00	-2.515223e+01
1.650000e-06	-8.741198e-07	-3.418045e-10	-6.098674e+00	-2.447576e+01
1.660000e-06	-8.279488e-07	-3.312702e-10	-5.776542e+00	-2.378575e+01
1.670000e-06	-7.816189e-07	-3.190632e-10	-5.453302e+00	-2.308198e+01
1.680000e-06	-7.352447e-07	-3.059371e-10	-5.129752e+00	-2.236425e+01
1.690000e-06	-6.889076e-07	-2.937159e-10	-4.806462e+00	-2.163238e+01
1.700000e-06	-6.426183e-07	-2.827113e-10	-4.483504e+00	-2.088622e+01
1.710000e-06	-5.963132e-07	-2.715441e-10	-4.160437e+00	-2.012562e+01
1.720000e-06	-5.499585e-07	-2.587887e-10	-3.837023e+00	-1.935047e+01
1.730000e-06	-5.035827e-07	-2.438699e-10	-3.513462e+00	-1.856066e+01
1.740000e-06	-4.571279e-07	-2.279197e-10	-3.189350e+00	-1.775613e+01
1.750000e-06	-4.105781e-07	-2.150519e-10	-2.864576e+00	-1.693684e+01
1.760000e-06	-3.640208e-07	-2.045088e-10	-2.539749e+00	-1.610277e+01
1.770000e-06	-3.174110e-07	-1.942879e-10	-2.214555e+00	-1.525395e+01
1.780000e-06	-2.707404e-07	-1.833153e-10	-1.888937e+00	-1.439042e+01
1.790000e-06	-2.240412e-07	-1.712964e-10	-1.563120e+00	-1.351228e+01
1.800000e-06	-1.772756e-07	-1.589646e-10	-1.236840e+00	-1.261964e+01
1.810000e-06	-1.305923e-07	-1.452275e-10	-9.111333e-01	-1.171267e+01
1.820000e-06	-8.403088e-08	-1.305005e-10	-5.862778e-01	-1.079156e+01
1.830000e-06	-3.739200e-08	-1.174756e-10	-2.608814e-01	-9.856542e+00
1.840000e-06	9.360916e-09	-1.040483e-10	6.531047e-02	-8.907897e+00
1.850000e-06	5.603132e-08	-9.011673e-11	3.909267e-01	-7.945937e+00
1.860000e-06	1.025410e-07	-7.758930e-11	7.154215e-01	-6.971018e+00
1.870000e-06	1.490972e-07	-6.319027e-11	1.040241e+00	-5.983535e+00
1.880000e-06	1.957824e-07	-4.662041e-11	1.365961e+00	-4.983924e+00
1.890000e-06	2.424350e-07	-2.967722e-11	1.691453e+00	-3.972661e+00
1.900000e-06	2.890049e-07	-1.337799e-11	2.016368e+00	-2.950259e+00
1.910000e-06	3.356079e-07	2.939819e-12	2.341514e+00	-1.917272e+00
1.920000e-06	3.822487e-07	1.570686e-11	2.666923e+00	-8.742899e-01
1.930000e-06	4.287632e-07	2.530214e-11	2.991452e+00	1.780607e-01
1.940000e-06	4.751815e-07	3.729153e-11	3.315309e+00	1.239119e+00
1.950000e-06	5.216387e-07	5.243054e-11	3.639438e+00	2.308193e+00
1.960000e-06	5.681232e-07	6.910279e-11	3.963757e+00	3.384557e+00
1.970000e-06	6.145799e-07	8.589073e-11	4.287882e+00	4.467458e+00
1.980000e-06	6.609053e-07	1.021534e-10	4.611091e+00	5.556119e+00
1.990000e-06	7.070740e-07	1.174080e-10	4.933207e+00	6.649736e+00
2.000000e-06	7.531436e-07	1.299497e-10	5.254632e+00	7.747487e+00
2.010000e-06	7.992186e-07	1.445023e-10	5.576094e+00	8.848528e+00
2.020000e-06	8.453588e-07	1.629339e-10	5.898011e+00	9.952004e+00
2.030000e-06	8.914877e-07	1.816720e-10	6.219849e+00	1.105704e+01
2.040000e-06	9.374632e-07	1.983689e-10	6.540617e+00	1.216277e+01
2.050000e-06	9.832763e-07	2.138931e-10	6.860252e+00	1.326830e+01
2.060000e-06	1.029011e-06	2.283305e-10	7.179340e+00	1.437275e+01
2.070000e-06	1.074685e-06	2.422922e-10	7.498006e+00	1.547523e+01
2.080000e-06	1.120345e-06	2.571949e-10	7.816568e+00	1.657485e+01
2.090000e-06	1.165988e-06	2.742648e-10	8.135022e+00	1.767075e+01
2.100000e-06	1.211577e-06	2.915903e-10	8.453092e+00	1.876205e+01
2.110000e-06	1.257041e-06	3.050965e-10	8.770287e+00	1.984792e+01
2.120000e-06	1.302374e-06	3.175067e-10	9.086575e+00	2.092750e+01
2.130000e-06	1.347684e-06	3.327158e-10	9.402698e+00	2.199999e+01
2.140000e-06	1.392857e-06	3.487241e-10	9.717871e+00	2.306459e+01
2.150000e-06	1.437831e-06	3.631048e-10	1.003165e+01	2.412054e+01
2.160000e-06	1.482718e-06	3.766704e-10	1.034482e+01	2.516708e+01
2.170000e-06	1.527545e-06	3.912876e-10	1.065758e+01	2.620351e+01
2.180000e-06	1.572268e-06	4.080833e-10	1.096961e+01	2.722915e+01
2.190000e-06	1.616889e-06	4.235596e-10	1.128093e+01	2.824335e+01
2.200000e-06	1.661414e-06	4.369379e-10	1.159157e+01	2.924549e+01
2.210000e-06	1.705799e-06	4.486272e-10	1.190125e+01	3.023500e+01
2.220000e-06	1.750026e-06	4.616736e-10	1.220982e+01	3.121134e+01
2.230000e-06	1.794103e-06	4.759726e-10	1.251733e+01	3.217400e+01
2.240000e-06	1.838103e-06	4.877699e-10	1.282432e+01	3.312253e+01
2.250000e-06	1.881995e-06	4.983793e-10	1.313055e+01	3.405650e+01
2.260000e-06	1.925755e-06	5.100082e-10	1.343586e+01	3.497553e+01
2.270000e-06	1.969473e-06	5.249881e-10	1.374088e+01	3.587928e+01
2.280000e-06	2.013131e-06	5.405394e-10	1.404548e+01	3.676743e+01
2.290000e-06	2.056696e-06	5.560554e-10	1.434943e+01	3.763974e+01
2.300000e-06	2.100241e-06	5.696235e-10	1.465324e+01	3.849596e+01
2.310000e-06	2.143694e-06	5.792046e-10	1.495641e+01	3.933592e+01
2.320000e-06	2.187021e-06	5.876303e-10	1.525870e+01	4.015947e+01
2.330000e-06	2.230272e-06	5.972728e-10	1.556046e+01	4.096647e+01
2.340000e-06	2.273345e-06	6.101670e-10	1.586098e+01	4.175687e+01
2.350000e-06	2.316159e-06	6.266658e-10	1.615968e+01	4.253059e+01
2.360000e-06	2.358710e-06	6.444851e-10	1.645656e+01	4.328764e+01
2.370000e-06	2.400998e-06	6.572861e-10	1.675160e+01	4.402802e+01
2.380000e-06	2.442938e-06	6.647125e-10	1.704421e+01	4.475176e+01
2.390000e-06	2.484504e-06	6.701243e-10	1.733422e+01	4.545894e+01
2.400000e-06	2.525816e-06	6.751675e-10	1.762245e+01	4.614964e+01
2.410000e-06	2.566916e-06	6.818900e-10	1.790920e+01	4.682397e+01
2.420000e-06	2.607687e-06	6.916879e-10	1.819366e+01	4.748208e+01
2.430000e-06	2.648155e-06	7.037380e-10	1.847600e+01	4.812410e+01
2.440000e-06	2.688470e-06	7.143545e-10	1.875727e+01	4.875020e+01
2.450000e-06	2.728575e-06	7.215257e-10	1.903708e+01	4.936057e+01
2.460000e-06	2.768489e-06	7.285958e-10	1.931556e+01	4.995540e+01
2.470000e-06	2.808299e-06	7.368357e-10	1.959331e+01	5.053490e+01
2.480000e-06	2.847996e-06	7.454256e-10	1.987028e+01	5.109928e+01
2.490000e-06	2.887580e-06	7.536025e-10	2.014645e+01	5.164876e+01
2.500000e-06	2.927056e-06	7.600941e-10	2.042187e+01	5.218359e+01
2.510000e-06	2.966337e-06	7.654301e-10	2.069593e+01	5.270399e+01
2.520000e-06	3.005364e-06	7.737079e-10	2.096822e+01	5.321020e+01
2.530000e-06	3.044155e-06	7.814457e-10	2.123887e+01	5.370247e+01
2.540000e-06	3.082756e-06	7.860439e-10	2.150818e+01	5.418104e+01
2.550000e-06	3.121130e-06	7.904646e-10	2.177591e+01	5.464616e+01
2.560000e-06	3.159222e-06	7.962453e-10	2.204168e+01	5.509808e+01
2.570000e-06	3.197104e-06	8.018428e-10	2.230598e+01	5.553705e+01
2.580000e-06	3.234868e-06	8.059743e-10	2.256945e+01	5.596331e+01
2.590000e-06	3.272517e-06	8.109068e-10	2.283213e+01	5.637711e+01
2.600000e-06	3.309989e-06	8.171010e-10	2.309357e+01	5.677870e+01
2.610000e-06	3.347194e-06	8.229100e-10	2.335315e+01	5.716832e+01
2.620000e-06	3.384034e-06	8.255503e-10	2.361018e+01	5.754621e+01
2.630000e-06	3.420534e-06	8.272392e-10	2.386483e+01	5.791262e+01
2.640000e-06	3.456790e-06	8.318239e-10	2.411779e+01	5.826779e+01
2.650000e-06	3.492864e-06	8.393665e-10	2.436947e+01	5.861195e+01
2.660000e-06	3.528784e-06	8.461045e-10	2.462008e+01	5.894534e+01
2.670000e-06	3.564553e-06	8.497853e-10	2.486964e+01	5.926820e+01
2.680000e-06	3.600191e-06	8.541737e-10	2.511829e+01	5.958077e+01
2.690000e-06	3.635724e-06	8.604039e-10	2.536620e+01	5.988327e+01
2.700000e-06	3.671102e-06	8.660374e-10	2.561303e+01	6.017596e+01
2.710000e-06	3.706216e-06	8.717756e-10	2.585801e+01	6.045906e+01
2.720000e-06	3.740968e-06	8.771606e-10	2.610048e+01	6.073280e+01
2.730000e-06	3.775333e-06	8.826429e-10	2.634024e+01	6.099743e+01
2.740000e-06	3.809329e-06	8.860841e-10	2.657743e+01	6.125318e+01
2.750000e-06	3.842901e-06	8.886683e-10	2.681166e+01	6.150028e+01
2.760000e-06	3.876002e-06	8.913693e-10	2.704260e+01	6.173898e+01
2.770000e-06	3.908679e-06	8.960480e-10	2.727058e+01	6.196950e+01
2.780000e-06	3.940965e-06	9.032854e-10	2.749584e+01	6.219210e+01
2.790000e-06	3.972963e-06	9.102525e-10	2.771909e+01	6.240700e+01
2.800000e-06	4.004785e-06	9.158287e-10	2.794111e+01	6.261444e+01
2.810000e-06	4.036456e-06	9.185200e-10	2.816208e+01	6.281466e+01
2.820000e-06	4.067986e-06	9.182462e-10	2.838206e+01	6.300790e+01
2.830000e-06	4.099311e-06	9.175976e-10	2.860062e+01	6.319440e+01
2.840000e-06	4.130384e-06	9.207571e-10	2.881741e+01	6.337437e+01
2.850000e-06	4.161119e-06	9.275513e-10	2.903184e+01	6.354807e+01
2.860000e-06	4.191457e-06	9.330919e-10	2.924351e+01	6.371571e+01
2.870000e-06	4.221496e-06	9.361750e-10	2.945309e+01	6.387752e+01
2.880000e-06	4.251302e-06	9.373252e-10	2.966105e+01	6.403372e+01
2.890000e-06	4.280878e-06	9.373749e-10	2.986740e+01	6.418453e+01
2.900000e-06	4.310158e-06	9.385179e-10	3.007168e+01	6.433016e+01
2.910000e-06	4.339103e-06	9.405810e-10	3.027363e+01	6.447080e+01
