# Temperatura_=_7.89
# Concentracion g/m^3_=_1620.0
# C_Vs_to_Am_M_A/Vsm_=_65563218390.804596
# pendiente_HvsI_1/m_=_3716.3
# ordenada_HvsI_A/m_=_1297.0
# frecuencia_Hz_=_135091.31116759792

Tiempo_(s)	Campo_(V.s)	Magnetizacion_(V.s)	Campo_(kA/m)	Magnetizacion_(A/m)
0.000000e+00	-5.530364e-06	-1.294921e-09	-3.837207e+01	-8.491902e+01
1.000000e-08	-5.530484e-06	-1.292563e-09	-3.837291e+01	-8.490983e+01
2.000000e-08	-5.530199e-06	-1.291828e-09	-3.837093e+01	-8.489935e+01
3.000000e-08	-5.529418e-06	-1.291467e-09	-3.836551e+01	-8.488751e+01
4.000000e-08	-5.528115e-06	-1.286414e-09	-3.835647e+01	-8.487425e+01
5.000000e-08	-5.526232e-06	-1.276934e-09	-3.834340e+01	-8.485951e+01
6.000000e-08	-5.523740e-06	-1.287704e-09	-3.832611e+01	-8.484320e+01
7.000000e-08	-5.520723e-06	-1.312651e-09	-3.830518e+01	-8.482523e+01
8.000000e-08	-5.517283e-06	-1.310785e-09	-3.828131e+01	-8.480549e+01
9.000000e-08	-5.513443e-06	-1.328896e-09	-3.825467e+01	-8.478388e+01
1.000000e-07	-5.509159e-06	-1.340297e-09	-3.822495e+01	-8.476027e+01
1.100000e-07	-5.504587e-06	-1.294395e-09	-3.819322e+01	-8.473454e+01
1.200000e-07	-5.499873e-06	-1.186839e-09	-3.816051e+01	-8.470655e+01
1.300000e-07	-5.494907e-06	-1.229102e-09	-3.812606e+01	-8.467617e+01
1.400000e-07	-5.489496e-06	-1.317165e-09	-3.808851e+01	-8.464324e+01
1.500000e-07	-5.483706e-06	-1.314624e-09	-3.804834e+01	-8.460763e+01
1.600000e-07	-5.477647e-06	-1.232613e-09	-3.800630e+01	-8.456918e+01
1.700000e-07	-5.471128e-06	-1.261675e-09	-3.796107e+01	-8.452773e+01
1.800000e-07	-5.464173e-06	-1.359364e-09	-3.791281e+01	-8.448315e+01
1.900000e-07	-5.456944e-06	-1.321765e-09	-3.786265e+01	-8.443526e+01
2.000000e-07	-5.449408e-06	-1.252846e-09	-3.781037e+01	-8.438393e+01
2.100000e-07	-5.441591e-06	-1.268827e-09	-3.775613e+01	-8.432899e+01
2.200000e-07	-5.433462e-06	-1.353185e-09	-3.769973e+01	-8.427031e+01
2.300000e-07	-5.424973e-06	-1.334171e-09	-3.764083e+01	-8.420773e+01
2.400000e-07	-5.415882e-06	-1.288116e-09	-3.757775e+01	-8.414112e+01
2.500000e-07	-5.406006e-06	-1.263989e-09	-3.750923e+01	-8.407035e+01
2.600000e-07	-5.395420e-06	-1.301681e-09	-3.743577e+01	-8.399528e+01
2.700000e-07	-5.384263e-06	-1.288310e-09	-3.735837e+01	-8.391579e+01
2.800000e-07	-5.372771e-06	-1.287791e-09	-3.727863e+01	-8.383176e+01
2.900000e-07	-5.360994e-06	-1.287218e-09	-3.719691e+01	-8.374309e+01
3.000000e-07	-5.348895e-06	-1.299631e-09	-3.711297e+01	-8.364967e+01
3.100000e-07	-5.336332e-06	-1.288915e-09	-3.702580e+01	-8.355141e+01
3.200000e-07	-5.323347e-06	-1.283548e-09	-3.693570e+01	-8.344823e+01
3.300000e-07	-5.309998e-06	-1.268053e-09	-3.684308e+01	-8.334005e+01
3.400000e-07	-5.296265e-06	-1.285865e-09	-3.674779e+01	-8.322680e+01
3.500000e-07	-5.282068e-06	-1.297592e-09	-3.664929e+01	-8.310843e+01
3.600000e-07	-5.267291e-06	-1.276991e-09	-3.654676e+01	-8.298488e+01
3.700000e-07	-5.251978e-06	-1.272188e-09	-3.644051e+01	-8.285613e+01
3.800000e-07	-5.236250e-06	-1.303278e-09	-3.633139e+01	-8.272213e+01
3.900000e-07	-5.220121e-06	-1.278225e-09	-3.621948e+01	-8.258287e+01
4.000000e-07	-5.203474e-06	-1.234150e-09	-3.610397e+01	-8.243834e+01
4.100000e-07	-5.186505e-06	-1.282653e-09	-3.598623e+01	-8.228854e+01
4.200000e-07	-5.169338e-06	-1.291768e-09	-3.586712e+01	-8.213348e+01
4.300000e-07	-5.151868e-06	-1.228912e-09	-3.574591e+01	-8.197317e+01
4.400000e-07	-5.134093e-06	-1.244168e-09	-3.562258e+01	-8.180764e+01
4.500000e-07	-5.115911e-06	-1.321192e-09	-3.549642e+01	-8.163692e+01
4.600000e-07	-5.097249e-06	-1.247478e-09	-3.536693e+01	-8.146106e+01
4.700000e-07	-5.078149e-06	-1.207289e-09	-3.523441e+01	-8.128012e+01
4.800000e-07	-5.058728e-06	-1.287817e-09	-3.509966e+01	-8.109414e+01
4.900000e-07	-5.039172e-06	-1.289001e-09	-3.496397e+01	-8.090319e+01
5.000000e-07	-5.019449e-06	-1.196406e-09	-3.482713e+01	-8.070735e+01
5.100000e-07	-4.999495e-06	-1.252114e-09	-3.468868e+01	-8.050670e+01
5.200000e-07	-4.979130e-06	-1.288214e-09	-3.454737e+01	-8.030132e+01
5.300000e-07	-4.958343e-06	-1.209685e-09	-3.440315e+01	-8.009130e+01
5.400000e-07	-4.937207e-06	-1.215221e-09	-3.425649e+01	-7.987674e+01
5.500000e-07	-4.915653e-06	-1.294742e-09	-3.410694e+01	-7.965775e+01
5.600000e-07	-4.893761e-06	-1.226181e-09	-3.395505e+01	-7.943442e+01
5.700000e-07	-4.871532e-06	-1.186885e-09	-3.380081e+01	-7.920687e+01
5.800000e-07	-4.849002e-06	-1.259884e-09	-3.364449e+01	-7.897520e+01
5.900000e-07	-4.826165e-06	-1.244539e-09	-3.348604e+01	-7.873953e+01
6.000000e-07	-4.803002e-06	-1.169489e-09	-3.332532e+01	-7.849998e+01
6.100000e-07	-4.779566e-06	-1.210603e-09	-3.316271e+01	-7.825665e+01
6.200000e-07	-4.755882e-06	-1.229827e-09	-3.299838e+01	-7.800968e+01
6.300000e-07	-4.731985e-06	-1.171278e-09	-3.283257e+01	-7.775916e+01
6.400000e-07	-4.707884e-06	-1.183762e-09	-3.266535e+01	-7.750522e+01
6.500000e-07	-4.683345e-06	-1.214241e-09	-3.249509e+01	-7.724797e+01
6.600000e-07	-4.658205e-06	-1.172377e-09	-3.232066e+01	-7.698751e+01
6.700000e-07	-4.632501e-06	-1.160871e-09	-3.214231e+01	-7.672397e+01
6.800000e-07	-4.606216e-06	-1.195298e-09	-3.195993e+01	-7.645742e+01
6.900000e-07	-4.579385e-06	-1.175624e-09	-3.177377e+01	-7.618798e+01
7.000000e-07	-4.552244e-06	-1.152901e-09	-3.158545e+01	-7.591574e+01
7.100000e-07	-4.524901e-06	-1.167090e-09	-3.139573e+01	-7.564077e+01
7.200000e-07	-4.497329e-06	-1.163783e-09	-3.120443e+01	-7.536317e+01
7.300000e-07	-4.469578e-06	-1.135470e-09	-3.101188e+01	-7.508298e+01
7.400000e-07	-4.441568e-06	-1.141589e-09	-3.081753e+01	-7.480029e+01
7.500000e-07	-4.413324e-06	-1.143329e-09	-3.062156e+01	-7.451514e+01
7.600000e-07	-4.384754e-06	-1.132447e-09	-3.042334e+01	-7.422757e+01
7.700000e-07	-4.355872e-06	-1.128485e-09	-3.022294e+01	-7.393762e+01
7.800000e-07	-4.326749e-06	-1.133375e-09	-3.002087e+01	-7.364531e+01
7.900000e-07	-4.297285e-06	-1.121475e-09	-2.981644e+01	-7.335065e+01
8.000000e-07	-4.267528e-06	-1.117809e-09	-2.960997e+01	-7.305363e+01
8.100000e-07	-4.237493e-06	-1.115297e-09	-2.940157e+01	-7.275425e+01
8.200000e-07	-4.207155e-06	-1.105023e-09	-2.919107e+01	-7.245249e+01
8.300000e-07	-4.176456e-06	-1.094355e-09	-2.897807e+01	-7.214829e+01
8.400000e-07	-4.145445e-06	-1.099443e-09	-2.876290e+01	-7.184163e+01
8.500000e-07	-4.114232e-06	-1.091389e-09	-2.854633e+01	-7.153243e+01
8.600000e-07	-4.082866e-06	-1.079851e-09	-2.832870e+01	-7.122062e+01
8.700000e-07	-4.051276e-06	-1.076678e-09	-2.810952e+01	-7.090612e+01
8.800000e-07	-4.019514e-06	-1.075229e-09	-2.788914e+01	-7.058884e+01
8.900000e-07	-3.987602e-06	-1.063883e-09	-2.766772e+01	-7.026867e+01
9.000000e-07	-3.955483e-06	-1.058935e-09	-2.744486e+01	-6.994549e+01
9.100000e-07	-3.922973e-06	-1.055963e-09	-2.721930e+01	-6.961918e+01
9.200000e-07	-3.889926e-06	-1.042033e-09	-2.699000e+01	-6.928959e+01
9.300000e-07	-3.856407e-06	-1.033453e-09	-2.675743e+01	-6.895660e+01
9.400000e-07	-3.822555e-06	-1.036563e-09	-2.652256e+01	-6.862005e+01
9.500000e-07	-3.788270e-06	-1.032202e-09	-2.628467e+01	-6.827978e+01
9.600000e-07	-3.753427e-06	-1.017541e-09	-2.604291e+01	-6.793564e+01
9.700000e-07	-3.718270e-06	-1.014947e-09	-2.579898e+01	-6.758746e+01
9.800000e-07	-3.682921e-06	-1.011855e-09	-2.555371e+01	-6.723507e+01
9.900000e-07	-3.647441e-06	-9.994277e-10	-2.530754e+01	-6.687830e+01
1.000000e-06	-3.611830e-06	-9.928551e-10	-2.506045e+01	-6.651699e+01
1.010000e-06	-3.576071e-06	-9.943517e-10	-2.481234e+01	-6.615097e+01
1.020000e-06	-3.540155e-06	-9.853074e-10	-2.456314e+01	-6.578008e+01
1.030000e-06	-3.503997e-06	-9.766783e-10	-2.431226e+01	-6.540415e+01
1.040000e-06	-3.467564e-06	-9.728268e-10	-2.405947e+01	-6.502303e+01
1.050000e-06	-3.430881e-06	-9.667056e-10	-2.380495e+01	-6.463657e+01
1.060000e-06	-3.393961e-06	-9.547055e-10	-2.354878e+01	-6.424463e+01
1.070000e-06	-3.356830e-06	-9.520015e-10	-2.329115e+01	-6.384708e+01
1.080000e-06	-3.319400e-06	-9.480836e-10	-2.303144e+01	-6.344379e+01
1.090000e-06	-3.281654e-06	-9.399023e-10	-2.276955e+01	-6.303466e+01
1.100000e-06	-3.243645e-06	-9.329050e-10	-2.250582e+01	-6.261959e+01
1.110000e-06	-3.205463e-06	-9.296723e-10	-2.224090e+01	-6.219849e+01
1.120000e-06	-3.167202e-06	-9.203620e-10	-2.197543e+01	-6.177129e+01
1.130000e-06	-3.128729e-06	-9.112027e-10	-2.170848e+01	-6.133793e+01
1.140000e-06	-3.090030e-06	-9.035727e-10	-2.143997e+01	-6.089837e+01
1.150000e-06	-3.051071e-06	-8.933337e-10	-2.116966e+01	-6.045257e+01
1.160000e-06	-3.011883e-06	-8.834365e-10	-2.089776e+01	-6.000052e+01
1.170000e-06	-2.972629e-06	-8.791168e-10	-2.062540e+01	-5.954223e+01
1.180000e-06	-2.933239e-06	-8.749640e-10	-2.035209e+01	-5.907769e+01
1.190000e-06	-2.893680e-06	-8.668561e-10	-2.007761e+01	-5.860695e+01
1.200000e-06	-2.854005e-06	-8.572319e-10	-1.980233e+01	-5.813004e+01
1.210000e-06	-2.814173e-06	-8.486925e-10	-1.952596e+01	-5.764701e+01
1.220000e-06	-2.774060e-06	-8.359816e-10	-1.924764e+01	-5.715792e+01
1.230000e-06	-2.733720e-06	-8.248428e-10	-1.896774e+01	-5.666285e+01
1.240000e-06	-2.693229e-06	-8.185851e-10	-1.868680e+01	-5.616187e+01
1.250000e-06	-2.652509e-06	-8.116335e-10	-1.840427e+01	-5.565508e+01
1.260000e-06	-2.611509e-06	-8.040798e-10	-1.811979e+01	-5.514256e+01
1.270000e-06	-2.570224e-06	-7.997984e-10	-1.783334e+01	-5.462441e+01
1.280000e-06	-2.528583e-06	-7.958279e-10	-1.754441e+01	-5.410072e+01
1.290000e-06	-2.486557e-06	-7.860304e-10	-1.725281e+01	-5.357158e+01
1.300000e-06	-2.444276e-06	-7.750569e-10	-1.695945e+01	-5.303710e+01
1.310000e-06	-2.401817e-06	-7.625080e-10	-1.666485e+01	-5.249734e+01
1.320000e-06	-2.359030e-06	-7.498909e-10	-1.636798e+01	-5.195239e+01
1.330000e-06	-2.315938e-06	-7.397318e-10	-1.606899e+01	-5.140231e+01
1.340000e-06	-2.272755e-06	-7.334101e-10	-1.576936e+01	-5.084715e+01
1.350000e-06	-2.229441e-06	-7.256173e-10	-1.546883e+01	-5.028695e+01
1.360000e-06	-2.185988e-06	-7.173495e-10	-1.516734e+01	-4.972174e+01
1.370000e-06	-2.142449e-06	-7.103847e-10	-1.486525e+01	-4.915150e+01
1.380000e-06	-2.098855e-06	-7.040548e-10	-1.456277e+01	-4.857622e+01
1.390000e-06	-2.055225e-06	-6.937740e-10	-1.426005e+01	-4.799585e+01
1.400000e-06	-2.011473e-06	-6.834494e-10	-1.395648e+01	-4.741032e+01
1.410000e-06	-1.967618e-06	-6.742541e-10	-1.365219e+01	-4.681952e+01
1.420000e-06	-1.923687e-06	-6.659195e-10	-1.334738e+01	-4.622333e+01
1.430000e-06	-1.879708e-06	-6.571881e-10	-1.304223e+01	-4.562158e+01
1.440000e-06	-1.835563e-06	-6.495472e-10	-1.273594e+01	-4.501409e+01
1.450000e-06	-1.791202e-06	-6.394126e-10	-1.242814e+01	-4.440064e+01
1.460000e-06	-1.746775e-06	-6.266643e-10	-1.211989e+01	-4.378095e+01
1.470000e-06	-1.702269e-06	-6.126469e-10	-1.181109e+01	-4.315476e+01
1.480000e-06	-1.657611e-06	-5.992628e-10	-1.150123e+01	-4.252172e+01
1.490000e-06	-1.612710e-06	-5.882767e-10	-1.118969e+01	-4.188150e+01
1.500000e-06	-1.567593e-06	-5.833952e-10	-1.087664e+01	-4.123370e+01
1.510000e-06	-1.522409e-06	-5.780617e-10	-1.056313e+01	-4.057791e+01
1.520000e-06	-1.477209e-06	-5.684263e-10	-1.024952e+01	-3.991367e+01
1.530000e-06	-1.431887e-06	-5.559911e-10	-9.935059e+00	-3.924053e+01
1.540000e-06	-1.386428e-06	-5.401323e-10	-9.619643e+00	-3.855798e+01
1.550000e-06	-1.340907e-06	-5.252153e-10	-9.303794e+00	-3.786551e+01
1.560000e-06	-1.295295e-06	-5.118893e-10	-8.987324e+00	-3.716256e+01
1.570000e-06	-1.249585e-06	-5.013335e-10	-8.670162e+00	-3.644860e+01
1.580000e-06	-1.203869e-06	-4.945179e-10	-8.352970e+00	-3.572304e+01
1.590000e-06	-1.158061e-06	-4.888115e-10	-8.035132e+00	-3.498531e+01
1.600000e-06	-1.112006e-06	-4.774760e-10	-7.715583e+00	-3.423482e+01
1.610000e-06	-1.065838e-06	-4.627303e-10	-7.395250e+00	-3.347099e+01
1.620000e-06	-1.019651e-06	-4.491053e-10	-7.074784e+00	-3.269323e+01
1.630000e-06	-9.734555e-07	-4.372336e-10	-6.754259e+00	-3.190097e+01
1.640000e-06	-9.272952e-07	-4.245288e-10	-6.433978e+00	-3.109364e+01
1.650000e-06	-8.811251e-07	-4.104588e-10	-6.113630e+00	-3.027069e+01
1.660000e-06	-8.348513e-07	-4.017765e-10	-5.792562e+00	-2.943160e+01
1.670000e-06	-7.883787e-07	-3.914582e-10	-5.470115e+00	-2.857585e+01
1.680000e-06	-7.418084e-07	-3.778445e-10	-5.146990e+00	-2.770298e+01
1.690000e-06	-6.952934e-07	-3.612459e-10	-4.824249e+00	-2.681255e+01
1.700000e-06	-6.487252e-07	-3.442549e-10	-4.501138e+00	-2.590417e+01
1.710000e-06	-6.020329e-07	-3.276676e-10	-4.177166e+00	-2.497748e+01
1.720000e-06	-5.553995e-07	-3.081896e-10	-3.853604e+00	-2.403217e+01
1.730000e-06	-5.087134e-07	-2.920831e-10	-3.529675e+00	-2.306799e+01
1.740000e-06	-4.618802e-07	-2.773524e-10	-3.204726e+00	-2.208475e+01
1.750000e-06	-4.149809e-07	-2.645406e-10	-2.879319e+00	-2.108231e+01
1.760000e-06	-3.680934e-07	-2.521575e-10	-2.553992e+00	-2.006060e+01
1.770000e-06	-3.212294e-07	-2.396757e-10	-2.228830e+00	-1.901960e+01
1.780000e-06	-2.743384e-07	-2.277148e-10	-1.903479e+00	-1.795938e+01
1.790000e-06	-2.274560e-07	-2.123148e-10	-1.578189e+00	-1.688006e+01
1.800000e-06	-1.805879e-07	-1.933364e-10	-1.252998e+00	-1.578186e+01
1.810000e-06	-1.336424e-07	-1.750036e-10	-9.272689e-01	-1.466504e+01
1.820000e-06	-8.659772e-08	-1.569812e-10	-6.008527e-01	-1.352996e+01
1.830000e-06	-3.958404e-08	-1.426360e-10	-2.746513e-01	-1.237703e+01
1.840000e-06	7.392070e-09	-1.287270e-10	5.128941e-02	-1.120676e+01
1.850000e-06	5.431901e-08	-1.163269e-10	3.768889e-01	-1.001972e+01
1.860000e-06	1.012519e-07	-1.039190e-10	7.025299e-01	-8.816539e+00
1.870000e-06	1.481494e-07	-8.730164e-11	1.027925e+00	-7.597942e+00
1.880000e-06	1.949763e-07	-6.808964e-11	1.352830e+00	-6.364707e+00
1.890000e-06	2.417988e-07	-4.717691e-11	1.677706e+00	-5.117679e+00
1.900000e-06	2.886214e-07	-2.533576e-11	2.002581e+00	-3.857769e+00
1.910000e-06	3.354476e-07	-6.217021e-12	2.327482e+00	-2.585945e+00
1.920000e-06	3.822966e-07	6.488689e-12	2.652540e+00	-1.303229e+00
1.930000e-06	4.290898e-07	1.755667e-11	2.977212e+00	-1.069629e-02
1.940000e-06	4.757965e-07	3.390477e-11	3.301283e+00	1.290533e+00
1.950000e-06	5.224158e-07	5.399134e-11	3.624749e+00	2.599298e+00
1.960000e-06	5.689792e-07	7.586692e-11	3.947826e+00	3.914400e+00
1.970000e-06	6.155287e-07	9.738350e-11	4.270806e+00	5.234611e+00
1.980000e-06	6.620066e-07	1.169094e-10	4.593290e+00	6.558679e+00
1.990000e-06	7.084855e-07	1.339424e-10	4.915781e+00	7.885331e+00
2.000000e-06	7.548854e-07	1.492560e-10	5.237724e+00	9.213283e+00
2.010000e-06	8.011879e-07	1.678820e-10	5.558991e+00	1.054124e+01
2.020000e-06	8.475066e-07	1.904171e-10	5.880370e+00	1.186792e+01
2.030000e-06	8.937886e-07	2.143498e-10	6.201495e+00	1.319202e+01
2.040000e-06	9.400255e-07	2.362296e-10	6.522306e+00	1.451228e+01
2.050000e-06	9.862524e-07	2.540854e-10	6.843049e+00	1.582743e+01
2.060000e-06	1.032356e-06	2.697480e-10	7.162933e+00	1.713623e+01
2.070000e-06	1.078313e-06	2.887553e-10	7.481809e+00	1.843749e+01
2.080000e-06	1.124243e-06	3.068882e-10	7.800487e+00	1.973003e+01
2.090000e-06	1.170120e-06	3.247428e-10	8.118800e+00	2.101271e+01
2.100000e-06	1.215869e-06	3.470975e-10	8.436231e+00	2.228444e+01
2.110000e-06	1.261544e-06	3.689135e-10	8.753142e+00	2.354419e+01
2.120000e-06	1.307063e-06	3.871371e-10	9.068972e+00	2.479096e+01
2.130000e-06	1.352452e-06	4.029626e-10	9.383904e+00	2.602383e+01
2.140000e-06	1.397880e-06	4.195639e-10	9.699100e+00	2.724192e+01
2.150000e-06	1.443142e-06	4.373296e-10	1.001315e+01	2.844441e+01
2.160000e-06	1.488207e-06	4.534482e-10	1.032583e+01	2.963057e+01
2.170000e-06	1.533209e-06	4.694143e-10	1.063807e+01	3.079973e+01
2.180000e-06	1.578139e-06	4.866867e-10	1.094982e+01	3.195126e+01
2.190000e-06	1.623038e-06	5.042321e-10	1.126135e+01	3.308463e+01
2.200000e-06	1.667796e-06	5.198400e-10	1.157189e+01	3.419937e+01
2.210000e-06	1.712339e-06	5.329396e-10	1.188096e+01	3.529508e+01
2.220000e-06	1.756727e-06	5.461688e-10	1.218894e+01	3.637144e+01
2.230000e-06	1.801029e-06	5.603662e-10	1.249632e+01	3.742819e+01
2.240000e-06	1.845209e-06	5.737832e-10	1.280286e+01	3.846512e+01
2.250000e-06	1.889235e-06	5.867767e-10	1.310834e+01	3.948212e+01
2.260000e-06	1.933182e-06	6.007144e-10	1.341326e+01	4.047913e+01
2.270000e-06	1.977008e-06	6.211290e-10	1.371734e+01	4.145615e+01
2.280000e-06	2.020695e-06	6.383496e-10	1.402046e+01	4.241324e+01
2.290000e-06	2.064365e-06	6.513037e-10	1.432347e+01	4.335051e+01
2.300000e-06	2.108064e-06	6.611907e-10	1.462667e+01	4.426813e+01
2.310000e-06	2.151707e-06	6.704056e-10	1.492948e+01	4.516632e+01
2.320000e-06	2.195245e-06	6.823393e-10	1.523157e+01	4.604534e+01
2.330000e-06	2.238674e-06	6.960296e-10	1.553290e+01	4.690551e+01
2.340000e-06	2.281900e-06	7.112363e-10	1.583281e+01	4.774715e+01
2.350000e-06	2.325003e-06	7.284081e-10	1.613188e+01	4.857064e+01
2.360000e-06	2.368005e-06	7.475121e-10	1.643025e+01	4.937639e+01
2.370000e-06	2.410696e-06	7.593635e-10	1.672646e+01	5.016482e+01
2.380000e-06	2.453094e-06	7.664664e-10	1.702063e+01	5.093639e+01
2.390000e-06	2.495238e-06	7.752503e-10	1.731305e+01	5.169154e+01
2.400000e-06	2.537147e-06	7.847178e-10	1.760383e+01	5.243076e+01
2.410000e-06	2.578761e-06	7.928938e-10	1.789257e+01	5.315453e+01
2.420000e-06	2.619979e-06	8.047900e-10	1.817856e+01	5.386333e+01
2.430000e-06	2.660821e-06	8.204269e-10	1.846194e+01	5.455765e+01
2.440000e-06	2.701424e-06	8.334485e-10	1.874366e+01	5.523798e+01
2.450000e-06	2.741925e-06	8.416125e-10	1.902467e+01	5.590478e+01
2.460000e-06	2.782218e-06	8.520282e-10	1.930424e+01	5.655852e+01
2.470000e-06	2.822189e-06	8.637049e-10	1.958158e+01	5.719965e+01
2.480000e-06	2.861989e-06	8.730237e-10	1.985772e+01	5.782861e+01
2.490000e-06	2.901695e-06	8.807746e-10	2.013322e+01	5.844582e+01
2.500000e-06	2.941270e-06	8.878212e-10	2.040781e+01	5.905167e+01
2.510000e-06	2.980709e-06	8.959889e-10	2.068146e+01	5.964656e+01
2.520000e-06	3.019966e-06	9.068136e-10	2.095384e+01	6.023083e+01
2.530000e-06	3.059071e-06	9.165375e-10	2.122517e+01	6.080481e+01
2.540000e-06	3.097989e-06	9.251691e-10	2.149520e+01	6.136882e+01
2.550000e-06	3.136687e-06	9.328102e-10	2.176370e+01	6.192315e+01
2.560000e-06	3.175146e-06	9.399941e-10	2.203055e+01	6.246805e+01
2.570000e-06	3.213365e-06	9.449543e-10	2.229573e+01	6.300376e+01
2.580000e-06	3.251388e-06	9.488265e-10	2.255954e+01	6.353049e+01
2.590000e-06	3.289170e-06	9.544852e-10	2.282170e+01	6.404844e+01
2.600000e-06	3.326706e-06	9.619478e-10	2.308214e+01	6.455777e+01
2.610000e-06	3.363967e-06	9.686137e-10	2.334067e+01	6.505864e+01
2.620000e-06	3.401068e-06	9.757970e-10	2.359809e+01	6.555116e+01
2.630000e-06	3.437982e-06	9.840125e-10	2.385422e+01	6.603545e+01
2.640000e-06	3.474578e-06	9.918228e-10	2.410814e+01	6.651160e+01
2.650000e-06	3.510897e-06	9.980658e-10	2.436014e+01	6.697969e+01
2.660000e-06	3.547013e-06	1.001287e-09	2.461072e+01	6.743979e+01
2.670000e-06	3.582990e-06	1.004340e-09	2.486035e+01	6.789195e+01
2.680000e-06	3.618765e-06	1.010790e-09	2.510857e+01	6.833621e+01
2.690000e-06	3.654354e-06	1.019914e-09	2.535550e+01	6.877263e+01
2.700000e-06	3.689795e-06	1.029746e-09	2.560141e+01	6.920122e+01
2.710000e-06	3.725046e-06	1.037676e-09	2.584599e+01	6.962201e+01
2.720000e-06	3.760115e-06	1.042316e-09	2.608932e+01	7.003504e+01
2.730000e-06	3.794877e-06	1.045895e-09	2.633051e+01	7.044034e+01
2.740000e-06	3.829157e-06	1.048077e-09	2.656836e+01	7.083792e+01
2.750000e-06	3.863043e-06	1.048990e-09	2.680348e+01	7.122783e+01
2.760000e-06	3.896499e-06	1.052404e-09	2.703561e+01	7.161010e+01
2.770000e-06	3.929457e-06	1.061728e-09	2.726428e+01	7.198477e+01
2.780000e-06	3.961977e-06	1.070202e-09	2.748993e+01	7.235190e+01
2.790000e-06	3.994191e-06	1.075864e-09	2.771344e+01	7.271153e+01
2.800000e-06	4.026151e-06	1.079724e-09	2.793519e+01	7.306373e+01
2.810000e-06	4.057862e-06	1.081382e-09	2.815521e+01	7.340857e+01
2.820000e-06	4.089407e-06	1.083609e-09	2.837409e+01	7.374615e+01
2.830000e-06	4.120719e-06	1.090247e-09	2.859134e+01	7.407654e+01
2.840000e-06	4.151833e-06	1.097808e-09	2.880722e+01	7.439985e+01
2.850000e-06	4.182724e-06	1.105892e-09	2.902156e+01	7.471619e+01
2.860000e-06	4.213240e-06	1.112495e-09	2.923330e+01	7.502567e+01
2.870000e-06	4.243341e-06	1.117088e-09	2.944215e+01	7.532843e+01
2.880000e-06	4.273080e-06	1.121424e-09	2.964849e+01	7.562460e+01
2.890000e-06	4.302588e-06	1.125526e-09	2.985323e+01	7.591431e+01
2.900000e-06	4.332023e-06	1.128528e-09	3.005746e+01	7.619772e+01
