# Temperatura_=_-12.72
# Concentracion g/m^3_=_1620.0
# C_Vs_to_Am_M_A/Vsm_=_65563218390.804596
# pendiente_HvsI_1/m_=_3716.3
# ordenada_HvsI_A/m_=_1297.0
# frecuencia_Hz_=_135108.30235607616

Tiempo_(s)	Campo_(V.s)	Magnetizacion_(V.s)	Campo_(kA/m)	Magnetizacion_(A/m)
0.000000e+00	-5.504286e-06	-5.592960e-10	-3.836162e+01	-3.963587e+01
1.000000e-08	-5.504595e-06	-5.565113e-10	-3.836377e+01	-3.958734e+01
2.000000e-08	-5.504656e-06	-5.591602e-10	-3.836420e+01	-3.954283e+01
3.000000e-08	-5.504437e-06	-5.614776e-10	-3.836267e+01	-3.950248e+01
4.000000e-08	-5.503763e-06	-5.575554e-10	-3.835798e+01	-3.946635e+01
5.000000e-08	-5.502521e-06	-5.432535e-10	-3.834932e+01	-3.943452e+01
6.000000e-08	-5.500648e-06	-5.246548e-10	-3.833627e+01	-3.940701e+01
7.000000e-08	-5.498068e-06	-5.280547e-10	-3.831829e+01	-3.938381e+01
8.000000e-08	-5.494945e-06	-5.863173e-10	-3.829652e+01	-3.936488e+01
9.000000e-08	-5.491398e-06	-6.528396e-10	-3.827180e+01	-3.935016e+01
1.000000e-07	-5.487426e-06	-6.152402e-10	-3.824412e+01	-3.933953e+01
1.100000e-07	-5.483214e-06	-5.088758e-10	-3.821476e+01	-3.933287e+01
1.200000e-07	-5.478784e-06	-5.015332e-10	-3.818389e+01	-3.933001e+01
1.300000e-07	-5.473964e-06	-5.631601e-10	-3.815029e+01	-3.933077e+01
1.400000e-07	-5.468803e-06	-5.861545e-10	-3.811433e+01	-3.933493e+01
1.500000e-07	-5.463349e-06	-5.055430e-10	-3.807632e+01	-3.934224e+01
1.600000e-07	-5.457568e-06	-5.105601e-10	-3.803602e+01	-3.935246e+01
1.700000e-07	-5.451309e-06	-5.890647e-10	-3.799240e+01	-3.936528e+01
1.800000e-07	-5.444493e-06	-6.154502e-10	-3.794490e+01	-3.938043e+01
1.900000e-07	-5.437384e-06	-5.584303e-10	-3.789535e+01	-3.939757e+01
2.000000e-07	-5.430030e-06	-5.271808e-10	-3.784410e+01	-3.941638e+01
2.100000e-07	-5.422381e-06	-5.885739e-10	-3.779079e+01	-3.943653e+01
2.200000e-07	-5.414480e-06	-6.294654e-10	-3.773573e+01	-3.945766e+01
2.300000e-07	-5.406321e-06	-6.163567e-10	-3.767886e+01	-3.947942e+01
2.400000e-07	-5.397787e-06	-5.749008e-10	-3.761939e+01	-3.950147e+01
2.500000e-07	-5.388582e-06	-6.042229e-10	-3.755523e+01	-3.952345e+01
2.600000e-07	-5.378657e-06	-6.184271e-10	-3.748606e+01	-3.954500e+01
2.700000e-07	-5.368188e-06	-5.996107e-10	-3.741310e+01	-3.956580e+01
2.800000e-07	-5.357199e-06	-5.797753e-10	-3.733651e+01	-3.958549e+01
2.900000e-07	-5.345717e-06	-6.182233e-10	-3.725649e+01	-3.960377e+01
3.000000e-07	-5.333876e-06	-6.206433e-10	-3.717396e+01	-3.962030e+01
3.100000e-07	-5.321634e-06	-5.920774e-10	-3.708865e+01	-3.963481e+01
3.200000e-07	-5.308911e-06	-5.844828e-10	-3.699997e+01	-3.964700e+01
3.300000e-07	-5.295861e-06	-6.198958e-10	-3.690902e+01	-3.965662e+01
3.400000e-07	-5.282521e-06	-6.148272e-10	-3.681605e+01	-3.966343e+01
3.500000e-07	-5.268774e-06	-5.936346e-10	-3.672024e+01	-3.966720e+01
3.600000e-07	-5.254558e-06	-6.154397e-10	-3.662117e+01	-3.966773e+01
3.700000e-07	-5.239851e-06	-6.374442e-10	-3.651866e+01	-3.966486e+01
3.800000e-07	-5.224607e-06	-5.971607e-10	-3.641243e+01	-3.965843e+01
3.900000e-07	-5.208853e-06	-5.769879e-10	-3.630263e+01	-3.964832e+01
4.000000e-07	-5.192748e-06	-6.208073e-10	-3.619039e+01	-3.963442e+01
4.100000e-07	-5.176257e-06	-6.171845e-10	-3.607546e+01	-3.961666e+01
4.200000e-07	-5.159307e-06	-5.710850e-10	-3.595732e+01	-3.959500e+01
4.300000e-07	-5.142075e-06	-5.950068e-10	-3.583722e+01	-3.956940e+01
4.400000e-07	-5.124575e-06	-6.409877e-10	-3.571526e+01	-3.953986e+01
4.500000e-07	-5.106727e-06	-5.944518e-10	-3.559087e+01	-3.950641e+01
4.600000e-07	-5.088405e-06	-5.673941e-10	-3.546318e+01	-3.946909e+01
4.700000e-07	-5.069675e-06	-6.079401e-10	-3.533264e+01	-3.942796e+01
4.800000e-07	-5.050631e-06	-6.134771e-10	-3.519992e+01	-3.938312e+01
4.900000e-07	-5.031217e-06	-5.781787e-10	-3.506461e+01	-3.933466e+01
5.000000e-07	-5.011622e-06	-6.065361e-10	-3.492804e+01	-3.928271e+01
5.100000e-07	-4.991847e-06	-6.158136e-10	-3.479022e+01	-3.922741e+01
5.200000e-07	-4.971728e-06	-5.835844e-10	-3.465001e+01	-3.916891e+01
5.300000e-07	-4.951265e-06	-5.943879e-10	-3.450739e+01	-3.910737e+01
5.400000e-07	-4.930507e-06	-6.286245e-10	-3.436272e+01	-3.904298e+01
5.500000e-07	-4.909371e-06	-5.889588e-10	-3.421541e+01	-3.897593e+01
5.600000e-07	-4.887925e-06	-5.708439e-10	-3.406595e+01	-3.890640e+01
5.700000e-07	-4.866216e-06	-6.035476e-10	-3.391465e+01	-3.883459e+01
5.800000e-07	-4.844154e-06	-6.072080e-10	-3.376089e+01	-3.876072e+01
5.900000e-07	-4.821670e-06	-5.848572e-10	-3.360419e+01	-3.868499e+01
6.000000e-07	-4.798762e-06	-6.017459e-10	-3.344454e+01	-3.860761e+01
6.100000e-07	-4.775536e-06	-6.018803e-10	-3.328267e+01	-3.852878e+01
6.200000e-07	-4.752081e-06	-5.779906e-10	-3.311920e+01	-3.844871e+01
6.300000e-07	-4.728452e-06	-5.793229e-10	-3.295451e+01	-3.836761e+01
6.400000e-07	-4.704532e-06	-5.883913e-10	-3.278781e+01	-3.828566e+01
6.500000e-07	-4.680241e-06	-5.792352e-10	-3.261851e+01	-3.820307e+01
6.600000e-07	-4.655593e-06	-5.860599e-10	-3.244673e+01	-3.812001e+01
6.700000e-07	-4.630539e-06	-5.970213e-10	-3.227212e+01	-3.803665e+01
6.800000e-07	-4.604949e-06	-5.929488e-10	-3.209377e+01	-3.795316e+01
6.900000e-07	-4.578794e-06	-5.936758e-10	-3.191149e+01	-3.786969e+01
7.000000e-07	-4.552114e-06	-5.927753e-10	-3.172554e+01	-3.778640e+01
7.100000e-07	-4.525017e-06	-5.795803e-10	-3.153669e+01	-3.770339e+01
7.200000e-07	-4.497666e-06	-5.765335e-10	-3.134608e+01	-3.762080e+01
7.300000e-07	-4.470127e-06	-5.838803e-10	-3.115414e+01	-3.753873e+01
7.400000e-07	-4.442407e-06	-5.748752e-10	-3.096095e+01	-3.745727e+01
7.500000e-07	-4.414458e-06	-5.741298e-10	-3.076616e+01	-3.737649e+01
7.600000e-07	-4.386229e-06	-5.824106e-10	-3.056943e+01	-3.729646e+01
7.700000e-07	-4.357689e-06	-5.787826e-10	-3.037052e+01	-3.721723e+01
7.800000e-07	-4.328871e-06	-5.703140e-10	-3.016967e+01	-3.713884e+01
7.900000e-07	-4.299717e-06	-5.798689e-10	-2.996649e+01	-3.706131e+01
8.000000e-07	-4.270193e-06	-5.778594e-10	-2.976073e+01	-3.698464e+01
8.100000e-07	-4.240433e-06	-5.673862e-10	-2.955331e+01	-3.690884e+01
8.200000e-07	-4.210461e-06	-5.679382e-10	-2.934442e+01	-3.683387e+01
8.300000e-07	-4.180211e-06	-5.733350e-10	-2.913360e+01	-3.675973e+01
8.400000e-07	-4.149560e-06	-5.650608e-10	-2.891998e+01	-3.668635e+01
8.500000e-07	-4.118613e-06	-5.639364e-10	-2.870430e+01	-3.661369e+01
8.600000e-07	-4.087500e-06	-5.673839e-10	-2.848746e+01	-3.654167e+01
8.700000e-07	-4.056167e-06	-5.634702e-10	-2.826909e+01	-3.647023e+01
8.800000e-07	-4.024638e-06	-5.559702e-10	-2.804935e+01	-3.639927e+01
8.900000e-07	-3.992915e-06	-5.595347e-10	-2.782826e+01	-3.632870e+01
9.000000e-07	-3.960984e-06	-5.569650e-10	-2.760572e+01	-3.625841e+01
9.100000e-07	-3.928791e-06	-5.505896e-10	-2.738135e+01	-3.618829e+01
9.200000e-07	-3.896185e-06	-5.536877e-10	-2.715411e+01	-3.611821e+01
9.300000e-07	-3.863160e-06	-5.590598e-10	-2.692395e+01	-3.604804e+01
9.400000e-07	-3.829753e-06	-5.550166e-10	-2.669112e+01	-3.597764e+01
9.500000e-07	-3.795953e-06	-5.532548e-10	-2.645555e+01	-3.590687e+01
9.600000e-07	-3.761725e-06	-5.536670e-10	-2.621700e+01	-3.583558e+01
9.700000e-07	-3.727068e-06	-5.477431e-10	-2.597546e+01	-3.576362e+01
9.800000e-07	-3.692106e-06	-5.434456e-10	-2.573180e+01	-3.569082e+01
9.900000e-07	-3.656906e-06	-5.455485e-10	-2.548648e+01	-3.561702e+01
1.000000e-06	-3.621473e-06	-5.461975e-10	-2.523953e+01	-3.554206e+01
1.010000e-06	-3.585830e-06	-5.427768e-10	-2.499112e+01	-3.546575e+01
1.020000e-06	-3.550038e-06	-5.446562e-10	-2.474167e+01	-3.538795e+01
1.030000e-06	-3.514112e-06	-5.450417e-10	-2.449129e+01	-3.530846e+01
1.040000e-06	-3.478007e-06	-5.400750e-10	-2.423965e+01	-3.522711e+01
1.050000e-06	-3.441632e-06	-5.355718e-10	-2.398614e+01	-3.514374e+01
1.060000e-06	-3.404990e-06	-5.341058e-10	-2.373077e+01	-3.505816e+01
1.070000e-06	-3.368144e-06	-5.294498e-10	-2.347397e+01	-3.497020e+01
1.080000e-06	-3.331059e-06	-5.270891e-10	-2.321551e+01	-3.487968e+01
1.090000e-06	-3.293765e-06	-5.263194e-10	-2.295560e+01	-3.478644e+01
1.100000e-06	-3.256207e-06	-5.270522e-10	-2.269384e+01	-3.469030e+01
1.110000e-06	-3.218302e-06	-5.252193e-10	-2.242967e+01	-3.459110e+01
1.120000e-06	-3.180152e-06	-5.230622e-10	-2.216378e+01	-3.448867e+01
1.130000e-06	-3.141796e-06	-5.188408e-10	-2.189646e+01	-3.438285e+01
1.140000e-06	-3.103243e-06	-5.143709e-10	-2.162777e+01	-3.427349e+01
1.150000e-06	-3.064550e-06	-5.088378e-10	-2.135810e+01	-3.416043e+01
1.160000e-06	-3.025680e-06	-5.047374e-10	-2.108720e+01	-3.404353e+01
1.170000e-06	-2.986486e-06	-5.013775e-10	-2.081404e+01	-3.392264e+01
1.180000e-06	-2.947044e-06	-5.034419e-10	-2.053916e+01	-3.379763e+01
1.190000e-06	-2.907547e-06	-5.066771e-10	-2.026388e+01	-3.366837e+01
1.200000e-06	-2.867974e-06	-5.039420e-10	-1.998808e+01	-3.353473e+01
1.210000e-06	-2.828271e-06	-4.983046e-10	-1.971138e+01	-3.339660e+01
1.220000e-06	-2.788474e-06	-4.949194e-10	-1.943402e+01	-3.325386e+01
1.230000e-06	-2.748586e-06	-4.906179e-10	-1.915602e+01	-3.310640e+01
1.240000e-06	-2.708470e-06	-4.854525e-10	-1.887644e+01	-3.295414e+01
1.250000e-06	-2.668115e-06	-4.824662e-10	-1.859518e+01	-3.279697e+01
1.260000e-06	-2.627671e-06	-4.802783e-10	-1.831331e+01	-3.263481e+01
1.270000e-06	-2.587013e-06	-4.780222e-10	-1.802995e+01	-3.246759e+01
1.280000e-06	-2.545942e-06	-4.761907e-10	-1.774371e+01	-3.229522e+01
1.290000e-06	-2.504616e-06	-4.740170e-10	-1.745569e+01	-3.211763e+01
1.300000e-06	-2.463143e-06	-4.703672e-10	-1.716665e+01	-3.193478e+01
1.310000e-06	-2.421324e-06	-4.656099e-10	-1.687520e+01	-3.174658e+01
1.320000e-06	-2.379120e-06	-4.612001e-10	-1.658106e+01	-3.155300e+01
1.330000e-06	-2.336619e-06	-4.571159e-10	-1.628485e+01	-3.135398e+01
1.340000e-06	-2.293838e-06	-4.519983e-10	-1.598670e+01	-3.114946e+01
1.350000e-06	-2.250887e-06	-4.504190e-10	-1.568735e+01	-3.093941e+01
1.360000e-06	-2.207757e-06	-4.494939e-10	-1.538676e+01	-3.072378e+01
1.370000e-06	-2.164381e-06	-4.487146e-10	-1.508446e+01	-3.050251e+01
1.380000e-06	-2.120887e-06	-4.480050e-10	-1.478133e+01	-3.027557e+01
1.390000e-06	-2.077313e-06	-4.459536e-10	-1.447764e+01	-3.004291e+01
1.400000e-06	-2.033603e-06	-4.409132e-10	-1.417301e+01	-2.980446e+01
1.410000e-06	-1.989852e-06	-4.378034e-10	-1.386809e+01	-2.956018e+01
1.420000e-06	-1.946062e-06	-4.365799e-10	-1.356290e+01	-2.931001e+01
1.430000e-06	-1.902184e-06	-4.349221e-10	-1.325710e+01	-2.905387e+01
1.440000e-06	-1.858223e-06	-4.311886e-10	-1.295071e+01	-2.879169e+01
1.450000e-06	-1.814165e-06	-4.247619e-10	-1.264366e+01	-2.852338e+01
1.460000e-06	-1.770008e-06	-4.184610e-10	-1.233591e+01	-2.824886e+01
1.470000e-06	-1.725749e-06	-4.140303e-10	-1.202745e+01	-2.796801e+01
1.480000e-06	-1.681329e-06	-4.076002e-10	-1.171787e+01	-2.768072e+01
1.490000e-06	-1.636768e-06	-4.002369e-10	-1.140731e+01	-2.738687e+01
1.500000e-06	-1.592114e-06	-3.966383e-10	-1.109609e+01	-2.708630e+01
1.510000e-06	-1.547257e-06	-3.965004e-10	-1.078347e+01	-2.677888e+01
1.520000e-06	-1.502216e-06	-3.948596e-10	-1.046956e+01	-2.646442e+01
1.530000e-06	-1.457146e-06	-3.903597e-10	-1.015544e+01	-2.614274e+01
1.540000e-06	-1.412025e-06	-3.823947e-10	-9.840979e+00	-2.581364e+01
1.550000e-06	-1.366841e-06	-3.740307e-10	-9.526075e+00	-2.547692e+01
1.560000e-06	-1.321594e-06	-3.674059e-10	-9.210733e+00	-2.513233e+01
1.570000e-06	-1.276234e-06	-3.615083e-10	-8.894598e+00	-2.477965e+01
1.580000e-06	-1.230747e-06	-3.564693e-10	-8.577583e+00	-2.441860e+01
1.590000e-06	-1.185171e-06	-3.520510e-10	-8.259940e+00	-2.404893e+01
1.600000e-06	-1.139527e-06	-3.485563e-10	-7.941833e+00	-2.367034e+01
1.610000e-06	-1.093763e-06	-3.439991e-10	-7.622883e+00	-2.328254e+01
1.620000e-06	-1.047873e-06	-3.396861e-10	-7.303054e+00	-2.288523e+01
1.630000e-06	-1.001916e-06	-3.380958e-10	-6.982763e+00	-2.247809e+01
1.640000e-06	-9.559387e-07	-3.367727e-10	-6.662328e+00	-2.206081e+01
1.650000e-06	-9.098323e-07	-3.304562e-10	-6.340993e+00	-2.163305e+01
1.660000e-06	-8.636549e-07	-3.191785e-10	-6.019164e+00	-2.119449e+01
1.670000e-06	-8.175026e-07	-3.053215e-10	-5.697510e+00	-2.074480e+01
1.680000e-06	-7.713029e-07	-2.925347e-10	-5.375526e+00	-2.028365e+01
1.690000e-06	-7.251107e-07	-2.839322e-10	-5.053593e+00	-1.981072e+01
1.700000e-06	-6.787850e-07	-2.807774e-10	-4.730731e+00	-1.932568e+01
1.710000e-06	-6.323348e-07	-2.792381e-10	-4.407000e+00	-1.882823e+01
1.720000e-06	-5.858747e-07	-2.755089e-10	-4.083201e+00	-1.831807e+01
1.730000e-06	-5.393241e-07	-2.664834e-10	-3.758771e+00	-1.779493e+01
1.740000e-06	-4.927937e-07	-2.499327e-10	-3.434481e+00	-1.725853e+01
1.750000e-06	-4.462275e-07	-2.300138e-10	-3.109942e+00	-1.670864e+01
1.760000e-06	-3.996117e-07	-2.148146e-10	-2.785058e+00	-1.614504e+01
1.770000e-06	-3.530302e-07	-2.056613e-10	-2.460412e+00	-1.556754e+01
1.780000e-06	-3.064900e-07	-2.029922e-10	-2.136054e+00	-1.497598e+01
1.790000e-06	-2.599904e-07	-2.034995e-10	-1.811980e+00	-1.437023e+01
1.800000e-06	-2.134365e-07	-2.009214e-10	-1.487526e+00	-1.375020e+01
1.810000e-06	-1.668016e-07	-1.922747e-10	-1.162509e+00	-1.311583e+01
1.820000e-06	-1.201085e-07	-1.779891e-10	-8.370850e-01	-1.246712e+01
1.830000e-06	-7.331995e-08	-1.619201e-10	-5.109967e-01	-1.180409e+01
1.840000e-06	-2.653581e-08	-1.490751e-10	-1.849389e-01	-1.112683e+01
1.850000e-06	2.013404e-08	-1.403171e-10	1.403224e-01	-1.043544e+01
1.860000e-06	6.674136e-08	-1.343640e-10	4.651478e-01	-9.730109e+00
1.870000e-06	1.133917e-07	-1.306406e-10	7.902731e-01	-9.011050e+00
1.880000e-06	1.600689e-07	-1.256752e-10	1.115586e+00	-8.278535e+00
1.890000e-06	2.067263e-07	-1.161345e-10	1.440760e+00	-7.532888e+00
1.900000e-06	2.533953e-07	-1.016807e-10	1.766015e+00	-6.774481e+00
1.910000e-06	3.000443e-07	-8.602975e-11	2.091131e+00	-6.003742e+00
1.920000e-06	3.466550e-07	-7.218437e-11	2.415980e+00	-5.221147e+00
1.930000e-06	3.932601e-07	-6.000043e-11	2.740790e+00	-4.427223e+00
1.940000e-06	4.397929e-07	-4.969491e-11	3.065097e+00	-3.622549e+00
1.950000e-06	4.861979e-07	-4.073822e-11	3.388512e+00	-2.807750e+00
1.960000e-06	5.326613e-07	-3.287789e-11	3.712335e+00	-1.983499e+00
1.970000e-06	5.791366e-07	-2.469506e-11	4.036240e+00	-1.150511e+00
1.980000e-06	6.254893e-07	-1.478572e-11	4.359291e+00	-3.095454e-01
1.990000e-06	6.717704e-07	-1.900624e-12	4.681843e+00	5.385999e-01
2.000000e-06	7.179549e-07	1.165974e-11	5.003722e+00	1.393091e+00
2.010000e-06	7.640993e-07	2.467700e-11	5.325321e+00	2.253061e+00
2.020000e-06	8.102194e-07	3.871414e-11	5.646751e+00	3.117615e+00
2.030000e-06	8.562426e-07	5.269061e-11	5.967505e+00	3.985829e+00
2.040000e-06	9.022017e-07	6.309971e-11	6.287813e+00	4.856762e+00
2.050000e-06	9.481281e-07	7.045320e-11	6.607893e+00	5.729453e+00
2.060000e-06	9.940063e-07	7.943652e-11	6.927637e+00	6.602928e+00
2.070000e-06	1.039843e-06	9.180372e-11	7.247094e+00	7.476207e+00
2.080000e-06	1.085706e-06	1.075089e-10	7.566730e+00	8.348303e+00
2.090000e-06	1.131515e-06	1.244569e-10	7.885989e+00	9.218232e+00
2.100000e-06	1.177176e-06	1.409370e-10	8.204223e+00	1.008501e+01
2.110000e-06	1.222787e-06	1.530007e-10	8.522103e+00	1.094768e+01
2.120000e-06	1.268312e-06	1.600273e-10	8.839385e+00	1.180528e+01
2.130000e-06	1.313680e-06	1.669780e-10	9.155571e+00	1.265687e+01
2.140000e-06	1.358941e-06	1.765008e-10	9.471017e+00	1.350154e+01
2.150000e-06	1.404096e-06	1.880989e-10	9.785717e+00	1.433840e+01
2.160000e-06	1.449147e-06	2.016250e-10	1.009970e+01	1.516661e+01
2.170000e-06	1.494118e-06	2.136179e-10	1.041312e+01	1.598534e+01
2.180000e-06	1.538988e-06	2.259371e-10	1.072584e+01	1.679382e+01
2.190000e-06	1.583693e-06	2.384658e-10	1.103740e+01	1.759130e+01
2.200000e-06	1.628219e-06	2.479265e-10	1.134773e+01	1.837709e+01
2.210000e-06	1.672612e-06	2.544989e-10	1.165712e+01	1.915054e+01
2.220000e-06	1.716956e-06	2.607551e-10	1.196617e+01	1.991106e+01
2.230000e-06	1.761281e-06	2.700824e-10	1.227509e+01	2.065811e+01
2.240000e-06	1.805498e-06	2.818817e-10	1.258325e+01	2.139118e+01
2.250000e-06	1.849582e-06	2.925039e-10	1.289049e+01	2.210985e+01
2.260000e-06	1.893534e-06	3.012113e-10	1.319681e+01	2.281372e+01
2.270000e-06	1.937429e-06	3.117332e-10	1.350273e+01	2.350247e+01
2.280000e-06	1.981316e-06	3.250281e-10	1.380861e+01	2.417582e+01
2.290000e-06	2.025110e-06	3.380482e-10	1.411382e+01	2.483356e+01
2.300000e-06	2.068769e-06	3.475806e-10	1.441810e+01	2.547551e+01
2.310000e-06	2.112347e-06	3.539729e-10	1.472181e+01	2.610156e+01
2.320000e-06	2.155834e-06	3.608396e-10	1.502489e+01	2.671164e+01
2.330000e-06	2.199190e-06	3.699173e-10	1.532706e+01	2.730576e+01
2.340000e-06	2.242387e-06	3.814443e-10	1.562811e+01	2.788392e+01
2.350000e-06	2.285454e-06	3.948037e-10	1.592826e+01	2.844622e+01
2.360000e-06	2.328299e-06	4.086215e-10	1.622687e+01	2.899277e+01
2.370000e-06	2.370785e-06	4.204104e-10	1.652297e+01	2.952372e+01
2.380000e-06	2.413022e-06	4.267650e-10	1.681734e+01	3.003928e+01
2.390000e-06	2.454992e-06	4.287233e-10	1.710984e+01	3.053965e+01
2.400000e-06	2.496622e-06	4.320802e-10	1.739998e+01	3.102511e+01
2.410000e-06	2.537910e-06	4.386505e-10	1.768773e+01	3.149591e+01
2.420000e-06	2.578856e-06	4.458550e-10	1.797310e+01	3.195238e+01
2.430000e-06	2.619531e-06	4.550963e-10	1.825658e+01	3.239481e+01
2.440000e-06	2.660014e-06	4.660305e-10	1.853872e+01	3.282356e+01
2.450000e-06	2.700310e-06	4.764732e-10	1.881957e+01	3.323895e+01
2.460000e-06	2.740395e-06	4.846571e-10	1.909894e+01	3.364135e+01
2.470000e-06	2.780364e-06	4.891290e-10	1.937750e+01	3.403110e+01
2.480000e-06	2.820240e-06	4.904788e-10	1.965541e+01	3.440856e+01
2.490000e-06	2.859960e-06	4.920896e-10	1.993223e+01	3.477410e+01
2.500000e-06	2.899561e-06	4.957731e-10	2.020823e+01	3.512804e+01
2.510000e-06	2.939006e-06	5.030026e-10	2.048313e+01	3.547075e+01
2.520000e-06	2.978209e-06	5.111462e-10	2.075636e+01	3.580254e+01
2.530000e-06	3.017234e-06	5.181966e-10	2.102834e+01	3.612374e+01
2.540000e-06	3.056054e-06	5.238219e-10	2.129889e+01	3.643465e+01
2.550000e-06	3.094726e-06	5.259132e-10	2.156841e+01	3.673556e+01
2.560000e-06	3.133200e-06	5.270125e-10	2.183656e+01	3.702674e+01
2.570000e-06	3.171354e-06	5.295356e-10	2.210246e+01	3.730844e+01
2.580000e-06	3.209319e-06	5.324893e-10	2.236706e+01	3.758091e+01
2.590000e-06	3.247070e-06	5.355797e-10	2.263016e+01	3.784435e+01
2.600000e-06	3.284607e-06	5.404395e-10	2.289177e+01	3.809896e+01
2.610000e-06	3.321970e-06	5.462875e-10	2.315217e+01	3.834491e+01
2.620000e-06	3.359098e-06	5.500955e-10	2.341093e+01	3.858238e+01
2.630000e-06	3.395897e-06	5.519904e-10	2.366740e+01	3.881149e+01
2.640000e-06	3.432388e-06	5.532953e-10	2.392172e+01	3.903238e+01
2.650000e-06	3.468691e-06	5.562390e-10	2.417473e+01	3.924514e+01
2.660000e-06	3.504785e-06	5.609107e-10	2.442628e+01	3.944988e+01
2.670000e-06	3.540674e-06	5.627887e-10	2.467641e+01	3.964668e+01
2.680000e-06	3.576422e-06	5.635322e-10	2.492555e+01	3.983560e+01
2.690000e-06	3.612093e-06	5.673082e-10	2.517416e+01	4.001672e+01
2.700000e-06	3.647655e-06	5.729949e-10	2.542200e+01	4.019008e+01
2.710000e-06	3.683038e-06	5.764896e-10	2.566860e+01	4.035573e+01
2.720000e-06	3.718179e-06	5.782912e-10	2.591351e+01	4.051373e+01
2.730000e-06	3.752833e-06	5.798102e-10	2.615503e+01	4.066411e+01
2.740000e-06	3.787072e-06	5.812701e-10	2.639365e+01	4.080693e+01
2.750000e-06	3.820971e-06	5.818299e-10	2.662991e+01	4.094225e+01
2.760000e-06	3.854348e-06	5.824223e-10	2.686253e+01	4.107011e+01
2.770000e-06	3.887215e-06	5.832296e-10	2.709159e+01	4.119059e+01
2.780000e-06	3.919630e-06	5.840313e-10	2.731751e+01	4.130375e+01
2.790000e-06	3.951758e-06	5.862358e-10	2.754142e+01	4.140969e+01
2.800000e-06	3.983800e-06	5.888983e-10	2.776474e+01	4.150851e+01
2.810000e-06	4.015695e-06	5.895056e-10	2.798702e+01	4.160031e+01
2.820000e-06	4.047372e-06	5.901240e-10	2.820779e+01	4.168522e+01
2.830000e-06	4.078848e-06	5.922200e-10	2.842716e+01	4.176338e+01
2.840000e-06	4.110029e-06	5.945737e-10	2.864447e+01	4.183496e+01
2.850000e-06	4.140909e-06	5.994408e-10	2.885969e+01	4.190013e+01
2.860000e-06	4.171507e-06	6.045358e-10	2.907294e+01	4.195908e+01
2.870000e-06	4.201776e-06	6.063884e-10	2.928390e+01	4.201202e+01
2.880000e-06	4.231811e-06	6.045642e-10	2.949322e+01	4.205917e+01
2.890000e-06	4.261574e-06	6.036545e-10	2.970065e+01	4.210077e+01
2.900000e-06	4.290995e-06	6.056982e-10	2.990570e+01	4.213708e+01
