# Temperatura_=_-0.5
# Concentracion g/m^3_=_1620.0
# C_Vs_to_Am_M_A/Vsm_=_65563218390.804596
# pendiente_HvsI_1/m_=_3716.3
# ordenada_HvsI_A/m_=_1297.0
# frecuencia_Hz_=_135093.718313958

Tiempo_(s)	Campo_(V.s)	Magnetizacion_(V.s)	Campo_(kA/m)	Magnetizacion_(A/m)
0.000000e+00	-5.515326e-06	-1.292304e-09	-3.837897e+01	-8.591616e+01
1.000000e-08	-5.515647e-06	-1.290367e-09	-3.838120e+01	-8.588328e+01
2.000000e-08	-5.515738e-06	-1.293909e-09	-3.838183e+01	-8.585209e+01
3.000000e-08	-5.515477e-06	-1.298546e-09	-3.838002e+01	-8.582252e+01
4.000000e-08	-5.514785e-06	-1.298395e-09	-3.837520e+01	-8.579446e+01
5.000000e-08	-5.513562e-06	-1.287248e-09	-3.836669e+01	-8.576778e+01
6.000000e-08	-5.511663e-06	-1.270409e-09	-3.835348e+01	-8.574231e+01
7.000000e-08	-5.509159e-06	-1.277795e-09	-3.833605e+01	-8.571785e+01
8.000000e-08	-5.506074e-06	-1.299226e-09	-3.831459e+01	-8.569418e+01
9.000000e-08	-5.502500e-06	-1.308051e-09	-3.828971e+01	-8.567105e+01
1.000000e-07	-5.498591e-06	-1.346173e-09	-3.826251e+01	-8.564819e+01
1.100000e-07	-5.494326e-06	-1.377664e-09	-3.823284e+01	-8.562532e+01
1.200000e-07	-5.489829e-06	-1.263103e-09	-3.820155e+01	-8.560213e+01
1.300000e-07	-5.485138e-06	-1.195197e-09	-3.816890e+01	-8.557829e+01
1.400000e-07	-5.480132e-06	-1.248463e-09	-3.813407e+01	-8.555347e+01
1.500000e-07	-5.474723e-06	-1.342930e-09	-3.809643e+01	-8.552733e+01
1.600000e-07	-5.468831e-06	-1.276158e-09	-3.805543e+01	-8.549952e+01
1.700000e-07	-5.462576e-06	-1.183742e-09	-3.801190e+01	-8.546968e+01
1.800000e-07	-5.456005e-06	-1.282201e-09	-3.796617e+01	-8.543746e+01
1.900000e-07	-5.448965e-06	-1.370793e-09	-3.791719e+01	-8.540251e+01
2.000000e-07	-5.441566e-06	-1.300490e-09	-3.786570e+01	-8.536448e+01
2.100000e-07	-5.433970e-06	-1.192800e-09	-3.781284e+01	-8.532304e+01
2.200000e-07	-5.426164e-06	-1.269087e-09	-3.775852e+01	-8.527786e+01
2.300000e-07	-5.418008e-06	-1.352143e-09	-3.770177e+01	-8.522862e+01
2.400000e-07	-5.409426e-06	-1.334117e-09	-3.764205e+01	-8.517503e+01
2.500000e-07	-5.400396e-06	-1.260528e-09	-3.757921e+01	-8.511681e+01
2.600000e-07	-5.390742e-06	-1.282597e-09	-3.751204e+01	-8.505369e+01
2.700000e-07	-5.380245e-06	-1.308690e-09	-3.743899e+01	-8.498544e+01
2.800000e-07	-5.369145e-06	-1.298231e-09	-3.736175e+01	-8.491184e+01
2.900000e-07	-5.357688e-06	-1.275608e-09	-3.728203e+01	-8.483270e+01
3.000000e-07	-5.345865e-06	-1.290808e-09	-3.719975e+01	-8.474784e+01
3.100000e-07	-5.333657e-06	-1.297115e-09	-3.711481e+01	-8.465714e+01
3.200000e-07	-5.321051e-06	-1.287727e-09	-3.702709e+01	-8.456047e+01
3.300000e-07	-5.308057e-06	-1.263765e-09	-3.693667e+01	-8.445774e+01
3.400000e-07	-5.294587e-06	-1.254034e-09	-3.684293e+01	-8.434888e+01
3.500000e-07	-5.280751e-06	-1.284320e-09	-3.674665e+01	-8.423387e+01
3.600000e-07	-5.266603e-06	-1.288525e-09	-3.664820e+01	-8.411268e+01
3.700000e-07	-5.251859e-06	-1.249572e-09	-3.654561e+01	-8.398533e+01
3.800000e-07	-5.236634e-06	-1.262612e-09	-3.643966e+01	-8.385186e+01
3.900000e-07	-5.221008e-06	-1.306851e-09	-3.633093e+01	-8.371231e+01
4.000000e-07	-5.204781e-06	-1.251968e-09	-3.621801e+01	-8.356676e+01
4.100000e-07	-5.188134e-06	-1.223913e-09	-3.610217e+01	-8.341531e+01
4.200000e-07	-5.171264e-06	-1.294698e-09	-3.598478e+01	-8.325807e+01
4.300000e-07	-5.154102e-06	-1.284001e-09	-3.586535e+01	-8.309517e+01
4.400000e-07	-5.136554e-06	-1.192282e-09	-3.574325e+01	-8.292674e+01
4.500000e-07	-5.118668e-06	-1.263882e-09	-3.561878e+01	-8.275294e+01
4.600000e-07	-5.100375e-06	-1.322330e-09	-3.549149e+01	-8.257393e+01
4.700000e-07	-5.081612e-06	-1.214102e-09	-3.536092e+01	-8.238986e+01
4.800000e-07	-5.062499e-06	-1.193490e-09	-3.522792e+01	-8.220092e+01
4.900000e-07	-5.043133e-06	-1.312959e-09	-3.509316e+01	-8.200727e+01
5.000000e-07	-5.023531e-06	-1.255484e-09	-3.495676e+01	-8.180909e+01
5.100000e-07	-5.003656e-06	-1.172295e-09	-3.481846e+01	-8.160654e+01
5.200000e-07	-4.983519e-06	-1.262949e-09	-3.467833e+01	-8.139979e+01
5.300000e-07	-4.963030e-06	-1.275714e-09	-3.453576e+01	-8.118902e+01
5.400000e-07	-4.942167e-06	-1.169574e-09	-3.439058e+01	-8.097436e+01
5.500000e-07	-4.921029e-06	-1.235695e-09	-3.424349e+01	-8.075597e+01
5.600000e-07	-4.899500e-06	-1.297236e-09	-3.409368e+01	-8.053398e+01
5.700000e-07	-4.877557e-06	-1.184877e-09	-3.394098e+01	-8.030853e+01
5.800000e-07	-4.855367e-06	-1.176530e-09	-3.378657e+01	-8.007971e+01
5.900000e-07	-4.832890e-06	-1.274897e-09	-3.363017e+01	-7.984764e+01
6.000000e-07	-4.809975e-06	-1.209853e-09	-3.347071e+01	-7.961240e+01
6.100000e-07	-4.786700e-06	-1.152017e-09	-3.330875e+01	-7.937406e+01
6.200000e-07	-4.763252e-06	-1.232762e-09	-3.314558e+01	-7.913269e+01
6.300000e-07	-4.739630e-06	-1.224185e-09	-3.298121e+01	-7.888832e+01
6.400000e-07	-4.715789e-06	-1.153216e-09	-3.281531e+01	-7.864099e+01
6.500000e-07	-4.691672e-06	-1.196376e-09	-3.264748e+01	-7.839071e+01
6.600000e-07	-4.667073e-06	-1.216226e-09	-3.247631e+01	-7.813749e+01
6.700000e-07	-4.641944e-06	-1.150613e-09	-3.230144e+01	-7.788133e+01
6.800000e-07	-4.616293e-06	-1.168053e-09	-3.212295e+01	-7.762219e+01
6.900000e-07	-4.590085e-06	-1.205686e-09	-3.194058e+01	-7.736006e+01
7.000000e-07	-4.563421e-06	-1.163075e-09	-3.175504e+01	-7.709488e+01
7.100000e-07	-4.536323e-06	-1.148994e-09	-3.156647e+01	-7.682661e+01
7.200000e-07	-4.508871e-06	-1.184684e-09	-3.137544e+01	-7.655520e+01
7.300000e-07	-4.481268e-06	-1.158679e-09	-3.118337e+01	-7.628057e+01
7.400000e-07	-4.453498e-06	-1.129773e-09	-3.099013e+01	-7.600267e+01
7.500000e-07	-4.425557e-06	-1.148351e-09	-3.079569e+01	-7.572141e+01
7.600000e-07	-4.397356e-06	-1.145886e-09	-3.059945e+01	-7.543672e+01
7.700000e-07	-4.368817e-06	-1.118804e-09	-3.040087e+01	-7.514854e+01
7.800000e-07	-4.339957e-06	-1.129195e-09	-3.020004e+01	-7.485677e+01
7.900000e-07	-4.310754e-06	-1.129670e-09	-2.999683e+01	-7.456135e+01
8.000000e-07	-4.281235e-06	-1.108272e-09	-2.979142e+01	-7.426220e+01
8.100000e-07	-4.251479e-06	-1.105752e-09	-2.958436e+01	-7.395925e+01
8.200000e-07	-4.221512e-06	-1.110052e-09	-2.937583e+01	-7.365245e+01
8.300000e-07	-4.191150e-06	-1.087258e-09	-2.916455e+01	-7.334172e+01
8.400000e-07	-4.160523e-06	-1.083175e-09	-2.895143e+01	-7.302701e+01
8.500000e-07	-4.129639e-06	-1.093706e-09	-2.873652e+01	-7.270827e+01
8.600000e-07	-4.098394e-06	-1.078436e-09	-2.851910e+01	-7.238547e+01
8.700000e-07	-4.066985e-06	-1.060248e-09	-2.830054e+01	-7.205856e+01
8.800000e-07	-4.035475e-06	-1.067986e-09	-2.808127e+01	-7.172752e+01
8.900000e-07	-4.003777e-06	-1.065007e-09	-2.786070e+01	-7.139233e+01
9.000000e-07	-3.971843e-06	-1.048505e-09	-2.763848e+01	-7.105297e+01
9.100000e-07	-3.939628e-06	-1.049631e-09	-2.741431e+01	-7.070943e+01
9.200000e-07	-3.906982e-06	-1.049237e-09	-2.718714e+01	-7.036171e+01
9.300000e-07	-3.873914e-06	-1.031427e-09	-2.695703e+01	-7.000981e+01
9.400000e-07	-3.840566e-06	-1.026267e-09	-2.672497e+01	-6.965375e+01
9.500000e-07	-3.806876e-06	-1.031305e-09	-2.649054e+01	-6.929353e+01
9.600000e-07	-3.772596e-06	-1.017267e-09	-2.625200e+01	-6.892918e+01
9.700000e-07	-3.737822e-06	-1.007162e-09	-2.601002e+01	-6.856072e+01
9.800000e-07	-3.702759e-06	-1.012775e-09	-2.576603e+01	-6.818815e+01
9.900000e-07	-3.667429e-06	-1.008965e-09	-2.552018e+01	-6.781152e+01
1.000000e-06	-3.631869e-06	-9.956203e-10	-2.527274e+01	-6.743083e+01
1.010000e-06	-3.596177e-06	-9.956758e-10	-2.502437e+01	-6.704611e+01
1.020000e-06	-3.560422e-06	-9.924683e-10	-2.477557e+01	-6.665739e+01
1.030000e-06	-3.524580e-06	-9.789588e-10	-2.452615e+01	-6.626467e+01
1.040000e-06	-3.488546e-06	-9.747823e-10	-2.427541e+01	-6.586796e+01
1.050000e-06	-3.452231e-06	-9.778014e-10	-2.402270e+01	-6.546728e+01
1.060000e-06	-3.415688e-06	-9.669298e-10	-2.376842e+01	-6.506263e+01
1.070000e-06	-3.378795e-06	-9.574189e-10	-2.351170e+01	-6.465399e+01
1.080000e-06	-3.341630e-06	-9.549690e-10	-2.325308e+01	-6.424136e+01
1.090000e-06	-3.304278e-06	-9.482334e-10	-2.299316e+01	-6.382471e+01
1.100000e-06	-3.266619e-06	-9.359299e-10	-2.273110e+01	-6.340402e+01
1.110000e-06	-3.228702e-06	-9.335346e-10	-2.246725e+01	-6.297924e+01
1.120000e-06	-3.190589e-06	-9.273716e-10	-2.220205e+01	-6.255034e+01
1.130000e-06	-3.152309e-06	-9.161559e-10	-2.193567e+01	-6.211724e+01
1.140000e-06	-3.113803e-06	-9.103379e-10	-2.166772e+01	-6.167988e+01
1.150000e-06	-3.075093e-06	-9.043850e-10	-2.139835e+01	-6.123819e+01
1.160000e-06	-3.036108e-06	-8.932404e-10	-2.112707e+01	-6.079208e+01
1.170000e-06	-2.996895e-06	-8.848714e-10	-2.085420e+01	-6.034145e+01
1.180000e-06	-2.957539e-06	-8.811370e-10	-2.058034e+01	-5.988619e+01
1.190000e-06	-2.918027e-06	-8.739949e-10	-2.030539e+01	-5.942619e+01
1.200000e-06	-2.878445e-06	-8.643150e-10	-2.002996e+01	-5.896134e+01
1.210000e-06	-2.838725e-06	-8.582534e-10	-1.975356e+01	-5.849149e+01
1.220000e-06	-2.798914e-06	-8.498928e-10	-1.947653e+01	-5.801650e+01
1.230000e-06	-2.758997e-06	-8.386076e-10	-1.919877e+01	-5.753624e+01
1.240000e-06	-2.718828e-06	-8.303241e-10	-1.891924e+01	-5.705055e+01
1.250000e-06	-2.678384e-06	-8.209967e-10	-1.863781e+01	-5.655927e+01
1.260000e-06	-2.637716e-06	-8.110793e-10	-1.835482e+01	-5.606224e+01
1.270000e-06	-2.596849e-06	-8.029688e-10	-1.807044e+01	-5.555929e+01
1.280000e-06	-2.555659e-06	-7.961986e-10	-1.778382e+01	-5.505026e+01
1.290000e-06	-2.514217e-06	-7.874616e-10	-1.749544e+01	-5.453496e+01
1.300000e-06	-2.472497e-06	-7.784199e-10	-1.720513e+01	-5.401322e+01
1.310000e-06	-2.430443e-06	-7.684874e-10	-1.691249e+01	-5.348487e+01
1.320000e-06	-2.388016e-06	-7.580472e-10	-1.661726e+01	-5.294971e+01
1.330000e-06	-2.345286e-06	-7.484130e-10	-1.631992e+01	-5.240758e+01
1.340000e-06	-2.302371e-06	-7.421689e-10	-1.602129e+01	-5.185827e+01
1.350000e-06	-2.259149e-06	-7.345882e-10	-1.572052e+01	-5.130162e+01
1.360000e-06	-2.215782e-06	-7.236434e-10	-1.541875e+01	-5.073743e+01
1.370000e-06	-2.172375e-06	-7.141876e-10	-1.511670e+01	-5.016552e+01
1.380000e-06	-2.128854e-06	-7.094087e-10	-1.481385e+01	-4.958569e+01
1.390000e-06	-2.085246e-06	-7.036773e-10	-1.451040e+01	-4.899776e+01
1.400000e-06	-2.041559e-06	-6.933686e-10	-1.420640e+01	-4.840154e+01
1.410000e-06	-1.997801e-06	-6.820242e-10	-1.390191e+01	-4.779684e+01
1.420000e-06	-1.954022e-06	-6.727686e-10	-1.359726e+01	-4.718345e+01
1.430000e-06	-1.910165e-06	-6.617521e-10	-1.329208e+01	-4.656118e+01
1.440000e-06	-1.866121e-06	-6.513104e-10	-1.298559e+01	-4.592983e+01
1.450000e-06	-1.821965e-06	-6.395986e-10	-1.267833e+01	-4.528919e+01
1.460000e-06	-1.777781e-06	-6.275725e-10	-1.237087e+01	-4.463905e+01
1.470000e-06	-1.733490e-06	-6.152407e-10	-1.206267e+01	-4.397918e+01
1.480000e-06	-1.689009e-06	-6.033520e-10	-1.175315e+01	-4.330938e+01
1.490000e-06	-1.644346e-06	-5.940810e-10	-1.144235e+01	-4.262940e+01
1.500000e-06	-1.599500e-06	-5.867707e-10	-1.113029e+01	-4.193902e+01
1.510000e-06	-1.554566e-06	-5.797606e-10	-1.081761e+01	-4.123798e+01
1.520000e-06	-1.509588e-06	-5.693822e-10	-1.050463e+01	-4.052603e+01
1.530000e-06	-1.464498e-06	-5.559924e-10	-1.019086e+01	-3.980292e+01
1.540000e-06	-1.419256e-06	-5.409362e-10	-9.876040e+00	-3.906837e+01
1.550000e-06	-1.373911e-06	-5.261458e-10	-9.560499e+00	-3.832210e+01
1.560000e-06	-1.328488e-06	-5.144090e-10	-9.244422e+00	-3.756382e+01
1.570000e-06	-1.282987e-06	-5.036380e-10	-8.927800e+00	-3.679324e+01
1.580000e-06	-1.237383e-06	-4.927666e-10	-8.610456e+00	-3.601006e+01
1.590000e-06	-1.191658e-06	-4.850025e-10	-8.292275e+00	-3.521395e+01
1.600000e-06	-1.145884e-06	-4.749502e-10	-7.973754e+00	-3.440462e+01
1.610000e-06	-1.100085e-06	-4.612426e-10	-7.655054e+00	-3.358172e+01
1.620000e-06	-1.054179e-06	-4.470652e-10	-7.335614e+00	-3.274494e+01
1.630000e-06	-1.008121e-06	-4.348870e-10	-7.015112e+00	-3.189394e+01
1.640000e-06	-9.620585e-07	-4.241370e-10	-6.694584e+00	-3.102839e+01
1.650000e-06	-9.160174e-07	-4.115738e-10	-6.374202e+00	-3.014797e+01
1.660000e-06	-8.698802e-07	-3.973924e-10	-6.053151e+00	-2.925234e+01
1.670000e-06	-8.235992e-07	-3.834144e-10	-5.731100e+00	-2.834119e+01
1.680000e-06	-7.771103e-07	-3.669258e-10	-5.407602e+00	-2.741420e+01
1.690000e-06	-7.306143e-07	-3.504116e-10	-5.084055e+00	-2.647107e+01
1.700000e-06	-6.841911e-07	-3.365627e-10	-4.761015e+00	-2.551152e+01
1.710000e-06	-6.377399e-07	-3.237392e-10	-4.437779e+00	-2.453526e+01
1.720000e-06	-5.913028e-07	-3.097056e-10	-4.114642e+00	-2.354206e+01
1.730000e-06	-5.447723e-07	-2.920109e-10	-3.790854e+00	-2.253168e+01
1.740000e-06	-4.981147e-07	-2.712789e-10	-3.466182e+00	-2.150391e+01
1.750000e-06	-4.514601e-07	-2.506861e-10	-3.141532e+00	-2.045861e+01
1.760000e-06	-4.048055e-07	-2.337324e-10	-2.816881e+00	-1.939561e+01
1.770000e-06	-3.580615e-07	-2.202123e-10	-2.491608e+00	-1.831483e+01
1.780000e-06	-3.112467e-07	-2.063026e-10	-2.165842e+00	-1.721621e+01
1.790000e-06	-2.643929e-07	-1.931938e-10	-1.839805e+00	-1.609972e+01
1.800000e-06	-2.175869e-07	-1.805684e-10	-1.514101e+00	-1.496540e+01
1.810000e-06	-1.708520e-07	-1.627844e-10	-1.188892e+00	-1.381334e+01
1.820000e-06	-1.240488e-07	-1.425805e-10	-8.632064e-01	-1.264366e+01
1.830000e-06	-7.709040e-08	-1.260378e-10	-5.364415e-01	-1.145654e+01
1.840000e-06	-3.020403e-08	-1.115626e-10	-2.101778e-01	-1.025225e+01
1.850000e-06	1.670438e-08	-9.547803e-11	1.162392e-01	-9.031072e+00
1.860000e-06	6.367779e-08	-7.902352e-11	4.431085e-01	-7.793383e+00
1.870000e-06	1.104945e-07	-6.419777e-11	7.688873e-01	-6.539609e+00
1.880000e-06	1.572260e-07	-4.696088e-11	1.094073e+00	-5.270240e+00
1.890000e-06	2.039687e-07	-2.523800e-11	1.419337e+00	-3.985833e+00
1.900000e-06	2.506869e-07	-3.132154e-12	1.744431e+00	-2.687006e+00
1.910000e-06	2.974677e-07	1.753074e-11	2.069960e+00	-1.374442e+00
1.920000e-06	3.442490e-07	3.735647e-11	2.395492e+00	-4.888724e-02
1.930000e-06	3.908847e-07	5.222829e-11	2.720012e+00	1.288850e+00
1.940000e-06	4.375660e-07	6.673551e-11	3.044848e+00	2.637902e+00
1.950000e-06	4.842305e-07	8.254735e-11	3.369568e+00	3.997343e+00
1.960000e-06	5.307597e-07	9.918057e-11	3.693346e+00	5.366189e+00
1.970000e-06	5.773245e-07	1.198782e-10	4.017372e+00	6.743406e+00
1.980000e-06	6.238281e-07	1.428041e-10	4.340972e+00	8.127910e+00
1.990000e-06	6.701546e-07	1.637048e-10	4.663340e+00	9.518571e+00
2.000000e-06	7.164735e-07	1.821764e-10	4.985655e+00	1.091422e+01
2.010000e-06	7.627166e-07	2.005004e-10	5.307442e+00	1.231364e+01
2.020000e-06	8.088630e-07	2.180756e-10	5.628557e+00	1.371560e+01
2.030000e-06	8.549577e-07	2.381038e-10	5.949312e+00	1.511883e+01
2.040000e-06	9.010069e-07	2.592246e-10	6.269750e+00	1.652204e+01
2.050000e-06	9.470497e-07	2.803385e-10	6.590143e+00	1.792393e+01
2.060000e-06	9.931617e-07	3.012552e-10	6.911019e+00	1.932318e+01
2.070000e-06	1.039213e-06	3.223080e-10	7.231472e+00	2.071848e+01
2.080000e-06	1.085049e-06	3.435808e-10	7.550425e+00	2.210850e+01
2.090000e-06	1.130790e-06	3.639681e-10	7.868718e+00	2.349195e+01
2.100000e-06	1.176515e-06	3.837311e-10	8.186900e+00	2.486752e+01
2.110000e-06	1.222149e-06	4.030708e-10	8.504453e+00	2.623394e+01
2.120000e-06	1.267662e-06	4.184744e-10	8.821158e+00	2.758998e+01
2.130000e-06	1.313195e-06	4.341316e-10	9.138004e+00	2.893440e+01
2.140000e-06	1.358668e-06	4.521321e-10	9.454431e+00	3.026604e+01
2.150000e-06	1.403968e-06	4.735921e-10	9.769657e+00	3.158377e+01
2.160000e-06	1.449159e-06	4.955771e-10	1.008413e+01	3.288650e+01
2.170000e-06	1.494235e-06	5.151128e-10	1.039779e+01	3.417319e+01
2.180000e-06	1.539221e-06	5.338837e-10	1.071083e+01	3.544289e+01
2.190000e-06	1.584059e-06	5.510749e-10	1.102284e+01	3.669467e+01
2.200000e-06	1.628775e-06	5.653630e-10	1.133400e+01	3.792769e+01
2.210000e-06	1.673408e-06	5.761464e-10	1.164459e+01	3.914118e+01
2.220000e-06	1.717813e-06	5.882852e-10	1.195358e+01	4.033443e+01
2.230000e-06	1.762002e-06	6.053969e-10	1.226107e+01	4.150681e+01
2.240000e-06	1.806116e-06	6.243173e-10	1.256805e+01	4.265776e+01
2.250000e-06	1.850159e-06	6.421669e-10	1.287452e+01	4.378681e+01
2.260000e-06	1.894082e-06	6.566073e-10	1.318017e+01	4.489356e+01
2.270000e-06	1.937903e-06	6.686078e-10	1.348510e+01	4.597769e+01
2.280000e-06	1.981650e-06	6.842074e-10	1.378952e+01	4.703894e+01
2.290000e-06	2.025340e-06	6.980076e-10	1.409354e+01	4.807715e+01
2.300000e-06	2.068955e-06	7.112461e-10	1.439704e+01	4.909223e+01
2.310000e-06	2.112513e-06	7.241660e-10	1.470014e+01	5.008415e+01
2.320000e-06	2.156003e-06	7.381276e-10	1.500277e+01	5.105296e+01
2.330000e-06	2.199409e-06	7.523839e-10	1.530482e+01	5.199879e+01
2.340000e-06	2.242725e-06	7.658929e-10	1.560624e+01	5.292180e+01
2.350000e-06	2.285962e-06	7.797504e-10	1.590711e+01	5.382224e+01
2.360000e-06	2.329018e-06	7.956810e-10	1.620671e+01	5.470042e+01
2.370000e-06	2.371864e-06	8.111100e-10	1.650486e+01	5.555668e+01
2.380000e-06	2.414447e-06	8.211043e-10	1.680118e+01	5.639142e+01
2.390000e-06	2.456659e-06	8.306784e-10	1.709492e+01	5.720508e+01
2.400000e-06	2.498538e-06	8.423991e-10	1.738634e+01	5.799816e+01
2.410000e-06	2.540003e-06	8.521516e-10	1.767487e+01	5.877115e+01
2.420000e-06	2.581061e-06	8.596873e-10	1.796058e+01	5.952461e+01
2.430000e-06	2.621834e-06	8.696186e-10	1.824430e+01	6.025910e+01
2.440000e-06	2.662317e-06	8.821033e-10	1.852601e+01	6.097521e+01
2.450000e-06	2.702585e-06	8.933222e-10	1.880622e+01	6.167352e+01
2.460000e-06	2.742787e-06	9.030927e-10	1.908597e+01	6.235465e+01
2.470000e-06	2.782809e-06	9.141031e-10	1.936446e+01	6.301920e+01
2.480000e-06	2.822612e-06	9.256263e-10	1.964144e+01	6.366777e+01
2.490000e-06	2.862292e-06	9.369573e-10	1.991756e+01	6.430097e+01
2.500000e-06	2.901833e-06	9.450259e-10	2.019270e+01	6.491938e+01
2.510000e-06	2.941329e-06	9.519777e-10	2.046754e+01	6.552358e+01
2.520000e-06	2.980756e-06	9.613808e-10	2.074190e+01	6.611412e+01
2.530000e-06	3.019962e-06	9.721690e-10	2.101472e+01	6.669154e+01
2.540000e-06	3.058940e-06	9.813154e-10	2.128595e+01	6.725635e+01
2.550000e-06	3.097785e-06	9.886695e-10	2.155626e+01	6.780902e+01
2.560000e-06	3.136335e-06	9.965076e-10	2.182451e+01	6.835003e+01
2.570000e-06	3.174547e-06	1.005661e-09	2.209041e+01	6.887979e+01
2.580000e-06	3.212533e-06	1.012652e-09	2.235474e+01	6.939871e+01
2.590000e-06	3.250312e-06	1.019192e-09	2.261763e+01	6.990713e+01
2.600000e-06	3.287959e-06	1.026908e-09	2.287960e+01	7.040540e+01
2.610000e-06	3.325437e-06	1.033765e-09	2.314040e+01	7.089380e+01
2.620000e-06	3.362678e-06	1.037967e-09	2.339954e+01	7.137261e+01
2.630000e-06	3.399614e-06	1.042570e-09	2.365656e+01	7.184206e+01
2.640000e-06	3.436182e-06	1.048958e-09	2.391103e+01	7.230234e+01
2.650000e-06	3.472436e-06	1.056682e-09	2.416331e+01	7.275364e+01
2.660000e-06	3.508495e-06	1.064210e-09	2.441423e+01	7.319611e+01
2.670000e-06	3.544389e-06	1.068531e-09	2.466400e+01	7.362985e+01
2.680000e-06	3.580137e-06	1.072838e-09	2.491276e+01	7.405497e+01
2.690000e-06	3.615764e-06	1.080132e-09	2.516067e+01	7.447155e+01
2.700000e-06	3.651318e-06	1.087353e-09	2.540807e+01	7.487964e+01
2.710000e-06	3.686793e-06	1.093797e-09	2.565493e+01	7.527928e+01
2.720000e-06	3.721990e-06	1.102076e-09	2.589985e+01	7.567051e+01
2.730000e-06	3.756866e-06	1.110374e-09	2.614254e+01	7.605333e+01
2.740000e-06	3.791400e-06	1.116952e-09	2.638285e+01	7.642777e+01
2.750000e-06	3.825397e-06	1.121651e-09	2.661942e+01	7.679383e+01
2.760000e-06	3.858907e-06	1.125855e-09	2.685260e+01	7.715150e+01
2.770000e-06	3.891993e-06	1.130600e-09	2.708284e+01	7.750080e+01
2.780000e-06	3.924650e-06	1.136060e-09	2.731008e+01	7.784173e+01
2.790000e-06	3.956896e-06	1.141655e-09	2.753447e+01	7.817430e+01
2.800000e-06	3.988841e-06	1.147920e-09	2.775676e+01	7.849852e+01
2.810000e-06	4.020665e-06	1.153516e-09	2.797821e+01	7.881444e+01
2.820000e-06	4.052334e-06	1.158219e-09	2.819859e+01	7.912208e+01
2.830000e-06	4.083796e-06	1.163069e-09	2.841751e+01	7.942149e+01
2.840000e-06	4.115096e-06	1.167706e-09	2.863532e+01	7.971274e+01
2.850000e-06	4.146216e-06	1.171368e-09	2.885187e+01	7.999590e+01
2.860000e-06	4.177011e-06	1.176716e-09	2.906616e+01	8.027108e+01
2.870000e-06	4.207454e-06	1.182570e-09	2.927800e+01	8.053836e+01
2.880000e-06	4.237611e-06	1.187373e-09	2.948786e+01	8.079789e+01
2.890000e-06	4.267364e-06	1.193248e-09	2.969490e+01	8.104979e+01
2.900000e-06	4.296796e-06	1.199676e-09	2.989970e+01	8.129422e+01
2.910000e-06	4.326065e-06	1.202673e-09	3.010337e+01	8.153134e+01
