# Temperatura_=_11.6
# Concentracion g/m^3_=_1620.0
# C_Vs_to_Am_M_A/Vsm_=_65563218390.804596
# pendiente_HvsI_1/m_=_3716.3
# ordenada_HvsI_A/m_=_1297.0
# frecuencia_Hz_=_135087.41166165672

Tiempo_(s)	Campo_(V.s)	Magnetizacion_(V.s)	Campo_(kA/m)	Magnetizacion_(A/m)
0.000000e+00	-5.508773e-06	-1.542340e-09	-3.837918e+01	-1.009737e+02
1.000000e-08	-5.509111e-06	-1.538315e-09	-3.838153e+01	-1.009850e+02
2.000000e-08	-5.509239e-06	-1.537358e-09	-3.838242e+01	-1.009929e+02
3.000000e-08	-5.509034e-06	-1.539940e-09	-3.838099e+01	-1.009974e+02
4.000000e-08	-5.508320e-06	-1.541041e-09	-3.837602e+01	-1.009981e+02
5.000000e-08	-5.507035e-06	-1.532698e-09	-3.836707e+01	-1.009949e+02
6.000000e-08	-5.505139e-06	-1.519510e-09	-3.835386e+01	-1.009877e+02
7.000000e-08	-5.502703e-06	-1.534223e-09	-3.833689e+01	-1.009762e+02
8.000000e-08	-5.499785e-06	-1.590434e-09	-3.831656e+01	-1.009602e+02
9.000000e-08	-5.496353e-06	-1.605152e-09	-3.829265e+01	-1.009396e+02
1.000000e-07	-5.492435e-06	-1.555301e-09	-3.826535e+01	-1.009142e+02
1.100000e-07	-5.488183e-06	-1.480866e-09	-3.823573e+01	-1.008837e+02
1.200000e-07	-5.483737e-06	-1.455008e-09	-3.820475e+01	-1.008481e+02
1.300000e-07	-5.479024e-06	-1.507554e-09	-3.817192e+01	-1.008071e+02
1.400000e-07	-5.473927e-06	-1.559496e-09	-3.813641e+01	-1.007607e+02
1.500000e-07	-5.468489e-06	-1.520722e-09	-3.809852e+01	-1.007085e+02
1.600000e-07	-5.462758e-06	-1.482661e-09	-3.805859e+01	-1.006506e+02
1.700000e-07	-5.456638e-06	-1.502857e-09	-3.801596e+01	-1.005868e+02
1.800000e-07	-5.450090e-06	-1.583819e-09	-3.797034e+01	-1.005169e+02
1.900000e-07	-5.443115e-06	-1.539151e-09	-3.792175e+01	-1.004410e+02
2.000000e-07	-5.435826e-06	-1.456629e-09	-3.787096e+01	-1.003588e+02
2.100000e-07	-5.428231e-06	-1.453024e-09	-3.781805e+01	-1.002704e+02
2.200000e-07	-5.420305e-06	-1.545103e-09	-3.776283e+01	-1.001756e+02
2.300000e-07	-5.412109e-06	-1.548117e-09	-3.770572e+01	-1.000745e+02
2.400000e-07	-5.403548e-06	-1.487170e-09	-3.764608e+01	-9.996695e+01
2.500000e-07	-5.394390e-06	-1.482972e-09	-3.758228e+01	-9.985303e+01
2.600000e-07	-5.384443e-06	-1.519075e-09	-3.751298e+01	-9.973271e+01
2.700000e-07	-5.373886e-06	-1.504390e-09	-3.743943e+01	-9.960602e+01
2.800000e-07	-5.362893e-06	-1.457892e-09	-3.736284e+01	-9.947300e+01
2.900000e-07	-5.351452e-06	-1.486859e-09	-3.728314e+01	-9.933368e+01
3.000000e-07	-5.339588e-06	-1.513826e-09	-3.720048e+01	-9.918812e+01
3.100000e-07	-5.327323e-06	-1.496176e-09	-3.711503e+01	-9.903640e+01
3.200000e-07	-5.314652e-06	-1.460141e-09	-3.702675e+01	-9.887860e+01
3.300000e-07	-5.301602e-06	-1.492210e-09	-3.693583e+01	-9.871480e+01
3.400000e-07	-5.288210e-06	-1.488949e-09	-3.684253e+01	-9.854510e+01
3.500000e-07	-5.274398e-06	-1.487356e-09	-3.674631e+01	-9.836961e+01
3.600000e-07	-5.260176e-06	-1.475239e-09	-3.664722e+01	-9.818844e+01
3.700000e-07	-5.245543e-06	-1.480162e-09	-3.654528e+01	-9.800170e+01
3.800000e-07	-5.230382e-06	-1.474930e-09	-3.643965e+01	-9.780951e+01
3.900000e-07	-5.214607e-06	-1.495883e-09	-3.632974e+01	-9.761198e+01
4.000000e-07	-5.198318e-06	-1.475410e-09	-3.621626e+01	-9.740925e+01
4.100000e-07	-5.181772e-06	-1.450941e-09	-3.610099e+01	-9.720142e+01
4.200000e-07	-5.165002e-06	-1.459665e-09	-3.598415e+01	-9.698861e+01
4.300000e-07	-5.147828e-06	-1.469599e-09	-3.586450e+01	-9.677094e+01
4.400000e-07	-5.130220e-06	-1.448183e-09	-3.574183e+01	-9.654852e+01
4.500000e-07	-5.112219e-06	-1.471335e-09	-3.561642e+01	-9.632145e+01
4.600000e-07	-5.093856e-06	-1.484959e-09	-3.548848e+01	-9.608982e+01
4.700000e-07	-5.075101e-06	-1.439124e-09	-3.535782e+01	-9.585373e+01
4.800000e-07	-5.055984e-06	-1.434414e-09	-3.522463e+01	-9.561325e+01
4.900000e-07	-5.036661e-06	-1.480558e-09	-3.509001e+01	-9.536847e+01
5.000000e-07	-5.017158e-06	-1.447926e-09	-3.495413e+01	-9.511944e+01
5.100000e-07	-4.997423e-06	-1.404951e-09	-3.481664e+01	-9.486622e+01
5.200000e-07	-4.977372e-06	-1.445357e-09	-3.467695e+01	-9.460885e+01
5.300000e-07	-4.956887e-06	-1.452243e-09	-3.453423e+01	-9.434736e+01
5.400000e-07	-4.936097e-06	-1.412400e-09	-3.438939e+01	-9.408178e+01
5.500000e-07	-4.915048e-06	-1.434927e-09	-3.424275e+01	-9.381212e+01
5.600000e-07	-4.893679e-06	-1.450837e-09	-3.409387e+01	-9.353838e+01
5.700000e-07	-4.871940e-06	-1.396219e-09	-3.394241e+01	-9.326056e+01
5.800000e-07	-4.849881e-06	-1.406847e-09	-3.378873e+01	-9.297862e+01
5.900000e-07	-4.827438e-06	-1.448004e-09	-3.363237e+01	-9.269256e+01
6.000000e-07	-4.804474e-06	-1.409706e-09	-3.347238e+01	-9.240233e+01
6.100000e-07	-4.781225e-06	-1.378865e-09	-3.331041e+01	-9.210789e+01
6.200000e-07	-4.757841e-06	-1.412541e-09	-3.314749e+01	-9.180919e+01
6.300000e-07	-4.734313e-06	-1.388866e-09	-3.298358e+01	-9.150616e+01
6.400000e-07	-4.710529e-06	-1.352705e-09	-3.281787e+01	-9.119876e+01
6.500000e-07	-4.686390e-06	-1.375938e-09	-3.264970e+01	-9.088690e+01
6.600000e-07	-4.661810e-06	-1.386892e-09	-3.247846e+01	-9.057052e+01
6.700000e-07	-4.636703e-06	-1.356177e-09	-3.230354e+01	-9.024954e+01
6.800000e-07	-4.611126e-06	-1.367352e-09	-3.212534e+01	-8.992389e+01
6.900000e-07	-4.584963e-06	-1.373619e-09	-3.194307e+01	-8.959348e+01
7.000000e-07	-4.558236e-06	-1.346190e-09	-3.175686e+01	-8.925824e+01
7.100000e-07	-4.531176e-06	-1.332061e-09	-3.156834e+01	-8.891810e+01
7.200000e-07	-4.503857e-06	-1.341354e-09	-3.137801e+01	-8.857297e+01
7.300000e-07	-4.476364e-06	-1.329360e-09	-3.118647e+01	-8.822278e+01
7.400000e-07	-4.448704e-06	-1.323643e-09	-3.099377e+01	-8.786746e+01
7.500000e-07	-4.420771e-06	-1.332252e-09	-3.079915e+01	-8.750696e+01
7.600000e-07	-4.392560e-06	-1.328313e-09	-3.060261e+01	-8.714120e+01
7.700000e-07	-4.364170e-06	-1.311227e-09	-3.040482e+01	-8.677014e+01
7.800000e-07	-4.335479e-06	-1.304498e-09	-3.020494e+01	-8.639372e+01
7.900000e-07	-4.306439e-06	-1.297295e-09	-3.000261e+01	-8.601190e+01
8.000000e-07	-4.277127e-06	-1.283737e-09	-2.979840e+01	-8.562466e+01
8.100000e-07	-4.247465e-06	-1.272781e-09	-2.959175e+01	-8.523195e+01
8.200000e-07	-4.217526e-06	-1.264752e-09	-2.938316e+01	-8.483376e+01
8.300000e-07	-4.187254e-06	-1.255646e-09	-2.917226e+01	-8.443008e+01
8.400000e-07	-4.156642e-06	-1.250034e-09	-2.895899e+01	-8.402090e+01
8.500000e-07	-4.125794e-06	-1.244943e-09	-2.874407e+01	-8.360623e+01
8.600000e-07	-4.094719e-06	-1.231500e-09	-2.852758e+01	-8.318607e+01
8.700000e-07	-4.063398e-06	-1.223398e-09	-2.830936e+01	-8.276045e+01
8.800000e-07	-4.031851e-06	-1.217257e-09	-2.808958e+01	-8.232939e+01
8.900000e-07	-4.000097e-06	-1.210154e-09	-2.786836e+01	-8.189292e+01
9.000000e-07	-3.968114e-06	-1.199207e-09	-2.764553e+01	-8.145108e+01
9.100000e-07	-3.935811e-06	-1.191295e-09	-2.742048e+01	-8.100392e+01
9.200000e-07	-3.903188e-06	-1.180549e-09	-2.719320e+01	-8.055148e+01
9.300000e-07	-3.870220e-06	-1.171339e-09	-2.696351e+01	-8.009383e+01
9.400000e-07	-3.836835e-06	-1.164989e-09	-2.673092e+01	-7.963102e+01
9.500000e-07	-3.802963e-06	-1.161245e-09	-2.649493e+01	-7.916311e+01
9.600000e-07	-3.768677e-06	-1.153129e-09	-2.625607e+01	-7.869018e+01
9.700000e-07	-3.734101e-06	-1.146012e-09	-2.601518e+01	-7.821229e+01
9.800000e-07	-3.699132e-06	-1.138309e-09	-2.577155e+01	-7.772952e+01
9.900000e-07	-3.663838e-06	-1.130837e-09	-2.552566e+01	-7.724194e+01
1.000000e-06	-3.628369e-06	-1.121585e-09	-2.527856e+01	-7.674961e+01
1.010000e-06	-3.592831e-06	-1.116295e-09	-2.503096e+01	-7.625263e+01
1.020000e-06	-3.557172e-06	-1.108799e-09	-2.478253e+01	-7.575105e+01
1.030000e-06	-3.521279e-06	-1.101101e-09	-2.453247e+01	-7.524495e+01
1.040000e-06	-3.485076e-06	-1.094441e-09	-2.428024e+01	-7.473441e+01
1.050000e-06	-3.448669e-06	-1.088867e-09	-2.402660e+01	-7.421949e+01
1.060000e-06	-3.412025e-06	-1.079192e-09	-2.377130e+01	-7.370025e+01
1.070000e-06	-3.375133e-06	-1.069547e-09	-2.351428e+01	-7.317675e+01
1.080000e-06	-3.338079e-06	-1.062586e-09	-2.325612e+01	-7.264906e+01
1.090000e-06	-3.300800e-06	-1.054831e-09	-2.299641e+01	-7.211722e+01
1.100000e-06	-3.263257e-06	-1.044264e-09	-2.273485e+01	-7.158129e+01
1.110000e-06	-3.225500e-06	-1.032302e-09	-2.247180e+01	-7.104130e+01
1.120000e-06	-3.187487e-06	-1.021137e-09	-2.220697e+01	-7.049729e+01
1.130000e-06	-3.149174e-06	-1.012004e-09	-2.194004e+01	-6.994930e+01
1.140000e-06	-3.110688e-06	-1.004601e-09	-2.167191e+01	-6.939734e+01
1.150000e-06	-3.071969e-06	-9.977883e-10	-2.140216e+01	-6.884143e+01
1.160000e-06	-3.033042e-06	-9.916333e-10	-2.113096e+01	-6.828158e+01
1.170000e-06	-2.993986e-06	-9.864207e-10	-2.085886e+01	-6.771780e+01
1.180000e-06	-2.954769e-06	-9.823659e-10	-2.058564e+01	-6.715008e+01
1.190000e-06	-2.915375e-06	-9.757926e-10	-2.031118e+01	-6.657840e+01
1.200000e-06	-2.875865e-06	-9.668463e-10	-2.003592e+01	-6.600274e+01
1.210000e-06	-2.836355e-06	-9.546190e-10	-1.976066e+01	-6.542306e+01
1.220000e-06	-2.796707e-06	-9.432402e-10	-1.948443e+01	-6.483934e+01
1.230000e-06	-2.756776e-06	-9.309292e-10	-1.920624e+01	-6.425152e+01
1.240000e-06	-2.716592e-06	-9.208591e-10	-1.892628e+01	-6.365953e+01
1.250000e-06	-2.676193e-06	-9.108152e-10	-1.864482e+01	-6.306331e+01
1.260000e-06	-2.635524e-06	-9.019195e-10	-1.836148e+01	-6.246278e+01
1.270000e-06	-2.594625e-06	-8.917001e-10	-1.807654e+01	-6.185784e+01
1.280000e-06	-2.553519e-06	-8.811500e-10	-1.779016e+01	-6.124839e+01
1.290000e-06	-2.512138e-06	-8.699654e-10	-1.750186e+01	-6.063432e+01
1.300000e-06	-2.470490e-06	-8.584312e-10	-1.721170e+01	-6.001550e+01
1.310000e-06	-2.428480e-06	-8.460862e-10	-1.691902e+01	-5.939179e+01
1.320000e-06	-2.386124e-06	-8.333943e-10	-1.662393e+01	-5.876304e+01
1.330000e-06	-2.343515e-06	-8.211712e-10	-1.632708e+01	-5.812907e+01
1.340000e-06	-2.300733e-06	-8.109336e-10	-1.602902e+01	-5.748972e+01
1.350000e-06	-2.257803e-06	-8.020250e-10	-1.572993e+01	-5.684479e+01
1.360000e-06	-2.214634e-06	-7.936665e-10	-1.542918e+01	-5.619407e+01
1.370000e-06	-2.171268e-06	-7.849095e-10	-1.512705e+01	-5.553734e+01
1.380000e-06	-2.127767e-06	-7.777549e-10	-1.482398e+01	-5.487435e+01
1.390000e-06	-2.084174e-06	-7.701801e-10	-1.452027e+01	-5.420487e+01
1.400000e-06	-2.040549e-06	-7.581139e-10	-1.421634e+01	-5.352861e+01
1.410000e-06	-1.996898e-06	-7.433126e-10	-1.391223e+01	-5.284530e+01
1.420000e-06	-1.953131e-06	-7.277061e-10	-1.360731e+01	-5.215464e+01
1.430000e-06	-1.909277e-06	-7.158326e-10	-1.330178e+01	-5.145631e+01
1.440000e-06	-1.865308e-06	-7.073025e-10	-1.299545e+01	-5.074999e+01
1.450000e-06	-1.821263e-06	-6.989052e-10	-1.268859e+01	-5.003533e+01
1.460000e-06	-1.777170e-06	-6.919644e-10	-1.238140e+01	-4.931198e+01
1.470000e-06	-1.732846e-06	-6.812718e-10	-1.207260e+01	-4.857956e+01
1.480000e-06	-1.688337e-06	-6.638702e-10	-1.176251e+01	-4.783769e+01
1.490000e-06	-1.643836e-06	-6.470181e-10	-1.145247e+01	-4.708597e+01
1.500000e-06	-1.599241e-06	-6.355209e-10	-1.114179e+01	-4.632400e+01
1.510000e-06	-1.554402e-06	-6.274330e-10	-1.082940e+01	-4.555135e+01
1.520000e-06	-1.509322e-06	-6.155738e-10	-1.051533e+01	-4.476762e+01
1.530000e-06	-1.464104e-06	-6.017383e-10	-1.020029e+01	-4.397235e+01
1.540000e-06	-1.418904e-06	-5.880031e-10	-9.885391e+00	-4.316511e+01
1.550000e-06	-1.373644e-06	-5.759312e-10	-9.570066e+00	-4.234546e+01
1.560000e-06	-1.328212e-06	-5.652537e-10	-9.253546e+00	-4.151295e+01
1.570000e-06	-1.282721e-06	-5.545183e-10	-8.936612e+00	-4.066714e+01
1.580000e-06	-1.237188e-06	-5.429965e-10	-8.619386e+00	-3.980759e+01
1.590000e-06	-1.191525e-06	-5.321792e-10	-8.301259e+00	-3.893386e+01
1.600000e-06	-1.145764e-06	-5.224112e-10	-7.982445e+00	-3.804552e+01
1.610000e-06	-1.099970e-06	-5.101175e-10	-7.663406e+00	-3.714214e+01
1.620000e-06	-1.054120e-06	-4.940626e-10	-7.343966e+00	-3.622333e+01
1.630000e-06	-1.008137e-06	-4.813375e-10	-7.023608e+00	-3.528869e+01
1.640000e-06	-9.620598e-07	-4.730374e-10	-6.702593e+00	-3.433783e+01
1.650000e-06	-9.159429e-07	-4.611826e-10	-6.381300e+00	-3.337042e+01
1.660000e-06	-8.698049e-07	-4.464222e-10	-6.059861e+00	-3.238611e+01
1.670000e-06	-8.235212e-07	-4.329068e-10	-5.737406e+00	-3.138460e+01
1.680000e-06	-7.771899e-07	-4.178637e-10	-5.414620e+00	-3.036563e+01
1.690000e-06	-7.308994e-07	-4.019433e-10	-5.092117e+00	-2.932895e+01
1.700000e-06	-6.845378e-07	-3.869893e-10	-4.769119e+00	-2.827434e+01
1.710000e-06	-6.381811e-07	-3.713846e-10	-4.446157e+00	-2.720165e+01
1.720000e-06	-5.917187e-07	-3.543688e-10	-4.122456e+00	-2.611075e+01
1.730000e-06	-5.451990e-07	-3.356994e-10	-3.798357e+00	-2.500155e+01
1.740000e-06	-4.986877e-07	-3.162808e-10	-3.474317e+00	-2.387402e+01
1.750000e-06	-4.521044e-07	-2.973824e-10	-3.149775e+00	-2.272816e+01
1.760000e-06	-4.054477e-07	-2.826161e-10	-2.824721e+00	-2.156403e+01
1.770000e-06	-3.587205e-07	-2.710144e-10	-2.499177e+00	-2.038175e+01
1.780000e-06	-3.120513e-07	-2.585002e-10	-2.174036e+00	-1.918148e+01
1.790000e-06	-2.654219e-07	-2.440072e-10	-1.849173e+00	-1.796343e+01
1.800000e-06	-2.187639e-07	-2.268734e-10	-1.524110e+00	-1.672789e+01
1.810000e-06	-1.720497e-07	-2.065481e-10	-1.198656e+00	-1.547519e+01
1.820000e-06	-1.252824e-07	-1.856615e-10	-8.728321e-01	-1.420571e+01
1.830000e-06	-7.852418e-08	-1.676931e-10	-5.470717e-01	-1.291989e+01
1.840000e-06	-3.180046e-08	-1.521586e-10	-2.215513e-01	-1.161825e+01
1.850000e-06	1.494722e-08	-1.360096e-10	1.041361e-01	-1.030134e+01
1.860000e-06	6.171908e-08	-1.208741e-10	4.299918e-01	-8.969778e+00
1.870000e-06	1.084237e-07	-1.054746e-10	7.553789e-01	-7.624228e+00
1.880000e-06	1.550825e-07	-8.582288e-11	1.080447e+00	-6.265416e+00
1.890000e-06	2.017540e-07	-6.352145e-11	1.405604e+00	-4.894115e+00
1.900000e-06	2.483619e-07	-4.160019e-11	1.730317e+00	-3.511149e+00
1.910000e-06	2.950240e-07	-2.007495e-11	2.055409e+00	-2.117388e+00
1.920000e-06	3.417474e-07	-7.551651e-14	2.380926e+00	-7.137458e-01
1.930000e-06	3.884517e-07	1.565282e-11	2.706312e+00	6.988226e-01
1.940000e-06	4.351390e-07	3.280300e-11	3.031578e+00	2.119324e+00
1.950000e-06	4.816946e-07	5.129435e-11	3.355928e+00	3.546732e+00
1.960000e-06	5.281814e-07	7.048429e-11	3.679797e+00	4.979988e+00
1.970000e-06	5.745087e-07	9.177907e-11	4.002556e+00	6.418009e+00
1.980000e-06	6.207352e-07	1.126664e-10	4.324612e+00	7.859689e+00
1.990000e-06	6.670580e-07	1.348860e-10	4.647340e+00	9.303902e+00
2.000000e-06	7.133083e-07	1.537879e-10	4.969562e+00	1.074951e+01
2.010000e-06	7.595300e-07	1.739327e-10	5.291584e+00	1.219537e+01
2.020000e-06	8.057010e-07	1.949418e-10	5.613254e+00	1.364033e+01
2.030000e-06	8.517963e-07	2.192174e-10	5.934396e+00	1.508323e+01
2.040000e-06	8.979452e-07	2.441070e-10	6.255912e+00	1.652294e+01
2.050000e-06	9.440472e-07	2.670168e-10	6.577101e+00	1.795832e+01
2.060000e-06	9.899915e-07	2.886992e-10	6.897191e+00	1.938824e+01
2.070000e-06	1.035838e-06	3.046157e-10	7.216599e+00	2.081160e+01
2.080000e-06	1.081662e-06	3.221558e-10	7.535853e+00	2.222732e+01
2.090000e-06	1.127376e-06	3.419730e-10	7.854335e+00	2.363436e+01
2.100000e-06	1.173010e-06	3.638316e-10	8.172264e+00	2.503168e+01
2.110000e-06	1.218556e-06	3.892198e-10	8.489579e+00	2.641831e+01
2.120000e-06	1.264026e-06	4.127182e-10	8.806370e+00	2.779329e+01
2.130000e-06	1.309426e-06	4.339879e-10	9.122662e+00	2.915573e+01
2.140000e-06	1.354781e-06	4.536384e-10	9.438648e+00	3.050476e+01
2.150000e-06	1.400053e-06	4.707620e-10	9.754053e+00	3.183958e+01
2.160000e-06	1.445156e-06	4.869664e-10	1.006829e+01	3.315942e+01
2.170000e-06	1.490091e-06	5.030372e-10	1.038134e+01	3.446358e+01
2.180000e-06	1.534934e-06	5.235158e-10	1.069376e+01	3.575141e+01
2.190000e-06	1.579706e-06	5.444073e-10	1.100568e+01	3.702230e+01
2.200000e-06	1.624392e-06	5.655357e-10	1.131701e+01	3.827573e+01
2.210000e-06	1.668942e-06	5.853449e-10	1.162739e+01	3.951122e+01
2.220000e-06	1.713286e-06	6.015128e-10	1.193632e+01	4.072833e+01
2.230000e-06	1.757505e-06	6.146417e-10	1.224439e+01	4.192671e+01
2.240000e-06	1.801612e-06	6.270977e-10	1.255169e+01	4.310606e+01
2.250000e-06	1.845581e-06	6.406686e-10	1.285801e+01	4.426613e+01
2.260000e-06	1.889482e-06	6.554572e-10	1.316387e+01	4.540672e+01
2.270000e-06	1.933317e-06	6.704843e-10	1.346926e+01	4.652771e+01
2.280000e-06	1.977022e-06	6.898543e-10	1.377375e+01	4.762902e+01
2.290000e-06	2.020686e-06	7.085905e-10	1.407795e+01	4.871061e+01
2.300000e-06	2.064334e-06	7.263852e-10	1.438205e+01	4.977251e+01
2.310000e-06	2.107900e-06	7.386895e-10	1.468557e+01	5.081480e+01
2.320000e-06	2.151347e-06	7.501136e-10	1.498826e+01	5.183758e+01
2.330000e-06	2.194687e-06	7.644732e-10	1.529021e+01	5.284102e+01
2.340000e-06	2.237967e-06	7.789594e-10	1.559174e+01	5.382531e+01
2.350000e-06	2.281094e-06	7.950519e-10	1.589220e+01	5.479069e+01
2.360000e-06	2.323935e-06	8.124129e-10	1.619067e+01	5.573742e+01
2.370000e-06	2.366622e-06	8.297738e-10	1.648807e+01	5.666581e+01
2.380000e-06	2.409059e-06	8.397863e-10	1.678372e+01	5.757617e+01
2.390000e-06	2.451072e-06	8.466897e-10	1.707642e+01	5.846886e+01
2.400000e-06	2.492812e-06	8.548343e-10	1.736722e+01	5.934425e+01
2.410000e-06	2.534343e-06	8.657260e-10	1.765656e+01	6.020271e+01
2.420000e-06	2.575600e-06	8.800736e-10	1.794400e+01	6.104466e+01
2.430000e-06	2.616587e-06	8.982054e-10	1.822955e+01	6.187050e+01
2.440000e-06	2.657285e-06	9.167014e-10	1.851309e+01	6.268064e+01
2.450000e-06	2.697655e-06	9.303764e-10	1.879435e+01	6.347551e+01
2.460000e-06	2.737786e-06	9.386656e-10	1.907394e+01	6.425554e+01
2.470000e-06	2.777735e-06	9.483408e-10	1.935225e+01	6.502113e+01
2.480000e-06	2.817486e-06	9.583073e-10	1.962920e+01	6.577272e+01
2.490000e-06	2.857190e-06	9.708997e-10	1.990582e+01	6.651071e+01
2.500000e-06	2.896841e-06	9.852795e-10	2.018206e+01	6.723551e+01
2.510000e-06	2.936284e-06	9.973849e-10	2.045685e+01	6.794752e+01
2.520000e-06	2.975556e-06	1.009182e-09	2.073046e+01	6.864711e+01
2.530000e-06	3.014568e-06	1.022185e-09	2.100225e+01	6.933466e+01
2.540000e-06	3.053299e-06	1.030883e-09	2.127209e+01	7.001053e+01
2.550000e-06	3.091866e-06	1.037600e-09	2.154078e+01	7.067505e+01
2.560000e-06	3.130268e-06	1.045176e-09	2.180833e+01	7.132855e+01
2.570000e-06	3.168508e-06	1.054260e-09	2.207474e+01	7.197134e+01
2.580000e-06	3.206487e-06	1.063544e-09	2.233934e+01	7.260370e+01
2.590000e-06	3.244251e-06	1.073827e-09	2.260243e+01	7.322592e+01
2.600000e-06	3.281906e-06	1.084360e-09	2.286477e+01	7.383825e+01
2.610000e-06	3.319293e-06	1.094573e-09	2.312524e+01	7.444092e+01
2.620000e-06	3.356359e-06	1.101748e-09	2.338348e+01	7.503416e+01
2.630000e-06	3.393195e-06	1.106671e-09	2.364011e+01	7.561818e+01
2.640000e-06	3.429741e-06	1.113995e-09	2.389473e+01	7.619316e+01
2.650000e-06	3.466096e-06	1.123902e-09	2.414801e+01	7.675928e+01
2.660000e-06	3.502277e-06	1.135782e-09	2.440008e+01	7.731670e+01
2.670000e-06	3.538225e-06	1.145214e-09	2.465053e+01	7.786557e+01
2.680000e-06	3.574055e-06	1.152613e-09	2.490015e+01	7.840602e+01
2.690000e-06	3.609746e-06	1.160250e-09	2.514881e+01	7.893818e+01
2.700000e-06	3.645325e-06	1.166955e-09	2.539668e+01	7.946215e+01
2.710000e-06	3.680691e-06	1.172768e-09	2.564308e+01	7.997806e+01
2.720000e-06	3.715756e-06	1.182284e-09	2.588737e+01	8.048598e+01
2.730000e-06	3.750528e-06	1.193281e-09	2.612963e+01	8.098601e+01
2.740000e-06	3.784931e-06	1.205576e-09	2.636931e+01	8.147824e+01
2.750000e-06	3.818877e-06	1.212706e-09	2.660581e+01	8.196274e+01
2.760000e-06	3.852416e-06	1.216051e-09	2.683947e+01	8.243958e+01
2.770000e-06	3.885527e-06	1.220041e-09	2.707016e+01	8.290884e+01
2.780000e-06	3.918178e-06	1.225665e-09	2.729763e+01	8.337059e+01
2.790000e-06	3.950489e-06	1.233385e-09	2.752274e+01	8.382489e+01
2.800000e-06	3.982480e-06	1.242221e-09	2.774562e+01	8.427180e+01
2.810000e-06	4.014287e-06	1.250222e-09	2.796722e+01	8.471140e+01
2.820000e-06	4.045946e-06	1.256407e-09	2.818778e+01	8.514375e+01
2.830000e-06	4.077402e-06	1.263419e-09	2.840693e+01	8.556892e+01
2.840000e-06	4.108570e-06	1.270201e-09	2.862408e+01	8.598696e+01
2.850000e-06	4.139514e-06	1.276017e-09	2.883966e+01	8.639796e+01
2.860000e-06	4.170214e-06	1.283242e-09	2.905354e+01	8.680196e+01
2.870000e-06	4.200626e-06	1.288563e-09	2.926542e+01	8.719906e+01
2.880000e-06	4.230757e-06	1.291625e-09	2.947535e+01	8.758930e+01
2.890000e-06	4.260615e-06	1.295152e-09	2.968336e+01	8.797277e+01
2.900000e-06	4.290216e-06	1.301179e-09	2.988959e+01	8.834954e+01
