# Temperatura_=_-3.74
# Concentracion g/m^3_=_1620.0
# C_Vs_to_Am_M_A/Vsm_=_65563218390.804596
# pendiente_HvsI_1/m_=_3716.3
# ordenada_HvsI_A/m_=_1297.0
# frecuencia_Hz_=_135108.08490878262

Tiempo_(s)	Campo_(V.s)	Magnetizacion_(V.s)	Campo_(kA/m)	Magnetizacion_(A/m)
0.000000e+00	-5.512954e-06	-7.868528e-10	-3.837177e+01	-5.342484e+01
1.000000e-08	-5.513041e-06	-7.807361e-10	-3.837238e+01	-5.341260e+01
2.000000e-08	-5.512862e-06	-7.775296e-10	-3.837113e+01	-5.340147e+01
3.000000e-08	-5.512230e-06	-7.764009e-10	-3.836674e+01	-5.339137e+01
4.000000e-08	-5.510915e-06	-7.700674e-10	-3.835758e+01	-5.338221e+01
5.000000e-08	-5.508953e-06	-7.567606e-10	-3.834393e+01	-5.337387e+01
6.000000e-08	-5.506552e-06	-7.590472e-10	-3.832722e+01	-5.336624e+01
7.000000e-08	-5.503745e-06	-7.928568e-10	-3.830767e+01	-5.335921e+01
8.000000e-08	-5.500554e-06	-8.274026e-10	-3.828547e+01	-5.335264e+01
9.000000e-08	-5.496831e-06	-8.195106e-10	-3.825955e+01	-5.334641e+01
1.000000e-07	-5.492589e-06	-7.878987e-10	-3.823003e+01	-5.334037e+01
1.100000e-07	-5.488088e-06	-7.655609e-10	-3.819870e+01	-5.333439e+01
1.200000e-07	-5.483334e-06	-7.539875e-10	-3.816561e+01	-5.332833e+01
1.300000e-07	-5.478203e-06	-7.617619e-10	-3.812990e+01	-5.332203e+01
1.400000e-07	-5.472786e-06	-7.564768e-10	-3.809220e+01	-5.331536e+01
1.500000e-07	-5.467098e-06	-7.542327e-10	-3.805261e+01	-5.330818e+01
1.600000e-07	-5.460973e-06	-7.656398e-10	-3.800997e+01	-5.330033e+01
1.700000e-07	-5.454371e-06	-7.889848e-10	-3.796402e+01	-5.329169e+01
1.800000e-07	-5.447482e-06	-8.224328e-10	-3.791607e+01	-5.328210e+01
1.900000e-07	-5.440300e-06	-7.996151e-10	-3.786608e+01	-5.327145e+01
2.000000e-07	-5.432755e-06	-7.928657e-10	-3.781356e+01	-5.325958e+01
2.100000e-07	-5.424962e-06	-8.020866e-10	-3.775933e+01	-5.324639e+01
2.200000e-07	-5.416879e-06	-8.351365e-10	-3.770306e+01	-5.323175e+01
2.300000e-07	-5.408424e-06	-8.247097e-10	-3.764422e+01	-5.321554e+01
2.400000e-07	-5.399393e-06	-8.189375e-10	-3.758136e+01	-5.319766e+01
2.500000e-07	-5.389679e-06	-8.178727e-10	-3.751374e+01	-5.317800e+01
2.600000e-07	-5.379392e-06	-8.183372e-10	-3.744214e+01	-5.315646e+01
2.700000e-07	-5.368538e-06	-7.986706e-10	-3.736660e+01	-5.313296e+01
2.800000e-07	-5.357207e-06	-8.103815e-10	-3.728773e+01	-5.310742e+01
2.900000e-07	-5.345561e-06	-8.227873e-10	-3.720667e+01	-5.307974e+01
3.000000e-07	-5.333539e-06	-8.023741e-10	-3.712300e+01	-5.304988e+01
3.100000e-07	-5.321096e-06	-8.000671e-10	-3.703639e+01	-5.301775e+01
3.200000e-07	-5.308266e-06	-8.205184e-10	-3.694709e+01	-5.298330e+01
3.300000e-07	-5.295060e-06	-8.262652e-10	-3.685517e+01	-5.294648e+01
3.400000e-07	-5.281447e-06	-8.026475e-10	-3.676042e+01	-5.290725e+01
3.500000e-07	-5.267404e-06	-8.210288e-10	-3.666268e+01	-5.286556e+01
3.600000e-07	-5.252972e-06	-8.276255e-10	-3.656222e+01	-5.282137e+01
3.700000e-07	-5.238022e-06	-8.149979e-10	-3.645817e+01	-5.277466e+01
3.800000e-07	-5.222389e-06	-8.152662e-10	-3.634936e+01	-5.272539e+01
3.900000e-07	-5.206214e-06	-8.419577e-10	-3.623678e+01	-5.267355e+01
4.000000e-07	-5.189619e-06	-8.188841e-10	-3.612127e+01	-5.261911e+01
4.100000e-07	-5.172641e-06	-8.054851e-10	-3.600310e+01	-5.256205e+01
4.200000e-07	-5.155467e-06	-8.238662e-10	-3.588356e+01	-5.250236e+01
4.300000e-07	-5.138066e-06	-8.274895e-10	-3.576244e+01	-5.244004e+01
4.400000e-07	-5.120274e-06	-7.981374e-10	-3.563861e+01	-5.237506e+01
4.500000e-07	-5.102004e-06	-8.188639e-10	-3.551144e+01	-5.230742e+01
4.600000e-07	-5.083270e-06	-8.271333e-10	-3.538105e+01	-5.223712e+01
4.700000e-07	-5.064210e-06	-8.019587e-10	-3.524839e+01	-5.216414e+01
4.800000e-07	-5.044894e-06	-8.029579e-10	-3.511394e+01	-5.208849e+01
4.900000e-07	-5.025308e-06	-8.304137e-10	-3.497762e+01	-5.201016e+01
5.000000e-07	-5.005521e-06	-8.017690e-10	-3.483990e+01	-5.192915e+01
5.100000e-07	-4.985550e-06	-7.852798e-10	-3.470089e+01	-5.184545e+01
5.200000e-07	-4.965223e-06	-8.148689e-10	-3.455941e+01	-5.175908e+01
5.300000e-07	-4.944480e-06	-8.165103e-10	-3.441503e+01	-5.167003e+01
5.400000e-07	-4.923405e-06	-7.886894e-10	-3.426834e+01	-5.157829e+01
5.500000e-07	-4.902060e-06	-8.009000e-10	-3.411977e+01	-5.148389e+01
5.600000e-07	-4.880366e-06	-8.058484e-10	-3.396878e+01	-5.138681e+01
5.700000e-07	-4.858238e-06	-7.836194e-10	-3.381476e+01	-5.128708e+01
5.800000e-07	-4.835728e-06	-7.936006e-10	-3.365808e+01	-5.118469e+01
5.900000e-07	-4.812839e-06	-8.096919e-10	-3.349877e+01	-5.107967e+01
6.000000e-07	-4.789604e-06	-7.889959e-10	-3.333705e+01	-5.097201e+01
6.100000e-07	-4.766169e-06	-7.780620e-10	-3.317393e+01	-5.086175e+01
6.200000e-07	-4.742574e-06	-7.896523e-10	-3.300970e+01	-5.074890e+01
6.300000e-07	-4.718778e-06	-7.755497e-10	-3.284408e+01	-5.063349e+01
6.400000e-07	-4.694678e-06	-7.706642e-10	-3.267633e+01	-5.051554e+01
6.500000e-07	-4.670178e-06	-7.856939e-10	-3.250581e+01	-5.039508e+01
6.600000e-07	-4.645179e-06	-7.861363e-10	-3.233180e+01	-5.027215e+01
6.700000e-07	-4.619611e-06	-7.759507e-10	-3.215385e+01	-5.014678e+01
6.800000e-07	-4.593566e-06	-7.860113e-10	-3.197256e+01	-5.001903e+01
6.900000e-07	-4.566945e-06	-7.808592e-10	-3.178727e+01	-4.988895e+01
7.000000e-07	-4.539770e-06	-7.691507e-10	-3.159813e+01	-4.975657e+01
7.100000e-07	-4.512305e-06	-7.693711e-10	-3.140697e+01	-4.962197e+01
7.200000e-07	-4.484701e-06	-7.733579e-10	-3.121483e+01	-4.948520e+01
7.300000e-07	-4.456982e-06	-7.627168e-10	-3.102190e+01	-4.934633e+01
7.400000e-07	-4.429063e-06	-7.659582e-10	-3.082758e+01	-4.920542e+01
7.500000e-07	-4.400886e-06	-7.686028e-10	-3.063145e+01	-4.906257e+01
7.600000e-07	-4.372438e-06	-7.616226e-10	-3.043345e+01	-4.891783e+01
7.700000e-07	-4.343683e-06	-7.547140e-10	-3.023330e+01	-4.877129e+01
7.800000e-07	-4.314584e-06	-7.577582e-10	-3.003077e+01	-4.862304e+01
7.900000e-07	-4.285176e-06	-7.525774e-10	-2.982608e+01	-4.847316e+01
8.000000e-07	-4.255460e-06	-7.476668e-10	-2.961925e+01	-4.832174e+01
8.100000e-07	-4.225445e-06	-7.481907e-10	-2.941034e+01	-4.816885e+01
8.200000e-07	-4.195195e-06	-7.453808e-10	-2.919978e+01	-4.801460e+01
8.300000e-07	-4.164609e-06	-7.375396e-10	-2.898690e+01	-4.785905e+01
8.400000e-07	-4.133716e-06	-7.360560e-10	-2.877188e+01	-4.770231e+01
8.500000e-07	-4.102622e-06	-7.335723e-10	-2.855545e+01	-4.754445e+01
8.600000e-07	-4.071260e-06	-7.261669e-10	-2.833717e+01	-4.738555e+01
8.700000e-07	-4.039647e-06	-7.223398e-10	-2.811713e+01	-4.722569e+01
8.800000e-07	-4.007883e-06	-7.239992e-10	-2.789604e+01	-4.706492e+01
8.900000e-07	-3.975994e-06	-7.233103e-10	-2.767408e+01	-4.690333e+01
9.000000e-07	-3.943900e-06	-7.193184e-10	-2.745070e+01	-4.674096e+01
9.100000e-07	-3.911406e-06	-7.206050e-10	-2.722453e+01	-4.657786e+01
9.200000e-07	-3.878455e-06	-7.163375e-10	-2.699518e+01	-4.641408e+01
9.300000e-07	-3.845133e-06	-7.086616e-10	-2.676325e+01	-4.624965e+01
9.400000e-07	-3.811339e-06	-7.052901e-10	-2.652804e+01	-4.608459e+01
9.500000e-07	-3.777011e-06	-7.062564e-10	-2.628910e+01	-4.591891e+01
9.600000e-07	-3.742317e-06	-6.992982e-10	-2.604762e+01	-4.575261e+01
9.700000e-07	-3.707330e-06	-6.966359e-10	-2.580410e+01	-4.558568e+01
9.800000e-07	-3.672031e-06	-6.986013e-10	-2.555841e+01	-4.541811e+01
9.900000e-07	-3.636550e-06	-6.980103e-10	-2.531146e+01	-4.524985e+01
1.000000e-06	-3.600947e-06	-6.929130e-10	-2.506364e+01	-4.508086e+01
1.010000e-06	-3.565189e-06	-6.924867e-10	-2.481476e+01	-4.491109e+01
1.020000e-06	-3.529277e-06	-6.886402e-10	-2.456480e+01	-4.474045e+01
1.030000e-06	-3.493155e-06	-6.817401e-10	-2.431338e+01	-4.456886e+01
1.040000e-06	-3.456811e-06	-6.768008e-10	-2.406042e+01	-4.439624e+01
1.050000e-06	-3.420250e-06	-6.753876e-10	-2.380594e+01	-4.422246e+01
1.060000e-06	-3.383371e-06	-6.707592e-10	-2.354925e+01	-4.404741e+01
1.070000e-06	-3.346242e-06	-6.687407e-10	-2.329083e+01	-4.387095e+01
1.080000e-06	-3.308930e-06	-6.673321e-10	-2.303113e+01	-4.369295e+01
1.090000e-06	-3.271405e-06	-6.622034e-10	-2.276993e+01	-4.351324e+01
1.100000e-06	-3.233668e-06	-6.549521e-10	-2.250727e+01	-4.333167e+01
1.110000e-06	-3.195694e-06	-6.507621e-10	-2.224297e+01	-4.314806e+01
1.120000e-06	-3.157469e-06	-6.463761e-10	-2.197691e+01	-4.296224e+01
1.130000e-06	-3.119008e-06	-6.414708e-10	-2.170921e+01	-4.277401e+01
1.140000e-06	-3.080304e-06	-6.384941e-10	-2.143982e+01	-4.258318e+01
1.150000e-06	-3.041309e-06	-6.335367e-10	-2.116840e+01	-4.238955e+01
1.160000e-06	-3.002160e-06	-6.262936e-10	-2.089591e+01	-4.219291e+01
1.170000e-06	-2.962877e-06	-6.211629e-10	-2.062249e+01	-4.199307e+01
1.180000e-06	-2.923397e-06	-6.196767e-10	-2.034770e+01	-4.178980e+01
1.190000e-06	-2.883808e-06	-6.174050e-10	-2.007215e+01	-4.158289e+01
1.200000e-06	-2.844101e-06	-6.149858e-10	-1.979577e+01	-4.137213e+01
1.210000e-06	-2.804332e-06	-6.135606e-10	-1.951897e+01	-4.115731e+01
1.220000e-06	-2.764495e-06	-6.122339e-10	-1.924170e+01	-4.093821e+01
1.230000e-06	-2.724454e-06	-6.078055e-10	-1.896300e+01	-4.071461e+01
1.240000e-06	-2.684147e-06	-6.028003e-10	-1.868245e+01	-4.048631e+01
1.250000e-06	-2.643634e-06	-5.969379e-10	-1.840047e+01	-4.025310e+01
1.260000e-06	-2.602955e-06	-5.923316e-10	-1.811733e+01	-4.001477e+01
1.270000e-06	-2.562060e-06	-5.874140e-10	-1.783269e+01	-3.977112e+01
1.280000e-06	-2.520910e-06	-5.849305e-10	-1.754627e+01	-3.952195e+01
1.290000e-06	-2.479512e-06	-5.830481e-10	-1.725813e+01	-3.926707e+01
1.300000e-06	-2.437716e-06	-5.784240e-10	-1.696722e+01	-3.900628e+01
1.310000e-06	-2.395484e-06	-5.719463e-10	-1.667327e+01	-3.873939e+01
1.320000e-06	-2.352965e-06	-5.677617e-10	-1.637733e+01	-3.846623e+01
1.330000e-06	-2.310192e-06	-5.628950e-10	-1.607962e+01	-3.818661e+01
1.340000e-06	-2.267224e-06	-5.604525e-10	-1.578054e+01	-3.790036e+01
1.350000e-06	-2.224029e-06	-5.582106e-10	-1.547989e+01	-3.760731e+01
1.360000e-06	-2.180635e-06	-5.558567e-10	-1.517786e+01	-3.730728e+01
1.370000e-06	-2.137135e-06	-5.537315e-10	-1.487509e+01	-3.700011e+01
1.380000e-06	-2.093559e-06	-5.521472e-10	-1.457178e+01	-3.668562e+01
1.390000e-06	-2.049904e-06	-5.470659e-10	-1.426793e+01	-3.636366e+01
1.400000e-06	-2.006145e-06	-5.411990e-10	-1.396336e+01	-3.603406e+01
1.410000e-06	-1.962256e-06	-5.381689e-10	-1.365788e+01	-3.569665e+01
1.420000e-06	-1.918289e-06	-5.354270e-10	-1.335186e+01	-3.535127e+01
1.430000e-06	-1.874252e-06	-5.330515e-10	-1.304535e+01	-3.499774e+01
1.440000e-06	-1.830104e-06	-5.291935e-10	-1.273806e+01	-3.463590e+01
1.450000e-06	-1.785871e-06	-5.234024e-10	-1.243019e+01	-3.426556e+01
1.460000e-06	-1.741515e-06	-5.147662e-10	-1.212146e+01	-3.388656e+01
1.470000e-06	-1.697002e-06	-5.025289e-10	-1.181163e+01	-3.349870e+01
1.480000e-06	-1.652350e-06	-4.896061e-10	-1.150084e+01	-3.310180e+01
1.490000e-06	-1.607604e-06	-4.830645e-10	-1.118940e+01	-3.269567e+01
1.500000e-06	-1.562774e-06	-4.837545e-10	-1.087737e+01	-3.228009e+01
1.510000e-06	-1.517808e-06	-4.855961e-10	-1.056439e+01	-3.185488e+01
1.520000e-06	-1.472688e-06	-4.828220e-10	-1.025034e+01	-3.141980e+01
1.530000e-06	-1.427454e-06	-4.751086e-10	-9.935497e+00	-3.097466e+01
1.540000e-06	-1.382128e-06	-4.599023e-10	-9.620013e+00	-3.051921e+01
1.550000e-06	-1.336725e-06	-4.429579e-10	-9.303996e+00	-3.005322e+01
1.560000e-06	-1.291244e-06	-4.273811e-10	-8.987438e+00	-2.957647e+01
1.570000e-06	-1.245701e-06	-4.175178e-10	-8.670445e+00	-2.908871e+01
1.580000e-06	-1.200094e-06	-4.134084e-10	-8.353003e+00	-2.858968e+01
1.590000e-06	-1.154334e-06	-4.122900e-10	-8.034502e+00	-2.807915e+01
1.600000e-06	-1.108396e-06	-4.111711e-10	-7.714763e+00	-2.755686e+01
1.610000e-06	-1.062378e-06	-4.053041e-10	-7.394464e+00	-2.702256e+01
1.620000e-06	-1.016359e-06	-3.961586e-10	-7.074153e+00	-2.647599e+01
1.630000e-06	-9.702821e-07	-3.853916e-10	-6.753448e+00	-2.591691e+01
1.640000e-06	-9.241333e-07	-3.721085e-10	-6.432238e+00	-2.534506e+01
1.650000e-06	-8.778780e-07	-3.586783e-10	-6.110288e+00	-2.476021e+01
1.660000e-06	-8.316392e-07	-3.475634e-10	-5.788452e+00	-2.416211e+01
1.670000e-06	-7.853972e-07	-3.398215e-10	-5.466594e+00	-2.355056e+01
1.680000e-06	-7.390378e-07	-3.341890e-10	-5.143920e+00	-2.292532e+01
1.690000e-06	-6.926339e-07	-3.295084e-10	-4.820935e+00	-2.228621e+01
1.700000e-06	-6.462094e-07	-3.220665e-10	-4.497807e+00	-2.163303e+01
1.710000e-06	-5.997643e-07	-3.115882e-10	-4.174535e+00	-2.096562e+01
1.720000e-06	-5.532467e-07	-2.964831e-10	-3.850759e+00	-2.028384e+01
1.730000e-06	-5.067012e-07	-2.775095e-10	-3.526789e+00	-1.958757e+01
1.740000e-06	-4.601345e-07	-2.591825e-10	-3.202671e+00	-1.887670e+01
1.750000e-06	-4.135200e-07	-2.455615e-10	-2.878221e+00	-1.815116e+01
1.760000e-06	-3.668442e-07	-2.380620e-10	-2.553343e+00	-1.741092e+01
1.770000e-06	-3.200921e-07	-2.331340e-10	-2.227935e+00	-1.665597e+01
1.780000e-06	-2.732644e-07	-2.280128e-10	-1.902000e+00	-1.588633e+01
1.790000e-06	-2.264368e-07	-2.182351e-10	-1.576066e+00	-1.510206e+01
1.800000e-06	-1.796495e-07	-2.038960e-10	-1.250413e+00	-1.430326e+01
1.810000e-06	-1.328660e-07	-1.872266e-10	-9.247866e-01	-1.349006e+01
1.820000e-06	-8.612262e-08	-1.736209e-10	-5.994387e-01	-1.266264e+01
1.830000e-06	-3.940146e-08	-1.636522e-10	-2.742457e-01	-1.182123e+01
1.840000e-06	7.354744e-09	-1.531165e-10	5.119118e-02	-1.096607e+01
1.850000e-06	5.410617e-08	-1.419822e-10	3.765948e-01	-1.009747e+01
1.860000e-06	1.008574e-07	-1.322338e-10	7.019969e-01	-9.215774e+00
1.870000e-06	1.476316e-07	-1.203807e-10	1.027559e+00	-8.321373e+00
1.880000e-06	1.943453e-07	-1.050778e-10	1.352700e+00	-7.414697e+00
1.890000e-06	2.409931e-07	-8.805424e-11	1.677383e+00	-6.496221e+00
1.900000e-06	2.876776e-07	-7.065723e-11	2.002321e+00	-5.566461e+00
1.910000e-06	3.343842e-07	-5.498064e-11	2.327412e+00	-4.625977e+00
1.920000e-06	3.810599e-07	-4.346179e-11	2.652288e+00	-3.675365e+00
1.930000e-06	4.276902e-07	-3.413229e-11	2.976849e+00	-2.715264e+00
1.940000e-06	4.742205e-07	-2.339076e-11	3.300713e+00	-1.746348e+00
1.950000e-06	5.207077e-07	-9.709783e-12	3.624278e+00	-7.693241e-01
1.960000e-06	5.671848e-07	5.993654e-12	3.947773e+00	2.150642e-01
1.970000e-06	6.136255e-07	2.200126e-11	4.271013e+00	1.206045e+00
1.980000e-06	6.600116e-07	3.830109e-11	4.593874e+00	2.202819e+00
1.990000e-06	7.063289e-07	5.330217e-11	4.916256e+00	3.204561e+00
2.000000e-06	7.526088e-07	6.553286e-11	5.238378e+00	4.210424e+00
2.010000e-06	7.988236e-07	7.768106e-11	5.560046e+00	5.219542e+00
2.020000e-06	8.449954e-07	9.125898e-11	5.881415e+00	6.231036e+00
2.030000e-06	8.911474e-07	1.066505e-10	6.202647e+00	7.244012e+00
2.040000e-06	9.372141e-07	1.224357e-10	6.523285e+00	8.257569e+00
2.050000e-06	9.831515e-07	1.375311e-10	6.843022e+00	9.270801e+00
2.060000e-06	1.028998e-06	1.510031e-10	7.162131e+00	1.028280e+01
2.070000e-06	1.074853e-06	1.642789e-10	7.481294e+00	1.129266e+01
2.080000e-06	1.120668e-06	1.802660e-10	7.800179e+00	1.229948e+01
2.090000e-06	1.166346e-06	1.972642e-10	8.118108e+00	1.330238e+01
2.100000e-06	1.211926e-06	2.138503e-10	8.435363e+00	1.430047e+01
2.110000e-06	1.257390e-06	2.262112e-10	8.751804e+00	1.529290e+01
2.120000e-06	1.302787e-06	2.345199e-10	9.067780e+00	1.627882e+01
2.130000e-06	1.348213e-06	2.440370e-10	9.383958e+00	1.725742e+01
2.140000e-06	1.393574e-06	2.578398e-10	9.699684e+00	1.822790e+01
2.150000e-06	1.438863e-06	2.747489e-10	1.001491e+01	1.918949e+01
2.160000e-06	1.484029e-06	2.906252e-10	1.032928e+01	2.014147e+01
2.170000e-06	1.529005e-06	3.059770e-10	1.064232e+01	2.108313e+01
2.180000e-06	1.573844e-06	3.219799e-10	1.095441e+01	2.201381e+01
2.190000e-06	1.618492e-06	3.334009e-10	1.126518e+01	2.293288e+01
2.200000e-06	1.662982e-06	3.428749e-10	1.157484e+01	2.383975e+01
2.210000e-06	1.707379e-06	3.528361e-10	1.188386e+01	2.473387e+01
2.220000e-06	1.751692e-06	3.640880e-10	1.219229e+01	2.561474e+01
2.230000e-06	1.795887e-06	3.780030e-10	1.249990e+01	2.648188e+01
2.240000e-06	1.839967e-06	3.910671e-10	1.280671e+01	2.733489e+01
2.250000e-06	1.883929e-06	4.031769e-10	1.311270e+01	2.817337e+01
2.260000e-06	1.927798e-06	4.155736e-10	1.341804e+01	2.899699e+01
2.270000e-06	1.971629e-06	4.301693e-10	1.372312e+01	2.980546e+01
2.280000e-06	2.015387e-06	4.431597e-10	1.402769e+01	3.059852e+01
2.290000e-06	2.059067e-06	4.536684e-10	1.433171e+01	3.137598e+01
2.300000e-06	2.102681e-06	4.628773e-10	1.463527e+01	3.213764e+01
2.310000e-06	2.146213e-06	4.707216e-10	1.493827e+01	3.288339e+01
2.320000e-06	2.189695e-06	4.791099e-10	1.524092e+01	3.361314e+01
2.330000e-06	2.233140e-06	4.889873e-10	1.554331e+01	3.432682e+01
2.340000e-06	2.276466e-06	5.012188e-10	1.584487e+01	3.502443e+01
2.350000e-06	2.319559e-06	5.160583e-10	1.614481e+01	3.570596e+01
2.360000e-06	2.362326e-06	5.321963e-10	1.644248e+01	3.637146e+01
2.370000e-06	2.404745e-06	5.431084e-10	1.673773e+01	3.702100e+01
2.380000e-06	2.446889e-06	5.493962e-10	1.703106e+01	3.765468e+01
2.390000e-06	2.488713e-06	5.548033e-10	1.732217e+01	3.827263e+01
2.400000e-06	2.530133e-06	5.599712e-10	1.761046e+01	3.887498e+01
2.410000e-06	2.571238e-06	5.668565e-10	1.789657e+01	3.946190e+01
2.420000e-06	2.612072e-06	5.758592e-10	1.818079e+01	4.003357e+01
2.430000e-06	2.652623e-06	5.877179e-10	1.846303e+01	4.059020e+01
2.440000e-06	2.693023e-06	6.001039e-10	1.874423e+01	4.113198e+01
2.450000e-06	2.733314e-06	6.122429e-10	1.902466e+01	4.165914e+01
2.460000e-06	2.773372e-06	6.219192e-10	1.930348e+01	4.217191e+01
2.470000e-06	2.813252e-06	6.278341e-10	1.958106e+01	4.267053e+01
2.480000e-06	2.852987e-06	6.325576e-10	1.985762e+01	4.315524e+01
2.490000e-06	2.892611e-06	6.374175e-10	2.013342e+01	4.362628e+01
2.500000e-06	2.932149e-06	6.435816e-10	2.040862e+01	4.408390e+01
2.510000e-06	2.971529e-06	6.513114e-10	2.068271e+01	4.452835e+01
2.520000e-06	3.010717e-06	6.621321e-10	2.095547e+01	4.495988e+01
2.530000e-06	3.049701e-06	6.728618e-10	2.122682e+01	4.537872e+01
2.540000e-06	3.088478e-06	6.807316e-10	2.149671e+01	4.578513e+01
2.550000e-06	3.127007e-06	6.851867e-10	2.176488e+01	4.617933e+01
2.560000e-06	3.165278e-06	6.879548e-10	2.203126e+01	4.656157e+01
2.570000e-06	3.203313e-06	6.910708e-10	2.229600e+01	4.693206e+01
2.580000e-06	3.241204e-06	6.951856e-10	2.255973e+01	4.729104e+01
2.590000e-06	3.278925e-06	7.008182e-10	2.282228e+01	4.763871e+01
2.600000e-06	3.316424e-06	7.077282e-10	2.308328e+01	4.797529e+01
2.610000e-06	3.353692e-06	7.129303e-10	2.334268e+01	4.830099e+01
2.620000e-06	3.390629e-06	7.159760e-10	2.359977e+01	4.861600e+01
2.630000e-06	3.427238e-06	7.175208e-10	2.385458e+01	4.892051e+01
2.640000e-06	3.463629e-06	7.191252e-10	2.410787e+01	4.921472e+01
2.650000e-06	3.499825e-06	7.200710e-10	2.435981e+01	4.949881e+01
2.660000e-06	3.535840e-06	7.217735e-10	2.461048e+01	4.977297e+01
2.670000e-06	3.571712e-06	7.259346e-10	2.486016e+01	5.003736e+01
2.680000e-06	3.607479e-06	7.313356e-10	2.510911e+01	5.029216e+01
2.690000e-06	3.643195e-06	7.384636e-10	2.535770e+01	5.053755e+01
2.700000e-06	3.678695e-06	7.443495e-10	2.560479e+01	5.077370e+01
2.710000e-06	3.713859e-06	7.485459e-10	2.584954e+01	5.100078e+01
2.720000e-06	3.748718e-06	7.491732e-10	2.609218e+01	5.121895e+01
2.730000e-06	3.783180e-06	7.479884e-10	2.633204e+01	5.142839e+01
2.740000e-06	3.817115e-06	7.477160e-10	2.656824e+01	5.162927e+01
2.750000e-06	3.850626e-06	7.485321e-10	2.680148e+01	5.182176e+01
2.760000e-06	3.883780e-06	7.513195e-10	2.703224e+01	5.200604e+01
2.770000e-06	3.916493e-06	7.566680e-10	2.725994e+01	5.218229e+01
2.780000e-06	3.948851e-06	7.621033e-10	2.748516e+01	5.235068e+01
2.790000e-06	3.980946e-06	7.653744e-10	2.770855e+01	5.251141e+01
2.800000e-06	4.012832e-06	7.662075e-10	2.793048e+01	5.266465e+01
2.810000e-06	4.044560e-06	7.652888e-10	2.815132e+01	5.281061e+01
2.820000e-06	4.076086e-06	7.652524e-10	2.837076e+01	5.294946e+01
2.830000e-06	4.107407e-06	7.689602e-10	2.858875e+01	5.308142e+01
2.840000e-06	4.138503e-06	7.753453e-10	2.880519e+01	5.320668e+01
2.850000e-06	4.169274e-06	7.826492e-10	2.901937e+01	5.332544e+01
2.860000e-06	4.199721e-06	7.869658e-10	2.923129e+01	5.343790e+01
2.870000e-06	4.229856e-06	7.866774e-10	2.944104e+01	5.354429e+01
2.880000e-06	4.259688e-06	7.848739e-10	2.964868e+01	5.364480e+01
2.890000e-06	4.289296e-06	7.842024e-10	2.985476e+01	5.373964e+01
2.900000e-06	4.318647e-06	7.845162e-10	3.005905e+01	5.382903e+01
