# Temperatura_=_-2.52
# Concentracion g/m^3_=_1620.0
# C_Vs_to_Am_M_A/Vsm_=_65563218390.804596
# pendiente_HvsI_1/m_=_3716.3
# ordenada_HvsI_A/m_=_1297.0
# frecuencia_Hz_=_135107.46346899142

Tiempo_(s)	Campo_(V.s)	Magnetizacion_(V.s)	Campo_(kA/m)	Magnetizacion_(A/m)
0.000000e+00	-5.499242e-06	-8.320060e-10	-3.836391e+01	-5.639820e+01
1.000000e-08	-5.499421e-06	-8.319176e-10	-3.836517e+01	-5.636324e+01
2.000000e-08	-5.499277e-06	-8.358773e-10	-3.836416e+01	-5.633053e+01
3.000000e-08	-5.498735e-06	-8.370483e-10	-3.836037e+01	-5.629991e+01
4.000000e-08	-5.497704e-06	-8.300496e-10	-3.835318e+01	-5.627118e+01
5.000000e-08	-5.496015e-06	-8.149950e-10	-3.834140e+01	-5.624414e+01
6.000000e-08	-5.493661e-06	-8.178509e-10	-3.832498e+01	-5.621854e+01
7.000000e-08	-5.490844e-06	-8.651582e-10	-3.830533e+01	-5.619416e+01
8.000000e-08	-5.487574e-06	-8.981761e-10	-3.828252e+01	-5.617072e+01
9.000000e-08	-5.483877e-06	-8.405545e-10	-3.825673e+01	-5.614794e+01
1.000000e-07	-5.479839e-06	-7.720827e-10	-3.822855e+01	-5.612556e+01
1.100000e-07	-5.475541e-06	-7.741761e-10	-3.819857e+01	-5.610327e+01
1.200000e-07	-5.470989e-06	-8.520454e-10	-3.816681e+01	-5.608077e+01
1.300000e-07	-5.466022e-06	-8.709849e-10	-3.813217e+01	-5.605776e+01
1.400000e-07	-5.460652e-06	-8.133244e-10	-3.809471e+01	-5.603393e+01
1.500000e-07	-5.455026e-06	-7.878755e-10	-3.805546e+01	-5.600898e+01
1.600000e-07	-5.449106e-06	-8.406776e-10	-3.801416e+01	-5.598260e+01
1.700000e-07	-5.442728e-06	-8.653711e-10	-3.796966e+01	-5.595449e+01
1.800000e-07	-5.435884e-06	-8.274654e-10	-3.792192e+01	-5.592436e+01
1.900000e-07	-5.428715e-06	-7.641220e-10	-3.787190e+01	-5.589192e+01
2.000000e-07	-5.421298e-06	-8.233418e-10	-3.782016e+01	-5.585690e+01
2.100000e-07	-5.413588e-06	-8.879819e-10	-3.776638e+01	-5.581903e+01
2.200000e-07	-5.405565e-06	-8.894703e-10	-3.771041e+01	-5.577806e+01
2.300000e-07	-5.397204e-06	-8.147363e-10	-3.765208e+01	-5.573375e+01
2.400000e-07	-5.388305e-06	-8.154918e-10	-3.758999e+01	-5.568589e+01
2.500000e-07	-5.378744e-06	-8.500658e-10	-3.752329e+01	-5.563428e+01
2.600000e-07	-5.368614e-06	-8.427490e-10	-3.745262e+01	-5.557872e+01
2.700000e-07	-5.357954e-06	-8.092140e-10	-3.737826e+01	-5.551906e+01
2.800000e-07	-5.346804e-06	-8.323378e-10	-3.730047e+01	-5.545514e+01
2.900000e-07	-5.335285e-06	-8.704407e-10	-3.722011e+01	-5.538686e+01
3.000000e-07	-5.323412e-06	-8.246267e-10	-3.713729e+01	-5.531410e+01
3.100000e-07	-5.311051e-06	-7.950323e-10	-3.705105e+01	-5.523678e+01
3.200000e-07	-5.298214e-06	-8.231969e-10	-3.696150e+01	-5.515485e+01
3.300000e-07	-5.285035e-06	-8.525464e-10	-3.686956e+01	-5.506826e+01
3.400000e-07	-5.271492e-06	-8.034247e-10	-3.677508e+01	-5.497701e+01
3.500000e-07	-5.257541e-06	-8.215465e-10	-3.667776e+01	-5.488109e+01
3.600000e-07	-5.243176e-06	-8.460719e-10	-3.657754e+01	-5.478053e+01
3.700000e-07	-5.228330e-06	-8.368422e-10	-3.647398e+01	-5.467538e+01
3.800000e-07	-5.212917e-06	-7.976773e-10	-3.636645e+01	-5.456570e+01
3.900000e-07	-5.196971e-06	-8.310299e-10	-3.625521e+01	-5.445157e+01
4.000000e-07	-5.180652e-06	-8.209901e-10	-3.614136e+01	-5.433311e+01
4.100000e-07	-5.164059e-06	-7.974526e-10	-3.602561e+01	-5.421042e+01
4.200000e-07	-5.147015e-06	-8.134614e-10	-3.590670e+01	-5.408364e+01
4.300000e-07	-5.129599e-06	-8.476276e-10	-3.578521e+01	-5.395291e+01
4.400000e-07	-5.111909e-06	-8.153318e-10	-3.566180e+01	-5.381840e+01
4.500000e-07	-5.093730e-06	-8.013949e-10	-3.553498e+01	-5.368028e+01
4.600000e-07	-5.075107e-06	-8.135430e-10	-3.540505e+01	-5.353873e+01
4.700000e-07	-5.056189e-06	-8.123311e-10	-3.527308e+01	-5.339394e+01
4.800000e-07	-5.036982e-06	-8.043557e-10	-3.513909e+01	-5.324612e+01
4.900000e-07	-5.017539e-06	-8.202402e-10	-3.500345e+01	-5.309546e+01
5.000000e-07	-4.997915e-06	-8.088201e-10	-3.486655e+01	-5.294217e+01
5.100000e-07	-4.978051e-06	-7.959807e-10	-3.472797e+01	-5.278647e+01
5.200000e-07	-4.957825e-06	-8.129388e-10	-3.458687e+01	-5.262857e+01
5.300000e-07	-4.937190e-06	-8.139685e-10	-3.444292e+01	-5.246868e+01
5.400000e-07	-4.916250e-06	-7.892672e-10	-3.429684e+01	-5.230702e+01
5.500000e-07	-4.895013e-06	-7.844188e-10	-3.414868e+01	-5.214380e+01
5.600000e-07	-4.873418e-06	-7.922312e-10	-3.399803e+01	-5.197921e+01
5.700000e-07	-4.851502e-06	-7.892701e-10	-3.384514e+01	-5.181346e+01
5.800000e-07	-4.829218e-06	-7.957351e-10	-3.368968e+01	-5.164675e+01
5.900000e-07	-4.806524e-06	-7.913790e-10	-3.353136e+01	-5.147926e+01
6.000000e-07	-4.783525e-06	-7.797104e-10	-3.337092e+01	-5.131116e+01
6.100000e-07	-4.760273e-06	-7.783326e-10	-3.320870e+01	-5.114263e+01
6.200000e-07	-4.736805e-06	-7.844721e-10	-3.304499e+01	-5.097382e+01
6.300000e-07	-4.713108e-06	-7.718499e-10	-3.287967e+01	-5.080488e+01
6.400000e-07	-4.689099e-06	-7.785294e-10	-3.271218e+01	-5.063593e+01
6.500000e-07	-4.664712e-06	-7.834142e-10	-3.254205e+01	-5.046711e+01
6.600000e-07	-4.639899e-06	-7.741355e-10	-3.236895e+01	-5.029851e+01
6.700000e-07	-4.614623e-06	-7.665301e-10	-3.219262e+01	-5.013022e+01
6.800000e-07	-4.588806e-06	-7.772329e-10	-3.201252e+01	-4.996234e+01
6.900000e-07	-4.562455e-06	-7.694388e-10	-3.182869e+01	-4.979491e+01
7.000000e-07	-4.535675e-06	-7.667500e-10	-3.164186e+01	-4.962798e+01
7.100000e-07	-4.508520e-06	-7.721171e-10	-3.145242e+01	-4.946160e+01
7.200000e-07	-4.481083e-06	-7.754038e-10	-3.126101e+01	-4.929577e+01
7.300000e-07	-4.453443e-06	-7.623800e-10	-3.106819e+01	-4.913050e+01
7.400000e-07	-4.425596e-06	-7.588591e-10	-3.087392e+01	-4.896579e+01
7.500000e-07	-4.397558e-06	-7.512267e-10	-3.067833e+01	-4.880159e+01
7.600000e-07	-4.369268e-06	-7.457515e-10	-3.048097e+01	-4.863787e+01
7.700000e-07	-4.340646e-06	-7.443861e-10	-3.028129e+01	-4.847458e+01
7.800000e-07	-4.311711e-06	-7.487136e-10	-3.007944e+01	-4.831164e+01
7.900000e-07	-4.282429e-06	-7.434923e-10	-2.987516e+01	-4.814898e+01
8.000000e-07	-4.252822e-06	-7.362696e-10	-2.966862e+01	-4.798650e+01
8.100000e-07	-4.222926e-06	-7.326289e-10	-2.946005e+01	-4.782409e+01
8.200000e-07	-4.192704e-06	-7.290149e-10	-2.924922e+01	-4.766165e+01
8.300000e-07	-4.162234e-06	-7.212009e-10	-2.903666e+01	-4.749903e+01
8.400000e-07	-4.131484e-06	-7.152528e-10	-2.882214e+01	-4.733612e+01
8.500000e-07	-4.100419e-06	-7.132877e-10	-2.860542e+01	-4.717275e+01
8.600000e-07	-4.069185e-06	-7.112618e-10	-2.838752e+01	-4.700879e+01
8.700000e-07	-4.037765e-06	-7.070989e-10	-2.816833e+01	-4.684407e+01
8.800000e-07	-4.006127e-06	-7.018544e-10	-2.794762e+01	-4.667843e+01
8.900000e-07	-3.974330e-06	-7.003178e-10	-2.772579e+01	-4.651171e+01
9.000000e-07	-3.942266e-06	-6.929654e-10	-2.750211e+01	-4.634373e+01
9.100000e-07	-3.909924e-06	-6.895129e-10	-2.727649e+01	-4.617432e+01
9.200000e-07	-3.877328e-06	-6.867138e-10	-2.704909e+01	-4.600331e+01
9.300000e-07	-3.844347e-06	-6.863924e-10	-2.681901e+01	-4.583051e+01
9.400000e-07	-3.810828e-06	-6.816796e-10	-2.658517e+01	-4.565577e+01
9.500000e-07	-3.776774e-06	-6.813048e-10	-2.634760e+01	-4.547891e+01
9.600000e-07	-3.742285e-06	-6.742901e-10	-2.610700e+01	-4.529977e+01
9.700000e-07	-3.707449e-06	-6.650890e-10	-2.586398e+01	-4.511817e+01
9.800000e-07	-3.672358e-06	-6.588909e-10	-2.561917e+01	-4.493396e+01
9.900000e-07	-3.637037e-06	-6.601236e-10	-2.537277e+01	-4.474699e+01
1.000000e-06	-3.601533e-06	-6.558881e-10	-2.512508e+01	-4.455710e+01
1.010000e-06	-3.565897e-06	-6.536315e-10	-2.487648e+01	-4.436418e+01
1.020000e-06	-3.530087e-06	-6.535593e-10	-2.462666e+01	-4.416807e+01
1.030000e-06	-3.494048e-06	-6.513299e-10	-2.437524e+01	-4.396867e+01
1.040000e-06	-3.457798e-06	-6.449786e-10	-2.412235e+01	-4.376586e+01
1.050000e-06	-3.421335e-06	-6.434658e-10	-2.386798e+01	-4.355954e+01
1.060000e-06	-3.384615e-06	-6.402694e-10	-2.361182e+01	-4.334961e+01
1.070000e-06	-3.347611e-06	-6.351216e-10	-2.335366e+01	-4.313600e+01
1.080000e-06	-3.310377e-06	-6.299727e-10	-2.309391e+01	-4.291863e+01
1.090000e-06	-3.272980e-06	-6.262873e-10	-2.283303e+01	-4.269744e+01
1.100000e-06	-3.235407e-06	-6.206559e-10	-2.257091e+01	-4.247239e+01
1.110000e-06	-3.197627e-06	-6.169815e-10	-2.230735e+01	-4.224343e+01
1.120000e-06	-3.159617e-06	-6.162441e-10	-2.204218e+01	-4.201054e+01
1.130000e-06	-3.121328e-06	-6.135843e-10	-2.177506e+01	-4.177370e+01
1.140000e-06	-3.082830e-06	-6.094398e-10	-2.150650e+01	-4.153289e+01
1.150000e-06	-3.044142e-06	-6.049055e-10	-2.123660e+01	-4.128811e+01
1.160000e-06	-3.005223e-06	-6.013368e-10	-2.096509e+01	-4.103938e+01
1.170000e-06	-2.966054e-06	-5.965713e-10	-2.069184e+01	-4.078669e+01
1.180000e-06	-2.926725e-06	-5.945384e-10	-2.041747e+01	-4.053008e+01
1.190000e-06	-2.887305e-06	-5.921772e-10	-2.014247e+01	-4.026956e+01
1.200000e-06	-2.847756e-06	-5.888674e-10	-1.986657e+01	-4.000517e+01
1.210000e-06	-2.808068e-06	-5.862437e-10	-1.958970e+01	-3.973692e+01
1.220000e-06	-2.768276e-06	-5.837844e-10	-1.931210e+01	-3.946486e+01
1.230000e-06	-2.728380e-06	-5.764222e-10	-1.903377e+01	-3.918901e+01
1.240000e-06	-2.688263e-06	-5.700015e-10	-1.875391e+01	-3.890941e+01
1.250000e-06	-2.647942e-06	-5.634280e-10	-1.847262e+01	-3.862607e+01
1.260000e-06	-2.607337e-06	-5.596171e-10	-1.818935e+01	-3.833902e+01
1.270000e-06	-2.566320e-06	-5.551929e-10	-1.790321e+01	-3.804827e+01
1.280000e-06	-2.525070e-06	-5.535488e-10	-1.761544e+01	-3.775384e+01
1.290000e-06	-2.483676e-06	-5.510176e-10	-1.732667e+01	-3.745571e+01
1.300000e-06	-2.442002e-06	-5.449938e-10	-1.703594e+01	-3.715388e+01
1.310000e-06	-2.400031e-06	-5.370104e-10	-1.674314e+01	-3.684831e+01
1.320000e-06	-2.357766e-06	-5.315421e-10	-1.644829e+01	-3.653897e+01
1.330000e-06	-2.315163e-06	-5.261576e-10	-1.615108e+01	-3.622580e+01
1.340000e-06	-2.272280e-06	-5.224088e-10	-1.585192e+01	-3.590874e+01
1.350000e-06	-2.229238e-06	-5.207219e-10	-1.555165e+01	-3.558768e+01
1.360000e-06	-2.186066e-06	-5.197535e-10	-1.525048e+01	-3.526252e+01
1.370000e-06	-2.142734e-06	-5.173607e-10	-1.494818e+01	-3.493314e+01
1.380000e-06	-2.099278e-06	-5.164822e-10	-1.464502e+01	-3.459938e+01
1.390000e-06	-2.055675e-06	-5.124591e-10	-1.434084e+01	-3.426107e+01
1.400000e-06	-2.011974e-06	-5.045257e-10	-1.403597e+01	-3.391802e+01
1.410000e-06	-1.968232e-06	-4.969000e-10	-1.373082e+01	-3.357002e+01
1.420000e-06	-1.924435e-06	-4.912786e-10	-1.342528e+01	-3.321682e+01
1.430000e-06	-1.880605e-06	-4.881299e-10	-1.311951e+01	-3.285816e+01
1.440000e-06	-1.836700e-06	-4.850143e-10	-1.281322e+01	-3.249377e+01
1.450000e-06	-1.792694e-06	-4.800158e-10	-1.250622e+01	-3.212333e+01
1.460000e-06	-1.748505e-06	-4.708525e-10	-1.219795e+01	-3.174651e+01
1.470000e-06	-1.704150e-06	-4.591383e-10	-1.188853e+01	-3.136298e+01
1.480000e-06	-1.659737e-06	-4.474003e-10	-1.157869e+01	-3.097236e+01
1.490000e-06	-1.615216e-06	-4.399077e-10	-1.126810e+01	-3.057426e+01
1.500000e-06	-1.570490e-06	-4.372303e-10	-1.095608e+01	-3.016829e+01
1.510000e-06	-1.525619e-06	-4.362475e-10	-1.064305e+01	-2.975403e+01
1.520000e-06	-1.480616e-06	-4.320679e-10	-1.032910e+01	-2.933103e+01
1.530000e-06	-1.435535e-06	-4.273698e-10	-1.001461e+01	-2.889887e+01
1.540000e-06	-1.390392e-06	-4.169433e-10	-9.699677e+00	-2.845708e+01
1.550000e-06	-1.345118e-06	-4.035850e-10	-9.383836e+00	-2.800520e+01
1.560000e-06	-1.299792e-06	-3.898386e-10	-9.067631e+00	-2.754278e+01
1.570000e-06	-1.254385e-06	-3.797478e-10	-8.750861e+00	-2.706933e+01
1.580000e-06	-1.208896e-06	-3.746007e-10	-8.433522e+00	-2.658440e+01
1.590000e-06	-1.163343e-06	-3.745721e-10	-8.115732e+00	-2.608752e+01
1.600000e-06	-1.117732e-06	-3.748592e-10	-7.797542e+00	-2.557823e+01
1.610000e-06	-1.072061e-06	-3.703922e-10	-7.478929e+00	-2.505609e+01
1.620000e-06	-1.026297e-06	-3.625844e-10	-7.159672e+00	-2.452066e+01
1.630000e-06	-9.804276e-07	-3.550490e-10	-6.839677e+00	-2.397153e+01
1.640000e-06	-9.344560e-07	-3.449777e-10	-6.518969e+00	-2.340828e+01
1.650000e-06	-8.884111e-07	-3.313857e-10	-6.197750e+00	-2.283054e+01
1.660000e-06	-8.422766e-07	-3.182201e-10	-5.875906e+00	-2.223795e+01
1.670000e-06	-7.961317e-07	-3.049488e-10	-5.553989e+00	-2.163019e+01
1.680000e-06	-7.499731e-07	-2.926235e-10	-5.231977e+00	-2.100696e+01
1.690000e-06	-7.036916e-07	-2.852491e-10	-4.909106e+00	-2.036798e+01
1.700000e-06	-6.573470e-07	-2.822929e-10	-4.585797e+00	-1.971305e+01
1.710000e-06	-6.110503e-07	-2.771599e-10	-4.262821e+00	-1.904195e+01
1.720000e-06	-5.647522e-07	-2.667801e-10	-3.939835e+00	-1.835454e+01
1.730000e-06	-5.183836e-07	-2.502220e-10	-3.616358e+00	-1.765070e+01
1.740000e-06	-4.719127e-07	-2.327852e-10	-3.292166e+00	-1.693038e+01
1.750000e-06	-4.253520e-07	-2.167305e-10	-2.967348e+00	-1.619356e+01
1.760000e-06	-3.788015e-07	-2.047098e-10	-2.642602e+00	-1.544025e+01
1.770000e-06	-3.322680e-07	-1.971404e-10	-2.317974e+00	-1.467053e+01
1.780000e-06	-2.857105e-07	-1.902973e-10	-1.993179e+00	-1.388453e+01
1.790000e-06	-2.391152e-07	-1.811858e-10	-1.668120e+00	-1.308241e+01
1.800000e-06	-1.924751e-07	-1.713055e-10	-1.342748e+00	-1.226441e+01
1.810000e-06	-1.457983e-07	-1.603316e-10	-1.017121e+00	-1.143079e+01
1.820000e-06	-9.917698e-08	-1.474922e-10	-6.918803e-01	-1.058187e+01
1.830000e-06	-5.265828e-08	-1.358254e-10	-3.673557e-01	-9.718021e+00
1.840000e-06	-6.126301e-09	-1.259821e-10	-4.273841e-02	-8.839667e+00
1.850000e-06	4.050498e-08	-1.164865e-10	2.825716e-01	-7.947269e+00
1.860000e-06	8.716994e-08	-1.060311e-10	6.081165e-01	-7.041337e+00
1.870000e-06	1.338750e-07	-9.359294e-11	9.339415e-01	-6.122427e+00
1.880000e-06	1.806378e-07	-7.867116e-11	1.260169e+00	-5.191135e+00
1.890000e-06	2.273627e-07	-6.391876e-11	1.586132e+00	-4.248096e+00
1.900000e-06	2.739474e-07	-4.999932e-11	1.911117e+00	-3.293985e+00
1.910000e-06	3.204999e-07	-3.653357e-11	2.235877e+00	-2.329511e+00
1.920000e-06	3.671115e-07	-2.554970e-11	2.561050e+00	-1.355415e+00
1.930000e-06	4.136832e-07	-1.511337e-11	2.885945e+00	-3.724676e-01
1.940000e-06	4.602403e-07	-2.325055e-12	3.210737e+00	6.185345e-01
1.950000e-06	5.067834e-07	1.082595e-11	3.535432e+00	1.616771e+00
1.960000e-06	5.532340e-07	2.403477e-11	3.859481e+00	2.621401e+00
1.970000e-06	5.995898e-07	3.675669e-11	4.182870e+00	3.631569e+00
1.980000e-06	6.458913e-07	4.990516e-11	4.505879e+00	4.646404e+00
1.990000e-06	6.921037e-07	6.487825e-11	4.828267e+00	5.665025e+00
2.000000e-06	7.382319e-07	7.767575e-11	5.150067e+00	6.686548e+00
2.010000e-06	7.843220e-07	9.239818e-11	5.471602e+00	7.710081e+00
2.020000e-06	8.303642e-07	1.105812e-10	5.792802e+00	8.734735e+00
2.030000e-06	8.763717e-07	1.277783e-10	6.113761e+00	9.759626e+00
2.040000e-06	9.223615e-07	1.409384e-10	6.434595e+00	1.078387e+01
2.050000e-06	9.682694e-07	1.525016e-10	6.754859e+00	1.180661e+01
2.060000e-06	1.014003e-06	1.651890e-10	7.073908e+00	1.282697e+01
2.070000e-06	1.059629e-06	1.808689e-10	7.392207e+00	1.384412e+01
2.080000e-06	1.105230e-06	1.999259e-10	7.710329e+00	1.485724e+01
2.090000e-06	1.150857e-06	2.193056e-10	8.028629e+00	1.586552e+01
2.100000e-06	1.196421e-06	2.391284e-10	8.346495e+00	1.686819e+01
2.110000e-06	1.241828e-06	2.549445e-10	8.663262e+00	1.786449e+01
2.120000e-06	1.287175e-06	2.669512e-10	8.979616e+00	1.885368e+01
2.130000e-06	1.332523e-06	2.767877e-10	9.295971e+00	1.983508e+01
2.140000e-06	1.377813e-06	2.861025e-10	9.611924e+00	2.080801e+01
2.150000e-06	1.422915e-06	2.984561e-10	9.926566e+00	2.177183e+01
2.160000e-06	1.467823e-06	3.145476e-10	1.023986e+01	2.272594e+01
2.170000e-06	1.512633e-06	3.335272e-10	1.055246e+01	2.366976e+01
2.180000e-06	1.557378e-06	3.540947e-10	1.086461e+01	2.460275e+01
2.190000e-06	1.602001e-06	3.705006e-10	1.117591e+01	2.552441e+01
2.200000e-06	1.646416e-06	3.815132e-10	1.148576e+01	2.643425e+01
2.210000e-06	1.690705e-06	3.895707e-10	1.179473e+01	2.733185e+01
2.220000e-06	1.734913e-06	3.984543e-10	1.210313e+01	2.821679e+01
2.230000e-06	1.778960e-06	4.115608e-10	1.241041e+01	2.908870e+01
2.240000e-06	1.822911e-06	4.258421e-10	1.271703e+01	2.994723e+01
2.250000e-06	1.866847e-06	4.409150e-10	1.302354e+01	3.079208e+01
2.260000e-06	1.910678e-06	4.548385e-10	1.332930e+01	3.162297e+01
2.270000e-06	1.954425e-06	4.698956e-10	1.363450e+01	3.243964e+01
2.280000e-06	1.998161e-06	4.851689e-10	1.393961e+01	3.324188e+01
2.290000e-06	2.041821e-06	4.981635e-10	1.424419e+01	3.402948e+01
2.300000e-06	2.085380e-06	5.080218e-10	1.454807e+01	3.480228e+01
2.310000e-06	2.128822e-06	5.170553e-10	1.485113e+01	3.556013e+01
2.320000e-06	2.172184e-06	5.282476e-10	1.515363e+01	3.630291e+01
2.330000e-06	2.215483e-06	5.406706e-10	1.545569e+01	3.703053e+01
2.340000e-06	2.258591e-06	5.526524e-10	1.575643e+01	3.774290e+01
2.350000e-06	2.301559e-06	5.654681e-10	1.605618e+01	3.843996e+01
2.360000e-06	2.344387e-06	5.802948e-10	1.635496e+01	3.912167e+01
2.370000e-06	2.386880e-06	5.911700e-10	1.665140e+01	3.978801e+01
2.380000e-06	2.428997e-06	5.991695e-10	1.694521e+01	4.043896e+01
2.390000e-06	2.470698e-06	6.042304e-10	1.723613e+01	4.107454e+01
2.400000e-06	2.512051e-06	6.083026e-10	1.752462e+01	4.169475e+01
2.410000e-06	2.553181e-06	6.140476e-10	1.781155e+01	4.229964e+01
2.420000e-06	2.593990e-06	6.216839e-10	1.809624e+01	4.288924e+01
2.430000e-06	2.634549e-06	6.326321e-10	1.837919e+01	4.346361e+01
2.440000e-06	2.674973e-06	6.420858e-10	1.866120e+01	4.402282e+01
2.450000e-06	2.715170e-06	6.480766e-10	1.894162e+01	4.456693e+01
2.460000e-06	2.755157e-06	6.541102e-10	1.922058e+01	4.509604e+01
2.470000e-06	2.795004e-06	6.603991e-10	1.949856e+01	4.561023e+01
2.480000e-06	2.834742e-06	6.687698e-10	1.977578e+01	4.610961e+01
2.490000e-06	2.874405e-06	6.778534e-10	2.005248e+01	4.659430e+01
2.500000e-06	2.913954e-06	6.858745e-10	2.032838e+01	4.706442e+01
2.510000e-06	2.953264e-06	6.934695e-10	2.060262e+01	4.752008e+01
2.520000e-06	2.992358e-06	7.007289e-10	2.087534e+01	4.796145e+01
2.530000e-06	3.031262e-06	7.064007e-10	2.114675e+01	4.838866e+01
2.540000e-06	3.069895e-06	7.100167e-10	2.141626e+01	4.880187e+01
2.550000e-06	3.108302e-06	7.119261e-10	2.168419e+01	4.920127e+01
2.560000e-06	3.146556e-06	7.156613e-10	2.195107e+01	4.958701e+01
2.570000e-06	3.184646e-06	7.228533e-10	2.221679e+01	4.995931e+01
2.580000e-06	3.222506e-06	7.314231e-10	2.248091e+01	5.031836e+01
2.590000e-06	3.260125e-06	7.387645e-10	2.274334e+01	5.066437e+01
2.600000e-06	3.297532e-06	7.438317e-10	2.300430e+01	5.099757e+01
2.610000e-06	3.334752e-06	7.449933e-10	2.326396e+01	5.131821e+01
2.620000e-06	3.371784e-06	7.416919e-10	2.352230e+01	5.162652e+01
2.630000e-06	3.408568e-06	7.390945e-10	2.377892e+01	5.192278e+01
2.640000e-06	3.445098e-06	7.394751e-10	2.403376e+01	5.220726e+01
2.650000e-06	3.481408e-06	7.445517e-10	2.428706e+01	5.248024e+01
2.660000e-06	3.517501e-06	7.539650e-10	2.453886e+01	5.274204e+01
2.670000e-06	3.553358e-06	7.632238e-10	2.478900e+01	5.299295e+01
2.680000e-06	3.589063e-06	7.691283e-10	2.503809e+01	5.323330e+01
2.690000e-06	3.624682e-06	7.717393e-10	2.528658e+01	5.346344e+01
2.700000e-06	3.660106e-06	7.718700e-10	2.553370e+01	5.368369e+01
2.710000e-06	3.695253e-06	7.714027e-10	2.577890e+01	5.389443e+01
2.720000e-06	3.730150e-06	7.725450e-10	2.602234e+01	5.409601e+01
2.730000e-06	3.764804e-06	7.773386e-10	2.626409e+01	5.428880e+01
2.740000e-06	3.799014e-06	7.832925e-10	2.650276e+01	5.447318e+01
2.750000e-06	3.832754e-06	7.874192e-10	2.673813e+01	5.464954e+01
2.760000e-06	3.866043e-06	7.906026e-10	2.697036e+01	5.481827e+01
2.770000e-06	3.898850e-06	7.944952e-10	2.719923e+01	5.497975e+01
2.780000e-06	3.931227e-06	7.984249e-10	2.742510e+01	5.513438e+01
2.790000e-06	3.963264e-06	8.020465e-10	2.764860e+01	5.528255e+01
2.800000e-06	3.995154e-06	8.048121e-10	2.787107e+01	5.542464e+01
2.810000e-06	4.026890e-06	8.072912e-10	2.809246e+01	5.556106e+01
2.820000e-06	4.058420e-06	8.107220e-10	2.831243e+01	5.569216e+01
2.830000e-06	4.089762e-06	8.149414e-10	2.853107e+01	5.581833e+01
2.840000e-06	4.120911e-06	8.199209e-10	2.874838e+01	5.593993e+01
2.850000e-06	4.151718e-06	8.266546e-10	2.896330e+01	5.605731e+01
2.860000e-06	4.182173e-06	8.319262e-10	2.917576e+01	5.617081e+01
2.870000e-06	4.212332e-06	8.318847e-10	2.938615e+01	5.628076e+01
2.880000e-06	4.242151e-06	8.297607e-10	2.959418e+01	5.638745e+01
2.890000e-06	4.271726e-06	8.305749e-10	2.980050e+01	5.649119e+01
2.900000e-06	4.301072e-06	8.347985e-10	3.000522e+01	5.659224e+01
