# Temperatura_=_-2.1
# Concentracion g/m^3_=_1620.0
# C_Vs_to_Am_M_A/Vsm_=_65563218390.804596
# pendiente_HvsI_1/m_=_3716.3
# ordenada_HvsI_A/m_=_1297.0
# frecuencia_Hz_=_135107.69517327202

Tiempo_(s)	Campo_(V.s)	Magnetizacion_(V.s)	Campo_(kA/m)	Magnetizacion_(A/m)
0.000000e+00	-5.507908e-06	-8.860054e-10	-3.837452e+01	-5.926663e+01
1.000000e-08	-5.508267e-06	-8.833503e-10	-3.837701e+01	-5.924832e+01
2.000000e-08	-5.508385e-06	-8.806771e-10	-3.837784e+01	-5.923039e+01
3.000000e-08	-5.508187e-06	-8.787371e-10	-3.837645e+01	-5.921246e+01
4.000000e-08	-5.507535e-06	-8.762880e-10	-3.837191e+01	-5.919415e+01
5.000000e-08	-5.506307e-06	-8.681971e-10	-3.836336e+01	-5.917507e+01
6.000000e-08	-5.504447e-06	-8.546113e-10	-3.835040e+01	-5.915482e+01
7.000000e-08	-5.501992e-06	-8.588187e-10	-3.833329e+01	-5.913301e+01
8.000000e-08	-5.498995e-06	-8.903486e-10	-3.831241e+01	-5.910925e+01
9.000000e-08	-5.495536e-06	-9.304705e-10	-3.828831e+01	-5.908316e+01
1.000000e-07	-5.491703e-06	-9.631896e-10	-3.826161e+01	-5.905435e+01
1.100000e-07	-5.487478e-06	-9.417082e-10	-3.823218e+01	-5.902248e+01
1.200000e-07	-5.482915e-06	-8.249510e-10	-3.820038e+01	-5.898719e+01
1.300000e-07	-5.478191e-06	-8.033686e-10	-3.816747e+01	-5.894816e+01
1.400000e-07	-5.473182e-06	-8.709109e-10	-3.813257e+01	-5.890511e+01
1.500000e-07	-5.467758e-06	-9.200737e-10	-3.809478e+01	-5.885776e+01
1.600000e-07	-5.462030e-06	-8.487022e-10	-3.805488e+01	-5.880586e+01
1.700000e-07	-5.455945e-06	-8.141318e-10	-3.801248e+01	-5.874920e+01
1.800000e-07	-5.449326e-06	-9.189181e-10	-3.796637e+01	-5.868762e+01
1.900000e-07	-5.442187e-06	-9.594961e-10	-3.791662e+01	-5.862095e+01
2.000000e-07	-5.434806e-06	-8.784950e-10	-3.786520e+01	-5.854909e+01
2.100000e-07	-5.427240e-06	-8.058272e-10	-3.781249e+01	-5.847197e+01
2.200000e-07	-5.419410e-06	-8.881036e-10	-3.775793e+01	-5.838954e+01
2.300000e-07	-5.411330e-06	-9.396749e-10	-3.770164e+01	-5.830182e+01
2.400000e-07	-5.402824e-06	-9.038752e-10	-3.764238e+01	-5.820882e+01
2.500000e-07	-5.393638e-06	-8.481318e-10	-3.757838e+01	-5.811062e+01
2.600000e-07	-5.383668e-06	-8.772249e-10	-3.750891e+01	-5.800732e+01
2.700000e-07	-5.373099e-06	-8.819686e-10	-3.743528e+01	-5.789905e+01
2.800000e-07	-5.362224e-06	-8.539549e-10	-3.735951e+01	-5.778597e+01
2.900000e-07	-5.350952e-06	-8.427243e-10	-3.728097e+01	-5.766828e+01
3.000000e-07	-5.339212e-06	-8.751692e-10	-3.719918e+01	-5.754620e+01
3.100000e-07	-5.327136e-06	-8.704279e-10	-3.711504e+01	-5.741996e+01
3.200000e-07	-5.314646e-06	-8.434707e-10	-3.702803e+01	-5.728982e+01
3.300000e-07	-5.301622e-06	-8.403145e-10	-3.693728e+01	-5.715606e+01
3.400000e-07	-5.288234e-06	-8.524658e-10	-3.684401e+01	-5.701897e+01
3.500000e-07	-5.274585e-06	-8.601673e-10	-3.674891e+01	-5.687886e+01
3.600000e-07	-5.260490e-06	-8.496494e-10	-3.665071e+01	-5.673602e+01
3.700000e-07	-5.245843e-06	-8.482939e-10	-3.654866e+01	-5.659078e+01
3.800000e-07	-5.230720e-06	-8.651634e-10	-3.644330e+01	-5.644344e+01
3.900000e-07	-5.215066e-06	-8.732057e-10	-3.633423e+01	-5.629432e+01
4.000000e-07	-5.198842e-06	-8.393707e-10	-3.622120e+01	-5.614371e+01
4.100000e-07	-5.182269e-06	-8.462347e-10	-3.610574e+01	-5.599192e+01
4.200000e-07	-5.165477e-06	-8.763250e-10	-3.598874e+01	-5.583922e+01
4.300000e-07	-5.148302e-06	-8.540346e-10	-3.586908e+01	-5.568589e+01
4.400000e-07	-5.130769e-06	-8.204389e-10	-3.574692e+01	-5.553217e+01
4.500000e-07	-5.112924e-06	-8.749796e-10	-3.562259e+01	-5.537829e+01
4.600000e-07	-5.094619e-06	-8.780685e-10	-3.549506e+01	-5.522445e+01
4.700000e-07	-5.075796e-06	-8.134098e-10	-3.536392e+01	-5.507086e+01
4.800000e-07	-5.056579e-06	-8.259367e-10	-3.523003e+01	-5.491765e+01
4.900000e-07	-5.037138e-06	-8.856976e-10	-3.509458e+01	-5.476497e+01
5.000000e-07	-5.017535e-06	-8.357681e-10	-3.495801e+01	-5.461292e+01
5.100000e-07	-4.997767e-06	-8.081210e-10	-3.482028e+01	-5.446157e+01
5.200000e-07	-4.977809e-06	-8.592148e-10	-3.468123e+01	-5.431099e+01
5.300000e-07	-4.957516e-06	-8.473011e-10	-3.453984e+01	-5.416118e+01
5.400000e-07	-4.936738e-06	-8.003009e-10	-3.439508e+01	-5.401215e+01
5.500000e-07	-4.915541e-06	-8.500708e-10	-3.424740e+01	-5.386387e+01
5.600000e-07	-4.894027e-06	-8.560645e-10	-3.409750e+01	-5.371627e+01
5.700000e-07	-4.872224e-06	-7.901933e-10	-3.394560e+01	-5.356927e+01
5.800000e-07	-4.850129e-06	-8.127102e-10	-3.379166e+01	-5.342279e+01
5.900000e-07	-4.827705e-06	-8.613058e-10	-3.363543e+01	-5.327668e+01
6.000000e-07	-4.804889e-06	-8.092415e-10	-3.347646e+01	-5.313082e+01
6.100000e-07	-4.781737e-06	-7.922373e-10	-3.331516e+01	-5.298503e+01
6.200000e-07	-4.758333e-06	-8.365212e-10	-3.315210e+01	-5.283916e+01
6.300000e-07	-4.734749e-06	-8.094636e-10	-3.298778e+01	-5.269302e+01
6.400000e-07	-4.710936e-06	-7.767392e-10	-3.282188e+01	-5.254642e+01
6.500000e-07	-4.686791e-06	-8.118015e-10	-3.265365e+01	-5.239916e+01
6.600000e-07	-4.662187e-06	-8.122381e-10	-3.248224e+01	-5.225104e+01
6.700000e-07	-4.637080e-06	-7.795538e-10	-3.230731e+01	-5.210187e+01
6.800000e-07	-4.611475e-06	-8.046930e-10	-3.212891e+01	-5.195144e+01
6.900000e-07	-4.585343e-06	-8.163118e-10	-3.194685e+01	-5.179957e+01
7.000000e-07	-4.558670e-06	-7.863098e-10	-3.176102e+01	-5.164605e+01
7.100000e-07	-4.531538e-06	-7.880882e-10	-3.157198e+01	-5.149073e+01
7.200000e-07	-4.504139e-06	-8.051912e-10	-3.138109e+01	-5.133343e+01
7.300000e-07	-4.476587e-06	-7.821503e-10	-3.118913e+01	-5.117399e+01
7.400000e-07	-4.448893e-06	-7.748435e-10	-3.099618e+01	-5.101229e+01
7.500000e-07	-4.421051e-06	-7.849140e-10	-3.080220e+01	-5.084819e+01
7.600000e-07	-4.392967e-06	-7.742014e-10	-3.060654e+01	-5.068159e+01
7.700000e-07	-4.364556e-06	-7.593307e-10	-3.040859e+01	-5.051242e+01
7.800000e-07	-4.335819e-06	-7.664082e-10	-3.020837e+01	-5.034059e+01
7.900000e-07	-4.306694e-06	-7.602570e-10	-3.000545e+01	-5.016606e+01
8.000000e-07	-4.277203e-06	-7.520616e-10	-2.979998e+01	-4.998881e+01
8.100000e-07	-4.247460e-06	-7.556071e-10	-2.959276e+01	-4.980881e+01
8.200000e-07	-4.217539e-06	-7.521245e-10	-2.938430e+01	-4.962609e+01
8.300000e-07	-4.187439e-06	-7.350955e-10	-2.917458e+01	-4.944066e+01
8.400000e-07	-4.157006e-06	-7.347229e-10	-2.896255e+01	-4.925257e+01
8.500000e-07	-4.126166e-06	-7.340695e-10	-2.874769e+01	-4.906188e+01
8.600000e-07	-4.094999e-06	-7.210268e-10	-2.853054e+01	-4.886865e+01
8.700000e-07	-4.063568e-06	-7.171435e-10	-2.831156e+01	-4.867298e+01
8.800000e-07	-4.031991e-06	-7.230781e-10	-2.809156e+01	-4.847495e+01
8.900000e-07	-4.000328e-06	-7.166800e-10	-2.787095e+01	-4.827467e+01
9.000000e-07	-3.968475e-06	-7.096300e-10	-2.764903e+01	-4.807224e+01
9.100000e-07	-3.936339e-06	-7.112947e-10	-2.742513e+01	-4.786778e+01
9.200000e-07	-3.903885e-06	-7.063961e-10	-2.719901e+01	-4.766141e+01
9.300000e-07	-3.871053e-06	-6.972094e-10	-2.697027e+01	-4.745322e+01
9.400000e-07	-3.837845e-06	-6.991254e-10	-2.673890e+01	-4.724335e+01
9.500000e-07	-3.804206e-06	-7.003384e-10	-2.650454e+01	-4.703188e+01
9.600000e-07	-3.770131e-06	-6.904377e-10	-2.626713e+01	-4.681892e+01
9.700000e-07	-3.735567e-06	-6.884235e-10	-2.602632e+01	-4.660455e+01
9.800000e-07	-3.700487e-06	-6.916136e-10	-2.578191e+01	-4.638884e+01
9.900000e-07	-3.665142e-06	-6.891949e-10	-2.553566e+01	-4.617187e+01
1.000000e-06	-3.629653e-06	-6.860199e-10	-2.528840e+01	-4.595367e+01
1.010000e-06	-3.594040e-06	-6.880107e-10	-2.504028e+01	-4.573427e+01
1.020000e-06	-3.558310e-06	-6.834712e-10	-2.479134e+01	-4.551369e+01
1.030000e-06	-3.522396e-06	-6.779370e-10	-2.454112e+01	-4.529192e+01
1.040000e-06	-3.486310e-06	-6.765586e-10	-2.428970e+01	-4.506892e+01
1.050000e-06	-3.450008e-06	-6.743225e-10	-2.403678e+01	-4.484466e+01
1.060000e-06	-3.413435e-06	-6.655884e-10	-2.378197e+01	-4.461905e+01
1.070000e-06	-3.376584e-06	-6.624749e-10	-2.352522e+01	-4.439202e+01
1.080000e-06	-3.339490e-06	-6.593803e-10	-2.326678e+01	-4.416344e+01
1.090000e-06	-3.302170e-06	-6.512806e-10	-2.300677e+01	-4.393319e+01
1.100000e-06	-3.264589e-06	-6.451477e-10	-2.274493e+01	-4.370112e+01
1.110000e-06	-3.226807e-06	-6.444367e-10	-2.248170e+01	-4.346706e+01
1.120000e-06	-3.188823e-06	-6.416012e-10	-2.221706e+01	-4.323081e+01
1.130000e-06	-3.150633e-06	-6.385373e-10	-2.195098e+01	-4.299218e+01
1.140000e-06	-3.112218e-06	-6.354904e-10	-2.168334e+01	-4.275095e+01
1.150000e-06	-3.073520e-06	-6.297086e-10	-2.141373e+01	-4.250689e+01
1.160000e-06	-3.034586e-06	-6.198770e-10	-2.114246e+01	-4.225977e+01
1.170000e-06	-2.995523e-06	-6.127699e-10	-2.087031e+01	-4.200932e+01
1.180000e-06	-2.956272e-06	-6.085627e-10	-2.059684e+01	-4.175530e+01
1.190000e-06	-2.916811e-06	-6.066429e-10	-2.032191e+01	-4.149744e+01
1.200000e-06	-2.877255e-06	-6.073229e-10	-2.004632e+01	-4.123549e+01
1.210000e-06	-2.837591e-06	-6.064867e-10	-1.976997e+01	-4.096918e+01
1.220000e-06	-2.797852e-06	-6.017778e-10	-1.949310e+01	-4.069826e+01
1.230000e-06	-2.757967e-06	-5.939979e-10	-1.921522e+01	-4.042245e+01
1.240000e-06	-2.717851e-06	-5.868269e-10	-1.893572e+01	-4.014153e+01
1.250000e-06	-2.677498e-06	-5.774994e-10	-1.865458e+01	-3.985524e+01
1.260000e-06	-2.636921e-06	-5.692501e-10	-1.837187e+01	-3.956335e+01
1.270000e-06	-2.596107e-06	-5.643332e-10	-1.808751e+01	-3.926564e+01
1.280000e-06	-2.554996e-06	-5.603118e-10	-1.780108e+01	-3.896191e+01
1.290000e-06	-2.513567e-06	-5.590947e-10	-1.751244e+01	-3.865196e+01
1.300000e-06	-2.471831e-06	-5.578860e-10	-1.722166e+01	-3.833560e+01
1.310000e-06	-2.429804e-06	-5.529882e-10	-1.692885e+01	-3.801268e+01
1.320000e-06	-2.387505e-06	-5.440527e-10	-1.663414e+01	-3.768305e+01
1.330000e-06	-2.345026e-06	-5.341908e-10	-1.633819e+01	-3.734656e+01
1.340000e-06	-2.302352e-06	-5.268412e-10	-1.604087e+01	-3.700311e+01
1.350000e-06	-2.259389e-06	-5.223911e-10	-1.574154e+01	-3.665259e+01
1.360000e-06	-2.216120e-06	-5.209438e-10	-1.544008e+01	-3.629491e+01
1.370000e-06	-2.172710e-06	-5.179028e-10	-1.513763e+01	-3.593000e+01
1.380000e-06	-2.129225e-06	-5.130365e-10	-1.483467e+01	-3.555779e+01
1.390000e-06	-2.085615e-06	-5.082449e-10	-1.453083e+01	-3.517824e+01
1.400000e-06	-2.041922e-06	-5.038506e-10	-1.422641e+01	-3.479129e+01
1.410000e-06	-1.998181e-06	-4.982594e-10	-1.392166e+01	-3.439691e+01
1.420000e-06	-1.954375e-06	-4.932019e-10	-1.361646e+01	-3.399507e+01
1.430000e-06	-1.910489e-06	-4.897028e-10	-1.331070e+01	-3.358575e+01
1.440000e-06	-1.866510e-06	-4.853870e-10	-1.300429e+01	-3.316891e+01
1.450000e-06	-1.822467e-06	-4.773246e-10	-1.269743e+01	-3.274454e+01
1.460000e-06	-1.778381e-06	-4.687662e-10	-1.239028e+01	-3.231259e+01
1.470000e-06	-1.734198e-06	-4.594203e-10	-1.208244e+01	-3.187304e+01
1.480000e-06	-1.689852e-06	-4.511009e-10	-1.177348e+01	-3.142583e+01
1.490000e-06	-1.645333e-06	-4.437740e-10	-1.146331e+01	-3.097092e+01
1.500000e-06	-1.600693e-06	-4.385936e-10	-1.115230e+01	-3.050822e+01
1.510000e-06	-1.555884e-06	-4.342167e-10	-1.084010e+01	-3.003767e+01
1.520000e-06	-1.510956e-06	-4.280484e-10	-1.052708e+01	-2.955916e+01
1.530000e-06	-1.465936e-06	-4.191660e-10	-1.021342e+01	-2.907257e+01
1.540000e-06	-1.420712e-06	-4.082353e-10	-9.898337e+00	-2.857777e+01
1.550000e-06	-1.375399e-06	-3.970636e-10	-9.582634e+00	-2.807459e+01
1.560000e-06	-1.330084e-06	-3.875092e-10	-9.266921e+00	-2.756287e+01
1.570000e-06	-1.284660e-06	-3.789279e-10	-8.950438e+00	-2.704239e+01
1.580000e-06	-1.239165e-06	-3.718979e-10	-8.633473e+00	-2.651294e+01
1.590000e-06	-1.193614e-06	-3.664356e-10	-8.316111e+00	-2.597427e+01
1.600000e-06	-1.147921e-06	-3.606845e-10	-7.997756e+00	-2.542612e+01
1.610000e-06	-1.102090e-06	-3.542289e-10	-7.678446e+00	-2.486819e+01
1.620000e-06	-1.056189e-06	-3.455128e-10	-7.358646e+00	-2.430019e+01
1.630000e-06	-1.010358e-06	-3.374859e-10	-7.039330e+00	-2.372178e+01
1.640000e-06	-9.644660e-07	-3.313177e-10	-6.719595e+00	-2.313263e+01
1.650000e-06	-9.183779e-07	-3.235265e-10	-6.398492e+00	-2.253238e+01
1.660000e-06	-8.722359e-07	-3.133813e-10	-6.077013e+00	-2.192067e+01
1.670000e-06	-8.260661e-07	-3.041111e-10	-5.755340e+00	-2.129713e+01
1.680000e-06	-7.798199e-07	-2.938953e-10	-5.433136e+00	-2.066138e+01
1.690000e-06	-7.335598e-07	-2.834700e-10	-5.110834e+00	-2.001304e+01
1.700000e-06	-6.873156e-07	-2.736188e-10	-4.788642e+00	-1.935173e+01
1.710000e-06	-6.409771e-07	-2.653078e-10	-4.465795e+00	-1.867709e+01
1.720000e-06	-5.945573e-07	-2.575601e-10	-4.142380e+00	-1.798875e+01
1.730000e-06	-5.480539e-07	-2.465383e-10	-3.818383e+00	-1.728638e+01
1.740000e-06	-5.014551e-07	-2.311952e-10	-3.493722e+00	-1.656964e+01
1.750000e-06	-4.548496e-07	-2.156162e-10	-3.169013e+00	-1.583824e+01
1.760000e-06	-4.082179e-07	-2.027952e-10	-2.844122e+00	-1.509190e+01
1.770000e-06	-3.615299e-07	-1.929458e-10	-2.518839e+00	-1.433038e+01
1.780000e-06	-3.148725e-07	-1.843322e-10	-2.193769e+00	-1.355348e+01
1.790000e-06	-2.682328e-07	-1.762328e-10	-1.868822e+00	-1.276102e+01
1.800000e-06	-2.215023e-07	-1.669773e-10	-1.543243e+00	-1.195290e+01
1.810000e-06	-1.747144e-07	-1.550410e-10	-1.217264e+00	-1.112903e+01
1.820000e-06	-1.278850e-07	-1.410522e-10	-8.909964e-01	-1.028939e+01
1.830000e-06	-8.110162e-08	-1.270936e-10	-5.650485e-01	-9.434023e+00
1.840000e-06	-3.436376e-08	-1.148621e-10	-2.394181e-01	-8.563014e+00
1.850000e-06	1.239758e-08	-1.022585e-10	8.637600e-02	-7.676512e+00
1.860000e-06	5.911350e-08	-8.927929e-11	4.118536e-01	-6.774728e+00
1.870000e-06	1.057705e-07	-7.707389e-11	7.369205e-01	-5.857935e+00
1.880000e-06	1.524550e-07	-6.387400e-11	1.062179e+00	-4.926473e+00
1.890000e-06	1.992446e-07	-4.869136e-11	1.388170e+00	-3.980743e+00
1.900000e-06	2.459974e-07	-3.280383e-11	1.713905e+00	-3.021211e+00
1.910000e-06	2.926695e-07	-1.737863e-11	2.039077e+00	-2.048410e+00
1.920000e-06	3.393171e-07	-2.916671e-12	2.364079e+00	-1.062933e+00
1.930000e-06	3.859702e-07	1.037329e-11	2.689118e+00	-6.543522e-02
1.940000e-06	4.326482e-07	2.149577e-11	3.014332e+00	9.433662e-01
1.950000e-06	4.792098e-07	3.293890e-11	3.338735e+00	1.962698e+00
1.960000e-06	5.256626e-07	4.769335e-11	3.662379e+00	2.991734e+00
1.970000e-06	5.721004e-07	6.507210e-11	3.985919e+00	4.029593e+00
1.980000e-06	6.185079e-07	8.220761e-11	4.309248e+00	5.075349e+00
1.990000e-06	6.648586e-07	9.757287e-11	4.632181e+00	6.128034e+00
2.000000e-06	7.110875e-07	1.103289e-10	4.954265e+00	7.186637e+00
2.010000e-06	7.572595e-07	1.224823e-10	5.275953e+00	8.250116e+00
2.020000e-06	8.034562e-07	1.374664e-10	5.597814e+00	9.317399e+00
2.030000e-06	8.495947e-07	1.556986e-10	5.919268e+00	1.038739e+01
2.040000e-06	8.956343e-07	1.750364e-10	6.240034e+00	1.145898e+01
2.050000e-06	9.416139e-07	1.923723e-10	6.560381e+00	1.253104e+01
2.060000e-06	9.875394e-07	2.055924e-10	6.880352e+00	1.360244e+01
2.070000e-06	1.033457e-06	2.161404e-10	7.200271e+00	1.467204e+01
2.080000e-06	1.079338e-06	2.285410e-10	7.519928e+00	1.573872e+01
2.090000e-06	1.125060e-06	2.439805e-10	7.838482e+00	1.680136e+01
2.100000e-06	1.170724e-06	2.617004e-10	8.156626e+00	1.785886e+01
2.110000e-06	1.216335e-06	2.817113e-10	8.474412e+00	1.891015e+01
2.120000e-06	1.261834e-06	2.998655e-10	8.791410e+00	1.995416e+01
2.130000e-06	1.307248e-06	3.138719e-10	9.107812e+00	2.098988e+01
2.140000e-06	1.352559e-06	3.271711e-10	9.423507e+00	2.201632e+01
2.150000e-06	1.397770e-06	3.411593e-10	9.738495e+00	2.303256e+01
2.160000e-06	1.442881e-06	3.558656e-10	1.005279e+01	2.403768e+01
2.170000e-06	1.487890e-06	3.704380e-10	1.036638e+01	2.503085e+01
2.180000e-06	1.532770e-06	3.841244e-10	1.067906e+01	2.601126e+01
2.190000e-06	1.577581e-06	3.981322e-10	1.099127e+01	2.697819e+01
2.200000e-06	1.622320e-06	4.112911e-10	1.130298e+01	2.793095e+01
2.210000e-06	1.666876e-06	4.237175e-10	1.161341e+01	2.886892e+01
2.220000e-06	1.711274e-06	4.347719e-10	1.192273e+01	2.979154e+01
2.230000e-06	1.755550e-06	4.448969e-10	1.223121e+01	3.069831e+01
2.240000e-06	1.799662e-06	4.556705e-10	1.253855e+01	3.158879e+01
2.250000e-06	1.843677e-06	4.661081e-10	1.284521e+01	3.246261e+01
2.260000e-06	1.887642e-06	4.767766e-10	1.315152e+01	3.331945e+01
2.270000e-06	1.931543e-06	4.881128e-10	1.345738e+01	3.415908e+01
2.280000e-06	1.975341e-06	5.028086e-10	1.376253e+01	3.498128e+01
2.290000e-06	2.019040e-06	5.178368e-10	1.406699e+01	3.578594e+01
2.300000e-06	2.062702e-06	5.314828e-10	1.437119e+01	3.657296e+01
2.310000e-06	2.106306e-06	5.433158e-10	1.467498e+01	3.734232e+01
2.320000e-06	2.149810e-06	5.531921e-10	1.497809e+01	3.809406e+01
2.330000e-06	2.193238e-06	5.614853e-10	1.528066e+01	3.882822e+01
2.340000e-06	2.236528e-06	5.700889e-10	1.558227e+01	3.954494e+01
2.350000e-06	2.279632e-06	5.831659e-10	1.588258e+01	4.024437e+01
2.360000e-06	2.322597e-06	5.994417e-10	1.618192e+01	4.092669e+01
2.370000e-06	2.365325e-06	6.143178e-10	1.647961e+01	4.159213e+01
2.380000e-06	2.407732e-06	6.232511e-10	1.677507e+01	4.224094e+01
2.390000e-06	2.449759e-06	6.276996e-10	1.706788e+01	4.287339e+01
2.400000e-06	2.491440e-06	6.314515e-10	1.735828e+01	4.348978e+01
2.410000e-06	2.532918e-06	6.352485e-10	1.764726e+01	4.409043e+01
2.420000e-06	2.574128e-06	6.404059e-10	1.793438e+01	4.467565e+01
2.430000e-06	2.615017e-06	6.508429e-10	1.821926e+01	4.524579e+01
2.440000e-06	2.655627e-06	6.667403e-10	1.850219e+01	4.580118e+01
2.450000e-06	2.695908e-06	6.817222e-10	1.878284e+01	4.634217e+01
2.460000e-06	2.735998e-06	6.914241e-10	1.906215e+01	4.686910e+01
2.470000e-06	2.775981e-06	6.982144e-10	1.934072e+01	4.738230e+01
2.480000e-06	2.815771e-06	7.024003e-10	1.961795e+01	4.788211e+01
2.490000e-06	2.855463e-06	7.074082e-10	1.989448e+01	4.836886e+01
2.500000e-06	2.895043e-06	7.147258e-10	2.017025e+01	4.884285e+01
2.510000e-06	2.934453e-06	7.222026e-10	2.044482e+01	4.930440e+01
2.520000e-06	2.973747e-06	7.306635e-10	2.071859e+01	4.975377e+01
2.530000e-06	3.012889e-06	7.396441e-10	2.099130e+01	5.019126e+01
2.540000e-06	3.051876e-06	7.467699e-10	2.126293e+01	5.061711e+01
2.550000e-06	3.090692e-06	7.505520e-10	2.153337e+01	5.103158e+01
2.560000e-06	3.129200e-06	7.548666e-10	2.180166e+01	5.143488e+01
2.570000e-06	3.167380e-06	7.601345e-10	2.206767e+01	5.182723e+01
2.580000e-06	3.205389e-06	7.646976e-10	2.233248e+01	5.220883e+01
2.590000e-06	3.243276e-06	7.709034e-10	2.259644e+01	5.257985e+01
2.600000e-06	3.280943e-06	7.775437e-10	2.285888e+01	5.294047e+01
2.610000e-06	3.318321e-06	7.843153e-10	2.311930e+01	5.329085e+01
2.620000e-06	3.355412e-06	7.878860e-10	2.337772e+01	5.363113e+01
2.630000e-06	3.392283e-06	7.890479e-10	2.363460e+01	5.396144e+01
2.640000e-06	3.428931e-06	7.893702e-10	2.388993e+01	5.428192e+01
2.650000e-06	3.465286e-06	7.908476e-10	2.414322e+01	5.459270e+01
2.660000e-06	3.501416e-06	7.966188e-10	2.439495e+01	5.489388e+01
2.670000e-06	3.537379e-06	8.036242e-10	2.464551e+01	5.518558e+01
2.680000e-06	3.573158e-06	8.097547e-10	2.489479e+01	5.546793e+01
2.690000e-06	3.608783e-06	8.164725e-10	2.514299e+01	5.574104e+01
2.700000e-06	3.644273e-06	8.211772e-10	2.539026e+01	5.600502e+01
2.710000e-06	3.679609e-06	8.221682e-10	2.563645e+01	5.626000e+01
2.720000e-06	3.714734e-06	8.225129e-10	2.588117e+01	5.650611e+01
2.730000e-06	3.749573e-06	8.229910e-10	2.612390e+01	5.674348e+01
2.740000e-06	3.784035e-06	8.238297e-10	2.636401e+01	5.697225e+01
2.750000e-06	3.817976e-06	8.265800e-10	2.660048e+01	5.719259e+01
2.760000e-06	3.851441e-06	8.304041e-10	2.683363e+01	5.740464e+01
2.770000e-06	3.884548e-06	8.344811e-10	2.706430e+01	5.760858e+01
2.780000e-06	3.917313e-06	8.408105e-10	2.729258e+01	5.780460e+01
2.790000e-06	3.949643e-06	8.474951e-10	2.751782e+01	5.799287e+01
2.800000e-06	3.981638e-06	8.501510e-10	2.774074e+01	5.817362e+01
2.810000e-06	4.013457e-06	8.495265e-10	2.796242e+01	5.834703e+01
2.820000e-06	4.045086e-06	8.501105e-10	2.818279e+01	5.851335e+01
2.830000e-06	4.076563e-06	8.504652e-10	2.840210e+01	5.867279e+01
2.840000e-06	4.107827e-06	8.522069e-10	2.861991e+01	5.882559e+01
2.850000e-06	4.138866e-06	8.571797e-10	2.883617e+01	5.897199e+01
2.860000e-06	4.169673e-06	8.641853e-10	2.905081e+01	5.911224e+01
2.870000e-06	4.200154e-06	8.682300e-10	2.926317e+01	5.924658e+01
2.880000e-06	4.230257e-06	8.691797e-10	2.947291e+01	5.937527e+01
2.890000e-06	4.260001e-06	8.706281e-10	2.968014e+01	5.949856e+01
2.900000e-06	4.289509e-06	8.713327e-10	2.988573e+01	5.961669e+01
