# Temperatura_=_-0.8
# Concentracion g/m^3_=_1620.0
# C_Vs_to_Am_M_A/Vsm_=_65563218390.804596
# pendiente_HvsI_1/m_=_3716.3
# ordenada_HvsI_A/m_=_1297.0
# frecuencia_Hz_=_135103.0529932113

Tiempo_(s)	Campo_(V.s)	Magnetizacion_(V.s)	Campo_(kA/m)	Magnetizacion_(A/m)
0.000000e+00	-5.517588e-06	-1.250141e-09	-3.837412e+01	-8.252150e+01
1.000000e-08	-5.517706e-06	-1.250967e-09	-3.837494e+01	-8.247016e+01
2.000000e-08	-5.517670e-06	-1.255426e-09	-3.837469e+01	-8.241474e+01
3.000000e-08	-5.517389e-06	-1.257718e-09	-3.837274e+01	-8.235511e+01
4.000000e-08	-5.516619e-06	-1.254824e-09	-3.836738e+01	-8.229113e+01
5.000000e-08	-5.515223e-06	-1.244270e-09	-3.835767e+01	-8.222270e+01
6.000000e-08	-5.513153e-06	-1.238811e-09	-3.834327e+01	-8.214971e+01
7.000000e-08	-5.510454e-06	-1.255081e-09	-3.832450e+01	-8.207211e+01
8.000000e-08	-5.507242e-06	-1.268254e-09	-3.830217e+01	-8.198984e+01
9.000000e-08	-5.503587e-06	-1.310328e-09	-3.827675e+01	-8.190286e+01
1.000000e-07	-5.499514e-06	-1.391926e-09	-3.824842e+01	-8.181119e+01
1.100000e-07	-5.495125e-06	-1.332629e-09	-3.821789e+01	-8.171482e+01
1.200000e-07	-5.490572e-06	-1.166200e-09	-3.818623e+01	-8.161379e+01
1.300000e-07	-5.485855e-06	-1.154762e-09	-3.815342e+01	-8.150818e+01
1.400000e-07	-5.480804e-06	-1.285816e-09	-3.811829e+01	-8.139806e+01
1.500000e-07	-5.475205e-06	-1.332033e-09	-3.807935e+01	-8.128352e+01
1.600000e-07	-5.469134e-06	-1.191929e-09	-3.803712e+01	-8.116471e+01
1.700000e-07	-5.462806e-06	-1.193729e-09	-3.799311e+01	-8.104175e+01
1.800000e-07	-5.456099e-06	-1.323610e-09	-3.794647e+01	-8.091481e+01
1.900000e-07	-5.448881e-06	-1.318642e-09	-3.789627e+01	-8.078406e+01
2.000000e-07	-5.441359e-06	-1.167745e-09	-3.784396e+01	-8.064970e+01
2.100000e-07	-5.433697e-06	-1.129770e-09	-3.779067e+01	-8.051192e+01
2.200000e-07	-5.425696e-06	-1.235367e-09	-3.773502e+01	-8.037094e+01
2.300000e-07	-5.417240e-06	-1.260525e-09	-3.767621e+01	-8.022698e+01
2.400000e-07	-5.408448e-06	-1.188165e-09	-3.761506e+01	-8.008028e+01
2.500000e-07	-5.399139e-06	-1.153113e-09	-3.755032e+01	-7.993107e+01
2.600000e-07	-5.389035e-06	-1.182569e-09	-3.748005e+01	-7.977957e+01
2.700000e-07	-5.378292e-06	-1.176893e-09	-3.740534e+01	-7.962604e+01
2.800000e-07	-5.367136e-06	-1.171793e-09	-3.732775e+01	-7.947070e+01
2.900000e-07	-5.355568e-06	-1.175222e-09	-3.724729e+01	-7.931379e+01
3.000000e-07	-5.343660e-06	-1.182967e-09	-3.716447e+01	-7.915552e+01
3.100000e-07	-5.331441e-06	-1.175780e-09	-3.707949e+01	-7.899612e+01
3.200000e-07	-5.318764e-06	-1.180403e-09	-3.699132e+01	-7.883579e+01
3.300000e-07	-5.305584e-06	-1.146569e-09	-3.689966e+01	-7.867471e+01
3.400000e-07	-5.292022e-06	-1.141730e-09	-3.680533e+01	-7.851308e+01
3.500000e-07	-5.278147e-06	-1.178727e-09	-3.670884e+01	-7.835104e+01
3.600000e-07	-5.263781e-06	-1.178346e-09	-3.660892e+01	-7.818876e+01
3.700000e-07	-5.248907e-06	-1.146897e-09	-3.650548e+01	-7.802635e+01
3.800000e-07	-5.233537e-06	-1.182788e-09	-3.639858e+01	-7.786393e+01
3.900000e-07	-5.217663e-06	-1.183302e-09	-3.628818e+01	-7.770158e+01
4.000000e-07	-5.201349e-06	-1.118298e-09	-3.617472e+01	-7.753937e+01
4.100000e-07	-5.184595e-06	-1.146809e-09	-3.605820e+01	-7.737735e+01
4.200000e-07	-5.167528e-06	-1.204458e-09	-3.593949e+01	-7.721555e+01
4.300000e-07	-5.150179e-06	-1.125808e-09	-3.581883e+01	-7.705396e+01
4.400000e-07	-5.132372e-06	-1.104779e-09	-3.569499e+01	-7.689258e+01
4.500000e-07	-5.114147e-06	-1.218591e-09	-3.556824e+01	-7.673135e+01
4.600000e-07	-5.095621e-06	-1.185727e-09	-3.543939e+01	-7.657024e+01
4.700000e-07	-5.076688e-06	-1.080786e-09	-3.530771e+01	-7.640915e+01
4.800000e-07	-5.057378e-06	-1.161578e-09	-3.517342e+01	-7.624799e+01
4.900000e-07	-5.037807e-06	-1.215766e-09	-3.503730e+01	-7.608665e+01
5.000000e-07	-5.018067e-06	-1.102215e-09	-3.490001e+01	-7.592500e+01
5.100000e-07	-4.998189e-06	-1.119769e-09	-3.476176e+01	-7.576289e+01
5.200000e-07	-4.978094e-06	-1.209716e-09	-3.462200e+01	-7.560017e+01
5.300000e-07	-4.957614e-06	-1.128074e-09	-3.447957e+01	-7.543666e+01
5.400000e-07	-4.936643e-06	-1.089468e-09	-3.433372e+01	-7.527219e+01
5.500000e-07	-4.915280e-06	-1.195534e-09	-3.418515e+01	-7.510657e+01
5.600000e-07	-4.893582e-06	-1.150186e-09	-3.403424e+01	-7.493961e+01
5.700000e-07	-4.871595e-06	-1.060683e-09	-3.388132e+01	-7.477110e+01
5.800000e-07	-4.849339e-06	-1.146379e-09	-3.372653e+01	-7.460084e+01
5.900000e-07	-4.826724e-06	-1.178580e-09	-3.356925e+01	-7.442862e+01
6.000000e-07	-4.803706e-06	-1.079404e-09	-3.340916e+01	-7.425426e+01
6.100000e-07	-4.780372e-06	-1.107583e-09	-3.324688e+01	-7.407753e+01
6.200000e-07	-4.756811e-06	-1.161785e-09	-3.308301e+01	-7.389825e+01
6.300000e-07	-4.733002e-06	-1.090230e-09	-3.291743e+01	-7.371622e+01
6.400000e-07	-4.708965e-06	-1.073937e-09	-3.275025e+01	-7.353126e+01
6.500000e-07	-4.684631e-06	-1.135490e-09	-3.258101e+01	-7.334319e+01
6.600000e-07	-4.659838e-06	-1.102205e-09	-3.240858e+01	-7.315183e+01
6.700000e-07	-4.634534e-06	-1.072835e-09	-3.223259e+01	-7.295703e+01
6.800000e-07	-4.608731e-06	-1.123096e-09	-3.205314e+01	-7.275864e+01
6.900000e-07	-4.582371e-06	-1.118680e-09	-3.186980e+01	-7.255652e+01
7.000000e-07	-4.555512e-06	-1.072549e-09	-3.168300e+01	-7.235055e+01
7.100000e-07	-4.528324e-06	-1.091785e-09	-3.149391e+01	-7.214061e+01
7.200000e-07	-4.500886e-06	-1.102387e-09	-3.130309e+01	-7.192660e+01
7.300000e-07	-4.473284e-06	-1.066009e-09	-3.111112e+01	-7.170844e+01
7.400000e-07	-4.445487e-06	-1.065611e-09	-3.091779e+01	-7.148606e+01
7.500000e-07	-4.417407e-06	-1.082795e-09	-3.072250e+01	-7.125938e+01
7.600000e-07	-4.389070e-06	-1.065197e-09	-3.052542e+01	-7.102837e+01
7.700000e-07	-4.360441e-06	-1.053555e-09	-3.032631e+01	-7.079298e+01
7.800000e-07	-4.331488e-06	-1.064415e-09	-3.012495e+01	-7.055319e+01
7.900000e-07	-4.302211e-06	-1.055371e-09	-2.992133e+01	-7.030898e+01
8.000000e-07	-4.272625e-06	-1.043650e-09	-2.971556e+01	-7.006035e+01
8.100000e-07	-4.242736e-06	-1.049195e-09	-2.950769e+01	-6.980730e+01
8.200000e-07	-4.212589e-06	-1.042741e-09	-2.929802e+01	-6.954985e+01
8.300000e-07	-4.182256e-06	-1.024899e-09	-2.908706e+01	-6.928801e+01
8.400000e-07	-4.151614e-06	-1.029390e-09	-2.887394e+01	-6.902181e+01
8.500000e-07	-4.120606e-06	-1.029059e-09	-2.865829e+01	-6.875127e+01
8.600000e-07	-4.089371e-06	-1.009878e-09	-2.844105e+01	-6.847644e+01
8.700000e-07	-4.057948e-06	-1.001932e-09	-2.822251e+01	-6.819735e+01
8.800000e-07	-4.026334e-06	-1.004420e-09	-2.800264e+01	-6.791404e+01
8.900000e-07	-3.994563e-06	-9.892614e-10	-2.778168e+01	-6.762655e+01
9.000000e-07	-3.962547e-06	-9.789411e-10	-2.755901e+01	-6.733492e+01
9.100000e-07	-3.930187e-06	-9.817149e-10	-2.733395e+01	-6.703920e+01
9.200000e-07	-3.897457e-06	-9.735963e-10	-2.710632e+01	-6.673942e+01
9.300000e-07	-3.864392e-06	-9.618182e-10	-2.687635e+01	-6.643561e+01
9.400000e-07	-3.830968e-06	-9.672331e-10	-2.664389e+01	-6.612782e+01
9.500000e-07	-3.796999e-06	-9.659675e-10	-2.640764e+01	-6.581607e+01
9.600000e-07	-3.762461e-06	-9.503874e-10	-2.616744e+01	-6.550039e+01
9.700000e-07	-3.727504e-06	-9.452638e-10	-2.592431e+01	-6.518080e+01
9.800000e-07	-3.692276e-06	-9.480219e-10	-2.567931e+01	-6.485732e+01
9.900000e-07	-3.656833e-06	-9.377543e-10	-2.543281e+01	-6.452996e+01
1.000000e-06	-3.621206e-06	-9.291991e-10	-2.518502e+01	-6.419873e+01
1.010000e-06	-3.585459e-06	-9.300125e-10	-2.493641e+01	-6.386363e+01
1.020000e-06	-3.549609e-06	-9.246637e-10	-2.468708e+01	-6.352466e+01
1.030000e-06	-3.513614e-06	-9.128135e-10	-2.443673e+01	-6.318181e+01
1.040000e-06	-3.477337e-06	-9.109019e-10	-2.418443e+01	-6.283507e+01
1.050000e-06	-3.440781e-06	-9.076707e-10	-2.393019e+01	-6.248443e+01
1.060000e-06	-3.403969e-06	-8.944839e-10	-2.367417e+01	-6.212986e+01
1.070000e-06	-3.366872e-06	-8.899025e-10	-2.341617e+01	-6.177135e+01
1.080000e-06	-3.329512e-06	-8.902308e-10	-2.315633e+01	-6.140886e+01
1.090000e-06	-3.291879e-06	-8.832611e-10	-2.289460e+01	-6.104237e+01
1.100000e-06	-3.254032e-06	-8.776577e-10	-2.263138e+01	-6.067184e+01
1.110000e-06	-3.216008e-06	-8.773300e-10	-2.236692e+01	-6.029725e+01
1.120000e-06	-3.177746e-06	-8.689845e-10	-2.210082e+01	-5.991855e+01
1.130000e-06	-3.139295e-06	-8.569080e-10	-2.183339e+01	-5.953571e+01
1.140000e-06	-3.100651e-06	-8.516183e-10	-2.156463e+01	-5.914869e+01
1.150000e-06	-3.061753e-06	-8.469309e-10	-2.129410e+01	-5.875746e+01
1.160000e-06	-3.022673e-06	-8.377258e-10	-2.102230e+01	-5.836197e+01
1.170000e-06	-2.983484e-06	-8.339350e-10	-2.074975e+01	-5.796217e+01
1.180000e-06	-2.944152e-06	-8.347341e-10	-2.047620e+01	-5.755804e+01
1.190000e-06	-2.904597e-06	-8.306471e-10	-2.020110e+01	-5.714953e+01
1.200000e-06	-2.864891e-06	-8.208871e-10	-1.992495e+01	-5.673660e+01
1.210000e-06	-2.825100e-06	-8.142742e-10	-1.964821e+01	-5.631919e+01
1.220000e-06	-2.785188e-06	-8.038796e-10	-1.937063e+01	-5.589727e+01
1.230000e-06	-2.745163e-06	-7.933448e-10	-1.909226e+01	-5.547079e+01
1.240000e-06	-2.704961e-06	-7.889682e-10	-1.881266e+01	-5.503969e+01
1.250000e-06	-2.664453e-06	-7.853259e-10	-1.853093e+01	-5.460392e+01
1.260000e-06	-2.623701e-06	-7.769226e-10	-1.824751e+01	-5.416341e+01
1.270000e-06	-2.582791e-06	-7.682592e-10	-1.796298e+01	-5.371812e+01
1.280000e-06	-2.541526e-06	-7.638765e-10	-1.767599e+01	-5.326795e+01
1.290000e-06	-2.499926e-06	-7.584925e-10	-1.738667e+01	-5.281284e+01
1.300000e-06	-2.458079e-06	-7.506695e-10	-1.709563e+01	-5.235269e+01
1.310000e-06	-2.415902e-06	-7.429949e-10	-1.680229e+01	-5.188740e+01
1.320000e-06	-2.373396e-06	-7.337235e-10	-1.650666e+01	-5.141688e+01
1.330000e-06	-2.330608e-06	-7.224626e-10	-1.620908e+01	-5.094099e+01
1.340000e-06	-2.287642e-06	-7.138387e-10	-1.591026e+01	-5.045961e+01
1.350000e-06	-2.244495e-06	-7.082319e-10	-1.561017e+01	-4.997258e+01
1.360000e-06	-2.201103e-06	-7.002180e-10	-1.530839e+01	-4.947974e+01
1.370000e-06	-2.157557e-06	-6.933304e-10	-1.500553e+01	-4.898091e+01
1.380000e-06	-2.113911e-06	-6.890337e-10	-1.470198e+01	-4.847589e+01
1.390000e-06	-2.070172e-06	-6.818852e-10	-1.439778e+01	-4.796446e+01
1.400000e-06	-2.026392e-06	-6.725520e-10	-1.409330e+01	-4.744638e+01
1.410000e-06	-1.982568e-06	-6.631250e-10	-1.378850e+01	-4.692141e+01
1.420000e-06	-1.938714e-06	-6.561446e-10	-1.348351e+01	-4.638925e+01
1.430000e-06	-1.894748e-06	-6.490001e-10	-1.317773e+01	-4.584961e+01
1.440000e-06	-1.850626e-06	-6.416651e-10	-1.287087e+01	-4.530218e+01
1.450000e-06	-1.806463e-06	-6.337690e-10	-1.256372e+01	-4.474660e+01
1.460000e-06	-1.762244e-06	-6.239804e-10	-1.225618e+01	-4.418253e+01
1.470000e-06	-1.717802e-06	-6.119267e-10	-1.194709e+01	-4.360957e+01
1.480000e-06	-1.673131e-06	-5.984150e-10	-1.163641e+01	-4.302732e+01
1.490000e-06	-1.628397e-06	-5.866149e-10	-1.132530e+01	-4.243537e+01
1.500000e-06	-1.583600e-06	-5.772216e-10	-1.101374e+01	-4.183327e+01
1.510000e-06	-1.538658e-06	-5.681313e-10	-1.070117e+01	-4.122057e+01
1.520000e-06	-1.493594e-06	-5.584956e-10	-1.038776e+01	-4.059679e+01
1.530000e-06	-1.448449e-06	-5.470626e-10	-1.007378e+01	-3.996146e+01
1.540000e-06	-1.403199e-06	-5.357255e-10	-9.759066e+00	-3.931409e+01
1.550000e-06	-1.357869e-06	-5.235874e-10	-9.443806e+00	-3.865415e+01
1.560000e-06	-1.312434e-06	-5.122304e-10	-9.127807e+00	-3.798116e+01
1.570000e-06	-1.266863e-06	-5.015274e-10	-8.810872e+00	-3.729460e+01
1.580000e-06	-1.221240e-06	-4.925506e-10	-8.493570e+00	-3.659394e+01
1.590000e-06	-1.175567e-06	-4.844222e-10	-8.175918e+00	-3.587868e+01
1.600000e-06	-1.129777e-06	-4.749119e-10	-7.857451e+00	-3.514832e+01
1.610000e-06	-1.083847e-06	-4.632364e-10	-7.538015e+00	-3.440235e+01
1.620000e-06	-1.037906e-06	-4.509120e-10	-7.218504e+00	-3.364030e+01
1.630000e-06	-9.918697e-07	-4.410866e-10	-6.898327e+00	-3.286167e+01
1.640000e-06	-9.457241e-07	-4.313496e-10	-6.577390e+00	-3.206604e+01
1.650000e-06	-8.995652e-07	-4.195130e-10	-6.256361e+00	-3.125295e+01
1.660000e-06	-8.533245e-07	-4.049466e-10	-5.934763e+00	-3.042202e+01
1.670000e-06	-8.070049e-07	-3.884467e-10	-5.612616e+00	-2.957286e+01
1.680000e-06	-7.606481e-07	-3.710768e-10	-5.290210e+00	-2.870513e+01
1.690000e-06	-7.142732e-07	-3.565320e-10	-4.967679e+00	-2.781851e+01
1.700000e-06	-6.678369e-07	-3.457190e-10	-4.644721e+00	-2.691275e+01
1.710000e-06	-6.213423e-07	-3.353765e-10	-4.321356e+00	-2.598760e+01
1.720000e-06	-5.748506e-07	-3.234260e-10	-3.998012e+00	-2.504289e+01
1.730000e-06	-5.283220e-07	-3.098890e-10	-3.674412e+00	-2.407848e+01
1.740000e-06	-4.816996e-07	-2.929205e-10	-3.350159e+00	-2.309427e+01
1.750000e-06	-4.349881e-07	-2.761423e-10	-3.025287e+00	-2.209024e+01
1.760000e-06	-3.881936e-07	-2.609837e-10	-2.699837e+00	-2.106640e+01
1.770000e-06	-3.414049e-07	-2.461452e-10	-2.374427e+00	-2.002282e+01
1.780000e-06	-2.946091e-07	-2.333414e-10	-2.048969e+00	-1.895963e+01
1.790000e-06	-2.477438e-07	-2.216309e-10	-1.723027e+00	-1.787701e+01
1.800000e-06	-2.008805e-07	-2.055580e-10	-1.397098e+00	-1.677521e+01
1.810000e-06	-1.540966e-07	-1.881263e-10	-1.071722e+00	-1.565452e+01
1.820000e-06	-1.072509e-07	-1.692463e-10	-7.459163e-01	-1.451531e+01
1.830000e-06	-6.033761e-08	-1.533103e-10	-4.196404e-01	-1.335800e+01
1.840000e-06	-1.352547e-08	-1.422778e-10	-9.406789e-02	-1.218305e+01
1.850000e-06	3.326587e-08	-1.317071e-10	2.313599e-01	-1.099101e+01
1.860000e-06	8.006374e-08	-1.207528e-10	5.568330e-01	-9.782455e+00
1.870000e-06	1.268578e-07	-1.042989e-10	8.822794e-01	-8.558028e+00
1.880000e-06	1.736920e-07	-8.386005e-11	1.208005e+00	-7.318422e+00
1.890000e-06	2.205116e-07	-6.144346e-11	1.533630e+00	-6.064377e+00
1.900000e-06	2.672342e-07	-4.078993e-11	1.858580e+00	-4.796684e+00
1.910000e-06	3.138667e-07	-2.331249e-11	2.182903e+00	-3.516175e+00
1.920000e-06	3.604979e-07	-9.008388e-12	2.507217e+00	-2.223725e+00
1.930000e-06	4.070714e-07	3.799130e-12	2.831129e+00	-9.202466e-01
1.940000e-06	4.535098e-07	1.938084e-11	3.154102e+00	3.933129e-01
1.950000e-06	5.000343e-07	3.807029e-11	3.477675e+00	1.715974e+00
1.960000e-06	5.466605e-07	5.868629e-11	3.801954e+00	3.046731e+00
1.970000e-06	5.931746e-07	8.065032e-11	4.125454e+00	4.384551e+00
1.980000e-06	6.395737e-07	1.009299e-10	4.448153e+00	5.728386e+00
1.990000e-06	6.859008e-07	1.194060e-10	4.770352e+00	7.077166e+00
2.000000e-06	7.322041e-07	1.335165e-10	5.092386e+00	8.429815e+00
2.010000e-06	7.784793e-07	1.488463e-10	5.414224e+00	9.785244e+00
2.020000e-06	8.247535e-07	1.679518e-10	5.736055e+00	1.114236e+01
2.030000e-06	8.710104e-07	1.892273e-10	6.057766e+00	1.250007e+01
2.040000e-06	9.171290e-07	2.097704e-10	6.378515e+00	1.385730e+01
2.050000e-06	9.631622e-07	2.295301e-10	6.698670e+00	1.521294e+01
2.060000e-06	1.009168e-06	2.487934e-10	7.018633e+00	1.656595e+01
2.070000e-06	1.055162e-06	2.665427e-10	7.338516e+00	1.791525e+01
2.080000e-06	1.101064e-06	2.844059e-10	7.657758e+00	1.925981e+01
2.090000e-06	1.146856e-06	3.023312e-10	7.976234e+00	2.059861e+01
2.100000e-06	1.192567e-06	3.230762e-10	8.294149e+00	2.193065e+01
2.110000e-06	1.238193e-06	3.435838e-10	8.611474e+00	2.325498e+01
2.120000e-06	1.283723e-06	3.627704e-10	8.928132e+00	2.457063e+01
2.130000e-06	1.329132e-06	3.829332e-10	9.243940e+00	2.587672e+01
2.140000e-06	1.374485e-06	4.034646e-10	9.559370e+00	2.717235e+01
2.150000e-06	1.419730e-06	4.222734e-10	9.874038e+00	2.845670e+01
2.160000e-06	1.464847e-06	4.400979e-10	1.018782e+01	2.972895e+01
2.170000e-06	1.509958e-06	4.565691e-10	1.050157e+01	3.098833e+01
2.180000e-06	1.555031e-06	4.736596e-10	1.081504e+01	3.223413e+01
2.190000e-06	1.599916e-06	4.895671e-10	1.112721e+01	3.346564e+01
2.200000e-06	1.644585e-06	5.047194e-10	1.143788e+01	3.468223e+01
2.210000e-06	1.689064e-06	5.198198e-10	1.174723e+01	3.588328e+01
2.220000e-06	1.733402e-06	5.350312e-10	1.205559e+01	3.706823e+01
2.230000e-06	1.777655e-06	5.517138e-10	1.236336e+01	3.823656e+01
2.240000e-06	1.821820e-06	5.674985e-10	1.267052e+01	3.938777e+01
2.250000e-06	1.865853e-06	5.832778e-10	1.297677e+01	4.052143e+01
2.260000e-06	1.909766e-06	5.984212e-10	1.328218e+01	4.163713e+01
2.270000e-06	1.953637e-06	6.149429e-10	1.358730e+01	4.273452e+01
2.280000e-06	1.997480e-06	6.306195e-10	1.389222e+01	4.381325e+01
2.290000e-06	2.041228e-06	6.462508e-10	1.419648e+01	4.487305e+01
2.300000e-06	2.084910e-06	6.619848e-10	1.450028e+01	4.591367e+01
2.310000e-06	2.128537e-06	6.741995e-10	1.480370e+01	4.693489e+01
2.320000e-06	2.172093e-06	6.868565e-10	1.510663e+01	4.793653e+01
2.330000e-06	2.215557e-06	7.002329e-10	1.540891e+01	4.891845e+01
2.340000e-06	2.258885e-06	7.115200e-10	1.571026e+01	4.988054e+01
2.350000e-06	2.302027e-06	7.245043e-10	1.601030e+01	5.082270e+01
2.360000e-06	2.344940e-06	7.424307e-10	1.630876e+01	5.174490e+01
2.370000e-06	2.387562e-06	7.577173e-10	1.660519e+01	5.264711e+01
2.380000e-06	2.429847e-06	7.688036e-10	1.689928e+01	5.352933e+01
2.390000e-06	2.471877e-06	7.785515e-10	1.719159e+01	5.439160e+01
2.400000e-06	2.513634e-06	7.878385e-10	1.748200e+01	5.523398e+01
2.410000e-06	2.555100e-06	7.978410e-10	1.777039e+01	5.605654e+01
2.420000e-06	2.596300e-06	8.091918e-10	1.805693e+01	5.685939e+01
2.430000e-06	2.637191e-06	8.225452e-10	1.834132e+01	5.764267e+01
2.440000e-06	2.677741e-06	8.366885e-10	1.862335e+01	5.840652e+01
2.450000e-06	2.718006e-06	8.467069e-10	1.890338e+01	5.915111e+01
2.460000e-06	2.758125e-06	8.573250e-10	1.918241e+01	5.987663e+01
2.470000e-06	2.798139e-06	8.688473e-10	1.946070e+01	6.058330e+01
2.480000e-06	2.837979e-06	8.789605e-10	1.973778e+01	6.127133e+01
2.490000e-06	2.877675e-06	8.869108e-10	2.001386e+01	6.194098e+01
2.500000e-06	2.917282e-06	8.916466e-10	2.028933e+01	6.259250e+01
2.510000e-06	2.956755e-06	8.981638e-10	2.056385e+01	6.322617e+01
2.520000e-06	2.996054e-06	9.064397e-10	2.083717e+01	6.384229e+01
2.530000e-06	3.035215e-06	9.150737e-10	2.110953e+01	6.444116e+01
2.540000e-06	3.074157e-06	9.250391e-10	2.138037e+01	6.502309e+01
2.550000e-06	3.112757e-06	9.350016e-10	2.164883e+01	6.558844e+01
2.560000e-06	3.151082e-06	9.425778e-10	2.191537e+01	6.613753e+01
2.570000e-06	3.189302e-06	9.494861e-10	2.218119e+01	6.667073e+01
2.580000e-06	3.227370e-06	9.557559e-10	2.244594e+01	6.718841e+01
2.590000e-06	3.265185e-06	9.622160e-10	2.270894e+01	6.769095e+01
2.600000e-06	3.302764e-06	9.696606e-10	2.297030e+01	6.817873e+01
2.610000e-06	3.340132e-06	9.766370e-10	2.323019e+01	6.865216e+01
2.620000e-06	3.377318e-06	9.818670e-10	2.348882e+01	6.911163e+01
2.630000e-06	3.414224e-06	9.855118e-10	2.374549e+01	6.955755e+01
2.640000e-06	3.450848e-06	9.888796e-10	2.400021e+01	6.999035e+01
2.650000e-06	3.487249e-06	9.937269e-10	2.425337e+01	7.041045e+01
2.660000e-06	3.523394e-06	9.976088e-10	2.450475e+01	7.081826e+01
2.670000e-06	3.559336e-06	1.002549e-09	2.475473e+01	7.121421e+01
2.680000e-06	3.595120e-06	1.009561e-09	2.500360e+01	7.159874e+01
2.690000e-06	3.630776e-06	1.016568e-09	2.525158e+01	7.197225e+01
2.700000e-06	3.666329e-06	1.024211e-09	2.549885e+01	7.233519e+01
2.710000e-06	3.701686e-06	1.032190e-09	2.574475e+01	7.268797e+01
2.720000e-06	3.736805e-06	1.039195e-09	2.598900e+01	7.303100e+01
2.730000e-06	3.771664e-06	1.043205e-09	2.623144e+01	7.336469e+01
2.740000e-06	3.806103e-06	1.045799e-09	2.647096e+01	7.368945e+01
2.750000e-06	3.840020e-06	1.048481e-09	2.670685e+01	7.400568e+01
2.760000e-06	3.873436e-06	1.052833e-09	2.693925e+01	7.431374e+01
2.770000e-06	3.906370e-06	1.060535e-09	2.716831e+01	7.461401e+01
2.780000e-06	3.938892e-06	1.070563e-09	2.739449e+01	7.490686e+01
2.790000e-06	3.971119e-06	1.079602e-09	2.761863e+01	7.519261e+01
2.800000e-06	4.003093e-06	1.083951e-09	2.784100e+01	7.547160e+01
2.810000e-06	4.034868e-06	1.084860e-09	2.806199e+01	7.574414e+01
2.820000e-06	4.066545e-06	1.085134e-09	2.828230e+01	7.601052e+01
2.830000e-06	4.098065e-06	1.087185e-09	2.850152e+01	7.627101e+01
2.840000e-06	4.129331e-06	1.093765e-09	2.871897e+01	7.652587e+01
2.850000e-06	4.160290e-06	1.104627e-09	2.893428e+01	7.677532e+01
2.860000e-06	4.190927e-06	1.116550e-09	2.914736e+01	7.701958e+01
2.870000e-06	4.221334e-06	1.124390e-09	2.935884e+01	7.725884e+01
2.880000e-06	4.251478e-06	1.127878e-09	2.956848e+01	7.749326e+01
2.890000e-06	4.281276e-06	1.129062e-09	2.977572e+01	7.772300e+01
2.900000e-06	4.310782e-06	1.130184e-09	2.998094e+01	7.794817e+01
