# Temperatura_=_-0.8
# Concentracion g/m^3_=_1620.0
# C_Vs_to_Am_M_A/Vsm_=_65563218390.804596
# pendiente_HvsI_1/m_=_3716.3
# ordenada_HvsI_A/m_=_1297.0
# frecuencia_Hz_=_135104.15038933943

Tiempo_(s)	Campo_(V.s)	Magnetizacion_(V.s)	Campo_(kA/m)	Magnetizacion_(A/m)
0.000000e+00	-5.513673e-06	-1.228390e-09	-3.836590e+01	-8.036811e+01
1.000000e-08	-5.513804e-06	-1.227876e-09	-3.836682e+01	-8.029598e+01
2.000000e-08	-5.513606e-06	-1.231395e-09	-3.836544e+01	-8.022155e+01
3.000000e-08	-5.512987e-06	-1.236571e-09	-3.836113e+01	-8.014481e+01
4.000000e-08	-5.511942e-06	-1.232838e-09	-3.835386e+01	-8.006578e+01
5.000000e-08	-5.510267e-06	-1.219615e-09	-3.834221e+01	-7.998445e+01
6.000000e-08	-5.507920e-06	-1.224585e-09	-3.832587e+01	-7.990087e+01
7.000000e-08	-5.505116e-06	-1.281023e-09	-3.830636e+01	-7.981505e+01
8.000000e-08	-5.501836e-06	-1.300034e-09	-3.828354e+01	-7.972707e+01
9.000000e-08	-5.498083e-06	-1.224806e-09	-3.825743e+01	-7.963696e+01
1.000000e-07	-5.494005e-06	-1.201278e-09	-3.822905e+01	-7.954479e+01
1.100000e-07	-5.489677e-06	-1.254168e-09	-3.819893e+01	-7.945065e+01
1.200000e-07	-5.485027e-06	-1.250183e-09	-3.816657e+01	-7.935463e+01
1.300000e-07	-5.479968e-06	-1.199262e-09	-3.813138e+01	-7.925681e+01
1.400000e-07	-5.474593e-06	-1.175541e-09	-3.809397e+01	-7.915730e+01
1.500000e-07	-5.468917e-06	-1.265308e-09	-3.805448e+01	-7.905622e+01
1.600000e-07	-5.462860e-06	-1.252500e-09	-3.801233e+01	-7.895367e+01
1.700000e-07	-5.456351e-06	-1.202792e-09	-3.796704e+01	-7.884978e+01
1.800000e-07	-5.449456e-06	-1.183885e-09	-3.791906e+01	-7.874466e+01
1.900000e-07	-5.442215e-06	-1.222457e-09	-3.786868e+01	-7.863845e+01
2.000000e-07	-5.434628e-06	-1.211902e-09	-3.781589e+01	-7.853125e+01
2.100000e-07	-5.426803e-06	-1.180387e-09	-3.776144e+01	-7.842319e+01
2.200000e-07	-5.418766e-06	-1.184058e-09	-3.770551e+01	-7.831439e+01
2.300000e-07	-5.410403e-06	-1.187624e-09	-3.764731e+01	-7.820494e+01
2.400000e-07	-5.401425e-06	-1.169120e-09	-3.758484e+01	-7.809495e+01
2.500000e-07	-5.391769e-06	-1.143698e-09	-3.751766e+01	-7.798452e+01
2.600000e-07	-5.381523e-06	-1.156561e-09	-3.744636e+01	-7.787371e+01
2.700000e-07	-5.370642e-06	-1.155099e-09	-3.737065e+01	-7.776260e+01
2.800000e-07	-5.359305e-06	-1.171527e-09	-3.729176e+01	-7.765124e+01
2.900000e-07	-5.347667e-06	-1.169316e-09	-3.721078e+01	-7.753967e+01
3.000000e-07	-5.335638e-06	-1.167689e-09	-3.712708e+01	-7.742790e+01
3.100000e-07	-5.323215e-06	-1.141986e-09	-3.704064e+01	-7.731595e+01
3.200000e-07	-5.310441e-06	-1.168975e-09	-3.695175e+01	-7.720379e+01
3.300000e-07	-5.297279e-06	-1.156885e-09	-3.686017e+01	-7.709140e+01
3.400000e-07	-5.283649e-06	-1.143405e-09	-3.676532e+01	-7.697872e+01
3.500000e-07	-5.269621e-06	-1.157116e-09	-3.666771e+01	-7.686568e+01
3.600000e-07	-5.255200e-06	-1.178776e-09	-3.656736e+01	-7.675218e+01
3.700000e-07	-5.240105e-06	-1.134893e-09	-3.646233e+01	-7.663813e+01
3.800000e-07	-5.224434e-06	-1.148712e-09	-3.635328e+01	-7.652339e+01
3.900000e-07	-5.208442e-06	-1.181823e-09	-3.624201e+01	-7.640781e+01
4.000000e-07	-5.192078e-06	-1.132059e-09	-3.612814e+01	-7.629123e+01
4.100000e-07	-5.175303e-06	-1.099406e-09	-3.601142e+01	-7.617348e+01
4.200000e-07	-5.158183e-06	-1.174499e-09	-3.589229e+01	-7.605435e+01
4.300000e-07	-5.140721e-06	-1.164815e-09	-3.577078e+01	-7.593366e+01
4.400000e-07	-5.122893e-06	-1.088481e-09	-3.564673e+01	-7.581117e+01
4.500000e-07	-5.104668e-06	-1.141688e-09	-3.551992e+01	-7.568667e+01
4.600000e-07	-5.086034e-06	-1.189124e-09	-3.539026e+01	-7.555992e+01
4.700000e-07	-5.067046e-06	-1.105777e-09	-3.525813e+01	-7.543069e+01
4.800000e-07	-5.047733e-06	-1.106406e-09	-3.512375e+01	-7.529873e+01
4.900000e-07	-5.028146e-06	-1.186527e-09	-3.498745e+01	-7.516381e+01
5.000000e-07	-5.008368e-06	-1.123049e-09	-3.484983e+01	-7.502569e+01
5.100000e-07	-4.988370e-06	-1.078428e-09	-3.471068e+01	-7.488413e+01
5.200000e-07	-4.968058e-06	-1.164750e-09	-3.456934e+01	-7.473890e+01
5.300000e-07	-4.947401e-06	-1.155878e-09	-3.442560e+01	-7.458980e+01
5.400000e-07	-4.926395e-06	-1.072519e-09	-3.427943e+01	-7.443661e+01
5.500000e-07	-4.905050e-06	-1.132164e-09	-3.413091e+01	-7.427913e+01
5.600000e-07	-4.883402e-06	-1.162904e-09	-3.398027e+01	-7.411718e+01
5.700000e-07	-4.861363e-06	-1.085159e-09	-3.382692e+01	-7.395061e+01
5.800000e-07	-4.838816e-06	-1.094599e-09	-3.367003e+01	-7.377926e+01
5.900000e-07	-4.815916e-06	-1.151601e-09	-3.351069e+01	-7.360302e+01
6.000000e-07	-4.792735e-06	-1.086845e-09	-3.334938e+01	-7.342178e+01
6.100000e-07	-4.769268e-06	-1.068050e-09	-3.318609e+01	-7.323546e+01
6.200000e-07	-4.745672e-06	-1.122928e-09	-3.302190e+01	-7.304400e+01
6.300000e-07	-4.721884e-06	-1.103830e-09	-3.285638e+01	-7.284736e+01
6.400000e-07	-4.697764e-06	-1.067122e-09	-3.268854e+01	-7.264554e+01
6.500000e-07	-4.673287e-06	-1.108188e-09	-3.251823e+01	-7.243855e+01
6.600000e-07	-4.648367e-06	-1.101263e-09	-3.234483e+01	-7.222642e+01
6.700000e-07	-4.622813e-06	-1.062819e-09	-3.216701e+01	-7.200922e+01
6.800000e-07	-4.596666e-06	-1.081056e-09	-3.198507e+01	-7.178703e+01
6.900000e-07	-4.570075e-06	-1.094379e-09	-3.180004e+01	-7.155995e+01
7.000000e-07	-4.543054e-06	-1.062545e-09	-3.161203e+01	-7.132810e+01
7.100000e-07	-4.515699e-06	-1.067267e-09	-3.142168e+01	-7.109164e+01
7.200000e-07	-4.488153e-06	-1.083039e-09	-3.123001e+01	-7.085071e+01
7.300000e-07	-4.460451e-06	-1.061598e-09	-3.103725e+01	-7.060549e+01
7.400000e-07	-4.432568e-06	-1.049761e-09	-3.084323e+01	-7.035617e+01
7.500000e-07	-4.404440e-06	-1.059609e-09	-3.064750e+01	-7.010294e+01
7.600000e-07	-4.376007e-06	-1.046773e-09	-3.044966e+01	-6.984602e+01
7.700000e-07	-4.347283e-06	-1.035043e-09	-3.024979e+01	-6.958561e+01
7.800000e-07	-4.318284e-06	-1.045652e-09	-3.004800e+01	-6.932192e+01
7.900000e-07	-4.288953e-06	-1.040070e-09	-2.984391e+01	-6.905518e+01
8.000000e-07	-4.259291e-06	-1.026102e-09	-2.963751e+01	-6.878560e+01
8.100000e-07	-4.229381e-06	-1.026114e-09	-2.942939e+01	-6.851338e+01
8.200000e-07	-4.199178e-06	-1.025329e-09	-2.921922e+01	-6.823873e+01
8.300000e-07	-4.168614e-06	-1.005689e-09	-2.900655e+01	-6.796184e+01
8.400000e-07	-4.137748e-06	-1.002448e-09	-2.879177e+01	-6.768288e+01
8.500000e-07	-4.106657e-06	-1.005570e-09	-2.857544e+01	-6.740204e+01
8.600000e-07	-4.075372e-06	-9.957648e-10	-2.835774e+01	-6.711945e+01
8.700000e-07	-4.043928e-06	-9.848908e-10	-2.813894e+01	-6.683524e+01
8.800000e-07	-4.012329e-06	-9.895687e-10	-2.791907e+01	-6.654954e+01
8.900000e-07	-3.980510e-06	-9.814395e-10	-2.769766e+01	-6.626243e+01
9.000000e-07	-3.948384e-06	-9.697437e-10	-2.747412e+01	-6.597398e+01
9.100000e-07	-3.915910e-06	-9.710157e-10	-2.724816e+01	-6.568423e+01
9.200000e-07	-3.882964e-06	-9.699431e-10	-2.701891e+01	-6.539321e+01
9.300000e-07	-3.849578e-06	-9.566851e-10	-2.678660e+01	-6.510091e+01
9.400000e-07	-3.815792e-06	-9.580782e-10	-2.655150e+01	-6.480731e+01
9.500000e-07	-3.781539e-06	-9.612575e-10	-2.631316e+01	-6.451234e+01
9.600000e-07	-3.746877e-06	-9.504336e-10	-2.607197e+01	-6.421594e+01
9.700000e-07	-3.711907e-06	-9.409880e-10	-2.582864e+01	-6.391800e+01
9.800000e-07	-3.676706e-06	-9.437135e-10	-2.558370e+01	-6.361840e+01
9.900000e-07	-3.641280e-06	-9.372254e-10	-2.533719e+01	-6.331700e+01
1.000000e-06	-3.605671e-06	-9.268186e-10	-2.508942e+01	-6.301363e+01
1.010000e-06	-3.569923e-06	-9.257840e-10	-2.484066e+01	-6.270811e+01
1.020000e-06	-3.534021e-06	-9.242747e-10	-2.459085e+01	-6.240023e+01
1.030000e-06	-3.497910e-06	-9.126840e-10	-2.433958e+01	-6.208979e+01
1.040000e-06	-3.461591e-06	-9.051278e-10	-2.408686e+01	-6.177657e+01
1.050000e-06	-3.425019e-06	-9.020937e-10	-2.383238e+01	-6.146031e+01
1.060000e-06	-3.388186e-06	-8.933887e-10	-2.357609e+01	-6.114079e+01
1.070000e-06	-3.351125e-06	-8.869690e-10	-2.331820e+01	-6.081775e+01
1.080000e-06	-3.313809e-06	-8.829173e-10	-2.305854e+01	-6.049094e+01
1.090000e-06	-3.276251e-06	-8.760030e-10	-2.279720e+01	-6.016012e+01
1.100000e-06	-3.238451e-06	-8.690373e-10	-2.253418e+01	-5.982503e+01
1.110000e-06	-3.200426e-06	-8.678350e-10	-2.226959e+01	-5.948542e+01
1.120000e-06	-3.162142e-06	-8.646865e-10	-2.200320e+01	-5.914107e+01
1.130000e-06	-3.123622e-06	-8.593127e-10	-2.173516e+01	-5.879173e+01
1.140000e-06	-3.084925e-06	-8.536639e-10	-2.146590e+01	-5.843720e+01
1.150000e-06	-3.046036e-06	-8.468388e-10	-2.119529e+01	-5.807727e+01
1.160000e-06	-3.006907e-06	-8.363094e-10	-2.092302e+01	-5.771175e+01
1.170000e-06	-2.967567e-06	-8.282496e-10	-2.064928e+01	-5.734046e+01
1.180000e-06	-2.928124e-06	-8.240734e-10	-2.037482e+01	-5.696324e+01
1.190000e-06	-2.888555e-06	-8.203700e-10	-2.009949e+01	-5.657996e+01
1.200000e-06	-2.848836e-06	-8.145242e-10	-1.982311e+01	-5.619049e+01
1.210000e-06	-2.809024e-06	-8.110658e-10	-1.954609e+01	-5.579472e+01
1.220000e-06	-2.769117e-06	-8.047966e-10	-1.926840e+01	-5.539257e+01
1.230000e-06	-2.729068e-06	-7.969108e-10	-1.898973e+01	-5.498397e+01
1.240000e-06	-2.688815e-06	-7.860637e-10	-1.870964e+01	-5.456886e+01
1.250000e-06	-2.648358e-06	-7.781378e-10	-1.842813e+01	-5.414721e+01
1.260000e-06	-2.607647e-06	-7.704426e-10	-1.814484e+01	-5.371900e+01
1.270000e-06	-2.566609e-06	-7.621228e-10	-1.785928e+01	-5.328421e+01
1.280000e-06	-2.525271e-06	-7.569844e-10	-1.757164e+01	-5.284286e+01
1.290000e-06	-2.483640e-06	-7.535235e-10	-1.728196e+01	-5.239494e+01
1.300000e-06	-2.441707e-06	-7.471848e-10	-1.699018e+01	-5.194049e+01
1.310000e-06	-2.399482e-06	-7.384887e-10	-1.669637e+01	-5.147951e+01
1.320000e-06	-2.356916e-06	-7.287281e-10	-1.640018e+01	-5.101205e+01
1.330000e-06	-2.314052e-06	-7.177036e-10	-1.610192e+01	-5.053811e+01
1.340000e-06	-2.270942e-06	-7.067015e-10	-1.580194e+01	-5.005772e+01
1.350000e-06	-2.227633e-06	-6.995296e-10	-1.550059e+01	-4.957089e+01
1.360000e-06	-2.184259e-06	-6.942357e-10	-1.519878e+01	-4.907763e+01
1.370000e-06	-2.140730e-06	-6.899503e-10	-1.489589e+01	-4.857792e+01
1.380000e-06	-2.097049e-06	-6.865988e-10	-1.459194e+01	-4.807173e+01
1.390000e-06	-2.053338e-06	-6.800009e-10	-1.428778e+01	-4.755903e+01
1.400000e-06	-2.009579e-06	-6.694118e-10	-1.398330e+01	-4.703975e+01
1.410000e-06	-1.965779e-06	-6.583501e-10	-1.367852e+01	-4.651379e+01
1.420000e-06	-1.921926e-06	-6.508740e-10	-1.337338e+01	-4.598105e+01
1.430000e-06	-1.877993e-06	-6.451656e-10	-1.306768e+01	-4.544137e+01
1.440000e-06	-1.833948e-06	-6.389012e-10	-1.276120e+01	-4.489458e+01
1.450000e-06	-1.789803e-06	-6.299293e-10	-1.245402e+01	-4.434048e+01
1.460000e-06	-1.745545e-06	-6.209858e-10	-1.214606e+01	-4.377883e+01
1.470000e-06	-1.701015e-06	-6.095558e-10	-1.183621e+01	-4.320936e+01
1.480000e-06	-1.656289e-06	-5.961560e-10	-1.152499e+01	-4.263176e+01
1.490000e-06	-1.611510e-06	-5.831464e-10	-1.121340e+01	-4.204568e+01
1.500000e-06	-1.566670e-06	-5.731938e-10	-1.090139e+01	-4.145076e+01
1.510000e-06	-1.521662e-06	-5.657255e-10	-1.058821e+01	-4.084659e+01
1.520000e-06	-1.476444e-06	-5.598364e-10	-1.027357e+01	-4.023273e+01
1.530000e-06	-1.431183e-06	-5.526330e-10	-9.958628e+00	-3.960871e+01
1.540000e-06	-1.385925e-06	-5.434781e-10	-9.643712e+00	-3.897403e+01
1.550000e-06	-1.340598e-06	-5.319764e-10	-9.328308e+00	-3.832816e+01
1.560000e-06	-1.295157e-06	-5.207743e-10	-9.012119e+00	-3.767056e+01
1.570000e-06	-1.249651e-06	-5.091279e-10	-8.695469e+00	-3.700066e+01
1.580000e-06	-1.204036e-06	-4.981340e-10	-8.378066e+00	-3.631788e+01
1.590000e-06	-1.158273e-06	-4.879321e-10	-8.059636e+00	-3.562162e+01
1.600000e-06	-1.112486e-06	-4.783603e-10	-7.741035e+00	-3.491127e+01
1.610000e-06	-1.066657e-06	-4.677058e-10	-7.422143e+00	-3.418622e+01
1.620000e-06	-1.020687e-06	-4.572305e-10	-7.102264e+00	-3.344587e+01
1.630000e-06	-9.745821e-07	-4.491102e-10	-6.781455e+00	-3.268961e+01
1.640000e-06	-9.284347e-07	-4.401305e-10	-6.460346e+00	-3.191685e+01
1.650000e-06	-8.822157e-07	-4.261915e-10	-6.138740e+00	-3.112701e+01
1.660000e-06	-8.358875e-07	-4.100238e-10	-5.816373e+00	-3.031952e+01
1.670000e-06	-7.896337e-07	-3.946726e-10	-5.494524e+00	-2.949387e+01
1.680000e-06	-7.434032e-07	-3.790401e-10	-5.172837e+00	-2.864954e+01
1.690000e-06	-6.970333e-07	-3.653507e-10	-4.850181e+00	-2.778607e+01
1.700000e-06	-6.505334e-07	-3.541113e-10	-4.526620e+00	-2.690304e+01
1.710000e-06	-6.039547e-07	-3.429213e-10	-4.202511e+00	-2.600007e+01
1.720000e-06	-5.573829e-07	-3.283515e-10	-3.878449e+00	-2.507683e+01
1.730000e-06	-5.108928e-07	-3.112311e-10	-3.554956e+00	-2.413305e+01
1.740000e-06	-4.643601e-07	-2.917324e-10	-3.231166e+00	-2.316850e+01
1.750000e-06	-4.177696e-07	-2.741871e-10	-2.906975e+00	-2.218305e+01
1.760000e-06	-3.711955e-07	-2.607012e-10	-2.582897e+00	-2.117659e+01
1.770000e-06	-3.245417e-07	-2.489378e-10	-2.258265e+00	-2.014912e+01
1.780000e-06	-2.778425e-07	-2.363168e-10	-1.933317e+00	-1.910067e+01
1.790000e-06	-2.310924e-07	-2.216475e-10	-1.608015e+00	-1.803138e+01
1.800000e-06	-1.842523e-07	-2.031267e-10	-1.282086e+00	-1.694145e+01
1.810000e-06	-1.374652e-07	-1.848814e-10	-9.565272e-01	-1.583115e+01
1.820000e-06	-9.071819e-08	-1.699780e-10	-6.312462e-01	-1.470083e+01
1.830000e-06	-4.389682e-08	-1.575593e-10	-3.054481e-01	-1.355091e+01
1.840000e-06	2.903457e-09	-1.439208e-10	2.020319e-02	-1.238190e+01
1.850000e-06	4.965251e-08	-1.283678e-10	3.454980e-01	-1.119437e+01
1.860000e-06	9.639222e-08	-1.134291e-10	6.707279e-01	-9.988971e+00
1.870000e-06	1.431276e-07	-9.712027e-11	9.959278e-01	-8.766423e+00
1.880000e-06	1.898568e-07	-7.849975e-11	1.321084e+00	-7.527512e+00
1.890000e-06	2.366405e-07	-5.883717e-11	1.646620e+00	-6.273091e+00
1.900000e-06	2.834355e-07	-3.884481e-11	1.972235e+00	-5.004073e+00
1.910000e-06	3.301686e-07	-2.010115e-11	2.297419e+00	-3.721431e+00
1.920000e-06	3.769038e-07	-3.437611e-12	2.622618e+00	-2.426190e+00
1.930000e-06	4.236501e-07	1.245776e-11	2.947893e+00	-1.119425e+00
1.940000e-06	4.703912e-07	2.988501e-11	3.273133e+00	1.977458e-01
1.950000e-06	5.170395e-07	4.862559e-11	3.597726e+00	1.524164e+00
1.960000e-06	5.635071e-07	6.779316e-11	3.921063e+00	2.858637e+00
1.970000e-06	6.098391e-07	8.599457e-11	4.243456e+00	4.199947e+00
1.980000e-06	6.561455e-07	1.034763e-10	4.565670e+00	5.546851e+00
1.990000e-06	7.024602e-07	1.220837e-10	4.887943e+00	6.898090e+00
2.000000e-06	7.487237e-07	1.378437e-10	5.209859e+00	8.252394e+00
2.010000e-06	7.948833e-07	1.542749e-10	5.531052e+00	9.608489e+00
2.020000e-06	8.409488e-07	1.736319e-10	5.851591e+00	1.096510e+01
2.030000e-06	8.869420e-07	1.935831e-10	6.171627e+00	1.232096e+01
2.040000e-06	9.329674e-07	2.122951e-10	6.491886e+00	1.367481e+01
2.050000e-06	9.790597e-07	2.299349e-10	6.812611e+00	1.502542e+01
2.060000e-06	1.025065e-06	2.462871e-10	7.132729e+00	1.637156e+01
2.070000e-06	1.070910e-06	2.636919e-10	7.451738e+00	1.771205e+01
2.080000e-06	1.116648e-06	2.838270e-10	7.769991e+00	1.904573e+01
2.090000e-06	1.162335e-06	3.056109e-10	8.087902e+00	2.037148e+01
2.100000e-06	1.208038e-06	3.273714e-10	8.405912e+00	2.168822e+01
2.110000e-06	1.253739e-06	3.459044e-10	8.723915e+00	2.299490e+01
2.120000e-06	1.299278e-06	3.630263e-10	9.040791e+00	2.429055e+01
2.130000e-06	1.344701e-06	3.804750e-10	9.356859e+00	2.557420e+01
2.140000e-06	1.390074e-06	3.967705e-10	9.672583e+00	2.684499e+01
2.150000e-06	1.435386e-06	4.127353e-10	9.987877e+00	2.810206e+01
2.160000e-06	1.480587e-06	4.304093e-10	1.030240e+01	2.934465e+01
2.170000e-06	1.525582e-06	4.496168e-10	1.061549e+01	3.057201e+01
2.180000e-06	1.570463e-06	4.699410e-10	1.092778e+01	3.178350e+01
2.190000e-06	1.615226e-06	4.873804e-10	1.123926e+01	3.297850e+01
2.200000e-06	1.659786e-06	5.017829e-10	1.154932e+01	3.415645e+01
2.210000e-06	1.704276e-06	5.172476e-10	1.185890e+01	3.531686e+01
2.220000e-06	1.748655e-06	5.331839e-10	1.216770e+01	3.645930e+01
2.230000e-06	1.792841e-06	5.506538e-10	1.247516e+01	3.758339e+01
2.240000e-06	1.836939e-06	5.669105e-10	1.278201e+01	3.868878e+01
2.250000e-06	1.880943e-06	5.799117e-10	1.308821e+01	3.977521e+01
2.260000e-06	1.924836e-06	5.916104e-10	1.339362e+01	4.084245e+01
2.270000e-06	1.968621e-06	6.077725e-10	1.369829e+01	4.189032e+01
2.280000e-06	2.012331e-06	6.290222e-10	1.400244e+01	4.291868e+01
2.290000e-06	2.055989e-06	6.502605e-10	1.430623e+01	4.392746e+01
2.300000e-06	2.099586e-06	6.667790e-10	1.460959e+01	4.491659e+01
2.310000e-06	2.143154e-06	6.776982e-10	1.491275e+01	4.588606e+01
2.320000e-06	2.186682e-06	6.847310e-10	1.521563e+01	4.683591e+01
2.330000e-06	2.230067e-06	6.891855e-10	1.551752e+01	4.776619e+01
2.340000e-06	2.273316e-06	6.990015e-10	1.581846e+01	4.867697e+01
2.350000e-06	2.316423e-06	7.180478e-10	1.611841e+01	4.956838e+01
2.360000e-06	2.359253e-06	7.414141e-10	1.641644e+01	5.044056e+01
2.370000e-06	2.401792e-06	7.599416e-10	1.671244e+01	5.129365e+01
2.380000e-06	2.444075e-06	7.725119e-10	1.700666e+01	5.212783e+01
2.390000e-06	2.486035e-06	7.807949e-10	1.729863e+01	5.294331e+01
2.400000e-06	2.527675e-06	7.873634e-10	1.758838e+01	5.374028e+01
2.410000e-06	2.569175e-06	7.946615e-10	1.787714e+01	5.451897e+01
2.420000e-06	2.610424e-06	8.051135e-10	1.816417e+01	5.527961e+01
2.430000e-06	2.651175e-06	8.182772e-10	1.844773e+01	5.602243e+01
2.440000e-06	2.691615e-06	8.322402e-10	1.872912e+01	5.674769e+01
2.450000e-06	2.731829e-06	8.468817e-10	1.900894e+01	5.745562e+01
2.460000e-06	2.771810e-06	8.612549e-10	1.928714e+01	5.814650e+01
2.470000e-06	2.811737e-06	8.710266e-10	1.956497e+01	5.882058e+01
2.480000e-06	2.851593e-06	8.761686e-10	1.984230e+01	5.947812e+01
2.490000e-06	2.891293e-06	8.803940e-10	2.011855e+01	6.011939e+01
2.500000e-06	2.930814e-06	8.855847e-10	2.039354e+01	6.074465e+01
2.510000e-06	2.970137e-06	8.938187e-10	2.066717e+01	6.135418e+01
2.520000e-06	3.009277e-06	9.056258e-10	2.093951e+01	6.194824e+01
2.530000e-06	3.048294e-06	9.172030e-10	2.121100e+01	6.252710e+01
2.540000e-06	3.087097e-06	9.265922e-10	2.148101e+01	6.309104e+01
2.550000e-06	3.125593e-06	9.347600e-10	2.174888e+01	6.364033e+01
2.560000e-06	3.163873e-06	9.421840e-10	2.201524e+01	6.417525e+01
2.570000e-06	3.202001e-06	9.473799e-10	2.228055e+01	6.469607e+01
2.580000e-06	3.239910e-06	9.507406e-10	2.254433e+01	6.520308e+01
2.590000e-06	3.277517e-06	9.563836e-10	2.280602e+01	6.569657e+01
2.600000e-06	3.314851e-06	9.643241e-10	2.306580e+01	6.617681e+01
2.610000e-06	3.352041e-06	9.702344e-10	2.332458e+01	6.664410e+01
2.620000e-06	3.389084e-06	9.745336e-10	2.358233e+01	6.709875e+01
2.630000e-06	3.425880e-06	9.797327e-10	2.383837e+01	6.754103e+01
2.640000e-06	3.462369e-06	9.839917e-10	2.409227e+01	6.797128e+01
2.650000e-06	3.498535e-06	9.882692e-10	2.434393e+01	6.838978e+01
2.660000e-06	3.534493e-06	9.922722e-10	2.459413e+01	6.879686e+01
2.670000e-06	3.570322e-06	9.972629e-10	2.484344e+01	6.919283e+01
2.680000e-06	3.606011e-06	1.004738e-09	2.509178e+01	6.957801e+01
2.690000e-06	3.641555e-06	1.013554e-09	2.533911e+01	6.995274e+01
2.700000e-06	3.676971e-06	1.023217e-09	2.558555e+01	7.031735e+01
2.710000e-06	3.712267e-06	1.032617e-09	2.583114e+01	7.067216e+01
2.720000e-06	3.747353e-06	1.039003e-09	2.607529e+01	7.101751e+01
2.730000e-06	3.782114e-06	1.042598e-09	2.631716e+01	7.135374e+01
2.740000e-06	3.816451e-06	1.044674e-09	2.655609e+01	7.168118e+01
2.750000e-06	3.850276e-06	1.046102e-09	2.679145e+01	7.200018e+01
2.760000e-06	3.883511e-06	1.048030e-09	2.702272e+01	7.231107e+01
2.770000e-06	3.916242e-06	1.052094e-09	2.725047e+01	7.261417e+01
2.780000e-06	3.948576e-06	1.058411e-09	2.747546e+01	7.290983e+01
2.790000e-06	3.980558e-06	1.065674e-09	2.769800e+01	7.319835e+01
2.800000e-06	4.012343e-06	1.070816e-09	2.791917e+01	7.348006e+01
2.810000e-06	4.044028e-06	1.074542e-09	2.813965e+01	7.375526e+01
2.820000e-06	4.075575e-06	1.076864e-09	2.835916e+01	7.402425e+01
2.830000e-06	4.106915e-06	1.079175e-09	2.857723e+01	7.428732e+01
2.840000e-06	4.138024e-06	1.083371e-09	2.879370e+01	7.454473e+01
2.850000e-06	4.168899e-06	1.087836e-09	2.900853e+01	7.479676e+01
2.860000e-06	4.199410e-06	1.092688e-09	2.922084e+01	7.504364e+01
2.870000e-06	4.229467e-06	1.096391e-09	2.942999e+01	7.528561e+01
2.880000e-06	4.259225e-06	1.102243e-09	2.963705e+01	7.552287e+01
2.890000e-06	4.288767e-06	1.108356e-09	2.984261e+01	7.575561e+01
2.900000e-06	4.318052e-06	1.114453e-09	3.004639e+01	7.598402e+01
