# Temperatura_=_11.4
# Concentracion g/m^3_=_1620.0
# C_Vs_to_Am_M_A/Vsm_=_65563218390.804596
# pendiente_HvsI_1/m_=_3716.3
# ordenada_HvsI_A/m_=_1297.0
# frecuencia_Hz_=_135088.3268685086

Tiempo_(s)	Campo_(V.s)	Magnetizacion_(V.s)	Campo_(kA/m)	Magnetizacion_(A/m)
0.000000e+00	-5.512632e-06	-1.616824e-09	-3.838459e+01	-1.044000e+02
1.000000e-08	-5.512953e-06	-1.611172e-09	-3.838682e+01	-1.043993e+02
2.000000e-08	-5.513055e-06	-1.612988e-09	-3.838753e+01	-1.043958e+02
3.000000e-08	-5.512831e-06	-1.618485e-09	-3.838598e+01	-1.043896e+02
4.000000e-08	-5.512109e-06	-1.621798e-09	-3.838095e+01	-1.043804e+02
5.000000e-08	-5.510845e-06	-1.616016e-09	-3.837215e+01	-1.043683e+02
6.000000e-08	-5.508903e-06	-1.602742e-09	-3.835862e+01	-1.043530e+02
7.000000e-08	-5.506230e-06	-1.604397e-09	-3.834001e+01	-1.043345e+02
8.000000e-08	-5.503070e-06	-1.665338e-09	-3.831801e+01	-1.043125e+02
9.000000e-08	-5.499549e-06	-1.694968e-09	-3.829349e+01	-1.042870e+02
1.000000e-07	-5.495576e-06	-1.657691e-09	-3.826582e+01	-1.042577e+02
1.100000e-07	-5.491259e-06	-1.589623e-09	-3.823577e+01	-1.042246e+02
1.200000e-07	-5.486811e-06	-1.586719e-09	-3.820480e+01	-1.041875e+02
1.300000e-07	-5.482124e-06	-1.601906e-09	-3.817216e+01	-1.041462e+02
1.400000e-07	-5.476979e-06	-1.619508e-09	-3.813634e+01	-1.041007e+02
1.500000e-07	-5.471446e-06	-1.566002e-09	-3.809781e+01	-1.040508e+02
1.600000e-07	-5.465708e-06	-1.590689e-09	-3.805786e+01	-1.039963e+02
1.700000e-07	-5.459524e-06	-1.582826e-09	-3.801480e+01	-1.039371e+02
1.800000e-07	-5.452886e-06	-1.678776e-09	-3.796857e+01	-1.038731e+02
1.900000e-07	-5.445782e-06	-1.607283e-09	-3.791911e+01	-1.038043e+02
2.000000e-07	-5.438294e-06	-1.595844e-09	-3.786697e+01	-1.037304e+02
2.100000e-07	-5.430600e-06	-1.541654e-09	-3.781340e+01	-1.036514e+02
2.200000e-07	-5.422742e-06	-1.629065e-09	-3.775868e+01	-1.035672e+02
2.300000e-07	-5.414582e-06	-1.620734e-09	-3.770186e+01	-1.034776e+02
2.400000e-07	-5.405903e-06	-1.605240e-09	-3.764143e+01	-1.033827e+02
2.500000e-07	-5.396599e-06	-1.598405e-09	-3.757665e+01	-1.032824e+02
2.600000e-07	-5.386652e-06	-1.601093e-09	-3.750738e+01	-1.031765e+02
2.700000e-07	-5.376177e-06	-1.576388e-09	-3.743445e+01	-1.030650e+02
2.800000e-07	-5.365234e-06	-1.534865e-09	-3.735825e+01	-1.029479e+02
2.900000e-07	-5.353813e-06	-1.584622e-09	-3.727873e+01	-1.028251e+02
3.000000e-07	-5.342020e-06	-1.572086e-09	-3.719661e+01	-1.026965e+02
3.100000e-07	-5.329884e-06	-1.571925e-09	-3.711211e+01	-1.025622e+02
3.200000e-07	-5.317328e-06	-1.512321e-09	-3.702468e+01	-1.024220e+02
3.300000e-07	-5.304400e-06	-1.588689e-09	-3.693466e+01	-1.022760e+02
3.400000e-07	-5.291028e-06	-1.536752e-09	-3.684156e+01	-1.021241e+02
3.500000e-07	-5.277207e-06	-1.557500e-09	-3.674532e+01	-1.019663e+02
3.600000e-07	-5.262984e-06	-1.528130e-09	-3.664629e+01	-1.018025e+02
3.700000e-07	-5.248309e-06	-1.575554e-09	-3.654410e+01	-1.016327e+02
3.800000e-07	-5.232994e-06	-1.511167e-09	-3.643746e+01	-1.014569e+02
3.900000e-07	-5.217187e-06	-1.556063e-09	-3.632740e+01	-1.012751e+02
4.000000e-07	-5.201094e-06	-1.548713e-09	-3.621534e+01	-1.010873e+02
4.100000e-07	-5.184710e-06	-1.524097e-09	-3.610126e+01	-1.008934e+02
4.200000e-07	-5.167827e-06	-1.491632e-09	-3.598371e+01	-1.006934e+02
4.300000e-07	-5.150566e-06	-1.555144e-09	-3.586351e+01	-1.004874e+02
4.400000e-07	-5.133117e-06	-1.528126e-09	-3.574202e+01	-1.002752e+02
4.500000e-07	-5.115303e-06	-1.507195e-09	-3.561798e+01	-1.000568e+02
4.600000e-07	-5.096985e-06	-1.530188e-09	-3.549043e+01	-9.983231e+01
4.700000e-07	-5.078278e-06	-1.537964e-09	-3.536017e+01	-9.960165e+01
4.800000e-07	-5.059217e-06	-1.478426e-09	-3.522745e+01	-9.936480e+01
4.900000e-07	-5.039847e-06	-1.506747e-09	-3.509257e+01	-9.912177e+01
5.000000e-07	-5.020310e-06	-1.534462e-09	-3.495654e+01	-9.887254e+01
5.100000e-07	-5.000512e-06	-1.477140e-09	-3.481868e+01	-9.861711e+01
5.200000e-07	-4.980374e-06	-1.469305e-09	-3.467847e+01	-9.835548e+01
5.300000e-07	-4.959949e-06	-1.524083e-09	-3.453624e+01	-9.808765e+01
5.400000e-07	-4.939151e-06	-1.505896e-09	-3.439142e+01	-9.781364e+01
5.500000e-07	-4.917916e-06	-1.462297e-09	-3.424357e+01	-9.753345e+01
5.600000e-07	-4.896375e-06	-1.496129e-09	-3.409358e+01	-9.724711e+01
5.700000e-07	-4.874572e-06	-1.473995e-09	-3.394176e+01	-9.695464e+01
5.800000e-07	-4.852418e-06	-1.445005e-09	-3.378750e+01	-9.665607e+01
5.900000e-07	-4.829960e-06	-1.469440e-09	-3.363113e+01	-9.635144e+01
6.000000e-07	-4.807167e-06	-1.489787e-09	-3.347242e+01	-9.604080e+01
6.100000e-07	-4.783972e-06	-1.436417e-09	-3.331092e+01	-9.572419e+01
6.200000e-07	-4.760525e-06	-1.453510e-09	-3.314765e+01	-9.540168e+01
6.300000e-07	-4.736912e-06	-1.453009e-09	-3.298323e+01	-9.507332e+01
6.400000e-07	-4.713067e-06	-1.429415e-09	-3.281720e+01	-9.473921e+01
6.500000e-07	-4.688834e-06	-1.413063e-09	-3.264847e+01	-9.439940e+01
6.600000e-07	-4.664187e-06	-1.445104e-09	-3.247685e+01	-9.405400e+01
6.700000e-07	-4.639055e-06	-1.417909e-09	-3.230185e+01	-9.370309e+01
6.800000e-07	-4.613365e-06	-1.421066e-09	-3.212297e+01	-9.334678e+01
6.900000e-07	-4.587133e-06	-1.426770e-09	-3.194031e+01	-9.298516e+01
7.000000e-07	-4.560323e-06	-1.423748e-09	-3.175364e+01	-9.261835e+01
7.100000e-07	-4.533137e-06	-1.393821e-09	-3.156434e+01	-9.224646e+01
7.200000e-07	-4.505702e-06	-1.404878e-09	-3.137331e+01	-9.186960e+01
7.300000e-07	-4.478023e-06	-1.391865e-09	-3.118058e+01	-9.148790e+01
7.400000e-07	-4.450224e-06	-1.383265e-09	-3.098701e+01	-9.110147e+01
7.500000e-07	-4.422250e-06	-1.380946e-09	-3.079223e+01	-9.071042e+01
7.600000e-07	-4.394023e-06	-1.386637e-09	-3.059569e+01	-9.031489e+01
7.700000e-07	-4.365476e-06	-1.367426e-09	-3.039691e+01	-8.991497e+01
7.800000e-07	-4.336597e-06	-1.361142e-09	-3.019583e+01	-8.951079e+01
7.900000e-07	-4.307421e-06	-1.359686e-09	-2.999267e+01	-8.910245e+01
8.000000e-07	-4.278032e-06	-1.349796e-09	-2.978804e+01	-8.869006e+01
8.100000e-07	-4.248320e-06	-1.338187e-09	-2.958115e+01	-8.827370e+01
8.200000e-07	-4.218220e-06	-1.335500e-09	-2.937157e+01	-8.785346e+01
8.300000e-07	-4.187881e-06	-1.332810e-09	-2.916032e+01	-8.742943e+01
8.400000e-07	-4.157339e-06	-1.320174e-09	-2.894765e+01	-8.700166e+01
8.500000e-07	-4.126469e-06	-1.317391e-09	-2.873270e+01	-8.657022e+01
8.600000e-07	-4.095219e-06	-1.307210e-09	-2.851511e+01	-8.613514e+01
8.700000e-07	-4.063770e-06	-1.298166e-09	-2.829613e+01	-8.569647e+01
8.800000e-07	-4.032247e-06	-1.287594e-09	-2.807663e+01	-8.525421e+01
8.900000e-07	-4.000551e-06	-1.293147e-09	-2.785593e+01	-8.480838e+01
9.000000e-07	-3.968559e-06	-1.278973e-09	-2.763317e+01	-8.435897e+01
9.100000e-07	-3.936218e-06	-1.269390e-09	-2.740798e+01	-8.390595e+01
9.200000e-07	-3.903602e-06	-1.257518e-09	-2.718088e+01	-8.344928e+01
9.300000e-07	-3.870712e-06	-1.255456e-09	-2.695186e+01	-8.298893e+01
9.400000e-07	-3.837374e-06	-1.238029e-09	-2.671973e+01	-8.252482e+01
9.500000e-07	-3.803648e-06	-1.236100e-09	-2.648489e+01	-8.205688e+01
9.600000e-07	-3.769517e-06	-1.227233e-09	-2.624724e+01	-8.158502e+01
9.700000e-07	-3.734900e-06	-1.217323e-09	-2.600620e+01	-8.110914e+01
9.800000e-07	-3.699872e-06	-1.202421e-09	-2.576230e+01	-8.062913e+01
9.900000e-07	-3.664583e-06	-1.202920e-09	-2.551658e+01	-8.014487e+01
1.000000e-06	-3.629150e-06	-1.190068e-09	-2.526986e+01	-7.965623e+01
1.010000e-06	-3.593539e-06	-1.181438e-09	-2.502190e+01	-7.916308e+01
1.020000e-06	-3.557741e-06	-1.173219e-09	-2.477264e+01	-7.866527e+01
1.030000e-06	-3.521808e-06	-1.169095e-09	-2.452244e+01	-7.816267e+01
1.040000e-06	-3.485641e-06	-1.155370e-09	-2.427060e+01	-7.765512e+01
1.050000e-06	-3.449219e-06	-1.147202e-09	-2.401700e+01	-7.714248e+01
1.060000e-06	-3.412586e-06	-1.137144e-09	-2.376192e+01	-7.662459e+01
1.070000e-06	-3.375642e-06	-1.124688e-09	-2.350467e+01	-7.610133e+01
1.080000e-06	-3.338409e-06	-1.114385e-09	-2.324543e+01	-7.557254e+01
1.090000e-06	-3.301005e-06	-1.108807e-09	-2.298497e+01	-7.503809e+01
1.100000e-06	-3.263386e-06	-1.099477e-09	-2.272304e+01	-7.449785e+01
1.110000e-06	-3.225570e-06	-1.086928e-09	-2.245972e+01	-7.395171e+01
1.120000e-06	-3.187565e-06	-1.078039e-09	-2.219509e+01	-7.339955e+01
1.130000e-06	-3.149250e-06	-1.067837e-09	-2.192830e+01	-7.284128e+01
1.140000e-06	-3.110695e-06	-1.059292e-09	-2.165984e+01	-7.227680e+01
1.150000e-06	-3.071987e-06	-1.048588e-09	-2.139032e+01	-7.170606e+01
1.160000e-06	-3.033054e-06	-1.042287e-09	-2.111923e+01	-7.112897e+01
1.170000e-06	-2.993968e-06	-1.031905e-09	-2.084707e+01	-7.054551e+01
1.180000e-06	-2.954657e-06	-1.025542e-09	-2.057335e+01	-6.995563e+01
1.190000e-06	-2.915178e-06	-1.015437e-09	-2.029845e+01	-6.935933e+01
1.200000e-06	-2.875593e-06	-1.007217e-09	-2.002282e+01	-6.875659e+01
1.210000e-06	-2.835847e-06	-9.928450e-10	-1.974607e+01	-6.814742e+01
1.220000e-06	-2.796028e-06	-9.825190e-10	-1.946881e+01	-6.753185e+01
1.230000e-06	-2.756023e-06	-9.688673e-10	-1.919026e+01	-6.690991e+01
1.240000e-06	-2.715839e-06	-9.611218e-10	-1.891045e+01	-6.628165e+01
1.250000e-06	-2.675458e-06	-9.516219e-10	-1.862928e+01	-6.564711e+01
1.260000e-06	-2.634853e-06	-9.440215e-10	-1.834655e+01	-6.500637e+01
1.270000e-06	-2.593903e-06	-9.321763e-10	-1.806141e+01	-6.435949e+01
1.280000e-06	-2.552681e-06	-9.218902e-10	-1.777438e+01	-6.370655e+01
1.290000e-06	-2.511267e-06	-9.101656e-10	-1.748602e+01	-6.304761e+01
1.300000e-06	-2.469449e-06	-9.012185e-10	-1.719483e+01	-6.238274e+01
1.310000e-06	-2.427302e-06	-8.896601e-10	-1.690136e+01	-6.171203e+01
1.320000e-06	-2.384938e-06	-8.783003e-10	-1.660638e+01	-6.103553e+01
1.330000e-06	-2.342261e-06	-8.657816e-10	-1.630922e+01	-6.035329e+01
1.340000e-06	-2.299325e-06	-8.550406e-10	-1.601026e+01	-5.966537e+01
1.350000e-06	-2.256189e-06	-8.440712e-10	-1.570990e+01	-5.897179e+01
1.360000e-06	-2.212858e-06	-8.335339e-10	-1.540818e+01	-5.827257e+01
1.370000e-06	-2.169468e-06	-8.217880e-10	-1.510606e+01	-5.756771e+01
1.380000e-06	-2.125961e-06	-8.147926e-10	-1.480312e+01	-5.685717e+01
1.390000e-06	-2.082353e-06	-8.101173e-10	-1.449948e+01	-5.614091e+01
1.400000e-06	-2.038672e-06	-8.014828e-10	-1.419532e+01	-5.541885e+01
1.410000e-06	-1.994901e-06	-7.902843e-10	-1.389054e+01	-5.469090e+01
1.420000e-06	-1.951072e-06	-7.771254e-10	-1.358536e+01	-5.395691e+01
1.430000e-06	-1.907125e-06	-7.639389e-10	-1.327936e+01	-5.321671e+01
1.440000e-06	-1.863007e-06	-7.501618e-10	-1.297216e+01	-5.247012e+01
1.450000e-06	-1.818855e-06	-7.380334e-10	-1.266473e+01	-5.171690e+01
1.460000e-06	-1.774593e-06	-7.285849e-10	-1.235653e+01	-5.095677e+01
1.470000e-06	-1.730185e-06	-7.188556e-10	-1.204732e+01	-5.018945e+01
1.480000e-06	-1.685648e-06	-7.048194e-10	-1.173721e+01	-4.941458e+01
1.490000e-06	-1.640889e-06	-6.900561e-10	-1.142555e+01	-4.863180e+01
1.500000e-06	-1.595975e-06	-6.741517e-10	-1.111281e+01	-4.784070e+01
1.510000e-06	-1.550966e-06	-6.625322e-10	-1.079942e+01	-4.704085e+01
1.520000e-06	-1.505954e-06	-6.506495e-10	-1.048599e+01	-4.623177e+01
1.530000e-06	-1.460887e-06	-6.406809e-10	-1.017219e+01	-4.541296e+01
1.540000e-06	-1.415693e-06	-6.273371e-10	-9.857501e+00	-4.458391e+01
1.550000e-06	-1.370418e-06	-6.133007e-10	-9.542255e+00	-4.374405e+01
1.560000e-06	-1.325091e-06	-5.968875e-10	-9.226643e+00	-4.289283e+01
1.570000e-06	-1.279657e-06	-5.807536e-10	-8.910281e+00	-4.202965e+01
1.580000e-06	-1.234058e-06	-5.639818e-10	-8.592776e+00	-4.115392e+01
1.590000e-06	-1.188286e-06	-5.519939e-10	-8.274064e+00	-4.026502e+01
1.600000e-06	-1.142484e-06	-5.399642e-10	-7.955147e+00	-3.936234e+01
1.610000e-06	-1.096613e-06	-5.260500e-10	-7.635740e+00	-3.844527e+01
1.620000e-06	-1.050607e-06	-5.102329e-10	-7.315399e+00	-3.751319e+01
1.630000e-06	-1.004539e-06	-4.977813e-10	-6.994632e+00	-3.656551e+01
1.640000e-06	-9.584290e-07	-4.864643e-10	-6.673564e+00	-3.560164e+01
1.650000e-06	-9.122145e-07	-4.709993e-10	-6.351772e+00	-3.462102e+01
1.660000e-06	-8.659497e-07	-4.522377e-10	-6.029628e+00	-3.362310e+01
1.670000e-06	-8.197797e-07	-4.346758e-10	-5.708146e+00	-3.260739e+01
1.680000e-06	-7.735829e-07	-4.162511e-10	-5.386476e+00	-3.157340e+01
1.690000e-06	-7.272199e-07	-3.977013e-10	-5.063649e+00	-3.052071e+01
1.700000e-06	-6.807691e-07	-3.848324e-10	-4.740212e+00	-2.944893e+01
1.710000e-06	-6.343090e-07	-3.733442e-10	-4.416708e+00	-2.835772e+01
1.720000e-06	-5.879025e-07	-3.592175e-10	-4.093579e+00	-2.724682e+01
1.730000e-06	-5.414698e-07	-3.400793e-10	-3.770267e+00	-2.611599e+01
1.740000e-06	-4.949254e-07	-3.166795e-10	-3.446177e+00	-2.496509e+01
1.750000e-06	-4.483414e-07	-2.924091e-10	-3.121812e+00	-2.379402e+01
1.760000e-06	-4.016748e-07	-2.710850e-10	-2.796871e+00	-2.260278e+01
1.770000e-06	-3.549171e-07	-2.544867e-10	-2.471296e+00	-2.139141e+01
1.780000e-06	-3.081430e-07	-2.426140e-10	-2.145607e+00	-2.016005e+01
1.790000e-06	-2.613779e-07	-2.310159e-10	-1.819980e+00	-1.890891e+01
1.800000e-06	-2.146099e-07	-2.172930e-10	-1.494334e+00	-1.763827e+01
1.810000e-06	-1.679310e-07	-1.987164e-10	-1.169307e+00	-1.634850e+01
1.820000e-06	-1.212325e-07	-1.783602e-10	-8.441447e-01	-1.504004e+01
1.830000e-06	-7.443841e-08	-1.577533e-10	-5.183164e-01	-1.371343e+01
1.840000e-06	-2.763278e-08	-1.394437e-10	-1.924077e-01	-1.236927e+01
1.850000e-06	1.921512e-08	-1.218721e-10	1.337953e-01	-1.100823e+01
1.860000e-06	6.602100e-08	-1.057393e-10	4.597058e-01	-9.631067e+00
1.870000e-06	1.127204e-07	-9.072580e-11	7.848750e-01	-8.238612e+00
1.880000e-06	1.593608e-07	-7.386377e-11	1.109633e+00	-6.831759e+00
1.890000e-06	2.060547e-07	-5.272332e-11	1.434764e+00	-5.411468e+00
1.900000e-06	2.527886e-07	-3.107739e-11	1.760173e+00	-3.978760e+00
1.910000e-06	2.995169e-07	-9.433296e-12	2.085543e+00	-2.534715e+00
1.920000e-06	3.462237e-07	1.156240e-11	2.410764e+00	-1.080462e+00
1.930000e-06	3.928490e-07	3.082860e-11	2.735417e+00	3.828214e-01
1.940000e-06	4.394122e-07	4.858594e-11	3.059638e+00	1.853919e+00
1.950000e-06	4.859722e-07	6.798036e-11	3.383836e+00	3.331577e+00
1.960000e-06	5.325891e-07	8.847603e-11	3.708431e+00	4.814516e+00
1.970000e-06	5.791782e-07	1.078203e-10	4.032832e+00	6.301432e+00
1.980000e-06	6.256536e-07	1.267942e-10	4.356441e+00	7.791007e+00
1.990000e-06	6.720390e-07	1.474131e-10	4.679424e+00	9.281912e+00
2.000000e-06	7.183410e-07	1.671257e-10	5.001825e+00	1.077282e+01
2.010000e-06	7.645914e-07	1.853278e-10	5.323868e+00	1.226239e+01
2.020000e-06	8.107643e-07	2.053090e-10	5.645371e+00	1.374933e+01
2.030000e-06	8.568440e-07	2.273977e-10	5.966225e+00	1.523232e+01
2.040000e-06	9.028947e-07	2.499555e-10	6.286877e+00	1.671009e+01
2.050000e-06	9.489906e-07	2.709460e-10	6.607844e+00	1.818140e+01
2.060000e-06	9.950624e-07	2.907224e-10	6.928643e+00	1.964503e+01
2.070000e-06	1.040925e-06	3.094845e-10	7.247986e+00	2.109981e+01
2.080000e-06	1.086698e-06	3.299607e-10	7.566701e+00	2.254462e+01
2.090000e-06	1.132413e-06	3.509575e-10	7.885021e+00	2.397838e+01
2.100000e-06	1.178005e-06	3.728781e-10	8.202476e+00	2.540007e+01
2.110000e-06	1.223549e-06	3.938616e-10	8.519601e+00	2.680873e+01
2.120000e-06	1.269051e-06	4.134963e-10	8.836436e+00	2.820346e+01
2.130000e-06	1.314503e-06	4.322769e-10	9.152915e+00	2.958341e+01
2.140000e-06	1.359871e-06	4.502692e-10	9.468817e+00	3.094783e+01
2.150000e-06	1.405104e-06	4.698964e-10	9.783771e+00	3.229601e+01
2.160000e-06	1.450216e-06	4.897922e-10	1.009789e+01	3.362732e+01
2.170000e-06	1.495235e-06	5.068549e-10	1.041136e+01	3.494120e+01
2.180000e-06	1.540143e-06	5.254474e-10	1.072405e+01	3.623717e+01
2.190000e-06	1.584914e-06	5.454874e-10	1.103579e+01	3.751480e+01
2.200000e-06	1.629537e-06	5.647474e-10	1.134651e+01	3.877375e+01
2.210000e-06	1.674026e-06	5.805152e-10	1.165628e+01	4.001374e+01
2.220000e-06	1.718414e-06	5.938887e-10	1.196536e+01	4.123456e+01
2.230000e-06	1.762684e-06	6.103895e-10	1.227361e+01	4.243607e+01
2.240000e-06	1.806798e-06	6.280372e-10	1.258078e+01	4.361817e+01
2.250000e-06	1.850821e-06	6.449899e-10	1.288731e+01	4.478085e+01
2.260000e-06	1.894827e-06	6.619917e-10	1.319372e+01	4.592414e+01
2.270000e-06	1.938694e-06	6.784880e-10	1.349917e+01	4.704812e+01
2.280000e-06	1.982408e-06	6.982761e-10	1.380355e+01	4.815293e+01
2.290000e-06	2.026081e-06	7.160514e-10	1.410765e+01	4.923874e+01
2.300000e-06	2.069701e-06	7.322689e-10	1.441138e+01	5.030578e+01
2.310000e-06	2.113267e-06	7.453698e-10	1.471473e+01	5.135430e+01
2.320000e-06	2.156696e-06	7.581872e-10	1.501712e+01	5.238459e+01
2.330000e-06	2.200024e-06	7.722212e-10	1.531882e+01	5.339696e+01
2.340000e-06	2.243291e-06	7.860505e-10	1.562009e+01	5.439176e+01
2.350000e-06	2.286411e-06	8.031467e-10	1.592034e+01	5.536934e+01
2.360000e-06	2.329331e-06	8.234464e-10	1.621919e+01	5.633006e+01
2.370000e-06	2.372046e-06	8.424470e-10	1.651662e+01	5.727433e+01
2.380000e-06	2.414471e-06	8.539910e-10	1.681202e+01	5.820251e+01
2.390000e-06	2.456503e-06	8.628783e-10	1.710469e+01	5.911501e+01
2.400000e-06	2.498185e-06	8.721725e-10	1.739493e+01	6.001220e+01
2.410000e-06	2.539627e-06	8.818453e-10	1.768349e+01	6.089449e+01
2.420000e-06	2.580800e-06	8.921160e-10	1.797017e+01	6.176223e+01
2.430000e-06	2.621640e-06	9.066662e-10	1.825454e+01	6.261581e+01
2.440000e-06	2.662196e-06	9.249216e-10	1.853693e+01	6.345557e+01
2.450000e-06	2.702490e-06	9.421067e-10	1.881750e+01	6.428185e+01
2.460000e-06	2.742628e-06	9.544157e-10	1.909698e+01	6.509498e+01
2.470000e-06	2.782621e-06	9.660373e-10	1.937546e+01	6.589526e+01
2.480000e-06	2.822424e-06	9.759478e-10	1.965261e+01	6.668297e+01
2.490000e-06	2.862061e-06	9.847742e-10	1.992860e+01	6.745839e+01
2.500000e-06	2.901629e-06	9.926789e-10	2.020412e+01	6.822175e+01
2.510000e-06	2.941114e-06	1.001443e-09	2.047905e+01	6.897329e+01
2.520000e-06	2.980405e-06	1.012840e-09	2.075263e+01	6.971320e+01
2.530000e-06	3.019494e-06	1.025693e-09	2.102481e+01	7.044168e+01
2.540000e-06	3.058423e-06	1.036745e-09	2.129587e+01	7.115889e+01
2.550000e-06	3.097137e-06	1.046954e-09	2.156544e+01	7.186498e+01
2.560000e-06	3.135576e-06	1.058015e-09	2.183309e+01	7.256008e+01
2.570000e-06	3.173776e-06	1.068792e-09	2.209908e+01	7.324432e+01
2.580000e-06	3.211760e-06	1.076483e-09	2.236356e+01	7.391779e+01
2.590000e-06	3.249587e-06	1.080788e-09	2.262695e+01	7.458060e+01
2.600000e-06	3.287212e-06	1.087239e-09	2.288894e+01	7.523282e+01
2.610000e-06	3.324606e-06	1.095141e-09	2.314931e+01	7.587454e+01
2.620000e-06	3.361752e-06	1.103897e-09	2.340796e+01	7.650583e+01
2.630000e-06	3.398659e-06	1.113238e-09	2.366495e+01	7.712675e+01
2.640000e-06	3.435374e-06	1.125233e-09	2.392059e+01	7.773738e+01
2.650000e-06	3.471848e-06	1.136250e-09	2.417456e+01	7.833778e+01
2.660000e-06	3.508039e-06	1.144016e-09	2.442656e+01	7.892802e+01
2.670000e-06	3.544026e-06	1.149921e-09	2.467714e+01	7.950818e+01
2.680000e-06	3.579848e-06	1.154380e-09	2.492657e+01	8.007834e+01
2.690000e-06	3.615511e-06	1.163079e-09	2.517489e+01	8.063859e+01
2.700000e-06	3.651106e-06	1.170225e-09	2.542274e+01	8.118902e+01
2.710000e-06	3.686572e-06	1.177158e-09	2.566969e+01	8.172975e+01
2.720000e-06	3.721780e-06	1.184838e-09	2.591485e+01	8.226088e+01
2.730000e-06	3.756672e-06	1.195683e-09	2.615780e+01	8.278256e+01
2.740000e-06	3.791188e-06	1.206945e-09	2.639813e+01	8.329491e+01
2.750000e-06	3.825194e-06	1.215202e-09	2.663492e+01	8.379810e+01
2.760000e-06	3.858748e-06	1.222871e-09	2.686856e+01	8.429229e+01
2.770000e-06	3.891827e-06	1.229367e-09	2.709888e+01	8.477766e+01
2.780000e-06	3.924325e-06	1.237216e-09	2.732517e+01	8.525440e+01
2.790000e-06	3.956426e-06	1.244224e-09	2.754869e+01	8.572271e+01
2.800000e-06	3.988306e-06	1.250876e-09	2.777067e+01	8.618280e+01
2.810000e-06	4.020077e-06	1.258328e-09	2.799189e+01	8.663489e+01
2.820000e-06	4.051775e-06	1.266590e-09	2.821261e+01	8.707920e+01
2.830000e-06	4.083336e-06	1.275700e-09	2.843236e+01	8.751598e+01
2.840000e-06	4.114624e-06	1.284846e-09	2.865023e+01	8.794546e+01
2.850000e-06	4.145716e-06	1.293922e-09	2.886672e+01	8.836787e+01
2.860000e-06	4.176556e-06	1.301271e-09	2.908146e+01	8.878347e+01
2.870000e-06	4.206977e-06	1.304668e-09	2.929328e+01	8.919249e+01
2.880000e-06	4.237087e-06	1.309016e-09	2.950294e+01	8.959518e+01
2.890000e-06	4.266900e-06	1.313691e-09	2.971053e+01	8.999177e+01
2.900000e-06	4.296409e-06	1.323137e-09	2.991600e+01	9.038249e+01
