# Temperatura_=_10.57
# Concentracion g/m^3_=_1620.0
# C_Vs_to_Am_M_A/Vsm_=_65563218390.804596
# pendiente_HvsI_1/m_=_3716.3
# ordenada_HvsI_A/m_=_1297.0
# frecuencia_Hz_=_135088.52866708618

Tiempo_(s)	Campo_(V.s)	Magnetizacion_(V.s)	Campo_(kA/m)	Magnetizacion_(A/m)
0.000000e+00	-5.507386e-06	-1.443952e-09	-3.837790e+01	-9.518777e+01
1.000000e-08	-5.507665e-06	-1.440182e-09	-3.837984e+01	-9.517306e+01
2.000000e-08	-5.507699e-06	-1.439732e-09	-3.838008e+01	-9.515460e+01
3.000000e-08	-5.507401e-06	-1.440388e-09	-3.837800e+01	-9.513238e+01
4.000000e-08	-5.506662e-06	-1.437229e-09	-3.837285e+01	-9.510639e+01
5.000000e-08	-5.505391e-06	-1.424445e-09	-3.836399e+01	-9.507661e+01
6.000000e-08	-5.503543e-06	-1.405899e-09	-3.835112e+01	-9.504302e+01
7.000000e-08	-5.501085e-06	-1.404784e-09	-3.833399e+01	-9.500561e+01
8.000000e-08	-5.498052e-06	-1.456024e-09	-3.831286e+01	-9.496436e+01
9.000000e-08	-5.494530e-06	-1.521152e-09	-3.828831e+01	-9.491924e+01
1.000000e-07	-5.490547e-06	-1.532452e-09	-3.826056e+01	-9.487025e+01
1.100000e-07	-5.486276e-06	-1.429929e-09	-3.823079e+01	-9.481737e+01
1.200000e-07	-5.481857e-06	-1.344513e-09	-3.820000e+01	-9.476059e+01
1.300000e-07	-5.477206e-06	-1.370598e-09	-3.816759e+01	-9.469988e+01
1.400000e-07	-5.472146e-06	-1.453909e-09	-3.813233e+01	-9.463525e+01
1.500000e-07	-5.466605e-06	-1.422646e-09	-3.809371e+01	-9.456668e+01
1.600000e-07	-5.460762e-06	-1.372101e-09	-3.805300e+01	-9.449417e+01
1.700000e-07	-5.454520e-06	-1.393648e-09	-3.800950e+01	-9.441771e+01
1.800000e-07	-5.447831e-06	-1.512834e-09	-3.796289e+01	-9.433730e+01
1.900000e-07	-5.440724e-06	-1.467335e-09	-3.791337e+01	-9.425295e+01
2.000000e-07	-5.433282e-06	-1.354708e-09	-3.786150e+01	-9.416466e+01
2.100000e-07	-5.425617e-06	-1.320179e-09	-3.780809e+01	-9.407244e+01
2.200000e-07	-5.417676e-06	-1.439734e-09	-3.775276e+01	-9.397628e+01
2.300000e-07	-5.409495e-06	-1.475427e-09	-3.769575e+01	-9.387620e+01
2.400000e-07	-5.401018e-06	-1.408345e-09	-3.763667e+01	-9.377221e+01
2.500000e-07	-5.391916e-06	-1.383646e-09	-3.757325e+01	-9.366432e+01
2.600000e-07	-5.381963e-06	-1.416152e-09	-3.750389e+01	-9.355253e+01
2.700000e-07	-5.371368e-06	-1.406640e-09	-3.743006e+01	-9.343686e+01
2.800000e-07	-5.360299e-06	-1.360388e-09	-3.735293e+01	-9.331731e+01
2.900000e-07	-5.348802e-06	-1.396019e-09	-3.727282e+01	-9.319388e+01
3.000000e-07	-5.336973e-06	-1.420202e-09	-3.719038e+01	-9.306657e+01
3.100000e-07	-5.324758e-06	-1.408846e-09	-3.710526e+01	-9.293539e+01
3.200000e-07	-5.312044e-06	-1.360478e-09	-3.701667e+01	-9.280032e+01
3.300000e-07	-5.298955e-06	-1.397852e-09	-3.692546e+01	-9.266135e+01
3.400000e-07	-5.285517e-06	-1.387608e-09	-3.683181e+01	-9.251846e+01
3.500000e-07	-5.271646e-06	-1.380310e-09	-3.673515e+01	-9.237163e+01
3.600000e-07	-5.257358e-06	-1.356867e-09	-3.663559e+01	-9.222083e+01
3.700000e-07	-5.242592e-06	-1.389180e-09	-3.653269e+01	-9.206600e+01
3.800000e-07	-5.227391e-06	-1.376252e-09	-3.642676e+01	-9.190712e+01
3.900000e-07	-5.211703e-06	-1.376874e-09	-3.631745e+01	-9.174411e+01
4.000000e-07	-5.195482e-06	-1.366106e-09	-3.620441e+01	-9.157693e+01
4.100000e-07	-5.178879e-06	-1.373694e-09	-3.608871e+01	-9.140548e+01
4.200000e-07	-5.161928e-06	-1.360137e-09	-3.597059e+01	-9.122971e+01
4.300000e-07	-5.144626e-06	-1.359334e-09	-3.585003e+01	-9.104950e+01
4.400000e-07	-5.127097e-06	-1.361609e-09	-3.572788e+01	-9.086477e+01
4.500000e-07	-5.109264e-06	-1.379556e-09	-3.560361e+01	-9.067542e+01
4.600000e-07	-5.090899e-06	-1.362546e-09	-3.547563e+01	-9.048133e+01
4.700000e-07	-5.072027e-06	-1.336731e-09	-3.534413e+01	-9.028239e+01
4.800000e-07	-5.052829e-06	-1.340599e-09	-3.521035e+01	-9.007847e+01
4.900000e-07	-5.033432e-06	-1.365676e-09	-3.507517e+01	-8.986944e+01
5.000000e-07	-5.013812e-06	-1.352423e-09	-3.493846e+01	-8.965518e+01
5.100000e-07	-4.993925e-06	-1.327742e-09	-3.479988e+01	-8.943555e+01
5.200000e-07	-4.973746e-06	-1.334438e-09	-3.465926e+01	-8.921043e+01
5.300000e-07	-4.953279e-06	-1.338556e-09	-3.451664e+01	-8.897967e+01
5.400000e-07	-4.932531e-06	-1.332940e-09	-3.437205e+01	-8.874316e+01
5.500000e-07	-4.911480e-06	-1.329649e-09	-3.422536e+01	-8.850075e+01
5.600000e-07	-4.890041e-06	-1.324152e-09	-3.407596e+01	-8.825234e+01
5.700000e-07	-4.868216e-06	-1.297311e-09	-3.392388e+01	-8.799780e+01
5.800000e-07	-4.845945e-06	-1.306823e-09	-3.376868e+01	-8.773703e+01
5.900000e-07	-4.823335e-06	-1.321605e-09	-3.361113e+01	-8.746994e+01
6.000000e-07	-4.800452e-06	-1.307579e-09	-3.345167e+01	-8.719643e+01
6.100000e-07	-4.777279e-06	-1.284106e-09	-3.329019e+01	-8.691643e+01
6.200000e-07	-4.753847e-06	-1.297977e-09	-3.312691e+01	-8.662988e+01
6.300000e-07	-4.730158e-06	-1.284298e-09	-3.296183e+01	-8.633674e+01
6.400000e-07	-4.706221e-06	-1.266695e-09	-3.279502e+01	-8.603698e+01
6.500000e-07	-4.681999e-06	-1.268544e-09	-3.262624e+01	-8.573060e+01
6.600000e-07	-4.657443e-06	-1.282055e-09	-3.245512e+01	-8.541759e+01
6.700000e-07	-4.632253e-06	-1.264428e-09	-3.227958e+01	-8.509798e+01
6.800000e-07	-4.606437e-06	-1.264327e-09	-3.209969e+01	-8.477182e+01
6.900000e-07	-4.580180e-06	-1.264952e-09	-3.191672e+01	-8.443918e+01
7.000000e-07	-4.553467e-06	-1.254779e-09	-3.173057e+01	-8.410014e+01
7.100000e-07	-4.526328e-06	-1.234341e-09	-3.154145e+01	-8.375480e+01
7.200000e-07	-4.498910e-06	-1.241200e-09	-3.135039e+01	-8.340329e+01
7.300000e-07	-4.471317e-06	-1.239980e-09	-3.115811e+01	-8.304576e+01
7.400000e-07	-4.443520e-06	-1.230853e-09	-3.096441e+01	-8.268236e+01
7.500000e-07	-4.415470e-06	-1.225975e-09	-3.076895e+01	-8.231327e+01
7.600000e-07	-4.387230e-06	-1.228172e-09	-3.057216e+01	-8.193869e+01
7.700000e-07	-4.358733e-06	-1.212451e-09	-3.037357e+01	-8.155884e+01
7.800000e-07	-4.329933e-06	-1.197391e-09	-3.017288e+01	-8.117392e+01
7.900000e-07	-4.300778e-06	-1.197975e-09	-2.996972e+01	-8.078418e+01
8.000000e-07	-4.271283e-06	-1.195297e-09	-2.976418e+01	-8.038986e+01
8.100000e-07	-4.241494e-06	-1.182462e-09	-2.955660e+01	-7.999120e+01
8.200000e-07	-4.211402e-06	-1.176923e-09	-2.934691e+01	-7.958848e+01
8.300000e-07	-4.181054e-06	-1.177368e-09	-2.913543e+01	-7.918195e+01
8.400000e-07	-4.150383e-06	-1.167707e-09	-2.892170e+01	-7.877186e+01
8.500000e-07	-4.119379e-06	-1.160036e-09	-2.870565e+01	-7.835848e+01
8.600000e-07	-4.088187e-06	-1.152867e-09	-2.848829e+01	-7.794206e+01
8.700000e-07	-4.056812e-06	-1.144487e-09	-2.826965e+01	-7.752285e+01
8.800000e-07	-4.025208e-06	-1.134691e-09	-2.804943e+01	-7.710110e+01
8.900000e-07	-3.993380e-06	-1.137110e-09	-2.782763e+01	-7.667701e+01
9.000000e-07	-3.961370e-06	-1.131880e-09	-2.760458e+01	-7.625082e+01
9.100000e-07	-3.929152e-06	-1.123792e-09	-2.738006e+01	-7.582271e+01
9.200000e-07	-3.896667e-06	-1.112472e-09	-2.715369e+01	-7.539287e+01
9.300000e-07	-3.863811e-06	-1.110102e-09	-2.692474e+01	-7.496146e+01
9.400000e-07	-3.830473e-06	-1.099619e-09	-2.669242e+01	-7.452861e+01
9.500000e-07	-3.796651e-06	-1.096845e-09	-2.645674e+01	-7.409443e+01
9.600000e-07	-3.762401e-06	-1.094568e-09	-2.621807e+01	-7.365901e+01
9.700000e-07	-3.727741e-06	-1.089805e-09	-2.597654e+01	-7.322242e+01
9.800000e-07	-3.692669e-06	-1.078789e-09	-2.573214e+01	-7.278469e+01
9.900000e-07	-3.657351e-06	-1.073887e-09	-2.548604e+01	-7.234582e+01
1.000000e-06	-3.621845e-06	-1.066573e-09	-2.523861e+01	-7.190580e+01
1.010000e-06	-3.586183e-06	-1.060765e-09	-2.499011e+01	-7.146458e+01
1.020000e-06	-3.550380e-06	-1.059353e-09	-2.474061e+01	-7.102207e+01
1.030000e-06	-3.514435e-06	-1.060300e-09	-2.449014e+01	-7.057816e+01
1.040000e-06	-3.478296e-06	-1.053431e-09	-2.423830e+01	-7.013274e+01
1.050000e-06	-3.441908e-06	-1.045508e-09	-2.398473e+01	-6.968562e+01
1.060000e-06	-3.405268e-06	-1.035366e-09	-2.372941e+01	-6.923664e+01
1.070000e-06	-3.368390e-06	-1.022672e-09	-2.347243e+01	-6.878558e+01
1.080000e-06	-3.331277e-06	-1.011798e-09	-2.321381e+01	-6.833221e+01
1.090000e-06	-3.293908e-06	-1.005727e-09	-2.295341e+01	-6.787628e+01
1.100000e-06	-3.256268e-06	-1.001326e-09	-2.269111e+01	-6.741752e+01
1.110000e-06	-3.218380e-06	-9.959489e-10	-2.242709e+01	-6.695565e+01
1.120000e-06	-3.180281e-06	-9.918626e-10	-2.216160e+01	-6.649037e+01
1.130000e-06	-3.141975e-06	-9.829272e-10	-2.189467e+01	-6.602136e+01
1.140000e-06	-3.103424e-06	-9.724927e-10	-2.162603e+01	-6.554832e+01
1.150000e-06	-3.064747e-06	-9.603046e-10	-2.135651e+01	-6.507091e+01
1.160000e-06	-3.025937e-06	-9.494252e-10	-2.108607e+01	-6.458882e+01
1.170000e-06	-2.986775e-06	-9.369793e-10	-2.081317e+01	-6.410172e+01
1.180000e-06	-2.947310e-06	-9.292542e-10	-2.053816e+01	-6.360928e+01
1.190000e-06	-2.907763e-06	-9.216378e-10	-2.026258e+01	-6.311119e+01
1.200000e-06	-2.868171e-06	-9.146876e-10	-1.998668e+01	-6.260714e+01
1.210000e-06	-2.828454e-06	-9.075869e-10	-1.970992e+01	-6.209682e+01
1.220000e-06	-2.788593e-06	-9.023136e-10	-1.943215e+01	-6.157995e+01
1.230000e-06	-2.748613e-06	-8.914402e-10	-1.915355e+01	-6.105625e+01
1.240000e-06	-2.708423e-06	-8.792191e-10	-1.887349e+01	-6.052546e+01
1.250000e-06	-2.668035e-06	-8.669530e-10	-1.859204e+01	-5.998734e+01
1.260000e-06	-2.627466e-06	-8.570268e-10	-1.830935e+01	-5.944167e+01
1.270000e-06	-2.586701e-06	-8.448218e-10	-1.802528e+01	-5.888823e+01
1.280000e-06	-2.545583e-06	-8.370645e-10	-1.773875e+01	-5.832686e+01
1.290000e-06	-2.504239e-06	-8.329137e-10	-1.745064e+01	-5.775738e+01
1.300000e-06	-2.462752e-06	-8.281576e-10	-1.716154e+01	-5.717966e+01
1.310000e-06	-2.420866e-06	-8.183474e-10	-1.686966e+01	-5.659356e+01
1.320000e-06	-2.378667e-06	-8.070766e-10	-1.657560e+01	-5.599900e+01
1.330000e-06	-2.336066e-06	-7.943418e-10	-1.627874e+01	-5.539588e+01
1.340000e-06	-2.293106e-06	-7.819838e-10	-1.597937e+01	-5.478414e+01
1.350000e-06	-2.250072e-06	-7.720954e-10	-1.567950e+01	-5.416374e+01
1.360000e-06	-2.206924e-06	-7.632714e-10	-1.537882e+01	-5.353464e+01
1.370000e-06	-2.163615e-06	-7.533466e-10	-1.507703e+01	-5.289681e+01
1.380000e-06	-2.120126e-06	-7.465709e-10	-1.477397e+01	-5.225026e+01
1.390000e-06	-2.076480e-06	-7.389450e-10	-1.446983e+01	-5.159498e+01
1.400000e-06	-2.032789e-06	-7.250410e-10	-1.416537e+01	-5.093098e+01
1.410000e-06	-1.989050e-06	-7.118941e-10	-1.386058e+01	-5.025826e+01
1.420000e-06	-1.945215e-06	-7.019195e-10	-1.355512e+01	-4.957684e+01
1.430000e-06	-1.901283e-06	-6.951257e-10	-1.324898e+01	-4.888672e+01
1.440000e-06	-1.857297e-06	-6.875149e-10	-1.294247e+01	-4.818790e+01
1.450000e-06	-1.813186e-06	-6.777643e-10	-1.263508e+01	-4.748039e+01
1.460000e-06	-1.769029e-06	-6.657879e-10	-1.232737e+01	-4.676415e+01
1.470000e-06	-1.724766e-06	-6.532228e-10	-1.201893e+01	-4.603917e+01
1.480000e-06	-1.680306e-06	-6.392829e-10	-1.170912e+01	-4.530539e+01
1.490000e-06	-1.635661e-06	-6.254319e-10	-1.139801e+01	-4.456275e+01
1.500000e-06	-1.590900e-06	-6.134168e-10	-1.108609e+01	-4.381117e+01
1.510000e-06	-1.546047e-06	-6.067528e-10	-1.077354e+01	-4.305054e+01
1.520000e-06	-1.500980e-06	-5.993363e-10	-1.045949e+01	-4.228073e+01
1.530000e-06	-1.455768e-06	-5.900021e-10	-1.014444e+01	-4.150158e+01
1.540000e-06	-1.410575e-06	-5.780915e-10	-9.829508e+00	-4.071290e+01
1.550000e-06	-1.365316e-06	-5.643511e-10	-9.514126e+00	-3.991448e+01
1.560000e-06	-1.319884e-06	-5.485130e-10	-9.197531e+00	-3.910609e+01
1.570000e-06	-1.274418e-06	-5.339330e-10	-8.880710e+00	-3.828745e+01
1.580000e-06	-1.228830e-06	-5.212072e-10	-8.563029e+00	-3.745827e+01
1.590000e-06	-1.183104e-06	-5.118354e-10	-8.244390e+00	-3.661824e+01
1.600000e-06	-1.137336e-06	-5.028682e-10	-7.925462e+00	-3.576700e+01
1.610000e-06	-1.091475e-06	-4.913746e-10	-7.605878e+00	-3.490418e+01
1.620000e-06	-1.045573e-06	-4.778584e-10	-7.286012e+00	-3.402941e+01
1.630000e-06	-9.996441e-07	-4.642921e-10	-6.965962e+00	-3.314227e+01
1.640000e-06	-9.536630e-07	-4.531485e-10	-6.645545e+00	-3.224233e+01
1.650000e-06	-9.075991e-07	-4.408217e-10	-6.324551e+00	-3.132917e+01
1.660000e-06	-8.615063e-07	-4.255034e-10	-6.003356e+00	-3.040234e+01
1.670000e-06	-8.153440e-07	-4.103756e-10	-5.681677e+00	-2.946140e+01
1.680000e-06	-7.690872e-07	-3.951023e-10	-5.359339e+00	-2.850590e+01
1.690000e-06	-7.228016e-07	-3.790200e-10	-5.036800e+00	-2.753540e+01
1.700000e-06	-6.765796e-07	-3.649382e-10	-4.714705e+00	-2.654947e+01
1.710000e-06	-6.302990e-07	-3.511674e-10	-4.392201e+00	-2.554770e+01
1.720000e-06	-5.838415e-07	-3.356226e-10	-4.068465e+00	-2.452969e+01
1.730000e-06	-5.372769e-07	-3.180846e-10	-3.743983e+00	-2.349508e+01
1.740000e-06	-4.906980e-07	-2.974399e-10	-3.419400e+00	-2.244352e+01
1.750000e-06	-4.441340e-07	-2.769431e-10	-3.094922e+00	-2.137471e+01
1.760000e-06	-3.975276e-07	-2.593529e-10	-2.770148e+00	-2.028840e+01
1.770000e-06	-3.509575e-07	-2.445999e-10	-2.445627e+00	-1.918437e+01
1.780000e-06	-3.043805e-07	-2.319623e-10	-2.121057e+00	-1.806245e+01
1.790000e-06	-2.577554e-07	-2.187252e-10	-1.796153e+00	-1.692255e+01
1.800000e-06	-2.110422e-07	-2.035664e-10	-1.470635e+00	-1.576461e+01
1.810000e-06	-1.643359e-07	-1.839848e-10	-1.145165e+00	-1.458864e+01
1.820000e-06	-1.177377e-07	-1.661513e-10	-8.204485e-01	-1.339475e+01
1.830000e-06	-7.111275e-08	-1.523220e-10	-4.955451e-01	-1.218308e+01
1.840000e-06	-2.444275e-08	-1.370903e-10	-1.703279e-01	-1.095386e+01
1.850000e-06	2.220391e-08	-1.198506e-10	1.547267e-01	-9.707405e+00
1.860000e-06	6.883637e-08	-1.030650e-10	4.796822e-01	-8.444091e+00
1.870000e-06	1.154132e-07	-8.345900e-11	8.042502e-01	-7.164385e+00
1.880000e-06	1.620155e-07	-6.038457e-11	1.128996e+00	-5.868828e+00
1.890000e-06	2.086381e-07	-3.597247e-11	1.453882e+00	-4.558044e+00
1.900000e-06	2.552763e-07	-1.601035e-11	1.778878e+00	-3.232732e+00
1.910000e-06	3.019725e-07	8.950744e-13	2.104278e+00	-1.893672e+00
1.920000e-06	3.484955e-07	1.753156e-11	2.428471e+00	-5.417167e-01
1.930000e-06	3.949795e-07	3.286104e-11	2.752392e+00	8.222054e-01
1.940000e-06	4.415438e-07	5.083651e-11	3.076872e+00	2.197097e+00
1.950000e-06	4.880365e-07	7.337435e-11	3.400854e+00	3.581895e+00
1.960000e-06	5.344579e-07	9.648488e-11	3.724338e+00	4.975473e+00
1.970000e-06	5.809079e-07	1.173646e-10	4.048023e+00	6.376647e+00
1.980000e-06	6.273413e-07	1.370684e-10	4.371591e+00	7.784182e+00
1.990000e-06	6.735983e-07	1.565513e-10	4.693930e+00	9.196797e+00
2.000000e-06	7.198385e-07	1.751688e-10	5.016152e+00	1.061317e+01
2.010000e-06	7.660609e-07	1.938652e-10	5.338250e+00	1.203194e+01
2.020000e-06	8.121545e-07	2.140202e-10	5.659451e+00	1.345173e+01
2.030000e-06	8.581955e-07	2.364843e-10	5.980285e+00	1.487113e+01
2.040000e-06	9.041883e-07	2.594991e-10	6.300783e+00	1.628874e+01
2.050000e-06	9.501451e-07	2.793079e-10	6.621030e+00	1.770312e+01
2.060000e-06	9.960791e-07	2.972164e-10	6.941119e+00	1.911287e+01
2.070000e-06	1.041990e-06	3.139302e-10	7.261048e+00	2.051657e+01
2.080000e-06	1.087862e-06	3.331292e-10	7.580706e+00	2.191283e+01
2.090000e-06	1.133631e-06	3.543982e-10	7.899639e+00	2.330029e+01
2.100000e-06	1.179286e-06	3.760386e-10	8.217786e+00	2.467762e+01
2.110000e-06	1.224873e-06	3.947735e-10	8.535455e+00	2.604352e+01
2.120000e-06	1.270337e-06	4.114767e-10	8.852268e+00	2.739674e+01
2.130000e-06	1.315645e-06	4.287212e-10	9.167996e+00	2.873609e+01
2.140000e-06	1.360849e-06	4.469604e-10	9.482999e+00	3.006044e+01
2.150000e-06	1.405985e-06	4.668490e-10	9.797524e+00	3.136870e+01
2.160000e-06	1.451012e-06	4.855092e-10	1.011129e+01	3.265989e+01
2.170000e-06	1.495955e-06	5.022285e-10	1.042448e+01	3.393306e+01
2.180000e-06	1.540829e-06	5.216512e-10	1.073718e+01	3.518737e+01
2.190000e-06	1.585610e-06	5.415197e-10	1.104923e+01	3.642205e+01
2.200000e-06	1.630247e-06	5.576689e-10	1.136028e+01	3.763642e+01
2.210000e-06	1.674732e-06	5.707967e-10	1.167027e+01	3.882987e+01
2.220000e-06	1.719060e-06	5.828373e-10	1.197917e+01	4.000190e+01
2.230000e-06	1.763270e-06	5.952693e-10	1.228724e+01	4.115208e+01
2.240000e-06	1.807363e-06	6.088878e-10	1.259450e+01	4.228009e+01
2.250000e-06	1.851322e-06	6.243717e-10	1.290083e+01	4.338569e+01
2.260000e-06	1.895208e-06	6.388241e-10	1.320665e+01	4.446871e+01
2.270000e-06	1.939034e-06	6.531672e-10	1.351204e+01	4.552909e+01
2.280000e-06	1.982808e-06	6.709332e-10	1.381708e+01	4.656685e+01
2.290000e-06	2.026503e-06	6.862916e-10	1.412157e+01	4.758208e+01
2.300000e-06	2.070166e-06	6.992051e-10	1.442583e+01	4.857496e+01
2.310000e-06	2.113787e-06	7.095758e-10	1.472980e+01	4.954573e+01
2.320000e-06	2.157369e-06	7.202159e-10	1.503350e+01	5.049473e+01
2.330000e-06	2.200881e-06	7.319205e-10	1.533671e+01	5.142232e+01
2.340000e-06	2.244169e-06	7.449101e-10	1.563836e+01	5.232896e+01
2.350000e-06	2.287129e-06	7.618247e-10	1.593772e+01	5.321514e+01
2.360000e-06	2.329958e-06	7.796201e-10	1.623618e+01	5.408140e+01
2.370000e-06	2.372596e-06	7.965629e-10	1.653330e+01	5.492834e+01
2.380000e-06	2.414869e-06	8.087225e-10	1.682788e+01	5.575657e+01
2.390000e-06	2.456765e-06	8.179190e-10	1.711982e+01	5.656675e+01
2.400000e-06	2.498313e-06	8.258093e-10	1.740935e+01	5.735957e+01
2.410000e-06	2.539651e-06	8.336797e-10	1.769741e+01	5.813570e+01
2.420000e-06	2.580738e-06	8.438155e-10	1.798372e+01	5.889587e+01
2.430000e-06	2.621558e-06	8.565789e-10	1.826818e+01	5.964077e+01
2.440000e-06	2.662047e-06	8.724468e-10	1.855032e+01	6.037112e+01
2.450000e-06	2.702295e-06	8.878533e-10	1.883078e+01	6.108762e+01
2.460000e-06	2.742377e-06	8.995797e-10	1.911009e+01	6.179096e+01
2.470000e-06	2.782254e-06	9.104813e-10	1.938797e+01	6.248182e+01
2.480000e-06	2.822024e-06	9.197496e-10	1.966511e+01	6.316083e+01
2.490000e-06	2.861761e-06	9.283769e-10	1.994202e+01	6.382864e+01
2.500000e-06	2.901432e-06	9.378211e-10	2.021846e+01	6.448582e+01
2.510000e-06	2.940898e-06	9.490061e-10	2.049348e+01	6.513294e+01
2.520000e-06	2.980182e-06	9.609702e-10	2.076722e+01	6.577052e+01
2.530000e-06	3.019381e-06	9.731582e-10	2.104038e+01	6.639905e+01
2.540000e-06	3.058283e-06	9.837132e-10	2.131147e+01	6.701895e+01
2.550000e-06	3.096821e-06	9.927647e-10	2.158002e+01	6.763062e+01
2.560000e-06	3.135154e-06	1.001382e-09	2.184714e+01	6.823442e+01
2.570000e-06	3.173305e-06	1.009845e-09	2.211299e+01	6.883065e+01
2.580000e-06	3.211223e-06	1.019401e-09	2.237722e+01	6.941957e+01
2.590000e-06	3.248908e-06	1.029392e-09	2.263983e+01	7.000140e+01
2.600000e-06	3.286471e-06	1.039385e-09	2.290158e+01	7.057630e+01
2.610000e-06	3.323877e-06	1.048567e-09	2.316224e+01	7.114440e+01
2.620000e-06	3.361026e-06	1.054158e-09	2.342111e+01	7.170578e+01
2.630000e-06	3.397901e-06	1.059299e-09	2.367807e+01	7.226050e+01
2.640000e-06	3.434475e-06	1.066682e-09	2.393294e+01	7.280856e+01
2.650000e-06	3.470818e-06	1.074722e-09	2.418619e+01	7.334993e+01
2.660000e-06	3.506957e-06	1.084922e-09	2.443803e+01	7.388456e+01
2.670000e-06	3.542887e-06	1.094215e-09	2.468840e+01	7.441236e+01
2.680000e-06	3.578680e-06	1.102069e-09	2.493782e+01	7.493322e+01
2.690000e-06	3.614389e-06	1.110524e-09	2.518666e+01	7.544701e+01
2.700000e-06	3.649958e-06	1.118546e-09	2.543452e+01	7.595358e+01
2.710000e-06	3.685377e-06	1.124981e-09	2.568134e+01	7.645277e+01
2.720000e-06	3.720592e-06	1.129331e-09	2.592673e+01	7.694440e+01
2.730000e-06	3.755323e-06	1.134822e-09	2.616875e+01	7.742830e+01
2.740000e-06	3.789556e-06	1.143310e-09	2.640730e+01	7.790428e+01
2.750000e-06	3.823446e-06	1.149861e-09	2.664346e+01	7.837216e+01
2.760000e-06	3.856860e-06	1.154964e-09	2.687630e+01	7.883176e+01
2.770000e-06	3.889724e-06	1.162955e-09	2.710531e+01	7.928292e+01
2.780000e-06	3.922172e-06	1.170904e-09	2.733143e+01	7.972547e+01
2.790000e-06	3.954332e-06	1.176708e-09	2.755553e+01	8.015927e+01
2.800000e-06	3.986286e-06	1.181626e-09	2.777820e+01	8.058419e+01
2.810000e-06	4.018090e-06	1.185705e-09	2.799983e+01	8.100011e+01
2.820000e-06	4.049796e-06	1.191136e-09	2.822077e+01	8.140695e+01
2.830000e-06	4.081272e-06	1.198706e-09	2.844011e+01	8.180464e+01
2.840000e-06	4.112451e-06	1.207258e-09	2.865737e+01	8.219313e+01
2.850000e-06	4.143452e-06	1.216224e-09	2.887340e+01	8.257240e+01
2.860000e-06	4.174146e-06	1.224530e-09	2.908729e+01	8.294245e+01
2.870000e-06	4.204484e-06	1.228784e-09	2.929870e+01	8.330331e+01
2.880000e-06	4.234560e-06	1.230644e-09	2.950829e+01	8.365504e+01
2.890000e-06	4.264317e-06	1.234030e-09	2.971565e+01	8.399772e+01
2.900000e-06	4.293740e-06	1.238041e-09	2.992068e+01	8.433145e+01
