# Temperatura_=_8.27
# Concentracion g/m^3_=_1620.0
# C_Vs_to_Am_M_A/Vsm_=_65563218390.804596
# pendiente_HvsI_1/m_=_3716.3
# ordenada_HvsI_A/m_=_1297.0
# frecuencia_Hz_=_135093.05681687294

Tiempo_(s)	Campo_(V.s)	Magnetizacion_(V.s)	Campo_(kA/m)	Magnetizacion_(A/m)
0.000000e+00	-5.516146e-06	-1.304337e-09	-3.837221e+01	-8.625527e+01
1.000000e-08	-5.516348e-06	-1.300982e-09	-3.837361e+01	-8.626129e+01
2.000000e-08	-5.516290e-06	-1.301043e-09	-3.837321e+01	-8.626875e+01
3.000000e-08	-5.515883e-06	-1.304039e-09	-3.837038e+01	-8.627749e+01
4.000000e-08	-5.515002e-06	-1.303118e-09	-3.836425e+01	-8.628731e+01
5.000000e-08	-5.513626e-06	-1.290892e-09	-3.835468e+01	-8.629798e+01
6.000000e-08	-5.511663e-06	-1.279135e-09	-3.834102e+01	-8.630927e+01
7.000000e-08	-5.509047e-06	-1.296567e-09	-3.832282e+01	-8.632088e+01
8.000000e-08	-5.505904e-06	-1.339738e-09	-3.830096e+01	-8.633253e+01
9.000000e-08	-5.502325e-06	-1.391118e-09	-3.827606e+01	-8.634390e+01
1.000000e-07	-5.498297e-06	-1.380407e-09	-3.824805e+01	-8.635465e+01
1.100000e-07	-5.493890e-06	-1.271665e-09	-3.821739e+01	-8.636445e+01
1.200000e-07	-5.489333e-06	-1.202121e-09	-3.818569e+01	-8.637292e+01
1.300000e-07	-5.484602e-06	-1.287913e-09	-3.815278e+01	-8.637971e+01
1.400000e-07	-5.479395e-06	-1.333512e-09	-3.811655e+01	-8.638445e+01
1.500000e-07	-5.473749e-06	-1.299417e-09	-3.807728e+01	-8.638677e+01
1.600000e-07	-5.467765e-06	-1.205835e-09	-3.803565e+01	-8.638629e+01
1.700000e-07	-5.461430e-06	-1.302868e-09	-3.799159e+01	-8.638263e+01
1.800000e-07	-5.454708e-06	-1.373362e-09	-3.794482e+01	-8.637545e+01
1.900000e-07	-5.447528e-06	-1.328344e-09	-3.789488e+01	-8.636437e+01
2.000000e-07	-5.440073e-06	-1.246977e-09	-3.784302e+01	-8.634906e+01
2.100000e-07	-5.432418e-06	-1.294324e-09	-3.778977e+01	-8.632918e+01
2.200000e-07	-5.424420e-06	-1.378357e-09	-3.773413e+01	-8.630441e+01
2.300000e-07	-5.416114e-06	-1.351275e-09	-3.767635e+01	-8.627445e+01
2.400000e-07	-5.407450e-06	-1.298324e-09	-3.761608e+01	-8.623902e+01
2.500000e-07	-5.398060e-06	-1.303635e-09	-3.755076e+01	-8.619784e+01
2.600000e-07	-5.387889e-06	-1.349101e-09	-3.748001e+01	-8.615068e+01
2.700000e-07	-5.377250e-06	-1.312848e-09	-3.740600e+01	-8.609730e+01
2.800000e-07	-5.366173e-06	-1.305460e-09	-3.732894e+01	-8.603752e+01
2.900000e-07	-5.354566e-06	-1.316479e-09	-3.724820e+01	-8.597115e+01
3.000000e-07	-5.342663e-06	-1.349555e-09	-3.716540e+01	-8.589804e+01
3.100000e-07	-5.330500e-06	-1.298724e-09	-3.708079e+01	-8.581806e+01
3.200000e-07	-5.317848e-06	-1.289830e-09	-3.699278e+01	-8.573111e+01
3.300000e-07	-5.304732e-06	-1.291726e-09	-3.690154e+01	-8.563710e+01
3.400000e-07	-5.291261e-06	-1.325085e-09	-3.680783e+01	-8.553597e+01
3.500000e-07	-5.277431e-06	-1.298848e-09	-3.671162e+01	-8.542770e+01
3.600000e-07	-5.263142e-06	-1.299874e-09	-3.661223e+01	-8.531226e+01
3.700000e-07	-5.248299e-06	-1.304866e-09	-3.650897e+01	-8.518967e+01
3.800000e-07	-5.232911e-06	-1.312710e-09	-3.640193e+01	-8.505994e+01
3.900000e-07	-5.217086e-06	-1.271381e-09	-3.629184e+01	-8.492314e+01
4.000000e-07	-5.200898e-06	-1.276231e-09	-3.617923e+01	-8.477933e+01
4.100000e-07	-5.184340e-06	-1.301571e-09	-3.606405e+01	-8.462859e+01
4.200000e-07	-5.167350e-06	-1.276514e-09	-3.594587e+01	-8.447101e+01
4.300000e-07	-5.149994e-06	-1.241267e-09	-3.582513e+01	-8.430672e+01
4.400000e-07	-5.132399e-06	-1.290242e-09	-3.570273e+01	-8.413584e+01
4.500000e-07	-5.114411e-06	-1.308187e-09	-3.557760e+01	-8.395850e+01
4.600000e-07	-5.095893e-06	-1.234373e-09	-3.544879e+01	-8.377486e+01
4.700000e-07	-5.076951e-06	-1.239425e-09	-3.531701e+01	-8.358506e+01
4.800000e-07	-5.057798e-06	-1.298494e-09	-3.518378e+01	-8.338928e+01
4.900000e-07	-5.038411e-06	-1.267190e-09	-3.504892e+01	-8.318768e+01
5.000000e-07	-5.018765e-06	-1.223182e-09	-3.491225e+01	-8.298044e+01
5.100000e-07	-4.998922e-06	-1.278038e-09	-3.477422e+01	-8.276773e+01
5.200000e-07	-4.978771e-06	-1.262499e-09	-3.463404e+01	-8.254973e+01
5.300000e-07	-4.958257e-06	-1.210788e-09	-3.449134e+01	-8.232663e+01
5.400000e-07	-4.937370e-06	-1.249158e-09	-3.434604e+01	-8.209859e+01
5.500000e-07	-4.916171e-06	-1.278766e-09	-3.419857e+01	-8.186581e+01
5.600000e-07	-4.894583e-06	-1.199913e-09	-3.404840e+01	-8.162845e+01
5.700000e-07	-4.872567e-06	-1.214843e-09	-3.389525e+01	-8.138669e+01
5.800000e-07	-4.850208e-06	-1.272021e-09	-3.373971e+01	-8.114069e+01
5.900000e-07	-4.827499e-06	-1.235365e-09	-3.358174e+01	-8.089063e+01
6.000000e-07	-4.804478e-06	-1.195888e-09	-3.342160e+01	-8.063664e+01
6.100000e-07	-4.781226e-06	-1.246714e-09	-3.325986e+01	-8.037890e+01
6.200000e-07	-4.757751e-06	-1.227008e-09	-3.309655e+01	-8.011754e+01
6.300000e-07	-4.734038e-06	-1.181525e-09	-3.293160e+01	-7.985270e+01
6.400000e-07	-4.710100e-06	-1.208896e-09	-3.276507e+01	-7.958451e+01
6.500000e-07	-4.685826e-06	-1.224580e-09	-3.259622e+01	-7.931309e+01
6.600000e-07	-4.661011e-06	-1.180811e-09	-3.242360e+01	-7.903856e+01
6.700000e-07	-4.635659e-06	-1.198147e-09	-3.224724e+01	-7.876102e+01
6.800000e-07	-4.609823e-06	-1.222724e-09	-3.206751e+01	-7.848057e+01
6.900000e-07	-4.583513e-06	-1.194362e-09	-3.188449e+01	-7.819730e+01
7.000000e-07	-4.556819e-06	-1.184328e-09	-3.169880e+01	-7.791127e+01
7.100000e-07	-4.529686e-06	-1.206592e-09	-3.151005e+01	-7.762258e+01
7.200000e-07	-4.502218e-06	-1.184425e-09	-3.131898e+01	-7.733126e+01
7.300000e-07	-4.474556e-06	-1.162264e-09	-3.112655e+01	-7.703738e+01
7.400000e-07	-4.446753e-06	-1.175936e-09	-3.093314e+01	-7.674098e+01
7.500000e-07	-4.418812e-06	-1.170033e-09	-3.073877e+01	-7.644208e+01
7.600000e-07	-4.390588e-06	-1.153063e-09	-3.054244e+01	-7.614071e+01
7.700000e-07	-4.362022e-06	-1.160907e-09	-3.034373e+01	-7.583688e+01
7.800000e-07	-4.333106e-06	-1.163956e-09	-3.014258e+01	-7.553060e+01
7.900000e-07	-4.303868e-06	-1.147497e-09	-2.993919e+01	-7.522185e+01
8.000000e-07	-4.274389e-06	-1.149767e-09	-2.973412e+01	-7.491063e+01
8.100000e-07	-4.244692e-06	-1.145176e-09	-2.952754e+01	-7.459691e+01
8.200000e-07	-4.214621e-06	-1.124662e-09	-2.931835e+01	-7.428065e+01
8.300000e-07	-4.184126e-06	-1.114349e-09	-2.910622e+01	-7.396181e+01
8.400000e-07	-4.153382e-06	-1.120249e-09	-2.889236e+01	-7.364034e+01
8.500000e-07	-4.122504e-06	-1.103407e-09	-2.867756e+01	-7.331618e+01
8.600000e-07	-4.091373e-06	-1.096068e-09	-2.846100e+01	-7.298926e+01
8.700000e-07	-4.059933e-06	-1.100918e-09	-2.824229e+01	-7.265949e+01
8.800000e-07	-4.028329e-06	-1.094873e-09	-2.802244e+01	-7.232681e+01
8.900000e-07	-3.996589e-06	-1.077909e-09	-2.780165e+01	-7.199110e+01
9.000000e-07	-3.964676e-06	-1.078078e-09	-2.757965e+01	-7.165228e+01
9.100000e-07	-3.932469e-06	-1.068405e-09	-2.735561e+01	-7.131024e+01
9.200000e-07	-3.899802e-06	-1.051405e-09	-2.712837e+01	-7.096485e+01
9.300000e-07	-3.866698e-06	-1.047467e-09	-2.689808e+01	-7.061601e+01
9.400000e-07	-3.833196e-06	-1.050092e-09	-2.666503e+01	-7.026359e+01
9.500000e-07	-3.799156e-06	-1.035958e-09	-2.642824e+01	-6.990746e+01
9.600000e-07	-3.764616e-06	-1.028210e-09	-2.618796e+01	-6.954749e+01
9.700000e-07	-3.729753e-06	-1.025229e-09	-2.594544e+01	-6.918354e+01
9.800000e-07	-3.694633e-06	-1.018070e-09	-2.570114e+01	-6.881548e+01
9.900000e-07	-3.659307e-06	-1.011153e-09	-2.545540e+01	-6.844317e+01
1.000000e-06	-3.623818e-06	-1.013752e-09	-2.520852e+01	-6.806648e+01
1.010000e-06	-3.588159e-06	-1.006878e-09	-2.496047e+01	-6.768526e+01
1.020000e-06	-3.552333e-06	-9.923077e-10	-2.471125e+01	-6.729938e+01
1.030000e-06	-3.516372e-06	-9.855444e-10	-2.446109e+01	-6.690871e+01
1.040000e-06	-3.480254e-06	-9.792860e-10	-2.420985e+01	-6.651312e+01
1.050000e-06	-3.443826e-06	-9.694293e-10	-2.395644e+01	-6.611249e+01
1.060000e-06	-3.407103e-06	-9.648293e-10	-2.370098e+01	-6.570669e+01
1.070000e-06	-3.370166e-06	-9.652628e-10	-2.344403e+01	-6.529563e+01
1.080000e-06	-3.332937e-06	-9.564577e-10	-2.318506e+01	-6.487919e+01
1.090000e-06	-3.295509e-06	-9.463276e-10	-2.292469e+01	-6.445728e+01
1.100000e-06	-3.257892e-06	-9.402955e-10	-2.266301e+01	-6.402982e+01
1.110000e-06	-3.219955e-06	-9.292089e-10	-2.239912e+01	-6.359672e+01
1.120000e-06	-3.181819e-06	-9.159365e-10	-2.213382e+01	-6.315794e+01
1.130000e-06	-3.143472e-06	-9.153396e-10	-2.186707e+01	-6.271340e+01
1.140000e-06	-3.104856e-06	-9.134361e-10	-2.159845e+01	-6.226308e+01
1.150000e-06	-3.065984e-06	-9.058075e-10	-2.132804e+01	-6.180695e+01
1.160000e-06	-3.026966e-06	-8.944664e-10	-2.105661e+01	-6.134498e+01
1.170000e-06	-2.987783e-06	-8.867342e-10	-2.078404e+01	-6.087717e+01
1.180000e-06	-2.948364e-06	-8.769478e-10	-2.050983e+01	-6.040353e+01
1.190000e-06	-2.908858e-06	-8.708684e-10	-2.023502e+01	-5.992408e+01
1.200000e-06	-2.869214e-06	-8.658682e-10	-1.995924e+01	-5.943885e+01
1.210000e-06	-2.829376e-06	-8.609769e-10	-1.968211e+01	-5.894787e+01
1.220000e-06	-2.789465e-06	-8.525909e-10	-1.940448e+01	-5.845121e+01
1.230000e-06	-2.749435e-06	-8.449795e-10	-1.912601e+01	-5.794891e+01
1.240000e-06	-2.709153e-06	-8.349694e-10	-1.884580e+01	-5.744104e+01
1.250000e-06	-2.668679e-06	-8.232605e-10	-1.856425e+01	-5.692768e+01
1.260000e-06	-2.628019e-06	-8.132380e-10	-1.828141e+01	-5.640890e+01
1.270000e-06	-2.587197e-06	-8.062271e-10	-1.799743e+01	-5.588478e+01
1.280000e-06	-2.546062e-06	-8.013196e-10	-1.771128e+01	-5.535540e+01
1.290000e-06	-2.504576e-06	-7.983268e-10	-1.742269e+01	-5.482083e+01
1.300000e-06	-2.462755e-06	-7.906227e-10	-1.713177e+01	-5.428115e+01
1.310000e-06	-2.420642e-06	-7.792649e-10	-1.683882e+01	-5.373643e+01
1.320000e-06	-2.378356e-06	-7.660897e-10	-1.654466e+01	-5.318673e+01
1.330000e-06	-2.335690e-06	-7.562964e-10	-1.624786e+01	-5.263210e+01
1.340000e-06	-2.292759e-06	-7.505325e-10	-1.594922e+01	-5.207258e+01
1.350000e-06	-2.249693e-06	-7.450625e-10	-1.564963e+01	-5.150819e+01
1.360000e-06	-2.206441e-06	-7.370753e-10	-1.534876e+01	-5.093894e+01
1.370000e-06	-2.163076e-06	-7.283889e-10	-1.504710e+01	-5.036481e+01
1.380000e-06	-2.119587e-06	-7.223831e-10	-1.474458e+01	-4.978576e+01
1.390000e-06	-2.075962e-06	-7.165599e-10	-1.444110e+01	-4.920174e+01
1.400000e-06	-2.032235e-06	-7.092366e-10	-1.413693e+01	-4.861266e+01
1.410000e-06	-1.988411e-06	-6.998125e-10	-1.383207e+01	-4.801841e+01
1.420000e-06	-1.944468e-06	-6.901674e-10	-1.352639e+01	-4.741883e+01
1.430000e-06	-1.900461e-06	-6.791576e-10	-1.322026e+01	-4.681375e+01
1.440000e-06	-1.856306e-06	-6.684927e-10	-1.291310e+01	-4.620297e+01
1.450000e-06	-1.812067e-06	-6.583399e-10	-1.260536e+01	-4.558625e+01
1.460000e-06	-1.767778e-06	-6.502856e-10	-1.229727e+01	-4.496330e+01
1.470000e-06	-1.723412e-06	-6.414629e-10	-1.198865e+01	-4.433383e+01
1.480000e-06	-1.678983e-06	-6.325214e-10	-1.167958e+01	-4.369747e+01
1.490000e-06	-1.634329e-06	-6.210494e-10	-1.136895e+01	-4.305387e+01
1.500000e-06	-1.589486e-06	-6.123002e-10	-1.105701e+01	-4.240259e+01
1.510000e-06	-1.544634e-06	-6.028817e-10	-1.074501e+01	-4.174321e+01
1.520000e-06	-1.499719e-06	-5.908711e-10	-1.043256e+01	-4.107524e+01
1.530000e-06	-1.454620e-06	-5.771065e-10	-1.011884e+01	-4.039818e+01
1.540000e-06	-1.409409e-06	-5.640950e-10	-9.804337e+00	-3.971150e+01
1.550000e-06	-1.364137e-06	-5.516708e-10	-9.489407e+00	-3.901464e+01
1.560000e-06	-1.318724e-06	-5.418273e-10	-9.173498e+00	-3.830702e+01
1.570000e-06	-1.273131e-06	-5.334494e-10	-8.856338e+00	-3.758804e+01
1.580000e-06	-1.227471e-06	-5.246692e-10	-8.538709e+00	-3.685710e+01
1.590000e-06	-1.181800e-06	-5.148982e-10	-8.221009e+00	-3.611358e+01
1.600000e-06	-1.136083e-06	-5.046443e-10	-7.902985e+00	-3.535683e+01
1.610000e-06	-1.090242e-06	-4.913574e-10	-7.584096e+00	-3.458623e+01
1.620000e-06	-1.044262e-06	-4.768256e-10	-7.264243e+00	-3.380115e+01
1.630000e-06	-9.982413e-07	-4.655284e-10	-6.944110e+00	-3.300097e+01
1.640000e-06	-9.521766e-07	-4.562571e-10	-6.623668e+00	-3.218506e+01
1.650000e-06	-9.059523e-07	-4.439122e-10	-6.302116e+00	-3.135285e+01
1.660000e-06	-8.595723e-07	-4.310834e-10	-5.979480e+00	-3.050375e+01
1.670000e-06	-8.131218e-07	-4.170809e-10	-5.656355e+00	-2.963723e+01
1.680000e-06	-7.667340e-07	-3.991078e-10	-5.333665e+00	-2.875276e+01
1.690000e-06	-7.203496e-07	-3.846654e-10	-5.010999e+00	-2.784988e+01
1.700000e-06	-6.738745e-07	-3.738380e-10	-4.687703e+00	-2.692815e+01
1.710000e-06	-6.273711e-07	-3.618831e-10	-4.364209e+00	-2.598719e+01
1.720000e-06	-5.808097e-07	-3.469499e-10	-4.040312e+00	-2.502668e+01
1.730000e-06	-5.342175e-07	-3.281678e-10	-3.716201e+00	-2.404633e+01
1.740000e-06	-4.875486e-07	-3.051325e-10	-3.391556e+00	-2.304594e+01
1.750000e-06	-4.407946e-07	-2.849867e-10	-3.066319e+00	-2.202535e+01
1.760000e-06	-3.940499e-07	-2.696742e-10	-2.741146e+00	-2.098450e+01
1.770000e-06	-3.472746e-07	-2.580528e-10	-2.415762e+00	-1.992338e+01
1.780000e-06	-3.004551e-07	-2.479315e-10	-2.090069e+00	-1.884206e+01
1.790000e-06	-2.536943e-07	-2.382800e-10	-1.764785e+00	-1.774069e+01
1.800000e-06	-2.069402e-07	-2.248981e-10	-1.439547e+00	-1.661949e+01
1.810000e-06	-1.601055e-07	-2.069694e-10	-1.113749e+00	-1.547877e+01
1.820000e-06	-1.132968e-07	-1.877861e-10	-7.881315e-01	-1.431893e+01
1.830000e-06	-6.656893e-08	-1.711771e-10	-4.630764e-01	-1.314043e+01
1.840000e-06	-1.983686e-08	-1.558651e-10	-1.379920e-01	-1.194382e+01
1.850000e-06	2.694467e-08	-1.408892e-10	1.874364e-01	-1.072973e+01
1.860000e-06	7.373480e-08	-1.269860e-10	5.129246e-01	-9.498885e+00
1.870000e-06	1.205118e-07	-1.123954e-10	8.383216e-01	-8.252059e+00
1.880000e-06	1.673015e-07	-9.379235e-11	1.163807e+00	-6.990117e+00
1.890000e-06	2.141586e-07	-7.407130e-11	1.489761e+00	-5.713989e+00
1.900000e-06	2.609895e-07	-5.584348e-11	1.815533e+00	-4.424676e+00
1.910000e-06	3.077265e-07	-3.623432e-11	2.140651e+00	-3.123238e+00
1.920000e-06	3.544007e-07	-1.664074e-11	2.465333e+00	-1.810797e+00
1.930000e-06	4.010250e-07	3.074975e-13	2.789668e+00	-4.885246e-01
1.940000e-06	4.476445e-07	1.825007e-11	3.113969e+00	8.423569e-01
1.950000e-06	4.942458e-07	3.766769e-11	3.438144e+00	2.180585e+00
1.960000e-06	5.408352e-07	5.617171e-11	3.762236e+00	3.524861e+00
1.970000e-06	5.873755e-07	7.452854e-11	4.085986e+00	4.873857e+00
1.980000e-06	6.338956e-07	9.156340e-11	4.409596e+00	6.226223e+00
1.990000e-06	6.803454e-07	1.084646e-10	4.732716e+00	7.580592e+00
2.000000e-06	7.266743e-07	1.239560e-10	5.054996e+00	8.935590e+00
2.010000e-06	7.730083e-07	1.407690e-10	5.377311e+00	1.028984e+01
2.020000e-06	8.192947e-07	1.613869e-10	5.699295e+00	1.164197e+01
2.030000e-06	8.654275e-07	1.829319e-10	6.020211e+00	1.299062e+01
2.040000e-06	9.114984e-07	2.035318e-10	6.340696e+00	1.433446e+01
2.050000e-06	9.575836e-07	2.236333e-10	6.661281e+00	1.567216e+01
2.060000e-06	1.003632e-06	2.415634e-10	6.981610e+00	1.700244e+01
2.070000e-06	1.049577e-06	2.574712e-10	7.301220e+00	1.832407e+01
2.080000e-06	1.095372e-06	2.743321e-10	7.619781e+00	1.963584e+01
2.090000e-06	1.141085e-06	2.936427e-10	7.937779e+00	2.093660e+01
2.100000e-06	1.186755e-06	3.153715e-10	8.255477e+00	2.222525e+01
2.110000e-06	1.232343e-06	3.364206e-10	8.572601e+00	2.350077e+01
2.120000e-06	1.277813e-06	3.542777e-10	8.888908e+00	2.476219e+01
2.130000e-06	1.323172e-06	3.723657e-10	9.204437e+00	2.600859e+01
2.140000e-06	1.368569e-06	3.912550e-10	9.520239e+00	2.723915e+01
2.150000e-06	1.413998e-06	4.087450e-10	9.836253e+00	2.845311e+01
2.160000e-06	1.459265e-06	4.248367e-10	1.015115e+01	2.964979e+01
2.170000e-06	1.504425e-06	4.393753e-10	1.046530e+01	3.082857e+01
2.180000e-06	1.549471e-06	4.560188e-10	1.077865e+01	3.198894e+01
2.190000e-06	1.594265e-06	4.730817e-10	1.109026e+01	3.313043e+01
2.200000e-06	1.638887e-06	4.904489e-10	1.140066e+01	3.425269e+01
2.210000e-06	1.683452e-06	5.087740e-10	1.171067e+01	3.535542e+01
2.220000e-06	1.727883e-06	5.244641e-10	1.201975e+01	3.643839e+01
2.230000e-06	1.772194e-06	5.402864e-10	1.232799e+01	3.750147e+01
2.240000e-06	1.816398e-06	5.544360e-10	1.263549e+01	3.854458e+01
2.250000e-06	1.860438e-06	5.678293e-10	1.294185e+01	3.956771e+01
2.260000e-06	1.904418e-06	5.808515e-10	1.324779e+01	4.057094e+01
2.270000e-06	1.948300e-06	5.959346e-10	1.355305e+01	4.155437e+01
2.280000e-06	1.992078e-06	6.132016e-10	1.385758e+01	4.251820e+01
2.290000e-06	2.035814e-06	6.290027e-10	1.416182e+01	4.346266e+01
2.300000e-06	2.079526e-06	6.450355e-10	1.446590e+01	4.438803e+01
2.310000e-06	2.123171e-06	6.584973e-10	1.476951e+01	4.529463e+01
2.320000e-06	2.166651e-06	6.700284e-10	1.507197e+01	4.618284e+01
2.330000e-06	2.210017e-06	6.800799e-10	1.537364e+01	4.705305e+01
2.340000e-06	2.253273e-06	6.911130e-10	1.567454e+01	4.790569e+01
2.350000e-06	2.296439e-06	7.043668e-10	1.597482e+01	4.874122e+01
2.360000e-06	2.339476e-06	7.195270e-10	1.627420e+01	4.956010e+01
2.370000e-06	2.382252e-06	7.355413e-10	1.657177e+01	5.036281e+01
2.380000e-06	2.424742e-06	7.482453e-10	1.686734e+01	5.114985e+01
2.390000e-06	2.466900e-06	7.589001e-10	1.716060e+01	5.192170e+01
2.400000e-06	2.508638e-06	7.705328e-10	1.745095e+01	5.267886e+01
2.410000e-06	2.550011e-06	7.808837e-10	1.773875e+01	5.342182e+01
2.420000e-06	2.591026e-06	7.894681e-10	1.802407e+01	5.415105e+01
2.430000e-06	2.631823e-06	8.005837e-10	1.830787e+01	5.486701e+01
2.440000e-06	2.672457e-06	8.131057e-10	1.859053e+01	5.557015e+01
2.450000e-06	2.712735e-06	8.229574e-10	1.887072e+01	5.626089e+01
2.460000e-06	2.752805e-06	8.343777e-10	1.914946e+01	5.693964e+01
2.470000e-06	2.792745e-06	8.494328e-10	1.942730e+01	5.760677e+01
2.480000e-06	2.832556e-06	8.617388e-10	1.970424e+01	5.826263e+01
2.490000e-06	2.872299e-06	8.710364e-10	1.998070e+01	5.890755e+01
2.500000e-06	2.911906e-06	8.790695e-10	2.025622e+01	5.954182e+01
2.510000e-06	2.951376e-06	8.848297e-10	2.053079e+01	6.016570e+01
2.520000e-06	2.990710e-06	8.916160e-10	2.080441e+01	6.077943e+01
2.530000e-06	3.029823e-06	9.009367e-10	2.107649e+01	6.138322e+01
2.540000e-06	3.068650e-06	9.113326e-10	2.134658e+01	6.197724e+01
2.550000e-06	3.107168e-06	9.226019e-10	2.161453e+01	6.256164e+01
2.560000e-06	3.145522e-06	9.347961e-10	2.188133e+01	6.313654e+01
2.570000e-06	3.183729e-06	9.448944e-10	2.214711e+01	6.370205e+01
2.580000e-06	3.221726e-06	9.510631e-10	2.241144e+01	6.425823e+01
2.590000e-06	3.259501e-06	9.556780e-10	2.267421e+01	6.480515e+01
2.600000e-06	3.297069e-06	9.598929e-10	2.293555e+01	6.534285e+01
2.610000e-06	3.334464e-06	9.641796e-10	2.319568e+01	6.587134e+01
2.620000e-06	3.371656e-06	9.683665e-10	2.345440e+01	6.639065e+01
2.630000e-06	3.408588e-06	9.749122e-10	2.371131e+01	6.690077e+01
2.640000e-06	3.445208e-06	9.856899e-10	2.396605e+01	6.740169e+01
2.650000e-06	3.481554e-06	9.968067e-10	2.421888e+01	6.789342e+01
2.660000e-06	3.517694e-06	1.005259e-09	2.447029e+01	6.837593e+01
2.670000e-06	3.553662e-06	1.011161e-09	2.472050e+01	6.884923e+01
2.680000e-06	3.589454e-06	1.014362e-09	2.496948e+01	6.931330e+01
2.690000e-06	3.625130e-06	1.016295e-09	2.521765e+01	6.976817e+01
2.700000e-06	3.660675e-06	1.020352e-09	2.546492e+01	7.021383e+01
2.710000e-06	3.696039e-06	1.028061e-09	2.571092e+01	7.065032e+01
2.720000e-06	3.731190e-06	1.036479e-09	2.595544e+01	7.107767e+01
2.730000e-06	3.766093e-06	1.044377e-09	2.619824e+01	7.149595e+01
2.740000e-06	3.800537e-06	1.051418e-09	2.643784e+01	7.190523e+01
2.750000e-06	3.834427e-06	1.056183e-09	2.667359e+01	7.230559e+01
2.760000e-06	3.867844e-06	1.059723e-09	2.690605e+01	7.269715e+01
2.770000e-06	3.900774e-06	1.063363e-09	2.713512e+01	7.308003e+01
2.780000e-06	3.933325e-06	1.068491e-09	2.736156e+01	7.345439e+01
2.790000e-06	3.965545e-06	1.075167e-09	2.758569e+01	7.382039e+01
2.800000e-06	3.997512e-06	1.082907e-09	2.780807e+01	7.417822e+01
2.810000e-06	4.029323e-06	1.089514e-09	2.802936e+01	7.452809e+01
2.820000e-06	4.060977e-06	1.095428e-09	2.824955e+01	7.487022e+01
2.830000e-06	4.092518e-06	1.102805e-09	2.846896e+01	7.520485e+01
2.840000e-06	4.123892e-06	1.110253e-09	2.868721e+01	7.553223e+01
2.850000e-06	4.154942e-06	1.118204e-09	2.890320e+01	7.585262e+01
2.860000e-06	4.185638e-06	1.125031e-09	2.911674e+01	7.616631e+01
2.870000e-06	4.215996e-06	1.129168e-09	2.932792e+01	7.647358e+01
2.880000e-06	4.245984e-06	1.133059e-09	2.953653e+01	7.677471e+01
2.890000e-06	4.275707e-06	1.137665e-09	2.974329e+01	7.707000e+01
2.900000e-06	4.305245e-06	1.143751e-09	2.994876e+01	7.735975e+01
