# Temperatura_=_-0.9
# Concentracion g/m^3_=_1620.0
# C_Vs_to_Am_M_A/Vsm_=_65563218390.804596
# pendiente_HvsI_1/m_=_3716.3
# ordenada_HvsI_A/m_=_1297.0
# frecuencia_Hz_=_135103.69214775256

Tiempo_(s)	Campo_(V.s)	Magnetizacion_(V.s)	Campo_(kA/m)	Magnetizacion_(A/m)
0.000000e+00	-5.512073e-06	-1.140325e-09	-3.836807e+01	-7.781382e+01
1.000000e-08	-5.512052e-06	-1.138809e-09	-3.836792e+01	-7.779826e+01
2.000000e-08	-5.511829e-06	-1.139382e-09	-3.836637e+01	-7.778146e+01
3.000000e-08	-5.511251e-06	-1.141289e-09	-3.836235e+01	-7.776323e+01
4.000000e-08	-5.510118e-06	-1.141178e-09	-3.835446e+01	-7.774338e+01
5.000000e-08	-5.508370e-06	-1.143353e-09	-3.834230e+01	-7.772172e+01
6.000000e-08	-5.506100e-06	-1.150687e-09	-3.832649e+01	-7.769807e+01
7.000000e-08	-5.503316e-06	-1.137217e-09	-3.830712e+01	-7.767225e+01
8.000000e-08	-5.500079e-06	-1.110379e-09	-3.828458e+01	-7.764408e+01
9.000000e-08	-5.496401e-06	-1.151287e-09	-3.825898e+01	-7.761339e+01
1.000000e-07	-5.492288e-06	-1.204901e-09	-3.823035e+01	-7.758001e+01
1.100000e-07	-5.487806e-06	-1.169561e-09	-3.819915e+01	-7.754379e+01
1.200000e-07	-5.483145e-06	-1.079469e-09	-3.816671e+01	-7.750458e+01
1.300000e-07	-5.478238e-06	-1.093645e-09	-3.813256e+01	-7.746223e+01
1.400000e-07	-5.472947e-06	-1.182604e-09	-3.809573e+01	-7.741662e+01
1.500000e-07	-5.467314e-06	-1.162124e-09	-3.805651e+01	-7.736761e+01
1.600000e-07	-5.461314e-06	-1.087960e-09	-3.801475e+01	-7.731511e+01
1.700000e-07	-5.454857e-06	-1.106916e-09	-3.796981e+01	-7.725900e+01
1.800000e-07	-5.447884e-06	-1.209069e-09	-3.792127e+01	-7.719921e+01
1.900000e-07	-5.440569e-06	-1.181908e-09	-3.787035e+01	-7.713564e+01
2.000000e-07	-5.433010e-06	-1.107228e-09	-3.781774e+01	-7.706823e+01
2.100000e-07	-5.425163e-06	-1.117588e-09	-3.776312e+01	-7.699692e+01
2.200000e-07	-5.416997e-06	-1.211611e-09	-3.770627e+01	-7.692166e+01
2.300000e-07	-5.408567e-06	-1.213258e-09	-3.764759e+01	-7.684242e+01
2.400000e-07	-5.399730e-06	-1.168232e-09	-3.758608e+01	-7.675915e+01
2.500000e-07	-5.390201e-06	-1.168790e-09	-3.751975e+01	-7.667186e+01
2.600000e-07	-5.380054e-06	-1.195580e-09	-3.744912e+01	-7.658051e+01
2.700000e-07	-5.369382e-06	-1.177343e-09	-3.737484e+01	-7.648511e+01
2.800000e-07	-5.358122e-06	-1.150142e-09	-3.729646e+01	-7.638567e+01
2.900000e-07	-5.346435e-06	-1.164019e-09	-3.721511e+01	-7.628220e+01
3.000000e-07	-5.334498e-06	-1.173328e-09	-3.713201e+01	-7.617470e+01
3.100000e-07	-5.322192e-06	-1.163918e-09	-3.704636e+01	-7.606322e+01
3.200000e-07	-5.309307e-06	-1.146098e-09	-3.695667e+01	-7.594777e+01
3.300000e-07	-5.295956e-06	-1.154741e-09	-3.686374e+01	-7.582839e+01
3.400000e-07	-5.282298e-06	-1.160090e-09	-3.676867e+01	-7.570512e+01
3.500000e-07	-5.268189e-06	-1.160064e-09	-3.667046e+01	-7.557800e+01
3.600000e-07	-5.253624e-06	-1.144394e-09	-3.656907e+01	-7.544706e+01
3.700000e-07	-5.238705e-06	-1.165123e-09	-3.646523e+01	-7.531236e+01
3.800000e-07	-5.223270e-06	-1.168264e-09	-3.635779e+01	-7.517393e+01
3.900000e-07	-5.207307e-06	-1.135030e-09	-3.624668e+01	-7.503184e+01
4.000000e-07	-5.190985e-06	-1.114960e-09	-3.613306e+01	-7.488611e+01
4.100000e-07	-5.174274e-06	-1.159498e-09	-3.601674e+01	-7.473680e+01
4.200000e-07	-5.157092e-06	-1.152152e-09	-3.589714e+01	-7.458397e+01
4.300000e-07	-5.139590e-06	-1.117593e-09	-3.577531e+01	-7.442764e+01
4.400000e-07	-5.121835e-06	-1.148348e-09	-3.565173e+01	-7.426787e+01
4.500000e-07	-5.103685e-06	-1.185201e-09	-3.552539e+01	-7.410470e+01
4.600000e-07	-5.085146e-06	-1.128234e-09	-3.539635e+01	-7.393818e+01
4.700000e-07	-5.066200e-06	-1.110495e-09	-3.526446e+01	-7.376834e+01
4.800000e-07	-5.046870e-06	-1.155765e-09	-3.512991e+01	-7.359522e+01
4.900000e-07	-5.027329e-06	-1.140447e-09	-3.499390e+01	-7.341887e+01
5.000000e-07	-5.007577e-06	-1.102168e-09	-3.485641e+01	-7.323931e+01
5.100000e-07	-4.987549e-06	-1.137850e-09	-3.471700e+01	-7.305659e+01
5.200000e-07	-4.967232e-06	-1.138377e-09	-3.457557e+01	-7.287073e+01
5.300000e-07	-4.946543e-06	-1.091632e-09	-3.443157e+01	-7.268177e+01
5.400000e-07	-4.925529e-06	-1.114968e-09	-3.428530e+01	-7.248974e+01
5.500000e-07	-4.904209e-06	-1.143544e-09	-3.413689e+01	-7.229467e+01
5.600000e-07	-4.882505e-06	-1.096127e-09	-3.398581e+01	-7.209659e+01
5.700000e-07	-4.860424e-06	-1.085850e-09	-3.383212e+01	-7.189552e+01
5.800000e-07	-4.838036e-06	-1.127454e-09	-3.367628e+01	-7.169150e+01
5.900000e-07	-4.815288e-06	-1.106436e-09	-3.351794e+01	-7.148455e+01
6.000000e-07	-4.792181e-06	-1.078549e-09	-3.335710e+01	-7.127469e+01
6.100000e-07	-4.768831e-06	-1.103145e-09	-3.319456e+01	-7.106196e+01
6.200000e-07	-4.745221e-06	-1.104406e-09	-3.303022e+01	-7.084638e+01
6.300000e-07	-4.721285e-06	-1.073159e-09	-3.286360e+01	-7.062798e+01
6.400000e-07	-4.697032e-06	-1.084813e-09	-3.269479e+01	-7.040679e+01
6.500000e-07	-4.672407e-06	-1.091346e-09	-3.252338e+01	-7.018284e+01
6.600000e-07	-4.647378e-06	-1.068681e-09	-3.234916e+01	-6.995614e+01
6.700000e-07	-4.621988e-06	-1.066183e-09	-3.217243e+01	-6.972674e+01
6.800000e-07	-4.596145e-06	-1.081156e-09	-3.199254e+01	-6.949465e+01
6.900000e-07	-4.569735e-06	-1.065181e-09	-3.180871e+01	-6.925991e+01
7.000000e-07	-4.542768e-06	-1.054393e-09	-3.162100e+01	-6.902255e+01
7.100000e-07	-4.515431e-06	-1.056880e-09	-3.143071e+01	-6.878259e+01
7.200000e-07	-4.487859e-06	-1.051250e-09	-3.123879e+01	-6.854007e+01
7.300000e-07	-4.460098e-06	-1.037797e-09	-3.104555e+01	-6.829500e+01
7.400000e-07	-4.432137e-06	-1.040113e-09	-3.085092e+01	-6.804742e+01
7.500000e-07	-4.403948e-06	-1.039193e-09	-3.065471e+01	-6.779736e+01
7.600000e-07	-4.375542e-06	-1.036022e-09	-3.045698e+01	-6.754482e+01
7.700000e-07	-4.346787e-06	-1.033059e-09	-3.025682e+01	-6.728985e+01
7.800000e-07	-4.317641e-06	-1.029404e-09	-3.005395e+01	-6.703246e+01
7.900000e-07	-4.288199e-06	-1.022705e-09	-2.984901e+01	-6.677266e+01
8.000000e-07	-4.258464e-06	-1.016725e-09	-2.964203e+01	-6.651047e+01
8.100000e-07	-4.228480e-06	-1.006081e-09	-2.943332e+01	-6.624592e+01
8.200000e-07	-4.198242e-06	-9.956896e-10	-2.922284e+01	-6.597899e+01
8.300000e-07	-4.167689e-06	-9.929229e-10	-2.901017e+01	-6.570971e+01
8.400000e-07	-4.136853e-06	-9.929233e-10	-2.879553e+01	-6.543807e+01
8.500000e-07	-4.105778e-06	-9.864836e-10	-2.857923e+01	-6.516407e+01
8.600000e-07	-4.074489e-06	-9.799122e-10	-2.836143e+01	-6.488770e+01
8.700000e-07	-4.042975e-06	-9.765419e-10	-2.814207e+01	-6.460896e+01
8.800000e-07	-4.011246e-06	-9.687803e-10	-2.792121e+01	-6.432782e+01
8.900000e-07	-3.979341e-06	-9.622030e-10	-2.769913e+01	-6.404428e+01
9.000000e-07	-3.947204e-06	-9.577880e-10	-2.747544e+01	-6.375829e+01
9.100000e-07	-3.914717e-06	-9.543141e-10	-2.724930e+01	-6.346984e+01
9.200000e-07	-3.881882e-06	-9.464421e-10	-2.702075e+01	-6.317888e+01
9.300000e-07	-3.848678e-06	-9.455090e-10	-2.678962e+01	-6.288538e+01
9.400000e-07	-3.814988e-06	-9.448354e-10	-2.655512e+01	-6.258929e+01
9.500000e-07	-3.780908e-06	-9.392500e-10	-2.631790e+01	-6.229057e+01
9.600000e-07	-3.746448e-06	-9.293714e-10	-2.607803e+01	-6.198915e+01
9.700000e-07	-3.711563e-06	-9.233168e-10	-2.583520e+01	-6.168498e+01
9.800000e-07	-3.676384e-06	-9.157904e-10	-2.559033e+01	-6.137801e+01
9.900000e-07	-3.640977e-06	-9.084771e-10	-2.534387e+01	-6.106815e+01
1.000000e-06	-3.605409e-06	-9.027659e-10	-2.509629e+01	-6.075535e+01
1.010000e-06	-3.569660e-06	-8.997964e-10	-2.484745e+01	-6.043953e+01
1.020000e-06	-3.533684e-06	-8.935509e-10	-2.459703e+01	-6.012062e+01
1.030000e-06	-3.497557e-06	-8.887623e-10	-2.434557e+01	-5.979854e+01
1.040000e-06	-3.461247e-06	-8.860231e-10	-2.409281e+01	-5.947321e+01
1.050000e-06	-3.424714e-06	-8.828119e-10	-2.383852e+01	-5.914455e+01
1.060000e-06	-3.387967e-06	-8.770766e-10	-2.358273e+01	-5.881247e+01
1.070000e-06	-3.350910e-06	-8.725870e-10	-2.332479e+01	-5.847691e+01
1.080000e-06	-3.313569e-06	-8.659927e-10	-2.306487e+01	-5.813776e+01
1.090000e-06	-3.276036e-06	-8.583194e-10	-2.280362e+01	-5.779496e+01
1.100000e-06	-3.238271e-06	-8.521118e-10	-2.254074e+01	-5.744842e+01
1.110000e-06	-3.200238e-06	-8.463877e-10	-2.227600e+01	-5.709805e+01
1.120000e-06	-3.162015e-06	-8.400076e-10	-2.200995e+01	-5.674377e+01
1.130000e-06	-3.123639e-06	-8.339692e-10	-2.174282e+01	-5.638551e+01
1.140000e-06	-3.085046e-06	-8.287700e-10	-2.147418e+01	-5.602318e+01
1.150000e-06	-3.046171e-06	-8.203354e-10	-2.120358e+01	-5.565671e+01
1.160000e-06	-3.007033e-06	-8.115049e-10	-2.093115e+01	-5.528601e+01
1.170000e-06	-2.967700e-06	-8.049428e-10	-2.065737e+01	-5.491100e+01
1.180000e-06	-2.928225e-06	-8.007119e-10	-2.038259e+01	-5.453162e+01
1.190000e-06	-2.888639e-06	-7.941178e-10	-2.010705e+01	-5.414778e+01
1.200000e-06	-2.848932e-06	-7.873111e-10	-1.983066e+01	-5.375941e+01
1.210000e-06	-2.809075e-06	-7.809524e-10	-1.955322e+01	-5.336642e+01
1.220000e-06	-2.769062e-06	-7.737035e-10	-1.927470e+01	-5.296874e+01
1.230000e-06	-2.728920e-06	-7.658758e-10	-1.899529e+01	-5.256629e+01
1.240000e-06	-2.688617e-06	-7.586316e-10	-1.871475e+01	-5.215899e+01
1.250000e-06	-2.648074e-06	-7.509655e-10	-1.843254e+01	-5.174675e+01
1.260000e-06	-2.607353e-06	-7.435516e-10	-1.814909e+01	-5.132948e+01
1.270000e-06	-2.566405e-06	-7.340628e-10	-1.786406e+01	-5.090709e+01
1.280000e-06	-2.525079e-06	-7.266993e-10	-1.757640e+01	-5.047947e+01
1.290000e-06	-2.483533e-06	-7.162771e-10	-1.728721e+01	-5.004653e+01
1.300000e-06	-2.441755e-06	-7.058618e-10	-1.699641e+01	-4.960815e+01
1.310000e-06	-2.399639e-06	-6.958134e-10	-1.670325e+01	-4.916422e+01
1.320000e-06	-2.357257e-06	-6.863943e-10	-1.640824e+01	-4.871459e+01
1.330000e-06	-2.314550e-06	-6.765814e-10	-1.611096e+01	-4.825915e+01
1.340000e-06	-2.271572e-06	-6.679227e-10	-1.581181e+01	-4.779773e+01
1.350000e-06	-2.228489e-06	-6.613044e-10	-1.551192e+01	-4.733017e+01
1.360000e-06	-2.185271e-06	-6.541932e-10	-1.521109e+01	-4.685631e+01
1.370000e-06	-2.141822e-06	-6.480745e-10	-1.490866e+01	-4.637597e+01
1.380000e-06	-2.098224e-06	-6.418074e-10	-1.460518e+01	-4.588893e+01
1.390000e-06	-2.054533e-06	-6.325415e-10	-1.430106e+01	-4.539500e+01
1.400000e-06	-2.010727e-06	-6.199194e-10	-1.399613e+01	-4.489394e+01
1.410000e-06	-1.966819e-06	-6.058245e-10	-1.369050e+01	-4.438551e+01
1.420000e-06	-1.922802e-06	-5.947765e-10	-1.338411e+01	-4.386946e+01
1.430000e-06	-1.878726e-06	-5.852097e-10	-1.307731e+01	-4.334552e+01
1.440000e-06	-1.834600e-06	-5.774013e-10	-1.277016e+01	-4.281339e+01
1.450000e-06	-1.790387e-06	-5.730457e-10	-1.246241e+01	-4.227279e+01
1.460000e-06	-1.746123e-06	-5.665648e-10	-1.215429e+01	-4.172338e+01
1.470000e-06	-1.701735e-06	-5.590435e-10	-1.184532e+01	-4.116485e+01
1.480000e-06	-1.657159e-06	-5.471128e-10	-1.153504e+01	-4.059685e+01
1.490000e-06	-1.612386e-06	-5.341978e-10	-1.122339e+01	-4.001903e+01
1.500000e-06	-1.567483e-06	-5.223040e-10	-1.091083e+01	-3.943101e+01
1.510000e-06	-1.522468e-06	-5.130081e-10	-1.059749e+01	-3.883242e+01
1.520000e-06	-1.477352e-06	-5.064736e-10	-1.028345e+01	-3.822287e+01
1.530000e-06	-1.432204e-06	-5.005046e-10	-9.969190e+00	-3.760196e+01
1.540000e-06	-1.386904e-06	-4.920048e-10	-9.653869e+00	-3.696931e+01
1.550000e-06	-1.341449e-06	-4.827710e-10	-9.337466e+00	-3.632449e+01
1.560000e-06	-1.295999e-06	-4.730534e-10	-9.021103e+00	-3.566711e+01
1.570000e-06	-1.250483e-06	-4.628782e-10	-8.704282e+00	-3.499675e+01
1.580000e-06	-1.204791e-06	-4.545790e-10	-8.386232e+00	-3.431301e+01
1.590000e-06	-1.159005e-06	-4.473113e-10	-8.067523e+00	-3.361548e+01
1.600000e-06	-1.113146e-06	-4.372431e-10	-7.748312e+00	-3.290377e+01
1.610000e-06	-1.067247e-06	-4.260865e-10	-7.428820e+00	-3.217748e+01
1.620000e-06	-1.021305e-06	-4.155634e-10	-7.109029e+00	-3.143625e+01
1.630000e-06	-9.752474e-07	-4.070351e-10	-6.788437e+00	-3.067970e+01
1.640000e-06	-9.291443e-07	-3.980313e-10	-6.467526e+00	-2.990750e+01
1.650000e-06	-8.829935e-07	-3.882316e-10	-6.146282e+00	-2.911930e+01
1.660000e-06	-8.367178e-07	-3.763589e-10	-5.824170e+00	-2.831481e+01
1.670000e-06	-7.903843e-07	-3.608325e-10	-5.501654e+00	-2.749374e+01
1.680000e-06	-7.439981e-07	-3.471156e-10	-5.178772e+00	-2.665583e+01
1.690000e-06	-6.975881e-07	-3.357908e-10	-4.855725e+00	-2.580085e+01
1.700000e-06	-6.511531e-07	-3.239695e-10	-4.532503e+00	-2.492862e+01
1.710000e-06	-6.047074e-07	-3.104134e-10	-4.209207e+00	-2.403895e+01
1.720000e-06	-5.581927e-07	-2.969702e-10	-3.885430e+00	-2.313173e+01
1.730000e-06	-5.115706e-07	-2.817897e-10	-3.560907e+00	-2.220687e+01
1.740000e-06	-4.650283e-07	-2.660120e-10	-3.236938e+00	-2.126430e+01
1.750000e-06	-4.184787e-07	-2.514861e-10	-2.912919e+00	-2.030403e+01
1.760000e-06	-3.718159e-07	-2.394681e-10	-2.588111e+00	-1.932608e+01
1.770000e-06	-3.250682e-07	-2.285376e-10	-2.262713e+00	-1.833054e+01
1.780000e-06	-2.782638e-07	-2.160278e-10	-1.936920e+00	-1.731751e+01
1.790000e-06	-2.314766e-07	-2.009714e-10	-1.611247e+00	-1.628718e+01
1.800000e-06	-1.846922e-07	-1.840500e-10	-1.285593e+00	-1.523975e+01
1.810000e-06	-1.378489e-07	-1.664436e-10	-9.595294e-01	-1.417549e+01
1.820000e-06	-9.099427e-08	-1.510595e-10	-6.333869e-01	-1.309470e+01
1.830000e-06	-4.421268e-08	-1.373362e-10	-3.077527e-01	-1.199774e+01
1.840000e-06	2.573697e-09	-1.235982e-10	1.791482e-02	-1.088503e+01
1.850000e-06	4.933176e-08	-1.095797e-10	3.433853e-01	-9.756994e+00
1.860000e-06	9.604191e-08	-9.639237e-11	6.685222e-01	-8.614146e+00
1.870000e-06	1.427333e-07	-8.055773e-11	9.935286e-01	-7.457025e+00
1.880000e-06	1.894076e-07	-6.075003e-11	1.318416e+00	-6.286217e+00
1.890000e-06	2.360998e-07	-4.057987e-11	1.643427e+00	-5.102351e+00
1.900000e-06	2.827533e-07	-2.084827e-11	1.968171e+00	-3.906098e+00
1.910000e-06	3.293580e-07	-2.709085e-12	2.292573e+00	-2.698166e+00
1.920000e-06	3.759627e-07	1.444375e-11	2.616976e+00	-1.479302e+00
1.930000e-06	4.226116e-07	3.011753e-11	2.941687e+00	-2.502897e-01
1.940000e-06	4.692546e-07	4.365360e-11	3.266356e+00	9.880576e-01
1.950000e-06	5.158394e-07	5.713996e-11	3.590621e+00	2.234894e+00
1.960000e-06	5.623725e-07	7.205909e-11	3.914525e+00	3.489347e+00
1.970000e-06	6.088233e-07	9.228119e-11	4.237856e+00	4.750519e+00
1.980000e-06	6.551317e-07	1.144021e-10	4.560197e+00	6.017489e+00
1.990000e-06	7.013660e-07	1.355972e-10	4.882021e+00	7.289319e+00
2.000000e-06	7.475316e-07	1.537753e-10	5.203368e+00	8.565052e+00
2.010000e-06	7.936534e-07	1.719281e-10	5.524410e+00	9.843721e+00
2.020000e-06	8.398239e-07	1.900922e-10	5.845790e+00	1.112435e+01
2.030000e-06	8.859975e-07	2.079624e-10	6.167192e+00	1.240594e+01
2.040000e-06	9.321090e-07	2.246006e-10	6.488162e+00	1.368752e+01
2.050000e-06	9.781351e-07	2.402618e-10	6.808537e+00	1.496809e+01
2.060000e-06	1.024102e-06	2.570996e-10	7.128501e+00	1.624667e+01
2.070000e-06	1.069977e-06	2.777104e-10	7.447823e+00	1.752227e+01
2.080000e-06	1.115720e-06	3.028497e-10	7.766230e+00	1.879391e+01
2.090000e-06	1.161330e-06	3.262190e-10	8.083710e+00	2.006064e+01
2.100000e-06	1.206844e-06	3.457056e-10	8.400522e+00	2.132151e+01
2.110000e-06	1.252309e-06	3.595697e-10	8.716987e+00	2.257558e+01
2.120000e-06	1.297738e-06	3.702360e-10	9.033211e+00	2.382194e+01
2.130000e-06	1.343128e-06	3.827439e-10	9.349159e+00	2.505971e+01
2.140000e-06	1.388475e-06	4.002842e-10	9.664807e+00	2.628800e+01
2.150000e-06	1.433761e-06	4.198858e-10	9.980025e+00	2.750598e+01
2.160000e-06	1.478874e-06	4.396207e-10	1.029405e+01	2.871284e+01
2.170000e-06	1.523798e-06	4.580823e-10	1.060675e+01	2.990779e+01
2.180000e-06	1.568587e-06	4.766352e-10	1.091851e+01	3.109008e+01
2.190000e-06	1.613186e-06	4.909269e-10	1.122895e+01	3.225899e+01
2.200000e-06	1.657666e-06	5.022614e-10	1.153857e+01	3.341384e+01
2.210000e-06	1.702146e-06	5.126708e-10	1.184818e+01	3.455398e+01
2.220000e-06	1.746481e-06	5.258127e-10	1.215679e+01	3.567878e+01
2.230000e-06	1.790681e-06	5.440312e-10	1.246445e+01	3.678769e+01
2.240000e-06	1.834815e-06	5.639853e-10	1.277166e+01	3.788017e+01
2.250000e-06	1.878860e-06	5.829967e-10	1.307824e+01	3.895571e+01
2.260000e-06	1.922830e-06	5.970677e-10	1.338431e+01	4.001385e+01
2.270000e-06	1.966681e-06	6.112536e-10	1.368954e+01	4.105419e+01
2.280000e-06	2.010435e-06	6.242220e-10	1.399410e+01	4.207634e+01
2.290000e-06	2.054202e-06	6.352489e-10	1.429876e+01	4.307995e+01
2.300000e-06	2.097933e-06	6.452487e-10	1.460315e+01	4.406474e+01
2.310000e-06	2.141525e-06	6.558652e-10	1.490658e+01	4.503043e+01
2.320000e-06	2.185037e-06	6.698799e-10	1.520946e+01	4.597681e+01
2.330000e-06	2.228461e-06	6.852440e-10	1.551172e+01	4.690370e+01
2.340000e-06	2.271765e-06	7.024617e-10	1.581315e+01	4.781095e+01
2.350000e-06	2.314891e-06	7.217671e-10	1.611334e+01	4.869844e+01
2.360000e-06	2.357723e-06	7.376551e-10	1.641148e+01	4.956612e+01
2.370000e-06	2.400275e-06	7.453568e-10	1.670767e+01	5.041393e+01
2.380000e-06	2.442466e-06	7.472346e-10	1.700135e+01	5.124189e+01
2.390000e-06	2.484279e-06	7.495241e-10	1.729240e+01	5.205001e+01
2.400000e-06	2.525782e-06	7.555861e-10	1.758130e+01	5.283838e+01
2.410000e-06	2.566901e-06	7.678709e-10	1.786751e+01	5.360707e+01
2.420000e-06	2.607753e-06	7.852633e-10	1.815187e+01	5.435623e+01
2.430000e-06	2.648435e-06	8.044914e-10	1.843505e+01	5.508600e+01
2.440000e-06	2.688889e-06	8.190408e-10	1.871664e+01	5.579656e+01
2.450000e-06	2.729122e-06	8.244708e-10	1.899669e+01	5.648814e+01
2.460000e-06	2.769166e-06	8.289136e-10	1.927543e+01	5.716096e+01
2.470000e-06	2.809087e-06	8.352993e-10	1.955331e+01	5.781528e+01
2.480000e-06	2.848928e-06	8.430973e-10	1.983063e+01	5.845139e+01
2.490000e-06	2.888663e-06	8.508282e-10	2.010721e+01	5.906959e+01
2.500000e-06	2.928240e-06	8.595483e-10	2.038270e+01	5.967020e+01
2.510000e-06	2.967659e-06	8.718429e-10	2.065708e+01	6.025357e+01
2.520000e-06	3.006921e-06	8.845641e-10	2.093037e+01	6.082006e+01
2.530000e-06	3.045922e-06	8.934849e-10	2.120185e+01	6.137004e+01
2.540000e-06	3.084641e-06	8.982796e-10	2.147136e+01	6.190390e+01
2.550000e-06	3.123097e-06	9.010776e-10	2.173905e+01	6.242205e+01
2.560000e-06	3.161329e-06	9.055736e-10	2.200517e+01	6.292489e+01
2.570000e-06	3.199372e-06	9.080919e-10	2.226998e+01	6.341285e+01
2.580000e-06	3.237233e-06	9.089517e-10	2.253351e+01	6.388637e+01
2.590000e-06	3.274927e-06	9.136360e-10	2.279589e+01	6.434588e+01
2.600000e-06	3.312446e-06	9.221196e-10	2.305706e+01	6.479182e+01
2.610000e-06	3.349697e-06	9.288935e-10	2.331635e+01	6.522465e+01
2.620000e-06	3.386674e-06	9.337766e-10	2.357373e+01	6.564481e+01
2.630000e-06	3.423454e-06	9.404090e-10	2.382975e+01	6.605275e+01
2.640000e-06	3.459960e-06	9.461933e-10	2.408386e+01	6.644893e+01
2.650000e-06	3.496177e-06	9.513688e-10	2.433596e+01	6.683379e+01
2.660000e-06	3.532172e-06	9.565625e-10	2.458651e+01	6.720777e+01
2.670000e-06	3.568052e-06	9.615819e-10	2.483626e+01	6.757133e+01
2.680000e-06	3.603873e-06	9.672003e-10	2.508560e+01	6.792487e+01
2.690000e-06	3.639547e-06	9.738438e-10	2.533391e+01	6.826885e+01
2.700000e-06	3.675016e-06	9.809932e-10	2.558080e+01	6.860366e+01
2.710000e-06	3.710219e-06	9.868568e-10	2.582584e+01	6.892971e+01
2.720000e-06	3.745124e-06	9.925894e-10	2.606881e+01	6.924740e+01
2.730000e-06	3.779717e-06	9.977158e-10	2.630960e+01	6.955710e+01
2.740000e-06	3.813950e-06	1.001009e-09	2.654789e+01	6.985919e+01
2.750000e-06	3.847732e-06	1.004914e-09	2.678304e+01	7.015401e+01
2.760000e-06	3.881033e-06	1.010486e-09	2.701484e+01	7.044190e+01
2.770000e-06	3.913899e-06	1.016463e-09	2.724360e+01	7.072317e+01
2.780000e-06	3.946315e-06	1.020776e-09	2.746925e+01	7.099813e+01
2.790000e-06	3.978381e-06	1.026758e-09	2.769245e+01	7.126704e+01
2.800000e-06	4.010255e-06	1.033470e-09	2.791432e+01	7.153019e+01
2.810000e-06	4.042010e-06	1.039652e-09	2.813536e+01	7.178780e+01
2.820000e-06	4.073634e-06	1.046339e-09	2.835548e+01	7.204009e+01
2.830000e-06	4.105108e-06	1.052559e-09	2.857456e+01	7.228727e+01
2.840000e-06	4.136310e-06	1.058553e-09	2.879175e+01	7.252952e+01
2.850000e-06	4.167108e-06	1.064749e-09	2.900613e+01	7.276699e+01
2.860000e-06	4.197555e-06	1.068022e-09	2.921806e+01	7.299981e+01
2.870000e-06	4.227717e-06	1.069052e-09	2.942801e+01	7.322812e+01
2.880000e-06	4.257632e-06	1.071003e-09	2.963624e+01	7.345199e+01
2.890000e-06	4.287306e-06	1.074252e-09	2.984280e+01	7.367151e+01
2.900000e-06	4.316715e-06	1.078625e-09	3.004750e+01	7.388672e+01
