# Temperatura_=_14.36
# Concentracion g/m^3_=_1620.0
# C_Vs_to_Am_M_A/Vsm_=_65563218390.804596
# pendiente_HvsI_1/m_=_3716.3
# ordenada_HvsI_A/m_=_1297.0
# frecuencia_Hz_=_135098.5541373546

Tiempo_(s)	Campo_(V.s)	Magnetizacion_(V.s)	Campo_(kA/m)	Magnetizacion_(A/m)
0.000000e+00	-5.495045e-06	-1.596884e-09	-3.836621e+01	-1.035762e+02
1.000000e-08	-5.495211e-06	-1.596575e-09	-3.836737e+01	-1.035804e+02
2.000000e-08	-5.495064e-06	-1.596135e-09	-3.836635e+01	-1.035804e+02
3.000000e-08	-5.494485e-06	-1.594320e-09	-3.836230e+01	-1.035759e+02
4.000000e-08	-5.493440e-06	-1.586060e-09	-3.835501e+01	-1.035670e+02
5.000000e-08	-5.491906e-06	-1.569036e-09	-3.834430e+01	-1.035533e+02
6.000000e-08	-5.489735e-06	-1.564501e-09	-3.832914e+01	-1.035348e+02
7.000000e-08	-5.486885e-06	-1.601772e-09	-3.830924e+01	-1.035112e+02
8.000000e-08	-5.483533e-06	-1.656212e-09	-3.828584e+01	-1.034826e+02
9.000000e-08	-5.479795e-06	-1.639955e-09	-3.825974e+01	-1.034486e+02
1.000000e-07	-5.475654e-06	-1.550036e-09	-3.823083e+01	-1.034093e+02
1.100000e-07	-5.471295e-06	-1.535342e-09	-3.820039e+01	-1.033645e+02
1.200000e-07	-5.466747e-06	-1.585600e-09	-3.816864e+01	-1.033140e+02
1.300000e-07	-5.461728e-06	-1.606674e-09	-3.813359e+01	-1.032579e+02
1.400000e-07	-5.456329e-06	-1.537557e-09	-3.809590e+01	-1.031960e+02
1.500000e-07	-5.450721e-06	-1.513586e-09	-3.805674e+01	-1.031283e+02
1.600000e-07	-5.444779e-06	-1.593007e-09	-3.801526e+01	-1.030547e+02
1.700000e-07	-5.438339e-06	-1.620729e-09	-3.797029e+01	-1.029753e+02
1.800000e-07	-5.431419e-06	-1.573453e-09	-3.792198e+01	-1.028899e+02
1.900000e-07	-5.424206e-06	-1.516818e-09	-3.787162e+01	-1.027986e+02
2.000000e-07	-5.416769e-06	-1.562584e-09	-3.781969e+01	-1.027014e+02
2.100000e-07	-5.409065e-06	-1.590704e-09	-3.776590e+01	-1.025984e+02
2.200000e-07	-5.401143e-06	-1.577543e-09	-3.771059e+01	-1.024895e+02
2.300000e-07	-5.392879e-06	-1.539163e-09	-3.765289e+01	-1.023749e+02
2.400000e-07	-5.384045e-06	-1.555698e-09	-3.759122e+01	-1.022545e+02
2.500000e-07	-5.374493e-06	-1.569218e-09	-3.752452e+01	-1.021286e+02
2.600000e-07	-5.364202e-06	-1.546942e-09	-3.745267e+01	-1.019970e+02
2.700000e-07	-5.353370e-06	-1.508516e-09	-3.737704e+01	-1.018600e+02
2.800000e-07	-5.342086e-06	-1.532445e-09	-3.729825e+01	-1.017176e+02
2.900000e-07	-5.330402e-06	-1.564845e-09	-3.721668e+01	-1.015699e+02
3.000000e-07	-5.318413e-06	-1.534356e-09	-3.713297e+01	-1.014171e+02
3.100000e-07	-5.306038e-06	-1.507970e-09	-3.704657e+01	-1.012592e+02
3.200000e-07	-5.293241e-06	-1.534520e-09	-3.695723e+01	-1.010963e+02
3.300000e-07	-5.280131e-06	-1.557179e-09	-3.686569e+01	-1.009285e+02
3.400000e-07	-5.266593e-06	-1.514089e-09	-3.677117e+01	-1.007560e+02
3.500000e-07	-5.252510e-06	-1.507188e-09	-3.667284e+01	-1.005787e+02
3.600000e-07	-5.238177e-06	-1.539603e-09	-3.657277e+01	-1.003969e+02
3.700000e-07	-5.223564e-06	-1.525127e-09	-3.647074e+01	-1.002106e+02
3.800000e-07	-5.208125e-06	-1.483419e-09	-3.636295e+01	-1.000198e+02
3.900000e-07	-5.191971e-06	-1.522592e-09	-3.625016e+01	-9.982461e+01
4.000000e-07	-5.175574e-06	-1.541682e-09	-3.613568e+01	-9.962512e+01
4.100000e-07	-5.158908e-06	-1.487345e-09	-3.601931e+01	-9.942134e+01
4.200000e-07	-5.141892e-06	-1.481659e-09	-3.590051e+01	-9.921331e+01
4.300000e-07	-5.124611e-06	-1.547033e-09	-3.577985e+01	-9.900106e+01
4.400000e-07	-5.107027e-06	-1.510022e-09	-3.565708e+01	-9.878459e+01
4.500000e-07	-5.088996e-06	-1.456278e-09	-3.553119e+01	-9.856390e+01
4.600000e-07	-5.070555e-06	-1.497856e-09	-3.540244e+01	-9.833898e+01
4.700000e-07	-5.051755e-06	-1.523985e-09	-3.527117e+01	-9.810981e+01
4.800000e-07	-5.032531e-06	-1.461847e-09	-3.513696e+01	-9.787635e+01
4.900000e-07	-5.013019e-06	-1.476629e-09	-3.500072e+01	-9.763857e+01
5.000000e-07	-4.993383e-06	-1.514918e-09	-3.486363e+01	-9.739640e+01
5.100000e-07	-4.973544e-06	-1.466204e-09	-3.472511e+01	-9.714980e+01
5.200000e-07	-4.953346e-06	-1.442611e-09	-3.458409e+01	-9.689869e+01
5.300000e-07	-4.932780e-06	-1.500594e-09	-3.444050e+01	-9.664299e+01
5.400000e-07	-4.911888e-06	-1.480035e-09	-3.429463e+01	-9.638264e+01
5.500000e-07	-4.890589e-06	-1.428234e-09	-3.414592e+01	-9.611755e+01
5.600000e-07	-4.868978e-06	-1.463309e-09	-3.399504e+01	-9.584763e+01
5.700000e-07	-4.847002e-06	-1.482672e-09	-3.384160e+01	-9.557280e+01
5.800000e-07	-4.824585e-06	-1.431591e-09	-3.368508e+01	-9.529297e+01
5.900000e-07	-4.801840e-06	-1.434928e-09	-3.352628e+01	-9.500806e+01
6.000000e-07	-4.778781e-06	-1.461438e-09	-3.336528e+01	-9.471799e+01
6.100000e-07	-4.755452e-06	-1.423163e-09	-3.320240e+01	-9.442267e+01
6.200000e-07	-4.731973e-06	-1.405668e-09	-3.303847e+01	-9.412204e+01
6.300000e-07	-4.708329e-06	-1.430308e-09	-3.287339e+01	-9.381602e+01
6.400000e-07	-4.684364e-06	-1.417338e-09	-3.270606e+01	-9.350456e+01
6.500000e-07	-4.660077e-06	-1.391296e-09	-3.253649e+01	-9.318761e+01
6.600000e-07	-4.635471e-06	-1.405369e-09	-3.236470e+01	-9.286511e+01
6.700000e-07	-4.610354e-06	-1.400997e-09	-3.218933e+01	-9.253704e+01
6.800000e-07	-4.584603e-06	-1.383424e-09	-3.200954e+01	-9.220337e+01
6.900000e-07	-4.558266e-06	-1.390185e-09	-3.182565e+01	-9.186409e+01
7.000000e-07	-4.531471e-06	-1.395123e-09	-3.163857e+01	-9.151920e+01
7.100000e-07	-4.504271e-06	-1.375230e-09	-3.144866e+01	-9.116869e+01
7.200000e-07	-4.476734e-06	-1.374798e-09	-3.125640e+01	-9.081259e+01
7.300000e-07	-4.449067e-06	-1.374673e-09	-3.106323e+01	-9.045092e+01
7.400000e-07	-4.421336e-06	-1.360737e-09	-3.086961e+01	-9.008372e+01
7.500000e-07	-4.393466e-06	-1.351479e-09	-3.067503e+01	-8.971104e+01
7.600000e-07	-4.365279e-06	-1.354848e-09	-3.047823e+01	-8.933293e+01
7.700000e-07	-4.336699e-06	-1.342051e-09	-3.027868e+01	-8.894945e+01
7.800000e-07	-4.307808e-06	-1.334529e-09	-3.007696e+01	-8.856067e+01
7.900000e-07	-4.278581e-06	-1.336188e-09	-2.987290e+01	-8.816666e+01
8.000000e-07	-4.249009e-06	-1.324372e-09	-2.966643e+01	-8.776751e+01
8.100000e-07	-4.219211e-06	-1.304785e-09	-2.945839e+01	-8.736329e+01
8.200000e-07	-4.189150e-06	-1.302825e-09	-2.924850e+01	-8.695410e+01
8.300000e-07	-4.158701e-06	-1.298071e-09	-2.903591e+01	-8.654001e+01
8.400000e-07	-4.127829e-06	-1.284532e-09	-2.882036e+01	-8.612111e+01
8.500000e-07	-4.096676e-06	-1.280032e-09	-2.860285e+01	-8.569748e+01
8.600000e-07	-4.065411e-06	-1.280922e-09	-2.838456e+01	-8.526921e+01
8.700000e-07	-4.033984e-06	-1.264420e-09	-2.816514e+01	-8.483638e+01
8.800000e-07	-4.002376e-06	-1.251788e-09	-2.794445e+01	-8.439904e+01
8.900000e-07	-3.970651e-06	-1.252667e-09	-2.772295e+01	-8.395728e+01
9.000000e-07	-3.938679e-06	-1.238490e-09	-2.749972e+01	-8.351113e+01
9.100000e-07	-3.906416e-06	-1.223910e-09	-2.727446e+01	-8.306067e+01
9.200000e-07	-3.873902e-06	-1.224532e-09	-2.704745e+01	-8.260592e+01
9.300000e-07	-3.840981e-06	-1.220014e-09	-2.681759e+01	-8.214691e+01
9.400000e-07	-3.807504e-06	-1.203701e-09	-2.658386e+01	-8.168366e+01
9.500000e-07	-3.773549e-06	-1.200883e-09	-2.634679e+01	-8.121619e+01
9.600000e-07	-3.739189e-06	-1.196615e-09	-2.610689e+01	-8.074448e+01
9.700000e-07	-3.704375e-06	-1.179700e-09	-2.586381e+01	-8.026853e+01
9.800000e-07	-3.669242e-06	-1.170251e-09	-2.561852e+01	-7.978831e+01
9.900000e-07	-3.633897e-06	-1.174400e-09	-2.537174e+01	-7.930378e+01
1.000000e-06	-3.598360e-06	-1.166176e-09	-2.512362e+01	-7.881490e+01
1.010000e-06	-3.562674e-06	-1.153544e-09	-2.487447e+01	-7.832161e+01
1.020000e-06	-3.526883e-06	-1.150220e-09	-2.462458e+01	-7.782384e+01
1.030000e-06	-3.490957e-06	-1.142585e-09	-2.437374e+01	-7.732151e+01
1.040000e-06	-3.454826e-06	-1.125395e-09	-2.412147e+01	-7.681455e+01
1.050000e-06	-3.418406e-06	-1.117611e-09	-2.386719e+01	-7.630287e+01
1.060000e-06	-3.381693e-06	-1.111010e-09	-2.361086e+01	-7.578635e+01
1.070000e-06	-3.344766e-06	-1.098759e-09	-2.335304e+01	-7.526492e+01
1.080000e-06	-3.307566e-06	-1.087548e-09	-2.309331e+01	-7.473845e+01
1.090000e-06	-3.270104e-06	-1.080025e-09	-2.283175e+01	-7.420684e+01
1.100000e-06	-3.232468e-06	-1.068555e-09	-2.256898e+01	-7.366999e+01
1.110000e-06	-3.194716e-06	-1.059716e-09	-2.230540e+01	-7.312779e+01
1.120000e-06	-3.156789e-06	-1.056434e-09	-2.204059e+01	-7.258012e+01
1.130000e-06	-3.118558e-06	-1.050192e-09	-2.177366e+01	-7.202689e+01
1.140000e-06	-3.080067e-06	-1.038782e-09	-2.150492e+01	-7.146799e+01
1.150000e-06	-3.041384e-06	-1.028269e-09	-2.123484e+01	-7.090333e+01
1.160000e-06	-3.002481e-06	-1.018226e-09	-2.096322e+01	-7.033282e+01
1.170000e-06	-2.963338e-06	-1.005838e-09	-2.068992e+01	-6.975637e+01
1.180000e-06	-2.923948e-06	-9.977844e-10	-2.041490e+01	-6.917390e+01
1.190000e-06	-2.884406e-06	-9.920478e-10	-2.013882e+01	-6.858535e+01
1.200000e-06	-2.844804e-06	-9.821731e-10	-1.986233e+01	-6.799065e+01
1.210000e-06	-2.805123e-06	-9.714465e-10	-1.958527e+01	-6.738974e+01
1.220000e-06	-2.765309e-06	-9.620036e-10	-1.930729e+01	-6.678259e+01
1.230000e-06	-2.725384e-06	-9.470452e-10	-1.902853e+01	-6.616915e+01
1.240000e-06	-2.685330e-06	-9.311266e-10	-1.874888e+01	-6.554939e+01
1.250000e-06	-2.645002e-06	-9.191680e-10	-1.846731e+01	-6.492328e+01
1.260000e-06	-2.604437e-06	-9.094581e-10	-1.818409e+01	-6.429080e+01
1.270000e-06	-2.563619e-06	-8.983559e-10	-1.789910e+01	-6.365194e+01
1.280000e-06	-2.522399e-06	-8.891119e-10	-1.761130e+01	-6.300668e+01
1.290000e-06	-2.480865e-06	-8.820741e-10	-1.732131e+01	-6.235502e+01
1.300000e-06	-2.439146e-06	-8.713564e-10	-1.703003e+01	-6.169694e+01
1.310000e-06	-2.397097e-06	-8.591099e-10	-1.673645e+01	-6.103244e+01
1.320000e-06	-2.354722e-06	-8.485307e-10	-1.644058e+01	-6.036150e+01
1.330000e-06	-2.312081e-06	-8.386307e-10	-1.614287e+01	-5.968409e+01
1.340000e-06	-2.269161e-06	-8.283285e-10	-1.584320e+01	-5.900021e+01
1.350000e-06	-2.226024e-06	-8.171300e-10	-1.554202e+01	-5.830980e+01
1.360000e-06	-2.182709e-06	-8.082506e-10	-1.523960e+01	-5.761283e+01
1.370000e-06	-2.139316e-06	-7.994986e-10	-1.493663e+01	-5.690923e+01
1.380000e-06	-2.095830e-06	-7.923451e-10	-1.463301e+01	-5.619894e+01
1.390000e-06	-2.052246e-06	-7.839694e-10	-1.432871e+01	-5.548186e+01
1.400000e-06	-2.008594e-06	-7.715747e-10	-1.402393e+01	-5.475789e+01
1.410000e-06	-1.964872e-06	-7.570593e-10	-1.371867e+01	-5.402688e+01
1.420000e-06	-1.921111e-06	-7.445279e-10	-1.341313e+01	-5.328870e+01
1.430000e-06	-1.877269e-06	-7.332362e-10	-1.310702e+01	-5.254316e+01
1.440000e-06	-1.833282e-06	-7.223619e-10	-1.279991e+01	-5.179006e+01
1.450000e-06	-1.789204e-06	-7.129126e-10	-1.249216e+01	-5.102919e+01
1.460000e-06	-1.745067e-06	-7.016804e-10	-1.218400e+01	-5.026028e+01
1.470000e-06	-1.700799e-06	-6.860283e-10	-1.187492e+01	-4.948305e+01
1.480000e-06	-1.656371e-06	-6.691295e-10	-1.156472e+01	-4.869720e+01
1.490000e-06	-1.611840e-06	-6.525448e-10	-1.125381e+01	-4.790239e+01
1.500000e-06	-1.567115e-06	-6.391587e-10	-1.094154e+01	-4.709827e+01
1.510000e-06	-1.522161e-06	-6.277781e-10	-1.062768e+01	-4.628444e+01
1.520000e-06	-1.477146e-06	-6.181137e-10	-1.031338e+01	-4.546050e+01
1.530000e-06	-1.432044e-06	-6.067903e-10	-9.998481e+00	-4.462600e+01
1.540000e-06	-1.386847e-06	-5.917411e-10	-9.682917e+00	-4.378051e+01
1.550000e-06	-1.341554e-06	-5.757637e-10	-9.366680e+00	-4.292354e+01
1.560000e-06	-1.296129e-06	-5.598780e-10	-9.049524e+00	-4.205460e+01
1.570000e-06	-1.250650e-06	-5.440638e-10	-8.731994e+00	-4.117319e+01
1.580000e-06	-1.205098e-06	-5.286556e-10	-8.413955e+00	-4.027879e+01
1.590000e-06	-1.159477e-06	-5.166259e-10	-8.095428e+00	-3.937089e+01
1.600000e-06	-1.113821e-06	-5.068584e-10	-7.776662e+00	-3.844896e+01
1.610000e-06	-1.068108e-06	-4.944260e-10	-7.457494e+00	-3.751248e+01
1.620000e-06	-1.022392e-06	-4.803215e-10	-7.138308e+00	-3.656094e+01
1.630000e-06	-9.765763e-07	-4.671825e-10	-6.818421e+00	-3.559381e+01
1.640000e-06	-9.305808e-07	-4.505053e-10	-6.497283e+00	-3.461061e+01
1.650000e-06	-8.845004e-07	-4.320265e-10	-6.175551e+00	-3.361087e+01
1.660000e-06	-8.383714e-07	-4.145899e-10	-5.853480e+00	-3.259413e+01
1.670000e-06	-7.922526e-07	-3.968192e-10	-5.531480e+00	-3.155997e+01
1.680000e-06	-7.461133e-07	-3.787969e-10	-5.209337e+00	-3.050800e+01
1.690000e-06	-6.999322e-07	-3.653503e-10	-4.886902e+00	-2.943786e+01
1.700000e-06	-6.537140e-07	-3.530298e-10	-4.564208e+00	-2.834925e+01
1.710000e-06	-6.074896e-07	-3.389666e-10	-4.241471e+00	-2.724189e+01
1.720000e-06	-5.612732e-07	-3.212203e-10	-3.918790e+00	-2.611558e+01
1.730000e-06	-5.149498e-07	-2.997246e-10	-3.595362e+00	-2.497015e+01
1.740000e-06	-4.684940e-07	-2.778416e-10	-3.271008e+00	-2.380551e+01
1.750000e-06	-4.220385e-07	-2.599931e-10	-2.946658e+00	-2.262161e+01
1.760000e-06	-3.755933e-07	-2.463494e-10	-2.622379e+00	-2.141847e+01
1.770000e-06	-3.290808e-07	-2.340067e-10	-2.297631e+00	-2.019619e+01
1.780000e-06	-2.825884e-07	-2.218696e-10	-1.973023e+00	-1.895493e+01
1.790000e-06	-2.361041e-07	-2.068278e-10	-1.648471e+00	-1.769492e+01
1.800000e-06	-1.895549e-07	-1.858963e-10	-1.323466e+00	-1.641647e+01
1.810000e-06	-1.429553e-07	-1.634545e-10	-9.981091e-01	-1.511995e+01
1.820000e-06	-9.627716e-08	-1.422835e-10	-6.722038e-01	-1.380582e+01
1.830000e-06	-4.954564e-08	-1.269906e-10	-3.459259e-01	-1.247461e+01
1.840000e-06	-2.907954e-09	-1.135074e-10	-2.030323e-02	-1.112690e+01
1.850000e-06	4.362792e-08	-9.806004e-11	3.046086e-01	-9.763370e+00
1.860000e-06	9.017289e-08	-8.016193e-11	6.295840e-01	-8.384763e+00
1.870000e-06	1.367678e-07	-5.890764e-11	9.549081e-01	-6.991884e+00
1.880000e-06	1.834613e-07	-3.571556e-11	1.280921e+00	-5.585606e+00
1.890000e-06	2.300907e-07	-1.156067e-11	1.606485e+00	-4.166863e+00
1.900000e-06	2.765712e-07	9.663116e-12	1.931011e+00	-2.736647e+00
1.910000e-06	3.230624e-07	2.839989e-11	2.255611e+00	-1.296004e+00
1.920000e-06	3.695484e-07	4.379073e-11	2.580174e+00	1.539689e-01
1.930000e-06	4.160055e-07	5.861671e-11	2.904536e+00	1.612133e+00
1.940000e-06	4.623928e-07	7.757815e-11	3.228410e+00	3.077308e+00
1.950000e-06	5.087177e-07	9.838067e-11	3.551849e+00	4.548280e+00
1.960000e-06	5.550109e-07	1.206494e-10	3.875067e+00	6.023809e+00
1.970000e-06	6.012533e-07	1.443921e-10	4.197929e+00	7.502631e+00
1.980000e-06	6.474356e-07	1.658530e-10	4.520373e+00	8.983465e+00
1.990000e-06	6.936061e-07	1.864159e-10	4.842733e+00	1.046502e+01
2.000000e-06	7.397146e-07	2.029973e-10	5.164662e+00	1.194601e+01
2.010000e-06	7.857668e-07	2.228918e-10	5.486196e+00	1.342514e+01
2.020000e-06	8.318452e-07	2.447350e-10	5.807914e+00	1.490113e+01
2.030000e-06	8.778285e-07	2.672743e-10	6.128968e+00	1.637272e+01
2.040000e-06	9.237380e-07	2.883769e-10	6.449506e+00	1.783865e+01
2.050000e-06	9.695976e-07	3.074895e-10	6.769697e+00	1.929771e+01
2.060000e-06	1.015407e-06	3.260487e-10	7.089534e+00	2.074872e+01
2.070000e-06	1.061176e-06	3.459124e-10	7.409096e+00	2.219053e+01
2.080000e-06	1.106843e-06	3.678438e-10	7.727937e+00	2.362204e+01
2.090000e-06	1.152368e-06	3.893031e-10	8.045791e+00	2.504218e+01
2.100000e-06	1.197829e-06	4.125425e-10	8.363202e+00	2.644996e+01
2.110000e-06	1.243265e-06	4.330276e-10	8.680436e+00	2.784442e+01
2.120000e-06	1.288618e-06	4.509096e-10	8.997089e+00	2.922468e+01
2.130000e-06	1.333879e-06	4.704763e-10	9.313097e+00	3.058991e+01
2.140000e-06	1.379077e-06	4.909646e-10	9.628666e+00	3.193935e+01
2.150000e-06	1.424174e-06	5.103047e-10	9.943530e+00	3.327229e+01
2.160000e-06	1.469098e-06	5.290519e-10	1.025719e+01	3.458811e+01
2.170000e-06	1.513912e-06	5.473070e-10	1.057008e+01	3.588626e+01
2.180000e-06	1.558661e-06	5.658583e-10	1.088251e+01	3.716623e+01
2.190000e-06	1.603273e-06	5.817050e-10	1.119400e+01	3.842762e+01
2.200000e-06	1.647777e-06	5.968078e-10	1.150472e+01	3.967006e+01
2.210000e-06	1.692080e-06	6.115504e-10	1.181405e+01	4.089327e+01
2.220000e-06	1.736236e-06	6.273320e-10	1.212234e+01	4.209704e+01
2.230000e-06	1.780363e-06	6.448731e-10	1.243044e+01	4.328122e+01
2.240000e-06	1.824428e-06	6.594467e-10	1.273809e+01	4.444571e+01
2.250000e-06	1.868411e-06	6.725610e-10	1.304518e+01	4.559047e+01
2.260000e-06	1.912253e-06	6.859261e-10	1.335128e+01	4.671554e+01
2.270000e-06	1.956017e-06	7.043982e-10	1.365684e+01	4.782099e+01
2.280000e-06	1.999731e-06	7.245113e-10	1.396205e+01	4.890696e+01
2.290000e-06	2.043404e-06	7.442331e-10	1.426698e+01	4.997361e+01
2.300000e-06	2.086979e-06	7.602968e-10	1.457122e+01	5.102116e+01
2.310000e-06	2.130418e-06	7.732852e-10	1.487450e+01	5.204986e+01
2.320000e-06	2.173776e-06	7.884178e-10	1.517723e+01	5.306000e+01
2.330000e-06	2.216953e-06	8.030381e-10	1.547869e+01	5.405189e+01
2.340000e-06	2.259961e-06	8.181216e-10	1.577897e+01	5.502588e+01
2.350000e-06	2.302719e-06	8.360082e-10	1.607750e+01	5.598233e+01
2.360000e-06	2.345161e-06	8.559823e-10	1.637383e+01	5.692161e+01
2.370000e-06	2.387373e-06	8.702292e-10	1.666855e+01	5.784411e+01
2.380000e-06	2.429385e-06	8.800073e-10	1.696188e+01	5.875024e+01
2.390000e-06	2.471141e-06	8.891411e-10	1.725342e+01	5.964038e+01
2.400000e-06	2.512556e-06	8.994209e-10	1.754258e+01	6.051496e+01
2.410000e-06	2.553664e-06	9.121517e-10	1.782959e+01	6.137436e+01
2.420000e-06	2.594478e-06	9.269523e-10	1.811455e+01	6.221899e+01
2.430000e-06	2.635009e-06	9.444534e-10	1.839754e+01	6.304922e+01
2.440000e-06	2.675292e-06	9.609630e-10	1.867880e+01	6.386544e+01
2.450000e-06	2.715439e-06	9.725894e-10	1.895910e+01	6.466800e+01
2.460000e-06	2.755422e-06	9.839419e-10	1.923826e+01	6.545726e+01
2.470000e-06	2.795217e-06	9.957215e-10	1.951611e+01	6.623354e+01
2.480000e-06	2.834937e-06	1.007370e-09	1.979343e+01	6.699715e+01
2.490000e-06	2.874551e-06	1.017867e-09	2.007001e+01	6.774840e+01
2.500000e-06	2.913945e-06	1.027366e-09	2.034506e+01	6.848755e+01
2.510000e-06	2.953175e-06	1.038494e-09	2.061897e+01	6.921485e+01
2.520000e-06	2.992176e-06	1.050727e-09	2.089127e+01	6.993055e+01
2.530000e-06	3.030935e-06	1.061436e-09	2.116188e+01	7.063485e+01
2.540000e-06	3.069583e-06	1.071185e-09	2.143172e+01	7.132796e+01
2.550000e-06	3.108020e-06	1.080740e-09	2.170008e+01	7.201005e+01
2.560000e-06	3.146203e-06	1.089766e-09	2.196668e+01	7.268129e+01
2.570000e-06	3.184250e-06	1.098236e-09	2.223232e+01	7.334181e+01
2.580000e-06	3.222082e-06	1.104835e-09	2.249646e+01	7.399176e+01
2.590000e-06	3.259688e-06	1.111951e-09	2.275903e+01	7.463124e+01
2.600000e-06	3.297153e-06	1.122131e-09	2.302060e+01	7.526038e+01
2.610000e-06	3.334301e-06	1.131758e-09	2.327998e+01	7.587927e+01
2.620000e-06	3.371099e-06	1.139632e-09	2.353690e+01	7.648800e+01
2.630000e-06	3.407690e-06	1.147600e-09	2.379237e+01	7.708666e+01
2.640000e-06	3.444043e-06	1.154675e-09	2.404619e+01	7.767533e+01
2.650000e-06	3.480167e-06	1.161760e-09	2.429840e+01	7.825409e+01
2.660000e-06	3.516183e-06	1.168352e-09	2.454987e+01	7.882303e+01
2.670000e-06	3.552046e-06	1.173828e-09	2.480026e+01	7.938223e+01
2.680000e-06	3.587744e-06	1.179723e-09	2.504950e+01	7.993178e+01
2.690000e-06	3.623272e-06	1.187387e-09	2.529756e+01	8.047176e+01
2.700000e-06	3.658560e-06	1.195963e-09	2.554394e+01	8.100229e+01
2.710000e-06	3.693588e-06	1.204207e-09	2.578851e+01	8.152345e+01
2.720000e-06	3.728380e-06	1.211716e-09	2.603142e+01	8.203538e+01
2.730000e-06	3.762926e-06	1.218372e-09	2.627262e+01	8.253818e+01
2.740000e-06	3.797068e-06	1.223403e-09	2.651099e+01	8.303199e+01
2.750000e-06	3.830710e-06	1.228148e-09	2.674588e+01	8.351696e+01
2.760000e-06	3.863863e-06	1.235206e-09	2.697735e+01	8.399324e+01
2.770000e-06	3.896616e-06	1.244426e-09	2.720604e+01	8.446098e+01
2.780000e-06	3.929031e-06	1.253444e-09	2.743235e+01	8.492036e+01
2.790000e-06	3.961135e-06	1.261718e-09	2.765651e+01	8.537156e+01
2.800000e-06	3.993025e-06	1.269427e-09	2.787916e+01	8.581477e+01
2.810000e-06	4.024728e-06	1.276117e-09	2.810051e+01	8.625018e+01
2.820000e-06	4.056262e-06	1.282110e-09	2.832068e+01	8.667801e+01
2.830000e-06	4.087653e-06	1.289146e-09	2.853985e+01	8.709845e+01
2.840000e-06	4.118771e-06	1.298590e-09	2.875712e+01	8.751171e+01
2.850000e-06	4.149513e-06	1.307818e-09	2.897176e+01	8.791802e+01
2.860000e-06	4.179939e-06	1.314082e-09	2.918419e+01	8.831759e+01
2.870000e-06	4.210065e-06	1.318195e-09	2.939453e+01	8.871063e+01
2.880000e-06	4.239935e-06	1.320663e-09	2.960308e+01	8.909736e+01
2.890000e-06	4.269566e-06	1.324041e-09	2.980996e+01	8.947798e+01
2.900000e-06	4.298913e-06	1.331127e-09	3.001486e+01	8.985270e+01
2.910000e-06	4.327933e-06	1.339120e-09	3.021748e+01	9.022172e+01
