# Temperatura_=_13.7
# Concentracion g/m^3_=_1620.0
# C_Vs_to_Am_M_A/Vsm_=_65563218390.804596
# pendiente_HvsI_1/m_=_3716.3
# ordenada_HvsI_A/m_=_1297.0
# frecuencia_Hz_=_135094.4610219842

Tiempo_(s)	Campo_(V.s)	Magnetizacion_(V.s)	Campo_(kA/m)	Magnetizacion_(A/m)
0.000000e+00	-5.510930e-06	-1.631737e-09	-3.838026e+01	-1.067482e+02
1.000000e-08	-5.511215e-06	-1.631842e-09	-3.838225e+01	-1.067717e+02
2.000000e-08	-5.511270e-06	-1.635707e-09	-3.838264e+01	-1.067939e+02
3.000000e-08	-5.510991e-06	-1.637393e-09	-3.838069e+01	-1.068144e+02
4.000000e-08	-5.510155e-06	-1.635210e-09	-3.837487e+01	-1.068331e+02
5.000000e-08	-5.508740e-06	-1.622444e-09	-3.836502e+01	-1.068496e+02
6.000000e-08	-5.506748e-06	-1.603706e-09	-3.835114e+01	-1.068637e+02
7.000000e-08	-5.504090e-06	-1.609385e-09	-3.833263e+01	-1.068750e+02
8.000000e-08	-5.500942e-06	-1.644838e-09	-3.831071e+01	-1.068832e+02
9.000000e-08	-5.497370e-06	-1.698010e-09	-3.828583e+01	-1.068881e+02
1.000000e-07	-5.493300e-06	-1.715915e-09	-3.825748e+01	-1.068892e+02
1.100000e-07	-5.488832e-06	-1.640457e-09	-3.822637e+01	-1.068862e+02
1.200000e-07	-5.484174e-06	-1.553572e-09	-3.819393e+01	-1.068788e+02
1.300000e-07	-5.479319e-06	-1.557850e-09	-3.816012e+01	-1.068666e+02
1.400000e-07	-5.474118e-06	-1.645720e-09	-3.812390e+01	-1.068493e+02
1.500000e-07	-5.468587e-06	-1.631394e-09	-3.808538e+01	-1.068266e+02
1.600000e-07	-5.462717e-06	-1.556108e-09	-3.804450e+01	-1.067981e+02
1.700000e-07	-5.456408e-06	-1.577746e-09	-3.800055e+01	-1.067635e+02
1.800000e-07	-5.449613e-06	-1.684556e-09	-3.795324e+01	-1.067225e+02
1.900000e-07	-5.442398e-06	-1.681370e-09	-3.790299e+01	-1.066749e+02
2.000000e-07	-5.434915e-06	-1.557400e-09	-3.785087e+01	-1.066203e+02
2.100000e-07	-5.427274e-06	-1.531236e-09	-3.779766e+01	-1.065586e+02
2.200000e-07	-5.419392e-06	-1.616668e-09	-3.774276e+01	-1.064896e+02
2.300000e-07	-5.411173e-06	-1.666936e-09	-3.768552e+01	-1.064130e+02
2.400000e-07	-5.402481e-06	-1.615077e-09	-3.762499e+01	-1.063286e+02
2.500000e-07	-5.393068e-06	-1.596941e-09	-3.755943e+01	-1.062364e+02
2.600000e-07	-5.382925e-06	-1.613871e-09	-3.748879e+01	-1.061362e+02
2.700000e-07	-5.372227e-06	-1.616659e-09	-3.741429e+01	-1.060280e+02
2.800000e-07	-5.361079e-06	-1.579443e-09	-3.733665e+01	-1.059116e+02
2.900000e-07	-5.349522e-06	-1.594394e-09	-3.725616e+01	-1.057870e+02
3.000000e-07	-5.337571e-06	-1.613181e-09	-3.717293e+01	-1.056543e+02
3.100000e-07	-5.325289e-06	-1.603245e-09	-3.708739e+01	-1.055134e+02
3.200000e-07	-5.312585e-06	-1.579089e-09	-3.699891e+01	-1.053644e+02
3.300000e-07	-5.299457e-06	-1.579468e-09	-3.690749e+01	-1.052072e+02
3.400000e-07	-5.286005e-06	-1.588590e-09	-3.681381e+01	-1.050421e+02
3.500000e-07	-5.272156e-06	-1.590632e-09	-3.671735e+01	-1.048691e+02
3.600000e-07	-5.257825e-06	-1.577127e-09	-3.661754e+01	-1.046883e+02
3.700000e-07	-5.242947e-06	-1.571615e-09	-3.651393e+01	-1.044998e+02
3.800000e-07	-5.227509e-06	-1.583087e-09	-3.640641e+01	-1.043038e+02
3.900000e-07	-5.211530e-06	-1.577676e-09	-3.629513e+01	-1.041004e+02
4.000000e-07	-5.195135e-06	-1.554275e-09	-3.618095e+01	-1.038899e+02
4.100000e-07	-5.178354e-06	-1.558227e-09	-3.606408e+01	-1.036723e+02
4.200000e-07	-5.161245e-06	-1.572216e-09	-3.594492e+01	-1.034478e+02
4.300000e-07	-5.143888e-06	-1.543710e-09	-3.582405e+01	-1.032167e+02
4.400000e-07	-5.126236e-06	-1.549539e-09	-3.570111e+01	-1.029792e+02
4.500000e-07	-5.108136e-06	-1.587273e-09	-3.557505e+01	-1.027353e+02
4.600000e-07	-5.089572e-06	-1.569265e-09	-3.544577e+01	-1.024853e+02
4.700000e-07	-5.070651e-06	-1.514442e-09	-3.531399e+01	-1.022294e+02
4.800000e-07	-5.051403e-06	-1.543266e-09	-3.517994e+01	-1.019677e+02
4.900000e-07	-5.031912e-06	-1.562065e-09	-3.504420e+01	-1.017004e+02
5.000000e-07	-5.012234e-06	-1.521970e-09	-3.490715e+01	-1.014276e+02
5.100000e-07	-4.992374e-06	-1.514941e-09	-3.476884e+01	-1.011496e+02
5.200000e-07	-4.972290e-06	-1.548844e-09	-3.462897e+01	-1.008665e+02
5.300000e-07	-4.951934e-06	-1.516292e-09	-3.448720e+01	-1.005783e+02
5.400000e-07	-4.931148e-06	-1.506165e-09	-3.434244e+01	-1.002852e+02
5.500000e-07	-4.909857e-06	-1.540063e-09	-3.419416e+01	-9.998739e+01
5.600000e-07	-4.888277e-06	-1.516898e-09	-3.404387e+01	-9.968486e+01
5.700000e-07	-4.866407e-06	-1.468084e-09	-3.389156e+01	-9.937773e+01
5.800000e-07	-4.844122e-06	-1.501810e-09	-3.373636e+01	-9.906607e+01
5.900000e-07	-4.821479e-06	-1.516518e-09	-3.357866e+01	-9.874995e+01
6.000000e-07	-4.798496e-06	-1.474536e-09	-3.341860e+01	-9.842941e+01
6.100000e-07	-4.775202e-06	-1.475995e-09	-3.325637e+01	-9.810450e+01
6.200000e-07	-4.751640e-06	-1.497968e-09	-3.309227e+01	-9.777524e+01
6.300000e-07	-4.727911e-06	-1.466242e-09	-3.292702e+01	-9.744165e+01
6.400000e-07	-4.703990e-06	-1.451538e-09	-3.276042e+01	-9.710375e+01
6.500000e-07	-4.679678e-06	-1.474151e-09	-3.259110e+01	-9.676153e+01
6.600000e-07	-4.654926e-06	-1.461970e-09	-3.241872e+01	-9.641498e+01
6.700000e-07	-4.629718e-06	-1.444558e-09	-3.224317e+01	-9.606411e+01
6.800000e-07	-4.603909e-06	-1.458672e-09	-3.206342e+01	-9.570888e+01
6.900000e-07	-4.577558e-06	-1.455170e-09	-3.187990e+01	-9.534927e+01
7.000000e-07	-4.550832e-06	-1.427991e-09	-3.169377e+01	-9.498527e+01
7.100000e-07	-4.523746e-06	-1.429437e-09	-3.150513e+01	-9.461682e+01
7.200000e-07	-4.496347e-06	-1.430854e-09	-3.131432e+01	-9.424392e+01
7.300000e-07	-4.468687e-06	-1.414923e-09	-3.112168e+01	-9.386651e+01
7.400000e-07	-4.440855e-06	-1.408481e-09	-3.092785e+01	-9.348457e+01
7.500000e-07	-4.412807e-06	-1.414511e-09	-3.073251e+01	-9.309806e+01
7.600000e-07	-4.384526e-06	-1.402147e-09	-3.053555e+01	-9.270694e+01
7.700000e-07	-4.355961e-06	-1.392070e-09	-3.033661e+01	-9.231118e+01
7.800000e-07	-4.327003e-06	-1.387340e-09	-3.013494e+01	-9.191075e+01
7.900000e-07	-4.297700e-06	-1.380335e-09	-2.993086e+01	-9.150562e+01
8.000000e-07	-4.268121e-06	-1.369548e-09	-2.972486e+01	-9.109575e+01
8.100000e-07	-4.238330e-06	-1.367039e-09	-2.951738e+01	-9.068112e+01
8.200000e-07	-4.208309e-06	-1.357992e-09	-2.930831e+01	-9.026171e+01
8.300000e-07	-4.177998e-06	-1.348252e-09	-2.909721e+01	-8.983749e+01
8.400000e-07	-4.147265e-06	-1.342473e-09	-2.888317e+01	-8.940844e+01
8.500000e-07	-4.116211e-06	-1.334343e-09	-2.866690e+01	-8.897454e+01
8.600000e-07	-4.084993e-06	-1.317983e-09	-2.844949e+01	-8.853578e+01
8.700000e-07	-4.053581e-06	-1.309195e-09	-2.823072e+01	-8.809214e+01
8.800000e-07	-4.021992e-06	-1.304032e-09	-2.801072e+01	-8.764360e+01
8.900000e-07	-3.990235e-06	-1.295786e-09	-2.778955e+01	-8.719016e+01
9.000000e-07	-3.958230e-06	-1.287436e-09	-2.756666e+01	-8.673179e+01
9.100000e-07	-3.925900e-06	-1.282322e-09	-2.734150e+01	-8.626849e+01
9.200000e-07	-3.893285e-06	-1.271343e-09	-2.711436e+01	-8.580025e+01
9.300000e-07	-3.860272e-06	-1.261042e-09	-2.688444e+01	-8.532705e+01
9.400000e-07	-3.826762e-06	-1.256829e-09	-2.665106e+01	-8.484887e+01
9.500000e-07	-3.792764e-06	-1.249009e-09	-2.641429e+01	-8.436571e+01
9.600000e-07	-3.758336e-06	-1.237626e-09	-2.617452e+01	-8.387755e+01
9.700000e-07	-3.723525e-06	-1.228548e-09	-2.593208e+01	-8.338436e+01
9.800000e-07	-3.688410e-06	-1.224378e-09	-2.568753e+01	-8.288614e+01
9.900000e-07	-3.653061e-06	-1.215539e-09	-2.544134e+01	-8.238285e+01
1.000000e-06	-3.617471e-06	-1.209200e-09	-2.519348e+01	-8.187449e+01
1.010000e-06	-3.581758e-06	-1.205462e-09	-2.494476e+01	-8.136101e+01
1.020000e-06	-3.545939e-06	-1.199015e-09	-2.469530e+01	-8.084240e+01
1.030000e-06	-3.510011e-06	-1.188452e-09	-2.444509e+01	-8.031863e+01
1.040000e-06	-3.473943e-06	-1.181030e-09	-2.419390e+01	-7.978967e+01
1.050000e-06	-3.437601e-06	-1.173792e-09	-2.394080e+01	-7.925549e+01
1.060000e-06	-3.400961e-06	-1.163725e-09	-2.368562e+01	-7.871605e+01
1.070000e-06	-3.364068e-06	-1.154685e-09	-2.342868e+01	-7.817133e+01
1.080000e-06	-3.326876e-06	-1.148107e-09	-2.316966e+01	-7.762129e+01
1.090000e-06	-3.289399e-06	-1.136214e-09	-2.290866e+01	-7.706590e+01
1.100000e-06	-3.251712e-06	-1.125223e-09	-2.264619e+01	-7.650514e+01
1.110000e-06	-3.213843e-06	-1.115179e-09	-2.238246e+01	-7.593896e+01
1.120000e-06	-3.175754e-06	-1.104964e-09	-2.211719e+01	-7.536735e+01
1.130000e-06	-3.137408e-06	-1.096258e-09	-2.185013e+01	-7.479027e+01
1.140000e-06	-3.098867e-06	-1.090200e-09	-2.158172e+01	-7.420771e+01
1.150000e-06	-3.060183e-06	-1.079134e-09	-2.131231e+01	-7.361964e+01
1.160000e-06	-3.021261e-06	-1.065434e-09	-2.104124e+01	-7.302604e+01
1.170000e-06	-2.982064e-06	-1.055034e-09	-2.076826e+01	-7.242690e+01
1.180000e-06	-2.942718e-06	-1.045982e-09	-2.049424e+01	-7.182220e+01
1.190000e-06	-2.903256e-06	-1.035797e-09	-2.021941e+01	-7.121194e+01
1.200000e-06	-2.863600e-06	-1.027363e-09	-1.994323e+01	-7.059610e+01
1.210000e-06	-2.823831e-06	-1.020127e-09	-1.966626e+01	-6.997470e+01
1.220000e-06	-2.784020e-06	-1.008791e-09	-1.938900e+01	-6.934772e+01
1.230000e-06	-2.744026e-06	-9.971521e-10	-1.911047e+01	-6.871517e+01
1.240000e-06	-2.703833e-06	-9.869247e-10	-1.883055e+01	-6.807705e+01
1.250000e-06	-2.663450e-06	-9.782766e-10	-1.854931e+01	-6.743337e+01
1.260000e-06	-2.622796e-06	-9.690912e-10	-1.826618e+01	-6.678412e+01
1.270000e-06	-2.581979e-06	-9.575630e-10	-1.798191e+01	-6.612931e+01
1.280000e-06	-2.540908e-06	-9.460236e-10	-1.769588e+01	-6.546895e+01
1.290000e-06	-2.499434e-06	-9.358592e-10	-1.740703e+01	-6.480302e+01
1.300000e-06	-2.457627e-06	-9.274889e-10	-1.711587e+01	-6.413152e+01
1.310000e-06	-2.415552e-06	-9.183537e-10	-1.682285e+01	-6.345444e+01
1.320000e-06	-2.373246e-06	-9.083771e-10	-1.652821e+01	-6.277174e+01
1.330000e-06	-2.330694e-06	-8.980977e-10	-1.623187e+01	-6.208340e+01
1.340000e-06	-2.287905e-06	-8.887482e-10	-1.593386e+01	-6.138938e+01
1.350000e-06	-2.244770e-06	-8.783048e-10	-1.563346e+01	-6.068961e+01
1.360000e-06	-2.201416e-06	-8.660503e-10	-1.533152e+01	-5.998403e+01
1.370000e-06	-2.157994e-06	-8.568436e-10	-1.502911e+01	-5.927253e+01
1.380000e-06	-2.114449e-06	-8.487228e-10	-1.472585e+01	-5.855503e+01
1.390000e-06	-2.070830e-06	-8.385364e-10	-1.442207e+01	-5.783138e+01
1.400000e-06	-2.027148e-06	-8.266292e-10	-1.411785e+01	-5.710144e+01
1.410000e-06	-1.983399e-06	-8.144969e-10	-1.381317e+01	-5.636504e+01
1.420000e-06	-1.939580e-06	-8.022685e-10	-1.350799e+01	-5.562198e+01
1.430000e-06	-1.895730e-06	-7.898358e-10	-1.320260e+01	-5.487203e+01
1.440000e-06	-1.851818e-06	-7.786652e-10	-1.289678e+01	-5.411494e+01
1.450000e-06	-1.807709e-06	-7.678761e-10	-1.258959e+01	-5.335044e+01
1.460000e-06	-1.763471e-06	-7.586701e-10	-1.228150e+01	-5.257821e+01
1.470000e-06	-1.719137e-06	-7.487695e-10	-1.197274e+01	-5.179794e+01
1.480000e-06	-1.674659e-06	-7.355693e-10	-1.166298e+01	-5.100924e+01
1.490000e-06	-1.630057e-06	-7.209891e-10	-1.135236e+01	-5.021173e+01
1.500000e-06	-1.585404e-06	-7.073171e-10	-1.104137e+01	-4.940499e+01
1.510000e-06	-1.540631e-06	-6.958405e-10	-1.072956e+01	-4.858857e+01
1.520000e-06	-1.495595e-06	-6.825414e-10	-1.041591e+01	-4.776200e+01
1.530000e-06	-1.450449e-06	-6.693908e-10	-1.010149e+01	-4.692479e+01
1.540000e-06	-1.405250e-06	-6.530652e-10	-9.786709e+00	-4.607642e+01
1.550000e-06	-1.359898e-06	-6.377105e-10	-9.470861e+00	-4.521634e+01
1.560000e-06	-1.314392e-06	-6.249662e-10	-9.153941e+00	-4.434401e+01
1.570000e-06	-1.268825e-06	-6.133390e-10	-8.836594e+00	-4.345885e+01
1.580000e-06	-1.223225e-06	-5.978112e-10	-8.519014e+00	-4.256028e+01
1.590000e-06	-1.177529e-06	-5.821899e-10	-8.200769e+00	-4.164772e+01
1.600000e-06	-1.131723e-06	-5.655876e-10	-7.881759e+00	-4.072057e+01
1.610000e-06	-1.085811e-06	-5.452613e-10	-7.562009e+00	-3.977824e+01
1.620000e-06	-1.039877e-06	-5.280234e-10	-7.242109e+00	-3.882016e+01
1.630000e-06	-9.938549e-07	-5.163460e-10	-6.921594e+00	-3.784573e+01
1.640000e-06	-9.476674e-07	-5.065954e-10	-6.599926e+00	-3.685440e+01
1.650000e-06	-9.014764e-07	-4.953342e-10	-6.278233e+00	-3.584562e+01
1.660000e-06	-8.552916e-07	-4.817504e-10	-5.956584e+00	-3.481888e+01
1.670000e-06	-8.089863e-07	-4.614510e-10	-5.634096e+00	-3.377368e+01
1.680000e-06	-7.626493e-07	-4.375963e-10	-5.311387e+00	-3.270957e+01
1.690000e-06	-7.162781e-07	-4.161685e-10	-4.988440e+00	-3.162614e+01
1.700000e-06	-6.697833e-07	-3.996887e-10	-4.664632e+00	-3.052300e+01
1.710000e-06	-6.233111e-07	-3.854504e-10	-4.340982e+00	-2.939983e+01
1.720000e-06	-5.768782e-07	-3.751019e-10	-4.017605e+00	-2.825637e+01
1.730000e-06	-5.303322e-07	-3.610790e-10	-3.693440e+00	-2.709240e+01
1.740000e-06	-4.837565e-07	-3.412715e-10	-3.369069e+00	-2.590776e+01
1.750000e-06	-4.371554e-07	-3.176433e-10	-3.044521e+00	-2.470239e+01
1.760000e-06	-3.904179e-07	-2.962931e-10	-2.719023e+00	-2.347625e+01
1.770000e-06	-3.436892e-07	-2.770853e-10	-2.393586e+00	-2.222940e+01
1.780000e-06	-2.969275e-07	-2.591132e-10	-2.067919e+00	-2.096199e+01
1.790000e-06	-2.501769e-07	-2.453243e-10	-1.742330e+00	-1.967421e+01
1.800000e-06	-2.034051e-07	-2.305592e-10	-1.416592e+00	-1.836636e+01
1.810000e-06	-1.565451e-07	-2.126708e-10	-1.090241e+00	-1.703881e+01
1.820000e-06	-1.097087e-07	-1.961217e-10	-7.640540e-01	-1.569200e+01
1.830000e-06	-6.293568e-08	-1.798323e-10	-4.383086e-01	-1.432647e+01
1.840000e-06	-1.620778e-08	-1.608903e-10	-1.128773e-01	-1.294284e+01
1.850000e-06	3.051817e-08	-1.397293e-10	2.125404e-01	-1.154180e+01
1.860000e-06	7.721702e-08	-1.203459e-10	5.377695e-01	-1.012411e+01
1.870000e-06	1.239835e-07	-1.007523e-10	8.634696e-01	-8.690630e+00
1.880000e-06	1.707544e-07	-7.982868e-11	1.189200e+00	-7.242278e+00
1.890000e-06	2.174683e-07	-5.925717e-11	1.514534e+00	-5.780047e+00
1.900000e-06	2.641895e-07	-3.718339e-11	1.839919e+00	-4.304996e+00
1.910000e-06	3.108625e-07	-1.572190e-11	2.164968e+00	-2.818245e+00
1.920000e-06	3.575393e-07	5.002879e-12	2.490043e+00	-1.320974e+00
1.930000e-06	4.042767e-07	2.508874e-11	2.815541e+00	1.855882e-01
1.940000e-06	4.509457e-07	4.663998e-11	3.140562e+00	1.700163e+00
1.950000e-06	4.974789e-07	6.791251e-11	3.464637e+00	3.221434e+00
1.960000e-06	5.439449e-07	8.829941e-11	3.788245e+00	4.748049e+00
1.970000e-06	5.904409e-07	1.088334e-10	4.112061e+00	6.278628e+00
1.980000e-06	6.369165e-07	1.291569e-10	4.435735e+00	7.811772e+00
1.990000e-06	6.832182e-07	1.503393e-10	4.758198e+00	9.346068e+00
2.000000e-06	7.294932e-07	1.709314e-10	5.080475e+00	1.088010e+01
2.010000e-06	7.757868e-07	1.925948e-10	5.402882e+00	1.241244e+01
2.020000e-06	8.220026e-07	2.163567e-10	5.724747e+00	1.394168e+01
2.030000e-06	8.681863e-07	2.387864e-10	6.046388e+00	1.546644e+01
2.040000e-06	9.142762e-07	2.605859e-10	6.367377e+00	1.698533e+01
2.050000e-06	9.603116e-07	2.822012e-10	6.687985e+00	1.849701e+01
2.060000e-06	1.006314e-06	3.030435e-10	7.008360e+00	2.000018e+01
2.070000e-06	1.052279e-06	3.237173e-10	7.328481e+00	2.149357e+01
2.080000e-06	1.098197e-06	3.475802e-10	7.648269e+00	2.297597e+01
2.090000e-06	1.144042e-06	3.712237e-10	7.967556e+00	2.444621e+01
2.100000e-06	1.189787e-06	3.938889e-10	8.286139e+00	2.590319e+01
2.110000e-06	1.235364e-06	4.146163e-10	8.603555e+00	2.734588e+01
2.120000e-06	1.280851e-06	4.314843e-10	8.920344e+00	2.877330e+01
2.130000e-06	1.326196e-06	4.481922e-10	9.236149e+00	3.018456e+01
2.140000e-06	1.371455e-06	4.682345e-10	9.551348e+00	3.157884e+01
2.150000e-06	1.416757e-06	4.906254e-10	9.866852e+00	3.295539e+01
2.160000e-06	1.461941e-06	5.118334e-10	1.018153e+01	3.431355e+01
2.170000e-06	1.506926e-06	5.312359e-10	1.049482e+01	3.565273e+01
2.180000e-06	1.551766e-06	5.519043e-10	1.080711e+01	3.697245e+01
2.190000e-06	1.596527e-06	5.707152e-10	1.111884e+01	3.827227e+01
2.200000e-06	1.641162e-06	5.868163e-10	1.142970e+01	3.955187e+01
2.210000e-06	1.685583e-06	6.023869e-10	1.173906e+01	4.081099e+01
2.220000e-06	1.729845e-06	6.181846e-10	1.204732e+01	4.204945e+01
2.230000e-06	1.774030e-06	6.379053e-10	1.235504e+01	4.326715e+01
2.240000e-06	1.818078e-06	6.555798e-10	1.266180e+01	4.446408e+01
2.250000e-06	1.862034e-06	6.714225e-10	1.296793e+01	4.564026e+01
2.260000e-06	1.905984e-06	6.862755e-10	1.327402e+01	4.679582e+01
2.270000e-06	1.949832e-06	7.022250e-10	1.357939e+01	4.793093e+01
2.280000e-06	1.993575e-06	7.196031e-10	1.388404e+01	4.904582e+01
2.290000e-06	2.037260e-06	7.372531e-10	1.418827e+01	5.014078e+01
2.300000e-06	2.080900e-06	7.538728e-10	1.449220e+01	5.121615e+01
2.310000e-06	2.124532e-06	7.684924e-10	1.479607e+01	5.227229e+01
2.320000e-06	2.168124e-06	7.841948e-10	1.509966e+01	5.330963e+01
2.330000e-06	2.211568e-06	7.996467e-10	1.540222e+01	5.432861e+01
2.340000e-06	2.254815e-06	8.146200e-10	1.570341e+01	5.532971e+01
2.350000e-06	2.297845e-06	8.306777e-10	1.600309e+01	5.631341e+01
2.360000e-06	2.340587e-06	8.473970e-10	1.630076e+01	5.728022e+01
2.370000e-06	2.383109e-06	8.620402e-10	1.659690e+01	5.823066e+01
2.380000e-06	2.425406e-06	8.733419e-10	1.689147e+01	5.916525e+01
2.390000e-06	2.467414e-06	8.837405e-10	1.718403e+01	6.008450e+01
2.400000e-06	2.509101e-06	8.952704e-10	1.747436e+01	6.098893e+01
2.410000e-06	2.550394e-06	9.060153e-10	1.776194e+01	6.187903e+01
2.420000e-06	2.591354e-06	9.176386e-10	1.804720e+01	6.275530e+01
2.430000e-06	2.631974e-06	9.319645e-10	1.833010e+01	6.361818e+01
2.440000e-06	2.672319e-06	9.453022e-10	1.861107e+01	6.446814e+01
2.450000e-06	2.712456e-06	9.553921e-10	1.889060e+01	6.530558e+01
2.460000e-06	2.752418e-06	9.669827e-10	1.916891e+01	6.613089e+01
2.470000e-06	2.792289e-06	9.803810e-10	1.944659e+01	6.694443e+01
2.480000e-06	2.832044e-06	9.933229e-10	1.972346e+01	6.774652e+01
2.490000e-06	2.871690e-06	1.006241e-09	1.999957e+01	6.853746e+01
2.500000e-06	2.911304e-06	1.017677e-09	2.027546e+01	6.931749e+01
2.510000e-06	2.950874e-06	1.028344e-09	2.055104e+01	7.008685e+01
2.520000e-06	2.990222e-06	1.040021e-09	2.082507e+01	7.084571e+01
2.530000e-06	3.029352e-06	1.051203e-09	2.109759e+01	7.159424e+01
2.540000e-06	3.068245e-06	1.061174e-09	2.136846e+01	7.233255e+01
2.550000e-06	3.106869e-06	1.070532e-09	2.163745e+01	7.306073e+01
2.560000e-06	3.145212e-06	1.081256e-09	2.190449e+01	7.377885e+01
2.570000e-06	3.183287e-06	1.092510e-09	2.216965e+01	7.448693e+01
2.580000e-06	3.221144e-06	1.103653e-09	2.243331e+01	7.518500e+01
2.590000e-06	3.258777e-06	1.116689e-09	2.269540e+01	7.587303e+01
2.600000e-06	3.296237e-06	1.128224e-09	2.295628e+01	7.655100e+01
2.610000e-06	3.333562e-06	1.136885e-09	2.321623e+01	7.721886e+01
2.620000e-06	3.370648e-06	1.144219e-09	2.347451e+01	7.787655e+01
2.630000e-06	3.407456e-06	1.150279e-09	2.373086e+01	7.852401e+01
2.640000e-06	3.443964e-06	1.157980e-09	2.398511e+01	7.916116e+01
2.650000e-06	3.480172e-06	1.166925e-09	2.423727e+01	7.978794e+01
2.660000e-06	3.516156e-06	1.175776e-09	2.448789e+01	8.040427e+01
2.670000e-06	3.551961e-06	1.184246e-09	2.473724e+01	8.101009e+01
2.680000e-06	3.587695e-06	1.193734e-09	2.498611e+01	8.160534e+01
2.690000e-06	3.623369e-06	1.204606e-09	2.523456e+01	8.218998e+01
2.700000e-06	3.658918e-06	1.215418e-09	2.548213e+01	8.276397e+01
2.710000e-06	3.694230e-06	1.223718e-09	2.572806e+01	8.332731e+01
2.720000e-06	3.729278e-06	1.229110e-09	2.597215e+01	8.387999e+01
2.730000e-06	3.764038e-06	1.235688e-09	2.621423e+01	8.442204e+01
2.740000e-06	3.798410e-06	1.242658e-09	2.645361e+01	8.495352e+01
2.750000e-06	3.832411e-06	1.248688e-09	2.669041e+01	8.547450e+01
2.760000e-06	3.865774e-06	1.255471e-09	2.692276e+01	8.598507e+01
2.770000e-06	3.898477e-06	1.264653e-09	2.715052e+01	8.648536e+01
2.780000e-06	3.930897e-06	1.274837e-09	2.737630e+01	8.697553e+01
2.790000e-06	3.963034e-06	1.284374e-09	2.760012e+01	8.745574e+01
2.800000e-06	3.994918e-06	1.292316e-09	2.782217e+01	8.792621e+01
2.810000e-06	4.026658e-06	1.298988e-09	2.804322e+01	8.838715e+01
2.820000e-06	4.058235e-06	1.303918e-09	2.826313e+01	8.883882e+01
2.830000e-06	4.089670e-06	1.308427e-09	2.848206e+01	8.928148e+01
2.840000e-06	4.120949e-06	1.316730e-09	2.869990e+01	8.971542e+01
2.850000e-06	4.151948e-06	1.329415e-09	2.891579e+01	9.014096e+01
2.860000e-06	4.182533e-06	1.342401e-09	2.912879e+01	9.055841e+01
2.870000e-06	4.212720e-06	1.351981e-09	2.933902e+01	9.096810e+01
2.880000e-06	4.242606e-06	1.357321e-09	2.954716e+01	9.137039e+01
2.890000e-06	4.272272e-06	1.360355e-09	2.975377e+01	9.176560e+01
2.900000e-06	4.301768e-06	1.363840e-09	2.995919e+01	9.215411e+01
