# Temperatura_=_-1.1
# Concentracion g/m^3_=_1620.0
# C_Vs_to_Am_M_A/Vsm_=_65563218390.804596
# pendiente_HvsI_1/m_=_3716.3
# ordenada_HvsI_A/m_=_1297.0
# frecuencia_Hz_=_135105.07226037318

Tiempo_(s)	Campo_(V.s)	Magnetizacion_(V.s)	Campo_(kA/m)	Magnetizacion_(A/m)
0.000000e+00	-5.509283e-06	-1.072999e-09	-3.836980e+01	-7.102728e+01
1.000000e-08	-5.509542e-06	-1.068389e-09	-3.837161e+01	-7.094695e+01
2.000000e-08	-5.509546e-06	-1.067090e-09	-3.837164e+01	-7.086107e+01
3.000000e-08	-5.509253e-06	-1.067094e-09	-3.836959e+01	-7.076958e+01
4.000000e-08	-5.508578e-06	-1.065076e-09	-3.836489e+01	-7.067247e+01
5.000000e-08	-5.507357e-06	-1.056338e-09	-3.835638e+01	-7.056976e+01
6.000000e-08	-5.505477e-06	-1.050021e-09	-3.834329e+01	-7.046151e+01
7.000000e-08	-5.503069e-06	-1.072465e-09	-3.832652e+01	-7.034781e+01
8.000000e-08	-5.500163e-06	-1.093300e-09	-3.830629e+01	-7.022880e+01
9.000000e-08	-5.496768e-06	-1.063055e-09	-3.828264e+01	-7.010466e+01
1.000000e-07	-5.492936e-06	-1.040969e-09	-3.825595e+01	-6.997558e+01
1.100000e-07	-5.488703e-06	-1.088944e-09	-3.822647e+01	-6.984181e+01
1.200000e-07	-5.484194e-06	-1.111970e-09	-3.819507e+01	-6.970363e+01
1.300000e-07	-5.479429e-06	-1.031642e-09	-3.816188e+01	-6.956133e+01
1.400000e-07	-5.474363e-06	-9.722074e-10	-3.812660e+01	-6.941525e+01
1.500000e-07	-5.469009e-06	-1.060943e-09	-3.808931e+01	-6.926573e+01
1.600000e-07	-5.463250e-06	-1.109909e-09	-3.804920e+01	-6.911314e+01
1.700000e-07	-5.457079e-06	-1.065898e-09	-3.800622e+01	-6.895789e+01
1.800000e-07	-5.450496e-06	-9.839472e-10	-3.796037e+01	-6.880036e+01
1.900000e-07	-5.443531e-06	-1.049549e-09	-3.791187e+01	-6.864098e+01
2.000000e-07	-5.436181e-06	-1.062270e-09	-3.786068e+01	-6.848017e+01
2.100000e-07	-5.428510e-06	-1.019337e-09	-3.780725e+01	-6.831833e+01
2.200000e-07	-5.420601e-06	-9.660906e-10	-3.775217e+01	-6.815589e+01
2.300000e-07	-5.412356e-06	-1.013518e-09	-3.769475e+01	-6.799325e+01
2.400000e-07	-5.403736e-06	-1.033971e-09	-3.763471e+01	-6.783083e+01
2.500000e-07	-5.394670e-06	-1.007113e-09	-3.757157e+01	-6.766899e+01
2.600000e-07	-5.384949e-06	-9.699430e-10	-3.750387e+01	-6.750812e+01
2.700000e-07	-5.374540e-06	-9.697951e-10	-3.743138e+01	-6.734855e+01
2.800000e-07	-5.363570e-06	-9.910263e-10	-3.735497e+01	-6.719060e+01
2.900000e-07	-5.352126e-06	-9.819113e-10	-3.727527e+01	-6.703458e+01
3.000000e-07	-5.340264e-06	-9.864445e-10	-3.719266e+01	-6.688073e+01
3.100000e-07	-5.328067e-06	-9.749283e-10	-3.710771e+01	-6.672928e+01
3.200000e-07	-5.315555e-06	-1.003848e-09	-3.702057e+01	-6.658044e+01
3.300000e-07	-5.302637e-06	-9.893576e-10	-3.693060e+01	-6.643434e+01
3.400000e-07	-5.289264e-06	-9.800535e-10	-3.683746e+01	-6.629112e+01
3.500000e-07	-5.275541e-06	-9.624078e-10	-3.674189e+01	-6.615084e+01
3.600000e-07	-5.261504e-06	-1.007454e-09	-3.664413e+01	-6.601354e+01
3.700000e-07	-5.246990e-06	-9.833657e-10	-3.654304e+01	-6.587922e+01
3.800000e-07	-5.231913e-06	-9.773299e-10	-3.643804e+01	-6.574783e+01
3.900000e-07	-5.216297e-06	-9.901742e-10	-3.632928e+01	-6.561928e+01
4.000000e-07	-5.200251e-06	-9.975546e-10	-3.621753e+01	-6.549347e+01
4.100000e-07	-5.183799e-06	-9.360524e-10	-3.610295e+01	-6.537021e+01
4.200000e-07	-5.166899e-06	-9.708249e-10	-3.598525e+01	-6.524933e+01
4.300000e-07	-5.149593e-06	-1.012991e-09	-3.586471e+01	-6.513058e+01
4.400000e-07	-5.131959e-06	-9.649398e-10	-3.574190e+01	-6.501372e+01
4.500000e-07	-5.114060e-06	-9.314123e-10	-3.561724e+01	-6.489845e+01
4.600000e-07	-5.095824e-06	-1.005575e-09	-3.549024e+01	-6.478446e+01
4.700000e-07	-5.077125e-06	-9.905021e-10	-3.536000e+01	-6.467142e+01
4.800000e-07	-5.058029e-06	-9.203876e-10	-3.522701e+01	-6.455897e+01
4.900000e-07	-5.038636e-06	-9.633436e-10	-3.509195e+01	-6.444675e+01
5.000000e-07	-5.019079e-06	-1.003503e-09	-3.495574e+01	-6.433438e+01
5.100000e-07	-4.999314e-06	-9.354670e-10	-3.481808e+01	-6.422147e+01
5.200000e-07	-4.979230e-06	-9.436222e-10	-3.467821e+01	-6.410763e+01
5.300000e-07	-4.958872e-06	-1.005698e-09	-3.453643e+01	-6.399248e+01
5.400000e-07	-4.938182e-06	-9.448561e-10	-3.439233e+01	-6.387562e+01
5.500000e-07	-4.917061e-06	-9.065505e-10	-3.424523e+01	-6.375670e+01
5.600000e-07	-4.895565e-06	-9.704699e-10	-3.409552e+01	-6.363532e+01
5.700000e-07	-4.873774e-06	-9.596827e-10	-3.394375e+01	-6.351116e+01
5.800000e-07	-4.851622e-06	-8.951643e-10	-3.378947e+01	-6.338387e+01
5.900000e-07	-4.829113e-06	-9.478341e-10	-3.363271e+01	-6.325314e+01
6.000000e-07	-4.806303e-06	-9.702937e-10	-3.347385e+01	-6.311868e+01
6.100000e-07	-4.783175e-06	-9.139029e-10	-3.331277e+01	-6.298023e+01
6.200000e-07	-4.759767e-06	-9.184370e-10	-3.314975e+01	-6.283755e+01
6.300000e-07	-4.736137e-06	-9.570054e-10	-3.298517e+01	-6.269044e+01
6.400000e-07	-4.712268e-06	-9.076488e-10	-3.281893e+01	-6.253871e+01
6.500000e-07	-4.688106e-06	-9.024206e-10	-3.265065e+01	-6.238224e+01
6.600000e-07	-4.663575e-06	-9.376105e-10	-3.247981e+01	-6.222089e+01
6.700000e-07	-4.638537e-06	-9.199154e-10	-3.230543e+01	-6.205460e+01
6.800000e-07	-4.612936e-06	-8.973579e-10	-3.212713e+01	-6.188332e+01
6.900000e-07	-4.586808e-06	-9.348265e-10	-3.194516e+01	-6.170704e+01
7.000000e-07	-4.560206e-06	-9.202980e-10	-3.175989e+01	-6.152576e+01
7.100000e-07	-4.533202e-06	-8.913346e-10	-3.157181e+01	-6.133954e+01
7.200000e-07	-4.505895e-06	-9.069398e-10	-3.138163e+01	-6.114846e+01
7.300000e-07	-4.478362e-06	-9.152046e-10	-3.118987e+01	-6.095260e+01
7.400000e-07	-4.450601e-06	-8.858812e-10	-3.099653e+01	-6.075210e+01
7.500000e-07	-4.422614e-06	-8.942586e-10	-3.080162e+01	-6.054711e+01
7.600000e-07	-4.394439e-06	-9.017632e-10	-3.060539e+01	-6.033780e+01
7.700000e-07	-4.365996e-06	-8.828196e-10	-3.040730e+01	-6.012434e+01
7.800000e-07	-4.337205e-06	-8.794300e-10	-3.020678e+01	-5.990694e+01
7.900000e-07	-4.308119e-06	-8.886169e-10	-3.000420e+01	-5.968580e+01
8.000000e-07	-4.278711e-06	-8.725017e-10	-2.979940e+01	-5.946115e+01
8.100000e-07	-4.248978e-06	-8.640735e-10	-2.959231e+01	-5.923320e+01
8.200000e-07	-4.218922e-06	-8.744859e-10	-2.938299e+01	-5.900218e+01
8.300000e-07	-4.188623e-06	-8.635368e-10	-2.917197e+01	-5.876832e+01
8.400000e-07	-4.158119e-06	-8.473059e-10	-2.895952e+01	-5.853182e+01
8.500000e-07	-4.127303e-06	-8.494464e-10	-2.874490e+01	-5.829290e+01
8.600000e-07	-4.096223e-06	-8.474164e-10	-2.852844e+01	-5.805176e+01
8.700000e-07	-4.064868e-06	-8.314563e-10	-2.831007e+01	-5.780859e+01
8.800000e-07	-4.033321e-06	-8.347796e-10	-2.809035e+01	-5.756355e+01
8.900000e-07	-4.001588e-06	-8.381695e-10	-2.786935e+01	-5.731681e+01
9.000000e-07	-3.969558e-06	-8.294399e-10	-2.764627e+01	-5.706849e+01
9.100000e-07	-3.937306e-06	-8.207446e-10	-2.742165e+01	-5.681872e+01
9.200000e-07	-3.904768e-06	-8.244242e-10	-2.719504e+01	-5.656758e+01
9.300000e-07	-3.871879e-06	-8.118682e-10	-2.696598e+01	-5.631515e+01
9.400000e-07	-3.838666e-06	-8.041373e-10	-2.673467e+01	-5.606146e+01
9.500000e-07	-3.805096e-06	-8.083278e-10	-2.650087e+01	-5.580653e+01
9.600000e-07	-3.770987e-06	-8.102441e-10	-2.626331e+01	-5.555037e+01
9.700000e-07	-3.736297e-06	-7.966468e-10	-2.602171e+01	-5.529294e+01
9.800000e-07	-3.701228e-06	-7.956228e-10	-2.577747e+01	-5.503419e+01
9.900000e-07	-3.665875e-06	-7.953520e-10	-2.553125e+01	-5.477405e+01
1.000000e-06	-3.630306e-06	-7.872124e-10	-2.528353e+01	-5.451240e+01
1.010000e-06	-3.594617e-06	-7.798668e-10	-2.503497e+01	-5.424914e+01
1.020000e-06	-3.558807e-06	-7.834109e-10	-2.478557e+01	-5.398412e+01
1.030000e-06	-3.522851e-06	-7.786495e-10	-2.453515e+01	-5.371718e+01
1.040000e-06	-3.486724e-06	-7.708879e-10	-2.428354e+01	-5.344816e+01
1.050000e-06	-3.450347e-06	-7.680155e-10	-2.403020e+01	-5.317686e+01
1.060000e-06	-3.413680e-06	-7.644238e-10	-2.377482e+01	-5.290310e+01
1.070000e-06	-3.376758e-06	-7.551684e-10	-2.351768e+01	-5.262665e+01
1.080000e-06	-3.339585e-06	-7.512740e-10	-2.325878e+01	-5.234732e+01
1.090000e-06	-3.302177e-06	-7.489218e-10	-2.299825e+01	-5.206488e+01
1.100000e-06	-3.264520e-06	-7.421219e-10	-2.273599e+01	-5.177911e+01
1.110000e-06	-3.226651e-06	-7.376844e-10	-2.247224e+01	-5.148980e+01
1.120000e-06	-3.188622e-06	-7.356072e-10	-2.220739e+01	-5.119673e+01
1.130000e-06	-3.150410e-06	-7.294453e-10	-2.194126e+01	-5.089969e+01
1.140000e-06	-3.112044e-06	-7.202514e-10	-2.167406e+01	-5.059847e+01
1.150000e-06	-3.073470e-06	-7.149281e-10	-2.140541e+01	-5.029289e+01
1.160000e-06	-3.034605e-06	-7.072996e-10	-2.113473e+01	-4.998276e+01
1.170000e-06	-2.995535e-06	-7.016525e-10	-2.086262e+01	-4.966792e+01
1.180000e-06	-2.956234e-06	-6.976761e-10	-2.058891e+01	-4.934819e+01
1.190000e-06	-2.916676e-06	-6.970366e-10	-2.031340e+01	-4.902345e+01
1.200000e-06	-2.877034e-06	-6.949379e-10	-2.003731e+01	-4.869356e+01
1.210000e-06	-2.837328e-06	-6.923425e-10	-1.976078e+01	-4.835841e+01
1.220000e-06	-2.797529e-06	-6.852458e-10	-1.948359e+01	-4.801792e+01
1.230000e-06	-2.757562e-06	-6.758188e-10	-1.920524e+01	-4.767198e+01
1.240000e-06	-2.717416e-06	-6.670908e-10	-1.892564e+01	-4.732055e+01
1.250000e-06	-2.677153e-06	-6.628711e-10	-1.864522e+01	-4.696357e+01
1.260000e-06	-2.636657e-06	-6.574814e-10	-1.836319e+01	-4.660099e+01
1.270000e-06	-2.595912e-06	-6.527501e-10	-1.807942e+01	-4.623281e+01
1.280000e-06	-2.554965e-06	-6.490864e-10	-1.779424e+01	-4.585899e+01
1.290000e-06	-2.513795e-06	-6.472501e-10	-1.750751e+01	-4.547953e+01
1.300000e-06	-2.472251e-06	-6.424283e-10	-1.721817e+01	-4.509443e+01
1.310000e-06	-2.430286e-06	-6.350479e-10	-1.692590e+01	-4.470370e+01
1.320000e-06	-2.388025e-06	-6.249844e-10	-1.663157e+01	-4.430734e+01
1.330000e-06	-2.345523e-06	-6.139867e-10	-1.633557e+01	-4.390534e+01
1.340000e-06	-2.302790e-06	-6.030802e-10	-1.603795e+01	-4.349772e+01
1.350000e-06	-2.259831e-06	-5.961854e-10	-1.573876e+01	-4.308446e+01
1.360000e-06	-2.216721e-06	-5.900271e-10	-1.543851e+01	-4.266556e+01
1.370000e-06	-2.173438e-06	-5.860909e-10	-1.513707e+01	-4.224097e+01
1.380000e-06	-2.129921e-06	-5.833683e-10	-1.483399e+01	-4.181068e+01
1.390000e-06	-2.086251e-06	-5.799791e-10	-1.452985e+01	-4.137461e+01
1.400000e-06	-2.042535e-06	-5.726734e-10	-1.422538e+01	-4.093269e+01
1.410000e-06	-1.998764e-06	-5.621864e-10	-1.392054e+01	-4.048482e+01
1.420000e-06	-1.954875e-06	-5.525347e-10	-1.361487e+01	-4.003088e+01
1.430000e-06	-1.910887e-06	-5.451715e-10	-1.330851e+01	-3.957072e+01
1.440000e-06	-1.866800e-06	-5.396982e-10	-1.300146e+01	-3.910418e+01
1.450000e-06	-1.822608e-06	-5.339948e-10	-1.269368e+01	-3.863104e+01
1.460000e-06	-1.778327e-06	-5.290090e-10	-1.238529e+01	-3.815107e+01
1.470000e-06	-1.733959e-06	-5.229021e-10	-1.207629e+01	-3.766401e+01
1.480000e-06	-1.689529e-06	-5.141541e-10	-1.176685e+01	-3.716957e+01
1.490000e-06	-1.644950e-06	-5.024696e-10	-1.145638e+01	-3.666742e+01
1.500000e-06	-1.600236e-06	-4.926638e-10	-1.114496e+01	-3.615721e+01
1.510000e-06	-1.555462e-06	-4.860808e-10	-1.083313e+01	-3.563855e+01
1.520000e-06	-1.510559e-06	-4.808622e-10	-1.052040e+01	-3.511104e+01
1.530000e-06	-1.465548e-06	-4.754807e-10	-1.020691e+01	-3.457424e+01
1.540000e-06	-1.420419e-06	-4.700176e-10	-9.892611e+00	-3.402768e+01
1.550000e-06	-1.375057e-06	-4.609275e-10	-9.576684e+00	-3.347087e+01
1.560000e-06	-1.329585e-06	-4.503679e-10	-9.259992e+00	-3.290332e+01
1.570000e-06	-1.284077e-06	-4.382433e-10	-8.943046e+00	-3.232449e+01
1.580000e-06	-1.238448e-06	-4.277640e-10	-8.625263e+00	-3.173385e+01
1.590000e-06	-1.192734e-06	-4.200427e-10	-8.306880e+00	-3.113087e+01
1.600000e-06	-1.146962e-06	-4.165216e-10	-7.988104e+00	-3.051497e+01
1.610000e-06	-1.101171e-06	-4.124343e-10	-7.669187e+00	-2.988561e+01
1.620000e-06	-1.055338e-06	-4.049019e-10	-7.349977e+00	-2.924224e+01
1.630000e-06	-1.009397e-06	-3.957916e-10	-7.030015e+00	-2.858430e+01
1.640000e-06	-9.633032e-07	-3.870100e-10	-6.708995e+00	-2.791126e+01
1.650000e-06	-9.171563e-07	-3.762019e-10	-6.387602e+00	-2.722261e+01
1.660000e-06	-8.709968e-07	-3.638721e-10	-6.066121e+00	-2.651783e+01
1.670000e-06	-8.248201e-07	-3.520638e-10	-5.744520e+00	-2.579645e+01
1.680000e-06	-7.785704e-07	-3.398131e-10	-5.422410e+00	-2.505803e+01
1.690000e-06	-7.322115e-07	-3.285733e-10	-5.099540e+00	-2.430214e+01
1.700000e-06	-6.858037e-07	-3.189118e-10	-4.776330e+00	-2.352842e+01
1.710000e-06	-6.393393e-07	-3.077883e-10	-4.452725e+00	-2.273652e+01
1.720000e-06	-5.928384e-07	-2.951977e-10	-4.128866e+00	-2.192616e+01
1.730000e-06	-5.463836e-07	-2.804265e-10	-3.805329e+00	-2.109709e+01
1.740000e-06	-4.999200e-07	-2.618237e-10	-3.481729e+00	-2.024914e+01
1.750000e-06	-4.533058e-07	-2.442436e-10	-3.157081e+00	-1.938216e+01
1.760000e-06	-4.066873e-07	-2.306206e-10	-2.832403e+00	-1.849608e+01
1.770000e-06	-3.600895e-07	-2.195816e-10	-2.507869e+00	-1.759089e+01
1.780000e-06	-3.134353e-07	-2.093385e-10	-2.182943e+00	-1.666663e+01
1.790000e-06	-2.667849e-07	-2.000335e-10	-1.858043e+00	-1.572342e+01
1.800000e-06	-2.200554e-07	-1.881592e-10	-1.532592e+00	-1.476144e+01
1.810000e-06	-1.733036e-07	-1.727500e-10	-1.206986e+00	-1.378093e+01
1.820000e-06	-1.265844e-07	-1.569689e-10	-8.816061e-01	-1.278220e+01
1.830000e-06	-7.982546e-08	-1.417461e-10	-5.559502e-01	-1.176562e+01
1.840000e-06	-3.307723e-08	-1.279917e-10	-2.303688e-01	-1.073163e+01
1.850000e-06	1.365631e-08	-1.146126e-10	9.511033e-02	-9.680734e+00
1.860000e-06	6.041426e-08	-1.008367e-10	4.207595e-01	-8.613499e+00
1.870000e-06	1.072281e-07	-8.720372e-11	7.467982e-01	-7.530550e+00
1.880000e-06	1.539674e-07	-7.136379e-11	1.072317e+00	-6.432567e+00
1.890000e-06	2.006139e-07	-5.410942e-11	1.397190e+00	-5.320290e+00
1.900000e-06	2.472494e-07	-3.692685e-11	1.721986e+00	-4.194508e+00
1.910000e-06	2.939429e-07	-2.099232e-11	2.047187e+00	-3.056059e+00
1.920000e-06	3.406185e-07	-5.718281e-12	2.372262e+00	-1.905826e+00
1.930000e-06	3.871565e-07	7.776706e-12	2.696379e+00	-7.447337e-01
1.940000e-06	4.336682e-07	2.081001e-11	3.020314e+00	4.262579e-01
1.950000e-06	4.802004e-07	3.564619e-11	3.344390e+00	1.606155e+00
1.960000e-06	5.267223e-07	5.282710e-11	3.668396e+00	2.793937e+00
1.970000e-06	5.731411e-07	7.006823e-11	3.991683e+00	3.988560e+00
1.980000e-06	6.195333e-07	8.609081e-11	4.314785e+00	5.188959e+00
1.990000e-06	6.659299e-07	1.018911e-10	4.637917e+00	6.394058e+00
2.000000e-06	7.122092e-07	1.165927e-10	4.960232e+00	7.602770e+00
2.010000e-06	7.583721e-07	1.301227e-10	5.281737e+00	8.814004e+00
2.020000e-06	8.044732e-07	1.474466e-10	5.602812e+00	1.002667e+01
2.030000e-06	8.506358e-07	1.660668e-10	5.924315e+00	1.123968e+01
2.040000e-06	8.967452e-07	1.843965e-10	6.245447e+00	1.245195e+01
2.050000e-06	9.427345e-07	2.031838e-10	6.565743e+00	1.366242e+01
2.060000e-06	9.886849e-07	2.200462e-10	6.885768e+00	1.487004e+01
2.070000e-06	1.034510e-06	2.360093e-10	7.204923e+00	1.607379e+01
2.080000e-06	1.080237e-06	2.507398e-10	7.523390e+00	1.727265e+01
2.090000e-06	1.125983e-06	2.670753e-10	7.841990e+00	1.846565e+01
2.100000e-06	1.171667e-06	2.844316e-10	8.160163e+00	1.965184e+01
2.110000e-06	1.217296e-06	3.038026e-10	8.477945e+00	2.083030e+01
2.120000e-06	1.262949e-06	3.209044e-10	8.795897e+00	2.200016e+01
2.130000e-06	1.308449e-06	3.375257e-10	9.112786e+00	2.316057e+01
2.140000e-06	1.353742e-06	3.551980e-10	9.428238e+00	2.431073e+01
2.150000e-06	1.398943e-06	3.714652e-10	9.743038e+00	2.544987e+01
2.160000e-06	1.444139e-06	3.864040e-10	1.005781e+01	2.657727e+01
2.170000e-06	1.489213e-06	4.019146e-10	1.037173e+01	2.769224e+01
2.180000e-06	1.534096e-06	4.192331e-10	1.068433e+01	2.879415e+01
2.190000e-06	1.578862e-06	4.366908e-10	1.099610e+01	2.988240e+01
2.200000e-06	1.623481e-06	4.528668e-10	1.130685e+01	3.095644e+01
2.210000e-06	1.668037e-06	4.684101e-10	1.161717e+01	3.201575e+01
2.220000e-06	1.712521e-06	4.822807e-10	1.192697e+01	3.305987e+01
2.230000e-06	1.756790e-06	4.947219e-10	1.223529e+01	3.408836e+01
2.240000e-06	1.800910e-06	5.079674e-10	1.254257e+01	3.510085e+01
2.250000e-06	1.844957e-06	5.189036e-10	1.284934e+01	3.609697e+01
2.260000e-06	1.888903e-06	5.311230e-10	1.315540e+01	3.707643e+01
2.270000e-06	1.932790e-06	5.451291e-10	1.346106e+01	3.803895e+01
2.280000e-06	1.976610e-06	5.618874e-10	1.376625e+01	3.898429e+01
2.290000e-06	2.020359e-06	5.790148e-10	1.407094e+01	3.991226e+01
2.300000e-06	2.064094e-06	5.921665e-10	1.437553e+01	4.082267e+01
2.310000e-06	2.107774e-06	6.003028e-10	1.467975e+01	4.171541e+01
2.320000e-06	2.151346e-06	6.081268e-10	1.498320e+01	4.259035e+01
2.330000e-06	2.194763e-06	6.192978e-10	1.528559e+01	4.344742e+01
2.340000e-06	2.238001e-06	6.318470e-10	1.558672e+01	4.428657e+01
2.350000e-06	2.281110e-06	6.471217e-10	1.588695e+01	4.510777e+01
2.360000e-06	2.324092e-06	6.655084e-10	1.618631e+01	4.591102e+01
2.370000e-06	2.366824e-06	6.829640e-10	1.648392e+01	4.669636e+01
2.380000e-06	2.409230e-06	6.936319e-10	1.677926e+01	4.746381e+01
2.390000e-06	2.451255e-06	6.995473e-10	1.707194e+01	4.821344e+01
2.400000e-06	2.492951e-06	7.036223e-10	1.736234e+01	4.894535e+01
2.410000e-06	2.534422e-06	7.058730e-10	1.765117e+01	4.965964e+01
2.420000e-06	2.575619e-06	7.119667e-10	1.793808e+01	5.035643e+01
2.430000e-06	2.616423e-06	7.244379e-10	1.822227e+01	5.103585e+01
2.440000e-06	2.656843e-06	7.421478e-10	1.850378e+01	5.169809e+01
2.450000e-06	2.697096e-06	7.585967e-10	1.878412e+01	5.234329e+01
2.460000e-06	2.737248e-06	7.708189e-10	1.906376e+01	5.297167e+01
2.470000e-06	2.777247e-06	7.793749e-10	1.934234e+01	5.358341e+01
2.480000e-06	2.817138e-06	7.830206e-10	1.962016e+01	5.417875e+01
2.490000e-06	2.856897e-06	7.841640e-10	1.989707e+01	5.475793e+01
2.500000e-06	2.896476e-06	7.882931e-10	2.017272e+01	5.532118e+01
2.510000e-06	2.935936e-06	7.962654e-10	2.044754e+01	5.586878e+01
2.520000e-06	2.975299e-06	8.086730e-10	2.072169e+01	5.640100e+01
2.530000e-06	3.014581e-06	8.233869e-10	2.099527e+01	5.691814e+01
2.540000e-06	3.053583e-06	8.343802e-10	2.126690e+01	5.742051e+01
2.550000e-06	3.092267e-06	8.392958e-10	2.153632e+01	5.790840e+01
2.560000e-06	3.130748e-06	8.412115e-10	2.180432e+01	5.838217e+01
2.570000e-06	3.168978e-06	8.435159e-10	2.207058e+01	5.884214e+01
2.580000e-06	3.207000e-06	8.461020e-10	2.233538e+01	5.928867e+01
2.590000e-06	3.244826e-06	8.515967e-10	2.259883e+01	5.972212e+01
2.600000e-06	3.282413e-06	8.608208e-10	2.286060e+01	6.014285e+01
2.610000e-06	3.319798e-06	8.700817e-10	2.312098e+01	6.055126e+01
2.620000e-06	3.357006e-06	8.757763e-10	2.338011e+01	6.094771e+01
2.630000e-06	3.393906e-06	8.785984e-10	2.363710e+01	6.133261e+01
2.640000e-06	3.430474e-06	8.795757e-10	2.389178e+01	6.170635e+01
2.650000e-06	3.466827e-06	8.820188e-10	2.414497e+01	6.206933e+01
2.660000e-06	3.503004e-06	8.878491e-10	2.439693e+01	6.242195e+01
2.670000e-06	3.538984e-06	8.948806e-10	2.464751e+01	6.276461e+01
2.680000e-06	3.574818e-06	9.005428e-10	2.489708e+01	6.309771e+01
2.690000e-06	3.610576e-06	9.066118e-10	2.514612e+01	6.342165e+01
2.700000e-06	3.646242e-06	9.134400e-10	2.539452e+01	6.373683e+01
2.710000e-06	3.681758e-06	9.199502e-10	2.564187e+01	6.404362e+01
2.720000e-06	3.717003e-06	9.249373e-10	2.588734e+01	6.434241e+01
2.730000e-06	3.751872e-06	9.276951e-10	2.613019e+01	6.463357e+01
2.740000e-06	3.786377e-06	9.286516e-10	2.637050e+01	6.491745e+01
2.750000e-06	3.820424e-06	9.297846e-10	2.660762e+01	6.519439e+01
2.760000e-06	3.853865e-06	9.331699e-10	2.684052e+01	6.546473e+01
2.770000e-06	3.886768e-06	9.396637e-10	2.706968e+01	6.572877e+01
2.780000e-06	3.919265e-06	9.469415e-10	2.729601e+01	6.598681e+01
2.790000e-06	3.951458e-06	9.544426e-10	2.752022e+01	6.623911e+01
2.800000e-06	3.983491e-06	9.598138e-10	2.774331e+01	6.648593e+01
2.810000e-06	4.015381e-06	9.619856e-10	2.796541e+01	6.672749e+01
2.820000e-06	4.047032e-06	9.631873e-10	2.818585e+01	6.696401e+01
2.830000e-06	4.078497e-06	9.644156e-10	2.840499e+01	6.719565e+01
2.840000e-06	4.109773e-06	9.680017e-10	2.862281e+01	6.742259e+01
2.850000e-06	4.140758e-06	9.755123e-10	2.883861e+01	6.764494e+01
2.860000e-06	4.171460e-06	9.853624e-10	2.905244e+01	6.786281e+01
2.870000e-06	4.201850e-06	9.926957e-10	2.926409e+01	6.807629e+01
2.880000e-06	4.231956e-06	9.968747e-10	2.947377e+01	6.828543e+01
2.890000e-06	4.261861e-06	9.984761e-10	2.968204e+01	6.849025e+01
2.900000e-06	4.291518e-06	9.996300e-10	2.988859e+01	6.869077e+01
