# Temperatura_=_4.74
# Concentracion g/m^3_=_1620.0
# C_Vs_to_Am_M_A/Vsm_=_65563218390.804596
# pendiente_HvsI_1/m_=_3716.3
# ordenada_HvsI_A/m_=_1297.0
# frecuencia_Hz_=_135092.9004629827

Tiempo_(s)	Campo_(V.s)	Magnetizacion_(V.s)	Campo_(kA/m)	Magnetizacion_(A/m)
0.000000e+00	-5.517733e-06	-1.222354e-09	-3.836940e+01	-8.150534e+01
1.000000e-08	-5.517831e-06	-1.215925e-09	-3.837008e+01	-8.147100e+01
2.000000e-08	-5.517737e-06	-1.212502e-09	-3.836943e+01	-8.143847e+01
3.000000e-08	-5.517399e-06	-1.210498e-09	-3.836708e+01	-8.140783e+01
4.000000e-08	-5.516578e-06	-1.205872e-09	-3.836137e+01	-8.137913e+01
5.000000e-08	-5.515172e-06	-1.194428e-09	-3.835159e+01	-8.135238e+01
6.000000e-08	-5.513178e-06	-1.185488e-09	-3.833773e+01	-8.132754e+01
7.000000e-08	-5.510599e-06	-1.212720e-09	-3.831979e+01	-8.130454e+01
8.000000e-08	-5.507471e-06	-1.259970e-09	-3.829804e+01	-8.128329e+01
9.000000e-08	-5.503812e-06	-1.282586e-09	-3.827260e+01	-8.126365e+01
1.000000e-07	-5.499701e-06	-1.274346e-09	-3.824401e+01	-8.124545e+01
1.100000e-07	-5.495294e-06	-1.230042e-09	-3.821337e+01	-8.122849e+01
1.200000e-07	-5.490709e-06	-1.140275e-09	-3.818148e+01	-8.121253e+01
1.300000e-07	-5.485890e-06	-1.181101e-09	-3.814797e+01	-8.119730e+01
1.400000e-07	-5.480661e-06	-1.222116e-09	-3.811161e+01	-8.118253e+01
1.500000e-07	-5.475006e-06	-1.241950e-09	-3.807228e+01	-8.116789e+01
1.600000e-07	-5.468930e-06	-1.173893e-09	-3.803003e+01	-8.115305e+01
1.700000e-07	-5.462490e-06	-1.177758e-09	-3.798525e+01	-8.113765e+01
1.800000e-07	-5.455691e-06	-1.276501e-09	-3.793797e+01	-8.112133e+01
1.900000e-07	-5.448436e-06	-1.263173e-09	-3.788752e+01	-8.110369e+01
2.000000e-07	-5.440847e-06	-1.201840e-09	-3.783475e+01	-8.108435e+01
2.100000e-07	-5.433015e-06	-1.168963e-09	-3.778029e+01	-8.106291e+01
2.200000e-07	-5.424909e-06	-1.279278e-09	-3.772392e+01	-8.103897e+01
2.300000e-07	-5.416597e-06	-1.292061e-09	-3.766612e+01	-8.101212e+01
2.400000e-07	-5.407980e-06	-1.262840e-09	-3.760619e+01	-8.098197e+01
2.500000e-07	-5.398704e-06	-1.220089e-09	-3.754169e+01	-8.094813e+01
2.600000e-07	-5.388631e-06	-1.267654e-09	-3.747165e+01	-8.091021e+01
2.700000e-07	-5.377898e-06	-1.250455e-09	-3.739701e+01	-8.086786e+01
2.800000e-07	-5.366608e-06	-1.244436e-09	-3.731850e+01	-8.082071e+01
2.900000e-07	-5.354925e-06	-1.246494e-09	-3.723726e+01	-8.076844e+01
3.000000e-07	-5.342934e-06	-1.261825e-09	-3.715388e+01	-8.071074e+01
3.100000e-07	-5.330566e-06	-1.240268e-09	-3.706787e+01	-8.064732e+01
3.200000e-07	-5.317769e-06	-1.234900e-09	-3.697888e+01	-8.057791e+01
3.300000e-07	-5.304554e-06	-1.233539e-09	-3.688699e+01	-8.050228e+01
3.400000e-07	-5.290963e-06	-1.223846e-09	-3.679248e+01	-8.042022e+01
3.500000e-07	-5.277012e-06	-1.244847e-09	-3.669547e+01	-8.033155e+01
3.600000e-07	-5.262763e-06	-1.250465e-09	-3.659638e+01	-8.023613e+01
3.700000e-07	-5.248031e-06	-1.234858e-09	-3.649394e+01	-8.013382e+01
3.800000e-07	-5.232739e-06	-1.235141e-09	-3.638760e+01	-8.002456e+01
3.900000e-07	-5.216939e-06	-1.255863e-09	-3.627773e+01	-7.990826e+01
4.000000e-07	-5.200582e-06	-1.209364e-09	-3.616399e+01	-7.978492e+01
4.100000e-07	-5.183761e-06	-1.205319e-09	-3.604701e+01	-7.965452e+01
4.200000e-07	-5.166676e-06	-1.242600e-09	-3.592821e+01	-7.951711e+01
4.300000e-07	-5.149369e-06	-1.232526e-09	-3.580786e+01	-7.937272e+01
4.400000e-07	-5.131726e-06	-1.185376e-09	-3.568517e+01	-7.922144e+01
4.500000e-07	-5.113703e-06	-1.253210e-09	-3.555985e+01	-7.906338e+01
4.600000e-07	-5.095282e-06	-1.254735e-09	-3.543175e+01	-7.889866e+01
4.700000e-07	-5.076359e-06	-1.182802e-09	-3.530016e+01	-7.872743e+01
4.800000e-07	-5.056995e-06	-1.194949e-09	-3.516551e+01	-7.854984e+01
4.900000e-07	-5.037432e-06	-1.270539e-09	-3.502946e+01	-7.836607e+01
5.000000e-07	-5.017700e-06	-1.199765e-09	-3.489226e+01	-7.817631e+01
5.100000e-07	-4.997754e-06	-1.171124e-09	-3.475355e+01	-7.798076e+01
5.200000e-07	-4.977560e-06	-1.231849e-09	-3.461313e+01	-7.777962e+01
5.300000e-07	-4.957021e-06	-1.218492e-09	-3.447030e+01	-7.757311e+01
5.400000e-07	-4.936084e-06	-1.157676e-09	-3.432471e+01	-7.736143e+01
5.500000e-07	-4.914865e-06	-1.219014e-09	-3.417716e+01	-7.714478e+01
5.600000e-07	-4.893212e-06	-1.222405e-09	-3.402659e+01	-7.692339e+01
5.700000e-07	-4.871139e-06	-1.154191e-09	-3.387309e+01	-7.669746e+01
5.800000e-07	-4.848786e-06	-1.182721e-09	-3.371765e+01	-7.646717e+01
5.900000e-07	-4.826142e-06	-1.231726e-09	-3.356019e+01	-7.623271e+01
6.000000e-07	-4.803179e-06	-1.169197e-09	-3.340051e+01	-7.599426e+01
6.100000e-07	-4.779815e-06	-1.159307e-09	-3.323804e+01	-7.575198e+01
6.200000e-07	-4.756141e-06	-1.203714e-09	-3.307342e+01	-7.550601e+01
6.300000e-07	-4.732256e-06	-1.164272e-09	-3.290732e+01	-7.525649e+01
6.400000e-07	-4.708191e-06	-1.136810e-09	-3.273998e+01	-7.500353e+01
6.500000e-07	-4.683833e-06	-1.175509e-09	-3.257060e+01	-7.474722e+01
6.600000e-07	-4.659013e-06	-1.166967e-09	-3.239800e+01	-7.448765e+01
6.700000e-07	-4.633756e-06	-1.136779e-09	-3.222237e+01	-7.422488e+01
6.800000e-07	-4.608003e-06	-1.167966e-09	-3.204329e+01	-7.395895e+01
6.900000e-07	-4.581690e-06	-1.163603e-09	-3.186031e+01	-7.368989e+01
7.000000e-07	-4.554851e-06	-1.131912e-09	-3.167368e+01	-7.341770e+01
7.100000e-07	-4.527541e-06	-1.135750e-09	-3.148377e+01	-7.314238e+01
7.200000e-07	-4.499930e-06	-1.143680e-09	-3.129177e+01	-7.286390e+01
7.300000e-07	-4.472171e-06	-1.110689e-09	-3.109874e+01	-7.258222e+01
7.400000e-07	-4.444280e-06	-1.114139e-09	-3.090479e+01	-7.229728e+01
7.500000e-07	-4.416178e-06	-1.120921e-09	-3.070937e+01	-7.200903e+01
7.600000e-07	-4.387800e-06	-1.107551e-09	-3.051203e+01	-7.171739e+01
7.700000e-07	-4.359127e-06	-1.096814e-09	-3.031264e+01	-7.142226e+01
7.800000e-07	-4.330118e-06	-1.106906e-09	-3.011092e+01	-7.112357e+01
7.900000e-07	-4.300759e-06	-1.090506e-09	-2.990677e+01	-7.082120e+01
8.000000e-07	-4.271091e-06	-1.081648e-09	-2.970046e+01	-7.051506e+01
8.100000e-07	-4.241073e-06	-1.082496e-09	-2.949172e+01	-7.020505e+01
8.200000e-07	-4.210847e-06	-1.075920e-09	-2.928153e+01	-6.989106e+01
8.300000e-07	-4.180427e-06	-1.059832e-09	-2.906999e+01	-6.957298e+01
8.400000e-07	-4.149697e-06	-1.063829e-09	-2.885631e+01	-6.925073e+01
8.500000e-07	-4.118574e-06	-1.059104e-09	-2.863988e+01	-6.892420e+01
8.600000e-07	-4.087135e-06	-1.046466e-09	-2.842126e+01	-6.859332e+01
8.700000e-07	-4.055588e-06	-1.041857e-09	-2.820189e+01	-6.825800e+01
8.800000e-07	-4.023927e-06	-1.043928e-09	-2.798172e+01	-6.791817e+01
8.900000e-07	-3.992057e-06	-1.030735e-09	-2.776010e+01	-6.757378e+01
9.000000e-07	-3.959978e-06	-1.019431e-09	-2.753703e+01	-6.722479e+01
9.100000e-07	-3.927704e-06	-1.018798e-09	-2.731260e+01	-6.687115e+01
9.200000e-07	-3.895058e-06	-1.008460e-09	-2.708559e+01	-6.651285e+01
9.300000e-07	-3.861953e-06	-9.959373e-10	-2.685538e+01	-6.614989e+01
9.400000e-07	-3.828422e-06	-9.942546e-10	-2.662221e+01	-6.578226e+01
9.500000e-07	-3.794528e-06	-9.924812e-10	-2.638652e+01	-6.541000e+01
9.600000e-07	-3.760229e-06	-9.781259e-10	-2.614801e+01	-6.503314e+01
9.700000e-07	-3.725438e-06	-9.728169e-10	-2.590608e+01	-6.465174e+01
9.800000e-07	-3.690229e-06	-9.709191e-10	-2.566124e+01	-6.426584e+01
9.900000e-07	-3.654755e-06	-9.651065e-10	-2.541456e+01	-6.387554e+01
1.000000e-06	-3.619092e-06	-9.571875e-10	-2.516657e+01	-6.348091e+01
1.010000e-06	-3.583234e-06	-9.566324e-10	-2.491722e+01	-6.308205e+01
1.020000e-06	-3.547262e-06	-9.481204e-10	-2.466707e+01	-6.267907e+01
1.030000e-06	-3.511215e-06	-9.382634e-10	-2.441641e+01	-6.227209e+01
1.040000e-06	-3.475028e-06	-9.283284e-10	-2.416477e+01	-6.186121e+01
1.050000e-06	-3.438569e-06	-9.208490e-10	-2.391124e+01	-6.144658e+01
1.060000e-06	-3.401835e-06	-9.110941e-10	-2.365580e+01	-6.102831e+01
1.070000e-06	-3.364867e-06	-9.087374e-10	-2.339873e+01	-6.060654e+01
1.080000e-06	-3.327604e-06	-9.031992e-10	-2.313961e+01	-6.018139e+01
1.090000e-06	-3.290095e-06	-8.958821e-10	-2.287878e+01	-5.975298e+01
1.100000e-06	-3.252310e-06	-8.868636e-10	-2.261602e+01	-5.932145e+01
1.110000e-06	-3.214251e-06	-8.829912e-10	-2.235137e+01	-5.888690e+01
1.120000e-06	-3.176064e-06	-8.738708e-10	-2.208582e+01	-5.844944e+01
1.130000e-06	-3.137698e-06	-8.644454e-10	-2.181904e+01	-5.800917e+01
1.140000e-06	-3.099075e-06	-8.564750e-10	-2.155045e+01	-5.756618e+01
1.150000e-06	-3.060234e-06	-8.488505e-10	-2.128036e+01	-5.712053e+01
1.160000e-06	-3.021190e-06	-8.411794e-10	-2.100886e+01	-5.667228e+01
1.170000e-06	-2.981892e-06	-8.372475e-10	-2.073558e+01	-5.622147e+01
1.180000e-06	-2.942397e-06	-8.349868e-10	-2.046094e+01	-5.576814e+01
1.190000e-06	-2.902790e-06	-8.303086e-10	-2.018552e+01	-5.531227e+01
1.200000e-06	-2.863061e-06	-8.227806e-10	-1.990925e+01	-5.485387e+01
1.210000e-06	-2.823191e-06	-8.133299e-10	-1.963201e+01	-5.439289e+01
1.220000e-06	-2.783192e-06	-8.024552e-10	-1.935386e+01	-5.392928e+01
1.230000e-06	-2.743096e-06	-7.907181e-10	-1.907504e+01	-5.346296e+01
1.240000e-06	-2.702883e-06	-7.812311e-10	-1.879540e+01	-5.299384e+01
1.250000e-06	-2.662473e-06	-7.738255e-10	-1.851440e+01	-5.252178e+01
1.260000e-06	-2.621785e-06	-7.692977e-10	-1.823146e+01	-5.204665e+01
1.270000e-06	-2.580878e-06	-7.637024e-10	-1.794700e+01	-5.156828e+01
1.280000e-06	-2.539716e-06	-7.585720e-10	-1.766076e+01	-5.108649e+01
1.290000e-06	-2.498212e-06	-7.497835e-10	-1.737215e+01	-5.060107e+01
1.300000e-06	-2.456415e-06	-7.377522e-10	-1.708150e+01	-5.011178e+01
1.310000e-06	-2.414250e-06	-7.244085e-10	-1.678829e+01	-4.961839e+01
1.320000e-06	-2.371796e-06	-7.133118e-10	-1.649308e+01	-4.912061e+01
1.330000e-06	-2.329143e-06	-7.017735e-10	-1.619647e+01	-4.861818e+01
1.340000e-06	-2.286167e-06	-6.918522e-10	-1.589762e+01	-4.811078e+01
1.350000e-06	-2.243002e-06	-6.835132e-10	-1.559746e+01	-4.759809e+01
1.360000e-06	-2.199750e-06	-6.771365e-10	-1.529670e+01	-4.707980e+01
1.370000e-06	-2.156276e-06	-6.700988e-10	-1.499439e+01	-4.655554e+01
1.380000e-06	-2.112579e-06	-6.646099e-10	-1.469053e+01	-4.602496e+01
1.390000e-06	-2.068814e-06	-6.548263e-10	-1.438619e+01	-4.548770e+01
1.400000e-06	-2.025084e-06	-6.424930e-10	-1.408210e+01	-4.494338e+01
1.410000e-06	-1.981267e-06	-6.287403e-10	-1.377740e+01	-4.439162e+01
1.420000e-06	-1.937315e-06	-6.201916e-10	-1.347176e+01	-4.383202e+01
1.430000e-06	-1.893276e-06	-6.102314e-10	-1.316553e+01	-4.326420e+01
1.440000e-06	-1.849149e-06	-6.017879e-10	-1.285868e+01	-4.268775e+01
1.450000e-06	-1.804897e-06	-5.955693e-10	-1.255096e+01	-4.210228e+01
1.460000e-06	-1.760540e-06	-5.869277e-10	-1.224250e+01	-4.150738e+01
1.470000e-06	-1.716141e-06	-5.736009e-10	-1.193376e+01	-4.090267e+01
1.480000e-06	-1.671607e-06	-5.591314e-10	-1.162408e+01	-4.028774e+01
1.490000e-06	-1.626837e-06	-5.460716e-10	-1.131276e+01	-3.966221e+01
1.500000e-06	-1.582044e-06	-5.358041e-10	-1.100127e+01	-3.902568e+01
1.510000e-06	-1.537209e-06	-5.315009e-10	-1.068950e+01	-3.837778e+01
1.520000e-06	-1.492143e-06	-5.265366e-10	-1.037612e+01	-3.771813e+01
1.530000e-06	-1.446941e-06	-5.187125e-10	-1.006179e+01	-3.704636e+01
1.540000e-06	-1.401660e-06	-5.026067e-10	-9.746913e+00	-3.636212e+01
1.550000e-06	-1.356286e-06	-4.866988e-10	-9.431391e+00	-3.566507e+01
1.560000e-06	-1.310800e-06	-4.701688e-10	-9.115088e+00	-3.495486e+01
1.570000e-06	-1.265215e-06	-4.562147e-10	-8.798093e+00	-3.423117e+01
1.580000e-06	-1.219578e-06	-4.479404e-10	-8.480744e+00	-3.349369e+01
1.590000e-06	-1.173880e-06	-4.445941e-10	-8.162966e+00	-3.274214e+01
1.600000e-06	-1.128088e-06	-4.391045e-10	-7.844539e+00	-3.197621e+01
1.610000e-06	-1.082286e-06	-4.274074e-10	-7.526039e+00	-3.119565e+01
1.620000e-06	-1.036385e-06	-4.095578e-10	-7.206850e+00	-3.040021e+01
1.630000e-06	-9.902753e-07	-3.929174e-10	-6.886210e+00	-2.958966e+01
1.640000e-06	-9.440168e-07	-3.784190e-10	-6.564537e+00	-2.876377e+01
1.650000e-06	-8.978419e-07	-3.657879e-10	-6.243444e+00	-2.792236e+01
1.660000e-06	-8.516924e-07	-3.550705e-10	-5.922528e+00	-2.706525e+01
1.670000e-06	-8.054648e-07	-3.454015e-10	-5.601069e+00	-2.619228e+01
1.680000e-06	-7.591547e-07	-3.365071e-10	-5.279036e+00	-2.530332e+01
1.690000e-06	-7.127641e-07	-3.260501e-10	-4.956443e+00	-2.439827e+01
1.700000e-06	-6.663663e-07	-3.128745e-10	-4.633801e+00	-2.347704e+01
1.710000e-06	-6.199375e-07	-2.966015e-10	-4.310942e+00	-2.253957e+01
1.720000e-06	-5.734496e-07	-2.773541e-10	-3.987674e+00	-2.158582e+01
1.730000e-06	-5.268541e-07	-2.557582e-10	-3.663656e+00	-2.061580e+01
1.740000e-06	-4.802052e-07	-2.367251e-10	-3.339267e+00	-1.962952e+01
1.750000e-06	-4.335652e-07	-2.241273e-10	-3.014940e+00	-1.862704e+01
1.760000e-06	-3.869290e-07	-2.168570e-10	-2.690640e+00	-1.760844e+01
1.770000e-06	-3.402686e-07	-2.078870e-10	-2.366171e+00	-1.657384e+01
1.780000e-06	-2.935888e-07	-1.963882e-10	-2.041568e+00	-1.552340e+01
1.790000e-06	-2.468268e-07	-1.824410e-10	-1.716393e+00	-1.445729e+01
1.800000e-06	-2.000316e-07	-1.664867e-10	-1.390987e+00	-1.337574e+01
1.810000e-06	-1.532351e-07	-1.487907e-10	-1.065571e+00	-1.227901e+01
1.820000e-06	-1.064580e-07	-1.329106e-10	-7.402915e-01	-1.116739e+01
1.830000e-06	-5.969035e-08	-1.207481e-10	-4.150768e-01	-1.004122e+01
1.840000e-06	-1.278869e-08	-1.096309e-10	-8.893041e-02	-8.900882e+00
1.850000e-06	3.409793e-08	-9.571264e-11	2.371114e-01	-7.746782e+00
1.860000e-06	8.085488e-08	-8.151096e-11	5.622515e-01	-6.579379e+00
1.870000e-06	1.276407e-07	-6.405996e-11	8.875920e-01	-5.399173e+00
1.880000e-06	1.744022e-07	-4.459609e-11	1.212764e+00	-4.206701e+00
1.890000e-06	2.210985e-07	-2.524029e-11	1.537482e+00	-3.002544e+00
1.900000e-06	2.678311e-07	-7.362503e-12	1.862453e+00	-1.787325e+00
1.910000e-06	3.145845e-07	1.009798e-11	2.187569e+00	-5.617071e-01
1.920000e-06	3.612934e-07	2.618446e-11	2.512375e+00	6.736076e-01
1.930000e-06	4.080423e-07	4.095765e-11	2.837458e+00	1.917876e+00
1.940000e-06	4.547716e-07	5.968547e-11	3.162407e+00	3.170318e+00
1.950000e-06	5.014089e-07	8.080364e-11	3.486714e+00	4.430114e+00
1.960000e-06	5.479490e-07	1.009660e-10	3.810347e+00	5.696413e+00
1.970000e-06	5.943234e-07	1.187211e-10	4.132826e+00	6.968328e+00
1.980000e-06	6.406445e-07	1.335750e-10	4.454935e+00	8.244941e+00
1.990000e-06	6.870704e-07	1.493415e-10	4.777774e+00	9.525306e+00
2.000000e-06	7.335537e-07	1.647284e-10	5.101011e+00	1.080845e+01
2.010000e-06	7.798606e-07	1.851782e-10	5.423021e+00	1.209337e+01
2.020000e-06	8.260220e-07	2.068343e-10	5.744020e+00	1.337907e+01
2.030000e-06	8.721905e-07	2.268306e-10	6.065068e+00	1.466449e+01
2.040000e-06	9.182754e-07	2.466849e-10	6.385535e+00	1.594860e+01
2.050000e-06	9.642649e-07	2.663007e-10	6.705339e+00	1.723034e+01
2.060000e-06	1.010151e-06	2.829989e-10	7.024421e+00	1.850865e+01
2.070000e-06	1.055951e-06	2.988825e-10	7.342912e+00	1.978247e+01
2.080000e-06	1.101793e-06	3.171486e-10	7.661686e+00	2.105072e+01
2.090000e-06	1.147585e-06	3.350086e-10	7.980119e+00	2.231236e+01
2.100000e-06	1.193311e-06	3.547690e-10	8.298085e+00	2.356635e+01
2.110000e-06	1.238968e-06	3.739803e-10	8.615579e+00	2.481165e+01
2.120000e-06	1.284475e-06	3.912845e-10	8.932027e+00	2.604726e+01
2.130000e-06	1.329873e-06	4.072660e-10	9.247716e+00	2.727218e+01
2.140000e-06	1.375206e-06	4.257637e-10	9.562958e+00	2.848547e+01
2.150000e-06	1.420503e-06	4.427730e-10	9.877943e+00	2.968619e+01
2.160000e-06	1.465711e-06	4.589871e-10	1.019231e+01	3.087345e+01
2.170000e-06	1.510735e-06	4.768285e-10	1.050540e+01	3.204641e+01
2.180000e-06	1.555594e-06	4.955425e-10	1.081734e+01	3.320425e+01
2.190000e-06	1.600388e-06	5.116433e-10	1.112883e+01	3.434622e+01
2.200000e-06	1.645070e-06	5.281611e-10	1.143955e+01	3.547161e+01
2.210000e-06	1.689492e-06	5.429941e-10	1.174844e+01	3.657975e+01
2.220000e-06	1.733781e-06	5.564738e-10	1.205643e+01	3.767004e+01
2.230000e-06	1.778035e-06	5.708643e-10	1.236416e+01	3.874194e+01
2.240000e-06	1.822199e-06	5.831999e-10	1.267127e+01	3.979495e+01
2.250000e-06	1.866257e-06	5.946705e-10	1.297764e+01	4.082866e+01
2.260000e-06	1.910207e-06	6.064256e-10	1.328327e+01	4.184270e+01
2.270000e-06	1.954115e-06	6.209031e-10	1.358859e+01	4.283676e+01
2.280000e-06	1.997982e-06	6.375978e-10	1.389364e+01	4.381060e+01
2.290000e-06	2.041825e-06	6.529029e-10	1.419851e+01	4.476405e+01
2.300000e-06	2.085584e-06	6.659140e-10	1.450281e+01	4.569699e+01
2.310000e-06	2.129261e-06	6.759435e-10	1.480653e+01	4.660936e+01
2.320000e-06	2.172896e-06	6.857539e-10	1.510996e+01	4.750117e+01
2.330000e-06	2.216450e-06	6.961682e-10	1.541282e+01	4.837249e+01
2.340000e-06	2.259845e-06	7.078243e-10	1.571459e+01	4.922342e+01
2.350000e-06	2.302994e-06	7.241008e-10	1.601464e+01	5.005416e+01
2.360000e-06	2.345920e-06	7.427669e-10	1.631314e+01	5.086491e+01
2.370000e-06	2.388597e-06	7.583857e-10	1.660991e+01	5.165595e+01
2.380000e-06	2.430857e-06	7.690785e-10	1.690378e+01	5.242760e+01
2.390000e-06	2.472807e-06	7.747543e-10	1.719549e+01	5.318021e+01
2.400000e-06	2.514441e-06	7.794600e-10	1.748501e+01	5.391419e+01
2.410000e-06	2.555818e-06	7.854699e-10	1.777274e+01	5.462995e+01
2.420000e-06	2.596964e-06	7.945499e-10	1.805886e+01	5.532795e+01
2.430000e-06	2.637662e-06	8.100737e-10	1.834186e+01	5.600869e+01
2.440000e-06	2.678071e-06	8.257015e-10	1.862286e+01	5.667265e+01
2.450000e-06	2.718296e-06	8.358896e-10	1.890258e+01	5.732037e+01
2.460000e-06	2.758414e-06	8.436161e-10	1.918155e+01	5.795237e+01
2.470000e-06	2.798439e-06	8.518204e-10	1.945988e+01	5.856919e+01
2.480000e-06	2.838346e-06	8.597171e-10	1.973739e+01	5.917138e+01
2.490000e-06	2.878163e-06	8.677350e-10	2.001427e+01	5.975948e+01
2.500000e-06	2.917791e-06	8.762668e-10	2.028984e+01	6.033404e+01
2.510000e-06	2.957250e-06	8.856366e-10	2.056423e+01	6.089557e+01
2.520000e-06	2.996564e-06	8.952859e-10	2.083761e+01	6.144461e+01
2.530000e-06	3.035734e-06	9.048700e-10	2.110999e+01	6.198166e+01
2.540000e-06	3.074658e-06	9.121111e-10	2.138067e+01	6.250720e+01
2.550000e-06	3.113213e-06	9.181172e-10	2.164877e+01	6.302170e+01
2.560000e-06	3.151574e-06	9.261272e-10	2.191552e+01	6.352560e+01
2.570000e-06	3.189715e-06	9.333277e-10	2.218075e+01	6.401933e+01
2.580000e-06	3.227627e-06	9.380666e-10	2.244438e+01	6.450327e+01
2.590000e-06	3.265399e-06	9.424629e-10	2.270705e+01	6.497779e+01
2.600000e-06	3.303020e-06	9.486286e-10	2.296865e+01	6.544322e+01
2.610000e-06	3.340416e-06	9.539931e-10	2.322870e+01	6.589986e+01
2.620000e-06	3.377485e-06	9.606721e-10	2.348647e+01	6.634800e+01
2.630000e-06	3.414242e-06	9.673519e-10	2.374207e+01	6.678787e+01
2.640000e-06	3.450749e-06	9.747927e-10	2.399594e+01	6.721968e+01
2.650000e-06	3.487129e-06	9.843253e-10	2.424892e+01	6.764362e+01
2.660000e-06	3.523296e-06	9.925644e-10	2.450042e+01	6.805985e+01
2.670000e-06	3.559256e-06	9.975018e-10	2.475048e+01	6.846850e+01
2.680000e-06	3.595131e-06	1.000499e-09	2.499994e+01	6.886966e+01
2.690000e-06	3.630896e-06	1.004518e-09	2.524865e+01	6.926342e+01
2.700000e-06	3.666565e-06	1.009487e-09	2.549669e+01	6.964984e+01
2.710000e-06	3.701962e-06	1.015310e-09	2.574283e+01	7.002895e+01
2.720000e-06	3.737030e-06	1.022794e-09	2.598669e+01	7.040078e+01
2.730000e-06	3.771780e-06	1.031574e-09	2.622834e+01	7.076534e+01
2.740000e-06	3.806044e-06	1.037635e-09	2.646660e+01	7.112262e+01
2.750000e-06	3.839773e-06	1.039578e-09	2.670114e+01	7.147260e+01
2.760000e-06	3.873082e-06	1.043231e-09	2.693277e+01	7.181528e+01
2.770000e-06	3.905991e-06	1.050555e-09	2.716162e+01	7.215062e+01
2.780000e-06	3.938464e-06	1.056802e-09	2.738743e+01	7.247860e+01
2.790000e-06	3.970645e-06	1.064099e-09	2.761121e+01	7.279919e+01
2.800000e-06	4.002655e-06	1.070711e-09	2.783380e+01	7.311239e+01
2.810000e-06	4.034533e-06	1.073682e-09	2.805548e+01	7.341817e+01
2.820000e-06	4.066313e-06	1.076128e-09	2.827647e+01	7.371653e+01
2.830000e-06	4.097924e-06	1.080187e-09	2.849629e+01	7.400747e+01
2.840000e-06	4.129213e-06	1.086046e-09	2.871387e+01	7.429102e+01
2.850000e-06	4.160183e-06	1.094742e-09	2.892922e+01	7.456720e+01
2.860000e-06	4.190790e-06	1.103961e-09	2.914206e+01	7.483606e+01
2.870000e-06	4.221033e-06	1.107892e-09	2.935237e+01	7.509767e+01
2.880000e-06	4.251030e-06	1.110589e-09	2.956096e+01	7.535209e+01
2.890000e-06	4.280762e-06	1.113778e-09	2.976771e+01	7.559942e+01
2.900000e-06	4.310302e-06	1.113094e-09	2.997313e+01	7.583978e+01
2.910000e-06	4.339630e-06	1.113639e-09	3.017707e+01	7.607330e+01
