# Temperatura_=_4.57
# Concentracion g/m^3_=_1620.0
# C_Vs_to_Am_M_A/Vsm_=_65563218390.804596
# pendiente_HvsI_1/m_=_3716.3
# ordenada_HvsI_A/m_=_1297.0
# frecuencia_Hz_=_135090.6427055599

Tiempo_(s)	Campo_(V.s)	Magnetizacion_(V.s)	Campo_(kA/m)	Magnetizacion_(A/m)
0.000000e+00	-5.538880e-06	-1.288582e-09	-3.837179e+01	-8.551388e+01
1.000000e-08	-5.539026e-06	-1.285795e-09	-3.837281e+01	-8.548178e+01
2.000000e-08	-5.538950e-06	-1.284949e-09	-3.837228e+01	-8.545117e+01
3.000000e-08	-5.538439e-06	-1.283530e-09	-3.836874e+01	-8.542192e+01
4.000000e-08	-5.537487e-06	-1.278013e-09	-3.836215e+01	-8.539390e+01
5.000000e-08	-5.536094e-06	-1.263627e-09	-3.835249e+01	-8.536692e+01
6.000000e-08	-5.534037e-06	-1.258758e-09	-3.833824e+01	-8.534080e+01
7.000000e-08	-5.531375e-06	-1.293187e-09	-3.831980e+01	-8.531530e+01
8.000000e-08	-5.528224e-06	-1.346773e-09	-3.829797e+01	-8.529016e+01
9.000000e-08	-5.524556e-06	-1.346048e-09	-3.827256e+01	-8.526510e+01
1.000000e-07	-5.520492e-06	-1.278898e-09	-3.824441e+01	-8.523984e+01
1.100000e-07	-5.516196e-06	-1.232823e-09	-3.821465e+01	-8.521405e+01
1.200000e-07	-5.511707e-06	-1.265142e-09	-3.818355e+01	-8.518740e+01
1.300000e-07	-5.506880e-06	-1.330955e-09	-3.815011e+01	-8.515954e+01
1.400000e-07	-5.501573e-06	-1.286782e-09	-3.811334e+01	-8.513011e+01
1.500000e-07	-5.495916e-06	-1.225166e-09	-3.807416e+01	-8.509873e+01
1.600000e-07	-5.489988e-06	-1.264228e-09	-3.803309e+01	-8.506505e+01
1.700000e-07	-5.483555e-06	-1.355573e-09	-3.798852e+01	-8.502866e+01
1.800000e-07	-5.476571e-06	-1.353820e-09	-3.794014e+01	-8.498921e+01
1.900000e-07	-5.469244e-06	-1.235126e-09	-3.788938e+01	-8.494629e+01
2.000000e-07	-5.461678e-06	-1.236305e-09	-3.783696e+01	-8.489955e+01
2.100000e-07	-5.453868e-06	-1.309834e-09	-3.778286e+01	-8.484861e+01
2.200000e-07	-5.445843e-06	-1.351436e-09	-3.772727e+01	-8.479310e+01
2.300000e-07	-5.437485e-06	-1.280630e-09	-3.766936e+01	-8.473269e+01
2.400000e-07	-5.428612e-06	-1.271171e-09	-3.760789e+01	-8.466702e+01
2.500000e-07	-5.419122e-06	-1.304857e-09	-3.754214e+01	-8.459579e+01
2.600000e-07	-5.409041e-06	-1.322677e-09	-3.747231e+01	-8.451868e+01
2.700000e-07	-5.398440e-06	-1.262983e-09	-3.739887e+01	-8.443541e+01
2.800000e-07	-5.387290e-06	-1.265680e-09	-3.732163e+01	-8.434572e+01
2.900000e-07	-5.375660e-06	-1.304181e-09	-3.724105e+01	-8.424936e+01
3.000000e-07	-5.363628e-06	-1.293832e-09	-3.715770e+01	-8.414611e+01
3.100000e-07	-5.351141e-06	-1.254236e-09	-3.707120e+01	-8.403577e+01
3.200000e-07	-5.338261e-06	-1.270198e-09	-3.698197e+01	-8.391817e+01
3.300000e-07	-5.325021e-06	-1.308688e-09	-3.689024e+01	-8.379318e+01
3.400000e-07	-5.311459e-06	-1.271603e-09	-3.679629e+01	-8.366065e+01
3.500000e-07	-5.297452e-06	-1.246581e-09	-3.669925e+01	-8.352052e+01
3.600000e-07	-5.282948e-06	-1.262730e-09	-3.659877e+01	-8.337270e+01
3.700000e-07	-5.268071e-06	-1.279778e-09	-3.649571e+01	-8.321716e+01
3.800000e-07	-5.252603e-06	-1.250389e-09	-3.638855e+01	-8.305388e+01
3.900000e-07	-5.236516e-06	-1.264504e-09	-3.627710e+01	-8.288288e+01
4.000000e-07	-5.220071e-06	-1.268219e-09	-3.616318e+01	-8.270419e+01
4.100000e-07	-5.203328e-06	-1.244363e-09	-3.604719e+01	-8.251788e+01
4.200000e-07	-5.186129e-06	-1.221276e-09	-3.592804e+01	-8.232404e+01
4.300000e-07	-5.168600e-06	-1.257017e-09	-3.580660e+01	-8.212276e+01
4.400000e-07	-5.150888e-06	-1.256835e-09	-3.568390e+01	-8.191419e+01
4.500000e-07	-5.132819e-06	-1.237359e-09	-3.555872e+01	-8.169848e+01
4.600000e-07	-5.114288e-06	-1.225978e-09	-3.543034e+01	-8.147579e+01
4.700000e-07	-5.095398e-06	-1.246475e-09	-3.529948e+01	-8.124631e+01
4.800000e-07	-5.076133e-06	-1.235305e-09	-3.516601e+01	-8.101025e+01
4.900000e-07	-5.056516e-06	-1.231042e-09	-3.503012e+01	-8.076783e+01
5.000000e-07	-5.036621e-06	-1.225957e-09	-3.489229e+01	-8.051928e+01
5.100000e-07	-5.016504e-06	-1.223253e-09	-3.475293e+01	-8.026484e+01
5.200000e-07	-4.996132e-06	-1.214607e-09	-3.461179e+01	-8.000476e+01
5.300000e-07	-4.975408e-06	-1.230991e-09	-3.446822e+01	-7.973932e+01
5.400000e-07	-4.954353e-06	-1.230836e-09	-3.432236e+01	-7.946876e+01
5.500000e-07	-4.932971e-06	-1.210096e-09	-3.417423e+01	-7.919337e+01
5.600000e-07	-4.911245e-06	-1.192032e-09	-3.402372e+01	-7.891342e+01
5.700000e-07	-4.889195e-06	-1.203802e-09	-3.387096e+01	-7.862918e+01
5.800000e-07	-4.866744e-06	-1.209887e-09	-3.371543e+01	-7.834093e+01
5.900000e-07	-4.843901e-06	-1.198221e-09	-3.355718e+01	-7.804894e+01
6.000000e-07	-4.820760e-06	-1.190404e-09	-3.339687e+01	-7.775348e+01
6.100000e-07	-4.797319e-06	-1.192821e-09	-3.323447e+01	-7.745480e+01
6.200000e-07	-4.773652e-06	-1.184708e-09	-3.307051e+01	-7.715317e+01
6.300000e-07	-4.749835e-06	-1.166578e-09	-3.290552e+01	-7.684883e+01
6.400000e-07	-4.725737e-06	-1.170640e-09	-3.273857e+01	-7.654202e+01
6.500000e-07	-4.701262e-06	-1.174799e-09	-3.256902e+01	-7.623296e+01
6.600000e-07	-4.676429e-06	-1.165574e-09	-3.239698e+01	-7.592186e+01
6.700000e-07	-4.651087e-06	-1.154295e-09	-3.222142e+01	-7.560893e+01
6.800000e-07	-4.625155e-06	-1.162111e-09	-3.204177e+01	-7.529436e+01
6.900000e-07	-4.598686e-06	-1.153524e-09	-3.185840e+01	-7.497830e+01
7.000000e-07	-4.571738e-06	-1.139662e-09	-3.167171e+01	-7.466092e+01
7.100000e-07	-4.544377e-06	-1.134811e-09	-3.148216e+01	-7.434235e+01
7.200000e-07	-4.516740e-06	-1.141460e-09	-3.129070e+01	-7.402271e+01
7.300000e-07	-4.488902e-06	-1.128218e-09	-3.109785e+01	-7.370211e+01
7.400000e-07	-4.460860e-06	-1.125340e-09	-3.090358e+01	-7.338063e+01
7.500000e-07	-4.432652e-06	-1.124977e-09	-3.070816e+01	-7.305833e+01
7.600000e-07	-4.404200e-06	-1.117025e-09	-3.051105e+01	-7.273526e+01
7.700000e-07	-4.375394e-06	-1.098511e-09	-3.031150e+01	-7.241145e+01
7.800000e-07	-4.346278e-06	-1.099107e-09	-3.010979e+01	-7.208691e+01
7.900000e-07	-4.316919e-06	-1.095951e-09	-2.990640e+01	-7.176164e+01
8.000000e-07	-4.287242e-06	-1.084662e-09	-2.970080e+01	-7.143559e+01
8.100000e-07	-4.257189e-06	-1.077144e-09	-2.949261e+01	-7.110874e+01
8.200000e-07	-4.226940e-06	-1.079678e-09	-2.928305e+01	-7.078102e+01
8.300000e-07	-4.196449e-06	-1.070019e-09	-2.907182e+01	-7.045234e+01
8.400000e-07	-4.165572e-06	-1.059736e-09	-2.885791e+01	-7.012263e+01
8.500000e-07	-4.134356e-06	-1.052320e-09	-2.864165e+01	-6.979175e+01
8.600000e-07	-4.102848e-06	-1.046248e-09	-2.842338e+01	-6.945961e+01
8.700000e-07	-4.071173e-06	-1.038861e-09	-2.820394e+01	-6.912605e+01
8.800000e-07	-4.039431e-06	-1.037497e-09	-2.798404e+01	-6.879092e+01
8.900000e-07	-4.007437e-06	-1.038477e-09	-2.776240e+01	-6.845408e+01
9.000000e-07	-3.975151e-06	-1.030095e-09	-2.753873e+01	-6.811534e+01
9.100000e-07	-3.942603e-06	-1.021891e-09	-2.731324e+01	-6.777453e+01
9.200000e-07	-3.909737e-06	-1.015026e-09	-2.708556e+01	-6.743146e+01
9.300000e-07	-3.876547e-06	-1.006329e-09	-2.685562e+01	-6.708595e+01
9.400000e-07	-3.842956e-06	-9.979801e-10	-2.662291e+01	-6.673778e+01
9.500000e-07	-3.808929e-06	-9.991153e-10	-2.638718e+01	-6.638677e+01
9.600000e-07	-3.774442e-06	-9.940136e-10	-2.614827e+01	-6.603271e+01
9.700000e-07	-3.739512e-06	-9.833930e-10	-2.590629e+01	-6.567540e+01
9.800000e-07	-3.704213e-06	-9.741754e-10	-2.566174e+01	-6.531463e+01
9.900000e-07	-3.668627e-06	-9.697532e-10	-2.541521e+01	-6.495020e+01
1.000000e-06	-3.632850e-06	-9.588378e-10	-2.516736e+01	-6.458193e+01
1.010000e-06	-3.596934e-06	-9.528514e-10	-2.491854e+01	-6.420961e+01
1.020000e-06	-3.560883e-06	-9.492008e-10	-2.466879e+01	-6.383307e+01
1.030000e-06	-3.524709e-06	-9.438096e-10	-2.441819e+01	-6.345212e+01
1.040000e-06	-3.488184e-06	-9.348277e-10	-2.416515e+01	-6.306660e+01
1.050000e-06	-3.451436e-06	-9.302051e-10	-2.391057e+01	-6.267634e+01
1.060000e-06	-3.414563e-06	-9.228276e-10	-2.365513e+01	-6.228120e+01
1.070000e-06	-3.377403e-06	-9.155005e-10	-2.339770e+01	-6.188105e+01
1.080000e-06	-3.339928e-06	-9.068950e-10	-2.313808e+01	-6.147575e+01
1.090000e-06	-3.302234e-06	-9.006699e-10	-2.287694e+01	-6.106519e+01
1.100000e-06	-3.264382e-06	-8.929004e-10	-2.261471e+01	-6.064928e+01
1.110000e-06	-3.226316e-06	-8.868689e-10	-2.235100e+01	-6.022793e+01
1.120000e-06	-3.188052e-06	-8.802889e-10	-2.208592e+01	-5.980107e+01
1.130000e-06	-3.149494e-06	-8.729412e-10	-2.181881e+01	-5.936864e+01
1.140000e-06	-3.110679e-06	-8.665466e-10	-2.154990e+01	-5.893061e+01
1.150000e-06	-3.071733e-06	-8.591366e-10	-2.128010e+01	-5.848693e+01
1.160000e-06	-3.032534e-06	-8.503235e-10	-2.100854e+01	-5.803761e+01
1.170000e-06	-2.993075e-06	-8.446076e-10	-2.073518e+01	-5.758262e+01
1.180000e-06	-2.953545e-06	-8.401245e-10	-2.046133e+01	-5.712199e+01
1.190000e-06	-2.913931e-06	-8.334233e-10	-2.018689e+01	-5.665574e+01
1.200000e-06	-2.874147e-06	-8.252420e-10	-1.991128e+01	-5.618389e+01
1.210000e-06	-2.834187e-06	-8.170648e-10	-1.963445e+01	-5.570648e+01
1.220000e-06	-2.794094e-06	-8.112866e-10	-1.935669e+01	-5.522356e+01
1.230000e-06	-2.753902e-06	-8.031499e-10	-1.907825e+01	-5.473518e+01
1.240000e-06	-2.713465e-06	-7.947608e-10	-1.879812e+01	-5.424140e+01
1.250000e-06	-2.672771e-06	-7.869876e-10	-1.851620e+01	-5.374228e+01
1.260000e-06	-2.631804e-06	-7.794266e-10	-1.823240e+01	-5.323787e+01
1.270000e-06	-2.590550e-06	-7.696737e-10	-1.794660e+01	-5.272825e+01
1.280000e-06	-2.549122e-06	-7.617791e-10	-1.765960e+01	-5.221346e+01
1.290000e-06	-2.507388e-06	-7.529415e-10	-1.737048e+01	-5.169355e+01
1.300000e-06	-2.465254e-06	-7.423406e-10	-1.707859e+01	-5.116857e+01
1.310000e-06	-2.422890e-06	-7.317145e-10	-1.678509e+01	-5.063855e+01
1.320000e-06	-2.380380e-06	-7.230753e-10	-1.649060e+01	-5.010350e+01
1.330000e-06	-2.337499e-06	-7.145798e-10	-1.619354e+01	-4.956345e+01
1.340000e-06	-2.294310e-06	-7.072618e-10	-1.589433e+01	-4.901838e+01
1.350000e-06	-2.250922e-06	-6.977710e-10	-1.559375e+01	-4.846826e+01
1.360000e-06	-2.207374e-06	-6.867996e-10	-1.529206e+01	-4.791304e+01
1.370000e-06	-2.163770e-06	-6.768026e-10	-1.498999e+01	-4.735267e+01
1.380000e-06	-2.120031e-06	-6.710850e-10	-1.468697e+01	-4.678704e+01
1.390000e-06	-2.076168e-06	-6.630216e-10	-1.438310e+01	-4.621604e+01
1.400000e-06	-2.032243e-06	-6.546297e-10	-1.407881e+01	-4.563953e+01
1.410000e-06	-1.988305e-06	-6.457819e-10	-1.377442e+01	-4.505734e+01
1.420000e-06	-1.944260e-06	-6.356149e-10	-1.346928e+01	-4.446927e+01
1.430000e-06	-1.900094e-06	-6.256710e-10	-1.316332e+01	-4.387509e+01
1.440000e-06	-1.855851e-06	-6.177505e-10	-1.285681e+01	-4.327454e+01
1.450000e-06	-1.811438e-06	-6.097290e-10	-1.254913e+01	-4.266734e+01
1.460000e-06	-1.766878e-06	-6.000324e-10	-1.224043e+01	-4.205317e+01
1.470000e-06	-1.722221e-06	-5.910522e-10	-1.193106e+01	-4.143167e+01
1.480000e-06	-1.677469e-06	-5.825079e-10	-1.162103e+01	-4.080249e+01
1.490000e-06	-1.632607e-06	-5.715863e-10	-1.131024e+01	-4.016521e+01
1.500000e-06	-1.587529e-06	-5.607980e-10	-1.099796e+01	-3.951940e+01
1.510000e-06	-1.542296e-06	-5.512301e-10	-1.068459e+01	-3.886461e+01
1.520000e-06	-1.496964e-06	-5.423634e-10	-1.037055e+01	-3.820036e+01
1.530000e-06	-1.451586e-06	-5.345938e-10	-1.005618e+01	-3.752614e+01
1.540000e-06	-1.406084e-06	-5.235433e-10	-9.740954e+00	-3.684145e+01
1.550000e-06	-1.360340e-06	-5.097959e-10	-9.424055e+00	-3.614574e+01
1.560000e-06	-1.314558e-06	-4.949217e-10	-9.106885e+00	-3.543846e+01
1.570000e-06	-1.268718e-06	-4.819698e-10	-8.789321e+00	-3.471906e+01
1.580000e-06	-1.222831e-06	-4.690692e-10	-8.471428e+00	-3.398697e+01
1.590000e-06	-1.176969e-06	-4.574287e-10	-8.153706e+00	-3.324163e+01
1.600000e-06	-1.131013e-06	-4.466245e-10	-7.835336e+00	-3.248246e+01
1.610000e-06	-1.084891e-06	-4.346380e-10	-7.515819e+00	-3.170891e+01
1.620000e-06	-1.038647e-06	-4.227203e-10	-7.195456e+00	-3.092041e+01
1.630000e-06	-9.923173e-07	-4.140355e-10	-6.874494e+00	-3.011643e+01
1.640000e-06	-9.459430e-07	-4.051651e-10	-6.553226e+00	-2.929644e+01
1.650000e-06	-8.996304e-07	-3.924356e-10	-6.232386e+00	-2.845995e+01
1.660000e-06	-8.532885e-07	-3.786953e-10	-5.911342e+00	-2.760647e+01
1.670000e-06	-8.068066e-07	-3.628428e-10	-5.589329e+00	-2.673557e+01
1.680000e-06	-7.602191e-07	-3.441453e-10	-5.266584e+00	-2.584682e+01
1.690000e-06	-7.135611e-07	-3.290757e-10	-4.943350e+00	-2.493985e+01
1.700000e-06	-6.668968e-07	-3.173352e-10	-4.620073e+00	-2.401435e+01
1.710000e-06	-6.202256e-07	-3.064947e-10	-4.296748e+00	-2.307001e+01
1.720000e-06	-5.735664e-07	-2.937467e-10	-3.973506e+00	-2.210660e+01
1.730000e-06	-5.268341e-07	-2.780598e-10	-3.649758e+00	-2.112396e+01
1.740000e-06	-4.799717e-07	-2.591434e-10	-3.325109e+00	-2.012194e+01
1.750000e-06	-4.331643e-07	-2.408396e-10	-3.000840e+00	-1.910050e+01
1.760000e-06	-3.862924e-07	-2.247057e-10	-2.676125e+00	-1.805961e+01
1.770000e-06	-3.392646e-07	-2.095570e-10	-2.350329e+00	-1.699936e+01
1.780000e-06	-2.922802e-07	-1.954871e-10	-2.024835e+00	-1.591985e+01
1.790000e-06	-2.452900e-07	-1.821733e-10	-1.699300e+00	-1.482130e+01
1.800000e-06	-1.983332e-07	-1.674736e-10	-1.373996e+00	-1.370395e+01
1.810000e-06	-1.515050e-07	-1.521350e-10	-1.049584e+00	-1.256815e+01
1.820000e-06	-1.046694e-07	-1.361979e-10	-7.251204e-01	-1.141429e+01
1.830000e-06	-5.779369e-08	-1.205493e-10	-4.003784e-01	-1.024285e+01
1.840000e-06	-1.086062e-08	-1.061179e-10	-7.523932e-02	-9.054364e+00
1.850000e-06	3.606309e-08	-9.316216e-11	2.498349e-01	-7.849435e+00
1.860000e-06	8.300539e-08	-8.101670e-11	5.750379e-01	-6.628738e+00
1.870000e-06	1.299547e-07	-6.400214e-11	9.002895e-01	-5.393006e+00
1.880000e-06	1.767737e-07	-4.268510e-11	1.224638e+00	-4.143035e+00
1.890000e-06	2.236806e-07	-2.152804e-11	1.549596e+00	-2.879680e+00
1.900000e-06	2.707821e-07	-1.784226e-12	1.875902e+00	-1.603850e+00
1.910000e-06	3.178650e-07	1.601908e-11	2.202079e+00	-3.165067e-01
1.920000e-06	3.648723e-07	3.031792e-11	2.527732e+00	9.813423e-01
1.930000e-06	4.118815e-07	4.483490e-11	2.853399e+00	2.288645e+00
1.940000e-06	4.587654e-07	6.307331e-11	3.178197e+00	3.604310e+00
1.950000e-06	5.055807e-07	8.298588e-11	3.502520e+00	4.927212e+00
1.960000e-06	5.523599e-07	1.034922e-10	3.826594e+00	6.256198e+00
1.970000e-06	5.989809e-07	1.225323e-10	4.149570e+00	7.590090e+00
1.980000e-06	6.456018e-07	1.385194e-10	4.472547e+00	8.927690e+00
1.990000e-06	6.922302e-07	1.570723e-10	4.795576e+00	1.026779e+01
2.000000e-06	7.387421e-07	1.744712e-10	5.117797e+00	1.160917e+01
2.010000e-06	7.852178e-07	1.924895e-10	5.439768e+00	1.295061e+01
2.020000e-06	8.316948e-07	2.115586e-10	5.761747e+00	1.429089e+01
2.030000e-06	8.780614e-07	2.324064e-10	6.082962e+00	1.562881e+01
2.040000e-06	9.243228e-07	2.532867e-10	6.403447e+00	1.696316e+01
2.050000e-06	9.706358e-07	2.715606e-10	6.724291e+00	1.829278e+01
2.060000e-06	1.016927e-06	2.893265e-10	7.044981e+00	1.961652e+01
2.070000e-06	1.063033e-06	3.093694e-10	7.364390e+00	2.093325e+01
2.080000e-06	1.109025e-06	3.309201e-10	7.683009e+00	2.224188e+01
2.090000e-06	1.154884e-06	3.499472e-10	8.000713e+00	2.354136e+01
2.100000e-06	1.200606e-06	3.704059e-10	8.317461e+00	2.483068e+01
2.110000e-06	1.246344e-06	3.909963e-10	8.634320e+00	2.610888e+01
2.120000e-06	1.292002e-06	4.070925e-10	8.950622e+00	2.737505e+01
2.130000e-06	1.337532e-06	4.213669e-10	9.266047e+00	2.862832e+01
2.140000e-06	1.383060e-06	4.368192e-10	9.581452e+00	2.986788e+01
2.150000e-06	1.428555e-06	4.535614e-10	9.896625e+00	3.109297e+01
2.160000e-06	1.473938e-06	4.720374e-10	1.021103e+01	3.230291e+01
2.170000e-06	1.519168e-06	4.901302e-10	1.052437e+01	3.349707e+01
2.180000e-06	1.564271e-06	5.087294e-10	1.083683e+01	3.467485e+01
2.190000e-06	1.609319e-06	5.251278e-10	1.114891e+01	3.583576e+01
2.200000e-06	1.654212e-06	5.399116e-10	1.145992e+01	3.697934e+01
2.210000e-06	1.698919e-06	5.541670e-10	1.176963e+01	3.810519e+01
2.220000e-06	1.743589e-06	5.674560e-10	1.207909e+01	3.921298e+01
2.230000e-06	1.788105e-06	5.823219e-10	1.238749e+01	4.030245e+01
2.240000e-06	1.832407e-06	5.958650e-10	1.269440e+01	4.137336e+01
2.250000e-06	1.876598e-06	6.104646e-10	1.300054e+01	4.242557e+01
2.260000e-06	1.920689e-06	6.264430e-10	1.330599e+01	4.345895e+01
2.270000e-06	1.964703e-06	6.421646e-10	1.361091e+01	4.447346e+01
2.280000e-06	2.008656e-06	6.571282e-10	1.391540e+01	4.546909e+01
2.290000e-06	2.052549e-06	6.735038e-10	1.421948e+01	4.644586e+01
2.300000e-06	2.096408e-06	6.895934e-10	1.452333e+01	4.740386e+01
2.310000e-06	2.140175e-06	7.011565e-10	1.482653e+01	4.834320e+01
2.320000e-06	2.183846e-06	7.132944e-10	1.512907e+01	4.926404e+01
2.330000e-06	2.227407e-06	7.260232e-10	1.543084e+01	5.016656e+01
2.340000e-06	2.270810e-06	7.383356e-10	1.573153e+01	5.105097e+01
2.350000e-06	2.314046e-06	7.529394e-10	1.603106e+01	5.191751e+01
2.360000e-06	2.357045e-06	7.715265e-10	1.632894e+01	5.276643e+01
2.370000e-06	2.399745e-06	7.878429e-10	1.662475e+01	5.359802e+01
2.380000e-06	2.442199e-06	7.984819e-10	1.691887e+01	5.441256e+01
2.390000e-06	2.484377e-06	8.075662e-10	1.721106e+01	5.521035e+01
2.400000e-06	2.526190e-06	8.167561e-10	1.750073e+01	5.599171e+01
2.410000e-06	2.567675e-06	8.251927e-10	1.778813e+01	5.675695e+01
2.420000e-06	2.608882e-06	8.350372e-10	1.807360e+01	5.750638e+01
2.430000e-06	2.649743e-06	8.484407e-10	1.835667e+01	5.824032e+01
2.440000e-06	2.690343e-06	8.604410e-10	1.863793e+01	5.895909e+01
2.450000e-06	2.730735e-06	8.704438e-10	1.891776e+01	5.966298e+01
2.460000e-06	2.770909e-06	8.825675e-10	1.919607e+01	6.035231e+01
2.470000e-06	2.810990e-06	8.938386e-10	1.947375e+01	6.102736e+01
2.480000e-06	2.850941e-06	9.030426e-10	1.975052e+01	6.168841e+01
2.490000e-06	2.890807e-06	9.104723e-10	2.002670e+01	6.233574e+01
2.500000e-06	2.930551e-06	9.196058e-10	2.030203e+01	6.296960e+01
2.510000e-06	2.970107e-06	9.308822e-10	2.057606e+01	6.359025e+01
2.520000e-06	3.009550e-06	9.427971e-10	2.084931e+01	6.419790e+01
2.530000e-06	3.048814e-06	9.520194e-10	2.112132e+01	6.479279e+01
2.540000e-06	3.087851e-06	9.602153e-10	2.139176e+01	6.537512e+01
2.550000e-06	3.126673e-06	9.682983e-10	2.166071e+01	6.594508e+01
2.560000e-06	3.165248e-06	9.749505e-10	2.192794e+01	6.650287e+01
2.570000e-06	3.203627e-06	9.827722e-10	2.219382e+01	6.704865e+01
2.580000e-06	3.241815e-06	9.905856e-10	2.245838e+01	6.758259e+01
2.590000e-06	3.279725e-06	9.977480e-10	2.272101e+01	6.810485e+01
2.600000e-06	3.317409e-06	1.004586e-09	2.298208e+01	6.861557e+01
2.610000e-06	3.354865e-06	1.010922e-09	2.324156e+01	6.911489e+01
2.620000e-06	3.392102e-06	1.015798e-09	2.349953e+01	6.960296e+01
2.630000e-06	3.429120e-06	1.019918e-09	2.375597e+01	7.007992e+01
2.640000e-06	3.465774e-06	1.024656e-09	2.400990e+01	7.054589e+01
2.650000e-06	3.502183e-06	1.032956e-09	2.426214e+01	7.100101e+01
2.660000e-06	3.538478e-06	1.042630e-09	2.451358e+01	7.144543e+01
2.670000e-06	3.574599e-06	1.048054e-09	2.476381e+01	7.187928e+01
2.680000e-06	3.610530e-06	1.052268e-09	2.501274e+01	7.230270e+01
2.690000e-06	3.646355e-06	1.060166e-09	2.526092e+01	7.271587e+01
2.700000e-06	3.682050e-06	1.065536e-09	2.550820e+01	7.311892e+01
2.710000e-06	3.717534e-06	1.070674e-09	2.575403e+01	7.351204e+01
2.720000e-06	3.752790e-06	1.077466e-09	2.599827e+01	7.389541e+01
2.730000e-06	3.787714e-06	1.083163e-09	2.624021e+01	7.426920e+01
2.740000e-06	3.822132e-06	1.086096e-09	2.647865e+01	7.463362e+01
2.750000e-06	3.856039e-06	1.085606e-09	2.671355e+01	7.498888e+01
2.760000e-06	3.889510e-06	1.085757e-09	2.694543e+01	7.533521e+01
2.770000e-06	3.922505e-06	1.090234e-09	2.717401e+01	7.567283e+01
2.780000e-06	3.955077e-06	1.097173e-09	2.739966e+01	7.600199e+01
2.790000e-06	3.987365e-06	1.106598e-09	2.762334e+01	7.632294e+01
2.800000e-06	4.019478e-06	1.116873e-09	2.784581e+01	7.663595e+01
2.810000e-06	4.051386e-06	1.124314e-09	2.806686e+01	7.694129e+01
2.820000e-06	4.083157e-06	1.128464e-09	2.828696e+01	7.723923e+01
2.830000e-06	4.114816e-06	1.131044e-09	2.850628e+01	7.753007e+01
2.840000e-06	4.146159e-06	1.134127e-09	2.872342e+01	7.781410e+01
2.850000e-06	4.177170e-06	1.138620e-09	2.893826e+01	7.809161e+01
2.860000e-06	4.207856e-06	1.145328e-09	2.915084e+01	7.836289e+01
2.870000e-06	4.238245e-06	1.151972e-09	2.936137e+01	7.862824e+01
2.880000e-06	4.268385e-06	1.156596e-09	2.957017e+01	7.888796e+01
2.890000e-06	4.298239e-06	1.160128e-09	2.977699e+01	7.914234e+01
2.900000e-06	4.327846e-06	1.163514e-09	2.998209e+01	7.939165e+01
2.910000e-06	4.357147e-06	1.168082e-09	3.018508e+01	7.963619e+01
