# Temperatura_=_-7.06
# Concentracion g/m^3_=_1620.0
# C_Vs_to_Am_M_A/Vsm_=_65563218390.804596
# pendiente_HvsI_1/m_=_3716.3
# ordenada_HvsI_A/m_=_1297.0
# frecuencia_Hz_=_135108.86157278926

Tiempo_(s)	Campo_(V.s)	Magnetizacion_(V.s)	Campo_(kA/m)	Magnetizacion_(A/m)
0.000000e+00	-5.526829e-06	-6.221740e-10	-3.836951e+01	-4.249245e+01
1.000000e-08	-5.527082e-06	-6.204662e-10	-3.837127e+01	-4.247618e+01
2.000000e-08	-5.526974e-06	-6.227918e-10	-3.837052e+01	-4.246410e+01
3.000000e-08	-5.526385e-06	-6.201962e-10	-3.836643e+01	-4.245615e+01
4.000000e-08	-5.525247e-06	-6.096900e-10	-3.835853e+01	-4.245226e+01
5.000000e-08	-5.523567e-06	-5.957602e-10	-3.834687e+01	-4.245232e+01
6.000000e-08	-5.521382e-06	-6.024887e-10	-3.833170e+01	-4.245619e+01
7.000000e-08	-5.518683e-06	-6.529825e-10	-3.831296e+01	-4.246371e+01
8.000000e-08	-5.515464e-06	-6.789023e-10	-3.829061e+01	-4.247469e+01
9.000000e-08	-5.511778e-06	-6.227937e-10	-3.826502e+01	-4.248893e+01
1.000000e-07	-5.507654e-06	-5.971442e-10	-3.823639e+01	-4.250618e+01
1.100000e-07	-5.503176e-06	-6.110865e-10	-3.820531e+01	-4.252620e+01
1.200000e-07	-5.498422e-06	-6.105117e-10	-3.817230e+01	-4.254870e+01
1.300000e-07	-5.493415e-06	-5.965851e-10	-3.813754e+01	-4.257340e+01
1.400000e-07	-5.488129e-06	-6.190934e-10	-3.810084e+01	-4.259999e+01
1.500000e-07	-5.482428e-06	-6.336200e-10	-3.806126e+01	-4.262816e+01
1.600000e-07	-5.476316e-06	-6.217120e-10	-3.801883e+01	-4.265756e+01
1.700000e-07	-5.469807e-06	-6.017581e-10	-3.797364e+01	-4.268786e+01
1.800000e-07	-5.462929e-06	-6.555999e-10	-3.792589e+01	-4.271871e+01
1.900000e-07	-5.455727e-06	-6.486326e-10	-3.787589e+01	-4.274977e+01
2.000000e-07	-5.448247e-06	-6.132457e-10	-3.782397e+01	-4.278068e+01
2.100000e-07	-5.440533e-06	-6.175483e-10	-3.777041e+01	-4.281109e+01
2.200000e-07	-5.432509e-06	-6.815039e-10	-3.771471e+01	-4.284065e+01
2.300000e-07	-5.424094e-06	-6.856099e-10	-3.765628e+01	-4.286903e+01
2.400000e-07	-5.415186e-06	-6.430499e-10	-3.759444e+01	-4.289589e+01
2.500000e-07	-5.405623e-06	-6.351864e-10	-3.752805e+01	-4.292090e+01
2.600000e-07	-5.395350e-06	-6.554587e-10	-3.745673e+01	-4.294376e+01
2.700000e-07	-5.384468e-06	-6.616336e-10	-3.738118e+01	-4.296417e+01
2.800000e-07	-5.373141e-06	-6.603435e-10	-3.730255e+01	-4.298185e+01
2.900000e-07	-5.361477e-06	-6.892251e-10	-3.722157e+01	-4.299654e+01
3.000000e-07	-5.349382e-06	-6.685172e-10	-3.713760e+01	-4.300799e+01
3.100000e-07	-5.336893e-06	-6.553505e-10	-3.705090e+01	-4.301599e+01
3.200000e-07	-5.324145e-06	-6.592531e-10	-3.696240e+01	-4.302032e+01
3.300000e-07	-5.311010e-06	-6.718141e-10	-3.687121e+01	-4.302082e+01
3.400000e-07	-5.297336e-06	-6.371418e-10	-3.677628e+01	-4.301732e+01
3.500000e-07	-5.283243e-06	-6.683208e-10	-3.667844e+01	-4.300970e+01
3.600000e-07	-5.268651e-06	-6.757677e-10	-3.657713e+01	-4.299784e+01
3.700000e-07	-5.253519e-06	-6.603384e-10	-3.647208e+01	-4.298167e+01
3.800000e-07	-5.237960e-06	-6.716785e-10	-3.636407e+01	-4.296112e+01
3.900000e-07	-5.221981e-06	-7.054621e-10	-3.625313e+01	-4.293616e+01
4.000000e-07	-5.205490e-06	-6.377635e-10	-3.613865e+01	-4.290679e+01
4.100000e-07	-5.188555e-06	-6.196334e-10	-3.602107e+01	-4.287300e+01
4.200000e-07	-5.171373e-06	-6.892151e-10	-3.590179e+01	-4.283483e+01
4.300000e-07	-5.153927e-06	-6.775972e-10	-3.578067e+01	-4.279234e+01
4.400000e-07	-5.136103e-06	-6.206337e-10	-3.565693e+01	-4.274561e+01
4.500000e-07	-5.117869e-06	-6.941759e-10	-3.553034e+01	-4.269472e+01
4.600000e-07	-5.099306e-06	-7.219142e-10	-3.540148e+01	-4.263978e+01
4.700000e-07	-5.080390e-06	-6.218641e-10	-3.527015e+01	-4.258092e+01
4.800000e-07	-5.061150e-06	-6.404517e-10	-3.513658e+01	-4.251829e+01
4.900000e-07	-5.041712e-06	-7.156816e-10	-3.500163e+01	-4.245202e+01
5.000000e-07	-5.022077e-06	-6.342933e-10	-3.486532e+01	-4.238230e+01
5.100000e-07	-5.002096e-06	-5.949413e-10	-3.472660e+01	-4.230929e+01
5.200000e-07	-4.981734e-06	-7.049028e-10	-3.458524e+01	-4.223318e+01
5.300000e-07	-4.961050e-06	-6.895084e-10	-3.444164e+01	-4.215414e+01
5.400000e-07	-4.939954e-06	-6.150650e-10	-3.429519e+01	-4.207238e+01
5.500000e-07	-4.918473e-06	-6.775000e-10	-3.414605e+01	-4.198809e+01
5.600000e-07	-4.896658e-06	-6.970183e-10	-3.399461e+01	-4.190146e+01
5.700000e-07	-4.874494e-06	-6.032866e-10	-3.384074e+01	-4.181269e+01
5.800000e-07	-4.852061e-06	-6.399198e-10	-3.368500e+01	-4.172197e+01
5.900000e-07	-4.829316e-06	-6.975083e-10	-3.352709e+01	-4.162949e+01
6.000000e-07	-4.806185e-06	-6.334665e-10	-3.336650e+01	-4.153543e+01
6.100000e-07	-4.782717e-06	-6.214729e-10	-3.320358e+01	-4.143998e+01
6.200000e-07	-4.759084e-06	-6.910386e-10	-3.303951e+01	-4.134330e+01
6.300000e-07	-4.735267e-06	-6.516744e-10	-3.287416e+01	-4.124555e+01
6.400000e-07	-4.711107e-06	-6.155388e-10	-3.270644e+01	-4.114690e+01
6.500000e-07	-4.686553e-06	-6.616858e-10	-3.253597e+01	-4.104748e+01
6.600000e-07	-4.661508e-06	-6.545024e-10	-3.236210e+01	-4.094742e+01
6.700000e-07	-4.635972e-06	-6.095522e-10	-3.218482e+01	-4.084686e+01
6.800000e-07	-4.609981e-06	-6.459441e-10	-3.200438e+01	-4.074589e+01
6.900000e-07	-4.583453e-06	-6.621672e-10	-3.182021e+01	-4.064462e+01
7.000000e-07	-4.556456e-06	-6.304421e-10	-3.163278e+01	-4.054313e+01
7.100000e-07	-4.529176e-06	-6.396637e-10	-3.144339e+01	-4.044150e+01
7.200000e-07	-4.501641e-06	-6.635104e-10	-3.125223e+01	-4.033979e+01
7.300000e-07	-4.473868e-06	-6.365500e-10	-3.105942e+01	-4.023805e+01
7.400000e-07	-4.445971e-06	-6.272565e-10	-3.086576e+01	-4.013632e+01
7.500000e-07	-4.417907e-06	-6.413593e-10	-3.067092e+01	-4.003462e+01
7.600000e-07	-4.389414e-06	-6.277549e-10	-3.047311e+01	-3.993298e+01
7.700000e-07	-4.360522e-06	-6.186004e-10	-3.027253e+01	-3.983139e+01
7.800000e-07	-4.331411e-06	-6.354577e-10	-3.007043e+01	-3.972985e+01
7.900000e-07	-4.302030e-06	-6.355298e-10	-2.986646e+01	-3.962836e+01
8.000000e-07	-4.272302e-06	-6.192991e-10	-2.966007e+01	-3.952687e+01
8.100000e-07	-4.242224e-06	-6.214822e-10	-2.945126e+01	-3.942537e+01
8.200000e-07	-4.211827e-06	-6.174700e-10	-2.924023e+01	-3.932382e+01
8.300000e-07	-4.181189e-06	-6.023018e-10	-2.902753e+01	-3.922216e+01
8.400000e-07	-4.150335e-06	-6.033396e-10	-2.881333e+01	-3.912035e+01
8.500000e-07	-4.119235e-06	-6.120925e-10	-2.859742e+01	-3.901832e+01
8.600000e-07	-4.087892e-06	-6.016466e-10	-2.837982e+01	-3.891602e+01
8.700000e-07	-4.056318e-06	-5.987337e-10	-2.816062e+01	-3.881338e+01
8.800000e-07	-4.024605e-06	-6.061874e-10	-2.794046e+01	-3.871032e+01
8.900000e-07	-3.992745e-06	-6.030784e-10	-2.771927e+01	-3.860678e+01
9.000000e-07	-3.960574e-06	-5.901513e-10	-2.749593e+01	-3.850266e+01
9.100000e-07	-3.927999e-06	-5.942238e-10	-2.726978e+01	-3.839791e+01
9.200000e-07	-3.894965e-06	-5.912502e-10	-2.704044e+01	-3.829242e+01
9.300000e-07	-3.861513e-06	-5.837878e-10	-2.680821e+01	-3.818613e+01
9.400000e-07	-3.827577e-06	-5.839890e-10	-2.657261e+01	-3.807895e+01
9.500000e-07	-3.793177e-06	-5.860819e-10	-2.633379e+01	-3.797079e+01
9.600000e-07	-3.758467e-06	-5.731138e-10	-2.609282e+01	-3.786157e+01
9.700000e-07	-3.723474e-06	-5.683040e-10	-2.584988e+01	-3.775121e+01
9.800000e-07	-3.688196e-06	-5.731292e-10	-2.560497e+01	-3.763962e+01
9.900000e-07	-3.652697e-06	-5.714249e-10	-2.535852e+01	-3.752672e+01
1.000000e-06	-3.617074e-06	-5.670190e-10	-2.511121e+01	-3.741242e+01
1.010000e-06	-3.581316e-06	-5.719971e-10	-2.486296e+01	-3.729664e+01
1.020000e-06	-3.545372e-06	-5.731161e-10	-2.461343e+01	-3.717930e+01
1.030000e-06	-3.509208e-06	-5.666533e-10	-2.436236e+01	-3.706032e+01
1.040000e-06	-3.472745e-06	-5.650115e-10	-2.410922e+01	-3.693960e+01
1.050000e-06	-3.436042e-06	-5.645880e-10	-2.385441e+01	-3.681708e+01
1.060000e-06	-3.399138e-06	-5.563512e-10	-2.359821e+01	-3.669266e+01
1.070000e-06	-3.361924e-06	-5.500488e-10	-2.333986e+01	-3.656626e+01
1.080000e-06	-3.324483e-06	-5.488196e-10	-2.307992e+01	-3.643780e+01
1.090000e-06	-3.286826e-06	-5.432190e-10	-2.281849e+01	-3.630721e+01
1.100000e-06	-3.248896e-06	-5.391109e-10	-2.255516e+01	-3.617439e+01
1.110000e-06	-3.210737e-06	-5.385844e-10	-2.229025e+01	-3.603925e+01
1.120000e-06	-3.172395e-06	-5.375364e-10	-2.202407e+01	-3.590173e+01
1.130000e-06	-3.133795e-06	-5.332388e-10	-2.175609e+01	-3.576172e+01
1.140000e-06	-3.094984e-06	-5.326126e-10	-2.148665e+01	-3.561914e+01
1.150000e-06	-3.055980e-06	-5.294059e-10	-2.121587e+01	-3.547390e+01
1.160000e-06	-3.016772e-06	-5.230512e-10	-2.094367e+01	-3.532592e+01
1.170000e-06	-2.977455e-06	-5.184983e-10	-2.067071e+01	-3.517509e+01
1.180000e-06	-2.938040e-06	-5.195408e-10	-2.039707e+01	-3.502133e+01
1.190000e-06	-2.898488e-06	-5.181645e-10	-2.012249e+01	-3.486454e+01
1.200000e-06	-2.858789e-06	-5.173547e-10	-1.984689e+01	-3.470463e+01
1.210000e-06	-2.818965e-06	-5.181090e-10	-1.957041e+01	-3.454148e+01
1.220000e-06	-2.778886e-06	-5.153267e-10	-1.929217e+01	-3.437500e+01
1.230000e-06	-2.738607e-06	-5.074204e-10	-1.901253e+01	-3.420509e+01
1.240000e-06	-2.698180e-06	-5.021760e-10	-1.873187e+01	-3.403163e+01
1.250000e-06	-2.657476e-06	-4.967326e-10	-1.844929e+01	-3.385452e+01
1.260000e-06	-2.616485e-06	-4.914182e-10	-1.816471e+01	-3.367363e+01
1.270000e-06	-2.575236e-06	-4.871189e-10	-1.787835e+01	-3.348886e+01
1.280000e-06	-2.533706e-06	-4.866233e-10	-1.759002e+01	-3.330008e+01
1.290000e-06	-2.491848e-06	-4.858093e-10	-1.729943e+01	-3.310717e+01
1.300000e-06	-2.449588e-06	-4.828185e-10	-1.700605e+01	-3.291000e+01
1.310000e-06	-2.406985e-06	-4.790358e-10	-1.671028e+01	-3.270843e+01
1.320000e-06	-2.364184e-06	-4.735637e-10	-1.641314e+01	-3.250233e+01
1.330000e-06	-2.321270e-06	-4.680505e-10	-1.611521e+01	-3.229156e+01
1.340000e-06	-2.278179e-06	-4.666842e-10	-1.581605e+01	-3.207598e+01
1.350000e-06	-2.234880e-06	-4.689248e-10	-1.551545e+01	-3.185543e+01
1.360000e-06	-2.191473e-06	-4.686814e-10	-1.521410e+01	-3.162975e+01
1.370000e-06	-2.147954e-06	-4.675149e-10	-1.491198e+01	-3.139879e+01
1.380000e-06	-2.104341e-06	-4.683593e-10	-1.460920e+01	-3.116238e+01
1.390000e-06	-2.060676e-06	-4.666720e-10	-1.430606e+01	-3.092035e+01
1.400000e-06	-2.016922e-06	-4.612068e-10	-1.400230e+01	-3.067251e+01
1.410000e-06	-1.973063e-06	-4.557259e-10	-1.369781e+01	-3.041867e+01
1.420000e-06	-1.929090e-06	-4.503082e-10	-1.339253e+01	-3.015866e+01
1.430000e-06	-1.885023e-06	-4.457555e-10	-1.308660e+01	-2.989225e+01
1.440000e-06	-1.840848e-06	-4.435110e-10	-1.277992e+01	-2.961926e+01
1.450000e-06	-1.796521e-06	-4.421477e-10	-1.247219e+01	-2.933946e+01
1.460000e-06	-1.752095e-06	-4.374709e-10	-1.216376e+01	-2.905263e+01
1.470000e-06	-1.707561e-06	-4.300464e-10	-1.185459e+01	-2.875854e+01
1.480000e-06	-1.662858e-06	-4.194280e-10	-1.154424e+01	-2.845695e+01
1.490000e-06	-1.617961e-06	-4.104885e-10	-1.123255e+01	-2.814761e+01
1.500000e-06	-1.572928e-06	-4.059068e-10	-1.091991e+01	-2.783028e+01
1.510000e-06	-1.527810e-06	-4.057533e-10	-1.060668e+01	-2.750469e+01
1.520000e-06	-1.482603e-06	-4.053529e-10	-1.029284e+01	-2.717057e+01
1.530000e-06	-1.437255e-06	-4.004411e-10	-9.978012e+00	-2.682765e+01
1.540000e-06	-1.391773e-06	-3.896658e-10	-9.662258e+00	-2.647565e+01
1.550000e-06	-1.346263e-06	-3.768275e-10	-9.346307e+00	-2.611427e+01
1.560000e-06	-1.300633e-06	-3.646554e-10	-9.029526e+00	-2.574324e+01
1.570000e-06	-1.254891e-06	-3.560369e-10	-8.711969e+00	-2.536224e+01
1.580000e-06	-1.209152e-06	-3.517251e-10	-8.394432e+00	-2.497098e+01
1.590000e-06	-1.163339e-06	-3.514312e-10	-8.076374e+00	-2.456917e+01
1.600000e-06	-1.117452e-06	-3.504635e-10	-7.757809e+00	-2.415648e+01
1.610000e-06	-1.071533e-06	-3.473139e-10	-7.439024e+00	-2.373263e+01
1.620000e-06	-1.025529e-06	-3.441785e-10	-7.119643e+00	-2.329731e+01
1.630000e-06	-9.794136e-07	-3.404929e-10	-6.799491e+00	-2.285021e+01
1.640000e-06	-9.331945e-07	-3.338063e-10	-6.478619e+00	-2.239104e+01
1.650000e-06	-8.869321e-07	-3.236439e-10	-6.157446e+00	-2.191952e+01
1.660000e-06	-8.406458e-07	-3.144295e-10	-5.836108e+00	-2.143535e+01
1.670000e-06	-7.943148e-07	-3.046215e-10	-5.514459e+00	-2.093828e+01
1.680000e-06	-7.479120e-07	-2.935190e-10	-5.192312e+00	-2.042803e+01
1.690000e-06	-7.014255e-07	-2.848228e-10	-4.869584e+00	-1.990437e+01
1.700000e-06	-6.548825e-07	-2.798564e-10	-4.546463e+00	-1.936706e+01
1.710000e-06	-6.082152e-07	-2.748062e-10	-4.222479e+00	-1.881589e+01
1.720000e-06	-5.615016e-07	-2.664172e-10	-3.898174e+00	-1.825067e+01
1.730000e-06	-5.148316e-07	-2.541080e-10	-3.574172e+00	-1.767123e+01
1.740000e-06	-4.681180e-07	-2.381021e-10	-3.249867e+00	-1.707742e+01
1.750000e-06	-4.213901e-07	-2.225925e-10	-2.925463e+00	-1.646912e+01
1.760000e-06	-3.746815e-07	-2.127270e-10	-2.601193e+00	-1.584626e+01
1.770000e-06	-3.279497e-07	-2.071119e-10	-2.276762e+00	-1.520876e+01
1.780000e-06	-2.811321e-07	-2.031364e-10	-1.951734e+00	-1.455661e+01
1.790000e-06	-2.341909e-07	-1.981508e-10	-1.625849e+00	-1.388981e+01
1.800000e-06	-1.872782e-07	-1.889234e-10	-1.300162e+00	-1.320841e+01
1.810000e-06	-1.404178e-07	-1.749658e-10	-9.748383e-01	-1.251250e+01
1.820000e-06	-9.346814e-08	-1.624411e-10	-6.488942e-01	-1.180220e+01
1.830000e-06	-4.646650e-08	-1.544624e-10	-3.225895e-01	-1.107767e+01
1.840000e-06	4.802732e-10	-1.458495e-10	3.334253e-03	-1.033912e+01
1.850000e-06	4.737580e-08	-1.350490e-10	3.289022e-01	-9.586806e+00
1.860000e-06	9.423713e-08	-1.246527e-10	6.542328e-01	-8.821021e+00
1.870000e-06	1.410921e-07	-1.115808e-10	9.795194e-01	-8.042104e+00
1.880000e-06	1.879840e-07	-9.539371e-11	1.305062e+00	-7.250438e+00
1.890000e-06	2.349164e-07	-7.948816e-11	1.630886e+00	-6.446451e+00
1.900000e-06	2.818489e-07	-6.613370e-11	1.956711e+00	-5.630615e+00
1.910000e-06	3.288174e-07	-5.584026e-11	2.282785e+00	-4.803446e+00
1.920000e-06	3.756561e-07	-4.820749e-11	2.607959e+00	-3.965504e+00
1.930000e-06	4.223801e-07	-3.982967e-11	2.932336e+00	-3.117387e+00
1.940000e-06	4.690447e-07	-2.762851e-11	3.256300e+00	-2.259738e+00
1.950000e-06	5.156265e-07	-1.440502e-11	3.579690e+00	-1.393236e+00
1.960000e-06	5.622570e-07	-8.188445e-13	3.903419e+00	-5.185968e-01
1.970000e-06	6.088295e-07	1.197524e-11	4.226744e+00	3.634285e-01
1.980000e-06	6.553942e-07	2.204011e-11	4.550015e+00	1.252057e+00
1.990000e-06	7.019714e-07	3.238190e-11	4.873373e+00	2.146475e+00
2.000000e-06	7.483745e-07	4.207960e-11	5.195522e+00	3.045844e+00
2.010000e-06	7.946960e-07	5.458389e-11	5.517106e+00	3.949301e+00
2.020000e-06	8.410557e-07	7.014931e-11	5.838953e+00	4.855961e+00
2.030000e-06	8.873355e-07	8.525346e-11	6.160247e+00	5.764925e+00
2.040000e-06	9.335244e-07	9.951872e-11	6.480909e+00	6.675278e+00
2.050000e-06	9.796118e-07	1.130528e-10	6.800867e+00	7.586097e+00
2.060000e-06	1.025608e-06	1.251239e-10	7.120188e+00	8.496451e+00
2.070000e-06	1.071612e-06	1.377108e-10	7.439567e+00	9.405409e+00
2.080000e-06	1.117541e-06	1.519578e-10	7.758430e+00	1.031204e+01
2.090000e-06	1.163311e-06	1.657136e-10	8.076183e+00	1.121542e+01
2.100000e-06	1.208995e-06	1.798071e-10	8.393336e+00	1.211463e+01
2.110000e-06	1.254570e-06	1.923408e-10	8.709739e+00	1.300877e+01
2.120000e-06	1.300064e-06	2.031311e-10	9.025575e+00	1.389696e+01
2.130000e-06	1.345518e-06	2.139435e-10	9.341139e+00	1.477833e+01
2.140000e-06	1.390853e-06	2.259769e-10	9.655875e+00	1.565203e+01
2.150000e-06	1.436088e-06	2.385060e-10	9.969910e+00	1.651727e+01
2.160000e-06	1.481268e-06	2.525632e-10	1.028357e+01	1.737324e+01
2.170000e-06	1.526355e-06	2.667826e-10	1.059658e+01	1.821921e+01
2.180000e-06	1.571308e-06	2.819131e-10	1.090866e+01	1.905447e+01
2.190000e-06	1.616170e-06	2.943367e-10	1.122012e+01	1.987833e+01
2.200000e-06	1.660936e-06	3.038239e-10	1.153090e+01	2.069017e+01
2.210000e-06	1.705568e-06	3.129842e-10	1.184075e+01	2.148940e+01
2.220000e-06	1.750027e-06	3.216170e-10	1.214940e+01	2.227547e+01
2.230000e-06	1.794325e-06	3.299021e-10	1.245694e+01	2.304789e+01
2.240000e-06	1.838468e-06	3.387634e-10	1.276340e+01	2.380621e+01
2.250000e-06	1.882408e-06	3.500860e-10	1.306845e+01	2.455002e+01
2.260000e-06	1.926250e-06	3.594856e-10	1.337282e+01	2.527896e+01
2.270000e-06	1.970099e-06	3.710770e-10	1.367724e+01	2.599275e+01
2.280000e-06	2.013902e-06	3.845581e-10	1.398133e+01	2.669111e+01
2.290000e-06	2.057607e-06	3.962331e-10	1.428475e+01	2.737384e+01
2.300000e-06	2.101293e-06	4.043910e-10	1.458804e+01	2.804079e+01
2.310000e-06	2.144956e-06	4.107739e-10	1.489116e+01	2.869183e+01
2.320000e-06	2.188506e-06	4.187907e-10	1.519351e+01	2.932690e+01
2.330000e-06	2.231965e-06	4.281596e-10	1.549521e+01	2.994598e+01
2.340000e-06	2.275325e-06	4.400186e-10	1.579624e+01	3.054907e+01
2.350000e-06	2.318498e-06	4.546335e-10	1.609596e+01	3.113623e+01
2.360000e-06	2.361426e-06	4.696990e-10	1.639399e+01	3.170756e+01
2.370000e-06	2.404172e-06	4.797490e-10	1.669075e+01	3.226318e+01
2.380000e-06	2.446712e-06	4.843877e-10	1.698608e+01	3.280326e+01
2.390000e-06	2.488929e-06	4.869389e-10	1.727917e+01	3.332798e+01
2.400000e-06	2.530793e-06	4.899494e-10	1.756980e+01	3.383755e+01
2.410000e-06	2.572236e-06	4.928343e-10	1.785751e+01	3.433223e+01
2.420000e-06	2.613270e-06	4.967399e-10	1.814239e+01	3.481226e+01
2.430000e-06	2.654004e-06	5.056464e-10	1.842519e+01	3.527792e+01
2.440000e-06	2.694594e-06	5.164514e-10	1.870697e+01	3.572952e+01
2.450000e-06	2.734980e-06	5.242934e-10	1.898735e+01	3.616735e+01
2.460000e-06	2.775102e-06	5.319405e-10	1.926589e+01	3.659172e+01
2.470000e-06	2.815085e-06	5.400423e-10	1.954347e+01	3.700296e+01
2.480000e-06	2.854935e-06	5.460746e-10	1.982013e+01	3.740139e+01
2.490000e-06	2.894618e-06	5.496466e-10	2.009562e+01	3.778733e+01
2.500000e-06	2.934132e-06	5.545205e-10	2.036995e+01	3.816111e+01
2.510000e-06	2.973531e-06	5.617775e-10	2.064347e+01	3.852305e+01
2.520000e-06	3.012838e-06	5.681178e-10	2.091636e+01	3.887346e+01
2.530000e-06	3.052016e-06	5.734482e-10	2.118835e+01	3.921264e+01
2.540000e-06	3.090977e-06	5.772406e-10	2.145883e+01	3.954090e+01
2.550000e-06	3.129643e-06	5.791300e-10	2.172726e+01	3.985851e+01
2.560000e-06	3.168035e-06	5.827738e-10	2.199380e+01	4.016576e+01
2.570000e-06	3.206224e-06	5.878770e-10	2.225892e+01	4.046290e+01
2.580000e-06	3.244251e-06	5.922255e-10	2.252292e+01	4.075019e+01
2.590000e-06	3.282076e-06	5.961701e-10	2.278552e+01	4.102785e+01
2.600000e-06	3.319693e-06	6.006708e-10	2.304667e+01	4.129610e+01
2.610000e-06	3.357043e-06	6.037760e-10	2.330597e+01	4.155515e+01
2.620000e-06	3.394114e-06	6.034188e-10	2.356333e+01	4.180519e+01
2.630000e-06	3.430960e-06	6.026561e-10	2.381913e+01	4.204640e+01
2.640000e-06	3.467566e-06	6.058587e-10	2.407326e+01	4.227893e+01
2.650000e-06	3.503928e-06	6.122802e-10	2.432570e+01	4.250294e+01
2.660000e-06	3.540045e-06	6.187487e-10	2.457644e+01	4.271857e+01
2.670000e-06	3.575968e-06	6.221149e-10	2.482584e+01	4.292594e+01
2.680000e-06	3.611729e-06	6.228735e-10	2.507410e+01	4.312517e+01
2.690000e-06	3.647340e-06	6.248412e-10	2.532133e+01	4.331636e+01
2.700000e-06	3.682792e-06	6.271100e-10	2.556745e+01	4.349963e+01
2.710000e-06	3.718071e-06	6.280206e-10	2.581238e+01	4.367507e+01
2.720000e-06	3.753190e-06	6.283848e-10	2.605619e+01	4.384276e+01
2.730000e-06	3.788005e-06	6.296772e-10	2.629788e+01	4.400280e+01
2.740000e-06	3.822404e-06	6.309294e-10	2.653669e+01	4.415527e+01
2.750000e-06	3.856465e-06	6.323922e-10	2.677316e+01	4.430026e+01
2.760000e-06	3.889998e-06	6.344176e-10	2.700596e+01	4.443786e+01
2.770000e-06	3.922948e-06	6.377085e-10	2.723471e+01	4.456816e+01
2.780000e-06	3.955470e-06	6.418240e-10	2.746050e+01	4.469126e+01
2.790000e-06	3.987637e-06	6.461578e-10	2.768381e+01	4.480725e+01
2.800000e-06	4.019577e-06	6.503043e-10	2.790555e+01	4.491624e+01
2.810000e-06	4.051328e-06	6.531341e-10	2.812598e+01	4.501834e+01
2.820000e-06	4.082895e-06	6.547394e-10	2.834513e+01	4.511368e+01
2.830000e-06	4.114315e-06	6.555914e-10	2.856326e+01	4.520238e+01
2.840000e-06	4.145541e-06	6.568126e-10	2.878005e+01	4.528457e+01
2.850000e-06	4.176398e-06	6.593481e-10	2.899427e+01	4.536042e+01
2.860000e-06	4.206926e-06	6.620920e-10	2.920621e+01	4.543006e+01
2.870000e-06	4.237192e-06	6.630657e-10	2.941633e+01	4.549367e+01
2.880000e-06	4.267090e-06	6.629650e-10	2.962389e+01	4.555141e+01
2.890000e-06	4.296679e-06	6.642519e-10	2.982931e+01	4.560348e+01
2.900000e-06	4.326005e-06	6.644626e-10	3.003290e+01	4.565005e+01
