# Temperatura_=_-0.7
# Concentracion g/m^3_=_1620.0
# C_Vs_to_Am_M_A/Vsm_=_65563218390.804596
# pendiente_HvsI_1/m_=_3716.3
# ordenada_HvsI_A/m_=_1297.0
# frecuencia_Hz_=_135101.10423479456

Tiempo_(s)	Campo_(V.s)	Magnetizacion_(V.s)	Campo_(kA/m)	Magnetizacion_(A/m)
0.000000e+00	-5.521337e-06	-1.296944e-09	-3.837146e+01	-8.627982e+01
1.000000e-08	-5.521676e-06	-1.294625e-09	-3.837382e+01	-8.620515e+01
2.000000e-08	-5.521736e-06	-1.294333e-09	-3.837423e+01	-8.613120e+01
3.000000e-08	-5.521481e-06	-1.295154e-09	-3.837246e+01	-8.605805e+01
4.000000e-08	-5.520843e-06	-1.293802e-09	-3.836803e+01	-8.598576e+01
5.000000e-08	-5.519652e-06	-1.285611e-09	-3.835975e+01	-8.591439e+01
6.000000e-08	-5.517838e-06	-1.275270e-09	-3.834714e+01	-8.584397e+01
7.000000e-08	-5.515444e-06	-1.293028e-09	-3.833051e+01	-8.577449e+01
8.000000e-08	-5.512481e-06	-1.338890e-09	-3.830991e+01	-8.570593e+01
9.000000e-08	-5.509005e-06	-1.332239e-09	-3.828576e+01	-8.563827e+01
1.000000e-07	-5.505178e-06	-1.299712e-09	-3.825916e+01	-8.557145e+01
1.100000e-07	-5.501074e-06	-1.300618e-09	-3.823064e+01	-8.550539e+01
1.200000e-07	-5.496583e-06	-1.235574e-09	-3.819943e+01	-8.543999e+01
1.300000e-07	-5.491815e-06	-1.242017e-09	-3.816629e+01	-8.537514e+01
1.400000e-07	-5.486755e-06	-1.304544e-09	-3.813113e+01	-8.531071e+01
1.500000e-07	-5.481230e-06	-1.339412e-09	-3.809273e+01	-8.524656e+01
1.600000e-07	-5.475349e-06	-1.284210e-09	-3.805186e+01	-8.518252e+01
1.700000e-07	-5.469172e-06	-1.207164e-09	-3.800893e+01	-8.511842e+01
1.800000e-07	-5.462624e-06	-1.317547e-09	-3.796342e+01	-8.505406e+01
1.900000e-07	-5.455597e-06	-1.341341e-09	-3.791458e+01	-8.498925e+01
2.000000e-07	-5.448220e-06	-1.277337e-09	-3.786332e+01	-8.492377e+01
2.100000e-07	-5.440568e-06	-1.204566e-09	-3.781014e+01	-8.485740e+01
2.200000e-07	-5.432654e-06	-1.321006e-09	-3.775514e+01	-8.478991e+01
2.300000e-07	-5.424477e-06	-1.372813e-09	-3.769831e+01	-8.472107e+01
2.400000e-07	-5.415894e-06	-1.320548e-09	-3.763867e+01	-8.465064e+01
2.500000e-07	-5.406661e-06	-1.246124e-09	-3.757449e+01	-8.457835e+01
2.600000e-07	-5.396743e-06	-1.291130e-09	-3.750557e+01	-8.450398e+01
2.700000e-07	-5.386201e-06	-1.315092e-09	-3.743231e+01	-8.442726e+01
2.800000e-07	-5.375201e-06	-1.278910e-09	-3.735586e+01	-8.434795e+01
2.900000e-07	-5.363947e-06	-1.268767e-09	-3.727765e+01	-8.426580e+01
3.000000e-07	-5.352267e-06	-1.291822e-09	-3.719648e+01	-8.418055e+01
3.100000e-07	-5.340129e-06	-1.296228e-09	-3.711212e+01	-8.409197e+01
3.200000e-07	-5.327561e-06	-1.255944e-09	-3.702478e+01	-8.399982e+01
3.300000e-07	-5.314547e-06	-1.263052e-09	-3.693434e+01	-8.390385e+01
3.400000e-07	-5.301150e-06	-1.259986e-09	-3.684123e+01	-8.380386e+01
3.500000e-07	-5.287388e-06	-1.292081e-09	-3.674559e+01	-8.369961e+01
3.600000e-07	-5.273241e-06	-1.272999e-09	-3.664727e+01	-8.359091e+01
3.700000e-07	-5.258526e-06	-1.249363e-09	-3.654501e+01	-8.347756e+01
3.800000e-07	-5.243377e-06	-1.248880e-09	-3.643973e+01	-8.335938e+01
3.900000e-07	-5.227804e-06	-1.292705e-09	-3.633150e+01	-8.323618e+01
4.000000e-07	-5.211597e-06	-1.230015e-09	-3.621887e+01	-8.310781e+01
4.100000e-07	-5.195055e-06	-1.206688e-09	-3.610390e+01	-8.297414e+01
4.200000e-07	-5.178337e-06	-1.272194e-09	-3.598772e+01	-8.283502e+01
4.300000e-07	-5.161222e-06	-1.282835e-09	-3.586878e+01	-8.269035e+01
4.400000e-07	-5.143615e-06	-1.194659e-09	-3.574641e+01	-8.254003e+01
4.500000e-07	-5.125633e-06	-1.258008e-09	-3.562145e+01	-8.238399e+01
4.600000e-07	-5.107249e-06	-1.303264e-09	-3.549368e+01	-8.222215e+01
4.700000e-07	-5.088403e-06	-1.194984e-09	-3.536271e+01	-8.205448e+01
4.800000e-07	-5.069261e-06	-1.173249e-09	-3.522968e+01	-8.188095e+01
4.900000e-07	-5.049956e-06	-1.298360e-09	-3.509552e+01	-8.170155e+01
5.000000e-07	-5.030368e-06	-1.237229e-09	-3.495939e+01	-8.151630e+01
5.100000e-07	-5.010546e-06	-1.154418e-09	-3.482163e+01	-8.132522e+01
5.200000e-07	-4.990516e-06	-1.257127e-09	-3.468243e+01	-8.112837e+01
5.300000e-07	-4.970141e-06	-1.276761e-09	-3.454083e+01	-8.092580e+01
5.400000e-07	-4.949353e-06	-1.159095e-09	-3.439636e+01	-8.071761e+01
5.500000e-07	-4.928182e-06	-1.212406e-09	-3.424923e+01	-8.050389e+01
5.600000e-07	-4.906664e-06	-1.269819e-09	-3.409968e+01	-8.028477e+01
5.700000e-07	-4.884774e-06	-1.156526e-09	-3.394756e+01	-8.006037e+01
5.800000e-07	-4.862511e-06	-1.163042e-09	-3.379283e+01	-7.983085e+01
5.900000e-07	-4.839842e-06	-1.269503e-09	-3.363529e+01	-7.959637e+01
6.000000e-07	-4.816902e-06	-1.199371e-09	-3.347587e+01	-7.935711e+01
6.100000e-07	-4.793813e-06	-1.134505e-09	-3.331541e+01	-7.911326e+01
6.200000e-07	-4.770454e-06	-1.221431e-09	-3.315307e+01	-7.886501e+01
6.300000e-07	-4.746765e-06	-1.198615e-09	-3.298844e+01	-7.861259e+01
6.400000e-07	-4.722795e-06	-1.127735e-09	-3.282186e+01	-7.835620e+01
6.500000e-07	-4.698597e-06	-1.180871e-09	-3.265369e+01	-7.809608e+01
6.600000e-07	-4.673947e-06	-1.206810e-09	-3.248238e+01	-7.783244e+01
6.700000e-07	-4.648789e-06	-1.137345e-09	-3.230754e+01	-7.756553e+01
6.800000e-07	-4.623320e-06	-1.163778e-09	-3.213054e+01	-7.729558e+01
6.900000e-07	-4.597326e-06	-1.194217e-09	-3.194989e+01	-7.702283e+01
7.000000e-07	-4.570760e-06	-1.148419e-09	-3.176526e+01	-7.674750e+01
7.100000e-07	-4.543796e-06	-1.137486e-09	-3.157787e+01	-7.646983e+01
7.200000e-07	-4.516521e-06	-1.176193e-09	-3.138832e+01	-7.619004e+01
7.300000e-07	-4.489037e-06	-1.148161e-09	-3.119731e+01	-7.590834e+01
7.400000e-07	-4.461321e-06	-1.135209e-09	-3.100470e+01	-7.562494e+01
7.500000e-07	-4.433339e-06	-1.154049e-09	-3.081023e+01	-7.534003e+01
7.600000e-07	-4.405053e-06	-1.142736e-09	-3.061365e+01	-7.505380e+01
7.700000e-07	-4.376384e-06	-1.117114e-09	-3.041442e+01	-7.476640e+01
7.800000e-07	-4.347383e-06	-1.133928e-09	-3.021287e+01	-7.447800e+01
7.900000e-07	-4.318137e-06	-1.130253e-09	-3.000962e+01	-7.418872e+01
8.000000e-07	-4.288623e-06	-1.112417e-09	-2.980451e+01	-7.389868e+01
8.100000e-07	-4.258818e-06	-1.115838e-09	-2.959737e+01	-7.360796e+01
8.200000e-07	-4.228710e-06	-1.116785e-09	-2.938813e+01	-7.331664e+01
8.300000e-07	-4.198291e-06	-1.093551e-09	-2.917673e+01	-7.302476e+01
8.400000e-07	-4.167579e-06	-1.092886e-09	-2.896329e+01	-7.273235e+01
8.500000e-07	-4.136652e-06	-1.100534e-09	-2.874836e+01	-7.243940e+01
8.600000e-07	-4.105514e-06	-1.081432e-09	-2.853196e+01	-7.214589e+01
8.700000e-07	-4.074129e-06	-1.070482e-09	-2.831384e+01	-7.185177e+01
8.800000e-07	-4.042580e-06	-1.078453e-09	-2.809459e+01	-7.155696e+01
8.900000e-07	-4.010856e-06	-1.069700e-09	-2.787412e+01	-7.126136e+01
9.000000e-07	-3.978887e-06	-1.053336e-09	-2.765194e+01	-7.096485e+01
9.100000e-07	-3.946652e-06	-1.058401e-09	-2.742792e+01	-7.066728e+01
9.200000e-07	-3.914031e-06	-1.055909e-09	-2.720121e+01	-7.036846e+01
9.300000e-07	-3.881026e-06	-1.042656e-09	-2.697184e+01	-7.006822e+01
9.400000e-07	-3.847611e-06	-1.040789e-09	-2.673962e+01	-6.976632e+01
9.500000e-07	-3.813719e-06	-1.045872e-09	-2.650408e+01	-6.946255e+01
9.600000e-07	-3.779433e-06	-1.027021e-09	-2.626580e+01	-6.915663e+01
9.700000e-07	-3.744795e-06	-1.017814e-09	-2.602508e+01	-6.884831e+01
9.800000e-07	-3.709910e-06	-1.018616e-09	-2.578264e+01	-6.853730e+01
9.900000e-07	-3.674768e-06	-1.011144e-09	-2.553841e+01	-6.822330e+01
1.000000e-06	-3.639361e-06	-9.983496e-10	-2.529235e+01	-6.790600e+01
1.010000e-06	-3.603756e-06	-1.003330e-09	-2.504490e+01	-6.758510e+01
1.020000e-06	-3.567915e-06	-9.975212e-10	-2.479583e+01	-6.726026e+01
1.030000e-06	-3.531942e-06	-9.852931e-10	-2.454582e+01	-6.693118e+01
1.040000e-06	-3.495803e-06	-9.797614e-10	-2.429467e+01	-6.659753e+01
1.050000e-06	-3.459396e-06	-9.781723e-10	-2.404165e+01	-6.625898e+01
1.060000e-06	-3.422796e-06	-9.660355e-10	-2.378730e+01	-6.591522e+01
1.070000e-06	-3.385958e-06	-9.591499e-10	-2.353128e+01	-6.556595e+01
1.080000e-06	-3.348782e-06	-9.558374e-10	-2.327293e+01	-6.521086e+01
1.090000e-06	-3.311241e-06	-9.466622e-10	-2.301202e+01	-6.484967e+01
1.100000e-06	-3.273478e-06	-9.336797e-10	-2.274958e+01	-6.448210e+01
1.110000e-06	-3.235599e-06	-9.292801e-10	-2.248634e+01	-6.410791e+01
1.120000e-06	-3.197543e-06	-9.228244e-10	-2.222186e+01	-6.372684e+01
1.130000e-06	-3.159234e-06	-9.160874e-10	-2.195563e+01	-6.333869e+01
1.140000e-06	-3.120749e-06	-9.148024e-10	-2.168817e+01	-6.294325e+01
1.150000e-06	-3.082111e-06	-9.098381e-10	-2.141965e+01	-6.254036e+01
1.160000e-06	-3.043186e-06	-8.980065e-10	-2.114913e+01	-6.212985e+01
1.170000e-06	-3.003980e-06	-8.885338e-10	-2.087666e+01	-6.171162e+01
1.180000e-06	-2.964589e-06	-8.828577e-10	-2.060291e+01	-6.128555e+01
1.190000e-06	-2.925109e-06	-8.740707e-10	-2.032854e+01	-6.085157e+01
1.200000e-06	-2.885494e-06	-8.688229e-10	-2.005323e+01	-6.040963e+01
1.210000e-06	-2.845741e-06	-8.659315e-10	-1.977695e+01	-5.995970e+01
1.220000e-06	-2.805856e-06	-8.621079e-10	-1.949976e+01	-5.950179e+01
1.230000e-06	-2.765819e-06	-8.522845e-10	-1.922153e+01	-5.903591e+01
1.240000e-06	-2.725677e-06	-8.450253e-10	-1.894255e+01	-5.856211e+01
1.250000e-06	-2.685350e-06	-8.356232e-10	-1.866229e+01	-5.808045e+01
1.260000e-06	-2.644761e-06	-8.259162e-10	-1.838021e+01	-5.759101e+01
1.270000e-06	-2.603857e-06	-8.166293e-10	-1.809594e+01	-5.709389e+01
1.280000e-06	-2.562694e-06	-8.088960e-10	-1.780987e+01	-5.658920e+01
1.290000e-06	-2.521299e-06	-8.007025e-10	-1.752219e+01	-5.607705e+01
1.300000e-06	-2.479575e-06	-7.932833e-10	-1.723222e+01	-5.555759e+01
1.310000e-06	-2.437516e-06	-7.844773e-10	-1.693992e+01	-5.503094e+01
1.320000e-06	-2.395175e-06	-7.760465e-10	-1.664567e+01	-5.449724e+01
1.330000e-06	-2.352569e-06	-7.672480e-10	-1.634957e+01	-5.395663e+01
1.340000e-06	-2.309708e-06	-7.601999e-10	-1.605171e+01	-5.340923e+01
1.350000e-06	-2.266632e-06	-7.505170e-10	-1.575234e+01	-5.285516e+01
1.360000e-06	-2.223381e-06	-7.415040e-10	-1.545176e+01	-5.229454e+01
1.370000e-06	-2.179957e-06	-7.316505e-10	-1.514998e+01	-5.172746e+01
1.380000e-06	-2.136424e-06	-7.245971e-10	-1.484744e+01	-5.115399e+01
1.390000e-06	-2.092871e-06	-7.192191e-10	-1.454476e+01	-5.057419e+01
1.400000e-06	-2.049157e-06	-7.115252e-10	-1.424096e+01	-4.998808e+01
1.410000e-06	-2.005301e-06	-7.003517e-10	-1.393618e+01	-4.939567e+01
1.420000e-06	-1.961351e-06	-6.892772e-10	-1.363074e+01	-4.879691e+01
1.430000e-06	-1.917354e-06	-6.791126e-10	-1.332497e+01	-4.819175e+01
1.440000e-06	-1.873292e-06	-6.688045e-10	-1.301875e+01	-4.758009e+01
1.450000e-06	-1.829051e-06	-6.604334e-10	-1.271129e+01	-4.696178e+01
1.460000e-06	-1.784654e-06	-6.552122e-10	-1.240275e+01	-4.633664e+01
1.470000e-06	-1.740141e-06	-6.479633e-10	-1.209340e+01	-4.570446e+01
1.480000e-06	-1.695504e-06	-6.370408e-10	-1.178319e+01	-4.506497e+01
1.490000e-06	-1.650810e-06	-6.225881e-10	-1.147258e+01	-4.441788e+01
1.500000e-06	-1.606012e-06	-6.107326e-10	-1.116125e+01	-4.376282e+01
1.510000e-06	-1.561010e-06	-6.028857e-10	-1.084850e+01	-4.309942e+01
1.520000e-06	-1.515871e-06	-5.959662e-10	-1.053480e+01	-4.242724e+01
1.530000e-06	-1.470638e-06	-5.906024e-10	-1.022045e+01	-4.174582e+01
1.540000e-06	-1.425356e-06	-5.814953e-10	-9.905752e+00	-4.105466e+01
1.550000e-06	-1.380041e-06	-5.684426e-10	-9.590828e+00	-4.035320e+01
1.560000e-06	-1.334666e-06	-5.515491e-10	-9.275488e+00	-3.964088e+01
1.570000e-06	-1.289143e-06	-5.345648e-10	-8.959118e+00	-3.891708e+01
1.580000e-06	-1.243501e-06	-5.182203e-10	-8.641921e+00	-3.818119e+01
1.590000e-06	-1.197801e-06	-5.053023e-10	-8.324320e+00	-3.743254e+01
1.600000e-06	-1.151925e-06	-4.932377e-10	-8.005495e+00	-3.667047e+01
1.610000e-06	-1.105923e-06	-4.821929e-10	-7.685796e+00	-3.589428e+01
1.620000e-06	-1.059897e-06	-4.697614e-10	-7.365934e+00	-3.510330e+01
1.630000e-06	-1.013808e-06	-4.601435e-10	-7.045627e+00	-3.429682e+01
1.640000e-06	-9.677483e-07	-4.515242e-10	-6.725529e+00	-3.347414e+01
1.650000e-06	-9.216014e-07	-4.385091e-10	-6.404824e+00	-3.263459e+01
1.660000e-06	-8.753770e-07	-4.218181e-10	-6.083579e+00	-3.177749e+01
1.670000e-06	-8.290654e-07	-4.060041e-10	-5.761729e+00	-3.090219e+01
1.680000e-06	-7.826428e-07	-3.901273e-10	-5.439107e+00	-3.000806e+01
1.690000e-06	-7.361949e-07	-3.740190e-10	-5.116310e+00	-2.909451e+01
1.700000e-06	-6.896912e-07	-3.589071e-10	-4.793125e+00	-2.816098e+01
1.710000e-06	-6.432109e-07	-3.458235e-10	-4.470102e+00	-2.720695e+01
1.720000e-06	-5.967315e-07	-3.341361e-10	-4.147086e+00	-2.623196e+01
1.730000e-06	-5.502344e-07	-3.214184e-10	-3.823946e+00	-2.523559e+01
1.740000e-06	-5.036750e-07	-3.039011e-10	-3.500374e+00	-2.421750e+01
1.750000e-06	-4.570711e-07	-2.828178e-10	-3.176492e+00	-2.317739e+01
1.760000e-06	-4.104277e-07	-2.639662e-10	-2.852336e+00	-2.211505e+01
1.770000e-06	-3.636853e-07	-2.467315e-10	-2.527492e+00	-2.103033e+01
1.780000e-06	-3.168997e-07	-2.338865e-10	-2.202347e+00	-1.992315e+01
1.790000e-06	-2.700649e-07	-2.234578e-10	-1.876861e+00	-1.879353e+01
1.800000e-06	-2.231795e-07	-2.108560e-10	-1.551024e+00	-1.764155e+01
1.810000e-06	-1.763537e-07	-1.938061e-10	-1.225599e+00	-1.646740e+01
1.820000e-06	-1.295789e-07	-1.750402e-10	-9.005306e-01	-1.527133e+01
1.830000e-06	-8.281175e-08	-1.572592e-10	-5.755141e-01	-1.405369e+01
1.840000e-06	-3.599766e-08	-1.405082e-10	-2.501718e-01	-1.281492e+01
1.850000e-06	1.082392e-08	-1.244371e-10	7.522268e-02	-1.155555e+01
1.860000e-06	5.760517e-08	-1.096870e-10	4.003368e-01	-1.027617e+01
1.870000e-06	1.044162e-07	-9.583107e-11	7.256578e-01	-8.977488e+00
1.880000e-06	1.512187e-07	-7.977421e-11	1.050920e+00	-7.660282e+00
1.890000e-06	1.979624e-07	-6.059796e-11	1.375773e+00	-6.325409e+00
1.900000e-06	2.447313e-07	-3.858632e-11	1.700802e+00	-4.973808e+00
1.910000e-06	2.915478e-07	-1.466083e-11	2.026161e+00	-3.606489e+00
1.920000e-06	3.383352e-07	7.392346e-12	2.351317e+00	-2.224533e+00
1.930000e-06	3.850172e-07	2.522122e-11	2.675742e+00	-8.290849e-01
1.940000e-06	4.316272e-07	3.928556e-11	2.999666e+00	5.786483e-01
1.950000e-06	4.782753e-07	5.274557e-11	3.323854e+00	1.997406e+00
1.960000e-06	5.249790e-07	7.013179e-11	3.648430e+00	3.425880e+00
1.970000e-06	5.716611e-07	9.019159e-11	3.972854e+00	4.862719e+00
1.980000e-06	6.181654e-07	1.109278e-10	4.296044e+00	6.306535e+00
1.990000e-06	6.645391e-07	1.323195e-10	4.618326e+00	7.755912e+00
2.000000e-06	7.108741e-07	1.540115e-10	4.940339e+00	9.209412e+00
2.010000e-06	7.572326e-07	1.735209e-10	5.262515e+00	1.066558e+01
2.020000e-06	8.035165e-07	1.917674e-10	5.584173e+00	1.212296e+01
2.030000e-06	8.496303e-07	2.106351e-10	5.904648e+00	1.358008e+01
2.040000e-06	8.957504e-07	2.299104e-10	6.225168e+00	1.503550e+01
2.050000e-06	9.418645e-07	2.488475e-10	6.545645e+00	1.648776e+01
2.060000e-06	9.878734e-07	2.679441e-10	6.865392e+00	1.793544e+01
2.070000e-06	1.033809e-06	2.883666e-10	7.184630e+00	1.937716e+01
2.080000e-06	1.079693e-06	3.117267e-10	7.503511e+00	2.081154e+01
2.090000e-06	1.125573e-06	3.326528e-10	7.822359e+00	2.223727e+01
2.100000e-06	1.171402e-06	3.534412e-10	8.140857e+00	2.365306e+01
2.110000e-06	1.217085e-06	3.744080e-10	8.458335e+00	2.505769e+01
2.120000e-06	1.262616e-06	3.914989e-10	8.774764e+00	2.644998e+01
2.130000e-06	1.308053e-06	4.076933e-10	9.090532e+00	2.782882e+01
2.140000e-06	1.353445e-06	4.244352e-10	9.405994e+00	2.919316e+01
2.150000e-06	1.398761e-06	4.450601e-10	9.720925e+00	3.054203e+01
2.160000e-06	1.444050e-06	4.669333e-10	1.003567e+01	3.187449e+01
2.170000e-06	1.489214e-06	4.867138e-10	1.034954e+01	3.318973e+01
2.180000e-06	1.534216e-06	5.046914e-10	1.066229e+01	3.448697e+01
2.190000e-06	1.579135e-06	5.226951e-10	1.097447e+01	3.576551e+01
2.200000e-06	1.623895e-06	5.384344e-10	1.128553e+01	3.702476e+01
2.210000e-06	1.668552e-06	5.548617e-10	1.159588e+01	3.826416e+01
2.220000e-06	1.713117e-06	5.722319e-10	1.190559e+01	3.948326e+01
2.230000e-06	1.757522e-06	5.922736e-10	1.221420e+01	4.068167e+01
2.240000e-06	1.801800e-06	6.136036e-10	1.252191e+01	4.185909e+01
2.250000e-06	1.845963e-06	6.307094e-10	1.282883e+01	4.301526e+01
2.260000e-06	1.890013e-06	6.445634e-10	1.313496e+01	4.415002e+01
2.270000e-06	1.933927e-06	6.585165e-10	1.344015e+01	4.526326e+01
2.280000e-06	1.977776e-06	6.764647e-10	1.374488e+01	4.635495e+01
2.290000e-06	2.021590e-06	6.939137e-10	1.404938e+01	4.742509e+01
2.300000e-06	2.065353e-06	7.100475e-10	1.435352e+01	4.847378e+01
2.310000e-06	2.109088e-06	7.264946e-10	1.465746e+01	4.950113e+01
2.320000e-06	2.152701e-06	7.447533e-10	1.496055e+01	5.050732e+01
2.330000e-06	2.196193e-06	7.611633e-10	1.526281e+01	5.149258e+01
2.340000e-06	2.239578e-06	7.747485e-10	1.556432e+01	5.245714e+01
2.350000e-06	2.282808e-06	7.884672e-10	1.586476e+01	5.340132e+01
2.360000e-06	2.325898e-06	8.043919e-10	1.616422e+01	5.432543e+01
2.370000e-06	2.368743e-06	8.213189e-10	1.646198e+01	5.522981e+01
2.380000e-06	2.411335e-06	8.349658e-10	1.675798e+01	5.611483e+01
2.390000e-06	2.453721e-06	8.454981e-10	1.705255e+01	5.698087e+01
2.400000e-06	2.495690e-06	8.574570e-10	1.734422e+01	5.782832e+01
2.410000e-06	2.537121e-06	8.697036e-10	1.763215e+01	5.865758e+01
2.420000e-06	2.578277e-06	8.816346e-10	1.791817e+01	5.946905e+01
2.430000e-06	2.619182e-06	8.961257e-10	1.820244e+01	6.026312e+01
2.440000e-06	2.659804e-06	9.109574e-10	1.848476e+01	6.104019e+01
2.450000e-06	2.700222e-06	9.221952e-10	1.876564e+01	6.180065e+01
2.460000e-06	2.740425e-06	9.280518e-10	1.904504e+01	6.254487e+01
2.470000e-06	2.780458e-06	9.353931e-10	1.932326e+01	6.327322e+01
2.480000e-06	2.820293e-06	9.457987e-10	1.960010e+01	6.398602e+01
2.490000e-06	2.860056e-06	9.564985e-10	1.987644e+01	6.468363e+01
2.500000e-06	2.899721e-06	9.676222e-10	2.015210e+01	6.536633e+01
2.510000e-06	2.939216e-06	9.785299e-10	2.042658e+01	6.603442e+01
2.520000e-06	2.978595e-06	9.902910e-10	2.070024e+01	6.668816e+01
2.530000e-06	3.017829e-06	1.001361e-09	2.097291e+01	6.732781e+01
2.540000e-06	3.056899e-06	1.008120e-09	2.124444e+01	6.795358e+01
2.550000e-06	3.095684e-06	1.011076e-09	2.151397e+01	6.856567e+01
2.560000e-06	3.134233e-06	1.013289e-09	2.178188e+01	6.916428e+01
2.570000e-06	3.172633e-06	1.018119e-09	2.204875e+01	6.974955e+01
2.580000e-06	3.210766e-06	1.024800e-09	2.231376e+01	7.032163e+01
2.590000e-06	3.248608e-06	1.034378e-09	2.257674e+01	7.088066e+01
2.600000e-06	3.286266e-06	1.045165e-09	2.283846e+01	7.142674e+01
2.610000e-06	3.323752e-06	1.055715e-09	2.309898e+01	7.195997e+01
2.620000e-06	3.361057e-06	1.062301e-09	2.335823e+01	7.248045e+01
2.630000e-06	3.398144e-06	1.063352e-09	2.361598e+01	7.298824e+01
2.640000e-06	3.434863e-06	1.062895e-09	2.387116e+01	7.348342e+01
2.650000e-06	3.471352e-06	1.063563e-09	2.412474e+01	7.396606e+01
2.660000e-06	3.507617e-06	1.066571e-09	2.437677e+01	7.443623e+01
2.670000e-06	3.543610e-06	1.074346e-09	2.462691e+01	7.489399e+01
2.680000e-06	3.579467e-06	1.084200e-09	2.487611e+01	7.533941e+01
2.690000e-06	3.615182e-06	1.097471e-09	2.512431e+01	7.577257e+01
2.700000e-06	3.650782e-06	1.108101e-09	2.537172e+01	7.619355e+01
2.710000e-06	3.686253e-06	1.111569e-09	2.561823e+01	7.660244e+01
2.720000e-06	3.721575e-06	1.111233e-09	2.586371e+01	7.699935e+01
2.730000e-06	3.756662e-06	1.109752e-09	2.610755e+01	7.738438e+01
2.740000e-06	3.791349e-06	1.111651e-09	2.634862e+01	7.775768e+01
2.750000e-06	3.825490e-06	1.114552e-09	2.658588e+01	7.811939e+01
2.760000e-06	3.859055e-06	1.121324e-09	2.681915e+01	7.846967e+01
2.770000e-06	3.892151e-06	1.131031e-09	2.704915e+01	7.880871e+01
2.780000e-06	3.924923e-06	1.139646e-09	2.727691e+01	7.913670e+01
2.790000e-06	3.957382e-06	1.144041e-09	2.750249e+01	7.945386e+01
2.800000e-06	3.989554e-06	1.147173e-09	2.772607e+01	7.976044e+01
2.810000e-06	4.021523e-06	1.147949e-09	2.794825e+01	8.005667e+01
2.820000e-06	4.053264e-06	1.148023e-09	2.816884e+01	8.034285e+01
2.830000e-06	4.084854e-06	1.151039e-09	2.838838e+01	8.061925e+01
2.840000e-06	4.116235e-06	1.156054e-09	2.860647e+01	8.088618e+01
2.850000e-06	4.147373e-06	1.162694e-09	2.882287e+01	8.114397e+01
2.860000e-06	4.178252e-06	1.168958e-09	2.903746e+01	8.139295e+01
2.870000e-06	4.208665e-06	1.173976e-09	2.924882e+01	8.163346e+01
2.880000e-06	4.238758e-06	1.179306e-09	2.945796e+01	8.186586e+01
2.890000e-06	4.268693e-06	1.183619e-09	2.966600e+01	8.209051e+01
2.900000e-06	4.298382e-06	1.187269e-09	2.987232e+01	8.230777e+01
