# Temperatura_=_4.68
# Concentracion g/m^3_=_1620.0
# C_Vs_to_Am_M_A/Vsm_=_65563218390.804596
# pendiente_HvsI_1/m_=_3716.3
# ordenada_HvsI_A/m_=_1297.0
# frecuencia_Hz_=_135091.8510628101

Tiempo_(s)	Campo_(V.s)	Magnetizacion_(V.s)	Campo_(kA/m)	Magnetizacion_(A/m)
0.000000e+00	-5.518059e-06	-1.275452e-09	-3.836886e+01	-8.358746e+01
1.000000e-08	-5.518347e-06	-1.271686e-09	-3.837087e+01	-8.354401e+01
2.000000e-08	-5.518378e-06	-1.269815e-09	-3.837108e+01	-8.350267e+01
3.000000e-08	-5.518111e-06	-1.269474e-09	-3.836923e+01	-8.346342e+01
4.000000e-08	-5.517506e-06	-1.268411e-09	-3.836502e+01	-8.342622e+01
5.000000e-08	-5.516409e-06	-1.263548e-09	-3.835739e+01	-8.339098e+01
6.000000e-08	-5.514795e-06	-1.256806e-09	-3.834617e+01	-8.335761e+01
7.000000e-08	-5.512557e-06	-1.284801e-09	-3.833061e+01	-8.332597e+01
8.000000e-08	-5.509604e-06	-1.323344e-09	-3.831007e+01	-8.329589e+01
9.000000e-08	-5.506106e-06	-1.291164e-09	-3.828575e+01	-8.326719e+01
1.000000e-07	-5.502250e-06	-1.247672e-09	-3.825894e+01	-8.323964e+01
1.100000e-07	-5.498071e-06	-1.299756e-09	-3.822988e+01	-8.321302e+01
1.200000e-07	-5.493509e-06	-1.320135e-09	-3.819816e+01	-8.318704e+01
1.300000e-07	-5.488691e-06	-1.242289e-09	-3.816466e+01	-8.316144e+01
1.400000e-07	-5.483630e-06	-1.203773e-09	-3.812947e+01	-8.313591e+01
1.500000e-07	-5.478231e-06	-1.276093e-09	-3.809193e+01	-8.311012e+01
1.600000e-07	-5.472394e-06	-1.323669e-09	-3.805134e+01	-8.308374e+01
1.700000e-07	-5.466128e-06	-1.250297e-09	-3.800777e+01	-8.305642e+01
1.800000e-07	-5.459469e-06	-1.213911e-09	-3.796147e+01	-8.302780e+01
1.900000e-07	-5.452436e-06	-1.266069e-09	-3.791257e+01	-8.299750e+01
2.000000e-07	-5.445052e-06	-1.302266e-09	-3.786122e+01	-8.296516e+01
2.100000e-07	-5.437342e-06	-1.282709e-09	-3.780761e+01	-8.293038e+01
2.200000e-07	-5.429468e-06	-1.287463e-09	-3.775286e+01	-8.289278e+01
2.300000e-07	-5.421364e-06	-1.315243e-09	-3.769651e+01	-8.285199e+01
2.400000e-07	-5.412745e-06	-1.319858e-09	-3.763658e+01	-8.280760e+01
2.500000e-07	-5.403599e-06	-1.290117e-09	-3.757299e+01	-8.275925e+01
2.600000e-07	-5.393972e-06	-1.270338e-09	-3.750605e+01	-8.270656e+01
2.700000e-07	-5.383601e-06	-1.281650e-09	-3.743393e+01	-8.264917e+01
2.800000e-07	-5.372589e-06	-1.291361e-09	-3.735736e+01	-8.258671e+01
2.900000e-07	-5.361264e-06	-1.295272e-09	-3.727862e+01	-8.251886e+01
3.000000e-07	-5.349593e-06	-1.280372e-09	-3.719746e+01	-8.244527e+01
3.100000e-07	-5.337453e-06	-1.267815e-09	-3.711305e+01	-8.236564e+01
3.200000e-07	-5.324885e-06	-1.279244e-09	-3.702566e+01	-8.227966e+01
3.300000e-07	-5.311916e-06	-1.279810e-09	-3.693548e+01	-8.218707e+01
3.400000e-07	-5.298563e-06	-1.237946e-09	-3.684264e+01	-8.208761e+01
3.500000e-07	-5.284828e-06	-1.248337e-09	-3.674713e+01	-8.198103e+01
3.600000e-07	-5.270715e-06	-1.294137e-09	-3.664900e+01	-8.186713e+01
3.700000e-07	-5.256244e-06	-1.277545e-09	-3.654838e+01	-8.174572e+01
3.800000e-07	-5.241264e-06	-1.245260e-09	-3.644422e+01	-8.161663e+01
3.900000e-07	-5.225734e-06	-1.290792e-09	-3.633623e+01	-8.147973e+01
4.000000e-07	-5.209745e-06	-1.267588e-09	-3.622505e+01	-8.133490e+01
4.100000e-07	-5.193214e-06	-1.191989e-09	-3.611011e+01	-8.118205e+01
4.200000e-07	-5.176157e-06	-1.246063e-09	-3.599151e+01	-8.102114e+01
4.300000e-07	-5.158883e-06	-1.307505e-09	-3.587140e+01	-8.085212e+01
4.400000e-07	-5.141484e-06	-1.219716e-09	-3.575042e+01	-8.067499e+01
4.500000e-07	-5.123691e-06	-1.200915e-09	-3.562670e+01	-8.048977e+01
4.600000e-07	-5.105526e-06	-1.304974e-09	-3.550039e+01	-8.029651e+01
4.700000e-07	-5.086916e-06	-1.252109e-09	-3.537099e+01	-8.009528e+01
4.800000e-07	-5.067811e-06	-1.169216e-09	-3.523814e+01	-7.988619e+01
4.900000e-07	-5.048506e-06	-1.261579e-09	-3.510391e+01	-7.966935e+01
5.000000e-07	-5.028966e-06	-1.282987e-09	-3.496804e+01	-7.944492e+01
5.100000e-07	-5.009100e-06	-1.168911e-09	-3.482991e+01	-7.921306e+01
5.200000e-07	-4.988976e-06	-1.215141e-09	-3.468997e+01	-7.897397e+01
5.300000e-07	-4.968551e-06	-1.287500e-09	-3.454796e+01	-7.872786e+01
5.400000e-07	-4.947792e-06	-1.187850e-09	-3.440361e+01	-7.847495e+01
5.500000e-07	-4.926644e-06	-1.162972e-09	-3.425656e+01	-7.821550e+01
5.600000e-07	-4.905185e-06	-1.258469e-09	-3.410735e+01	-7.794976e+01
5.700000e-07	-4.883482e-06	-1.209140e-09	-3.395644e+01	-7.767802e+01
5.800000e-07	-4.861395e-06	-1.153146e-09	-3.380287e+01	-7.740056e+01
5.900000e-07	-4.838938e-06	-1.234024e-09	-3.364671e+01	-7.711767e+01
6.000000e-07	-4.816066e-06	-1.230052e-09	-3.348768e+01	-7.682966e+01
6.100000e-07	-4.792882e-06	-1.147501e-09	-3.332648e+01	-7.653685e+01
6.200000e-07	-4.769506e-06	-1.183153e-09	-3.316393e+01	-7.623954e+01
6.300000e-07	-4.745826e-06	-1.207456e-09	-3.299927e+01	-7.593804e+01
6.400000e-07	-4.721824e-06	-1.148772e-09	-3.283238e+01	-7.563268e+01
6.500000e-07	-4.697559e-06	-1.164888e-09	-3.266366e+01	-7.532375e+01
6.600000e-07	-4.672949e-06	-1.203679e-09	-3.249254e+01	-7.501157e+01
6.700000e-07	-4.647838e-06	-1.163561e-09	-3.231793e+01	-7.469643e+01
6.800000e-07	-4.622260e-06	-1.156396e-09	-3.214008e+01	-7.437862e+01
6.900000e-07	-4.596281e-06	-1.187977e-09	-3.195944e+01	-7.405841e+01
7.000000e-07	-4.569776e-06	-1.159982e-09	-3.177514e+01	-7.373606e+01
7.100000e-07	-4.542761e-06	-1.141862e-09	-3.158730e+01	-7.341182e+01
7.200000e-07	-4.515457e-06	-1.168663e-09	-3.139745e+01	-7.308591e+01
7.300000e-07	-4.487868e-06	-1.159690e-09	-3.120561e+01	-7.275855e+01
7.400000e-07	-4.460016e-06	-1.134212e-09	-3.101195e+01	-7.242992e+01
7.500000e-07	-4.431992e-06	-1.141889e-09	-3.081709e+01	-7.210018e+01
7.600000e-07	-4.403788e-06	-1.132847e-09	-3.062097e+01	-7.176948e+01
7.700000e-07	-4.375325e-06	-1.112314e-09	-3.042306e+01	-7.143794e+01
7.800000e-07	-4.346482e-06	-1.118640e-09	-3.022251e+01	-7.110564e+01
7.900000e-07	-4.317305e-06	-1.120372e-09	-3.001963e+01	-7.077266e+01
8.000000e-07	-4.287801e-06	-1.100560e-09	-2.981448e+01	-7.043904e+01
8.100000e-07	-4.257926e-06	-1.099280e-09	-2.960675e+01	-7.010479e+01
8.200000e-07	-4.227811e-06	-1.098093e-09	-2.939735e+01	-6.976989e+01
8.300000e-07	-4.197473e-06	-1.074627e-09	-2.918640e+01	-6.943430e+01
8.400000e-07	-4.166795e-06	-1.060598e-09	-2.897308e+01	-6.909797e+01
8.500000e-07	-4.135774e-06	-1.066312e-09	-2.875739e+01	-6.876079e+01
8.600000e-07	-4.104544e-06	-1.056627e-09	-2.854024e+01	-6.842265e+01
8.700000e-07	-4.073203e-06	-1.044468e-09	-2.832231e+01	-6.808342e+01
8.800000e-07	-4.041628e-06	-1.046887e-09	-2.810276e+01	-6.774293e+01
8.900000e-07	-4.009828e-06	-1.041666e-09	-2.788164e+01	-6.740100e+01
9.000000e-07	-3.977877e-06	-1.022530e-09	-2.765948e+01	-6.705742e+01
9.100000e-07	-3.945613e-06	-1.015293e-09	-2.743513e+01	-6.671198e+01
9.200000e-07	-3.913008e-06	-1.014348e-09	-2.720842e+01	-6.636444e+01
9.300000e-07	-3.880060e-06	-9.998658e-10	-2.697932e+01	-6.601455e+01
9.400000e-07	-3.846723e-06	-9.910676e-10	-2.674752e+01	-6.566206e+01
9.500000e-07	-3.813081e-06	-9.934112e-10	-2.651360e+01	-6.530669e+01
9.600000e-07	-3.779018e-06	-9.828960e-10	-2.627674e+01	-6.494817e+01
9.700000e-07	-3.744366e-06	-9.677491e-10	-2.603580e+01	-6.458623e+01
9.800000e-07	-3.709280e-06	-9.664184e-10	-2.579183e+01	-6.422058e+01
9.900000e-07	-3.673969e-06	-9.601065e-10	-2.554631e+01	-6.385094e+01
1.000000e-06	-3.638468e-06	-9.475055e-10	-2.529945e+01	-6.347705e+01
1.010000e-06	-3.602785e-06	-9.403534e-10	-2.505134e+01	-6.309864e+01
1.020000e-06	-3.566917e-06	-9.395058e-10	-2.480194e+01	-6.271545e+01
1.030000e-06	-3.530886e-06	-9.311446e-10	-2.455140e+01	-6.232723e+01
1.040000e-06	-3.494702e-06	-9.208879e-10	-2.429980e+01	-6.193376e+01
1.050000e-06	-3.458298e-06	-9.135604e-10	-2.404667e+01	-6.153481e+01
1.060000e-06	-3.421588e-06	-9.027915e-10	-2.379142e+01	-6.113019e+01
1.070000e-06	-3.384640e-06	-8.903629e-10	-2.353451e+01	-6.071972e+01
1.080000e-06	-3.347599e-06	-8.828080e-10	-2.327695e+01	-6.030325e+01
1.090000e-06	-3.310290e-06	-8.779340e-10	-2.301753e+01	-5.988064e+01
1.100000e-06	-3.272606e-06	-8.695738e-10	-2.275550e+01	-5.945179e+01
1.110000e-06	-3.234711e-06	-8.638225e-10	-2.249200e+01	-5.901662e+01
1.120000e-06	-3.196656e-06	-8.611126e-10	-2.222739e+01	-5.857506e+01
1.130000e-06	-3.158397e-06	-8.527786e-10	-2.196137e+01	-5.812709e+01
1.140000e-06	-3.119916e-06	-8.445625e-10	-2.169379e+01	-5.767269e+01
1.150000e-06	-3.081205e-06	-8.375731e-10	-2.142462e+01	-5.721191e+01
1.160000e-06	-3.042272e-06	-8.299915e-10	-2.115391e+01	-5.674477e+01
1.170000e-06	-3.003086e-06	-8.222154e-10	-2.088144e+01	-5.627136e+01
1.180000e-06	-2.963689e-06	-8.158388e-10	-2.060750e+01	-5.579177e+01
1.190000e-06	-2.924189e-06	-8.081569e-10	-2.033284e+01	-5.530612e+01
1.200000e-06	-2.884539e-06	-7.979440e-10	-2.005714e+01	-5.481454e+01
1.210000e-06	-2.844689e-06	-7.930717e-10	-1.978005e+01	-5.431720e+01
1.220000e-06	-2.804613e-06	-7.887517e-10	-1.950139e+01	-5.381426e+01
1.230000e-06	-2.764449e-06	-7.829381e-10	-1.922212e+01	-5.330591e+01
1.240000e-06	-2.724226e-06	-7.756356e-10	-1.894243e+01	-5.279236e+01
1.250000e-06	-2.683766e-06	-7.650935e-10	-1.866110e+01	-5.227379e+01
1.260000e-06	-2.643145e-06	-7.535311e-10	-1.837865e+01	-5.175043e+01
1.270000e-06	-2.602271e-06	-7.446030e-10	-1.809444e+01	-5.122247e+01
1.280000e-06	-2.561161e-06	-7.395351e-10	-1.780859e+01	-5.069014e+01
1.290000e-06	-2.519888e-06	-7.387357e-10	-1.752160e+01	-5.015362e+01
1.300000e-06	-2.478256e-06	-7.359265e-10	-1.723212e+01	-4.961311e+01
1.310000e-06	-2.436311e-06	-7.275211e-10	-1.694047e+01	-4.906878e+01
1.320000e-06	-2.394118e-06	-7.134995e-10	-1.664708e+01	-4.852080e+01
1.330000e-06	-2.351652e-06	-6.997156e-10	-1.635180e+01	-4.796931e+01
1.340000e-06	-2.308893e-06	-6.874881e-10	-1.605449e+01	-4.741442e+01
1.350000e-06	-2.265881e-06	-6.775158e-10	-1.575541e+01	-4.685622e+01
1.360000e-06	-2.222627e-06	-6.715270e-10	-1.545465e+01	-4.629476e+01
1.370000e-06	-2.179142e-06	-6.679814e-10	-1.515228e+01	-4.573006e+01
1.380000e-06	-2.135527e-06	-6.643671e-10	-1.484902e+01	-4.516212e+01
1.390000e-06	-2.091859e-06	-6.583345e-10	-1.454538e+01	-4.459088e+01
1.400000e-06	-2.048138e-06	-6.455615e-10	-1.424137e+01	-4.401625e+01
1.410000e-06	-2.004269e-06	-6.286033e-10	-1.393633e+01	-4.343808e+01
1.420000e-06	-1.960249e-06	-6.144763e-10	-1.363025e+01	-4.285619e+01
1.430000e-06	-1.916205e-06	-6.049980e-10	-1.332400e+01	-4.227035e+01
1.440000e-06	-1.872102e-06	-5.964297e-10	-1.301734e+01	-4.168029e+01
1.450000e-06	-1.827864e-06	-5.870190e-10	-1.270973e+01	-4.108568e+01
1.460000e-06	-1.783516e-06	-5.793730e-10	-1.240137e+01	-4.048615e+01
1.470000e-06	-1.739121e-06	-5.717399e-10	-1.209268e+01	-3.988128e+01
1.480000e-06	-1.694649e-06	-5.607796e-10	-1.178345e+01	-3.927061e+01
1.490000e-06	-1.650033e-06	-5.470197e-10	-1.147322e+01	-3.865363e+01
1.500000e-06	-1.605236e-06	-5.371025e-10	-1.116173e+01	-3.802980e+01
1.510000e-06	-1.560291e-06	-5.282601e-10	-1.084921e+01	-3.739851e+01
1.520000e-06	-1.515306e-06	-5.173698e-10	-1.053642e+01	-3.675916e+01
1.530000e-06	-1.470279e-06	-5.065666e-10	-1.022333e+01	-3.611107e+01
1.540000e-06	-1.425136e-06	-4.946755e-10	-9.909432e+00	-3.545356e+01
1.550000e-06	-1.379795e-06	-4.792766e-10	-9.594166e+00	-3.478591e+01
1.560000e-06	-1.334273e-06	-4.684933e-10	-9.277639e+00	-3.410740e+01
1.570000e-06	-1.288707e-06	-4.625947e-10	-8.960800e+00	-3.341725e+01
1.580000e-06	-1.243132e-06	-4.539900e-10	-8.643902e+00	-3.271472e+01
1.590000e-06	-1.197462e-06	-4.458698e-10	-8.326344e+00	-3.199904e+01
1.600000e-06	-1.151616e-06	-4.341022e-10	-8.007559e+00	-3.126942e+01
1.610000e-06	-1.105633e-06	-4.177245e-10	-7.687829e+00	-3.052512e+01
1.620000e-06	-1.059584e-06	-4.021682e-10	-7.367635e+00	-2.976537e+01
1.630000e-06	-1.013408e-06	-3.926213e-10	-7.046554e+00	-2.898943e+01
1.640000e-06	-9.672029e-07	-3.864482e-10	-6.725277e+00	-2.819661e+01
1.650000e-06	-9.210599e-07	-3.760675e-10	-6.404430e+00	-2.738621e+01
1.660000e-06	-8.748127e-07	-3.643147e-10	-6.082858e+00	-2.655758e+01
1.670000e-06	-8.285064e-07	-3.509745e-10	-5.760875e+00	-2.571013e+01
1.680000e-06	-7.822400e-07	-3.322931e-10	-5.439170e+00	-2.484329e+01
1.690000e-06	-7.359104e-07	-3.128525e-10	-5.117025e+00	-2.395655e+01
1.700000e-06	-6.895900e-07	-2.972085e-10	-4.794944e+00	-2.304947e+01
1.710000e-06	-6.431469e-07	-2.851161e-10	-4.472010e+00	-2.212166e+01
1.720000e-06	-5.965101e-07	-2.758535e-10	-4.147730e+00	-2.117280e+01
1.730000e-06	-5.499264e-07	-2.636063e-10	-3.823818e+00	-2.020264e+01
1.740000e-06	-5.033118e-07	-2.455344e-10	-3.499691e+00	-1.921102e+01
1.750000e-06	-4.565886e-07	-2.233862e-10	-3.174810e+00	-1.819783e+01
1.760000e-06	-4.098901e-07	-2.055869e-10	-2.850100e+00	-1.716307e+01
1.770000e-06	-3.630034e-07	-1.913668e-10	-2.524081e+00	-1.610681e+01
1.780000e-06	-3.160725e-07	-1.769952e-10	-2.197755e+00	-1.502920e+01
1.790000e-06	-2.693241e-07	-1.657052e-10	-1.872698e+00	-1.393049e+01
1.800000e-06	-2.225586e-07	-1.536177e-10	-1.547522e+00	-1.281100e+01
1.810000e-06	-1.757394e-07	-1.386680e-10	-1.221973e+00	-1.167117e+01
1.820000e-06	-1.288399e-07	-1.230545e-10	-8.958661e-01	-1.051148e+01
1.830000e-06	-8.194565e-08	-1.089722e-10	-5.697948e-01	-9.332536e+00
1.840000e-06	-3.510625e-08	-9.551970e-11	-2.441052e-01	-8.135007e+00
1.850000e-06	1.174737e-08	-7.750042e-11	8.168328e-02	-6.919646e+00
1.860000e-06	5.852251e-08	-5.893172e-11	4.069261e-01	-5.687289e+00
1.870000e-06	1.052889e-07	-4.180129e-11	7.321084e-01	-4.438843e+00
1.880000e-06	1.521275e-07	-2.486353e-11	1.057792e+00	-3.175287e+00
1.890000e-06	1.988878e-07	-7.922423e-12	1.382932e+00	-1.897668e+00
1.900000e-06	2.456930e-07	7.920554e-12	1.708384e+00	-6.070924e-01
1.910000e-06	2.925435e-07	2.353222e-11	2.034150e+00	6.952751e-01
1.920000e-06	3.392856e-07	3.833732e-11	2.359163e+00	2.008220e+00
1.930000e-06	3.860458e-07	5.253073e-11	2.684302e+00	3.330485e+00
1.940000e-06	4.327495e-07	7.123199e-11	3.009049e+00	4.660770e+00
1.950000e-06	4.793404e-07	9.266066e-11	3.333010e+00	5.997748e+00
1.960000e-06	5.257912e-07	1.117558e-10	3.655998e+00	7.340065e+00
1.970000e-06	5.721455e-07	1.299968e-10	3.978315e+00	8.686347e+00
1.980000e-06	6.185359e-07	1.461254e-10	4.300882e+00	1.003521e+01
1.990000e-06	6.649139e-07	1.601783e-10	4.623363e+00	1.138527e+01
2.000000e-06	7.112908e-07	1.767661e-10	4.945837e+00	1.273514e+01
2.010000e-06	7.576171e-07	1.949334e-10	5.267959e+00	1.408345e+01
2.020000e-06	8.038451e-07	2.153394e-10	5.589397e+00	1.542883e+01
2.030000e-06	8.500322e-07	2.367773e-10	5.910551e+00	1.676995e+01
2.040000e-06	8.962824e-07	2.564204e-10	6.232144e+00	1.810550e+01
2.050000e-06	9.424788e-07	2.739950e-10	6.553363e+00	1.943421e+01
2.060000e-06	9.885352e-07	2.905404e-10	6.873608e+00	2.075484e+01
2.070000e-06	1.034568e-06	3.060084e-10	7.193687e+00	2.206622e+01
2.080000e-06	1.080486e-06	3.221755e-10	7.512974e+00	2.336720e+01
2.090000e-06	1.126272e-06	3.406825e-10	7.831338e+00	2.465670e+01
2.100000e-06	1.172051e-06	3.629157e-10	8.149650e+00	2.593371e+01
2.110000e-06	1.217825e-06	3.858328e-10	8.467937e+00	2.719727e+01
2.120000e-06	1.263370e-06	4.055550e-10	8.784622e+00	2.844648e+01
2.130000e-06	1.308770e-06	4.220368e-10	9.100303e+00	2.968052e+01
2.140000e-06	1.354202e-06	4.385181e-10	9.416210e+00	3.089864e+01
2.150000e-06	1.399557e-06	4.554567e-10	9.731578e+00	3.210016e+01
2.160000e-06	1.444819e-06	4.721349e-10	1.004630e+01	3.328446e+01
2.170000e-06	1.489936e-06	4.888004e-10	1.036001e+01	3.445102e+01
2.180000e-06	1.534923e-06	5.080168e-10	1.067282e+01	3.559936e+01
2.190000e-06	1.579781e-06	5.285127e-10	1.098474e+01	3.672909e+01
2.200000e-06	1.624501e-06	5.452197e-10	1.129569e+01	3.783989e+01
2.210000e-06	1.669145e-06	5.581113e-10	1.160611e+01	3.893152e+01
2.220000e-06	1.713624e-06	5.712831e-10	1.191539e+01	4.000378e+01
2.230000e-06	1.758001e-06	5.859352e-10	1.222395e+01	4.105654e+01
2.240000e-06	1.802297e-06	5.998177e-10	1.253196e+01	4.208976e+01
2.250000e-06	1.846411e-06	6.128629e-10	1.283870e+01	4.310343e+01
2.260000e-06	1.890431e-06	6.262150e-10	1.314478e+01	4.409760e+01
2.270000e-06	1.934384e-06	6.403461e-10	1.345041e+01	4.507238e+01
2.280000e-06	1.978279e-06	6.598794e-10	1.375562e+01	4.602790e+01
2.290000e-06	2.022147e-06	6.790431e-10	1.406065e+01	4.696437e+01
2.300000e-06	2.065974e-06	6.962669e-10	1.436539e+01	4.788202e+01
2.310000e-06	2.109705e-06	7.090750e-10	1.466947e+01	4.878109e+01
2.320000e-06	2.153325e-06	7.207082e-10	1.497277e+01	4.966190e+01
2.330000e-06	2.196791e-06	7.329185e-10	1.527501e+01	5.052474e+01
2.340000e-06	2.240058e-06	7.436424e-10	1.557585e+01	5.136997e+01
2.350000e-06	2.283228e-06	7.580598e-10	1.587603e+01	5.219791e+01
2.360000e-06	2.326265e-06	7.767583e-10	1.617528e+01	5.300895e+01
2.370000e-06	2.369158e-06	7.957087e-10	1.647353e+01	5.380345e+01
2.380000e-06	2.411724e-06	8.087126e-10	1.676950e+01	5.458177e+01
2.390000e-06	2.453795e-06	8.173419e-10	1.706204e+01	5.534429e+01
2.400000e-06	2.495570e-06	8.229273e-10	1.735251e+01	5.609138e+01
2.410000e-06	2.537100e-06	8.277255e-10	1.764129e+01	5.682339e+01
2.420000e-06	2.578203e-06	8.356114e-10	1.792708e+01	5.754068e+01
2.430000e-06	2.618915e-06	8.481733e-10	1.821017e+01	5.824357e+01
2.440000e-06	2.659472e-06	8.637723e-10	1.849218e+01	5.893240e+01
2.450000e-06	2.699898e-06	8.786942e-10	1.877327e+01	5.960746e+01
2.460000e-06	2.740252e-06	8.890720e-10	1.905387e+01	6.026904e+01
2.470000e-06	2.780458e-06	8.984681e-10	1.933343e+01	6.091742e+01
2.480000e-06	2.820425e-06	9.058531e-10	1.961133e+01	6.155283e+01
2.490000e-06	2.860281e-06	9.120137e-10	1.988846e+01	6.217550e+01
2.500000e-06	2.900033e-06	9.184911e-10	2.016487e+01	6.278565e+01
2.510000e-06	2.939606e-06	9.259408e-10	2.044004e+01	6.338345e+01
2.520000e-06	2.979005e-06	9.345832e-10	2.071399e+01	6.396908e+01
2.530000e-06	3.018264e-06	9.446385e-10	2.098698e+01	6.454269e+01
2.540000e-06	3.057295e-06	9.533091e-10	2.125837e+01	6.510440e+01
2.550000e-06	3.096046e-06	9.589383e-10	2.152782e+01	6.565433e+01
2.560000e-06	3.134532e-06	9.637578e-10	2.179542e+01	6.619258e+01
2.570000e-06	3.172747e-06	9.681321e-10	2.206115e+01	6.671925e+01
2.580000e-06	3.210794e-06	9.726170e-10	2.232570e+01	6.723440e+01
2.590000e-06	3.248671e-06	9.782940e-10	2.258907e+01	6.773812e+01
2.600000e-06	3.286336e-06	9.846056e-10	2.285097e+01	6.823046e+01
2.610000e-06	3.323828e-06	9.918347e-10	2.311166e+01	6.871148e+01
2.620000e-06	3.361154e-06	9.978330e-10	2.337120e+01	6.918125e+01
2.630000e-06	3.398194e-06	1.002439e-09	2.362875e+01	6.963982e+01
2.640000e-06	3.434876e-06	1.004979e-09	2.388382e+01	7.008726e+01
2.650000e-06	3.471333e-06	1.008281e-09	2.413731e+01	7.052364e+01
2.660000e-06	3.507593e-06	1.013146e-09	2.438944e+01	7.094903e+01
2.670000e-06	3.543651e-06	1.018041e-09	2.464016e+01	7.136352e+01
2.680000e-06	3.579560e-06	1.024339e-09	2.488985e+01	7.176722e+01
2.690000e-06	3.615334e-06	1.033389e-09	2.513859e+01	7.216022e+01
2.700000e-06	3.650963e-06	1.041196e-09	2.538634e+01	7.254266e+01
2.710000e-06	3.686389e-06	1.045490e-09	2.563266e+01	7.291468e+01
2.720000e-06	3.721586e-06	1.049350e-09	2.587740e+01	7.327643e+01
2.730000e-06	3.756425e-06	1.053309e-09	2.611965e+01	7.362810e+01
2.740000e-06	3.790866e-06	1.060174e-09	2.635913e+01	7.396987e+01
2.750000e-06	3.824928e-06	1.065752e-09	2.659598e+01	7.430196e+01
2.760000e-06	3.858523e-06	1.069436e-09	2.682957e+01	7.462461e+01
2.770000e-06	3.891542e-06	1.075351e-09	2.705916e+01	7.493805e+01
2.780000e-06	3.924109e-06	1.083559e-09	2.728561e+01	7.524256e+01
2.790000e-06	3.956448e-06	1.090252e-09	2.751048e+01	7.553841e+01
2.800000e-06	3.988582e-06	1.095464e-09	2.773391e+01	7.582591e+01
2.810000e-06	4.020503e-06	1.100423e-09	2.795587e+01	7.610537e+01
2.820000e-06	4.052245e-06	1.103569e-09	2.817658e+01	7.637710e+01
2.830000e-06	4.083844e-06	1.106770e-09	2.839630e+01	7.664146e+01
2.840000e-06	4.115189e-06	1.114169e-09	2.861425e+01	7.689877e+01
2.850000e-06	4.146196e-06	1.120718e-09	2.882985e+01	7.714939e+01
2.860000e-06	4.176937e-06	1.127169e-09	2.904360e+01	7.739368e+01
2.870000e-06	4.207375e-06	1.132358e-09	2.925525e+01	7.763198e+01
2.880000e-06	4.237473e-06	1.134872e-09	2.946453e+01	7.786466e+01
2.890000e-06	4.267351e-06	1.137263e-09	2.967229e+01	7.809206e+01
2.900000e-06	4.297025e-06	1.141485e-09	2.987862e+01	7.831454e+01
2.910000e-06	4.326418e-06	1.145930e-09	3.008300e+01	7.853243e+01
