# Temperatura_=_-0.9
# Concentracion g/m^3_=_1620.0
# C_Vs_to_Am_M_A/Vsm_=_65563218390.804596
# pendiente_HvsI_1/m_=_3716.3
# ordenada_HvsI_A/m_=_1297.0
# frecuencia_Hz_=_135106.21562182682

Tiempo_(s)	Campo_(V.s)	Magnetizacion_(V.s)	Campo_(kA/m)	Magnetizacion_(A/m)
0.000000e+00	-5.511111e-06	-1.144563e-09	-3.837336e+01	-7.656981e+01
1.000000e-08	-5.511271e-06	-1.144773e-09	-3.837448e+01	-7.652010e+01
2.000000e-08	-5.511202e-06	-1.147948e-09	-3.837399e+01	-7.646956e+01
3.000000e-08	-5.510861e-06	-1.150950e-09	-3.837162e+01	-7.641804e+01
4.000000e-08	-5.510081e-06	-1.146716e-09	-3.836619e+01	-7.636534e+01
5.000000e-08	-5.508709e-06	-1.131732e-09	-3.835664e+01	-7.631130e+01
6.000000e-08	-5.506781e-06	-1.114510e-09	-3.834322e+01	-7.625572e+01
7.000000e-08	-5.504351e-06	-1.122141e-09	-3.832630e+01	-7.619843e+01
8.000000e-08	-5.501383e-06	-1.161484e-09	-3.830563e+01	-7.613923e+01
9.000000e-08	-5.497866e-06	-1.194136e-09	-3.828114e+01	-7.607795e+01
1.000000e-07	-5.493838e-06	-1.203034e-09	-3.825310e+01	-7.601440e+01
1.100000e-07	-5.489516e-06	-1.171265e-09	-3.822300e+01	-7.594841e+01
1.200000e-07	-5.484987e-06	-1.103645e-09	-3.819147e+01	-7.587980e+01
1.300000e-07	-5.480134e-06	-1.057427e-09	-3.815768e+01	-7.580843e+01
1.400000e-07	-5.474995e-06	-1.131813e-09	-3.812189e+01	-7.573414e+01
1.500000e-07	-5.469469e-06	-1.151132e-09	-3.808341e+01	-7.565680e+01
1.600000e-07	-5.463535e-06	-1.128012e-09	-3.804210e+01	-7.557627e+01
1.700000e-07	-5.457278e-06	-1.075432e-09	-3.799853e+01	-7.549245e+01
1.800000e-07	-5.450617e-06	-1.166481e-09	-3.795215e+01	-7.540525e+01
1.900000e-07	-5.443451e-06	-1.202477e-09	-3.790226e+01	-7.531457e+01
2.000000e-07	-5.435930e-06	-1.133241e-09	-3.784988e+01	-7.522035e+01
2.100000e-07	-5.428235e-06	-1.063281e-09	-3.779630e+01	-7.512254e+01
2.200000e-07	-5.420309e-06	-1.118588e-09	-3.774112e+01	-7.502111e+01
2.300000e-07	-5.412053e-06	-1.186086e-09	-3.768363e+01	-7.491604e+01
2.400000e-07	-5.403383e-06	-1.160935e-09	-3.762327e+01	-7.480733e+01
2.500000e-07	-5.394170e-06	-1.135802e-09	-3.755911e+01	-7.469498e+01
2.600000e-07	-5.384334e-06	-1.136062e-09	-3.749063e+01	-7.457903e+01
2.700000e-07	-5.373798e-06	-1.148817e-09	-3.741727e+01	-7.445952e+01
2.800000e-07	-5.362678e-06	-1.107452e-09	-3.733984e+01	-7.433650e+01
2.900000e-07	-5.351170e-06	-1.113478e-09	-3.725971e+01	-7.421004e+01
3.000000e-07	-5.339232e-06	-1.113878e-09	-3.717659e+01	-7.408021e+01
3.100000e-07	-5.326918e-06	-1.127739e-09	-3.709084e+01	-7.394711e+01
3.200000e-07	-5.314251e-06	-1.100396e-09	-3.700265e+01	-7.381083e+01
3.300000e-07	-5.301172e-06	-1.117706e-09	-3.691158e+01	-7.367147e+01
3.400000e-07	-5.287698e-06	-1.105896e-09	-3.681776e+01	-7.352914e+01
3.500000e-07	-5.273873e-06	-1.129177e-09	-3.672150e+01	-7.338395e+01
3.600000e-07	-5.259658e-06	-1.111707e-09	-3.662252e+01	-7.323603e+01
3.700000e-07	-5.244969e-06	-1.101092e-09	-3.652024e+01	-7.308548e+01
3.800000e-07	-5.229811e-06	-1.090418e-09	-3.641470e+01	-7.293241e+01
3.900000e-07	-5.214142e-06	-1.124898e-09	-3.630560e+01	-7.277696e+01
4.000000e-07	-5.197910e-06	-1.093977e-09	-3.619258e+01	-7.261922e+01
4.100000e-07	-5.181207e-06	-1.072759e-09	-3.607627e+01	-7.245930e+01
4.200000e-07	-5.164124e-06	-1.105138e-09	-3.595733e+01	-7.229731e+01
4.300000e-07	-5.146850e-06	-1.117502e-09	-3.583705e+01	-7.213333e+01
4.400000e-07	-5.129346e-06	-1.072797e-09	-3.571517e+01	-7.196745e+01
4.500000e-07	-5.111395e-06	-1.098628e-09	-3.559018e+01	-7.179976e+01
4.600000e-07	-5.093037e-06	-1.140261e-09	-3.546235e+01	-7.163031e+01
4.700000e-07	-5.074275e-06	-1.076648e-09	-3.533172e+01	-7.145917e+01
4.800000e-07	-5.055059e-06	-1.050644e-09	-3.519792e+01	-7.128638e+01
4.900000e-07	-5.035568e-06	-1.111233e-09	-3.506220e+01	-7.111197e+01
5.000000e-07	-5.015885e-06	-1.099531e-09	-3.492515e+01	-7.093598e+01
5.100000e-07	-4.995982e-06	-1.035144e-09	-3.478657e+01	-7.075841e+01
5.200000e-07	-4.975817e-06	-1.085520e-09	-3.464616e+01	-7.057928e+01
5.300000e-07	-4.955297e-06	-1.110250e-09	-3.450328e+01	-7.039856e+01
5.400000e-07	-4.934398e-06	-1.063384e-09	-3.435776e+01	-7.021624e+01
5.500000e-07	-4.913137e-06	-1.075386e-09	-3.420973e+01	-7.003230e+01
5.600000e-07	-4.891586e-06	-1.116486e-09	-3.405967e+01	-6.984670e+01
5.700000e-07	-4.869762e-06	-1.045673e-09	-3.390771e+01	-6.965938e+01
5.800000e-07	-4.847635e-06	-1.031928e-09	-3.375364e+01	-6.947030e+01
5.900000e-07	-4.825129e-06	-1.089995e-09	-3.359694e+01	-6.927939e+01
6.000000e-07	-4.802187e-06	-1.075100e-09	-3.343719e+01	-6.908659e+01
6.100000e-07	-4.778873e-06	-1.025721e-09	-3.327486e+01	-6.889183e+01
6.200000e-07	-4.755338e-06	-1.072757e-09	-3.311099e+01	-6.869502e+01
6.300000e-07	-4.731582e-06	-1.072632e-09	-3.294557e+01	-6.849611e+01
6.400000e-07	-4.707563e-06	-1.026837e-09	-3.277834e+01	-6.829499e+01
6.500000e-07	-4.683324e-06	-1.038787e-09	-3.260956e+01	-6.809160e+01
6.600000e-07	-4.658757e-06	-1.065650e-09	-3.243850e+01	-6.788586e+01
6.700000e-07	-4.633617e-06	-1.028395e-09	-3.226345e+01	-6.767769e+01
6.800000e-07	-4.607903e-06	-1.029669e-09	-3.208441e+01	-6.746701e+01
6.900000e-07	-4.581672e-06	-1.053944e-09	-3.190177e+01	-6.725375e+01
7.000000e-07	-4.554914e-06	-1.034779e-09	-3.171545e+01	-6.703785e+01
7.100000e-07	-4.527718e-06	-1.013732e-09	-3.152609e+01	-6.681924e+01
7.200000e-07	-4.500183e-06	-1.033473e-09	-3.133436e+01	-6.659787e+01
7.300000e-07	-4.472446e-06	-1.027491e-09	-3.114124e+01	-6.637368e+01
7.400000e-07	-4.444570e-06	-1.010118e-09	-3.094714e+01	-6.614664e+01
7.500000e-07	-4.416544e-06	-1.022393e-09	-3.075200e+01	-6.591670e+01
7.600000e-07	-4.388278e-06	-1.024350e-09	-3.055518e+01	-6.568384e+01
7.700000e-07	-4.359709e-06	-1.002366e-09	-3.035626e+01	-6.544803e+01
7.800000e-07	-4.330840e-06	-9.950375e-10	-3.015525e+01	-6.520925e+01
7.900000e-07	-4.301616e-06	-1.000734e-09	-2.995176e+01	-6.496750e+01
8.000000e-07	-4.272038e-06	-9.859395e-10	-2.974581e+01	-6.472278e+01
8.100000e-07	-4.242158e-06	-9.791568e-10	-2.953776e+01	-6.447507e+01
8.200000e-07	-4.212034e-06	-9.816566e-10	-2.932801e+01	-6.422440e+01
8.300000e-07	-4.181610e-06	-9.759072e-10	-2.911617e+01	-6.397077e+01
8.400000e-07	-4.150922e-06	-9.638980e-10	-2.890249e+01	-6.371420e+01
8.500000e-07	-4.120024e-06	-9.665885e-10	-2.868735e+01	-6.345471e+01
8.600000e-07	-4.088804e-06	-9.565857e-10	-2.846997e+01	-6.319232e+01
8.700000e-07	-4.057348e-06	-9.450153e-10	-2.825094e+01	-6.292704e+01
8.800000e-07	-4.025776e-06	-9.419802e-10	-2.803111e+01	-6.265892e+01
8.900000e-07	-3.994016e-06	-9.460847e-10	-2.780997e+01	-6.238795e+01
9.000000e-07	-3.961966e-06	-9.344783e-10	-2.758681e+01	-6.211417e+01
9.100000e-07	-3.929686e-06	-9.314649e-10	-2.736205e+01	-6.183760e+01
9.200000e-07	-3.897171e-06	-9.258828e-10	-2.713564e+01	-6.155824e+01
9.300000e-07	-3.864345e-06	-9.166018e-10	-2.690708e+01	-6.127610e+01
9.400000e-07	-3.831081e-06	-9.099748e-10	-2.667547e+01	-6.099119e+01
9.500000e-07	-3.797297e-06	-9.136833e-10	-2.644023e+01	-6.070351e+01
9.600000e-07	-3.763023e-06	-9.042023e-10	-2.620159e+01	-6.041304e+01
9.700000e-07	-3.728327e-06	-8.936975e-10	-2.596000e+01	-6.011977e+01
9.800000e-07	-3.693286e-06	-8.895676e-10	-2.571602e+01	-5.982367e+01
9.900000e-07	-3.657907e-06	-8.866411e-10	-2.546967e+01	-5.952471e+01
1.000000e-06	-3.622303e-06	-8.769974e-10	-2.522177e+01	-5.922284e+01
1.010000e-06	-3.586590e-06	-8.724102e-10	-2.497310e+01	-5.891801e+01
1.020000e-06	-3.550723e-06	-8.708428e-10	-2.472336e+01	-5.861016e+01
1.030000e-06	-3.514708e-06	-8.630149e-10	-2.447259e+01	-5.829921e+01
1.040000e-06	-3.478587e-06	-8.563339e-10	-2.422109e+01	-5.798509e+01
1.050000e-06	-3.442281e-06	-8.535629e-10	-2.396829e+01	-5.766770e+01
1.060000e-06	-3.405700e-06	-8.465744e-10	-2.371358e+01	-5.734695e+01
1.070000e-06	-3.368811e-06	-8.386519e-10	-2.345673e+01	-5.702273e+01
1.080000e-06	-3.331596e-06	-8.377259e-10	-2.319760e+01	-5.669492e+01
1.090000e-06	-3.294134e-06	-8.320611e-10	-2.293675e+01	-5.636340e+01
1.100000e-06	-3.256505e-06	-8.229584e-10	-2.267475e+01	-5.602804e+01
1.110000e-06	-3.218608e-06	-8.138620e-10	-2.241088e+01	-5.568871e+01
1.120000e-06	-3.180432e-06	-8.089553e-10	-2.214506e+01	-5.534527e+01
1.130000e-06	-3.142047e-06	-8.001812e-10	-2.187779e+01	-5.499758e+01
1.140000e-06	-3.103478e-06	-7.949572e-10	-2.160924e+01	-5.464550e+01
1.150000e-06	-3.064738e-06	-7.908197e-10	-2.133949e+01	-5.428887e+01
1.160000e-06	-3.025739e-06	-7.863655e-10	-2.106794e+01	-5.392754e+01
1.170000e-06	-2.986503e-06	-7.777413e-10	-2.079475e+01	-5.356138e+01
1.180000e-06	-2.947061e-06	-7.712625e-10	-2.052011e+01	-5.319022e+01
1.190000e-06	-2.907441e-06	-7.604211e-10	-2.024425e+01	-5.281393e+01
1.200000e-06	-2.867722e-06	-7.509192e-10	-1.996769e+01	-5.243237e+01
1.210000e-06	-2.827906e-06	-7.443214e-10	-1.969045e+01	-5.204538e+01
1.220000e-06	-2.787977e-06	-7.409787e-10	-1.941243e+01	-5.165284e+01
1.230000e-06	-2.747940e-06	-7.355188e-10	-1.913366e+01	-5.125460e+01
1.240000e-06	-2.707787e-06	-7.314023e-10	-1.885407e+01	-5.085055e+01
1.250000e-06	-2.667437e-06	-7.264043e-10	-1.857312e+01	-5.044055e+01
1.260000e-06	-2.626879e-06	-7.183813e-10	-1.829072e+01	-5.002450e+01
1.270000e-06	-2.586130e-06	-7.074287e-10	-1.800699e+01	-4.960226e+01
1.280000e-06	-2.545080e-06	-6.976640e-10	-1.772116e+01	-4.917374e+01
1.290000e-06	-2.503714e-06	-6.890300e-10	-1.743313e+01	-4.873882e+01
1.300000e-06	-2.462091e-06	-6.822674e-10	-1.714332e+01	-4.829741e+01
1.310000e-06	-2.420139e-06	-6.768184e-10	-1.685121e+01	-4.784940e+01
1.320000e-06	-2.377844e-06	-6.721413e-10	-1.655671e+01	-4.739471e+01
1.330000e-06	-2.335252e-06	-6.668428e-10	-1.626015e+01	-4.693322e+01
1.340000e-06	-2.292304e-06	-6.601590e-10	-1.596110e+01	-4.646486e+01
1.350000e-06	-2.249057e-06	-6.536190e-10	-1.565998e+01	-4.598952e+01
1.360000e-06	-2.205711e-06	-6.456307e-10	-1.535817e+01	-4.550711e+01
1.370000e-06	-2.162253e-06	-6.372943e-10	-1.505557e+01	-4.501752e+01
1.380000e-06	-2.118660e-06	-6.309422e-10	-1.475204e+01	-4.452066e+01
1.390000e-06	-2.075034e-06	-6.264749e-10	-1.444827e+01	-4.401641e+01
1.400000e-06	-2.031318e-06	-6.199870e-10	-1.414388e+01	-4.350466e+01
1.410000e-06	-1.987478e-06	-6.115153e-10	-1.383863e+01	-4.298528e+01
1.420000e-06	-1.943604e-06	-6.017482e-10	-1.353313e+01	-4.245814e+01
1.430000e-06	-1.899683e-06	-5.935715e-10	-1.322732e+01	-4.192309e+01
1.440000e-06	-1.855628e-06	-5.850186e-10	-1.292057e+01	-4.137998e+01
1.450000e-06	-1.811465e-06	-5.776335e-10	-1.261307e+01	-4.082863e+01
1.460000e-06	-1.767205e-06	-5.709926e-10	-1.230489e+01	-4.026885e+01
1.470000e-06	-1.722816e-06	-5.642240e-10	-1.199581e+01	-3.970044e+01
1.480000e-06	-1.678333e-06	-5.546017e-10	-1.168608e+01	-3.912319e+01
1.490000e-06	-1.633766e-06	-5.452555e-10	-1.137576e+01	-3.853686e+01
1.500000e-06	-1.589031e-06	-5.355251e-10	-1.106428e+01	-3.794120e+01
1.510000e-06	-1.544132e-06	-5.262478e-10	-1.075165e+01	-3.733594e+01
1.520000e-06	-1.499138e-06	-5.165600e-10	-1.043836e+01	-3.672079e+01
1.530000e-06	-1.454000e-06	-5.088160e-10	-1.012407e+01	-3.609544e+01
1.540000e-06	-1.408737e-06	-4.996011e-10	-9.808906e+00	-3.545957e+01
1.550000e-06	-1.363316e-06	-4.894764e-10	-9.492644e+00	-3.481285e+01
1.560000e-06	-1.317875e-06	-4.795946e-10	-9.176245e+00	-3.415492e+01
1.570000e-06	-1.272468e-06	-4.692094e-10	-8.860077e+00	-3.348542e+01
1.580000e-06	-1.226864e-06	-4.570368e-10	-8.542545e+00	-3.280396e+01
1.590000e-06	-1.181106e-06	-4.465332e-10	-8.223937e+00	-3.211016e+01
1.600000e-06	-1.135283e-06	-4.365170e-10	-7.904871e+00	-3.140362e+01
1.610000e-06	-1.089361e-06	-4.248984e-10	-7.585118e+00	-3.068393e+01
1.620000e-06	-1.043367e-06	-4.138733e-10	-7.264867e+00	-2.995069e+01
1.630000e-06	-9.973299e-07	-4.074679e-10	-6.944317e+00	-2.920349e+01
1.640000e-06	-9.513047e-07	-4.021780e-10	-6.623848e+00	-2.844192e+01
1.650000e-06	-9.052084e-07	-3.913710e-10	-6.302883e+00	-2.766558e+01
1.660000e-06	-8.589674e-07	-3.779514e-10	-5.980912e+00	-2.687408e+01
1.670000e-06	-8.126807e-07	-3.624178e-10	-5.658622e+00	-2.606704e+01
1.680000e-06	-7.662860e-07	-3.455776e-10	-5.335580e+00	-2.524409e+01
1.690000e-06	-7.197921e-07	-3.297780e-10	-5.011847e+00	-2.440489e+01
1.700000e-06	-6.734089e-07	-3.175477e-10	-4.688885e+00	-2.354910e+01
1.710000e-06	-6.270619e-07	-3.064774e-10	-4.366175e+00	-2.267645e+01
1.720000e-06	-5.806091e-07	-2.948919e-10	-4.042728e+00	-2.178665e+01
1.730000e-06	-5.341039e-07	-2.806435e-10	-3.718917e+00	-2.087948e+01
1.740000e-06	-4.875150e-07	-2.644847e-10	-3.394522e+00	-1.995474e+01
1.750000e-06	-4.409171e-07	-2.484429e-10	-3.070065e+00	-1.901228e+01
1.760000e-06	-3.943220e-07	-2.336044e-10	-2.745628e+00	-1.805197e+01
1.770000e-06	-3.476874e-07	-2.196806e-10	-2.420916e+00	-1.707377e+01
1.780000e-06	-3.010270e-07	-2.067626e-10	-2.096024e+00	-1.607765e+01
1.790000e-06	-2.543006e-07	-1.934272e-10	-1.770672e+00	-1.506366e+01
1.800000e-06	-2.075126e-07	-1.787142e-10	-1.444892e+00	-1.403188e+01
1.810000e-06	-1.607158e-07	-1.618079e-10	-1.119050e+00	-1.298246e+01
1.820000e-06	-1.139392e-07	-1.459377e-10	-7.933481e-01	-1.191561e+01
1.830000e-06	-6.718594e-08	-1.321210e-10	-4.678096e-01	-1.083161e+01
1.840000e-06	-2.041044e-08	-1.192182e-10	-1.421161e-01	-9.730767e+00
1.850000e-06	2.635210e-08	-1.061536e-10	1.834873e-01	-8.613484e+00
1.860000e-06	7.304249e-08	-9.257906e-11	5.085882e-01	-7.480208e+00
1.870000e-06	1.197223e-07	-7.813087e-11	8.336158e-01	-6.331451e+00
1.880000e-06	1.664176e-07	-6.073835e-11	1.158751e+00	-5.167787e+00
1.890000e-06	2.131048e-07	-4.093728e-11	1.483829e+00	-3.989848e+00
1.900000e-06	2.597711e-07	-2.171518e-11	1.808763e+00	-2.798324e+00
1.910000e-06	3.064417e-07	-4.363654e-12	2.133726e+00	-1.593964e+00
1.920000e-06	3.531218e-07	1.202462e-11	2.458755e+00	-3.775671e-01
1.930000e-06	3.998296e-07	2.698144e-11	2.783977e+00	8.500123e-01
1.940000e-06	4.464898e-07	4.109990e-11	3.108868e+00	2.087873e+00
1.950000e-06	4.930583e-07	5.522887e-11	3.433120e+00	3.335069e+00
1.960000e-06	5.395828e-07	7.095973e-11	3.757066e+00	4.590612e+00
1.970000e-06	5.860693e-07	9.056847e-11	4.080747e+00	5.853475e+00
1.980000e-06	6.324892e-07	1.089369e-10	4.403965e+00	7.122600e+00
1.990000e-06	6.788441e-07	1.275605e-10	4.726730e+00	8.396899e+00
2.000000e-06	7.251372e-07	1.444136e-10	5.049065e+00	9.675259e+00
2.010000e-06	7.713837e-07	1.608652e-10	5.371075e+00	1.095655e+01
2.020000e-06	8.176556e-07	1.807493e-10	5.693262e+00	1.223962e+01
2.030000e-06	8.638898e-07	2.026930e-10	6.015186e+00	1.352332e+01
2.040000e-06	9.100222e-07	2.245827e-10	6.336402e+00	1.480648e+01
2.050000e-06	9.560983e-07	2.429352e-10	6.657225e+00	1.608795e+01
2.060000e-06	1.002120e-06	2.577978e-10	6.977667e+00	1.736657e+01
2.070000e-06	1.048061e-06	2.702869e-10	7.297555e+00	1.864120e+01
2.080000e-06	1.093951e-06	2.854133e-10	7.617080e+00	1.991072e+01
2.090000e-06	1.139750e-06	3.048934e-10	7.935976e+00	2.117400e+01
2.100000e-06	1.185486e-06	3.288255e-10	8.254432e+00	2.242998e+01
2.110000e-06	1.231176e-06	3.504776e-10	8.572568e+00	2.367760e+01
2.120000e-06	1.276749e-06	3.682938e-10	8.889887e+00	2.491585e+01
2.130000e-06	1.322264e-06	3.841439e-10	9.206806e+00	2.614373e+01
2.140000e-06	1.367672e-06	3.973476e-10	9.522976e+00	2.736032e+01
2.150000e-06	1.412911e-06	4.102803e-10	9.837969e+00	2.856471e+01
2.160000e-06	1.458059e-06	4.270893e-10	1.015233e+01	2.975606e+01
2.170000e-06	1.503087e-06	4.452331e-10	1.046586e+01	3.093356e+01
2.180000e-06	1.547986e-06	4.648236e-10	1.077848e+01	3.209649e+01
2.190000e-06	1.592799e-06	4.827038e-10	1.109051e+01	3.324413e+01
2.200000e-06	1.637477e-06	4.991606e-10	1.140160e+01	3.437585e+01
2.210000e-06	1.681976e-06	5.137121e-10	1.171145e+01	3.549108e+01
2.220000e-06	1.726351e-06	5.269812e-10	1.202042e+01	3.658929e+01
2.230000e-06	1.770611e-06	5.420456e-10	1.232860e+01	3.767002e+01
2.240000e-06	1.814744e-06	5.554255e-10	1.263590e+01	3.873284e+01
2.250000e-06	1.858834e-06	5.687152e-10	1.294289e+01	3.977743e+01
2.260000e-06	1.902842e-06	5.819617e-10	1.324932e+01	4.080346e+01
2.270000e-06	1.946744e-06	5.967129e-10	1.355500e+01	4.181071e+01
2.280000e-06	1.990596e-06	6.136546e-10	1.386034e+01	4.279899e+01
2.290000e-06	2.034392e-06	6.307645e-10	1.416529e+01	4.376815e+01
2.300000e-06	2.078091e-06	6.468194e-10	1.446956e+01	4.471811e+01
2.310000e-06	2.121745e-06	6.613695e-10	1.477351e+01	4.564883e+01
2.320000e-06	2.165357e-06	6.737067e-10	1.507719e+01	4.656031e+01
2.330000e-06	2.208767e-06	6.835852e-10	1.537944e+01	4.745259e+01
2.340000e-06	2.251934e-06	6.939014e-10	1.568001e+01	4.832575e+01
2.350000e-06	2.294871e-06	7.091444e-10	1.597898e+01	4.917992e+01
2.360000e-06	2.337600e-06	7.279282e-10	1.627649e+01	5.001524e+01
2.370000e-06	2.380113e-06	7.443090e-10	1.657251e+01	5.083190e+01
2.380000e-06	2.422376e-06	7.563974e-10	1.686678e+01	5.163009e+01
2.390000e-06	2.464314e-06	7.671685e-10	1.715880e+01	5.241006e+01
2.400000e-06	2.505861e-06	7.761788e-10	1.744808e+01	5.317204e+01
2.410000e-06	2.547066e-06	7.837587e-10	1.773499e+01	5.391631e+01
2.420000e-06	2.587970e-06	7.931723e-10	1.801980e+01	5.464314e+01
2.430000e-06	2.628637e-06	8.065973e-10	1.830296e+01	5.535282e+01
2.440000e-06	2.669086e-06	8.201717e-10	1.858460e+01	5.604566e+01
2.450000e-06	2.709361e-06	8.305293e-10	1.886503e+01	5.672195e+01
2.460000e-06	2.749509e-06	8.385060e-10	1.914458e+01	5.738201e+01
2.470000e-06	2.789531e-06	8.465110e-10	1.942325e+01	5.802613e+01
2.480000e-06	2.829398e-06	8.554168e-10	1.970084e+01	5.865463e+01
2.490000e-06	2.869119e-06	8.635836e-10	1.997741e+01	5.926782e+01
2.500000e-06	2.908776e-06	8.720828e-10	2.025354e+01	5.986598e+01
2.510000e-06	2.948331e-06	8.836915e-10	2.052896e+01	6.044942e+01
2.520000e-06	2.987669e-06	8.963780e-10	2.080287e+01	6.101843e+01
2.530000e-06	3.026765e-06	9.067613e-10	2.107509e+01	6.157328e+01
2.540000e-06	3.065687e-06	9.139283e-10	2.134610e+01	6.211424e+01
2.550000e-06	3.104469e-06	9.189456e-10	2.161614e+01	6.264157e+01
2.560000e-06	3.142967e-06	9.234732e-10	2.188419e+01	6.315554e+01
2.570000e-06	3.181201e-06	9.285069e-10	2.215041e+01	6.365639e+01
2.580000e-06	3.219284e-06	9.346040e-10	2.241558e+01	6.414435e+01
2.590000e-06	3.257107e-06	9.411727e-10	2.267894e+01	6.461964e+01
2.600000e-06	3.294666e-06	9.495576e-10	2.294046e+01	6.508251e+01
2.610000e-06	3.332020e-06	9.570261e-10	2.320055e+01	6.553314e+01
2.620000e-06	3.369172e-06	9.598587e-10	2.345924e+01	6.597176e+01
2.630000e-06	3.406118e-06	9.623283e-10	2.371649e+01	6.639857e+01
2.640000e-06	3.442779e-06	9.655446e-10	2.397176e+01	6.681376e+01
2.650000e-06	3.479148e-06	9.689232e-10	2.422499e+01	6.721753e+01
2.660000e-06	3.515296e-06	9.722666e-10	2.447669e+01	6.761007e+01
2.670000e-06	3.551273e-06	9.764717e-10	2.472719e+01	6.799156e+01
2.680000e-06	3.587136e-06	9.841446e-10	2.497690e+01	6.836221e+01
2.690000e-06	3.622864e-06	9.927274e-10	2.522568e+01	6.872220e+01
2.700000e-06	3.658375e-06	1.000109e-09	2.547293e+01	6.907172e+01
2.710000e-06	3.693611e-06	1.004729e-09	2.571828e+01	6.941097e+01
2.720000e-06	3.728611e-06	1.008334e-09	2.596198e+01	6.974014e+01
2.730000e-06	3.763291e-06	1.011583e-09	2.620345e+01	7.005944e+01
2.740000e-06	3.797577e-06	1.014445e-09	2.644218e+01	7.036907e+01
2.750000e-06	3.831479e-06	1.016763e-09	2.667824e+01	7.066924e+01
2.760000e-06	3.864877e-06	1.021543e-09	2.691079e+01	7.096017e+01
2.770000e-06	3.897816e-06	1.027375e-09	2.714014e+01	7.124208e+01
2.780000e-06	3.930437e-06	1.031327e-09	2.736728e+01	7.151519e+01
2.790000e-06	3.962727e-06	1.035382e-09	2.759211e+01	7.177974e+01
2.800000e-06	3.994699e-06	1.041013e-09	2.781473e+01	7.203596e+01
2.810000e-06	4.026460e-06	1.047069e-09	2.803587e+01	7.228408e+01
2.820000e-06	4.058064e-06	1.053290e-09	2.825593e+01	7.252436e+01
2.830000e-06	4.089498e-06	1.058374e-09	2.847480e+01	7.275704e+01
2.840000e-06	4.120787e-06	1.061856e-09	2.869266e+01	7.298236e+01
2.850000e-06	4.151813e-06	1.065696e-09	2.890870e+01	7.320058e+01
2.860000e-06	4.182440e-06	1.068293e-09	2.912195e+01	7.341194e+01
2.870000e-06	4.212696e-06	1.067766e-09	2.933262e+01	7.361670e+01
2.880000e-06	4.242635e-06	1.068635e-09	2.954108e+01	7.381510e+01
2.890000e-06	4.272313e-06	1.073040e-09	2.974773e+01	7.400738e+01
2.900000e-06	4.301751e-06	1.078515e-09	2.995270e+01	7.419378e+01
