# Temperatura_=_-0.7
# Concentracion g/m^3_=_1620.0
# C_Vs_to_Am_M_A/Vsm_=_65563218390.804596
# pendiente_HvsI_1/m_=_3716.3
# ordenada_HvsI_A/m_=_1297.0
# frecuencia_Hz_=_135103.3672549814

Tiempo_(s)	Campo_(V.s)	Magnetizacion_(V.s)	Campo_(kA/m)	Magnetizacion_(A/m)
0.000000e+00	-5.516525e-06	-1.268518e-09	-3.836601e+01	-8.375313e+01
1.000000e-08	-5.516849e-06	-1.266102e-09	-3.836826e+01	-8.372456e+01
2.000000e-08	-5.516919e-06	-1.264590e-09	-3.836875e+01	-8.369708e+01
3.000000e-08	-5.516673e-06	-1.265623e-09	-3.836703e+01	-8.367045e+01
4.000000e-08	-5.515981e-06	-1.265425e-09	-3.836222e+01	-8.364441e+01
5.000000e-08	-5.514812e-06	-1.255698e-09	-3.835410e+01	-8.361868e+01
6.000000e-08	-5.513094e-06	-1.239799e-09	-3.834214e+01	-8.359296e+01
7.000000e-08	-5.510741e-06	-1.248580e-09	-3.832578e+01	-8.356693e+01
8.000000e-08	-5.507798e-06	-1.307246e-09	-3.830532e+01	-8.354027e+01
9.000000e-08	-5.504369e-06	-1.371196e-09	-3.828147e+01	-8.351263e+01
1.000000e-07	-5.500434e-06	-1.322304e-09	-3.825410e+01	-8.348368e+01
1.100000e-07	-5.496051e-06	-1.196888e-09	-3.822362e+01	-8.345306e+01
1.200000e-07	-5.491587e-06	-1.185987e-09	-3.819257e+01	-8.342042e+01
1.300000e-07	-5.487038e-06	-1.295836e-09	-3.816094e+01	-8.338542e+01
1.400000e-07	-5.482049e-06	-1.325676e-09	-3.812624e+01	-8.334772e+01
1.500000e-07	-5.476633e-06	-1.229162e-09	-3.808857e+01	-8.330699e+01
1.600000e-07	-5.470886e-06	-1.184157e-09	-3.804860e+01	-8.326289e+01
1.700000e-07	-5.464731e-06	-1.304064e-09	-3.800579e+01	-8.321512e+01
1.800000e-07	-5.458093e-06	-1.335661e-09	-3.795963e+01	-8.316339e+01
1.900000e-07	-5.451086e-06	-1.246071e-09	-3.791089e+01	-8.310743e+01
2.000000e-07	-5.443799e-06	-1.170647e-09	-3.786022e+01	-8.304696e+01
2.100000e-07	-5.436181e-06	-1.277622e-09	-3.780724e+01	-8.298177e+01
2.200000e-07	-5.428293e-06	-1.358554e-09	-3.775238e+01	-8.291163e+01
2.300000e-07	-5.420202e-06	-1.320359e-09	-3.769611e+01	-8.283636e+01
2.400000e-07	-5.411646e-06	-1.243399e-09	-3.763660e+01	-8.275579e+01
2.500000e-07	-5.402437e-06	-1.263279e-09	-3.757256e+01	-8.266980e+01
2.600000e-07	-5.392531e-06	-1.288309e-09	-3.750366e+01	-8.257826e+01
2.700000e-07	-5.382037e-06	-1.249551e-09	-3.743068e+01	-8.248110e+01
2.800000e-07	-5.371104e-06	-1.226905e-09	-3.735464e+01	-8.237826e+01
2.900000e-07	-5.359687e-06	-1.260013e-09	-3.727524e+01	-8.226970e+01
3.000000e-07	-5.347986e-06	-1.281750e-09	-3.719386e+01	-8.215542e+01
3.100000e-07	-5.335984e-06	-1.223612e-09	-3.711039e+01	-8.203545e+01
3.200000e-07	-5.323423e-06	-1.208065e-09	-3.702303e+01	-8.190981e+01
3.300000e-07	-5.310407e-06	-1.233533e-09	-3.693251e+01	-8.177859e+01
3.400000e-07	-5.297100e-06	-1.253392e-09	-3.683996e+01	-8.164187e+01
3.500000e-07	-5.283361e-06	-1.200965e-09	-3.674441e+01	-8.149975e+01
3.600000e-07	-5.269127e-06	-1.216013e-09	-3.664542e+01	-8.135237e+01
3.700000e-07	-5.254507e-06	-1.247264e-09	-3.654374e+01	-8.119985e+01
3.800000e-07	-5.239389e-06	-1.231361e-09	-3.643860e+01	-8.104237e+01
3.900000e-07	-5.223641e-06	-1.178693e-09	-3.632907e+01	-8.088009e+01
4.000000e-07	-5.207485e-06	-1.222367e-09	-3.621672e+01	-8.071319e+01
4.100000e-07	-5.191057e-06	-1.233973e-09	-3.610246e+01	-8.054186e+01
4.200000e-07	-5.174260e-06	-1.180625e-09	-3.598564e+01	-8.036628e+01
4.300000e-07	-5.157062e-06	-1.184746e-09	-3.586603e+01	-8.018667e+01
4.400000e-07	-5.139572e-06	-1.264149e-09	-3.574439e+01	-8.000321e+01
4.500000e-07	-5.121701e-06	-1.226287e-09	-3.562011e+01	-7.981612e+01
4.600000e-07	-5.103361e-06	-1.161856e-09	-3.549256e+01	-7.962559e+01
4.700000e-07	-5.084664e-06	-1.204059e-09	-3.536252e+01	-7.943181e+01
4.800000e-07	-5.065625e-06	-1.231947e-09	-3.523011e+01	-7.923497e+01
4.900000e-07	-5.046287e-06	-1.171428e-09	-3.509562e+01	-7.903527e+01
5.000000e-07	-5.026735e-06	-1.183562e-09	-3.495964e+01	-7.883286e+01
5.100000e-07	-5.006932e-06	-1.223821e-09	-3.482192e+01	-7.862792e+01
5.200000e-07	-4.986799e-06	-1.179273e-09	-3.468190e+01	-7.842061e+01
5.300000e-07	-4.966323e-06	-1.170614e-09	-3.453949e+01	-7.821106e+01
5.400000e-07	-4.945520e-06	-1.224405e-09	-3.439482e+01	-7.799940e+01
5.500000e-07	-4.924356e-06	-1.192205e-09	-3.424763e+01	-7.778575e+01
5.600000e-07	-4.902833e-06	-1.138057e-09	-3.409794e+01	-7.757021e+01
5.700000e-07	-4.881021e-06	-1.183757e-09	-3.394624e+01	-7.735287e+01
5.800000e-07	-4.858853e-06	-1.198651e-09	-3.379207e+01	-7.713381e+01
5.900000e-07	-4.836257e-06	-1.154565e-09	-3.363492e+01	-7.691308e+01
6.000000e-07	-4.813329e-06	-1.163136e-09	-3.347546e+01	-7.669072e+01
6.100000e-07	-4.790158e-06	-1.187519e-09	-3.331431e+01	-7.646678e+01
6.200000e-07	-4.766752e-06	-1.148810e-09	-3.315153e+01	-7.624127e+01
6.300000e-07	-4.743156e-06	-1.146254e-09	-3.298743e+01	-7.601419e+01
6.400000e-07	-4.719358e-06	-1.167374e-09	-3.282192e+01	-7.578553e+01
6.500000e-07	-4.695201e-06	-1.151247e-09	-3.265391e+01	-7.555528e+01
6.600000e-07	-4.670569e-06	-1.135801e-09	-3.248260e+01	-7.532341e+01
6.700000e-07	-4.645516e-06	-1.155600e-09	-3.230837e+01	-7.508987e+01
6.800000e-07	-4.619936e-06	-1.142143e-09	-3.213046e+01	-7.485461e+01
6.900000e-07	-4.593778e-06	-1.130863e-09	-3.194854e+01	-7.461758e+01
7.000000e-07	-4.567139e-06	-1.139937e-09	-3.176327e+01	-7.437871e+01
7.100000e-07	-4.540071e-06	-1.138248e-09	-3.157502e+01	-7.413793e+01
7.200000e-07	-4.512691e-06	-1.124917e-09	-3.138460e+01	-7.389516e+01
7.300000e-07	-4.485098e-06	-1.139044e-09	-3.119270e+01	-7.365032e+01
7.400000e-07	-4.457360e-06	-1.133941e-09	-3.099979e+01	-7.340333e+01
7.500000e-07	-4.429404e-06	-1.114798e-09	-3.080536e+01	-7.315409e+01
7.600000e-07	-4.401204e-06	-1.111019e-09	-3.060924e+01	-7.290251e+01
7.700000e-07	-4.372724e-06	-1.107284e-09	-3.041117e+01	-7.264852e+01
7.800000e-07	-4.343851e-06	-1.086664e-09	-3.021036e+01	-7.239200e+01
7.900000e-07	-4.314616e-06	-1.090324e-09	-3.000704e+01	-7.213287e+01
8.000000e-07	-4.285135e-06	-1.100522e-09	-2.980201e+01	-7.187105e+01
8.100000e-07	-4.255465e-06	-1.086040e-09	-2.959566e+01	-7.160643e+01
8.200000e-07	-4.225462e-06	-1.077475e-09	-2.938700e+01	-7.133893e+01
8.300000e-07	-4.195120e-06	-1.083612e-09	-2.917598e+01	-7.106847e+01
8.400000e-07	-4.164453e-06	-1.071541e-09	-2.896270e+01	-7.079496e+01
8.500000e-07	-4.133405e-06	-1.052907e-09	-2.874677e+01	-7.051830e+01
8.600000e-07	-4.102171e-06	-1.054247e-09	-2.852954e+01	-7.023844e+01
8.700000e-07	-4.070773e-06	-1.050837e-09	-2.831117e+01	-6.995528e+01
8.800000e-07	-4.039205e-06	-1.040410e-09	-2.809163e+01	-6.966874e+01
8.900000e-07	-4.007522e-06	-1.041074e-09	-2.787128e+01	-6.937876e+01
9.000000e-07	-3.975593e-06	-1.044873e-09	-2.764922e+01	-6.908526e+01
9.100000e-07	-3.943282e-06	-1.029671e-09	-2.742451e+01	-6.878817e+01
9.200000e-07	-3.910581e-06	-1.021786e-09	-2.719708e+01	-6.848742e+01
9.300000e-07	-3.877573e-06	-1.019782e-09	-2.696752e+01	-6.818294e+01
9.400000e-07	-3.844218e-06	-1.009570e-09	-2.673554e+01	-6.787467e+01
9.500000e-07	-3.810368e-06	-9.964650e-10	-2.650013e+01	-6.756253e+01
9.600000e-07	-3.775997e-06	-9.985592e-10	-2.626108e+01	-6.724646e+01
9.700000e-07	-3.741201e-06	-9.922766e-10	-2.601909e+01	-6.692640e+01
9.800000e-07	-3.706127e-06	-9.820507e-10	-2.577515e+01	-6.660227e+01
9.900000e-07	-3.670906e-06	-9.797854e-10	-2.553021e+01	-6.627402e+01
1.000000e-06	-3.635487e-06	-9.787318e-10	-2.528387e+01	-6.594158e+01
1.010000e-06	-3.599839e-06	-9.652273e-10	-2.503595e+01	-6.560489e+01
1.020000e-06	-3.564094e-06	-9.582321e-10	-2.478736e+01	-6.526387e+01
1.030000e-06	-3.528270e-06	-9.567913e-10	-2.453821e+01	-6.491846e+01
1.040000e-06	-3.492204e-06	-9.510482e-10	-2.428738e+01	-6.456859e+01
1.050000e-06	-3.455889e-06	-9.433883e-10	-2.403482e+01	-6.421421e+01
1.060000e-06	-3.419217e-06	-9.408560e-10	-2.377977e+01	-6.385523e+01
1.070000e-06	-3.382216e-06	-9.322756e-10	-2.352244e+01	-6.349161e+01
1.080000e-06	-3.345006e-06	-9.212962e-10	-2.326366e+01	-6.312326e+01
1.090000e-06	-3.307552e-06	-9.147522e-10	-2.300317e+01	-6.275013e+01
1.100000e-06	-3.269946e-06	-9.085299e-10	-2.274163e+01	-6.237214e+01
1.110000e-06	-3.232150e-06	-8.999717e-10	-2.247877e+01	-6.198925e+01
1.120000e-06	-3.194105e-06	-8.946140e-10	-2.221418e+01	-6.160138e+01
1.130000e-06	-3.155805e-06	-8.919653e-10	-2.194781e+01	-6.120848e+01
1.140000e-06	-3.117175e-06	-8.838888e-10	-2.167915e+01	-6.081049e+01
1.150000e-06	-3.078297e-06	-8.746512e-10	-2.140876e+01	-6.040735e+01
1.160000e-06	-3.039358e-06	-8.651620e-10	-2.113795e+01	-5.999901e+01
1.170000e-06	-3.000283e-06	-8.542193e-10	-2.086620e+01	-5.958542e+01
1.180000e-06	-2.960980e-06	-8.438228e-10	-2.059285e+01	-5.916652e+01
1.190000e-06	-2.921496e-06	-8.395196e-10	-2.031825e+01	-5.874228e+01
1.200000e-06	-2.881880e-06	-8.343936e-10	-2.004273e+01	-5.831265e+01
1.210000e-06	-2.842110e-06	-8.272768e-10	-1.976614e+01	-5.787759e+01
1.220000e-06	-2.802199e-06	-8.223473e-10	-1.948857e+01	-5.743705e+01
1.230000e-06	-2.762188e-06	-8.196307e-10	-1.921031e+01	-5.699100e+01
1.240000e-06	-2.722010e-06	-8.106285e-10	-1.893088e+01	-5.653942e+01
1.250000e-06	-2.681582e-06	-8.009243e-10	-1.864971e+01	-5.608225e+01
1.260000e-06	-2.640867e-06	-7.911823e-10	-1.836655e+01	-5.561946e+01
1.270000e-06	-2.599860e-06	-7.803185e-10	-1.808135e+01	-5.515103e+01
1.280000e-06	-2.558683e-06	-7.710834e-10	-1.779498e+01	-5.467691e+01
1.290000e-06	-2.517195e-06	-7.664117e-10	-1.750644e+01	-5.419706e+01
1.300000e-06	-2.475350e-06	-7.601959e-10	-1.721542e+01	-5.371144e+01
1.310000e-06	-2.433267e-06	-7.540745e-10	-1.692274e+01	-5.322001e+01
1.320000e-06	-2.390871e-06	-7.460450e-10	-1.662789e+01	-5.272271e+01
1.330000e-06	-2.348229e-06	-7.368061e-10	-1.633133e+01	-5.221947e+01
1.340000e-06	-2.305385e-06	-7.266864e-10	-1.603336e+01	-5.171023e+01
1.350000e-06	-2.262253e-06	-7.174350e-10	-1.573339e+01	-5.119492e+01
1.360000e-06	-2.218854e-06	-7.083320e-10	-1.543156e+01	-5.067343e+01
1.370000e-06	-2.175340e-06	-7.012276e-10	-1.512893e+01	-5.014567e+01
1.380000e-06	-2.131778e-06	-6.969475e-10	-1.482597e+01	-4.961151e+01
1.390000e-06	-2.088172e-06	-6.921376e-10	-1.452270e+01	-4.907083e+01
1.400000e-06	-2.044482e-06	-6.833197e-10	-1.421885e+01	-4.852346e+01
1.410000e-06	-2.000672e-06	-6.732476e-10	-1.391416e+01	-4.796924e+01
1.420000e-06	-1.956789e-06	-6.635188e-10	-1.360896e+01	-4.740798e+01
1.430000e-06	-1.912850e-06	-6.553265e-10	-1.330338e+01	-4.683946e+01
1.440000e-06	-1.868809e-06	-6.494826e-10	-1.299708e+01	-4.626346e+01
1.450000e-06	-1.824644e-06	-6.419134e-10	-1.268993e+01	-4.567971e+01
1.460000e-06	-1.780396e-06	-6.319960e-10	-1.238219e+01	-4.508793e+01
1.470000e-06	-1.736073e-06	-6.210624e-10	-1.207394e+01	-4.448781e+01
1.480000e-06	-1.691623e-06	-6.087483e-10	-1.176480e+01	-4.387903e+01
1.490000e-06	-1.646982e-06	-5.956149e-10	-1.145433e+01	-4.326123e+01
1.500000e-06	-1.602198e-06	-5.849284e-10	-1.114287e+01	-4.263402e+01
1.510000e-06	-1.557308e-06	-5.776249e-10	-1.083067e+01	-4.199702e+01
1.520000e-06	-1.512304e-06	-5.728346e-10	-1.051768e+01	-4.134978e+01
1.530000e-06	-1.467182e-06	-5.649659e-10	-1.020387e+01	-4.069186e+01
1.540000e-06	-1.421949e-06	-5.537604e-10	-9.889291e+00	-4.002279e+01
1.550000e-06	-1.376612e-06	-5.371076e-10	-9.573980e+00	-3.934207e+01
1.560000e-06	-1.331174e-06	-5.202440e-10	-9.257971e+00	-3.864921e+01
1.570000e-06	-1.285631e-06	-5.050506e-10	-8.941235e+00	-3.794367e+01
1.580000e-06	-1.239971e-06	-4.921373e-10	-8.623682e+00	-3.722493e+01
1.590000e-06	-1.194235e-06	-4.810305e-10	-8.305595e+00	-3.649243e+01
1.600000e-06	-1.148509e-06	-4.713958e-10	-7.987584e+00	-3.574562e+01
1.610000e-06	-1.102782e-06	-4.614184e-10	-7.669568e+00	-3.498394e+01
1.620000e-06	-1.056936e-06	-4.511104e-10	-7.350719e+00	-3.420684e+01
1.630000e-06	-1.010955e-06	-4.416703e-10	-7.030931e+00	-3.341376e+01
1.640000e-06	-9.648637e-07	-4.318955e-10	-6.710378e+00	-3.260415e+01
1.650000e-06	-9.186967e-07	-4.201742e-10	-6.389298e+00	-3.177748e+01
1.660000e-06	-8.724618e-07	-4.055677e-10	-6.067747e+00	-3.093323e+01
1.670000e-06	-8.260724e-07	-3.882169e-10	-5.745120e+00	-3.007089e+01
1.680000e-06	-7.796214e-07	-3.698997e-10	-5.422066e+00	-2.918999e+01
1.690000e-06	-7.331621e-07	-3.543785e-10	-5.098953e+00	-2.829008e+01
1.700000e-06	-6.866862e-07	-3.419268e-10	-4.775725e+00	-2.737075e+01
1.710000e-06	-6.402621e-07	-3.296132e-10	-4.452858e+00	-2.643161e+01
1.720000e-06	-5.937965e-07	-3.169918e-10	-4.129701e+00	-2.547234e+01
1.730000e-06	-5.472779e-07	-3.029122e-10	-3.806177e+00	-2.449263e+01
1.740000e-06	-5.007323e-07	-2.850020e-10	-3.482464e+00	-2.349226e+01
1.750000e-06	-4.541019e-07	-2.655987e-10	-3.158161e+00	-2.247102e+01
1.760000e-06	-4.073972e-07	-2.480101e-10	-2.833342e+00	-2.142880e+01
1.770000e-06	-3.606611e-07	-2.324672e-10	-2.508305e+00	-2.036552e+01
1.780000e-06	-3.139094e-07	-2.193065e-10	-2.183159e+00	-1.928118e+01
1.790000e-06	-2.671801e-07	-2.075586e-10	-1.858169e+00	-1.817584e+01
1.800000e-06	-2.203747e-07	-1.944088e-10	-1.532649e+00	-1.704962e+01
1.810000e-06	-1.734818e-07	-1.789478e-10	-1.206521e+00	-1.590273e+01
1.820000e-06	-1.266373e-07	-1.616446e-10	-8.807294e-01	-1.473543e+01
1.830000e-06	-7.989105e-08	-1.454808e-10	-5.556216e-01	-1.354808e+01
1.840000e-06	-3.317611e-08	-1.310715e-10	-2.307313e-01	-1.234109e+01
1.850000e-06	1.359088e-08	-1.167969e-10	9.452106e-02	-1.111496e+01
1.860000e-06	6.039826e-08	-1.010264e-10	4.200543e-01	-9.870241e+00
1.870000e-06	1.071870e-07	-8.478863e-11	7.454582e-01	-8.607583e+00
1.880000e-06	1.540295e-07	-6.652870e-11	1.071235e+00	-7.327695e+00
1.890000e-06	2.008818e-07	-4.601062e-11	1.397081e+00	-6.031355e+00
1.900000e-06	2.476472e-07	-2.674449e-11	1.722323e+00	-4.719413e+00
1.910000e-06	2.943227e-07	-9.221718e-12	2.046939e+00	-3.392779e+00
1.920000e-06	3.409896e-07	7.913416e-12	2.371494e+00	-2.052428e+00
1.930000e-06	3.876804e-07	2.372609e-11	2.696217e+00	-6.993925e-01
1.940000e-06	4.343179e-07	3.969518e-11	3.020569e+00	6.652433e-01
1.950000e-06	4.808566e-07	5.805229e-11	3.344233e+00	2.040344e+00
1.960000e-06	5.272968e-07	7.821471e-11	3.667213e+00	3.424729e+00
1.970000e-06	5.737285e-07	9.863371e-11	3.990134e+00	4.817179e+00
1.980000e-06	6.201948e-07	1.182958e-10	4.313295e+00	6.216440e+00
1.990000e-06	6.666281e-07	1.372927e-10	4.636226e+00	7.621230e+00
2.000000e-06	7.129934e-07	1.546570e-10	4.958685e+00	9.030243e+00
2.010000e-06	7.592985e-07	1.702875e-10	5.280725e+00	1.044216e+01
2.020000e-06	8.055114e-07	1.875755e-10	5.602124e+00	1.185564e+01
2.030000e-06	8.516787e-07	2.073382e-10	5.923205e+00	1.326934e+01
2.040000e-06	8.977983e-07	2.277771e-10	6.243956e+00	1.468194e+01
2.050000e-06	9.438463e-07	2.479886e-10	6.564208e+00	1.609210e+01
2.060000e-06	9.898047e-07	2.680775e-10	6.883836e+00	1.749851e+01
2.070000e-06	1.035718e-06	2.887175e-10	7.203150e+00	1.889986e+01
2.080000e-06	1.081620e-06	3.110537e-10	7.522386e+00	2.029488e+01
2.090000e-06	1.127450e-06	3.330409e-10	7.841125e+00	2.168234e+01
2.100000e-06	1.173212e-06	3.534623e-10	8.159384e+00	2.306102e+01
2.110000e-06	1.218888e-06	3.724472e-10	8.477050e+00	2.442977e+01
2.120000e-06	1.264415e-06	3.887711e-10	8.793682e+00	2.578745e+01
2.130000e-06	1.309819e-06	4.038607e-10	9.109454e+00	2.713300e+01
2.140000e-06	1.355140e-06	4.216553e-10	9.424646e+00	2.846541e+01
2.150000e-06	1.400406e-06	4.436942e-10	9.739462e+00	2.978370e+01
2.160000e-06	1.445582e-06	4.645721e-10	1.005365e+01	3.108698e+01
2.170000e-06	1.490642e-06	4.846507e-10	1.036703e+01	3.237441e+01
2.180000e-06	1.535635e-06	5.030035e-10	1.067995e+01	3.364521e+01
2.190000e-06	1.580532e-06	5.195374e-10	1.099219e+01	3.489868e+01
2.200000e-06	1.625297e-06	5.334546e-10	1.130352e+01	3.613417e+01
2.210000e-06	1.669983e-06	5.493697e-10	1.161430e+01	3.735111e+01
2.220000e-06	1.714546e-06	5.673475e-10	1.192422e+01	3.854900e+01
2.230000e-06	1.758882e-06	5.860192e-10	1.223257e+01	3.972738e+01
2.240000e-06	1.803049e-06	6.054261e-10	1.253974e+01	4.088589e+01
2.250000e-06	1.847097e-06	6.213917e-10	1.284608e+01	4.202423e+01
2.260000e-06	1.891049e-06	6.332593e-10	1.315176e+01	4.314215e+01
2.270000e-06	1.934920e-06	6.445538e-10	1.345687e+01	4.423946e+01
2.280000e-06	1.978741e-06	6.611255e-10	1.376163e+01	4.531604e+01
2.290000e-06	2.022533e-06	6.797803e-10	1.406620e+01	4.637183e+01
2.300000e-06	2.066229e-06	6.983140e-10	1.437009e+01	4.740682e+01
2.310000e-06	2.109857e-06	7.141968e-10	1.467351e+01	4.842104e+01
2.320000e-06	2.153428e-06	7.276138e-10	1.497654e+01	4.941457e+01
2.330000e-06	2.196937e-06	7.399760e-10	1.527913e+01	5.038754e+01
2.340000e-06	2.240344e-06	7.519750e-10	1.558102e+01	5.134012e+01
2.350000e-06	2.283505e-06	7.635145e-10	1.588119e+01	5.227250e+01
2.360000e-06	2.326426e-06	7.780529e-10	1.617969e+01	5.318492e+01
2.370000e-06	2.369170e-06	7.939408e-10	1.647697e+01	5.407764e+01
2.380000e-06	2.411676e-06	8.083369e-10	1.677259e+01	5.495094e+01
2.390000e-06	2.453797e-06	8.220922e-10	1.706552e+01	5.580511e+01
2.400000e-06	2.495487e-06	8.345570e-10	1.735547e+01	5.664048e+01
2.410000e-06	2.536894e-06	8.433135e-10	1.764344e+01	5.745736e+01
2.420000e-06	2.578028e-06	8.508738e-10	1.792952e+01	5.825610e+01
2.430000e-06	2.618890e-06	8.603300e-10	1.821371e+01	5.903703e+01
2.440000e-06	2.659544e-06	8.721100e-10	1.849644e+01	5.980049e+01
2.450000e-06	2.699933e-06	8.839850e-10	1.877734e+01	6.054682e+01
2.460000e-06	2.740101e-06	8.948906e-10	1.905669e+01	6.127636e+01
2.470000e-06	2.780106e-06	9.073655e-10	1.933492e+01	6.198942e+01
2.480000e-06	2.819945e-06	9.213451e-10	1.961199e+01	6.268634e+01
2.490000e-06	2.859673e-06	9.348409e-10	1.988829e+01	6.336741e+01
2.500000e-06	2.899308e-06	9.443895e-10	2.016394e+01	6.403293e+01
2.510000e-06	2.938891e-06	9.500625e-10	2.043923e+01	6.468319e+01
2.520000e-06	2.978364e-06	9.550204e-10	2.071376e+01	6.531846e+01
2.530000e-06	3.017606e-06	9.615110e-10	2.098667e+01	6.593899e+01
2.540000e-06	3.056628e-06	9.696150e-10	2.125806e+01	6.654502e+01
2.550000e-06	3.095330e-06	9.794937e-10	2.152722e+01	6.713678e+01
2.560000e-06	3.133709e-06	9.891454e-10	2.179414e+01	6.771448e+01
2.570000e-06	3.171838e-06	9.984444e-10	2.205931e+01	6.827833e+01
2.580000e-06	3.209732e-06	1.004782e-09	2.232286e+01	6.882851e+01
2.590000e-06	3.247481e-06	1.008289e-09	2.258539e+01	6.936521e+01
2.600000e-06	3.285110e-06	1.013485e-09	2.284710e+01	6.988858e+01
2.610000e-06	3.322584e-06	1.020585e-09	2.310772e+01	7.039879e+01
2.620000e-06	3.359846e-06	1.024819e-09	2.336686e+01	7.089599e+01
2.630000e-06	3.396848e-06	1.026373e-09	2.362420e+01	7.138034e+01
2.640000e-06	3.433563e-06	1.028793e-09	2.387954e+01	7.185197e+01
2.650000e-06	3.469979e-06	1.032994e-09	2.413281e+01	7.231104e+01
2.660000e-06	3.506166e-06	1.038866e-09	2.438448e+01	7.275768e+01
2.670000e-06	3.542166e-06	1.046834e-09	2.463485e+01	7.319205e+01
2.680000e-06	3.577998e-06	1.054914e-09	2.488405e+01	7.361430e+01
2.690000e-06	3.613721e-06	1.061812e-09	2.513249e+01	7.402459e+01
2.700000e-06	3.649332e-06	1.069647e-09	2.538016e+01	7.442308e+01
2.710000e-06	3.684838e-06	1.076276e-09	2.562710e+01	7.480995e+01
2.720000e-06	3.720147e-06	1.080820e-09	2.587267e+01	7.518537e+01
2.730000e-06	3.755093e-06	1.085388e-09	2.611570e+01	7.554956e+01
2.740000e-06	3.789610e-06	1.089063e-09	2.635576e+01	7.590270e+01
2.750000e-06	3.823669e-06	1.093146e-09	2.659263e+01	7.624503e+01
2.760000e-06	3.857215e-06	1.098415e-09	2.682593e+01	7.657677e+01
2.770000e-06	3.890282e-06	1.103575e-09	2.705591e+01	7.689817e+01
2.780000e-06	3.922946e-06	1.108440e-09	2.728308e+01	7.720948e+01
2.790000e-06	3.955309e-06	1.113671e-09	2.750816e+01	7.751098e+01
2.800000e-06	3.987402e-06	1.119349e-09	2.773135e+01	7.780296e+01
2.810000e-06	4.019256e-06	1.125407e-09	2.795289e+01	7.808570e+01
2.820000e-06	4.050970e-06	1.131399e-09	2.817345e+01	7.835950e+01
2.830000e-06	4.082557e-06	1.134785e-09	2.839313e+01	7.862469e+01
2.840000e-06	4.113949e-06	1.137219e-09	2.861145e+01	7.888157e+01
2.850000e-06	4.145029e-06	1.142445e-09	2.882761e+01	7.913049e+01
2.860000e-06	4.175791e-06	1.148986e-09	2.904155e+01	7.937176e+01
2.870000e-06	4.206281e-06	1.154812e-09	2.925360e+01	7.960571e+01
2.880000e-06	4.236523e-06	1.158899e-09	2.946393e+01	7.983269e+01
2.890000e-06	4.266440e-06	1.163567e-09	2.967199e+01	8.005303e+01
2.900000e-06	4.296027e-06	1.169741e-09	2.987776e+01	8.026703e+01
