# Temperatura_=_-2.0
# Concentracion g/m^3_=_1620.0
# C_Vs_to_Am_M_A/Vsm_=_65563218390.804596
# pendiente_HvsI_1/m_=_3716.3
# ordenada_HvsI_A/m_=_1297.0
# frecuencia_Hz_=_135107.73241885717

Tiempo_(s)	Campo_(V.s)	Magnetizacion_(V.s)	Campo_(kA/m)	Magnetizacion_(A/m)
0.000000e+00	-5.511857e-06	-8.764159e-10	-3.835961e+01	-5.919015e+01
1.000000e-08	-5.511973e-06	-8.750259e-10	-3.836042e+01	-5.914828e+01
2.000000e-08	-5.511791e-06	-8.762667e-10	-3.835915e+01	-5.910474e+01
3.000000e-08	-5.511149e-06	-8.762044e-10	-3.835468e+01	-5.905933e+01
4.000000e-08	-5.510050e-06	-8.689355e-10	-3.834703e+01	-5.901188e+01
5.000000e-08	-5.508402e-06	-8.521263e-10	-3.833556e+01	-5.896225e+01
6.000000e-08	-5.506102e-06	-8.380079e-10	-3.831956e+01	-5.891028e+01
7.000000e-08	-5.503238e-06	-8.656684e-10	-3.829963e+01	-5.885582e+01
8.000000e-08	-5.499911e-06	-9.427905e-10	-3.827648e+01	-5.879876e+01
9.000000e-08	-5.496156e-06	-9.897794e-10	-3.825034e+01	-5.873898e+01
1.000000e-07	-5.491931e-06	-9.233955e-10	-3.822094e+01	-5.867640e+01
1.100000e-07	-5.487494e-06	-8.322115e-10	-3.819005e+01	-5.861094e+01
1.200000e-07	-5.482912e-06	-8.137714e-10	-3.815817e+01	-5.854253e+01
1.300000e-07	-5.477940e-06	-8.878313e-10	-3.812357e+01	-5.847114e+01
1.400000e-07	-5.472568e-06	-8.923810e-10	-3.808618e+01	-5.839675e+01
1.500000e-07	-5.466849e-06	-8.342274e-10	-3.804638e+01	-5.831936e+01
1.600000e-07	-5.460738e-06	-8.413851e-10	-3.800385e+01	-5.823897e+01
1.700000e-07	-5.454135e-06	-9.125220e-10	-3.795789e+01	-5.815563e+01
1.800000e-07	-5.447108e-06	-9.343889e-10	-3.790899e+01	-5.806939e+01
1.900000e-07	-5.439789e-06	-8.368536e-10	-3.785806e+01	-5.798032e+01
2.000000e-07	-5.432220e-06	-8.248030e-10	-3.780538e+01	-5.788850e+01
2.100000e-07	-5.424439e-06	-8.973187e-10	-3.775123e+01	-5.779403e+01
2.200000e-07	-5.416356e-06	-9.516417e-10	-3.769498e+01	-5.769704e+01
2.300000e-07	-5.407934e-06	-8.853543e-10	-3.763636e+01	-5.759765e+01
2.400000e-07	-5.399017e-06	-8.547056e-10	-3.757430e+01	-5.749600e+01
2.500000e-07	-5.389409e-06	-8.748402e-10	-3.750744e+01	-5.739224e+01
2.600000e-07	-5.379119e-06	-8.809890e-10	-3.743583e+01	-5.728653e+01
2.700000e-07	-5.368316e-06	-8.392274e-10	-3.736064e+01	-5.717904e+01
2.800000e-07	-5.357131e-06	-8.465845e-10	-3.728280e+01	-5.706993e+01
2.900000e-07	-5.345489e-06	-8.813742e-10	-3.720177e+01	-5.695939e+01
3.000000e-07	-5.333462e-06	-8.677778e-10	-3.711808e+01	-5.684758e+01
3.100000e-07	-5.321059e-06	-8.331441e-10	-3.703176e+01	-5.673468e+01
3.200000e-07	-5.308204e-06	-8.418679e-10	-3.694229e+01	-5.662085e+01
3.300000e-07	-5.294975e-06	-8.607705e-10	-3.685023e+01	-5.650628e+01
3.400000e-07	-5.281428e-06	-8.335322e-10	-3.675595e+01	-5.639111e+01
3.500000e-07	-5.267449e-06	-8.337054e-10	-3.665866e+01	-5.627549e+01
3.600000e-07	-5.253019e-06	-8.624294e-10	-3.655824e+01	-5.615959e+01
3.700000e-07	-5.238102e-06	-8.645722e-10	-3.645442e+01	-5.604352e+01
3.800000e-07	-5.222546e-06	-8.310970e-10	-3.634616e+01	-5.592740e+01
3.900000e-07	-5.206519e-06	-8.452286e-10	-3.623462e+01	-5.581135e+01
4.000000e-07	-5.190112e-06	-8.576909e-10	-3.612044e+01	-5.569546e+01
4.100000e-07	-5.173286e-06	-8.428573e-10	-3.600333e+01	-5.557980e+01
4.200000e-07	-5.156170e-06	-8.307313e-10	-3.588422e+01	-5.546444e+01
4.300000e-07	-5.138817e-06	-8.618001e-10	-3.576345e+01	-5.534942e+01
4.400000e-07	-5.121176e-06	-8.648209e-10	-3.564068e+01	-5.523477e+01
4.500000e-07	-5.103076e-06	-8.525320e-10	-3.551471e+01	-5.512050e+01
4.600000e-07	-5.084474e-06	-8.424806e-10	-3.538525e+01	-5.500660e+01
4.700000e-07	-5.065492e-06	-8.508643e-10	-3.525315e+01	-5.489305e+01
4.800000e-07	-5.046184e-06	-8.518757e-10	-3.511877e+01	-5.477982e+01
4.900000e-07	-5.026664e-06	-8.608540e-10	-3.498292e+01	-5.466683e+01
5.000000e-07	-5.007001e-06	-8.509314e-10	-3.484608e+01	-5.455403e+01
5.100000e-07	-4.987101e-06	-8.395649e-10	-3.470759e+01	-5.444133e+01
5.200000e-07	-4.966902e-06	-8.406973e-10	-3.456701e+01	-5.432863e+01
5.300000e-07	-4.946346e-06	-8.550384e-10	-3.442396e+01	-5.421581e+01
5.400000e-07	-4.925382e-06	-8.503415e-10	-3.427806e+01	-5.410274e+01
5.500000e-07	-4.904031e-06	-8.431046e-10	-3.412947e+01	-5.398931e+01
5.600000e-07	-4.882338e-06	-8.392538e-10	-3.397849e+01	-5.387535e+01
5.700000e-07	-4.860331e-06	-8.435173e-10	-3.382533e+01	-5.376073e+01
5.800000e-07	-4.837959e-06	-8.497527e-10	-3.366963e+01	-5.364529e+01
5.900000e-07	-4.815233e-06	-8.491575e-10	-3.351148e+01	-5.352885e+01
6.000000e-07	-4.792200e-06	-8.367273e-10	-3.335117e+01	-5.341128e+01
6.100000e-07	-4.768815e-06	-8.320753e-10	-3.318843e+01	-5.329238e+01
6.200000e-07	-4.745178e-06	-8.351929e-10	-3.302393e+01	-5.317201e+01
6.300000e-07	-4.721399e-06	-8.263045e-10	-3.285844e+01	-5.305000e+01
6.400000e-07	-4.697348e-06	-8.229721e-10	-3.269106e+01	-5.292620e+01
6.500000e-07	-4.672810e-06	-8.269202e-10	-3.252029e+01	-5.280043e+01
6.600000e-07	-4.647799e-06	-8.244843e-10	-3.234622e+01	-5.267257e+01
6.700000e-07	-4.622445e-06	-8.162703e-10	-3.216977e+01	-5.254246e+01
6.800000e-07	-4.596551e-06	-8.221649e-10	-3.198956e+01	-5.240998e+01
6.900000e-07	-4.569981e-06	-8.191310e-10	-3.180465e+01	-5.227499e+01
7.000000e-07	-4.542939e-06	-8.088468e-10	-3.161645e+01	-5.213739e+01
7.100000e-07	-4.515615e-06	-8.037569e-10	-3.142629e+01	-5.199707e+01
7.200000e-07	-4.488092e-06	-8.115613e-10	-3.123475e+01	-5.185393e+01
7.300000e-07	-4.460386e-06	-8.049515e-10	-3.104193e+01	-5.170791e+01
7.400000e-07	-4.432525e-06	-7.977941e-10	-3.084803e+01	-5.155893e+01
7.500000e-07	-4.404501e-06	-7.958495e-10	-3.065300e+01	-5.140693e+01
7.600000e-07	-4.376193e-06	-7.939284e-10	-3.045599e+01	-5.125187e+01
7.700000e-07	-4.347517e-06	-7.839705e-10	-3.025642e+01	-5.109373e+01
7.800000e-07	-4.318430e-06	-7.888607e-10	-3.005399e+01	-5.093247e+01
7.900000e-07	-4.289009e-06	-7.943424e-10	-2.984924e+01	-5.076810e+01
8.000000e-07	-4.259317e-06	-7.891382e-10	-2.964259e+01	-5.060061e+01
8.100000e-07	-4.229337e-06	-7.790913e-10	-2.943395e+01	-5.043002e+01
8.200000e-07	-4.199115e-06	-7.784549e-10	-2.922362e+01	-5.025634e+01
8.300000e-07	-4.168626e-06	-7.718224e-10	-2.901144e+01	-5.007962e+01
8.400000e-07	-4.137717e-06	-7.630870e-10	-2.879632e+01	-4.989989e+01
8.500000e-07	-4.106469e-06	-7.588153e-10	-2.857885e+01	-4.971719e+01
8.600000e-07	-4.075100e-06	-7.574658e-10	-2.836054e+01	-4.953159e+01
8.700000e-07	-4.043589e-06	-7.518780e-10	-2.814124e+01	-4.934312e+01
8.800000e-07	-4.011942e-06	-7.490809e-10	-2.792099e+01	-4.915186e+01
8.900000e-07	-3.980137e-06	-7.479606e-10	-2.769965e+01	-4.895787e+01
9.000000e-07	-3.948046e-06	-7.393183e-10	-2.747631e+01	-4.876120e+01
9.100000e-07	-3.915594e-06	-7.331259e-10	-2.725046e+01	-4.856192e+01
9.200000e-07	-3.882840e-06	-7.329569e-10	-2.702251e+01	-4.836010e+01
9.300000e-07	-3.849728e-06	-7.318497e-10	-2.679207e+01	-4.815580e+01
9.400000e-07	-3.816053e-06	-7.263266e-10	-2.655771e+01	-4.794906e+01
9.500000e-07	-3.781855e-06	-7.247071e-10	-2.631971e+01	-4.773996e+01
9.600000e-07	-3.747290e-06	-7.181518e-10	-2.607915e+01	-4.752852e+01
9.700000e-07	-3.712363e-06	-7.107543e-10	-2.583609e+01	-4.731481e+01
9.800000e-07	-3.677201e-06	-7.084360e-10	-2.559138e+01	-4.709885e+01
9.900000e-07	-3.641873e-06	-7.103118e-10	-2.534551e+01	-4.688067e+01
1.000000e-06	-3.606328e-06	-7.060628e-10	-2.509813e+01	-4.666029e+01
1.010000e-06	-3.570642e-06	-7.028519e-10	-2.484978e+01	-4.643774e+01
1.020000e-06	-3.534866e-06	-7.015089e-10	-2.460080e+01	-4.621300e+01
1.030000e-06	-3.498923e-06	-6.980983e-10	-2.435065e+01	-4.598609e+01
1.040000e-06	-3.462711e-06	-6.910727e-10	-2.409864e+01	-4.575698e+01
1.050000e-06	-3.426283e-06	-6.885181e-10	-2.384512e+01	-4.552565e+01
1.060000e-06	-3.389595e-06	-6.844949e-10	-2.358979e+01	-4.529208e+01
1.070000e-06	-3.352614e-06	-6.813346e-10	-2.333242e+01	-4.505623e+01
1.080000e-06	-3.315432e-06	-6.804742e-10	-2.307365e+01	-4.481804e+01
1.090000e-06	-3.278001e-06	-6.794856e-10	-2.281315e+01	-4.457747e+01
1.100000e-06	-3.240290e-06	-6.733585e-10	-2.255071e+01	-4.433444e+01
1.110000e-06	-3.202261e-06	-6.680967e-10	-2.228604e+01	-4.408888e+01
1.120000e-06	-3.163932e-06	-6.626382e-10	-2.201930e+01	-4.384072e+01
1.130000e-06	-3.125402e-06	-6.557942e-10	-2.175114e+01	-4.358987e+01
1.140000e-06	-3.086690e-06	-6.490509e-10	-2.148173e+01	-4.333624e+01
1.150000e-06	-3.047807e-06	-6.431770e-10	-2.121112e+01	-4.307972e+01
1.160000e-06	-3.008737e-06	-6.366610e-10	-2.093922e+01	-4.282022e+01
1.170000e-06	-2.969501e-06	-6.317285e-10	-2.066616e+01	-4.255762e+01
1.180000e-06	-2.930112e-06	-6.297357e-10	-2.039203e+01	-4.229182e+01
1.190000e-06	-2.890577e-06	-6.265098e-10	-2.011688e+01	-4.202269e+01
1.200000e-06	-2.850926e-06	-6.215701e-10	-1.984094e+01	-4.175011e+01
1.210000e-06	-2.811178e-06	-6.171353e-10	-1.956431e+01	-4.147396e+01
1.220000e-06	-2.771300e-06	-6.117132e-10	-1.928678e+01	-4.119412e+01
1.230000e-06	-2.731263e-06	-6.039803e-10	-1.900814e+01	-4.091044e+01
1.240000e-06	-2.691047e-06	-5.976983e-10	-1.872827e+01	-4.062281e+01
1.250000e-06	-2.650608e-06	-5.920160e-10	-1.844683e+01	-4.033108e+01
1.260000e-06	-2.609858e-06	-5.865082e-10	-1.816323e+01	-4.003512e+01
1.270000e-06	-2.568781e-06	-5.809060e-10	-1.787736e+01	-3.973479e+01
1.280000e-06	-2.527463e-06	-5.789528e-10	-1.758981e+01	-3.942994e+01
1.290000e-06	-2.485862e-06	-5.756883e-10	-1.730029e+01	-3.912044e+01
1.300000e-06	-2.443841e-06	-5.698504e-10	-1.700784e+01	-3.880612e+01
1.310000e-06	-2.401475e-06	-5.618795e-10	-1.671300e+01	-3.848685e+01
1.320000e-06	-2.358878e-06	-5.554872e-10	-1.641654e+01	-3.816246e+01
1.330000e-06	-2.316071e-06	-5.508311e-10	-1.611863e+01	-3.783279e+01
1.340000e-06	-2.273069e-06	-5.462624e-10	-1.581936e+01	-3.749769e+01
1.350000e-06	-2.229857e-06	-5.386553e-10	-1.551862e+01	-3.715698e+01
1.360000e-06	-2.186467e-06	-5.312662e-10	-1.521666e+01	-3.681049e+01
1.370000e-06	-2.142961e-06	-5.281608e-10	-1.491387e+01	-3.645803e+01
1.380000e-06	-2.099354e-06	-5.279507e-10	-1.461039e+01	-3.609943e+01
1.390000e-06	-2.055653e-06	-5.244764e-10	-1.430626e+01	-3.573447e+01
1.400000e-06	-2.011917e-06	-5.182787e-10	-1.400188e+01	-3.536297e+01
1.410000e-06	-1.968148e-06	-5.106814e-10	-1.369727e+01	-3.498471e+01
1.420000e-06	-1.924310e-06	-5.021734e-10	-1.339218e+01	-3.459947e+01
1.430000e-06	-1.880367e-06	-4.917173e-10	-1.308636e+01	-3.420702e+01
1.440000e-06	-1.836303e-06	-4.816952e-10	-1.277970e+01	-3.380713e+01
1.450000e-06	-1.792122e-06	-4.731349e-10	-1.247222e+01	-3.339955e+01
1.460000e-06	-1.747759e-06	-4.656522e-10	-1.216348e+01	-3.298401e+01
1.470000e-06	-1.703230e-06	-4.577071e-10	-1.185358e+01	-3.256026e+01
1.480000e-06	-1.658619e-06	-4.475781e-10	-1.154311e+01	-3.212801e+01
1.490000e-06	-1.613916e-06	-4.377671e-10	-1.123200e+01	-3.168699e+01
1.500000e-06	-1.569072e-06	-4.297710e-10	-1.091991e+01	-3.123690e+01
1.510000e-06	-1.524140e-06	-4.234280e-10	-1.060721e+01	-3.077744e+01
1.520000e-06	-1.479131e-06	-4.174053e-10	-1.029397e+01	-3.030829e+01
1.530000e-06	-1.433984e-06	-4.124540e-10	-9.979770e+00	-2.982914e+01
1.540000e-06	-1.388696e-06	-4.050892e-10	-9.664587e+00	-2.933967e+01
1.550000e-06	-1.343268e-06	-3.935565e-10	-9.348438e+00	-2.883956e+01
1.560000e-06	-1.297780e-06	-3.818826e-10	-9.031859e+00	-2.832846e+01
1.570000e-06	-1.252265e-06	-3.713296e-10	-8.715104e+00	-2.780606e+01
1.580000e-06	-1.206670e-06	-3.636980e-10	-8.397787e+00	-2.727202e+01
1.590000e-06	-1.160983e-06	-3.600452e-10	-8.079825e+00	-2.672600e+01
1.600000e-06	-1.115197e-06	-3.551187e-10	-7.761183e+00	-2.616769e+01
1.610000e-06	-1.069318e-06	-3.473289e-10	-7.441889e+00	-2.559675e+01
1.620000e-06	-1.023374e-06	-3.370425e-10	-7.122139e+00	-2.501288e+01
1.630000e-06	-9.773041e-07	-3.279214e-10	-6.801520e+00	-2.441577e+01
1.640000e-06	-9.311753e-07	-3.195483e-10	-6.480488e+00	-2.380513e+01
1.650000e-06	-8.850679e-07	-3.093445e-10	-6.159605e+00	-2.318068e+01
1.660000e-06	-8.388985e-07	-2.992209e-10	-5.838290e+00	-2.254214e+01
1.670000e-06	-7.926960e-07	-2.903955e-10	-5.516745e+00	-2.188929e+01
1.680000e-06	-7.464811e-07	-2.802325e-10	-5.195113e+00	-2.122189e+01
1.690000e-06	-7.001558e-07	-2.716804e-10	-4.872714e+00	-2.053975e+01
1.700000e-06	-6.537106e-07	-2.648867e-10	-4.549480e+00	-1.984269e+01
1.710000e-06	-6.072456e-07	-2.565950e-10	-4.226108e+00	-1.913056e+01
1.720000e-06	-5.607651e-07	-2.448788e-10	-3.902628e+00	-1.840324e+01
1.730000e-06	-5.141712e-07	-2.302029e-10	-3.578360e+00	-1.766065e+01
1.740000e-06	-4.675299e-07	-2.135379e-10	-3.253761e+00	-1.690273e+01
1.750000e-06	-4.208898e-07	-1.980939e-10	-2.929170e+00	-1.612948e+01
1.760000e-06	-3.741730e-07	-1.865617e-10	-2.604046e+00	-1.534090e+01
1.770000e-06	-3.274429e-07	-1.778466e-10	-2.278830e+00	-1.453706e+01
1.780000e-06	-2.807268e-07	-1.687782e-10	-1.953710e+00	-1.371805e+01
1.790000e-06	-2.339852e-07	-1.572147e-10	-1.628413e+00	-1.288402e+01
1.800000e-06	-1.872605e-07	-1.431793e-10	-1.303234e+00	-1.203514e+01
1.810000e-06	-1.405784e-07	-1.296651e-10	-9.783515e-01	-1.117165e+01
1.820000e-06	-9.385669e-08	-1.174677e-10	-6.531929e-01	-1.029380e+01
1.830000e-06	-4.707011e-08	-1.083926e-10	-3.275831e-01	-9.401899e+00
1.840000e-06	-3.169704e-10	-9.852785e-11	-2.205946e-03	-8.496308e+00
1.850000e-06	4.636424e-08	-8.516250e-11	3.226706e-01	-7.577416e+00
1.860000e-06	9.300825e-08	-7.269384e-11	6.472882e-01	-6.645660e+00
1.870000e-06	1.396894e-07	-5.924760e-11	9.721642e-01	-5.701517e+00
1.880000e-06	1.864179e-07	-4.320930e-11	1.297370e+00	-4.745504e+00
1.890000e-06	2.331756e-07	-2.725182e-11	1.622779e+00	-3.778178e+00
1.900000e-06	2.799109e-07	-1.343024e-11	1.948032e+00	-2.800132e+00
1.910000e-06	3.266056e-07	4.715941e-13	2.273003e+00	-1.811994e+00
1.920000e-06	3.732571e-07	1.299030e-11	2.597672e+00	-8.144277e-01
1.930000e-06	4.198648e-07	2.477588e-11	2.922037e+00	1.918739e-01
1.940000e-06	4.665119e-07	3.967711e-11	3.246676e+00	1.206187e+00
1.950000e-06	5.131667e-07	5.687485e-11	3.571369e+00	2.227762e+00
1.960000e-06	5.597283e-07	7.458295e-11	3.895413e+00	3.255825e+00
1.970000e-06	6.061835e-07	8.901208e-11	4.218716e+00	4.289580e+00
1.980000e-06	6.525637e-07	9.932039e-11	4.541498e+00	5.328214e+00
1.990000e-06	6.988875e-07	1.097008e-10	4.863887e+00	6.370895e+00
2.000000e-06	7.452484e-07	1.189209e-10	5.186535e+00	7.416783e+00
2.010000e-06	7.915666e-07	1.323841e-10	5.508885e+00	8.465023e+00
2.020000e-06	8.377205e-07	1.496642e-10	5.830091e+00	9.514759e+00
2.030000e-06	8.839068e-07	1.690418e-10	6.151524e+00	1.056513e+01
2.040000e-06	9.301420e-07	1.864764e-10	6.473296e+00	1.161526e+01
2.050000e-06	9.761858e-07	2.025996e-10	6.793737e+00	1.266431e+01
2.060000e-06	1.022036e-06	2.171897e-10	7.112830e+00	1.371140e+01
2.070000e-06	1.067844e-06	2.302876e-10	7.431631e+00	1.475571e+01
2.080000e-06	1.113657e-06	2.444677e-10	7.750466e+00	1.579638e+01
2.090000e-06	1.159407e-06	2.598890e-10	8.068858e+00	1.683259e+01
2.100000e-06	1.205030e-06	2.771170e-10	8.386373e+00	1.786355e+01
2.110000e-06	1.250544e-06	2.930811e-10	8.703123e+00	1.888845e+01
2.120000e-06	1.295944e-06	3.050618e-10	9.019086e+00	1.990654e+01
2.130000e-06	1.341239e-06	3.161875e-10	9.334314e+00	2.091706e+01
2.140000e-06	1.386525e-06	3.291667e-10	9.649480e+00	2.191929e+01
2.150000e-06	1.431779e-06	3.436282e-10	9.964425e+00	2.291254e+01
2.160000e-06	1.476928e-06	3.606554e-10	1.027864e+01	2.389615e+01
2.170000e-06	1.521928e-06	3.777003e-10	1.059181e+01	2.486946e+01
2.180000e-06	1.566743e-06	3.960506e-10	1.090370e+01	2.583188e+01
2.190000e-06	1.611409e-06	4.092979e-10	1.121455e+01	2.678283e+01
2.200000e-06	1.655976e-06	4.185675e-10	1.152471e+01	2.772175e+01
2.210000e-06	1.700481e-06	4.270959e-10	1.183445e+01	2.864814e+01
2.220000e-06	1.744878e-06	4.369255e-10	1.214343e+01	2.956152e+01
2.230000e-06	1.789143e-06	4.498431e-10	1.245149e+01	3.046143e+01
2.240000e-06	1.833267e-06	4.640520e-10	1.275857e+01	3.134746e+01
2.250000e-06	1.877261e-06	4.787880e-10	1.306475e+01	3.221923e+01
2.260000e-06	1.921161e-06	4.921411e-10	1.337027e+01	3.307639e+01
2.270000e-06	1.964977e-06	5.058291e-10	1.367520e+01	3.391862e+01
2.280000e-06	2.008726e-06	5.164182e-10	1.397967e+01	3.474563e+01
2.290000e-06	2.052424e-06	5.243070e-10	1.428379e+01	3.555717e+01
2.300000e-06	2.096058e-06	5.316161e-10	1.458745e+01	3.635302e+01
2.310000e-06	2.139593e-06	5.394622e-10	1.489043e+01	3.713299e+01
2.320000e-06	2.183033e-06	5.492203e-10	1.519276e+01	3.789689e+01
2.330000e-06	2.226391e-06	5.597556e-10	1.549451e+01	3.864461e+01
2.340000e-06	2.269578e-06	5.715017e-10	1.579507e+01	3.937602e+01
2.350000e-06	2.312572e-06	5.857240e-10	1.609428e+01	4.009104e+01
2.360000e-06	2.355450e-06	6.021735e-10	1.639269e+01	4.078961e+01
2.370000e-06	2.398069e-06	6.134042e-10	1.668930e+01	4.147170e+01
2.380000e-06	2.440207e-06	6.187386e-10	1.698255e+01	4.213730e+01
2.390000e-06	2.482044e-06	6.224022e-10	1.727371e+01	4.278641e+01
2.400000e-06	2.523679e-06	6.268779e-10	1.756347e+01	4.341906e+01
2.410000e-06	2.564984e-06	6.335756e-10	1.785093e+01	4.403530e+01
2.420000e-06	2.605974e-06	6.444136e-10	1.813620e+01	4.463522e+01
2.430000e-06	2.646636e-06	6.595054e-10	1.841919e+01	4.521888e+01
2.440000e-06	2.687020e-06	6.721594e-10	1.870024e+01	4.578641e+01
2.450000e-06	2.727255e-06	6.790847e-10	1.898026e+01	4.633793e+01
2.460000e-06	2.767317e-06	6.843423e-10	1.925906e+01	4.687356e+01
2.470000e-06	2.807173e-06	6.894912e-10	1.953644e+01	4.739348e+01
2.480000e-06	2.846863e-06	6.937204e-10	1.981266e+01	4.789785e+01
2.490000e-06	2.886405e-06	6.989441e-10	2.008785e+01	4.838685e+01
2.500000e-06	2.925860e-06	7.068340e-10	2.036244e+01	4.886069e+01
2.510000e-06	2.965214e-06	7.178894e-10	2.063632e+01	4.931958e+01
2.520000e-06	3.004412e-06	7.288582e-10	2.090912e+01	4.976374e+01
2.530000e-06	3.043379e-06	7.367416e-10	2.118031e+01	5.019340e+01
2.540000e-06	3.082093e-06	7.418806e-10	2.144974e+01	5.060882e+01
2.550000e-06	3.120573e-06	7.460211e-10	2.171754e+01	5.101026e+01
2.560000e-06	3.158828e-06	7.505056e-10	2.198378e+01	5.139799e+01
2.570000e-06	3.196888e-06	7.548989e-10	2.224865e+01	5.177230e+01
2.580000e-06	3.234712e-06	7.593477e-10	2.251188e+01	5.213346e+01
2.590000e-06	3.272268e-06	7.647208e-10	2.277326e+01	5.248180e+01
2.600000e-06	3.309671e-06	7.713234e-10	2.303356e+01	5.281761e+01
2.610000e-06	3.346952e-06	7.755784e-10	2.329301e+01	5.314122e+01
2.620000e-06	3.383999e-06	7.759649e-10	2.355084e+01	5.345296e+01
2.630000e-06	3.420793e-06	7.758150e-10	2.380691e+01	5.375316e+01
2.640000e-06	3.457294e-06	7.779373e-10	2.406094e+01	5.404216e+01
2.650000e-06	3.493502e-06	7.837478e-10	2.431293e+01	5.432031e+01
2.660000e-06	3.529519e-06	7.908199e-10	2.456358e+01	5.458797e+01
2.670000e-06	3.565342e-06	7.971502e-10	2.481290e+01	5.484550e+01
2.680000e-06	3.601012e-06	8.027753e-10	2.506114e+01	5.509324e+01
2.690000e-06	3.636572e-06	8.070768e-10	2.530862e+01	5.533158e+01
2.700000e-06	3.671944e-06	8.101426e-10	2.555479e+01	5.556087e+01
2.710000e-06	3.707152e-06	8.114335e-10	2.579982e+01	5.578148e+01
2.720000e-06	3.742177e-06	8.151265e-10	2.604357e+01	5.599376e+01
2.730000e-06	3.776877e-06	8.195698e-10	2.628506e+01	5.619810e+01
2.740000e-06	3.811175e-06	8.225878e-10	2.652377e+01	5.639484e+01
2.750000e-06	3.844964e-06	8.248360e-10	2.675892e+01	5.658435e+01
2.760000e-06	3.878233e-06	8.264900e-10	2.699045e+01	5.676696e+01
2.770000e-06	3.911099e-06	8.297148e-10	2.721918e+01	5.694303e+01
2.780000e-06	3.943570e-06	8.335697e-10	2.744516e+01	5.711288e+01
2.790000e-06	3.975654e-06	8.374389e-10	2.766845e+01	5.727685e+01
2.800000e-06	4.007450e-06	8.400155e-10	2.788973e+01	5.743524e+01
2.810000e-06	4.039115e-06	8.405201e-10	2.811011e+01	5.758837e+01
2.820000e-06	4.070663e-06	8.418220e-10	2.832966e+01	5.773652e+01
2.830000e-06	4.102072e-06	8.446061e-10	2.854825e+01	5.787996e+01
2.840000e-06	4.133289e-06	8.481353e-10	2.876551e+01	5.801895e+01
2.850000e-06	4.164185e-06	8.530181e-10	2.898052e+01	5.815375e+01
2.860000e-06	4.194725e-06	8.574093e-10	2.919307e+01	5.828457e+01
2.870000e-06	4.224929e-06	8.592749e-10	2.940327e+01	5.841163e+01
2.880000e-06	4.254859e-06	8.577319e-10	2.961157e+01	5.853511e+01
2.890000e-06	4.284464e-06	8.579162e-10	2.981760e+01	5.865520e+01
2.900000e-06	4.313766e-06	8.600860e-10	3.002153e+01	5.877204e+01
