# Temperatura_=_-0.6
# Concentracion g/m^3_=_1620.0
# C_Vs_to_Am_M_A/Vsm_=_65563218390.804596
# pendiente_HvsI_1/m_=_3716.3
# ordenada_HvsI_A/m_=_1297.0
# frecuencia_Hz_=_135097.25806089054

Tiempo_(s)	Campo_(V.s)	Magnetizacion_(V.s)	Campo_(kA/m)	Magnetizacion_(A/m)
0.000000e+00	-5.502992e-06	-1.414298e-09	-3.836738e+01	-9.230965e+01
1.000000e-08	-5.503118e-06	-1.414162e-09	-3.836826e+01	-9.226908e+01
2.000000e-08	-5.503029e-06	-1.413973e-09	-3.836764e+01	-9.222751e+01
3.000000e-08	-5.502553e-06	-1.413537e-09	-3.836432e+01	-9.218493e+01
4.000000e-08	-5.501529e-06	-1.407402e-09	-3.835718e+01	-9.214130e+01
5.000000e-08	-5.499837e-06	-1.388839e-09	-3.834538e+01	-9.209660e+01
6.000000e-08	-5.497555e-06	-1.372662e-09	-3.832947e+01	-9.205080e+01
7.000000e-08	-5.494715e-06	-1.387136e-09	-3.830967e+01	-9.200384e+01
8.000000e-08	-5.491361e-06	-1.433353e-09	-3.828629e+01	-9.195567e+01
9.000000e-08	-5.487596e-06	-1.524634e-09	-3.826004e+01	-9.190623e+01
1.000000e-07	-5.483501e-06	-1.541685e-09	-3.823148e+01	-9.185546e+01
1.100000e-07	-5.479059e-06	-1.385351e-09	-3.820052e+01	-9.180328e+01
1.200000e-07	-5.474390e-06	-1.265720e-09	-3.816796e+01	-9.174960e+01
1.300000e-07	-5.469579e-06	-1.381207e-09	-3.813442e+01	-9.169434e+01
1.400000e-07	-5.464293e-06	-1.491670e-09	-3.809756e+01	-9.163740e+01
1.500000e-07	-5.458569e-06	-1.413727e-09	-3.805766e+01	-9.157868e+01
1.600000e-07	-5.452579e-06	-1.281957e-09	-3.801589e+01	-9.151807e+01
1.700000e-07	-5.446240e-06	-1.411496e-09	-3.797170e+01	-9.145546e+01
1.800000e-07	-5.439375e-06	-1.530117e-09	-3.792384e+01	-9.139072e+01
1.900000e-07	-5.432052e-06	-1.421629e-09	-3.787278e+01	-9.132374e+01
2.000000e-07	-5.424513e-06	-1.274272e-09	-3.782022e+01	-9.125437e+01
2.100000e-07	-5.416762e-06	-1.348234e-09	-3.776618e+01	-9.118248e+01
2.200000e-07	-5.408721e-06	-1.472326e-09	-3.771011e+01	-9.110794e+01
2.300000e-07	-5.400371e-06	-1.430843e-09	-3.765189e+01	-9.103059e+01
2.400000e-07	-5.391581e-06	-1.348640e-09	-3.759061e+01	-9.095029e+01
2.500000e-07	-5.382114e-06	-1.358345e-09	-3.752461e+01	-9.086689e+01
2.600000e-07	-5.371867e-06	-1.408019e-09	-3.745316e+01	-9.078023e+01
2.700000e-07	-5.361034e-06	-1.379783e-09	-3.737764e+01	-9.069017e+01
2.800000e-07	-5.349808e-06	-1.368693e-09	-3.729936e+01	-9.059654e+01
2.900000e-07	-5.338214e-06	-1.378126e-09	-3.721853e+01	-9.049918e+01
3.000000e-07	-5.326253e-06	-1.395530e-09	-3.713514e+01	-9.039794e+01
3.100000e-07	-5.313894e-06	-1.369471e-09	-3.704897e+01	-9.029267e+01
3.200000e-07	-5.301083e-06	-1.364294e-09	-3.695965e+01	-9.018321e+01
3.300000e-07	-5.287849e-06	-1.346548e-09	-3.686738e+01	-9.006940e+01
3.400000e-07	-5.274326e-06	-1.381086e-09	-3.677310e+01	-8.995110e+01
3.500000e-07	-5.260466e-06	-1.387646e-09	-3.667646e+01	-8.982816e+01
3.600000e-07	-5.246071e-06	-1.362925e-09	-3.657610e+01	-8.970045e+01
3.700000e-07	-5.231125e-06	-1.353046e-09	-3.647190e+01	-8.956781e+01
3.800000e-07	-5.215737e-06	-1.389992e-09	-3.636461e+01	-8.943013e+01
3.900000e-07	-5.199672e-06	-1.351026e-09	-3.625260e+01	-8.928728e+01
4.000000e-07	-5.182982e-06	-1.323845e-09	-3.613624e+01	-8.913914e+01
4.100000e-07	-5.166123e-06	-1.379867e-09	-3.601870e+01	-8.898561e+01
4.200000e-07	-5.149082e-06	-1.374258e-09	-3.589988e+01	-8.882659e+01
4.300000e-07	-5.131708e-06	-1.294290e-09	-3.577875e+01	-8.866199e+01
4.400000e-07	-5.114042e-06	-1.349246e-09	-3.565558e+01	-8.849172e+01
4.500000e-07	-5.096005e-06	-1.417571e-09	-3.552982e+01	-8.831572e+01
4.600000e-07	-5.077441e-06	-1.312973e-09	-3.540040e+01	-8.813394e+01
4.700000e-07	-5.058449e-06	-1.277733e-09	-3.526798e+01	-8.794632e+01
4.800000e-07	-5.039211e-06	-1.386163e-09	-3.513385e+01	-8.775284e+01
4.900000e-07	-5.019703e-06	-1.363637e-09	-3.499784e+01	-8.755346e+01
5.000000e-07	-4.999948e-06	-1.271507e-09	-3.486011e+01	-8.734819e+01
5.100000e-07	-4.980043e-06	-1.345638e-09	-3.472133e+01	-8.713701e+01
5.200000e-07	-4.959947e-06	-1.368699e-09	-3.458122e+01	-8.691996e+01
5.300000e-07	-4.939441e-06	-1.279845e-09	-3.443825e+01	-8.669706e+01
5.400000e-07	-4.918487e-06	-1.316853e-09	-3.429215e+01	-8.646835e+01
5.500000e-07	-4.897120e-06	-1.381707e-09	-3.414318e+01	-8.623389e+01
5.600000e-07	-4.875345e-06	-1.272955e-09	-3.399136e+01	-8.599374e+01
5.700000e-07	-4.853296e-06	-1.249755e-09	-3.383764e+01	-8.574798e+01
5.800000e-07	-4.831013e-06	-1.343464e-09	-3.368228e+01	-8.549670e+01
5.900000e-07	-4.808389e-06	-1.311206e-09	-3.352454e+01	-8.524001e+01
6.000000e-07	-4.785345e-06	-1.243849e-09	-3.336388e+01	-8.497801e+01
6.100000e-07	-4.762018e-06	-1.312570e-09	-3.320124e+01	-8.471082e+01
6.200000e-07	-4.738499e-06	-1.312448e-09	-3.303726e+01	-8.443858e+01
6.300000e-07	-4.714764e-06	-1.238857e-09	-3.287178e+01	-8.416143e+01
6.400000e-07	-4.690736e-06	-1.258799e-09	-3.270425e+01	-8.387950e+01
6.500000e-07	-4.666329e-06	-1.290293e-09	-3.253409e+01	-8.359296e+01
6.600000e-07	-4.641575e-06	-1.237165e-09	-3.236150e+01	-8.330195e+01
6.700000e-07	-4.616308e-06	-1.240542e-09	-3.218534e+01	-8.300665e+01
6.800000e-07	-4.590450e-06	-1.278772e-09	-3.200505e+01	-8.270722e+01
6.900000e-07	-4.564096e-06	-1.252002e-09	-3.182130e+01	-8.240381e+01
7.000000e-07	-4.537245e-06	-1.227026e-09	-3.163410e+01	-8.209661e+01
7.100000e-07	-4.510013e-06	-1.250285e-09	-3.144424e+01	-8.178577e+01
7.200000e-07	-4.482533e-06	-1.240020e-09	-3.125264e+01	-8.147147e+01
7.300000e-07	-4.454871e-06	-1.211160e-09	-3.105978e+01	-8.115386e+01
7.400000e-07	-4.427100e-06	-1.218824e-09	-3.086616e+01	-8.083311e+01
7.500000e-07	-4.399141e-06	-1.222929e-09	-3.067123e+01	-8.050936e+01
7.600000e-07	-4.370845e-06	-1.203471e-09	-3.047394e+01	-8.018277e+01
7.700000e-07	-4.342196e-06	-1.196942e-09	-3.027420e+01	-7.985348e+01
7.800000e-07	-4.313197e-06	-1.199453e-09	-3.007202e+01	-7.952161e+01
7.900000e-07	-4.283904e-06	-1.185990e-09	-2.986778e+01	-7.918730e+01
8.000000e-07	-4.254297e-06	-1.179064e-09	-2.966136e+01	-7.885065e+01
8.100000e-07	-4.224438e-06	-1.177240e-09	-2.945318e+01	-7.851177e+01
8.200000e-07	-4.194281e-06	-1.166945e-09	-2.924292e+01	-7.817075e+01
8.300000e-07	-4.163782e-06	-1.156238e-09	-2.903028e+01	-7.782767e+01
8.400000e-07	-4.132918e-06	-1.161027e-09	-2.881510e+01	-7.748260e+01
8.500000e-07	-4.101753e-06	-1.149249e-09	-2.859781e+01	-7.713558e+01
8.600000e-07	-4.070491e-06	-1.132917e-09	-2.837985e+01	-7.678667e+01
8.700000e-07	-4.039058e-06	-1.127912e-09	-2.816070e+01	-7.643588e+01
8.800000e-07	-4.007432e-06	-1.125329e-09	-2.794019e+01	-7.608323e+01
8.900000e-07	-3.975639e-06	-1.110724e-09	-2.771853e+01	-7.572872e+01
9.000000e-07	-3.943645e-06	-1.107732e-09	-2.749547e+01	-7.537234e+01
9.100000e-07	-3.911386e-06	-1.106501e-09	-2.727055e+01	-7.501405e+01
9.200000e-07	-3.878812e-06	-1.095496e-09	-2.704344e+01	-7.465383e+01
9.300000e-07	-3.845830e-06	-1.089330e-09	-2.681349e+01	-7.429161e+01
9.400000e-07	-3.812350e-06	-1.093427e-09	-2.658006e+01	-7.392734e+01
9.500000e-07	-3.778381e-06	-1.081430e-09	-2.634323e+01	-7.356093e+01
9.600000e-07	-3.743855e-06	-1.065494e-09	-2.610251e+01	-7.319231e+01
9.700000e-07	-3.708854e-06	-1.061843e-09	-2.585848e+01	-7.282137e+01
9.800000e-07	-3.673577e-06	-1.058363e-09	-2.561253e+01	-7.244802e+01
9.900000e-07	-3.638132e-06	-1.048339e-09	-2.536540e+01	-7.207213e+01
1.000000e-06	-3.602626e-06	-1.048838e-09	-2.511785e+01	-7.169360e+01
1.010000e-06	-3.566991e-06	-1.049691e-09	-2.486940e+01	-7.131228e+01
1.020000e-06	-3.531198e-06	-1.039986e-09	-2.461985e+01	-7.092806e+01
1.030000e-06	-3.495182e-06	-1.031719e-09	-2.436874e+01	-7.054079e+01
1.040000e-06	-3.458939e-06	-1.028920e-09	-2.411605e+01	-7.015034e+01
1.050000e-06	-3.422540e-06	-1.018353e-09	-2.386227e+01	-6.975657e+01
1.060000e-06	-3.385893e-06	-1.004820e-09	-2.360677e+01	-6.935932e+01
1.070000e-06	-3.348946e-06	-1.002494e-09	-2.334917e+01	-6.895847e+01
1.080000e-06	-3.311687e-06	-9.978586e-10	-2.308939e+01	-6.855386e+01
1.090000e-06	-3.274178e-06	-9.888997e-10	-2.282788e+01	-6.814536e+01
1.100000e-06	-3.236487e-06	-9.840915e-10	-2.256509e+01	-6.773283e+01
1.110000e-06	-3.198512e-06	-9.809364e-10	-2.230033e+01	-6.731612e+01
1.120000e-06	-3.160275e-06	-9.711807e-10	-2.203373e+01	-6.689511e+01
1.130000e-06	-3.121877e-06	-9.635053e-10	-2.176602e+01	-6.646965e+01
1.140000e-06	-3.083261e-06	-9.557080e-10	-2.149679e+01	-6.603964e+01
1.150000e-06	-3.044467e-06	-9.417329e-10	-2.122631e+01	-6.560494e+01
1.160000e-06	-3.005528e-06	-9.267322e-10	-2.095483e+01	-6.516543e+01
1.170000e-06	-2.966390e-06	-9.218229e-10	-2.068195e+01	-6.472100e+01
1.180000e-06	-2.927031e-06	-9.182878e-10	-2.040754e+01	-6.427153e+01
1.190000e-06	-2.887474e-06	-9.124740e-10	-2.013174e+01	-6.381693e+01
1.200000e-06	-2.847749e-06	-9.078160e-10	-1.985477e+01	-6.335709e+01
1.210000e-06	-2.807951e-06	-9.043736e-10	-1.957730e+01	-6.289189e+01
1.220000e-06	-2.768044e-06	-8.931556e-10	-1.929907e+01	-6.242126e+01
1.230000e-06	-2.727940e-06	-8.836510e-10	-1.901945e+01	-6.194508e+01
1.240000e-06	-2.687736e-06	-8.752823e-10	-1.873915e+01	-6.146326e+01
1.250000e-06	-2.647437e-06	-8.654887e-10	-1.845818e+01	-6.097571e+01
1.260000e-06	-2.606897e-06	-8.557823e-10	-1.817553e+01	-6.048231e+01
1.270000e-06	-2.565982e-06	-8.490772e-10	-1.789027e+01	-5.998298e+01
1.280000e-06	-2.524747e-06	-8.450674e-10	-1.760277e+01	-5.947760e+01
1.290000e-06	-2.483152e-06	-8.375966e-10	-1.731277e+01	-5.896606e+01
1.300000e-06	-2.441191e-06	-8.279817e-10	-1.702022e+01	-5.844825e+01
1.310000e-06	-2.399073e-06	-8.185627e-10	-1.672656e+01	-5.792404e+01
1.320000e-06	-2.356796e-06	-8.088726e-10	-1.643180e+01	-5.739330e+01
1.330000e-06	-2.314239e-06	-7.990123e-10	-1.613509e+01	-5.685588e+01
1.340000e-06	-2.271318e-06	-7.903982e-10	-1.583584e+01	-5.631163e+01
1.350000e-06	-2.228106e-06	-7.808795e-10	-1.553457e+01	-5.576038e+01
1.360000e-06	-2.184785e-06	-7.687063e-10	-1.523253e+01	-5.520195e+01
1.370000e-06	-2.141349e-06	-7.587634e-10	-1.492969e+01	-5.463613e+01
1.380000e-06	-2.097763e-06	-7.536181e-10	-1.462580e+01	-5.406272e+01
1.390000e-06	-2.054098e-06	-7.469407e-10	-1.432137e+01	-5.348149e+01
1.400000e-06	-2.010397e-06	-7.376873e-10	-1.401668e+01	-5.289219e+01
1.410000e-06	-1.966629e-06	-7.283468e-10	-1.371152e+01	-5.229456e+01
1.420000e-06	-1.922755e-06	-7.198037e-10	-1.340563e+01	-5.168830e+01
1.430000e-06	-1.878824e-06	-7.099268e-10	-1.309934e+01	-5.107311e+01
1.440000e-06	-1.834916e-06	-7.009256e-10	-1.279321e+01	-5.044868e+01
1.450000e-06	-1.790860e-06	-6.908682e-10	-1.248605e+01	-4.981466e+01
1.460000e-06	-1.746609e-06	-6.783021e-10	-1.217753e+01	-4.917069e+01
1.470000e-06	-1.702198e-06	-6.648716e-10	-1.186788e+01	-4.851639e+01
1.480000e-06	-1.657683e-06	-6.506450e-10	-1.155752e+01	-4.785135e+01
1.490000e-06	-1.613105e-06	-6.357453e-10	-1.124672e+01	-4.717518e+01
1.500000e-06	-1.568331e-06	-6.237452e-10	-1.093455e+01	-4.648743e+01
1.510000e-06	-1.523442e-06	-6.152431e-10	-1.062158e+01	-4.578766e+01
1.520000e-06	-1.478414e-06	-6.072014e-10	-1.030764e+01	-4.507542e+01
1.530000e-06	-1.433267e-06	-5.973629e-10	-9.992873e+00	-4.435022e+01
1.540000e-06	-1.388038e-06	-5.863830e-10	-9.677533e+00	-4.361161e+01
1.550000e-06	-1.342747e-06	-5.725016e-10	-9.361759e+00	-4.285908e+01
1.560000e-06	-1.297430e-06	-5.591395e-10	-9.045808e+00	-4.209214e+01
1.570000e-06	-1.251981e-06	-5.456789e-10	-8.728926e+00	-4.131031e+01
1.580000e-06	-1.206423e-06	-5.331977e-10	-8.411296e+00	-4.051309e+01
1.590000e-06	-1.160791e-06	-5.219996e-10	-8.093141e+00	-3.969998e+01
1.600000e-06	-1.115010e-06	-5.103881e-10	-7.773957e+00	-3.887050e+01
1.610000e-06	-1.069108e-06	-4.995185e-10	-7.453920e+00	-3.802418e+01
1.620000e-06	-1.023153e-06	-4.902939e-10	-7.133521e+00	-3.716055e+01
1.630000e-06	-9.772532e-07	-4.837759e-10	-6.813501e+00	-3.627915e+01
1.640000e-06	-9.313748e-07	-4.710118e-10	-6.493633e+00	-3.537956e+01
1.650000e-06	-8.853337e-07	-4.527928e-10	-6.172630e+00	-3.446136e+01
1.660000e-06	-8.391364e-07	-4.321429e-10	-5.850538e+00	-3.352418e+01
1.670000e-06	-7.928595e-07	-4.094353e-10	-5.527891e+00	-3.256764e+01
1.680000e-06	-7.465959e-07	-3.902751e-10	-5.205337e+00	-3.159144e+01
1.690000e-06	-7.003519e-07	-3.780259e-10	-4.882920e+00	-3.059526e+01
1.700000e-06	-6.540484e-07	-3.682602e-10	-4.560087e+00	-2.957887e+01
1.710000e-06	-6.077334e-07	-3.571526e-10	-4.237175e+00	-2.854204e+01
1.720000e-06	-5.613709e-07	-3.401050e-10	-3.913931e+00	-2.748460e+01
1.730000e-06	-5.149306e-07	-3.193977e-10	-3.590145e+00	-2.640644e+01
1.740000e-06	-4.684811e-07	-2.964458e-10	-3.266294e+00	-2.530746e+01
1.750000e-06	-4.219930e-07	-2.744225e-10	-2.942175e+00	-2.418765e+01
1.760000e-06	-3.754357e-07	-2.567904e-10	-2.617573e+00	-2.304703e+01
1.770000e-06	-3.288796e-07	-2.430986e-10	-2.292979e+00	-2.188568e+01
1.780000e-06	-2.822678e-07	-2.331177e-10	-1.967998e+00	-2.070374e+01
1.790000e-06	-2.356025e-07	-2.190961e-10	-1.642643e+00	-1.950140e+01
1.800000e-06	-1.889577e-07	-2.003748e-10	-1.317431e+00	-1.827892e+01
1.810000e-06	-1.423367e-07	-1.807763e-10	-9.923849e-01	-1.703660e+01
1.820000e-06	-9.568555e-08	-1.638961e-10	-6.671287e-01	-1.577481e+01
1.830000e-06	-4.891490e-08	-1.494103e-10	-3.410393e-01	-1.449399e+01
1.840000e-06	-2.190170e-09	-1.348049e-10	-1.527007e-02	-1.319462e+01
1.850000e-06	4.444127e-08	-1.189298e-10	3.098487e-01	-1.187725e+01
1.860000e-06	9.115477e-08	-1.014256e-10	6.355396e-01	-1.054248e+01
1.870000e-06	1.379010e-07	-8.198899e-11	9.614584e-01	-9.190989e+00
1.880000e-06	1.846168e-07	-6.117281e-11	1.287165e+00	-7.823483e+00
1.890000e-06	2.312511e-07	-3.941498e-11	1.612304e+00	-6.440738e+00
1.900000e-06	2.778299e-07	-1.837520e-11	1.937057e+00	-5.043576e+00
1.910000e-06	3.244558e-07	1.068272e-12	2.262136e+00	-3.632870e+00
1.920000e-06	3.710511e-07	1.748862e-11	2.587003e+00	-2.209542e+00
1.930000e-06	4.176758e-07	3.366572e-11	2.912075e+00	-7.745547e-01
1.940000e-06	4.642540e-07	5.376712e-11	3.236823e+00	6.710860e-01
1.950000e-06	5.106860e-07	7.660178e-11	3.560551e+00	2.126337e+00
1.960000e-06	5.570771e-07	1.004516e-10	3.883994e+00	3.590122e+00
1.970000e-06	6.033712e-07	1.223177e-10	4.206760e+00	5.061331e+00
1.980000e-06	6.496628e-07	1.420228e-10	4.529511e+00	6.538830e+00
1.990000e-06	6.959352e-07	1.621047e-10	4.852126e+00	8.021460e+00
2.000000e-06	7.421089e-07	1.791656e-10	5.174053e+00	9.508046e+00
2.010000e-06	7.883090e-07	1.958805e-10	5.496165e+00	1.099739e+01
2.020000e-06	8.344244e-07	2.154944e-10	5.817685e+00	1.248830e+01
2.030000e-06	8.803976e-07	2.386299e-10	6.138215e+00	1.397956e+01
2.040000e-06	9.263726e-07	2.608873e-10	6.458757e+00	1.546996e+01
2.050000e-06	9.723221e-07	2.822502e-10	6.779121e+00	1.695828e+01
2.060000e-06	1.018160e-06	3.032066e-10	7.098711e+00	1.844334e+01
2.070000e-06	1.063941e-06	3.236098e-10	7.417896e+00	1.992392e+01
2.080000e-06	1.109689e-06	3.453147e-10	7.736853e+00	2.139886e+01
2.090000e-06	1.155353e-06	3.681647e-10	8.055228e+00	2.286700e+01
2.100000e-06	1.200913e-06	3.912228e-10	8.372876e+00	2.432718e+01
2.110000e-06	1.246375e-06	4.096249e-10	8.689841e+00	2.577831e+01
2.120000e-06	1.291709e-06	4.260856e-10	9.005920e+00	2.721930e+01
2.130000e-06	1.336941e-06	4.426965e-10	9.321281e+00	2.864908e+01
2.140000e-06	1.382033e-06	4.604780e-10	9.635667e+00	3.006666e+01
2.150000e-06	1.427029e-06	4.803471e-10	9.949381e+00	3.147104e+01
2.160000e-06	1.471999e-06	5.029135e-10	1.026292e+01	3.286130e+01
2.170000e-06	1.516890e-06	5.251852e-10	1.057590e+01	3.423653e+01
2.180000e-06	1.561684e-06	5.464046e-10	1.088821e+01	3.559590e+01
2.190000e-06	1.606346e-06	5.643387e-10	1.119960e+01	3.693859e+01
2.200000e-06	1.650815e-06	5.804473e-10	1.150964e+01	3.826386e+01
2.210000e-06	1.695152e-06	5.953117e-10	1.181876e+01	3.957101e+01
2.220000e-06	1.739429e-06	6.110080e-10	1.212746e+01	4.085939e+01
2.230000e-06	1.783562e-06	6.293109e-10	1.243516e+01	4.212841e+01
2.240000e-06	1.827585e-06	6.459032e-10	1.274209e+01	4.337751e+01
2.250000e-06	1.871605e-06	6.619512e-10	1.304901e+01	4.460621e+01
2.260000e-06	1.915537e-06	6.775449e-10	1.335530e+01	4.581408e+01
2.270000e-06	1.959362e-06	6.981995e-10	1.366086e+01	4.700073e+01
2.280000e-06	2.003140e-06	7.197608e-10	1.396608e+01	4.816584e+01
2.290000e-06	2.046840e-06	7.405639e-10	1.427076e+01	4.930913e+01
2.300000e-06	2.090472e-06	7.570383e-10	1.457497e+01	5.043038e+01
2.310000e-06	2.134054e-06	7.674108e-10	1.487883e+01	5.152941e+01
2.320000e-06	2.177530e-06	7.769681e-10	1.518195e+01	5.260611e+01
2.330000e-06	2.220805e-06	7.881748e-10	1.548366e+01	5.366039e+01
2.340000e-06	2.263907e-06	8.019517e-10	1.578417e+01	5.469224e+01
2.350000e-06	2.306784e-06	8.186391e-10	1.608312e+01	5.570167e+01
2.360000e-06	2.349486e-06	8.384951e-10	1.638084e+01	5.668873e+01
2.370000e-06	2.391981e-06	8.553254e-10	1.667711e+01	5.765355e+01
2.380000e-06	2.434119e-06	8.685191e-10	1.697091e+01	5.859624e+01
2.390000e-06	2.475825e-06	8.779717e-10	1.726168e+01	5.951701e+01
2.400000e-06	2.517188e-06	8.842428e-10	1.755007e+01	6.041605e+01
2.410000e-06	2.558243e-06	8.915664e-10	1.783631e+01	6.129362e+01
2.420000e-06	2.599024e-06	9.007892e-10	1.812064e+01	6.214999e+01
2.430000e-06	2.639554e-06	9.132424e-10	1.840322e+01	6.298547e+01
2.440000e-06	2.679848e-06	9.275112e-10	1.868415e+01	6.380039e+01
2.450000e-06	2.720005e-06	9.395467e-10	1.896413e+01	6.459510e+01
2.460000e-06	2.759960e-06	9.521054e-10	1.924270e+01	6.536998e+01
2.470000e-06	2.799790e-06	9.642207e-10	1.952040e+01	6.612542e+01
2.480000e-06	2.839515e-06	9.753543e-10	1.979737e+01	6.686184e+01
2.490000e-06	2.879170e-06	9.843670e-10	2.007385e+01	6.757964e+01
2.500000e-06	2.918732e-06	9.931076e-10	2.034968e+01	6.827927e+01
2.510000e-06	2.958057e-06	1.002340e-09	2.062385e+01	6.896118e+01
2.520000e-06	2.997171e-06	1.010064e-09	2.089656e+01	6.962581e+01
2.530000e-06	3.036081e-06	1.016537e-09	2.116784e+01	7.027362e+01
2.540000e-06	3.074772e-06	1.022029e-09	2.143760e+01	7.090508e+01
2.550000e-06	3.113208e-06	1.029258e-09	2.170558e+01	7.152063e+01
2.560000e-06	3.151395e-06	1.039324e-09	2.197182e+01	7.212076e+01
2.570000e-06	3.189398e-06	1.050149e-09	2.223678e+01	7.270591e+01
2.580000e-06	3.227234e-06	1.061316e-09	2.250058e+01	7.327654e+01
2.590000e-06	3.264940e-06	1.071095e-09	2.276347e+01	7.383311e+01
2.600000e-06	3.302401e-06	1.080392e-09	2.302465e+01	7.437606e+01
2.610000e-06	3.339654e-06	1.086069e-09	2.328438e+01	7.490583e+01
2.620000e-06	3.376717e-06	1.087829e-09	2.354279e+01	7.542285e+01
2.630000e-06	3.413454e-06	1.091198e-09	2.379892e+01	7.592754e+01
2.640000e-06	3.449866e-06	1.097550e-09	2.405279e+01	7.642032e+01
2.650000e-06	3.486082e-06	1.107630e-09	2.430530e+01	7.690158e+01
2.660000e-06	3.522155e-06	1.119741e-09	2.455680e+01	7.737171e+01
2.670000e-06	3.558027e-06	1.128793e-09	2.480690e+01	7.783108e+01
2.680000e-06	3.593753e-06	1.135376e-09	2.505598e+01	7.828006e+01
2.690000e-06	3.629312e-06	1.141509e-09	2.530390e+01	7.871899e+01
2.700000e-06	3.664689e-06	1.145297e-09	2.555056e+01	7.914821e+01
2.710000e-06	3.699962e-06	1.147257e-09	2.579648e+01	7.956803e+01
2.720000e-06	3.734965e-06	1.151825e-09	2.604053e+01	7.997877e+01
2.730000e-06	3.769556e-06	1.159214e-09	2.628170e+01	8.038071e+01
2.740000e-06	3.803696e-06	1.164886e-09	2.651972e+01	8.077412e+01
2.750000e-06	3.837334e-06	1.170900e-09	2.675425e+01	8.115928e+01
2.760000e-06	3.870489e-06	1.177057e-09	2.698541e+01	8.153642e+01
2.770000e-06	3.903163e-06	1.184576e-09	2.721322e+01	8.190578e+01
2.780000e-06	3.935494e-06	1.192262e-09	2.743863e+01	8.226757e+01
2.790000e-06	3.967569e-06	1.199132e-09	2.766226e+01	8.262199e+01
2.800000e-06	3.999403e-06	1.203772e-09	2.788422e+01	8.296924e+01
2.810000e-06	4.031106e-06	1.206971e-09	2.810525e+01	8.330949e+01
2.820000e-06	4.062660e-06	1.211499e-09	2.832525e+01	8.364290e+01
2.830000e-06	4.093998e-06	1.215872e-09	2.854374e+01	8.396962e+01
2.840000e-06	4.125110e-06	1.221049e-09	2.876065e+01	8.428978e+01
2.850000e-06	4.155952e-06	1.228572e-09	2.897569e+01	8.460351e+01
2.860000e-06	4.186370e-06	1.234701e-09	2.918777e+01	8.491092e+01
2.870000e-06	4.216424e-06	1.239501e-09	2.939730e+01	8.521210e+01
2.880000e-06	4.246350e-06	1.245278e-09	2.960595e+01	8.550716e+01
2.890000e-06	4.276050e-06	1.251630e-09	2.981302e+01	8.579616e+01
2.900000e-06	4.305379e-06	1.257391e-09	3.001751e+01	8.607918e+01
