# Temperatura_=_-1.3
# Concentracion g/m^3_=_1620.0
# C_Vs_to_Am_M_A/Vsm_=_65563218390.804596
# pendiente_HvsI_1/m_=_3716.3
# ordenada_HvsI_A/m_=_1297.0
# frecuencia_Hz_=_135106.44627306375

Tiempo_(s)	Campo_(V.s)	Magnetizacion_(V.s)	Campo_(kA/m)	Magnetizacion_(A/m)
0.000000e+00	-5.513004e-06	-1.034759e-09	-3.836327e+01	-6.867183e+01
1.000000e-08	-5.513347e-06	-1.030224e-09	-3.836566e+01	-6.859031e+01
2.000000e-08	-5.513508e-06	-1.027668e-09	-3.836678e+01	-6.850820e+01
3.000000e-08	-5.513312e-06	-1.028321e-09	-3.836542e+01	-6.842566e+01
4.000000e-08	-5.512621e-06	-1.027262e-09	-3.836061e+01	-6.834285e+01
5.000000e-08	-5.511363e-06	-1.015571e-09	-3.835185e+01	-6.825988e+01
6.000000e-08	-5.509500e-06	-9.948968e-10	-3.833889e+01	-6.817691e+01
7.000000e-08	-5.507033e-06	-9.865974e-10	-3.832173e+01	-6.809407e+01
8.000000e-08	-5.504031e-06	-1.020623e-09	-3.830084e+01	-6.801148e+01
9.000000e-08	-5.500576e-06	-1.098346e-09	-3.827679e+01	-6.792927e+01
1.000000e-07	-5.496640e-06	-1.143606e-09	-3.824941e+01	-6.784753e+01
1.100000e-07	-5.492287e-06	-1.066786e-09	-3.821911e+01	-6.776639e+01
1.200000e-07	-5.487780e-06	-9.321987e-10	-3.818775e+01	-6.768593e+01
1.300000e-07	-5.483204e-06	-9.497016e-10	-3.815591e+01	-6.760623e+01
1.400000e-07	-5.478233e-06	-1.038983e-09	-3.812132e+01	-6.752737e+01
1.500000e-07	-5.472755e-06	-1.057129e-09	-3.808320e+01	-6.744940e+01
1.600000e-07	-5.466971e-06	-9.694032e-10	-3.804295e+01	-6.737239e+01
1.700000e-07	-5.460884e-06	-9.779559e-10	-3.800059e+01	-6.729635e+01
1.800000e-07	-5.454281e-06	-1.077959e-09	-3.795464e+01	-6.722132e+01
1.900000e-07	-5.447129e-06	-1.059676e-09	-3.790487e+01	-6.714730e+01
2.000000e-07	-5.439674e-06	-9.533380e-10	-3.785299e+01	-6.707428e+01
2.100000e-07	-5.432021e-06	-9.160262e-10	-3.779974e+01	-6.700224e+01
2.200000e-07	-5.424112e-06	-1.015974e-09	-3.774470e+01	-6.693116e+01
2.300000e-07	-5.415971e-06	-1.053905e-09	-3.768806e+01	-6.686096e+01
2.400000e-07	-5.407526e-06	-1.011244e-09	-3.762929e+01	-6.679160e+01
2.500000e-07	-5.398566e-06	-9.586167e-10	-3.756693e+01	-6.672299e+01
2.600000e-07	-5.388828e-06	-9.868624e-10	-3.749917e+01	-6.665504e+01
2.700000e-07	-5.378296e-06	-9.998326e-10	-3.742588e+01	-6.658763e+01
2.800000e-07	-5.367295e-06	-9.981893e-10	-3.734933e+01	-6.652064e+01
2.900000e-07	-5.355881e-06	-9.976320e-10	-3.726990e+01	-6.645395e+01
3.000000e-07	-5.344054e-06	-1.024670e-09	-3.718761e+01	-6.638739e+01
3.100000e-07	-5.331963e-06	-1.024193e-09	-3.710347e+01	-6.632082e+01
3.200000e-07	-5.319435e-06	-9.983900e-10	-3.701629e+01	-6.625406e+01
3.300000e-07	-5.306370e-06	-9.780626e-10	-3.692537e+01	-6.618693e+01
3.400000e-07	-5.292955e-06	-9.942391e-10	-3.683203e+01	-6.611925e+01
3.500000e-07	-5.279229e-06	-1.012821e-09	-3.673651e+01	-6.605082e+01
3.600000e-07	-5.265092e-06	-1.001735e-09	-3.663813e+01	-6.598143e+01
3.700000e-07	-5.250363e-06	-9.994630e-10	-3.653564e+01	-6.591088e+01
3.800000e-07	-5.235235e-06	-1.013790e-09	-3.643037e+01	-6.583896e+01
3.900000e-07	-5.219665e-06	-9.950240e-10	-3.632202e+01	-6.576546e+01
4.000000e-07	-5.203567e-06	-9.681568e-10	-3.621000e+01	-6.569016e+01
4.100000e-07	-5.187080e-06	-1.002884e-09	-3.609527e+01	-6.561284e+01
4.200000e-07	-5.170219e-06	-1.014940e-09	-3.597794e+01	-6.553330e+01
4.300000e-07	-5.153043e-06	-9.739687e-10	-3.585842e+01	-6.545133e+01
4.400000e-07	-5.135474e-06	-9.757890e-10	-3.573616e+01	-6.536671e+01
4.500000e-07	-5.117585e-06	-1.026340e-09	-3.561168e+01	-6.527926e+01
4.600000e-07	-5.099278e-06	-9.814039e-10	-3.548428e+01	-6.518878e+01
4.700000e-07	-5.080518e-06	-9.414559e-10	-3.535374e+01	-6.509510e+01
4.800000e-07	-5.061476e-06	-9.869194e-10	-3.522123e+01	-6.499802e+01
4.900000e-07	-5.042187e-06	-1.013325e-09	-3.508701e+01	-6.489741e+01
5.000000e-07	-5.022638e-06	-9.633063e-10	-3.495097e+01	-6.479310e+01
5.100000e-07	-5.002892e-06	-9.779069e-10	-3.481357e+01	-6.468496e+01
5.200000e-07	-4.982901e-06	-9.987875e-10	-3.467445e+01	-6.457287e+01
5.300000e-07	-4.962549e-06	-9.614178e-10	-3.453283e+01	-6.445671e+01
5.400000e-07	-4.941771e-06	-9.570907e-10	-3.438824e+01	-6.433640e+01
5.500000e-07	-4.920602e-06	-1.003920e-09	-3.424094e+01	-6.421186e+01
5.600000e-07	-4.899073e-06	-9.707667e-10	-3.409112e+01	-6.408302e+01
5.700000e-07	-4.877198e-06	-9.373985e-10	-3.393890e+01	-6.394984e+01
5.800000e-07	-4.855042e-06	-9.731048e-10	-3.378472e+01	-6.381229e+01
5.900000e-07	-4.832502e-06	-9.813431e-10	-3.362788e+01	-6.367035e+01
6.000000e-07	-4.809558e-06	-9.423357e-10	-3.346821e+01	-6.352404e+01
6.100000e-07	-4.786309e-06	-9.592531e-10	-3.330643e+01	-6.337336e+01
6.200000e-07	-4.762831e-06	-9.789158e-10	-3.314305e+01	-6.321835e+01
6.300000e-07	-4.739237e-06	-9.469844e-10	-3.297887e+01	-6.305905e+01
6.400000e-07	-4.715438e-06	-9.377765e-10	-3.281326e+01	-6.289554e+01
6.500000e-07	-4.691284e-06	-9.539561e-10	-3.264518e+01	-6.272788e+01
6.600000e-07	-4.666694e-06	-9.367157e-10	-3.247407e+01	-6.255615e+01
6.700000e-07	-4.641561e-06	-9.240950e-10	-3.229918e+01	-6.238046e+01
6.800000e-07	-4.615944e-06	-9.469728e-10	-3.212091e+01	-6.220090e+01
6.900000e-07	-4.589866e-06	-9.467218e-10	-3.193945e+01	-6.201760e+01
7.000000e-07	-4.563265e-06	-9.323884e-10	-3.175434e+01	-6.183066e+01
7.100000e-07	-4.536188e-06	-9.354881e-10	-3.156592e+01	-6.164023e+01
7.200000e-07	-4.508806e-06	-9.385209e-10	-3.137538e+01	-6.144642e+01
7.300000e-07	-4.481256e-06	-9.222372e-10	-3.118366e+01	-6.124937e+01
7.400000e-07	-4.453559e-06	-9.191867e-10	-3.099093e+01	-6.104921e+01
7.500000e-07	-4.425650e-06	-9.191689e-10	-3.079672e+01	-6.084607e+01
7.600000e-07	-4.397485e-06	-9.127330e-10	-3.060072e+01	-6.064008e+01
7.700000e-07	-4.369076e-06	-9.052813e-10	-3.040304e+01	-6.043137e+01
7.800000e-07	-4.340327e-06	-9.098651e-10	-3.020298e+01	-6.022006e+01
7.900000e-07	-4.311211e-06	-9.074680e-10	-3.000037e+01	-6.000626e+01
8.000000e-07	-4.281794e-06	-9.074422e-10	-2.979567e+01	-5.979008e+01
8.100000e-07	-4.252071e-06	-9.055492e-10	-2.958884e+01	-5.957162e+01
8.200000e-07	-4.222041e-06	-9.002380e-10	-2.937987e+01	-5.935096e+01
8.300000e-07	-4.191786e-06	-8.909195e-10	-2.916933e+01	-5.912818e+01
8.400000e-07	-4.161255e-06	-8.914867e-10	-2.895688e+01	-5.890335e+01
8.500000e-07	-4.130391e-06	-8.863463e-10	-2.874211e+01	-5.867652e+01
8.600000e-07	-4.099219e-06	-8.765153e-10	-2.852518e+01	-5.844773e+01
8.700000e-07	-4.067772e-06	-8.714236e-10	-2.830636e+01	-5.821699e+01
8.800000e-07	-4.036203e-06	-8.705149e-10	-2.808668e+01	-5.798434e+01
8.900000e-07	-4.004522e-06	-8.655839e-10	-2.786622e+01	-5.774975e+01
9.000000e-07	-3.972601e-06	-8.635948e-10	-2.764409e+01	-5.751321e+01
9.100000e-07	-3.940415e-06	-8.600474e-10	-2.742012e+01	-5.727470e+01
9.200000e-07	-3.907883e-06	-8.502352e-10	-2.719374e+01	-5.703417e+01
9.300000e-07	-3.874899e-06	-8.419187e-10	-2.696422e+01	-5.679155e+01
9.400000e-07	-3.841425e-06	-8.402892e-10	-2.673128e+01	-5.654678e+01
9.500000e-07	-3.807513e-06	-8.346698e-10	-2.649530e+01	-5.629977e+01
9.600000e-07	-3.773207e-06	-8.241656e-10	-2.625657e+01	-5.605044e+01
9.700000e-07	-3.738500e-06	-8.207291e-10	-2.601505e+01	-5.579867e+01
9.800000e-07	-3.703516e-06	-8.172056e-10	-2.577161e+01	-5.554434e+01
9.900000e-07	-3.668296e-06	-8.113408e-10	-2.552652e+01	-5.528735e+01
1.000000e-06	-3.632850e-06	-8.090650e-10	-2.527987e+01	-5.502756e+01
1.010000e-06	-3.597283e-06	-8.104190e-10	-2.503237e+01	-5.476483e+01
1.020000e-06	-3.561550e-06	-8.029192e-10	-2.478371e+01	-5.449902e+01
1.030000e-06	-3.525585e-06	-7.956326e-10	-2.453345e+01	-5.423000e+01
1.040000e-06	-3.489454e-06	-7.913584e-10	-2.428202e+01	-5.395762e+01
1.050000e-06	-3.453108e-06	-7.854630e-10	-2.402910e+01	-5.368173e+01
1.060000e-06	-3.416434e-06	-7.761243e-10	-2.377390e+01	-5.340220e+01
1.070000e-06	-3.379487e-06	-7.729726e-10	-2.351679e+01	-5.311888e+01
1.080000e-06	-3.342377e-06	-7.691401e-10	-2.325856e+01	-5.283163e+01
1.090000e-06	-3.305056e-06	-7.620383e-10	-2.299886e+01	-5.254033e+01
1.100000e-06	-3.267456e-06	-7.549181e-10	-2.273721e+01	-5.224485e+01
1.110000e-06	-3.229563e-06	-7.519766e-10	-2.247352e+01	-5.194506e+01
1.120000e-06	-3.191427e-06	-7.439983e-10	-2.220815e+01	-5.164086e+01
1.130000e-06	-3.153120e-06	-7.393266e-10	-2.194158e+01	-5.133214e+01
1.140000e-06	-3.114604e-06	-7.377634e-10	-2.167356e+01	-5.101882e+01
1.150000e-06	-3.075835e-06	-7.318575e-10	-2.140378e+01	-5.070080e+01
1.160000e-06	-3.036921e-06	-7.208479e-10	-2.113299e+01	-5.037801e+01
1.170000e-06	-2.997872e-06	-7.152833e-10	-2.086125e+01	-5.005038e+01
1.180000e-06	-2.958621e-06	-7.128717e-10	-2.058812e+01	-4.971787e+01
1.190000e-06	-2.919208e-06	-7.104766e-10	-2.031386e+01	-4.938041e+01
1.200000e-06	-2.879679e-06	-7.095007e-10	-2.003878e+01	-4.903799e+01
1.210000e-06	-2.840021e-06	-7.091653e-10	-1.976282e+01	-4.869056e+01
1.220000e-06	-2.800208e-06	-7.052772e-10	-1.948577e+01	-4.833811e+01
1.230000e-06	-2.760211e-06	-6.964316e-10	-1.920745e+01	-4.798062e+01
1.240000e-06	-2.720023e-06	-6.883438e-10	-1.892779e+01	-4.761809e+01
1.250000e-06	-2.679680e-06	-6.778767e-10	-1.864706e+01	-4.725051e+01
1.260000e-06	-2.639090e-06	-6.695818e-10	-1.836460e+01	-4.687788e+01
1.270000e-06	-2.598166e-06	-6.662975e-10	-1.807983e+01	-4.650020e+01
1.280000e-06	-2.556976e-06	-6.652754e-10	-1.779320e+01	-4.611747e+01
1.290000e-06	-2.515520e-06	-6.640869e-10	-1.750472e+01	-4.572969e+01
1.300000e-06	-2.473830e-06	-6.589633e-10	-1.721461e+01	-4.533686e+01
1.310000e-06	-2.431853e-06	-6.488294e-10	-1.692251e+01	-4.493895e+01
1.320000e-06	-2.389481e-06	-6.351540e-10	-1.662766e+01	-4.453597e+01
1.330000e-06	-2.346847e-06	-6.225825e-10	-1.633097e+01	-4.412787e+01
1.340000e-06	-2.304020e-06	-6.160211e-10	-1.603296e+01	-4.371462e+01
1.350000e-06	-2.261028e-06	-6.107934e-10	-1.573379e+01	-4.329617e+01
1.360000e-06	-2.217859e-06	-6.074459e-10	-1.543339e+01	-4.287245e+01
1.370000e-06	-2.174483e-06	-6.051292e-10	-1.513155e+01	-4.244337e+01
1.380000e-06	-2.131003e-06	-6.040508e-10	-1.482898e+01	-4.200885e+01
1.390000e-06	-2.087447e-06	-5.994203e-10	-1.452589e+01	-4.156876e+01
1.400000e-06	-2.043763e-06	-5.909621e-10	-1.422191e+01	-4.112294e+01
1.410000e-06	-1.999977e-06	-5.811482e-10	-1.391722e+01	-4.067125e+01
1.420000e-06	-1.956117e-06	-5.694594e-10	-1.361201e+01	-4.021350e+01
1.430000e-06	-1.912155e-06	-5.597362e-10	-1.330609e+01	-3.974946e+01
1.440000e-06	-1.868128e-06	-5.553735e-10	-1.299972e+01	-3.927891e+01
1.450000e-06	-1.824046e-06	-5.519270e-10	-1.269297e+01	-3.880159e+01
1.460000e-06	-1.779834e-06	-5.468361e-10	-1.238531e+01	-3.831720e+01
1.470000e-06	-1.735521e-06	-5.387766e-10	-1.207695e+01	-3.782543e+01
1.480000e-06	-1.691059e-06	-5.290348e-10	-1.176755e+01	-3.732595e+01
1.490000e-06	-1.646435e-06	-5.165981e-10	-1.145703e+01	-3.681840e+01
1.500000e-06	-1.601675e-06	-5.042391e-10	-1.114555e+01	-3.630239e+01
1.510000e-06	-1.556732e-06	-4.952010e-10	-1.083281e+01	-3.577751e+01
1.520000e-06	-1.511672e-06	-4.901285e-10	-1.051926e+01	-3.524334e+01
1.530000e-06	-1.466546e-06	-4.867953e-10	-1.020524e+01	-3.469944e+01
1.540000e-06	-1.421342e-06	-4.812111e-10	-9.890678e+00	-3.414533e+01
1.550000e-06	-1.376055e-06	-4.714700e-10	-9.575539e+00	-3.358054e+01
1.560000e-06	-1.330664e-06	-4.589078e-10	-9.259677e+00	-3.300458e+01
1.570000e-06	-1.285156e-06	-4.455483e-10	-8.943000e+00	-3.241696e+01
1.580000e-06	-1.239609e-06	-4.327718e-10	-8.626053e+00	-3.181716e+01
1.590000e-06	-1.194064e-06	-4.228358e-10	-8.309118e+00	-3.120467e+01
1.600000e-06	-1.148493e-06	-4.167850e-10	-7.992002e+00	-3.057900e+01
1.610000e-06	-1.102731e-06	-4.114731e-10	-7.673559e+00	-2.993962e+01
1.620000e-06	-1.056746e-06	-4.060781e-10	-7.353566e+00	-2.928603e+01
1.630000e-06	-1.010725e-06	-3.999703e-10	-7.033323e+00	-2.861776e+01
1.640000e-06	-9.646242e-07	-3.900616e-10	-6.712519e+00	-2.793432e+01
1.650000e-06	-9.184335e-07	-3.761446e-10	-6.391092e+00	-2.723526e+01
1.660000e-06	-8.721668e-07	-3.609680e-10	-6.069137e+00	-2.652013e+01
1.670000e-06	-8.257792e-07	-3.457682e-10	-5.746340e+00	-2.578853e+01
1.680000e-06	-7.794043e-07	-3.304142e-10	-5.423631e+00	-2.504008e+01
1.690000e-06	-7.330523e-07	-3.184655e-10	-5.101083e+00	-2.427443e+01
1.700000e-06	-6.866644e-07	-3.095696e-10	-4.778283e+00	-2.349125e+01
1.710000e-06	-6.402584e-07	-3.017129e-10	-4.455359e+00	-2.269028e+01
1.720000e-06	-5.938279e-07	-2.917559e-10	-4.132263e+00	-2.187129e+01
1.730000e-06	-5.473194e-07	-2.773869e-10	-3.808625e+00	-2.103409e+01
1.740000e-06	-5.007154e-07	-2.594154e-10	-3.484322e+00	-2.017855e+01
1.750000e-06	-4.540098e-07	-2.419905e-10	-3.159313e+00	-1.930457e+01
1.760000e-06	-4.072736e-07	-2.271129e-10	-2.834090e+00	-1.841212e+01
1.770000e-06	-3.605512e-07	-2.142013e-10	-2.508963e+00	-1.750122e+01
1.780000e-06	-3.137547e-07	-2.024756e-10	-2.183321e+00	-1.657196e+01
1.790000e-06	-2.669235e-07	-1.921443e-10	-1.857438e+00	-1.562448e+01
1.800000e-06	-2.201327e-07	-1.814809e-10	-1.531835e+00	-1.465896e+01
1.810000e-06	-1.733138e-07	-1.690270e-10	-1.206037e+00	-1.367566e+01
1.820000e-06	-1.264842e-07	-1.562453e-10	-8.801639e-01	-1.267490e+01
1.830000e-06	-7.968923e-08	-1.440823e-10	-5.545325e-01	-1.165707e+01
1.840000e-06	-3.294872e-08	-1.306950e-10	-2.292799e-01	-1.062259e+01
1.850000e-06	1.373762e-08	-1.152705e-10	9.559578e-02	-9.571963e+00
1.860000e-06	6.041987e-08	-9.950114e-11	4.204430e-01	-8.505746e+00
1.870000e-06	1.071409e-07	-8.443563e-11	7.455602e-01	-7.424548e+00
1.880000e-06	1.539165e-07	-6.880914e-11	1.071057e+00	-6.329037e+00
1.890000e-06	2.006849e-07	-5.194735e-11	1.396504e+00	-5.219932e+00
1.900000e-06	2.475151e-07	-3.531276e-11	1.722381e+00	-4.098003e+00
1.910000e-06	2.943913e-07	-2.025539e-11	2.048577e+00	-2.964068e+00
1.920000e-06	3.412051e-07	-5.276407e-12	2.374340e+00	-1.818988e+00
1.930000e-06	3.879105e-07	1.023878e-11	2.699348e+00	-6.636671e-01
1.940000e-06	4.345464e-07	2.500557e-11	3.023873e+00	5.009540e-01
1.950000e-06	4.811629e-07	3.951648e-11	3.348263e+00	1.673900e+00
1.960000e-06	5.277551e-07	5.508022e-11	3.672483e+00	2.854166e+00
1.970000e-06	5.743127e-07	7.139409e-11	3.996463e+00	4.040720e+00
1.980000e-06	6.208624e-07	8.822629e-11	4.320388e+00	5.232511e+00
1.990000e-06	6.673678e-07	1.063717e-10	4.644004e+00	6.428467e+00
2.000000e-06	7.137840e-07	1.227862e-10	4.967000e+00	7.627505e+00
2.010000e-06	7.602230e-07	1.368910e-10	5.290155e+00	8.828534e+00
2.020000e-06	8.065782e-07	1.528420e-10	5.612726e+00	1.003046e+01
2.030000e-06	8.527470e-07	1.707644e-10	5.934001e+00	1.123218e+01
2.040000e-06	8.988644e-07	1.883995e-10	6.254917e+00	1.243261e+01
2.050000e-06	9.449586e-07	2.050276e-10	6.575672e+00	1.363067e+01
2.060000e-06	9.909913e-07	2.203825e-10	6.895999e+00	1.482528e+01
2.070000e-06	1.036929e-06	2.363302e-10	7.215666e+00	1.601541e+01
2.080000e-06	1.082805e-06	2.537033e-10	7.534902e+00	1.720001e+01
2.090000e-06	1.128590e-06	2.717219e-10	7.853509e+00	1.837809e+01
2.100000e-06	1.174255e-06	2.911615e-10	8.171276e+00	1.954866e+01
2.110000e-06	1.219808e-06	3.101055e-10	8.488262e+00	2.071079e+01
2.120000e-06	1.265183e-06	3.248534e-10	8.804011e+00	2.186356e+01
2.130000e-06	1.310542e-06	3.374159e-10	9.119651e+00	2.300610e+01
2.140000e-06	1.355944e-06	3.503811e-10	9.435591e+00	2.413759e+01
2.150000e-06	1.401279e-06	3.654043e-10	9.751066e+00	2.525723e+01
2.160000e-06	1.446484e-06	3.831966e-10	1.006563e+01	2.636428e+01
2.170000e-06	1.491491e-06	4.014425e-10	1.037882e+01	2.745804e+01
2.180000e-06	1.536369e-06	4.202593e-10	1.069111e+01	2.853787e+01
2.190000e-06	1.581214e-06	4.380961e-10	1.100317e+01	2.960316e+01
2.200000e-06	1.625964e-06	4.522881e-10	1.131457e+01	3.065335e+01
2.210000e-06	1.670542e-06	4.634864e-10	1.162478e+01	3.168796e+01
2.220000e-06	1.714992e-06	4.751280e-10	1.193409e+01	3.270652e+01
2.230000e-06	1.759294e-06	4.892525e-10	1.224238e+01	3.370863e+01
2.240000e-06	1.803419e-06	5.057635e-10	1.254943e+01	3.469394e+01
2.250000e-06	1.847432e-06	5.214679e-10	1.285570e+01	3.566215e+01
2.260000e-06	1.891403e-06	5.336127e-10	1.316168e+01	3.661300e+01
2.270000e-06	1.935311e-06	5.460774e-10	1.346723e+01	3.754627e+01
2.280000e-06	1.979117e-06	5.600252e-10	1.377206e+01	3.846182e+01
2.290000e-06	2.022880e-06	5.746358e-10	1.407659e+01	3.935951e+01
2.300000e-06	2.066573e-06	5.877242e-10	1.438064e+01	4.023926e+01
2.310000e-06	2.110195e-06	5.989858e-10	1.468419e+01	4.110104e+01
2.320000e-06	2.153764e-06	6.082074e-10	1.498737e+01	4.194486e+01
2.330000e-06	2.197246e-06	6.157855e-10	1.528995e+01	4.277073e+01
2.340000e-06	2.240596e-06	6.255967e-10	1.559161e+01	4.357873e+01
2.350000e-06	2.283796e-06	6.404478e-10	1.589223e+01	4.436896e+01
2.360000e-06	2.326796e-06	6.583921e-10	1.619145e+01	4.514155e+01
2.370000e-06	2.369608e-06	6.763774e-10	1.648936e+01	4.589665e+01
2.380000e-06	2.412194e-06	6.895753e-10	1.678570e+01	4.663445e+01
2.390000e-06	2.454388e-06	6.981554e-10	1.707932e+01	4.735513e+01
2.400000e-06	2.496183e-06	7.059751e-10	1.737016e+01	4.805892e+01
2.410000e-06	2.537639e-06	7.131238e-10	1.765864e+01	4.874604e+01
2.420000e-06	2.578778e-06	7.209874e-10	1.794491e+01	4.941676e+01
2.430000e-06	2.619721e-06	7.339182e-10	1.822982e+01	5.007133e+01
2.440000e-06	2.660394e-06	7.499164e-10	1.851285e+01	5.071001e+01
2.450000e-06	2.700707e-06	7.599948e-10	1.879338e+01	5.133309e+01
2.460000e-06	2.740855e-06	7.655381e-10	1.907276e+01	5.194085e+01
2.470000e-06	2.780885e-06	7.730943e-10	1.935131e+01	5.253357e+01
2.480000e-06	2.820757e-06	7.823989e-10	1.962877e+01	5.311155e+01
2.490000e-06	2.860498e-06	7.908752e-10	1.990531e+01	5.367506e+01
2.500000e-06	2.900106e-06	7.985719e-10	2.018093e+01	5.422440e+01
2.510000e-06	2.939602e-06	8.064598e-10	2.045577e+01	5.475985e+01
2.520000e-06	2.978995e-06	8.141622e-10	2.072990e+01	5.528170e+01
2.530000e-06	3.018221e-06	8.196946e-10	2.100286e+01	5.579022e+01
2.540000e-06	3.057165e-06	8.241320e-10	2.127385e+01	5.628568e+01
2.550000e-06	3.095808e-06	8.283774e-10	2.154276e+01	5.676835e+01
2.560000e-06	3.134271e-06	8.350758e-10	2.181041e+01	5.723849e+01
2.570000e-06	3.172541e-06	8.438672e-10	2.207672e+01	5.769635e+01
2.580000e-06	3.210542e-06	8.508659e-10	2.234116e+01	5.814218e+01
2.590000e-06	3.248323e-06	8.557874e-10	2.260407e+01	5.857622e+01
2.600000e-06	3.285955e-06	8.609256e-10	2.286593e+01	5.899870e+01
2.610000e-06	3.323415e-06	8.657047e-10	2.312661e+01	5.940983e+01
2.620000e-06	3.360576e-06	8.681418e-10	2.338520e+01	5.980985e+01
2.630000e-06	3.397390e-06	8.692249e-10	2.364138e+01	6.019896e+01
2.640000e-06	3.433980e-06	8.717968e-10	2.389600e+01	6.057737e+01
2.650000e-06	3.470361e-06	8.760614e-10	2.414916e+01	6.094526e+01
2.660000e-06	3.506464e-06	8.819818e-10	2.440039e+01	6.130285e+01
2.670000e-06	3.542318e-06	8.878457e-10	2.464989e+01	6.165031e+01
2.680000e-06	3.578052e-06	8.933162e-10	2.489854e+01	6.198782e+01
2.690000e-06	3.613701e-06	9.007733e-10	2.514662e+01	6.231558e+01
2.700000e-06	3.649244e-06	9.085721e-10	2.539395e+01	6.263374e+01
2.710000e-06	3.684665e-06	9.125917e-10	2.564044e+01	6.294250e+01
2.720000e-06	3.719879e-06	9.132201e-10	2.588548e+01	6.324201e+01
2.730000e-06	3.754850e-06	9.143605e-10	2.612883e+01	6.353245e+01
2.740000e-06	3.789412e-06	9.166405e-10	2.636934e+01	6.381399e+01
2.750000e-06	3.823356e-06	9.192094e-10	2.660554e+01	6.408679e+01
2.760000e-06	3.856792e-06	9.233860e-10	2.683821e+01	6.435103e+01
2.770000e-06	3.889784e-06	9.296338e-10	2.706779e+01	6.460686e+01
2.780000e-06	3.922338e-06	9.372626e-10	2.729433e+01	6.485447e+01
2.790000e-06	3.954629e-06	9.447849e-10	2.751903e+01	6.509402e+01
2.800000e-06	3.986680e-06	9.506370e-10	2.774207e+01	6.532567e+01
2.810000e-06	4.018514e-06	9.544318e-10	2.796358e+01	6.554961e+01
2.820000e-06	4.050188e-06	9.553213e-10	2.818399e+01	6.576600e+01
2.830000e-06	4.081681e-06	9.555294e-10	2.840315e+01	6.597502e+01
2.840000e-06	4.113027e-06	9.581884e-10	2.862127e+01	6.617684e+01
2.850000e-06	4.144086e-06	9.666485e-10	2.883740e+01	6.637165e+01
2.860000e-06	4.174739e-06	9.766811e-10	2.905070e+01	6.655962e+01
2.870000e-06	4.205061e-06	9.827771e-10	2.926171e+01	6.674092e+01
2.880000e-06	4.235125e-06	9.853129e-10	2.947091e+01	6.691575e+01
2.890000e-06	4.264951e-06	9.865033e-10	2.967846e+01	6.708429e+01
2.900000e-06	4.294533e-06	9.879715e-10	2.988432e+01	6.724670e+01
