# Temperatura_=_0.1
# Concentracion g/m^3_=_1620.0
# C_Vs_to_Am_M_A/Vsm_=_65563218390.804596
# pendiente_HvsI_1/m_=_3716.3
# ordenada_HvsI_A/m_=_1297.0
# frecuencia_Hz_=_135091.1291422586

Tiempo_(s)	Campo_(V.s)	Magnetizacion_(V.s)	Campo_(kA/m)	Magnetizacion_(A/m)
0.000000e+00	-5.510896e-06	-1.312214e-09	-3.837081e+01	-8.670614e+01
1.000000e-08	-5.511014e-06	-1.308883e-09	-3.837163e+01	-8.665739e+01
2.000000e-08	-5.510841e-06	-1.305851e-09	-3.837043e+01	-8.660815e+01
3.000000e-08	-5.510297e-06	-1.304142e-09	-3.836664e+01	-8.655838e+01
4.000000e-08	-5.509137e-06	-1.302615e-09	-3.835856e+01	-8.650800e+01
5.000000e-08	-5.507498e-06	-1.302412e-09	-3.834715e+01	-8.645694e+01
6.000000e-08	-5.505288e-06	-1.302390e-09	-3.833177e+01	-8.640511e+01
7.000000e-08	-5.502397e-06	-1.289261e-09	-3.831163e+01	-8.635241e+01
8.000000e-08	-5.499049e-06	-1.287717e-09	-3.828833e+01	-8.629871e+01
9.000000e-08	-5.495367e-06	-1.379715e-09	-3.826269e+01	-8.624388e+01
1.000000e-07	-5.491258e-06	-1.449676e-09	-3.823407e+01	-8.618778e+01
1.100000e-07	-5.486755e-06	-1.245271e-09	-3.820272e+01	-8.613027e+01
1.200000e-07	-5.482130e-06	-1.146100e-09	-3.817052e+01	-8.607116e+01
1.300000e-07	-5.477237e-06	-1.293947e-09	-3.813645e+01	-8.601030e+01
1.400000e-07	-5.471896e-06	-1.428788e-09	-3.809926e+01	-8.594749e+01
1.500000e-07	-5.466072e-06	-1.302410e-09	-3.805871e+01	-8.588254e+01
1.600000e-07	-5.459934e-06	-1.128674e-09	-3.801597e+01	-8.581526e+01
1.700000e-07	-5.453466e-06	-1.295331e-09	-3.797094e+01	-8.574544e+01
1.800000e-07	-5.446473e-06	-1.438296e-09	-3.792225e+01	-8.567286e+01
1.900000e-07	-5.439155e-06	-1.349624e-09	-3.787129e+01	-8.559732e+01
2.000000e-07	-5.431650e-06	-1.204307e-09	-3.781904e+01	-8.551859e+01
2.100000e-07	-5.423783e-06	-1.284909e-09	-3.776427e+01	-8.543646e+01
2.200000e-07	-5.415578e-06	-1.397942e-09	-3.770714e+01	-8.535070e+01
2.300000e-07	-5.407165e-06	-1.358658e-09	-3.764856e+01	-8.526110e+01
2.400000e-07	-5.398251e-06	-1.255925e-09	-3.758650e+01	-8.516743e+01
2.500000e-07	-5.388477e-06	-1.296698e-09	-3.751844e+01	-8.506949e+01
2.600000e-07	-5.377959e-06	-1.361911e-09	-3.744521e+01	-8.496707e+01
2.700000e-07	-5.367120e-06	-1.324805e-09	-3.736973e+01	-8.485997e+01
2.800000e-07	-5.355854e-06	-1.279441e-09	-3.729130e+01	-8.474798e+01
2.900000e-07	-5.344081e-06	-1.303874e-09	-3.720932e+01	-8.463093e+01
3.000000e-07	-5.332048e-06	-1.336021e-09	-3.712554e+01	-8.450863e+01
3.100000e-07	-5.319710e-06	-1.305491e-09	-3.703964e+01	-8.438092e+01
3.200000e-07	-5.306821e-06	-1.269706e-09	-3.694989e+01	-8.424766e+01
3.300000e-07	-5.293476e-06	-1.283810e-09	-3.685698e+01	-8.410869e+01
3.400000e-07	-5.279946e-06	-1.336364e-09	-3.676277e+01	-8.396390e+01
3.500000e-07	-5.266013e-06	-1.313919e-09	-3.666576e+01	-8.381317e+01
3.600000e-07	-5.251445e-06	-1.267186e-09	-3.656433e+01	-8.365640e+01
3.700000e-07	-5.236527e-06	-1.311256e-09	-3.646045e+01	-8.349353e+01
3.800000e-07	-5.221163e-06	-1.341455e-09	-3.635348e+01	-8.332450e+01
3.900000e-07	-5.205048e-06	-1.243793e-09	-3.624128e+01	-8.314925e+01
4.000000e-07	-5.188543e-06	-1.256409e-09	-3.612636e+01	-8.296777e+01
4.100000e-07	-5.171889e-06	-1.362920e-09	-3.601040e+01	-8.278004e+01
4.200000e-07	-5.154762e-06	-1.293951e-09	-3.589115e+01	-8.258609e+01
4.300000e-07	-5.137171e-06	-1.183086e-09	-3.576866e+01	-8.238595e+01
4.400000e-07	-5.119417e-06	-1.327924e-09	-3.564505e+01	-8.217965e+01
4.500000e-07	-5.101318e-06	-1.368375e-09	-3.551903e+01	-8.196728e+01
4.600000e-07	-5.082645e-06	-1.189472e-09	-3.538902e+01	-8.174892e+01
4.700000e-07	-5.063544e-06	-1.222716e-09	-3.525602e+01	-8.152467e+01
4.800000e-07	-5.044244e-06	-1.379924e-09	-3.512164e+01	-8.129464e+01
4.900000e-07	-5.024720e-06	-1.253442e-09	-3.498571e+01	-8.105897e+01
5.000000e-07	-5.004941e-06	-1.179300e-09	-3.484799e+01	-8.081782e+01
5.100000e-07	-4.984925e-06	-1.334829e-09	-3.470863e+01	-8.057134e+01
5.200000e-07	-4.964619e-06	-1.289906e-09	-3.456724e+01	-8.031970e+01
5.300000e-07	-4.943868e-06	-1.147360e-09	-3.442275e+01	-8.006310e+01
5.400000e-07	-4.922818e-06	-1.280463e-09	-3.427619e+01	-7.980173e+01
5.500000e-07	-4.901477e-06	-1.333009e-09	-3.412760e+01	-7.953578e+01
5.600000e-07	-4.879666e-06	-1.160469e-09	-3.397574e+01	-7.926547e+01
5.700000e-07	-4.857594e-06	-1.201718e-09	-3.382205e+01	-7.899102e+01
5.800000e-07	-4.835244e-06	-1.326654e-09	-3.366644e+01	-7.871263e+01
5.900000e-07	-4.812537e-06	-1.206294e-09	-3.350833e+01	-7.843053e+01
6.000000e-07	-4.789505e-06	-1.153523e-09	-3.334797e+01	-7.814493e+01
6.100000e-07	-4.766209e-06	-1.273208e-09	-3.318576e+01	-7.785606e+01
6.200000e-07	-4.742638e-06	-1.225276e-09	-3.302165e+01	-7.756412e+01
6.300000e-07	-4.718770e-06	-1.145839e-09	-3.285546e+01	-7.726932e+01
6.400000e-07	-4.694624e-06	-1.225305e-09	-3.268734e+01	-7.697186e+01
6.500000e-07	-4.670055e-06	-1.231278e-09	-3.251627e+01	-7.667193e+01
6.600000e-07	-4.645101e-06	-1.148657e-09	-3.234253e+01	-7.636971e+01
6.700000e-07	-4.619731e-06	-1.191507e-09	-3.216588e+01	-7.606536e+01
6.800000e-07	-4.593714e-06	-1.222705e-09	-3.198473e+01	-7.575905e+01
6.900000e-07	-4.567053e-06	-1.161444e-09	-3.179910e+01	-7.545092e+01
7.000000e-07	-4.540021e-06	-1.160483e-09	-3.161088e+01	-7.514108e+01
7.100000e-07	-4.512701e-06	-1.194551e-09	-3.142066e+01	-7.482965e+01
7.200000e-07	-4.485120e-06	-1.152634e-09	-3.122862e+01	-7.451671e+01
7.300000e-07	-4.457414e-06	-1.133067e-09	-3.103571e+01	-7.420235e+01
7.400000e-07	-4.429546e-06	-1.151734e-09	-3.084167e+01	-7.388661e+01
7.500000e-07	-4.401405e-06	-1.136482e-09	-3.064573e+01	-7.356952e+01
7.600000e-07	-4.372990e-06	-1.119986e-09	-3.044789e+01	-7.325110e+01
7.700000e-07	-4.344219e-06	-1.133164e-09	-3.024757e+01	-7.293135e+01
7.800000e-07	-4.315092e-06	-1.119005e-09	-3.004477e+01	-7.261024e+01
7.900000e-07	-4.285720e-06	-1.102272e-09	-2.984026e+01	-7.228773e+01
8.000000e-07	-4.256042e-06	-1.109104e-09	-2.963362e+01	-7.196375e+01
8.100000e-07	-4.226017e-06	-1.097789e-09	-2.942456e+01	-7.163823e+01
8.200000e-07	-4.195824e-06	-1.071630e-09	-2.921433e+01	-7.131106e+01
8.300000e-07	-4.165390e-06	-1.078076e-09	-2.900243e+01	-7.098213e+01
8.400000e-07	-4.134538e-06	-1.084635e-09	-2.878762e+01	-7.065131e+01
8.500000e-07	-4.103389e-06	-1.061425e-09	-2.857073e+01	-7.031846e+01
8.600000e-07	-4.072045e-06	-1.054127e-09	-2.835250e+01	-6.998342e+01
8.700000e-07	-4.040562e-06	-1.060076e-09	-2.813329e+01	-6.964603e+01
8.800000e-07	-4.008833e-06	-1.045590e-09	-2.791237e+01	-6.930610e+01
8.900000e-07	-3.976931e-06	-1.033711e-09	-2.769024e+01	-6.896345e+01
9.000000e-07	-3.944877e-06	-1.038211e-09	-2.746706e+01	-6.861790e+01
9.100000e-07	-3.912476e-06	-1.025056e-09	-2.724146e+01	-6.826924e+01
9.200000e-07	-3.879746e-06	-1.004195e-09	-2.701357e+01	-6.791728e+01
9.300000e-07	-3.846536e-06	-1.007787e-09	-2.678234e+01	-6.756182e+01
9.400000e-07	-3.812903e-06	-1.011358e-09	-2.654816e+01	-6.720267e+01
9.500000e-07	-3.778853e-06	-9.932468e-10	-2.631108e+01	-6.683963e+01
9.600000e-07	-3.744288e-06	-9.871418e-10	-2.607042e+01	-6.647251e+01
9.700000e-07	-3.709376e-06	-9.894988e-10	-2.582733e+01	-6.610114e+01
9.800000e-07	-3.674152e-06	-9.773862e-10	-2.558208e+01	-6.572533e+01
9.900000e-07	-3.638755e-06	-9.639005e-10	-2.533562e+01	-6.534493e+01
1.000000e-06	-3.603235e-06	-9.674510e-10	-2.508830e+01	-6.495979e+01
1.010000e-06	-3.567548e-06	-9.624365e-10	-2.483982e+01	-6.456976e+01
1.020000e-06	-3.531699e-06	-9.513661e-10	-2.459022e+01	-6.417472e+01
1.030000e-06	-3.495624e-06	-9.481589e-10	-2.433904e+01	-6.377457e+01
1.040000e-06	-3.459341e-06	-9.446372e-10	-2.408641e+01	-6.336921e+01
1.050000e-06	-3.422807e-06	-9.292001e-10	-2.383204e+01	-6.295856e+01
1.060000e-06	-3.385936e-06	-9.220529e-10	-2.357532e+01	-6.254257e+01
1.070000e-06	-3.348833e-06	-9.206001e-10	-2.331697e+01	-6.212119e+01
1.080000e-06	-3.311497e-06	-9.104651e-10	-2.305702e+01	-6.169439e+01
1.090000e-06	-3.274004e-06	-9.002333e-10	-2.279596e+01	-6.126218e+01
1.100000e-06	-3.236331e-06	-8.987144e-10	-2.253366e+01	-6.082456e+01
1.110000e-06	-3.198361e-06	-8.929796e-10	-2.226928e+01	-6.038155e+01
1.120000e-06	-3.160112e-06	-8.809050e-10	-2.200297e+01	-5.993320e+01
1.130000e-06	-3.121593e-06	-8.747768e-10	-2.173477e+01	-5.947957e+01
1.140000e-06	-3.082890e-06	-8.663566e-10	-2.146529e+01	-5.902072e+01
1.150000e-06	-3.043948e-06	-8.541634e-10	-2.119415e+01	-5.855673e+01
1.160000e-06	-3.004854e-06	-8.449059e-10	-2.092195e+01	-5.808770e+01
1.170000e-06	-2.965640e-06	-8.375590e-10	-2.064891e+01	-5.761373e+01
1.180000e-06	-2.926277e-06	-8.312794e-10	-2.037484e+01	-5.713492e+01
1.190000e-06	-2.886776e-06	-8.239753e-10	-2.009981e+01	-5.665139e+01
1.200000e-06	-2.847048e-06	-8.160572e-10	-1.982319e+01	-5.616325e+01
1.210000e-06	-2.807257e-06	-8.059507e-10	-1.954614e+01	-5.567061e+01
1.220000e-06	-2.767382e-06	-7.938335e-10	-1.926850e+01	-5.517358e+01
1.230000e-06	-2.727277e-06	-7.870458e-10	-1.898926e+01	-5.467228e+01
1.240000e-06	-2.686952e-06	-7.788776e-10	-1.870849e+01	-5.416679e+01
1.250000e-06	-2.646464e-06	-7.718901e-10	-1.842658e+01	-5.365722e+01
1.260000e-06	-2.605724e-06	-7.654637e-10	-1.814292e+01	-5.314364e+01
1.270000e-06	-2.564622e-06	-7.570654e-10	-1.785674e+01	-5.262611e+01
1.280000e-06	-2.523177e-06	-7.474468e-10	-1.756817e+01	-5.210467e+01
1.290000e-06	-2.481409e-06	-7.361594e-10	-1.727735e+01	-5.157936e+01
1.300000e-06	-2.439431e-06	-7.253521e-10	-1.698507e+01	-5.105017e+01
1.310000e-06	-2.397281e-06	-7.159400e-10	-1.669159e+01	-5.051709e+01
1.320000e-06	-2.354811e-06	-7.070168e-10	-1.639589e+01	-4.998007e+01
1.330000e-06	-2.312099e-06	-6.979228e-10	-1.609849e+01	-4.943904e+01
1.340000e-06	-2.269189e-06	-6.899500e-10	-1.579972e+01	-4.889389e+01
1.350000e-06	-2.226006e-06	-6.818845e-10	-1.549905e+01	-4.834450e+01
1.360000e-06	-2.182652e-06	-6.698446e-10	-1.519719e+01	-4.779069e+01
1.370000e-06	-2.139168e-06	-6.599040e-10	-1.489442e+01	-4.723228e+01
1.380000e-06	-2.095626e-06	-6.546683e-10	-1.459125e+01	-4.666903e+01
1.390000e-06	-2.052019e-06	-6.480059e-10	-1.428763e+01	-4.610068e+01
1.400000e-06	-2.008275e-06	-6.399262e-10	-1.398305e+01	-4.552693e+01
1.410000e-06	-1.964468e-06	-6.319274e-10	-1.367804e+01	-4.494746e+01
1.420000e-06	-1.920570e-06	-6.226773e-10	-1.337239e+01	-4.436189e+01
1.430000e-06	-1.876577e-06	-6.110741e-10	-1.306608e+01	-4.376984e+01
1.440000e-06	-1.832531e-06	-5.993024e-10	-1.275939e+01	-4.317087e+01
1.450000e-06	-1.788423e-06	-5.892649e-10	-1.245228e+01	-4.256454e+01
1.460000e-06	-1.744190e-06	-5.784172e-10	-1.214430e+01	-4.195037e+01
1.470000e-06	-1.699795e-06	-5.665958e-10	-1.183519e+01	-4.132783e+01
1.480000e-06	-1.655261e-06	-5.556224e-10	-1.152511e+01	-4.069641e+01
1.490000e-06	-1.610551e-06	-5.458943e-10	-1.121381e+01	-4.005554e+01
1.500000e-06	-1.565651e-06	-5.367674e-10	-1.090119e+01	-3.940466e+01
1.510000e-06	-1.520688e-06	-5.279627e-10	-1.058812e+01	-3.874319e+01
1.520000e-06	-1.475673e-06	-5.171135e-10	-1.027469e+01	-3.807052e+01
1.530000e-06	-1.430466e-06	-5.032461e-10	-9.959927e+00	-3.738605e+01
1.540000e-06	-1.385138e-06	-4.874660e-10	-9.644322e+00	-3.668917e+01
1.550000e-06	-1.339795e-06	-4.729603e-10	-9.328615e+00	-3.597926e+01
1.560000e-06	-1.294379e-06	-4.600261e-10	-9.012398e+00	-3.525572e+01
1.570000e-06	-1.248815e-06	-4.502208e-10	-8.695144e+00	-3.451795e+01
1.580000e-06	-1.203146e-06	-4.439967e-10	-8.377166e+00	-3.376535e+01
1.590000e-06	-1.157450e-06	-4.369391e-10	-8.058997e+00	-3.299735e+01
1.600000e-06	-1.111692e-06	-4.254356e-10	-7.740400e+00	-3.221338e+01
1.610000e-06	-1.065817e-06	-4.108904e-10	-7.420983e+00	-3.141292e+01
1.620000e-06	-1.019837e-06	-3.987449e-10	-7.100834e+00	-3.059544e+01
1.630000e-06	-9.738470e-07	-3.911340e-10	-6.780621e+00	-2.976048e+01
1.640000e-06	-9.278717e-07	-3.810531e-10	-6.460508e+00	-2.890759e+01
1.650000e-06	-8.817782e-07	-3.656454e-10	-6.139572e+00	-2.803635e+01
1.660000e-06	-8.356256e-07	-3.497805e-10	-5.818225e+00	-2.714642e+01
1.670000e-06	-7.894889e-07	-3.336531e-10	-5.496987e+00	-2.623745e+01
1.680000e-06	-7.432432e-07	-3.209477e-10	-5.174992e+00	-2.530918e+01
1.690000e-06	-6.968726e-07	-3.103737e-10	-4.852127e+00	-2.436139e+01
1.700000e-06	-6.504284e-07	-3.013556e-10	-4.528749e+00	-2.339390e+01
1.710000e-06	-6.039219e-07	-2.882233e-10	-4.204937e+00	-2.240659e+01
1.720000e-06	-5.573807e-07	-2.698944e-10	-3.880884e+00	-2.139942e+01
1.730000e-06	-5.108337e-07	-2.500549e-10	-3.556790e+00	-2.037237e+01
1.740000e-06	-4.642697e-07	-2.293632e-10	-3.232578e+00	-1.932552e+01
1.750000e-06	-4.175979e-07	-2.125742e-10	-2.907616e+00	-1.825897e+01
1.760000e-06	-3.709125e-07	-1.999183e-10	-2.582558e+00	-1.717291e+01
1.770000e-06	-3.241718e-07	-1.886416e-10	-2.257116e+00	-1.606759e+01
1.780000e-06	-2.773911e-07	-1.780892e-10	-1.931396e+00	-1.494331e+01
1.790000e-06	-2.306453e-07	-1.631676e-10	-1.605918e+00	-1.380044e+01
1.800000e-06	-1.839148e-07	-1.415259e-10	-1.280547e+00	-1.263941e+01
1.810000e-06	-1.371739e-07	-1.216234e-10	-9.551028e-01	-1.146071e+01
1.820000e-06	-9.036607e-08	-1.053506e-10	-6.291934e-01	-1.026488e+01
1.830000e-06	-4.364645e-08	-9.117992e-11	-3.038979e-01	-9.052534e+00
1.840000e-06	3.072200e-09	-7.764500e-11	2.139086e-02	-7.824326e+00
1.850000e-06	4.979015e-08	-6.248080e-11	3.466748e-01	-6.580968e+00
1.860000e-06	9.641847e-08	-4.592911e-11	6.713345e-01	-5.323223e+00
1.870000e-06	1.430611e-07	-2.599191e-11	9.960938e-01	-4.051899e+00
1.880000e-06	1.897407e-07	-7.456127e-12	1.321111e+00	-2.767851e+00
1.890000e-06	2.364489e-07	1.069735e-11	1.646327e+00	-1.471972e+00
1.900000e-06	2.831742e-07	2.964737e-11	1.971662e+00	-1.651939e-01
1.910000e-06	3.298455e-07	4.684455e-11	2.296621e+00	1.151516e+00
1.920000e-06	3.764824e-07	6.260794e-11	2.621341e+00	2.477163e+00
1.930000e-06	4.231839e-07	7.498697e-11	2.946510e+00	3.810723e+00
1.940000e-06	4.697892e-07	9.177532e-11	3.271010e+00	5.151153e+00
1.950000e-06	5.161670e-07	1.105397e-10	3.593925e+00	6.497388e+00
1.960000e-06	5.625311e-07	1.329147e-10	3.916745e+00	7.848350e+00
1.970000e-06	6.089659e-07	1.553296e-10	4.240057e+00	9.202952e+00
1.980000e-06	6.552921e-07	1.762410e-10	4.562614e+00	1.056010e+01
1.990000e-06	7.015445e-07	1.954223e-10	4.884656e+00	1.191870e+01
2.000000e-06	7.477895e-07	2.108453e-10	5.206646e+00	1.327765e+01
2.010000e-06	7.940418e-07	2.277843e-10	5.528688e+00	1.463586e+01
2.020000e-06	8.402289e-07	2.497202e-10	5.850276e+00	1.599226e+01
2.030000e-06	8.862540e-07	2.744292e-10	6.170736e+00	1.734578e+01
2.040000e-06	9.321977e-07	2.967145e-10	6.490629e+00	1.869537e+01
2.050000e-06	9.781505e-07	3.157693e-10	6.810585e+00	2.004000e+01
2.060000e-06	1.024134e-06	3.332501e-10	7.130758e+00	2.137865e+01
2.070000e-06	1.070029e-06	3.502261e-10	7.450306e+00	2.271036e+01
2.080000e-06	1.115834e-06	3.645799e-10	7.769235e+00	2.403416e+01
2.090000e-06	1.161484e-06	3.822917e-10	8.087084e+00	2.534915e+01
2.100000e-06	1.206981e-06	4.054085e-10	8.403864e+00	2.665442e+01
2.110000e-06	1.252495e-06	4.296590e-10	8.720770e+00	2.794913e+01
2.120000e-06	1.297957e-06	4.481118e-10	9.037310e+00	2.923246e+01
2.130000e-06	1.343361e-06	4.643288e-10	9.353445e+00	3.050364e+01
2.140000e-06	1.388648e-06	4.814482e-10	9.668762e+00	3.176194e+01
2.150000e-06	1.433789e-06	4.991644e-10	9.983069e+00	3.300666e+01
2.160000e-06	1.478858e-06	5.169217e-10	1.029687e+01	3.423716e+01
2.170000e-06	1.523804e-06	5.351315e-10	1.060982e+01	3.545282e+01
2.180000e-06	1.568646e-06	5.553177e-10	1.092204e+01	3.665309e+01
2.190000e-06	1.613355e-06	5.723905e-10	1.123333e+01	3.783745e+01
2.200000e-06	1.657935e-06	5.875636e-10	1.154373e+01	3.900542e+01
2.210000e-06	1.702445e-06	6.017719e-10	1.185364e+01	4.015658e+01
2.220000e-06	1.746871e-06	6.155465e-10	1.216297e+01	4.129053e+01
2.230000e-06	1.791082e-06	6.318359e-10	1.247080e+01	4.240693e+01
2.240000e-06	1.835100e-06	6.450715e-10	1.277728e+01	4.350549e+01
2.250000e-06	1.879003e-06	6.602153e-10	1.308296e+01	4.458594e+01
2.260000e-06	1.922769e-06	6.758359e-10	1.338769e+01	4.564806e+01
2.270000e-06	1.966500e-06	6.953190e-10	1.369218e+01	4.669167e+01
2.280000e-06	2.010230e-06	7.138057e-10	1.399666e+01	4.771663e+01
2.290000e-06	2.053923e-06	7.308732e-10	1.430088e+01	4.872283e+01
2.300000e-06	2.097565e-06	7.457632e-10	1.460475e+01	4.971020e+01
2.310000e-06	2.141129e-06	7.582475e-10	1.490807e+01	5.067870e+01
2.320000e-06	2.184635e-06	7.717752e-10	1.521099e+01	5.162833e+01
2.330000e-06	2.227965e-06	7.833844e-10	1.551269e+01	5.255911e+01
2.340000e-06	2.271137e-06	7.971753e-10	1.581328e+01	5.347109e+01
2.350000e-06	2.314205e-06	8.139042e-10	1.611316e+01	5.436436e+01
2.360000e-06	2.357027e-06	8.304438e-10	1.641131e+01	5.523902e+01
2.370000e-06	2.399475e-06	8.415365e-10	1.670687e+01	5.609519e+01
2.380000e-06	2.441749e-06	8.510070e-10	1.700121e+01	5.693304e+01
2.390000e-06	2.483832e-06	8.595830e-10	1.729422e+01	5.775272e+01
2.400000e-06	2.525458e-06	8.658516e-10	1.758405e+01	5.855444e+01
2.410000e-06	2.566672e-06	8.724083e-10	1.787101e+01	5.933839e+01
2.420000e-06	2.607575e-06	8.829929e-10	1.815581e+01	6.010481e+01
2.430000e-06	2.648189e-06	8.972848e-10	1.843859e+01	6.085392e+01
2.440000e-06	2.688559e-06	9.116227e-10	1.871968e+01	6.158598e+01
2.450000e-06	2.728777e-06	9.224974e-10	1.899970e+01	6.230125e+01
2.460000e-06	2.768786e-06	9.339837e-10	1.927827e+01	6.300000e+01
2.470000e-06	2.808602e-06	9.441038e-10	1.955550e+01	6.368251e+01
2.480000e-06	2.848278e-06	9.530658e-10	1.983176e+01	6.434906e+01
2.490000e-06	2.887874e-06	9.602223e-10	2.010745e+01	6.499996e+01
2.500000e-06	2.927374e-06	9.663093e-10	2.038247e+01	6.563550e+01
2.510000e-06	2.966751e-06	9.741872e-10	2.065665e+01	6.625599e+01
2.520000e-06	3.005924e-06	9.848865e-10	2.092940e+01	6.686173e+01
2.530000e-06	3.044911e-06	9.951804e-10	2.120086e+01	6.745304e+01
2.540000e-06	3.083680e-06	1.004614e-09	2.147079e+01	6.803023e+01
2.550000e-06	3.122203e-06	1.012284e-09	2.173902e+01	6.859361e+01
2.560000e-06	3.160564e-06	1.018778e-09	2.200611e+01	6.914350e+01
2.570000e-06	3.198661e-06	1.024967e-09	2.227137e+01	6.968021e+01
2.580000e-06	3.236515e-06	1.029924e-09	2.253494e+01	7.020407e+01
2.590000e-06	3.274149e-06	1.034960e-09	2.279697e+01	7.071537e+01
2.600000e-06	3.311584e-06	1.042312e-09	2.305762e+01	7.121444e+01
2.610000e-06	3.348804e-06	1.048908e-09	2.331677e+01	7.170159e+01
2.620000e-06	3.385815e-06	1.053213e-09	2.357447e+01	7.217711e+01
2.630000e-06	3.422642e-06	1.058950e-09	2.383089e+01	7.264132e+01
2.640000e-06	3.459144e-06	1.066773e-09	2.408504e+01	7.309451e+01
2.650000e-06	3.495330e-06	1.075294e-09	2.433700e+01	7.353698e+01
2.660000e-06	3.531286e-06	1.082752e-09	2.458735e+01	7.396903e+01
2.670000e-06	3.567077e-06	1.089103e-09	2.483655e+01	7.439094e+01
2.680000e-06	3.602808e-06	1.094840e-09	2.508533e+01	7.480299e+01
2.690000e-06	3.638436e-06	1.100236e-09	2.533340e+01	7.520546e+01
2.700000e-06	3.673880e-06	1.104139e-09	2.558018e+01	7.559863e+01
2.710000e-06	3.709119e-06	1.107478e-09	2.582554e+01	7.598275e+01
2.720000e-06	3.744008e-06	1.110856e-09	2.606847e+01	7.635808e+01
2.730000e-06	3.778491e-06	1.116347e-09	2.630856e+01	7.672489e+01
2.740000e-06	3.812707e-06	1.122206e-09	2.654680e+01	7.708341e+01
2.750000e-06	3.846486e-06	1.126199e-09	2.678199e+01	7.743388e+01
2.760000e-06	3.879639e-06	1.129138e-09	2.701283e+01	7.777653e+01
2.770000e-06	3.912275e-06	1.133212e-09	2.724006e+01	7.811158e+01
2.780000e-06	3.944556e-06	1.138434e-09	2.746483e+01	7.843925e+01
2.790000e-06	3.976614e-06	1.145174e-09	2.768804e+01	7.875975e+01
2.800000e-06	4.008477e-06	1.150943e-09	2.790989e+01	7.907326e+01
2.810000e-06	4.040142e-06	1.154500e-09	2.813037e+01	7.937997e+01
2.820000e-06	4.071624e-06	1.158982e-09	2.834957e+01	7.968007e+01
2.830000e-06	4.102953e-06	1.166751e-09	2.856770e+01	7.997373e+01
2.840000e-06	4.134042e-06	1.174211e-09	2.878416e+01	8.026110e+01
2.850000e-06	4.164790e-06	1.181579e-09	2.899825e+01	8.054233e+01
2.860000e-06	4.195235e-06	1.187683e-09	2.921024e+01	8.081756e+01
2.870000e-06	4.225381e-06	1.189944e-09	2.942013e+01	8.108692e+01
2.880000e-06	4.255239e-06	1.191352e-09	2.962803e+01	8.135054e+01
2.890000e-06	4.284842e-06	1.195472e-09	2.983414e+01	8.160852e+01
2.900000e-06	4.314145e-06	1.200980e-09	3.003817e+01	8.186096e+01
2.910000e-06	4.343241e-06	1.206181e-09	3.024076e+01	8.210796e+01
