# Temperatura_=_-0.5
# Concentracion g/m^3_=_1620.0
# C_Vs_to_Am_M_A/Vsm_=_65563218390.804596
# pendiente_HvsI_1/m_=_3716.3
# ordenada_HvsI_A/m_=_1297.0
# frecuencia_Hz_=_135092.97084488784

Tiempo_(s)	Campo_(V.s)	Magnetizacion_(V.s)	Campo_(kA/m)	Magnetizacion_(A/m)
0.000000e+00	-5.527506e-06	-1.267122e-09	-3.836455e+01	-8.536778e+01
1.000000e-08	-5.527754e-06	-1.263510e-09	-3.836627e+01	-8.532344e+01
2.000000e-08	-5.527766e-06	-1.261932e-09	-3.836635e+01	-8.528374e+01
3.000000e-08	-5.527514e-06	-1.261850e-09	-3.836460e+01	-8.524869e+01
4.000000e-08	-5.526886e-06	-1.260778e-09	-3.836025e+01	-8.521826e+01
5.000000e-08	-5.525729e-06	-1.253281e-09	-3.835222e+01	-8.519238e+01
6.000000e-08	-5.523945e-06	-1.239041e-09	-3.833983e+01	-8.517093e+01
7.000000e-08	-5.521632e-06	-1.238954e-09	-3.832378e+01	-8.515373e+01
8.000000e-08	-5.518823e-06	-1.261446e-09	-3.830428e+01	-8.514058e+01
9.000000e-08	-5.515384e-06	-1.300135e-09	-3.828041e+01	-8.513122e+01
1.000000e-07	-5.511408e-06	-1.362001e-09	-3.825282e+01	-8.512533e+01
1.100000e-07	-5.507066e-06	-1.361586e-09	-3.822268e+01	-8.512260e+01
1.200000e-07	-5.502458e-06	-1.183311e-09	-3.819070e+01	-8.512263e+01
1.300000e-07	-5.497705e-06	-1.161215e-09	-3.815771e+01	-8.512502e+01
1.400000e-07	-5.492717e-06	-1.264273e-09	-3.812309e+01	-8.512934e+01
1.500000e-07	-5.487256e-06	-1.351493e-09	-3.808519e+01	-8.513511e+01
1.600000e-07	-5.481414e-06	-1.218239e-09	-3.804464e+01	-8.514184e+01
1.700000e-07	-5.475289e-06	-1.135621e-09	-3.800213e+01	-8.514903e+01
1.800000e-07	-5.468737e-06	-1.319363e-09	-3.795665e+01	-8.515614e+01
1.900000e-07	-5.461652e-06	-1.385015e-09	-3.790748e+01	-8.516265e+01
2.000000e-07	-5.454183e-06	-1.270856e-09	-3.785564e+01	-8.516799e+01
2.100000e-07	-5.446536e-06	-1.150405e-09	-3.780256e+01	-8.517162e+01
2.200000e-07	-5.438700e-06	-1.300068e-09	-3.774817e+01	-8.517298e+01
2.300000e-07	-5.430531e-06	-1.380558e-09	-3.769148e+01	-8.517153e+01
2.400000e-07	-5.422017e-06	-1.341974e-09	-3.763239e+01	-8.516671e+01
2.500000e-07	-5.413090e-06	-1.252195e-09	-3.757043e+01	-8.515800e+01
2.600000e-07	-5.403300e-06	-1.320693e-09	-3.750247e+01	-8.514488e+01
2.700000e-07	-5.392630e-06	-1.333494e-09	-3.742842e+01	-8.512684e+01
2.800000e-07	-5.381561e-06	-1.299600e-09	-3.735159e+01	-8.510339e+01
2.900000e-07	-5.370115e-06	-1.274168e-09	-3.727215e+01	-8.507408e+01
3.000000e-07	-5.358233e-06	-1.317769e-09	-3.718968e+01	-8.503847e+01
3.100000e-07	-5.346032e-06	-1.330670e-09	-3.710500e+01	-8.499614e+01
3.200000e-07	-5.333461e-06	-1.310176e-09	-3.701775e+01	-8.494673e+01
3.300000e-07	-5.320381e-06	-1.294075e-09	-3.692697e+01	-8.488986e+01
3.400000e-07	-5.306973e-06	-1.296424e-09	-3.683390e+01	-8.482524e+01
3.500000e-07	-5.293200e-06	-1.328255e-09	-3.673831e+01	-8.475258e+01
3.600000e-07	-5.279067e-06	-1.303168e-09	-3.664022e+01	-8.467162e+01
3.700000e-07	-5.264435e-06	-1.269785e-09	-3.653866e+01	-8.458215e+01
3.800000e-07	-5.249149e-06	-1.297760e-09	-3.643257e+01	-8.448400e+01
3.900000e-07	-5.233406e-06	-1.335168e-09	-3.632330e+01	-8.437701e+01
4.000000e-07	-5.217093e-06	-1.264196e-09	-3.621008e+01	-8.426109e+01
4.100000e-07	-5.200361e-06	-1.272573e-09	-3.609395e+01	-8.413616e+01
4.200000e-07	-5.183499e-06	-1.338252e-09	-3.597691e+01	-8.400218e+01
4.300000e-07	-5.166295e-06	-1.290151e-09	-3.585750e+01	-8.385915e+01
4.400000e-07	-5.148679e-06	-1.199310e-09	-3.573524e+01	-8.370708e+01
4.500000e-07	-5.130773e-06	-1.316440e-09	-3.561096e+01	-8.354604e+01
4.600000e-07	-5.112439e-06	-1.333668e-09	-3.548371e+01	-8.337611e+01
4.700000e-07	-5.093661e-06	-1.208870e-09	-3.535338e+01	-8.319741e+01
4.800000e-07	-5.074516e-06	-1.232021e-09	-3.522050e+01	-8.301007e+01
4.900000e-07	-5.055170e-06	-1.361768e-09	-3.508622e+01	-8.281425e+01
5.000000e-07	-5.035602e-06	-1.251976e-09	-3.495041e+01	-8.261014e+01
5.100000e-07	-5.015759e-06	-1.200835e-09	-3.481269e+01	-8.239794e+01
5.200000e-07	-4.995690e-06	-1.306741e-09	-3.467340e+01	-8.217788e+01
5.300000e-07	-4.975216e-06	-1.276730e-09	-3.453129e+01	-8.195018e+01
5.400000e-07	-4.954270e-06	-1.174592e-09	-3.438591e+01	-8.171511e+01
5.500000e-07	-4.933010e-06	-1.289284e-09	-3.423835e+01	-8.147291e+01
5.600000e-07	-4.911424e-06	-1.305064e-09	-3.408853e+01	-8.122386e+01
5.700000e-07	-4.889481e-06	-1.171203e-09	-3.393624e+01	-8.096823e+01
5.800000e-07	-4.867244e-06	-1.210539e-09	-3.378189e+01	-8.070630e+01
5.900000e-07	-4.844672e-06	-1.310292e-09	-3.362523e+01	-8.043837e+01
6.000000e-07	-4.821743e-06	-1.211024e-09	-3.346609e+01	-8.016470e+01
6.100000e-07	-4.798512e-06	-1.184199e-09	-3.330485e+01	-7.988559e+01
6.200000e-07	-4.775003e-06	-1.276816e-09	-3.314168e+01	-7.960131e+01
6.300000e-07	-4.751259e-06	-1.224920e-09	-3.297688e+01	-7.931215e+01
6.400000e-07	-4.727265e-06	-1.160080e-09	-3.281035e+01	-7.901837e+01
6.500000e-07	-4.702986e-06	-1.225561e-09	-3.264184e+01	-7.872024e+01
6.600000e-07	-4.678288e-06	-1.228079e-09	-3.247041e+01	-7.841800e+01
6.700000e-07	-4.653030e-06	-1.163243e-09	-3.229511e+01	-7.811192e+01
6.800000e-07	-4.627308e-06	-1.210451e-09	-3.211658e+01	-7.780223e+01
6.900000e-07	-4.601160e-06	-1.228665e-09	-3.193510e+01	-7.748914e+01
7.000000e-07	-4.574451e-06	-1.172743e-09	-3.174972e+01	-7.717288e+01
7.100000e-07	-4.547249e-06	-1.170088e-09	-3.156092e+01	-7.685364e+01
7.200000e-07	-4.519710e-06	-1.199128e-09	-3.136978e+01	-7.653161e+01
7.300000e-07	-4.491967e-06	-1.153270e-09	-3.117722e+01	-7.620698e+01
7.400000e-07	-4.464088e-06	-1.143784e-09	-3.098373e+01	-7.587989e+01
7.500000e-07	-4.436062e-06	-1.167437e-09	-3.078921e+01	-7.555049e+01
7.600000e-07	-4.407874e-06	-1.159968e-09	-3.059356e+01	-7.521892e+01
7.700000e-07	-4.379327e-06	-1.132154e-09	-3.039543e+01	-7.488529e+01
7.800000e-07	-4.350414e-06	-1.147842e-09	-3.019475e+01	-7.454971e+01
7.900000e-07	-4.321165e-06	-1.135035e-09	-2.999175e+01	-7.421227e+01
8.000000e-07	-4.291555e-06	-1.119390e-09	-2.978623e+01	-7.387305e+01
8.100000e-07	-4.261693e-06	-1.123576e-09	-2.957897e+01	-7.353211e+01
8.200000e-07	-4.231585e-06	-1.123122e-09	-2.937000e+01	-7.318949e+01
8.300000e-07	-4.201207e-06	-1.098721e-09	-2.915916e+01	-7.284523e+01
8.400000e-07	-4.170450e-06	-1.104431e-09	-2.894568e+01	-7.249936e+01
8.500000e-07	-4.139293e-06	-1.107725e-09	-2.872943e+01	-7.215189e+01
8.600000e-07	-4.107942e-06	-1.085505e-09	-2.851183e+01	-7.180281e+01
8.700000e-07	-4.076485e-06	-1.070259e-09	-2.829350e+01	-7.145211e+01
8.800000e-07	-4.044851e-06	-1.076552e-09	-2.807394e+01	-7.109977e+01
8.900000e-07	-4.013008e-06	-1.064332e-09	-2.785293e+01	-7.074574e+01
9.000000e-07	-3.980998e-06	-1.053213e-09	-2.763076e+01	-7.038998e+01
9.100000e-07	-3.948738e-06	-1.058445e-09	-2.740686e+01	-7.003244e+01
9.200000e-07	-3.916109e-06	-1.049658e-09	-2.718039e+01	-6.967305e+01
9.300000e-07	-3.883116e-06	-1.031787e-09	-2.695140e+01	-6.931173e+01
9.400000e-07	-3.849792e-06	-1.029756e-09	-2.672010e+01	-6.894840e+01
9.500000e-07	-3.815986e-06	-1.028916e-09	-2.648547e+01	-6.858296e+01
9.600000e-07	-3.781553e-06	-1.009262e-09	-2.624648e+01	-6.821531e+01
9.700000e-07	-3.746722e-06	-1.003710e-09	-2.600473e+01	-6.784535e+01
9.800000e-07	-3.711622e-06	-1.004962e-09	-2.576111e+01	-6.747296e+01
9.900000e-07	-3.676175e-06	-9.978545e-10	-2.551509e+01	-6.709802e+01
1.000000e-06	-3.640502e-06	-9.865382e-10	-2.526749e+01	-6.672040e+01
1.010000e-06	-3.604746e-06	-9.915068e-10	-2.501933e+01	-6.633998e+01
1.020000e-06	-3.568921e-06	-9.842771e-10	-2.477067e+01	-6.595661e+01
1.030000e-06	-3.532945e-06	-9.722989e-10	-2.452098e+01	-6.557015e+01
1.040000e-06	-3.496744e-06	-9.664438e-10	-2.426971e+01	-6.518047e+01
1.050000e-06	-3.460277e-06	-9.635935e-10	-2.401661e+01	-6.478742e+01
1.060000e-06	-3.423531e-06	-9.477284e-10	-2.376157e+01	-6.439085e+01
1.070000e-06	-3.386525e-06	-9.430504e-10	-2.350473e+01	-6.399061e+01
1.080000e-06	-3.349243e-06	-9.406028e-10	-2.324596e+01	-6.358656e+01
1.090000e-06	-3.311698e-06	-9.340048e-10	-2.298537e+01	-6.317854e+01
1.100000e-06	-3.273858e-06	-9.223688e-10	-2.272274e+01	-6.276640e+01
1.110000e-06	-3.235774e-06	-9.210430e-10	-2.245842e+01	-6.235001e+01
1.120000e-06	-3.197542e-06	-9.139008e-10	-2.219306e+01	-6.192920e+01
1.130000e-06	-3.159072e-06	-9.058684e-10	-2.192605e+01	-6.150385e+01
1.140000e-06	-3.120468e-06	-9.015634e-10	-2.165811e+01	-6.107381e+01
1.150000e-06	-3.081680e-06	-8.943332e-10	-2.138890e+01	-6.063895e+01
1.160000e-06	-3.042588e-06	-8.790833e-10	-2.111758e+01	-6.019913e+01
1.170000e-06	-3.003241e-06	-8.715081e-10	-2.084448e+01	-5.975424e+01
1.180000e-06	-2.963730e-06	-8.669062e-10	-2.057024e+01	-5.930414e+01
1.190000e-06	-2.924164e-06	-8.590202e-10	-2.029564e+01	-5.884871e+01
1.200000e-06	-2.884438e-06	-8.516656e-10	-2.001991e+01	-5.838786e+01
1.210000e-06	-2.844608e-06	-8.462117e-10	-1.974346e+01	-5.792148e+01
1.220000e-06	-2.804702e-06	-8.385134e-10	-1.946649e+01	-5.744945e+01
1.230000e-06	-2.764633e-06	-8.252923e-10	-1.918838e+01	-5.697170e+01
1.240000e-06	-2.724400e-06	-8.150415e-10	-1.890914e+01	-5.648813e+01
1.250000e-06	-2.683894e-06	-8.038156e-10	-1.862800e+01	-5.599865e+01
1.260000e-06	-2.643044e-06	-7.956000e-10	-1.834448e+01	-5.550320e+01
1.270000e-06	-2.602024e-06	-7.896123e-10	-1.805977e+01	-5.500169e+01
1.280000e-06	-2.560816e-06	-7.856871e-10	-1.777376e+01	-5.449406e+01
1.290000e-06	-2.519345e-06	-7.798808e-10	-1.748592e+01	-5.398023e+01
1.300000e-06	-2.477545e-06	-7.718414e-10	-1.719581e+01	-5.346015e+01
1.310000e-06	-2.435328e-06	-7.582638e-10	-1.690279e+01	-5.293374e+01
1.320000e-06	-2.392882e-06	-7.448682e-10	-1.660819e+01	-5.240095e+01
1.330000e-06	-2.350254e-06	-7.323211e-10	-1.631232e+01	-5.186170e+01
1.340000e-06	-2.307290e-06	-7.247546e-10	-1.601412e+01	-5.131594e+01
1.350000e-06	-2.263965e-06	-7.168562e-10	-1.571341e+01	-5.076360e+01
1.360000e-06	-2.220487e-06	-7.083206e-10	-1.541165e+01	-5.020458e+01
1.370000e-06	-2.176920e-06	-6.965634e-10	-1.510927e+01	-4.963883e+01
1.380000e-06	-2.133239e-06	-6.885310e-10	-1.480609e+01	-4.906624e+01
1.390000e-06	-2.089507e-06	-6.816389e-10	-1.450256e+01	-4.848672e+01
1.400000e-06	-2.045703e-06	-6.744526e-10	-1.419853e+01	-4.790015e+01
1.410000e-06	-2.001789e-06	-6.645929e-10	-1.389374e+01	-4.730643e+01
1.420000e-06	-1.957855e-06	-6.570413e-10	-1.358881e+01	-4.670540e+01
1.430000e-06	-1.913876e-06	-6.474029e-10	-1.328356e+01	-4.609693e+01
1.440000e-06	-1.869773e-06	-6.373292e-10	-1.297747e+01	-4.548084e+01
1.450000e-06	-1.825590e-06	-6.276603e-10	-1.267080e+01	-4.485695e+01
1.460000e-06	-1.781239e-06	-6.175074e-10	-1.236298e+01	-4.422505e+01
1.470000e-06	-1.736693e-06	-6.057721e-10	-1.205380e+01	-4.358493e+01
1.480000e-06	-1.692181e-06	-5.960076e-10	-1.174486e+01	-4.293634e+01
1.490000e-06	-1.647603e-06	-5.866798e-10	-1.143546e+01	-4.227901e+01
1.500000e-06	-1.602796e-06	-5.768782e-10	-1.112446e+01	-4.161266e+01
1.510000e-06	-1.557894e-06	-5.657808e-10	-1.081282e+01	-4.093698e+01
1.520000e-06	-1.512825e-06	-5.535073e-10	-1.050001e+01	-4.025163e+01
1.530000e-06	-1.467482e-06	-5.431698e-10	-1.018530e+01	-3.955627e+01
1.540000e-06	-1.422108e-06	-5.337933e-10	-9.870368e+00	-3.885052e+01
1.550000e-06	-1.376738e-06	-5.229443e-10	-9.555470e+00	-3.813399e+01
1.560000e-06	-1.331271e-06	-5.096186e-10	-9.239903e+00	-3.740626e+01
1.570000e-06	-1.285730e-06	-4.947106e-10	-8.923818e+00	-3.666691e+01
1.580000e-06	-1.240058e-06	-4.792030e-10	-8.606820e+00	-3.591548e+01
1.590000e-06	-1.194239e-06	-4.692315e-10	-8.288808e+00	-3.515151e+01
1.600000e-06	-1.148256e-06	-4.599495e-10	-7.969655e+00	-3.437453e+01
1.610000e-06	-1.102248e-06	-4.494571e-10	-7.650333e+00	-3.358404e+01
1.620000e-06	-1.056234e-06	-4.379569e-10	-7.330960e+00	-3.277957e+01
1.630000e-06	-1.010136e-06	-4.287097e-10	-7.011010e+00	-3.196062e+01
1.640000e-06	-9.639407e-07	-4.182504e-10	-6.690386e+00	-3.112668e+01
1.650000e-06	-9.176219e-07	-4.031125e-10	-6.368903e+00	-3.027727e+01
1.660000e-06	-8.712372e-07	-3.855898e-10	-6.046963e+00	-2.941189e+01
1.670000e-06	-8.248765e-07	-3.698875e-10	-5.725189e+00	-2.853008e+01
1.680000e-06	-7.784230e-07	-3.527188e-10	-5.402771e+00	-2.763136e+01
1.690000e-06	-7.319605e-07	-3.371444e-10	-5.080290e+00	-2.671530e+01
1.700000e-06	-6.855142e-07	-3.239830e-10	-4.757922e+00	-2.578147e+01
1.710000e-06	-6.389389e-07	-3.119391e-10	-4.434659e+00	-2.482948e+01
1.720000e-06	-5.923266e-07	-2.988771e-10	-4.111139e+00	-2.385897e+01
1.730000e-06	-5.456584e-07	-2.843533e-10	-3.787230e+00	-2.286962e+01
1.740000e-06	-4.989793e-07	-2.661219e-10	-3.463247e+00	-2.186113e+01
1.750000e-06	-4.522284e-07	-2.469479e-10	-3.138764e+00	-2.083327e+01
1.760000e-06	-4.054001e-07	-2.288876e-10	-2.813745e+00	-1.978584e+01
1.770000e-06	-3.585393e-07	-2.148635e-10	-2.488500e+00	-1.871870e+01
1.780000e-06	-3.115818e-07	-2.050502e-10	-2.162584e+00	-1.763178e+01
1.790000e-06	-2.646186e-07	-1.941968e-10	-1.836628e+00	-1.652504e+01
1.800000e-06	-2.176477e-07	-1.805769e-10	-1.510619e+00	-1.539852e+01
1.810000e-06	-1.707413e-07	-1.628751e-10	-1.185058e+00	-1.425234e+01
1.820000e-06	-1.239386e-07	-1.428949e-10	-8.602156e-01	-1.308666e+01
1.830000e-06	-7.715430e-08	-1.260305e-10	-5.355019e-01	-1.190173e+01
1.840000e-06	-3.034786e-08	-1.109775e-10	-2.106343e-01	-1.069787e+01
1.850000e-06	1.659356e-08	-9.653482e-11	1.151703e-01	-9.475461e+00
1.860000e-06	6.359675e-08	-8.203518e-11	4.414036e-01	-8.234972e+00
1.870000e-06	1.105282e-07	-6.687164e-11	7.671390e-01	-6.976942e+00
1.880000e-06	1.573452e-07	-4.684835e-11	1.092080e+00	-5.701987e+00
1.890000e-06	2.041996e-07	-2.198780e-11	1.417280e+00	-4.410796e+00
1.900000e-06	2.510644e-07	-9.638985e-14	1.742553e+00	-3.104130e+00
1.910000e-06	2.979012e-07	2.090013e-11	2.067632e+00	-1.782822e+00
1.920000e-06	3.447586e-07	3.716245e-11	2.392853e+00	-4.477758e-01
1.930000e-06	3.916491e-07	5.017522e-11	2.718304e+00	9.000396e-01
1.940000e-06	4.385417e-07	6.448493e-11	3.043770e+00	2.259591e+00
1.950000e-06	4.853223e-07	8.366802e-11	3.368458e+00	3.629786e+00
1.960000e-06	5.320142e-07	1.062738e-10	3.692531e+00	5.009476e+00
1.970000e-06	5.786558e-07	1.293248e-10	4.016254e+00	6.397460e+00
1.980000e-06	6.252622e-07	1.527260e-10	4.339734e+00	7.792492e+00
1.990000e-06	6.717964e-07	1.730048e-10	4.662712e+00	9.193286e+00
2.000000e-06	7.183752e-07	1.881467e-10	4.985999e+00	1.059852e+01
2.010000e-06	7.648980e-07	2.020225e-10	5.308898e+00	1.200683e+01
2.020000e-06	8.112781e-07	2.190788e-10	5.630807e+00	1.341686e+01
2.030000e-06	8.576338e-07	2.409108e-10	5.952546e+00	1.482720e+01
2.040000e-06	9.039088e-07	2.624578e-10	6.273725e+00	1.623646e+01
2.050000e-06	9.500538e-07	2.827788e-10	6.594002e+00	1.764322e+01
2.060000e-06	9.961574e-07	3.023691e-10	6.913991e+00	1.904609e+01
2.070000e-06	1.042202e-06	3.215617e-10	7.233571e+00	2.044366e+01
2.080000e-06	1.088164e-06	3.422265e-10	7.552578e+00	2.183457e+01
2.090000e-06	1.133988e-06	3.637084e-10	7.870628e+00	2.321746e+01
2.100000e-06	1.179716e-06	3.865272e-10	8.188009e+00	2.459100e+01
2.110000e-06	1.225464e-06	4.066213e-10	8.505533e+00	2.595390e+01
2.120000e-06	1.271137e-06	4.247327e-10	8.822529e+00	2.730491e+01
2.130000e-06	1.316721e-06	4.403427e-10	9.138916e+00	2.864285e+01
2.140000e-06	1.362250e-06	4.550108e-10	9.454919e+00	2.996656e+01
2.150000e-06	1.407639e-06	4.751493e-10	9.769948e+00	3.127494e+01
2.160000e-06	1.452842e-06	4.959122e-10	1.008369e+01	3.256699e+01
2.170000e-06	1.497905e-06	5.141117e-10	1.039646e+01	3.384173e+01
2.180000e-06	1.543007e-06	5.333832e-10	1.070949e+01	3.509829e+01
2.190000e-06	1.588092e-06	5.517331e-10	1.102241e+01	3.633583e+01
2.200000e-06	1.632929e-06	5.670643e-10	1.133361e+01	3.755364e+01
2.210000e-06	1.677603e-06	5.811590e-10	1.164367e+01	3.875104e+01
2.220000e-06	1.722160e-06	5.948329e-10	1.195293e+01	3.992745e+01
2.230000e-06	1.766529e-06	6.092452e-10	1.226088e+01	4.108239e+01
2.240000e-06	1.810788e-06	6.250149e-10	1.256807e+01	4.221542e+01
2.250000e-06	1.855002e-06	6.409668e-10	1.287494e+01	4.332621e+01
2.260000e-06	1.899103e-06	6.554231e-10	1.318103e+01	4.441451e+01
2.270000e-06	1.943083e-06	6.690871e-10	1.348628e+01	4.548014e+01
2.280000e-06	1.986959e-06	6.863812e-10	1.379081e+01	4.652299e+01
2.290000e-06	2.030750e-06	7.036828e-10	1.409475e+01	4.754304e+01
2.300000e-06	2.074494e-06	7.198075e-10	1.439836e+01	4.854033e+01
2.310000e-06	2.118212e-06	7.311992e-10	1.470179e+01	4.951499e+01
2.320000e-06	2.161814e-06	7.404057e-10	1.500442e+01	5.046719e+01
2.330000e-06	2.205288e-06	7.508903e-10	1.530616e+01	5.139716e+01
2.340000e-06	2.248682e-06	7.634461e-10	1.560734e+01	5.230522e+01
2.350000e-06	2.291865e-06	7.795555e-10	1.590706e+01	5.319170e+01
2.360000e-06	2.334860e-06	7.976131e-10	1.620548e+01	5.405701e+01
2.370000e-06	2.377737e-06	8.144305e-10	1.650307e+01	5.490158e+01
2.380000e-06	2.420308e-06	8.254814e-10	1.679854e+01	5.572588e+01
2.390000e-06	2.462496e-06	8.330211e-10	1.709135e+01	5.653042e+01
2.400000e-06	2.504424e-06	8.407400e-10	1.738236e+01	5.731574e+01
2.410000e-06	2.546080e-06	8.475372e-10	1.767148e+01	5.808238e+01
2.420000e-06	2.587408e-06	8.550445e-10	1.795833e+01	5.883091e+01
2.430000e-06	2.628405e-06	8.682767e-10	1.824287e+01	5.956191e+01
2.440000e-06	2.669158e-06	8.855827e-10	1.852572e+01	6.027595e+01
2.450000e-06	2.709716e-06	9.009753e-10	1.880722e+01	6.097363e+01
2.460000e-06	2.750030e-06	9.118650e-10	1.908703e+01	6.165551e+01
2.470000e-06	2.790103e-06	9.217302e-10	1.936516e+01	6.232217e+01
2.480000e-06	2.830001e-06	9.289692e-10	1.964208e+01	6.297415e+01
2.490000e-06	2.869800e-06	9.350534e-10	1.991831e+01	6.361199e+01
2.500000e-06	2.909536e-06	9.419595e-10	2.019411e+01	6.423621e+01
2.510000e-06	2.949153e-06	9.504746e-10	2.046907e+01	6.484730e+01
2.520000e-06	2.988531e-06	9.605652e-10	2.074238e+01	6.544573e+01
2.530000e-06	3.027658e-06	9.715691e-10	2.101395e+01	6.603194e+01
2.540000e-06	3.066661e-06	9.797281e-10	2.128466e+01	6.660633e+01
2.550000e-06	3.105492e-06	9.861890e-10	2.155417e+01	6.716928e+01
2.560000e-06	3.144066e-06	9.940121e-10	2.182190e+01	6.772113e+01
2.570000e-06	3.182417e-06	1.001766e-09	2.208808e+01	6.826221e+01
2.580000e-06	3.220527e-06	1.006660e-09	2.235259e+01	6.879279e+01
2.590000e-06	3.258463e-06	1.012263e-09	2.261589e+01	6.931311e+01
2.600000e-06	3.296198e-06	1.021374e-09	2.287780e+01	6.982340e+01
2.610000e-06	3.333678e-06	1.029886e-09	2.313793e+01	7.032385e+01
2.620000e-06	3.370982e-06	1.035978e-09	2.339685e+01	7.081461e+01
2.630000e-06	3.408044e-06	1.039618e-09	2.365408e+01	7.129581e+01
2.640000e-06	3.444792e-06	1.042889e-09	2.390913e+01	7.176758e+01
2.650000e-06	3.481286e-06	1.048630e-09	2.416243e+01	7.222998e+01
2.660000e-06	3.517514e-06	1.057467e-09	2.441388e+01	7.268309e+01
2.670000e-06	3.553535e-06	1.064740e-09	2.466389e+01	7.312696e+01
2.680000e-06	3.589447e-06	1.070958e-09	2.491314e+01	7.356162e+01
2.690000e-06	3.625240e-06	1.079888e-09	2.516157e+01	7.398711e+01
2.700000e-06	3.660875e-06	1.087613e-09	2.540890e+01	7.440343e+01
2.710000e-06	3.696339e-06	1.091482e-09	2.565504e+01	7.481061e+01
2.720000e-06	3.731638e-06	1.094267e-09	2.590004e+01	7.520865e+01
2.730000e-06	3.766735e-06	1.099108e-09	2.614364e+01	7.559756e+01
2.740000e-06	3.801521e-06	1.105417e-09	2.638507e+01	7.597737e+01
2.750000e-06	3.835755e-06	1.111693e-09	2.662268e+01	7.634808e+01
2.760000e-06	3.869393e-06	1.119392e-09	2.685615e+01	7.670975e+01
2.770000e-06	3.902597e-06	1.127891e-09	2.708660e+01	7.706240e+01
2.780000e-06	3.935369e-06	1.136709e-09	2.731406e+01	7.740609e+01
2.790000e-06	3.967790e-06	1.143866e-09	2.753909e+01	7.774090e+01
2.800000e-06	3.999978e-06	1.147401e-09	2.776250e+01	7.806691e+01
2.810000e-06	4.031927e-06	1.148397e-09	2.798424e+01	7.838423e+01
2.820000e-06	4.063633e-06	1.150142e-09	2.820430e+01	7.869297e+01
2.830000e-06	4.095225e-06	1.154368e-09	2.842357e+01	7.899328e+01
2.840000e-06	4.126682e-06	1.158742e-09	2.864190e+01	7.928532e+01
2.850000e-06	4.157838e-06	1.166359e-09	2.885814e+01	7.956926e+01
2.860000e-06	4.188673e-06	1.176716e-09	2.907216e+01	7.984531e+01
2.870000e-06	4.219130e-06	1.181361e-09	2.928356e+01	8.011368e+01
2.880000e-06	4.249275e-06	1.182238e-09	2.949278e+01	8.037459e+01
2.890000e-06	4.279172e-06	1.184624e-09	2.970029e+01	8.062830e+01
2.900000e-06	4.308758e-06	1.187474e-09	2.990563e+01	8.087505e+01
