# Temperatura_=_-1.5
# Concentracion g/m^3_=_1620.0
# C_Vs_to_Am_M_A/Vsm_=_65563218390.804596
# pendiente_HvsI_1/m_=_3716.3
# ordenada_HvsI_A/m_=_1297.0
# frecuencia_Hz_=_135106.00471982727

Tiempo_(s)	Campo_(V.s)	Magnetizacion_(V.s)	Campo_(kA/m)	Magnetizacion_(A/m)
0.000000e+00	-5.501696e-06	-9.245506e-10	-3.837408e+01	-6.264008e+01
1.000000e-08	-5.501813e-06	-9.238553e-10	-3.837490e+01	-6.260422e+01
2.000000e-08	-5.501603e-06	-9.256616e-10	-3.837343e+01	-6.257113e+01
3.000000e-08	-5.500984e-06	-9.262927e-10	-3.836912e+01	-6.254070e+01
4.000000e-08	-5.499811e-06	-9.186794e-10	-3.836093e+01	-6.251278e+01
5.000000e-08	-5.497980e-06	-8.989310e-10	-3.834816e+01	-6.248723e+01
6.000000e-08	-5.495587e-06	-8.859039e-10	-3.833147e+01	-6.246386e+01
7.000000e-08	-5.492662e-06	-9.260582e-10	-3.831107e+01	-6.244249e+01
8.000000e-08	-5.489281e-06	-1.025934e-09	-3.828749e+01	-6.242290e+01
9.000000e-08	-5.485440e-06	-1.032565e-09	-3.826070e+01	-6.240488e+01
1.000000e-07	-5.481235e-06	-8.718390e-10	-3.823137e+01	-6.238819e+01
1.100000e-07	-5.476882e-06	-8.055750e-10	-3.820101e+01	-6.237258e+01
1.200000e-07	-5.472334e-06	-9.176713e-10	-3.816928e+01	-6.235781e+01
1.300000e-07	-5.467357e-06	-1.024048e-09	-3.813457e+01	-6.234360e+01
1.400000e-07	-5.461892e-06	-9.248733e-10	-3.809645e+01	-6.232970e+01
1.500000e-07	-5.456177e-06	-7.937835e-10	-3.805659e+01	-6.231582e+01
1.600000e-07	-5.450206e-06	-9.131154e-10	-3.801494e+01	-6.230171e+01
1.700000e-07	-5.443651e-06	-1.015202e-09	-3.796922e+01	-6.228708e+01
1.800000e-07	-5.436666e-06	-9.967318e-10	-3.792050e+01	-6.227167e+01
1.900000e-07	-5.429404e-06	-8.406213e-10	-3.786985e+01	-6.225520e+01
2.000000e-07	-5.421793e-06	-8.995956e-10	-3.781676e+01	-6.223742e+01
2.100000e-07	-5.413927e-06	-9.984214e-10	-3.776190e+01	-6.221805e+01
2.200000e-07	-5.405878e-06	-1.024368e-09	-3.770576e+01	-6.219686e+01
2.300000e-07	-5.397550e-06	-9.212504e-10	-3.764767e+01	-6.217360e+01
2.400000e-07	-5.388584e-06	-9.309515e-10	-3.758513e+01	-6.214803e+01
2.500000e-07	-5.378766e-06	-9.901798e-10	-3.751665e+01	-6.211993e+01
2.600000e-07	-5.368376e-06	-9.826059e-10	-3.744418e+01	-6.208908e+01
2.700000e-07	-5.357500e-06	-9.241913e-10	-3.736832e+01	-6.205528e+01
2.800000e-07	-5.346099e-06	-9.360714e-10	-3.728880e+01	-6.201835e+01
2.900000e-07	-5.334386e-06	-9.930582e-10	-3.720710e+01	-6.197809e+01
3.000000e-07	-5.322382e-06	-9.449801e-10	-3.712338e+01	-6.193435e+01
3.100000e-07	-5.309865e-06	-9.093540e-10	-3.703607e+01	-6.188698e+01
3.200000e-07	-5.296866e-06	-9.283672e-10	-3.694540e+01	-6.183582e+01
3.300000e-07	-5.283615e-06	-9.961620e-10	-3.685297e+01	-6.178077e+01
3.400000e-07	-5.270010e-06	-9.378746e-10	-3.675808e+01	-6.172170e+01
3.500000e-07	-5.255906e-06	-9.340442e-10	-3.665971e+01	-6.165852e+01
3.600000e-07	-5.241406e-06	-9.637296e-10	-3.655857e+01	-6.159114e+01
3.700000e-07	-5.226489e-06	-9.735635e-10	-3.645453e+01	-6.151948e+01
3.800000e-07	-5.210920e-06	-8.956938e-10	-3.634593e+01	-6.144348e+01
3.900000e-07	-5.194932e-06	-9.511379e-10	-3.623442e+01	-6.136309e+01
4.000000e-07	-5.178664e-06	-9.842881e-10	-3.612095e+01	-6.127828e+01
4.100000e-07	-5.161893e-06	-9.216953e-10	-3.600397e+01	-6.118902e+01
4.200000e-07	-5.144706e-06	-8.871816e-10	-3.588409e+01	-6.109529e+01
4.300000e-07	-5.127375e-06	-9.995591e-10	-3.576321e+01	-6.099708e+01
4.400000e-07	-5.109693e-06	-9.807830e-10	-3.563988e+01	-6.089441e+01
4.500000e-07	-5.091490e-06	-8.951263e-10	-3.551292e+01	-6.078727e+01
4.600000e-07	-5.072920e-06	-9.299388e-10	-3.538339e+01	-6.067571e+01
4.700000e-07	-5.054016e-06	-9.907560e-10	-3.525153e+01	-6.055974e+01
4.800000e-07	-5.034713e-06	-9.174211e-10	-3.511689e+01	-6.043940e+01
4.900000e-07	-5.015101e-06	-9.203308e-10	-3.498011e+01	-6.031475e+01
5.000000e-07	-4.995334e-06	-9.786963e-10	-3.484223e+01	-6.018584e+01
5.100000e-07	-4.975302e-06	-9.264467e-10	-3.470251e+01	-6.005272e+01
5.200000e-07	-4.954911e-06	-8.891811e-10	-3.456028e+01	-5.991547e+01
5.300000e-07	-4.934221e-06	-9.719361e-10	-3.441597e+01	-5.977416e+01
5.400000e-07	-4.913175e-06	-9.671597e-10	-3.426917e+01	-5.962886e+01
5.500000e-07	-4.891683e-06	-8.856213e-10	-3.411927e+01	-5.947966e+01
5.600000e-07	-4.869864e-06	-9.201426e-10	-3.396708e+01	-5.932665e+01
5.700000e-07	-4.847791e-06	-9.541754e-10	-3.381312e+01	-5.916993e+01
5.800000e-07	-4.825326e-06	-9.032327e-10	-3.365643e+01	-5.900958e+01
5.900000e-07	-4.802458e-06	-8.969558e-10	-3.349693e+01	-5.884571e+01
6.000000e-07	-4.779324e-06	-9.367216e-10	-3.333557e+01	-5.867843e+01
6.100000e-07	-4.755889e-06	-8.985628e-10	-3.317211e+01	-5.850784e+01
6.200000e-07	-4.732230e-06	-8.853896e-10	-3.300709e+01	-5.833406e+01
6.300000e-07	-4.708382e-06	-9.078760e-10	-3.284076e+01	-5.815719e+01
6.400000e-07	-4.684255e-06	-9.003541e-10	-3.267247e+01	-5.797736e+01
6.500000e-07	-4.659790e-06	-8.750217e-10	-3.250182e+01	-5.779467e+01
6.600000e-07	-4.634925e-06	-9.011206e-10	-3.232839e+01	-5.760925e+01
6.700000e-07	-4.609505e-06	-8.917821e-10	-3.215109e+01	-5.742121e+01
6.800000e-07	-4.583457e-06	-8.776905e-10	-3.196941e+01	-5.723068e+01
6.900000e-07	-4.556932e-06	-8.840703e-10	-3.178440e+01	-5.703777e+01
7.000000e-07	-4.530015e-06	-8.909550e-10	-3.159665e+01	-5.684260e+01
7.100000e-07	-4.502823e-06	-8.677919e-10	-3.140699e+01	-5.664528e+01
7.200000e-07	-4.475430e-06	-8.762963e-10	-3.121592e+01	-5.644593e+01
7.300000e-07	-4.447757e-06	-8.744178e-10	-3.102290e+01	-5.624467e+01
7.400000e-07	-4.419833e-06	-8.628052e-10	-3.082814e+01	-5.604158e+01
7.500000e-07	-4.391732e-06	-8.608992e-10	-3.063214e+01	-5.583679e+01
7.600000e-07	-4.363339e-06	-8.677373e-10	-3.043410e+01	-5.563039e+01
7.700000e-07	-4.334609e-06	-8.460631e-10	-3.023370e+01	-5.542248e+01
7.800000e-07	-4.305551e-06	-8.444368e-10	-3.003103e+01	-5.521313e+01
7.900000e-07	-4.276179e-06	-8.544337e-10	-2.982616e+01	-5.500243e+01
8.000000e-07	-4.246555e-06	-8.425207e-10	-2.961953e+01	-5.479046e+01
8.100000e-07	-4.216607e-06	-8.277431e-10	-2.941064e+01	-5.457727e+01
8.200000e-07	-4.186377e-06	-8.385978e-10	-2.919979e+01	-5.436293e+01
8.300000e-07	-4.155883e-06	-8.382742e-10	-2.898710e+01	-5.414748e+01
8.400000e-07	-4.125031e-06	-8.200141e-10	-2.877191e+01	-5.393096e+01
8.500000e-07	-4.093879e-06	-8.190680e-10	-2.855462e+01	-5.371339e+01
8.600000e-07	-4.062528e-06	-8.193455e-10	-2.833595e+01	-5.349478e+01
8.700000e-07	-4.030982e-06	-8.069384e-10	-2.811592e+01	-5.327515e+01
8.800000e-07	-3.999338e-06	-8.035448e-10	-2.789521e+01	-5.305448e+01
8.900000e-07	-3.967541e-06	-8.150020e-10	-2.767342e+01	-5.283275e+01
9.000000e-07	-3.935498e-06	-8.031774e-10	-2.744992e+01	-5.260993e+01
9.100000e-07	-3.903143e-06	-7.948855e-10	-2.722424e+01	-5.238597e+01
9.200000e-07	-3.870389e-06	-7.967453e-10	-2.699579e+01	-5.216083e+01
9.300000e-07	-3.837289e-06	-7.941719e-10	-2.676492e+01	-5.193442e+01
9.400000e-07	-3.803753e-06	-7.782465e-10	-2.653100e+01	-5.170667e+01
9.500000e-07	-3.769817e-06	-7.812496e-10	-2.629430e+01	-5.147748e+01
9.600000e-07	-3.735409e-06	-7.790586e-10	-2.605431e+01	-5.124676e+01
9.700000e-07	-3.700481e-06	-7.709175e-10	-2.581069e+01	-5.101439e+01
9.800000e-07	-3.665271e-06	-7.669835e-10	-2.556510e+01	-5.078024e+01
9.900000e-07	-3.629904e-06	-7.738412e-10	-2.531841e+01	-5.054419e+01
1.000000e-06	-3.594336e-06	-7.649875e-10	-2.507033e+01	-5.030608e+01
1.010000e-06	-3.558586e-06	-7.589728e-10	-2.482098e+01	-5.006578e+01
1.020000e-06	-3.522765e-06	-7.577821e-10	-2.457112e+01	-4.982312e+01
1.030000e-06	-3.486769e-06	-7.545583e-10	-2.432006e+01	-4.957795e+01
1.040000e-06	-3.450483e-06	-7.444140e-10	-2.406697e+01	-4.933010e+01
1.050000e-06	-3.413965e-06	-7.423919e-10	-2.381225e+01	-4.907940e+01
1.060000e-06	-3.377215e-06	-7.361409e-10	-2.355592e+01	-4.882568e+01
1.070000e-06	-3.340136e-06	-7.275316e-10	-2.329730e+01	-4.856878e+01
1.080000e-06	-3.302788e-06	-7.237315e-10	-2.303680e+01	-4.830851e+01
1.090000e-06	-3.265255e-06	-7.235119e-10	-2.277501e+01	-4.804471e+01
1.100000e-06	-3.227463e-06	-7.178295e-10	-2.251141e+01	-4.777722e+01
1.110000e-06	-3.189511e-06	-7.110215e-10	-2.224669e+01	-4.750586e+01
1.120000e-06	-3.151392e-06	-7.059115e-10	-2.198082e+01	-4.723049e+01
1.130000e-06	-3.113076e-06	-6.992896e-10	-2.171356e+01	-4.695096e+01
1.140000e-06	-3.074596e-06	-6.929210e-10	-2.144517e+01	-4.666711e+01
1.150000e-06	-3.035749e-06	-6.860585e-10	-2.117421e+01	-4.637881e+01
1.160000e-06	-2.996679e-06	-6.810165e-10	-2.090170e+01	-4.608593e+01
1.170000e-06	-2.957510e-06	-6.757051e-10	-2.062850e+01	-4.578836e+01
1.180000e-06	-2.918127e-06	-6.744060e-10	-2.035381e+01	-4.548598e+01
1.190000e-06	-2.878518e-06	-6.708433e-10	-2.007753e+01	-4.517870e+01
1.200000e-06	-2.838786e-06	-6.671178e-10	-1.980040e+01	-4.486642e+01
1.210000e-06	-2.798968e-06	-6.629316e-10	-1.952268e+01	-4.454907e+01
1.220000e-06	-2.759036e-06	-6.609844e-10	-1.924416e+01	-4.422657e+01
1.230000e-06	-2.718979e-06	-6.523744e-10	-1.896476e+01	-4.389887e+01
1.240000e-06	-2.678680e-06	-6.448605e-10	-1.868367e+01	-4.356592e+01
1.250000e-06	-2.638223e-06	-6.386831e-10	-1.840149e+01	-4.322768e+01
1.260000e-06	-2.597636e-06	-6.329033e-10	-1.811839e+01	-4.288411e+01
1.270000e-06	-2.556775e-06	-6.244805e-10	-1.783339e+01	-4.253519e+01
1.280000e-06	-2.515538e-06	-6.203997e-10	-1.754576e+01	-4.218090e+01
1.290000e-06	-2.474034e-06	-6.167360e-10	-1.725628e+01	-4.182121e+01
1.300000e-06	-2.432340e-06	-6.108283e-10	-1.696546e+01	-4.145612e+01
1.310000e-06	-2.390314e-06	-6.014690e-10	-1.667233e+01	-4.108563e+01
1.320000e-06	-2.347965e-06	-5.939187e-10	-1.637695e+01	-4.070970e+01
1.330000e-06	-2.305364e-06	-5.870066e-10	-1.607981e+01	-4.032834e+01
1.340000e-06	-2.262449e-06	-5.803474e-10	-1.578048e+01	-3.994153e+01
1.350000e-06	-2.219284e-06	-5.705526e-10	-1.547941e+01	-3.954924e+01
1.360000e-06	-2.176016e-06	-5.635079e-10	-1.517761e+01	-3.915145e+01
1.370000e-06	-2.132679e-06	-5.588225e-10	-1.487534e+01	-3.874811e+01
1.380000e-06	-2.089173e-06	-5.556298e-10	-1.457189e+01	-3.833919e+01
1.390000e-06	-2.045504e-06	-5.506614e-10	-1.426730e+01	-3.792462e+01
1.400000e-06	-2.001757e-06	-5.448129e-10	-1.396217e+01	-3.750432e+01
1.410000e-06	-1.957931e-06	-5.385440e-10	-1.365648e+01	-3.707820e+01
1.420000e-06	-1.914073e-06	-5.321185e-10	-1.335057e+01	-3.664615e+01
1.430000e-06	-1.870117e-06	-5.267121e-10	-1.304398e+01	-3.620805e+01
1.440000e-06	-1.826065e-06	-5.212811e-10	-1.273672e+01	-3.576374e+01
1.450000e-06	-1.781968e-06	-5.137625e-10	-1.242915e+01	-3.531305e+01
1.460000e-06	-1.737751e-06	-5.041125e-10	-1.212073e+01	-3.485579e+01
1.470000e-06	-1.693444e-06	-4.946772e-10	-1.181170e+01	-3.439173e+01
1.480000e-06	-1.649069e-06	-4.841942e-10	-1.150219e+01	-3.392065e+01
1.490000e-06	-1.604500e-06	-4.761713e-10	-1.119131e+01	-3.344227e+01
1.500000e-06	-1.559737e-06	-4.706910e-10	-1.087910e+01	-3.295631e+01
1.510000e-06	-1.514872e-06	-4.648732e-10	-1.056616e+01	-3.246245e+01
1.520000e-06	-1.469902e-06	-4.566337e-10	-1.025250e+01	-3.196035e+01
1.530000e-06	-1.424779e-06	-4.480226e-10	-9.937770e+00	-3.144966e+01
1.540000e-06	-1.379548e-06	-4.355718e-10	-9.622288e+00	-3.093000e+01
1.550000e-06	-1.334241e-06	-4.247417e-10	-9.306269e+00	-3.040097e+01
1.560000e-06	-1.288807e-06	-4.158887e-10	-8.989371e+00	-2.986215e+01
1.570000e-06	-1.243308e-06	-4.087131e-10	-8.672015e+00	-2.931311e+01
1.580000e-06	-1.197728e-06	-4.022337e-10	-8.354096e+00	-2.875339e+01
1.590000e-06	-1.151997e-06	-3.959258e-10	-8.035129e+00	-2.818255e+01
1.600000e-06	-1.106211e-06	-3.862639e-10	-7.715771e+00	-2.760011e+01
1.610000e-06	-1.060423e-06	-3.766988e-10	-7.396403e+00	-2.700560e+01
1.620000e-06	-1.014546e-06	-3.692154e-10	-7.076413e+00	-2.639854e+01
1.630000e-06	-9.685926e-07	-3.641254e-10	-6.755890e+00	-2.577847e+01
1.640000e-06	-9.225163e-07	-3.563580e-10	-6.434510e+00	-2.514491e+01
1.650000e-06	-8.762826e-07	-3.440028e-10	-6.112032e+00	-2.449741e+01
1.660000e-06	-8.300583e-07	-3.310494e-10	-5.789619e+00	-2.383550e+01
1.670000e-06	-7.838282e-07	-3.184081e-10	-5.467166e+00	-2.315877e+01
1.680000e-06	-7.375306e-07	-3.068100e-10	-5.144243e+00	-2.246679e+01
1.690000e-06	-6.911986e-07	-2.966405e-10	-4.821079e+00	-2.175918e+01
1.700000e-06	-6.447964e-07	-2.864015e-10	-4.497426e+00	-2.103558e+01
1.710000e-06	-5.983663e-07	-2.766942e-10	-4.173578e+00	-2.029565e+01
1.720000e-06	-5.519109e-07	-2.644822e-10	-3.849554e+00	-1.953910e+01
1.730000e-06	-5.053983e-07	-2.487018e-10	-3.525130e+00	-1.876568e+01
1.740000e-06	-4.589051e-07	-2.319592e-10	-3.200842e+00	-1.797518e+01
1.750000e-06	-4.123457e-07	-2.167829e-10	-2.876093e+00	-1.716741e+01
1.760000e-06	-3.657299e-07	-2.033147e-10	-2.550950e+00	-1.634227e+01
1.770000e-06	-3.191544e-07	-1.915914e-10	-2.226088e+00	-1.549969e+01
1.780000e-06	-2.725556e-07	-1.827329e-10	-1.901063e+00	-1.463965e+01
1.790000e-06	-2.259476e-07	-1.724610e-10	-1.575974e+00	-1.376219e+01
1.800000e-06	-1.792615e-07	-1.598496e-10	-1.250341e+00	-1.286742e+01
1.810000e-06	-1.325109e-07	-1.469628e-10	-9.242579e-01	-1.195549e+01
1.820000e-06	-8.586488e-08	-1.368999e-10	-5.989037e-01	-1.102663e+01
1.830000e-06	-3.919192e-08	-1.279348e-10	-2.733619e-01	-1.008112e+01
1.840000e-06	7.528189e-09	-1.163388e-10	5.250878e-02	-9.119291e+00
1.850000e-06	5.419393e-08	-1.027155e-10	3.780003e-01	-8.141561e+00
1.860000e-06	1.008357e-07	-8.990025e-11	7.033243e-01	-7.148391e+00
1.870000e-06	1.475208e-07	-7.522913e-11	1.028951e+00	-6.140310e+00
1.880000e-06	1.942048e-07	-5.805052e-11	1.354570e+00	-5.117904e+00
1.890000e-06	2.408375e-07	-3.979019e-11	1.679831e+00	-4.081815e+00
1.900000e-06	2.874690e-07	-2.229521e-11	2.005083e+00	-3.032744e+00
1.910000e-06	3.340278e-07	-5.631586e-12	2.329829e+00	-1.971441e+00
1.920000e-06	3.805471e-07	6.550068e-12	2.654299e+00	-8.987110e-01
1.930000e-06	4.270760e-07	1.675976e-11	2.978836e+00	1.845980e-01
1.940000e-06	4.735727e-07	3.048800e-11	3.303149e+00	1.277592e+00
1.950000e-06	5.199859e-07	4.734159e-11	3.626878e+00	2.379338e+00
1.960000e-06	5.662894e-07	6.516308e-11	3.949843e+00	3.488866e+00
1.970000e-06	6.125219e-07	8.157008e-11	4.272313e+00	4.605175e+00
1.980000e-06	6.587338e-07	9.784396e-11	4.594639e+00	5.727237e+00
1.990000e-06	7.049465e-07	1.145640e-10	4.916970e+00	6.854000e+00
2.000000e-06	7.511688e-07	1.277271e-10	5.239368e+00	7.984395e+00
2.010000e-06	7.973257e-07	1.405284e-10	5.561311e+00	9.117340e+00
2.020000e-06	8.433988e-07	1.564921e-10	5.882669e+00	1.025174e+01
2.030000e-06	8.893984e-07	1.745725e-10	6.203514e+00	1.138651e+01
2.040000e-06	9.352950e-07	1.922651e-10	6.523641e+00	1.252055e+01
2.050000e-06	9.811583e-07	2.094541e-10	6.843535e+00	1.365277e+01
2.060000e-06	1.026971e-06	2.255687e-10	7.163078e+00	1.478210e+01
2.070000e-06	1.072701e-06	2.408681e-10	7.482044e+00	1.590748e+01
2.080000e-06	1.118419e-06	2.570799e-10	7.800922e+00	1.702787e+01
2.090000e-06	1.164107e-06	2.742091e-10	8.119592e+00	1.814225e+01
2.100000e-06	1.209732e-06	2.929407e-10	8.437828e+00	1.924963e+01
2.110000e-06	1.255278e-06	3.078305e-10	8.755505e+00	2.034907e+01
2.120000e-06	1.300749e-06	3.196046e-10	9.072663e+00	2.143963e+01
2.130000e-06	1.346075e-06	3.324304e-10	9.388812e+00	2.252044e+01
2.140000e-06	1.391234e-06	3.477569e-10	9.703791e+00	2.359066e+01
2.150000e-06	1.436338e-06	3.637536e-10	1.001839e+01	2.464949e+01
2.160000e-06	1.481346e-06	3.786043e-10	1.033232e+01	2.569619e+01
2.170000e-06	1.526207e-06	3.929149e-10	1.064523e+01	2.673004e+01
2.180000e-06	1.570970e-06	4.106256e-10	1.095745e+01	2.775041e+01
2.190000e-06	1.615627e-06	4.276454e-10	1.126893e+01	2.875669e+01
2.200000e-06	1.660101e-06	4.421347e-10	1.157913e+01	2.974833e+01
2.210000e-06	1.704410e-06	4.550344e-10	1.188819e+01	3.072483e+01
2.220000e-06	1.748587e-06	4.655751e-10	1.219631e+01	3.168575e+01
2.230000e-06	1.792667e-06	4.757806e-10	1.250377e+01	3.263069e+01
2.240000e-06	1.836691e-06	4.874844e-10	1.281084e+01	3.355931e+01
2.250000e-06	1.880642e-06	5.000534e-10	1.311739e+01	3.447132e+01
2.260000e-06	1.924519e-06	5.121723e-10	1.342343e+01	3.536646e+01
2.270000e-06	1.968320e-06	5.292260e-10	1.372894e+01	3.624455e+01
2.280000e-06	2.012025e-06	5.469860e-10	1.403378e+01	3.710542e+01
2.290000e-06	2.055689e-06	5.606066e-10	1.433834e+01	3.794897e+01
2.300000e-06	2.099333e-06	5.697123e-10	1.464275e+01	3.877514e+01
2.310000e-06	2.142903e-06	5.773677e-10	1.494666e+01	3.958387e+01
2.320000e-06	2.186383e-06	5.864492e-10	1.524992e+01	4.037520e+01
2.330000e-06	2.229675e-06	5.971544e-10	1.555188e+01	4.114914e+01
2.340000e-06	2.272710e-06	6.119305e-10	1.585205e+01	4.190577e+01
2.350000e-06	2.315514e-06	6.293331e-10	1.615061e+01	4.264519e+01
2.360000e-06	2.358068e-06	6.460172e-10	1.644742e+01	4.336752e+01
2.370000e-06	2.400341e-06	6.582336e-10	1.674227e+01	4.407290e+01
2.380000e-06	2.442328e-06	6.676469e-10	1.703513e+01	4.476149e+01
2.390000e-06	2.483949e-06	6.765752e-10	1.732543e+01	4.543347e+01
2.400000e-06	2.525215e-06	6.845468e-10	1.761326e+01	4.608905e+01
2.410000e-06	2.566162e-06	6.928349e-10	1.789886e+01	4.672841e+01
2.420000e-06	2.606722e-06	7.026411e-10	1.818177e+01	4.735178e+01
2.430000e-06	2.647037e-06	7.144516e-10	1.846296e+01	4.795938e+01
2.440000e-06	2.687273e-06	7.243772e-10	1.874361e+01	4.855143e+01
2.450000e-06	2.727368e-06	7.307700e-10	1.902327e+01	4.912816e+01
2.460000e-06	2.767334e-06	7.397000e-10	1.930203e+01	4.968981e+01
2.470000e-06	2.807196e-06	7.515932e-10	1.958007e+01	5.023660e+01
2.480000e-06	2.846903e-06	7.614935e-10	1.985702e+01	5.076877e+01
2.490000e-06	2.886467e-06	7.683136e-10	2.013297e+01	5.128654e+01
2.500000e-06	2.925921e-06	7.748561e-10	2.040817e+01	5.179013e+01
2.510000e-06	2.965276e-06	7.818683e-10	2.068267e+01	5.227976e+01
2.520000e-06	3.004447e-06	7.889540e-10	2.095588e+01	5.275566e+01
2.530000e-06	3.043317e-06	7.955474e-10	2.122700e+01	5.321803e+01
2.540000e-06	3.081911e-06	8.015000e-10	2.149619e+01	5.366708e+01
2.550000e-06	3.120300e-06	8.079023e-10	2.176395e+01	5.410301e+01
2.560000e-06	3.158455e-06	8.149961e-10	2.203008e+01	5.452603e+01
2.570000e-06	3.196393e-06	8.216679e-10	2.229470e+01	5.493633e+01
2.580000e-06	3.234161e-06	8.268549e-10	2.255813e+01	5.533411e+01
2.590000e-06	3.271809e-06	8.309441e-10	2.282072e+01	5.571955e+01
2.600000e-06	3.309313e-06	8.341224e-10	2.308231e+01	5.609285e+01
2.610000e-06	3.346515e-06	8.353896e-10	2.334179e+01	5.645421e+01
2.620000e-06	3.383338e-06	8.364638e-10	2.359863e+01	5.680381e+01
2.630000e-06	3.419902e-06	8.399126e-10	2.385367e+01	5.714184e+01
2.640000e-06	3.456326e-06	8.458469e-10	2.410772e+01	5.746851e+01
2.650000e-06	3.492544e-06	8.522873e-10	2.436034e+01	5.778402e+01
2.660000e-06	3.528533e-06	8.582545e-10	2.461136e+01	5.808856e+01
2.670000e-06	3.564356e-06	8.634166e-10	2.486122e+01	5.838236e+01
2.680000e-06	3.600051e-06	8.673041e-10	2.511020e+01	5.866562e+01
2.690000e-06	3.635642e-06	8.711616e-10	2.535844e+01	5.893857e+01
2.700000e-06	3.671057e-06	8.748935e-10	2.560546e+01	5.920145e+01
2.710000e-06	3.706197e-06	8.795177e-10	2.585056e+01	5.945449e+01
2.720000e-06	3.740979e-06	8.848918e-10	2.609316e+01	5.969795e+01
2.730000e-06	3.775413e-06	8.883044e-10	2.633333e+01	5.993207e+01
2.740000e-06	3.809432e-06	8.893036e-10	2.657062e+01	6.015712e+01
2.750000e-06	3.842970e-06	8.871483e-10	2.680454e+01	6.037339e+01
2.760000e-06	3.876080e-06	8.852195e-10	2.703548e+01	6.058114e+01
2.770000e-06	3.908706e-06	8.873943e-10	2.726305e+01	6.078067e+01
2.780000e-06	3.941003e-06	8.940544e-10	2.748832e+01	6.097228e+01
2.790000e-06	3.973088e-06	9.021797e-10	2.771211e+01	6.115627e+01
2.800000e-06	4.004949e-06	9.104391e-10	2.793434e+01	6.133294e+01
2.810000e-06	4.036679e-06	9.165573e-10	2.815566e+01	6.150261e+01
2.820000e-06	4.068282e-06	9.181078e-10	2.837608e+01	6.166559e+01
2.830000e-06	4.099636e-06	9.171401e-10	2.859477e+01	6.182220e+01
2.840000e-06	4.130607e-06	9.166446e-10	2.881080e+01	6.197275e+01
2.850000e-06	4.161168e-06	9.193619e-10	2.902396e+01	6.211757e+01
2.860000e-06	4.191431e-06	9.237670e-10	2.923504e+01	6.225695e+01
2.870000e-06	4.221458e-06	9.289150e-10	2.944448e+01	6.239121e+01
2.880000e-06	4.251212e-06	9.353194e-10	2.965201e+01	6.252065e+01
2.890000e-06	4.280765e-06	9.433438e-10	2.985814e+01	6.264556e+01
2.900000e-06	4.310132e-06	9.480446e-10	3.006298e+01	6.276622e+01
2.910000e-06	4.339219e-06	9.461918e-10	3.026586e+01	6.288290e+01
