# Temperatura_=_-2.16
# Concentracion g/m^3_=_1620.0
# C_Vs_to_Am_M_A/Vsm_=_65563218390.804596
# pendiente_HvsI_1/m_=_3716.3
# ordenada_HvsI_A/m_=_1297.0
# frecuencia_Hz_=_135106.85740846826

Tiempo_(s)	Campo_(V.s)	Magnetizacion_(V.s)	Campo_(kA/m)	Magnetizacion_(A/m)
0.000000e+00	-5.521661e-06	-8.867605e-10	-3.835989e+01	-6.144684e+01
1.000000e-08	-5.522039e-06	-8.847184e-10	-3.836251e+01	-6.142240e+01
2.000000e-08	-5.522137e-06	-8.839465e-10	-3.836319e+01	-6.139713e+01
3.000000e-08	-5.521965e-06	-8.853083e-10	-3.836199e+01	-6.137086e+01
4.000000e-08	-5.521373e-06	-8.851495e-10	-3.835789e+01	-6.134341e+01
5.000000e-08	-5.520102e-06	-8.738820e-10	-3.834905e+01	-6.131461e+01
6.000000e-08	-5.518126e-06	-8.547906e-10	-3.833533e+01	-6.128427e+01
7.000000e-08	-5.515549e-06	-8.445867e-10	-3.831743e+01	-6.125222e+01
8.000000e-08	-5.512484e-06	-8.740622e-10	-3.829613e+01	-6.121829e+01
9.000000e-08	-5.509031e-06	-9.756815e-10	-3.827214e+01	-6.118228e+01
1.000000e-07	-5.505149e-06	-1.025630e-09	-3.824517e+01	-6.114405e+01
1.100000e-07	-5.500850e-06	-8.929631e-10	-3.821530e+01	-6.110341e+01
1.200000e-07	-5.496335e-06	-7.639679e-10	-3.818394e+01	-6.106023e+01
1.300000e-07	-5.491608e-06	-8.248261e-10	-3.815110e+01	-6.101436e+01
1.400000e-07	-5.486524e-06	-9.370841e-10	-3.811578e+01	-6.096565e+01
1.500000e-07	-5.481007e-06	-9.048321e-10	-3.807745e+01	-6.091400e+01
1.600000e-07	-5.475119e-06	-7.632307e-10	-3.803655e+01	-6.085930e+01
1.700000e-07	-5.468953e-06	-8.565699e-10	-3.799371e+01	-6.080144e+01
1.800000e-07	-5.462240e-06	-9.780261e-10	-3.794708e+01	-6.074036e+01
1.900000e-07	-5.455063e-06	-9.748441e-10	-3.789722e+01	-6.067600e+01
2.000000e-07	-5.447690e-06	-8.024661e-10	-3.784599e+01	-6.060831e+01
2.100000e-07	-5.440102e-06	-8.111345e-10	-3.779328e+01	-6.053727e+01
2.200000e-07	-5.432205e-06	-9.145155e-10	-3.773842e+01	-6.046287e+01
2.300000e-07	-5.424061e-06	-9.695999e-10	-3.768184e+01	-6.038511e+01
2.400000e-07	-5.415601e-06	-8.982837e-10	-3.762307e+01	-6.030403e+01
2.500000e-07	-5.406520e-06	-8.851656e-10	-3.755998e+01	-6.021966e+01
2.600000e-07	-5.396612e-06	-9.241515e-10	-3.749115e+01	-6.013208e+01
2.700000e-07	-5.386058e-06	-9.029520e-10	-3.741783e+01	-6.004135e+01
2.800000e-07	-5.375075e-06	-8.619587e-10	-3.734153e+01	-5.994757e+01
2.900000e-07	-5.363638e-06	-8.731490e-10	-3.726208e+01	-5.985083e+01
3.000000e-07	-5.351862e-06	-9.325043e-10	-3.718027e+01	-5.975127e+01
3.100000e-07	-5.339733e-06	-8.890487e-10	-3.709600e+01	-5.964902e+01
3.200000e-07	-5.327095e-06	-8.646607e-10	-3.700820e+01	-5.954420e+01
3.300000e-07	-5.313988e-06	-8.722732e-10	-3.691715e+01	-5.943697e+01
3.400000e-07	-5.300612e-06	-9.359104e-10	-3.682422e+01	-5.932750e+01
3.500000e-07	-5.286845e-06	-8.796351e-10	-3.672858e+01	-5.921593e+01
3.600000e-07	-5.272536e-06	-8.666973e-10	-3.662918e+01	-5.910244e+01
3.700000e-07	-5.257864e-06	-8.897936e-10	-3.652724e+01	-5.898719e+01
3.800000e-07	-5.242882e-06	-9.219476e-10	-3.642316e+01	-5.887035e+01
3.900000e-07	-5.227237e-06	-8.509124e-10	-3.631447e+01	-5.875209e+01
4.000000e-07	-5.210968e-06	-8.819472e-10	-3.620145e+01	-5.863257e+01
4.100000e-07	-5.194420e-06	-9.261670e-10	-3.608649e+01	-5.851195e+01
4.200000e-07	-5.177604e-06	-8.831031e-10	-3.596967e+01	-5.839038e+01
4.300000e-07	-5.160440e-06	-8.243755e-10	-3.585042e+01	-5.826800e+01
4.400000e-07	-5.143003e-06	-9.149809e-10	-3.572929e+01	-5.814495e+01
4.500000e-07	-5.125184e-06	-9.331646e-10	-3.560550e+01	-5.802135e+01
4.600000e-07	-5.106815e-06	-8.477124e-10	-3.547788e+01	-5.789731e+01
4.700000e-07	-5.087962e-06	-8.568887e-10	-3.534691e+01	-5.777292e+01
4.800000e-07	-5.068821e-06	-9.289365e-10	-3.521393e+01	-5.764827e+01
4.900000e-07	-5.049448e-06	-8.770639e-10	-3.507934e+01	-5.752344e+01
5.000000e-07	-5.029854e-06	-8.511300e-10	-3.494322e+01	-5.739845e+01
5.100000e-07	-5.010086e-06	-9.129166e-10	-3.480589e+01	-5.727337e+01
5.200000e-07	-4.989999e-06	-8.819559e-10	-3.466634e+01	-5.714819e+01
5.300000e-07	-4.969454e-06	-8.307457e-10	-3.452361e+01	-5.702293e+01
5.400000e-07	-4.948525e-06	-9.027559e-10	-3.437822e+01	-5.689757e+01
5.500000e-07	-4.927315e-06	-9.321095e-10	-3.423086e+01	-5.677208e+01
5.600000e-07	-4.905764e-06	-8.423942e-10	-3.408115e+01	-5.664642e+01
5.700000e-07	-4.883897e-06	-8.526098e-10	-3.392923e+01	-5.652052e+01
5.800000e-07	-4.861731e-06	-9.017537e-10	-3.377524e+01	-5.639431e+01
5.900000e-07	-4.839187e-06	-8.638961e-10	-3.361863e+01	-5.626770e+01
6.000000e-07	-4.816308e-06	-8.399191e-10	-3.345968e+01	-5.614059e+01
6.100000e-07	-4.793142e-06	-8.924799e-10	-3.329874e+01	-5.601287e+01
6.200000e-07	-4.769686e-06	-8.710025e-10	-3.313579e+01	-5.588440e+01
6.300000e-07	-4.745994e-06	-8.423177e-10	-3.297120e+01	-5.575508e+01
6.400000e-07	-4.722117e-06	-8.613360e-10	-3.280532e+01	-5.562474e+01
6.500000e-07	-4.697935e-06	-8.679495e-10	-3.263732e+01	-5.549326e+01
6.600000e-07	-4.673281e-06	-8.324888e-10	-3.246605e+01	-5.536048e+01
6.700000e-07	-4.648201e-06	-8.506229e-10	-3.229181e+01	-5.522625e+01
6.800000e-07	-4.622585e-06	-8.602874e-10	-3.211385e+01	-5.509043e+01
6.900000e-07	-4.596307e-06	-8.505206e-10	-3.193130e+01	-5.495285e+01
7.000000e-07	-4.569594e-06	-8.475211e-10	-3.174572e+01	-5.481338e+01
7.100000e-07	-4.542537e-06	-8.606112e-10	-3.155775e+01	-5.467187e+01
7.200000e-07	-4.515104e-06	-8.428904e-10	-3.136717e+01	-5.452817e+01
7.300000e-07	-4.487505e-06	-8.361787e-10	-3.117544e+01	-5.438216e+01
7.400000e-07	-4.459808e-06	-8.338655e-10	-3.098302e+01	-5.423371e+01
7.500000e-07	-4.431830e-06	-8.307324e-10	-3.078865e+01	-5.408270e+01
7.600000e-07	-4.403577e-06	-8.248020e-10	-3.059237e+01	-5.392903e+01
7.700000e-07	-4.375040e-06	-8.266751e-10	-3.039412e+01	-5.377260e+01
7.800000e-07	-4.346060e-06	-8.174868e-10	-3.019279e+01	-5.361332e+01
7.900000e-07	-4.316805e-06	-8.136396e-10	-2.998955e+01	-5.345112e+01
8.000000e-07	-4.287361e-06	-8.178228e-10	-2.978500e+01	-5.328594e+01
8.100000e-07	-4.257556e-06	-8.115122e-10	-2.957794e+01	-5.311774e+01
8.200000e-07	-4.227379e-06	-8.006347e-10	-2.936829e+01	-5.294646e+01
8.300000e-07	-4.196927e-06	-8.022343e-10	-2.915674e+01	-5.277210e+01
8.400000e-07	-4.166262e-06	-8.064105e-10	-2.894371e+01	-5.259465e+01
8.500000e-07	-4.135354e-06	-7.943050e-10	-2.872899e+01	-5.241409e+01
8.600000e-07	-4.104113e-06	-7.902601e-10	-2.851195e+01	-5.223045e+01
8.700000e-07	-4.072608e-06	-7.904160e-10	-2.829307e+01	-5.204374e+01
8.800000e-07	-4.040976e-06	-7.850444e-10	-2.807332e+01	-5.185400e+01
8.900000e-07	-4.009238e-06	-7.760409e-10	-2.785283e+01	-5.166127e+01
9.000000e-07	-3.977326e-06	-7.806559e-10	-2.763113e+01	-5.146560e+01
9.100000e-07	-3.945136e-06	-7.705914e-10	-2.740750e+01	-5.126705e+01
9.200000e-07	-3.912565e-06	-7.626728e-10	-2.718123e+01	-5.106567e+01
9.300000e-07	-3.879639e-06	-7.643203e-10	-2.695249e+01	-5.086153e+01
9.400000e-07	-3.846282e-06	-7.695770e-10	-2.672075e+01	-5.065470e+01
9.500000e-07	-3.812308e-06	-7.583349e-10	-2.648473e+01	-5.044524e+01
9.600000e-07	-3.777914e-06	-7.573562e-10	-2.624579e+01	-5.023323e+01
9.700000e-07	-3.743197e-06	-7.554355e-10	-2.600460e+01	-5.001874e+01
9.800000e-07	-3.708130e-06	-7.483997e-10	-2.576099e+01	-4.980181e+01
9.900000e-07	-3.672841e-06	-7.408058e-10	-2.551583e+01	-4.958253e+01
1.000000e-06	-3.637390e-06	-7.466859e-10	-2.526955e+01	-4.936094e+01
1.010000e-06	-3.601805e-06	-7.446988e-10	-2.502233e+01	-4.913708e+01
1.020000e-06	-3.566035e-06	-7.425117e-10	-2.477383e+01	-4.891100e+01
1.030000e-06	-3.530028e-06	-7.432707e-10	-2.452368e+01	-4.868273e+01
1.040000e-06	-3.493843e-06	-7.420975e-10	-2.427230e+01	-4.845228e+01
1.050000e-06	-3.457385e-06	-7.333454e-10	-2.401902e+01	-4.821967e+01
1.060000e-06	-3.420612e-06	-7.287426e-10	-2.376355e+01	-4.798489e+01
1.070000e-06	-3.383584e-06	-7.250847e-10	-2.350631e+01	-4.774792e+01
1.080000e-06	-3.346285e-06	-7.185814e-10	-2.324719e+01	-4.750875e+01
1.090000e-06	-3.308768e-06	-7.134926e-10	-2.298656e+01	-4.726732e+01
1.100000e-06	-3.271064e-06	-7.116718e-10	-2.272462e+01	-4.702358e+01
1.110000e-06	-3.233152e-06	-7.078452e-10	-2.246124e+01	-4.677747e+01
1.120000e-06	-3.195017e-06	-7.020462e-10	-2.219631e+01	-4.652890e+01
1.130000e-06	-3.156743e-06	-7.010728e-10	-2.193041e+01	-4.627777e+01
1.140000e-06	-3.118317e-06	-6.978999e-10	-2.166346e+01	-4.602397e+01
1.150000e-06	-3.079602e-06	-6.904293e-10	-2.139450e+01	-4.576739e+01
1.160000e-06	-3.040643e-06	-6.817617e-10	-2.112385e+01	-4.550789e+01
1.170000e-06	-3.001516e-06	-6.780600e-10	-2.085202e+01	-4.524533e+01
1.180000e-06	-2.962198e-06	-6.728875e-10	-2.057887e+01	-4.497956e+01
1.190000e-06	-2.922750e-06	-6.717422e-10	-2.030482e+01	-4.471040e+01
1.200000e-06	-2.883167e-06	-6.694072e-10	-2.002984e+01	-4.443768e+01
1.210000e-06	-2.843406e-06	-6.671851e-10	-1.975361e+01	-4.416122e+01
1.220000e-06	-2.803519e-06	-6.619446e-10	-1.947651e+01	-4.388084e+01
1.230000e-06	-2.763549e-06	-6.584730e-10	-1.919883e+01	-4.359634e+01
1.240000e-06	-2.723340e-06	-6.510480e-10	-1.891949e+01	-4.330751e+01
1.250000e-06	-2.682813e-06	-6.437844e-10	-1.863794e+01	-4.301416e+01
1.260000e-06	-2.642126e-06	-6.363602e-10	-1.835528e+01	-4.271609e+01
1.270000e-06	-2.601227e-06	-6.302730e-10	-1.807115e+01	-4.241307e+01
1.280000e-06	-2.559946e-06	-6.239711e-10	-1.778437e+01	-4.210491e+01
1.290000e-06	-2.518256e-06	-6.195011e-10	-1.749474e+01	-4.179139e+01
1.300000e-06	-2.476242e-06	-6.128595e-10	-1.720286e+01	-4.147230e+01
1.310000e-06	-2.434064e-06	-6.056314e-10	-1.690984e+01	-4.114744e+01
1.320000e-06	-2.391710e-06	-5.968588e-10	-1.661560e+01	-4.081661e+01
1.330000e-06	-2.349135e-06	-5.912356e-10	-1.631983e+01	-4.047960e+01
1.340000e-06	-2.306275e-06	-5.875174e-10	-1.602207e+01	-4.013620e+01
1.350000e-06	-2.263153e-06	-5.829793e-10	-1.572249e+01	-3.978623e+01
1.360000e-06	-2.219872e-06	-5.751040e-10	-1.542182e+01	-3.942949e+01
1.370000e-06	-2.176472e-06	-5.682063e-10	-1.512031e+01	-3.906579e+01
1.380000e-06	-2.132982e-06	-5.644077e-10	-1.481817e+01	-3.869494e+01
1.390000e-06	-2.089349e-06	-5.599033e-10	-1.451505e+01	-3.831676e+01
1.400000e-06	-2.045602e-06	-5.535137e-10	-1.421113e+01	-3.793107e+01
1.410000e-06	-2.001794e-06	-5.458821e-10	-1.390679e+01	-3.753770e+01
1.420000e-06	-1.957932e-06	-5.371865e-10	-1.360208e+01	-3.713647e+01
1.430000e-06	-1.913996e-06	-5.301899e-10	-1.329685e+01	-3.672720e+01
1.440000e-06	-1.869955e-06	-5.256737e-10	-1.299088e+01	-3.630972e+01
1.450000e-06	-1.825786e-06	-5.188348e-10	-1.268404e+01	-3.588386e+01
1.460000e-06	-1.781487e-06	-5.117496e-10	-1.237628e+01	-3.544946e+01
1.470000e-06	-1.737064e-06	-5.046042e-10	-1.206767e+01	-3.500633e+01
1.480000e-06	-1.692562e-06	-4.974879e-10	-1.175851e+01	-3.455431e+01
1.490000e-06	-1.647943e-06	-4.885860e-10	-1.144853e+01	-3.409321e+01
1.500000e-06	-1.603172e-06	-4.807007e-10	-1.113750e+01	-3.362287e+01
1.510000e-06	-1.558240e-06	-4.739877e-10	-1.082535e+01	-3.314309e+01
1.520000e-06	-1.513104e-06	-4.670886e-10	-1.051178e+01	-3.265370e+01
1.530000e-06	-1.467858e-06	-4.586674e-10	-1.019745e+01	-3.215451e+01
1.540000e-06	-1.422608e-06	-4.501626e-10	-9.883090e+00	-3.164531e+01
1.550000e-06	-1.377310e-06	-4.375817e-10	-9.568396e+00	-3.112591e+01
1.560000e-06	-1.331833e-06	-4.254234e-10	-9.252462e+00	-3.059610e+01
1.570000e-06	-1.286199e-06	-4.149106e-10	-8.935436e+00	-3.005568e+01
1.580000e-06	-1.240516e-06	-4.063835e-10	-8.618071e+00	-2.950443e+01
1.590000e-06	-1.194749e-06	-3.991380e-10	-8.300118e+00	-2.894213e+01
1.600000e-06	-1.148895e-06	-3.931785e-10	-7.981560e+00	-2.836855e+01
1.610000e-06	-1.102949e-06	-3.858968e-10	-7.662365e+00	-2.778346e+01
1.620000e-06	-1.056875e-06	-3.787387e-10	-7.342282e+00	-2.718664e+01
1.630000e-06	-1.010715e-06	-3.731404e-10	-7.021605e+00	-2.657785e+01
1.640000e-06	-9.645143e-07	-3.686346e-10	-6.700639e+00	-2.595685e+01
1.650000e-06	-9.183061e-07	-3.612476e-10	-6.379623e+00	-2.532341e+01
1.660000e-06	-8.720740e-07	-3.496067e-10	-6.058441e+00	-2.467731e+01
1.670000e-06	-8.257843e-07	-3.359374e-10	-5.736859e+00	-2.401830e+01
1.680000e-06	-7.793441e-07	-3.215391e-10	-5.414232e+00	-2.334616e+01
1.690000e-06	-7.327955e-07	-3.090611e-10	-5.090850e+00	-2.266069e+01
1.700000e-06	-6.862431e-07	-2.998358e-10	-4.767443e+00	-2.196167e+01
1.710000e-06	-6.396899e-07	-2.927940e-10	-4.444031e+00	-2.124890e+01
1.720000e-06	-5.931509e-07	-2.840165e-10	-4.120717e+00	-2.052220e+01
1.730000e-06	-5.465456e-07	-2.711487e-10	-3.796942e+00	-1.978141e+01
1.740000e-06	-4.998895e-07	-2.546702e-10	-3.472814e+00	-1.902639e+01
1.750000e-06	-4.531734e-07	-2.382475e-10	-3.148270e+00	-1.825699e+01
1.760000e-06	-4.063940e-07	-2.247931e-10	-2.823286e+00	-1.747313e+01
1.770000e-06	-3.595839e-07	-2.152493e-10	-2.498089e+00	-1.667472e+01
1.780000e-06	-3.127660e-07	-2.074665e-10	-2.172837e+00	-1.586171e+01
1.790000e-06	-2.659516e-07	-1.989645e-10	-1.847609e+00	-1.503410e+01
1.800000e-06	-2.190923e-07	-1.865007e-10	-1.522070e+00	-1.419188e+01
1.810000e-06	-1.723020e-07	-1.722484e-10	-1.197010e+00	-1.333512e+01
1.820000e-06	-1.255718e-07	-1.575744e-10	-8.723681e-01	-1.246390e+01
1.830000e-06	-7.873366e-08	-1.448097e-10	-5.469757e-01	-1.157836e+01
1.840000e-06	-3.180398e-08	-1.361288e-10	-2.209475e-01	-1.067865e+01
1.850000e-06	1.516791e-08	-1.287201e-10	1.053739e-01	-9.764985e+00
1.860000e-06	6.214933e-08	-1.175075e-10	4.317616e-01	-8.837629e+00
1.870000e-06	1.090889e-07	-1.037682e-10	7.578584e-01	-7.896876e+00
1.880000e-06	1.560018e-07	-8.775147e-11	1.083770e+00	-6.943073e+00
1.890000e-06	2.028781e-07	-7.049324e-11	1.409427e+00	-5.976611e+00
1.900000e-06	2.496413e-07	-5.526162e-11	1.734299e+00	-4.997927e+00
1.910000e-06	2.963799e-07	-4.126407e-11	2.059000e+00	-4.007506e+00
1.920000e-06	3.432827e-07	-2.697455e-11	2.384842e+00	-3.005879e+00
1.930000e-06	3.902406e-07	-1.393730e-11	2.711065e+00	-1.993620e+00
1.940000e-06	4.370573e-07	-4.707303e-13	3.036309e+00	-9.713493e-01
1.950000e-06	4.837452e-07	1.425069e-11	3.360657e+00	6.027000e-02
1.960000e-06	5.303532e-07	2.920894e-11	3.684450e+00	1.100534e+00
1.970000e-06	5.768987e-07	4.547393e-11	4.007810e+00	2.148699e+00
1.980000e-06	6.234620e-07	6.140160e-11	4.331293e+00	3.203984e+00
1.990000e-06	6.700109e-07	7.659266e-11	4.654676e+00	4.265574e+00
2.000000e-06	7.164568e-07	9.241905e-11	4.977343e+00	5.332620e+00
2.010000e-06	7.628197e-07	1.069351e-10	5.299433e+00	6.404247e+00
2.020000e-06	8.091504e-07	1.211799e-10	5.621301e+00	7.479551e+00
2.030000e-06	8.554087e-07	1.381163e-10	5.942665e+00	8.557608e+00
2.040000e-06	9.016617e-07	1.558404e-10	6.263992e+00	9.637474e+00
2.050000e-06	9.479157e-07	1.734227e-10	6.585326e+00	1.071819e+01
2.060000e-06	9.940229e-07	1.896209e-10	6.905641e+00	1.179879e+01
2.070000e-06	1.039963e-06	2.048872e-10	7.224791e+00	1.287829e+01
2.080000e-06	1.085838e-06	2.201295e-10	7.543494e+00	1.395571e+01
2.090000e-06	1.131652e-06	2.348684e-10	7.861771e+00	1.503008e+01
2.100000e-06	1.177413e-06	2.500714e-10	8.179680e+00	1.610042e+01
2.110000e-06	1.223140e-06	2.656481e-10	8.497356e+00	1.716576e+01
2.120000e-06	1.268716e-06	2.795444e-10	8.813981e+00	1.822516e+01
2.130000e-06	1.314142e-06	2.937675e-10	9.129560e+00	1.927768e+01
2.140000e-06	1.359541e-06	3.090351e-10	9.444958e+00	2.032241e+01
2.150000e-06	1.404930e-06	3.244699e-10	9.760283e+00	2.135846e+01
2.160000e-06	1.450192e-06	3.396190e-10	1.007472e+01	2.238497e+01
2.170000e-06	1.495369e-06	3.539404e-10	1.038857e+01	2.340112e+01
2.180000e-06	1.540471e-06	3.675684e-10	1.070190e+01	2.440610e+01
2.190000e-06	1.585431e-06	3.816148e-10	1.101425e+01	2.539917e+01
2.200000e-06	1.630243e-06	3.951220e-10	1.132557e+01	2.637961e+01
2.210000e-06	1.674977e-06	4.077772e-10	1.163634e+01	2.734675e+01
2.220000e-06	1.719618e-06	4.192075e-10	1.194647e+01	2.829995e+01
2.230000e-06	1.763989e-06	4.302377e-10	1.225472e+01	2.923865e+01
2.240000e-06	1.808106e-06	4.418587e-10	1.256121e+01	3.016231e+01
2.250000e-06	1.852093e-06	4.529375e-10	1.286679e+01	3.107044e+01
2.260000e-06	1.896021e-06	4.630548e-10	1.317197e+01	3.196261e+01
2.270000e-06	1.939900e-06	4.746698e-10	1.347681e+01	3.283844e+01
2.280000e-06	1.983699e-06	4.898591e-10	1.378108e+01	3.369760e+01
2.290000e-06	2.027440e-06	5.048053e-10	1.408496e+01	3.453980e+01
2.300000e-06	2.071149e-06	5.182259e-10	1.438862e+01	3.536481e+01
2.310000e-06	2.114787e-06	5.294044e-10	1.469177e+01	3.617246e+01
2.320000e-06	2.158371e-06	5.381322e-10	1.499456e+01	3.696261e+01
2.330000e-06	2.201917e-06	5.483868e-10	1.529708e+01	3.773516e+01
2.340000e-06	2.245310e-06	5.591849e-10	1.559854e+01	3.849009e+01
2.350000e-06	2.288508e-06	5.707618e-10	1.589864e+01	3.922738e+01
2.360000e-06	2.331516e-06	5.836478e-10	1.619742e+01	3.994709e+01
2.370000e-06	2.374327e-06	5.943929e-10	1.649484e+01	4.064930e+01
2.380000e-06	2.416908e-06	6.026565e-10	1.679066e+01	4.133413e+01
2.390000e-06	2.459236e-06	6.105923e-10	1.708471e+01	4.200173e+01
2.400000e-06	2.501188e-06	6.199436e-10	1.737616e+01	4.265229e+01
2.410000e-06	2.542750e-06	6.288127e-10	1.766490e+01	4.328602e+01
2.420000e-06	2.584024e-06	6.353982e-10	1.795164e+01	4.390317e+01
2.430000e-06	2.624958e-06	6.431896e-10	1.823601e+01	4.450400e+01
2.440000e-06	2.665607e-06	6.543344e-10	1.851841e+01	4.508880e+01
2.450000e-06	2.706002e-06	6.632276e-10	1.879904e+01	4.565787e+01
2.460000e-06	2.746176e-06	6.706164e-10	1.907813e+01	4.621153e+01
2.470000e-06	2.786181e-06	6.805812e-10	1.935606e+01	4.675011e+01
2.480000e-06	2.826022e-06	6.904419e-10	1.963284e+01	4.727395e+01
2.490000e-06	2.865759e-06	6.984283e-10	1.990890e+01	4.778341e+01
2.500000e-06	2.905423e-06	7.048559e-10	2.018445e+01	4.827882e+01
2.510000e-06	2.944986e-06	7.100750e-10	2.045930e+01	4.876055e+01
2.520000e-06	2.984397e-06	7.170266e-10	2.073310e+01	4.922895e+01
2.530000e-06	3.023654e-06	7.245845e-10	2.100582e+01	4.968437e+01
2.540000e-06	3.062688e-06	7.327453e-10	2.127699e+01	5.012717e+01
2.550000e-06	3.101526e-06	7.395992e-10	2.154681e+01	5.055767e+01
2.560000e-06	3.140135e-06	7.449208e-10	2.181503e+01	5.097623e+01
2.570000e-06	3.178379e-06	7.492500e-10	2.208072e+01	5.138317e+01
2.580000e-06	3.216325e-06	7.528729e-10	2.234434e+01	5.177880e+01
2.590000e-06	3.254065e-06	7.581513e-10	2.260652e+01	5.216344e+01
2.600000e-06	3.291629e-06	7.648897e-10	2.286749e+01	5.253739e+01
2.610000e-06	3.329029e-06	7.736423e-10	2.312731e+01	5.290092e+01
2.620000e-06	3.366278e-06	7.795293e-10	2.338608e+01	5.325432e+01
2.630000e-06	3.403389e-06	7.824002e-10	2.364390e+01	5.359785e+01
2.640000e-06	3.440217e-06	7.844874e-10	2.389975e+01	5.393176e+01
2.650000e-06	3.476618e-06	7.864714e-10	2.415263e+01	5.425629e+01
2.660000e-06	3.512696e-06	7.914776e-10	2.440328e+01	5.457167e+01
2.670000e-06	3.548587e-06	7.980759e-10	2.465262e+01	5.487811e+01
2.680000e-06	3.584371e-06	8.036737e-10	2.490121e+01	5.517582e+01
2.690000e-06	3.620043e-06	8.092856e-10	2.514903e+01	5.546499e+01
2.700000e-06	3.655544e-06	8.150301e-10	2.539567e+01	5.574582e+01
2.710000e-06	3.690914e-06	8.174282e-10	2.564138e+01	5.601849e+01
2.720000e-06	3.726192e-06	8.186472e-10	2.588647e+01	5.628316e+01
2.730000e-06	3.761222e-06	8.213029e-10	2.612983e+01	5.653999e+01
2.740000e-06	3.795911e-06	8.240836e-10	2.637082e+01	5.678915e+01
2.750000e-06	3.830167e-06	8.283861e-10	2.660880e+01	5.703079e+01
2.760000e-06	3.863786e-06	8.331305e-10	2.684235e+01	5.726506e+01
2.770000e-06	3.896866e-06	8.368636e-10	2.707217e+01	5.749209e+01
2.780000e-06	3.929525e-06	8.408352e-10	2.729906e+01	5.771204e+01
2.790000e-06	3.961797e-06	8.459072e-10	2.752326e+01	5.792504e+01
2.800000e-06	3.993802e-06	8.501362e-10	2.774560e+01	5.813123e+01
2.810000e-06	4.025608e-06	8.534273e-10	2.796656e+01	5.833074e+01
2.820000e-06	4.057296e-06	8.578766e-10	2.818670e+01	5.852371e+01
2.830000e-06	4.088841e-06	8.620484e-10	2.840585e+01	5.871028e+01
2.840000e-06	4.120224e-06	8.628681e-10	2.862387e+01	5.889058e+01
2.850000e-06	4.151412e-06	8.628423e-10	2.884054e+01	5.906475e+01
2.860000e-06	4.182287e-06	8.658974e-10	2.905503e+01	5.923292e+01
2.870000e-06	4.212795e-06	8.690796e-10	2.926698e+01	5.939522e+01
2.880000e-06	4.242913e-06	8.715737e-10	2.947621e+01	5.955181e+01
2.890000e-06	4.272678e-06	8.759492e-10	2.968300e+01	5.970280e+01
2.900000e-06	4.302243e-06	8.807438e-10	2.988839e+01	5.984834e+01
