# Temperatura_=_-2.0
# Concentracion g/m^3_=_1620.0
# C_Vs_to_Am_M_A/Vsm_=_65563218390.804596
# pendiente_HvsI_1/m_=_3716.3
# ordenada_HvsI_A/m_=_1297.0
# frecuencia_Hz_=_135106.44713414545

Tiempo_(s)	Campo_(V.s)	Magnetizacion_(V.s)	Campo_(kA/m)	Magnetizacion_(A/m)
0.000000e+00	-5.509481e-06	-8.489273e-10	-3.837165e+01	-5.864048e+01
1.000000e-08	-5.509649e-06	-8.455509e-10	-3.837282e+01	-5.859747e+01
2.000000e-08	-5.509492e-06	-8.439426e-10	-3.837172e+01	-5.855570e+01
3.000000e-08	-5.508922e-06	-8.409323e-10	-3.836775e+01	-5.851506e+01
4.000000e-08	-5.507746e-06	-8.349862e-10	-3.835956e+01	-5.847544e+01
5.000000e-08	-5.505942e-06	-8.224978e-10	-3.834700e+01	-5.843670e+01
6.000000e-08	-5.503605e-06	-8.162506e-10	-3.833072e+01	-5.839870e+01
7.000000e-08	-5.500645e-06	-8.419038e-10	-3.831010e+01	-5.836127e+01
8.000000e-08	-5.497168e-06	-8.741203e-10	-3.828589e+01	-5.832424e+01
9.000000e-08	-5.493343e-06	-9.095473e-10	-3.825925e+01	-5.828742e+01
1.000000e-07	-5.489223e-06	-9.320143e-10	-3.823055e+01	-5.825062e+01
1.100000e-07	-5.484879e-06	-8.521799e-10	-3.820030e+01	-5.821363e+01
1.200000e-07	-5.480384e-06	-7.283346e-10	-3.816899e+01	-5.817626e+01
1.300000e-07	-5.475597e-06	-7.906291e-10	-3.813566e+01	-5.813829e+01
1.400000e-07	-5.470294e-06	-8.816402e-10	-3.809872e+01	-5.809952e+01
1.500000e-07	-5.464557e-06	-8.818900e-10	-3.805877e+01	-5.805972e+01
1.600000e-07	-5.458503e-06	-7.667830e-10	-3.801660e+01	-5.801870e+01
1.700000e-07	-5.452082e-06	-8.302526e-10	-3.797188e+01	-5.797624e+01
1.800000e-07	-5.445176e-06	-9.548742e-10	-3.792379e+01	-5.793215e+01
1.900000e-07	-5.437870e-06	-9.033288e-10	-3.787290e+01	-5.788624e+01
2.000000e-07	-5.430376e-06	-7.633502e-10	-3.782071e+01	-5.783832e+01
2.100000e-07	-5.422666e-06	-7.716687e-10	-3.776701e+01	-5.778822e+01
2.200000e-07	-5.414645e-06	-9.051457e-10	-3.771115e+01	-5.773578e+01
2.300000e-07	-5.406236e-06	-9.183908e-10	-3.765258e+01	-5.768083e+01
2.400000e-07	-5.397324e-06	-8.646299e-10	-3.759051e+01	-5.762326e+01
2.500000e-07	-5.387824e-06	-8.470908e-10	-3.752435e+01	-5.756292e+01
2.600000e-07	-5.377558e-06	-9.026424e-10	-3.745285e+01	-5.749971e+01
2.700000e-07	-5.366648e-06	-8.736833e-10	-3.737686e+01	-5.743353e+01
2.800000e-07	-5.355378e-06	-8.499383e-10	-3.729837e+01	-5.736431e+01
2.900000e-07	-5.343717e-06	-8.540724e-10	-3.721715e+01	-5.729197e+01
3.000000e-07	-5.331673e-06	-8.880737e-10	-3.713327e+01	-5.721647e+01
3.100000e-07	-5.319253e-06	-8.649276e-10	-3.704677e+01	-5.713776e+01
3.200000e-07	-5.306387e-06	-8.679973e-10	-3.695716e+01	-5.705583e+01
3.300000e-07	-5.293036e-06	-8.643911e-10	-3.686418e+01	-5.697067e+01
3.400000e-07	-5.279205e-06	-8.840842e-10	-3.676785e+01	-5.688228e+01
3.500000e-07	-5.265052e-06	-8.807552e-10	-3.666928e+01	-5.679068e+01
3.600000e-07	-5.250546e-06	-8.605889e-10	-3.656825e+01	-5.669590e+01
3.700000e-07	-5.235568e-06	-8.468978e-10	-3.646394e+01	-5.659798e+01
3.800000e-07	-5.220125e-06	-8.869182e-10	-3.635638e+01	-5.649698e+01
3.900000e-07	-5.204074e-06	-8.707029e-10	-3.624459e+01	-5.639294e+01
4.000000e-07	-5.187500e-06	-8.193096e-10	-3.612916e+01	-5.628594e+01
4.100000e-07	-5.170604e-06	-8.599306e-10	-3.601148e+01	-5.617604e+01
4.200000e-07	-5.153428e-06	-8.951210e-10	-3.589186e+01	-5.606334e+01
4.300000e-07	-5.135950e-06	-8.242030e-10	-3.577013e+01	-5.594791e+01
4.400000e-07	-5.118199e-06	-8.251204e-10	-3.564650e+01	-5.582984e+01
4.500000e-07	-5.100093e-06	-9.237198e-10	-3.552040e+01	-5.570922e+01
4.600000e-07	-5.081498e-06	-8.596245e-10	-3.539089e+01	-5.558614e+01
4.700000e-07	-5.062455e-06	-7.741812e-10	-3.525826e+01	-5.546069e+01
4.800000e-07	-5.043145e-06	-8.661368e-10	-3.512378e+01	-5.533295e+01
4.900000e-07	-5.023709e-06	-9.072333e-10	-3.498841e+01	-5.520302e+01
5.000000e-07	-5.004081e-06	-7.911494e-10	-3.485171e+01	-5.507097e+01
5.100000e-07	-4.984181e-06	-8.298493e-10	-3.471311e+01	-5.493690e+01
5.200000e-07	-4.963973e-06	-9.089728e-10	-3.457237e+01	-5.480087e+01
5.300000e-07	-4.943405e-06	-8.231029e-10	-3.442912e+01	-5.466296e+01
5.400000e-07	-4.922468e-06	-7.942532e-10	-3.428330e+01	-5.452324e+01
5.500000e-07	-4.901129e-06	-8.992450e-10	-3.413468e+01	-5.438176e+01
5.600000e-07	-4.879420e-06	-8.350327e-10	-3.398349e+01	-5.423859e+01
5.700000e-07	-4.857400e-06	-7.602338e-10	-3.383013e+01	-5.409378e+01
5.800000e-07	-4.835041e-06	-8.583553e-10	-3.367440e+01	-5.394737e+01
5.900000e-07	-4.812365e-06	-8.823114e-10	-3.351647e+01	-5.379940e+01
6.000000e-07	-4.789371e-06	-7.816639e-10	-3.335633e+01	-5.364991e+01
6.100000e-07	-4.766043e-06	-8.245340e-10	-3.319385e+01	-5.349892e+01
6.200000e-07	-4.742449e-06	-8.681958e-10	-3.302953e+01	-5.334646e+01
6.300000e-07	-4.718622e-06	-7.884657e-10	-3.286358e+01	-5.319254e+01
6.400000e-07	-4.694503e-06	-7.836476e-10	-3.269560e+01	-5.303719e+01
6.500000e-07	-4.670046e-06	-8.472436e-10	-3.252527e+01	-5.288041e+01
6.600000e-07	-4.645133e-06	-8.062185e-10	-3.235176e+01	-5.272220e+01
6.700000e-07	-4.619711e-06	-7.876613e-10	-3.217470e+01	-5.256258e+01
6.800000e-07	-4.593730e-06	-8.420611e-10	-3.199375e+01	-5.240155e+01
6.900000e-07	-4.567184e-06	-8.249999e-10	-3.180887e+01	-5.223910e+01
7.000000e-07	-4.540147e-06	-7.810886e-10	-3.162057e+01	-5.207523e+01
7.100000e-07	-4.512779e-06	-8.056450e-10	-3.142996e+01	-5.190995e+01
7.200000e-07	-4.485288e-06	-8.106075e-10	-3.123849e+01	-5.174324e+01
7.300000e-07	-4.457686e-06	-7.779024e-10	-3.104625e+01	-5.157511e+01
7.400000e-07	-4.429836e-06	-7.936882e-10	-3.085229e+01	-5.140556e+01
7.500000e-07	-4.401666e-06	-8.086724e-10	-3.065609e+01	-5.123458e+01
7.600000e-07	-4.373257e-06	-7.863294e-10	-3.045823e+01	-5.106217e+01
7.700000e-07	-4.344627e-06	-7.796740e-10	-3.025883e+01	-5.088833e+01
7.800000e-07	-4.315658e-06	-7.897963e-10	-3.005708e+01	-5.071306e+01
7.900000e-07	-4.286387e-06	-7.704522e-10	-2.985322e+01	-5.053637e+01
8.000000e-07	-4.256806e-06	-7.649082e-10	-2.964719e+01	-5.035826e+01
8.100000e-07	-4.226885e-06	-7.748786e-10	-2.943880e+01	-5.017873e+01
8.200000e-07	-4.196614e-06	-7.671011e-10	-2.922798e+01	-4.999779e+01
8.300000e-07	-4.165991e-06	-7.518989e-10	-2.901470e+01	-4.981544e+01
8.400000e-07	-4.135105e-06	-7.628937e-10	-2.879959e+01	-4.963169e+01
8.500000e-07	-4.103936e-06	-7.552878e-10	-2.858251e+01	-4.944655e+01
8.600000e-07	-4.072617e-06	-7.385713e-10	-2.836438e+01	-4.926001e+01
8.700000e-07	-4.041213e-06	-7.407411e-10	-2.814566e+01	-4.907209e+01
8.800000e-07	-4.009614e-06	-7.483147e-10	-2.792558e+01	-4.888279e+01
8.900000e-07	-3.977844e-06	-7.351724e-10	-2.770432e+01	-4.869210e+01
9.000000e-07	-3.945786e-06	-7.344897e-10	-2.748105e+01	-4.850003e+01
9.100000e-07	-3.913335e-06	-7.405192e-10	-2.725503e+01	-4.830656e+01
9.200000e-07	-3.880537e-06	-7.289304e-10	-2.702661e+01	-4.811168e+01
9.300000e-07	-3.847316e-06	-7.166361e-10	-2.679523e+01	-4.791538e+01
9.400000e-07	-3.813585e-06	-7.234666e-10	-2.656031e+01	-4.771764e+01
9.500000e-07	-3.779400e-06	-7.193954e-10	-2.632223e+01	-4.751843e+01
9.600000e-07	-3.744811e-06	-7.065379e-10	-2.608132e+01	-4.731772e+01
9.700000e-07	-3.709871e-06	-7.084516e-10	-2.583798e+01	-4.711546e+01
9.800000e-07	-3.674634e-06	-7.114846e-10	-2.559257e+01	-4.691161e+01
9.900000e-07	-3.639205e-06	-7.022932e-10	-2.534582e+01	-4.670611e+01
1.000000e-06	-3.603671e-06	-6.989821e-10	-2.509833e+01	-4.649889e+01
1.010000e-06	-3.567962e-06	-7.024037e-10	-2.484963e+01	-4.628989e+01
1.020000e-06	-3.532127e-06	-6.956923e-10	-2.460005e+01	-4.607902e+01
1.030000e-06	-3.496158e-06	-6.885379e-10	-2.434954e+01	-4.586620e+01
1.040000e-06	-3.459954e-06	-6.903440e-10	-2.409739e+01	-4.565131e+01
1.050000e-06	-3.423500e-06	-6.891434e-10	-2.384350e+01	-4.543427e+01
1.060000e-06	-3.386760e-06	-6.796431e-10	-2.358762e+01	-4.521494e+01
1.070000e-06	-3.349764e-06	-6.796184e-10	-2.332996e+01	-4.499322e+01
1.080000e-06	-3.312519e-06	-6.780236e-10	-2.307056e+01	-4.476896e+01
1.090000e-06	-3.275056e-06	-6.703341e-10	-2.280964e+01	-4.454204e+01
1.100000e-06	-3.237382e-06	-6.657328e-10	-2.254725e+01	-4.431230e+01
1.110000e-06	-3.199399e-06	-6.649756e-10	-2.228272e+01	-4.407961e+01
1.120000e-06	-3.161176e-06	-6.557032e-10	-2.201651e+01	-4.384379e+01
1.130000e-06	-3.122781e-06	-6.499412e-10	-2.174910e+01	-4.360471e+01
1.140000e-06	-3.084086e-06	-6.486396e-10	-2.147960e+01	-4.336219e+01
1.150000e-06	-3.045165e-06	-6.444469e-10	-2.120853e+01	-4.311606e+01
1.160000e-06	-3.006183e-06	-6.361679e-10	-2.093703e+01	-4.286617e+01
1.170000e-06	-2.967012e-06	-6.343836e-10	-2.066422e+01	-4.261235e+01
1.180000e-06	-2.927577e-06	-6.337470e-10	-2.038957e+01	-4.235443e+01
1.190000e-06	-2.888018e-06	-6.303532e-10	-2.011405e+01	-4.209223e+01
1.200000e-06	-2.848356e-06	-6.263019e-10	-1.983782e+01	-4.182561e+01
1.210000e-06	-2.808580e-06	-6.247018e-10	-1.956080e+01	-4.155439e+01
1.220000e-06	-2.768733e-06	-6.185935e-10	-1.928328e+01	-4.127842e+01
1.230000e-06	-2.728736e-06	-6.116007e-10	-1.900471e+01	-4.099754e+01
1.240000e-06	-2.688525e-06	-6.051130e-10	-1.872466e+01	-4.071161e+01
1.250000e-06	-2.648000e-06	-5.975742e-10	-1.844241e+01	-4.042047e+01
1.260000e-06	-2.607186e-06	-5.905210e-10	-1.815815e+01	-4.012399e+01
1.270000e-06	-2.566144e-06	-5.863978e-10	-1.787231e+01	-3.982203e+01
1.280000e-06	-2.524785e-06	-5.867569e-10	-1.758426e+01	-3.951447e+01
1.290000e-06	-2.483166e-06	-5.853981e-10	-1.729440e+01	-3.920118e+01
1.300000e-06	-2.441299e-06	-5.802453e-10	-1.700281e+01	-3.888204e+01
1.310000e-06	-2.399226e-06	-5.724297e-10	-1.670978e+01	-3.855695e+01
1.320000e-06	-2.356951e-06	-5.649832e-10	-1.641535e+01	-3.822581e+01
1.330000e-06	-2.314267e-06	-5.596758e-10	-1.611807e+01	-3.788850e+01
1.340000e-06	-2.271327e-06	-5.555285e-10	-1.581901e+01	-3.754493e+01
1.350000e-06	-2.228270e-06	-5.504077e-10	-1.551914e+01	-3.719501e+01
1.360000e-06	-2.185002e-06	-5.441607e-10	-1.521779e+01	-3.683865e+01
1.370000e-06	-2.141528e-06	-5.405859e-10	-1.491501e+01	-3.647577e+01
1.380000e-06	-2.097921e-06	-5.413758e-10	-1.461130e+01	-3.610627e+01
1.390000e-06	-2.054270e-06	-5.383175e-10	-1.430728e+01	-3.573006e+01
1.400000e-06	-2.010593e-06	-5.302609e-10	-1.400309e+01	-3.534707e+01
1.410000e-06	-1.966849e-06	-5.210528e-10	-1.369843e+01	-3.495719e+01
1.420000e-06	-1.923026e-06	-5.135809e-10	-1.339322e+01	-3.456034e+01
1.430000e-06	-1.879152e-06	-5.049011e-10	-1.308765e+01	-3.415641e+01
1.440000e-06	-1.835182e-06	-4.982650e-10	-1.278141e+01	-3.374529e+01
1.450000e-06	-1.791047e-06	-4.922746e-10	-1.247403e+01	-3.332687e+01
1.460000e-06	-1.746734e-06	-4.846315e-10	-1.216540e+01	-3.290104e+01
1.470000e-06	-1.702277e-06	-4.752488e-10	-1.185578e+01	-3.246765e+01
1.480000e-06	-1.657700e-06	-4.658207e-10	-1.154531e+01	-3.202656e+01
1.490000e-06	-1.612980e-06	-4.569181e-10	-1.123385e+01	-3.157763e+01
1.500000e-06	-1.568138e-06	-4.499386e-10	-1.092154e+01	-3.112067e+01
1.510000e-06	-1.523278e-06	-4.428981e-10	-1.060911e+01	-3.065551e+01
1.520000e-06	-1.478355e-06	-4.361565e-10	-1.029624e+01	-3.018196e+01
1.530000e-06	-1.433294e-06	-4.286912e-10	-9.982403e+00	-2.969980e+01
1.540000e-06	-1.388039e-06	-4.184932e-10	-9.667216e+00	-2.920882e+01
1.550000e-06	-1.342658e-06	-4.070212e-10	-9.351151e+00	-2.870877e+01
1.560000e-06	-1.297255e-06	-3.973621e-10	-9.034935e+00	-2.819940e+01
1.570000e-06	-1.251743e-06	-3.886282e-10	-8.717958e+00	-2.768045e+01
1.580000e-06	-1.206085e-06	-3.813396e-10	-8.399971e+00	-2.715163e+01
1.590000e-06	-1.160359e-06	-3.766108e-10	-8.081501e+00	-2.661266e+01
1.600000e-06	-1.114613e-06	-3.729107e-10	-7.762896e+00	-2.606324e+01
1.610000e-06	-1.068810e-06	-3.660452e-10	-7.443897e+00	-2.550305e+01
1.620000e-06	-1.022844e-06	-3.570249e-10	-7.123759e+00	-2.493177e+01
1.630000e-06	-9.767913e-07	-3.498286e-10	-6.803016e+00	-2.434909e+01
1.640000e-06	-9.307753e-07	-3.416235e-10	-6.482530e+00	-2.375466e+01
1.650000e-06	-8.846943e-07	-3.317230e-10	-6.161592e+00	-2.314816e+01
1.660000e-06	-8.385151e-07	-3.218590e-10	-5.839970e+00	-2.252926e+01
1.670000e-06	-7.922722e-07	-3.114019e-10	-5.517904e+00	-2.189763e+01
1.680000e-06	-7.459264e-07	-3.003809e-10	-5.195121e+00	-2.125294e+01
1.690000e-06	-6.995239e-07	-2.909048e-10	-4.871944e+00	-2.059490e+01
1.700000e-06	-6.531226e-07	-2.816787e-10	-4.548775e+00	-1.992319e+01
1.710000e-06	-6.067060e-07	-2.730832e-10	-4.225499e+00	-1.923753e+01
1.720000e-06	-5.602093e-07	-2.619830e-10	-3.901665e+00	-1.853765e+01
1.730000e-06	-5.136428e-07	-2.474358e-10	-3.577346e+00	-1.782331e+01
1.740000e-06	-4.670866e-07	-2.312467e-10	-3.253098e+00	-1.709429e+01
1.750000e-06	-4.205218e-07	-2.176231e-10	-2.928790e+00	-1.635040e+01
1.760000e-06	-3.739419e-07	-2.063711e-10	-2.604377e+00	-1.559147e+01
1.770000e-06	-3.272972e-07	-1.964305e-10	-2.279513e+00	-1.481737e+01
1.780000e-06	-2.805428e-07	-1.884299e-10	-1.953884e+00	-1.402802e+01
1.790000e-06	-2.337109e-07	-1.811677e-10	-1.627717e+00	-1.322336e+01
1.800000e-06	-1.869071e-07	-1.705828e-10	-1.301744e+00	-1.240339e+01
1.810000e-06	-1.401031e-07	-1.579544e-10	-9.757698e-01	-1.156814e+01
1.820000e-06	-9.334018e-08	-1.462725e-10	-6.500823e-01	-1.071769e+01
1.830000e-06	-4.667793e-08	-1.371535e-10	-3.250958e-01	-9.852180e+00
1.840000e-06	2.597242e-11	-1.281861e-10	1.808890e-04	-8.971792e+00
1.850000e-06	4.680614e-08	-1.169704e-10	3.259887e-01	-8.076761e+00
1.860000e-06	9.363168e-08	-1.053949e-10	6.521125e-01	-7.167373e+00
1.870000e-06	1.404482e-07	-9.191828e-11	9.781736e-01	-6.243972e+00
1.880000e-06	1.872311e-07	-7.727630e-11	1.304001e+00	-5.306953e+00
1.890000e-06	2.339519e-07	-6.319584e-11	1.629395e+00	-4.356766e+00
1.900000e-06	2.806404e-07	-4.973699e-11	1.954564e+00	-3.393915e+00
1.910000e-06	3.273495e-07	-3.682670e-11	2.279877e+00	-2.418957e+00
1.920000e-06	3.740998e-07	-2.434004e-11	2.605477e+00	-1.432500e+00
1.930000e-06	4.208604e-07	-1.173413e-11	2.931149e+00	-4.352040e-01
1.940000e-06	4.675646e-07	3.336031e-12	3.256427e+00	5.722240e-01
1.950000e-06	5.141900e-07	1.958590e-11	3.581157e+00	1.589030e+00
1.960000e-06	5.606880e-07	3.573133e-11	3.904999e+00	2.614417e+00
1.970000e-06	6.070512e-07	5.004033e-11	4.227904e+00	3.647546e+00
1.980000e-06	6.534024e-07	6.204464e-11	4.550723e+00	4.687540e+00
1.990000e-06	6.997517e-07	7.506811e-11	4.873531e+00	5.733489e+00
2.000000e-06	7.460087e-07	8.720708e-11	5.195694e+00	6.784452e+00
2.010000e-06	7.922037e-07	1.025866e-10	5.517427e+00	7.839460e+00
2.020000e-06	8.383987e-07	1.220194e-10	5.839159e+00	8.897524e+00
2.030000e-06	8.845629e-07	1.430565e-10	6.160677e+00	9.957635e+00
2.040000e-06	9.305939e-07	1.615801e-10	6.481267e+00	1.101877e+01
2.050000e-06	9.765358e-07	1.772707e-10	6.801237e+00	1.207990e+01
2.060000e-06	1.022442e-06	1.903320e-10	7.120959e+00	1.313998e+01
2.070000e-06	1.068273e-06	2.024222e-10	7.440153e+00	1.419799e+01
2.080000e-06	1.114028e-06	2.166836e-10	7.758824e+00	1.525288e+01
2.090000e-06	1.159694e-06	2.337089e-10	8.076870e+00	1.630364e+01
2.100000e-06	1.205215e-06	2.518335e-10	8.393906e+00	1.734926e+01
2.110000e-06	1.250622e-06	2.666688e-10	8.710151e+00	1.838876e+01
2.120000e-06	1.295958e-06	2.797167e-10	9.025905e+00	1.942115e+01
2.130000e-06	1.341243e-06	2.932772e-10	9.341300e+00	2.044551e+01
2.140000e-06	1.386497e-06	3.067595e-10	9.656477e+00	2.146092e+01
2.150000e-06	1.431655e-06	3.195873e-10	9.970984e+00	2.246651e+01
2.160000e-06	1.476710e-06	3.335164e-10	1.028478e+01	2.346145e+01
2.170000e-06	1.521687e-06	3.489243e-10	1.059803e+01	2.444493e+01
2.180000e-06	1.566584e-06	3.659477e-10	1.091072e+01	2.541620e+01
2.190000e-06	1.611349e-06	3.807042e-10	1.122250e+01	2.637456e+01
2.200000e-06	1.655902e-06	3.945666e-10	1.153279e+01	2.731935e+01
2.210000e-06	1.700287e-06	4.068440e-10	1.184191e+01	2.824995e+01
2.220000e-06	1.744552e-06	4.174805e-10	1.215020e+01	2.916583e+01
2.230000e-06	1.788640e-06	4.302867e-10	1.245726e+01	3.006646e+01
2.240000e-06	1.832584e-06	4.418231e-10	1.276332e+01	3.095141e+01
2.250000e-06	1.876470e-06	4.536404e-10	1.306897e+01	3.182027e+01
2.260000e-06	1.920311e-06	4.658324e-10	1.337431e+01	3.267271e+01
2.270000e-06	1.964093e-06	4.814741e-10	1.367923e+01	3.350842e+01
2.280000e-06	2.007793e-06	4.966859e-10	1.398359e+01	3.432718e+01
2.290000e-06	2.051438e-06	5.089535e-10	1.428756e+01	3.512880e+01
2.300000e-06	2.095058e-06	5.187885e-10	1.459136e+01	3.591314e+01
2.310000e-06	2.138604e-06	5.266583e-10	1.489465e+01	3.668011e+01
2.320000e-06	2.182064e-06	5.365131e-10	1.519733e+01	3.742968e+01
2.330000e-06	2.225455e-06	5.475957e-10	1.549953e+01	3.816184e+01
2.340000e-06	2.268744e-06	5.608852e-10	1.580103e+01	3.887664e+01
2.350000e-06	2.311787e-06	5.758090e-10	1.610080e+01	3.957416e+01
2.360000e-06	2.354648e-06	5.920724e-10	1.639931e+01	4.025453e+01
2.370000e-06	2.397290e-06	6.048011e-10	1.669630e+01	4.091789e+01
2.380000e-06	2.439575e-06	6.110628e-10	1.699080e+01	4.156443e+01
2.390000e-06	2.481523e-06	6.138988e-10	1.728296e+01	4.219436e+01
2.400000e-06	2.523115e-06	6.172633e-10	1.757263e+01	4.280791e+01
2.410000e-06	2.564366e-06	6.227480e-10	1.785993e+01	4.340534e+01
2.420000e-06	2.605291e-06	6.325634e-10	1.814496e+01	4.398692e+01
2.430000e-06	2.646011e-06	6.467582e-10	1.842856e+01	4.455294e+01
2.440000e-06	2.686514e-06	6.597727e-10	1.871065e+01	4.510371e+01
2.450000e-06	2.726677e-06	6.666089e-10	1.899037e+01	4.563952e+01
2.460000e-06	2.766649e-06	6.723420e-10	1.926876e+01	4.616069e+01
2.470000e-06	2.806506e-06	6.800806e-10	1.954635e+01	4.666755e+01
2.480000e-06	2.846189e-06	6.876558e-10	1.982273e+01	4.716041e+01
2.490000e-06	2.885769e-06	6.943597e-10	2.009839e+01	4.763959e+01
2.500000e-06	2.925294e-06	7.010115e-10	2.037367e+01	4.810540e+01
2.510000e-06	2.964757e-06	7.086898e-10	2.064851e+01	4.855816e+01
2.520000e-06	3.004052e-06	7.174711e-10	2.092219e+01	4.899818e+01
2.530000e-06	3.043087e-06	7.258339e-10	2.119406e+01	4.942573e+01
2.540000e-06	3.081834e-06	7.318915e-10	2.146392e+01	4.984112e+01
2.550000e-06	3.120276e-06	7.368112e-10	2.173165e+01	5.024462e+01
2.560000e-06	3.158483e-06	7.429643e-10	2.199775e+01	5.063650e+01
2.570000e-06	3.196501e-06	7.484844e-10	2.226253e+01	5.101701e+01
2.580000e-06	3.234350e-06	7.537169e-10	2.252614e+01	5.138640e+01
2.590000e-06	3.272027e-06	7.599592e-10	2.278854e+01	5.174489e+01
2.600000e-06	3.309525e-06	7.655099e-10	2.304970e+01	5.209272e+01
2.610000e-06	3.346860e-06	7.689397e-10	2.330973e+01	5.243008e+01
2.620000e-06	3.383967e-06	7.707432e-10	2.356817e+01	5.275720e+01
2.630000e-06	3.420750e-06	7.717552e-10	2.382435e+01	5.307425e+01
2.640000e-06	3.457139e-06	7.739963e-10	2.407779e+01	5.338142e+01
2.650000e-06	3.493254e-06	7.814551e-10	2.432931e+01	5.367889e+01
2.660000e-06	3.529267e-06	7.894059e-10	2.458013e+01	5.396683e+01
2.670000e-06	3.565123e-06	7.927840e-10	2.482986e+01	5.424540e+01
2.680000e-06	3.600784e-06	7.958816e-10	2.507822e+01	5.451478e+01
2.690000e-06	3.636347e-06	8.008567e-10	2.532591e+01	5.477510e+01
2.700000e-06	3.671778e-06	8.040670e-10	2.557268e+01	5.502654e+01
2.710000e-06	3.707008e-06	8.055471e-10	2.581804e+01	5.526926e+01
2.720000e-06	3.741970e-06	8.079603e-10	2.606154e+01	5.550340e+01
2.730000e-06	3.776655e-06	8.100450e-10	2.630310e+01	5.572913e+01
2.740000e-06	3.810968e-06	8.114512e-10	2.654208e+01	5.594661e+01
2.750000e-06	3.844760e-06	8.149980e-10	2.677743e+01	5.615601e+01
2.760000e-06	3.877972e-06	8.194255e-10	2.700875e+01	5.635751e+01
2.770000e-06	3.910657e-06	8.246743e-10	2.723639e+01	5.655128e+01
2.780000e-06	3.943038e-06	8.309382e-10	2.746191e+01	5.673749e+01
2.790000e-06	3.975157e-06	8.355072e-10	2.768561e+01	5.691636e+01
2.800000e-06	4.006998e-06	8.358443e-10	2.790737e+01	5.708806e+01
2.810000e-06	4.038659e-06	8.350825e-10	2.812787e+01	5.725280e+01
2.820000e-06	4.070195e-06	8.356406e-10	2.834751e+01	5.741080e+01
2.830000e-06	4.101571e-06	8.382045e-10	2.856604e+01	5.756227e+01
2.840000e-06	4.132752e-06	8.451858e-10	2.878320e+01	5.770743e+01
2.850000e-06	4.163633e-06	8.558402e-10	2.899827e+01	5.784651e+01
2.860000e-06	4.194151e-06	8.637246e-10	2.921082e+01	5.797974e+01
2.870000e-06	4.224367e-06	8.662857e-10	2.942127e+01	5.810736e+01
2.880000e-06	4.254263e-06	8.656242e-10	2.962948e+01	5.822961e+01
2.890000e-06	4.283832e-06	8.626372e-10	2.983542e+01	5.834672e+01
2.900000e-06	4.313166e-06	8.600888e-10	3.003972e+01	5.845895e+01
