# Temperatura_=_-1.1
# Concentracion g/m^3_=_1620.0
# C_Vs_to_Am_M_A/Vsm_=_65563218390.804596
# pendiente_HvsI_1/m_=_3716.3
# ordenada_HvsI_A/m_=_1297.0
# frecuencia_Hz_=_135104.34378023515

Tiempo_(s)	Campo_(V.s)	Magnetizacion_(V.s)	Campo_(kA/m)	Magnetizacion_(A/m)
0.000000e+00	-5.508904e-06	-1.104119e-09	-3.837392e+01	-7.282127e+01
1.000000e-08	-5.509125e-06	-1.102059e-09	-3.837546e+01	-7.279507e+01
2.000000e-08	-5.509003e-06	-1.101192e-09	-3.837461e+01	-7.276906e+01
3.000000e-08	-5.508396e-06	-1.098476e-09	-3.837038e+01	-7.274304e+01
4.000000e-08	-5.507391e-06	-1.089826e-09	-3.836338e+01	-7.271682e+01
5.000000e-08	-5.505968e-06	-1.071699e-09	-3.835347e+01	-7.269017e+01
6.000000e-08	-5.503858e-06	-1.056670e-09	-3.833877e+01	-7.266288e+01
7.000000e-08	-5.501097e-06	-1.083042e-09	-3.831954e+01	-7.263472e+01
8.000000e-08	-5.497862e-06	-1.153939e-09	-3.829700e+01	-7.260544e+01
9.000000e-08	-5.494112e-06	-1.210126e-09	-3.827089e+01	-7.257480e+01
1.000000e-07	-5.489905e-06	-1.150233e-09	-3.824158e+01	-7.254255e+01
1.100000e-07	-5.485455e-06	-1.038817e-09	-3.821058e+01	-7.250844e+01
1.200000e-07	-5.480851e-06	-1.001254e-09	-3.817851e+01	-7.247222e+01
1.300000e-07	-5.476044e-06	-1.117205e-09	-3.814503e+01	-7.243364e+01
1.400000e-07	-5.470833e-06	-1.132926e-09	-3.810873e+01	-7.239244e+01
1.500000e-07	-5.465155e-06	-1.053467e-09	-3.806917e+01	-7.234839e+01
1.600000e-07	-5.459152e-06	-1.023013e-09	-3.802736e+01	-7.230124e+01
1.700000e-07	-5.452761e-06	-1.137841e-09	-3.798284e+01	-7.225078e+01
1.800000e-07	-5.445951e-06	-1.193468e-09	-3.793540e+01	-7.219677e+01
1.900000e-07	-5.438764e-06	-1.066126e-09	-3.788534e+01	-7.213902e+01
2.000000e-07	-5.431248e-06	-1.004362e-09	-3.783298e+01	-7.207732e+01
2.100000e-07	-5.423456e-06	-1.081035e-09	-3.777871e+01	-7.201151e+01
2.200000e-07	-5.415390e-06	-1.184073e-09	-3.772252e+01	-7.194140e+01
2.300000e-07	-5.407122e-06	-1.121067e-09	-3.766492e+01	-7.186685e+01
2.400000e-07	-5.398433e-06	-1.079291e-09	-3.760440e+01	-7.178774e+01
2.500000e-07	-5.388913e-06	-1.096607e-09	-3.753809e+01	-7.170395e+01
2.600000e-07	-5.378694e-06	-1.125857e-09	-3.746690e+01	-7.161538e+01
2.700000e-07	-5.367982e-06	-1.053305e-09	-3.739229e+01	-7.152196e+01
2.800000e-07	-5.356751e-06	-1.046286e-09	-3.731405e+01	-7.142364e+01
2.900000e-07	-5.345122e-06	-1.092619e-09	-3.723305e+01	-7.132039e+01
3.000000e-07	-5.333155e-06	-1.104508e-09	-3.714969e+01	-7.121220e+01
3.100000e-07	-5.320765e-06	-1.047411e-09	-3.706338e+01	-7.109907e+01
3.200000e-07	-5.307915e-06	-1.055505e-09	-3.697387e+01	-7.098104e+01
3.300000e-07	-5.294702e-06	-1.091428e-09	-3.688183e+01	-7.085815e+01
3.400000e-07	-5.281187e-06	-1.078406e-09	-3.678769e+01	-7.073047e+01
3.500000e-07	-5.267224e-06	-1.045959e-09	-3.669043e+01	-7.059809e+01
3.600000e-07	-5.252761e-06	-1.060328e-09	-3.658968e+01	-7.046112e+01
3.700000e-07	-5.237897e-06	-1.077752e-09	-3.648614e+01	-7.031968e+01
3.800000e-07	-5.222478e-06	-1.057051e-09	-3.637873e+01	-7.017390e+01
3.900000e-07	-5.206406e-06	-1.051129e-09	-3.626678e+01	-7.002395e+01
4.000000e-07	-5.189958e-06	-1.063855e-09	-3.615220e+01	-6.986999e+01
4.100000e-07	-5.173254e-06	-1.062880e-09	-3.603585e+01	-6.971219e+01
4.200000e-07	-5.156206e-06	-1.032475e-09	-3.591710e+01	-6.955074e+01
4.300000e-07	-5.138838e-06	-1.049697e-09	-3.579612e+01	-6.938585e+01
4.400000e-07	-5.121201e-06	-1.076254e-09	-3.567326e+01	-6.921771e+01
4.500000e-07	-5.103114e-06	-1.071014e-09	-3.554726e+01	-6.904652e+01
4.600000e-07	-5.084521e-06	-1.027119e-09	-3.541775e+01	-6.887252e+01
4.700000e-07	-5.065550e-06	-1.045266e-09	-3.528561e+01	-6.869589e+01
4.800000e-07	-5.046218e-06	-1.062358e-09	-3.515094e+01	-6.851686e+01
4.900000e-07	-5.026613e-06	-1.052088e-09	-3.501437e+01	-6.833563e+01
5.000000e-07	-5.006807e-06	-1.031536e-09	-3.487641e+01	-6.815241e+01
5.100000e-07	-4.986816e-06	-1.051170e-09	-3.473716e+01	-6.796740e+01
5.200000e-07	-4.966545e-06	-1.037585e-09	-3.459596e+01	-6.778079e+01
5.300000e-07	-4.945916e-06	-1.035088e-09	-3.445226e+01	-6.759276e+01
5.400000e-07	-4.924929e-06	-1.054697e-09	-3.430606e+01	-6.740347e+01
5.500000e-07	-4.903520e-06	-1.053158e-09	-3.415694e+01	-6.721310e+01
5.600000e-07	-4.881743e-06	-1.003974e-09	-3.400524e+01	-6.702177e+01
5.700000e-07	-4.859735e-06	-1.017883e-09	-3.385194e+01	-6.682963e+01
5.800000e-07	-4.837408e-06	-1.050343e-09	-3.369641e+01	-6.663678e+01
5.900000e-07	-4.814660e-06	-1.031610e-09	-3.353795e+01	-6.644333e+01
6.000000e-07	-4.791600e-06	-1.009587e-09	-3.337732e+01	-6.624935e+01
6.100000e-07	-4.768264e-06	-1.031703e-09	-3.321477e+01	-6.605490e+01
6.200000e-07	-4.744681e-06	-1.019605e-09	-3.305049e+01	-6.586002e+01
6.300000e-07	-4.720923e-06	-9.913746e-10	-3.288500e+01	-6.566474e+01
6.400000e-07	-4.696880e-06	-1.004389e-09	-3.271752e+01	-6.546907e+01
6.500000e-07	-4.672456e-06	-1.014390e-09	-3.254739e+01	-6.527298e+01
6.600000e-07	-4.647613e-06	-9.966479e-10	-3.237434e+01	-6.507645e+01
6.700000e-07	-4.622232e-06	-9.975170e-10	-3.219754e+01	-6.487942e+01
6.800000e-07	-4.596232e-06	-1.009942e-09	-3.201643e+01	-6.468182e+01
6.900000e-07	-4.569684e-06	-9.919918e-10	-3.183150e+01	-6.448356e+01
7.000000e-07	-4.542718e-06	-9.843754e-10	-3.164366e+01	-6.428455e+01
7.100000e-07	-4.515412e-06	-9.924347e-10	-3.145346e+01	-6.408467e+01
7.200000e-07	-4.487858e-06	-9.913588e-10	-3.126152e+01	-6.388377e+01
7.300000e-07	-4.460170e-06	-9.750800e-10	-3.106865e+01	-6.368173e+01
7.400000e-07	-4.432329e-06	-9.766783e-10	-3.087471e+01	-6.347837e+01
7.500000e-07	-4.404236e-06	-9.704106e-10	-3.067902e+01	-6.327354e+01
7.600000e-07	-4.375861e-06	-9.612202e-10	-3.048137e+01	-6.306705e+01
7.700000e-07	-4.347181e-06	-9.527677e-10	-3.028159e+01	-6.285873e+01
7.800000e-07	-4.318168e-06	-9.585467e-10	-3.007949e+01	-6.264839e+01
7.900000e-07	-4.288819e-06	-9.583049e-10	-2.987505e+01	-6.243584e+01
8.000000e-07	-4.259188e-06	-9.549730e-10	-2.966865e+01	-6.222087e+01
8.100000e-07	-4.229293e-06	-9.402885e-10	-2.946040e+01	-6.200331e+01
8.200000e-07	-4.199112e-06	-9.328469e-10	-2.925017e+01	-6.178296e+01
8.300000e-07	-4.168647e-06	-9.262533e-10	-2.903796e+01	-6.155962e+01
8.400000e-07	-4.137851e-06	-9.248713e-10	-2.882344e+01	-6.133311e+01
8.500000e-07	-4.106758e-06	-9.190488e-10	-2.860685e+01	-6.110326e+01
8.600000e-07	-4.075499e-06	-9.208513e-10	-2.838911e+01	-6.086989e+01
8.700000e-07	-4.044016e-06	-9.182870e-10	-2.816981e+01	-6.063284e+01
8.800000e-07	-4.012339e-06	-9.129776e-10	-2.794915e+01	-6.039197e+01
8.900000e-07	-3.980550e-06	-9.076690e-10	-2.772771e+01	-6.014712e+01
9.000000e-07	-3.948567e-06	-9.009854e-10	-2.750492e+01	-5.989817e+01
9.100000e-07	-3.916223e-06	-8.907335e-10	-2.727962e+01	-5.964502e+01
9.200000e-07	-3.883403e-06	-8.841133e-10	-2.705100e+01	-5.938755e+01
9.300000e-07	-3.850206e-06	-8.840014e-10	-2.681976e+01	-5.912569e+01
9.400000e-07	-3.816593e-06	-8.815479e-10	-2.658562e+01	-5.885936e+01
9.500000e-07	-3.782503e-06	-8.751919e-10	-2.634816e+01	-5.858851e+01
9.600000e-07	-3.748011e-06	-8.692239e-10	-2.610789e+01	-5.831310e+01
9.700000e-07	-3.713156e-06	-8.639166e-10	-2.586510e+01	-5.803311e+01
9.800000e-07	-3.677994e-06	-8.572321e-10	-2.562017e+01	-5.774854e+01
9.900000e-07	-3.642601e-06	-8.552340e-10	-2.537362e+01	-5.745938e+01
1.000000e-06	-3.607066e-06	-8.521411e-10	-2.512609e+01	-5.716567e+01
1.010000e-06	-3.571424e-06	-8.469511e-10	-2.487782e+01	-5.686745e+01
1.020000e-06	-3.535631e-06	-8.421030e-10	-2.462849e+01	-5.656476e+01
1.030000e-06	-3.499624e-06	-8.405201e-10	-2.437768e+01	-5.625766e+01
1.040000e-06	-3.463393e-06	-8.325983e-10	-2.412530e+01	-5.594624e+01
1.050000e-06	-3.426861e-06	-8.270190e-10	-2.387083e+01	-5.563057e+01
1.060000e-06	-3.389957e-06	-8.195186e-10	-2.361376e+01	-5.531075e+01
1.070000e-06	-3.352831e-06	-8.144142e-10	-2.335515e+01	-5.498688e+01
1.080000e-06	-3.315597e-06	-8.071574e-10	-2.309579e+01	-5.465906e+01
1.090000e-06	-3.278141e-06	-8.024784e-10	-2.283487e+01	-5.432742e+01
1.100000e-06	-3.240346e-06	-7.957923e-10	-2.257160e+01	-5.399206e+01
1.110000e-06	-3.202331e-06	-7.902720e-10	-2.230679e+01	-5.365309e+01
1.120000e-06	-3.164140e-06	-7.853030e-10	-2.204077e+01	-5.331063e+01
1.130000e-06	-3.125720e-06	-7.825629e-10	-2.177314e+01	-5.296479e+01
1.140000e-06	-3.087095e-06	-7.765391e-10	-2.150409e+01	-5.261568e+01
1.150000e-06	-3.048274e-06	-7.704272e-10	-2.123366e+01	-5.226339e+01
1.160000e-06	-3.009264e-06	-7.629226e-10	-2.096193e+01	-5.190803e+01
1.170000e-06	-2.970030e-06	-7.588363e-10	-2.068863e+01	-5.154966e+01
1.180000e-06	-2.930616e-06	-7.546342e-10	-2.041408e+01	-5.118837e+01
1.190000e-06	-2.891095e-06	-7.506768e-10	-2.013879e+01	-5.082421e+01
1.200000e-06	-2.851477e-06	-7.465409e-10	-1.986282e+01	-5.045722e+01
1.210000e-06	-2.811763e-06	-7.435367e-10	-1.958618e+01	-5.008743e+01
1.220000e-06	-2.771867e-06	-7.409938e-10	-1.930827e+01	-4.971485e+01
1.230000e-06	-2.731743e-06	-7.352987e-10	-1.902877e+01	-4.933948e+01
1.240000e-06	-2.691438e-06	-7.264342e-10	-1.874801e+01	-4.896127e+01
1.250000e-06	-2.650945e-06	-7.177229e-10	-1.846595e+01	-4.858019e+01
1.260000e-06	-2.610270e-06	-7.091431e-10	-1.818262e+01	-4.819617e+01
1.270000e-06	-2.569375e-06	-7.007304e-10	-1.789775e+01	-4.780910e+01
1.280000e-06	-2.528179e-06	-6.955939e-10	-1.761078e+01	-4.741887e+01
1.290000e-06	-2.486698e-06	-6.919925e-10	-1.732184e+01	-4.702534e+01
1.300000e-06	-2.444920e-06	-6.890885e-10	-1.703082e+01	-4.662835e+01
1.310000e-06	-2.402812e-06	-6.817816e-10	-1.673751e+01	-4.622770e+01
1.320000e-06	-2.360428e-06	-6.713751e-10	-1.644227e+01	-4.582320e+01
1.330000e-06	-2.317772e-06	-6.595814e-10	-1.614513e+01	-4.541459e+01
1.340000e-06	-2.274804e-06	-6.493890e-10	-1.584583e+01	-4.500163e+01
1.350000e-06	-2.231647e-06	-6.393053e-10	-1.554521e+01	-4.458403e+01
1.360000e-06	-2.188342e-06	-6.325853e-10	-1.524355e+01	-4.416148e+01
1.370000e-06	-2.144816e-06	-6.279598e-10	-1.494036e+01	-4.373367e+01
1.380000e-06	-2.101160e-06	-6.268083e-10	-1.463626e+01	-4.330024e+01
1.390000e-06	-2.057436e-06	-6.202762e-10	-1.433168e+01	-4.286083e+01
1.400000e-06	-2.013692e-06	-6.103135e-10	-1.402698e+01	-4.241505e+01
1.410000e-06	-1.969879e-06	-6.007460e-10	-1.372178e+01	-4.196251e+01
1.420000e-06	-1.925950e-06	-5.927812e-10	-1.341578e+01	-4.150280e+01
1.430000e-06	-1.881981e-06	-5.854672e-10	-1.310950e+01	-4.103547e+01
1.440000e-06	-1.837963e-06	-5.805917e-10	-1.280288e+01	-4.056009e+01
1.450000e-06	-1.793810e-06	-5.739281e-10	-1.249532e+01	-4.007621e+01
1.460000e-06	-1.749492e-06	-5.646077e-10	-1.218661e+01	-3.958337e+01
1.470000e-06	-1.705162e-06	-5.520090e-10	-1.187781e+01	-3.908110e+01
1.480000e-06	-1.660764e-06	-5.406015e-10	-1.156855e+01	-3.856892e+01
1.490000e-06	-1.616191e-06	-5.319245e-10	-1.125806e+01	-3.804637e+01
1.500000e-06	-1.571485e-06	-5.283061e-10	-1.094665e+01	-3.751296e+01
1.510000e-06	-1.526615e-06	-5.259220e-10	-1.063409e+01	-3.696823e+01
1.520000e-06	-1.481563e-06	-5.198683e-10	-1.032027e+01	-3.641170e+01
1.530000e-06	-1.436399e-06	-5.094265e-10	-1.000567e+01	-3.584291e+01
1.540000e-06	-1.391189e-06	-4.937549e-10	-9.690745e+00	-3.526140e+01
1.550000e-06	-1.345904e-06	-4.781096e-10	-9.375296e+00	-3.466672e+01
1.560000e-06	-1.300507e-06	-4.669956e-10	-9.059070e+00	-3.405843e+01
1.570000e-06	-1.254942e-06	-4.610616e-10	-8.741677e+00	-3.343612e+01
1.580000e-06	-1.209243e-06	-4.572986e-10	-8.423346e+00	-3.279938e+01
1.590000e-06	-1.163480e-06	-4.519928e-10	-8.104569e+00	-3.214782e+01
1.600000e-06	-1.117678e-06	-4.421149e-10	-7.785522e+00	-3.148106e+01
1.610000e-06	-1.071844e-06	-4.282930e-10	-7.466251e+00	-3.079877e+01
1.620000e-06	-1.025940e-06	-4.128589e-10	-7.146490e+00	-3.010061e+01
1.630000e-06	-9.799606e-07	-4.009294e-10	-6.826209e+00	-2.938629e+01
1.640000e-06	-9.338867e-07	-3.915297e-10	-6.505268e+00	-2.865554e+01
1.650000e-06	-8.875938e-07	-3.822978e-10	-6.182800e+00	-2.790810e+01
1.660000e-06	-8.412189e-07	-3.734290e-10	-5.859762e+00	-2.714377e+01
1.670000e-06	-7.949892e-07	-3.629118e-10	-5.537735e+00	-2.636236e+01
1.680000e-06	-7.487975e-07	-3.488222e-10	-5.215973e+00	-2.556372e+01
1.690000e-06	-7.025243e-07	-3.367771e-10	-4.893643e+00	-2.474773e+01
1.700000e-06	-6.561256e-07	-3.241308e-10	-4.570439e+00	-2.391429e+01
1.710000e-06	-6.096634e-07	-3.108249e-10	-4.246793e+00	-2.306337e+01
1.720000e-06	-5.632483e-07	-2.944570e-10	-3.923474e+00	-2.219496e+01
1.730000e-06	-5.168551e-07	-2.759740e-10	-3.600309e+00	-2.130906e+01
1.740000e-06	-4.703409e-07	-2.585425e-10	-3.276300e+00	-2.040574e+01
1.750000e-06	-4.237334e-07	-2.438667e-10	-2.951642e+00	-1.948511e+01
1.760000e-06	-3.770863e-07	-2.340932e-10	-2.626707e+00	-1.854730e+01
1.770000e-06	-3.303658e-07	-2.268819e-10	-2.301262e+00	-1.759247e+01
1.780000e-06	-2.836148e-07	-2.182665e-10	-1.975604e+00	-1.662086e+01
1.790000e-06	-2.368170e-07	-2.030854e-10	-1.649620e+00	-1.563270e+01
1.800000e-06	-1.900584e-07	-1.834498e-10	-1.323909e+00	-1.462829e+01
1.810000e-06	-1.432956e-07	-1.638681e-10	-9.981685e-01	-1.360795e+01
1.820000e-06	-9.653096e-08	-1.482893e-10	-6.724153e-01	-1.257206e+01
1.830000e-06	-4.979440e-08	-1.397897e-10	-3.468578e-01	-1.152102e+01
1.840000e-06	-3.010934e-09	-1.322484e-10	-2.097356e-02	-1.045526e+01
1.850000e-06	4.374959e-08	-1.227514e-10	3.047508e-01	-9.375274e+00
1.860000e-06	9.047819e-08	-1.129804e-10	6.302529e-01	-8.281563e+00
1.870000e-06	1.372138e-07	-9.528683e-11	9.558036e-01	-7.174677e+00
1.880000e-06	1.840470e-07	-7.083091e-11	1.282035e+00	-6.055196e+00
1.890000e-06	2.308764e-07	-4.573301e-11	1.608239e+00	-4.923734e+00
1.900000e-06	2.775765e-07	-2.650375e-11	1.933543e+00	-3.780934e+00
1.910000e-06	3.242187e-07	-1.408067e-11	2.258442e+00	-2.627470e+00
1.920000e-06	3.708330e-07	-6.052592e-12	2.583148e+00	-1.464043e+00
1.930000e-06	4.174448e-07	3.810390e-12	2.907837e+00	-2.913829e-01
1.940000e-06	4.640884e-07	2.028513e-11	3.232747e+00	8.897571e-01
1.950000e-06	5.106221e-07	4.179443e-11	3.556891e+00	2.078600e+00
1.960000e-06	5.570319e-07	6.554457e-11	3.880172e+00	3.274346e+00
1.970000e-06	6.035159e-07	8.766635e-11	4.203971e+00	4.476177e+00
1.980000e-06	6.498926e-07	1.045564e-10	4.527021e+00	5.683256e+00
1.990000e-06	6.962067e-07	1.175325e-10	4.849636e+00	6.894730e+00
2.000000e-06	7.425064e-07	1.272999e-10	5.172150e+00	8.109735e+00
2.010000e-06	7.886664e-07	1.376970e-10	5.493692e+00	9.327392e+00
2.020000e-06	8.348286e-07	1.563503e-10	5.815248e+00	1.054681e+01
2.030000e-06	8.810132e-07	1.829301e-10	6.136961e+00	1.176711e+01
2.040000e-06	9.271647e-07	2.094107e-10	6.458443e+00	1.298737e+01
2.050000e-06	9.731899e-07	2.307365e-10	6.779045e+00	1.420670e+01
2.060000e-06	1.019060e-06	2.470164e-10	7.098566e+00	1.542420e+01
2.070000e-06	1.064874e-06	2.591767e-10	7.417700e+00	1.663897e+01
2.080000e-06	1.110611e-06	2.708001e-10	7.736290e+00	1.785011e+01
2.090000e-06	1.156272e-06	2.860094e-10	8.054359e+00	1.905673e+01
2.100000e-06	1.201894e-06	3.086163e-10	8.372152e+00	2.025795e+01
2.110000e-06	1.247450e-06	3.311922e-10	8.689486e+00	2.145291e+01
2.120000e-06	1.292871e-06	3.515501e-10	9.005880e+00	2.264074e+01
2.130000e-06	1.338159e-06	3.702702e-10	9.321349e+00	2.382062e+01
2.140000e-06	1.383411e-06	3.861792e-10	9.636567e+00	2.499170e+01
2.150000e-06	1.428582e-06	3.986060e-10	9.951217e+00	2.615321e+01
2.160000e-06	1.473653e-06	4.095025e-10	1.026517e+01	2.730435e+01
2.170000e-06	1.518648e-06	4.211313e-10	1.057860e+01	2.844436e+01
2.180000e-06	1.563483e-06	4.398192e-10	1.089091e+01	2.957253e+01
2.190000e-06	1.608179e-06	4.612807e-10	1.120225e+01	3.068815e+01
2.200000e-06	1.652783e-06	4.819457e-10	1.151296e+01	3.179054e+01
2.210000e-06	1.697259e-06	4.977292e-10	1.182277e+01	3.287907e+01
2.220000e-06	1.741564e-06	5.097082e-10	1.213139e+01	3.395312e+01
2.230000e-06	1.785730e-06	5.202594e-10	1.243904e+01	3.501212e+01
2.240000e-06	1.829803e-06	5.282428e-10	1.274604e+01	3.605554e+01
2.250000e-06	1.873804e-06	5.391365e-10	1.305254e+01	3.708286e+01
2.260000e-06	1.917769e-06	5.538903e-10	1.335879e+01	3.809362e+01
2.270000e-06	1.961647e-06	5.756429e-10	1.366444e+01	3.908738e+01
2.280000e-06	2.005441e-06	5.967901e-10	1.396950e+01	4.006377e+01
2.290000e-06	2.049174e-06	6.149498e-10	1.427413e+01	4.102243e+01
2.300000e-06	2.092832e-06	6.273088e-10	1.457825e+01	4.196305e+01
2.310000e-06	2.136385e-06	6.344867e-10	1.488163e+01	4.288535e+01
2.320000e-06	2.179792e-06	6.408443e-10	1.518399e+01	4.378910e+01
2.330000e-06	2.223114e-06	6.499759e-10	1.548577e+01	4.467411e+01
2.340000e-06	2.266334e-06	6.648713e-10	1.578683e+01	4.554023e+01
2.350000e-06	2.309381e-06	6.856134e-10	1.608668e+01	4.638734e+01
2.360000e-06	2.352123e-06	7.087765e-10	1.638441e+01	4.721537e+01
2.370000e-06	2.394538e-06	7.249252e-10	1.667987e+01	4.802427e+01
2.380000e-06	2.436692e-06	7.338868e-10	1.697351e+01	4.881406e+01
2.390000e-06	2.478573e-06	7.401423e-10	1.726524e+01	4.958475e+01
2.400000e-06	2.520082e-06	7.438950e-10	1.755439e+01	5.033643e+01
2.410000e-06	2.561229e-06	7.480433e-10	1.784101e+01	5.106919e+01
2.420000e-06	2.602195e-06	7.562725e-10	1.812637e+01	5.178317e+01
2.430000e-06	2.642855e-06	7.704560e-10	1.840960e+01	5.247855e+01
2.440000e-06	2.683124e-06	7.843087e-10	1.869011e+01	5.315551e+01
2.450000e-06	2.723188e-06	7.953006e-10	1.896918e+01	5.381428e+01
2.460000e-06	2.763165e-06	8.058549e-10	1.924765e+01	5.445512e+01
2.470000e-06	2.803060e-06	8.139760e-10	1.952555e+01	5.507830e+01
2.480000e-06	2.842844e-06	8.197453e-10	1.980268e+01	5.568412e+01
2.490000e-06	2.882504e-06	8.233814e-10	2.007894e+01	5.627290e+01
2.500000e-06	2.922036e-06	8.279414e-10	2.035432e+01	5.684498e+01
2.510000e-06	2.961362e-06	8.362381e-10	2.062825e+01	5.740071e+01
2.520000e-06	3.000540e-06	8.483602e-10	2.090116e+01	5.794048e+01
2.530000e-06	3.039580e-06	8.600094e-10	2.117311e+01	5.846466e+01
2.540000e-06	3.078422e-06	8.685163e-10	2.144367e+01	5.897365e+01
2.550000e-06	3.117039e-06	8.733485e-10	2.171267e+01	5.946786e+01
2.560000e-06	3.155382e-06	8.757236e-10	2.197976e+01	5.994770e+01
2.570000e-06	3.193464e-06	8.785914e-10	2.224503e+01	6.041360e+01
2.580000e-06	3.231270e-06	8.844963e-10	2.250838e+01	6.086598e+01
2.590000e-06	3.268866e-06	8.933711e-10	2.277026e+01	6.130527e+01
2.600000e-06	3.306319e-06	9.044460e-10	2.303115e+01	6.173188e+01
2.610000e-06	3.343558e-06	9.126579e-10	2.329055e+01	6.214626e+01
2.620000e-06	3.380562e-06	9.158335e-10	2.354831e+01	6.254882e+01
2.630000e-06	3.417319e-06	9.173322e-10	2.380436e+01	6.293998e+01
2.640000e-06	3.453843e-06	9.206196e-10	2.405877e+01	6.332015e+01
2.650000e-06	3.490089e-06	9.261935e-10	2.431126e+01	6.368975e+01
2.660000e-06	3.526094e-06	9.329587e-10	2.456207e+01	6.404917e+01
2.670000e-06	3.562008e-06	9.390737e-10	2.481223e+01	6.439879e+01
2.680000e-06	3.597791e-06	9.458487e-10	2.506149e+01	6.473900e+01
2.690000e-06	3.633426e-06	9.523668e-10	2.530972e+01	6.507016e+01
2.700000e-06	3.668921e-06	9.554383e-10	2.555697e+01	6.539263e+01
2.710000e-06	3.704193e-06	9.570452e-10	2.580267e+01	6.570674e+01
2.720000e-06	3.739176e-06	9.597579e-10	2.604635e+01	6.601282e+01
2.730000e-06	3.773815e-06	9.636354e-10	2.628764e+01	6.631118e+01
2.740000e-06	3.808049e-06	9.687988e-10	2.652611e+01	6.660212e+01
2.750000e-06	3.841791e-06	9.751426e-10	2.676115e+01	6.688591e+01
2.760000e-06	3.874987e-06	9.810487e-10	2.699238e+01	6.716283e+01
2.770000e-06	3.907667e-06	9.868855e-10	2.722002e+01	6.743311e+01
2.780000e-06	3.939996e-06	9.922260e-10	2.744522e+01	6.769700e+01
2.790000e-06	3.972081e-06	9.975762e-10	2.766872e+01	6.795470e+01
2.800000e-06	4.003960e-06	1.001447e-09	2.789078e+01	6.820641e+01
2.810000e-06	4.035717e-06	1.003923e-09	2.811199e+01	6.845232e+01
2.820000e-06	4.067372e-06	1.007015e-09	2.833250e+01	6.869258e+01
2.830000e-06	4.098822e-06	1.011591e-09	2.855157e+01	6.892736e+01
2.840000e-06	4.129887e-06	1.018280e-09	2.876797e+01	6.915679e+01
2.850000e-06	4.160645e-06	1.027449e-09	2.898222e+01	6.938097e+01
2.860000e-06	4.191162e-06	1.035433e-09	2.919479e+01	6.960003e+01
2.870000e-06	4.221330e-06	1.039073e-09	2.940494e+01	6.981404e+01
2.880000e-06	4.251183e-06	1.039269e-09	2.961289e+01	7.002309e+01
2.890000e-06	4.280811e-06	1.039153e-09	2.981927e+01	7.022723e+01
2.900000e-06	4.310177e-06	1.040420e-09	3.002383e+01	7.042651e+01
