# Temperatura_=_-0.56
# Concentracion g/m^3_=_1620.0
# C_Vs_to_Am_M_A/Vsm_=_65563218390.804596
# pendiente_HvsI_1/m_=_3716.3
# ordenada_HvsI_A/m_=_1297.0
# frecuencia_Hz_=_135098.4302242742

Tiempo_(s)	Campo_(V.s)	Magnetizacion_(V.s)	Campo_(kA/m)	Magnetizacion_(A/m)
0.000000e+00	-5.513670e-06	-1.350306e-09	-3.837332e+01	-8.972343e+01
1.000000e-08	-5.514011e-06	-1.347741e-09	-3.837569e+01	-8.969187e+01
2.000000e-08	-5.514121e-06	-1.349590e-09	-3.837645e+01	-8.966286e+01
3.000000e-08	-5.513930e-06	-1.354572e-09	-3.837512e+01	-8.963628e+01
4.000000e-08	-5.513295e-06	-1.356720e-09	-3.837071e+01	-8.961195e+01
5.000000e-08	-5.512135e-06	-1.347635e-09	-3.836263e+01	-8.958967e+01
6.000000e-08	-5.510295e-06	-1.329131e-09	-3.834983e+01	-8.956920e+01
7.000000e-08	-5.507810e-06	-1.323803e-09	-3.833253e+01	-8.955026e+01
8.000000e-08	-5.504799e-06	-1.375756e-09	-3.831157e+01	-8.953256e+01
9.000000e-08	-5.501266e-06	-1.440785e-09	-3.828699e+01	-8.951576e+01
1.000000e-07	-5.497303e-06	-1.421370e-09	-3.825941e+01	-8.949950e+01
1.100000e-07	-5.492985e-06	-1.342790e-09	-3.822936e+01	-8.948341e+01
1.200000e-07	-5.488467e-06	-1.310845e-09	-3.819791e+01	-8.946708e+01
1.300000e-07	-5.483742e-06	-1.340074e-09	-3.816502e+01	-8.945011e+01
1.400000e-07	-5.478611e-06	-1.370897e-09	-3.812932e+01	-8.943206e+01
1.500000e-07	-5.473115e-06	-1.326613e-09	-3.809106e+01	-8.941251e+01
1.600000e-07	-5.467334e-06	-1.324230e-09	-3.805083e+01	-8.939101e+01
1.700000e-07	-5.461198e-06	-1.357480e-09	-3.800812e+01	-8.936713e+01
1.800000e-07	-5.454648e-06	-1.388554e-09	-3.796254e+01	-8.934043e+01
1.900000e-07	-5.447636e-06	-1.366727e-09	-3.791374e+01	-8.931048e+01
2.000000e-07	-5.440295e-06	-1.328391e-09	-3.786265e+01	-8.927687e+01
2.100000e-07	-5.432705e-06	-1.346721e-09	-3.780983e+01	-8.923918e+01
2.200000e-07	-5.424819e-06	-1.381966e-09	-3.775494e+01	-8.919702e+01
2.300000e-07	-5.416698e-06	-1.403765e-09	-3.769842e+01	-8.915003e+01
2.400000e-07	-5.408097e-06	-1.375060e-09	-3.763856e+01	-8.909785e+01
2.500000e-07	-5.398834e-06	-1.370399e-09	-3.757409e+01	-8.904015e+01
2.600000e-07	-5.389006e-06	-1.373349e-09	-3.750569e+01	-8.897664e+01
2.700000e-07	-5.378598e-06	-1.368905e-09	-3.743326e+01	-8.890704e+01
2.800000e-07	-5.367607e-06	-1.347808e-09	-3.735677e+01	-8.883110e+01
2.900000e-07	-5.356164e-06	-1.373101e-09	-3.727712e+01	-8.874862e+01
3.000000e-07	-5.344444e-06	-1.384614e-09	-3.719556e+01	-8.865941e+01
3.100000e-07	-5.332398e-06	-1.356245e-09	-3.711172e+01	-8.856331e+01
3.200000e-07	-5.319796e-06	-1.328751e-09	-3.702401e+01	-8.846021e+01
3.300000e-07	-5.306764e-06	-1.355090e-09	-3.693332e+01	-8.835003e+01
3.400000e-07	-5.293504e-06	-1.354748e-09	-3.684103e+01	-8.823269e+01
3.500000e-07	-5.279720e-06	-1.327525e-09	-3.674510e+01	-8.810819e+01
3.600000e-07	-5.265470e-06	-1.347553e-09	-3.664592e+01	-8.797652e+01
3.700000e-07	-5.251000e-06	-1.371685e-09	-3.654522e+01	-8.783771e+01
3.800000e-07	-5.236014e-06	-1.338020e-09	-3.644092e+01	-8.769183e+01
3.900000e-07	-5.220330e-06	-1.320883e-09	-3.633177e+01	-8.753895e+01
4.000000e-07	-5.204250e-06	-1.357221e-09	-3.621985e+01	-8.737919e+01
4.100000e-07	-5.187883e-06	-1.331220e-09	-3.610594e+01	-8.721268e+01
4.200000e-07	-5.171045e-06	-1.288527e-09	-3.598876e+01	-8.703955e+01
4.300000e-07	-5.153837e-06	-1.327440e-09	-3.586900e+01	-8.685999e+01
4.400000e-07	-5.136407e-06	-1.354903e-09	-3.574769e+01	-8.667417e+01
4.500000e-07	-5.118608e-06	-1.303983e-09	-3.562381e+01	-8.648227e+01
4.600000e-07	-5.100328e-06	-1.308114e-09	-3.549659e+01	-8.628451e+01
4.700000e-07	-5.081610e-06	-1.342937e-09	-3.536632e+01	-8.608109e+01
4.800000e-07	-5.062508e-06	-1.303105e-09	-3.523338e+01	-8.587223e+01
4.900000e-07	-5.043083e-06	-1.279134e-09	-3.509818e+01	-8.565814e+01
5.000000e-07	-5.023453e-06	-1.326999e-09	-3.496157e+01	-8.543903e+01
5.100000e-07	-5.003667e-06	-1.300831e-09	-3.482386e+01	-8.521513e+01
5.200000e-07	-4.983611e-06	-1.254367e-09	-3.468428e+01	-8.498665e+01
5.300000e-07	-4.963190e-06	-1.300927e-09	-3.454215e+01	-8.475378e+01
5.400000e-07	-4.942465e-06	-1.325419e-09	-3.439792e+01	-8.451674e+01
5.500000e-07	-4.921412e-06	-1.271074e-09	-3.425139e+01	-8.427570e+01
5.600000e-07	-4.899951e-06	-1.276319e-09	-3.410203e+01	-8.403085e+01
5.700000e-07	-4.878179e-06	-1.300170e-09	-3.395051e+01	-8.378236e+01
5.800000e-07	-4.856048e-06	-1.260761e-09	-3.379648e+01	-8.353037e+01
5.900000e-07	-4.833490e-06	-1.251751e-09	-3.363949e+01	-8.327505e+01
6.000000e-07	-4.810605e-06	-1.286025e-09	-3.348022e+01	-8.301650e+01
6.100000e-07	-4.787434e-06	-1.259453e-09	-3.331896e+01	-8.275486e+01
6.200000e-07	-4.764041e-06	-1.235889e-09	-3.315614e+01	-8.249021e+01
6.300000e-07	-4.740479e-06	-1.258620e-09	-3.299216e+01	-8.222266e+01
6.400000e-07	-4.716661e-06	-1.247219e-09	-3.282640e+01	-8.195227e+01
6.500000e-07	-4.692543e-06	-1.221261e-09	-3.265854e+01	-8.167911e+01
6.600000e-07	-4.668002e-06	-1.237626e-09	-3.248775e+01	-8.140321e+01
6.700000e-07	-4.642983e-06	-1.238636e-09	-3.231362e+01	-8.112463e+01
6.800000e-07	-4.617447e-06	-1.216903e-09	-3.213590e+01	-8.084339e+01
6.900000e-07	-4.591343e-06	-1.224363e-09	-3.195422e+01	-8.055950e+01
7.000000e-07	-4.564738e-06	-1.227606e-09	-3.176906e+01	-8.027296e+01
7.100000e-07	-4.537657e-06	-1.207233e-09	-3.158059e+01	-7.998378e+01
7.200000e-07	-4.510272e-06	-1.207654e-09	-3.139000e+01	-7.969195e+01
7.300000e-07	-4.482726e-06	-1.216427e-09	-3.119829e+01	-7.939745e+01
7.400000e-07	-4.455008e-06	-1.196843e-09	-3.100538e+01	-7.910027e+01
7.500000e-07	-4.427047e-06	-1.188450e-09	-3.081078e+01	-7.880037e+01
7.600000e-07	-4.398754e-06	-1.191667e-09	-3.061387e+01	-7.849774e+01
7.700000e-07	-4.370211e-06	-1.178928e-09	-3.041522e+01	-7.819234e+01
7.800000e-07	-4.341413e-06	-1.166801e-09	-3.021480e+01	-7.788415e+01
7.900000e-07	-4.312287e-06	-1.174601e-09	-3.001209e+01	-7.757313e+01
8.000000e-07	-4.282866e-06	-1.172410e-09	-2.980733e+01	-7.725927e+01
8.100000e-07	-4.253138e-06	-1.158651e-09	-2.960043e+01	-7.694253e+01
8.200000e-07	-4.223180e-06	-1.154917e-09	-2.939193e+01	-7.662289e+01
8.300000e-07	-4.192979e-06	-1.150032e-09	-2.918175e+01	-7.630033e+01
8.400000e-07	-4.162393e-06	-1.133867e-09	-2.896888e+01	-7.597483e+01
8.500000e-07	-4.131506e-06	-1.129935e-09	-2.875391e+01	-7.564636e+01
8.600000e-07	-4.100373e-06	-1.131658e-09	-2.853723e+01	-7.531493e+01
8.700000e-07	-4.068982e-06	-1.125667e-09	-2.831877e+01	-7.498052e+01
8.800000e-07	-4.037452e-06	-1.118622e-09	-2.809933e+01	-7.464311e+01
8.900000e-07	-4.005760e-06	-1.120381e-09	-2.787876e+01	-7.430271e+01
9.000000e-07	-3.973837e-06	-1.111601e-09	-2.765659e+01	-7.395930e+01
9.100000e-07	-3.941646e-06	-1.093476e-09	-2.743255e+01	-7.361289e+01
9.200000e-07	-3.909160e-06	-1.087071e-09	-2.720646e+01	-7.326347e+01
9.300000e-07	-3.876332e-06	-1.083026e-09	-2.697798e+01	-7.291104e+01
9.400000e-07	-3.842992e-06	-1.070570e-09	-2.674595e+01	-7.255559e+01
9.500000e-07	-3.809179e-06	-1.066226e-09	-2.651062e+01	-7.219712e+01
9.600000e-07	-3.774884e-06	-1.067857e-09	-2.627194e+01	-7.183562e+01
9.700000e-07	-3.740183e-06	-1.058489e-09	-2.603043e+01	-7.147108e+01
9.800000e-07	-3.705177e-06	-1.048287e-09	-2.578680e+01	-7.110349e+01
9.900000e-07	-3.669839e-06	-1.045809e-09	-2.554086e+01	-7.073281e+01
1.000000e-06	-3.634306e-06	-1.039809e-09	-2.529357e+01	-7.035903e+01
1.010000e-06	-3.598650e-06	-1.028196e-09	-2.504541e+01	-6.998212e+01
1.020000e-06	-3.562908e-06	-1.023332e-09	-2.479665e+01	-6.960202e+01
1.030000e-06	-3.527038e-06	-1.020708e-09	-2.454702e+01	-6.921871e+01
1.040000e-06	-3.490883e-06	-1.012655e-09	-2.429539e+01	-6.883211e+01
1.050000e-06	-3.454456e-06	-1.007383e-09	-2.404187e+01	-6.844216e+01
1.060000e-06	-3.417771e-06	-1.005873e-09	-2.378655e+01	-6.804880e+01
1.070000e-06	-3.380799e-06	-9.970300e-10	-2.352924e+01	-6.765194e+01
1.080000e-06	-3.343601e-06	-9.866091e-10	-2.327035e+01	-6.725149e+01
1.090000e-06	-3.306187e-06	-9.795779e-10	-2.300997e+01	-6.684734e+01
1.100000e-06	-3.268645e-06	-9.712490e-10	-2.274868e+01	-6.643940e+01
1.110000e-06	-3.230902e-06	-9.608768e-10	-2.248601e+01	-6.602753e+01
1.120000e-06	-3.192967e-06	-9.546017e-10	-2.222199e+01	-6.561163e+01
1.130000e-06	-3.154787e-06	-9.483355e-10	-2.195627e+01	-6.519155e+01
1.140000e-06	-3.116264e-06	-9.393755e-10	-2.168816e+01	-6.476715e+01
1.150000e-06	-3.077501e-06	-9.302800e-10	-2.141839e+01	-6.433830e+01
1.160000e-06	-3.038563e-06	-9.215108e-10	-2.114739e+01	-6.390483e+01
1.170000e-06	-2.999454e-06	-9.138038e-10	-2.087521e+01	-6.346659e+01
1.180000e-06	-2.960138e-06	-9.083625e-10	-2.060158e+01	-6.302342e+01
1.190000e-06	-2.920643e-06	-9.042366e-10	-2.032671e+01	-6.257517e+01
1.200000e-06	-2.881059e-06	-8.979332e-10	-2.005122e+01	-6.212166e+01
1.210000e-06	-2.841412e-06	-8.884887e-10	-1.977528e+01	-6.166273e+01
1.220000e-06	-2.801627e-06	-8.813216e-10	-1.949840e+01	-6.119822e+01
1.230000e-06	-2.761737e-06	-8.729149e-10	-1.922077e+01	-6.072796e+01
1.240000e-06	-2.721615e-06	-8.626842e-10	-1.894154e+01	-6.025179e+01
1.250000e-06	-2.681250e-06	-8.529753e-10	-1.866061e+01	-5.976955e+01
1.260000e-06	-2.640697e-06	-8.448448e-10	-1.837838e+01	-5.928107e+01
1.270000e-06	-2.599915e-06	-8.363685e-10	-1.809455e+01	-5.878622e+01
1.280000e-06	-2.558936e-06	-8.280067e-10	-1.780935e+01	-5.828484e+01
1.290000e-06	-2.517691e-06	-8.208781e-10	-1.752229e+01	-5.777677e+01
1.300000e-06	-2.476145e-06	-8.134130e-10	-1.723315e+01	-5.726189e+01
1.310000e-06	-2.434241e-06	-8.038661e-10	-1.694151e+01	-5.674005e+01
1.320000e-06	-2.391968e-06	-7.918562e-10	-1.664730e+01	-5.621112e+01
1.330000e-06	-2.349432e-06	-7.812661e-10	-1.635127e+01	-5.567497e+01
1.340000e-06	-2.306579e-06	-7.734091e-10	-1.605302e+01	-5.513147e+01
1.350000e-06	-2.263433e-06	-7.664359e-10	-1.575275e+01	-5.458050e+01
1.360000e-06	-2.220135e-06	-7.581863e-10	-1.545140e+01	-5.402194e+01
1.370000e-06	-2.176749e-06	-7.506090e-10	-1.514945e+01	-5.345566e+01
1.380000e-06	-2.133264e-06	-7.456765e-10	-1.484681e+01	-5.288153e+01
1.390000e-06	-2.089623e-06	-7.413539e-10	-1.454308e+01	-5.229944e+01
1.400000e-06	-2.045882e-06	-7.336861e-10	-1.423866e+01	-5.170926e+01
1.410000e-06	-2.002153e-06	-7.234950e-10	-1.393432e+01	-5.111085e+01
1.420000e-06	-1.958389e-06	-7.143331e-10	-1.362974e+01	-5.050407e+01
1.430000e-06	-1.914467e-06	-7.073258e-10	-1.332405e+01	-4.988877e+01
1.440000e-06	-1.870454e-06	-7.004824e-10	-1.301774e+01	-4.926479e+01
1.450000e-06	-1.826339e-06	-6.922133e-10	-1.271072e+01	-4.863197e+01
1.460000e-06	-1.782103e-06	-6.820040e-10	-1.240285e+01	-4.799011e+01
1.470000e-06	-1.737811e-06	-6.698481e-10	-1.209459e+01	-4.733903e+01
1.480000e-06	-1.693416e-06	-6.559636e-10	-1.178561e+01	-4.667851e+01
1.490000e-06	-1.648897e-06	-6.426245e-10	-1.147578e+01	-4.600830e+01
1.500000e-06	-1.604205e-06	-6.317071e-10	-1.116473e+01	-4.532818e+01
1.510000e-06	-1.559291e-06	-6.249821e-10	-1.085215e+01	-4.463785e+01
1.520000e-06	-1.514289e-06	-6.177829e-10	-1.053895e+01	-4.393703e+01
1.530000e-06	-1.469217e-06	-6.093371e-10	-1.022526e+01	-4.322540e+01
1.540000e-06	-1.424004e-06	-5.975088e-10	-9.910595e+00	-4.250262e+01
1.550000e-06	-1.378709e-06	-5.824920e-10	-9.595359e+00	-4.176835e+01
1.560000e-06	-1.333361e-06	-5.660225e-10	-9.279749e+00	-4.102218e+01
1.570000e-06	-1.287944e-06	-5.487906e-10	-8.963660e+00	-4.026373e+01
1.580000e-06	-1.242389e-06	-5.347715e-10	-8.646612e+00	-3.949255e+01
1.590000e-06	-1.196751e-06	-5.253503e-10	-8.328988e+00	-3.870822e+01
1.600000e-06	-1.151001e-06	-5.187894e-10	-8.010589e+00	-3.791027e+01
1.610000e-06	-1.105106e-06	-5.088887e-10	-7.691169e+00	-3.709820e+01
1.620000e-06	-1.059197e-06	-4.938330e-10	-7.371661e+00	-3.627154e+01
1.630000e-06	-1.013242e-06	-4.790078e-10	-7.051825e+00	-3.542977e+01
1.640000e-06	-9.672573e-07	-4.650691e-10	-6.731790e+00	-3.457238e+01
1.650000e-06	-9.212350e-07	-4.516123e-10	-6.411490e+00	-3.369884e+01
1.660000e-06	-8.750959e-07	-4.385236e-10	-6.090377e+00	-3.280863e+01
1.670000e-06	-8.288394e-07	-4.257870e-10	-5.768447e+00	-3.190123e+01
1.680000e-06	-7.825569e-07	-4.122146e-10	-5.446337e+00	-3.097611e+01
1.690000e-06	-7.362823e-07	-3.976518e-10	-5.124280e+00	-3.003277e+01
1.700000e-06	-6.899019e-07	-3.844996e-10	-4.801489e+00	-2.907072e+01
1.710000e-06	-6.434288e-07	-3.703800e-10	-4.478051e+00	-2.808948e+01
1.720000e-06	-5.969483e-07	-3.535549e-10	-4.154562e+00	-2.708861e+01
1.730000e-06	-5.504419e-07	-3.346823e-10	-3.830893e+00	-2.606767e+01
1.740000e-06	-5.039034e-07	-3.138523e-10	-3.507000e+00	-2.502628e+01
1.750000e-06	-4.573228e-07	-2.945095e-10	-3.182815e+00	-2.396410e+01
1.760000e-06	-4.106699e-07	-2.813917e-10	-2.858126e+00	-2.288081e+01
1.770000e-06	-3.638967e-07	-2.702668e-10	-2.532601e+00	-2.177617e+01
1.780000e-06	-3.171133e-07	-2.577879e-10	-2.207003e+00	-2.064998e+01
1.790000e-06	-2.703952e-07	-2.426709e-10	-1.881861e+00	-1.950208e+01
1.800000e-06	-2.236075e-07	-2.250689e-10	-1.556234e+00	-1.833240e+01
1.810000e-06	-1.768399e-07	-2.058865e-10	-1.230747e+00	-1.714093e+01
1.820000e-06	-1.300416e-07	-1.865563e-10	-9.050462e-01	-1.592773e+01
1.830000e-06	-8.320859e-08	-1.697200e-10	-5.791042e-01	-1.469292e+01
1.840000e-06	-3.641539e-08	-1.563937e-10	-2.534390e-01	-1.343672e+01
1.850000e-06	1.041371e-08	-1.434625e-10	7.247599e-02	-1.215942e+01
1.860000e-06	5.718010e-08	-1.273320e-10	3.979545e-01	-1.086138e+01
1.870000e-06	1.039281e-07	-1.081696e-10	7.233054e-01	-9.543064e+00
1.880000e-06	1.507323e-07	-8.613016e-11	1.049047e+00	-8.205010e+00
1.890000e-06	1.975467e-07	-6.310472e-11	1.374859e+00	-6.847840e+00
1.900000e-06	2.443251e-07	-4.251578e-11	1.700422e+00	-5.472263e+00
1.910000e-06	2.910253e-07	-2.377072e-11	2.025439e+00	-4.079071e+00
1.920000e-06	3.376992e-07	-5.902618e-12	2.350274e+00	-2.669139e+00
1.930000e-06	3.843504e-07	1.031250e-11	2.674951e+00	-1.243421e+00
1.940000e-06	4.309775e-07	2.732110e-11	2.999460e+00	1.970498e-01
1.950000e-06	4.775869e-07	4.725277e-11	3.323846e+00	1.651165e+00
1.960000e-06	5.241114e-07	6.969208e-11	3.647641e+00	3.117746e+00
1.970000e-06	5.706019e-07	9.352970e-11	3.971200e+00	4.595549e+00
1.980000e-06	6.170633e-07	1.152675e-10	4.294556e+00	6.083266e+00
1.990000e-06	6.634629e-07	1.340355e-10	4.617481e+00	7.579535e+00
2.000000e-06	7.097986e-07	1.512792e-10	4.939963e+00	9.082942e+00
2.010000e-06	7.561182e-07	1.670247e-10	5.262332e+00	1.059203e+01
2.020000e-06	8.023525e-07	1.865623e-10	5.584107e+00	1.210531e+01
2.030000e-06	8.484711e-07	2.122416e-10	5.905077e+00	1.362124e+01
2.040000e-06	8.945872e-07	2.392680e-10	6.226030e+00	1.513830e+01
2.050000e-06	9.406572e-07	2.632573e-10	6.546662e+00	1.665490e+01
2.060000e-06	9.866303e-07	2.839211e-10	6.866619e+00	1.816948e+01
2.070000e-06	1.032545e-06	3.018334e-10	7.186171e+00	1.968048e+01
2.080000e-06	1.078459e-06	3.201135e-10	7.505714e+00	2.118631e+01
2.090000e-06	1.124239e-06	3.397526e-10	7.824329e+00	2.268545e+01
2.100000e-06	1.169862e-06	3.619749e-10	8.141851e+00	2.417636e+01
2.110000e-06	1.215501e-06	3.871360e-10	8.459485e+00	2.565755e+01
2.120000e-06	1.261099e-06	4.109994e-10	8.776833e+00	2.712757e+01
2.130000e-06	1.306490e-06	4.345745e-10	9.092739e+00	2.858501e+01
2.140000e-06	1.351789e-06	4.561809e-10	9.408001e+00	3.002851e+01
2.150000e-06	1.397105e-06	4.747021e-10	9.723386e+00	3.145677e+01
2.160000e-06	1.442304e-06	4.923555e-10	1.003796e+01	3.286855e+01
2.170000e-06	1.487339e-06	5.098360e-10	1.035139e+01	3.426270e+01
2.180000e-06	1.532278e-06	5.291580e-10	1.066415e+01	3.563813e+01
2.190000e-06	1.577075e-06	5.516341e-10	1.097592e+01	3.699383e+01
2.200000e-06	1.621723e-06	5.723747e-10	1.128666e+01	3.832886e+01
2.210000e-06	1.666228e-06	5.910810e-10	1.159639e+01	3.964240e+01
2.220000e-06	1.710623e-06	6.087044e-10	1.190537e+01	4.093368e+01
2.230000e-06	1.754934e-06	6.236902e-10	1.221376e+01	4.220206e+01
2.240000e-06	1.799092e-06	6.385870e-10	1.252108e+01	4.344696e+01
2.250000e-06	1.843113e-06	6.537611e-10	1.282745e+01	4.466791e+01
2.260000e-06	1.887057e-06	6.700442e-10	1.313329e+01	4.586452e+01
2.270000e-06	1.930906e-06	6.865798e-10	1.343846e+01	4.703651e+01
2.280000e-06	1.974660e-06	7.083124e-10	1.374298e+01	4.818366e+01
2.290000e-06	2.018367e-06	7.298666e-10	1.404716e+01	4.930587e+01
2.300000e-06	2.062017e-06	7.473494e-10	1.435096e+01	5.040311e+01
2.310000e-06	2.105653e-06	7.608405e-10	1.465464e+01	5.147543e+01
2.320000e-06	2.149276e-06	7.733044e-10	1.495825e+01	5.252296e+01
2.330000e-06	2.192825e-06	7.869067e-10	1.526134e+01	5.354591e+01
2.340000e-06	2.236194e-06	8.006247e-10	1.556317e+01	5.454454e+01
2.350000e-06	2.279421e-06	8.158409e-10	1.586401e+01	5.551921e+01
2.360000e-06	2.322493e-06	8.327657e-10	1.616378e+01	5.647030e+01
2.370000e-06	2.365275e-06	8.500843e-10	1.646153e+01	5.739826e+01
2.380000e-06	2.407706e-06	8.643216e-10	1.675683e+01	5.830359e+01
2.390000e-06	2.449807e-06	8.763944e-10	1.704984e+01	5.918682e+01
2.400000e-06	2.491606e-06	8.854348e-10	1.734075e+01	6.004852e+01
2.410000e-06	2.533093e-06	8.942571e-10	1.762948e+01	6.088930e+01
2.420000e-06	2.574302e-06	9.040775e-10	1.791628e+01	6.170977e+01
2.430000e-06	2.615185e-06	9.166534e-10	1.820082e+01	6.251057e+01
2.440000e-06	2.655798e-06	9.322044e-10	1.848347e+01	6.329233e+01
2.450000e-06	2.696170e-06	9.457417e-10	1.876445e+01	6.405572e+01
2.460000e-06	2.736295e-06	9.565499e-10	1.904370e+01	6.480136e+01
2.470000e-06	2.776241e-06	9.669694e-10	1.932172e+01	6.552991e+01
2.480000e-06	2.816052e-06	9.764945e-10	1.959879e+01	6.624199e+01
2.490000e-06	2.855779e-06	9.870972e-10	1.987528e+01	6.693821e+01
2.500000e-06	2.895434e-06	9.964164e-10	2.015126e+01	6.761914e+01
2.510000e-06	2.935036e-06	1.004055e-09	2.042688e+01	6.828536e+01
2.520000e-06	2.974551e-06	1.013712e-09	2.070189e+01	6.893739e+01
2.530000e-06	3.013848e-06	1.025543e-09	2.097538e+01	6.957574e+01
2.540000e-06	3.052908e-06	1.035615e-09	2.124723e+01	7.020088e+01
2.550000e-06	3.091694e-06	1.043892e-09	2.151716e+01	7.081322e+01
2.560000e-06	3.130155e-06	1.051198e-09	2.178484e+01	7.141318e+01
2.570000e-06	3.168397e-06	1.057456e-09	2.205100e+01	7.200110e+01
2.580000e-06	3.206471e-06	1.062517e-09	2.231598e+01	7.257730e+01
2.590000e-06	3.244365e-06	1.069394e-09	2.257970e+01	7.314206e+01
2.600000e-06	3.282087e-06	1.079122e-09	2.284224e+01	7.369563e+01
2.610000e-06	3.319582e-06	1.088691e-09	2.310319e+01	7.423821e+01
2.620000e-06	3.356848e-06	1.094355e-09	2.336255e+01	7.476996e+01
2.630000e-06	3.393816e-06	1.097924e-09	2.361983e+01	7.529105e+01
2.640000e-06	3.430535e-06	1.102782e-09	2.387538e+01	7.580156e+01
2.650000e-06	3.467013e-06	1.109480e-09	2.412926e+01	7.630158e+01
2.660000e-06	3.503158e-06	1.117853e-09	2.438082e+01	7.679116e+01
2.670000e-06	3.539098e-06	1.124910e-09	2.463094e+01	7.727035e+01
2.680000e-06	3.574912e-06	1.130929e-09	2.488020e+01	7.773915e+01
2.690000e-06	3.610652e-06	1.137906e-09	2.512894e+01	7.819757e+01
2.700000e-06	3.646275e-06	1.144737e-09	2.537687e+01	7.864560e+01
2.710000e-06	3.681746e-06	1.149051e-09	2.562373e+01	7.908321e+01
2.720000e-06	3.717006e-06	1.152827e-09	2.586913e+01	7.951039e+01
2.730000e-06	3.751935e-06	1.158306e-09	2.611222e+01	7.992710e+01
2.740000e-06	3.786484e-06	1.164378e-09	2.635267e+01	8.033333e+01
2.750000e-06	3.820603e-06	1.168759e-09	2.659013e+01	8.072907e+01
2.760000e-06	3.854208e-06	1.172587e-09	2.682401e+01	8.111430e+01
2.770000e-06	3.887231e-06	1.177059e-09	2.705384e+01	8.148903e+01
2.780000e-06	3.919811e-06	1.183018e-09	2.728058e+01	8.185329e+01
2.790000e-06	3.952119e-06	1.191105e-09	2.750543e+01	8.220710e+01
2.800000e-06	3.984182e-06	1.200200e-09	2.772859e+01	8.255052e+01
2.810000e-06	4.016022e-06	1.206275e-09	2.795018e+01	8.288362e+01
2.820000e-06	4.047675e-06	1.210435e-09	2.817047e+01	8.320651e+01
2.830000e-06	4.079203e-06	1.214167e-09	2.838990e+01	8.351930e+01
2.840000e-06	4.110526e-06	1.218433e-09	2.860789e+01	8.382213e+01
2.850000e-06	4.141561e-06	1.224912e-09	2.882389e+01	8.411517e+01
2.860000e-06	4.172324e-06	1.234161e-09	2.903799e+01	8.439860e+01
2.870000e-06	4.202734e-06	1.240686e-09	2.924963e+01	8.467265e+01
2.880000e-06	4.232793e-06	1.243433e-09	2.945883e+01	8.493753e+01
2.890000e-06	4.262676e-06	1.247036e-09	2.966681e+01	8.519350e+01
2.900000e-06	4.292342e-06	1.253012e-09	2.987328e+01	8.544083e+01
