# Temperatura_=_-21.56
# Concentracion g/m^3_=_1620.0
# C_Vs_to_Am_M_A/Vsm_=_65563218390.804596
# pendiente_HvsI_1/m_=_3716.3
# ordenada_HvsI_A/m_=_1297.0
# frecuencia_Hz_=_135109.87480203397

Tiempo_(s)	Campo_(V.s)	Magnetizacion_(V.s)	Campo_(kA/m)	Magnetizacion_(A/m)
0.000000e+00	-5.502340e-06	-6.973171e-10	-3.836211e+01	-4.625090e+01
1.000000e-08	-5.502353e-06	-6.934248e-10	-3.836220e+01	-4.621117e+01
2.000000e-08	-5.502095e-06	-6.922407e-10	-3.836039e+01	-4.617252e+01
3.000000e-08	-5.501441e-06	-6.909893e-10	-3.835584e+01	-4.613502e+01
4.000000e-08	-5.500302e-06	-6.852412e-10	-3.834790e+01	-4.609875e+01
5.000000e-08	-5.498574e-06	-6.701602e-10	-3.833585e+01	-4.606377e+01
6.000000e-08	-5.496157e-06	-6.626090e-10	-3.831900e+01	-4.603014e+01
7.000000e-08	-5.493158e-06	-6.994303e-10	-3.829809e+01	-4.599792e+01
8.000000e-08	-5.489755e-06	-7.630331e-10	-3.827436e+01	-4.596717e+01
9.000000e-08	-5.486009e-06	-7.904341e-10	-3.824825e+01	-4.593793e+01
1.000000e-07	-5.481916e-06	-7.403191e-10	-3.821971e+01	-4.591023e+01
1.100000e-07	-5.477455e-06	-6.559328e-10	-3.818861e+01	-4.588412e+01
1.200000e-07	-5.472713e-06	-6.254860e-10	-3.815555e+01	-4.585962e+01
1.300000e-07	-5.467724e-06	-7.184022e-10	-3.812076e+01	-4.583673e+01
1.400000e-07	-5.462321e-06	-7.153118e-10	-3.808310e+01	-4.581547e+01
1.500000e-07	-5.456609e-06	-6.757530e-10	-3.804327e+01	-4.579584e+01
1.600000e-07	-5.450587e-06	-6.517878e-10	-3.800129e+01	-4.577780e+01
1.700000e-07	-5.444048e-06	-7.500887e-10	-3.795570e+01	-4.576135e+01
1.800000e-07	-5.437037e-06	-7.648981e-10	-3.790682e+01	-4.574644e+01
1.900000e-07	-5.429754e-06	-6.631267e-10	-3.785604e+01	-4.573302e+01
2.000000e-07	-5.422247e-06	-6.212449e-10	-3.780370e+01	-4.572104e+01
2.100000e-07	-5.414467e-06	-6.708521e-10	-3.774946e+01	-4.571042e+01
2.200000e-07	-5.406394e-06	-7.245240e-10	-3.769318e+01	-4.570108e+01
2.300000e-07	-5.398001e-06	-6.684346e-10	-3.763466e+01	-4.569293e+01
2.400000e-07	-5.389057e-06	-6.473044e-10	-3.757230e+01	-4.568586e+01
2.500000e-07	-5.379355e-06	-6.467725e-10	-3.750466e+01	-4.567976e+01
2.600000e-07	-5.369033e-06	-6.830034e-10	-3.743270e+01	-4.567450e+01
2.700000e-07	-5.358229e-06	-6.583638e-10	-3.735737e+01	-4.566994e+01
2.800000e-07	-5.346974e-06	-6.617436e-10	-3.727890e+01	-4.566596e+01
2.900000e-07	-5.335280e-06	-6.544160e-10	-3.719737e+01	-4.566238e+01
3.000000e-07	-5.323224e-06	-6.731825e-10	-3.711331e+01	-4.565907e+01
3.100000e-07	-5.310800e-06	-6.541179e-10	-3.702670e+01	-4.565584e+01
3.200000e-07	-5.297868e-06	-6.545729e-10	-3.693653e+01	-4.565254e+01
3.300000e-07	-5.284503e-06	-6.421646e-10	-3.684336e+01	-4.564899e+01
3.400000e-07	-5.270829e-06	-6.663366e-10	-3.674802e+01	-4.564502e+01
3.500000e-07	-5.256688e-06	-6.722955e-10	-3.664943e+01	-4.564044e+01
3.600000e-07	-5.242077e-06	-6.600267e-10	-3.654756e+01	-4.563508e+01
3.700000e-07	-5.226965e-06	-6.460855e-10	-3.644220e+01	-4.562877e+01
3.800000e-07	-5.211332e-06	-6.638994e-10	-3.633321e+01	-4.562132e+01
3.900000e-07	-5.195218e-06	-6.591694e-10	-3.622086e+01	-4.561256e+01
4.000000e-07	-5.178699e-06	-6.473822e-10	-3.610570e+01	-4.560233e+01
4.100000e-07	-5.161936e-06	-6.742557e-10	-3.598882e+01	-4.559045e+01
4.200000e-07	-5.144848e-06	-6.780411e-10	-3.586969e+01	-4.557678e+01
4.300000e-07	-5.127410e-06	-6.578271e-10	-3.574811e+01	-4.556117e+01
4.400000e-07	-5.109645e-06	-6.721183e-10	-3.562425e+01	-4.554346e+01
4.500000e-07	-5.091469e-06	-7.005367e-10	-3.549753e+01	-4.552354e+01
4.600000e-07	-5.072822e-06	-6.496894e-10	-3.536752e+01	-4.550127e+01
4.700000e-07	-5.053829e-06	-6.479226e-10	-3.523511e+01	-4.547654e+01
4.800000e-07	-5.034589e-06	-6.974924e-10	-3.510096e+01	-4.544926e+01
4.900000e-07	-5.015086e-06	-6.986338e-10	-3.496499e+01	-4.541933e+01
5.000000e-07	-4.995389e-06	-6.492495e-10	-3.482767e+01	-4.538667e+01
5.100000e-07	-4.975455e-06	-6.838933e-10	-3.468868e+01	-4.535123e+01
5.200000e-07	-4.955220e-06	-6.920709e-10	-3.454761e+01	-4.531294e+01
5.300000e-07	-4.934606e-06	-6.581885e-10	-3.440389e+01	-4.527177e+01
5.400000e-07	-4.913540e-06	-6.642694e-10	-3.425701e+01	-4.522769e+01
5.500000e-07	-4.892130e-06	-7.012744e-10	-3.410774e+01	-4.518068e+01
5.600000e-07	-4.870439e-06	-6.576440e-10	-3.395652e+01	-4.513074e+01
5.700000e-07	-4.848367e-06	-6.566437e-10	-3.380263e+01	-4.507787e+01
5.800000e-07	-4.825966e-06	-6.976710e-10	-3.364645e+01	-4.502209e+01
5.900000e-07	-4.803260e-06	-6.825073e-10	-3.348815e+01	-4.496343e+01
6.000000e-07	-4.780179e-06	-6.425492e-10	-3.332723e+01	-4.490192e+01
6.100000e-07	-4.756823e-06	-6.762439e-10	-3.316439e+01	-4.483761e+01
6.200000e-07	-4.733233e-06	-6.782277e-10	-3.299992e+01	-4.477055e+01
6.300000e-07	-4.709437e-06	-6.465479e-10	-3.283402e+01	-4.470079e+01
6.400000e-07	-4.685373e-06	-6.618752e-10	-3.266624e+01	-4.462840e+01
6.500000e-07	-4.660965e-06	-6.833522e-10	-3.249607e+01	-4.455345e+01
6.600000e-07	-4.636191e-06	-6.570883e-10	-3.232335e+01	-4.447601e+01
6.700000e-07	-4.610854e-06	-6.548167e-10	-3.214670e+01	-4.439615e+01
6.800000e-07	-4.584856e-06	-6.728054e-10	-3.196544e+01	-4.431394e+01
6.900000e-07	-4.558293e-06	-6.551001e-10	-3.178025e+01	-4.422945e+01
7.000000e-07	-4.531266e-06	-6.439173e-10	-3.159181e+01	-4.414277e+01
7.100000e-07	-4.503949e-06	-6.575156e-10	-3.140136e+01	-4.405394e+01
7.200000e-07	-4.476472e-06	-6.560649e-10	-3.120979e+01	-4.396305e+01
7.300000e-07	-4.448858e-06	-6.403865e-10	-3.101727e+01	-4.387015e+01
7.400000e-07	-4.421056e-06	-6.502381e-10	-3.082344e+01	-4.377529e+01
7.500000e-07	-4.392984e-06	-6.548641e-10	-3.062772e+01	-4.367853e+01
7.600000e-07	-4.364611e-06	-6.502207e-10	-3.042990e+01	-4.357991e+01
7.700000e-07	-4.335883e-06	-6.465782e-10	-3.022962e+01	-4.347946e+01
7.800000e-07	-4.306819e-06	-6.510726e-10	-3.002698e+01	-4.337721e+01
7.900000e-07	-4.277472e-06	-6.400793e-10	-2.982237e+01	-4.327318e+01
8.000000e-07	-4.247815e-06	-6.358718e-10	-2.961561e+01	-4.316738e+01
8.100000e-07	-4.217882e-06	-6.318540e-10	-2.940691e+01	-4.305980e+01
8.200000e-07	-4.187711e-06	-6.327606e-10	-2.919656e+01	-4.295045e+01
8.300000e-07	-4.157198e-06	-6.287229e-10	-2.898382e+01	-4.283929e+01
8.400000e-07	-4.126337e-06	-6.332647e-10	-2.876866e+01	-4.272632e+01
8.500000e-07	-4.095282e-06	-6.250820e-10	-2.855215e+01	-4.261149e+01
8.600000e-07	-4.064069e-06	-6.162965e-10	-2.833454e+01	-4.249476e+01
8.700000e-07	-4.032700e-06	-6.108905e-10	-2.811583e+01	-4.237608e+01
8.800000e-07	-4.001147e-06	-6.118768e-10	-2.789585e+01	-4.225540e+01
8.900000e-07	-3.969335e-06	-6.064768e-10	-2.767405e+01	-4.213265e+01
9.000000e-07	-3.937270e-06	-6.076396e-10	-2.745050e+01	-4.200777e+01
9.100000e-07	-3.904883e-06	-6.081014e-10	-2.722470e+01	-4.188068e+01
9.200000e-07	-3.872093e-06	-6.050235e-10	-2.699608e+01	-4.175131e+01
9.300000e-07	-3.838923e-06	-6.013036e-10	-2.676483e+01	-4.161959e+01
9.400000e-07	-3.805300e-06	-6.028839e-10	-2.653041e+01	-4.148542e+01
9.500000e-07	-3.771160e-06	-5.965188e-10	-2.629238e+01	-4.134873e+01
9.600000e-07	-3.736558e-06	-5.878895e-10	-2.605114e+01	-4.120944e+01
9.700000e-07	-3.701553e-06	-5.880658e-10	-2.580709e+01	-4.106747e+01
9.800000e-07	-3.666259e-06	-5.883476e-10	-2.556102e+01	-4.092275e+01
9.900000e-07	-3.630807e-06	-5.871743e-10	-2.531385e+01	-4.077520e+01
1.000000e-06	-3.595241e-06	-5.869269e-10	-2.506588e+01	-4.062476e+01
1.010000e-06	-3.559523e-06	-5.869880e-10	-2.481686e+01	-4.047136e+01
1.020000e-06	-3.523620e-06	-5.809436e-10	-2.456655e+01	-4.031494e+01
1.030000e-06	-3.487536e-06	-5.775020e-10	-2.431497e+01	-4.015547e+01
1.040000e-06	-3.451220e-06	-5.750684e-10	-2.406177e+01	-3.999288e+01
1.050000e-06	-3.414681e-06	-5.732851e-10	-2.380703e+01	-3.982716e+01
1.060000e-06	-3.377899e-06	-5.692456e-10	-2.355059e+01	-3.965826e+01
1.070000e-06	-3.340840e-06	-5.707990e-10	-2.329221e+01	-3.948619e+01
1.080000e-06	-3.303521e-06	-5.676390e-10	-2.303202e+01	-3.931091e+01
1.090000e-06	-3.265989e-06	-5.639919e-10	-2.277035e+01	-3.913245e+01
1.100000e-06	-3.228288e-06	-5.600821e-10	-2.250750e+01	-3.895079e+01
1.110000e-06	-3.190364e-06	-5.583780e-10	-2.224310e+01	-3.876596e+01
1.120000e-06	-3.152266e-06	-5.507872e-10	-2.197748e+01	-3.857799e+01
1.130000e-06	-3.113866e-06	-5.466500e-10	-2.170976e+01	-3.838689e+01
1.140000e-06	-3.075142e-06	-5.428483e-10	-2.143978e+01	-3.819272e+01
1.150000e-06	-3.036339e-06	-5.385633e-10	-2.116924e+01	-3.799552e+01
1.160000e-06	-2.997392e-06	-5.322341e-10	-2.089770e+01	-3.779532e+01
1.170000e-06	-2.958209e-06	-5.316694e-10	-2.062452e+01	-3.759219e+01
1.180000e-06	-2.918866e-06	-5.317751e-10	-2.035023e+01	-3.738619e+01
1.190000e-06	-2.879408e-06	-5.315025e-10	-2.007512e+01	-3.717735e+01
1.200000e-06	-2.839836e-06	-5.302623e-10	-1.979923e+01	-3.696576e+01
1.210000e-06	-2.800126e-06	-5.293869e-10	-1.952237e+01	-3.675145e+01
1.220000e-06	-2.760233e-06	-5.273124e-10	-1.924424e+01	-3.653448e+01
1.230000e-06	-2.720170e-06	-5.245306e-10	-1.896492e+01	-3.631490e+01
1.240000e-06	-2.679968e-06	-5.193901e-10	-1.868463e+01	-3.609276e+01
1.250000e-06	-2.639642e-06	-5.121768e-10	-1.840348e+01	-3.586808e+01
1.260000e-06	-2.599107e-06	-5.050575e-10	-1.812088e+01	-3.564090e+01
1.270000e-06	-2.558149e-06	-5.012125e-10	-1.783532e+01	-3.541123e+01
1.280000e-06	-2.516917e-06	-4.996157e-10	-1.754785e+01	-3.517908e+01
1.290000e-06	-2.475469e-06	-4.938290e-10	-1.725888e+01	-3.494443e+01
1.300000e-06	-2.433638e-06	-4.902056e-10	-1.696723e+01	-3.470727e+01
1.310000e-06	-2.391526e-06	-4.869293e-10	-1.667363e+01	-3.446755e+01
1.320000e-06	-2.349054e-06	-4.808792e-10	-1.637751e+01	-3.422523e+01
1.330000e-06	-2.306245e-06	-4.735607e-10	-1.607905e+01	-3.398022e+01
1.340000e-06	-2.263273e-06	-4.701249e-10	-1.577945e+01	-3.373243e+01
1.350000e-06	-2.220096e-06	-4.649265e-10	-1.547842e+01	-3.348176e+01
1.360000e-06	-2.176709e-06	-4.590987e-10	-1.517593e+01	-3.322807e+01
1.370000e-06	-2.133196e-06	-4.586143e-10	-1.487256e+01	-3.297120e+01
1.380000e-06	-2.089613e-06	-4.624696e-10	-1.456870e+01	-3.271099e+01
1.390000e-06	-2.046003e-06	-4.600457e-10	-1.426465e+01	-3.244724e+01
1.400000e-06	-2.002367e-06	-4.548414e-10	-1.396043e+01	-3.217973e+01
1.410000e-06	-1.958612e-06	-4.480842e-10	-1.365537e+01	-3.190822e+01
1.420000e-06	-1.914730e-06	-4.392117e-10	-1.334942e+01	-3.163245e+01
1.430000e-06	-1.870722e-06	-4.311164e-10	-1.304260e+01	-3.135216e+01
1.440000e-06	-1.826616e-06	-4.287157e-10	-1.273509e+01	-3.106704e+01
1.450000e-06	-1.782472e-06	-4.263138e-10	-1.242733e+01	-3.077677e+01
1.460000e-06	-1.738244e-06	-4.224992e-10	-1.211897e+01	-3.048103e+01
1.470000e-06	-1.693961e-06	-4.170763e-10	-1.181023e+01	-3.017947e+01
1.480000e-06	-1.649597e-06	-4.101977e-10	-1.150093e+01	-2.987172e+01
1.490000e-06	-1.605010e-06	-4.033677e-10	-1.119007e+01	-2.955741e+01
1.500000e-06	-1.560231e-06	-4.006505e-10	-1.087787e+01	-2.923616e+01
1.510000e-06	-1.515269e-06	-3.992778e-10	-1.056440e+01	-2.890756e+01
1.520000e-06	-1.470194e-06	-3.966673e-10	-1.025014e+01	-2.857122e+01
1.530000e-06	-1.425042e-06	-3.920904e-10	-9.935338e+00	-2.822673e+01
1.540000e-06	-1.379744e-06	-3.853063e-10	-9.619521e+00	-2.787368e+01
1.550000e-06	-1.334349e-06	-3.790776e-10	-9.303028e+00	-2.751166e+01
1.560000e-06	-1.288867e-06	-3.737834e-10	-8.985935e+00	-2.714026e+01
1.570000e-06	-1.243347e-06	-3.687695e-10	-8.668568e+00	-2.675908e+01
1.580000e-06	-1.197843e-06	-3.653413e-10	-8.351317e+00	-2.636770e+01
1.590000e-06	-1.152259e-06	-3.623858e-10	-8.033508e+00	-2.596575e+01
1.600000e-06	-1.106538e-06	-3.582522e-10	-7.714738e+00	-2.555285e+01
1.610000e-06	-1.060738e-06	-3.500585e-10	-7.395427e+00	-2.512862e+01
1.620000e-06	-1.014865e-06	-3.392002e-10	-7.075597e+00	-2.469271e+01
1.630000e-06	-9.689467e-07	-3.335339e-10	-6.755459e+00	-2.424479e+01
1.640000e-06	-9.229864e-07	-3.279360e-10	-6.435026e+00	-2.378455e+01
1.650000e-06	-8.768650e-07	-3.210695e-10	-6.113470e+00	-2.331168e+01
1.660000e-06	-8.306543e-07	-3.148258e-10	-5.791291e+00	-2.282593e+01
1.670000e-06	-7.844443e-07	-3.072596e-10	-5.469116e+00	-2.232703e+01
1.680000e-06	-7.381544e-07	-2.985384e-10	-5.146384e+00	-2.181479e+01
1.690000e-06	-6.918230e-07	-2.932793e-10	-4.823364e+00	-2.128899e+01
1.700000e-06	-6.454972e-07	-2.877800e-10	-4.500382e+00	-2.074950e+01
1.710000e-06	-5.991223e-07	-2.806402e-10	-4.177058e+00	-2.019616e+01
1.720000e-06	-5.527339e-07	-2.710860e-10	-3.853640e+00	-1.962889e+01
1.730000e-06	-5.062672e-07	-2.592669e-10	-3.529676e+00	-1.904761e+01
1.740000e-06	-4.597605e-07	-2.464756e-10	-3.205433e+00	-1.845230e+01
1.750000e-06	-4.132859e-07	-2.363559e-10	-2.881414e+00	-1.784296e+01
1.760000e-06	-3.667803e-07	-2.303875e-10	-2.557178e+00	-1.721962e+01
1.770000e-06	-3.202247e-07	-2.256193e-10	-2.232594e+00	-1.658235e+01
1.780000e-06	-2.735806e-07	-2.181058e-10	-1.907394e+00	-1.593125e+01
1.790000e-06	-2.269025e-07	-2.094399e-10	-1.581955e+00	-1.526646e+01
1.800000e-06	-1.801686e-07	-1.989662e-10	-1.256129e+00	-1.458816e+01
1.810000e-06	-1.334314e-07	-1.870826e-10	-9.302790e-01	-1.389655e+01
1.820000e-06	-8.671405e-08	-1.760653e-10	-6.045671e-01	-1.319187e+01
1.830000e-06	-3.994472e-08	-1.680260e-10	-2.784931e-01	-1.247439e+01
1.840000e-06	6.827210e-09	-1.624968e-10	4.759905e-02	-1.174442e+01
1.850000e-06	5.359682e-08	-1.564143e-10	3.736750e-01	-1.100227e+01
1.860000e-06	1.003055e-07	-1.475517e-10	6.993263e-01	-1.024833e+01
1.870000e-06	1.469874e-07	-1.347572e-10	1.024791e+00	-9.482968e+00
1.880000e-06	1.936908e-07	-1.192096e-10	1.350405e+00	-8.706615e+00
1.890000e-06	2.403378e-07	-1.025037e-10	1.675626e+00	-7.919711e+00
1.900000e-06	2.869165e-07	-8.936579e-11	2.000371e+00	-7.122723e+00
1.910000e-06	3.334186e-07	-8.169016e-11	2.324582e+00	-6.316142e+00
1.920000e-06	3.799823e-07	-7.775294e-11	2.649222e+00	-5.500479e+00
1.930000e-06	4.266564e-07	-7.118720e-11	2.974632e+00	-4.676265e+00
1.940000e-06	4.732448e-07	-5.876734e-11	3.299445e+00	-3.844052e+00
1.950000e-06	5.196632e-07	-4.338492e-11	3.623072e+00	-3.004406e+00
1.960000e-06	5.660165e-07	-2.760556e-11	3.946246e+00	-2.157910e+00
1.970000e-06	6.124074e-07	-1.376804e-11	4.269681e+00	-1.305158e+00
1.980000e-06	6.587463e-07	-3.390926e-12	4.592754e+00	-4.467583e-01
1.990000e-06	7.050238e-07	5.589801e-12	4.915399e+00	4.166698e-01
2.000000e-06	7.512958e-07	1.191808e-11	5.238006e+00	1.284499e+00
2.010000e-06	7.974537e-07	2.130816e-11	5.559817e+00	2.156095e+00
2.020000e-06	8.434895e-07	3.612525e-11	5.880777e+00	3.030816e+00
2.030000e-06	8.895126e-07	5.406004e-11	6.201648e+00	3.908016e+00
2.040000e-06	9.355088e-07	7.084152e-11	6.522332e+00	4.787047e+00
2.050000e-06	9.814229e-07	8.446323e-11	6.842444e+00	5.667257e+00
2.060000e-06	1.027226e-06	9.547859e-11	7.161784e+00	6.547994e+00
2.070000e-06	1.072923e-06	1.060272e-10	7.480382e+00	7.428609e+00
2.080000e-06	1.118563e-06	1.173453e-10	7.798580e+00	8.308451e+00
2.090000e-06	1.164178e-06	1.301116e-10	8.116606e+00	9.186875e+00
2.100000e-06	1.209766e-06	1.452586e-10	8.434446e+00	1.006324e+01
2.110000e-06	1.255275e-06	1.587795e-10	8.751732e+00	1.093691e+01
2.120000e-06	1.300660e-06	1.715390e-10	9.068152e+00	1.180725e+01
2.130000e-06	1.345919e-06	1.865109e-10	9.383698e+00	1.267365e+01
2.140000e-06	1.391084e-06	2.011593e-10	9.698587e+00	1.353548e+01
2.150000e-06	1.436114e-06	2.122944e-10	1.001253e+01	1.439215e+01
2.160000e-06	1.481084e-06	2.207569e-10	1.032606e+01	1.524306e+01
2.170000e-06	1.526024e-06	2.300333e-10	1.063938e+01	1.608763e+01
2.180000e-06	1.570787e-06	2.426908e-10	1.095146e+01	1.692529e+01
2.190000e-06	1.615399e-06	2.560548e-10	1.126250e+01	1.775548e+01
2.200000e-06	1.659926e-06	2.704394e-10	1.157294e+01	1.857766e+01
2.210000e-06	1.704295e-06	2.833267e-10	1.188228e+01	1.939131e+01
2.220000e-06	1.748462e-06	2.935160e-10	1.219021e+01	2.019591e+01
2.230000e-06	1.792496e-06	3.043522e-10	1.249722e+01	2.099098e+01
2.240000e-06	1.836488e-06	3.136431e-10	1.280392e+01	2.177603e+01
2.250000e-06	1.880422e-06	3.220746e-10	1.311023e+01	2.255060e+01
2.260000e-06	1.924250e-06	3.325612e-10	1.341580e+01	2.331427e+01
2.270000e-06	1.967990e-06	3.468739e-10	1.372075e+01	2.406660e+01
2.280000e-06	2.011663e-06	3.612122e-10	1.402524e+01	2.480720e+01
2.290000e-06	2.055311e-06	3.724188e-10	1.432955e+01	2.553571e+01
2.300000e-06	2.098943e-06	3.808546e-10	1.463375e+01	2.625175e+01
2.310000e-06	2.142472e-06	3.865814e-10	1.493723e+01	2.695501e+01
2.320000e-06	2.185891e-06	3.931868e-10	1.523995e+01	2.764518e+01
2.330000e-06	2.229212e-06	4.025681e-10	1.554198e+01	2.832197e+01
2.340000e-06	2.272346e-06	4.149881e-10	1.584271e+01	2.898513e+01
2.350000e-06	2.315191e-06	4.299203e-10	1.614143e+01	2.963443e+01
2.360000e-06	2.357682e-06	4.448957e-10	1.643767e+01	3.026966e+01
2.370000e-06	2.399939e-06	4.541623e-10	1.673228e+01	3.089063e+01
2.380000e-06	2.442037e-06	4.574838e-10	1.702579e+01	3.149721e+01
2.390000e-06	2.483870e-06	4.597225e-10	1.731745e+01	3.208925e+01
2.400000e-06	2.525297e-06	4.641077e-10	1.760627e+01	3.266667e+01
2.410000e-06	2.566348e-06	4.699900e-10	1.789248e+01	3.322939e+01
2.420000e-06	2.607124e-06	4.791075e-10	1.817677e+01	3.377737e+01
2.430000e-06	2.647650e-06	4.912321e-10	1.845932e+01	3.431059e+01
2.440000e-06	2.687891e-06	4.996597e-10	1.873987e+01	3.482906e+01
2.450000e-06	2.727947e-06	5.041939e-10	1.901915e+01	3.533282e+01
2.460000e-06	2.767913e-06	5.095522e-10	1.929779e+01	3.582193e+01
2.470000e-06	2.807736e-06	5.157714e-10	1.957543e+01	3.629647e+01
2.480000e-06	2.847446e-06	5.232778e-10	1.985228e+01	3.675658e+01
2.490000e-06	2.887068e-06	5.322976e-10	2.012853e+01	3.720237e+01
2.500000e-06	2.926606e-06	5.400819e-10	2.040418e+01	3.763402e+01
2.510000e-06	2.966017e-06	5.472136e-10	2.067896e+01	3.805172e+01
2.520000e-06	3.005138e-06	5.546479e-10	2.095171e+01	3.845567e+01
2.530000e-06	3.043978e-06	5.614722e-10	2.122250e+01	3.884610e+01
2.540000e-06	3.082675e-06	5.675233e-10	2.149229e+01	3.922326e+01
2.550000e-06	3.121137e-06	5.724007e-10	2.176045e+01	3.958741e+01
2.560000e-06	3.159311e-06	5.771154e-10	2.202660e+01	3.993884e+01
2.570000e-06	3.197359e-06	5.813189e-10	2.229186e+01	4.027786e+01
2.580000e-06	3.235196e-06	5.848240e-10	2.255566e+01	4.060476e+01
2.590000e-06	3.272712e-06	5.889893e-10	2.281722e+01	4.091989e+01
2.600000e-06	3.310084e-06	5.934188e-10	2.307778e+01	4.122357e+01
2.610000e-06	3.347234e-06	5.951066e-10	2.333679e+01	4.151616e+01
2.620000e-06	3.384108e-06	5.948452e-10	2.359387e+01	4.179800e+01
2.630000e-06	3.420723e-06	5.974052e-10	2.384915e+01	4.206946e+01
2.640000e-06	3.457093e-06	6.018214e-10	2.410272e+01	4.233089e+01
2.650000e-06	3.493283e-06	6.078167e-10	2.435504e+01	4.258266e+01
2.660000e-06	3.529277e-06	6.141742e-10	2.460598e+01	4.282514e+01
2.670000e-06	3.565094e-06	6.172421e-10	2.485570e+01	4.305870e+01
2.680000e-06	3.600774e-06	6.188684e-10	2.510446e+01	4.328368e+01
2.690000e-06	3.636317e-06	6.233439e-10	2.535226e+01	4.350046e+01
2.700000e-06	3.671692e-06	6.303624e-10	2.559889e+01	4.370937e+01
2.710000e-06	3.706867e-06	6.359736e-10	2.584414e+01	4.391076e+01
2.720000e-06	3.741804e-06	6.405939e-10	2.608771e+01	4.410497e+01
2.730000e-06	3.776344e-06	6.450757e-10	2.632853e+01	4.429232e+01
2.740000e-06	3.810335e-06	6.471148e-10	2.656551e+01	4.447312e+01
2.750000e-06	3.843854e-06	6.471077e-10	2.679920e+01	4.464767e+01
2.760000e-06	3.876914e-06	6.466007e-10	2.702970e+01	4.481626e+01
2.770000e-06	3.909496e-06	6.479819e-10	2.725686e+01	4.497914e+01
2.780000e-06	3.941738e-06	6.516002e-10	2.748165e+01	4.513660e+01
2.790000e-06	3.973743e-06	6.558235e-10	2.770479e+01	4.528885e+01
2.800000e-06	4.005565e-06	6.592771e-10	2.792665e+01	4.543613e+01
2.810000e-06	4.037256e-06	6.616867e-10	2.814759e+01	4.557864e+01
2.820000e-06	4.068760e-06	6.647273e-10	2.836724e+01	4.571657e+01
2.830000e-06	4.100046e-06	6.684510e-10	2.858537e+01	4.585010e+01
2.840000e-06	4.131071e-06	6.719626e-10	2.880167e+01	4.597937e+01
2.850000e-06	4.161776e-06	6.755344e-10	2.901574e+01	4.610455e+01
2.860000e-06	4.192180e-06	6.782605e-10	2.922772e+01	4.622573e+01
2.870000e-06	4.222284e-06	6.797837e-10	2.943761e+01	4.634304e+01
2.880000e-06	4.252099e-06	6.816657e-10	2.964548e+01	4.645657e+01
2.890000e-06	4.281658e-06	6.836330e-10	2.985156e+01	4.656640e+01
2.900000e-06	4.310954e-06	6.858996e-10	3.005581e+01	4.667258e+01
