# Temperatura_=_-10.03
# Concentracion g/m^3_=_1620.0
# C_Vs_to_Am_M_A/Vsm_=_65563218390.804596
# pendiente_HvsI_1/m_=_3716.3
# ordenada_HvsI_A/m_=_1297.0
# frecuencia_Hz_=_135106.83012136407

Tiempo_(s)	Campo_(V.s)	Magnetizacion_(V.s)	Campo_(kA/m)	Magnetizacion_(A/m)
0.000000e+00	-5.538556e-06	-5.753581e-10	-3.836781e+01	-4.035103e+01
1.000000e-08	-5.538901e-06	-5.723721e-10	-3.837020e+01	-4.032497e+01
2.000000e-08	-5.539004e-06	-5.715103e-10	-3.837091e+01	-4.030380e+01
3.000000e-08	-5.538652e-06	-5.712616e-10	-3.836847e+01	-4.028756e+01
4.000000e-08	-5.537698e-06	-5.693228e-10	-3.836186e+01	-4.027628e+01
5.000000e-08	-5.536189e-06	-5.603065e-10	-3.835140e+01	-4.026994e+01
6.000000e-08	-5.534120e-06	-5.546177e-10	-3.833707e+01	-4.026848e+01
7.000000e-08	-5.531486e-06	-5.729563e-10	-3.831883e+01	-4.027185e+01
8.000000e-08	-5.528327e-06	-5.895694e-10	-3.829694e+01	-4.027994e+01
9.000000e-08	-5.524668e-06	-6.005764e-10	-3.827160e+01	-4.029261e+01
1.000000e-07	-5.520631e-06	-6.433044e-10	-3.824363e+01	-4.030969e+01
1.100000e-07	-5.516252e-06	-6.419851e-10	-3.821330e+01	-4.033100e+01
1.200000e-07	-5.511565e-06	-5.385523e-10	-3.818083e+01	-4.035631e+01
1.300000e-07	-5.506655e-06	-4.916073e-10	-3.814682e+01	-4.038538e+01
1.400000e-07	-5.501460e-06	-5.757569e-10	-3.811083e+01	-4.041793e+01
1.500000e-07	-5.495909e-06	-6.466657e-10	-3.807237e+01	-4.045366e+01
1.600000e-07	-5.489981e-06	-5.609070e-10	-3.803130e+01	-4.049226e+01
1.700000e-07	-5.483629e-06	-4.928289e-10	-3.798730e+01	-4.053339e+01
1.800000e-07	-5.476929e-06	-5.906962e-10	-3.794089e+01	-4.057668e+01
1.900000e-07	-5.469846e-06	-6.742977e-10	-3.789182e+01	-4.062176e+01
2.000000e-07	-5.462340e-06	-5.962291e-10	-3.783982e+01	-4.066826e+01
2.100000e-07	-5.454581e-06	-5.261506e-10	-3.778607e+01	-4.071577e+01
2.200000e-07	-5.446583e-06	-5.868964e-10	-3.773067e+01	-4.076389e+01
2.300000e-07	-5.438235e-06	-6.717865e-10	-3.767284e+01	-4.081221e+01
2.400000e-07	-5.429449e-06	-6.416657e-10	-3.761198e+01	-4.086032e+01
2.500000e-07	-5.420120e-06	-5.892984e-10	-3.754735e+01	-4.090781e+01
2.600000e-07	-5.410014e-06	-6.129163e-10	-3.747734e+01	-4.095427e+01
2.700000e-07	-5.399210e-06	-6.508602e-10	-3.740250e+01	-4.099931e+01
2.800000e-07	-5.388088e-06	-6.374061e-10	-3.732545e+01	-4.104252e+01
2.900000e-07	-5.376719e-06	-6.212219e-10	-3.724670e+01	-4.108353e+01
3.000000e-07	-5.364966e-06	-6.400863e-10	-3.716527e+01	-4.112197e+01
3.100000e-07	-5.352732e-06	-6.515399e-10	-3.708052e+01	-4.115749e+01
3.200000e-07	-5.339984e-06	-6.466703e-10	-3.699222e+01	-4.118976e+01
3.300000e-07	-5.326794e-06	-6.278485e-10	-3.690084e+01	-4.121846e+01
3.400000e-07	-5.313215e-06	-6.407519e-10	-3.680677e+01	-4.124332e+01
3.500000e-07	-5.299232e-06	-6.681287e-10	-3.670991e+01	-4.126406e+01
3.600000e-07	-5.284809e-06	-6.588760e-10	-3.660999e+01	-4.128045e+01
3.700000e-07	-5.269975e-06	-6.220339e-10	-3.650723e+01	-4.129227e+01
3.800000e-07	-5.254701e-06	-6.508986e-10	-3.640142e+01	-4.129934e+01
3.900000e-07	-5.238855e-06	-6.739970e-10	-3.629165e+01	-4.130151e+01
4.000000e-07	-5.222506e-06	-6.278521e-10	-3.617840e+01	-4.129865e+01
4.100000e-07	-5.205823e-06	-6.264702e-10	-3.606283e+01	-4.129066e+01
4.200000e-07	-5.188861e-06	-6.879672e-10	-3.594532e+01	-4.127747e+01
4.300000e-07	-5.171536e-06	-6.477614e-10	-3.582531e+01	-4.125906e+01
4.400000e-07	-5.153807e-06	-5.932269e-10	-3.570249e+01	-4.123541e+01
4.500000e-07	-5.135707e-06	-6.693814e-10	-3.557711e+01	-4.120654e+01
4.600000e-07	-5.117184e-06	-6.971769e-10	-3.544879e+01	-4.117250e+01
4.700000e-07	-5.098189e-06	-6.016610e-10	-3.531721e+01	-4.113336e+01
4.800000e-07	-5.078873e-06	-6.252481e-10	-3.518339e+01	-4.108922e+01
4.900000e-07	-5.059402e-06	-7.058707e-10	-3.504851e+01	-4.104020e+01
5.000000e-07	-5.039753e-06	-6.382683e-10	-3.491239e+01	-4.098646e+01
5.100000e-07	-5.019849e-06	-5.946202e-10	-3.477451e+01	-4.092814e+01
5.200000e-07	-4.999677e-06	-6.782990e-10	-3.463477e+01	-4.086543e+01
5.300000e-07	-4.979233e-06	-6.619134e-10	-3.449315e+01	-4.079854e+01
5.400000e-07	-4.958428e-06	-5.985370e-10	-3.434903e+01	-4.072767e+01
5.500000e-07	-4.937167e-06	-6.717485e-10	-3.420174e+01	-4.065305e+01
5.600000e-07	-4.915545e-06	-7.007097e-10	-3.405196e+01	-4.057491e+01
5.700000e-07	-4.893578e-06	-6.110781e-10	-3.389978e+01	-4.049349e+01
5.800000e-07	-4.871257e-06	-6.274698e-10	-3.374516e+01	-4.040903e+01
5.900000e-07	-4.848618e-06	-6.918146e-10	-3.358832e+01	-4.032179e+01
6.000000e-07	-4.825578e-06	-6.346665e-10	-3.342872e+01	-4.023201e+01
6.100000e-07	-4.802224e-06	-6.067086e-10	-3.326693e+01	-4.013994e+01
6.200000e-07	-4.778663e-06	-6.632993e-10	-3.310372e+01	-4.004583e+01
6.300000e-07	-4.754894e-06	-6.466192e-10	-3.293906e+01	-3.994990e+01
6.400000e-07	-4.730936e-06	-6.058468e-10	-3.277309e+01	-3.985240e+01
6.500000e-07	-4.706640e-06	-6.431324e-10	-3.260478e+01	-3.975354e+01
6.600000e-07	-4.681832e-06	-6.504105e-10	-3.243293e+01	-3.965353e+01
6.700000e-07	-4.656445e-06	-6.174229e-10	-3.225706e+01	-3.955257e+01
6.800000e-07	-4.630459e-06	-6.337359e-10	-3.207705e+01	-3.945084e+01
6.900000e-07	-4.603928e-06	-6.524907e-10	-3.189326e+01	-3.934852e+01
7.000000e-07	-4.576954e-06	-6.267246e-10	-3.170640e+01	-3.924576e+01
7.100000e-07	-4.549705e-06	-6.256542e-10	-3.151763e+01	-3.914270e+01
7.200000e-07	-4.522225e-06	-6.402112e-10	-3.132727e+01	-3.903945e+01
7.300000e-07	-4.494533e-06	-6.247396e-10	-3.113544e+01	-3.893612e+01
7.400000e-07	-4.466643e-06	-6.115604e-10	-3.094223e+01	-3.883281e+01
7.500000e-07	-4.438501e-06	-6.233511e-10	-3.074728e+01	-3.872957e+01
7.600000e-07	-4.410018e-06	-6.217324e-10	-3.054996e+01	-3.862646e+01
7.700000e-07	-4.381179e-06	-6.110384e-10	-3.035019e+01	-3.852351e+01
7.800000e-07	-4.352076e-06	-6.095108e-10	-3.014858e+01	-3.842075e+01
7.900000e-07	-4.322710e-06	-6.075883e-10	-2.994515e+01	-3.831817e+01
8.000000e-07	-4.293078e-06	-5.994947e-10	-2.973987e+01	-3.821577e+01
8.100000e-07	-4.263157e-06	-5.990780e-10	-2.953260e+01	-3.811351e+01
8.200000e-07	-4.232945e-06	-5.959134e-10	-2.932331e+01	-3.801135e+01
8.300000e-07	-4.202363e-06	-5.859204e-10	-2.911146e+01	-3.790924e+01
8.400000e-07	-4.171394e-06	-5.862357e-10	-2.889692e+01	-3.780712e+01
8.500000e-07	-4.140198e-06	-5.900418e-10	-2.868082e+01	-3.770492e+01
8.600000e-07	-4.108819e-06	-5.823853e-10	-2.846344e+01	-3.760254e+01
8.700000e-07	-4.077309e-06	-5.770091e-10	-2.824515e+01	-3.749990e+01
8.800000e-07	-4.045676e-06	-5.817860e-10	-2.802603e+01	-3.739690e+01
8.900000e-07	-4.013866e-06	-5.806734e-10	-2.780567e+01	-3.729344e+01
9.000000e-07	-3.981796e-06	-5.751091e-10	-2.758350e+01	-3.718941e+01
9.100000e-07	-3.949334e-06	-5.755837e-10	-2.735862e+01	-3.708470e+01
9.200000e-07	-3.916420e-06	-5.732024e-10	-2.713061e+01	-3.697920e+01
9.300000e-07	-3.883120e-06	-5.653422e-10	-2.689994e+01	-3.687281e+01
9.400000e-07	-3.849356e-06	-5.670527e-10	-2.666603e+01	-3.676540e+01
9.500000e-07	-3.815020e-06	-5.698677e-10	-2.642817e+01	-3.665688e+01
9.600000e-07	-3.780268e-06	-5.645124e-10	-2.618744e+01	-3.654713e+01
9.700000e-07	-3.745133e-06	-5.621398e-10	-2.594404e+01	-3.643605e+01
9.800000e-07	-3.709772e-06	-5.654597e-10	-2.569908e+01	-3.632354e+01
9.900000e-07	-3.674312e-06	-5.597146e-10	-2.545343e+01	-3.620950e+01
1.000000e-06	-3.638709e-06	-5.518400e-10	-2.520680e+01	-3.609385e+01
1.010000e-06	-3.603011e-06	-5.518329e-10	-2.495951e+01	-3.597650e+01
1.020000e-06	-3.567154e-06	-5.526877e-10	-2.471111e+01	-3.585737e+01
1.030000e-06	-3.531163e-06	-5.481265e-10	-2.446178e+01	-3.573638e+01
1.040000e-06	-3.494976e-06	-5.481163e-10	-2.421110e+01	-3.561346e+01
1.050000e-06	-3.458393e-06	-5.504165e-10	-2.395768e+01	-3.548854e+01
1.060000e-06	-3.421445e-06	-5.475144e-10	-2.370172e+01	-3.536157e+01
1.070000e-06	-3.384276e-06	-5.422726e-10	-2.344424e+01	-3.523250e+01
1.080000e-06	-3.346865e-06	-5.392993e-10	-2.318508e+01	-3.510126e+01
1.090000e-06	-3.309247e-06	-5.366207e-10	-2.292448e+01	-3.496781e+01
1.100000e-06	-3.271477e-06	-5.349126e-10	-2.266284e+01	-3.483210e+01
1.110000e-06	-3.233419e-06	-5.329387e-10	-2.239919e+01	-3.469410e+01
1.120000e-06	-3.195095e-06	-5.296710e-10	-2.213371e+01	-3.455376e+01
1.130000e-06	-3.156593e-06	-5.258291e-10	-2.186699e+01	-3.441103e+01
1.140000e-06	-3.117869e-06	-5.246686e-10	-2.159873e+01	-3.426589e+01
1.150000e-06	-3.078878e-06	-5.234914e-10	-2.132862e+01	-3.411828e+01
1.160000e-06	-3.039710e-06	-5.179677e-10	-2.105729e+01	-3.396816e+01
1.170000e-06	-3.000409e-06	-5.125087e-10	-2.078504e+01	-3.381549e+01
1.180000e-06	-2.960960e-06	-5.108313e-10	-2.051176e+01	-3.366022e+01
1.190000e-06	-2.921437e-06	-5.086769e-10	-2.023797e+01	-3.350229e+01
1.200000e-06	-2.881789e-06	-5.038887e-10	-1.996331e+01	-3.334164e+01
1.210000e-06	-2.841990e-06	-5.008099e-10	-1.968761e+01	-3.317822e+01
1.220000e-06	-2.802078e-06	-4.988154e-10	-1.941112e+01	-3.301194e+01
1.230000e-06	-2.761999e-06	-4.968869e-10	-1.913348e+01	-3.284274e+01
1.240000e-06	-2.721709e-06	-4.943148e-10	-1.885437e+01	-3.267052e+01
1.250000e-06	-2.681164e-06	-4.906492e-10	-1.857350e+01	-3.249519e+01
1.260000e-06	-2.640353e-06	-4.833104e-10	-1.829079e+01	-3.231666e+01
1.270000e-06	-2.599215e-06	-4.763764e-10	-1.800580e+01	-3.213480e+01
1.280000e-06	-2.557621e-06	-4.744939e-10	-1.771767e+01	-3.194950e+01
1.290000e-06	-2.515643e-06	-4.762930e-10	-1.742687e+01	-3.176062e+01
1.300000e-06	-2.473380e-06	-4.765981e-10	-1.713410e+01	-3.156803e+01
1.310000e-06	-2.430797e-06	-4.744943e-10	-1.683911e+01	-3.137157e+01
1.320000e-06	-2.387976e-06	-4.688078e-10	-1.654247e+01	-3.117108e+01
1.330000e-06	-2.344982e-06	-4.580966e-10	-1.624463e+01	-3.096641e+01
1.340000e-06	-2.301814e-06	-4.492930e-10	-1.594559e+01	-3.075735e+01
1.350000e-06	-2.258422e-06	-4.466962e-10	-1.564499e+01	-3.054373e+01
1.360000e-06	-2.214825e-06	-4.444367e-10	-1.534298e+01	-3.032535e+01
1.370000e-06	-2.171150e-06	-4.424256e-10	-1.504043e+01	-3.010201e+01
1.380000e-06	-2.127438e-06	-4.460481e-10	-1.473762e+01	-2.987348e+01
1.390000e-06	-2.083724e-06	-4.496041e-10	-1.443480e+01	-2.963954e+01
1.400000e-06	-2.039955e-06	-4.462655e-10	-1.413158e+01	-2.939998e+01
1.410000e-06	-1.996111e-06	-4.382493e-10	-1.382786e+01	-2.915454e+01
1.420000e-06	-1.952169e-06	-4.300413e-10	-1.352346e+01	-2.890299e+01
1.430000e-06	-1.908089e-06	-4.231839e-10	-1.321810e+01	-2.864508e+01
1.440000e-06	-1.863905e-06	-4.181569e-10	-1.291202e+01	-2.838057e+01
1.450000e-06	-1.819653e-06	-4.171483e-10	-1.260546e+01	-2.810919e+01
1.460000e-06	-1.775230e-06	-4.175937e-10	-1.229773e+01	-2.783068e+01
1.470000e-06	-1.730574e-06	-4.147608e-10	-1.198838e+01	-2.754479e+01
1.480000e-06	-1.685798e-06	-4.108170e-10	-1.167820e+01	-2.725126e+01
1.490000e-06	-1.640867e-06	-4.038624e-10	-1.136695e+01	-2.694981e+01
1.500000e-06	-1.595752e-06	-3.937254e-10	-1.105442e+01	-2.664020e+01
1.510000e-06	-1.550570e-06	-3.863459e-10	-1.074142e+01	-2.632214e+01
1.520000e-06	-1.505341e-06	-3.808397e-10	-1.042810e+01	-2.599539e+01
1.530000e-06	-1.460015e-06	-3.740366e-10	-1.011411e+01	-2.565969e+01
1.540000e-06	-1.414535e-06	-3.677874e-10	-9.799049e+00	-2.531478e+01
1.550000e-06	-1.368955e-06	-3.637536e-10	-9.483299e+00	-2.496040e+01
1.560000e-06	-1.323375e-06	-3.615618e-10	-9.167549e+00	-2.459631e+01
1.570000e-06	-1.277693e-06	-3.586491e-10	-8.851095e+00	-2.422227e+01
1.580000e-06	-1.231855e-06	-3.528585e-10	-8.533552e+00	-2.383804e+01
1.590000e-06	-1.185982e-06	-3.465082e-10	-8.215772e+00	-2.344338e+01
1.600000e-06	-1.140064e-06	-3.397672e-10	-7.897684e+00	-2.303809e+01
1.610000e-06	-1.094101e-06	-3.307605e-10	-7.579274e+00	-2.262193e+01
1.620000e-06	-1.048092e-06	-3.221297e-10	-7.260554e+00	-2.219471e+01
1.630000e-06	-1.001951e-06	-3.185827e-10	-6.940920e+00	-2.175622e+01
1.640000e-06	-9.556517e-07	-3.171374e-10	-6.620183e+00	-2.130628e+01
1.650000e-06	-9.092187e-07	-3.108551e-10	-6.298523e+00	-2.084472e+01
1.660000e-06	-8.627457e-07	-3.004335e-10	-5.976586e+00	-2.037136e+01
1.670000e-06	-8.162601e-07	-2.894029e-10	-5.654562e+00	-1.988606e+01
1.680000e-06	-7.697477e-07	-2.782484e-10	-5.332351e+00	-1.938868e+01
1.690000e-06	-7.231459e-07	-2.686219e-10	-5.009522e+00	-1.887908e+01
1.700000e-06	-6.764494e-07	-2.597174e-10	-4.686037e+00	-1.835716e+01
1.710000e-06	-6.297681e-07	-2.522968e-10	-4.362657e+00	-1.782281e+01
1.720000e-06	-5.830843e-07	-2.474615e-10	-4.039259e+00	-1.727597e+01
1.730000e-06	-5.362863e-07	-2.392643e-10	-3.715070e+00	-1.671656e+01
1.740000e-06	-4.894156e-07	-2.258996e-10	-3.390379e+00	-1.614454e+01
1.750000e-06	-4.424821e-07	-2.142128e-10	-3.065251e+00	-1.555988e+01
1.760000e-06	-3.955314e-07	-2.067278e-10	-2.740005e+00	-1.496258e+01
1.770000e-06	-3.485885e-07	-2.001417e-10	-2.414813e+00	-1.435264e+01
1.780000e-06	-3.016265e-07	-1.939304e-10	-2.089488e+00	-1.373011e+01
1.790000e-06	-2.547153e-07	-1.884691e-10	-1.764515e+00	-1.309503e+01
1.800000e-06	-2.077954e-07	-1.796635e-10	-1.439482e+00	-1.244748e+01
1.810000e-06	-1.608243e-07	-1.680800e-10	-1.114095e+00	-1.178757e+01
1.820000e-06	-1.138137e-07	-1.550417e-10	-7.884329e-01	-1.111542e+01
1.830000e-06	-6.676913e-08	-1.459394e-10	-4.625366e-01	-1.043119e+01
1.840000e-06	-1.976179e-08	-1.408892e-10	-1.368979e-01	-9.735048e+00
1.850000e-06	2.719415e-08	-1.344012e-10	1.883848e-01	-9.027207e+00
1.860000e-06	7.418583e-08	-1.261336e-10	5.139151e-01	-8.307896e+00
1.870000e-06	1.211958e-07	-1.162382e-10	8.395717e-01	-7.577375e+00
1.880000e-06	1.681795e-07	-1.050064e-10	1.165047e+00	-6.835933e+00
1.890000e-06	2.151081e-07	-9.384010e-11	1.490140e+00	-6.083885e+00
1.900000e-06	2.620083e-07	-8.300857e-11	1.815036e+00	-5.321579e+00
1.910000e-06	3.088737e-07	-6.939101e-11	2.139692e+00	-4.549390e+00
1.920000e-06	3.556939e-07	-5.793201e-11	2.464035e+00	-3.767722e+00
1.930000e-06	4.024902e-07	-4.948284e-11	2.788212e+00	-2.977007e+00
1.940000e-06	4.492951e-07	-3.825503e-11	3.112447e+00	-2.177710e+00
1.950000e-06	4.961366e-07	-2.399599e-11	3.436938e+00	-1.370320e+00
1.960000e-06	5.429354e-07	-9.778010e-12	3.761132e+00	-5.553562e-01
1.970000e-06	5.896465e-07	4.196290e-12	4.084718e+00	2.666345e-01
1.980000e-06	6.362136e-07	1.671556e-11	4.407307e+00	1.095080e+00
1.990000e-06	6.827056e-07	2.592257e-11	4.729376e+00	1.929380e+00
2.000000e-06	7.291978e-07	3.255543e-11	5.051446e+00	2.768914e+00
2.010000e-06	7.756655e-07	4.341608e-11	5.373347e+00	3.613035e+00
2.020000e-06	8.221593e-07	5.908444e-11	5.695428e+00	4.461075e+00
2.030000e-06	8.686220e-07	7.604997e-11	6.017293e+00	5.312347e+00
2.040000e-06	9.149860e-07	9.097168e-11	6.338476e+00	6.166144e+00
2.050000e-06	9.612865e-07	1.039966e-10	6.659218e+00	7.021745e+00
2.060000e-06	1.007481e-06	1.151802e-10	6.979224e+00	7.878412e+00
2.070000e-06	1.053542e-06	1.263906e-10	7.298311e+00	8.735397e+00
2.080000e-06	1.099527e-06	1.369753e-10	7.616862e+00	9.591942e+00
2.090000e-06	1.145471e-06	1.469482e-10	7.935137e+00	1.044728e+01
2.100000e-06	1.191343e-06	1.619702e-10	8.252915e+00	1.130064e+01
2.110000e-06	1.237048e-06	1.780215e-10	8.569530e+00	1.215126e+01
2.120000e-06	1.282607e-06	1.918658e-10	8.885135e+00	1.299835e+01
2.130000e-06	1.328119e-06	2.053752e-10	9.200417e+00	1.384115e+01
2.140000e-06	1.373576e-06	2.175359e-10	9.515312e+00	1.467890e+01
2.150000e-06	1.418983e-06	2.281338e-10	9.829864e+00	1.551085e+01
2.160000e-06	1.464326e-06	2.381085e-10	1.014397e+01	1.633624e+01
2.170000e-06	1.509582e-06	2.471518e-10	1.045748e+01	1.715436e+01
2.180000e-06	1.554724e-06	2.578597e-10	1.077020e+01	1.796450e+01
2.190000e-06	1.599791e-06	2.702536e-10	1.108240e+01	1.876595e+01
2.200000e-06	1.644773e-06	2.830269e-10	1.139400e+01	1.955807e+01
2.210000e-06	1.689601e-06	2.940988e-10	1.170454e+01	2.034019e+01
2.220000e-06	1.734229e-06	3.042428e-10	1.201370e+01	2.111170e+01
2.230000e-06	1.778690e-06	3.142979e-10	1.232170e+01	2.187202e+01
2.240000e-06	1.823021e-06	3.232907e-10	1.262880e+01	2.262060e+01
2.250000e-06	1.867233e-06	3.302204e-10	1.293507e+01	2.335690e+01
2.260000e-06	1.911345e-06	3.371769e-10	1.324066e+01	2.408045e+01
2.270000e-06	1.955286e-06	3.460470e-10	1.354505e+01	2.479078e+01
2.280000e-06	1.999123e-06	3.595079e-10	1.384873e+01	2.548750e+01
2.290000e-06	2.042904e-06	3.733514e-10	1.415202e+01	2.617022e+01
2.300000e-06	2.086607e-06	3.853048e-10	1.445477e+01	2.683862e+01
2.310000e-06	2.130249e-06	3.945779e-10	1.475709e+01	2.749240e+01
2.320000e-06	2.173846e-06	4.007469e-10	1.505911e+01	2.813130e+01
2.330000e-06	2.217423e-06	4.055248e-10	1.536098e+01	2.875512e+01
2.340000e-06	2.260903e-06	4.118771e-10	1.566218e+01	2.936369e+01
2.350000e-06	2.304181e-06	4.216927e-10	1.596199e+01	2.995688e+01
2.360000e-06	2.347361e-06	4.361433e-10	1.626111e+01	3.053460e+01
2.370000e-06	2.390462e-06	4.499293e-10	1.655969e+01	3.109680e+01
2.380000e-06	2.433268e-06	4.586774e-10	1.685623e+01	3.164347e+01
2.390000e-06	2.475722e-06	4.626820e-10	1.715032e+01	3.217463e+01
2.400000e-06	2.517877e-06	4.633223e-10	1.744234e+01	3.269035e+01
2.410000e-06	2.559621e-06	4.655488e-10	1.773152e+01	3.319072e+01
2.420000e-06	2.601011e-06	4.710691e-10	1.801825e+01	3.367587e+01
2.430000e-06	2.642121e-06	4.820613e-10	1.830303e+01	3.414596e+01
2.440000e-06	2.682961e-06	4.953836e-10	1.858595e+01	3.460117e+01
2.450000e-06	2.723554e-06	5.055641e-10	1.886716e+01	3.504172e+01
2.460000e-06	2.763820e-06	5.143905e-10	1.914609e+01	3.546784e+01
2.470000e-06	2.803825e-06	5.210949e-10	1.942322e+01	3.587980e+01
2.480000e-06	2.843684e-06	5.235119e-10	1.969934e+01	3.627785e+01
2.490000e-06	2.883392e-06	5.253922e-10	1.997442e+01	3.666231e+01
2.500000e-06	2.922966e-06	5.286861e-10	2.024856e+01	3.703347e+01
2.510000e-06	2.962455e-06	5.327008e-10	2.052211e+01	3.739165e+01
2.520000e-06	3.001858e-06	5.393913e-10	2.079507e+01	3.773718e+01
2.530000e-06	3.041137e-06	5.527431e-10	2.106718e+01	3.807039e+01
2.540000e-06	3.080241e-06	5.622561e-10	2.133807e+01	3.839162e+01
2.550000e-06	3.119179e-06	5.651980e-10	2.160780e+01	3.870120e+01
2.560000e-06	3.157850e-06	5.664604e-10	2.187570e+01	3.899949e+01
2.570000e-06	3.196242e-06	5.690456e-10	2.214165e+01	3.928680e+01
2.580000e-06	3.234401e-06	5.710263e-10	2.240599e+01	3.956348e+01
2.590000e-06	3.272314e-06	5.739722e-10	2.266864e+01	3.982984e+01
2.600000e-06	3.310057e-06	5.800712e-10	2.293009e+01	4.008621e+01
2.610000e-06	3.347612e-06	5.855587e-10	2.319026e+01	4.033290e+01
2.620000e-06	3.384878e-06	5.894805e-10	2.344841e+01	4.057020e+01
2.630000e-06	3.421880e-06	5.934934e-10	2.370473e+01	4.079840e+01
2.640000e-06	3.458674e-06	5.968089e-10	2.395963e+01	4.101777e+01
2.650000e-06	3.495182e-06	6.007251e-10	2.421253e+01	4.122858e+01
2.660000e-06	3.531399e-06	6.044180e-10	2.446342e+01	4.143107e+01
2.670000e-06	3.567410e-06	6.055558e-10	2.471289e+01	4.162548e+01
2.680000e-06	3.603280e-06	6.052708e-10	2.496137e+01	4.181202e+01
2.690000e-06	3.639018e-06	6.075006e-10	2.520894e+01	4.199090e+01
2.700000e-06	3.674618e-06	6.102819e-10	2.545556e+01	4.216232e+01
2.710000e-06	3.710004e-06	6.108888e-10	2.570069e+01	4.232645e+01
2.720000e-06	3.745190e-06	6.135876e-10	2.594444e+01	4.248346e+01
2.730000e-06	3.780231e-06	6.178797e-10	2.618718e+01	4.263349e+01
2.740000e-06	3.815000e-06	6.201990e-10	2.642804e+01	4.277670e+01
2.750000e-06	3.849347e-06	6.193608e-10	2.666597e+01	4.291321e+01
2.760000e-06	3.883212e-06	6.196890e-10	2.690057e+01	4.304314e+01
2.770000e-06	3.916522e-06	6.212277e-10	2.713132e+01	4.316661e+01
2.780000e-06	3.949341e-06	6.241481e-10	2.735867e+01	4.328373e+01
2.790000e-06	3.981763e-06	6.273878e-10	2.758327e+01	4.339458e+01
2.800000e-06	4.013886e-06	6.290189e-10	2.780580e+01	4.349928e+01
2.810000e-06	4.045794e-06	6.314537e-10	2.802684e+01	4.359789e+01
2.820000e-06	4.077458e-06	6.343894e-10	2.824619e+01	4.369053e+01
2.830000e-06	4.108937e-06	6.365411e-10	2.846426e+01	4.377726e+01
2.840000e-06	4.140253e-06	6.392526e-10	2.868120e+01	4.385817e+01
2.850000e-06	4.171353e-06	6.429712e-10	2.889664e+01	4.393336e+01
2.860000e-06	4.202165e-06	6.465286e-10	2.911008e+01	4.400291e+01
2.870000e-06	4.232696e-06	6.463857e-10	2.932158e+01	4.406691e+01
2.880000e-06	4.262876e-06	6.448926e-10	2.953065e+01	4.412544e+01
2.890000e-06	4.292681e-06	6.448321e-10	2.973713e+01	4.417862e+01
2.900000e-06	4.322268e-06	6.480710e-10	2.994209e+01	4.422653e+01
