# Temperatura_=_-0.6
# Concentracion g/m^3_=_1620.0
# C_Vs_to_Am_M_A/Vsm_=_65563218390.804596
# pendiente_HvsI_1/m_=_3716.3
# ordenada_HvsI_A/m_=_1297.0
# frecuencia_Hz_=_135097.87421178346

Tiempo_(s)	Campo_(V.s)	Magnetizacion_(V.s)	Campo_(kA/m)	Magnetizacion_(A/m)
0.000000e+00	-5.509135e-06	-1.453859e-09	-3.837956e+01	-9.516739e+01
1.000000e-08	-5.509320e-06	-1.452226e-09	-3.838085e+01	-9.510194e+01
2.000000e-08	-5.509137e-06	-1.454552e-09	-3.837958e+01	-9.503189e+01
3.000000e-08	-5.508571e-06	-1.455616e-09	-3.837563e+01	-9.495728e+01
4.000000e-08	-5.507596e-06	-1.451979e-09	-3.836884e+01	-9.487821e+01
5.000000e-08	-5.506022e-06	-1.441020e-09	-3.835788e+01	-9.479476e+01
6.000000e-08	-5.503868e-06	-1.441124e-09	-3.834287e+01	-9.470704e+01
7.000000e-08	-5.501128e-06	-1.468938e-09	-3.832378e+01	-9.461517e+01
8.000000e-08	-5.497789e-06	-1.447249e-09	-3.830052e+01	-9.451929e+01
9.000000e-08	-5.494083e-06	-1.437692e-09	-3.827471e+01	-9.441956e+01
1.000000e-07	-5.490121e-06	-1.569548e-09	-3.824710e+01	-9.431612e+01
1.100000e-07	-5.485741e-06	-1.570515e-09	-3.821659e+01	-9.420916e+01
1.200000e-07	-5.481010e-06	-1.367352e-09	-3.818363e+01	-9.409886e+01
1.300000e-07	-5.476162e-06	-1.320379e-09	-3.814986e+01	-9.398540e+01
1.400000e-07	-5.470987e-06	-1.465445e-09	-3.811381e+01	-9.386898e+01
1.500000e-07	-5.465331e-06	-1.588040e-09	-3.807440e+01	-9.374981e+01
1.600000e-07	-5.459317e-06	-1.387711e-09	-3.803250e+01	-9.362808e+01
1.700000e-07	-5.453018e-06	-1.329576e-09	-3.798862e+01	-9.350399e+01
1.800000e-07	-5.446272e-06	-1.489561e-09	-3.794163e+01	-9.337776e+01
1.900000e-07	-5.439002e-06	-1.556647e-09	-3.789098e+01	-9.324958e+01
2.000000e-07	-5.431428e-06	-1.416611e-09	-3.783822e+01	-9.311964e+01
2.100000e-07	-5.423698e-06	-1.339049e-09	-3.778436e+01	-9.298812e+01
2.200000e-07	-5.415714e-06	-1.452600e-09	-3.772874e+01	-9.285521e+01
2.300000e-07	-5.407259e-06	-1.495200e-09	-3.766984e+01	-9.272106e+01
2.400000e-07	-5.398318e-06	-1.427283e-09	-3.760755e+01	-9.258582e+01
2.500000e-07	-5.388902e-06	-1.360044e-09	-3.754195e+01	-9.244963e+01
2.600000e-07	-5.378700e-06	-1.413916e-09	-3.747088e+01	-9.231260e+01
2.700000e-07	-5.367793e-06	-1.419351e-09	-3.739490e+01	-9.217483e+01
2.800000e-07	-5.356559e-06	-1.415622e-09	-3.731664e+01	-9.203639e+01
2.900000e-07	-5.344983e-06	-1.383919e-09	-3.723599e+01	-9.189733e+01
3.000000e-07	-5.332992e-06	-1.398711e-09	-3.715245e+01	-9.175770e+01
3.100000e-07	-5.320633e-06	-1.402355e-09	-3.706636e+01	-9.161749e+01
3.200000e-07	-5.307885e-06	-1.416436e-09	-3.697755e+01	-9.147668e+01
3.300000e-07	-5.294659e-06	-1.355076e-09	-3.688541e+01	-9.133523e+01
3.400000e-07	-5.281063e-06	-1.360446e-09	-3.679069e+01	-9.119307e+01
3.500000e-07	-5.267189e-06	-1.422344e-09	-3.669404e+01	-9.105011e+01
3.600000e-07	-5.252785e-06	-1.405042e-09	-3.659369e+01	-9.090622e+01
3.700000e-07	-5.237717e-06	-1.342469e-09	-3.648872e+01	-9.076127e+01
3.800000e-07	-5.222142e-06	-1.414652e-09	-3.638022e+01	-9.061508e+01
3.900000e-07	-5.206157e-06	-1.422029e-09	-3.626885e+01	-9.046746e+01
4.000000e-07	-5.189711e-06	-1.304201e-09	-3.615429e+01	-9.031821e+01
4.100000e-07	-5.172917e-06	-1.352704e-09	-3.603729e+01	-9.016709e+01
4.200000e-07	-5.156030e-06	-1.461225e-09	-3.591964e+01	-9.001386e+01
4.300000e-07	-5.138797e-06	-1.331444e-09	-3.579959e+01	-8.985825e+01
4.400000e-07	-5.120996e-06	-1.270072e-09	-3.567558e+01	-8.969999e+01
4.500000e-07	-5.102802e-06	-1.460421e-09	-3.554883e+01	-8.953878e+01
4.600000e-07	-5.084245e-06	-1.415323e-09	-3.541955e+01	-8.937434e+01
4.700000e-07	-5.065219e-06	-1.241219e-09	-3.528701e+01	-8.920637e+01
4.800000e-07	-5.045877e-06	-1.364441e-09	-3.515226e+01	-8.903456e+01
4.900000e-07	-5.026421e-06	-1.461349e-09	-3.501672e+01	-8.885860e+01
5.000000e-07	-5.006777e-06	-1.264661e-09	-3.487987e+01	-8.867820e+01
5.100000e-07	-4.986893e-06	-1.295032e-09	-3.474135e+01	-8.849308e+01
5.200000e-07	-4.966774e-06	-1.451096e-09	-3.460119e+01	-8.830293e+01
5.300000e-07	-4.946198e-06	-1.317812e-09	-3.445784e+01	-8.810749e+01
5.400000e-07	-4.925176e-06	-1.239413e-09	-3.431139e+01	-8.790651e+01
5.500000e-07	-4.903890e-06	-1.431035e-09	-3.416311e+01	-8.769975e+01
5.600000e-07	-4.882245e-06	-1.374336e-09	-3.401231e+01	-8.748698e+01
5.700000e-07	-4.860200e-06	-1.220698e-09	-3.385874e+01	-8.726800e+01
5.800000e-07	-4.837858e-06	-1.346056e-09	-3.370309e+01	-8.704266e+01
5.900000e-07	-4.815197e-06	-1.403494e-09	-3.354523e+01	-8.681080e+01
6.000000e-07	-4.792139e-06	-1.239634e-09	-3.338458e+01	-8.657231e+01
6.100000e-07	-4.768801e-06	-1.281608e-09	-3.322200e+01	-8.632710e+01
6.200000e-07	-4.745281e-06	-1.375771e-09	-3.305815e+01	-8.607511e+01
6.300000e-07	-4.721508e-06	-1.270583e-09	-3.289253e+01	-8.581632e+01
6.400000e-07	-4.697436e-06	-1.244807e-09	-3.272483e+01	-8.555074e+01
6.500000e-07	-4.673022e-06	-1.342242e-09	-3.255475e+01	-8.527841e+01
6.600000e-07	-4.648135e-06	-1.287534e-09	-3.238138e+01	-8.499940e+01
6.700000e-07	-4.622764e-06	-1.232999e-09	-3.220463e+01	-8.471382e+01
6.800000e-07	-4.596790e-06	-1.303636e-09	-3.202368e+01	-8.442179e+01
6.900000e-07	-4.570247e-06	-1.293125e-09	-3.183877e+01	-8.412350e+01
7.000000e-07	-4.543324e-06	-1.227426e-09	-3.165121e+01	-8.381913e+01
7.100000e-07	-4.516135e-06	-1.259335e-09	-3.146180e+01	-8.350891e+01
7.200000e-07	-4.488714e-06	-1.277865e-09	-3.127076e+01	-8.319307e+01
7.300000e-07	-4.461095e-06	-1.226275e-09	-3.107836e+01	-8.287189e+01
7.400000e-07	-4.433280e-06	-1.229502e-09	-3.088459e+01	-8.254565e+01
7.500000e-07	-4.405239e-06	-1.249416e-09	-3.068924e+01	-8.221467e+01
7.600000e-07	-4.376974e-06	-1.222883e-09	-3.049232e+01	-8.187924e+01
7.700000e-07	-4.348370e-06	-1.208957e-09	-3.029306e+01	-8.153972e+01
7.800000e-07	-4.319435e-06	-1.226967e-09	-3.009148e+01	-8.119642e+01
7.900000e-07	-4.290156e-06	-1.208277e-09	-2.988751e+01	-8.084969e+01
8.000000e-07	-4.260611e-06	-1.195318e-09	-2.968168e+01	-8.049987e+01
8.100000e-07	-4.230828e-06	-1.206166e-09	-2.947420e+01	-8.014729e+01
8.200000e-07	-4.200678e-06	-1.197941e-09	-2.926416e+01	-7.979229e+01
8.300000e-07	-4.170171e-06	-1.170649e-09	-2.905163e+01	-7.943518e+01
8.400000e-07	-4.139318e-06	-1.182728e-09	-2.883669e+01	-7.907627e+01
8.500000e-07	-4.108228e-06	-1.183673e-09	-2.862010e+01	-7.871584e+01
8.600000e-07	-4.076950e-06	-1.160058e-09	-2.840220e+01	-7.835417e+01
8.700000e-07	-4.045503e-06	-1.153739e-09	-2.818312e+01	-7.799150e+01
8.800000e-07	-4.013961e-06	-1.162579e-09	-2.796339e+01	-7.762804e+01
8.900000e-07	-3.982239e-06	-1.139610e-09	-2.774239e+01	-7.726399e+01
9.000000e-07	-3.950251e-06	-1.127794e-09	-2.751955e+01	-7.689951e+01
9.100000e-07	-3.917911e-06	-1.138325e-09	-2.729425e+01	-7.653472e+01
9.200000e-07	-3.885183e-06	-1.127924e-09	-2.706625e+01	-7.616971e+01
9.300000e-07	-3.852047e-06	-1.109211e-09	-2.683541e+01	-7.580455e+01
9.400000e-07	-3.818471e-06	-1.120711e-09	-2.660150e+01	-7.543925e+01
9.500000e-07	-3.784387e-06	-1.119943e-09	-2.636405e+01	-7.507380e+01
9.600000e-07	-3.749797e-06	-1.094689e-09	-2.612308e+01	-7.470813e+01
9.700000e-07	-3.714938e-06	-1.089979e-09	-2.588023e+01	-7.434217e+01
9.800000e-07	-3.679790e-06	-1.094870e-09	-2.563538e+01	-7.397578e+01
9.900000e-07	-3.644370e-06	-1.076692e-09	-2.538862e+01	-7.360881e+01
1.000000e-06	-3.608859e-06	-1.066279e-09	-2.514123e+01	-7.324104e+01
1.010000e-06	-3.573240e-06	-1.076131e-09	-2.489309e+01	-7.287226e+01
1.020000e-06	-3.537501e-06	-1.070588e-09	-2.464411e+01	-7.250220e+01
1.030000e-06	-3.501577e-06	-1.057506e-09	-2.439384e+01	-7.213058e+01
1.040000e-06	-3.465378e-06	-1.059071e-09	-2.414167e+01	-7.175707e+01
1.050000e-06	-3.428928e-06	-1.057002e-09	-2.388774e+01	-7.138135e+01
1.060000e-06	-3.392162e-06	-1.033008e-09	-2.363160e+01	-7.100304e+01
1.070000e-06	-3.355120e-06	-1.022884e-09	-2.337355e+01	-7.062178e+01
1.080000e-06	-3.317898e-06	-1.019450e-09	-2.311424e+01	-7.023718e+01
1.090000e-06	-3.280436e-06	-1.005780e-09	-2.285326e+01	-6.984884e+01
1.100000e-06	-3.242748e-06	-9.949476e-10	-2.259070e+01	-6.945634e+01
1.110000e-06	-3.204867e-06	-9.982212e-10	-2.232681e+01	-6.905929e+01
1.120000e-06	-3.166735e-06	-9.895267e-10	-2.206116e+01	-6.865727e+01
1.130000e-06	-3.128304e-06	-9.761080e-10	-2.179343e+01	-6.824987e+01
1.140000e-06	-3.089588e-06	-9.715959e-10	-2.152371e+01	-6.783670e+01
1.150000e-06	-3.050651e-06	-9.673528e-10	-2.125246e+01	-6.741737e+01
1.160000e-06	-3.011536e-06	-9.516049e-10	-2.097996e+01	-6.699150e+01
1.170000e-06	-2.972313e-06	-9.422075e-10	-2.070671e+01	-6.655874e+01
1.180000e-06	-2.932971e-06	-9.390179e-10	-2.043263e+01	-6.611875e+01
1.190000e-06	-2.893482e-06	-9.333364e-10	-2.015753e+01	-6.567120e+01
1.200000e-06	-2.853878e-06	-9.261308e-10	-1.988163e+01	-6.521580e+01
1.210000e-06	-2.814166e-06	-9.239137e-10	-1.960498e+01	-6.475229e+01
1.220000e-06	-2.774390e-06	-9.132147e-10	-1.932788e+01	-6.428041e+01
1.230000e-06	-2.734407e-06	-8.991822e-10	-1.904933e+01	-6.379996e+01
1.240000e-06	-2.694153e-06	-8.901894e-10	-1.876890e+01	-6.331073e+01
1.250000e-06	-2.653721e-06	-8.824959e-10	-1.848723e+01	-6.281259e+01
1.260000e-06	-2.613043e-06	-8.732424e-10	-1.820385e+01	-6.230538e+01
1.270000e-06	-2.572038e-06	-8.655180e-10	-1.791818e+01	-6.178902e+01
1.280000e-06	-2.530707e-06	-8.640528e-10	-1.763025e+01	-6.126341e+01
1.290000e-06	-2.489039e-06	-8.581664e-10	-1.733997e+01	-6.072851e+01
1.300000e-06	-2.447153e-06	-8.488652e-10	-1.704817e+01	-6.018430e+01
1.310000e-06	-2.404993e-06	-8.394185e-10	-1.675446e+01	-5.963076e+01
1.320000e-06	-2.362492e-06	-8.273262e-10	-1.645838e+01	-5.906790e+01
1.330000e-06	-2.319768e-06	-8.111811e-10	-1.616074e+01	-5.849577e+01
1.340000e-06	-2.276843e-06	-8.021140e-10	-1.586170e+01	-5.791439e+01
1.350000e-06	-2.233691e-06	-7.991961e-10	-1.556108e+01	-5.732383e+01
1.360000e-06	-2.190380e-06	-7.926553e-10	-1.525935e+01	-5.672414e+01
1.370000e-06	-2.146993e-06	-7.836759e-10	-1.495709e+01	-5.611540e+01
1.380000e-06	-2.103466e-06	-7.777250e-10	-1.465386e+01	-5.549766e+01
1.390000e-06	-2.059864e-06	-7.644487e-10	-1.435011e+01	-5.487099e+01
1.400000e-06	-2.016241e-06	-7.477368e-10	-1.404620e+01	-5.423545e+01
1.410000e-06	-1.972557e-06	-7.355870e-10	-1.374188e+01	-5.359107e+01
1.420000e-06	-1.928795e-06	-7.294942e-10	-1.343701e+01	-5.293788e+01
1.430000e-06	-1.884873e-06	-7.231753e-10	-1.313103e+01	-5.227590e+01
1.440000e-06	-1.840845e-06	-7.172862e-10	-1.282431e+01	-5.160512e+01
1.450000e-06	-1.796738e-06	-7.109676e-10	-1.251703e+01	-5.092550e+01
1.460000e-06	-1.752544e-06	-7.005580e-10	-1.220915e+01	-5.023697e+01
1.470000e-06	-1.708191e-06	-6.847930e-10	-1.190017e+01	-4.953944e+01
1.480000e-06	-1.663660e-06	-6.699117e-10	-1.158994e+01	-4.883280e+01
1.490000e-06	-1.619028e-06	-6.588024e-10	-1.127901e+01	-4.811687e+01
1.500000e-06	-1.574232e-06	-6.513468e-10	-1.096693e+01	-4.739146e+01
1.510000e-06	-1.529323e-06	-6.442711e-10	-1.065408e+01	-4.665634e+01
1.520000e-06	-1.484268e-06	-6.347207e-10	-1.034020e+01	-4.591123e+01
1.530000e-06	-1.439070e-06	-6.233753e-10	-1.002533e+01	-4.515583e+01
1.540000e-06	-1.393826e-06	-6.103810e-10	-9.710135e+00	-4.438978e+01
1.550000e-06	-1.348517e-06	-5.942944e-10	-9.394484e+00	-4.361271e+01
1.560000e-06	-1.303110e-06	-5.793835e-10	-9.078158e+00	-4.282419e+01
1.570000e-06	-1.257547e-06	-5.660822e-10	-8.760743e+00	-4.202376e+01
1.580000e-06	-1.211862e-06	-5.550663e-10	-8.442477e+00	-4.121095e+01
1.590000e-06	-1.166184e-06	-5.463295e-10	-8.124255e+00	-4.038522e+01
1.600000e-06	-1.120528e-06	-5.354807e-10	-7.806195e+00	-3.954606e+01
1.610000e-06	-1.074768e-06	-5.208517e-10	-7.487405e+00	-3.869288e+01
1.620000e-06	-1.028838e-06	-5.087140e-10	-7.167431e+00	-3.782510e+01
1.630000e-06	-9.827659e-07	-5.021257e-10	-6.846470e+00	-3.694213e+01
1.640000e-06	-9.366820e-07	-4.918068e-10	-6.525425e+00	-3.604337e+01
1.650000e-06	-8.906137e-07	-4.776279e-10	-6.204488e+00	-3.512820e+01
1.660000e-06	-8.444184e-07	-4.621286e-10	-5.882667e+00	-3.419602e+01
1.670000e-06	-7.981174e-07	-4.446499e-10	-5.560110e+00	-3.324623e+01
1.680000e-06	-7.518030e-07	-4.252356e-10	-5.237459e+00	-3.227823e+01
1.690000e-06	-7.054079e-07	-4.101225e-10	-4.914247e+00	-3.129145e+01
1.700000e-06	-6.589343e-07	-3.975574e-10	-4.590487e+00	-3.028536e+01
1.710000e-06	-6.124621e-07	-3.832967e-10	-4.266736e+00	-2.925944e+01
1.720000e-06	-5.660772e-07	-3.647723e-10	-3.943595e+00	-2.821320e+01
1.730000e-06	-5.196547e-07	-3.436117e-10	-3.620191e+00	-2.714622e+01
1.740000e-06	-4.731414e-07	-3.232269e-10	-3.296154e+00	-2.605811e+01
1.750000e-06	-4.266570e-07	-3.060776e-10	-2.972319e+00	-2.494853e+01
1.760000e-06	-3.800153e-07	-2.914559e-10	-2.647389e+00	-2.381721e+01
1.770000e-06	-3.332826e-07	-2.790390e-10	-2.321824e+00	-2.266393e+01
1.780000e-06	-2.865024e-07	-2.657029e-10	-1.995928e+00	-2.148856e+01
1.790000e-06	-2.397036e-07	-2.509419e-10	-1.669903e+00	-2.029102e+01
1.800000e-06	-1.929813e-07	-2.315894e-10	-1.344410e+00	-1.907132e+01
1.810000e-06	-1.462683e-07	-2.121748e-10	-1.018982e+00	-1.782955e+01
1.820000e-06	-9.958504e-08	-1.938623e-10	-6.937623e-01	-1.656587e+01
1.830000e-06	-5.288725e-08	-1.765678e-10	-3.684407e-01	-1.528054e+01
1.840000e-06	-6.236188e-09	-1.613408e-10	-4.344460e-02	-1.397389e+01
1.850000e-06	4.041322e-08	-1.458610e-10	2.815400e-01	-1.264634e+01
1.860000e-06	8.716886e-08	-1.298240e-10	6.072646e-01	-1.129843e+01
1.870000e-06	1.338814e-07	-1.116362e-10	9.326890e-01	-9.930728e+00
1.880000e-06	1.805132e-07	-8.941274e-11	1.257551e+00	-8.543940e+00
1.890000e-06	2.272292e-07	-6.534440e-11	1.582999e+00	-7.138833e+00
1.900000e-06	2.739566e-07	-4.212503e-11	1.908527e+00	-5.716259e+00
1.910000e-06	3.207052e-07	-1.945433e-11	2.234203e+00	-4.277156e+00
1.920000e-06	3.674550e-07	-1.632548e-13	2.559887e+00	-2.822532e+00
1.930000e-06	4.141188e-07	1.676000e-11	2.884972e+00	-1.353475e+00
1.940000e-06	4.606880e-07	3.614362e-11	3.209398e+00	1.288641e-01
1.950000e-06	5.072095e-07	5.728473e-11	3.533491e+00	1.623267e+00
1.960000e-06	5.537996e-07	7.768020e-11	3.858062e+00	3.128457e+00
1.970000e-06	6.003245e-07	9.938851e-11	4.182180e+00	4.643105e+00
1.980000e-06	6.466783e-07	1.220408e-10	4.505104e+00	6.165837e+00
1.990000e-06	6.929451e-07	1.452030e-10	4.827424e+00	7.695235e+00
2.000000e-06	7.392108e-07	1.637664e-10	5.149735e+00	9.229850e+00
2.010000e-06	7.854294e-07	1.843347e-10	5.471719e+00	1.076821e+01
2.020000e-06	8.315600e-07	2.079074e-10	5.793089e+00	1.230880e+01
2.030000e-06	8.775733e-07	2.318665e-10	6.113642e+00	1.385014e+01
2.040000e-06	9.235546e-07	2.531103e-10	6.433972e+00	1.539069e+01
2.050000e-06	9.695468e-07	2.738552e-10	6.754379e+00	1.692896e+01
2.060000e-06	1.015446e-06	2.939083e-10	7.074138e+00	1.846343e+01
2.070000e-06	1.061239e-06	3.137815e-10	7.393154e+00	1.999262e+01
2.080000e-06	1.107006e-06	3.339485e-10	7.711995e+00	2.151507e+01
2.090000e-06	1.152718e-06	3.542602e-10	8.030443e+00	2.302934e+01
2.100000e-06	1.198318e-06	3.775048e-10	8.348121e+00	2.453405e+01
2.110000e-06	1.243829e-06	3.992025e-10	8.665177e+00	2.602783e+01
2.120000e-06	1.289217e-06	4.168757e-10	8.981374e+00	2.750938e+01
2.130000e-06	1.334540e-06	4.344012e-10	9.297115e+00	2.897744e+01
2.140000e-06	1.379858e-06	4.526831e-10	9.612823e+00	3.043084e+01
2.150000e-06	1.425050e-06	4.703811e-10	9.927656e+00	3.186843e+01
2.160000e-06	1.470046e-06	4.893263e-10	1.024112e+01	3.328916e+01
2.170000e-06	1.514970e-06	5.085361e-10	1.055409e+01	3.469203e+01
2.180000e-06	1.559811e-06	5.305788e-10	1.086647e+01	3.607613e+01
2.190000e-06	1.604558e-06	5.510229e-10	1.117821e+01	3.744062e+01
2.200000e-06	1.649104e-06	5.692404e-10	1.148853e+01	3.878473e+01
2.210000e-06	1.693485e-06	5.861821e-10	1.179772e+01	4.010779e+01
2.220000e-06	1.737824e-06	6.021216e-10	1.210661e+01	4.140918e+01
2.230000e-06	1.781987e-06	6.187016e-10	1.241427e+01	4.268839e+01
2.240000e-06	1.826075e-06	6.340991e-10	1.272141e+01	4.394498e+01
2.250000e-06	1.870073e-06	6.504521e-10	1.302792e+01	4.517858e+01
2.260000e-06	1.913914e-06	6.659326e-10	1.333334e+01	4.638890e+01
2.270000e-06	1.957635e-06	6.865656e-10	1.363793e+01	4.757575e+01
2.280000e-06	2.001315e-06	7.088211e-10	1.394222e+01	4.873898e+01
2.290000e-06	2.044933e-06	7.280015e-10	1.424609e+01	4.987853e+01
2.300000e-06	2.088442e-06	7.439213e-10	1.454920e+01	5.099441e+01
2.310000e-06	2.131921e-06	7.575600e-10	1.485209e+01	5.208670e+01
2.320000e-06	2.175324e-06	7.713874e-10	1.515447e+01	5.315551e+01
2.330000e-06	2.218639e-06	7.841822e-10	1.545622e+01	5.420104e+01
2.340000e-06	2.261887e-06	7.987703e-10	1.575751e+01	5.522354e+01
2.350000e-06	2.304919e-06	8.170324e-10	1.605729e+01	5.622330e+01
2.360000e-06	2.347776e-06	8.372435e-10	1.635585e+01	5.720065e+01
2.370000e-06	2.390406e-06	8.527933e-10	1.665284e+01	5.815597e+01
2.380000e-06	2.432733e-06	8.641890e-10	1.694771e+01	5.908966e+01
2.390000e-06	2.474762e-06	8.745023e-10	1.724051e+01	6.000218e+01
2.400000e-06	2.516432e-06	8.848912e-10	1.753081e+01	6.089398e+01
2.410000e-06	2.557805e-06	8.954827e-10	1.781903e+01	6.176557e+01
2.420000e-06	2.598884e-06	9.075606e-10	1.810521e+01	6.261743e+01
2.430000e-06	2.639657e-06	9.219851e-10	1.838925e+01	6.345009e+01
2.440000e-06	2.680117e-06	9.368537e-10	1.867112e+01	6.426407e+01
2.450000e-06	2.720357e-06	9.486315e-10	1.895146e+01	6.505991e+01
2.460000e-06	2.760413e-06	9.597458e-10	1.923050e+01	6.583813e+01
2.470000e-06	2.800333e-06	9.723753e-10	1.950861e+01	6.659926e+01
2.480000e-06	2.840099e-06	9.851242e-10	1.978564e+01	6.734381e+01
2.490000e-06	2.879679e-06	9.951451e-10	2.006138e+01	6.807231e+01
2.500000e-06	2.919139e-06	1.004557e-09	2.033627e+01	6.878523e+01
2.510000e-06	2.958455e-06	1.015361e-09	2.061017e+01	6.948308e+01
2.520000e-06	2.997623e-06	1.026117e-09	2.088304e+01	7.016631e+01
2.530000e-06	3.036693e-06	1.035109e-09	2.115522e+01	7.083537e+01
2.540000e-06	3.075548e-06	1.044584e-09	2.142590e+01	7.149068e+01
2.550000e-06	3.114072e-06	1.054102e-09	2.169428e+01	7.213266e+01
2.560000e-06	3.152328e-06	1.062711e-09	2.196079e+01	7.276169e+01
2.570000e-06	3.190350e-06	1.069606e-09	2.222567e+01	7.337812e+01
2.580000e-06	3.228100e-06	1.074493e-09	2.248866e+01	7.398229e+01
2.590000e-06	3.265600e-06	1.081023e-09	2.274990e+01	7.457452e+01
2.600000e-06	3.302984e-06	1.090931e-09	2.301034e+01	7.515509e+01
2.610000e-06	3.340286e-06	1.100536e-09	2.327021e+01	7.572428e+01
2.620000e-06	3.377369e-06	1.108612e-09	2.352854e+01	7.628233e+01
2.630000e-06	3.414117e-06	1.116270e-09	2.378456e+01	7.682947e+01
2.640000e-06	3.450546e-06	1.122422e-09	2.403834e+01	7.736589e+01
2.650000e-06	3.486698e-06	1.127658e-09	2.429019e+01	7.789179e+01
2.660000e-06	3.522661e-06	1.132607e-09	2.454073e+01	7.840733e+01
2.670000e-06	3.558473e-06	1.136593e-09	2.479021e+01	7.891267e+01
2.680000e-06	3.594101e-06	1.142415e-09	2.503842e+01	7.940793e+01
2.690000e-06	3.629604e-06	1.151566e-09	2.528575e+01	7.989325e+01
2.700000e-06	3.664975e-06	1.161081e-09	2.553216e+01	8.036874e+01
2.710000e-06	3.700196e-06	1.169178e-09	2.577753e+01	8.083449e+01
2.720000e-06	3.735258e-06	1.175293e-09	2.602179e+01	8.129060e+01
2.730000e-06	3.769966e-06	1.178866e-09	2.626359e+01	8.173715e+01
2.740000e-06	3.804237e-06	1.180759e-09	2.650234e+01	8.217423e+01
2.750000e-06	3.837997e-06	1.183342e-09	2.673753e+01	8.260190e+01
2.760000e-06	3.871223e-06	1.185831e-09	2.696900e+01	8.302025e+01
2.770000e-06	3.904070e-06	1.191484e-09	2.719783e+01	8.342933e+01
2.780000e-06	3.936497e-06	1.200944e-09	2.742373e+01	8.382923e+01
2.790000e-06	3.968572e-06	1.211563e-09	2.764718e+01	8.422001e+01
2.800000e-06	4.000429e-06	1.220139e-09	2.786912e+01	8.460175e+01
2.810000e-06	4.032092e-06	1.225559e-09	2.808970e+01	8.497452e+01
2.820000e-06	4.063605e-06	1.228570e-09	2.830924e+01	8.533839e+01
2.830000e-06	4.095015e-06	1.229921e-09	2.852805e+01	8.569346e+01
2.840000e-06	4.126247e-06	1.232587e-09	2.874563e+01	8.603980e+01
2.850000e-06	4.157194e-06	1.239597e-09	2.896123e+01	8.637751e+01
2.860000e-06	4.187741e-06	1.249347e-09	2.917403e+01	8.670669e+01
2.870000e-06	4.217878e-06	1.257965e-09	2.938398e+01	8.702743e+01
2.880000e-06	4.247708e-06	1.265468e-09	2.959180e+01	8.733984e+01
2.890000e-06	4.277301e-06	1.269908e-09	2.979795e+01	8.764403e+01
2.900000e-06	4.306620e-06	1.273980e-09	3.000220e+01	8.794013e+01
