# Temperatura_=_11.28
# Concentracion g/m^3_=_1620.0
# C_Vs_to_Am_M_A/Vsm_=_65563218390.804596
# pendiente_HvsI_1/m_=_3716.3
# ordenada_HvsI_A/m_=_1297.0
# frecuencia_Hz_=_135091.21145027163

Tiempo_(s)	Campo_(V.s)	Magnetizacion_(V.s)	Campo_(kA/m)	Magnetizacion_(A/m)
0.000000e+00	-5.513177e-06	-1.551492e-09	-3.838006e+01	-1.006977e+02
1.000000e-08	-5.513619e-06	-1.548169e-09	-3.838313e+01	-1.007220e+02
2.000000e-08	-5.513844e-06	-1.545984e-09	-3.838470e+01	-1.007452e+02
3.000000e-08	-5.513722e-06	-1.548088e-09	-3.838385e+01	-1.007672e+02
4.000000e-08	-5.513026e-06	-1.553435e-09	-3.837900e+01	-1.007876e+02
5.000000e-08	-5.511769e-06	-1.549656e-09	-3.837026e+01	-1.008062e+02
6.000000e-08	-5.509898e-06	-1.533816e-09	-3.835723e+01	-1.008226e+02
7.000000e-08	-5.507367e-06	-1.520925e-09	-3.833961e+01	-1.008366e+02
8.000000e-08	-5.504440e-06	-1.548173e-09	-3.831923e+01	-1.008478e+02
9.000000e-08	-5.501111e-06	-1.597467e-09	-3.829606e+01	-1.008558e+02
1.000000e-07	-5.497272e-06	-1.664679e-09	-3.826933e+01	-1.008604e+02
1.100000e-07	-5.492960e-06	-1.632157e-09	-3.823931e+01	-1.008612e+02
1.200000e-07	-5.488329e-06	-1.459510e-09	-3.820708e+01	-1.008578e+02
1.300000e-07	-5.483648e-06	-1.444988e-09	-3.817449e+01	-1.008499e+02
1.400000e-07	-5.478762e-06	-1.573173e-09	-3.814048e+01	-1.008372e+02
1.500000e-07	-5.473381e-06	-1.601657e-09	-3.810302e+01	-1.008194e+02
1.600000e-07	-5.467623e-06	-1.476665e-09	-3.806293e+01	-1.007960e+02
1.700000e-07	-5.461633e-06	-1.424122e-09	-3.802123e+01	-1.007669e+02
1.800000e-07	-5.455216e-06	-1.632789e-09	-3.797656e+01	-1.007317e+02
1.900000e-07	-5.448266e-06	-1.647934e-09	-3.792818e+01	-1.006901e+02
2.000000e-07	-5.440939e-06	-1.509746e-09	-3.787717e+01	-1.006418e+02
2.100000e-07	-5.433365e-06	-1.403353e-09	-3.782444e+01	-1.005867e+02
2.200000e-07	-5.425568e-06	-1.564678e-09	-3.777017e+01	-1.005245e+02
2.300000e-07	-5.417422e-06	-1.632840e-09	-3.771345e+01	-1.004549e+02
2.400000e-07	-5.408986e-06	-1.563778e-09	-3.765473e+01	-1.003779e+02
2.500000e-07	-5.399981e-06	-1.476580e-09	-3.759204e+01	-1.002931e+02
2.600000e-07	-5.390145e-06	-1.528052e-09	-3.752357e+01	-1.002005e+02
2.700000e-07	-5.379669e-06	-1.546770e-09	-3.745064e+01	-1.000999e+02
2.800000e-07	-5.368697e-06	-1.489789e-09	-3.737426e+01	-9.999130e+01
2.900000e-07	-5.357319e-06	-1.486256e-09	-3.729505e+01	-9.987453e+01
3.000000e-07	-5.345554e-06	-1.525345e-09	-3.721314e+01	-9.974956e+01
3.100000e-07	-5.333429e-06	-1.539171e-09	-3.712874e+01	-9.961636e+01
3.200000e-07	-5.320950e-06	-1.471643e-09	-3.704186e+01	-9.947491e+01
3.300000e-07	-5.307988e-06	-1.483580e-09	-3.695163e+01	-9.932521e+01
3.400000e-07	-5.294657e-06	-1.494434e-09	-3.685883e+01	-9.916731e+01
3.500000e-07	-5.281007e-06	-1.522645e-09	-3.676380e+01	-9.900123e+01
3.600000e-07	-5.266799e-06	-1.465215e-09	-3.666489e+01	-9.882705e+01
3.700000e-07	-5.251989e-06	-1.474275e-09	-3.656179e+01	-9.864486e+01
3.800000e-07	-5.236880e-06	-1.493936e-09	-3.645661e+01	-9.845475e+01
3.900000e-07	-5.221443e-06	-1.506243e-09	-3.634914e+01	-9.825684e+01
4.000000e-07	-5.205272e-06	-1.434995e-09	-3.623657e+01	-9.805125e+01
4.100000e-07	-5.188743e-06	-1.472947e-09	-3.612151e+01	-9.783814e+01
4.200000e-07	-5.172016e-06	-1.506749e-09	-3.600506e+01	-9.761765e+01
4.300000e-07	-5.154919e-06	-1.454751e-09	-3.588604e+01	-9.738994e+01
4.400000e-07	-5.137530e-06	-1.415064e-09	-3.576498e+01	-9.715521e+01
4.500000e-07	-5.119783e-06	-1.525482e-09	-3.564144e+01	-9.691361e+01
4.600000e-07	-5.101528e-06	-1.506256e-09	-3.551436e+01	-9.666535e+01
4.700000e-07	-5.082707e-06	-1.393843e-09	-3.538334e+01	-9.641061e+01
4.800000e-07	-5.063620e-06	-1.433570e-09	-3.525046e+01	-9.614960e+01
4.900000e-07	-5.044379e-06	-1.518894e-09	-3.511651e+01	-9.588250e+01
5.000000e-07	-5.024884e-06	-1.421766e-09	-3.498080e+01	-9.560953e+01
5.100000e-07	-5.005176e-06	-1.396044e-09	-3.484360e+01	-9.533089e+01
5.200000e-07	-4.985187e-06	-1.484915e-09	-3.470445e+01	-9.504677e+01
5.300000e-07	-4.964731e-06	-1.440609e-09	-3.456204e+01	-9.475737e+01
5.400000e-07	-4.943857e-06	-1.379473e-09	-3.441672e+01	-9.446289e+01
5.500000e-07	-4.922777e-06	-1.468190e-09	-3.426998e+01	-9.416353e+01
5.600000e-07	-4.901299e-06	-1.460867e-09	-3.412046e+01	-9.385947e+01
5.700000e-07	-4.879454e-06	-1.348197e-09	-3.396839e+01	-9.355090e+01
5.800000e-07	-4.857414e-06	-1.406186e-09	-3.381495e+01	-9.323798e+01
5.900000e-07	-4.835010e-06	-1.468628e-09	-3.365898e+01	-9.292090e+01
6.000000e-07	-4.812200e-06	-1.382046e-09	-3.350020e+01	-9.259981e+01
6.100000e-07	-4.789053e-06	-1.366513e-09	-3.333906e+01	-9.227488e+01
6.200000e-07	-4.765693e-06	-1.440535e-09	-3.317643e+01	-9.194624e+01
6.300000e-07	-4.742151e-06	-1.380169e-09	-3.301255e+01	-9.161404e+01
6.400000e-07	-4.718363e-06	-1.340939e-09	-3.284695e+01	-9.127840e+01
6.500000e-07	-4.694270e-06	-1.391390e-09	-3.267923e+01	-9.093945e+01
6.600000e-07	-4.669680e-06	-1.383863e-09	-3.250804e+01	-9.059730e+01
6.700000e-07	-4.644574e-06	-1.330452e-09	-3.233327e+01	-9.025203e+01
6.800000e-07	-4.619013e-06	-1.371881e-09	-3.215532e+01	-8.990376e+01
6.900000e-07	-4.592855e-06	-1.373552e-09	-3.197323e+01	-8.955254e+01
7.000000e-07	-4.566137e-06	-1.335270e-09	-3.178722e+01	-8.919845e+01
7.100000e-07	-4.539049e-06	-1.337977e-09	-3.159865e+01	-8.884156e+01
7.200000e-07	-4.511756e-06	-1.354592e-09	-3.140865e+01	-8.848189e+01
7.300000e-07	-4.484269e-06	-1.320760e-09	-3.121730e+01	-8.811950e+01
7.400000e-07	-4.456579e-06	-1.325273e-09	-3.102454e+01	-8.775441e+01
7.500000e-07	-4.428725e-06	-1.333417e-09	-3.083063e+01	-8.738662e+01
7.600000e-07	-4.400588e-06	-1.314600e-09	-3.063476e+01	-8.701615e+01
7.700000e-07	-4.372061e-06	-1.297112e-09	-3.043616e+01	-8.664298e+01
7.800000e-07	-4.343160e-06	-1.298234e-09	-3.023497e+01	-8.626711e+01
7.900000e-07	-4.313948e-06	-1.278026e-09	-3.003161e+01	-8.588849e+01
8.000000e-07	-4.284502e-06	-1.274770e-09	-2.982662e+01	-8.550710e+01
8.100000e-07	-4.254856e-06	-1.285723e-09	-2.962024e+01	-8.512288e+01
8.200000e-07	-4.224898e-06	-1.274103e-09	-2.941168e+01	-8.473578e+01
8.300000e-07	-4.194548e-06	-1.259419e-09	-2.920041e+01	-8.434573e+01
8.400000e-07	-4.163914e-06	-1.261458e-09	-2.898714e+01	-8.395266e+01
8.500000e-07	-4.132944e-06	-1.252429e-09	-2.877154e+01	-8.355648e+01
8.600000e-07	-4.101746e-06	-1.228237e-09	-2.855436e+01	-8.315710e+01
8.700000e-07	-4.070413e-06	-1.227892e-09	-2.833623e+01	-8.275443e+01
8.800000e-07	-4.038873e-06	-1.230405e-09	-2.811667e+01	-8.234835e+01
8.900000e-07	-4.007179e-06	-1.221772e-09	-2.789603e+01	-8.193876e+01
9.000000e-07	-3.975323e-06	-1.218836e-09	-2.767427e+01	-8.152554e+01
9.100000e-07	-3.943223e-06	-1.221565e-09	-2.745080e+01	-8.110856e+01
9.200000e-07	-3.910671e-06	-1.198516e-09	-2.722419e+01	-8.068771e+01
9.300000e-07	-3.877546e-06	-1.184029e-09	-2.699359e+01	-8.026286e+01
9.400000e-07	-3.844006e-06	-1.182598e-09	-2.676010e+01	-7.983387e+01
9.500000e-07	-3.810085e-06	-1.178222e-09	-2.652396e+01	-7.940061e+01
9.600000e-07	-3.775689e-06	-1.163920e-09	-2.628451e+01	-7.896295e+01
9.700000e-07	-3.740961e-06	-1.163694e-09	-2.604275e+01	-7.852076e+01
9.800000e-07	-3.705932e-06	-1.156896e-09	-2.579890e+01	-7.807390e+01
9.900000e-07	-3.670640e-06	-1.144064e-09	-2.555321e+01	-7.762226e+01
1.000000e-06	-3.635259e-06	-1.134578e-09	-2.530691e+01	-7.716570e+01
1.010000e-06	-3.599755e-06	-1.135543e-09	-2.505974e+01	-7.670410e+01
1.020000e-06	-3.564086e-06	-1.124405e-09	-2.481143e+01	-7.623735e+01
1.030000e-06	-3.528264e-06	-1.119630e-09	-2.456205e+01	-7.576534e+01
1.040000e-06	-3.492239e-06	-1.117048e-09	-2.431127e+01	-7.528797e+01
1.050000e-06	-3.455913e-06	-1.109487e-09	-2.405838e+01	-7.480514e+01
1.060000e-06	-3.419264e-06	-1.097280e-09	-2.380325e+01	-7.431676e+01
1.070000e-06	-3.382344e-06	-1.090171e-09	-2.354624e+01	-7.382276e+01
1.080000e-06	-3.345208e-06	-1.080957e-09	-2.328771e+01	-7.332307e+01
1.090000e-06	-3.307872e-06	-1.069476e-09	-2.302780e+01	-7.281763e+01
1.100000e-06	-3.270224e-06	-1.062236e-09	-2.276571e+01	-7.230639e+01
1.110000e-06	-3.232372e-06	-1.057370e-09	-2.250220e+01	-7.178932e+01
1.120000e-06	-3.194391e-06	-1.047345e-09	-2.223780e+01	-7.126639e+01
1.130000e-06	-3.156194e-06	-1.039435e-09	-2.197189e+01	-7.073759e+01
1.140000e-06	-3.117677e-06	-1.035167e-09	-2.170375e+01	-7.020291e+01
1.150000e-06	-3.078836e-06	-1.025632e-09	-2.143336e+01	-6.966236e+01
1.160000e-06	-3.039890e-06	-1.013420e-09	-2.116224e+01	-6.911595e+01
1.170000e-06	-3.000840e-06	-1.001597e-09	-2.089039e+01	-6.856372e+01
1.180000e-06	-2.961625e-06	-9.931826e-10	-2.061740e+01	-6.800568e+01
1.190000e-06	-2.922294e-06	-9.849346e-10	-2.034359e+01	-6.744189e+01
1.200000e-06	-2.882761e-06	-9.792459e-10	-2.006838e+01	-6.687240e+01
1.210000e-06	-2.843075e-06	-9.714369e-10	-1.979210e+01	-6.629725e+01
1.220000e-06	-2.803308e-06	-9.627187e-10	-1.951526e+01	-6.571652e+01
1.230000e-06	-2.763349e-06	-9.509997e-10	-1.923709e+01	-6.513025e+01
1.240000e-06	-2.723137e-06	-9.434452e-10	-1.895716e+01	-6.453852e+01
1.250000e-06	-2.682704e-06	-9.313851e-10	-1.867568e+01	-6.394138e+01
1.260000e-06	-2.641997e-06	-9.215114e-10	-1.839230e+01	-6.333890e+01
1.270000e-06	-2.601077e-06	-9.104624e-10	-1.810743e+01	-6.273113e+01
1.280000e-06	-2.560020e-06	-9.000914e-10	-1.782161e+01	-6.211812e+01
1.290000e-06	-2.518595e-06	-8.906736e-10	-1.753323e+01	-6.149992e+01
1.300000e-06	-2.476819e-06	-8.819156e-10	-1.724241e+01	-6.087656e+01
1.310000e-06	-2.434846e-06	-8.712490e-10	-1.695022e+01	-6.024805e+01
1.320000e-06	-2.392666e-06	-8.593182e-10	-1.665658e+01	-5.961440e+01
1.330000e-06	-2.350133e-06	-8.475729e-10	-1.636048e+01	-5.897561e+01
1.340000e-06	-2.307284e-06	-8.390300e-10	-1.606219e+01	-5.833164e+01
1.350000e-06	-2.264255e-06	-8.306871e-10	-1.576264e+01	-5.768245e+01
1.360000e-06	-2.221049e-06	-8.197251e-10	-1.546186e+01	-5.702796e+01
1.370000e-06	-2.177630e-06	-8.063255e-10	-1.515960e+01	-5.636808e+01
1.380000e-06	-2.134059e-06	-7.982197e-10	-1.485628e+01	-5.570269e+01
1.390000e-06	-2.090505e-06	-7.934217e-10	-1.455308e+01	-5.503165e+01
1.400000e-06	-2.046925e-06	-7.850126e-10	-1.424970e+01	-5.435477e+01
1.410000e-06	-2.003239e-06	-7.735944e-10	-1.394557e+01	-5.367186e+01
1.420000e-06	-1.959432e-06	-7.628292e-10	-1.364061e+01	-5.298268e+01
1.430000e-06	-1.915504e-06	-7.509819e-10	-1.333481e+01	-5.228697e+01
1.440000e-06	-1.871492e-06	-7.380738e-10	-1.302842e+01	-5.158443e+01
1.450000e-06	-1.827419e-06	-7.263069e-10	-1.272160e+01	-5.087475e+01
1.460000e-06	-1.783284e-06	-7.144050e-10	-1.241435e+01	-5.015756e+01
1.470000e-06	-1.738945e-06	-7.025081e-10	-1.210569e+01	-4.943249e+01
1.480000e-06	-1.694422e-06	-6.906529e-10	-1.179574e+01	-4.869912e+01
1.490000e-06	-1.649768e-06	-6.791530e-10	-1.148489e+01	-4.795701e+01
1.500000e-06	-1.604956e-06	-6.664374e-10	-1.117293e+01	-4.720569e+01
1.510000e-06	-1.560041e-06	-6.530899e-10	-1.086024e+01	-4.644468e+01
1.520000e-06	-1.515021e-06	-6.421992e-10	-1.054684e+01	-4.567346e+01
1.530000e-06	-1.469888e-06	-6.319481e-10	-1.023265e+01	-4.489149e+01
1.540000e-06	-1.424556e-06	-6.171608e-10	-9.917069e+00	-4.409823e+01
1.550000e-06	-1.379155e-06	-6.007971e-10	-9.601005e+00	-4.329312e+01
1.560000e-06	-1.333807e-06	-5.845569e-10	-9.285315e+00	-4.247559e+01
1.570000e-06	-1.288324e-06	-5.692092e-10	-8.968685e+00	-4.164504e+01
1.580000e-06	-1.242685e-06	-5.518303e-10	-8.650969e+00	-4.080089e+01
1.590000e-06	-1.196994e-06	-5.378536e-10	-8.332891e+00	-3.994257e+01
1.600000e-06	-1.151234e-06	-5.254347e-10	-8.014328e+00	-3.906949e+01
1.610000e-06	-1.105423e-06	-5.139416e-10	-7.695417e+00	-3.818107e+01
1.620000e-06	-1.059586e-06	-4.998406e-10	-7.376322e+00	-3.727677e+01
1.630000e-06	-1.013676e-06	-4.854204e-10	-7.056717e+00	-3.635604e+01
1.640000e-06	-9.677141e-07	-4.731228e-10	-6.736755e+00	-3.541836e+01
1.650000e-06	-9.215800e-07	-4.600054e-10	-6.415592e+00	-3.446324e+01
1.660000e-06	-8.752887e-07	-4.441423e-10	-6.093334e+00	-3.349022e+01
1.670000e-06	-8.290938e-07	-4.276403e-10	-5.771748e+00	-3.249887e+01
1.680000e-06	-7.828451e-07	-4.109676e-10	-5.449787e+00	-3.148881e+01
1.690000e-06	-7.364822e-07	-3.940419e-10	-5.127031e+00	-3.045969e+01
1.700000e-06	-6.900881e-07	-3.771839e-10	-4.804057e+00	-2.941121e+01
1.710000e-06	-6.436514e-07	-3.598372e-10	-4.480788e+00	-2.834314e+01
1.720000e-06	-5.971818e-07	-3.433622e-10	-4.157289e+00	-2.725529e+01
1.730000e-06	-5.506410e-07	-3.255532e-10	-3.833295e+00	-2.614751e+01
1.740000e-06	-5.041103e-07	-3.055357e-10	-3.509371e+00	-2.501976e+01
1.750000e-06	-4.575880e-07	-2.856743e-10	-3.185505e+00	-2.387201e+01
1.760000e-06	-4.109916e-07	-2.684423e-10	-2.861124e+00	-2.270433e+01
1.770000e-06	-3.643386e-07	-2.532366e-10	-2.536348e+00	-2.151685e+01
1.780000e-06	-3.176185e-07	-2.371194e-10	-2.211106e+00	-2.030976e+01
1.790000e-06	-2.709171e-07	-2.197137e-10	-1.885993e+00	-1.908334e+01
1.800000e-06	-2.241656e-07	-2.028675e-10	-1.560532e+00	-1.783793e+01
1.810000e-06	-1.773780e-07	-1.847041e-10	-1.234820e+00	-1.657393e+01
1.820000e-06	-1.306891e-07	-1.667598e-10	-9.097940e-01	-1.529182e+01
1.830000e-06	-8.395098e-08	-1.502407e-10	-5.844259e-01	-1.399216e+01
1.840000e-06	-3.710236e-08	-1.357562e-10	-2.582885e-01	-1.267557e+01
1.850000e-06	9.679385e-09	-1.200231e-10	6.738317e-02	-1.134274e+01
1.860000e-06	5.637261e-08	-1.017945e-10	3.924387e-01	-9.994414e+00
1.870000e-06	1.031035e-07	-8.151323e-11	7.177566e-01	-8.631412e+00
1.880000e-06	1.498794e-07	-5.969008e-11	1.043387e+00	-7.254609e+00
1.890000e-06	1.966137e-07	-3.757852e-11	1.368729e+00	-5.864936e+00
1.900000e-06	2.433558e-07	-1.824688e-11	1.694124e+00	-4.463377e+00
1.910000e-06	2.900848e-07	-1.932562e-12	2.019429e+00	-3.050963e+00
1.920000e-06	3.366845e-07	1.508349e-11	2.343834e+00	-1.628772e+00
1.930000e-06	3.832694e-07	3.290934e-11	2.668135e+00	-1.979180e-01
1.940000e-06	4.298622e-07	5.103328e-11	2.992491e+00	1.240449e+00
1.950000e-06	4.764433e-07	7.189617e-11	3.316766e+00	2.685151e+00
1.960000e-06	5.229479e-07	9.365831e-11	3.640509e+00	4.134984e+00
1.970000e-06	5.694430e-07	1.153611e-10	3.964185e+00	5.588728e+00
1.980000e-06	6.159835e-07	1.361552e-10	4.288177e+00	7.045148e+00
1.990000e-06	6.624778e-07	1.558705e-10	4.611848e+00	8.503005e+00
2.000000e-06	7.089256e-07	1.743544e-10	4.935195e+00	9.961056e+00
2.010000e-06	7.552429e-07	1.909354e-10	5.257634e+00	1.141806e+01
2.020000e-06	8.013926e-07	2.109246e-10	5.578905e+00	1.287279e+01
2.030000e-06	8.474403e-07	2.341029e-10	5.899467e+00	1.432404e+01
2.040000e-06	8.935144e-07	2.565926e-10	6.220213e+00	1.577061e+01
2.050000e-06	9.395688e-07	2.773749e-10	6.540821e+00	1.721133e+01
2.060000e-06	9.854559e-07	2.967482e-10	6.860264e+00	1.864507e+01
2.070000e-06	1.031360e-06	3.152315e-10	7.179825e+00	2.007072e+01
2.080000e-06	1.077256e-06	3.348529e-10	7.499332e+00	2.148722e+01
2.090000e-06	1.123011e-06	3.570445e-10	7.817856e+00	2.289355e+01
2.100000e-06	1.168693e-06	3.807779e-10	8.135875e+00	2.428875e+01
2.110000e-06	1.214339e-06	4.021612e-10	8.453640e+00	2.567188e+01
2.120000e-06	1.259905e-06	4.198943e-10	8.770847e+00	2.704208e+01
2.130000e-06	1.305327e-06	4.366390e-10	9.087053e+00	2.839853e+01
2.140000e-06	1.350610e-06	4.543126e-10	9.402287e+00	2.974048e+01
2.150000e-06	1.395715e-06	4.740008e-10	9.716288e+00	3.106723e+01
2.160000e-06	1.440806e-06	4.944586e-10	1.003019e+01	3.237814e+01
2.170000e-06	1.485894e-06	5.140538e-10	1.034407e+01	3.367265e+01
2.180000e-06	1.530761e-06	5.339124e-10	1.065641e+01	3.495023e+01
2.190000e-06	1.575486e-06	5.533237e-10	1.096777e+01	3.621044e+01
2.200000e-06	1.620088e-06	5.708197e-10	1.127826e+01	3.745288e+01
2.210000e-06	1.664554e-06	5.880021e-10	1.158782e+01	3.867723e+01
2.220000e-06	1.708915e-06	6.039094e-10	1.189664e+01	3.988321e+01
2.230000e-06	1.753144e-06	6.205138e-10	1.220454e+01	4.107062e+01
2.240000e-06	1.797266e-06	6.363011e-10	1.251169e+01	4.223928e+01
2.250000e-06	1.841319e-06	6.504049e-10	1.281837e+01	4.338911e+01
2.260000e-06	1.885267e-06	6.645275e-10	1.312431e+01	4.452004e+01
2.270000e-06	1.929062e-06	6.783145e-10	1.342919e+01	4.563208e+01
2.280000e-06	1.972801e-06	6.997473e-10	1.373368e+01	4.672525e+01
2.290000e-06	2.016511e-06	7.212318e-10	1.403797e+01	4.779965e+01
2.300000e-06	2.060106e-06	7.407491e-10	1.434146e+01	4.885539e+01
2.310000e-06	2.103608e-06	7.548705e-10	1.464430e+01	4.989264e+01
2.320000e-06	2.147098e-06	7.657487e-10	1.494705e+01	5.091159e+01
2.330000e-06	2.190543e-06	7.789569e-10	1.524950e+01	5.191244e+01
2.340000e-06	2.233848e-06	7.924521e-10	1.555096e+01	5.289544e+01
2.350000e-06	2.276978e-06	8.066968e-10	1.585121e+01	5.386087e+01
2.360000e-06	2.319948e-06	8.238093e-10	1.615035e+01	5.480900e+01
2.370000e-06	2.362700e-06	8.430422e-10	1.644797e+01	5.574013e+01
2.380000e-06	2.405203e-06	8.572547e-10	1.674386e+01	5.665457e+01
2.390000e-06	2.447437e-06	8.687570e-10	1.703786e+01	5.755264e+01
2.400000e-06	2.489354e-06	8.789786e-10	1.732967e+01	5.843467e+01
2.410000e-06	2.530865e-06	8.869858e-10	1.761865e+01	5.930097e+01
2.420000e-06	2.572022e-06	8.963421e-10	1.790517e+01	6.015189e+01
2.430000e-06	2.612905e-06	9.103352e-10	1.818978e+01	6.098774e+01
2.440000e-06	2.653622e-06	9.263172e-10	1.847323e+01	6.180886e+01
2.450000e-06	2.694111e-06	9.409650e-10	1.875509e+01	6.261555e+01
2.460000e-06	2.734281e-06	9.521357e-10	1.903474e+01	6.340813e+01
2.470000e-06	2.774277e-06	9.642619e-10	1.931317e+01	6.418689e+01
2.480000e-06	2.814106e-06	9.739456e-10	1.959044e+01	6.495214e+01
2.490000e-06	2.853828e-06	9.816516e-10	1.986696e+01	6.570415e+01
2.500000e-06	2.893448e-06	9.905106e-10	2.014278e+01	6.644319e+01
2.510000e-06	2.932891e-06	9.999337e-10	2.041736e+01	6.716953e+01
2.520000e-06	2.972188e-06	1.011413e-09	2.069092e+01	6.788341e+01
2.530000e-06	3.011359e-06	1.022793e-09	2.096362e+01	6.858508e+01
2.540000e-06	3.050337e-06	1.030028e-09	2.123496e+01	6.927475e+01
2.550000e-06	3.089169e-06	1.035798e-09	2.150529e+01	6.995265e+01
2.560000e-06	3.127785e-06	1.043593e-09	2.177412e+01	7.061898e+01
2.570000e-06	3.166075e-06	1.053517e-09	2.204067e+01	7.127394e+01
2.580000e-06	3.204111e-06	1.063765e-09	2.230546e+01	7.191773e+01
2.590000e-06	3.241946e-06	1.074115e-09	2.256885e+01	7.255053e+01
2.600000e-06	3.279560e-06	1.083646e-09	2.283070e+01	7.317251e+01
2.610000e-06	3.316977e-06	1.091932e-09	2.309118e+01	7.378386e+01
2.620000e-06	3.354214e-06	1.096858e-09	2.335041e+01	7.438475e+01
2.630000e-06	3.391192e-06	1.101242e-09	2.360783e+01	7.497533e+01
2.640000e-06	3.427932e-06	1.107937e-09	2.386359e+01	7.555579e+01
2.650000e-06	3.464442e-06	1.116437e-09	2.411776e+01	7.612629e+01
2.660000e-06	3.500691e-06	1.127009e-09	2.437011e+01	7.668700e+01
2.670000e-06	3.536694e-06	1.136876e-09	2.462074e+01	7.723809e+01
2.680000e-06	3.572452e-06	1.145606e-09	2.486967e+01	7.777974e+01
2.690000e-06	3.608025e-06	1.154592e-09	2.511732e+01	7.831212e+01
2.700000e-06	3.643465e-06	1.162891e-09	2.536403e+01	7.883543e+01
2.710000e-06	3.678827e-06	1.168794e-09	2.561020e+01	7.934984e+01
2.720000e-06	3.714058e-06	1.175917e-09	2.585547e+01	7.985555e+01
2.730000e-06	3.749047e-06	1.182566e-09	2.609904e+01	8.035276e+01
2.740000e-06	3.783626e-06	1.189891e-09	2.633976e+01	8.084167e+01
2.750000e-06	3.817804e-06	1.195507e-09	2.657770e+01	8.132248e+01
2.760000e-06	3.851716e-06	1.200422e-09	2.681377e+01	8.179541e+01
2.770000e-06	3.885116e-06	1.209133e-09	2.704629e+01	8.226068e+01
2.780000e-06	3.917857e-06	1.220957e-09	2.727421e+01	8.271851e+01
2.790000e-06	3.950104e-06	1.232370e-09	2.749870e+01	8.316910e+01
2.800000e-06	3.982039e-06	1.241060e-09	2.772102e+01	8.361270e+01
2.810000e-06	4.013758e-06	1.245483e-09	2.794183e+01	8.404952e+01
2.820000e-06	4.045316e-06	1.246087e-09	2.816152e+01	8.447977e+01
2.830000e-06	4.076794e-06	1.248783e-09	2.838065e+01	8.490369e+01
2.840000e-06	4.108154e-06	1.256143e-09	2.859897e+01	8.532149e+01
2.850000e-06	4.139223e-06	1.265116e-09	2.881525e+01	8.573336e+01
2.860000e-06	4.169935e-06	1.276732e-09	2.902906e+01	8.613953e+01
2.870000e-06	4.200317e-06	1.287825e-09	2.924056e+01	8.654017e+01
2.880000e-06	4.230367e-06	1.294601e-09	2.944976e+01	8.693549e+01
2.890000e-06	4.260204e-06	1.299293e-09	2.965747e+01	8.732563e+01
2.900000e-06	4.289788e-06	1.302432e-09	2.986342e+01	8.771078e+01
