# Temperatura_=_-0.72
# Concentracion g/m^3_=_1620.0
# C_Vs_to_Am_M_A/Vsm_=_65563218390.804596
# pendiente_HvsI_1/m_=_3716.3
# ordenada_HvsI_A/m_=_1297.0
# frecuencia_Hz_=_135102.59592343957

Tiempo_(s)	Campo_(V.s)	Magnetizacion_(V.s)	Campo_(kA/m)	Magnetizacion_(A/m)
0.000000e+00	-5.507086e-06	-1.304074e-09	-3.837207e+01	-8.709922e+01
1.000000e-08	-5.507354e-06	-1.302397e-09	-3.837394e+01	-8.707330e+01
2.000000e-08	-5.507335e-06	-1.299837e-09	-3.837381e+01	-8.704673e+01
3.000000e-08	-5.507050e-06	-1.298274e-09	-3.837182e+01	-8.701934e+01
4.000000e-08	-5.506347e-06	-1.295406e-09	-3.836692e+01	-8.699094e+01
5.000000e-08	-5.504958e-06	-1.283007e-09	-3.835725e+01	-8.696132e+01
6.000000e-08	-5.502959e-06	-1.264640e-09	-3.834332e+01	-8.693027e+01
7.000000e-08	-5.500435e-06	-1.265534e-09	-3.832573e+01	-8.689757e+01
8.000000e-08	-5.497293e-06	-1.312223e-09	-3.830384e+01	-8.686297e+01
9.000000e-08	-5.493635e-06	-1.406002e-09	-3.827835e+01	-8.682624e+01
1.000000e-07	-5.489592e-06	-1.427199e-09	-3.825018e+01	-8.678712e+01
1.100000e-07	-5.485272e-06	-1.291602e-09	-3.822008e+01	-8.674537e+01
1.200000e-07	-5.480770e-06	-1.175013e-09	-3.818871e+01	-8.670074e+01
1.300000e-07	-5.476032e-06	-1.264837e-09	-3.815570e+01	-8.665299e+01
1.400000e-07	-5.470916e-06	-1.351341e-09	-3.812005e+01	-8.660187e+01
1.500000e-07	-5.465360e-06	-1.305502e-09	-3.808134e+01	-8.654715e+01
1.600000e-07	-5.459460e-06	-1.194359e-09	-3.804023e+01	-8.648860e+01
1.700000e-07	-5.453112e-06	-1.288551e-09	-3.799600e+01	-8.642602e+01
1.800000e-07	-5.446231e-06	-1.389545e-09	-3.794805e+01	-8.635920e+01
1.900000e-07	-5.439082e-06	-1.327734e-09	-3.789824e+01	-8.628795e+01
2.000000e-07	-5.431680e-06	-1.205845e-09	-3.784666e+01	-8.621211e+01
2.100000e-07	-5.423946e-06	-1.242392e-09	-3.779277e+01	-8.613153e+01
2.200000e-07	-5.415952e-06	-1.350017e-09	-3.773707e+01	-8.604607e+01
2.300000e-07	-5.407852e-06	-1.335911e-09	-3.768064e+01	-8.595563e+01
2.400000e-07	-5.399481e-06	-1.276678e-09	-3.762231e+01	-8.586011e+01
2.500000e-07	-5.390303e-06	-1.278253e-09	-3.755836e+01	-8.575945e+01
2.600000e-07	-5.380143e-06	-1.323697e-09	-3.748757e+01	-8.565360e+01
2.700000e-07	-5.369420e-06	-1.283454e-09	-3.741285e+01	-8.554253e+01
2.800000e-07	-5.358420e-06	-1.263446e-09	-3.733620e+01	-8.542624e+01
2.900000e-07	-5.347037e-06	-1.283717e-09	-3.725689e+01	-8.530475e+01
3.000000e-07	-5.335282e-06	-1.318567e-09	-3.717499e+01	-8.517810e+01
3.100000e-07	-5.323109e-06	-1.273273e-09	-3.709017e+01	-8.504635e+01
3.200000e-07	-5.310416e-06	-1.255732e-09	-3.700172e+01	-8.490957e+01
3.300000e-07	-5.297316e-06	-1.260202e-09	-3.691045e+01	-8.476787e+01
3.400000e-07	-5.283943e-06	-1.289082e-09	-3.681727e+01	-8.462136e+01
3.500000e-07	-5.270174e-06	-1.262565e-09	-3.672132e+01	-8.447017e+01
3.600000e-07	-5.255884e-06	-1.261359e-09	-3.662176e+01	-8.431443e+01
3.700000e-07	-5.241108e-06	-1.281868e-09	-3.651881e+01	-8.415431e+01
3.800000e-07	-5.225788e-06	-1.288775e-09	-3.641206e+01	-8.398997e+01
3.900000e-07	-5.209829e-06	-1.232789e-09	-3.630086e+01	-8.382157e+01
4.000000e-07	-5.193499e-06	-1.241772e-09	-3.618707e+01	-8.364930e+01
4.100000e-07	-5.176983e-06	-1.288762e-09	-3.607199e+01	-8.347333e+01
4.200000e-07	-5.160145e-06	-1.253994e-09	-3.595467e+01	-8.329386e+01
4.300000e-07	-5.142914e-06	-1.205878e-09	-3.583461e+01	-8.311106e+01
4.400000e-07	-5.125335e-06	-1.274039e-09	-3.571213e+01	-8.292510e+01
4.500000e-07	-5.107384e-06	-1.308236e-09	-3.558705e+01	-8.273618e+01
4.600000e-07	-5.088925e-06	-1.215484e-09	-3.545843e+01	-8.254446e+01
4.700000e-07	-5.070048e-06	-1.216055e-09	-3.532690e+01	-8.235009e+01
4.800000e-07	-5.050963e-06	-1.292092e-09	-3.519391e+01	-8.215324e+01
4.900000e-07	-5.031643e-06	-1.255845e-09	-3.505930e+01	-8.195404e+01
5.000000e-07	-5.012060e-06	-1.200931e-09	-3.492285e+01	-8.175263e+01
5.100000e-07	-4.992294e-06	-1.264998e-09	-3.478513e+01	-8.154911e+01
5.200000e-07	-4.972233e-06	-1.250303e-09	-3.464535e+01	-8.134360e+01
5.300000e-07	-4.951680e-06	-1.185229e-09	-3.450214e+01	-8.113617e+01
5.400000e-07	-4.930776e-06	-1.228449e-09	-3.435648e+01	-8.092691e+01
5.500000e-07	-4.909633e-06	-1.265763e-09	-3.420916e+01	-8.071585e+01
5.600000e-07	-4.888126e-06	-1.181805e-09	-3.405930e+01	-8.050304e+01
5.700000e-07	-4.866296e-06	-1.192523e-09	-3.390720e+01	-8.028850e+01
5.800000e-07	-4.844125e-06	-1.258704e-09	-3.375272e+01	-8.007224e+01
5.900000e-07	-4.821516e-06	-1.220874e-09	-3.359518e+01	-7.985424e+01
6.000000e-07	-4.798463e-06	-1.178710e-09	-3.343455e+01	-7.963448e+01
6.100000e-07	-4.775125e-06	-1.228299e-09	-3.327194e+01	-7.941291e+01
6.200000e-07	-4.751619e-06	-1.206166e-09	-3.310816e+01	-7.918949e+01
6.300000e-07	-4.727939e-06	-1.159897e-09	-3.294316e+01	-7.896413e+01
6.400000e-07	-4.704091e-06	-1.189015e-09	-3.277700e+01	-7.873677e+01
6.500000e-07	-4.679942e-06	-1.203144e-09	-3.260873e+01	-7.850730e+01
6.600000e-07	-4.655318e-06	-1.163392e-09	-3.243716e+01	-7.827564e+01
6.700000e-07	-4.630208e-06	-1.178930e-09	-3.226219e+01	-7.804167e+01
6.800000e-07	-4.604544e-06	-1.195967e-09	-3.208337e+01	-7.780529e+01
6.900000e-07	-4.578264e-06	-1.165450e-09	-3.190026e+01	-7.756636e+01
7.000000e-07	-4.551562e-06	-1.156010e-09	-3.171421e+01	-7.732478e+01
7.100000e-07	-4.524514e-06	-1.169338e-09	-3.152574e+01	-7.708041e+01
7.200000e-07	-4.497144e-06	-1.153255e-09	-3.133503e+01	-7.683313e+01
7.300000e-07	-4.469556e-06	-1.145699e-09	-3.114281e+01	-7.658283e+01
7.400000e-07	-4.441810e-06	-1.157400e-09	-3.094948e+01	-7.632938e+01
7.500000e-07	-4.413850e-06	-1.144478e-09	-3.075466e+01	-7.607266e+01
7.600000e-07	-4.385619e-06	-1.132738e-09	-3.055796e+01	-7.581256e+01
7.700000e-07	-4.357150e-06	-1.133872e-09	-3.035959e+01	-7.554899e+01
7.800000e-07	-4.328354e-06	-1.125785e-09	-3.015895e+01	-7.528184e+01
7.900000e-07	-4.299152e-06	-1.114552e-09	-2.995547e+01	-7.501102e+01
8.000000e-07	-4.269657e-06	-1.121748e-09	-2.974996e+01	-7.473644e+01
8.100000e-07	-4.239943e-06	-1.114334e-09	-2.954292e+01	-7.445805e+01
8.200000e-07	-4.209892e-06	-1.098994e-09	-2.933354e+01	-7.417577e+01
8.300000e-07	-4.179493e-06	-1.097409e-09	-2.912172e+01	-7.388955e+01
8.400000e-07	-4.148799e-06	-1.101359e-09	-2.890785e+01	-7.359936e+01
8.500000e-07	-4.117830e-06	-1.084350e-09	-2.869207e+01	-7.330514e+01
8.600000e-07	-4.086653e-06	-1.080143e-09	-2.847483e+01	-7.300689e+01
8.700000e-07	-4.055285e-06	-1.082873e-09	-2.825627e+01	-7.270458e+01
8.800000e-07	-4.023741e-06	-1.076623e-09	-2.803647e+01	-7.239821e+01
8.900000e-07	-3.991999e-06	-1.067547e-09	-2.781530e+01	-7.208777e+01
9.000000e-07	-3.960051e-06	-1.070061e-09	-2.759270e+01	-7.177328e+01
9.100000e-07	-3.927889e-06	-1.061086e-09	-2.736860e+01	-7.145475e+01
9.200000e-07	-3.895314e-06	-1.049688e-09	-2.714163e+01	-7.113219e+01
9.300000e-07	-3.862247e-06	-1.049138e-09	-2.691123e+01	-7.080563e+01
9.400000e-07	-3.828780e-06	-1.048127e-09	-2.667803e+01	-7.047509e+01
9.500000e-07	-3.794881e-06	-1.031983e-09	-2.644184e+01	-7.014060e+01
9.600000e-07	-3.760574e-06	-1.022967e-09	-2.620279e+01	-6.980218e+01
9.700000e-07	-3.725922e-06	-1.019677e-09	-2.596134e+01	-6.945986e+01
9.800000e-07	-3.690868e-06	-1.012630e-09	-2.571710e+01	-6.911366e+01
9.900000e-07	-3.655510e-06	-1.008415e-09	-2.547073e+01	-6.876361e+01
1.000000e-06	-3.620033e-06	-1.011154e-09	-2.522354e+01	-6.840971e+01
1.010000e-06	-3.584433e-06	-1.007033e-09	-2.497548e+01	-6.805197e+01
1.020000e-06	-3.548646e-06	-9.974491e-10	-2.472612e+01	-6.769041e+01
1.030000e-06	-3.512703e-06	-9.927210e-10	-2.447569e+01	-6.732500e+01
1.040000e-06	-3.476658e-06	-9.860429e-10	-2.422453e+01	-6.695575e+01
1.050000e-06	-3.440465e-06	-9.747579e-10	-2.397235e+01	-6.658262e+01
1.060000e-06	-3.403965e-06	-9.667209e-10	-2.371802e+01	-6.620559e+01
1.070000e-06	-3.367063e-06	-9.665575e-10	-2.346090e+01	-6.582461e+01
1.080000e-06	-3.329853e-06	-9.612581e-10	-2.320163e+01	-6.543963e+01
1.090000e-06	-3.292411e-06	-9.548350e-10	-2.294074e+01	-6.505059e+01
1.100000e-06	-3.254759e-06	-9.501256e-10	-2.267839e+01	-6.465740e+01
1.110000e-06	-3.216873e-06	-9.418823e-10	-2.241441e+01	-6.425999e+01
1.120000e-06	-3.178761e-06	-9.317190e-10	-2.214885e+01	-6.385826e+01
1.130000e-06	-3.140405e-06	-9.268926e-10	-2.188160e+01	-6.345211e+01
1.140000e-06	-3.101778e-06	-9.194034e-10	-2.161245e+01	-6.304141e+01
1.150000e-06	-3.063019e-06	-9.088507e-10	-2.134239e+01	-6.262604e+01
1.160000e-06	-3.024140e-06	-8.989498e-10	-2.107149e+01	-6.220587e+01
1.170000e-06	-2.985052e-06	-8.958128e-10	-2.079914e+01	-6.178076e+01
1.180000e-06	-2.945786e-06	-8.919453e-10	-2.052554e+01	-6.135055e+01
1.190000e-06	-2.906383e-06	-8.894377e-10	-2.025099e+01	-6.091510e+01
1.200000e-06	-2.866886e-06	-8.827898e-10	-1.997578e+01	-6.047424e+01
1.210000e-06	-2.827244e-06	-8.736530e-10	-1.969957e+01	-6.002781e+01
1.220000e-06	-2.787424e-06	-8.616241e-10	-1.942212e+01	-5.957564e+01
1.230000e-06	-2.747473e-06	-8.506999e-10	-1.914374e+01	-5.911757e+01
1.240000e-06	-2.707388e-06	-8.401713e-10	-1.886444e+01	-5.865341e+01
1.250000e-06	-2.667123e-06	-8.292249e-10	-1.858389e+01	-5.818301e+01
1.260000e-06	-2.626632e-06	-8.201321e-10	-1.830175e+01	-5.770618e+01
1.270000e-06	-2.585702e-06	-8.115966e-10	-1.801656e+01	-5.722276e+01
1.280000e-06	-2.544340e-06	-8.039320e-10	-1.772836e+01	-5.673259e+01
1.290000e-06	-2.502824e-06	-7.977697e-10	-1.743908e+01	-5.623549e+01
1.300000e-06	-2.461231e-06	-7.879518e-10	-1.714927e+01	-5.573131e+01
1.310000e-06	-2.419293e-06	-7.769077e-10	-1.685706e+01	-5.521988e+01
1.320000e-06	-2.376942e-06	-7.661164e-10	-1.656197e+01	-5.470105e+01
1.330000e-06	-2.334341e-06	-7.579184e-10	-1.626514e+01	-5.417467e+01
1.340000e-06	-2.291481e-06	-7.503837e-10	-1.596650e+01	-5.364059e+01
1.350000e-06	-2.248420e-06	-7.419436e-10	-1.566646e+01	-5.309867e+01
1.360000e-06	-2.205189e-06	-7.332915e-10	-1.536524e+01	-5.254876e+01
1.370000e-06	-2.161744e-06	-7.247296e-10	-1.506252e+01	-5.199072e+01
1.380000e-06	-2.118136e-06	-7.181800e-10	-1.475867e+01	-5.142442e+01
1.390000e-06	-2.074473e-06	-7.104903e-10	-1.445444e+01	-5.084972e+01
1.400000e-06	-2.030766e-06	-7.019710e-10	-1.414990e+01	-5.026648e+01
1.410000e-06	-1.987002e-06	-6.929122e-10	-1.384496e+01	-4.967456e+01
1.420000e-06	-1.943154e-06	-6.840563e-10	-1.353944e+01	-4.907384e+01
1.430000e-06	-1.899252e-06	-6.741277e-10	-1.323354e+01	-4.846416e+01
1.440000e-06	-1.855288e-06	-6.634834e-10	-1.292721e+01	-4.784537e+01
1.450000e-06	-1.811210e-06	-6.519604e-10	-1.262009e+01	-4.721734e+01
1.460000e-06	-1.766929e-06	-6.415408e-10	-1.231155e+01	-4.657989e+01
1.470000e-06	-1.722483e-06	-6.311003e-10	-1.200185e+01	-4.593286e+01
1.480000e-06	-1.677984e-06	-6.220540e-10	-1.169180e+01	-4.527608e+01
1.490000e-06	-1.633393e-06	-6.138015e-10	-1.138109e+01	-4.460936e+01
1.500000e-06	-1.588631e-06	-6.077032e-10	-1.106921e+01	-4.393250e+01
1.510000e-06	-1.543724e-06	-5.997158e-10	-1.075630e+01	-4.324529e+01
1.520000e-06	-1.498768e-06	-5.903004e-10	-1.044306e+01	-4.254751e+01
1.530000e-06	-1.453716e-06	-5.789698e-10	-1.012915e+01	-4.183891e+01
1.540000e-06	-1.408509e-06	-5.646173e-10	-9.814161e+00	-4.111926e+01
1.550000e-06	-1.363162e-06	-5.477897e-10	-9.498194e+00	-4.038827e+01
1.560000e-06	-1.317726e-06	-5.315559e-10	-9.181602e+00	-3.964567e+01
1.570000e-06	-1.272250e-06	-5.158675e-10	-8.864739e+00	-3.889115e+01
1.580000e-06	-1.226723e-06	-5.045578e-10	-8.547513e+00	-3.812442e+01
1.590000e-06	-1.181079e-06	-4.972752e-10	-8.229477e+00	-3.734513e+01
1.600000e-06	-1.135286e-06	-4.892107e-10	-7.910406e+00	-3.655295e+01
1.610000e-06	-1.089482e-06	-4.772562e-10	-7.591254e+00	-3.574753e+01
1.620000e-06	-1.043611e-06	-4.649642e-10	-7.271632e+00	-3.492850e+01
1.630000e-06	-9.976097e-07	-4.542406e-10	-6.951109e+00	-3.409550e+01
1.640000e-06	-9.515848e-07	-4.432028e-10	-6.630418e+00	-3.324814e+01
1.650000e-06	-9.055297e-07	-4.293747e-10	-6.309517e+00	-3.238604e+01
1.660000e-06	-8.593849e-07	-4.139208e-10	-5.987991e+00	-3.150882e+01
1.670000e-06	-8.131386e-07	-3.996941e-10	-5.665757e+00	-3.061609e+01
1.680000e-06	-7.668922e-07	-3.856318e-10	-5.343524e+00	-2.970746e+01
1.690000e-06	-7.206615e-07	-3.730411e-10	-5.021399e+00	-2.878257e+01
1.700000e-06	-6.743542e-07	-3.610002e-10	-4.698741e+00	-2.784105e+01
1.710000e-06	-6.279992e-07	-3.497865e-10	-4.375750e+00	-2.688254e+01
1.720000e-06	-5.816333e-07	-3.356278e-10	-4.052683e+00	-2.590672e+01
1.730000e-06	-5.352105e-07	-3.167619e-10	-3.729220e+00	-2.491328e+01
1.740000e-06	-4.887276e-07	-2.959262e-10	-3.405338e+00	-2.390192e+01
1.750000e-06	-4.422010e-07	-2.782591e-10	-3.081152e+00	-2.287239e+01
1.760000e-06	-3.956331e-07	-2.632203e-10	-2.756678e+00	-2.182446e+01
1.770000e-06	-3.489829e-07	-2.495234e-10	-2.431631e+00	-2.075796e+01
1.780000e-06	-3.022766e-07	-2.368141e-10	-2.106192e+00	-1.967273e+01
1.790000e-06	-2.555922e-07	-2.243758e-10	-1.780906e+00	-1.856867e+01
1.800000e-06	-2.089051e-07	-2.093522e-10	-1.455601e+00	-1.744573e+01
1.810000e-06	-1.622381e-07	-1.914130e-10	-1.130436e+00	-1.630392e+01
1.820000e-06	-1.156300e-07	-1.721675e-10	-8.056825e-01	-1.514328e+01
1.830000e-06	-6.902633e-08	-1.556295e-10	-4.809592e-01	-1.396393e+01
1.840000e-06	-2.235759e-08	-1.413773e-10	-1.557824e-01	-1.276605e+01
1.850000e-06	2.433092e-08	-1.262936e-10	1.695321e-01	-1.154987e+01
1.860000e-06	7.097106e-08	-1.107057e-10	4.945096e-01	-1.031569e+01
1.870000e-06	1.175777e-07	-9.503897e-11	8.192539e-01	-9.063890e+00
1.880000e-06	1.641985e-07	-7.741874e-11	1.144097e+00	-7.794902e+00
1.890000e-06	2.108297e-07	-5.640081e-11	1.469011e+00	-6.509234e+00
1.900000e-06	2.575263e-07	-3.415214e-11	1.794383e+00	-5.207462e+00
1.910000e-06	3.042925e-07	-1.342087e-11	2.120238e+00	-3.890230e+00
1.920000e-06	3.510156e-07	4.701040e-12	2.445794e+00	-2.558251e+00
1.930000e-06	3.977335e-07	2.012811e-11	2.771313e+00	-1.212306e+00
1.940000e-06	4.443705e-07	3.603515e-11	3.096268e+00	1.467596e-01
1.950000e-06	4.908839e-07	5.363182e-11	3.420363e+00	1.518036e+00
1.960000e-06	5.373051e-07	7.346884e-11	3.743815e+00	2.900552e+00
1.970000e-06	5.836800e-07	9.389161e-11	4.066944e+00	4.293279e+00
1.980000e-06	6.300551e-07	1.129060e-10	4.390075e+00	5.695136e+00
1.990000e-06	6.763894e-07	1.337073e-10	4.712922e+00	7.104987e+00
2.000000e-06	7.226506e-07	1.529798e-10	5.035258e+00	8.521653e+00
2.010000e-06	7.688749e-07	1.697589e-10	5.357339e+00	9.943912e+00
2.020000e-06	8.150449e-07	1.879870e-10	5.679040e+00	1.137051e+01
2.030000e-06	8.610713e-07	2.102563e-10	5.999741e+00	1.280015e+01
2.040000e-06	9.070521e-07	2.335481e-10	6.320125e+00	1.423152e+01
2.050000e-06	9.530078e-07	2.561046e-10	6.640333e+00	1.566328e+01
2.060000e-06	9.988880e-07	2.778316e-10	6.960016e+00	1.709410e+01
2.070000e-06	1.044714e-06	2.977555e-10	7.279321e+00	1.852260e+01
2.080000e-06	1.090468e-06	3.161512e-10	7.598126e+00	1.994743e+01
2.090000e-06	1.136156e-06	3.356178e-10	7.916466e+00	2.136725e+01
2.100000e-06	1.181794e-06	3.563456e-10	8.234458e+00	2.278070e+01
2.110000e-06	1.227421e-06	3.756042e-10	8.552380e+00	2.418646e+01
2.120000e-06	1.272947e-06	3.932816e-10	8.869594e+00	2.558324e+01
2.130000e-06	1.318285e-06	4.110822e-10	9.185496e+00	2.696975e+01
2.140000e-06	1.363550e-06	4.297343e-10	9.500894e+00	2.834477e+01
2.150000e-06	1.408739e-06	4.493509e-10	9.815759e+00	2.970710e+01
2.160000e-06	1.453792e-06	4.697877e-10	1.012968e+01	3.105559e+01
2.170000e-06	1.498700e-06	4.892427e-10	1.044258e+01	3.238914e+01
2.180000e-06	1.543585e-06	5.089183e-10	1.075534e+01	3.370671e+01
2.190000e-06	1.588438e-06	5.278465e-10	1.106786e+01	3.500732e+01
2.200000e-06	1.633056e-06	5.439677e-10	1.137875e+01	3.629005e+01
2.210000e-06	1.677474e-06	5.585556e-10	1.168824e+01	3.755405e+01
2.220000e-06	1.721776e-06	5.733453e-10	1.199693e+01	3.879853e+01
2.230000e-06	1.765968e-06	5.905990e-10	1.230485e+01	4.002279e+01
2.240000e-06	1.810015e-06	6.081332e-10	1.261175e+01	4.122619e+01
2.250000e-06	1.853969e-06	6.243367e-10	1.291802e+01	4.240817e+01
2.260000e-06	1.897876e-06	6.385053e-10	1.322395e+01	4.356826e+01
2.270000e-06	1.941699e-06	6.542312e-10	1.352930e+01	4.470603e+01
2.280000e-06	1.985442e-06	6.730925e-10	1.383409e+01	4.582116e+01
2.290000e-06	2.029097e-06	6.910422e-10	1.413827e+01	4.691340e+01
2.300000e-06	2.072661e-06	7.062821e-10	1.444181e+01	4.798256e+01
2.310000e-06	2.116188e-06	7.177006e-10	1.474510e+01	4.902854e+01
2.320000e-06	2.159724e-06	7.286441e-10	1.504844e+01	5.005130e+01
2.330000e-06	2.203213e-06	7.411060e-10	1.535146e+01	5.105087e+01
2.340000e-06	2.246464e-06	7.548424e-10	1.565283e+01	5.202734e+01
2.350000e-06	2.289448e-06	7.717567e-10	1.595233e+01	5.298087e+01
2.360000e-06	2.332216e-06	7.909648e-10	1.625033e+01	5.391168e+01
2.370000e-06	2.374704e-06	8.075612e-10	1.654638e+01	5.482004e+01
2.380000e-06	2.417005e-06	8.203645e-10	1.684112e+01	5.570626e+01
2.390000e-06	2.459165e-06	8.308242e-10	1.713488e+01	5.657070e+01
2.400000e-06	2.500972e-06	8.399714e-10	1.742618e+01	5.741378e+01
2.410000e-06	2.542240e-06	8.475144e-10	1.771373e+01	5.823594e+01
2.420000e-06	2.583197e-06	8.557286e-10	1.799911e+01	5.903764e+01
2.430000e-06	2.623953e-06	8.687298e-10	1.828308e+01	5.981939e+01
2.440000e-06	2.664389e-06	8.842387e-10	1.856484e+01	6.058171e+01
2.450000e-06	2.704556e-06	8.965264e-10	1.884470e+01	6.132514e+01
2.460000e-06	2.744562e-06	9.078552e-10	1.912346e+01	6.205022e+01
2.470000e-06	2.784428e-06	9.208653e-10	1.940124e+01	6.275751e+01
2.480000e-06	2.824167e-06	9.331280e-10	1.967813e+01	6.344758e+01
2.490000e-06	2.863844e-06	9.426546e-10	1.995459e+01	6.412099e+01
2.500000e-06	2.903403e-06	9.512236e-10	2.023023e+01	6.477829e+01
2.510000e-06	2.942834e-06	9.599124e-10	2.050497e+01	6.542004e+01
2.520000e-06	2.982137e-06	9.669824e-10	2.077883e+01	6.604676e+01
2.530000e-06	3.021257e-06	9.741287e-10	2.105140e+01	6.665898e+01
2.540000e-06	3.060148e-06	9.832192e-10	2.132239e+01	6.725720e+01
2.550000e-06	3.098707e-06	9.937153e-10	2.159106e+01	6.784192e+01
2.560000e-06	3.137006e-06	1.003898e-09	2.185792e+01	6.841358e+01
2.570000e-06	3.175202e-06	1.013767e-09	2.212406e+01	6.897263e+01
2.580000e-06	3.213217e-06	1.021898e-09	2.238894e+01	6.951948e+01
2.590000e-06	3.250958e-06	1.027176e-09	2.265191e+01	7.005453e+01
2.600000e-06	3.288502e-06	1.032393e-09	2.291350e+01	7.057812e+01
2.610000e-06	3.325838e-06	1.037158e-09	2.317365e+01	7.109060e+01
2.620000e-06	3.362960e-06	1.041880e-09	2.343231e+01	7.159228e+01
2.630000e-06	3.399815e-06	1.048397e-09	2.368911e+01	7.208342e+01
2.640000e-06	3.436298e-06	1.057950e-09	2.394331e+01	7.256429e+01
2.650000e-06	3.472491e-06	1.070290e-09	2.419549e+01	7.303512e+01
2.660000e-06	3.508470e-06	1.079924e-09	2.444619e+01	7.349611e+01
2.670000e-06	3.544313e-06	1.084216e-09	2.469594e+01	7.394745e+01
2.680000e-06	3.580070e-06	1.086566e-09	2.494508e+01	7.438929e+01
2.690000e-06	3.615702e-06	1.090498e-09	2.519336e+01	7.482179e+01
2.700000e-06	3.651225e-06	1.095316e-09	2.544087e+01	7.524506e+01
2.710000e-06	3.686635e-06	1.100821e-09	2.568760e+01	7.565922e+01
2.720000e-06	3.721832e-06	1.107092e-09	2.593285e+01	7.606436e+01
2.730000e-06	3.756738e-06	1.112775e-09	2.617606e+01	7.646058e+01
2.740000e-06	3.791276e-06	1.117830e-09	2.641671e+01	7.684794e+01
2.750000e-06	3.825269e-06	1.121584e-09	2.665357e+01	7.722651e+01
2.760000e-06	3.858710e-06	1.123767e-09	2.688658e+01	7.759637e+01
2.770000e-06	3.891660e-06	1.127794e-09	2.711617e+01	7.795757e+01
2.780000e-06	3.924143e-06	1.134373e-09	2.734250e+01	7.831017e+01
2.790000e-06	3.956281e-06	1.141792e-09	2.756643e+01	7.865424e+01
2.800000e-06	3.988157e-06	1.148923e-09	2.778853e+01	7.898983e+01
2.810000e-06	4.019885e-06	1.153515e-09	2.800961e+01	7.931703e+01
2.820000e-06	4.051502e-06	1.156586e-09	2.822991e+01	7.963588e+01
2.830000e-06	4.082934e-06	1.159941e-09	2.844892e+01	7.994649e+01
2.840000e-06	4.114174e-06	1.164585e-09	2.866659e+01	8.024892e+01
2.850000e-06	4.145167e-06	1.171788e-09	2.888255e+01	8.054328e+01
2.860000e-06	4.175775e-06	1.178980e-09	2.909581e+01	8.082966e+01
2.870000e-06	4.206040e-06	1.183055e-09	2.930669e+01	8.110818e+01
2.880000e-06	4.236033e-06	1.185506e-09	2.951568e+01	8.137895e+01
2.890000e-06	4.265743e-06	1.188482e-09	2.972269e+01	8.164210e+01
2.900000e-06	4.295186e-06	1.192096e-09	2.992784e+01	8.189776e+01
