# Temperatura_=_-0.7
# Concentracion g/m^3_=_1620.0
# C_Vs_to_Am_M_A/Vsm_=_65563218390.804596
# pendiente_HvsI_1/m_=_3716.3
# ordenada_HvsI_A/m_=_1297.0
# frecuencia_Hz_=_135100.2593884982

Tiempo_(s)	Campo_(V.s)	Magnetizacion_(V.s)	Campo_(kA/m)	Magnetizacion_(A/m)
0.000000e+00	-5.517363e-06	-1.288127e-09	-3.837295e+01	-8.384622e+01
1.000000e-08	-5.517698e-06	-1.287626e-09	-3.837528e+01	-8.376163e+01
2.000000e-08	-5.517794e-06	-1.289165e-09	-3.837595e+01	-8.367463e+01
3.000000e-08	-5.517573e-06	-1.289709e-09	-3.837441e+01	-8.358527e+01
4.000000e-08	-5.516884e-06	-1.286789e-09	-3.836961e+01	-8.349358e+01
5.000000e-08	-5.515641e-06	-1.276208e-09	-3.836097e+01	-8.339963e+01
6.000000e-08	-5.513805e-06	-1.257108e-09	-3.834820e+01	-8.330348e+01
7.000000e-08	-5.511417e-06	-1.253983e-09	-3.833159e+01	-8.320517e+01
8.000000e-08	-5.508487e-06	-1.309717e-09	-3.831122e+01	-8.310479e+01
9.000000e-08	-5.504999e-06	-1.382801e-09	-3.828695e+01	-8.300239e+01
1.000000e-07	-5.501106e-06	-1.375205e-09	-3.825988e+01	-8.289806e+01
1.100000e-07	-5.496926e-06	-1.273580e-09	-3.823081e+01	-8.279187e+01
1.200000e-07	-5.492548e-06	-1.190035e-09	-3.820036e+01	-8.268391e+01
1.300000e-07	-5.487903e-06	-1.262450e-09	-3.816805e+01	-8.257425e+01
1.400000e-07	-5.482822e-06	-1.332126e-09	-3.813272e+01	-8.246299e+01
1.500000e-07	-5.477323e-06	-1.278267e-09	-3.809447e+01	-8.235021e+01
1.600000e-07	-5.471593e-06	-1.216523e-09	-3.805461e+01	-8.223599e+01
1.700000e-07	-5.465551e-06	-1.267761e-09	-3.801260e+01	-8.212043e+01
1.800000e-07	-5.458929e-06	-1.374144e-09	-3.796654e+01	-8.200362e+01
1.900000e-07	-5.451774e-06	-1.317910e-09	-3.791678e+01	-8.188563e+01
2.000000e-07	-5.444357e-06	-1.211927e-09	-3.786519e+01	-8.176656e+01
2.100000e-07	-5.436746e-06	-1.198279e-09	-3.781226e+01	-8.164648e+01
2.200000e-07	-5.428828e-06	-1.275175e-09	-3.775719e+01	-8.152546e+01
2.300000e-07	-5.420667e-06	-1.276565e-09	-3.770043e+01	-8.140358e+01
2.400000e-07	-5.412203e-06	-1.218464e-09	-3.764156e+01	-8.128090e+01
2.500000e-07	-5.403141e-06	-1.201305e-09	-3.757854e+01	-8.115747e+01
2.600000e-07	-5.393280e-06	-1.237759e-09	-3.750996e+01	-8.103335e+01
2.700000e-07	-5.382747e-06	-1.232320e-09	-3.743670e+01	-8.090856e+01
2.800000e-07	-5.371818e-06	-1.202140e-09	-3.736069e+01	-8.078316e+01
2.900000e-07	-5.360420e-06	-1.203948e-09	-3.728141e+01	-8.065715e+01
3.000000e-07	-5.348603e-06	-1.221181e-09	-3.719923e+01	-8.053055e+01
3.100000e-07	-5.336440e-06	-1.217594e-09	-3.711464e+01	-8.040335e+01
3.200000e-07	-5.323818e-06	-1.194282e-09	-3.702685e+01	-8.027556e+01
3.300000e-07	-5.310765e-06	-1.205706e-09	-3.693607e+01	-8.014714e+01
3.400000e-07	-5.297415e-06	-1.218737e-09	-3.684322e+01	-8.001806e+01
3.500000e-07	-5.283715e-06	-1.223200e-09	-3.674794e+01	-7.988828e+01
3.600000e-07	-5.269514e-06	-1.212575e-09	-3.664917e+01	-7.975774e+01
3.700000e-07	-5.254851e-06	-1.207935e-09	-3.654719e+01	-7.962637e+01
3.800000e-07	-5.239683e-06	-1.199479e-09	-3.644170e+01	-7.949410e+01
3.900000e-07	-5.223921e-06	-1.194411e-09	-3.633207e+01	-7.936085e+01
4.000000e-07	-5.207691e-06	-1.194212e-09	-3.621920e+01	-7.922650e+01
4.100000e-07	-5.191215e-06	-1.199993e-09	-3.610460e+01	-7.909095e+01
4.200000e-07	-5.174355e-06	-1.188801e-09	-3.598734e+01	-7.895410e+01
4.300000e-07	-5.157046e-06	-1.185111e-09	-3.586696e+01	-7.881581e+01
4.400000e-07	-5.139480e-06	-1.195600e-09	-3.574479e+01	-7.867595e+01
4.500000e-07	-5.121607e-06	-1.213002e-09	-3.562049e+01	-7.853440e+01
4.600000e-07	-5.103213e-06	-1.190082e-09	-3.549255e+01	-7.839100e+01
4.700000e-07	-5.084353e-06	-1.171465e-09	-3.536138e+01	-7.824563e+01
4.800000e-07	-5.065200e-06	-1.183331e-09	-3.522818e+01	-7.809812e+01
4.900000e-07	-5.045836e-06	-1.197215e-09	-3.509350e+01	-7.794835e+01
5.000000e-07	-5.026289e-06	-1.175333e-09	-3.495755e+01	-7.779615e+01
5.100000e-07	-5.006499e-06	-1.170537e-09	-3.481992e+01	-7.764138e+01
5.200000e-07	-4.986397e-06	-1.181780e-09	-3.468011e+01	-7.748391e+01
5.300000e-07	-4.965906e-06	-1.177832e-09	-3.453759e+01	-7.732359e+01
5.400000e-07	-4.945007e-06	-1.175449e-09	-3.439224e+01	-7.716029e+01
5.500000e-07	-4.923793e-06	-1.189967e-09	-3.424470e+01	-7.699388e+01
5.600000e-07	-4.902221e-06	-1.170422e-09	-3.409467e+01	-7.682424e+01
5.700000e-07	-4.880303e-06	-1.141482e-09	-3.394223e+01	-7.665126e+01
5.800000e-07	-4.858132e-06	-1.156263e-09	-3.378803e+01	-7.647482e+01
5.900000e-07	-4.835677e-06	-1.167599e-09	-3.363186e+01	-7.629485e+01
6.000000e-07	-4.812884e-06	-1.146521e-09	-3.347334e+01	-7.611125e+01
6.100000e-07	-4.789713e-06	-1.148147e-09	-3.331218e+01	-7.592394e+01
6.200000e-07	-4.766239e-06	-1.167007e-09	-3.314892e+01	-7.573288e+01
6.300000e-07	-4.742556e-06	-1.145950e-09	-3.298420e+01	-7.553799e+01
6.400000e-07	-4.718644e-06	-1.127709e-09	-3.281790e+01	-7.533925e+01
6.500000e-07	-4.694382e-06	-1.136602e-09	-3.264916e+01	-7.513662e+01
6.600000e-07	-4.669641e-06	-1.131543e-09	-3.247709e+01	-7.493010e+01
6.700000e-07	-4.644361e-06	-1.120023e-09	-3.230127e+01	-7.471967e+01
6.800000e-07	-4.618642e-06	-1.137391e-09	-3.212239e+01	-7.450533e+01
6.900000e-07	-4.592451e-06	-1.140934e-09	-3.194024e+01	-7.428712e+01
7.000000e-07	-4.565737e-06	-1.128324e-09	-3.175444e+01	-7.406504e+01
7.100000e-07	-4.538578e-06	-1.123062e-09	-3.156555e+01	-7.383914e+01
7.200000e-07	-4.511058e-06	-1.119926e-09	-3.137415e+01	-7.360945e+01
7.300000e-07	-4.483384e-06	-1.099646e-09	-3.118168e+01	-7.337604e+01
7.400000e-07	-4.455622e-06	-1.094308e-09	-3.098859e+01	-7.313895e+01
7.500000e-07	-4.427679e-06	-1.099456e-09	-3.079425e+01	-7.289825e+01
7.600000e-07	-4.399523e-06	-1.101397e-09	-3.059843e+01	-7.265401e+01
7.700000e-07	-4.371109e-06	-1.098054e-09	-3.040081e+01	-7.240628e+01
7.800000e-07	-4.342354e-06	-1.097035e-09	-3.020083e+01	-7.215515e+01
7.900000e-07	-4.313280e-06	-1.091909e-09	-2.999862e+01	-7.190068e+01
8.000000e-07	-4.283902e-06	-1.084618e-09	-2.979429e+01	-7.164295e+01
8.100000e-07	-4.254172e-06	-1.075289e-09	-2.958752e+01	-7.138201e+01
8.200000e-07	-4.224013e-06	-1.065515e-09	-2.937777e+01	-7.111794e+01
8.300000e-07	-4.193645e-06	-1.058849e-09	-2.916656e+01	-7.085079e+01
8.400000e-07	-4.163169e-06	-1.060713e-09	-2.895460e+01	-7.058062e+01
8.500000e-07	-4.132383e-06	-1.061834e-09	-2.874049e+01	-7.030747e+01
8.600000e-07	-4.101288e-06	-1.059412e-09	-2.852423e+01	-7.003138e+01
8.700000e-07	-4.069868e-06	-1.054808e-09	-2.830570e+01	-6.975239e+01
8.800000e-07	-4.038225e-06	-1.047021e-09	-2.808562e+01	-6.947052e+01
8.900000e-07	-4.006486e-06	-1.037065e-09	-2.786488e+01	-6.918577e+01
9.000000e-07	-3.974574e-06	-1.025620e-09	-2.764294e+01	-6.889814e+01
9.100000e-07	-3.942405e-06	-1.017374e-09	-2.741920e+01	-6.860763e+01
9.200000e-07	-3.909910e-06	-1.011226e-09	-2.719320e+01	-6.831422e+01
9.300000e-07	-3.877016e-06	-1.011500e-09	-2.696442e+01	-6.801786e+01
9.400000e-07	-3.843661e-06	-1.015559e-09	-2.673244e+01	-6.771852e+01
9.500000e-07	-3.809774e-06	-1.016451e-09	-2.649676e+01	-6.741614e+01
9.600000e-07	-3.775413e-06	-1.010103e-09	-2.625778e+01	-6.711065e+01
9.700000e-07	-3.740718e-06	-1.000408e-09	-2.601648e+01	-6.680198e+01
9.800000e-07	-3.705687e-06	-9.871839e-10	-2.577284e+01	-6.649003e+01
9.900000e-07	-3.670369e-06	-9.751529e-10	-2.552721e+01	-6.617472e+01
1.000000e-06	-3.634859e-06	-9.673679e-10	-2.528024e+01	-6.585593e+01
1.010000e-06	-3.599228e-06	-9.657350e-10	-2.503243e+01	-6.553356e+01
1.020000e-06	-3.563456e-06	-9.649930e-10	-2.478363e+01	-6.520748e+01
1.030000e-06	-3.527468e-06	-9.671214e-10	-2.453334e+01	-6.487757e+01
1.040000e-06	-3.491306e-06	-9.640105e-10	-2.428183e+01	-6.454371e+01
1.050000e-06	-3.454865e-06	-9.551031e-10	-2.402839e+01	-6.420575e+01
1.060000e-06	-3.418141e-06	-9.436117e-10	-2.377297e+01	-6.386357e+01
1.070000e-06	-3.381176e-06	-9.363967e-10	-2.351588e+01	-6.351704e+01
1.080000e-06	-3.343904e-06	-9.299660e-10	-2.325667e+01	-6.316601e+01
1.090000e-06	-3.306374e-06	-9.243004e-10	-2.299565e+01	-6.281035e+01
1.100000e-06	-3.268666e-06	-9.200037e-10	-2.273339e+01	-6.244994e+01
1.110000e-06	-3.230860e-06	-9.157399e-10	-2.247045e+01	-6.208465e+01
1.120000e-06	-3.192832e-06	-9.086465e-10	-2.220596e+01	-6.171435e+01
1.130000e-06	-3.154494e-06	-9.014272e-10	-2.193932e+01	-6.133894e+01
1.140000e-06	-3.115927e-06	-8.949810e-10	-2.167110e+01	-6.095830e+01
1.150000e-06	-3.077050e-06	-8.880295e-10	-2.140071e+01	-6.057234e+01
1.160000e-06	-3.037950e-06	-8.798603e-10	-2.112877e+01	-6.018095e+01
1.170000e-06	-2.998775e-06	-8.739433e-10	-2.085631e+01	-5.978407e+01
1.180000e-06	-2.959473e-06	-8.687720e-10	-2.058297e+01	-5.938160e+01
1.190000e-06	-2.919993e-06	-8.598675e-10	-2.030839e+01	-5.897348e+01
1.200000e-06	-2.880394e-06	-8.501586e-10	-2.003298e+01	-5.855966e+01
1.210000e-06	-2.840669e-06	-8.422494e-10	-1.975669e+01	-5.814009e+01
1.220000e-06	-2.800763e-06	-8.361354e-10	-1.947914e+01	-5.771471e+01
1.230000e-06	-2.760759e-06	-8.301155e-10	-1.920092e+01	-5.728350e+01
1.240000e-06	-2.720588e-06	-8.256267e-10	-1.892154e+01	-5.684643e+01
1.250000e-06	-2.680146e-06	-8.189744e-10	-1.864026e+01	-5.640348e+01
1.260000e-06	-2.639491e-06	-8.106056e-10	-1.835751e+01	-5.595462e+01
1.270000e-06	-2.598675e-06	-8.016822e-10	-1.807363e+01	-5.549985e+01
1.280000e-06	-2.557582e-06	-7.922653e-10	-1.778784e+01	-5.503914e+01
1.290000e-06	-2.516193e-06	-7.828314e-10	-1.749998e+01	-5.457248e+01
1.300000e-06	-2.474477e-06	-7.757671e-10	-1.720984e+01	-5.409987e+01
1.310000e-06	-2.432392e-06	-7.693758e-10	-1.691714e+01	-5.362127e+01
1.320000e-06	-2.390018e-06	-7.618591e-10	-1.662244e+01	-5.313667e+01
1.330000e-06	-2.347353e-06	-7.540125e-10	-1.632571e+01	-5.264604e+01
1.340000e-06	-2.304438e-06	-7.481621e-10	-1.602724e+01	-5.214933e+01
1.350000e-06	-2.261366e-06	-7.430980e-10	-1.572767e+01	-5.164650e+01
1.360000e-06	-2.218163e-06	-7.370114e-10	-1.542720e+01	-5.113748e+01
1.370000e-06	-2.174809e-06	-7.289165e-10	-1.512567e+01	-5.062218e+01
1.380000e-06	-2.131287e-06	-7.229857e-10	-1.482298e+01	-5.010052e+01
1.390000e-06	-2.087597e-06	-7.158899e-10	-1.451912e+01	-4.957238e+01
1.400000e-06	-2.043819e-06	-7.058970e-10	-1.421465e+01	-4.903762e+01
1.410000e-06	-2.000032e-06	-6.949489e-10	-1.391011e+01	-4.849608e+01
1.420000e-06	-1.956216e-06	-6.860766e-10	-1.360537e+01	-4.794759e+01
1.430000e-06	-1.912249e-06	-6.804802e-10	-1.329958e+01	-4.739193e+01
1.440000e-06	-1.868168e-06	-6.754011e-10	-1.299300e+01	-4.682887e+01
1.450000e-06	-1.824122e-06	-6.671319e-10	-1.268666e+01	-4.625816e+01
1.460000e-06	-1.779962e-06	-6.562870e-10	-1.237953e+01	-4.567951e+01
1.470000e-06	-1.735654e-06	-6.435013e-10	-1.207137e+01	-4.509261e+01
1.480000e-06	-1.691183e-06	-6.303657e-10	-1.176208e+01	-4.449711e+01
1.490000e-06	-1.646513e-06	-6.187439e-10	-1.145141e+01	-4.389265e+01
1.500000e-06	-1.601685e-06	-6.091974e-10	-1.113963e+01	-4.327883e+01
1.510000e-06	-1.556711e-06	-6.038844e-10	-1.082684e+01	-4.265523e+01
1.520000e-06	-1.511656e-06	-5.995391e-10	-1.051348e+01	-4.202140e+01
1.530000e-06	-1.466541e-06	-5.919425e-10	-1.019971e+01	-4.137688e+01
1.540000e-06	-1.421347e-06	-5.806480e-10	-9.885389e+00	-4.072117e+01
1.550000e-06	-1.376032e-06	-5.672627e-10	-9.570223e+00	-4.005377e+01
1.560000e-06	-1.330630e-06	-5.528956e-10	-9.254458e+00	-3.937414e+01
1.570000e-06	-1.285073e-06	-5.391639e-10	-8.937606e+00	-3.868175e+01
1.580000e-06	-1.239426e-06	-5.270587e-10	-8.620134e+00	-3.797603e+01
1.590000e-06	-1.193757e-06	-5.181104e-10	-8.302514e+00	-3.725643e+01
1.600000e-06	-1.147963e-06	-5.090055e-10	-7.984019e+00	-3.652237e+01
1.610000e-06	-1.102056e-06	-4.963664e-10	-7.664738e+00	-3.577329e+01
1.620000e-06	-1.056101e-06	-4.827064e-10	-7.345119e+00	-3.500862e+01
1.630000e-06	-1.010064e-06	-4.713330e-10	-7.024940e+00	-3.422779e+01
1.640000e-06	-9.639590e-07	-4.612157e-10	-6.704280e+00	-3.343025e+01
1.650000e-06	-9.177640e-07	-4.498888e-10	-6.382996e+00	-3.261546e+01
1.660000e-06	-8.715144e-07	-4.365023e-10	-6.061333e+00	-3.178291e+01
1.670000e-06	-8.252613e-07	-4.211502e-10	-5.739646e+00	-3.093209e+01
1.680000e-06	-7.789523e-07	-4.048979e-10	-5.417569e+00	-3.006253e+01
1.690000e-06	-7.325680e-07	-3.896212e-10	-5.094969e+00	-2.917380e+01
1.700000e-06	-6.860483e-07	-3.768343e-10	-4.771427e+00	-2.826548e+01
1.710000e-06	-6.394915e-07	-3.652318e-10	-4.447627e+00	-2.733721e+01
1.720000e-06	-5.929745e-07	-3.529381e-10	-4.124104e+00	-2.638867e+01
1.730000e-06	-5.464267e-07	-3.381722e-10	-3.800367e+00	-2.541959e+01
1.740000e-06	-4.998466e-07	-3.195080e-10	-3.476405e+00	-2.442974e+01
1.750000e-06	-4.532227e-07	-3.011409e-10	-3.152138e+00	-2.341894e+01
1.760000e-06	-4.065107e-07	-2.844164e-10	-2.827259e+00	-2.238708e+01
1.770000e-06	-3.597476e-07	-2.692064e-10	-2.502024e+00	-2.133412e+01
1.780000e-06	-3.130224e-07	-2.558209e-10	-2.177053e+00	-2.026006e+01
1.790000e-06	-2.663072e-07	-2.430106e-10	-1.852152e+00	-1.916496e+01
1.800000e-06	-2.195386e-07	-2.277798e-10	-1.526879e+00	-1.804898e+01
1.810000e-06	-1.727815e-07	-2.094933e-10	-1.201685e+00	-1.691231e+01
1.820000e-06	-1.260388e-07	-1.916080e-10	-8.765926e-01	-1.575524e+01
1.830000e-06	-7.925659e-08	-1.750609e-10	-5.512251e-01	-1.457810e+01
1.840000e-06	-3.241606e-08	-1.593832e-10	-2.254518e-01	-1.338132e+01
1.850000e-06	1.441045e-08	-1.455393e-10	1.002239e-01	-1.216538e+01
1.860000e-06	6.120105e-08	-1.317892e-10	4.256498e-01	-1.093083e+01
1.870000e-06	1.079692e-07	-1.166479e-10	7.509199e-01	-9.678292e+00
1.880000e-06	1.546865e-07	-9.932258e-11	1.075836e+00	-8.408458e+00
1.890000e-06	2.015067e-07	-7.845562e-11	1.401468e+00	-7.122079e+00
1.900000e-06	2.484311e-07	-5.623742e-11	1.727824e+00	-5.819972e+00
1.910000e-06	2.952326e-07	-3.555454e-11	2.053326e+00	-4.503012e+00
1.920000e-06	3.418721e-07	-1.786480e-11	2.377701e+00	-3.172131e+00
1.930000e-06	3.884879e-07	-3.334286e-12	2.701911e+00	-1.828317e+00
1.940000e-06	4.351174e-07	1.046694e-11	3.026217e+00	-4.726054e-01
1.950000e-06	4.817142e-07	2.742684e-11	3.350295e+00	8.939205e-01
1.960000e-06	5.282702e-07	4.667118e-11	3.674089e+00	2.270136e+00
1.970000e-06	5.747350e-07	6.722295e-11	3.997249e+00	3.654879e+00
1.980000e-06	6.211090e-07	8.765838e-11	4.319778e+00	5.046953e+00
1.990000e-06	6.674246e-07	1.075894e-10	4.641900e+00	6.445136e+00
2.000000e-06	7.137034e-07	1.270180e-10	4.963767e+00	7.848179e+00
2.010000e-06	7.599706e-07	1.456893e-10	5.285552e+00	9.254819e+00
2.020000e-06	8.062008e-07	1.662127e-10	5.607081e+00	1.066378e+01
2.030000e-06	8.524318e-07	1.878785e-10	5.928614e+00	1.207377e+01
2.040000e-06	8.986184e-07	2.087911e-10	6.249840e+00	1.348350e+01
2.050000e-06	9.446981e-07	2.277905e-10	6.570322e+00	1.489169e+01
2.060000e-06	9.906859e-07	2.453841e-10	6.890164e+00	1.629706e+01
2.070000e-06	1.036592e-06	2.629647e-10	7.209436e+00	1.769834e+01
2.080000e-06	1.082438e-06	2.830619e-10	7.528293e+00	1.909429e+01
2.090000e-06	1.128208e-06	3.068884e-10	7.846624e+00	2.048367e+01
2.100000e-06	1.173913e-06	3.320346e-10	8.164496e+00	2.186529e+01
2.110000e-06	1.219583e-06	3.546975e-10	8.482134e+00	2.323798e+01
2.120000e-06	1.265219e-06	3.718756e-10	8.799523e+00	2.460061e+01
2.130000e-06	1.310717e-06	3.865700e-10	9.115960e+00	2.595207e+01
2.140000e-06	1.356078e-06	4.015219e-10	9.431447e+00	2.729131e+01
2.150000e-06	1.401371e-06	4.173876e-10	9.746453e+00	2.861734e+01
2.160000e-06	1.446595e-06	4.360200e-10	1.006099e+01	2.992918e+01
2.170000e-06	1.491731e-06	4.571640e-10	1.037491e+01	3.122594e+01
2.180000e-06	1.536774e-06	4.799256e-10	1.068817e+01	3.250675e+01
2.190000e-06	1.581709e-06	5.018923e-10	1.100069e+01	3.377082e+01
2.200000e-06	1.626500e-06	5.200843e-10	1.131222e+01	3.501741e+01
2.210000e-06	1.671127e-06	5.357022e-10	1.162260e+01	3.624582e+01
2.220000e-06	1.715580e-06	5.490724e-10	1.193176e+01	3.745544e+01
2.230000e-06	1.759915e-06	5.621182e-10	1.224011e+01	3.864570e+01
2.240000e-06	1.804081e-06	5.759885e-10	1.254728e+01	3.981609e+01
2.250000e-06	1.848118e-06	5.907172e-10	1.285356e+01	4.096617e+01
2.260000e-06	1.892131e-06	6.068952e-10	1.315966e+01	4.209555e+01
2.270000e-06	1.936059e-06	6.234997e-10	1.346518e+01	4.320389e+01
2.280000e-06	1.979914e-06	6.429508e-10	1.377019e+01	4.429094e+01
2.290000e-06	2.023679e-06	6.615362e-10	1.407457e+01	4.535646e+01
2.300000e-06	2.067347e-06	6.773737e-10	1.437828e+01	4.640031e+01
2.310000e-06	2.110952e-06	6.903352e-10	1.468155e+01	4.742238e+01
2.320000e-06	2.154470e-06	7.025638e-10	1.498422e+01	4.842260e+01
2.330000e-06	2.197938e-06	7.155452e-10	1.528653e+01	4.940098e+01
2.340000e-06	2.241304e-06	7.278850e-10	1.558814e+01	5.035756e+01
2.350000e-06	2.284508e-06	7.419330e-10	1.588862e+01	5.129241e+01
2.360000e-06	2.327471e-06	7.590842e-10	1.618743e+01	5.220566e+01
2.370000e-06	2.370220e-06	7.751011e-10	1.648475e+01	5.309749e+01
2.380000e-06	2.412744e-06	7.870699e-10	1.678050e+01	5.396809e+01
2.390000e-06	2.454939e-06	7.979066e-10	1.707396e+01	5.481770e+01
2.400000e-06	2.496856e-06	8.079544e-10	1.736549e+01	5.564659e+01
2.410000e-06	2.538396e-06	8.169310e-10	1.765440e+01	5.645505e+01
2.420000e-06	2.579511e-06	8.264184e-10	1.794035e+01	5.724341e+01
2.430000e-06	2.620326e-06	8.379780e-10	1.822422e+01	5.801201e+01
2.440000e-06	2.660928e-06	8.505974e-10	1.850660e+01	5.876121e+01
2.450000e-06	2.701313e-06	8.626483e-10	1.878748e+01	5.949140e+01
2.460000e-06	2.741452e-06	8.746330e-10	1.906664e+01	6.020298e+01
2.470000e-06	2.781442e-06	8.881605e-10	1.934477e+01	6.089636e+01
2.480000e-06	2.821391e-06	8.992755e-10	1.962261e+01	6.157196e+01
2.490000e-06	2.861225e-06	9.063394e-10	1.989966e+01	6.223020e+01
2.500000e-06	2.900862e-06	9.123670e-10	2.017533e+01	6.287154e+01
2.510000e-06	2.940374e-06	9.210146e-10	2.045013e+01	6.349639e+01
2.520000e-06	2.979798e-06	9.325332e-10	2.072432e+01	6.410522e+01
2.530000e-06	3.019051e-06	9.448954e-10	2.099733e+01	6.469846e+01
2.540000e-06	3.058044e-06	9.553103e-10	2.126852e+01	6.527654e+01
2.550000e-06	3.096708e-06	9.634517e-10	2.153743e+01	6.583992e+01
2.560000e-06	3.135097e-06	9.699289e-10	2.180442e+01	6.638903e+01
2.570000e-06	3.173317e-06	9.749973e-10	2.207024e+01	6.692429e+01
2.580000e-06	3.211384e-06	9.797305e-10	2.233499e+01	6.744614e+01
2.590000e-06	3.249225e-06	9.857951e-10	2.259818e+01	6.795498e+01
2.600000e-06	3.286920e-06	9.942518e-10	2.286034e+01	6.845124e+01
2.610000e-06	3.324474e-06	1.003785e-09	2.312153e+01	6.893530e+01
2.620000e-06	3.361756e-06	1.010721e-09	2.338082e+01	6.940756e+01
2.630000e-06	3.398757e-06	1.013107e-09	2.363816e+01	6.986840e+01
2.640000e-06	3.435459e-06	1.014816e-09	2.389342e+01	7.031820e+01
2.650000e-06	3.471851e-06	1.017688e-09	2.414653e+01	7.075731e+01
2.660000e-06	3.508037e-06	1.021758e-09	2.439820e+01	7.118608e+01
2.670000e-06	3.544087e-06	1.026744e-09	2.464892e+01	7.160485e+01
2.680000e-06	3.579948e-06	1.033054e-09	2.489834e+01	7.201395e+01
2.690000e-06	3.615655e-06	1.041803e-09	2.514667e+01	7.241370e+01
2.700000e-06	3.651272e-06	1.051134e-09	2.539439e+01	7.280439e+01
2.710000e-06	3.686772e-06	1.058555e-09	2.564129e+01	7.318633e+01
2.720000e-06	3.722035e-06	1.063189e-09	2.588654e+01	7.355978e+01
2.730000e-06	3.756949e-06	1.066256e-09	2.612937e+01	7.392502e+01
2.740000e-06	3.791506e-06	1.069298e-09	2.636971e+01	7.428231e+01
2.750000e-06	3.825682e-06	1.072234e-09	2.660740e+01	7.463189e+01
2.760000e-06	3.859343e-06	1.075467e-09	2.684151e+01	7.497399e+01
2.770000e-06	3.892406e-06	1.079743e-09	2.707146e+01	7.530884e+01
2.780000e-06	3.925030e-06	1.085647e-09	2.729836e+01	7.563665e+01
2.790000e-06	3.957405e-06	1.092704e-09	2.752353e+01	7.595762e+01
2.800000e-06	3.989520e-06	1.099784e-09	2.774689e+01	7.627194e+01
2.810000e-06	4.021432e-06	1.105712e-09	2.796883e+01	7.657978e+01
2.820000e-06	4.053193e-06	1.110504e-09	2.818973e+01	7.688130e+01
2.830000e-06	4.084772e-06	1.114846e-09	2.840936e+01	7.717667e+01
2.840000e-06	4.116175e-06	1.119085e-09	2.862777e+01	7.746603e+01
2.850000e-06	4.147307e-06	1.123769e-09	2.884428e+01	7.774951e+01
2.860000e-06	4.178070e-06	1.129791e-09	2.905824e+01	7.802723e+01
2.870000e-06	4.208466e-06	1.134288e-09	2.926964e+01	7.829931e+01
2.880000e-06	4.238602e-06	1.137518e-09	2.947923e+01	7.856584e+01
2.890000e-06	4.268552e-06	1.143246e-09	2.968753e+01	7.882692e+01
2.900000e-06	4.298188e-06	1.150434e-09	2.989365e+01	7.908263e+01
