# Temperatura_=_11.06
# Concentracion g/m^3_=_1620.0
# C_Vs_to_Am_M_A/Vsm_=_65563218390.804596
# pendiente_HvsI_1/m_=_3716.3
# ordenada_HvsI_A/m_=_1297.0
# frecuencia_Hz_=_135088.3822577113

Tiempo_(s)	Campo_(V.s)	Magnetizacion_(V.s)	Campo_(kA/m)	Magnetizacion_(A/m)
0.000000e+00	-5.513154e-06	-1.535101e-09	-3.838019e+01	-9.899579e+01
1.000000e-08	-5.513388e-06	-1.533015e-09	-3.838182e+01	-9.903253e+01
2.000000e-08	-5.513493e-06	-1.531516e-09	-3.838255e+01	-9.906719e+01
3.000000e-08	-5.513309e-06	-1.530640e-09	-3.838127e+01	-9.909939e+01
4.000000e-08	-5.512593e-06	-1.526348e-09	-3.837629e+01	-9.912877e+01
5.000000e-08	-5.511270e-06	-1.517175e-09	-3.836708e+01	-9.915493e+01
6.000000e-08	-5.509348e-06	-1.500932e-09	-3.835370e+01	-9.917748e+01
7.000000e-08	-5.506860e-06	-1.496038e-09	-3.833638e+01	-9.919604e+01
8.000000e-08	-5.503874e-06	-1.537932e-09	-3.831559e+01	-9.921020e+01
9.000000e-08	-5.500456e-06	-1.577809e-09	-3.829180e+01	-9.921959e+01
1.000000e-07	-5.496613e-06	-1.618980e-09	-3.826504e+01	-9.922381e+01
1.100000e-07	-5.492373e-06	-1.570575e-09	-3.823552e+01	-9.922252e+01
1.200000e-07	-5.487868e-06	-1.450154e-09	-3.820416e+01	-9.921535e+01
1.300000e-07	-5.483237e-06	-1.427390e-09	-3.817193e+01	-9.920197e+01
1.400000e-07	-5.478308e-06	-1.539002e-09	-3.813761e+01	-9.918206e+01
1.500000e-07	-5.472930e-06	-1.563748e-09	-3.810017e+01	-9.915534e+01
1.600000e-07	-5.467211e-06	-1.505638e-09	-3.806036e+01	-9.912154e+01
1.700000e-07	-5.461067e-06	-1.425647e-09	-3.801759e+01	-9.908041e+01
1.800000e-07	-5.454524e-06	-1.583692e-09	-3.797204e+01	-9.903176e+01
1.900000e-07	-5.447565e-06	-1.575440e-09	-3.792359e+01	-9.897539e+01
2.000000e-07	-5.440208e-06	-1.483573e-09	-3.787238e+01	-9.891116e+01
2.100000e-07	-5.432573e-06	-1.398998e-09	-3.781922e+01	-9.883896e+01
2.200000e-07	-5.424752e-06	-1.549290e-09	-3.776478e+01	-9.875869e+01
2.300000e-07	-5.416692e-06	-1.615916e-09	-3.770867e+01	-9.867031e+01
2.400000e-07	-5.408192e-06	-1.548207e-09	-3.764950e+01	-9.857381e+01
2.500000e-07	-5.399128e-06	-1.478453e-09	-3.758640e+01	-9.846918e+01
2.600000e-07	-5.389415e-06	-1.511718e-09	-3.751878e+01	-9.835648e+01
2.700000e-07	-5.378951e-06	-1.539322e-09	-3.744593e+01	-9.823578e+01
2.800000e-07	-5.367907e-06	-1.484155e-09	-3.736905e+01	-9.810719e+01
2.900000e-07	-5.356499e-06	-1.501216e-09	-3.728963e+01	-9.797083e+01
3.000000e-07	-5.344650e-06	-1.514315e-09	-3.720715e+01	-9.782686e+01
3.100000e-07	-5.332486e-06	-1.538598e-09	-3.712246e+01	-9.767546e+01
3.200000e-07	-5.320004e-06	-1.469430e-09	-3.703557e+01	-9.751682e+01
3.300000e-07	-5.307030e-06	-1.498795e-09	-3.694525e+01	-9.735117e+01
3.400000e-07	-5.293685e-06	-1.473286e-09	-3.685235e+01	-9.717874e+01
3.500000e-07	-5.280034e-06	-1.514627e-09	-3.675732e+01	-9.699976e+01
3.600000e-07	-5.265973e-06	-1.470547e-09	-3.665943e+01	-9.681450e+01
3.700000e-07	-5.251385e-06	-1.487932e-09	-3.655787e+01	-9.662322e+01
3.800000e-07	-5.236241e-06	-1.475476e-09	-3.645245e+01	-9.642618e+01
3.900000e-07	-5.220632e-06	-1.507924e-09	-3.634378e+01	-9.622366e+01
4.000000e-07	-5.204418e-06	-1.447700e-09	-3.623091e+01	-9.601591e+01
4.100000e-07	-5.187829e-06	-1.461763e-09	-3.611542e+01	-9.580321e+01
4.200000e-07	-5.170957e-06	-1.489677e-09	-3.599796e+01	-9.558580e+01
4.300000e-07	-5.153710e-06	-1.469558e-09	-3.587790e+01	-9.536393e+01
4.400000e-07	-5.136124e-06	-1.411825e-09	-3.575548e+01	-9.513784e+01
4.500000e-07	-5.118213e-06	-1.487633e-09	-3.563079e+01	-9.490775e+01
4.600000e-07	-5.099938e-06	-1.499581e-09	-3.550357e+01	-9.467386e+01
4.700000e-07	-5.081099e-06	-1.411031e-09	-3.537242e+01	-9.443636e+01
4.800000e-07	-5.061855e-06	-1.421926e-09	-3.523844e+01	-9.419541e+01
4.900000e-07	-5.042471e-06	-1.510737e-09	-3.510351e+01	-9.395117e+01
5.000000e-07	-5.022873e-06	-1.443376e-09	-3.496707e+01	-9.370376e+01
5.100000e-07	-5.003059e-06	-1.384644e-09	-3.482913e+01	-9.345328e+01
5.200000e-07	-4.982986e-06	-1.469181e-09	-3.468940e+01	-9.319982e+01
5.300000e-07	-4.962572e-06	-1.456111e-09	-3.454728e+01	-9.294343e+01
5.400000e-07	-4.941795e-06	-1.388853e-09	-3.440264e+01	-9.268414e+01
5.500000e-07	-4.920715e-06	-1.444700e-09	-3.425589e+01	-9.242198e+01
5.600000e-07	-4.899351e-06	-1.472609e-09	-3.410716e+01	-9.215693e+01
5.700000e-07	-4.877672e-06	-1.361914e-09	-3.395624e+01	-9.188896e+01
5.800000e-07	-4.855626e-06	-1.388044e-09	-3.380277e+01	-9.161801e+01
5.900000e-07	-4.833223e-06	-1.461409e-09	-3.364681e+01	-9.134402e+01
6.000000e-07	-4.810412e-06	-1.406222e-09	-3.348801e+01	-9.106690e+01
6.100000e-07	-4.787175e-06	-1.361591e-09	-3.332625e+01	-9.078655e+01
6.200000e-07	-4.763713e-06	-1.438060e-09	-3.316291e+01	-9.050284e+01
6.300000e-07	-4.740046e-06	-1.395894e-09	-3.299815e+01	-9.021563e+01
6.400000e-07	-4.716269e-06	-1.342588e-09	-3.283263e+01	-8.992480e+01
6.500000e-07	-4.692250e-06	-1.378633e-09	-3.266542e+01	-8.963018e+01
6.600000e-07	-4.667699e-06	-1.396060e-09	-3.249450e+01	-8.933162e+01
6.700000e-07	-4.642648e-06	-1.334650e-09	-3.232011e+01	-8.902895e+01
6.800000e-07	-4.617098e-06	-1.363963e-09	-3.214224e+01	-8.872200e+01
6.900000e-07	-4.590905e-06	-1.381578e-09	-3.195990e+01	-8.841062e+01
7.000000e-07	-4.564170e-06	-1.344955e-09	-3.177378e+01	-8.809462e+01
7.100000e-07	-4.537101e-06	-1.323680e-09	-3.158534e+01	-8.777386e+01
7.200000e-07	-4.509782e-06	-1.348543e-09	-3.139516e+01	-8.744816e+01
7.300000e-07	-4.482218e-06	-1.320755e-09	-3.120326e+01	-8.711739e+01
7.400000e-07	-4.454507e-06	-1.306524e-09	-3.101036e+01	-8.678141e+01
7.500000e-07	-4.426642e-06	-1.317461e-09	-3.081637e+01	-8.644007e+01
7.600000e-07	-4.398530e-06	-1.313274e-09	-3.062066e+01	-8.609326e+01
7.700000e-07	-4.370060e-06	-1.289178e-09	-3.042247e+01	-8.574087e+01
7.800000e-07	-4.341182e-06	-1.289473e-09	-3.022143e+01	-8.538281e+01
7.900000e-07	-4.311943e-06	-1.285440e-09	-3.001788e+01	-8.501900e+01
8.000000e-07	-4.282421e-06	-1.271059e-09	-2.981236e+01	-8.464937e+01
8.100000e-07	-4.252708e-06	-1.268214e-09	-2.960552e+01	-8.427387e+01
8.200000e-07	-4.222712e-06	-1.262342e-09	-2.939669e+01	-8.389248e+01
8.300000e-07	-4.192359e-06	-1.249376e-09	-2.918539e+01	-8.350517e+01
8.400000e-07	-4.161681e-06	-1.244386e-09	-2.897183e+01	-8.311194e+01
8.500000e-07	-4.130753e-06	-1.250144e-09	-2.875652e+01	-8.271280e+01
8.600000e-07	-4.099630e-06	-1.232088e-09	-2.853985e+01	-8.230778e+01
8.700000e-07	-4.068278e-06	-1.223069e-09	-2.832159e+01	-8.189693e+01
8.800000e-07	-4.036745e-06	-1.217458e-09	-2.810207e+01	-8.148029e+01
8.900000e-07	-4.005086e-06	-1.210396e-09	-2.788168e+01	-8.105793e+01
9.000000e-07	-3.973273e-06	-1.193271e-09	-2.766021e+01	-8.062992e+01
9.100000e-07	-3.941162e-06	-1.194370e-09	-2.743667e+01	-8.019637e+01
9.200000e-07	-3.908743e-06	-1.182297e-09	-2.721098e+01	-7.975736e+01
9.300000e-07	-3.875919e-06	-1.174596e-09	-2.698247e+01	-7.931299e+01
9.400000e-07	-3.842629e-06	-1.169662e-09	-2.675073e+01	-7.886337e+01
9.500000e-07	-3.808871e-06	-1.170292e-09	-2.651571e+01	-7.840862e+01
9.600000e-07	-3.774577e-06	-1.149938e-09	-2.627697e+01	-7.794886e+01
9.700000e-07	-3.739856e-06	-1.141798e-09	-2.603526e+01	-7.748419e+01
9.800000e-07	-3.704775e-06	-1.141444e-09	-2.579104e+01	-7.701475e+01
9.900000e-07	-3.669404e-06	-1.137479e-09	-2.554480e+01	-7.654064e+01
1.000000e-06	-3.633877e-06	-1.126510e-09	-2.529748e+01	-7.606198e+01
1.010000e-06	-3.598332e-06	-1.126004e-09	-2.505003e+01	-7.557887e+01
1.020000e-06	-3.562674e-06	-1.116030e-09	-2.480180e+01	-7.509144e+01
1.030000e-06	-3.526803e-06	-1.103756e-09	-2.455208e+01	-7.459977e+01
1.040000e-06	-3.490742e-06	-1.097295e-09	-2.430104e+01	-7.410395e+01
1.050000e-06	-3.454488e-06	-1.096859e-09	-2.404865e+01	-7.360407e+01
1.060000e-06	-3.417928e-06	-1.085972e-09	-2.379414e+01	-7.310020e+01
1.070000e-06	-3.381075e-06	-1.078019e-09	-2.353758e+01	-7.259241e+01
1.080000e-06	-3.343951e-06	-1.073088e-09	-2.327914e+01	-7.208076e+01
1.090000e-06	-3.306556e-06	-1.061195e-09	-2.301882e+01	-7.156528e+01
1.100000e-06	-3.269016e-06	-1.049411e-09	-2.275748e+01	-7.104602e+01
1.110000e-06	-3.231326e-06	-1.042874e-09	-2.249509e+01	-7.052299e+01
1.120000e-06	-3.193331e-06	-1.036271e-09	-2.223059e+01	-6.999620e+01
1.130000e-06	-3.155060e-06	-1.027429e-09	-2.196416e+01	-6.946566e+01
1.140000e-06	-3.116543e-06	-1.022649e-09	-2.169603e+01	-6.893135e+01
1.150000e-06	-3.077816e-06	-1.011714e-09	-2.142642e+01	-6.839325e+01
1.160000e-06	-3.038980e-06	-9.977044e-10	-2.115606e+01	-6.785132e+01
1.170000e-06	-3.000007e-06	-9.890797e-10	-2.088475e+01	-6.730553e+01
1.180000e-06	-2.960816e-06	-9.887056e-10	-2.061192e+01	-6.675582e+01
1.190000e-06	-2.921381e-06	-9.816714e-10	-2.033740e+01	-6.620212e+01
1.200000e-06	-2.881870e-06	-9.746742e-10	-2.006234e+01	-6.564437e+01
1.210000e-06	-2.842297e-06	-9.621770e-10	-1.978684e+01	-6.508247e+01
1.220000e-06	-2.802493e-06	-9.505276e-10	-1.950975e+01	-6.451634e+01
1.230000e-06	-2.762491e-06	-9.334204e-10	-1.923127e+01	-6.394588e+01
1.240000e-06	-2.722360e-06	-9.279996e-10	-1.895189e+01	-6.337098e+01
1.250000e-06	-2.682059e-06	-9.220258e-10	-1.867134e+01	-6.279153e+01
1.260000e-06	-2.641497e-06	-9.157673e-10	-1.838896e+01	-6.220741e+01
1.270000e-06	-2.600666e-06	-9.020493e-10	-1.810471e+01	-6.161848e+01
1.280000e-06	-2.559570e-06	-8.898277e-10	-1.781862e+01	-6.102461e+01
1.290000e-06	-2.518269e-06	-8.788261e-10	-1.753110e+01	-6.042567e+01
1.300000e-06	-2.476662e-06	-8.688079e-10	-1.724145e+01	-5.982149e+01
1.310000e-06	-2.434573e-06	-8.609049e-10	-1.694844e+01	-5.921193e+01
1.320000e-06	-2.392221e-06	-8.517484e-10	-1.665361e+01	-5.859682e+01
1.330000e-06	-2.349696e-06	-8.402238e-10	-1.635757e+01	-5.797600e+01
1.340000e-06	-2.306941e-06	-8.270782e-10	-1.605993e+01	-5.734929e+01
1.350000e-06	-2.263925e-06	-8.145773e-10	-1.576047e+01	-5.671650e+01
1.360000e-06	-2.220744e-06	-8.045962e-10	-1.545986e+01	-5.607744e+01
1.370000e-06	-2.177408e-06	-7.917629e-10	-1.515817e+01	-5.543192e+01
1.380000e-06	-2.133879e-06	-7.809396e-10	-1.485514e+01	-5.477972e+01
1.390000e-06	-2.090254e-06	-7.744908e-10	-1.455144e+01	-5.412064e+01
1.400000e-06	-2.046587e-06	-7.655279e-10	-1.424746e+01	-5.345443e+01
1.410000e-06	-2.002862e-06	-7.540230e-10	-1.394306e+01	-5.278087e+01
1.420000e-06	-1.959076e-06	-7.383540e-10	-1.363824e+01	-5.209971e+01
1.430000e-06	-1.915220e-06	-7.264158e-10	-1.333293e+01	-5.141068e+01
1.440000e-06	-1.871233e-06	-7.161517e-10	-1.302672e+01	-5.071353e+01
1.450000e-06	-1.827127e-06	-7.066607e-10	-1.271967e+01	-5.000796e+01
1.460000e-06	-1.782861e-06	-6.972553e-10	-1.241151e+01	-4.929369e+01
1.470000e-06	-1.738512e-06	-6.847106e-10	-1.210277e+01	-4.857041e+01
1.480000e-06	-1.694115e-06	-6.667076e-10	-1.179370e+01	-4.783780e+01
1.490000e-06	-1.649508e-06	-6.503710e-10	-1.148316e+01	-4.709555e+01
1.500000e-06	-1.604770e-06	-6.372824e-10	-1.117172e+01	-4.634329e+01
1.510000e-06	-1.559924e-06	-6.291636e-10	-1.085952e+01	-4.558069e+01
1.520000e-06	-1.514894e-06	-6.196029e-10	-1.054604e+01	-4.480739e+01
1.530000e-06	-1.469817e-06	-6.067588e-10	-1.023223e+01	-4.402301e+01
1.540000e-06	-1.424635e-06	-5.895347e-10	-9.917695e+00	-4.322717e+01
1.550000e-06	-1.379289e-06	-5.747423e-10	-9.602015e+00	-4.241948e+01
1.560000e-06	-1.333879e-06	-5.614599e-10	-9.285890e+00	-4.159955e+01
1.570000e-06	-1.288444e-06	-5.486683e-10	-8.969591e+00	-4.076699e+01
1.580000e-06	-1.242932e-06	-5.339602e-10	-8.652755e+00	-3.992139e+01
1.590000e-06	-1.197327e-06	-5.243708e-10	-8.335271e+00	-3.906235e+01
1.600000e-06	-1.151664e-06	-5.150602e-10	-8.017385e+00	-3.818946e+01
1.610000e-06	-1.105947e-06	-5.017892e-10	-7.699122e+00	-3.730234e+01
1.620000e-06	-1.060104e-06	-4.859263e-10	-7.379985e+00	-3.640059e+01
1.630000e-06	-1.014151e-06	-4.718225e-10	-7.060078e+00	-3.548383e+01
1.640000e-06	-9.681580e-07	-4.634347e-10	-6.739897e+00	-3.455168e+01
1.650000e-06	-9.220374e-07	-4.524269e-10	-6.418826e+00	-3.360380e+01
1.660000e-06	-8.758309e-07	-4.379232e-10	-6.097157e+00	-3.263983e+01
1.670000e-06	-8.295792e-07	-4.231248e-10	-5.775172e+00	-3.165948e+01
1.680000e-06	-7.833131e-07	-4.066217e-10	-5.453087e+00	-3.066244e+01
1.690000e-06	-7.370497e-07	-3.886559e-10	-5.131021e+00	-2.964844e+01
1.700000e-06	-6.907568e-07	-3.740055e-10	-4.808750e+00	-2.861725e+01
1.710000e-06	-6.443888e-07	-3.614439e-10	-4.485956e+00	-2.756867e+01
1.720000e-06	-5.979260e-07	-3.488824e-10	-4.162502e+00	-2.650253e+01
1.730000e-06	-5.514079e-07	-3.313549e-10	-3.838663e+00	-2.541871e+01
1.740000e-06	-5.048663e-07	-3.115732e-10	-3.514661e+00	-2.431711e+01
1.750000e-06	-4.583499e-07	-2.915473e-10	-3.190834e+00	-2.319771e+01
1.760000e-06	-4.118613e-07	-2.742115e-10	-2.867200e+00	-2.206051e+01
1.770000e-06	-3.653025e-07	-2.608072e-10	-2.543078e+00	-2.090558e+01
1.780000e-06	-3.185869e-07	-2.493281e-10	-2.217864e+00	-1.973301e+01
1.790000e-06	-2.718204e-07	-2.359397e-10	-1.892296e+00	-1.854299e+01
1.800000e-06	-2.251110e-07	-2.204262e-10	-1.567125e+00	-1.733573e+01
1.810000e-06	-1.784491e-07	-2.004924e-10	-1.242286e+00	-1.611151e+01
1.820000e-06	-1.318259e-07	-1.788130e-10	-9.177152e-01	-1.487068e+01
1.830000e-06	-8.516386e-08	-1.612113e-10	-5.928740e-01	-1.361363e+01
1.840000e-06	-3.840387e-08	-1.469026e-10	-2.673511e-01	-1.234080e+01
1.850000e-06	8.329204e-09	-1.326411e-10	5.798432e-02	-1.105273e+01
1.860000e-06	5.513073e-08	-1.180833e-10	3.837963e-01	-9.749984e+00
1.870000e-06	1.019484e-07	-1.031843e-10	7.097204e-01	-8.433189e+00
1.880000e-06	1.486611e-07	-8.565738e-11	1.034914e+00	-7.103034e+00
1.890000e-06	1.953757e-07	-6.368804e-11	1.360121e+00	-5.760262e+00
1.900000e-06	2.420738e-07	-4.133334e-11	1.685213e+00	-4.405666e+00
1.910000e-06	2.887843e-07	-2.032610e-11	2.010391e+00	-3.040091e+00
1.920000e-06	3.355011e-07	5.451790e-13	2.335614e+00	-1.664429e+00
1.930000e-06	3.821616e-07	1.981114e-11	2.660444e+00	-2.796148e-01
1.940000e-06	4.287527e-07	3.538806e-11	2.984791e+00	1.113374e+00
1.950000e-06	4.753177e-07	5.201628e-11	3.308957e+00	2.513524e+00
1.960000e-06	5.218984e-07	7.191195e-11	3.633231e+00	3.919788e+00
1.970000e-06	5.684063e-07	9.375374e-11	3.956999e+00	5.331092e+00
1.980000e-06	6.147346e-07	1.168797e-10	4.279516e+00	6.746336e+00
1.990000e-06	6.610233e-07	1.381957e-10	4.601758e+00	8.164401e+00
2.000000e-06	7.073734e-07	1.595583e-10	4.924428e+00	9.584154e+00
2.010000e-06	7.536573e-07	1.793284e-10	5.246636e+00	1.100445e+01
2.020000e-06	7.999083e-07	1.995512e-10	5.568616e+00	1.242414e+01
2.030000e-06	8.460880e-07	2.205238e-10	5.890099e+00	1.384208e+01
2.040000e-06	8.922380e-07	2.426712e-10	6.211375e+00	1.525713e+01
2.050000e-06	9.383476e-07	2.651628e-10	6.532371e+00	1.666816e+01
2.060000e-06	9.842946e-07	2.868183e-10	6.852234e+00	1.807404e+01
2.070000e-06	1.030232e-06	3.072419e-10	7.172029e+00	1.947368e+01
2.080000e-06	1.076087e-06	3.262817e-10	7.491253e+00	2.086602e+01
2.090000e-06	1.121824e-06	3.441601e-10	7.809653e+00	2.225001e+01
2.100000e-06	1.167546e-06	3.640853e-10	8.127952e+00	2.362464e+01
2.110000e-06	1.213183e-06	3.866731e-10	8.445659e+00	2.498894e+01
2.120000e-06	1.258684e-06	4.075776e-10	8.762412e+00	2.634198e+01
2.130000e-06	1.304148e-06	4.264945e-10	9.078914e+00	2.768289e+01
2.140000e-06	1.349528e-06	4.456603e-10	9.394829e+00	2.901082e+01
2.150000e-06	1.394744e-06	4.642151e-10	9.709603e+00	3.032499e+01
2.160000e-06	1.439798e-06	4.814576e-10	1.002325e+01	3.162466e+01
2.170000e-06	1.484802e-06	5.000379e-10	1.033655e+01	3.290917e+01
2.180000e-06	1.529736e-06	5.204303e-10	1.064936e+01	3.417788e+01
2.190000e-06	1.574562e-06	5.395359e-10	1.096142e+01	3.543024e+01
2.200000e-06	1.619238e-06	5.564673e-10	1.127244e+01	3.666574e+01
2.210000e-06	1.663724e-06	5.743046e-10	1.158213e+01	3.788393e+01
2.220000e-06	1.708209e-06	5.902299e-10	1.189181e+01	3.908443e+01
2.230000e-06	1.752587e-06	6.056115e-10	1.220075e+01	4.026691e+01
2.240000e-06	1.796728e-06	6.224013e-10	1.250804e+01	4.143110e+01
2.250000e-06	1.840702e-06	6.377102e-10	1.281417e+01	4.257678e+01
2.260000e-06	1.884637e-06	6.524350e-10	1.312003e+01	4.370380e+01
2.270000e-06	1.928522e-06	6.675620e-10	1.342554e+01	4.481205e+01
2.280000e-06	1.972329e-06	6.861546e-10	1.373050e+01	4.590146e+01
2.290000e-06	2.016067e-06	7.031610e-10	1.403498e+01	4.697204e+01
2.300000e-06	2.059745e-06	7.207757e-10	1.433906e+01	4.802382e+01
2.310000e-06	2.103357e-06	7.364335e-10	1.464267e+01	4.905689e+01
2.320000e-06	2.146902e-06	7.497466e-10	1.494580e+01	5.007136e+01
2.330000e-06	2.190304e-06	7.645080e-10	1.524795e+01	5.106740e+01
2.340000e-06	2.233645e-06	7.779888e-10	1.554967e+01	5.204519e+01
2.350000e-06	2.276961e-06	7.924691e-10	1.585122e+01	5.300496e+01
2.360000e-06	2.320001e-06	8.090390e-10	1.615084e+01	5.394695e+01
2.370000e-06	2.362675e-06	8.262886e-10	1.644792e+01	5.487145e+01
2.380000e-06	2.405077e-06	8.387516e-10	1.674310e+01	5.577873e+01
2.390000e-06	2.447308e-06	8.483152e-10	1.703710e+01	5.666912e+01
2.400000e-06	2.489180e-06	8.595819e-10	1.732860e+01	5.754292e+01
2.410000e-06	2.530649e-06	8.707125e-10	1.761729e+01	5.840048e+01
2.420000e-06	2.571762e-06	8.817070e-10	1.790350e+01	5.924213e+01
2.430000e-06	2.612572e-06	8.959022e-10	1.818760e+01	6.006822e+01
2.440000e-06	2.653198e-06	9.116669e-10	1.847042e+01	6.087909e+01
2.450000e-06	2.693664e-06	9.228756e-10	1.875213e+01	6.167508e+01
2.460000e-06	2.733903e-06	9.301624e-10	1.903225e+01	6.245655e+01
2.470000e-06	2.773954e-06	9.398735e-10	1.931107e+01	6.322382e+01
2.480000e-06	2.813839e-06	9.484674e-10	1.958873e+01	6.397723e+01
2.490000e-06	2.853521e-06	9.585522e-10	1.986498e+01	6.471709e+01
2.500000e-06	2.893094e-06	9.707847e-10	2.014047e+01	6.544373e+01
2.510000e-06	2.932553e-06	9.823721e-10	2.041517e+01	6.615744e+01
2.520000e-06	2.971879e-06	9.950693e-10	2.068894e+01	6.685852e+01
2.530000e-06	3.011068e-06	1.008694e-09	2.096175e+01	6.754724e+01
2.540000e-06	3.050026e-06	1.019088e-09	2.123296e+01	6.822388e+01
2.550000e-06	3.088731e-06	1.027079e-09	2.150241e+01	6.888868e+01
2.560000e-06	3.127212e-06	1.036123e-09	2.177030e+01	6.954191e+01
2.570000e-06	3.165462e-06	1.046005e-09	2.203658e+01	7.018378e+01
2.580000e-06	3.203476e-06	1.054296e-09	2.230122e+01	7.081453e+01
2.590000e-06	3.241258e-06	1.062992e-09	2.256424e+01	7.143436e+01
2.600000e-06	3.278854e-06	1.073571e-09	2.282597e+01	7.204348e+01
2.610000e-06	3.316269e-06	1.084303e-09	2.308643e+01	7.264209e+01
2.620000e-06	3.353512e-06	1.093302e-09	2.334570e+01	7.323037e+01
2.630000e-06	3.390514e-06	1.100279e-09	2.360329e+01	7.380851e+01
2.640000e-06	3.427217e-06	1.107286e-09	2.385881e+01	7.437668e+01
2.650000e-06	3.463715e-06	1.114913e-09	2.411289e+01	7.493506e+01
2.660000e-06	3.499994e-06	1.122108e-09	2.436545e+01	7.548383e+01
2.670000e-06	3.536021e-06	1.128689e-09	2.461625e+01	7.602314e+01
2.680000e-06	3.571826e-06	1.134869e-09	2.486551e+01	7.655318e+01
2.690000e-06	3.607460e-06	1.142616e-09	2.511358e+01	7.707411e+01
2.700000e-06	3.643014e-06	1.151469e-09	2.536109e+01	7.758610e+01
2.710000e-06	3.678476e-06	1.160294e-09	2.560796e+01	7.808932e+01
2.720000e-06	3.713711e-06	1.169389e-09	2.585325e+01	7.858396e+01
2.730000e-06	3.748564e-06	1.177760e-09	2.609588e+01	7.907019e+01
2.740000e-06	3.783074e-06	1.185352e-09	2.633612e+01	7.954819e+01
2.750000e-06	3.817237e-06	1.190405e-09	2.657396e+01	8.001815e+01
2.760000e-06	3.850879e-06	1.194528e-09	2.680816e+01	8.048026e+01
2.770000e-06	3.884005e-06	1.200588e-09	2.703876e+01	8.093472e+01
2.780000e-06	3.916736e-06	1.208564e-09	2.726662e+01	8.138171e+01
2.790000e-06	3.949151e-06	1.215437e-09	2.749228e+01	8.182144e+01
2.800000e-06	3.981258e-06	1.222599e-09	2.771580e+01	8.225412e+01
2.810000e-06	4.013096e-06	1.229094e-09	2.793744e+01	8.267993e+01
2.820000e-06	4.044781e-06	1.234826e-09	2.815801e+01	8.309909e+01
2.830000e-06	4.076361e-06	1.241268e-09	2.837786e+01	8.351179e+01
2.840000e-06	4.107723e-06	1.248802e-09	2.859619e+01	8.391824e+01
2.850000e-06	4.138785e-06	1.258831e-09	2.881243e+01	8.431862e+01
2.860000e-06	4.169517e-06	1.270078e-09	2.902638e+01	8.471312e+01
2.870000e-06	4.199918e-06	1.277327e-09	2.923801e+01	8.510194e+01
2.880000e-06	4.230046e-06	1.280178e-09	2.944776e+01	8.548525e+01
2.890000e-06	4.259870e-06	1.281853e-09	2.965537e+01	8.586320e+01
2.900000e-06	4.289422e-06	1.286963e-09	2.986110e+01	8.623596e+01
