# Temperatura_=_-0.5
# Concentracion g/m^3_=_1620.0
# C_Vs_to_Am_M_A/Vsm_=_65563218390.804596
# pendiente_HvsI_1/m_=_3716.3
# ordenada_HvsI_A/m_=_1297.0
# frecuencia_Hz_=_135094.77159142497

Tiempo_(s)	Campo_(V.s)	Magnetizacion_(V.s)	Campo_(kA/m)	Magnetizacion_(A/m)
0.000000e+00	-5.510746e-06	-1.328879e-09	-3.837231e+01	-8.889069e+01
1.000000e-08	-5.510991e-06	-1.323333e-09	-3.837401e+01	-8.884039e+01
2.000000e-08	-5.511020e-06	-1.320197e-09	-3.837421e+01	-8.879096e+01
3.000000e-08	-5.510670e-06	-1.320088e-09	-3.837178e+01	-8.874241e+01
4.000000e-08	-5.509872e-06	-1.316607e-09	-3.836622e+01	-8.869471e+01
5.000000e-08	-5.508529e-06	-1.302087e-09	-3.835686e+01	-8.864782e+01
6.000000e-08	-5.506649e-06	-1.283287e-09	-3.834378e+01	-8.860166e+01
7.000000e-08	-5.504182e-06	-1.287284e-09	-3.832660e+01	-8.855613e+01
8.000000e-08	-5.501121e-06	-1.343477e-09	-3.830528e+01	-8.851113e+01
9.000000e-08	-5.497659e-06	-1.412776e-09	-3.828118e+01	-8.846649e+01
1.000000e-07	-5.493791e-06	-1.408939e-09	-3.825424e+01	-8.842207e+01
1.100000e-07	-5.489539e-06	-1.325337e-09	-3.822463e+01	-8.837768e+01
1.200000e-07	-5.485040e-06	-1.261825e-09	-3.819331e+01	-8.833311e+01
1.300000e-07	-5.480225e-06	-1.284049e-09	-3.815978e+01	-8.828813e+01
1.400000e-07	-5.475059e-06	-1.340903e-09	-3.812381e+01	-8.824252e+01
1.500000e-07	-5.469512e-06	-1.302399e-09	-3.808519e+01	-8.819602e+01
1.600000e-07	-5.463565e-06	-1.271921e-09	-3.804377e+01	-8.814836e+01
1.700000e-07	-5.457304e-06	-1.307142e-09	-3.800018e+01	-8.809926e+01
1.800000e-07	-5.450729e-06	-1.400121e-09	-3.795439e+01	-8.804844e+01
1.900000e-07	-5.443680e-06	-1.366257e-09	-3.790532e+01	-8.799561e+01
2.000000e-07	-5.436208e-06	-1.289039e-09	-3.785328e+01	-8.794046e+01
2.100000e-07	-5.428493e-06	-1.283926e-09	-3.779956e+01	-8.788269e+01
2.200000e-07	-5.420576e-06	-1.371752e-09	-3.774443e+01	-8.782201e+01
2.300000e-07	-5.412388e-06	-1.390092e-09	-3.768742e+01	-8.775811e+01
2.400000e-07	-5.403825e-06	-1.350627e-09	-3.762779e+01	-8.769069e+01
2.500000e-07	-5.394655e-06	-1.342527e-09	-3.756395e+01	-8.761947e+01
2.600000e-07	-5.384740e-06	-1.359511e-09	-3.749491e+01	-8.754415e+01
2.700000e-07	-5.374103e-06	-1.351210e-09	-3.742083e+01	-8.746445e+01
2.800000e-07	-5.362935e-06	-1.321640e-09	-3.734307e+01	-8.738012e+01
2.900000e-07	-5.351477e-06	-1.348412e-09	-3.726328e+01	-8.729090e+01
3.000000e-07	-5.339643e-06	-1.358388e-09	-3.718089e+01	-8.719654e+01
3.100000e-07	-5.327469e-06	-1.344770e-09	-3.709611e+01	-8.709683e+01
3.200000e-07	-5.314860e-06	-1.318985e-09	-3.700831e+01	-8.699155e+01
3.300000e-07	-5.301857e-06	-1.348838e-09	-3.691777e+01	-8.688052e+01
3.400000e-07	-5.288528e-06	-1.338503e-09	-3.682496e+01	-8.676355e+01
3.500000e-07	-5.274783e-06	-1.328790e-09	-3.672925e+01	-8.664050e+01
3.600000e-07	-5.260574e-06	-1.323772e-09	-3.663031e+01	-8.651123e+01
3.700000e-07	-5.245860e-06	-1.343505e-09	-3.652786e+01	-8.637563e+01
3.800000e-07	-5.230587e-06	-1.322757e-09	-3.642151e+01	-8.623360e+01
3.900000e-07	-5.214747e-06	-1.327332e-09	-3.631121e+01	-8.608508e+01
4.000000e-07	-5.198463e-06	-1.332141e-09	-3.619782e+01	-8.593000e+01
4.100000e-07	-5.181826e-06	-1.323662e-09	-3.608198e+01	-8.576833e+01
4.200000e-07	-5.164913e-06	-1.303108e-09	-3.596421e+01	-8.560008e+01
4.300000e-07	-5.147737e-06	-1.314226e-09	-3.584461e+01	-8.542523e+01
4.400000e-07	-5.130283e-06	-1.317550e-09	-3.572307e+01	-8.524382e+01
4.500000e-07	-5.112345e-06	-1.310094e-09	-3.559817e+01	-8.505589e+01
4.600000e-07	-5.093904e-06	-1.302600e-09	-3.546976e+01	-8.486151e+01
4.700000e-07	-5.075056e-06	-1.293621e-09	-3.533852e+01	-8.466075e+01
4.800000e-07	-5.055822e-06	-1.287642e-09	-3.520459e+01	-8.445370e+01
4.900000e-07	-5.036348e-06	-1.305214e-09	-3.506899e+01	-8.424048e+01
5.000000e-07	-5.016694e-06	-1.308888e-09	-3.493214e+01	-8.402121e+01
5.100000e-07	-4.996848e-06	-1.280897e-09	-3.479394e+01	-8.379601e+01
5.200000e-07	-4.976730e-06	-1.277540e-09	-3.465386e+01	-8.356504e+01
5.300000e-07	-4.956299e-06	-1.289960e-09	-3.451159e+01	-8.332843e+01
5.400000e-07	-4.935516e-06	-1.281359e-09	-3.436688e+01	-8.308636e+01
5.500000e-07	-4.914323e-06	-1.266955e-09	-3.421931e+01	-8.283899e+01
5.600000e-07	-4.892769e-06	-1.269891e-09	-3.406922e+01	-8.258649e+01
5.700000e-07	-4.870846e-06	-1.252517e-09	-3.391657e+01	-8.232904e+01
5.800000e-07	-4.848544e-06	-1.248511e-09	-3.376127e+01	-8.206681e+01
5.900000e-07	-4.825942e-06	-1.263754e-09	-3.360390e+01	-8.179998e+01
6.000000e-07	-4.803020e-06	-1.260314e-09	-3.344428e+01	-8.152873e+01
6.100000e-07	-4.779751e-06	-1.236036e-09	-3.328226e+01	-8.125324e+01
6.200000e-07	-4.756302e-06	-1.243789e-09	-3.311898e+01	-8.097368e+01
6.300000e-07	-4.732665e-06	-1.240424e-09	-3.295439e+01	-8.069023e+01
6.400000e-07	-4.708724e-06	-1.221779e-09	-3.278768e+01	-8.040304e+01
6.500000e-07	-4.684392e-06	-1.218805e-09	-3.261825e+01	-8.011229e+01
6.600000e-07	-4.659710e-06	-1.228845e-09	-3.244639e+01	-7.981811e+01
6.700000e-07	-4.634635e-06	-1.211374e-09	-3.227178e+01	-7.952067e+01
6.800000e-07	-4.608958e-06	-1.209362e-09	-3.209299e+01	-7.922010e+01
6.900000e-07	-4.582665e-06	-1.218767e-09	-3.190991e+01	-7.891653e+01
7.000000e-07	-4.555903e-06	-1.213227e-09	-3.172356e+01	-7.861009e+01
7.100000e-07	-4.528798e-06	-1.198616e-09	-3.153483e+01	-7.830088e+01
7.200000e-07	-4.501390e-06	-1.203961e-09	-3.134398e+01	-7.798900e+01
7.300000e-07	-4.473767e-06	-1.197545e-09	-3.115164e+01	-7.767456e+01
7.400000e-07	-4.445985e-06	-1.179033e-09	-3.095819e+01	-7.735763e+01
7.500000e-07	-4.418026e-06	-1.173303e-09	-3.076350e+01	-7.703829e+01
7.600000e-07	-4.389818e-06	-1.172675e-09	-3.056709e+01	-7.671659e+01
7.700000e-07	-4.361248e-06	-1.158735e-09	-3.036815e+01	-7.639260e+01
7.800000e-07	-4.332258e-06	-1.153799e-09	-3.016628e+01	-7.606634e+01
7.900000e-07	-4.302998e-06	-1.160708e-09	-2.996254e+01	-7.573785e+01
8.000000e-07	-4.273536e-06	-1.155613e-09	-2.975739e+01	-7.540716e+01
8.100000e-07	-4.243736e-06	-1.142766e-09	-2.954989e+01	-7.507427e+01
8.200000e-07	-4.213629e-06	-1.136381e-09	-2.934025e+01	-7.473918e+01
8.300000e-07	-4.183243e-06	-1.130032e-09	-2.912867e+01	-7.440190e+01
8.400000e-07	-4.152521e-06	-1.117355e-09	-2.891474e+01	-7.406240e+01
8.500000e-07	-4.121509e-06	-1.111820e-09	-2.869880e+01	-7.372066e+01
8.600000e-07	-4.090284e-06	-1.106028e-09	-2.848137e+01	-7.337665e+01
8.700000e-07	-4.058863e-06	-1.097838e-09	-2.826258e+01	-7.303033e+01
8.800000e-07	-4.027280e-06	-1.090521e-09	-2.804267e+01	-7.268166e+01
8.900000e-07	-3.995567e-06	-1.092365e-09	-2.782184e+01	-7.233059e+01
9.000000e-07	-3.963687e-06	-1.085473e-09	-2.759986e+01	-7.197706e+01
9.100000e-07	-3.931537e-06	-1.076310e-09	-2.737599e+01	-7.162100e+01
9.200000e-07	-3.898969e-06	-1.070099e-09	-2.714921e+01	-7.126235e+01
9.300000e-07	-3.865863e-06	-1.067034e-09	-2.691869e+01	-7.090105e+01
9.400000e-07	-3.832284e-06	-1.056830e-09	-2.668487e+01	-7.053700e+01
9.500000e-07	-3.798317e-06	-1.051477e-09	-2.644836e+01	-7.017015e+01
9.600000e-07	-3.763904e-06	-1.043854e-09	-2.620873e+01	-6.980039e+01
9.700000e-07	-3.729086e-06	-1.033593e-09	-2.596629e+01	-6.942766e+01
9.800000e-07	-3.693982e-06	-1.028211e-09	-2.572185e+01	-6.905187e+01
9.900000e-07	-3.658669e-06	-1.030297e-09	-2.547596e+01	-6.867292e+01
1.000000e-06	-3.623193e-06	-1.027536e-09	-2.522894e+01	-6.829073e+01
1.010000e-06	-3.587550e-06	-1.022456e-09	-2.498075e+01	-6.790522e+01
1.020000e-06	-3.551768e-06	-1.015714e-09	-2.473159e+01	-6.751628e+01
1.030000e-06	-3.515830e-06	-1.006613e-09	-2.448135e+01	-6.712384e+01
1.040000e-06	-3.479615e-06	-9.953657e-10	-2.422918e+01	-6.672780e+01
1.050000e-06	-3.443173e-06	-9.880260e-10	-2.397543e+01	-6.632808e+01
1.060000e-06	-3.406452e-06	-9.816849e-10	-2.371973e+01	-6.592458e+01
1.070000e-06	-3.369406e-06	-9.742538e-10	-2.346177e+01	-6.551722e+01
1.080000e-06	-3.332180e-06	-9.703483e-10	-2.320256e+01	-6.510592e+01
1.090000e-06	-3.294775e-06	-9.654229e-10	-2.294210e+01	-6.469058e+01
1.100000e-06	-3.257136e-06	-9.567325e-10	-2.268002e+01	-6.427112e+01
1.110000e-06	-3.219285e-06	-9.473670e-10	-2.241645e+01	-6.384746e+01
1.120000e-06	-3.181255e-06	-9.403480e-10	-2.215165e+01	-6.341953e+01
1.130000e-06	-3.142998e-06	-9.337814e-10	-2.188525e+01	-6.298723e+01
1.140000e-06	-3.104440e-06	-9.271478e-10	-2.161677e+01	-6.255049e+01
1.150000e-06	-3.065643e-06	-9.172135e-10	-2.134662e+01	-6.210924e+01
1.160000e-06	-3.026656e-06	-9.058476e-10	-2.107514e+01	-6.166339e+01
1.170000e-06	-2.987445e-06	-8.933046e-10	-2.080211e+01	-6.121286e+01
1.180000e-06	-2.948048e-06	-8.864735e-10	-2.052779e+01	-6.075759e+01
1.190000e-06	-2.908533e-06	-8.829853e-10	-2.025263e+01	-6.029750e+01
1.200000e-06	-2.868915e-06	-8.800157e-10	-1.997676e+01	-5.983251e+01
1.210000e-06	-2.829250e-06	-8.749078e-10	-1.970057e+01	-5.936254e+01
1.220000e-06	-2.789497e-06	-8.686537e-10	-1.942376e+01	-5.888752e+01
1.230000e-06	-2.749514e-06	-8.569884e-10	-1.914535e+01	-5.840736e+01
1.240000e-06	-2.709359e-06	-8.432181e-10	-1.886575e+01	-5.792198e+01
1.250000e-06	-2.669092e-06	-8.294202e-10	-1.858536e+01	-5.743130e+01
1.260000e-06	-2.628611e-06	-8.190488e-10	-1.830348e+01	-5.693524e+01
1.270000e-06	-2.587871e-06	-8.099335e-10	-1.801980e+01	-5.643369e+01
1.280000e-06	-2.546943e-06	-8.040060e-10	-1.773482e+01	-5.592656e+01
1.290000e-06	-2.505612e-06	-7.988823e-10	-1.744702e+01	-5.541375e+01
1.300000e-06	-2.463822e-06	-7.927011e-10	-1.715603e+01	-5.489514e+01
1.310000e-06	-2.421753e-06	-7.839469e-10	-1.686310e+01	-5.437063e+01
1.320000e-06	-2.379421e-06	-7.741259e-10	-1.656833e+01	-5.384008e+01
1.330000e-06	-2.336759e-06	-7.642264e-10	-1.627127e+01	-5.330336e+01
1.340000e-06	-2.293789e-06	-7.550630e-10	-1.597206e+01	-5.276033e+01
1.350000e-06	-2.250677e-06	-7.446713e-10	-1.567186e+01	-5.221084e+01
1.360000e-06	-2.207422e-06	-7.335852e-10	-1.537067e+01	-5.165472e+01
1.370000e-06	-2.163998e-06	-7.242305e-10	-1.506830e+01	-5.109178e+01
1.380000e-06	-2.120436e-06	-7.176310e-10	-1.476497e+01	-5.052185e+01
1.390000e-06	-2.076860e-06	-7.120002e-10	-1.446154e+01	-4.994472e+01
1.400000e-06	-2.033273e-06	-7.029339e-10	-1.415804e+01	-4.936016e+01
1.410000e-06	-1.989583e-06	-6.938470e-10	-1.385382e+01	-4.876795e+01
1.420000e-06	-1.945747e-06	-6.860814e-10	-1.354858e+01	-4.816784e+01
1.430000e-06	-1.901790e-06	-6.778240e-10	-1.324250e+01	-4.755955e+01
1.440000e-06	-1.857748e-06	-6.671504e-10	-1.293583e+01	-4.694282e+01
1.450000e-06	-1.813612e-06	-6.551460e-10	-1.262850e+01	-4.631735e+01
1.460000e-06	-1.769407e-06	-6.422896e-10	-1.232069e+01	-4.568282e+01
1.470000e-06	-1.725026e-06	-6.289540e-10	-1.201167e+01	-4.503890e+01
1.480000e-06	-1.680429e-06	-6.158749e-10	-1.170112e+01	-4.438525e+01
1.490000e-06	-1.635740e-06	-6.057709e-10	-1.138995e+01	-4.372151e+01
1.500000e-06	-1.590962e-06	-5.962216e-10	-1.107815e+01	-4.304730e+01
1.510000e-06	-1.546037e-06	-5.883341e-10	-1.076533e+01	-4.236223e+01
1.520000e-06	-1.500971e-06	-5.792013e-10	-1.045153e+01	-4.166589e+01
1.530000e-06	-1.455850e-06	-5.692635e-10	-1.013734e+01	-4.095787e+01
1.540000e-06	-1.410560e-06	-5.571795e-10	-9.821978e+00	-4.023774e+01
1.550000e-06	-1.365062e-06	-5.410662e-10	-9.505166e+00	-3.950506e+01
1.560000e-06	-1.319577e-06	-5.233517e-10	-9.188453e+00	-3.875938e+01
1.570000e-06	-1.274125e-06	-5.084845e-10	-8.871957e+00	-3.800025e+01
1.580000e-06	-1.228634e-06	-4.969943e-10	-8.555198e+00	-3.722721e+01
1.590000e-06	-1.183061e-06	-4.897388e-10	-8.237862e+00	-3.643980e+01
1.600000e-06	-1.137295e-06	-4.835436e-10	-7.919190e+00	-3.563756e+01
1.610000e-06	-1.091441e-06	-4.736392e-10	-7.599897e+00	-3.482001e+01
1.620000e-06	-1.045570e-06	-4.611838e-10	-7.280488e+00	-3.398672e+01
1.630000e-06	-9.996062e-07	-4.485940e-10	-6.960436e+00	-3.313723e+01
1.640000e-06	-9.535671e-07	-4.350442e-10	-6.639858e+00	-3.227111e+01
1.650000e-06	-9.074821e-07	-4.188166e-10	-6.318960e+00	-3.138792e+01
1.660000e-06	-8.613711e-07	-4.022547e-10	-5.997880e+00	-3.048727e+01
1.670000e-06	-8.151477e-07	-3.876413e-10	-5.676019e+00	-2.956875e+01
1.680000e-06	-7.688427e-07	-3.720969e-10	-5.353588e+00	-2.863202e+01
1.690000e-06	-7.224888e-07	-3.559549e-10	-5.030818e+00	-2.767672e+01
1.700000e-06	-6.760955e-07	-3.422995e-10	-4.707773e+00	-2.670254e+01
1.710000e-06	-6.296932e-07	-3.297704e-10	-4.384666e+00	-2.570922e+01
1.720000e-06	-5.832482e-07	-3.157673e-10	-4.061261e+00	-2.469650e+01
1.730000e-06	-5.368144e-07	-2.967984e-10	-3.737934e+00	-2.366418e+01
1.740000e-06	-4.903926e-07	-2.748020e-10	-3.414691e+00	-2.261211e+01
1.750000e-06	-4.438640e-07	-2.534923e-10	-3.090704e+00	-2.154016e+01
1.760000e-06	-3.971916e-07	-2.362200e-10	-2.765716e+00	-2.044827e+01
1.770000e-06	-3.504394e-07	-2.220806e-10	-2.440172e+00	-1.933642e+01
1.780000e-06	-3.035495e-07	-2.104922e-10	-2.113669e+00	-1.820464e+01
1.790000e-06	-2.566500e-07	-1.999810e-10	-1.787100e+00	-1.705303e+01
1.800000e-06	-2.099259e-07	-1.863737e-10	-1.461751e+00	-1.588174e+01
1.810000e-06	-1.632389e-07	-1.692471e-10	-1.136662e+00	-1.469097e+01
1.820000e-06	-1.164997e-07	-1.506942e-10	-8.112081e-01	-1.348099e+01
1.830000e-06	-6.979473e-08	-1.329648e-10	-4.859931e-01	-1.225214e+01
1.840000e-06	-2.306829e-08	-1.179344e-10	-1.606286e-01	-1.100480e+01
1.850000e-06	2.372898e-08	-1.029458e-10	1.652291e-01	-9.739435e+00
1.860000e-06	7.043789e-08	-8.593057e-11	4.904715e-01	-8.456568e+00
1.870000e-06	1.170880e-07	-6.780455e-11	8.153046e-01	-7.156781e+00
1.880000e-06	1.638099e-07	-4.758750e-11	1.140637e+00	-5.840723e+00
1.890000e-06	2.106320e-07	-2.621057e-11	1.466668e+00	-4.509106e+00
1.900000e-06	2.574404e-07	-7.124100e-12	1.792603e+00	-3.162699e+00
1.910000e-06	3.041731e-07	1.022484e-11	2.118011e+00	-1.802335e+00
1.920000e-06	3.508486e-07	2.662998e-11	2.443022e+00	-4.289033e-01
1.930000e-06	3.975038e-07	4.180787e-11	2.767890e+00	9.566529e-01
1.940000e-06	4.441940e-07	5.912618e-11	3.093002e+00	2.353337e+00
1.950000e-06	4.907765e-07	8.104710e-11	3.417364e+00	3.760102e+00
1.960000e-06	5.373538e-07	1.045532e-10	3.741690e+00	5.175856e+00
1.970000e-06	5.838732e-07	1.275888e-10	4.065613e+00	6.599464e+00
1.980000e-06	6.302664e-07	1.478254e-10	4.388657e+00	8.029754e+00
1.990000e-06	6.766897e-07	1.655477e-10	4.711911e+00	9.465518e+00
2.000000e-06	7.230138e-07	1.818849e-10	5.034473e+00	1.090552e+01
2.010000e-06	7.692451e-07	1.976703e-10	5.356390e+00	1.234850e+01
2.020000e-06	8.154337e-07	2.164316e-10	5.678010e+00	1.379317e+01
2.030000e-06	8.615247e-07	2.388182e-10	5.998950e+00	1.523824e+01
2.040000e-06	9.075753e-07	2.623363e-10	6.319608e+00	1.668240e+01
2.050000e-06	9.535533e-07	2.853832e-10	6.639761e+00	1.812435e+01
2.060000e-06	9.994514e-07	3.061681e-10	6.959358e+00	1.956277e+01
2.070000e-06	1.045335e-06	3.257414e-10	7.278854e+00	2.099635e+01
2.080000e-06	1.091119e-06	3.460811e-10	7.597654e+00	2.242382e+01
2.090000e-06	1.136832e-06	3.661949e-10	7.915964e+00	2.384390e+01
2.100000e-06	1.182505e-06	3.873862e-10	8.233992e+00	2.525533e+01
2.110000e-06	1.228199e-06	4.078211e-10	8.552170e+00	2.665690e+01
2.120000e-06	1.273786e-06	4.259593e-10	8.869597e+00	2.804741e+01
2.130000e-06	1.319137e-06	4.439110e-10	9.185389e+00	2.942572e+01
2.140000e-06	1.364396e-06	4.636677e-10	9.500534e+00	3.079070e+01
2.150000e-06	1.409543e-06	4.856258e-10	9.814900e+00	3.214130e+01
2.160000e-06	1.454565e-06	5.074491e-10	1.012840e+01	3.347651e+01
2.170000e-06	1.499548e-06	5.283206e-10	1.044162e+01	3.479536e+01
2.180000e-06	1.544486e-06	5.511610e-10	1.075453e+01	3.609695e+01
2.190000e-06	1.589240e-06	5.711648e-10	1.106616e+01	3.738045e+01
2.200000e-06	1.633833e-06	5.865999e-10	1.137667e+01	3.864507e+01
2.210000e-06	1.678294e-06	5.980861e-10	1.168626e+01	3.989009e+01
2.220000e-06	1.722649e-06	6.095117e-10	1.199511e+01	4.111489e+01
2.230000e-06	1.766942e-06	6.241057e-10	1.230353e+01	4.231887e+01
2.240000e-06	1.811062e-06	6.437990e-10	1.261075e+01	4.350153e+01
2.250000e-06	1.855026e-06	6.636349e-10	1.291688e+01	4.466244e+01
2.260000e-06	1.898908e-06	6.810120e-10	1.322243e+01	4.580124e+01
2.270000e-06	1.942707e-06	7.002487e-10	1.352741e+01	4.691761e+01
2.280000e-06	1.986439e-06	7.188943e-10	1.383193e+01	4.801134e+01
2.290000e-06	2.030136e-06	7.318340e-10	1.413620e+01	4.908227e+01
2.300000e-06	2.073779e-06	7.410386e-10	1.444009e+01	5.013031e+01
2.310000e-06	2.117355e-06	7.510655e-10	1.474352e+01	5.115543e+01
2.320000e-06	2.160859e-06	7.652154e-10	1.504644e+01	5.215768e+01
2.330000e-06	2.204259e-06	7.813458e-10	1.534865e+01	5.313713e+01
2.340000e-06	2.247566e-06	7.980656e-10	1.565020e+01	5.409396e+01
2.350000e-06	2.290740e-06	8.158867e-10	1.595083e+01	5.502836e+01
2.360000e-06	2.333655e-06	8.329873e-10	1.624966e+01	5.594060e+01
2.370000e-06	2.376197e-06	8.480623e-10	1.654589e+01	5.683099e+01
2.380000e-06	2.418563e-06	8.579755e-10	1.684088e+01	5.769986e+01
2.390000e-06	2.460675e-06	8.673695e-10	1.713412e+01	5.854762e+01
2.400000e-06	2.502316e-06	8.756877e-10	1.742407e+01	5.937468e+01
2.410000e-06	2.543674e-06	8.838171e-10	1.771206e+01	6.018150e+01
2.420000e-06	2.584705e-06	8.938440e-10	1.799776e+01	6.096857e+01
2.430000e-06	2.625333e-06	9.075542e-10	1.828066e+01	6.173638e+01
2.440000e-06	2.665697e-06	9.224187e-10	1.856172e+01	6.248546e+01
2.450000e-06	2.705874e-06	9.345022e-10	1.884148e+01	6.321634e+01
2.460000e-06	2.745915e-06	9.448491e-10	1.912030e+01	6.392957e+01
2.470000e-06	2.785861e-06	9.571040e-10	1.939844e+01	6.462571e+01
2.480000e-06	2.825689e-06	9.698411e-10	1.967577e+01	6.530531e+01
2.490000e-06	2.865370e-06	9.806055e-10	1.995208e+01	6.596892e+01
2.500000e-06	2.904904e-06	9.889842e-10	2.022736e+01	6.661709e+01
2.510000e-06	2.944329e-06	9.977018e-10	2.050189e+01	6.725035e+01
2.520000e-06	2.983655e-06	1.007077e-09	2.077572e+01	6.786925e+01
2.530000e-06	3.022793e-06	1.017239e-09	2.104824e+01	6.847428e+01
2.540000e-06	3.061735e-06	1.026734e-09	2.131940e+01	6.906595e+01
2.550000e-06	3.100378e-06	1.035071e-09	2.158848e+01	6.964475e+01
2.560000e-06	3.138648e-06	1.044817e-09	2.185497e+01	7.021111e+01
2.570000e-06	3.176769e-06	1.055090e-09	2.212041e+01	7.076549e+01
2.580000e-06	3.214846e-06	1.063776e-09	2.238554e+01	7.130829e+01
2.590000e-06	3.252737e-06	1.070346e-09	2.264939e+01	7.183990e+01
2.600000e-06	3.290342e-06	1.076980e-09	2.291124e+01	7.236068e+01
2.610000e-06	3.327698e-06	1.083365e-09	2.317136e+01	7.287097e+01
2.620000e-06	3.364830e-06	1.086776e-09	2.342991e+01	7.337108e+01
2.630000e-06	3.401743e-06	1.087997e-09	2.368694e+01	7.386129e+01
2.640000e-06	3.438365e-06	1.093466e-09	2.394194e+01	7.434186e+01
2.650000e-06	3.474623e-06	1.103951e-09	2.419442e+01	7.481302e+01
2.660000e-06	3.510629e-06	1.113518e-09	2.444514e+01	7.527498e+01
2.670000e-06	3.546511e-06	1.121040e-09	2.469499e+01	7.572794e+01
2.680000e-06	3.582256e-06	1.128960e-09	2.494388e+01	7.617206e+01
2.690000e-06	3.617883e-06	1.135163e-09	2.519196e+01	7.660748e+01
2.700000e-06	3.653396e-06	1.140220e-09	2.543924e+01	7.703432e+01
2.710000e-06	3.688828e-06	1.145146e-09	2.568596e+01	7.745271e+01
2.720000e-06	3.724118e-06	1.148891e-09	2.593170e+01	7.786274e+01
2.730000e-06	3.759037e-06	1.151055e-09	2.617485e+01	7.826449e+01
2.740000e-06	3.793572e-06	1.155199e-09	2.641531e+01	7.865802e+01
2.750000e-06	3.827653e-06	1.160395e-09	2.665263e+01	7.904341e+01
2.760000e-06	3.861123e-06	1.165256e-09	2.688569e+01	7.942070e+01
2.770000e-06	3.894123e-06	1.171745e-09	2.711547e+01	7.978995e+01
2.780000e-06	3.926781e-06	1.180007e-09	2.734287e+01	8.015120e+01
2.790000e-06	3.959014e-06	1.188160e-09	2.756732e+01	8.050449e+01
2.800000e-06	3.990919e-06	1.193980e-09	2.778948e+01	8.084987e+01
2.810000e-06	4.022698e-06	1.197522e-09	2.801076e+01	8.118738e+01
2.820000e-06	4.054366e-06	1.200022e-09	2.823127e+01	8.151706e+01
2.830000e-06	4.085897e-06	1.204721e-09	2.845083e+01	8.183897e+01
2.840000e-06	4.117208e-06	1.212707e-09	2.866885e+01	8.215316e+01
2.850000e-06	4.148380e-06	1.222241e-09	2.888591e+01	8.245968e+01
2.860000e-06	4.179221e-06	1.232436e-09	2.910066e+01	8.275862e+01
2.870000e-06	4.209550e-06	1.239704e-09	2.931184e+01	8.305003e+01
2.880000e-06	4.239543e-06	1.243467e-09	2.952070e+01	8.333401e+01
2.890000e-06	4.269298e-06	1.246257e-09	2.972788e+01	8.361064e+01
2.900000e-06	4.298866e-06	1.248922e-09	2.993377e+01	8.388002e+01
