# Temperatura_=_-1.5
# Concentracion g/m^3_=_1620.0
# C_Vs_to_Am_M_A/Vsm_=_65563218390.804596
# pendiente_HvsI_1/m_=_3716.3
# ordenada_HvsI_A/m_=_1297.0
# frecuencia_Hz_=_135105.4387512051

Tiempo_(s)	Campo_(V.s)	Magnetizacion_(V.s)	Campo_(kA/m)	Magnetizacion_(A/m)
0.000000e+00	-5.511844e-06	-9.565617e-10	-3.835909e+01	-6.409645e+01
1.000000e-08	-5.512088e-06	-9.510396e-10	-3.836079e+01	-6.407473e+01
2.000000e-08	-5.511994e-06	-9.475447e-10	-3.836013e+01	-6.405183e+01
3.000000e-08	-5.511616e-06	-9.470580e-10	-3.835750e+01	-6.402743e+01
4.000000e-08	-5.510909e-06	-9.453080e-10	-3.835258e+01	-6.400122e+01
5.000000e-08	-5.509684e-06	-9.356940e-10	-3.834406e+01	-6.397288e+01
6.000000e-08	-5.507867e-06	-9.252609e-10	-3.833141e+01	-6.394210e+01
7.000000e-08	-5.505370e-06	-9.452969e-10	-3.831404e+01	-6.390855e+01
8.000000e-08	-5.502300e-06	-9.839293e-10	-3.829267e+01	-6.387194e+01
9.000000e-08	-5.498715e-06	-1.008058e-09	-3.826772e+01	-6.383197e+01
1.000000e-07	-5.494718e-06	-9.928382e-10	-3.823990e+01	-6.378835e+01
1.100000e-07	-5.490439e-06	-9.386927e-10	-3.821012e+01	-6.374082e+01
1.200000e-07	-5.485866e-06	-8.915416e-10	-3.817830e+01	-6.368912e+01
1.300000e-07	-5.481020e-06	-9.372523e-10	-3.814457e+01	-6.363303e+01
1.400000e-07	-5.475815e-06	-9.535514e-10	-3.810835e+01	-6.357234e+01
1.500000e-07	-5.470257e-06	-9.418156e-10	-3.806967e+01	-6.350687e+01
1.600000e-07	-5.464391e-06	-8.932409e-10	-3.802885e+01	-6.343647e+01
1.700000e-07	-5.458172e-06	-9.548236e-10	-3.798557e+01	-6.336101e+01
1.800000e-07	-5.451515e-06	-1.004611e-09	-3.793923e+01	-6.328039e+01
1.900000e-07	-5.444477e-06	-9.708833e-10	-3.789026e+01	-6.319457e+01
2.000000e-07	-5.437131e-06	-9.064608e-10	-3.783913e+01	-6.310350e+01
2.100000e-07	-5.429471e-06	-9.216498e-10	-3.778582e+01	-6.300718e+01
2.200000e-07	-5.421525e-06	-9.781459e-10	-3.773052e+01	-6.290566e+01
2.300000e-07	-5.413278e-06	-9.700566e-10	-3.767313e+01	-6.279899e+01
2.400000e-07	-5.404567e-06	-9.452084e-10	-3.761251e+01	-6.268727e+01
2.500000e-07	-5.395251e-06	-9.430102e-10	-3.754767e+01	-6.257064e+01
2.600000e-07	-5.385373e-06	-9.710913e-10	-3.747893e+01	-6.244925e+01
2.700000e-07	-5.375011e-06	-9.290116e-10	-3.740682e+01	-6.232329e+01
2.800000e-07	-5.364060e-06	-9.147461e-10	-3.733060e+01	-6.219296e+01
2.900000e-07	-5.352525e-06	-9.271829e-10	-3.725033e+01	-6.205852e+01
3.000000e-07	-5.340618e-06	-9.523384e-10	-3.716746e+01	-6.192021e+01
3.100000e-07	-5.328378e-06	-9.134368e-10	-3.708227e+01	-6.177833e+01
3.200000e-07	-5.315787e-06	-9.221668e-10	-3.699465e+01	-6.163315e+01
3.300000e-07	-5.302753e-06	-9.307786e-10	-3.690394e+01	-6.148501e+01
3.400000e-07	-5.289310e-06	-9.353261e-10	-3.681039e+01	-6.133421e+01
3.500000e-07	-5.275543e-06	-9.135695e-10	-3.671458e+01	-6.118109e+01
3.600000e-07	-5.261278e-06	-9.235362e-10	-3.661530e+01	-6.102598e+01
3.700000e-07	-5.246492e-06	-9.218243e-10	-3.651240e+01	-6.086922e+01
3.800000e-07	-5.231309e-06	-9.252871e-10	-3.640673e+01	-6.071115e+01
3.900000e-07	-5.215644e-06	-9.184002e-10	-3.629772e+01	-6.055209e+01
4.000000e-07	-5.199440e-06	-9.107909e-10	-3.618495e+01	-6.039238e+01
4.100000e-07	-5.182837e-06	-9.102397e-10	-3.606940e+01	-6.023231e+01
4.200000e-07	-5.165890e-06	-9.107030e-10	-3.595146e+01	-6.007220e+01
4.300000e-07	-5.148594e-06	-8.989760e-10	-3.583109e+01	-5.991233e+01
4.400000e-07	-5.130982e-06	-9.061451e-10	-3.570852e+01	-5.975295e+01
4.500000e-07	-5.113000e-06	-9.327780e-10	-3.558338e+01	-5.959431e+01
4.600000e-07	-5.094623e-06	-9.103969e-10	-3.545549e+01	-5.943663e+01
4.700000e-07	-5.075802e-06	-8.868939e-10	-3.532450e+01	-5.928009e+01
4.800000e-07	-5.056611e-06	-9.123795e-10	-3.519095e+01	-5.912487e+01
4.900000e-07	-5.037175e-06	-9.241156e-10	-3.505568e+01	-5.897110e+01
5.000000e-07	-5.017485e-06	-8.801533e-10	-3.491865e+01	-5.881887e+01
5.100000e-07	-4.997565e-06	-8.868410e-10	-3.478002e+01	-5.866828e+01
5.200000e-07	-4.977394e-06	-9.079553e-10	-3.463964e+01	-5.851936e+01
5.300000e-07	-4.956899e-06	-8.905126e-10	-3.449701e+01	-5.837212e+01
5.400000e-07	-4.936100e-06	-8.827594e-10	-3.435226e+01	-5.822654e+01
5.500000e-07	-4.914863e-06	-9.115577e-10	-3.420446e+01	-5.808258e+01
5.600000e-07	-4.893222e-06	-8.821317e-10	-3.405386e+01	-5.794015e+01
5.700000e-07	-4.871342e-06	-8.602507e-10	-3.390158e+01	-5.779914e+01
5.800000e-07	-4.849112e-06	-8.893402e-10	-3.374687e+01	-5.765941e+01
5.900000e-07	-4.826502e-06	-8.982415e-10	-3.358953e+01	-5.752080e+01
6.000000e-07	-4.803618e-06	-8.667258e-10	-3.343026e+01	-5.738312e+01
6.100000e-07	-4.780485e-06	-8.850764e-10	-3.326927e+01	-5.724615e+01
6.200000e-07	-4.757020e-06	-8.938005e-10	-3.310597e+01	-5.710966e+01
6.300000e-07	-4.733253e-06	-8.640345e-10	-3.294057e+01	-5.697340e+01
6.400000e-07	-4.709298e-06	-8.578773e-10	-3.277386e+01	-5.683711e+01
6.500000e-07	-4.685093e-06	-8.758485e-10	-3.260541e+01	-5.670050e+01
6.600000e-07	-4.660393e-06	-8.595786e-10	-3.243351e+01	-5.656328e+01
6.700000e-07	-4.635202e-06	-8.587334e-10	-3.225820e+01	-5.642516e+01
6.800000e-07	-4.609644e-06	-8.754897e-10	-3.208032e+01	-5.628584e+01
6.900000e-07	-4.583596e-06	-8.668745e-10	-3.189905e+01	-5.614500e+01
7.000000e-07	-4.556992e-06	-8.508756e-10	-3.171390e+01	-5.600236e+01
7.100000e-07	-4.529900e-06	-8.562163e-10	-3.152536e+01	-5.585760e+01
7.200000e-07	-4.502430e-06	-8.526485e-10	-3.133418e+01	-5.571044e+01
7.300000e-07	-4.474698e-06	-8.409826e-10	-3.114118e+01	-5.556059e+01
7.400000e-07	-4.446837e-06	-8.432074e-10	-3.094729e+01	-5.540779e+01
7.500000e-07	-4.418784e-06	-8.406982e-10	-3.075206e+01	-5.525178e+01
7.600000e-07	-4.390519e-06	-8.309284e-10	-3.055535e+01	-5.509230e+01
7.700000e-07	-4.362079e-06	-8.269511e-10	-3.035742e+01	-5.492915e+01
7.800000e-07	-4.333306e-06	-8.251832e-10	-3.015718e+01	-5.476212e+01
7.900000e-07	-4.304170e-06	-8.154448e-10	-2.995441e+01	-5.459101e+01
8.000000e-07	-4.274651e-06	-8.138100e-10	-2.974897e+01	-5.441568e+01
8.100000e-07	-4.244825e-06	-8.093925e-10	-2.954141e+01	-5.423598e+01
8.200000e-07	-4.214810e-06	-8.018921e-10	-2.933252e+01	-5.405180e+01
8.300000e-07	-4.184506e-06	-7.957895e-10	-2.912162e+01	-5.386305e+01
8.400000e-07	-4.153826e-06	-7.981754e-10	-2.890811e+01	-5.366967e+01
8.500000e-07	-4.122790e-06	-7.921734e-10	-2.869211e+01	-5.347161e+01
8.600000e-07	-4.091507e-06	-7.895533e-10	-2.847440e+01	-5.326885e+01
8.700000e-07	-4.060060e-06	-7.892693e-10	-2.825555e+01	-5.306141e+01
8.800000e-07	-4.028440e-06	-7.895156e-10	-2.803550e+01	-5.284931e+01
8.900000e-07	-3.996644e-06	-7.839641e-10	-2.781422e+01	-5.263260e+01
9.000000e-07	-3.964673e-06	-7.814665e-10	-2.759172e+01	-5.241136e+01
9.100000e-07	-3.932455e-06	-7.752150e-10	-2.736750e+01	-5.218566e+01
9.200000e-07	-3.899914e-06	-7.696363e-10	-2.714103e+01	-5.195563e+01
9.300000e-07	-3.866991e-06	-7.650982e-10	-2.691191e+01	-5.172138e+01
9.400000e-07	-3.833620e-06	-7.638992e-10	-2.667967e+01	-5.148305e+01
9.500000e-07	-3.799786e-06	-7.589509e-10	-2.644420e+01	-5.124079e+01
9.600000e-07	-3.765499e-06	-7.552652e-10	-2.620559e+01	-5.099475e+01
9.700000e-07	-3.730782e-06	-7.532275e-10	-2.596398e+01	-5.074510e+01
9.800000e-07	-3.695673e-06	-7.512704e-10	-2.571964e+01	-5.049201e+01
9.900000e-07	-3.660282e-06	-7.483231e-10	-2.547334e+01	-5.023565e+01
1.000000e-06	-3.624749e-06	-7.456788e-10	-2.522605e+01	-4.997620e+01
1.010000e-06	-3.589058e-06	-7.413140e-10	-2.497766e+01	-4.971382e+01
1.020000e-06	-3.553207e-06	-7.364797e-10	-2.472816e+01	-4.944868e+01
1.030000e-06	-3.517246e-06	-7.326595e-10	-2.447790e+01	-4.918096e+01
1.040000e-06	-3.481137e-06	-7.271629e-10	-2.422660e+01	-4.891080e+01
1.050000e-06	-3.444827e-06	-7.229691e-10	-2.397391e+01	-4.863835e+01
1.060000e-06	-3.408266e-06	-7.199368e-10	-2.371946e+01	-4.836374e+01
1.070000e-06	-3.371386e-06	-7.186264e-10	-2.346280e+01	-4.808710e+01
1.080000e-06	-3.334143e-06	-7.141805e-10	-2.320361e+01	-4.780854e+01
1.090000e-06	-3.296572e-06	-7.087377e-10	-2.294214e+01	-4.752814e+01
1.100000e-06	-3.258725e-06	-7.028747e-10	-2.267875e+01	-4.724600e+01
1.110000e-06	-3.220649e-06	-6.966830e-10	-2.241376e+01	-4.696216e+01
1.120000e-06	-3.182425e-06	-6.909200e-10	-2.214775e+01	-4.667666e+01
1.130000e-06	-3.144043e-06	-6.880893e-10	-2.188063e+01	-4.638953e+01
1.140000e-06	-3.105552e-06	-6.828718e-10	-2.161276e+01	-4.610078e+01
1.150000e-06	-3.066912e-06	-6.776528e-10	-2.134385e+01	-4.581039e+01
1.160000e-06	-3.028004e-06	-6.709984e-10	-2.107307e+01	-4.551832e+01
1.170000e-06	-2.988837e-06	-6.671758e-10	-2.080049e+01	-4.522451e+01
1.180000e-06	-2.949475e-06	-6.629048e-10	-2.052656e+01	-4.492891e+01
1.190000e-06	-2.909945e-06	-6.604384e-10	-2.025145e+01	-4.463141e+01
1.200000e-06	-2.870244e-06	-6.554347e-10	-1.997516e+01	-4.433190e+01
1.210000e-06	-2.830441e-06	-6.513339e-10	-1.969815e+01	-4.403027e+01
1.220000e-06	-2.790507e-06	-6.453375e-10	-1.942024e+01	-4.372636e+01
1.230000e-06	-2.750388e-06	-6.382677e-10	-1.914103e+01	-4.342001e+01
1.240000e-06	-2.710139e-06	-6.306404e-10	-1.886092e+01	-4.311107e+01
1.250000e-06	-2.669767e-06	-6.233683e-10	-1.857996e+01	-4.279932e+01
1.260000e-06	-2.629182e-06	-6.181988e-10	-1.829751e+01	-4.248459e+01
1.270000e-06	-2.588435e-06	-6.126618e-10	-1.801394e+01	-4.216665e+01
1.280000e-06	-2.547497e-06	-6.084206e-10	-1.772903e+01	-4.184527e+01
1.290000e-06	-2.506204e-06	-6.064226e-10	-1.744166e+01	-4.152024e+01
1.300000e-06	-2.464516e-06	-6.011001e-10	-1.715153e+01	-4.119130e+01
1.310000e-06	-2.422448e-06	-5.925991e-10	-1.685877e+01	-4.085821e+01
1.320000e-06	-2.380154e-06	-5.841499e-10	-1.656443e+01	-4.052071e+01
1.330000e-06	-2.337677e-06	-5.768274e-10	-1.626881e+01	-4.017853e+01
1.340000e-06	-2.294902e-06	-5.691126e-10	-1.597112e+01	-3.983142e+01
1.350000e-06	-2.251843e-06	-5.629913e-10	-1.567146e+01	-3.947909e+01
1.360000e-06	-2.208601e-06	-5.588923e-10	-1.537052e+01	-3.912127e+01
1.370000e-06	-2.165193e-06	-5.554696e-10	-1.506843e+01	-3.875769e+01
1.380000e-06	-2.121588e-06	-5.549009e-10	-1.476497e+01	-3.838806e+01
1.390000e-06	-2.077885e-06	-5.528512e-10	-1.446082e+01	-3.801209e+01
1.400000e-06	-2.034083e-06	-5.463319e-10	-1.415598e+01	-3.762950e+01
1.410000e-06	-1.990182e-06	-5.363623e-10	-1.385046e+01	-3.724001e+01
1.420000e-06	-1.946246e-06	-5.288980e-10	-1.354469e+01	-3.684331e+01
1.430000e-06	-1.902229e-06	-5.219635e-10	-1.323836e+01	-3.643913e+01
1.440000e-06	-1.858111e-06	-5.149344e-10	-1.293132e+01	-3.602717e+01
1.450000e-06	-1.813979e-06	-5.091463e-10	-1.262419e+01	-3.560714e+01
1.460000e-06	-1.769802e-06	-5.036692e-10	-1.231675e+01	-3.517874e+01
1.470000e-06	-1.725462e-06	-4.970616e-10	-1.200817e+01	-3.474168e+01
1.480000e-06	-1.681049e-06	-4.909060e-10	-1.169908e+01	-3.429566e+01
1.490000e-06	-1.636534e-06	-4.837111e-10	-1.138928e+01	-3.384038e+01
1.500000e-06	-1.591816e-06	-4.777217e-10	-1.107807e+01	-3.337556e+01
1.510000e-06	-1.546912e-06	-4.715020e-10	-1.076557e+01	-3.290087e+01
1.520000e-06	-1.501841e-06	-4.646280e-10	-1.045190e+01	-3.241603e+01
1.530000e-06	-1.456653e-06	-4.551051e-10	-1.013742e+01	-3.192074e+01
1.540000e-06	-1.411405e-06	-4.458885e-10	-9.822525e+00	-3.141469e+01
1.550000e-06	-1.366052e-06	-4.370579e-10	-9.506891e+00	-3.089758e+01
1.560000e-06	-1.320601e-06	-4.301828e-10	-9.190580e+00	-3.036910e+01
1.570000e-06	-1.275174e-06	-4.227933e-10	-8.874439e+00	-2.982896e+01
1.580000e-06	-1.229644e-06	-4.150611e-10	-8.557578e+00	-2.927685e+01
1.590000e-06	-1.183933e-06	-4.077581e-10	-8.239452e+00	-2.871247e+01
1.600000e-06	-1.138061e-06	-4.003037e-10	-7.920217e+00	-2.813554e+01
1.610000e-06	-1.092094e-06	-3.931965e-10	-7.600312e+00	-2.754575e+01
1.620000e-06	-1.046047e-06	-3.868855e-10	-7.279852e+00	-2.694282e+01
1.630000e-06	-9.999653e-07	-3.819441e-10	-6.959151e+00	-2.632647e+01
1.640000e-06	-9.538966e-07	-3.757513e-10	-6.638542e+00	-2.569643e+01
1.650000e-06	-9.077259e-07	-3.671094e-10	-6.317221e+00	-2.505243e+01
1.660000e-06	-8.615384e-07	-3.562272e-10	-5.995784e+00	-2.439421e+01
1.670000e-06	-8.152387e-07	-3.442029e-10	-5.673566e+00	-2.372154e+01
1.680000e-06	-7.688213e-07	-3.312275e-10	-5.350530e+00	-2.303419e+01
1.690000e-06	-7.224489e-07	-3.204861e-10	-5.027806e+00	-2.233195e+01
1.700000e-06	-6.760204e-07	-3.101195e-10	-4.704692e+00	-2.161463e+01
1.710000e-06	-6.294970e-07	-2.997941e-10	-4.380917e+00	-2.088205e+01
1.720000e-06	-5.828813e-07	-2.880932e-10	-4.056500e+00	-2.013408e+01
1.730000e-06	-5.362588e-07	-2.739485e-10	-3.732036e+00	-1.937057e+01
1.740000e-06	-4.896620e-07	-2.569112e-10	-3.407750e+00	-1.859144e+01
1.750000e-06	-4.430442e-07	-2.401104e-10	-3.083318e+00	-1.779662e+01
1.760000e-06	-3.965012e-07	-2.259629e-10	-2.759407e+00	-1.698606e+01
1.770000e-06	-3.498327e-07	-2.163108e-10	-2.434623e+00	-1.615977e+01
1.780000e-06	-3.029933e-07	-2.088967e-10	-2.108649e+00	-1.531778e+01
1.790000e-06	-2.561713e-07	-2.009622e-10	-1.782797e+00	-1.446014e+01
1.800000e-06	-2.093875e-07	-1.880886e-10	-1.457210e+00	-1.358698e+01
1.810000e-06	-1.626053e-07	-1.717997e-10	-1.131634e+00	-1.269843e+01
1.820000e-06	-1.158372e-07	-1.575535e-10	-8.061567e-01	-1.179468e+01
1.830000e-06	-6.914872e-08	-1.454281e-10	-4.812331e-01	-1.087596e+01
1.840000e-06	-2.243071e-08	-1.330440e-10	-1.561041e-01	-9.942541e+00
1.850000e-06	2.434787e-08	-1.201644e-10	1.694464e-01	-8.994747e+00
1.860000e-06	7.112402e-08	-1.084838e-10	4.949800e-01	-8.032937e+00
1.870000e-06	1.178500e-07	-9.611043e-11	8.201645e-01	-7.057519e+00
1.880000e-06	1.645644e-07	-8.158776e-11	1.145269e+00	-6.068945e+00
1.890000e-06	2.113544e-07	-6.462094e-11	1.470899e+00	-5.067713e+00
1.900000e-06	2.581265e-07	-4.762933e-11	1.796404e+00	-4.054364e+00
1.910000e-06	3.048372e-07	-3.301298e-11	2.121482e+00	-3.029483e+00
1.920000e-06	3.515070e-07	-2.037655e-11	2.446275e+00	-1.993698e+00
1.930000e-06	3.981808e-07	-1.001996e-11	2.771097e+00	-9.476772e-01
1.940000e-06	4.449305e-07	5.211655e-13	3.096447e+00	1.078734e-01
1.950000e-06	4.915672e-07	1.461863e-11	3.421009e+00	1.172209e+00
1.960000e-06	5.380599e-07	3.126659e-11	3.744570e+00	2.244551e+00
1.970000e-06	5.844651e-07	4.824574e-11	4.067522e+00	3.324086e+00
1.980000e-06	6.307667e-07	6.371124e-11	4.389754e+00	4.409975e+00
1.990000e-06	6.770689e-07	7.867632e-11	4.711989e+00	5.501349e+00
2.000000e-06	7.233920e-07	9.315432e-11	5.034370e+00	6.597315e+00
2.010000e-06	7.697154e-07	1.055075e-10	5.356752e+00	7.696963e+00
2.020000e-06	8.159521e-07	1.204908e-10	5.678531e+00	8.799363e+00
2.030000e-06	8.620936e-07	1.406167e-10	5.999648e+00	9.903572e+00
2.040000e-06	9.082320e-07	1.616020e-10	6.320744e+00	1.100864e+01
2.050000e-06	9.542973e-07	1.808332e-10	6.641330e+00	1.211361e+01
2.060000e-06	1.000240e-06	1.974894e-10	6.961064e+00	1.321751e+01
2.070000e-06	1.046133e-06	2.120097e-10	7.280447e+00	1.431940e+01
2.080000e-06	1.092022e-06	2.248290e-10	7.599808e+00	1.541832e+01
2.090000e-06	1.137828e-06	2.403393e-10	7.918590e+00	1.651333e+01
2.100000e-06	1.183437e-06	2.575559e-10	8.236002e+00	1.760349e+01
2.110000e-06	1.228942e-06	2.777813e-10	8.552691e+00	1.868789e+01
2.120000e-06	1.274460e-06	2.962775e-10	8.869470e+00	1.976565e+01
2.130000e-06	1.319896e-06	3.096443e-10	9.185672e+00	2.083588e+01
2.140000e-06	1.365203e-06	3.220757e-10	9.500983e+00	2.189775e+01
2.150000e-06	1.410442e-06	3.356514e-10	9.815824e+00	2.295044e+01
2.160000e-06	1.455542e-06	3.513334e-10	1.012969e+01	2.399318e+01
2.170000e-06	1.500548e-06	3.669642e-10	1.044290e+01	2.502521e+01
2.180000e-06	1.545523e-06	3.853559e-10	1.075590e+01	2.604583e+01
2.190000e-06	1.590317e-06	4.035645e-10	1.106764e+01	2.705436e+01
2.200000e-06	1.634914e-06	4.188983e-10	1.137801e+01	2.805018e+01
2.210000e-06	1.679393e-06	4.318884e-10	1.168756e+01	2.903270e+01
2.220000e-06	1.723790e-06	4.414841e-10	1.199653e+01	3.000138e+01
2.230000e-06	1.768098e-06	4.506694e-10	1.230489e+01	3.095572e+01
2.240000e-06	1.812293e-06	4.619042e-10	1.261246e+01	3.189525e+01
2.250000e-06	1.856363e-06	4.770010e-10	1.291916e+01	3.281959e+01
2.260000e-06	1.900356e-06	4.939933e-10	1.322533e+01	3.372835e+01
2.270000e-06	1.944285e-06	5.111873e-10	1.353104e+01	3.462122e+01
2.280000e-06	1.988178e-06	5.266574e-10	1.383651e+01	3.549793e+01
2.290000e-06	2.032000e-06	5.376395e-10	1.414149e+01	3.635824e+01
2.300000e-06	2.075712e-06	5.469611e-10	1.444570e+01	3.720196e+01
2.310000e-06	2.119374e-06	5.556746e-10	1.474956e+01	3.802895e+01
2.320000e-06	2.162956e-06	5.654842e-10	1.505286e+01	3.883909e+01
2.330000e-06	2.206325e-06	5.768273e-10	1.535468e+01	3.963232e+01
2.340000e-06	2.249518e-06	5.912011e-10	1.565528e+01	4.040859e+01
2.350000e-06	2.292539e-06	6.091481e-10	1.595468e+01	4.116791e+01
2.360000e-06	2.335321e-06	6.263394e-10	1.625242e+01	4.191031e+01
2.370000e-06	2.377877e-06	6.378875e-10	1.654858e+01	4.263584e+01
2.380000e-06	2.420207e-06	6.431136e-10	1.684317e+01	4.334460e+01
2.390000e-06	2.462183e-06	6.470364e-10	1.713530e+01	4.403670e+01
2.400000e-06	2.503844e-06	6.516981e-10	1.742523e+01	4.471226e+01
2.410000e-06	2.545210e-06	6.574607e-10	1.771312e+01	4.537146e+01
2.420000e-06	2.586179e-06	6.676079e-10	1.799824e+01	4.601446e+01
2.430000e-06	2.626931e-06	6.822554e-10	1.828185e+01	4.664145e+01
2.440000e-06	2.667471e-06	6.969013e-10	1.856398e+01	4.725264e+01
2.450000e-06	2.707804e-06	7.068926e-10	1.884467e+01	4.784825e+01
2.460000e-06	2.747985e-06	7.149595e-10	1.912431e+01	4.842849e+01
2.470000e-06	2.787988e-06	7.236551e-10	1.940271e+01	4.899360e+01
2.480000e-06	2.827841e-06	7.302512e-10	1.968005e+01	4.954383e+01
2.490000e-06	2.867614e-06	7.361414e-10	1.995685e+01	5.007941e+01
2.500000e-06	2.907329e-06	7.444667e-10	2.023324e+01	5.060060e+01
2.510000e-06	2.946892e-06	7.551976e-10	2.050858e+01	5.110764e+01
2.520000e-06	2.986271e-06	7.665588e-10	2.078264e+01	5.160078e+01
2.530000e-06	3.025471e-06	7.766280e-10	2.105544e+01	5.208027e+01
2.540000e-06	3.064416e-06	7.838486e-10	2.132647e+01	5.254637e+01
2.550000e-06	3.103106e-06	7.881449e-10	2.159573e+01	5.299931e+01
2.560000e-06	3.141604e-06	7.919863e-10	2.186366e+01	5.343935e+01
2.570000e-06	3.179887e-06	7.969899e-10	2.213009e+01	5.386673e+01
2.580000e-06	3.217887e-06	8.025584e-10	2.239454e+01	5.428169e+01
2.590000e-06	3.255730e-06	8.084107e-10	2.265790e+01	5.468447e+01
2.600000e-06	3.293457e-06	8.140048e-10	2.292046e+01	5.507530e+01
2.610000e-06	3.330919e-06	8.181297e-10	2.318118e+01	5.545442e+01
2.620000e-06	3.368023e-06	8.197336e-10	2.343940e+01	5.582206e+01
2.630000e-06	3.404868e-06	8.203944e-10	2.369582e+01	5.617845e+01
2.640000e-06	3.441524e-06	8.245372e-10	2.395092e+01	5.652382e+01
2.650000e-06	3.477957e-06	8.326359e-10	2.420447e+01	5.685841e+01
2.660000e-06	3.514178e-06	8.415642e-10	2.445655e+01	5.718243e+01
2.670000e-06	3.550165e-06	8.487834e-10	2.470699e+01	5.749611e+01
2.680000e-06	3.585989e-06	8.524843e-10	2.495630e+01	5.779970e+01
2.690000e-06	3.621734e-06	8.548766e-10	2.520507e+01	5.809341e+01
2.700000e-06	3.657357e-06	8.572747e-10	2.545299e+01	5.837748e+01
2.710000e-06	3.692775e-06	8.602566e-10	2.569948e+01	5.865215e+01
2.720000e-06	3.727966e-06	8.645468e-10	2.594438e+01	5.891766e+01
2.730000e-06	3.762728e-06	8.694398e-10	2.618630e+01	5.917424e+01
2.740000e-06	3.797043e-06	8.741914e-10	2.642512e+01	5.942213e+01
2.750000e-06	3.830970e-06	8.769862e-10	2.666123e+01	5.966159e+01
2.760000e-06	3.864397e-06	8.792842e-10	2.689386e+01	5.989286e+01
2.770000e-06	3.897399e-06	8.826447e-10	2.712353e+01	6.011619e+01
2.780000e-06	3.930036e-06	8.866175e-10	2.735066e+01	6.033183e+01
2.790000e-06	3.962297e-06	8.908974e-10	2.757518e+01	6.054005e+01
2.800000e-06	3.994290e-06	8.951865e-10	2.779784e+01	6.074109e+01
2.810000e-06	4.026154e-06	8.992411e-10	2.801959e+01	6.093522e+01
2.820000e-06	4.057944e-06	9.024466e-10	2.824083e+01	6.112270e+01
2.830000e-06	4.089498e-06	9.054167e-10	2.846042e+01	6.130377e+01
2.840000e-06	4.120729e-06	9.096405e-10	2.867777e+01	6.147869e+01
2.850000e-06	4.151702e-06	9.150715e-10	2.889332e+01	6.164773e+01
2.860000e-06	4.182347e-06	9.206131e-10	2.910659e+01	6.181112e+01
2.870000e-06	4.212632e-06	9.254552e-10	2.931736e+01	6.196911e+01
2.880000e-06	4.242641e-06	9.283031e-10	2.952620e+01	6.212194e+01
2.890000e-06	4.272352e-06	9.315067e-10	2.973298e+01	6.226985e+01
2.900000e-06	4.301742e-06	9.336850e-10	2.993751e+01	6.241304e+01
