# Temperatura_=_-1.5
# Concentracion g/m^3_=_1620.0
# C_Vs_to_Am_M_A/Vsm_=_65563218390.804596
# pendiente_HvsI_1/m_=_3716.3
# ordenada_HvsI_A/m_=_1297.0
# frecuencia_Hz_=_135104.7787819736

Tiempo_(s)	Campo_(V.s)	Magnetizacion_(V.s)	Campo_(kA/m)	Magnetizacion_(A/m)
0.000000e+00	-5.517021e-06	-9.164661e-10	-3.837134e+01	-6.194392e+01
1.000000e-08	-5.517058e-06	-9.151653e-10	-3.837159e+01	-6.189844e+01
2.000000e-08	-5.516843e-06	-9.156041e-10	-3.837010e+01	-6.185232e+01
3.000000e-08	-5.516280e-06	-9.138491e-10	-3.836619e+01	-6.180537e+01
4.000000e-08	-5.515084e-06	-9.049070e-10	-3.835786e+01	-6.175740e+01
5.000000e-08	-5.513197e-06	-8.919368e-10	-3.834474e+01	-6.170821e+01
6.000000e-08	-5.510780e-06	-8.962332e-10	-3.832793e+01	-6.165760e+01
7.000000e-08	-5.507822e-06	-9.208387e-10	-3.830736e+01	-6.160537e+01
8.000000e-08	-5.504439e-06	-9.465977e-10	-3.828383e+01	-6.155133e+01
9.000000e-08	-5.500645e-06	-9.575734e-10	-3.825744e+01	-6.149529e+01
1.000000e-07	-5.496382e-06	-9.305801e-10	-3.822779e+01	-6.143707e+01
1.100000e-07	-5.491815e-06	-8.952249e-10	-3.819603e+01	-6.137648e+01
1.200000e-07	-5.487090e-06	-8.767415e-10	-3.816317e+01	-6.131337e+01
1.300000e-07	-5.482086e-06	-8.855431e-10	-3.812836e+01	-6.124758e+01
1.400000e-07	-5.476703e-06	-9.123369e-10	-3.809092e+01	-6.117896e+01
1.500000e-07	-5.470962e-06	-8.804371e-10	-3.805100e+01	-6.110740e+01
1.600000e-07	-5.464866e-06	-8.924503e-10	-3.800860e+01	-6.103276e+01
1.700000e-07	-5.458354e-06	-9.035867e-10	-3.796330e+01	-6.095496e+01
1.800000e-07	-5.451452e-06	-9.362020e-10	-3.791530e+01	-6.087391e+01
1.900000e-07	-5.444198e-06	-8.903876e-10	-3.786485e+01	-6.078955e+01
2.000000e-07	-5.436559e-06	-8.817203e-10	-3.781172e+01	-6.070183e+01
2.100000e-07	-5.428653e-06	-9.056366e-10	-3.775673e+01	-6.061073e+01
2.200000e-07	-5.420580e-06	-9.565289e-10	-3.770058e+01	-6.051622e+01
2.300000e-07	-5.412193e-06	-9.475268e-10	-3.764225e+01	-6.041833e+01
2.400000e-07	-5.403089e-06	-9.274983e-10	-3.757893e+01	-6.031708e+01
2.500000e-07	-5.393223e-06	-9.252635e-10	-3.751031e+01	-6.021251e+01
2.600000e-07	-5.382807e-06	-9.154692e-10	-3.743787e+01	-6.010468e+01
2.700000e-07	-5.371868e-06	-9.071123e-10	-3.736179e+01	-5.999366e+01
2.800000e-07	-5.360538e-06	-8.993082e-10	-3.728299e+01	-5.987956e+01
2.900000e-07	-5.348879e-06	-9.147466e-10	-3.720189e+01	-5.976248e+01
3.000000e-07	-5.336799e-06	-8.864201e-10	-3.711788e+01	-5.964254e+01
3.100000e-07	-5.324286e-06	-8.829237e-10	-3.703085e+01	-5.951987e+01
3.200000e-07	-5.311396e-06	-8.797160e-10	-3.694120e+01	-5.939462e+01
3.300000e-07	-5.298172e-06	-9.001896e-10	-3.684923e+01	-5.926693e+01
3.400000e-07	-5.284518e-06	-8.830715e-10	-3.675426e+01	-5.913698e+01
3.500000e-07	-5.270368e-06	-9.005898e-10	-3.665584e+01	-5.900492e+01
3.600000e-07	-5.255793e-06	-8.963739e-10	-3.655447e+01	-5.887093e+01
3.700000e-07	-5.240789e-06	-8.958256e-10	-3.645012e+01	-5.873517e+01
3.800000e-07	-5.225198e-06	-8.760692e-10	-3.634169e+01	-5.859783e+01
3.900000e-07	-5.209116e-06	-8.872691e-10	-3.622983e+01	-5.845908e+01
4.000000e-07	-5.192663e-06	-8.767544e-10	-3.611540e+01	-5.831909e+01
4.100000e-07	-5.175790e-06	-8.762023e-10	-3.599805e+01	-5.817802e+01
4.200000e-07	-5.158613e-06	-8.785121e-10	-3.587858e+01	-5.803604e+01
4.300000e-07	-5.141153e-06	-8.925732e-10	-3.575715e+01	-5.789330e+01
4.400000e-07	-5.123356e-06	-8.846066e-10	-3.563336e+01	-5.774996e+01
4.500000e-07	-5.105109e-06	-8.848512e-10	-3.550646e+01	-5.760613e+01
4.600000e-07	-5.086375e-06	-8.828412e-10	-3.537616e+01	-5.746196e+01
4.700000e-07	-5.067351e-06	-8.761304e-10	-3.524385e+01	-5.731754e+01
4.800000e-07	-5.048106e-06	-8.711024e-10	-3.511000e+01	-5.717299e+01
4.900000e-07	-5.028623e-06	-8.792339e-10	-3.497449e+01	-5.702839e+01
5.000000e-07	-5.008891e-06	-8.766676e-10	-3.483725e+01	-5.688381e+01
5.100000e-07	-4.988855e-06	-8.649651e-10	-3.469790e+01	-5.673930e+01
5.200000e-07	-4.968441e-06	-8.679391e-10	-3.455592e+01	-5.659491e+01
5.300000e-07	-4.947647e-06	-8.714668e-10	-3.441130e+01	-5.645065e+01
5.400000e-07	-4.926543e-06	-8.669733e-10	-3.426452e+01	-5.630655e+01
5.500000e-07	-4.905092e-06	-8.620547e-10	-3.411532e+01	-5.616259e+01
5.600000e-07	-4.883238e-06	-8.670202e-10	-3.396332e+01	-5.601875e+01
5.700000e-07	-4.861038e-06	-8.603655e-10	-3.380892e+01	-5.587500e+01
5.800000e-07	-4.838573e-06	-8.619336e-10	-3.365268e+01	-5.573128e+01
5.900000e-07	-4.815783e-06	-8.590008e-10	-3.349417e+01	-5.558753e+01
6.000000e-07	-4.792642e-06	-8.530518e-10	-3.333322e+01	-5.544367e+01
6.100000e-07	-4.769249e-06	-8.410748e-10	-3.317052e+01	-5.529962e+01
6.200000e-07	-4.745689e-06	-8.451349e-10	-3.300666e+01	-5.515526e+01
6.300000e-07	-4.721933e-06	-8.382861e-10	-3.284143e+01	-5.501050e+01
6.400000e-07	-4.697824e-06	-8.380146e-10	-3.267376e+01	-5.486520e+01
6.500000e-07	-4.673306e-06	-8.389922e-10	-3.250323e+01	-5.471925e+01
6.600000e-07	-4.648364e-06	-8.407614e-10	-3.232976e+01	-5.457251e+01
6.700000e-07	-4.622788e-06	-8.322945e-10	-3.215187e+01	-5.442484e+01
6.800000e-07	-4.596590e-06	-8.389540e-10	-3.196966e+01	-5.427610e+01
6.900000e-07	-4.569917e-06	-8.368449e-10	-3.178415e+01	-5.412613e+01
7.000000e-07	-4.542868e-06	-8.325432e-10	-3.159602e+01	-5.397481e+01
7.100000e-07	-4.515582e-06	-8.297442e-10	-3.140625e+01	-5.382197e+01
7.200000e-07	-4.488106e-06	-8.315795e-10	-3.121515e+01	-5.366748e+01
7.300000e-07	-4.460430e-06	-8.180606e-10	-3.102266e+01	-5.351119e+01
7.400000e-07	-4.432503e-06	-8.126958e-10	-3.082842e+01	-5.335297e+01
7.500000e-07	-4.404262e-06	-8.138623e-10	-3.063201e+01	-5.319267e+01
7.600000e-07	-4.375688e-06	-8.084233e-10	-3.043327e+01	-5.303016e+01
7.700000e-07	-4.346870e-06	-8.032817e-10	-3.023284e+01	-5.286533e+01
7.800000e-07	-4.317813e-06	-8.083148e-10	-3.003075e+01	-5.269805e+01
7.900000e-07	-4.288505e-06	-8.058041e-10	-2.982690e+01	-5.252822e+01
8.000000e-07	-4.258841e-06	-7.966118e-10	-2.962060e+01	-5.235573e+01
8.100000e-07	-4.228773e-06	-7.921634e-10	-2.941147e+01	-5.218050e+01
8.200000e-07	-4.198372e-06	-7.869871e-10	-2.920002e+01	-5.200243e+01
8.300000e-07	-4.167679e-06	-7.793623e-10	-2.898655e+01	-5.182145e+01
8.400000e-07	-4.136777e-06	-7.751822e-10	-2.877162e+01	-5.163749e+01
8.500000e-07	-4.105622e-06	-7.765616e-10	-2.855494e+01	-5.145050e+01
8.600000e-07	-4.074249e-06	-7.744215e-10	-2.833674e+01	-5.126042e+01
8.700000e-07	-4.042700e-06	-7.743817e-10	-2.811732e+01	-5.106722e+01
8.800000e-07	-4.010959e-06	-7.727876e-10	-2.789655e+01	-5.087085e+01
8.900000e-07	-3.979023e-06	-7.698531e-10	-2.767443e+01	-5.067130e+01
9.000000e-07	-3.946881e-06	-7.587504e-10	-2.745089e+01	-5.046854e+01
9.100000e-07	-3.914459e-06	-7.544346e-10	-2.722539e+01	-5.026256e+01
9.200000e-07	-3.881624e-06	-7.503086e-10	-2.699702e+01	-5.005336e+01
9.300000e-07	-3.848250e-06	-7.499748e-10	-2.676490e+01	-4.984092e+01
9.400000e-07	-3.814356e-06	-7.510720e-10	-2.652916e+01	-4.962526e+01
9.500000e-07	-3.780072e-06	-7.543756e-10	-2.629071e+01	-4.940638e+01
9.600000e-07	-3.745401e-06	-7.476574e-10	-2.604957e+01	-4.918428e+01
9.700000e-07	-3.710390e-06	-7.400809e-10	-2.580607e+01	-4.895897e+01
9.800000e-07	-3.675152e-06	-7.349379e-10	-2.556099e+01	-4.873047e+01
9.900000e-07	-3.639710e-06	-7.336750e-10	-2.531449e+01	-4.849878e+01
1.000000e-06	-3.604090e-06	-7.271269e-10	-2.506675e+01	-4.826391e+01
1.010000e-06	-3.568331e-06	-7.236493e-10	-2.481804e+01	-4.802588e+01
1.020000e-06	-3.532419e-06	-7.214692e-10	-2.456827e+01	-4.778469e+01
1.030000e-06	-3.496338e-06	-7.184617e-10	-2.431732e+01	-4.754034e+01
1.040000e-06	-3.459963e-06	-7.144454e-10	-2.406433e+01	-4.729283e+01
1.050000e-06	-3.423258e-06	-7.132156e-10	-2.380904e+01	-4.704215e+01
1.060000e-06	-3.386314e-06	-7.087276e-10	-2.355209e+01	-4.678831e+01
1.070000e-06	-3.349175e-06	-7.024177e-10	-2.329379e+01	-4.653127e+01
1.080000e-06	-3.311813e-06	-6.966719e-10	-2.303394e+01	-4.627104e+01
1.090000e-06	-3.274172e-06	-6.910401e-10	-2.277214e+01	-4.600757e+01
1.100000e-06	-3.236317e-06	-6.860306e-10	-2.250885e+01	-4.574085e+01
1.110000e-06	-3.198247e-06	-6.832241e-10	-2.224407e+01	-4.547083e+01
1.120000e-06	-3.159931e-06	-6.837273e-10	-2.197758e+01	-4.519747e+01
1.130000e-06	-3.121364e-06	-6.823481e-10	-2.170935e+01	-4.492072e+01
1.140000e-06	-3.082588e-06	-6.774981e-10	-2.143966e+01	-4.464052e+01
1.150000e-06	-3.043637e-06	-6.668184e-10	-2.116875e+01	-4.435683e+01
1.160000e-06	-3.004493e-06	-6.562156e-10	-2.089650e+01	-4.406956e+01
1.170000e-06	-2.965194e-06	-6.485054e-10	-2.062317e+01	-4.377864e+01
1.180000e-06	-2.925783e-06	-6.464861e-10	-2.034906e+01	-4.348401e+01
1.190000e-06	-2.886256e-06	-6.450608e-10	-2.007415e+01	-4.318556e+01
1.200000e-06	-2.846572e-06	-6.442849e-10	-1.979815e+01	-4.288321e+01
1.210000e-06	-2.806752e-06	-6.404219e-10	-1.952119e+01	-4.257687e+01
1.220000e-06	-2.766841e-06	-6.337310e-10	-1.924361e+01	-4.226644e+01
1.230000e-06	-2.726843e-06	-6.234767e-10	-1.896542e+01	-4.195180e+01
1.240000e-06	-2.686634e-06	-6.142887e-10	-1.868576e+01	-4.163286e+01
1.250000e-06	-2.646163e-06	-6.074280e-10	-1.840428e+01	-4.130950e+01
1.260000e-06	-2.605450e-06	-6.042138e-10	-1.812112e+01	-4.098159e+01
1.270000e-06	-2.564452e-06	-6.013568e-10	-1.783598e+01	-4.064903e+01
1.280000e-06	-2.523113e-06	-6.018329e-10	-1.754846e+01	-4.031167e+01
1.290000e-06	-2.481421e-06	-6.016221e-10	-1.725849e+01	-3.996940e+01
1.300000e-06	-2.439433e-06	-5.954993e-10	-1.696646e+01	-3.962208e+01
1.310000e-06	-2.397156e-06	-5.832916e-10	-1.667242e+01	-3.926957e+01
1.320000e-06	-2.354522e-06	-5.724666e-10	-1.637590e+01	-3.891172e+01
1.330000e-06	-2.311618e-06	-5.639226e-10	-1.607750e+01	-3.854840e+01
1.340000e-06	-2.268551e-06	-5.577882e-10	-1.577796e+01	-3.817945e+01
1.350000e-06	-2.225301e-06	-5.528489e-10	-1.547715e+01	-3.780471e+01
1.360000e-06	-2.181921e-06	-5.497608e-10	-1.517544e+01	-3.742402e+01
1.370000e-06	-2.138443e-06	-5.468482e-10	-1.487305e+01	-3.703723e+01
1.380000e-06	-2.094863e-06	-5.439687e-10	-1.456995e+01	-3.664415e+01
1.390000e-06	-2.051207e-06	-5.384725e-10	-1.426631e+01	-3.624461e+01
1.400000e-06	-2.007417e-06	-5.285504e-10	-1.396175e+01	-3.583842e+01
1.410000e-06	-1.963480e-06	-5.183539e-10	-1.365616e+01	-3.542540e+01
1.420000e-06	-1.919477e-06	-5.098613e-10	-1.335012e+01	-3.500534e+01
1.430000e-06	-1.875373e-06	-5.029708e-10	-1.304337e+01	-3.457805e+01
1.440000e-06	-1.831151e-06	-4.975509e-10	-1.273581e+01	-3.414329e+01
1.450000e-06	-1.786890e-06	-4.922928e-10	-1.242797e+01	-3.370087e+01
1.460000e-06	-1.742560e-06	-4.861902e-10	-1.211965e+01	-3.325054e+01
1.470000e-06	-1.698097e-06	-4.772293e-10	-1.181041e+01	-3.279206e+01
1.480000e-06	-1.653502e-06	-4.660821e-10	-1.150024e+01	-3.232520e+01
1.490000e-06	-1.608817e-06	-4.585798e-10	-1.118946e+01	-3.184969e+01
1.500000e-06	-1.564005e-06	-4.523083e-10	-1.087778e+01	-3.136527e+01
1.510000e-06	-1.519033e-06	-4.466742e-10	-1.056500e+01	-3.087166e+01
1.520000e-06	-1.473886e-06	-4.416109e-10	-1.025100e+01	-3.036860e+01
1.530000e-06	-1.428576e-06	-4.351483e-10	-9.935862e+00	-2.985578e+01
1.540000e-06	-1.383133e-06	-4.226584e-10	-9.619807e+00	-2.933292e+01
1.550000e-06	-1.337659e-06	-4.117278e-10	-9.303528e+00	-2.879971e+01
1.560000e-06	-1.292224e-06	-4.030072e-10	-8.987527e+00	-2.825584e+01
1.570000e-06	-1.246700e-06	-3.944764e-10	-8.670904e+00	-2.770101e+01
1.580000e-06	-1.201038e-06	-3.877154e-10	-8.353318e+00	-2.713490e+01
1.590000e-06	-1.155205e-06	-3.823852e-10	-8.034547e+00	-2.655719e+01
1.600000e-06	-1.109227e-06	-3.748713e-10	-7.714763e+00	-2.596756e+01
1.610000e-06	-1.063225e-06	-3.645274e-10	-7.394818e+00	-2.536570e+01
1.620000e-06	-1.017141e-06	-3.540414e-10	-7.074300e+00	-2.475129e+01
1.630000e-06	-9.709619e-07	-3.470879e-10	-6.753121e+00	-2.412403e+01
1.640000e-06	-9.248064e-07	-3.386388e-10	-6.432105e+00	-2.348361e+01
1.650000e-06	-8.786579e-07	-3.267084e-10	-6.111139e+00	-2.282973e+01
1.660000e-06	-8.324860e-07	-3.141161e-10	-5.790009e+00	-2.216212e+01
1.670000e-06	-7.862101e-07	-3.014973e-10	-5.468156e+00	-2.148050e+01
1.680000e-06	-7.398051e-07	-2.903071e-10	-5.145406e+00	-2.078462e+01
1.690000e-06	-6.933945e-07	-2.805924e-10	-4.822616e+00	-2.007424e+01
1.700000e-06	-6.470042e-07	-2.715351e-10	-4.499968e+00	-1.934914e+01
1.710000e-06	-6.005932e-07	-2.622158e-10	-4.177175e+00	-1.860912e+01
1.720000e-06	-5.541287e-07	-2.500746e-10	-3.854011e+00	-1.785402e+01
1.730000e-06	-5.075479e-07	-2.338718e-10	-3.530037e+00	-1.708370e+01
1.740000e-06	-4.608751e-07	-2.176847e-10	-3.205425e+00	-1.629805e+01
1.750000e-06	-4.142053e-07	-2.041414e-10	-2.880832e+00	-1.549697e+01
1.760000e-06	-3.675399e-07	-1.940710e-10	-2.556270e+00	-1.468044e+01
1.770000e-06	-3.208031e-07	-1.842408e-10	-2.231212e+00	-1.384844e+01
1.780000e-06	-2.740059e-07	-1.746777e-10	-1.905734e+00	-1.300099e+01
1.790000e-06	-2.272232e-07	-1.644793e-10	-1.580356e+00	-1.213818e+01
1.800000e-06	-1.805185e-07	-1.499489e-10	-1.255521e+00	-1.126011e+01
1.810000e-06	-1.338763e-07	-1.359156e-10	-9.311205e-01	-1.036694e+01
1.820000e-06	-8.717156e-08	-1.258004e-10	-6.062854e-01	-9.458865e+00
1.830000e-06	-4.046832e-08	-1.151039e-10	-2.814605e-01	-8.536141e+00
1.840000e-06	6.207424e-09	-1.018037e-10	4.317315e-02	-7.599058e+00
1.850000e-06	5.296377e-08	-8.747670e-11	3.683674e-01	-6.647957e+00
1.860000e-06	9.976120e-08	-7.389280e-11	6.938474e-01	-5.683226e+00
1.870000e-06	1.465423e-07	-5.860878e-11	1.019214e+00	-4.705302e+00
1.880000e-06	1.932876e-07	-4.269743e-11	1.344331e+00	-3.714666e+00
1.890000e-06	2.400673e-07	-2.726166e-11	1.669688e+00	-2.711851e+00
1.900000e-06	2.868784e-07	-1.279735e-11	1.995263e+00	-1.697431e+00
1.910000e-06	3.336432e-07	6.715948e-13	2.320516e+00	-6.720276e-01
1.920000e-06	3.803644e-07	1.332787e-11	2.645466e+00	3.636958e-01
1.930000e-06	4.269906e-07	2.693857e-11	2.969755e+00	1.409033e+00
1.940000e-06	4.736173e-07	4.373941e-11	3.294048e+00	2.463240e+00
1.950000e-06	5.203559e-07	6.184484e-11	3.619118e+00	3.525534e+00
1.960000e-06	5.671288e-07	7.934520e-11	3.944428e+00	4.595096e+00
1.970000e-06	6.137681e-07	9.487260e-11	4.268808e+00	5.671078e+00
1.980000e-06	6.602449e-07	1.078120e-10	4.592058e+00	6.752601e+00
1.990000e-06	7.066206e-07	1.200775e-10	4.914605e+00	7.838760e+00
2.000000e-06	7.529410e-07	1.328822e-10	5.236767e+00	8.928628e+00
2.010000e-06	7.992086e-07	1.483459e-10	5.558562e+00	1.002126e+01
2.020000e-06	8.453670e-07	1.670966e-10	5.879598e+00	1.111569e+01
2.030000e-06	8.914537e-07	1.875244e-10	6.200134e+00	1.221095e+01
2.040000e-06	9.375069e-07	2.057313e-10	6.520438e+00	1.330605e+01
2.050000e-06	9.834673e-07	2.209470e-10	6.840096e+00	1.440001e+01
2.060000e-06	1.029344e-06	2.347243e-10	7.159170e+00	1.549184e+01
2.070000e-06	1.075195e-06	2.488806e-10	7.478073e+00	1.658057e+01
2.080000e-06	1.121007e-06	2.646954e-10	7.796698e+00	1.766521e+01
2.090000e-06	1.166756e-06	2.820440e-10	8.114886e+00	1.874481e+01
2.100000e-06	1.212361e-06	3.002495e-10	8.432074e+00	1.981841e+01
2.110000e-06	1.257860e-06	3.160796e-10	8.748523e+00	2.088510e+01
2.120000e-06	1.303324e-06	3.308639e-10	9.064726e+00	2.194396e+01
2.130000e-06	1.348764e-06	3.458958e-10	9.380764e+00	2.299412e+01
2.140000e-06	1.394144e-06	3.617143e-10	9.696384e+00	2.403472e+01
2.150000e-06	1.439347e-06	3.771574e-10	1.001078e+01	2.506495e+01
2.160000e-06	1.484371e-06	3.914942e-10	1.032393e+01	2.608403e+01
2.170000e-06	1.529312e-06	4.051390e-10	1.063649e+01	2.709120e+01
2.180000e-06	1.574188e-06	4.195536e-10	1.094861e+01	2.808578e+01
2.190000e-06	1.618962e-06	4.317907e-10	1.126001e+01	2.906708e+01
2.200000e-06	1.663586e-06	4.428461e-10	1.157038e+01	3.003451e+01
2.210000e-06	1.708103e-06	4.551575e-10	1.188000e+01	3.098747e+01
2.220000e-06	1.752466e-06	4.687600e-10	1.218855e+01	3.192545e+01
2.230000e-06	1.796631e-06	4.848943e-10	1.249572e+01	3.284797e+01
2.240000e-06	1.840711e-06	4.986279e-10	1.280230e+01	3.375459e+01
2.250000e-06	1.884735e-06	5.089077e-10	1.310849e+01	3.464493e+01
2.260000e-06	1.928646e-06	5.170983e-10	1.341390e+01	3.551865e+01
2.270000e-06	1.972465e-06	5.290422e-10	1.371866e+01	3.637548e+01
2.280000e-06	2.016255e-06	5.440558e-10	1.402322e+01	3.721517e+01
2.290000e-06	2.059957e-06	5.585419e-10	1.432717e+01	3.803753e+01
2.300000e-06	2.103574e-06	5.707886e-10	1.463053e+01	3.884242e+01
2.310000e-06	2.147172e-06	5.809445e-10	1.493376e+01	3.962972e+01
2.320000e-06	2.190719e-06	5.895304e-10	1.523663e+01	4.039939e+01
2.330000e-06	2.234158e-06	5.987858e-10	1.553875e+01	4.115141e+01
2.340000e-06	2.277406e-06	6.091483e-10	1.583954e+01	4.188580e+01
2.350000e-06	2.320445e-06	6.221833e-10	1.613889e+01	4.260262e+01
2.360000e-06	2.363326e-06	6.378158e-10	1.643713e+01	4.330197e+01
2.370000e-06	2.405914e-06	6.470886e-10	1.673333e+01	4.398397e+01
2.380000e-06	2.448181e-06	6.529778e-10	1.702730e+01	4.464878e+01
2.390000e-06	2.490085e-06	6.584029e-10	1.731875e+01	4.529659e+01
2.400000e-06	2.531662e-06	6.670361e-10	1.760792e+01	4.592761e+01
2.410000e-06	2.573072e-06	6.771589e-10	1.789593e+01	4.654208e+01
2.420000e-06	2.614149e-06	6.879387e-10	1.818162e+01	4.714025e+01
2.430000e-06	2.654844e-06	6.997391e-10	1.846466e+01	4.772240e+01
2.440000e-06	2.695247e-06	7.077399e-10	1.874567e+01	4.828881e+01
2.450000e-06	2.735411e-06	7.124962e-10	1.902501e+01	4.883979e+01
2.460000e-06	2.775380e-06	7.201634e-10	1.930300e+01	4.937565e+01
2.470000e-06	2.815218e-06	7.300959e-10	1.958008e+01	4.989671e+01
2.480000e-06	2.854963e-06	7.423266e-10	1.985650e+01	5.040331e+01
2.490000e-06	2.894613e-06	7.541349e-10	2.013227e+01	5.089576e+01
2.500000e-06	2.934106e-06	7.607268e-10	2.040695e+01	5.137440e+01
2.510000e-06	2.973439e-06	7.653400e-10	2.068051e+01	5.183957e+01
2.520000e-06	3.012634e-06	7.697742e-10	2.095312e+01	5.229159e+01
2.530000e-06	3.051664e-06	7.731154e-10	2.122458e+01	5.273081e+01
2.540000e-06	3.090475e-06	7.757881e-10	2.149451e+01	5.315753e+01
2.550000e-06	3.129001e-06	7.810609e-10	2.176246e+01	5.357208e+01
2.560000e-06	3.167291e-06	7.904675e-10	2.202877e+01	5.397478e+01
2.570000e-06	3.205356e-06	7.988705e-10	2.229352e+01	5.436593e+01
2.580000e-06	3.243161e-06	8.043122e-10	2.255645e+01	5.474582e+01
2.590000e-06	3.280734e-06	8.087307e-10	2.281778e+01	5.511475e+01
2.600000e-06	3.318133e-06	8.119712e-10	2.307789e+01	5.547300e+01
2.610000e-06	3.355350e-06	8.128189e-10	2.333674e+01	5.582083e+01
2.620000e-06	3.392382e-06	8.130672e-10	2.359429e+01	5.615852e+01
2.630000e-06	3.429161e-06	8.166995e-10	2.385010e+01	5.648630e+01
2.640000e-06	3.465662e-06	8.234732e-10	2.410397e+01	5.680443e+01
2.650000e-06	3.501903e-06	8.325150e-10	2.435603e+01	5.711314e+01
2.660000e-06	3.537895e-06	8.401532e-10	2.460635e+01	5.741266e+01
2.670000e-06	3.573745e-06	8.451329e-10	2.485569e+01	5.770319e+01
2.680000e-06	3.609453e-06	8.481394e-10	2.510404e+01	5.798496e+01
2.690000e-06	3.645010e-06	8.478238e-10	2.535135e+01	5.825816e+01
2.700000e-06	3.680419e-06	8.467837e-10	2.559762e+01	5.852299e+01
2.710000e-06	3.715673e-06	8.493810e-10	2.584281e+01	5.877963e+01
2.720000e-06	3.750664e-06	8.545681e-10	2.608618e+01	5.902827e+01
2.730000e-06	3.785290e-06	8.626831e-10	2.632701e+01	5.926909e+01
2.740000e-06	3.819421e-06	8.700490e-10	2.656439e+01	5.950225e+01
2.750000e-06	3.853028e-06	8.729691e-10	2.679813e+01	5.972792e+01
2.760000e-06	3.886228e-06	8.738011e-10	2.702904e+01	5.994627e+01
2.770000e-06	3.918953e-06	8.730276e-10	2.725664e+01	6.015745e+01
2.780000e-06	3.951284e-06	8.720825e-10	2.748151e+01	6.036163e+01
2.790000e-06	3.983325e-06	8.759854e-10	2.770436e+01	6.055895e+01
2.800000e-06	4.015140e-06	8.823071e-10	2.792563e+01	6.074956e+01
2.810000e-06	4.046859e-06	8.880210e-10	2.814624e+01	6.093363e+01
2.820000e-06	4.078469e-06	8.928246e-10	2.836609e+01	6.111128e+01
2.830000e-06	4.109872e-06	8.967387e-10	2.858450e+01	6.128266e+01
2.840000e-06	4.141055e-06	9.006487e-10	2.880138e+01	6.144792e+01
2.850000e-06	4.171981e-06	9.042169e-10	2.901647e+01	6.160719e+01
2.860000e-06	4.202523e-06	9.064421e-10	2.922889e+01	6.176061e+01
2.870000e-06	4.232691e-06	9.067324e-10	2.943872e+01	6.190832e+01
2.880000e-06	4.262586e-06	9.074323e-10	2.964664e+01	6.205044e+01
2.890000e-06	4.292263e-06	9.119672e-10	2.985304e+01	6.218710e+01
2.900000e-06	4.321697e-06	9.173121e-10	3.005776e+01	6.231843e+01
2.910000e-06	4.350848e-06	9.191817e-10	3.026051e+01	6.244454e+01
