# Temperatura_=_-0.59
# Concentracion g/m^3_=_1620.0
# C_Vs_to_Am_M_A/Vsm_=_65563218390.804596
# pendiente_HvsI_1/m_=_3716.3
# ordenada_HvsI_A/m_=_1297.0
# frecuencia_Hz_=_135097.51036004574

Tiempo_(s)	Campo_(V.s)	Magnetizacion_(V.s)	Campo_(kA/m)	Magnetizacion_(A/m)
0.000000e+00	-5.520844e-06	-1.339615e-09	-3.837103e+01	-8.973827e+01
1.000000e-08	-5.520922e-06	-1.336636e-09	-3.837157e+01	-8.966398e+01
2.000000e-08	-5.520733e-06	-1.337139e-09	-3.837026e+01	-8.958974e+01
3.000000e-08	-5.520213e-06	-1.337937e-09	-3.836664e+01	-8.951572e+01
4.000000e-08	-5.519190e-06	-1.331975e-09	-3.835953e+01	-8.944204e+01
5.000000e-08	-5.517577e-06	-1.318476e-09	-3.834832e+01	-8.936882e+01
6.000000e-08	-5.515314e-06	-1.318151e-09	-3.833259e+01	-8.929615e+01
7.000000e-08	-5.512412e-06	-1.352138e-09	-3.831242e+01	-8.922412e+01
8.000000e-08	-5.508994e-06	-1.373704e-09	-3.828867e+01	-8.915276e+01
9.000000e-08	-5.505162e-06	-1.379916e-09	-3.826203e+01	-8.908213e+01
1.000000e-07	-5.501029e-06	-1.377125e-09	-3.823331e+01	-8.901222e+01
1.100000e-07	-5.496658e-06	-1.352934e-09	-3.820293e+01	-8.894302e+01
1.200000e-07	-5.491958e-06	-1.248523e-09	-3.817026e+01	-8.887451e+01
1.300000e-07	-5.486909e-06	-1.282513e-09	-3.813518e+01	-8.880663e+01
1.400000e-07	-5.481498e-06	-1.337177e-09	-3.809757e+01	-8.873929e+01
1.500000e-07	-5.475681e-06	-1.369889e-09	-3.805713e+01	-8.867242e+01
1.600000e-07	-5.469517e-06	-1.277976e-09	-3.801429e+01	-8.860589e+01
1.700000e-07	-5.463066e-06	-1.277681e-09	-3.796946e+01	-8.853956e+01
1.800000e-07	-5.456117e-06	-1.368931e-09	-3.792116e+01	-8.847330e+01
1.900000e-07	-5.448666e-06	-1.350938e-09	-3.786937e+01	-8.840692e+01
2.000000e-07	-5.441035e-06	-1.281916e-09	-3.781634e+01	-8.834026e+01
2.100000e-07	-5.433191e-06	-1.257904e-09	-3.776182e+01	-8.827310e+01
2.200000e-07	-5.425051e-06	-1.350276e-09	-3.770524e+01	-8.820524e+01
2.300000e-07	-5.416573e-06	-1.338822e-09	-3.764632e+01	-8.813645e+01
2.400000e-07	-5.407551e-06	-1.306276e-09	-3.758362e+01	-8.806651e+01
2.500000e-07	-5.397834e-06	-1.268404e-09	-3.751608e+01	-8.799518e+01
2.600000e-07	-5.387422e-06	-1.320354e-09	-3.744371e+01	-8.792220e+01
2.700000e-07	-5.376372e-06	-1.306006e-09	-3.736692e+01	-8.784732e+01
2.800000e-07	-5.364891e-06	-1.312062e-09	-3.728712e+01	-8.777028e+01
2.900000e-07	-5.353156e-06	-1.306074e-09	-3.720556e+01	-8.769083e+01
3.000000e-07	-5.341100e-06	-1.329449e-09	-3.712177e+01	-8.760870e+01
3.100000e-07	-5.328585e-06	-1.309934e-09	-3.703479e+01	-8.752363e+01
3.200000e-07	-5.315643e-06	-1.312732e-09	-3.694483e+01	-8.743536e+01
3.300000e-07	-5.302274e-06	-1.295522e-09	-3.685192e+01	-8.734363e+01
3.400000e-07	-5.288616e-06	-1.307309e-09	-3.675699e+01	-8.724819e+01
3.500000e-07	-5.274570e-06	-1.326171e-09	-3.665937e+01	-8.714879e+01
3.600000e-07	-5.259978e-06	-1.317027e-09	-3.655795e+01	-8.704520e+01
3.700000e-07	-5.244971e-06	-1.290140e-09	-3.645365e+01	-8.693717e+01
3.800000e-07	-5.229545e-06	-1.314578e-09	-3.634644e+01	-8.682449e+01
3.900000e-07	-5.213590e-06	-1.320208e-09	-3.623555e+01	-8.670693e+01
4.000000e-07	-5.197071e-06	-1.268450e-09	-3.612074e+01	-8.658430e+01
4.100000e-07	-5.180184e-06	-1.293872e-09	-3.600337e+01	-8.645641e+01
4.200000e-07	-5.162979e-06	-1.334930e-09	-3.588379e+01	-8.632307e+01
4.300000e-07	-5.145458e-06	-1.292479e-09	-3.576202e+01	-8.618412e+01
4.400000e-07	-5.127681e-06	-1.261764e-09	-3.563846e+01	-8.603941e+01
4.500000e-07	-5.109539e-06	-1.345849e-09	-3.551237e+01	-8.588879e+01
4.600000e-07	-5.090939e-06	-1.310883e-09	-3.538310e+01	-8.573214e+01
4.700000e-07	-5.071886e-06	-1.238642e-09	-3.525067e+01	-8.556936e+01
4.800000e-07	-5.052475e-06	-1.285747e-09	-3.511577e+01	-8.540033e+01
4.900000e-07	-5.032853e-06	-1.336912e-09	-3.497939e+01	-8.522500e+01
5.000000e-07	-5.013028e-06	-1.239134e-09	-3.484160e+01	-8.504329e+01
5.100000e-07	-4.992972e-06	-1.250945e-09	-3.470220e+01	-8.485514e+01
5.200000e-07	-4.972595e-06	-1.313420e-09	-3.456058e+01	-8.466054e+01
5.300000e-07	-4.951858e-06	-1.260794e-09	-3.441646e+01	-8.445946e+01
5.400000e-07	-4.930768e-06	-1.214152e-09	-3.426987e+01	-8.425190e+01
5.500000e-07	-4.909306e-06	-1.300022e-09	-3.412071e+01	-8.403786e+01
5.600000e-07	-4.887539e-06	-1.269040e-09	-3.396942e+01	-8.381738e+01
5.700000e-07	-4.865460e-06	-1.203528e-09	-3.381597e+01	-8.359050e+01
5.800000e-07	-4.842965e-06	-1.255776e-09	-3.365962e+01	-8.335726e+01
5.900000e-07	-4.820153e-06	-1.281623e-09	-3.350108e+01	-8.311774e+01
6.000000e-07	-4.797055e-06	-1.194717e-09	-3.334054e+01	-8.287203e+01
6.100000e-07	-4.773648e-06	-1.207337e-09	-3.317785e+01	-8.262020e+01
6.200000e-07	-4.750035e-06	-1.249466e-09	-3.301374e+01	-8.236237e+01
6.300000e-07	-4.726156e-06	-1.201208e-09	-3.284778e+01	-8.209866e+01
6.400000e-07	-4.701844e-06	-1.187060e-09	-3.267881e+01	-8.182919e+01
6.500000e-07	-4.677109e-06	-1.231773e-09	-3.250689e+01	-8.155409e+01
6.600000e-07	-4.652127e-06	-1.205797e-09	-3.233326e+01	-8.127352e+01
6.700000e-07	-4.626731e-06	-1.173863e-09	-3.215675e+01	-8.098763e+01
6.800000e-07	-4.600707e-06	-1.205563e-09	-3.197588e+01	-8.069658e+01
6.900000e-07	-4.574066e-06	-1.199002e-09	-3.179072e+01	-8.040053e+01
7.000000e-07	-4.546964e-06	-1.169741e-09	-3.160236e+01	-8.009967e+01
7.100000e-07	-4.519584e-06	-1.182199e-09	-3.141206e+01	-7.979417e+01
7.200000e-07	-4.491977e-06	-1.190738e-09	-3.122018e+01	-7.948421e+01
7.300000e-07	-4.464194e-06	-1.158316e-09	-3.102709e+01	-7.916998e+01
7.400000e-07	-4.436215e-06	-1.160277e-09	-3.083263e+01	-7.885166e+01
7.500000e-07	-4.408017e-06	-1.166730e-09	-3.063664e+01	-7.852945e+01
7.600000e-07	-4.379527e-06	-1.152611e-09	-3.043863e+01	-7.820352e+01
7.700000e-07	-4.350687e-06	-1.137770e-09	-3.023819e+01	-7.787407e+01
7.800000e-07	-4.321508e-06	-1.147853e-09	-3.003539e+01	-7.754127e+01
7.900000e-07	-4.292023e-06	-1.135775e-09	-2.983046e+01	-7.720531e+01
8.000000e-07	-4.262276e-06	-1.128042e-09	-2.962372e+01	-7.686636e+01
8.100000e-07	-4.232202e-06	-1.123906e-09	-2.941469e+01	-7.652459e+01
8.200000e-07	-4.201878e-06	-1.117186e-09	-2.920394e+01	-7.618015e+01
8.300000e-07	-4.171294e-06	-1.099947e-09	-2.899137e+01	-7.583322e+01
8.400000e-07	-4.140469e-06	-1.104883e-09	-2.877713e+01	-7.548392e+01
8.500000e-07	-4.109361e-06	-1.101083e-09	-2.856092e+01	-7.513240e+01
8.600000e-07	-4.077926e-06	-1.091360e-09	-2.834244e+01	-7.477877e+01
8.700000e-07	-4.046286e-06	-1.084496e-09	-2.812254e+01	-7.442316e+01
8.800000e-07	-4.014475e-06	-1.085945e-09	-2.790144e+01	-7.406567e+01
8.900000e-07	-3.982522e-06	-1.072940e-09	-2.767936e+01	-7.370637e+01
9.000000e-07	-3.950372e-06	-1.065360e-09	-2.745592e+01	-7.334534e+01
9.100000e-07	-3.917918e-06	-1.066060e-09	-2.723035e+01	-7.298265e+01
9.200000e-07	-3.885035e-06	-1.058405e-09	-2.700181e+01	-7.261834e+01
9.300000e-07	-3.851676e-06	-1.046685e-09	-2.676996e+01	-7.225243e+01
9.400000e-07	-3.817880e-06	-1.049641e-09	-2.653507e+01	-7.188494e+01
9.500000e-07	-3.783686e-06	-1.047786e-09	-2.629742e+01	-7.151587e+01
9.600000e-07	-3.749096e-06	-1.032614e-09	-2.605700e+01	-7.114520e+01
9.700000e-07	-3.714073e-06	-1.027702e-09	-2.581359e+01	-7.077288e+01
9.800000e-07	-3.678666e-06	-1.026457e-09	-2.556750e+01	-7.039888e+01
9.900000e-07	-3.643084e-06	-1.017425e-09	-2.532020e+01	-7.002312e+01
1.000000e-06	-3.607423e-06	-1.008893e-09	-2.507235e+01	-6.964552e+01
1.010000e-06	-3.571616e-06	-1.012664e-09	-2.482348e+01	-6.926598e+01
1.020000e-06	-3.535680e-06	-1.008498e-09	-2.457372e+01	-6.888440e+01
1.030000e-06	-3.499553e-06	-9.999401e-10	-2.432263e+01	-6.850063e+01
1.040000e-06	-3.463128e-06	-9.924760e-10	-2.406947e+01	-6.811455e+01
1.050000e-06	-3.426476e-06	-9.869587e-10	-2.381473e+01	-6.772600e+01
1.060000e-06	-3.389534e-06	-9.744378e-10	-2.355797e+01	-6.733481e+01
1.070000e-06	-3.352375e-06	-9.704248e-10	-2.329971e+01	-6.694082e+01
1.080000e-06	-3.315057e-06	-9.639626e-10	-2.304034e+01	-6.654382e+01
1.090000e-06	-3.277410e-06	-9.566769e-10	-2.277869e+01	-6.614363e+01
1.100000e-06	-3.239495e-06	-9.478594e-10	-2.251517e+01	-6.574005e+01
1.110000e-06	-3.201400e-06	-9.439675e-10	-2.225040e+01	-6.533287e+01
1.120000e-06	-3.163089e-06	-9.348506e-10	-2.198413e+01	-6.492187e+01
1.130000e-06	-3.124576e-06	-9.272259e-10	-2.171646e+01	-6.450683e+01
1.140000e-06	-3.085856e-06	-9.211087e-10	-2.144735e+01	-6.408754e+01
1.150000e-06	-3.046960e-06	-9.155077e-10	-2.117701e+01	-6.366376e+01
1.160000e-06	-3.007940e-06	-9.065713e-10	-2.090582e+01	-6.323528e+01
1.170000e-06	-2.968690e-06	-9.021419e-10	-2.063302e+01	-6.280187e+01
1.180000e-06	-2.929205e-06	-8.975468e-10	-2.035859e+01	-6.236331e+01
1.190000e-06	-2.889585e-06	-8.897315e-10	-2.008322e+01	-6.191938e+01
1.200000e-06	-2.849858e-06	-8.808194e-10	-1.980711e+01	-6.146986e+01
1.210000e-06	-2.810024e-06	-8.746067e-10	-1.953026e+01	-6.101453e+01
1.220000e-06	-2.770005e-06	-8.656660e-10	-1.925212e+01	-6.055320e+01
1.230000e-06	-2.729792e-06	-8.562391e-10	-1.897263e+01	-6.008565e+01
1.240000e-06	-2.689359e-06	-8.494377e-10	-1.869161e+01	-5.961169e+01
1.250000e-06	-2.648691e-06	-8.423719e-10	-1.840896e+01	-5.913113e+01
1.260000e-06	-2.607851e-06	-8.341956e-10	-1.812512e+01	-5.864378e+01
1.270000e-06	-2.566756e-06	-8.240249e-10	-1.783949e+01	-5.814947e+01
1.280000e-06	-2.525440e-06	-8.158431e-10	-1.755234e+01	-5.764802e+01
1.290000e-06	-2.483901e-06	-8.070560e-10	-1.726363e+01	-5.713927e+01
1.300000e-06	-2.441971e-06	-7.977108e-10	-1.697221e+01	-5.662305e+01
1.310000e-06	-2.399720e-06	-7.882840e-10	-1.667856e+01	-5.609922e+01
1.320000e-06	-2.357175e-06	-7.792692e-10	-1.638286e+01	-5.556761e+01
1.330000e-06	-2.314278e-06	-7.696413e-10	-1.608472e+01	-5.502809e+01
1.340000e-06	-2.271170e-06	-7.633312e-10	-1.578511e+01	-5.448051e+01
1.350000e-06	-2.227998e-06	-7.551995e-10	-1.548505e+01	-5.392472e+01
1.360000e-06	-2.184698e-06	-7.451201e-10	-1.518411e+01	-5.336059e+01
1.370000e-06	-2.141201e-06	-7.359999e-10	-1.488180e+01	-5.278796e+01
1.380000e-06	-2.097561e-06	-7.308718e-10	-1.457849e+01	-5.220670e+01
1.390000e-06	-2.053796e-06	-7.204849e-10	-1.427431e+01	-5.161666e+01
1.400000e-06	-2.009964e-06	-7.083639e-10	-1.396967e+01	-5.101769e+01
1.410000e-06	-1.966065e-06	-6.973243e-10	-1.366456e+01	-5.040962e+01
1.420000e-06	-1.922072e-06	-6.892259e-10	-1.335881e+01	-4.979229e+01
1.430000e-06	-1.877918e-06	-6.800611e-10	-1.305193e+01	-4.916553e+01
1.440000e-06	-1.833650e-06	-6.703155e-10	-1.274425e+01	-4.852914e+01
1.450000e-06	-1.789369e-06	-6.597985e-10	-1.243649e+01	-4.788293e+01
1.460000e-06	-1.744996e-06	-6.493693e-10	-1.212809e+01	-4.722669e+01
1.470000e-06	-1.700517e-06	-6.370984e-10	-1.181895e+01	-4.656020e+01
1.480000e-06	-1.655919e-06	-6.250093e-10	-1.150899e+01	-4.588322e+01
1.490000e-06	-1.611189e-06	-6.133070e-10	-1.119810e+01	-4.519548e+01
1.500000e-06	-1.566344e-06	-6.033845e-10	-1.088642e+01	-4.449673e+01
1.510000e-06	-1.521364e-06	-5.943060e-10	-1.057380e+01	-4.378666e+01
1.520000e-06	-1.476267e-06	-5.849641e-10	-1.026037e+01	-4.306498e+01
1.530000e-06	-1.431037e-06	-5.735753e-10	-9.946010e+00	-4.233135e+01
1.540000e-06	-1.385678e-06	-5.606170e-10	-9.630754e+00	-4.158545e+01
1.550000e-06	-1.340210e-06	-5.488180e-10	-9.314739e+00	-4.082691e+01
1.560000e-06	-1.294608e-06	-5.378819e-10	-8.997795e+00	-4.005536e+01
1.570000e-06	-1.248906e-06	-5.273577e-10	-8.680157e+00	-3.927041e+01
1.580000e-06	-1.203095e-06	-5.190525e-10	-8.361766e+00	-3.847165e+01
1.590000e-06	-1.157192e-06	-5.123649e-10	-8.042724e+00	-3.765868e+01
1.600000e-06	-1.111285e-06	-5.019537e-10	-7.723663e+00	-3.683107e+01
1.610000e-06	-1.065330e-06	-4.875929e-10	-7.404266e+00	-3.598839e+01
1.620000e-06	-1.019249e-06	-4.751761e-10	-7.083998e+00	-3.513019e+01
1.630000e-06	-9.730420e-07	-4.677926e-10	-6.762847e+00	-3.425604e+01
1.640000e-06	-9.268286e-07	-4.585799e-10	-6.441654e+00	-3.336549e+01
1.650000e-06	-8.806738e-07	-4.467491e-10	-6.120868e+00	-3.245810e+01
1.660000e-06	-8.344906e-07	-4.333796e-10	-5.799885e+00	-3.153344e+01
1.670000e-06	-7.881607e-07	-4.180194e-10	-5.477883e+00	-3.059108e+01
1.680000e-06	-7.416920e-07	-4.004336e-10	-5.154916e+00	-2.963061e+01
1.690000e-06	-6.951878e-07	-3.858836e-10	-4.831701e+00	-2.865163e+01
1.700000e-06	-6.487287e-07	-3.729602e-10	-4.508801e+00	-2.765377e+01
1.710000e-06	-6.022932e-07	-3.602992e-10	-4.186064e+00	-2.663668e+01
1.720000e-06	-5.557846e-07	-3.438811e-10	-3.862820e+00	-2.560004e+01
1.730000e-06	-5.091495e-07	-3.250485e-10	-3.538696e+00	-2.454355e+01
1.740000e-06	-4.623611e-07	-3.042575e-10	-3.213507e+00	-2.346698e+01
1.750000e-06	-4.155351e-07	-2.849649e-10	-2.888056e+00	-2.237010e+01
1.760000e-06	-3.687369e-07	-2.694569e-10	-2.562799e+00	-2.125276e+01
1.770000e-06	-3.219822e-07	-2.552815e-10	-2.237844e+00	-2.011483e+01
1.780000e-06	-2.752405e-07	-2.401120e-10	-1.912979e+00	-1.895626e+01
1.790000e-06	-2.284558e-07	-2.236674e-10	-1.587816e+00	-1.777704e+01
1.800000e-06	-1.816023e-07	-2.068376e-10	-1.262174e+00	-1.657721e+01
1.810000e-06	-1.347630e-07	-1.893189e-10	-9.366311e-01	-1.535689e+01
1.820000e-06	-8.802102e-08	-1.724430e-10	-6.117646e-01	-1.411626e+01
1.830000e-06	-4.127230e-08	-1.568764e-10	-2.868512e-01	-1.285557e+01
1.840000e-06	5.578361e-09	-1.402536e-10	3.877078e-02	-1.157512e+01
1.850000e-06	5.241133e-08	-1.219169e-10	3.642698e-01	-1.027531e+01
1.860000e-06	9.914907e-08	-1.043950e-10	6.891069e-01	-8.956593e+00
1.870000e-06	1.459914e-07	-8.531559e-11	1.014671e+00	-7.619496e+00
1.880000e-06	1.929308e-07	-6.473896e-11	1.340909e+00	-6.264623e+00
1.890000e-06	2.398107e-07	-4.443392e-11	1.666735e+00	-4.892651e+00
1.900000e-06	2.866411e-07	-2.438821e-11	1.992216e+00	-3.504327e+00
1.910000e-06	3.334398e-07	-4.144583e-12	2.317477e+00	-2.100471e+00
1.920000e-06	3.801515e-07	1.488579e-11	2.642133e+00	-6.819701e-01
1.930000e-06	4.268465e-07	3.461680e-11	2.966673e+00	7.502188e-01
1.940000e-06	4.735277e-07	5.579654e-11	3.291117e+00	2.195075e+00
1.950000e-06	5.200781e-07	7.596977e-11	3.614652e+00	3.651517e+00
1.960000e-06	5.665759e-07	9.467676e-11	3.937822e+00	5.118402e+00
1.970000e-06	6.130106e-07	1.130880e-10	4.260552e+00	6.594535e+00
1.980000e-06	6.594094e-07	1.320072e-10	4.583034e+00	8.078672e+00
1.990000e-06	7.058243e-07	1.529302e-10	4.905628e+00	9.569519e+00
2.000000e-06	7.521451e-07	1.734609e-10	5.227566e+00	1.106575e+01
2.010000e-06	7.984264e-07	1.935458e-10	5.549232e+00	1.256599e+01
2.020000e-06	8.446893e-07	2.170253e-10	5.870768e+00	1.406884e+01
2.030000e-06	8.908736e-07	2.410267e-10	6.191759e+00	1.557290e+01
2.040000e-06	9.370095e-07	2.602613e-10	6.512413e+00	1.707671e+01
2.050000e-06	9.831000e-07	2.767032e-10	6.832752e+00	1.857884e+01
2.060000e-06	1.029110e-06	2.935617e-10	7.152530e+00	2.007782e+01
2.070000e-06	1.075009e-06	3.149627e-10	7.471536e+00	2.157221e+01
2.080000e-06	1.120785e-06	3.377864e-10	7.789694e+00	2.306057e+01
2.090000e-06	1.166544e-06	3.619030e-10	8.107729e+00	2.454146e+01
2.100000e-06	1.212257e-06	3.872769e-10	8.425439e+00	2.601348e+01
2.110000e-06	1.257870e-06	4.086630e-10	8.742463e+00	2.747525e+01
2.120000e-06	1.303424e-06	4.248755e-10	9.059070e+00	2.892543e+01
2.130000e-06	1.348861e-06	4.404392e-10	9.374869e+00	3.036271e+01
2.140000e-06	1.394191e-06	4.568862e-10	9.689918e+00	3.178582e+01
2.150000e-06	1.439466e-06	4.754509e-10	1.000459e+01	3.319356e+01
2.160000e-06	1.484556e-06	4.968956e-10	1.031798e+01	3.458478e+01
2.170000e-06	1.529499e-06	5.191630e-10	1.063034e+01	3.595837e+01
2.180000e-06	1.574426e-06	5.418405e-10	1.094259e+01	3.731332e+01
2.190000e-06	1.619180e-06	5.604547e-10	1.125364e+01	3.864866e+01
2.200000e-06	1.663728e-06	5.754540e-10	1.156326e+01	3.996350e+01
2.210000e-06	1.708245e-06	5.879868e-10	1.187266e+01	4.125703e+01
2.220000e-06	1.752645e-06	6.005653e-10	1.218125e+01	4.252852e+01
2.230000e-06	1.796858e-06	6.153629e-10	1.248854e+01	4.377731e+01
2.240000e-06	1.840995e-06	6.299195e-10	1.279530e+01	4.500283e+01
2.250000e-06	1.885054e-06	6.453816e-10	1.310152e+01	4.620457e+01
2.260000e-06	1.929001e-06	6.617595e-10	1.340696e+01	4.738214e+01
2.270000e-06	1.972886e-06	6.829196e-10	1.371197e+01	4.853520e+01
2.280000e-06	2.016723e-06	7.030209e-10	1.401665e+01	4.966350e+01
2.290000e-06	2.060467e-06	7.198776e-10	1.432068e+01	5.076687e+01
2.300000e-06	2.104155e-06	7.327282e-10	1.462432e+01	5.184523e+01
2.310000e-06	2.147769e-06	7.427834e-10	1.492745e+01	5.289855e+01
2.320000e-06	2.191334e-06	7.548315e-10	1.523024e+01	5.392690e+01
2.330000e-06	2.234728e-06	7.678838e-10	1.553183e+01	5.493041e+01
2.340000e-06	2.277864e-06	7.845956e-10	1.583164e+01	5.590926e+01
2.350000e-06	2.320868e-06	8.043577e-10	1.613052e+01	5.686373e+01
2.360000e-06	2.363670e-06	8.259013e-10	1.642800e+01	5.779412e+01
2.370000e-06	2.406174e-06	8.423137e-10	1.672342e+01	5.870080e+01
2.380000e-06	2.448470e-06	8.528707e-10	1.701738e+01	5.958421e+01
2.390000e-06	2.490504e-06	8.610374e-10	1.730953e+01	6.044479e+01
2.400000e-06	2.532193e-06	8.683246e-10	1.759927e+01	6.128307e+01
2.410000e-06	2.573508e-06	8.765651e-10	1.788642e+01	6.209956e+01
2.420000e-06	2.614515e-06	8.891499e-10	1.817143e+01	6.289485e+01
2.430000e-06	2.655216e-06	9.047582e-10	1.845431e+01	6.366953e+01
2.440000e-06	2.695698e-06	9.213063e-10	1.873567e+01	6.442421e+01
2.450000e-06	2.736086e-06	9.343281e-10	1.901637e+01	6.515951e+01
2.460000e-06	2.776186e-06	9.464244e-10	1.929508e+01	6.587607e+01
2.470000e-06	2.816020e-06	9.560649e-10	1.957193e+01	6.657452e+01
2.480000e-06	2.855803e-06	9.630405e-10	1.984843e+01	6.725550e+01
2.490000e-06	2.895526e-06	9.714118e-10	2.012451e+01	6.791964e+01
2.500000e-06	2.935120e-06	9.802367e-10	2.039970e+01	6.856757e+01
2.510000e-06	2.974596e-06	9.920370e-10	2.067407e+01	6.919989e+01
2.520000e-06	3.013920e-06	1.005252e-09	2.094738e+01	6.981720e+01
2.530000e-06	3.053009e-06	1.014850e-09	2.121905e+01	7.042006e+01
2.540000e-06	3.091791e-06	1.020783e-09	2.148860e+01	7.100902e+01
2.550000e-06	3.130332e-06	1.026445e-09	2.175647e+01	7.158461e+01
2.560000e-06	3.168704e-06	1.033868e-09	2.202316e+01	7.214731e+01
2.570000e-06	3.206824e-06	1.042455e-09	2.228810e+01	7.269759e+01
2.580000e-06	3.244692e-06	1.049186e-09	2.255129e+01	7.323589e+01
2.590000e-06	3.282420e-06	1.056010e-09	2.281351e+01	7.376260e+01
2.600000e-06	3.319968e-06	1.065298e-09	2.307447e+01	7.427810e+01
2.610000e-06	3.357300e-06	1.074388e-09	2.333394e+01	7.478271e+01
2.620000e-06	3.394374e-06	1.080302e-09	2.359161e+01	7.527674e+01
2.630000e-06	3.431090e-06	1.084475e-09	2.384679e+01	7.576046e+01
2.640000e-06	3.467485e-06	1.088559e-09	2.409975e+01	7.623411e+01
2.650000e-06	3.503702e-06	1.093288e-09	2.435147e+01	7.669789e+01
2.660000e-06	3.539780e-06	1.099123e-09	2.460221e+01	7.715199e+01
2.670000e-06	3.575672e-06	1.103922e-09	2.485167e+01	7.759656e+01
2.680000e-06	3.611393e-06	1.109449e-09	2.509994e+01	7.803172e+01
2.690000e-06	3.646953e-06	1.117833e-09	2.534709e+01	7.845758e+01
2.700000e-06	3.682421e-06	1.125103e-09	2.559360e+01	7.887422e+01
2.710000e-06	3.717709e-06	1.131183e-09	2.583886e+01	7.928171e+01
2.720000e-06	3.752748e-06	1.135965e-09	2.608239e+01	7.968010e+01
2.730000e-06	3.787510e-06	1.139975e-09	2.632399e+01	8.006943e+01
2.740000e-06	3.821773e-06	1.143637e-09	2.656213e+01	8.044972e+01
2.750000e-06	3.855506e-06	1.146644e-09	2.679658e+01	8.082099e+01
2.760000e-06	3.888766e-06	1.151485e-09	2.702774e+01	8.118326e+01
2.770000e-06	3.921553e-06	1.159101e-09	2.725562e+01	8.153654e+01
2.780000e-06	3.953946e-06	1.168519e-09	2.748075e+01	8.188085e+01
2.790000e-06	3.986086e-06	1.177327e-09	2.770414e+01	8.221620e+01
2.800000e-06	4.018031e-06	1.181784e-09	2.792616e+01	8.254261e+01
2.810000e-06	4.049803e-06	1.183301e-09	2.814698e+01	8.286011e+01
2.820000e-06	4.081464e-06	1.185312e-09	2.836703e+01	8.316875e+01
2.830000e-06	4.112934e-06	1.188524e-09	2.858576e+01	8.346856e+01
2.840000e-06	4.144072e-06	1.192951e-09	2.880217e+01	8.375962e+01
2.850000e-06	4.174853e-06	1.199721e-09	2.901610e+01	8.404200e+01
2.860000e-06	4.205301e-06	1.206327e-09	2.922773e+01	8.431579e+01
2.870000e-06	4.235449e-06	1.208279e-09	2.943726e+01	8.458109e+01
2.880000e-06	4.265363e-06	1.209253e-09	2.964517e+01	8.483802e+01
2.890000e-06	4.295092e-06	1.210838e-09	2.985179e+01	8.508673e+01
2.900000e-06	4.324541e-06	1.213108e-09	3.005647e+01	8.532737e+01
