# Temperatura_=_-2.4
# Concentracion g/m^3_=_1620.0
# C_Vs_to_Am_M_A/Vsm_=_65563218390.804596
# pendiente_HvsI_1/m_=_3716.3
# ordenada_HvsI_A/m_=_1297.0
# frecuencia_Hz_=_135110.06873755064

Tiempo_(s)	Campo_(V.s)	Magnetizacion_(V.s)	Campo_(kA/m)	Magnetizacion_(A/m)
0.000000e+00	-5.506260e-06	-8.251297e-10	-3.837189e+01	-5.660696e+01
1.000000e-08	-5.506620e-06	-8.216657e-10	-3.837440e+01	-5.656196e+01
2.000000e-08	-5.506751e-06	-8.232160e-10	-3.837531e+01	-5.651864e+01
3.000000e-08	-5.506463e-06	-8.252342e-10	-3.837331e+01	-5.647688e+01
4.000000e-08	-5.505512e-06	-8.214311e-10	-3.836668e+01	-5.643654e+01
5.000000e-08	-5.503916e-06	-8.068276e-10	-3.835556e+01	-5.639748e+01
6.000000e-08	-5.501816e-06	-7.864701e-10	-3.834092e+01	-5.635953e+01
7.000000e-08	-5.499228e-06	-7.851075e-10	-3.832289e+01	-5.632251e+01
8.000000e-08	-5.496126e-06	-8.375069e-10	-3.830127e+01	-5.628623e+01
9.000000e-08	-5.492540e-06	-9.117299e-10	-3.827628e+01	-5.625050e+01
1.000000e-07	-5.488490e-06	-9.026572e-10	-3.824806e+01	-5.621512e+01
1.100000e-07	-5.484120e-06	-7.908476e-10	-3.821761e+01	-5.617988e+01
1.200000e-07	-5.479616e-06	-7.439262e-10	-3.818622e+01	-5.614456e+01
1.300000e-07	-5.474866e-06	-8.001118e-10	-3.815312e+01	-5.610896e+01
1.400000e-07	-5.469723e-06	-8.761442e-10	-3.811727e+01	-5.607285e+01
1.500000e-07	-5.464212e-06	-8.001872e-10	-3.807887e+01	-5.603604e+01
1.600000e-07	-5.458374e-06	-7.570894e-10	-3.803818e+01	-5.599830e+01
1.700000e-07	-5.452089e-06	-8.003012e-10	-3.799438e+01	-5.595944e+01
1.800000e-07	-5.445340e-06	-8.909838e-10	-3.794735e+01	-5.591926e+01
1.900000e-07	-5.438219e-06	-8.314522e-10	-3.789773e+01	-5.587757e+01
2.000000e-07	-5.430819e-06	-7.616760e-10	-3.784616e+01	-5.583419e+01
2.100000e-07	-5.423176e-06	-7.899812e-10	-3.779290e+01	-5.578896e+01
2.200000e-07	-5.415286e-06	-8.787011e-10	-3.773791e+01	-5.574171e+01
2.300000e-07	-5.407165e-06	-8.750908e-10	-3.768132e+01	-5.569231e+01
2.400000e-07	-5.398615e-06	-8.188580e-10	-3.762174e+01	-5.564061e+01
2.500000e-07	-5.389242e-06	-8.163171e-10	-3.755642e+01	-5.558651e+01
2.600000e-07	-5.379063e-06	-8.261473e-10	-3.748548e+01	-5.552989e+01
2.700000e-07	-5.368386e-06	-8.182359e-10	-3.741108e+01	-5.547068e+01
2.800000e-07	-5.357227e-06	-7.937210e-10	-3.733331e+01	-5.540879e+01
2.900000e-07	-5.345629e-06	-8.309378e-10	-3.725249e+01	-5.534418e+01
3.000000e-07	-5.333776e-06	-8.260037e-10	-3.716989e+01	-5.527679e+01
3.100000e-07	-5.321607e-06	-8.106494e-10	-3.708509e+01	-5.520660e+01
3.200000e-07	-5.308936e-06	-7.834912e-10	-3.699679e+01	-5.513360e+01
3.300000e-07	-5.295830e-06	-8.181865e-10	-3.690546e+01	-5.505779e+01
3.400000e-07	-5.282386e-06	-8.065925e-10	-3.681177e+01	-5.497917e+01
3.500000e-07	-5.268494e-06	-8.101844e-10	-3.671496e+01	-5.489778e+01
3.600000e-07	-5.254126e-06	-8.068659e-10	-3.661483e+01	-5.481366e+01
3.700000e-07	-5.239383e-06	-8.322831e-10	-3.651209e+01	-5.472685e+01
3.800000e-07	-5.223968e-06	-7.989605e-10	-3.640467e+01	-5.463741e+01
3.900000e-07	-5.207971e-06	-7.903740e-10	-3.629318e+01	-5.454541e+01
4.000000e-07	-5.191728e-06	-8.026551e-10	-3.617999e+01	-5.445093e+01
4.100000e-07	-5.175190e-06	-8.155745e-10	-3.606474e+01	-5.435405e+01
4.200000e-07	-5.158266e-06	-7.799504e-10	-3.594680e+01	-5.425485e+01
4.300000e-07	-5.140936e-06	-7.857056e-10	-3.582603e+01	-5.415342e+01
4.400000e-07	-5.123317e-06	-8.226054e-10	-3.570325e+01	-5.404986e+01
4.500000e-07	-5.105315e-06	-8.191141e-10	-3.557780e+01	-5.394427e+01
4.600000e-07	-5.086837e-06	-7.840716e-10	-3.544903e+01	-5.383673e+01
4.700000e-07	-5.067981e-06	-7.933818e-10	-3.531763e+01	-5.372734e+01
4.800000e-07	-5.048794e-06	-8.152266e-10	-3.518392e+01	-5.361620e+01
4.900000e-07	-5.029335e-06	-7.978608e-10	-3.504831e+01	-5.350339e+01
5.000000e-07	-5.009744e-06	-7.922859e-10	-3.491179e+01	-5.338899e+01
5.100000e-07	-4.989983e-06	-8.019931e-10	-3.477407e+01	-5.327308e+01
5.200000e-07	-4.969861e-06	-7.949686e-10	-3.463385e+01	-5.315575e+01
5.300000e-07	-4.949354e-06	-7.865009e-10	-3.449094e+01	-5.303704e+01
5.400000e-07	-4.928521e-06	-8.131086e-10	-3.434576e+01	-5.291703e+01
5.500000e-07	-4.907370e-06	-8.063593e-10	-3.419836e+01	-5.279576e+01
5.600000e-07	-4.885851e-06	-7.815931e-10	-3.404840e+01	-5.267327e+01
5.700000e-07	-4.863952e-06	-7.798969e-10	-3.389580e+01	-5.254960e+01
5.800000e-07	-4.841739e-06	-8.038227e-10	-3.374099e+01	-5.242476e+01
5.900000e-07	-4.819172e-06	-7.920914e-10	-3.358373e+01	-5.229877e+01
6.000000e-07	-4.796199e-06	-7.897061e-10	-3.342363e+01	-5.217164e+01
6.100000e-07	-4.772904e-06	-7.911760e-10	-3.326130e+01	-5.204336e+01
6.200000e-07	-4.749383e-06	-7.882706e-10	-3.309738e+01	-5.191391e+01
6.300000e-07	-4.725687e-06	-7.733927e-10	-3.293225e+01	-5.178327e+01
6.400000e-07	-4.701816e-06	-7.822618e-10	-3.276590e+01	-5.165141e+01
6.500000e-07	-4.677622e-06	-7.811926e-10	-3.259730e+01	-5.151828e+01
6.600000e-07	-4.652975e-06	-7.792482e-10	-3.242554e+01	-5.138383e+01
6.700000e-07	-4.627831e-06	-7.775044e-10	-3.225032e+01	-5.124802e+01
6.800000e-07	-4.602044e-06	-7.836143e-10	-3.207062e+01	-5.111076e+01
6.900000e-07	-4.575610e-06	-7.756715e-10	-3.188640e+01	-5.097200e+01
7.000000e-07	-4.548690e-06	-7.704821e-10	-3.169881e+01	-5.083166e+01
7.100000e-07	-4.521402e-06	-7.620317e-10	-3.150864e+01	-5.068966e+01
7.200000e-07	-4.493968e-06	-7.620791e-10	-3.131746e+01	-5.054591e+01
7.300000e-07	-4.466460e-06	-7.613303e-10	-3.112576e+01	-5.040033e+01
7.400000e-07	-4.438790e-06	-7.597143e-10	-3.093294e+01	-5.025282e+01
7.500000e-07	-4.410900e-06	-7.586326e-10	-3.073858e+01	-5.010331e+01
7.600000e-07	-4.382741e-06	-7.606078e-10	-3.054234e+01	-4.995169e+01
7.700000e-07	-4.354259e-06	-7.535733e-10	-3.034386e+01	-4.979789e+01
7.800000e-07	-4.325398e-06	-7.439971e-10	-3.014273e+01	-4.964180e+01
7.900000e-07	-4.296177e-06	-7.458811e-10	-2.993909e+01	-4.948334e+01
8.000000e-07	-4.266640e-06	-7.434568e-10	-2.973326e+01	-4.932242e+01
8.100000e-07	-4.236892e-06	-7.349796e-10	-2.952596e+01	-4.915897e+01
8.200000e-07	-4.206957e-06	-7.296398e-10	-2.931734e+01	-4.899291e+01
8.300000e-07	-4.176689e-06	-7.330098e-10	-2.910641e+01	-4.882416e+01
8.400000e-07	-4.146039e-06	-7.268897e-10	-2.889282e+01	-4.865265e+01
8.500000e-07	-4.115108e-06	-7.223158e-10	-2.867726e+01	-4.847833e+01
8.600000e-07	-4.083939e-06	-7.199528e-10	-2.846006e+01	-4.830113e+01
8.700000e-07	-4.052559e-06	-7.170764e-10	-2.824137e+01	-4.812100e+01
8.800000e-07	-4.021051e-06	-7.067236e-10	-2.802180e+01	-4.793790e+01
8.900000e-07	-3.989432e-06	-7.056795e-10	-2.780146e+01	-4.775178e+01
9.000000e-07	-3.957683e-06	-6.996692e-10	-2.758020e+01	-4.756263e+01
9.100000e-07	-3.925709e-06	-6.962364e-10	-2.735739e+01	-4.737041e+01
9.200000e-07	-3.893361e-06	-6.925332e-10	-2.713196e+01	-4.717511e+01
9.300000e-07	-3.860580e-06	-6.953147e-10	-2.690352e+01	-4.697671e+01
9.400000e-07	-3.827249e-06	-6.917087e-10	-2.667124e+01	-4.677521e+01
9.500000e-07	-3.793360e-06	-6.889054e-10	-2.643508e+01	-4.657061e+01
9.600000e-07	-3.759046e-06	-6.829920e-10	-2.619595e+01	-4.636292e+01
9.700000e-07	-3.724325e-06	-6.778363e-10	-2.595398e+01	-4.615215e+01
9.800000e-07	-3.689188e-06	-6.726644e-10	-2.570913e+01	-4.593833e+01
9.900000e-07	-3.653785e-06	-6.727764e-10	-2.546241e+01	-4.572147e+01
1.000000e-06	-3.618268e-06	-6.701605e-10	-2.521490e+01	-4.550160e+01
1.010000e-06	-3.582632e-06	-6.679984e-10	-2.496656e+01	-4.527876e+01
1.020000e-06	-3.546900e-06	-6.668915e-10	-2.471755e+01	-4.505299e+01
1.030000e-06	-3.511091e-06	-6.650175e-10	-2.446801e+01	-4.482432e+01
1.040000e-06	-3.475088e-06	-6.604466e-10	-2.421711e+01	-4.459279e+01
1.050000e-06	-3.438817e-06	-6.576602e-10	-2.396435e+01	-4.435846e+01
1.060000e-06	-3.402291e-06	-6.551976e-10	-2.370980e+01	-4.412136e+01
1.070000e-06	-3.365446e-06	-6.501205e-10	-2.345304e+01	-4.388154e+01
1.080000e-06	-3.328303e-06	-6.455045e-10	-2.319420e+01	-4.363905e+01
1.090000e-06	-3.290943e-06	-6.396776e-10	-2.293385e+01	-4.339393e+01
1.100000e-06	-3.253341e-06	-6.332017e-10	-2.267181e+01	-4.314623e+01
1.110000e-06	-3.215508e-06	-6.268104e-10	-2.240816e+01	-4.289599e+01
1.120000e-06	-3.177442e-06	-6.243964e-10	-2.214288e+01	-4.264325e+01
1.130000e-06	-3.139107e-06	-6.203682e-10	-2.187574e+01	-4.238804e+01
1.140000e-06	-3.100550e-06	-6.184183e-10	-2.160704e+01	-4.213041e+01
1.150000e-06	-3.061797e-06	-6.159975e-10	-2.133698e+01	-4.187038e+01
1.160000e-06	-3.022825e-06	-6.125450e-10	-2.106539e+01	-4.160797e+01
1.170000e-06	-2.983689e-06	-6.055012e-10	-2.079266e+01	-4.134321e+01
1.180000e-06	-2.944433e-06	-6.024119e-10	-2.051910e+01	-4.107609e+01
1.190000e-06	-2.905013e-06	-5.991910e-10	-2.024438e+01	-4.080664e+01
1.200000e-06	-2.865439e-06	-5.967221e-10	-1.996861e+01	-4.053483e+01
1.210000e-06	-2.825765e-06	-5.944816e-10	-1.969212e+01	-4.026067e+01
1.220000e-06	-2.786042e-06	-5.939414e-10	-1.941530e+01	-3.998413e+01
1.230000e-06	-2.746215e-06	-5.899043e-10	-1.913775e+01	-3.970519e+01
1.240000e-06	-2.706182e-06	-5.863701e-10	-1.885877e+01	-3.942380e+01
1.250000e-06	-2.665871e-06	-5.810328e-10	-1.857786e+01	-3.913991e+01
1.260000e-06	-2.625177e-06	-5.751995e-10	-1.829427e+01	-3.885346e+01
1.270000e-06	-2.584225e-06	-5.678295e-10	-1.800888e+01	-3.856437e+01
1.280000e-06	-2.543092e-06	-5.630270e-10	-1.772224e+01	-3.827258e+01
1.290000e-06	-2.501551e-06	-5.573988e-10	-1.743275e+01	-3.797796e+01
1.300000e-06	-2.459632e-06	-5.498862e-10	-1.714062e+01	-3.768042e+01
1.310000e-06	-2.417439e-06	-5.427971e-10	-1.684659e+01	-3.737983e+01
1.320000e-06	-2.374961e-06	-5.365793e-10	-1.655057e+01	-3.707604e+01
1.330000e-06	-2.332232e-06	-5.297794e-10	-1.625280e+01	-3.676892e+01
1.340000e-06	-2.289278e-06	-5.258210e-10	-1.595346e+01	-3.645828e+01
1.350000e-06	-2.246198e-06	-5.239363e-10	-1.565325e+01	-3.614396e+01
1.360000e-06	-2.202947e-06	-5.195105e-10	-1.535185e+01	-3.582574e+01
1.370000e-06	-2.159488e-06	-5.149192e-10	-1.504899e+01	-3.550341e+01
1.380000e-06	-2.115956e-06	-5.107330e-10	-1.474562e+01	-3.517676e+01
1.390000e-06	-2.072353e-06	-5.062394e-10	-1.444176e+01	-3.484553e+01
1.400000e-06	-2.028648e-06	-5.001794e-10	-1.413719e+01	-3.450947e+01
1.410000e-06	-1.984897e-06	-4.939510e-10	-1.383230e+01	-3.416830e+01
1.420000e-06	-1.941096e-06	-4.878934e-10	-1.352706e+01	-3.382173e+01
1.430000e-06	-1.897232e-06	-4.826696e-10	-1.322139e+01	-3.346946e+01
1.440000e-06	-1.853227e-06	-4.759142e-10	-1.291473e+01	-3.311117e+01
1.450000e-06	-1.809095e-06	-4.687257e-10	-1.260718e+01	-3.274653e+01
1.460000e-06	-1.764938e-06	-4.626125e-10	-1.229946e+01	-3.237519e+01
1.470000e-06	-1.720706e-06	-4.559718e-10	-1.199122e+01	-3.199679e+01
1.480000e-06	-1.676375e-06	-4.459462e-10	-1.168228e+01	-3.161097e+01
1.490000e-06	-1.631889e-06	-4.371881e-10	-1.137227e+01	-3.121733e+01
1.500000e-06	-1.587199e-06	-4.305145e-10	-1.106084e+01	-3.081550e+01
1.510000e-06	-1.542389e-06	-4.264568e-10	-1.074857e+01	-3.040507e+01
1.520000e-06	-1.497425e-06	-4.234341e-10	-1.043522e+01	-2.998563e+01
1.530000e-06	-1.452263e-06	-4.200408e-10	-1.012049e+01	-2.955677e+01
1.540000e-06	-1.406983e-06	-4.111187e-10	-9.804951e+00	-2.911808e+01
1.550000e-06	-1.361599e-06	-4.007851e-10	-9.488679e+00	-2.866912e+01
1.560000e-06	-1.316190e-06	-3.916206e-10	-9.172230e+00	-2.820949e+01
1.570000e-06	-1.270762e-06	-3.844565e-10	-8.855656e+00	-2.773875e+01
1.580000e-06	-1.225244e-06	-3.794159e-10	-8.538450e+00	-2.725648e+01
1.590000e-06	-1.179651e-06	-3.747551e-10	-8.220720e+00	-2.676228e+01
1.600000e-06	-1.133911e-06	-3.680071e-10	-7.901973e+00	-2.625573e+01
1.610000e-06	-1.088023e-06	-3.613320e-10	-7.582190e+00	-2.573643e+01
1.620000e-06	-1.042093e-06	-3.552254e-10	-7.262116e+00	-2.520400e+01
1.630000e-06	-9.960978e-07	-3.491138e-10	-6.941582e+00	-2.465805e+01
1.640000e-06	-9.500193e-07	-3.427591e-10	-6.620472e+00	-2.409823e+01
1.650000e-06	-9.039026e-07	-3.334746e-10	-6.299095e+00	-2.352419e+01
1.660000e-06	-8.577281e-07	-3.232534e-10	-5.977315e+00	-2.293561e+01
1.670000e-06	-8.114739e-07	-3.133637e-10	-5.654980e+00	-2.233218e+01
1.680000e-06	-7.652376e-07	-3.040829e-10	-5.332770e+00	-2.171364e+01
1.690000e-06	-7.190009e-07	-2.939084e-10	-5.010556e+00	-2.107973e+01
1.700000e-06	-6.726673e-07	-2.830668e-10	-4.687668e+00	-2.043024e+01
1.710000e-06	-6.261814e-07	-2.732656e-10	-4.363718e+00	-1.976496e+01
1.720000e-06	-5.795829e-07	-2.636686e-10	-4.038983e+00	-1.908376e+01
1.730000e-06	-5.329746e-07	-2.510981e-10	-3.714180e+00	-1.838650e+01
1.740000e-06	-4.863732e-07	-2.370147e-10	-3.389426e+00	-1.767310e+01
1.750000e-06	-4.397401e-07	-2.231629e-10	-3.064450e+00	-1.694353e+01
1.760000e-06	-3.930320e-07	-2.111158e-10	-2.738952e+00	-1.619777e+01
1.770000e-06	-3.463555e-07	-2.028559e-10	-2.413674e+00	-1.543587e+01
1.780000e-06	-2.995862e-07	-1.972712e-10	-2.087749e+00	-1.465790e+01
1.790000e-06	-2.526984e-07	-1.890206e-10	-1.760999e+00	-1.386399e+01
1.800000e-06	-2.058817e-07	-1.774368e-10	-1.434744e+00	-1.305431e+01
1.810000e-06	-1.591462e-07	-1.650056e-10	-1.109054e+00	-1.222907e+01
1.820000e-06	-1.123863e-07	-1.534284e-10	-7.831949e-01	-1.138855e+01
1.830000e-06	-6.558043e-08	-1.431067e-10	-4.570153e-01	-1.053304e+01
1.840000e-06	-1.882404e-08	-1.342577e-10	-1.311805e-01	-9.662892e+00
1.850000e-06	2.796444e-08	-1.246231e-10	1.948779e-01	-8.778516e+00
1.860000e-06	7.477559e-08	-1.137213e-10	5.210943e-01	-7.880351e+00
1.870000e-06	1.214936e-07	-1.014545e-10	8.466614e-01	-6.968887e+00
1.880000e-06	1.681026e-07	-8.792573e-11	1.171470e+00	-6.044654e+00
1.890000e-06	2.147021e-07	-7.348343e-11	1.496211e+00	-5.108228e+00
1.900000e-06	2.613776e-07	-5.774118e-11	1.821482e+00	-4.160223e+00
1.910000e-06	3.081245e-07	-4.215602e-11	2.147251e+00	-3.201291e+00
1.920000e-06	3.548668e-07	-2.832281e-11	2.472988e+00	-2.232123e+00
1.930000e-06	4.015459e-07	-1.678410e-11	2.798283e+00	-1.253443e+00
1.940000e-06	4.481251e-07	-4.877488e-12	3.122884e+00	-2.660081e-01
1.950000e-06	4.946920e-07	9.174754e-12	3.447398e+00	7.293950e-01
1.960000e-06	5.412359e-07	2.476352e-11	3.771752e+00	1.731953e+00
1.970000e-06	5.876848e-07	4.041548e-11	4.095444e+00	2.740829e+00
1.980000e-06	6.340592e-07	5.460992e-11	4.418617e+00	3.755163e+00
1.990000e-06	6.803132e-07	6.886655e-11	4.740950e+00	4.774080e+00
2.000000e-06	7.265181e-07	8.177502e-11	5.062942e+00	5.796688e+00
2.010000e-06	7.727082e-07	9.447088e-11	5.384830e+00	6.822085e+00
2.020000e-06	8.188683e-07	1.099972e-10	5.706510e+00	7.849361e+00
2.030000e-06	8.650168e-07	1.286391e-10	6.028108e+00	8.877600e+00
2.040000e-06	9.110741e-07	1.465625e-10	6.349072e+00	9.905885e+00
2.050000e-06	9.569662e-07	1.613518e-10	6.668883e+00	1.093330e+01
2.060000e-06	1.002826e-06	1.752558e-10	6.988471e+00	1.195895e+01
2.070000e-06	1.048674e-06	1.899572e-10	7.307973e+00	1.298191e+01
2.080000e-06	1.094433e-06	2.055455e-10	7.626857e+00	1.400132e+01
2.090000e-06	1.140117e-06	2.214141e-10	7.945218e+00	1.501628e+01
2.100000e-06	1.185780e-06	2.390179e-10	8.263432e+00	1.602596e+01
2.110000e-06	1.231390e-06	2.557414e-10	8.581280e+00	1.702952e+01
2.120000e-06	1.276836e-06	2.697129e-10	8.897983e+00	1.802614e+01
2.130000e-06	1.322153e-06	2.810590e-10	9.213787e+00	1.901505e+01
2.140000e-06	1.367389e-06	2.921142e-10	9.529025e+00	1.999549e+01
2.150000e-06	1.412545e-06	3.050870e-10	9.843712e+00	2.096674e+01
2.160000e-06	1.457677e-06	3.195081e-10	1.015823e+01	2.192810e+01
2.170000e-06	1.502732e-06	3.345367e-10	1.047220e+01	2.287893e+01
2.180000e-06	1.547584e-06	3.499576e-10	1.078476e+01	2.381860e+01
2.190000e-06	1.592250e-06	3.642090e-10	1.109604e+01	2.474654e+01
2.200000e-06	1.636863e-06	3.771067e-10	1.140693e+01	2.566219e+01
2.210000e-06	1.681380e-06	3.862102e-10	1.171716e+01	2.656506e+01
2.220000e-06	1.725662e-06	3.945794e-10	1.202575e+01	2.745467e+01
2.230000e-06	1.769825e-06	4.068962e-10	1.233352e+01	2.833062e+01
2.240000e-06	1.813889e-06	4.214016e-10	1.264058e+01	2.919251e+01
2.250000e-06	1.857801e-06	4.355600e-10	1.294660e+01	3.004000e+01
2.260000e-06	1.901657e-06	4.478763e-10	1.325222e+01	3.087279e+01
2.270000e-06	1.945435e-06	4.619220e-10	1.355730e+01	3.169061e+01
2.280000e-06	1.989154e-06	4.763240e-10	1.386197e+01	3.249324e+01
2.290000e-06	2.032851e-06	4.896504e-10	1.416648e+01	3.328050e+01
2.300000e-06	2.076459e-06	5.017932e-10	1.447038e+01	3.405223e+01
2.310000e-06	2.119999e-06	5.117684e-10	1.477380e+01	3.480831e+01
2.320000e-06	2.163457e-06	5.221528e-10	1.507665e+01	3.554868e+01
2.330000e-06	2.206791e-06	5.324387e-10	1.537863e+01	3.627327e+01
2.340000e-06	2.250040e-06	5.414906e-10	1.568002e+01	3.698207e+01
2.350000e-06	2.293114e-06	5.526178e-10	1.598020e+01	3.767509e+01
2.360000e-06	2.335942e-06	5.678765e-10	1.627865e+01	3.835238e+01
2.370000e-06	2.378448e-06	5.809728e-10	1.657487e+01	3.901399e+01
2.380000e-06	2.420707e-06	5.912577e-10	1.686937e+01	3.966001e+01
2.390000e-06	2.462744e-06	6.006308e-10	1.716231e+01	4.029055e+01
2.400000e-06	2.504357e-06	6.079149e-10	1.745230e+01	4.090575e+01
2.410000e-06	2.545638e-06	6.136340e-10	1.773998e+01	4.150575e+01
2.420000e-06	2.586692e-06	6.188049e-10	1.802608e+01	4.209071e+01
2.430000e-06	2.627433e-06	6.280220e-10	1.830999e+01	4.266081e+01
2.440000e-06	2.667827e-06	6.398307e-10	1.859149e+01	4.321625e+01
2.450000e-06	2.708044e-06	6.492510e-10	1.887175e+01	4.375722e+01
2.460000e-06	2.748150e-06	6.578929e-10	1.915124e+01	4.428394e+01
2.470000e-06	2.788056e-06	6.655513e-10	1.942934e+01	4.479662e+01
2.480000e-06	2.827773e-06	6.713915e-10	1.970612e+01	4.529549e+01
2.490000e-06	2.867349e-06	6.771638e-10	1.998191e+01	4.578077e+01
2.500000e-06	2.906819e-06	6.824697e-10	2.025697e+01	4.625271e+01
2.510000e-06	2.946164e-06	6.882877e-10	2.053116e+01	4.671154e+01
2.520000e-06	2.985365e-06	6.970014e-10	2.080434e+01	4.715750e+01
2.530000e-06	3.024393e-06	7.065392e-10	2.107632e+01	4.759083e+01
2.540000e-06	3.063183e-06	7.121869e-10	2.134664e+01	4.801177e+01
2.550000e-06	3.101749e-06	7.158641e-10	2.161540e+01	4.842056e+01
2.560000e-06	3.140069e-06	7.205297e-10	2.188244e+01	4.881743e+01
2.570000e-06	3.178120e-06	7.246675e-10	2.214761e+01	4.920264e+01
2.580000e-06	3.215968e-06	7.283875e-10	2.241136e+01	4.957641e+01
2.590000e-06	3.253650e-06	7.329343e-10	2.267396e+01	4.993899e+01
2.600000e-06	3.291169e-06	7.383425e-10	2.293542e+01	5.029061e+01
2.610000e-06	3.328444e-06	7.429441e-10	2.319518e+01	5.063149e+01
2.620000e-06	3.365505e-06	7.466769e-10	2.345345e+01	5.096188e+01
2.630000e-06	3.402388e-06	7.503673e-10	2.371048e+01	5.128201e+01
2.640000e-06	3.439003e-06	7.533487e-10	2.396564e+01	5.159210e+01
2.650000e-06	3.475361e-06	7.577409e-10	2.421901e+01	5.189238e+01
2.660000e-06	3.511469e-06	7.640929e-10	2.447064e+01	5.218308e+01
2.670000e-06	3.547320e-06	7.685881e-10	2.472048e+01	5.246442e+01
2.680000e-06	3.583003e-06	7.721537e-10	2.496915e+01	5.273664e+01
2.690000e-06	3.618571e-06	7.779015e-10	2.521701e+01	5.299997e+01
2.700000e-06	3.654013e-06	7.824584e-10	2.546400e+01	5.325461e+01
2.710000e-06	3.689324e-06	7.865722e-10	2.571007e+01	5.350082e+01
2.720000e-06	3.724461e-06	7.909114e-10	2.595494e+01	5.373880e+01
2.730000e-06	3.759291e-06	7.933083e-10	2.619766e+01	5.396880e+01
2.740000e-06	3.793682e-06	7.945712e-10	2.643732e+01	5.419103e+01
2.750000e-06	3.827596e-06	7.969965e-10	2.667366e+01	5.440572e+01
2.760000e-06	3.861111e-06	8.009211e-10	2.690722e+01	5.461311e+01
2.770000e-06	3.894218e-06	8.038346e-10	2.713794e+01	5.481342e+01
2.780000e-06	3.926785e-06	8.077147e-10	2.736489e+01	5.500687e+01
2.790000e-06	3.958956e-06	8.126006e-10	2.758908e+01	5.519370e+01
2.800000e-06	3.990871e-06	8.151613e-10	2.781149e+01	5.537413e+01
2.810000e-06	4.022595e-06	8.169016e-10	2.803256e+01	5.554838e+01
2.820000e-06	4.054169e-06	8.213543e-10	2.825260e+01	5.571668e+01
2.830000e-06	4.085616e-06	8.261127e-10	2.847174e+01	5.587924e+01
2.840000e-06	4.116924e-06	8.304247e-10	2.868992e+01	5.603629e+01
2.850000e-06	4.147947e-06	8.350242e-10	2.890611e+01	5.618802e+01
2.860000e-06	4.178575e-06	8.399400e-10	2.911955e+01	5.633465e+01
2.870000e-06	4.208866e-06	8.431412e-10	2.933064e+01	5.647638e+01
2.880000e-06	4.238892e-06	8.437190e-10	2.953989e+01	5.661341e+01
2.890000e-06	4.268593e-06	8.449932e-10	2.974687e+01	5.674591e+01
2.900000e-06	4.297994e-06	8.481420e-10	2.995176e+01	5.687407e+01
