# Temperatura_=_-0.5
# Concentracion g/m^3_=_1620.0
# C_Vs_to_Am_M_A/Vsm_=_65563218390.804596
# pendiente_HvsI_1/m_=_3716.3
# ordenada_HvsI_A/m_=_1297.0
# frecuencia_Hz_=_135095.6115156833

Tiempo_(s)	Campo_(V.s)	Magnetizacion_(V.s)	Campo_(kA/m)	Magnetizacion_(A/m)
0.000000e+00	-5.514857e-06	-1.301454e-09	-3.837494e+01	-8.729482e+01
1.000000e-08	-5.515159e-06	-1.299595e-09	-3.837704e+01	-8.722758e+01
2.000000e-08	-5.515128e-06	-1.299697e-09	-3.837683e+01	-8.716076e+01
3.000000e-08	-5.514739e-06	-1.301684e-09	-3.837412e+01	-8.709446e+01
4.000000e-08	-5.513957e-06	-1.299661e-09	-3.836868e+01	-8.702878e+01
5.000000e-08	-5.512645e-06	-1.286786e-09	-3.835955e+01	-8.696378e+01
6.000000e-08	-5.510656e-06	-1.277130e-09	-3.834570e+01	-8.689949e+01
7.000000e-08	-5.508084e-06	-1.299977e-09	-3.832781e+01	-8.683593e+01
8.000000e-08	-5.505071e-06	-1.330147e-09	-3.830684e+01	-8.677306e+01
9.000000e-08	-5.501530e-06	-1.320124e-09	-3.828220e+01	-8.671086e+01
1.000000e-07	-5.497590e-06	-1.318046e-09	-3.825479e+01	-8.664923e+01
1.100000e-07	-5.493378e-06	-1.307537e-09	-3.822547e+01	-8.658810e+01
1.200000e-07	-5.488849e-06	-1.304480e-09	-3.819396e+01	-8.652733e+01
1.300000e-07	-5.483951e-06	-1.257170e-09	-3.815988e+01	-8.646677e+01
1.400000e-07	-5.478754e-06	-1.262605e-09	-3.812371e+01	-8.640626e+01
1.500000e-07	-5.473266e-06	-1.298534e-09	-3.808553e+01	-8.634560e+01
1.600000e-07	-5.467404e-06	-1.303954e-09	-3.804474e+01	-8.628458e+01
1.700000e-07	-5.461143e-06	-1.282376e-09	-3.800117e+01	-8.622297e+01
1.800000e-07	-5.454481e-06	-1.274903e-09	-3.795481e+01	-8.616051e+01
1.900000e-07	-5.447490e-06	-1.313139e-09	-3.790616e+01	-8.609696e+01
2.000000e-07	-5.440198e-06	-1.296449e-09	-3.785543e+01	-8.603202e+01
2.100000e-07	-5.432634e-06	-1.283162e-09	-3.780279e+01	-8.596542e+01
2.200000e-07	-5.424692e-06	-1.282345e-09	-3.774753e+01	-8.589686e+01
2.300000e-07	-5.416356e-06	-1.322088e-09	-3.768952e+01	-8.582605e+01
2.400000e-07	-5.407669e-06	-1.306099e-09	-3.762907e+01	-8.575266e+01
2.500000e-07	-5.398405e-06	-1.297876e-09	-3.756461e+01	-8.567641e+01
2.600000e-07	-5.388503e-06	-1.287186e-09	-3.749570e+01	-8.559698e+01
2.700000e-07	-5.378048e-06	-1.298809e-09	-3.742296e+01	-8.551408e+01
2.800000e-07	-5.366980e-06	-1.294738e-09	-3.734594e+01	-8.542740e+01
2.900000e-07	-5.355467e-06	-1.306568e-09	-3.726583e+01	-8.533667e+01
3.000000e-07	-5.343594e-06	-1.303706e-09	-3.718321e+01	-8.524159e+01
3.100000e-07	-5.331363e-06	-1.292881e-09	-3.709810e+01	-8.514190e+01
3.200000e-07	-5.318770e-06	-1.292670e-09	-3.701048e+01	-8.503735e+01
3.300000e-07	-5.305789e-06	-1.297803e-09	-3.692014e+01	-8.492769e+01
3.400000e-07	-5.292368e-06	-1.285508e-09	-3.682675e+01	-8.481271e+01
3.500000e-07	-5.278448e-06	-1.283592e-09	-3.672989e+01	-8.469219e+01
3.600000e-07	-5.264113e-06	-1.299379e-09	-3.663015e+01	-8.456596e+01
3.700000e-07	-5.249377e-06	-1.288953e-09	-3.652760e+01	-8.443383e+01
3.800000e-07	-5.234069e-06	-1.280276e-09	-3.642108e+01	-8.429567e+01
3.900000e-07	-5.218317e-06	-1.290933e-09	-3.631147e+01	-8.415135e+01
4.000000e-07	-5.202192e-06	-1.284803e-09	-3.619927e+01	-8.400078e+01
4.100000e-07	-5.185611e-06	-1.245727e-09	-3.608389e+01	-8.384386e+01
4.200000e-07	-5.168656e-06	-1.270625e-09	-3.596591e+01	-8.368054e+01
4.300000e-07	-5.151333e-06	-1.290898e-09	-3.584536e+01	-8.351079e+01
4.400000e-07	-5.133770e-06	-1.265930e-09	-3.572315e+01	-8.333459e+01
4.500000e-07	-5.115887e-06	-1.254686e-09	-3.559872e+01	-8.315195e+01
4.600000e-07	-5.097550e-06	-1.296815e-09	-3.547112e+01	-8.296290e+01
4.700000e-07	-5.078799e-06	-1.270290e-09	-3.534064e+01	-8.276749e+01
4.800000e-07	-5.059654e-06	-1.238587e-09	-3.520742e+01	-8.256578e+01
4.900000e-07	-5.040226e-06	-1.263626e-09	-3.507223e+01	-8.235788e+01
5.000000e-07	-5.020611e-06	-1.274888e-09	-3.493575e+01	-8.214387e+01
5.100000e-07	-5.000713e-06	-1.225505e-09	-3.479728e+01	-8.192389e+01
5.200000e-07	-4.980537e-06	-1.241385e-09	-3.465689e+01	-8.169806e+01
5.300000e-07	-4.960123e-06	-1.270235e-09	-3.451484e+01	-8.146654e+01
5.400000e-07	-4.939345e-06	-1.241534e-09	-3.437025e+01	-8.122949e+01
5.500000e-07	-4.918170e-06	-1.224524e-09	-3.422291e+01	-8.098708e+01
5.600000e-07	-4.896688e-06	-1.258605e-09	-3.407343e+01	-8.073948e+01
5.700000e-07	-4.874855e-06	-1.239494e-09	-3.392151e+01	-8.048688e+01
5.800000e-07	-4.852667e-06	-1.214314e-09	-3.376711e+01	-8.022948e+01
5.900000e-07	-4.830120e-06	-1.241163e-09	-3.361022e+01	-7.996747e+01
6.000000e-07	-4.807229e-06	-1.243617e-09	-3.345094e+01	-7.970105e+01
6.100000e-07	-4.784051e-06	-1.206275e-09	-3.328965e+01	-7.943041e+01
6.200000e-07	-4.760633e-06	-1.208206e-09	-3.312670e+01	-7.915576e+01
6.300000e-07	-4.736962e-06	-1.219001e-09	-3.296198e+01	-7.887729e+01
6.400000e-07	-4.713045e-06	-1.197382e-09	-3.279555e+01	-7.859518e+01
6.500000e-07	-4.688815e-06	-1.196830e-09	-3.262695e+01	-7.830962e+01
6.600000e-07	-4.664165e-06	-1.210765e-09	-3.245543e+01	-7.802080e+01
6.700000e-07	-4.639080e-06	-1.203306e-09	-3.228087e+01	-7.772887e+01
6.800000e-07	-4.613474e-06	-1.193532e-09	-3.210270e+01	-7.743401e+01
6.900000e-07	-4.587293e-06	-1.200386e-09	-3.192052e+01	-7.713637e+01
7.000000e-07	-4.560593e-06	-1.187507e-09	-3.173473e+01	-7.683608e+01
7.100000e-07	-4.533516e-06	-1.173134e-09	-3.154631e+01	-7.653328e+01
7.200000e-07	-4.506150e-06	-1.170924e-09	-3.135589e+01	-7.622808e+01
7.300000e-07	-4.478557e-06	-1.171146e-09	-3.116388e+01	-7.592058e+01
7.400000e-07	-4.450804e-06	-1.159465e-09	-3.097076e+01	-7.561089e+01
7.500000e-07	-4.422861e-06	-1.158615e-09	-3.077632e+01	-7.529907e+01
7.600000e-07	-4.394627e-06	-1.153415e-09	-3.057986e+01	-7.498518e+01
7.700000e-07	-4.366136e-06	-1.147209e-09	-3.038160e+01	-7.466929e+01
7.800000e-07	-4.337282e-06	-1.137710e-09	-3.018083e+01	-7.435142e+01
7.900000e-07	-4.308074e-06	-1.132398e-09	-2.997758e+01	-7.403160e+01
8.000000e-07	-4.278578e-06	-1.121904e-09	-2.977233e+01	-7.370983e+01
8.100000e-07	-4.248758e-06	-1.114986e-09	-2.956483e+01	-7.338611e+01
8.200000e-07	-4.218696e-06	-1.108537e-09	-2.935564e+01	-7.306042e+01
8.300000e-07	-4.188345e-06	-1.102289e-09	-2.914445e+01	-7.273274e+01
8.400000e-07	-4.157560e-06	-1.095241e-09	-2.893023e+01	-7.240301e+01
8.500000e-07	-4.126544e-06	-1.095925e-09	-2.871441e+01	-7.207119e+01
8.600000e-07	-4.095367e-06	-1.089476e-09	-2.849747e+01	-7.173721e+01
8.700000e-07	-4.063954e-06	-1.079458e-09	-2.827888e+01	-7.140100e+01
8.800000e-07	-4.032364e-06	-1.068332e-09	-2.805906e+01	-7.106247e+01
8.900000e-07	-4.000581e-06	-1.062244e-09	-2.783790e+01	-7.072154e+01
9.000000e-07	-3.968552e-06	-1.051823e-09	-2.761503e+01	-7.037809e+01
9.100000e-07	-3.936255e-06	-1.043509e-09	-2.739029e+01	-7.003204e+01
9.200000e-07	-3.903755e-06	-1.041898e-09	-2.716414e+01	-6.968326e+01
9.300000e-07	-3.870939e-06	-1.037504e-09	-2.693579e+01	-6.933164e+01
9.400000e-07	-3.837542e-06	-1.033496e-09	-2.670340e+01	-6.897705e+01
9.500000e-07	-3.803573e-06	-1.030235e-09	-2.646703e+01	-6.861938e+01
9.600000e-07	-3.769146e-06	-1.023097e-09	-2.622747e+01	-6.825850e+01
9.700000e-07	-3.734350e-06	-1.010028e-09	-2.598534e+01	-6.789428e+01
9.800000e-07	-3.699327e-06	-1.003279e-09	-2.574163e+01	-6.752659e+01
9.900000e-07	-3.664001e-06	-9.968805e-10	-2.549582e+01	-6.715531e+01
1.000000e-06	-3.628471e-06	-9.896922e-10	-2.524858e+01	-6.678030e+01
1.010000e-06	-3.592890e-06	-9.828078e-10	-2.500100e+01	-6.640145e+01
1.020000e-06	-3.557164e-06	-9.806216e-10	-2.475240e+01	-6.601863e+01
1.030000e-06	-3.521224e-06	-9.734304e-10	-2.450231e+01	-6.563171e+01
1.040000e-06	-3.485057e-06	-9.664708e-10	-2.425064e+01	-6.524059e+01
1.050000e-06	-3.448649e-06	-9.609486e-10	-2.399730e+01	-6.484515e+01
1.060000e-06	-3.411987e-06	-9.559866e-10	-2.374219e+01	-6.444528e+01
1.070000e-06	-3.375078e-06	-9.462292e-10	-2.348536e+01	-6.404089e+01
1.080000e-06	-3.337911e-06	-9.395124e-10	-2.322674e+01	-6.363186e+01
1.090000e-06	-3.300534e-06	-9.316638e-10	-2.296665e+01	-6.321811e+01
1.100000e-06	-3.262987e-06	-9.240760e-10	-2.270538e+01	-6.279956e+01
1.110000e-06	-3.225165e-06	-9.171199e-10	-2.244220e+01	-6.237612e+01
1.120000e-06	-3.187002e-06	-9.138743e-10	-2.217664e+01	-6.194771e+01
1.130000e-06	-3.148575e-06	-9.070420e-10	-2.190925e+01	-6.151427e+01
1.140000e-06	-3.109940e-06	-9.004334e-10	-2.164041e+01	-6.107572e+01
1.150000e-06	-3.071064e-06	-8.935948e-10	-2.136989e+01	-6.063202e+01
1.160000e-06	-3.032016e-06	-8.851041e-10	-2.109818e+01	-6.018311e+01
1.170000e-06	-2.992842e-06	-8.735473e-10	-2.082558e+01	-5.972893e+01
1.180000e-06	-2.953501e-06	-8.645268e-10	-2.055183e+01	-5.926945e+01
1.190000e-06	-2.914028e-06	-8.579811e-10	-2.027716e+01	-5.880461e+01
1.200000e-06	-2.874435e-06	-8.507607e-10	-2.000165e+01	-5.833439e+01
1.210000e-06	-2.834691e-06	-8.446739e-10	-1.972509e+01	-5.785874e+01
1.220000e-06	-2.794824e-06	-8.389212e-10	-1.944768e+01	-5.737763e+01
1.230000e-06	-2.754847e-06	-8.312008e-10	-1.916950e+01	-5.689102e+01
1.240000e-06	-2.714691e-06	-8.225872e-10	-1.889008e+01	-5.639888e+01
1.250000e-06	-2.674308e-06	-8.155006e-10	-1.860908e+01	-5.590118e+01
1.260000e-06	-2.633671e-06	-8.078939e-10	-1.832631e+01	-5.539787e+01
1.270000e-06	-2.592858e-06	-7.975861e-10	-1.804231e+01	-5.488892e+01
1.280000e-06	-2.551732e-06	-7.866370e-10	-1.775613e+01	-5.437429e+01
1.290000e-06	-2.510243e-06	-7.798527e-10	-1.746744e+01	-5.385392e+01
1.300000e-06	-2.468546e-06	-7.736277e-10	-1.717729e+01	-5.332776e+01
1.310000e-06	-2.426542e-06	-7.674393e-10	-1.688500e+01	-5.279575e+01
1.320000e-06	-2.384220e-06	-7.594570e-10	-1.659051e+01	-5.225781e+01
1.330000e-06	-2.341546e-06	-7.498175e-10	-1.629356e+01	-5.171387e+01
1.340000e-06	-2.298589e-06	-7.376471e-10	-1.599465e+01	-5.116384e+01
1.350000e-06	-2.255505e-06	-7.282130e-10	-1.569485e+01	-5.060761e+01
1.360000e-06	-2.212233e-06	-7.194426e-10	-1.539374e+01	-5.004507e+01
1.370000e-06	-2.168796e-06	-7.125195e-10	-1.509149e+01	-4.947610e+01
1.380000e-06	-2.125261e-06	-7.066590e-10	-1.478856e+01	-4.890054e+01
1.390000e-06	-2.081612e-06	-7.012433e-10	-1.448482e+01	-4.831824e+01
1.400000e-06	-2.037891e-06	-6.908722e-10	-1.418059e+01	-4.772902e+01
1.410000e-06	-1.994133e-06	-6.772325e-10	-1.387610e+01	-4.713270e+01
1.420000e-06	-1.950275e-06	-6.628270e-10	-1.357092e+01	-4.652907e+01
1.430000e-06	-1.906302e-06	-6.514158e-10	-1.326494e+01	-4.591789e+01
1.440000e-06	-1.862177e-06	-6.438002e-10	-1.295789e+01	-4.529893e+01
1.450000e-06	-1.817946e-06	-6.374634e-10	-1.265011e+01	-4.467191e+01
1.460000e-06	-1.773701e-06	-6.280999e-10	-1.234224e+01	-4.403657e+01
1.470000e-06	-1.729436e-06	-6.165930e-10	-1.203422e+01	-4.339259e+01
1.480000e-06	-1.685011e-06	-6.027526e-10	-1.172509e+01	-4.273965e+01
1.490000e-06	-1.640394e-06	-5.886669e-10	-1.141462e+01	-4.207742e+01
1.500000e-06	-1.595684e-06	-5.768018e-10	-1.110351e+01	-4.140554e+01
1.510000e-06	-1.550780e-06	-5.671117e-10	-1.079104e+01	-4.072365e+01
1.520000e-06	-1.505755e-06	-5.573265e-10	-1.047774e+01	-4.003134e+01
1.530000e-06	-1.460672e-06	-5.464210e-10	-1.016404e+01	-3.932823e+01
1.540000e-06	-1.415410e-06	-5.340066e-10	-9.849082e+00	-3.861389e+01
1.550000e-06	-1.370018e-06	-5.195778e-10	-9.533221e+00	-3.788790e+01
1.560000e-06	-1.324577e-06	-5.071258e-10	-9.217022e+00	-3.714982e+01
1.570000e-06	-1.279086e-06	-4.954787e-10	-8.900473e+00	-3.639920e+01
1.580000e-06	-1.233519e-06	-4.841356e-10	-8.583398e+00	-3.563558e+01
1.590000e-06	-1.187851e-06	-4.732960e-10	-8.265620e+00	-3.485852e+01
1.600000e-06	-1.141994e-06	-4.622729e-10	-7.946528e+00	-3.406755e+01
1.610000e-06	-1.096035e-06	-4.479007e-10	-7.626719e+00	-3.326222e+01
1.620000e-06	-1.050110e-06	-4.325101e-10	-7.307153e+00	-3.244208e+01
1.630000e-06	-1.004143e-06	-4.198025e-10	-6.987290e+00	-3.160666e+01
1.640000e-06	-9.580807e-07	-4.088795e-10	-6.666770e+00	-3.075555e+01
1.650000e-06	-9.119691e-07	-3.992494e-10	-6.345904e+00	-2.988830e+01
1.660000e-06	-8.658222e-07	-3.881915e-10	-6.024793e+00	-2.900452e+01
1.670000e-06	-8.195513e-07	-3.769580e-10	-5.702819e+00	-2.810381e+01
1.680000e-06	-7.732339e-07	-3.636758e-10	-5.380521e+00	-2.718580e+01
1.690000e-06	-7.269636e-07	-3.492170e-10	-5.058550e+00	-2.625015e+01
1.700000e-06	-6.806191e-07	-3.343808e-10	-4.736064e+00	-2.529654e+01
1.710000e-06	-6.342147e-07	-3.171487e-10	-4.413160e+00	-2.432470e+01
1.720000e-06	-5.877214e-07	-3.007946e-10	-4.089639e+00	-2.333437e+01
1.730000e-06	-5.411234e-07	-2.820376e-10	-3.765388e+00	-2.232535e+01
1.740000e-06	-4.945899e-07	-2.650135e-10	-3.441586e+00	-2.129747e+01
1.750000e-06	-4.480445e-07	-2.489596e-10	-3.117702e+00	-2.025061e+01
1.760000e-06	-4.014023e-07	-2.374417e-10	-2.793144e+00	-1.918468e+01
1.770000e-06	-3.547429e-07	-2.275745e-10	-2.468466e+00	-1.809968e+01
1.780000e-06	-3.081147e-07	-2.156656e-10	-2.144005e+00	-1.699563e+01
1.790000e-06	-2.614505e-07	-1.991549e-10	-1.819294e+00	-1.587260e+01
1.800000e-06	-2.146920e-07	-1.764487e-10	-1.493927e+00	-1.473074e+01
1.810000e-06	-1.679242e-07	-1.538470e-10	-1.168495e+00	-1.357024e+01
1.820000e-06	-1.211576e-07	-1.359511e-10	-8.430711e-01	-1.239137e+01
1.830000e-06	-7.440257e-08	-1.234631e-10	-5.177277e-01	-1.119444e+01
1.840000e-06	-2.762957e-08	-1.146153e-10	-1.922594e-01	-9.979836e+00
1.850000e-06	1.906514e-08	-1.039331e-10	1.326641e-01	-8.747996e+00
1.860000e-06	6.570944e-08	-9.148820e-11	4.572368e-01	-7.499429e+00
1.870000e-06	1.124498e-07	-7.482561e-11	7.824778e-01	-6.234702e+00
1.880000e-06	1.591488e-07	-5.253712e-11	1.107431e+00	-4.954446e+00
1.890000e-06	2.058595e-07	-2.675366e-11	1.432466e+00	-3.659351e+00
1.900000e-06	2.526201e-07	-3.370598e-12	1.757848e+00	-2.350170e+00
1.910000e-06	2.993312e-07	1.459556e-11	2.082885e+00	-1.027709e+00
1.920000e-06	3.460228e-07	2.985186e-11	2.407787e+00	3.071652e-01
1.930000e-06	3.926851e-07	4.092117e-11	2.732485e+00	1.653535e+00
1.940000e-06	4.393090e-07	5.271784e-11	3.056916e+00	3.010432e+00
1.950000e-06	4.858785e-07	6.906882e-11	3.380968e+00	4.376839e+00
1.960000e-06	5.323978e-07	9.059161e-11	3.704671e+00	5.751694e+00
1.970000e-06	5.788420e-07	1.152465e-10	4.027852e+00	7.133897e+00
1.980000e-06	6.251871e-07	1.401020e-10	4.350342e+00	8.522309e+00
1.990000e-06	6.715263e-07	1.614231e-10	4.672792e+00	9.915758e+00
2.000000e-06	7.178130e-07	1.790529e-10	4.994877e+00	1.131305e+01
2.010000e-06	7.641163e-07	1.954851e-10	5.317076e+00	1.271296e+01
2.020000e-06	8.104205e-07	2.130860e-10	5.639282e+00	1.411424e+01
2.030000e-06	8.566115e-07	2.328061e-10	5.960701e+00	1.551565e+01
2.040000e-06	9.028271e-07	2.566065e-10	6.282290e+00	1.691593e+01
2.050000e-06	9.489963e-07	2.787868e-10	6.603557e+00	1.831381e+01
2.060000e-06	9.950404e-07	3.005701e-10	6.923953e+00	1.970803e+01
2.070000e-06	1.040970e-06	3.193017e-10	7.243556e+00	2.109733e+01
2.080000e-06	1.086720e-06	3.364834e-10	7.561904e+00	2.248048e+01
2.090000e-06	1.132388e-06	3.552431e-10	7.879685e+00	2.385626e+01
2.100000e-06	1.178043e-06	3.750881e-10	8.197371e+00	2.522346e+01
2.110000e-06	1.223632e-06	3.955402e-10	8.514600e+00	2.658092e+01
2.120000e-06	1.269151e-06	4.132907e-10	8.831343e+00	2.792750e+01
2.130000e-06	1.314573e-06	4.336566e-10	9.147409e+00	2.926211e+01
2.140000e-06	1.359900e-06	4.531097e-10	9.462816e+00	3.058368e+01
2.150000e-06	1.405132e-06	4.724498e-10	9.777558e+00	3.189121e+01
2.160000e-06	1.450246e-06	4.922901e-10	1.009149e+01	3.318374e+01
2.170000e-06	1.495212e-06	5.086338e-10	1.040438e+01	3.446036e+01
2.180000e-06	1.540024e-06	5.228047e-10	1.071620e+01	3.572023e+01
2.190000e-06	1.584809e-06	5.398601e-10	1.102784e+01	3.696256e+01
2.200000e-06	1.629537e-06	5.605115e-10	1.133908e+01	3.818662e+01
2.210000e-06	1.674103e-06	5.809247e-10	1.164919e+01	3.939175e+01
2.220000e-06	1.718531e-06	5.994535e-10	1.195834e+01	4.057736e+01
2.230000e-06	1.762899e-06	6.164129e-10	1.226707e+01	4.174292e+01
2.240000e-06	1.807101e-06	6.292078e-10	1.257465e+01	4.288796e+01
2.250000e-06	1.851098e-06	6.400866e-10	1.288080e+01	4.401210e+01
2.260000e-06	1.895061e-06	6.518358e-10	1.318671e+01	4.511501e+01
2.270000e-06	1.938966e-06	6.661443e-10	1.349222e+01	4.619644e+01
2.280000e-06	1.982759e-06	6.850290e-10	1.379696e+01	4.725620e+01
2.290000e-06	2.026489e-06	7.059204e-10	1.410125e+01	4.829417e+01
2.300000e-06	2.070183e-06	7.258508e-10	1.440529e+01	4.931028e+01
2.310000e-06	2.113766e-06	7.416316e-10	1.470856e+01	5.030453e+01
2.320000e-06	2.157255e-06	7.551177e-10	1.501119e+01	5.127700e+01
2.330000e-06	2.200638e-06	7.656590e-10	1.531306e+01	5.222780e+01
2.340000e-06	2.243857e-06	7.749665e-10	1.561380e+01	5.315709e+01
2.350000e-06	2.286971e-06	7.870545e-10	1.591381e+01	5.406511e+01
2.360000e-06	2.329946e-06	8.040450e-10	1.621285e+01	5.495212e+01
2.370000e-06	2.372723e-06	8.216138e-10	1.651051e+01	5.581843e+01
2.380000e-06	2.415326e-06	8.346994e-10	1.680696e+01	5.666440e+01
2.390000e-06	2.457618e-06	8.445547e-10	1.710125e+01	5.749040e+01
2.400000e-06	2.499478e-06	8.528900e-10	1.739253e+01	5.829686e+01
2.410000e-06	2.540937e-06	8.603049e-10	1.768102e+01	5.908422e+01
2.420000e-06	2.582046e-06	8.687890e-10	1.796708e+01	5.985294e+01
2.430000e-06	2.622893e-06	8.800052e-10	1.825131e+01	6.060351e+01
2.440000e-06	2.663518e-06	8.936404e-10	1.853400e+01	6.133642e+01
2.450000e-06	2.703927e-06	9.065958e-10	1.881518e+01	6.205218e+01
2.460000e-06	2.744128e-06	9.177278e-10	1.909491e+01	6.275130e+01
2.470000e-06	2.784106e-06	9.294300e-10	1.937310e+01	6.343430e+01
2.480000e-06	2.823915e-06	9.400409e-10	1.965011e+01	6.410169e+01
2.490000e-06	2.863624e-06	9.492816e-10	1.992643e+01	6.475397e+01
2.500000e-06	2.903187e-06	9.564845e-10	2.020172e+01	6.539164e+01
2.510000e-06	2.942653e-06	9.615071e-10	2.047635e+01	6.601518e+01
2.520000e-06	2.981996e-06	9.713808e-10	2.075011e+01	6.662507e+01
2.530000e-06	3.021130e-06	9.848770e-10	2.102243e+01	6.722176e+01
2.540000e-06	3.060048e-06	9.945571e-10	2.129323e+01	6.780567e+01
2.550000e-06	3.098753e-06	1.002109e-09	2.156257e+01	6.837723e+01
2.560000e-06	3.137218e-06	1.009017e-09	2.183022e+01	6.893682e+01
2.570000e-06	3.175448e-06	1.014144e-09	2.209624e+01	6.948480e+01
2.580000e-06	3.213475e-06	1.019837e-09	2.236085e+01	7.002151e+01
2.590000e-06	3.251295e-06	1.029596e-09	2.262402e+01	7.054727e+01
2.600000e-06	3.288891e-06	1.040639e-09	2.288563e+01	7.106236e+01
2.610000e-06	3.326236e-06	1.049019e-09	2.314549e+01	7.156705e+01
2.620000e-06	3.363354e-06	1.053744e-09	2.340378e+01	7.206156e+01
2.630000e-06	3.400237e-06	1.056866e-09	2.366043e+01	7.254611e+01
2.640000e-06	3.436870e-06	1.061595e-09	2.391534e+01	7.302088e+01
2.650000e-06	3.473247e-06	1.068009e-09	2.416847e+01	7.348604e+01
2.660000e-06	3.509395e-06	1.075891e-09	2.442000e+01	7.394172e+01
2.670000e-06	3.545345e-06	1.082759e-09	2.467015e+01	7.438804e+01
2.680000e-06	3.581103e-06	1.086996e-09	2.491898e+01	7.482512e+01
2.690000e-06	3.616769e-06	1.092090e-09	2.516716e+01	7.525302e+01
2.700000e-06	3.652346e-06	1.098158e-09	2.541472e+01	7.567182e+01
2.710000e-06	3.687719e-06	1.103639e-09	2.566086e+01	7.608158e+01
2.720000e-06	3.722861e-06	1.108705e-09	2.590540e+01	7.648235e+01
2.730000e-06	3.757742e-06	1.114767e-09	2.614812e+01	7.687417e+01
2.740000e-06	3.792191e-06	1.120750e-09	2.638783e+01	7.725707e+01
2.750000e-06	3.826127e-06	1.124432e-09	2.662397e+01	7.763108e+01
2.760000e-06	3.859673e-06	1.128482e-09	2.685740e+01	7.799623e+01
2.770000e-06	3.892828e-06	1.132932e-09	2.708811e+01	7.835256e+01
2.780000e-06	3.925503e-06	1.136688e-09	2.731547e+01	7.870009e+01
2.790000e-06	3.957820e-06	1.141661e-09	2.754035e+01	7.903887e+01
2.800000e-06	3.989878e-06	1.148160e-09	2.776343e+01	7.936894e+01
2.810000e-06	4.021698e-06	1.153265e-09	2.798485e+01	7.969036e+01
2.820000e-06	4.053356e-06	1.156436e-09	2.820513e+01	8.000319e+01
2.830000e-06	4.084831e-06	1.160499e-09	2.842415e+01	8.030751e+01
2.840000e-06	4.116086e-06	1.166875e-09	2.864164e+01	8.060339e+01
2.850000e-06	4.146999e-06	1.175846e-09	2.885675e+01	8.089096e+01
2.860000e-06	4.177630e-06	1.184628e-09	2.906989e+01	8.117031e+01
2.870000e-06	4.208040e-06	1.188467e-09	2.928150e+01	8.144158e+01
2.880000e-06	4.238136e-06	1.189867e-09	2.949092e+01	8.170491e+01
2.890000e-06	4.267917e-06	1.193482e-09	2.969815e+01	8.196046e+01
2.900000e-06	4.297402e-06	1.200043e-09	2.990332e+01	8.220840e+01
2.910000e-06	4.326664e-06	1.208303e-09	3.010694e+01	8.244891e+01
