# Temperatura_=_12.8
# Concentracion g/m^3_=_1620.0
# C_Vs_to_Am_M_A/Vsm_=_65563218390.804596
# pendiente_HvsI_1/m_=_3716.3
# ordenada_HvsI_A/m_=_1297.0
# frecuencia_Hz_=_135092.3250059603

Tiempo_(s)	Campo_(V.s)	Magnetizacion_(V.s)	Campo_(kA/m)	Magnetizacion_(A/m)
0.000000e+00	-5.507200e-06	-1.623683e-09	-3.837412e+01	-1.065788e+02
1.000000e-08	-5.507518e-06	-1.618266e-09	-3.837634e+01	-1.065465e+02
2.000000e-08	-5.507634e-06	-1.613092e-09	-3.837714e+01	-1.065101e+02
3.000000e-08	-5.507337e-06	-1.612256e-09	-3.837507e+01	-1.064694e+02
4.000000e-08	-5.506530e-06	-1.611379e-09	-3.836945e+01	-1.064245e+02
5.000000e-08	-5.505131e-06	-1.602462e-09	-3.835970e+01	-1.063752e+02
6.000000e-08	-5.503167e-06	-1.585974e-09	-3.834602e+01	-1.063215e+02
7.000000e-08	-5.500679e-06	-1.574333e-09	-3.832868e+01	-1.062633e+02
8.000000e-08	-5.497641e-06	-1.615874e-09	-3.830751e+01	-1.062006e+02
9.000000e-08	-5.494077e-06	-1.727198e-09	-3.828267e+01	-1.061335e+02
1.000000e-07	-5.489951e-06	-1.778861e-09	-3.825393e+01	-1.060617e+02
1.100000e-07	-5.485470e-06	-1.605722e-09	-3.822270e+01	-1.059853e+02
1.200000e-07	-5.480924e-06	-1.470706e-09	-3.819103e+01	-1.059043e+02
1.300000e-07	-5.476223e-06	-1.513278e-09	-3.815827e+01	-1.058186e+02
1.400000e-07	-5.471156e-06	-1.682633e-09	-3.812296e+01	-1.057282e+02
1.500000e-07	-5.465506e-06	-1.607042e-09	-3.808359e+01	-1.056331e+02
1.600000e-07	-5.459489e-06	-1.487645e-09	-3.804167e+01	-1.055334e+02
1.700000e-07	-5.453206e-06	-1.552884e-09	-3.799789e+01	-1.054289e+02
1.800000e-07	-5.446501e-06	-1.739545e-09	-3.795117e+01	-1.053198e+02
1.900000e-07	-5.439335e-06	-1.687714e-09	-3.790123e+01	-1.052059e+02
2.000000e-07	-5.431850e-06	-1.507441e-09	-3.784908e+01	-1.050874e+02
2.100000e-07	-5.424206e-06	-1.503175e-09	-3.779581e+01	-1.049643e+02
2.200000e-07	-5.416253e-06	-1.650130e-09	-3.774040e+01	-1.048365e+02
2.300000e-07	-5.408085e-06	-1.683154e-09	-3.768349e+01	-1.047041e+02
2.400000e-07	-5.399563e-06	-1.578435e-09	-3.762410e+01	-1.045672e+02
2.500000e-07	-5.390225e-06	-1.569942e-09	-3.755903e+01	-1.044256e+02
2.600000e-07	-5.380117e-06	-1.611132e-09	-3.748861e+01	-1.042795e+02
2.700000e-07	-5.369585e-06	-1.606846e-09	-3.741522e+01	-1.041289e+02
2.800000e-07	-5.358536e-06	-1.525154e-09	-3.733822e+01	-1.039738e+02
2.900000e-07	-5.346978e-06	-1.557453e-09	-3.725769e+01	-1.038142e+02
3.000000e-07	-5.335186e-06	-1.589215e-09	-3.717552e+01	-1.036501e+02
3.100000e-07	-5.323037e-06	-1.587652e-09	-3.709087e+01	-1.034815e+02
3.200000e-07	-5.310316e-06	-1.513998e-09	-3.700223e+01	-1.033084e+02
3.300000e-07	-5.297128e-06	-1.543983e-09	-3.691033e+01	-1.031308e+02
3.400000e-07	-5.283667e-06	-1.566680e-09	-3.681654e+01	-1.029487e+02
3.500000e-07	-5.269839e-06	-1.568866e-09	-3.672019e+01	-1.027621e+02
3.600000e-07	-5.255498e-06	-1.519423e-09	-3.662026e+01	-1.025709e+02
3.700000e-07	-5.240718e-06	-1.565441e-09	-3.651727e+01	-1.023751e+02
3.800000e-07	-5.225578e-06	-1.573121e-09	-3.641178e+01	-1.021746e+02
3.900000e-07	-5.209760e-06	-1.537301e-09	-3.630156e+01	-1.019695e+02
4.000000e-07	-5.193326e-06	-1.521439e-09	-3.618705e+01	-1.017595e+02
4.100000e-07	-5.176667e-06	-1.573240e-09	-3.607097e+01	-1.015448e+02
4.200000e-07	-5.159642e-06	-1.537695e-09	-3.595234e+01	-1.013251e+02
4.300000e-07	-5.142297e-06	-1.478786e-09	-3.583148e+01	-1.011004e+02
4.400000e-07	-5.124772e-06	-1.543016e-09	-3.570936e+01	-1.008707e+02
4.500000e-07	-5.106944e-06	-1.586906e-09	-3.558514e+01	-1.006358e+02
4.600000e-07	-5.088555e-06	-1.504485e-09	-3.545701e+01	-1.003955e+02
4.700000e-07	-5.069615e-06	-1.475786e-09	-3.532503e+01	-1.001500e+02
4.800000e-07	-5.050383e-06	-1.553226e-09	-3.519102e+01	-9.989891e+01
4.900000e-07	-5.030980e-06	-1.526320e-09	-3.505582e+01	-9.964228e+01
5.000000e-07	-5.011403e-06	-1.480497e-09	-3.491941e+01	-9.937997e+01
5.100000e-07	-4.991667e-06	-1.519152e-09	-3.478189e+01	-9.911187e+01
5.200000e-07	-4.971616e-06	-1.521748e-09	-3.464217e+01	-9.883790e+01
5.300000e-07	-4.951125e-06	-1.451657e-09	-3.449939e+01	-9.855796e+01
5.400000e-07	-4.930319e-06	-1.501311e-09	-3.435441e+01	-9.827196e+01
5.500000e-07	-4.909154e-06	-1.533221e-09	-3.420694e+01	-9.797983e+01
5.600000e-07	-4.887647e-06	-1.457589e-09	-3.405708e+01	-9.768149e+01
5.700000e-07	-4.865817e-06	-1.431297e-09	-3.390497e+01	-9.737689e+01
5.800000e-07	-4.843652e-06	-1.508237e-09	-3.375052e+01	-9.706597e+01
5.900000e-07	-4.821091e-06	-1.481682e-09	-3.359331e+01	-9.674871e+01
6.000000e-07	-4.798183e-06	-1.440076e-09	-3.343369e+01	-9.642506e+01
6.100000e-07	-4.775058e-06	-1.467609e-09	-3.327256e+01	-9.609503e+01
6.200000e-07	-4.751656e-06	-1.470545e-09	-3.310950e+01	-9.575861e+01
6.300000e-07	-4.727955e-06	-1.410434e-09	-3.294435e+01	-9.541582e+01
6.400000e-07	-4.704058e-06	-1.423900e-09	-3.277783e+01	-9.506671e+01
6.500000e-07	-4.679852e-06	-1.440662e-09	-3.260916e+01	-9.471130e+01
6.600000e-07	-4.655141e-06	-1.415042e-09	-3.243698e+01	-9.434968e+01
6.700000e-07	-4.630022e-06	-1.412616e-09	-3.226195e+01	-9.398191e+01
6.800000e-07	-4.604368e-06	-1.442279e-09	-3.208319e+01	-9.360810e+01
6.900000e-07	-4.578055e-06	-1.421125e-09	-3.189984e+01	-9.322835e+01
7.000000e-07	-4.551185e-06	-1.401413e-09	-3.171261e+01	-9.284278e+01
7.100000e-07	-4.523940e-06	-1.402946e-09	-3.152277e+01	-9.245153e+01
7.200000e-07	-4.496496e-06	-1.388120e-09	-3.133154e+01	-9.205476e+01
7.300000e-07	-4.468893e-06	-1.366952e-09	-3.113921e+01	-9.165260e+01
7.400000e-07	-4.441142e-06	-1.371879e-09	-3.094584e+01	-9.124525e+01
7.500000e-07	-4.413132e-06	-1.376303e-09	-3.075067e+01	-9.083286e+01
7.600000e-07	-4.384867e-06	-1.365382e-09	-3.055371e+01	-9.041562e+01
7.700000e-07	-4.356348e-06	-1.363436e-09	-3.035499e+01	-8.999371e+01
7.800000e-07	-4.327513e-06	-1.353083e-09	-3.015407e+01	-8.956734e+01
7.900000e-07	-4.298399e-06	-1.340865e-09	-2.995120e+01	-8.913667e+01
8.000000e-07	-4.268983e-06	-1.337198e-09	-2.974623e+01	-8.870191e+01
8.100000e-07	-4.239310e-06	-1.334210e-09	-2.953947e+01	-8.826324e+01
8.200000e-07	-4.209344e-06	-1.313409e-09	-2.933067e+01	-8.782084e+01
8.300000e-07	-4.178959e-06	-1.312518e-09	-2.911895e+01	-8.737488e+01
8.400000e-07	-4.148188e-06	-1.313889e-09	-2.890454e+01	-8.692553e+01
8.500000e-07	-4.117102e-06	-1.301325e-09	-2.868793e+01	-8.647294e+01
8.600000e-07	-4.085796e-06	-1.284078e-09	-2.846978e+01	-8.601727e+01
8.700000e-07	-4.054366e-06	-1.287053e-09	-2.825078e+01	-8.555862e+01
8.800000e-07	-4.022813e-06	-1.275419e-09	-2.803092e+01	-8.509713e+01
8.900000e-07	-3.991083e-06	-1.266763e-09	-2.780983e+01	-8.463288e+01
9.000000e-07	-3.959155e-06	-1.263305e-09	-2.758736e+01	-8.416596e+01
9.100000e-07	-3.926932e-06	-1.255959e-09	-2.736282e+01	-8.369643e+01
9.200000e-07	-3.894241e-06	-1.232263e-09	-2.713503e+01	-8.322432e+01
9.300000e-07	-3.861176e-06	-1.226237e-09	-2.690464e+01	-8.274967e+01
9.400000e-07	-3.827734e-06	-1.223635e-09	-2.667161e+01	-8.227246e+01
9.500000e-07	-3.793769e-06	-1.213316e-09	-2.643494e+01	-8.179268e+01
9.600000e-07	-3.759339e-06	-1.204380e-09	-2.619504e+01	-8.131030e+01
9.700000e-07	-3.724537e-06	-1.205559e-09	-2.595254e+01	-8.082524e+01
9.800000e-07	-3.689390e-06	-1.195022e-09	-2.570763e+01	-8.033742e+01
9.900000e-07	-3.654013e-06	-1.185429e-09	-2.546113e+01	-7.984676e+01
1.000000e-06	-3.618513e-06	-1.183748e-09	-2.521376e+01	-7.935312e+01
1.010000e-06	-3.582891e-06	-1.177029e-09	-2.496555e+01	-7.885637e+01
1.020000e-06	-3.547134e-06	-1.163617e-09	-2.471640e+01	-7.835636e+01
1.030000e-06	-3.511237e-06	-1.157778e-09	-2.446627e+01	-7.785293e+01
1.040000e-06	-3.475150e-06	-1.153763e-09	-2.421482e+01	-7.734589e+01
1.050000e-06	-3.438743e-06	-1.140096e-09	-2.396113e+01	-7.683506e+01
1.060000e-06	-3.402107e-06	-1.129871e-09	-2.370585e+01	-7.632024e+01
1.070000e-06	-3.365283e-06	-1.124921e-09	-2.344926e+01	-7.580121e+01
1.080000e-06	-3.328149e-06	-1.117457e-09	-2.319051e+01	-7.527778e+01
1.090000e-06	-3.290757e-06	-1.106162e-09	-2.292996e+01	-7.474971e+01
1.100000e-06	-3.253182e-06	-1.102477e-09	-2.266814e+01	-7.421680e+01
1.110000e-06	-3.215386e-06	-1.091340e-09	-2.240478e+01	-7.367884e+01
1.120000e-06	-3.177390e-06	-1.078200e-09	-2.214002e+01	-7.313560e+01
1.130000e-06	-3.139181e-06	-1.068293e-09	-2.187378e+01	-7.258688e+01
1.140000e-06	-3.100653e-06	-1.062439e-09	-2.160532e+01	-7.203249e+01
1.150000e-06	-3.061885e-06	-1.051076e-09	-2.133519e+01	-7.147222e+01
1.160000e-06	-3.022903e-06	-1.044089e-09	-2.106356e+01	-7.090589e+01
1.170000e-06	-2.983710e-06	-1.037627e-09	-2.079046e+01	-7.033333e+01
1.180000e-06	-2.944413e-06	-1.031995e-09	-2.051664e+01	-6.975439e+01
1.190000e-06	-2.905017e-06	-1.021011e-09	-2.024213e+01	-6.916892e+01
1.200000e-06	-2.865455e-06	-1.009924e-09	-1.996647e+01	-6.857678e+01
1.210000e-06	-2.825749e-06	-9.933463e-10	-1.968979e+01	-6.797786e+01
1.220000e-06	-2.785940e-06	-9.772441e-10	-1.941240e+01	-6.737206e+01
1.230000e-06	-2.746008e-06	-9.674145e-10	-1.913416e+01	-6.675928e+01
1.240000e-06	-2.705882e-06	-9.599883e-10	-1.885456e+01	-6.613947e+01
1.250000e-06	-2.665462e-06	-9.508698e-10	-1.857292e+01	-6.551257e+01
1.260000e-06	-2.624813e-06	-9.420662e-10	-1.828967e+01	-6.487852e+01
1.270000e-06	-2.583984e-06	-9.339538e-10	-1.800517e+01	-6.423730e+01
1.280000e-06	-2.542857e-06	-9.249292e-10	-1.771860e+01	-6.358890e+01
1.290000e-06	-2.501314e-06	-9.126072e-10	-1.742913e+01	-6.293329e+01
1.300000e-06	-2.459452e-06	-9.016502e-10	-1.713744e+01	-6.227049e+01
1.310000e-06	-2.417314e-06	-8.907244e-10	-1.684382e+01	-6.160049e+01
1.320000e-06	-2.374873e-06	-8.803428e-10	-1.654809e+01	-6.092331e+01
1.330000e-06	-2.332161e-06	-8.705604e-10	-1.625047e+01	-6.023896e+01
1.340000e-06	-2.289275e-06	-8.599345e-10	-1.595165e+01	-5.954745e+01
1.350000e-06	-2.246192e-06	-8.492734e-10	-1.565145e+01	-5.884879e+01
1.360000e-06	-2.202862e-06	-8.368867e-10	-1.534952e+01	-5.814297e+01
1.370000e-06	-2.159444e-06	-8.256513e-10	-1.504698e+01	-5.743001e+01
1.380000e-06	-2.115983e-06	-8.167043e-10	-1.474415e+01	-5.670987e+01
1.390000e-06	-2.072447e-06	-8.098617e-10	-1.444079e+01	-5.598254e+01
1.400000e-06	-2.028805e-06	-8.011943e-10	-1.413669e+01	-5.524796e+01
1.410000e-06	-1.985067e-06	-7.891434e-10	-1.383192e+01	-5.450607e+01
1.420000e-06	-1.941237e-06	-7.752347e-10	-1.352652e+01	-5.375679e+01
1.430000e-06	-1.897378e-06	-7.650469e-10	-1.322091e+01	-5.300001e+01
1.440000e-06	-1.853450e-06	-7.560026e-10	-1.291482e+01	-5.223560e+01
1.450000e-06	-1.809293e-06	-7.460690e-10	-1.260714e+01	-5.146339e+01
1.460000e-06	-1.765013e-06	-7.343800e-10	-1.229860e+01	-5.068322e+01
1.470000e-06	-1.720666e-06	-7.233814e-10	-1.198959e+01	-4.989485e+01
1.480000e-06	-1.676219e-06	-7.110481e-10	-1.167988e+01	-4.909804e+01
1.490000e-06	-1.631645e-06	-6.987147e-10	-1.136929e+01	-4.829252e+01
1.500000e-06	-1.586886e-06	-6.866009e-10	-1.105741e+01	-4.747798e+01
1.510000e-06	-1.541932e-06	-6.754521e-10	-1.074416e+01	-4.665409e+01
1.520000e-06	-1.496817e-06	-6.622413e-10	-1.042981e+01	-4.582047e+01
1.530000e-06	-1.451684e-06	-6.482878e-10	-1.011532e+01	-4.497674e+01
1.540000e-06	-1.406513e-06	-6.321624e-10	-9.800567e+00	-4.412246e+01
1.550000e-06	-1.361276e-06	-6.152150e-10	-9.485356e+00	-4.325720e+01
1.560000e-06	-1.315968e-06	-5.983331e-10	-9.169649e+00	-4.238048e+01
1.570000e-06	-1.270540e-06	-5.848358e-10	-8.853109e+00	-4.149181e+01
1.580000e-06	-1.225016e-06	-5.731435e-10	-8.535897e+00	-4.059067e+01
1.590000e-06	-1.179479e-06	-5.628431e-10	-8.218599e+00	-3.967655e+01
1.600000e-06	-1.133869e-06	-5.515872e-10	-7.900789e+00	-3.874891e+01
1.610000e-06	-1.088146e-06	-5.365196e-10	-7.582191e+00	-3.780720e+01
1.620000e-06	-1.042243e-06	-5.199695e-10	-7.262340e+00	-3.685089e+01
1.630000e-06	-9.962097e-07	-5.045607e-10	-6.941580e+00	-3.587942e+01
1.640000e-06	-9.502191e-07	-4.885163e-10	-6.621117e+00	-3.489226e+01
1.650000e-06	-9.041660e-07	-4.716419e-10	-6.300220e+00	-3.388889e+01
1.660000e-06	-8.580129e-07	-4.575418e-10	-5.978625e+00	-3.286879e+01
1.670000e-06	-8.118558e-07	-4.437161e-10	-5.657004e+00	-3.183148e+01
1.680000e-06	-7.656530e-07	-4.285521e-10	-5.335063e+00	-3.077650e+01
1.690000e-06	-7.193920e-07	-4.133933e-10	-5.012717e+00	-2.970342e+01
1.700000e-06	-6.730390e-07	-3.993091e-10	-4.689729e+00	-2.861184e+01
1.710000e-06	-6.266250e-07	-3.815936e-10	-4.366317e+00	-2.750142e+01
1.720000e-06	-5.801780e-07	-3.637233e-10	-4.042675e+00	-2.637185e+01
1.730000e-06	-5.336842e-07	-3.433488e-10	-3.718706e+00	-2.522288e+01
1.740000e-06	-4.871613e-07	-3.187012e-10	-3.394535e+00	-2.405430e+01
1.750000e-06	-4.406249e-07	-2.954388e-10	-3.070270e+00	-2.286599e+01
1.760000e-06	-3.941392e-07	-2.773103e-10	-2.746359e+00	-2.165787e+01
1.770000e-06	-3.475286e-07	-2.617628e-10	-2.421576e+00	-2.042993e+01
1.780000e-06	-3.007870e-07	-2.482990e-10	-2.095881e+00	-1.918223e+01
1.790000e-06	-2.541165e-07	-2.354227e-10	-1.770681e+00	-1.791492e+01
1.800000e-06	-2.074220e-07	-2.179216e-10	-1.445314e+00	-1.662820e+01
1.810000e-06	-1.606278e-07	-1.954971e-10	-1.119253e+00	-1.532235e+01
1.820000e-06	-1.138730e-07	-1.729200e-10	-7.934658e-01	-1.399775e+01
1.830000e-06	-6.713665e-08	-1.514751e-10	-4.678075e-01	-1.265483e+01
1.840000e-06	-2.033388e-08	-1.312129e-10	-1.416863e-01	-1.129413e+01
1.850000e-06	2.642448e-08	-1.125164e-10	1.841255e-01	-9.916223e+00
1.860000e-06	7.311355e-08	-9.624811e-11	5.094545e-01	-8.521801e+00
1.870000e-06	1.198478e-07	-7.877360e-11	8.350985e-01	-7.111611e+00
1.880000e-06	1.665448e-07	-5.752482e-11	1.160482e+00	-5.686476e+00
1.890000e-06	2.131166e-07	-3.389734e-11	1.484994e+00	-4.247290e+00
1.900000e-06	2.596658e-07	-9.828971e-12	1.809349e+00	-2.795012e+00
1.910000e-06	3.062843e-07	1.151445e-11	2.134186e+00	-1.330666e+00
1.920000e-06	3.529025e-07	3.090711e-11	2.459021e+00	1.446653e-01
1.930000e-06	3.995201e-07	4.861478e-11	2.783852e+00	1.629845e+00
1.940000e-06	4.460902e-07	6.785474e-11	3.108353e+00	3.123687e+00
1.950000e-06	4.925745e-07	8.963759e-11	3.432255e+00	4.624962e+00
1.960000e-06	5.389893e-07	1.128141e-10	3.755672e+00	6.132401e+00
1.970000e-06	5.852998e-07	1.353875e-10	4.078363e+00	7.644704e+00
1.980000e-06	6.316315e-07	1.555934e-10	4.401203e+00	9.160546e+00
1.990000e-06	6.780048e-07	1.753464e-10	4.724331e+00	1.067858e+01
2.000000e-06	7.242782e-07	1.937737e-10	5.046764e+00	1.219745e+01
2.010000e-06	7.705026e-07	2.125459e-10	5.368855e+00	1.371579e+01
2.020000e-06	8.166836e-07	2.335363e-10	5.690644e+00	1.523225e+01
2.030000e-06	8.627616e-07	2.569051e-10	6.011714e+00	1.674545e+01
2.040000e-06	9.087839e-07	2.818935e-10	6.332398e+00	1.825407e+01
2.050000e-06	9.547505e-07	3.048012e-10	6.652692e+00	1.975678e+01
2.060000e-06	1.000683e-06	3.245344e-10	6.972747e+00	2.125228e+01
2.070000e-06	1.046559e-06	3.429079e-10	7.292415e+00	2.273933e+01
2.080000e-06	1.092315e-06	3.630220e-10	7.611239e+00	2.421668e+01
2.090000e-06	1.138076e-06	3.852718e-10	7.930101e+00	2.568318e+01
2.100000e-06	1.183826e-06	4.089647e-10	8.248885e+00	2.713768e+01
2.110000e-06	1.229420e-06	4.325226e-10	8.566584e+00	2.857913e+01
2.120000e-06	1.274877e-06	4.553882e-10	8.883333e+00	3.000649e+01
2.130000e-06	1.320279e-06	4.762988e-10	9.199695e+00	3.141883e+01
2.140000e-06	1.365590e-06	4.958627e-10	9.515418e+00	3.281526e+01
2.150000e-06	1.410709e-06	5.153566e-10	9.829810e+00	3.419495e+01
2.160000e-06	1.455776e-06	5.351720e-10	1.014384e+01	3.555718e+01
2.170000e-06	1.500832e-06	5.545455e-10	1.045778e+01	3.690125e+01
2.180000e-06	1.545750e-06	5.731945e-10	1.077077e+01	3.822659e+01
2.190000e-06	1.590476e-06	5.897008e-10	1.108242e+01	3.953266e+01
2.200000e-06	1.635017e-06	6.047090e-10	1.139278e+01	4.081903e+01
2.210000e-06	1.679368e-06	6.212828e-10	1.170182e+01	4.208533e+01
2.220000e-06	1.723673e-06	6.379717e-10	1.201054e+01	4.333125e+01
2.230000e-06	1.767916e-06	6.564868e-10	1.231882e+01	4.455658e+01
2.240000e-06	1.811954e-06	6.743669e-10	1.262568e+01	4.576118e+01
2.250000e-06	1.855889e-06	6.904905e-10	1.293182e+01	4.694495e+01
2.260000e-06	1.899794e-06	7.043974e-10	1.323774e+01	4.810790e+01
2.270000e-06	1.943628e-06	7.185159e-10	1.354318e+01	4.925007e+01
2.280000e-06	1.987327e-06	7.359805e-10	1.384767e+01	5.037158e+01
2.290000e-06	2.030922e-06	7.528388e-10	1.415144e+01	5.147259e+01
2.300000e-06	2.074505e-06	7.687108e-10	1.445513e+01	5.255333e+01
2.310000e-06	2.118086e-06	7.844081e-10	1.475880e+01	5.361407e+01
2.320000e-06	2.161589e-06	7.994134e-10	1.506193e+01	5.465512e+01
2.330000e-06	2.205020e-06	8.132916e-10	1.536456e+01	5.567685e+01
2.340000e-06	2.248384e-06	8.268422e-10	1.566672e+01	5.667965e+01
2.350000e-06	2.291563e-06	8.404705e-10	1.596759e+01	5.766393e+01
2.360000e-06	2.334540e-06	8.569325e-10	1.626705e+01	5.863015e+01
2.370000e-06	2.377347e-06	8.741550e-10	1.656533e+01	5.957877e+01
2.380000e-06	2.419873e-06	8.875771e-10	1.686165e+01	6.051029e+01
2.390000e-06	2.462059e-06	8.981010e-10	1.715560e+01	6.142519e+01
2.400000e-06	2.503799e-06	9.089507e-10	1.744645e+01	6.232398e+01
2.410000e-06	2.545159e-06	9.211122e-10	1.773464e+01	6.320717e+01
2.420000e-06	2.586289e-06	9.344188e-10	1.802124e+01	6.407526e+01
2.430000e-06	2.626991e-06	9.497341e-10	1.830485e+01	6.492876e+01
2.440000e-06	2.667312e-06	9.660977e-10	1.858580e+01	6.576817e+01
2.450000e-06	2.707503e-06	9.798755e-10	1.886586e+01	6.659395e+01
2.460000e-06	2.747531e-06	9.929782e-10	1.914477e+01	6.740659e+01
2.470000e-06	2.787465e-06	1.008202e-09	1.942303e+01	6.820653e+01
2.480000e-06	2.827333e-06	1.022387e-09	1.970083e+01	6.899420e+01
2.490000e-06	2.866999e-06	1.034863e-09	1.997722e+01	6.977001e+01
2.500000e-06	2.906526e-06	1.045456e-09	2.025265e+01	7.053435e+01
2.510000e-06	2.945943e-06	1.055157e-09	2.052730e+01	7.128758e+01
2.520000e-06	2.985209e-06	1.066572e-09	2.080091e+01	7.203003e+01
2.530000e-06	3.024324e-06	1.079054e-09	2.107346e+01	7.276202e+01
2.540000e-06	3.063120e-06	1.091479e-09	2.134379e+01	7.348382e+01
2.550000e-06	3.101632e-06	1.103575e-09	2.161215e+01	7.419570e+01
2.560000e-06	3.139979e-06	1.115517e-09	2.187934e+01	7.489788e+01
2.570000e-06	3.178050e-06	1.126005e-09	2.214463e+01	7.559057e+01
2.580000e-06	3.215882e-06	1.133548e-09	2.240824e+01	7.627396e+01
2.590000e-06	3.253600e-06	1.140148e-09	2.267106e+01	7.694820e+01
2.600000e-06	3.291138e-06	1.148598e-09	2.293262e+01	7.761342e+01
2.610000e-06	3.328420e-06	1.158520e-09	2.319240e+01	7.826974e+01
2.620000e-06	3.365515e-06	1.166660e-09	2.345088e+01	7.891725e+01
2.630000e-06	3.402286e-06	1.174210e-09	2.370709e+01	7.955603e+01
2.640000e-06	3.438768e-06	1.181643e-09	2.396130e+01	8.018614e+01
2.650000e-06	3.475082e-06	1.190030e-09	2.421434e+01	8.080764e+01
2.660000e-06	3.511156e-06	1.201021e-09	2.446570e+01	8.142054e+01
2.670000e-06	3.546982e-06	1.210241e-09	2.471533e+01	8.202489e+01
2.680000e-06	3.582672e-06	1.217161e-09	2.496402e+01	8.262070e+01
2.690000e-06	3.618294e-06	1.225412e-09	2.521224e+01	8.320798e+01
2.700000e-06	3.653776e-06	1.233525e-09	2.545947e+01	8.378674e+01
2.710000e-06	3.689096e-06	1.241390e-09	2.570558e+01	8.435698e+01
2.720000e-06	3.724163e-06	1.249830e-09	2.594993e+01	8.491872e+01
2.730000e-06	3.758974e-06	1.257783e-09	2.619250e+01	8.547194e+01
2.740000e-06	3.793429e-06	1.263834e-09	2.643258e+01	8.601667e+01
2.750000e-06	3.827422e-06	1.269810e-09	2.666944e+01	8.655292e+01
2.760000e-06	3.860876e-06	1.277420e-09	2.690255e+01	8.708069e+01
2.770000e-06	3.893798e-06	1.285414e-09	2.713195e+01	8.760002e+01
2.780000e-06	3.926204e-06	1.295399e-09	2.735775e+01	8.811092e+01
2.790000e-06	3.958239e-06	1.305312e-09	2.758097e+01	8.861344e+01
2.800000e-06	3.990130e-06	1.312686e-09	2.780319e+01	8.910761e+01
2.810000e-06	4.021812e-06	1.317176e-09	2.802395e+01	8.959349e+01
2.820000e-06	4.053375e-06	1.320915e-09	2.824388e+01	9.007112e+01
2.830000e-06	4.084794e-06	1.327355e-09	2.846281e+01	9.054059e+01
2.840000e-06	4.115965e-06	1.336428e-09	2.868001e+01	9.100194e+01
2.850000e-06	4.146923e-06	1.348223e-09	2.889572e+01	9.145528e+01
2.860000e-06	4.177529e-06	1.361212e-09	2.910898e+01	9.190067e+01
2.870000e-06	4.207746e-06	1.370372e-09	2.931953e+01	9.233820e+01
2.880000e-06	4.237754e-06	1.373991e-09	2.952863e+01	9.276798e+01
2.890000e-06	4.267461e-06	1.376111e-09	2.973563e+01	9.319010e+01
2.900000e-06	4.296872e-06	1.380903e-09	2.994056e+01	9.360467e+01
2.910000e-06	4.326099e-06	1.388113e-09	3.014422e+01	9.401178e+01
