# Temperatura_=_10.31
# Concentracion g/m^3_=_1620.0
# C_Vs_to_Am_M_A/Vsm_=_65563218390.804596
# pendiente_HvsI_1/m_=_3716.3
# ordenada_HvsI_A/m_=_1297.0
# frecuencia_Hz_=_135087.98771285923

Tiempo_(s)	Campo_(V.s)	Magnetizacion_(V.s)	Campo_(kA/m)	Magnetizacion_(A/m)
0.000000e+00	-5.495698e-06	-1.472310e-09	-3.837953e+01	-9.508782e+01
1.000000e-08	-5.495700e-06	-1.471184e-09	-3.837954e+01	-9.509996e+01
2.000000e-08	-5.495448e-06	-1.476084e-09	-3.837778e+01	-9.511184e+01
3.000000e-08	-5.494836e-06	-1.479994e-09	-3.837351e+01	-9.512336e+01
4.000000e-08	-5.493720e-06	-1.474349e-09	-3.836572e+01	-9.513442e+01
5.000000e-08	-5.492005e-06	-1.456494e-09	-3.835374e+01	-9.514492e+01
6.000000e-08	-5.489633e-06	-1.451669e-09	-3.833717e+01	-9.515472e+01
7.000000e-08	-5.486655e-06	-1.502241e-09	-3.831637e+01	-9.516364e+01
8.000000e-08	-5.483177e-06	-1.533540e-09	-3.829209e+01	-9.517154e+01
9.000000e-08	-5.479259e-06	-1.529740e-09	-3.826472e+01	-9.517820e+01
1.000000e-07	-5.475076e-06	-1.498094e-09	-3.823551e+01	-9.518344e+01
1.100000e-07	-5.470641e-06	-1.430907e-09	-3.820454e+01	-9.518702e+01
1.200000e-07	-5.465955e-06	-1.369958e-09	-3.817182e+01	-9.518872e+01
1.300000e-07	-5.461032e-06	-1.461959e-09	-3.813744e+01	-9.518829e+01
1.400000e-07	-5.455635e-06	-1.445756e-09	-3.809974e+01	-9.518548e+01
1.500000e-07	-5.449829e-06	-1.451063e-09	-3.805920e+01	-9.518003e+01
1.600000e-07	-5.443694e-06	-1.377952e-09	-3.801635e+01	-9.517166e+01
1.700000e-07	-5.437122e-06	-1.522606e-09	-3.797046e+01	-9.516010e+01
1.800000e-07	-5.430033e-06	-1.528588e-09	-3.792095e+01	-9.514506e+01
1.900000e-07	-5.422612e-06	-1.465290e-09	-3.786913e+01	-9.512626e+01
2.000000e-07	-5.414934e-06	-1.393848e-09	-3.781551e+01	-9.510342e+01
2.100000e-07	-5.407015e-06	-1.462972e-09	-3.776020e+01	-9.507626e+01
2.200000e-07	-5.398962e-06	-1.512368e-09	-3.770397e+01	-9.504448e+01
2.300000e-07	-5.390552e-06	-1.452704e-09	-3.764523e+01	-9.500782e+01
2.400000e-07	-5.381553e-06	-1.431311e-09	-3.758239e+01	-9.496598e+01
2.500000e-07	-5.371949e-06	-1.429426e-09	-3.751532e+01	-9.491872e+01
2.600000e-07	-5.361642e-06	-1.462005e-09	-3.744334e+01	-9.486577e+01
2.700000e-07	-5.350698e-06	-1.389660e-09	-3.736692e+01	-9.480688e+01
2.800000e-07	-5.339292e-06	-1.416962e-09	-3.728726e+01	-9.474181e+01
2.900000e-07	-5.327474e-06	-1.416103e-09	-3.720473e+01	-9.467033e+01
3.000000e-07	-5.315314e-06	-1.449313e-09	-3.711981e+01	-9.459223e+01
3.100000e-07	-5.302741e-06	-1.374949e-09	-3.703200e+01	-9.450732e+01
3.200000e-07	-5.289853e-06	-1.423549e-09	-3.694200e+01	-9.441540e+01
3.300000e-07	-5.276601e-06	-1.389248e-09	-3.684945e+01	-9.431631e+01
3.400000e-07	-5.263027e-06	-1.421287e-09	-3.675466e+01	-9.420991e+01
3.500000e-07	-5.249041e-06	-1.389651e-09	-3.665699e+01	-9.409605e+01
3.600000e-07	-5.234523e-06	-1.404544e-09	-3.655560e+01	-9.397463e+01
3.700000e-07	-5.219496e-06	-1.373083e-09	-3.645066e+01	-9.384554e+01
3.800000e-07	-5.203976e-06	-1.437413e-09	-3.634227e+01	-9.370873e+01
3.900000e-07	-5.187871e-06	-1.406558e-09	-3.622980e+01	-9.356412e+01
4.000000e-07	-5.171247e-06	-1.366796e-09	-3.611371e+01	-9.341169e+01
4.100000e-07	-5.154359e-06	-1.388207e-09	-3.599577e+01	-9.325141e+01
4.200000e-07	-5.137228e-06	-1.424363e-09	-3.587613e+01	-9.308329e+01
4.300000e-07	-5.119833e-06	-1.355119e-09	-3.575466e+01	-9.290736e+01
4.400000e-07	-5.102067e-06	-1.365072e-09	-3.563059e+01	-9.272364e+01
4.500000e-07	-5.083841e-06	-1.436882e-09	-3.550330e+01	-9.253221e+01
4.600000e-07	-5.065245e-06	-1.362775e-09	-3.537344e+01	-9.233314e+01
4.700000e-07	-5.046262e-06	-1.313546e-09	-3.524087e+01	-9.212653e+01
4.800000e-07	-5.026992e-06	-1.405566e-09	-3.510629e+01	-9.191248e+01
4.900000e-07	-5.007496e-06	-1.408313e-09	-3.497014e+01	-9.169113e+01
5.000000e-07	-4.987702e-06	-1.293942e-09	-3.483191e+01	-9.146260e+01
5.100000e-07	-4.967679e-06	-1.359393e-09	-3.469208e+01	-9.122707e+01
5.200000e-07	-4.947377e-06	-1.404627e-09	-3.455030e+01	-9.098469e+01
5.300000e-07	-4.926708e-06	-1.327780e-09	-3.440595e+01	-9.073564e+01
5.400000e-07	-4.905701e-06	-1.326517e-09	-3.425925e+01	-9.048011e+01
5.500000e-07	-4.884337e-06	-1.413408e-09	-3.411006e+01	-9.021829e+01
5.600000e-07	-4.862642e-06	-1.319107e-09	-3.395855e+01	-8.995038e+01
5.700000e-07	-4.840732e-06	-1.298962e-09	-3.380554e+01	-8.967660e+01
5.800000e-07	-4.818464e-06	-1.387034e-09	-3.365003e+01	-8.939715e+01
5.900000e-07	-4.795790e-06	-1.368829e-09	-3.349168e+01	-8.911224e+01
6.000000e-07	-4.772670e-06	-1.278521e-09	-3.333022e+01	-8.882210e+01
6.100000e-07	-4.749288e-06	-1.352045e-09	-3.316693e+01	-8.852692e+01
6.200000e-07	-4.725695e-06	-1.349457e-09	-3.300217e+01	-8.822694e+01
6.300000e-07	-4.701779e-06	-1.281463e-09	-3.283515e+01	-8.792235e+01
6.400000e-07	-4.677680e-06	-1.304524e-09	-3.266686e+01	-8.761335e+01
6.500000e-07	-4.653305e-06	-1.351374e-09	-3.249663e+01	-8.730015e+01
6.600000e-07	-4.628539e-06	-1.286751e-09	-3.232368e+01	-8.698293e+01
6.700000e-07	-4.603306e-06	-1.296301e-09	-3.214745e+01	-8.666187e+01
6.800000e-07	-4.577406e-06	-1.328765e-09	-3.196658e+01	-8.633715e+01
6.900000e-07	-4.550875e-06	-1.292999e-09	-3.178130e+01	-8.600891e+01
7.000000e-07	-4.523912e-06	-1.267253e-09	-3.159300e+01	-8.567730e+01
7.100000e-07	-4.496586e-06	-1.302595e-09	-3.140217e+01	-8.534247e+01
7.200000e-07	-4.468998e-06	-1.283586e-09	-3.120951e+01	-8.500452e+01
7.300000e-07	-4.441232e-06	-1.259329e-09	-3.101560e+01	-8.466355e+01
7.400000e-07	-4.413302e-06	-1.280538e-09	-3.082055e+01	-8.431966e+01
7.500000e-07	-4.385140e-06	-1.274681e-09	-3.062389e+01	-8.397292e+01
7.600000e-07	-4.356731e-06	-1.245133e-09	-3.042549e+01	-8.362338e+01
7.700000e-07	-4.328061e-06	-1.245999e-09	-3.022527e+01	-8.327108e+01
7.800000e-07	-4.299023e-06	-1.252383e-09	-3.002248e+01	-8.291604e+01
7.900000e-07	-4.269630e-06	-1.230698e-09	-2.981721e+01	-8.255826e+01
8.000000e-07	-4.239944e-06	-1.232687e-09	-2.960990e+01	-8.219774e+01
8.100000e-07	-4.210037e-06	-1.231017e-09	-2.940104e+01	-8.183445e+01
8.200000e-07	-4.179824e-06	-1.216337e-09	-2.919005e+01	-8.146834e+01
8.300000e-07	-4.149355e-06	-1.201262e-09	-2.897726e+01	-8.109935e+01
8.400000e-07	-4.118600e-06	-1.209759e-09	-2.876248e+01	-8.072741e+01
8.500000e-07	-4.087533e-06	-1.189517e-09	-2.854553e+01	-8.035243e+01
8.600000e-07	-4.056353e-06	-1.178566e-09	-2.832778e+01	-7.997432e+01
8.700000e-07	-4.024961e-06	-1.177464e-09	-2.810855e+01	-7.959295e+01
8.800000e-07	-3.993274e-06	-1.180457e-09	-2.788726e+01	-7.920820e+01
8.900000e-07	-3.961410e-06	-1.159413e-09	-2.766474e+01	-7.881996e+01
9.000000e-07	-3.929358e-06	-1.159542e-09	-2.744090e+01	-7.842806e+01
9.100000e-07	-3.897015e-06	-1.152437e-09	-2.721503e+01	-7.803237e+01
9.200000e-07	-3.864300e-06	-1.140406e-09	-2.698657e+01	-7.763274e+01
9.300000e-07	-3.831211e-06	-1.129281e-09	-2.675548e+01	-7.722900e+01
9.400000e-07	-3.797873e-06	-1.134191e-09	-2.652267e+01	-7.682100e+01
9.500000e-07	-3.764120e-06	-1.119385e-09	-2.628696e+01	-7.640858e+01
9.600000e-07	-3.729811e-06	-1.108157e-09	-2.604736e+01	-7.599158e+01
9.700000e-07	-3.695047e-06	-1.106540e-09	-2.580458e+01	-7.556985e+01
9.800000e-07	-3.659899e-06	-1.104190e-09	-2.555912e+01	-7.514322e+01
9.900000e-07	-3.624475e-06	-1.091134e-09	-2.531173e+01	-7.471156e+01
1.000000e-06	-3.588872e-06	-1.091440e-09	-2.506310e+01	-7.427472e+01
1.010000e-06	-3.553095e-06	-1.087043e-09	-2.481325e+01	-7.383257e+01
1.020000e-06	-3.517183e-06	-1.072267e-09	-2.456245e+01	-7.338498e+01
1.030000e-06	-3.481186e-06	-1.061616e-09	-2.431107e+01	-7.293185e+01
1.040000e-06	-3.445058e-06	-1.055494e-09	-2.405877e+01	-7.247307e+01
1.050000e-06	-3.408726e-06	-1.044614e-09	-2.380504e+01	-7.200855e+01
1.060000e-06	-3.372146e-06	-1.033955e-09	-2.354958e+01	-7.153821e+01
1.070000e-06	-3.335249e-06	-1.035527e-09	-2.329190e+01	-7.106199e+01
1.080000e-06	-3.298001e-06	-1.029109e-09	-2.303178e+01	-7.057985e+01
1.090000e-06	-3.260438e-06	-1.019872e-09	-2.276946e+01	-7.009174e+01
1.100000e-06	-3.222640e-06	-1.010271e-09	-2.250550e+01	-6.959766e+01
1.110000e-06	-3.184692e-06	-1.002004e-09	-2.224049e+01	-6.909758e+01
1.120000e-06	-3.146592e-06	-9.868864e-10	-2.197441e+01	-6.859154e+01
1.130000e-06	-3.108341e-06	-9.791966e-10	-2.170728e+01	-6.807954e+01
1.140000e-06	-3.069823e-06	-9.702778e-10	-2.143829e+01	-6.756163e+01
1.150000e-06	-3.031011e-06	-9.614782e-10	-2.116724e+01	-6.703786e+01
1.160000e-06	-2.992062e-06	-9.493304e-10	-2.089524e+01	-6.650829e+01
1.170000e-06	-2.952942e-06	-9.466928e-10	-2.062204e+01	-6.597299e+01
1.180000e-06	-2.913532e-06	-9.375894e-10	-2.034682e+01	-6.543205e+01
1.190000e-06	-2.873945e-06	-9.312449e-10	-2.007036e+01	-6.488556e+01
1.200000e-06	-2.834292e-06	-9.220599e-10	-1.979344e+01	-6.433361e+01
1.210000e-06	-2.794521e-06	-9.169797e-10	-1.951570e+01	-6.377631e+01
1.220000e-06	-2.754570e-06	-9.083467e-10	-1.923670e+01	-6.321377e+01
1.230000e-06	-2.714509e-06	-9.019666e-10	-1.895693e+01	-6.264608e+01
1.240000e-06	-2.674325e-06	-8.918331e-10	-1.867631e+01	-6.207336e+01
1.250000e-06	-2.633935e-06	-8.802082e-10	-1.839424e+01	-6.149570e+01
1.260000e-06	-2.593332e-06	-8.675422e-10	-1.811068e+01	-6.091321e+01
1.270000e-06	-2.552467e-06	-8.577142e-10	-1.782530e+01	-6.032597e+01
1.280000e-06	-2.511323e-06	-8.491423e-10	-1.753797e+01	-5.973406e+01
1.290000e-06	-2.469923e-06	-8.429438e-10	-1.724885e+01	-5.913754e+01
1.300000e-06	-2.428290e-06	-8.384346e-10	-1.695810e+01	-5.853648e+01
1.310000e-06	-2.386375e-06	-8.308705e-10	-1.666539e+01	-5.793090e+01
1.320000e-06	-2.344206e-06	-8.197922e-10	-1.637090e+01	-5.732081e+01
1.330000e-06	-2.301743e-06	-8.068456e-10	-1.607436e+01	-5.670623e+01
1.340000e-06	-2.258959e-06	-7.940399e-10	-1.577558e+01	-5.608711e+01
1.350000e-06	-2.215966e-06	-7.808318e-10	-1.547533e+01	-5.546341e+01
1.360000e-06	-2.172745e-06	-7.713078e-10	-1.517349e+01	-5.483505e+01
1.370000e-06	-2.129316e-06	-7.674332e-10	-1.487020e+01	-5.420191e+01
1.380000e-06	-2.085740e-06	-7.689526e-10	-1.456589e+01	-5.356388e+01
1.390000e-06	-2.042104e-06	-7.624868e-10	-1.426115e+01	-5.292077e+01
1.400000e-06	-1.998446e-06	-7.514205e-10	-1.395626e+01	-5.227240e+01
1.410000e-06	-1.954696e-06	-7.372558e-10	-1.365073e+01	-5.161854e+01
1.420000e-06	-1.910841e-06	-7.251782e-10	-1.334447e+01	-5.095892e+01
1.430000e-06	-1.866856e-06	-7.122034e-10	-1.303730e+01	-5.029325e+01
1.440000e-06	-1.822793e-06	-7.008397e-10	-1.272958e+01	-4.962122e+01
1.450000e-06	-1.778687e-06	-6.912775e-10	-1.242157e+01	-4.894246e+01
1.460000e-06	-1.734502e-06	-6.817528e-10	-1.211300e+01	-4.825659e+01
1.470000e-06	-1.690226e-06	-6.692521e-10	-1.180379e+01	-4.756319e+01
1.480000e-06	-1.645773e-06	-6.582952e-10	-1.149335e+01	-4.686183e+01
1.490000e-06	-1.601202e-06	-6.465415e-10	-1.118209e+01	-4.615203e+01
1.500000e-06	-1.556528e-06	-6.344008e-10	-1.087010e+01	-4.543329e+01
1.510000e-06	-1.511663e-06	-6.201153e-10	-1.055679e+01	-4.470511e+01
1.520000e-06	-1.466749e-06	-6.090130e-10	-1.024313e+01	-4.396695e+01
1.530000e-06	-1.421703e-06	-5.948732e-10	-9.928544e+00	-4.321826e+01
1.540000e-06	-1.376507e-06	-5.791995e-10	-9.612916e+00	-4.245846e+01
1.550000e-06	-1.331297e-06	-5.643249e-10	-9.297191e+00	-4.168699e+01
1.560000e-06	-1.285973e-06	-5.512283e-10	-8.980668e+00	-4.090326e+01
1.570000e-06	-1.240472e-06	-5.385065e-10	-8.662907e+00	-4.010668e+01
1.580000e-06	-1.194908e-06	-5.279556e-10	-8.344710e+00	-3.929667e+01
1.590000e-06	-1.149349e-06	-5.175777e-10	-8.026549e+00	-3.847265e+01
1.600000e-06	-1.103701e-06	-5.044186e-10	-7.707763e+00	-3.763404e+01
1.610000e-06	-1.057970e-06	-4.910353e-10	-7.388395e+00	-3.678029e+01
1.620000e-06	-1.012116e-06	-4.791099e-10	-7.068173e+00	-3.591085e+01
1.630000e-06	-9.661390e-07	-4.693672e-10	-6.747088e+00	-3.502519e+01
1.640000e-06	-9.201031e-07	-4.552957e-10	-6.425594e+00	-3.412283e+01
1.650000e-06	-8.739555e-07	-4.387322e-10	-6.103320e+00	-3.320329e+01
1.660000e-06	-8.278578e-07	-4.240235e-10	-5.781394e+00	-3.226614e+01
1.670000e-06	-7.817434e-07	-4.092750e-10	-5.459351e+00	-3.131098e+01
1.680000e-06	-7.355115e-07	-3.925886e-10	-5.136488e+00	-3.033747e+01
1.690000e-06	-6.892965e-07	-3.795111e-10	-4.813743e+00	-2.934528e+01
1.700000e-06	-6.429879e-07	-3.678300e-10	-4.490344e+00	-2.833417e+01
1.710000e-06	-5.966112e-07	-3.567660e-10	-4.166470e+00	-2.730391e+01
1.720000e-06	-5.501950e-07	-3.419732e-10	-3.842319e+00	-2.625436e+01
1.730000e-06	-5.037897e-07	-3.248396e-10	-3.518245e+00	-2.518543e+01
1.740000e-06	-4.574432e-07	-3.036762e-10	-3.194581e+00	-2.409707e+01
1.750000e-06	-4.110040e-07	-2.837713e-10	-2.870271e+00	-2.298931e+01
1.760000e-06	-3.644228e-07	-2.674836e-10	-2.544968e+00	-2.186224e+01
1.770000e-06	-3.178342e-07	-2.543916e-10	-2.219614e+00	-2.071603e+01
1.780000e-06	-2.712810e-07	-2.412546e-10	-1.894507e+00	-1.955089e+01
1.790000e-06	-2.247122e-07	-2.271893e-10	-1.569291e+00	-1.836712e+01
1.800000e-06	-1.780989e-07	-2.107162e-10	-1.243764e+00	-1.716506e+01
1.810000e-06	-1.314507e-07	-1.935099e-10	-9.179933e-01	-1.594516e+01
1.820000e-06	-8.474726e-08	-1.769968e-10	-5.918374e-01	-1.470789e+01
1.830000e-06	-3.804116e-08	-1.611575e-10	-2.656627e-01	-1.345382e+01
1.840000e-06	8.573719e-09	-1.452333e-10	5.987507e-02	-1.218356e+01
1.850000e-06	5.508822e-08	-1.293687e-10	3.847118e-01	-1.089781e+01
1.860000e-06	1.016135e-07	-1.140672e-10	7.096238e-01	-9.597314e+00
1.870000e-06	1.482086e-07	-9.571307e-11	1.035024e+00	-8.282868e+00
1.880000e-06	1.947447e-07	-7.589851e-11	1.360011e+00	-6.955333e+00
1.890000e-06	2.413226e-07	-5.615250e-11	1.685290e+00	-5.615621e+00
1.900000e-06	2.879022e-07	-3.619258e-11	2.010582e+00	-4.264691e+00
1.910000e-06	3.344558e-07	-1.751047e-11	2.335692e+00	-2.903546e+00
1.920000e-06	3.809566e-07	-1.075161e-12	2.660433e+00	-1.533231e+00
1.930000e-06	4.273434e-07	1.488488e-11	2.984378e+00	-1.548257e-01
1.940000e-06	4.737343e-07	3.208649e-11	3.308351e+00	1.230557e+00
1.950000e-06	5.201668e-07	5.218655e-11	3.632615e+00	2.621779e+00
1.960000e-06	5.665666e-07	7.366013e-11	3.956651e+00	4.017679e+00
1.970000e-06	6.128464e-07	9.500846e-11	4.279849e+00	5.417080e+00
1.980000e-06	6.590582e-07	1.134033e-10	4.602572e+00	6.818792e+00
1.990000e-06	7.052960e-07	1.300718e-10	4.925476e+00	8.221618e+00
2.000000e-06	7.514528e-07	1.456291e-10	5.247815e+00	9.624361e+00
2.010000e-06	7.974761e-07	1.655218e-10	5.569221e+00	1.102583e+01
2.020000e-06	8.434958e-07	1.894733e-10	5.890602e+00	1.242483e+01
2.030000e-06	8.894643e-07	2.133027e-10	6.211626e+00	1.382020e+01
2.040000e-06	9.353236e-07	2.339913e-10	6.531888e+00	1.521078e+01
2.050000e-06	9.811273e-07	2.511502e-10	6.851760e+00	1.659544e+01
2.060000e-06	1.026920e-06	2.672083e-10	7.171553e+00	1.797307e+01
2.070000e-06	1.072703e-06	2.856957e-10	7.491285e+00	1.934262e+01
2.080000e-06	1.118423e-06	3.072533e-10	7.810569e+00	2.070304e+01
2.090000e-06	1.164076e-06	3.307347e-10	8.129394e+00	2.205334e+01
2.100000e-06	1.209637e-06	3.531659e-10	8.447570e+00	2.339257e+01
2.110000e-06	1.255009e-06	3.719051e-10	8.764427e+00	2.471982e+01
2.120000e-06	1.300252e-06	3.869477e-10	9.080387e+00	2.603424e+01
2.130000e-06	1.345373e-06	4.021616e-10	9.395491e+00	2.733502e+01
2.140000e-06	1.390378e-06	4.197284e-10	9.709786e+00	2.862142e+01
2.150000e-06	1.435361e-06	4.381257e-10	1.002393e+01	2.989274e+01
2.160000e-06	1.480171e-06	4.579934e-10	1.033686e+01	3.114835e+01
2.170000e-06	1.524864e-06	4.787709e-10	1.064898e+01	3.238767e+01
2.180000e-06	1.569533e-06	5.001139e-10	1.096093e+01	3.361019e+01
2.190000e-06	1.614063e-06	5.183270e-10	1.127191e+01	3.481544e+01
2.200000e-06	1.658499e-06	5.324395e-10	1.158223e+01	3.600302e+01
2.210000e-06	1.702790e-06	5.439137e-10	1.189153e+01	3.717261e+01
2.220000e-06	1.746960e-06	5.569569e-10	1.220000e+01	3.832390e+01
2.230000e-06	1.791057e-06	5.728096e-10	1.250795e+01	3.945670e+01
2.240000e-06	1.835076e-06	5.896225e-10	1.281536e+01	4.057081e+01
2.250000e-06	1.879028e-06	6.062077e-10	1.312230e+01	4.166614e+01
2.260000e-06	1.922900e-06	6.216337e-10	1.342868e+01	4.274263e+01
2.270000e-06	1.966683e-06	6.419998e-10	1.373445e+01	4.380025e+01
2.280000e-06	2.010414e-06	6.615353e-10	1.403985e+01	4.483906e+01
2.290000e-06	2.054072e-06	6.780482e-10	1.434473e+01	4.585913e+01
2.300000e-06	2.097614e-06	6.885151e-10	1.464881e+01	4.686059e+01
2.310000e-06	2.141077e-06	6.975660e-10	1.495234e+01	4.784361e+01
2.320000e-06	2.184479e-06	7.108302e-10	1.525543e+01	4.880838e+01
2.330000e-06	2.227724e-06	7.246398e-10	1.555744e+01	4.975515e+01
2.340000e-06	2.270724e-06	7.416113e-10	1.585773e+01	5.068417e+01
2.350000e-06	2.313517e-06	7.622369e-10	1.615658e+01	5.159575e+01
2.360000e-06	2.356006e-06	7.821640e-10	1.645331e+01	5.249019e+01
2.370000e-06	2.398184e-06	7.941799e-10	1.674786e+01	5.336783e+01
2.380000e-06	2.439992e-06	8.030653e-10	1.703983e+01	5.422903e+01
2.390000e-06	2.481388e-06	8.118268e-10	1.732892e+01	5.507415e+01
2.400000e-06	2.522550e-06	8.200189e-10	1.761637e+01	5.590357e+01
2.410000e-06	2.563410e-06	8.282799e-10	1.790172e+01	5.671767e+01
2.420000e-06	2.603961e-06	8.408427e-10	1.818492e+01	5.751685e+01
2.430000e-06	2.644344e-06	8.582678e-10	1.846693e+01	5.830149e+01
2.440000e-06	2.684566e-06	8.731520e-10	1.874782e+01	5.907199e+01
2.450000e-06	2.724662e-06	8.844167e-10	1.902784e+01	5.982874e+01
2.460000e-06	2.764654e-06	8.971153e-10	1.930712e+01	6.057212e+01
2.470000e-06	2.804466e-06	9.073841e-10	1.958515e+01	6.130251e+01
2.480000e-06	2.844146e-06	9.161435e-10	1.986226e+01	6.202027e+01
2.490000e-06	2.883725e-06	9.254024e-10	2.013866e+01	6.272576e+01
2.500000e-06	2.923157e-06	9.332830e-10	2.041404e+01	6.341933e+01
2.510000e-06	2.962424e-06	9.409924e-10	2.068826e+01	6.410130e+01
2.520000e-06	3.001448e-06	9.523406e-10	2.096079e+01	6.477200e+01
2.530000e-06	3.040278e-06	9.643568e-10	2.123196e+01	6.543173e+01
2.540000e-06	3.078907e-06	9.743498e-10	2.150173e+01	6.608078e+01
2.550000e-06	3.117332e-06	9.845972e-10	2.177007e+01	6.671942e+01
2.560000e-06	3.155591e-06	9.940824e-10	2.203725e+01	6.734790e+01
2.570000e-06	3.193581e-06	1.001027e-09	2.230256e+01	6.796647e+01
2.580000e-06	3.231330e-06	1.007271e-09	2.256618e+01	6.857534e+01
2.590000e-06	3.268890e-06	1.014909e-09	2.282849e+01	6.917474e+01
2.600000e-06	3.306173e-06	1.022818e-09	2.308885e+01	6.976484e+01
2.610000e-06	3.343187e-06	1.029693e-09	2.334734e+01	7.034584e+01
2.620000e-06	3.379955e-06	1.036425e-09	2.360412e+01	7.091790e+01
2.630000e-06	3.416450e-06	1.044214e-09	2.385898e+01	7.148118e+01
2.640000e-06	3.452756e-06	1.052056e-09	2.411252e+01	7.203581e+01
2.650000e-06	3.488891e-06	1.060619e-09	2.436487e+01	7.258192e+01
2.660000e-06	3.524828e-06	1.067954e-09	2.461584e+01	7.311965e+01
2.670000e-06	3.560681e-06	1.071948e-09	2.486622e+01	7.364909e+01
2.680000e-06	3.596431e-06	1.077456e-09	2.511589e+01	7.417036e+01
2.690000e-06	3.631957e-06	1.085741e-09	2.536399e+01	7.468355e+01
2.700000e-06	3.667227e-06	1.094080e-09	2.561029e+01	7.518876e+01
2.710000e-06	3.702307e-06	1.101739e-09	2.585528e+01	7.568608e+01
2.720000e-06	3.737128e-06	1.110115e-09	2.609845e+01	7.617558e+01
2.730000e-06	3.771477e-06	1.117840e-09	2.633833e+01	7.665735e+01
2.740000e-06	3.805233e-06	1.121847e-09	2.657407e+01	7.713147e+01
2.750000e-06	3.838506e-06	1.125579e-09	2.680643e+01	7.759801e+01
2.760000e-06	3.871448e-06	1.132051e-09	2.703648e+01	7.805706e+01
2.770000e-06	3.904019e-06	1.140229e-09	2.726395e+01	7.850869e+01
2.780000e-06	3.936238e-06	1.148818e-09	2.748895e+01	7.895297e+01
2.790000e-06	3.968229e-06	1.158680e-09	2.771236e+01	7.939000e+01
2.800000e-06	4.000117e-06	1.165029e-09	2.793505e+01	7.981984e+01
2.810000e-06	4.031813e-06	1.169143e-09	2.815641e+01	8.024258e+01
2.820000e-06	4.063310e-06	1.175404e-09	2.837636e+01	8.065829e+01
2.830000e-06	4.094633e-06	1.182262e-09	2.859511e+01	8.106707e+01
2.840000e-06	4.125726e-06	1.189626e-09	2.881225e+01	8.146900e+01
2.850000e-06	4.156468e-06	1.199015e-09	2.902694e+01	8.186417e+01
2.860000e-06	4.186885e-06	1.207870e-09	2.923936e+01	8.225265e+01
2.870000e-06	4.217059e-06	1.214442e-09	2.945008e+01	8.263455e+01
2.880000e-06	4.246860e-06	1.220939e-09	2.965819e+01	8.300994e+01
2.890000e-06	4.276358e-06	1.228270e-09	2.986420e+01	8.337892e+01
2.900000e-06	4.305599e-06	1.235487e-09	3.006840e+01	8.374156e+01
