# Temperatura_=_-1.1
# Concentracion g/m^3_=_1620.0
# C_Vs_to_Am_M_A/Vsm_=_65563218390.804596
# pendiente_HvsI_1/m_=_3716.3
# ordenada_HvsI_A/m_=_1297.0
# frecuencia_Hz_=_135104.83537718255

Tiempo_(s)	Campo_(V.s)	Magnetizacion_(V.s)	Campo_(kA/m)	Magnetizacion_(A/m)
0.000000e+00	-5.513215e-06	-1.103226e-09	-3.836024e+01	-7.244132e+01
1.000000e-08	-5.513481e-06	-1.103806e-09	-3.836209e+01	-7.237531e+01
2.000000e-08	-5.513482e-06	-1.105399e-09	-3.836210e+01	-7.230709e+01
3.000000e-08	-5.513152e-06	-1.106430e-09	-3.835980e+01	-7.223663e+01
4.000000e-08	-5.512398e-06	-1.102311e-09	-3.835456e+01	-7.216389e+01
5.000000e-08	-5.511007e-06	-1.085641e-09	-3.834488e+01	-7.208887e+01
6.000000e-08	-5.509033e-06	-1.064354e-09	-3.833114e+01	-7.201154e+01
7.000000e-08	-5.506497e-06	-1.070464e-09	-3.831350e+01	-7.193189e+01
8.000000e-08	-5.503351e-06	-1.127176e-09	-3.829161e+01	-7.184994e+01
9.000000e-08	-5.499707e-06	-1.197957e-09	-3.826625e+01	-7.176570e+01
1.000000e-07	-5.495687e-06	-1.187375e-09	-3.823828e+01	-7.167919e+01
1.100000e-07	-5.491347e-06	-1.094893e-09	-3.820809e+01	-7.159044e+01
1.200000e-07	-5.486773e-06	-1.021179e-09	-3.817626e+01	-7.149950e+01
1.300000e-07	-5.481972e-06	-1.061514e-09	-3.814286e+01	-7.140642e+01
1.400000e-07	-5.476797e-06	-1.114275e-09	-3.810685e+01	-7.131125e+01
1.500000e-07	-5.471209e-06	-1.077454e-09	-3.806797e+01	-7.121406e+01
1.600000e-07	-5.465310e-06	-1.046646e-09	-3.802692e+01	-7.111493e+01
1.700000e-07	-5.459038e-06	-1.099630e-09	-3.798328e+01	-7.101394e+01
1.800000e-07	-5.452297e-06	-1.179404e-09	-3.793638e+01	-7.091118e+01
1.900000e-07	-5.445115e-06	-1.116029e-09	-3.788641e+01	-7.080673e+01
2.000000e-07	-5.437678e-06	-1.015844e-09	-3.783467e+01	-7.070068e+01
2.100000e-07	-5.430037e-06	-1.004778e-09	-3.778150e+01	-7.059314e+01
2.200000e-07	-5.422113e-06	-1.078281e-09	-3.772636e+01	-7.048420e+01
2.300000e-07	-5.413893e-06	-1.081011e-09	-3.766917e+01	-7.037396e+01
2.400000e-07	-5.405270e-06	-1.042253e-09	-3.760918e+01	-7.026250e+01
2.500000e-07	-5.395913e-06	-1.029800e-09	-3.754407e+01	-7.014992e+01
2.600000e-07	-5.385680e-06	-1.039076e-09	-3.747287e+01	-7.003630e+01
2.700000e-07	-5.374916e-06	-1.018072e-09	-3.739797e+01	-6.992173e+01
2.800000e-07	-5.363776e-06	-1.002590e-09	-3.732047e+01	-6.980627e+01
2.900000e-07	-5.352263e-06	-1.023606e-09	-3.724036e+01	-6.968999e+01
3.000000e-07	-5.340447e-06	-1.038836e-09	-3.715814e+01	-6.957295e+01
3.100000e-07	-5.328288e-06	-1.030187e-09	-3.707355e+01	-6.945520e+01
3.200000e-07	-5.315646e-06	-1.015387e-09	-3.698558e+01	-6.933676e+01
3.300000e-07	-5.302610e-06	-1.022261e-09	-3.689488e+01	-6.921767e+01
3.400000e-07	-5.289215e-06	-1.017684e-09	-3.680168e+01	-6.909793e+01
3.500000e-07	-5.275325e-06	-1.020533e-09	-3.670503e+01	-6.897755e+01
3.600000e-07	-5.260941e-06	-1.017142e-09	-3.660495e+01	-6.885651e+01
3.700000e-07	-5.246133e-06	-1.019736e-09	-3.650192e+01	-6.873480e+01
3.800000e-07	-5.230959e-06	-1.016225e-09	-3.639634e+01	-6.861236e+01
3.900000e-07	-5.215310e-06	-1.022256e-09	-3.628745e+01	-6.848917e+01
4.000000e-07	-5.199120e-06	-1.011670e-09	-3.617481e+01	-6.836515e+01
4.100000e-07	-5.182507e-06	-1.009462e-09	-3.605921e+01	-6.824023e+01
4.200000e-07	-5.165620e-06	-1.006785e-09	-3.594172e+01	-6.811434e+01
4.300000e-07	-5.148421e-06	-1.009238e-09	-3.582205e+01	-6.798739e+01
4.400000e-07	-5.130838e-06	-1.013405e-09	-3.569971e+01	-6.785927e+01
4.500000e-07	-5.112891e-06	-1.030306e-09	-3.557484e+01	-6.772988e+01
4.600000e-07	-5.094538e-06	-1.015332e-09	-3.544714e+01	-6.759911e+01
4.700000e-07	-5.075698e-06	-9.930857e-10	-3.531606e+01	-6.746684e+01
4.800000e-07	-5.056459e-06	-9.972708e-10	-3.518219e+01	-6.733295e+01
4.900000e-07	-5.036969e-06	-1.015163e-09	-3.504659e+01	-6.719732e+01
5.000000e-07	-5.017295e-06	-1.004384e-09	-3.490969e+01	-6.705983e+01
5.100000e-07	-4.997451e-06	-9.996746e-10	-3.477162e+01	-6.692036e+01
5.200000e-07	-4.977311e-06	-1.007925e-09	-3.463149e+01	-6.677878e+01
5.300000e-07	-4.956770e-06	-1.009448e-09	-3.448857e+01	-6.663499e+01
5.400000e-07	-4.935795e-06	-1.009727e-09	-3.434263e+01	-6.648886e+01
5.500000e-07	-4.914476e-06	-1.012458e-09	-3.419429e+01	-6.634030e+01
5.600000e-07	-4.892897e-06	-9.946093e-10	-3.404415e+01	-6.618920e+01
5.700000e-07	-4.870958e-06	-9.796400e-10	-3.389150e+01	-6.603549e+01
5.800000e-07	-4.848609e-06	-9.940578e-10	-3.373600e+01	-6.587907e+01
5.900000e-07	-4.825947e-06	-9.996641e-10	-3.357832e+01	-6.571988e+01
6.000000e-07	-4.802983e-06	-9.879568e-10	-3.341854e+01	-6.555786e+01
6.100000e-07	-4.779699e-06	-9.883230e-10	-3.325653e+01	-6.539296e+01
6.200000e-07	-4.756147e-06	-9.940439e-10	-3.309266e+01	-6.522515e+01
6.300000e-07	-4.732436e-06	-9.780718e-10	-3.292768e+01	-6.505441e+01
6.400000e-07	-4.708537e-06	-9.706171e-10	-3.276139e+01	-6.488071e+01
6.500000e-07	-4.684303e-06	-9.734398e-10	-3.259278e+01	-6.470407e+01
6.600000e-07	-4.659658e-06	-9.713654e-10	-3.242130e+01	-6.452450e+01
6.700000e-07	-4.634516e-06	-9.662495e-10	-3.224637e+01	-6.434201e+01
6.800000e-07	-4.608726e-06	-9.719511e-10	-3.206692e+01	-6.415664e+01
6.900000e-07	-4.582358e-06	-9.662830e-10	-3.188346e+01	-6.396843e+01
7.000000e-07	-4.555642e-06	-9.600983e-10	-3.169757e+01	-6.377743e+01
7.100000e-07	-4.528584e-06	-9.580291e-10	-3.150931e+01	-6.358371e+01
7.200000e-07	-4.501172e-06	-9.576422e-10	-3.131858e+01	-6.338732e+01
7.300000e-07	-4.473506e-06	-9.509479e-10	-3.112608e+01	-6.318834e+01
7.400000e-07	-4.445654e-06	-9.502141e-10	-3.093229e+01	-6.298683e+01
7.500000e-07	-4.417657e-06	-9.481164e-10	-3.073749e+01	-6.278287e+01
7.600000e-07	-4.389441e-06	-9.423525e-10	-3.054117e+01	-6.257654e+01
7.700000e-07	-4.360853e-06	-9.322605e-10	-3.034225e+01	-6.236791e+01
7.800000e-07	-4.331894e-06	-9.289035e-10	-3.014076e+01	-6.215705e+01
7.900000e-07	-4.302668e-06	-9.279294e-10	-2.993741e+01	-6.194402e+01
8.000000e-07	-4.273189e-06	-9.271147e-10	-2.973230e+01	-6.172889e+01
8.100000e-07	-4.243414e-06	-9.196594e-10	-2.952513e+01	-6.151170e+01
8.200000e-07	-4.213225e-06	-9.122827e-10	-2.931508e+01	-6.129251e+01
8.300000e-07	-4.182731e-06	-9.067740e-10	-2.910290e+01	-6.107133e+01
8.400000e-07	-4.152026e-06	-9.015355e-10	-2.888926e+01	-6.084821e+01
8.500000e-07	-4.121038e-06	-8.960041e-10	-2.867365e+01	-6.062313e+01
8.600000e-07	-4.089814e-06	-8.915946e-10	-2.845640e+01	-6.039611e+01
8.700000e-07	-4.058381e-06	-8.889353e-10	-2.823769e+01	-6.016711e+01
8.800000e-07	-4.026802e-06	-8.852479e-10	-2.801797e+01	-5.993611e+01
8.900000e-07	-3.995055e-06	-8.794492e-10	-2.779708e+01	-5.970306e+01
9.000000e-07	-3.963097e-06	-8.700268e-10	-2.757472e+01	-5.946789e+01
9.100000e-07	-3.930888e-06	-8.633191e-10	-2.735061e+01	-5.923053e+01
9.200000e-07	-3.898321e-06	-8.577562e-10	-2.712402e+01	-5.899088e+01
9.300000e-07	-3.865311e-06	-8.582107e-10	-2.689434e+01	-5.874883e+01
9.400000e-07	-3.831856e-06	-8.584821e-10	-2.666156e+01	-5.850425e+01
9.500000e-07	-3.797993e-06	-8.576118e-10	-2.642595e+01	-5.825702e+01
9.600000e-07	-3.763706e-06	-8.524872e-10	-2.618738e+01	-5.800698e+01
9.700000e-07	-3.728933e-06	-8.445403e-10	-2.594544e+01	-5.775397e+01
9.800000e-07	-3.693763e-06	-8.336477e-10	-2.570073e+01	-5.749782e+01
9.900000e-07	-3.658398e-06	-8.272063e-10	-2.545466e+01	-5.723836e+01
1.000000e-06	-3.622885e-06	-8.226609e-10	-2.520757e+01	-5.697539e+01
1.010000e-06	-3.587225e-06	-8.215826e-10	-2.495945e+01	-5.670874e+01
1.020000e-06	-3.551446e-06	-8.221076e-10	-2.471050e+01	-5.643821e+01
1.030000e-06	-3.515523e-06	-8.230551e-10	-2.446056e+01	-5.616361e+01
1.040000e-06	-3.479430e-06	-8.174452e-10	-2.420942e+01	-5.588474e+01
1.050000e-06	-3.443056e-06	-8.084930e-10	-2.395634e+01	-5.560142e+01
1.060000e-06	-3.406351e-06	-7.981459e-10	-2.370095e+01	-5.531346e+01
1.070000e-06	-3.369437e-06	-7.902971e-10	-2.344411e+01	-5.502069e+01
1.080000e-06	-3.332259e-06	-7.842675e-10	-2.318543e+01	-5.472293e+01
1.090000e-06	-3.294753e-06	-7.813974e-10	-2.292447e+01	-5.442002e+01
1.100000e-06	-3.257082e-06	-7.797862e-10	-2.266236e+01	-5.411183e+01
1.110000e-06	-3.219243e-06	-7.776853e-10	-2.239908e+01	-5.379821e+01
1.120000e-06	-3.181176e-06	-7.749683e-10	-2.213421e+01	-5.347905e+01
1.130000e-06	-3.142829e-06	-7.726903e-10	-2.186740e+01	-5.315425e+01
1.140000e-06	-3.104152e-06	-7.691361e-10	-2.159829e+01	-5.282372e+01
1.150000e-06	-3.065260e-06	-7.612501e-10	-2.132769e+01	-5.248739e+01
1.160000e-06	-3.026222e-06	-7.522362e-10	-2.105606e+01	-5.214522e+01
1.170000e-06	-2.987013e-06	-7.445261e-10	-2.078325e+01	-5.179717e+01
1.180000e-06	-2.947669e-06	-7.408891e-10	-2.050950e+01	-5.144323e+01
1.190000e-06	-2.908199e-06	-7.390461e-10	-2.023488e+01	-5.108340e+01
1.200000e-06	-2.868582e-06	-7.372322e-10	-1.995922e+01	-5.071771e+01
1.210000e-06	-2.828858e-06	-7.333596e-10	-1.968283e+01	-5.034619e+01
1.220000e-06	-2.789000e-06	-7.285903e-10	-1.940550e+01	-4.996891e+01
1.230000e-06	-2.748965e-06	-7.235081e-10	-1.912695e+01	-4.958592e+01
1.240000e-06	-2.708766e-06	-7.182827e-10	-1.884725e+01	-4.919730e+01
1.250000e-06	-2.668408e-06	-7.100391e-10	-1.856644e+01	-4.880315e+01
1.260000e-06	-2.627760e-06	-7.017803e-10	-1.828362e+01	-4.840357e+01
1.270000e-06	-2.586878e-06	-6.940096e-10	-1.799917e+01	-4.799865e+01
1.280000e-06	-2.545780e-06	-6.884779e-10	-1.771321e+01	-4.758851e+01
1.290000e-06	-2.504363e-06	-6.845597e-10	-1.742503e+01	-4.717326e+01
1.300000e-06	-2.462597e-06	-6.799326e-10	-1.713444e+01	-4.675299e+01
1.310000e-06	-2.420484e-06	-6.726617e-10	-1.684142e+01	-4.632781e+01
1.320000e-06	-2.378016e-06	-6.641094e-10	-1.654593e+01	-4.589782e+01
1.330000e-06	-2.335214e-06	-6.542826e-10	-1.624812e+01	-4.546309e+01
1.340000e-06	-2.292224e-06	-6.450596e-10	-1.594900e+01	-4.502369e+01
1.350000e-06	-2.249089e-06	-6.358748e-10	-1.564887e+01	-4.457966e+01
1.360000e-06	-2.205804e-06	-6.275619e-10	-1.534770e+01	-4.413105e+01
1.370000e-06	-2.162382e-06	-6.212393e-10	-1.504557e+01	-4.367785e+01
1.380000e-06	-2.118854e-06	-6.164866e-10	-1.474272e+01	-4.322005e+01
1.390000e-06	-2.075203e-06	-6.099622e-10	-1.443900e+01	-4.275759e+01
1.400000e-06	-2.031480e-06	-6.019755e-10	-1.413477e+01	-4.229040e+01
1.410000e-06	-1.987722e-06	-5.942626e-10	-1.383032e+01	-4.181838e+01
1.420000e-06	-1.943862e-06	-5.878444e-10	-1.352514e+01	-4.134136e+01
1.430000e-06	-1.899882e-06	-5.821647e-10	-1.321913e+01	-4.085918e+01
1.440000e-06	-1.855830e-06	-5.756626e-10	-1.291263e+01	-4.037162e+01
1.450000e-06	-1.811721e-06	-5.675186e-10	-1.260572e+01	-3.987842e+01
1.460000e-06	-1.767519e-06	-5.582039e-10	-1.229817e+01	-3.937929e+01
1.470000e-06	-1.723195e-06	-5.480155e-10	-1.198977e+01	-3.887390e+01
1.480000e-06	-1.678716e-06	-5.366465e-10	-1.168029e+01	-3.836187e+01
1.490000e-06	-1.634033e-06	-5.263588e-10	-1.136939e+01	-3.784280e+01
1.500000e-06	-1.589212e-06	-5.191836e-10	-1.105753e+01	-3.731626e+01
1.510000e-06	-1.544293e-06	-5.132576e-10	-1.074499e+01	-3.678176e+01
1.520000e-06	-1.499290e-06	-5.050459e-10	-1.043187e+01	-3.623880e+01
1.530000e-06	-1.454138e-06	-4.959579e-10	-1.011771e+01	-3.568684e+01
1.540000e-06	-1.408803e-06	-4.868235e-10	-9.802269e+00	-3.512531e+01
1.550000e-06	-1.363422e-06	-4.775562e-10	-9.486516e+00	-3.455363e+01
1.560000e-06	-1.317945e-06	-4.673710e-10	-9.170095e+00	-3.397118e+01
1.570000e-06	-1.272387e-06	-4.567486e-10	-8.853108e+00	-3.337735e+01
1.580000e-06	-1.226794e-06	-4.461940e-10	-8.535874e+00	-3.277149e+01
1.590000e-06	-1.181124e-06	-4.373456e-10	-8.218111e+00	-3.215296e+01
1.600000e-06	-1.135360e-06	-4.277034e-10	-7.899687e+00	-3.152111e+01
1.610000e-06	-1.089488e-06	-4.173527e-10	-7.580520e+00	-3.087529e+01
1.620000e-06	-1.043487e-06	-4.081920e-10	-7.260450e+00	-3.021486e+01
1.630000e-06	-9.974061e-07	-4.025121e-10	-6.939823e+00	-2.953919e+01
1.640000e-06	-9.512908e-07	-3.967813e-10	-6.618959e+00	-2.884767e+01
1.650000e-06	-9.051138e-07	-3.862134e-10	-6.297666e+00	-2.813971e+01
1.660000e-06	-8.588913e-07	-3.727736e-10	-5.976055e+00	-2.741474e+01
1.670000e-06	-8.126131e-07	-3.585711e-10	-5.654058e+00	-2.667223e+01
1.680000e-06	-7.663023e-07	-3.435142e-10	-5.331833e+00	-2.591169e+01
1.690000e-06	-7.198963e-07	-3.311214e-10	-5.008946e+00	-2.513266e+01
1.700000e-06	-6.734590e-07	-3.219303e-10	-4.685841e+00	-2.433473e+01
1.710000e-06	-6.270167e-07	-3.125897e-10	-4.362702e+00	-2.351754e+01
1.720000e-06	-5.804612e-07	-3.003550e-10	-4.038774e+00	-2.268080e+01
1.730000e-06	-5.339010e-07	-2.851504e-10	-3.714815e+00	-2.182427e+01
1.740000e-06	-4.873615e-07	-2.688522e-10	-3.390999e+00	-2.094775e+01
1.750000e-06	-4.407665e-07	-2.531433e-10	-3.066797e+00	-2.005113e+01
1.760000e-06	-3.941075e-07	-2.391730e-10	-2.742150e+00	-1.913436e+01
1.770000e-06	-3.473586e-07	-2.272713e-10	-2.416876e+00	-1.819747e+01
1.780000e-06	-3.005663e-07	-2.167098e-10	-2.091302e+00	-1.724054e+01
1.790000e-06	-2.538516e-07	-2.047995e-10	-1.766267e+00	-1.626374e+01
1.800000e-06	-2.071360e-07	-1.919877e-10	-1.441225e+00	-1.526730e+01
1.810000e-06	-1.602919e-07	-1.782318e-10	-1.115291e+00	-1.425153e+01
1.820000e-06	-1.134192e-07	-1.639239e-10	-7.891560e-01	-1.321682e+01
1.830000e-06	-6.663749e-08	-1.504414e-10	-4.636551e-01	-1.216362e+01
1.840000e-06	-1.988644e-08	-1.380312e-10	-1.383673e-01	-1.109246e+01
1.850000e-06	2.691452e-08	-1.259358e-10	1.872678e-01	-1.000393e+01
1.860000e-06	7.376909e-08	-1.143564e-10	5.132758e-01	-8.898702e+00
1.870000e-06	1.206157e-07	-1.001552e-10	8.392284e-01	-7.777493e+00
1.880000e-06	1.674121e-07	-8.199458e-11	1.164832e+00	-6.641094e+00
1.890000e-06	2.141410e-07	-6.241832e-11	1.489965e+00	-5.490350e+00
1.900000e-06	2.608730e-07	-4.444112e-11	1.815121e+00	-4.326161e+00
1.910000e-06	3.075657e-07	-2.904841e-11	2.140003e+00	-3.149475e+00
1.920000e-06	3.541668e-07	-1.574616e-11	2.464247e+00	-1.961285e+00
1.930000e-06	4.007821e-07	-3.306610e-12	2.788590e+00	-7.626259e-01
1.940000e-06	4.473711e-07	1.059802e-11	3.112751e+00	4.454338e-01
1.950000e-06	4.939468e-07	2.566017e-11	3.436818e+00	1.661795e+00
1.960000e-06	5.405415e-07	4.213716e-11	3.761018e+00	2.885334e+00
1.970000e-06	5.870077e-07	6.036450e-11	4.084324e+00	4.114908e+00
1.980000e-06	6.333380e-07	7.901164e-11	4.406684e+00	5.349360e+00
1.990000e-06	6.796508e-07	9.786250e-11	4.728923e+00	6.587524e+00
2.000000e-06	7.259628e-07	1.144902e-10	5.051156e+00	7.828233e+00
2.010000e-06	7.722996e-07	1.304420e-10	5.373561e+00	9.070320e+00
2.020000e-06	8.186468e-07	1.478645e-10	5.696039e+00	1.031263e+01
2.030000e-06	8.649313e-07	1.672459e-10	6.018081e+00	1.155400e+01
2.040000e-06	9.111480e-07	1.852623e-10	6.339650e+00	1.279333e+01
2.050000e-06	9.573180e-07	2.006243e-10	6.660896e+00	1.402949e+01
2.060000e-06	1.003370e-06	2.147370e-10	6.981322e+00	1.526141e+01
2.070000e-06	1.049269e-06	2.308013e-10	7.300676e+00	1.648803e+01
2.080000e-06	1.095071e-06	2.508393e-10	7.619360e+00	1.770835e+01
2.090000e-06	1.140778e-06	2.717509e-10	7.937390e+00	1.892137e+01
2.100000e-06	1.186410e-06	2.921053e-10	8.254885e+00	2.012616e+01
2.110000e-06	1.232039e-06	3.086548e-10	8.572366e+00	2.132183e+01
2.120000e-06	1.277572e-06	3.214786e-10	8.889181e+00	2.250752e+01
2.130000e-06	1.322931e-06	3.341633e-10	9.204787e+00	2.368242e+01
2.140000e-06	1.368245e-06	3.490472e-10	9.520075e+00	2.484579e+01
2.150000e-06	1.413527e-06	3.655585e-10	9.835142e+00	2.599690e+01
2.160000e-06	1.458701e-06	3.833243e-10	1.014945e+01	2.713511e+01
2.170000e-06	1.503767e-06	4.020929e-10	1.046302e+01	2.825981e+01
2.180000e-06	1.548751e-06	4.228155e-10	1.077601e+01	2.937043e+01
2.190000e-06	1.593600e-06	4.412608e-10	1.108806e+01	3.046647e+01
2.200000e-06	1.638301e-06	4.553829e-10	1.139909e+01	3.154746e+01
2.210000e-06	1.682864e-06	4.666116e-10	1.170915e+01	3.261300e+01
2.220000e-06	1.727278e-06	4.774456e-10	1.201818e+01	3.366272e+01
2.230000e-06	1.771609e-06	4.914789e-10	1.232663e+01	3.469629e+01
2.240000e-06	1.815798e-06	5.067568e-10	1.263409e+01	3.571344e+01
2.250000e-06	1.859803e-06	5.215434e-10	1.294027e+01	3.671392e+01
2.260000e-06	1.903708e-06	5.348851e-10	1.324576e+01	3.769753e+01
2.270000e-06	1.947556e-06	5.499761e-10	1.355085e+01	3.866412e+01
2.280000e-06	1.991338e-06	5.665013e-10	1.385547e+01	3.961354e+01
2.290000e-06	2.035061e-06	5.815951e-10	1.415969e+01	4.054570e+01
2.300000e-06	2.078759e-06	5.941343e-10	1.446374e+01	4.146052e+01
2.310000e-06	2.122364e-06	6.049308e-10	1.476714e+01	4.235796e+01
2.320000e-06	2.165849e-06	6.160543e-10	1.506970e+01	4.323799e+01
2.330000e-06	2.209234e-06	6.275948e-10	1.537157e+01	4.410062e+01
2.340000e-06	2.252461e-06	6.396309e-10	1.567233e+01	4.494586e+01
2.350000e-06	2.295568e-06	6.533646e-10	1.597227e+01	4.577375e+01
2.360000e-06	2.338525e-06	6.693643e-10	1.627115e+01	4.658432e+01
2.370000e-06	2.381211e-06	6.828322e-10	1.656816e+01	4.737765e+01
2.380000e-06	2.423588e-06	6.924046e-10	1.686302e+01	4.815379e+01
2.390000e-06	2.465628e-06	7.003978e-10	1.715552e+01	4.891284e+01
2.400000e-06	2.507370e-06	7.080032e-10	1.744596e+01	4.965488e+01
2.410000e-06	2.548760e-06	7.165569e-10	1.773394e+01	5.038001e+01
2.420000e-06	2.589833e-06	7.262163e-10	1.801973e+01	5.108831e+01
2.430000e-06	2.630704e-06	7.375029e-10	1.830410e+01	5.177990e+01
2.440000e-06	2.671325e-06	7.492310e-10	1.858673e+01	5.245489e+01
2.450000e-06	2.711669e-06	7.576344e-10	1.886745e+01	5.311338e+01
2.460000e-06	2.751826e-06	7.647208e-10	1.914685e+01	5.375549e+01
2.470000e-06	2.791814e-06	7.732326e-10	1.942508e+01	5.438135e+01
2.480000e-06	2.831611e-06	7.827074e-10	1.970199e+01	5.499106e+01
2.490000e-06	2.871332e-06	7.930955e-10	1.997836e+01	5.558478e+01
2.500000e-06	2.910997e-06	8.043613e-10	2.025434e+01	5.616261e+01
2.510000e-06	2.950502e-06	8.152139e-10	2.052922e+01	5.672471e+01
2.520000e-06	2.989753e-06	8.244658e-10	2.080232e+01	5.727121e+01
2.530000e-06	3.028853e-06	8.301780e-10	2.107437e+01	5.780228e+01
2.540000e-06	3.067798e-06	8.309416e-10	2.134535e+01	5.831806e+01
2.550000e-06	3.106457e-06	8.314620e-10	2.161433e+01	5.881873e+01
2.560000e-06	3.144851e-06	8.367878e-10	2.188147e+01	5.930446e+01
2.570000e-06	3.182949e-06	8.466328e-10	2.214655e+01	5.977544e+01
2.580000e-06	3.220793e-06	8.568651e-10	2.240987e+01	6.023188e+01
2.590000e-06	3.258517e-06	8.658027e-10	2.267235e+01	6.067399e+01
2.600000e-06	3.296090e-06	8.730671e-10	2.293377e+01	6.110199e+01
2.610000e-06	3.333465e-06	8.753499e-10	2.319382e+01	6.151612e+01
2.620000e-06	3.370660e-06	8.742021e-10	2.345262e+01	6.191665e+01
2.630000e-06	3.407571e-06	8.725589e-10	2.370944e+01	6.230384e+01
2.640000e-06	3.444154e-06	8.745549e-10	2.396398e+01	6.267798e+01
2.650000e-06	3.480448e-06	8.800913e-10	2.421651e+01	6.303936e+01
2.660000e-06	3.516585e-06	8.891252e-10	2.446795e+01	6.338831e+01
2.670000e-06	3.552565e-06	8.980216e-10	2.471829e+01	6.372516e+01
2.680000e-06	3.588375e-06	9.050770e-10	2.496745e+01	6.405026e+01
2.690000e-06	3.624095e-06	9.109774e-10	2.521599e+01	6.436396e+01
2.700000e-06	3.659625e-06	9.144954e-10	2.546320e+01	6.466664e+01
2.710000e-06	3.694914e-06	9.155321e-10	2.570874e+01	6.495868e+01
2.720000e-06	3.729929e-06	9.152273e-10	2.595237e+01	6.524049e+01
2.730000e-06	3.764618e-06	9.179388e-10	2.619373e+01	6.551247e+01
2.740000e-06	3.798993e-06	9.231424e-10	2.643291e+01	6.577503e+01
2.750000e-06	3.832947e-06	9.277915e-10	2.666915e+01	6.602860e+01
2.760000e-06	3.866361e-06	9.335555e-10	2.690164e+01	6.627361e+01
2.770000e-06	3.899365e-06	9.406517e-10	2.713128e+01	6.651047e+01
2.780000e-06	3.932047e-06	9.456312e-10	2.735868e+01	6.673964e+01
2.790000e-06	3.964386e-06	9.490950e-10	2.758369e+01	6.696152e+01
2.800000e-06	3.996387e-06	9.535311e-10	2.780635e+01	6.717656e+01
2.810000e-06	4.028153e-06	9.592095e-10	2.802737e+01	6.738517e+01
2.820000e-06	4.059779e-06	9.635442e-10	2.824742e+01	6.758776e+01
2.830000e-06	4.091225e-06	9.677292e-10	2.846622e+01	6.778473e+01
2.840000e-06	4.122464e-06	9.714575e-10	2.868357e+01	6.797648e+01
2.850000e-06	4.153430e-06	9.767569e-10	2.889904e+01	6.816339e+01
2.860000e-06	4.184057e-06	9.824899e-10	2.911213e+01	6.834580e+01
2.870000e-06	4.214403e-06	9.860646e-10	2.932327e+01	6.852408e+01
2.880000e-06	4.244443e-06	9.895860e-10	2.953229e+01	6.869853e+01
2.890000e-06	4.274233e-06	9.951859e-10	2.973957e+01	6.886946e+01
2.900000e-06	4.303776e-06	1.000439e-09	2.994512e+01	6.903714e+01
