# Temperatura_=_-4.41
# Concentracion g/m^3_=_1620.0
# C_Vs_to_Am_M_A/Vsm_=_65563218390.804596
# pendiente_HvsI_1/m_=_3716.3
# ordenada_HvsI_A/m_=_1297.0
# frecuencia_Hz_=_135109.56242854343

Tiempo_(s)	Campo_(V.s)	Magnetizacion_(V.s)	Campo_(kA/m)	Magnetizacion_(A/m)
0.000000e+00	-5.490217e-06	-7.681526e-10	-3.836338e+01	-5.147709e+01
1.000000e-08	-5.490417e-06	-7.691183e-10	-3.836478e+01	-5.146820e+01
2.000000e-08	-5.490304e-06	-7.730673e-10	-3.836399e+01	-5.146128e+01
3.000000e-08	-5.489703e-06	-7.776587e-10	-3.835979e+01	-5.145612e+01
4.000000e-08	-5.488588e-06	-7.740280e-10	-3.835200e+01	-5.145249e+01
5.000000e-08	-5.486937e-06	-7.550077e-10	-3.834046e+01	-5.145015e+01
6.000000e-08	-5.484665e-06	-7.366772e-10	-3.832458e+01	-5.144881e+01
7.000000e-08	-5.481814e-06	-7.545979e-10	-3.830466e+01	-5.144820e+01
8.000000e-08	-5.478503e-06	-8.240456e-10	-3.828153e+01	-5.144804e+01
9.000000e-08	-5.474784e-06	-8.758547e-10	-3.825554e+01	-5.144801e+01
1.000000e-07	-5.470644e-06	-8.254391e-10	-3.822661e+01	-5.144781e+01
1.100000e-07	-5.466272e-06	-7.175755e-10	-3.819607e+01	-5.144713e+01
1.200000e-07	-5.461697e-06	-6.891478e-10	-3.816409e+01	-5.144565e+01
1.300000e-07	-5.456823e-06	-7.704749e-10	-3.813004e+01	-5.144308e+01
1.400000e-07	-5.451534e-06	-8.038761e-10	-3.809308e+01	-5.143909e+01
1.500000e-07	-5.445842e-06	-7.286942e-10	-3.805331e+01	-5.143339e+01
1.600000e-07	-5.439826e-06	-7.149324e-10	-3.801127e+01	-5.142568e+01
1.700000e-07	-5.433334e-06	-7.935046e-10	-3.796591e+01	-5.141570e+01
1.800000e-07	-5.426417e-06	-8.635621e-10	-3.791757e+01	-5.140316e+01
1.900000e-07	-5.419157e-06	-7.664022e-10	-3.786684e+01	-5.138783e+01
2.000000e-07	-5.411613e-06	-7.088228e-10	-3.781413e+01	-5.136946e+01
2.100000e-07	-5.403867e-06	-7.547968e-10	-3.776000e+01	-5.134785e+01
2.200000e-07	-5.395925e-06	-8.436684e-10	-3.770450e+01	-5.132281e+01
2.300000e-07	-5.387627e-06	-8.078235e-10	-3.764652e+01	-5.129416e+01
2.400000e-07	-5.378768e-06	-7.602322e-10	-3.758462e+01	-5.126177e+01
2.500000e-07	-5.369263e-06	-7.685006e-10	-3.751820e+01	-5.122550e+01
2.600000e-07	-5.359073e-06	-7.868965e-10	-3.744700e+01	-5.118528e+01
2.700000e-07	-5.348255e-06	-7.576051e-10	-3.737141e+01	-5.114102e+01
2.800000e-07	-5.336922e-06	-7.509537e-10	-3.729222e+01	-5.109270e+01
2.900000e-07	-5.325193e-06	-7.936531e-10	-3.721026e+01	-5.104028e+01
3.000000e-07	-5.313213e-06	-7.827561e-10	-3.712655e+01	-5.098380e+01
3.100000e-07	-5.300913e-06	-7.495541e-10	-3.704060e+01	-5.092327e+01
3.200000e-07	-5.288163e-06	-7.393777e-10	-3.695151e+01	-5.085876e+01
3.300000e-07	-5.275044e-06	-7.747329e-10	-3.685984e+01	-5.079035e+01
3.400000e-07	-5.261572e-06	-7.551651e-10	-3.676570e+01	-5.071816e+01
3.500000e-07	-5.247573e-06	-7.577855e-10	-3.666788e+01	-5.064231e+01
3.600000e-07	-5.233158e-06	-7.751851e-10	-3.656715e+01	-5.056294e+01
3.700000e-07	-5.218348e-06	-7.953596e-10	-3.646367e+01	-5.048022e+01
3.800000e-07	-5.202957e-06	-7.592961e-10	-3.635613e+01	-5.039434e+01
3.900000e-07	-5.186934e-06	-7.581221e-10	-3.624416e+01	-5.030548e+01
4.000000e-07	-5.170463e-06	-7.653929e-10	-3.612907e+01	-5.021385e+01
4.100000e-07	-5.153680e-06	-7.622673e-10	-3.601180e+01	-5.011967e+01
4.200000e-07	-5.136557e-06	-7.389502e-10	-3.589215e+01	-5.002316e+01
4.300000e-07	-5.119195e-06	-7.627169e-10	-3.577083e+01	-4.992454e+01
4.400000e-07	-5.101539e-06	-7.853031e-10	-3.564746e+01	-4.982404e+01
4.500000e-07	-5.083433e-06	-7.817482e-10	-3.552094e+01	-4.972189e+01
4.600000e-07	-5.064816e-06	-7.552098e-10	-3.539085e+01	-4.961833e+01
4.700000e-07	-5.045825e-06	-7.587748e-10	-3.525815e+01	-4.951356e+01
4.800000e-07	-5.026552e-06	-7.647445e-10	-3.512348e+01	-4.940780e+01
4.900000e-07	-5.007091e-06	-7.621437e-10	-3.498749e+01	-4.930126e+01
5.000000e-07	-4.987456e-06	-7.509536e-10	-3.485030e+01	-4.919414e+01
5.100000e-07	-4.967568e-06	-7.526299e-10	-3.471132e+01	-4.908661e+01
5.200000e-07	-4.947384e-06	-7.562613e-10	-3.457029e+01	-4.897884e+01
5.300000e-07	-4.926833e-06	-7.614426e-10	-3.442669e+01	-4.887098e+01
5.400000e-07	-4.905916e-06	-7.646636e-10	-3.428052e+01	-4.876317e+01
5.500000e-07	-4.884622e-06	-7.517781e-10	-3.413173e+01	-4.865552e+01
5.600000e-07	-4.862933e-06	-7.346121e-10	-3.398018e+01	-4.854813e+01
5.700000e-07	-4.840944e-06	-7.366813e-10	-3.382653e+01	-4.844107e+01
5.800000e-07	-4.818647e-06	-7.518815e-10	-3.367072e+01	-4.833441e+01
5.900000e-07	-4.795985e-06	-7.456656e-10	-3.351237e+01	-4.822816e+01
6.000000e-07	-4.772987e-06	-7.345891e-10	-3.335167e+01	-4.812236e+01
6.100000e-07	-4.749739e-06	-7.320531e-10	-3.318922e+01	-4.801698e+01
6.200000e-07	-4.726356e-06	-7.319083e-10	-3.302583e+01	-4.791201e+01
6.300000e-07	-4.702717e-06	-7.167722e-10	-3.286065e+01	-4.780739e+01
6.400000e-07	-4.678768e-06	-7.185487e-10	-3.269331e+01	-4.770306e+01
6.500000e-07	-4.654551e-06	-7.236662e-10	-3.252409e+01	-4.759893e+01
6.600000e-07	-4.629928e-06	-7.255953e-10	-3.235203e+01	-4.749490e+01
6.700000e-07	-4.604781e-06	-7.207589e-10	-3.217632e+01	-4.739086e+01
6.800000e-07	-4.579086e-06	-7.257444e-10	-3.199677e+01	-4.728666e+01
6.900000e-07	-4.552859e-06	-7.152885e-10	-3.181351e+01	-4.718217e+01
7.000000e-07	-4.526112e-06	-7.074018e-10	-3.162661e+01	-4.707723e+01
7.100000e-07	-4.498899e-06	-7.066499e-10	-3.143646e+01	-4.697167e+01
7.200000e-07	-4.471396e-06	-7.149925e-10	-3.124428e+01	-4.686531e+01
7.300000e-07	-4.443735e-06	-7.107733e-10	-3.105100e+01	-4.675798e+01
7.400000e-07	-4.415979e-06	-7.067470e-10	-3.085704e+01	-4.664948e+01
7.500000e-07	-4.388033e-06	-7.030552e-10	-3.066177e+01	-4.653963e+01
7.600000e-07	-4.359766e-06	-7.023657e-10	-3.046425e+01	-4.642825e+01
7.700000e-07	-4.331212e-06	-6.963362e-10	-3.026473e+01	-4.631513e+01
7.800000e-07	-4.302355e-06	-6.976573e-10	-3.006309e+01	-4.620010e+01
7.900000e-07	-4.273162e-06	-7.003866e-10	-2.985910e+01	-4.608298e+01
8.000000e-07	-4.243661e-06	-6.975609e-10	-2.965296e+01	-4.596358e+01
8.100000e-07	-4.213855e-06	-6.891595e-10	-2.944468e+01	-4.584175e+01
8.200000e-07	-4.183759e-06	-6.852252e-10	-2.923439e+01	-4.571731e+01
8.300000e-07	-4.153355e-06	-6.827152e-10	-2.902194e+01	-4.559013e+01
8.400000e-07	-4.122680e-06	-6.773385e-10	-2.880759e+01	-4.546007e+01
8.500000e-07	-4.091798e-06	-6.739190e-10	-2.859180e+01	-4.532699e+01
8.600000e-07	-4.060669e-06	-6.735179e-10	-2.837428e+01	-4.519079e+01
8.700000e-07	-4.029324e-06	-6.700464e-10	-2.815526e+01	-4.505136e+01
8.800000e-07	-3.997794e-06	-6.643580e-10	-2.793494e+01	-4.490861e+01
8.900000e-07	-3.966078e-06	-6.631223e-10	-2.771332e+01	-4.476249e+01
9.000000e-07	-3.934179e-06	-6.552754e-10	-2.749042e+01	-4.461292e+01
9.100000e-07	-3.902086e-06	-6.501497e-10	-2.726617e+01	-4.445986e+01
9.200000e-07	-3.869638e-06	-6.483035e-10	-2.703944e+01	-4.430328e+01
9.300000e-07	-3.836666e-06	-6.498519e-10	-2.680904e+01	-4.414318e+01
9.400000e-07	-3.803228e-06	-6.463308e-10	-2.657539e+01	-4.397954e+01
9.500000e-07	-3.769355e-06	-6.449802e-10	-2.633870e+01	-4.381238e+01
9.600000e-07	-3.735035e-06	-6.381536e-10	-2.609889e+01	-4.364171e+01
9.700000e-07	-3.700250e-06	-6.318806e-10	-2.585582e+01	-4.346757e+01
9.800000e-07	-3.665173e-06	-6.273883e-10	-2.561072e+01	-4.329001e+01
9.900000e-07	-3.629905e-06	-6.273502e-10	-2.536429e+01	-4.310908e+01
1.000000e-06	-3.594413e-06	-6.242346e-10	-2.511628e+01	-4.292483e+01
1.010000e-06	-3.558786e-06	-6.238164e-10	-2.486733e+01	-4.273733e+01
1.020000e-06	-3.523021e-06	-6.245642e-10	-2.461742e+01	-4.254665e+01
1.030000e-06	-3.487150e-06	-6.223412e-10	-2.436677e+01	-4.235288e+01
1.040000e-06	-3.451090e-06	-6.158443e-10	-2.411480e+01	-4.215609e+01
1.050000e-06	-3.414703e-06	-6.126933e-10	-2.386054e+01	-4.195635e+01
1.060000e-06	-3.378066e-06	-6.070294e-10	-2.360454e+01	-4.175375e+01
1.070000e-06	-3.341202e-06	-6.028939e-10	-2.334695e+01	-4.154837e+01
1.080000e-06	-3.304015e-06	-6.025642e-10	-2.308710e+01	-4.134028e+01
1.090000e-06	-3.266554e-06	-6.028533e-10	-2.282534e+01	-4.112955e+01
1.100000e-06	-3.228888e-06	-6.005446e-10	-2.256214e+01	-4.091625e+01
1.110000e-06	-3.191018e-06	-5.978144e-10	-2.229753e+01	-4.070045e+01
1.120000e-06	-3.153013e-06	-5.946417e-10	-2.203196e+01	-4.048218e+01
1.130000e-06	-3.114848e-06	-5.910940e-10	-2.176528e+01	-4.026150e+01
1.140000e-06	-3.076377e-06	-5.882366e-10	-2.149646e+01	-4.003845e+01
1.150000e-06	-3.037627e-06	-5.835964e-10	-2.122569e+01	-3.981303e+01
1.160000e-06	-2.998750e-06	-5.784698e-10	-2.095403e+01	-3.958528e+01
1.170000e-06	-2.959671e-06	-5.735768e-10	-2.068096e+01	-3.935518e+01
1.180000e-06	-2.920358e-06	-5.720516e-10	-2.040626e+01	-3.912273e+01
1.190000e-06	-2.880875e-06	-5.698188e-10	-2.013037e+01	-3.888791e+01
1.200000e-06	-2.841221e-06	-5.658086e-10	-1.985328e+01	-3.865067e+01
1.210000e-06	-2.801502e-06	-5.603995e-10	-1.957575e+01	-3.841097e+01
1.220000e-06	-2.761696e-06	-5.569968e-10	-1.929759e+01	-3.816874e+01
1.230000e-06	-2.721685e-06	-5.519148e-10	-1.901802e+01	-3.792391e+01
1.240000e-06	-2.681499e-06	-5.465802e-10	-1.873721e+01	-3.767638e+01
1.250000e-06	-2.641189e-06	-5.406595e-10	-1.845554e+01	-3.742605e+01
1.260000e-06	-2.600657e-06	-5.367652e-10	-1.817232e+01	-3.717279e+01
1.270000e-06	-2.559899e-06	-5.311768e-10	-1.788752e+01	-3.691648e+01
1.280000e-06	-2.518930e-06	-5.291209e-10	-1.760125e+01	-3.665697e+01
1.290000e-06	-2.477611e-06	-5.270969e-10	-1.731253e+01	-3.639411e+01
1.300000e-06	-2.436013e-06	-5.218928e-10	-1.702186e+01	-3.612772e+01
1.310000e-06	-2.394142e-06	-5.135453e-10	-1.672928e+01	-3.585762e+01
1.320000e-06	-2.352010e-06	-5.053943e-10	-1.643488e+01	-3.558361e+01
1.330000e-06	-2.309650e-06	-4.981643e-10	-1.613888e+01	-3.530550e+01
1.340000e-06	-2.266978e-06	-4.944580e-10	-1.584071e+01	-3.502306e+01
1.350000e-06	-2.223959e-06	-4.940331e-10	-1.554011e+01	-3.473607e+01
1.360000e-06	-2.180705e-06	-4.908862e-10	-1.523787e+01	-3.444430e+01
1.370000e-06	-2.137300e-06	-4.863551e-10	-1.493458e+01	-3.414751e+01
1.380000e-06	-2.093793e-06	-4.806550e-10	-1.463056e+01	-3.384543e+01
1.390000e-06	-2.050213e-06	-4.746713e-10	-1.432605e+01	-3.353781e+01
1.400000e-06	-2.006527e-06	-4.669776e-10	-1.402079e+01	-3.322439e+01
1.410000e-06	-1.962813e-06	-4.611617e-10	-1.371533e+01	-3.290489e+01
1.420000e-06	-1.919044e-06	-4.615143e-10	-1.340949e+01	-3.257903e+01
1.430000e-06	-1.875199e-06	-4.634292e-10	-1.310312e+01	-3.224653e+01
1.440000e-06	-1.831291e-06	-4.631670e-10	-1.279631e+01	-3.190709e+01
1.450000e-06	-1.787307e-06	-4.575013e-10	-1.248896e+01	-3.156042e+01
1.460000e-06	-1.743200e-06	-4.465919e-10	-1.218076e+01	-3.120622e+01
1.470000e-06	-1.698915e-06	-4.348400e-10	-1.187132e+01	-3.084419e+01
1.480000e-06	-1.654463e-06	-4.258933e-10	-1.156071e+01	-3.047402e+01
1.490000e-06	-1.609884e-06	-4.222645e-10	-1.124921e+01	-3.009541e+01
1.500000e-06	-1.565209e-06	-4.236739e-10	-1.093704e+01	-2.970804e+01
1.510000e-06	-1.520442e-06	-4.253120e-10	-1.062422e+01	-2.931162e+01
1.520000e-06	-1.475548e-06	-4.215573e-10	-1.031052e+01	-2.890582e+01
1.530000e-06	-1.430526e-06	-4.122218e-10	-9.995930e+00	-2.849034e+01
1.540000e-06	-1.385398e-06	-3.975117e-10	-9.680589e+00	-2.806486e+01
1.550000e-06	-1.340219e-06	-3.828095e-10	-9.364897e+00	-2.762909e+01
1.560000e-06	-1.295008e-06	-3.688978e-10	-9.048986e+00	-2.718272e+01
1.570000e-06	-1.249695e-06	-3.571436e-10	-8.732354e+00	-2.672544e+01
1.580000e-06	-1.204236e-06	-3.543315e-10	-8.414704e+00	-2.625696e+01
1.590000e-06	-1.158602e-06	-3.582493e-10	-8.095836e+00	-2.577699e+01
1.600000e-06	-1.112865e-06	-3.599194e-10	-7.776241e+00	-2.528525e+01
1.610000e-06	-1.067171e-06	-3.553803e-10	-7.456955e+00	-2.478145e+01
1.620000e-06	-1.021454e-06	-3.457811e-10	-7.137500e+00	-2.426534e+01
1.630000e-06	-9.755871e-07	-3.335740e-10	-6.817002e+00	-2.373665e+01
1.640000e-06	-9.296343e-07	-3.208197e-10	-6.495902e+00	-2.319514e+01
1.650000e-06	-8.836349e-07	-3.081493e-10	-6.174477e+00	-2.264058e+01
1.660000e-06	-8.376080e-07	-2.981524e-10	-5.852861e+00	-2.207274e+01
1.670000e-06	-7.915294e-07	-2.901118e-10	-5.530882e+00	-2.149143e+01
1.680000e-06	-7.453813e-07	-2.826405e-10	-5.208418e+00	-2.089645e+01
1.690000e-06	-6.992443e-07	-2.764913e-10	-4.886032e+00	-2.028765e+01
1.700000e-06	-6.530096e-07	-2.696842e-10	-4.562963e+00	-1.966487e+01
1.710000e-06	-6.066665e-07	-2.598608e-10	-4.239136e+00	-1.902798e+01
1.720000e-06	-5.602870e-07	-2.455500e-10	-3.915055e+00	-1.837689e+01
1.730000e-06	-5.139151e-07	-2.298800e-10	-3.591028e+00	-1.771152e+01
1.740000e-06	-4.676125e-07	-2.146661e-10	-3.267484e+00	-1.703182e+01
1.750000e-06	-4.212241e-07	-2.034544e-10	-2.943341e+00	-1.633777e+01
1.760000e-06	-3.746916e-07	-1.963229e-10	-2.618191e+00	-1.562937e+01
1.770000e-06	-3.281041e-07	-1.898813e-10	-2.292657e+00	-1.490666e+01
1.780000e-06	-2.815211e-07	-1.826763e-10	-1.967154e+00	-1.416971e+01
1.790000e-06	-2.349191e-07	-1.707006e-10	-1.641518e+00	-1.341862e+01
1.800000e-06	-1.883617e-07	-1.547698e-10	-1.316194e+00	-1.265354e+01
1.810000e-06	-1.418931e-07	-1.397912e-10	-9.914904e-01	-1.187463e+01
1.820000e-06	-9.536066e-08	-1.283164e-10	-6.663411e-01	-1.108211e+01
1.830000e-06	-4.871217e-08	-1.204906e-10	-3.403806e-01	-1.027622e+01
1.840000e-06	-2.110138e-09	-1.126728e-10	-1.474478e-02	-9.457239e+00
1.850000e-06	4.441981e-08	-1.028113e-10	3.103874e-01	-8.625496e+00
1.860000e-06	9.102237e-08	-9.343795e-11	6.360269e-01	-7.781348e+00
1.870000e-06	1.376550e-07	-8.017998e-11	9.618768e-01	-6.925192e+00
1.880000e-06	1.841950e-07	-6.254007e-11	1.287079e+00	-6.057464e+00
1.890000e-06	2.307055e-07	-4.578992e-11	1.612075e+00	-5.178637e+00
1.900000e-06	2.772216e-07	-3.244791e-11	1.937110e+00	-4.289218e+00
1.910000e-06	3.237379e-07	-1.978537e-11	2.262147e+00	-3.389755e+00
1.920000e-06	3.702466e-07	-1.052428e-11	2.587131e+00	-2.480826e+00
1.930000e-06	4.166340e-07	-3.532181e-12	2.911267e+00	-1.563044e+00
1.940000e-06	4.629944e-07	8.085587e-12	3.235215e+00	-6.370558e-01
1.950000e-06	5.094000e-07	2.242976e-11	3.559478e+00	2.964641e-01
1.960000e-06	5.557480e-07	3.927138e-11	3.883339e+00	1.236811e+00
1.970000e-06	6.020362e-07	5.562994e-11	4.206781e+00	2.183256e+00
1.980000e-06	6.483112e-07	6.967918e-11	4.530132e+00	3.135044e+00
1.990000e-06	6.944854e-07	8.282950e-11	4.852779e+00	4.091399e+00
2.000000e-06	7.405630e-07	9.310703e-11	5.174750e+00	5.051526e+00
2.010000e-06	7.865543e-07	1.047246e-10	5.496118e+00	6.014615e+00
2.020000e-06	8.324916e-07	1.202225e-10	5.817109e+00	6.979841e+00
2.030000e-06	8.784553e-07	1.371890e-10	6.138284e+00	7.946369e+00
2.040000e-06	9.243841e-07	1.526421e-10	6.459216e+00	8.913358e+00
2.050000e-06	9.702584e-07	1.650666e-10	6.779767e+00	9.879962e+00
2.060000e-06	1.016100e-06	1.765218e-10	7.100089e+00	1.084533e+01
2.070000e-06	1.061839e-06	1.885362e-10	7.419693e+00	1.180863e+01
2.080000e-06	1.107449e-06	2.006416e-10	7.738400e+00	1.276900e+01
2.090000e-06	1.153002e-06	2.139284e-10	8.056703e+00	1.372563e+01
2.100000e-06	1.198462e-06	2.311759e-10	8.374360e+00	1.467769e+01
2.110000e-06	1.243863e-06	2.466439e-10	8.691600e+00	1.562437e+01
2.120000e-06	1.289210e-06	2.584388e-10	9.008467e+00	1.656490e+01
2.130000e-06	1.334471e-06	2.702515e-10	9.324733e+00	1.749849e+01
2.140000e-06	1.379628e-06	2.821039e-10	9.640270e+00	1.842442e+01
2.150000e-06	1.424678e-06	2.942069e-10	9.955063e+00	1.934196e+01
2.160000e-06	1.469637e-06	3.075119e-10	1.026922e+01	2.025042e+01
2.170000e-06	1.514457e-06	3.221174e-10	1.058240e+01	2.114914e+01
2.180000e-06	1.559055e-06	3.403011e-10	1.089404e+01	2.203750e+01
2.190000e-06	1.603575e-06	3.549512e-10	1.120512e+01	2.291490e+01
2.200000e-06	1.648039e-06	3.637870e-10	1.151582e+01	2.378078e+01
2.210000e-06	1.692335e-06	3.713492e-10	1.182534e+01	2.463463e+01
2.220000e-06	1.736495e-06	3.793469e-10	1.213392e+01	2.547596e+01
2.230000e-06	1.780516e-06	3.895657e-10	1.244152e+01	2.630433e+01
2.240000e-06	1.824465e-06	4.003310e-10	1.274861e+01	2.711934e+01
2.250000e-06	1.868382e-06	4.141662e-10	1.305548e+01	2.792062e+01
2.260000e-06	1.912246e-06	4.268171e-10	1.336199e+01	2.870785e+01
2.270000e-06	1.955977e-06	4.397184e-10	1.366756e+01	2.948074e+01
2.280000e-06	1.999575e-06	4.517913e-10	1.397221e+01	3.023905e+01
2.290000e-06	2.043151e-06	4.626071e-10	1.427670e+01	3.098257e+01
2.300000e-06	2.086703e-06	4.732448e-10	1.458102e+01	3.171114e+01
2.310000e-06	2.130142e-06	4.831981e-10	1.488455e+01	3.242462e+01
2.320000e-06	2.173444e-06	4.927885e-10	1.518713e+01	3.312292e+01
2.330000e-06	2.216679e-06	5.004410e-10	1.548924e+01	3.380598e+01
2.340000e-06	2.259811e-06	5.101255e-10	1.579063e+01	3.447376e+01
2.350000e-06	2.302706e-06	5.228210e-10	1.609036e+01	3.512628e+01
2.360000e-06	2.345369e-06	5.360417e-10	1.638847e+01	3.576356e+01
2.370000e-06	2.387677e-06	5.466913e-10	1.668411e+01	3.638566e+01
2.380000e-06	2.429626e-06	5.539689e-10	1.697723e+01	3.699267e+01
2.390000e-06	2.471285e-06	5.588971e-10	1.726833e+01	3.758468e+01
2.400000e-06	2.512543e-06	5.650559e-10	1.755662e+01	3.816183e+01
2.410000e-06	2.553528e-06	5.721318e-10	1.784301e+01	3.872427e+01
2.420000e-06	2.594229e-06	5.788631e-10	1.812741e+01	3.927215e+01
2.430000e-06	2.634660e-06	5.884928e-10	1.840992e+01	3.980566e+01
2.440000e-06	2.674872e-06	5.999207e-10	1.869090e+01	4.032498e+01
2.450000e-06	2.714845e-06	6.083877e-10	1.897022e+01	4.083031e+01
2.460000e-06	2.754674e-06	6.157088e-10	1.924853e+01	4.132186e+01
2.470000e-06	2.794428e-06	6.230252e-10	1.952632e+01	4.179985e+01
2.480000e-06	2.834085e-06	6.290977e-10	1.980342e+01	4.226449e+01
2.490000e-06	2.873635e-06	6.338183e-10	2.007978e+01	4.271601e+01
2.500000e-06	2.913142e-06	6.381559e-10	2.035584e+01	4.315462e+01
2.510000e-06	2.952419e-06	6.434316e-10	2.063029e+01	4.358057e+01
2.520000e-06	2.991450e-06	6.500996e-10	2.090302e+01	4.399406e+01
2.530000e-06	3.030345e-06	6.575624e-10	2.117480e+01	4.439532e+01
2.540000e-06	3.068971e-06	6.638534e-10	2.144471e+01	4.478457e+01
2.550000e-06	3.107292e-06	6.672444e-10	2.171248e+01	4.516203e+01
2.560000e-06	3.145379e-06	6.699384e-10	2.197862e+01	4.552791e+01
2.570000e-06	3.183282e-06	6.750986e-10	2.224346e+01	4.588240e+01
2.580000e-06	3.221005e-06	6.808154e-10	2.250706e+01	4.622573e+01
2.590000e-06	3.258539e-06	6.856746e-10	2.276933e+01	4.655808e+01
2.600000e-06	3.295876e-06	6.923281e-10	2.303023e+01	4.687964e+01
2.610000e-06	3.333034e-06	6.975108e-10	2.328987e+01	4.719061e+01
2.620000e-06	3.369954e-06	7.008567e-10	2.354786e+01	4.749117e+01
2.630000e-06	3.406547e-06	7.043442e-10	2.380355e+01	4.778150e+01
2.640000e-06	3.442863e-06	7.075359e-10	2.405731e+01	4.806177e+01
2.650000e-06	3.478937e-06	7.106849e-10	2.430938e+01	4.833217e+01
2.660000e-06	3.514859e-06	7.140697e-10	2.456039e+01	4.859286e+01
2.670000e-06	3.550662e-06	7.181445e-10	2.481057e+01	4.884401e+01
2.680000e-06	3.586297e-06	7.214846e-10	2.505957e+01	4.908580e+01
2.690000e-06	3.621846e-06	7.250548e-10	2.530797e+01	4.931839e+01
2.700000e-06	3.657271e-06	7.291538e-10	2.555550e+01	4.954196e+01
2.710000e-06	3.692444e-06	7.322605e-10	2.580128e+01	4.975667e+01
2.720000e-06	3.727322e-06	7.346945e-10	2.604500e+01	4.996270e+01
2.730000e-06	3.761904e-06	7.371874e-10	2.628664e+01	5.016023e+01
2.740000e-06	3.796030e-06	7.376062e-10	2.652510e+01	5.034944e+01
2.750000e-06	3.829564e-06	7.373865e-10	2.675942e+01	5.053051e+01
2.760000e-06	3.862559e-06	7.402259e-10	2.698998e+01	5.070363e+01
2.770000e-06	3.895045e-06	7.453518e-10	2.721697e+01	5.086899e+01
2.780000e-06	3.927209e-06	7.502554e-10	2.744172e+01	5.102679e+01
2.790000e-06	3.959200e-06	7.546160e-10	2.766526e+01	5.117723e+01
2.800000e-06	3.991009e-06	7.570448e-10	2.788753e+01	5.132051e+01
2.810000e-06	4.022664e-06	7.574850e-10	2.810872e+01	5.145686e+01
2.820000e-06	4.054174e-06	7.577306e-10	2.832890e+01	5.158648e+01
2.830000e-06	4.085493e-06	7.568765e-10	2.854775e+01	5.170960e+01
2.840000e-06	4.116551e-06	7.566565e-10	2.876477e+01	5.182644e+01
2.850000e-06	4.147291e-06	7.599717e-10	2.897957e+01	5.193722e+01
2.860000e-06	4.177655e-06	7.651825e-10	2.919173e+01	5.204217e+01
2.870000e-06	4.207683e-06	7.688466e-10	2.940156e+01	5.214153e+01
2.880000e-06	4.237483e-06	7.708674e-10	2.960979e+01	5.223552e+01
2.890000e-06	4.267086e-06	7.718913e-10	2.981664e+01	5.232438e+01
2.900000e-06	4.296469e-06	7.714774e-10	3.002196e+01	5.240833e+01
