# Temperatura_=_-29.17
# Concentracion g/m^3_=_1620.0
# C_Vs_to_Am_M_A/Vsm_=_65563218390.804596
# pendiente_HvsI_1/m_=_3716.3
# ordenada_HvsI_A/m_=_1297.0
# frecuencia_Hz_=_135110.0949852433

Tiempo_(s)	Campo_(V.s)	Magnetizacion_(V.s)	Campo_(kA/m)	Magnetizacion_(A/m)
0.000000e+00	-5.502716e-06	-7.647784e-10	-3.837168e+01	-5.048912e+01
1.000000e-08	-5.503048e-06	-7.620518e-10	-3.837399e+01	-5.045027e+01
2.000000e-08	-5.503179e-06	-7.617224e-10	-3.837490e+01	-5.041139e+01
3.000000e-08	-5.502985e-06	-7.637444e-10	-3.837355e+01	-5.037244e+01
4.000000e-08	-5.502316e-06	-7.606859e-10	-3.836888e+01	-5.033336e+01
5.000000e-08	-5.501104e-06	-7.489070e-10	-3.836043e+01	-5.029411e+01
6.000000e-08	-5.499172e-06	-7.373850e-10	-3.834696e+01	-5.025464e+01
7.000000e-08	-5.496558e-06	-7.546305e-10	-3.832873e+01	-5.021492e+01
8.000000e-08	-5.493510e-06	-7.955456e-10	-3.830748e+01	-5.017490e+01
9.000000e-08	-5.490018e-06	-8.058014e-10	-3.828312e+01	-5.013456e+01
1.000000e-07	-5.486101e-06	-7.721698e-10	-3.825582e+01	-5.009386e+01
1.100000e-07	-5.481923e-06	-7.698770e-10	-3.822668e+01	-5.005279e+01
1.200000e-07	-5.477530e-06	-7.476270e-10	-3.819605e+01	-5.001133e+01
1.300000e-07	-5.472814e-06	-7.252526e-10	-3.816316e+01	-4.996946e+01
1.400000e-07	-5.467764e-06	-7.219983e-10	-3.812795e+01	-4.992717e+01
1.500000e-07	-5.462332e-06	-7.400502e-10	-3.809007e+01	-4.988446e+01
1.600000e-07	-5.456442e-06	-7.604335e-10	-3.804900e+01	-4.984132e+01
1.700000e-07	-5.450086e-06	-7.433114e-10	-3.800467e+01	-4.979775e+01
1.800000e-07	-5.443298e-06	-7.579617e-10	-3.795734e+01	-4.975375e+01
1.900000e-07	-5.436234e-06	-8.101626e-10	-3.790808e+01	-4.970934e+01
2.000000e-07	-5.428921e-06	-7.792722e-10	-3.785709e+01	-4.966451e+01
2.100000e-07	-5.421353e-06	-7.291719e-10	-3.780431e+01	-4.961928e+01
2.200000e-07	-5.413575e-06	-6.905910e-10	-3.775007e+01	-4.957363e+01
2.300000e-07	-5.405495e-06	-7.283186e-10	-3.769373e+01	-4.952759e+01
2.400000e-07	-5.396914e-06	-7.268263e-10	-3.763389e+01	-4.948116e+01
2.500000e-07	-5.387781e-06	-7.222981e-10	-3.757021e+01	-4.943432e+01
2.600000e-07	-5.378074e-06	-7.258661e-10	-3.750252e+01	-4.938709e+01
2.700000e-07	-5.367671e-06	-7.328076e-10	-3.742998e+01	-4.933946e+01
2.800000e-07	-5.356682e-06	-7.075300e-10	-3.735335e+01	-4.929140e+01
2.900000e-07	-5.345260e-06	-7.049304e-10	-3.727370e+01	-4.924292e+01
3.000000e-07	-5.333438e-06	-7.181749e-10	-3.719126e+01	-4.919398e+01
3.100000e-07	-5.321257e-06	-7.089842e-10	-3.710632e+01	-4.914456e+01
3.200000e-07	-5.308716e-06	-7.137327e-10	-3.701887e+01	-4.909462e+01
3.300000e-07	-5.295793e-06	-7.251669e-10	-3.692876e+01	-4.904412e+01
3.400000e-07	-5.282459e-06	-7.354318e-10	-3.683578e+01	-4.899302e+01
3.500000e-07	-5.268724e-06	-7.119875e-10	-3.674000e+01	-4.894125e+01
3.600000e-07	-5.254562e-06	-7.304714e-10	-3.664124e+01	-4.888876e+01
3.700000e-07	-5.239874e-06	-7.092331e-10	-3.653882e+01	-4.883547e+01
3.800000e-07	-5.224663e-06	-7.057494e-10	-3.643275e+01	-4.878130e+01
3.900000e-07	-5.209021e-06	-7.294989e-10	-3.632368e+01	-4.872619e+01
4.000000e-07	-5.192975e-06	-7.501257e-10	-3.621178e+01	-4.867002e+01
4.100000e-07	-5.176462e-06	-7.079190e-10	-3.609663e+01	-4.861271e+01
4.200000e-07	-5.159568e-06	-7.193254e-10	-3.597883e+01	-4.855416e+01
4.300000e-07	-5.142405e-06	-7.399449e-10	-3.585914e+01	-4.849426e+01
4.400000e-07	-5.124868e-06	-7.041570e-10	-3.573685e+01	-4.843290e+01
4.500000e-07	-5.106915e-06	-6.858699e-10	-3.561166e+01	-4.836997e+01
4.600000e-07	-5.088623e-06	-7.448252e-10	-3.548411e+01	-4.830535e+01
4.700000e-07	-5.069973e-06	-7.250960e-10	-3.535406e+01	-4.823893e+01
4.800000e-07	-5.050982e-06	-6.871888e-10	-3.522163e+01	-4.817060e+01
4.900000e-07	-5.031705e-06	-7.258675e-10	-3.508721e+01	-4.810024e+01
5.000000e-07	-5.012136e-06	-7.397022e-10	-3.495075e+01	-4.802773e+01
5.100000e-07	-4.992282e-06	-6.716082e-10	-3.481231e+01	-4.795297e+01
5.200000e-07	-4.972155e-06	-6.902692e-10	-3.467196e+01	-4.787586e+01
5.300000e-07	-4.951766e-06	-7.358714e-10	-3.452978e+01	-4.779628e+01
5.400000e-07	-4.931085e-06	-6.975203e-10	-3.438556e+01	-4.771415e+01
5.500000e-07	-4.910043e-06	-6.893364e-10	-3.423883e+01	-4.762939e+01
5.600000e-07	-4.888675e-06	-7.392651e-10	-3.408983e+01	-4.754190e+01
5.700000e-07	-4.866952e-06	-7.067628e-10	-3.393835e+01	-4.745163e+01
5.800000e-07	-4.844829e-06	-6.658399e-10	-3.378408e+01	-4.735851e+01
5.900000e-07	-4.822290e-06	-7.101924e-10	-3.362691e+01	-4.726248e+01
6.000000e-07	-4.799362e-06	-7.125708e-10	-3.346703e+01	-4.716353e+01
6.100000e-07	-4.776125e-06	-6.717901e-10	-3.330499e+01	-4.706160e+01
6.200000e-07	-4.752663e-06	-6.968806e-10	-3.314138e+01	-4.695670e+01
6.300000e-07	-4.729011e-06	-7.207800e-10	-3.297646e+01	-4.684880e+01
6.400000e-07	-4.705146e-06	-6.799299e-10	-3.281004e+01	-4.673793e+01
6.500000e-07	-4.681001e-06	-6.818834e-10	-3.264167e+01	-4.662410e+01
6.600000e-07	-4.656468e-06	-7.034220e-10	-3.247060e+01	-4.650733e+01
6.700000e-07	-4.631447e-06	-6.837592e-10	-3.229612e+01	-4.638769e+01
6.800000e-07	-4.605824e-06	-6.731593e-10	-3.211744e+01	-4.626521e+01
6.900000e-07	-4.579632e-06	-7.017994e-10	-3.193480e+01	-4.613996e+01
7.000000e-07	-4.552983e-06	-6.910616e-10	-3.174898e+01	-4.601202e+01
7.100000e-07	-4.525999e-06	-6.763628e-10	-3.156080e+01	-4.588147e+01
7.200000e-07	-4.498751e-06	-6.838413e-10	-3.137080e+01	-4.574840e+01
7.300000e-07	-4.471244e-06	-6.838442e-10	-3.117899e+01	-4.561291e+01
7.400000e-07	-4.443526e-06	-6.640549e-10	-3.098570e+01	-4.547510e+01
7.500000e-07	-4.415639e-06	-6.710957e-10	-3.079124e+01	-4.533509e+01
7.600000e-07	-4.387570e-06	-6.751564e-10	-3.059551e+01	-4.519299e+01
7.700000e-07	-4.359173e-06	-6.674383e-10	-3.039749e+01	-4.504891e+01
7.800000e-07	-4.330402e-06	-6.638835e-10	-3.019687e+01	-4.490298e+01
7.900000e-07	-4.301319e-06	-6.705915e-10	-2.999407e+01	-4.475530e+01
8.000000e-07	-4.271895e-06	-6.620796e-10	-2.978888e+01	-4.460601e+01
8.100000e-07	-4.242194e-06	-6.560631e-10	-2.958177e+01	-4.445520e+01
8.200000e-07	-4.212217e-06	-6.570700e-10	-2.937274e+01	-4.430300e+01
8.300000e-07	-4.181936e-06	-6.526810e-10	-2.916158e+01	-4.414950e+01
8.400000e-07	-4.151340e-06	-6.441230e-10	-2.894823e+01	-4.399480e+01
8.500000e-07	-4.120412e-06	-6.449236e-10	-2.873256e+01	-4.383900e+01
8.600000e-07	-4.089252e-06	-6.436394e-10	-2.851527e+01	-4.368218e+01
8.700000e-07	-4.057907e-06	-6.352690e-10	-2.829670e+01	-4.352441e+01
8.800000e-07	-4.026365e-06	-6.363444e-10	-2.807675e+01	-4.336574e+01
8.900000e-07	-3.994642e-06	-6.414908e-10	-2.785553e+01	-4.320625e+01
9.000000e-07	-3.962717e-06	-6.367526e-10	-2.763291e+01	-4.304595e+01
9.100000e-07	-3.930550e-06	-6.294975e-10	-2.740861e+01	-4.288489e+01
9.200000e-07	-3.898067e-06	-6.285475e-10	-2.718210e+01	-4.272307e+01
9.300000e-07	-3.865208e-06	-6.191867e-10	-2.695296e+01	-4.256049e+01
9.400000e-07	-3.831883e-06	-6.146417e-10	-2.672058e+01	-4.239715e+01
9.500000e-07	-3.798113e-06	-6.180691e-10	-2.648510e+01	-4.223302e+01
9.600000e-07	-3.763999e-06	-6.188898e-10	-2.624721e+01	-4.206807e+01
9.700000e-07	-3.729547e-06	-6.104432e-10	-2.600697e+01	-4.190223e+01
9.800000e-07	-3.694715e-06	-6.094349e-10	-2.576407e+01	-4.173546e+01
9.900000e-07	-3.659520e-06	-6.068012e-10	-2.551865e+01	-4.156767e+01
1.000000e-06	-3.624137e-06	-6.012084e-10	-2.527192e+01	-4.139879e+01
1.010000e-06	-3.588578e-06	-5.965408e-10	-2.502396e+01	-4.122871e+01
1.020000e-06	-3.552797e-06	-5.983270e-10	-2.477445e+01	-4.105734e+01
1.030000e-06	-3.516863e-06	-5.941737e-10	-2.452387e+01	-4.088456e+01
1.040000e-06	-3.480770e-06	-5.912949e-10	-2.427219e+01	-4.071025e+01
1.050000e-06	-3.444499e-06	-5.915172e-10	-2.401927e+01	-4.053429e+01
1.060000e-06	-3.407928e-06	-5.899792e-10	-2.376425e+01	-4.035655e+01
1.070000e-06	-3.371002e-06	-5.815510e-10	-2.350676e+01	-4.017688e+01
1.080000e-06	-3.333785e-06	-5.787432e-10	-2.324723e+01	-3.999517e+01
1.090000e-06	-3.296376e-06	-5.765972e-10	-2.298637e+01	-3.981126e+01
1.100000e-06	-3.258865e-06	-5.703890e-10	-2.272480e+01	-3.962503e+01
1.110000e-06	-3.221168e-06	-5.659612e-10	-2.246193e+01	-3.943633e+01
1.120000e-06	-3.183245e-06	-5.664846e-10	-2.219749e+01	-3.924502e+01
1.130000e-06	-3.145071e-06	-5.648453e-10	-2.193129e+01	-3.905098e+01
1.140000e-06	-3.106638e-06	-5.622274e-10	-2.166328e+01	-3.885408e+01
1.150000e-06	-3.067968e-06	-5.594105e-10	-2.139363e+01	-3.865420e+01
1.160000e-06	-3.029036e-06	-5.527224e-10	-2.112215e+01	-3.845122e+01
1.170000e-06	-2.989924e-06	-5.445880e-10	-2.084941e+01	-3.824502e+01
1.180000e-06	-2.950708e-06	-5.412845e-10	-2.057595e+01	-3.803551e+01
1.190000e-06	-2.911322e-06	-5.423360e-10	-2.030130e+01	-3.782258e+01
1.200000e-06	-2.871785e-06	-5.409118e-10	-2.002560e+01	-3.760616e+01
1.210000e-06	-2.832119e-06	-5.407868e-10	-1.974900e+01	-3.738615e+01
1.220000e-06	-2.792294e-06	-5.404430e-10	-1.947129e+01	-3.716249e+01
1.230000e-06	-2.752339e-06	-5.352370e-10	-1.919268e+01	-3.693510e+01
1.240000e-06	-2.712289e-06	-5.246814e-10	-1.891340e+01	-3.670394e+01
1.250000e-06	-2.672054e-06	-5.176021e-10	-1.863283e+01	-3.646894e+01
1.260000e-06	-2.631548e-06	-5.126709e-10	-1.835037e+01	-3.623007e+01
1.270000e-06	-2.590792e-06	-5.101402e-10	-1.806618e+01	-3.598727e+01
1.280000e-06	-2.549724e-06	-5.088422e-10	-1.777980e+01	-3.574052e+01
1.290000e-06	-2.508360e-06	-5.106251e-10	-1.749135e+01	-3.548979e+01
1.300000e-06	-2.466780e-06	-5.097279e-10	-1.720141e+01	-3.523503e+01
1.310000e-06	-2.424892e-06	-5.045104e-10	-1.690931e+01	-3.497622e+01
1.320000e-06	-2.382666e-06	-4.950347e-10	-1.661487e+01	-3.471334e+01
1.330000e-06	-2.340269e-06	-4.872252e-10	-1.631922e+01	-3.444635e+01
1.340000e-06	-2.297671e-06	-4.811712e-10	-1.602218e+01	-3.417522e+01
1.350000e-06	-2.254755e-06	-4.784353e-10	-1.572291e+01	-3.389990e+01
1.360000e-06	-2.211594e-06	-4.786106e-10	-1.542194e+01	-3.362037e+01
1.370000e-06	-2.168230e-06	-4.790945e-10	-1.511955e+01	-3.333655e+01
1.380000e-06	-2.124750e-06	-4.784161e-10	-1.481636e+01	-3.304840e+01
1.390000e-06	-2.081219e-06	-4.760443e-10	-1.451281e+01	-3.275585e+01
1.400000e-06	-2.037611e-06	-4.704339e-10	-1.420872e+01	-3.245881e+01
1.410000e-06	-1.993901e-06	-4.621109e-10	-1.390392e+01	-3.215719e+01
1.420000e-06	-1.950131e-06	-4.538242e-10	-1.359870e+01	-3.185089e+01
1.430000e-06	-1.906291e-06	-4.484267e-10	-1.329300e+01	-3.153977e+01
1.440000e-06	-1.862317e-06	-4.446120e-10	-1.298635e+01	-3.122372e+01
1.450000e-06	-1.818200e-06	-4.408531e-10	-1.267871e+01	-3.090256e+01
1.460000e-06	-1.773948e-06	-4.370137e-10	-1.237014e+01	-3.057614e+01
1.470000e-06	-1.729637e-06	-4.317601e-10	-1.206115e+01	-3.024427e+01
1.480000e-06	-1.685223e-06	-4.236716e-10	-1.175144e+01	-2.990673e+01
1.490000e-06	-1.640606e-06	-4.152127e-10	-1.144032e+01	-2.956332e+01
1.500000e-06	-1.595831e-06	-4.097343e-10	-1.112809e+01	-2.921378e+01
1.510000e-06	-1.550983e-06	-4.043287e-10	-1.081535e+01	-2.885787e+01
1.520000e-06	-1.506035e-06	-3.988007e-10	-1.050192e+01	-2.849531e+01
1.530000e-06	-1.460908e-06	-3.942278e-10	-1.018724e+01	-2.812581e+01
1.540000e-06	-1.415696e-06	-3.876522e-10	-9.871968e+00	-2.774908e+01
1.550000e-06	-1.370443e-06	-3.766508e-10	-9.556404e+00	-2.736480e+01
1.560000e-06	-1.325089e-06	-3.653287e-10	-9.240141e+00	-2.697263e+01
1.570000e-06	-1.279640e-06	-3.553273e-10	-8.923219e+00	-2.657225e+01
1.580000e-06	-1.234070e-06	-3.466270e-10	-8.605446e+00	-2.616330e+01
1.590000e-06	-1.188387e-06	-3.422888e-10	-8.286891e+00	-2.574544e+01
1.600000e-06	-1.142647e-06	-3.404010e-10	-7.967937e+00	-2.531831e+01
1.610000e-06	-1.096842e-06	-3.335201e-10	-7.648529e+00	-2.488154e+01
1.620000e-06	-1.051005e-06	-3.241189e-10	-7.328895e+00	-2.443478e+01
1.630000e-06	-1.005104e-06	-3.164154e-10	-7.008817e+00	-2.397767e+01
1.640000e-06	-9.590534e-07	-3.137707e-10	-6.687695e+00	-2.350986e+01
1.650000e-06	-9.129407e-07	-3.089143e-10	-6.366140e+00	-2.303100e+01
1.660000e-06	-8.667318e-07	-3.000691e-10	-6.043916e+00	-2.254076e+01
1.670000e-06	-8.204172e-07	-2.894252e-10	-5.720953e+00	-2.203882e+01
1.680000e-06	-7.741469e-07	-2.794883e-10	-5.398300e+00	-2.152487e+01
1.690000e-06	-7.278975e-07	-2.723373e-10	-5.075792e+00	-2.099862e+01
1.700000e-06	-6.815337e-07	-2.660997e-10	-4.752487e+00	-2.045980e+01
1.710000e-06	-6.351386e-07	-2.595180e-10	-4.428964e+00	-1.990816e+01
1.720000e-06	-5.887738e-07	-2.518756e-10	-4.105652e+00	-1.934349e+01
1.730000e-06	-5.424253e-07	-2.406032e-10	-3.782453e+00	-1.876560e+01
1.740000e-06	-4.960521e-07	-2.269902e-10	-3.459083e+00	-1.817431e+01
1.750000e-06	-4.495393e-07	-2.133432e-10	-3.134738e+00	-1.756949e+01
1.760000e-06	-4.029897e-07	-2.003115e-10	-2.810138e+00	-1.695106e+01
1.770000e-06	-3.563865e-07	-1.909655e-10	-2.485163e+00	-1.631893e+01
1.780000e-06	-3.097462e-07	-1.860941e-10	-2.159930e+00	-1.567309e+01
1.790000e-06	-2.631610e-07	-1.820649e-10	-1.835080e+00	-1.501354e+01
1.800000e-06	-2.165985e-07	-1.771238e-10	-1.510390e+00	-1.434033e+01
1.810000e-06	-1.700606e-07	-1.692187e-10	-1.185871e+00	-1.365355e+01
1.820000e-06	-1.235089e-07	-1.560008e-10	-8.612554e-01	-1.295332e+01
1.830000e-06	-7.688980e-08	-1.431876e-10	-5.361699e-01	-1.223981e+01
1.840000e-06	-3.022862e-08	-1.327453e-10	-2.107909e-01	-1.151322e+01
1.850000e-06	1.639648e-08	-1.235130e-10	1.143364e-01	-1.077380e+01
1.860000e-06	6.311900e-08	-1.143024e-10	4.401430e-01	-1.002183e+01
1.870000e-06	1.098083e-07	-1.071524e-10	7.657180e-01	-9.257636e+00
1.880000e-06	1.563650e-07	-9.891650e-11	1.090369e+00	-8.481576e+00
1.890000e-06	2.029483e-07	-8.883147e-11	1.415204e+00	-7.694046e+00
1.900000e-06	2.496206e-07	-7.617166e-11	1.740660e+00	-6.895475e+00
1.910000e-06	2.963107e-07	-6.148936e-11	2.066241e+00	-6.086328e+00
1.920000e-06	3.429091e-07	-4.789810e-11	2.391182e+00	-5.267099e+00
1.930000e-06	3.895022e-07	-3.752523e-11	2.716086e+00	-4.438313e+00
1.940000e-06	4.360500e-07	-2.942420e-11	3.040675e+00	-3.600522e+00
1.950000e-06	4.824634e-07	-2.197173e-11	3.364326e+00	-2.754304e+00
1.960000e-06	5.287831e-07	-1.246498e-11	3.687323e+00	-1.900257e+00
1.970000e-06	5.751140e-07	-9.063079e-13	4.010399e+00	-1.039003e+00
1.980000e-06	6.214994e-07	1.140533e-11	4.333855e+00	-1.711805e-01
1.990000e-06	6.678085e-07	2.357977e-11	4.656779e+00	7.025565e-01
2.000000e-06	7.139797e-07	3.562079e-11	4.978741e+00	1.581541e+00
2.010000e-06	7.601495e-07	4.782029e-11	5.300693e+00	2.465096e+00
2.020000e-06	8.063396e-07	6.174849e-11	5.622787e+00	3.352536e+00
2.030000e-06	8.524122e-07	7.770709e-11	5.944061e+00	4.243171e+00
2.040000e-06	8.983336e-07	9.226259e-11	6.264282e+00	5.136309e+00
2.050000e-06	9.442123e-07	1.038524e-10	6.584204e+00	6.031255e+00
2.060000e-06	9.901778e-07	1.135664e-10	6.904732e+00	6.927320e+00
2.070000e-06	1.036148e-06	1.237953e-10	7.225293e+00	7.823816e+00
2.080000e-06	1.081980e-06	1.360002e-10	7.544892e+00	8.720064e+00
2.090000e-06	1.127702e-06	1.503601e-10	7.863717e+00	9.615392e+00
2.100000e-06	1.173316e-06	1.658311e-10	8.181796e+00	1.050914e+01
2.110000e-06	1.218787e-06	1.803076e-10	8.498877e+00	1.140066e+01
2.120000e-06	1.264220e-06	1.908562e-10	8.815690e+00	1.228931e+01
2.130000e-06	1.309603e-06	1.996031e-10	9.132157e+00	1.317449e+01
2.140000e-06	1.354805e-06	2.099036e-10	9.447357e+00	1.405557e+01
2.150000e-06	1.399936e-06	2.237380e-10	9.762066e+00	1.493199e+01
2.160000e-06	1.444990e-06	2.383477e-10	1.007624e+01	1.580317e+01
2.170000e-06	1.489963e-06	2.522742e-10	1.038985e+01	1.666858e+01
2.180000e-06	1.534889e-06	2.674293e-10	1.070312e+01	1.752767e+01
2.190000e-06	1.579680e-06	2.816619e-10	1.101546e+01	1.837995e+01
2.200000e-06	1.624301e-06	2.923702e-10	1.132661e+01	1.922494e+01
2.210000e-06	1.668773e-06	3.036806e-10	1.163673e+01	2.006216e+01
2.220000e-06	1.713083e-06	3.143252e-10	1.194571e+01	2.089119e+01
2.230000e-06	1.757227e-06	3.241122e-10	1.225354e+01	2.171161e+01
2.240000e-06	1.801340e-06	3.350006e-10	1.256115e+01	2.252300e+01
2.250000e-06	1.845328e-06	3.467303e-10	1.286789e+01	2.332501e+01
2.260000e-06	1.889168e-06	3.570442e-10	1.317359e+01	2.411727e+01
2.270000e-06	1.932953e-06	3.666896e-10	1.347891e+01	2.489945e+01
2.280000e-06	1.976656e-06	3.790139e-10	1.378367e+01	2.567123e+01
2.290000e-06	2.020348e-06	3.925944e-10	1.408834e+01	2.643233e+01
2.300000e-06	2.064028e-06	4.052001e-10	1.439293e+01	2.718245e+01
2.310000e-06	2.107648e-06	4.156872e-10	1.469710e+01	2.792136e+01
2.320000e-06	2.151220e-06	4.244499e-10	1.500094e+01	2.864879e+01
2.330000e-06	2.194693e-06	4.327449e-10	1.530409e+01	2.936454e+01
2.340000e-06	2.237999e-06	4.426615e-10	1.560607e+01	3.006840e+01
2.350000e-06	2.281121e-06	4.551268e-10	1.590677e+01	3.076018e+01
2.360000e-06	2.324027e-06	4.704340e-10	1.620596e+01	3.143970e+01
2.370000e-06	2.366579e-06	4.852742e-10	1.650268e+01	3.210681e+01
2.380000e-06	2.408838e-06	4.946408e-10	1.679737e+01	3.276136e+01
2.390000e-06	2.450806e-06	4.992676e-10	1.709002e+01	3.340323e+01
2.400000e-06	2.492378e-06	5.032508e-10	1.737991e+01	3.403229e+01
2.410000e-06	2.533719e-06	5.080052e-10	1.766819e+01	3.464845e+01
2.420000e-06	2.574825e-06	5.146517e-10	1.795483e+01	3.525161e+01
2.430000e-06	2.615604e-06	5.231178e-10	1.823920e+01	3.584171e+01
2.440000e-06	2.656178e-06	5.339299e-10	1.852213e+01	3.641868e+01
2.450000e-06	2.696588e-06	5.455974e-10	1.880391e+01	3.698247e+01
2.460000e-06	2.736809e-06	5.547045e-10	1.908439e+01	3.753305e+01
2.470000e-06	2.776871e-06	5.634941e-10	1.936374e+01	3.807039e+01
2.480000e-06	2.816766e-06	5.693804e-10	1.964194e+01	3.859449e+01
2.490000e-06	2.856497e-06	5.728215e-10	1.991900e+01	3.910535e+01
2.500000e-06	2.896081e-06	5.765405e-10	2.019503e+01	3.960298e+01
2.510000e-06	2.935528e-06	5.815017e-10	2.047009e+01	4.008743e+01
2.520000e-06	2.974787e-06	5.898211e-10	2.074386e+01	4.055872e+01
2.530000e-06	3.013834e-06	5.999375e-10	2.101614e+01	4.101692e+01
2.540000e-06	3.052619e-06	6.087283e-10	2.128660e+01	4.146210e+01
2.550000e-06	3.091180e-06	6.131462e-10	2.155549e+01	4.189436e+01
2.560000e-06	3.129591e-06	6.163663e-10	2.182334e+01	4.231378e+01
2.570000e-06	3.167764e-06	6.196702e-10	2.208953e+01	4.272048e+01
2.580000e-06	3.205729e-06	6.221519e-10	2.235427e+01	4.311460e+01
2.590000e-06	3.243529e-06	6.249394e-10	2.261786e+01	4.349627e+01
2.600000e-06	3.281119e-06	6.292286e-10	2.287998e+01	4.386565e+01
2.610000e-06	3.318532e-06	6.350839e-10	2.314087e+01	4.422292e+01
2.620000e-06	3.355718e-06	6.412533e-10	2.340018e+01	4.456826e+01
2.630000e-06	3.392604e-06	6.461874e-10	2.365739e+01	4.490186e+01
2.640000e-06	3.429160e-06	6.504168e-10	2.391230e+01	4.522394e+01
2.650000e-06	3.465483e-06	6.530719e-10	2.416559e+01	4.553473e+01
2.660000e-06	3.501611e-06	6.568088e-10	2.441752e+01	4.583445e+01
2.670000e-06	3.537485e-06	6.597734e-10	2.466768e+01	4.612336e+01
2.680000e-06	3.573193e-06	6.635074e-10	2.491668e+01	4.640171e+01
2.690000e-06	3.608801e-06	6.715684e-10	2.516498e+01	4.666977e+01
2.700000e-06	3.644216e-06	6.793354e-10	2.541194e+01	4.692781e+01
2.710000e-06	3.679476e-06	6.852717e-10	2.565781e+01	4.717613e+01
2.720000e-06	3.714546e-06	6.860166e-10	2.590236e+01	4.741500e+01
2.730000e-06	3.749276e-06	6.845830e-10	2.614454e+01	4.764473e+01
2.740000e-06	3.783661e-06	6.836116e-10	2.638431e+01	4.786561e+01
2.750000e-06	3.817622e-06	6.845208e-10	2.662113e+01	4.807794e+01
2.760000e-06	3.851011e-06	6.873784e-10	2.685396e+01	4.828204e+01
2.770000e-06	3.883862e-06	6.911962e-10	2.708304e+01	4.847821e+01
2.780000e-06	3.916328e-06	6.975655e-10	2.730943e+01	4.866674e+01
2.790000e-06	3.948493e-06	7.022710e-10	2.753373e+01	4.884795e+01
2.800000e-06	3.980426e-06	7.035882e-10	2.775641e+01	4.902213e+01
2.810000e-06	4.012185e-06	7.032812e-10	2.797787e+01	4.918957e+01
2.820000e-06	4.043791e-06	7.047182e-10	2.819826e+01	4.935055e+01
2.830000e-06	4.075185e-06	7.090379e-10	2.841718e+01	4.950537e+01
2.840000e-06	4.106313e-06	7.156433e-10	2.863424e+01	4.965428e+01
2.850000e-06	4.137194e-06	7.228984e-10	2.884959e+01	4.979755e+01
2.860000e-06	4.167868e-06	7.260155e-10	2.906348e+01	4.993542e+01
2.870000e-06	4.198187e-06	7.258661e-10	2.927490e+01	5.006814e+01
2.880000e-06	4.228183e-06	7.230656e-10	2.948407e+01	5.019592e+01
2.890000e-06	4.257997e-06	7.209848e-10	2.969197e+01	5.031899e+01
2.900000e-06	4.287533e-06	7.232707e-10	2.989793e+01	5.043752e+01
