# Temperatura_=_14.0
# Concentracion g/m^3_=_1620.0
# C_Vs_to_Am_M_A/Vsm_=_65563218390.804596
# pendiente_HvsI_1/m_=_3716.3
# ordenada_HvsI_A/m_=_1297.0
# frecuencia_Hz_=_135093.7880379767

Tiempo_(s)	Campo_(V.s)	Magnetizacion_(V.s)	Campo_(kA/m)	Magnetizacion_(A/m)
0.000000e+00	-5.488205e-06	-1.696773e-09	-3.837031e+01	-1.094995e+02
1.000000e-08	-5.488445e-06	-1.695646e-09	-3.837199e+01	-1.094915e+02
2.000000e-08	-5.488512e-06	-1.696537e-09	-3.837246e+01	-1.094778e+02
3.000000e-08	-5.488250e-06	-1.701152e-09	-3.837063e+01	-1.094584e+02
4.000000e-08	-5.487466e-06	-1.704970e-09	-3.836515e+01	-1.094329e+02
5.000000e-08	-5.486153e-06	-1.698177e-09	-3.835596e+01	-1.094012e+02
6.000000e-08	-5.484256e-06	-1.676961e-09	-3.834270e+01	-1.093630e+02
7.000000e-08	-5.481798e-06	-1.658420e-09	-3.832552e+01	-1.093180e+02
8.000000e-08	-5.478818e-06	-1.689169e-09	-3.830468e+01	-1.092662e+02
9.000000e-08	-5.475344e-06	-1.767127e-09	-3.828039e+01	-1.092074e+02
1.000000e-07	-5.471460e-06	-1.827510e-09	-3.825324e+01	-1.091415e+02
1.100000e-07	-5.467269e-06	-1.739854e-09	-3.822394e+01	-1.090683e+02
1.200000e-07	-5.462827e-06	-1.596025e-09	-3.819288e+01	-1.089878e+02
1.300000e-07	-5.458138e-06	-1.577497e-09	-3.816010e+01	-1.088999e+02
1.400000e-07	-5.453157e-06	-1.716189e-09	-3.812527e+01	-1.088047e+02
1.500000e-07	-5.447721e-06	-1.709934e-09	-3.808727e+01	-1.087020e+02
1.600000e-07	-5.441870e-06	-1.630733e-09	-3.804636e+01	-1.085920e+02
1.700000e-07	-5.435641e-06	-1.607396e-09	-3.800282e+01	-1.084747e+02
1.800000e-07	-5.428945e-06	-1.747325e-09	-3.795600e+01	-1.083503e+02
1.900000e-07	-5.421748e-06	-1.740995e-09	-3.790568e+01	-1.082187e+02
2.000000e-07	-5.414295e-06	-1.612635e-09	-3.785357e+01	-1.080802e+02
2.100000e-07	-5.406634e-06	-1.548843e-09	-3.780001e+01	-1.079350e+02
2.200000e-07	-5.398701e-06	-1.640541e-09	-3.774455e+01	-1.077831e+02
2.300000e-07	-5.390677e-06	-1.693679e-09	-3.768845e+01	-1.076249e+02
2.400000e-07	-5.382372e-06	-1.623722e-09	-3.763039e+01	-1.074605e+02
2.500000e-07	-5.373432e-06	-1.584036e-09	-3.756788e+01	-1.072901e+02
2.600000e-07	-5.363672e-06	-1.590285e-09	-3.749965e+01	-1.071141e+02
2.700000e-07	-5.353123e-06	-1.609767e-09	-3.742589e+01	-1.069325e+02
2.800000e-07	-5.342058e-06	-1.571615e-09	-3.734854e+01	-1.067458e+02
2.900000e-07	-5.330678e-06	-1.594304e-09	-3.726897e+01	-1.065540e+02
3.000000e-07	-5.318947e-06	-1.596077e-09	-3.718696e+01	-1.063576e+02
3.100000e-07	-5.306858e-06	-1.604784e-09	-3.710244e+01	-1.061567e+02
3.200000e-07	-5.294349e-06	-1.563540e-09	-3.701498e+01	-1.059515e+02
3.300000e-07	-5.281363e-06	-1.577191e-09	-3.692419e+01	-1.057424e+02
3.400000e-07	-5.267955e-06	-1.562228e-09	-3.683045e+01	-1.055294e+02
3.500000e-07	-5.254233e-06	-1.588078e-09	-3.673451e+01	-1.053129e+02
3.600000e-07	-5.240054e-06	-1.575201e-09	-3.663538e+01	-1.050929e+02
3.700000e-07	-5.225446e-06	-1.581185e-09	-3.653325e+01	-1.048697e+02
3.800000e-07	-5.210417e-06	-1.567659e-09	-3.642818e+01	-1.046433e+02
3.900000e-07	-5.194722e-06	-1.572264e-09	-3.631845e+01	-1.044140e+02
4.000000e-07	-5.178524e-06	-1.542354e-09	-3.620520e+01	-1.041818e+02
4.100000e-07	-5.161919e-06	-1.550597e-09	-3.608911e+01	-1.039468e+02
4.200000e-07	-5.144940e-06	-1.569068e-09	-3.597040e+01	-1.037089e+02
4.300000e-07	-5.127765e-06	-1.550013e-09	-3.585033e+01	-1.034683e+02
4.400000e-07	-5.110321e-06	-1.529685e-09	-3.572837e+01	-1.032250e+02
4.500000e-07	-5.092550e-06	-1.568942e-09	-3.560412e+01	-1.029788e+02
4.600000e-07	-5.074286e-06	-1.566845e-09	-3.547643e+01	-1.027298e+02
4.700000e-07	-5.055487e-06	-1.496778e-09	-3.534500e+01	-1.024779e+02
4.800000e-07	-5.036376e-06	-1.510134e-09	-3.521139e+01	-1.022229e+02
4.900000e-07	-5.016957e-06	-1.562178e-09	-3.507562e+01	-1.019648e+02
5.000000e-07	-4.997336e-06	-1.531740e-09	-3.493844e+01	-1.017034e+02
5.100000e-07	-4.977584e-06	-1.491454e-09	-3.480035e+01	-1.014385e+02
5.200000e-07	-4.957588e-06	-1.536343e-09	-3.466055e+01	-1.011700e+02
5.300000e-07	-4.937246e-06	-1.525373e-09	-3.451833e+01	-1.008977e+02
5.400000e-07	-4.916568e-06	-1.491446e-09	-3.437376e+01	-1.006214e+02
5.500000e-07	-4.895468e-06	-1.516791e-09	-3.422624e+01	-1.003409e+02
5.600000e-07	-4.874070e-06	-1.528249e-09	-3.407664e+01	-1.000559e+02
5.700000e-07	-4.852446e-06	-1.462322e-09	-3.392546e+01	-9.976640e+01
5.800000e-07	-4.830431e-06	-1.481005e-09	-3.377154e+01	-9.947204e+01
5.900000e-07	-4.807987e-06	-1.519444e-09	-3.361463e+01	-9.917264e+01
6.000000e-07	-4.785171e-06	-1.482057e-09	-3.345511e+01	-9.886801e+01
6.100000e-07	-4.762024e-06	-1.450079e-09	-3.329328e+01	-9.855796e+01
6.200000e-07	-4.738572e-06	-1.490987e-09	-3.312932e+01	-9.824230e+01
6.300000e-07	-4.714966e-06	-1.468866e-09	-3.296428e+01	-9.792088e+01
6.400000e-07	-4.691184e-06	-1.437802e-09	-3.279800e+01	-9.759353e+01
6.500000e-07	-4.667148e-06	-1.458912e-09	-3.262996e+01	-9.726011e+01
6.600000e-07	-4.642756e-06	-1.465873e-09	-3.245942e+01	-9.692052e+01
6.700000e-07	-4.617914e-06	-1.427835e-09	-3.228575e+01	-9.657466e+01
6.800000e-07	-4.592516e-06	-1.439364e-09	-3.210818e+01	-9.622243e+01
6.900000e-07	-4.566533e-06	-1.446634e-09	-3.192652e+01	-9.586379e+01
7.000000e-07	-4.539941e-06	-1.417723e-09	-3.174061e+01	-9.549871e+01
7.100000e-07	-4.512862e-06	-1.408461e-09	-3.155129e+01	-9.512716e+01
7.200000e-07	-4.485538e-06	-1.425385e-09	-3.136025e+01	-9.474915e+01
7.300000e-07	-4.458011e-06	-1.410501e-09	-3.116780e+01	-9.436473e+01
7.400000e-07	-4.430303e-06	-1.394901e-09	-3.097408e+01	-9.397393e+01
7.500000e-07	-4.402437e-06	-1.399185e-09	-3.077926e+01	-9.357683e+01
7.600000e-07	-4.374320e-06	-1.388194e-09	-3.058268e+01	-9.317351e+01
7.700000e-07	-4.345909e-06	-1.368419e-09	-3.038405e+01	-9.276409e+01
7.800000e-07	-4.317213e-06	-1.362581e-09	-3.018342e+01	-9.234869e+01
7.900000e-07	-4.288156e-06	-1.360937e-09	-2.998027e+01	-9.192745e+01
8.000000e-07	-4.258751e-06	-1.350724e-09	-2.977469e+01	-9.150051e+01
8.100000e-07	-4.229056e-06	-1.351364e-09	-2.956708e+01	-9.106804e+01
8.200000e-07	-4.199130e-06	-1.345237e-09	-2.935785e+01	-9.063020e+01
8.300000e-07	-4.169006e-06	-1.335067e-09	-2.914725e+01	-9.018716e+01
8.400000e-07	-4.138619e-06	-1.327032e-09	-2.893479e+01	-8.973910e+01
8.500000e-07	-4.107864e-06	-1.325746e-09	-2.871978e+01	-8.928620e+01
8.600000e-07	-4.076828e-06	-1.309587e-09	-2.850279e+01	-8.882862e+01
8.700000e-07	-4.045605e-06	-1.299843e-09	-2.828449e+01	-8.836655e+01
8.800000e-07	-4.014205e-06	-1.294094e-09	-2.806496e+01	-8.790013e+01
8.900000e-07	-3.982607e-06	-1.289634e-09	-2.784405e+01	-8.742954e+01
9.000000e-07	-3.950803e-06	-1.276501e-09	-2.762170e+01	-8.695490e+01
9.100000e-07	-3.918741e-06	-1.273195e-09	-2.739754e+01	-8.647636e+01
9.200000e-07	-3.886335e-06	-1.265320e-09	-2.717097e+01	-8.599402e+01
9.300000e-07	-3.853572e-06	-1.258146e-09	-2.694191e+01	-8.550800e+01
9.400000e-07	-3.820354e-06	-1.253044e-09	-2.670968e+01	-8.501837e+01
9.500000e-07	-3.786560e-06	-1.251261e-09	-2.647340e+01	-8.452520e+01
9.600000e-07	-3.752275e-06	-1.238621e-09	-2.623371e+01	-8.402854e+01
9.700000e-07	-3.717637e-06	-1.227325e-09	-2.599154e+01	-8.352841e+01
9.800000e-07	-3.682698e-06	-1.220812e-09	-2.574726e+01	-8.302482e+01
9.900000e-07	-3.647527e-06	-1.214837e-09	-2.550137e+01	-8.251776e+01
1.000000e-06	-3.612111e-06	-1.205858e-09	-2.525376e+01	-8.200720e+01
1.010000e-06	-3.576514e-06	-1.202461e-09	-2.500488e+01	-8.149308e+01
1.020000e-06	-3.540804e-06	-1.196630e-09	-2.475522e+01	-8.097534e+01
1.030000e-06	-3.504963e-06	-1.186656e-09	-2.450465e+01	-8.045388e+01
1.040000e-06	-3.468945e-06	-1.177136e-09	-2.425283e+01	-7.992860e+01
1.050000e-06	-3.432730e-06	-1.168481e-09	-2.399964e+01	-7.939938e+01
1.060000e-06	-3.396260e-06	-1.157329e-09	-2.374466e+01	-7.886610e+01
1.070000e-06	-3.359485e-06	-1.147441e-09	-2.348755e+01	-7.832859e+01
1.080000e-06	-3.322435e-06	-1.142456e-09	-2.322851e+01	-7.778672e+01
1.090000e-06	-3.285130e-06	-1.131974e-09	-2.296770e+01	-7.724032e+01
1.100000e-06	-3.247592e-06	-1.122764e-09	-2.270526e+01	-7.668921e+01
1.110000e-06	-3.209789e-06	-1.114945e-09	-2.244096e+01	-7.613324e+01
1.120000e-06	-3.171823e-06	-1.107601e-09	-2.217553e+01	-7.557221e+01
1.130000e-06	-3.133611e-06	-1.097801e-09	-2.190837e+01	-7.500596e+01
1.140000e-06	-3.095212e-06	-1.092972e-09	-2.163991e+01	-7.443431e+01
1.150000e-06	-3.056729e-06	-1.084260e-09	-2.137086e+01	-7.385710e+01
1.160000e-06	-3.018035e-06	-1.071078e-09	-2.110033e+01	-7.327416e+01
1.170000e-06	-2.979065e-06	-1.056126e-09	-2.082787e+01	-7.268533e+01
1.180000e-06	-2.939796e-06	-1.047740e-09	-2.055333e+01	-7.209048e+01
1.190000e-06	-2.900374e-06	-1.038521e-09	-2.027771e+01	-7.148945e+01
1.200000e-06	-2.860853e-06	-1.031009e-09	-2.000141e+01	-7.088212e+01
1.210000e-06	-2.821225e-06	-1.022983e-09	-1.972435e+01	-7.026838e+01
1.220000e-06	-2.781525e-06	-1.014861e-09	-1.944679e+01	-6.964813e+01
1.230000e-06	-2.741715e-06	-1.003248e-09	-1.916846e+01	-6.902126e+01
1.240000e-06	-2.701720e-06	-9.940326e-10	-1.888884e+01	-6.838771e+01
1.250000e-06	-2.661561e-06	-9.839628e-10	-1.860808e+01	-6.774740e+01
1.260000e-06	-2.621091e-06	-9.720113e-10	-1.832513e+01	-6.710027e+01
1.270000e-06	-2.580394e-06	-9.590829e-10	-1.804060e+01	-6.644629e+01
1.280000e-06	-2.539575e-06	-9.488290e-10	-1.775522e+01	-6.578540e+01
1.290000e-06	-2.498426e-06	-9.399395e-10	-1.746753e+01	-6.511759e+01
1.300000e-06	-2.457084e-06	-9.295503e-10	-1.717849e+01	-6.444283e+01
1.310000e-06	-2.415487e-06	-9.183013e-10	-1.688767e+01	-6.376110e+01
1.320000e-06	-2.373494e-06	-9.061829e-10	-1.659408e+01	-6.307238e+01
1.330000e-06	-2.331191e-06	-8.944968e-10	-1.629832e+01	-6.237666e+01
1.340000e-06	-2.288612e-06	-8.849186e-10	-1.600063e+01	-6.167391e+01
1.350000e-06	-2.245799e-06	-8.773789e-10	-1.570131e+01	-6.096410e+01
1.360000e-06	-2.202726e-06	-8.678049e-10	-1.540017e+01	-6.024722e+01
1.370000e-06	-2.159517e-06	-8.559511e-10	-1.509808e+01	-5.952320e+01
1.380000e-06	-2.116193e-06	-8.454028e-10	-1.479518e+01	-5.879200e+01
1.390000e-06	-2.072742e-06	-8.356560e-10	-1.449139e+01	-5.805354e+01
1.400000e-06	-2.029200e-06	-8.238512e-10	-1.418697e+01	-5.730773e+01
1.410000e-06	-1.985503e-06	-8.132890e-10	-1.388148e+01	-5.655446e+01
1.420000e-06	-1.941746e-06	-8.016335e-10	-1.357555e+01	-5.579360e+01
1.430000e-06	-1.897906e-06	-7.919960e-10	-1.326904e+01	-5.502499e+01
1.440000e-06	-1.853972e-06	-7.812898e-10	-1.296188e+01	-5.424845e+01
1.450000e-06	-1.809948e-06	-7.696218e-10	-1.265409e+01	-5.346376e+01
1.460000e-06	-1.765861e-06	-7.593670e-10	-1.234586e+01	-5.267067e+01
1.470000e-06	-1.721719e-06	-7.475949e-10	-1.203725e+01	-5.186892e+01
1.480000e-06	-1.677466e-06	-7.312429e-10	-1.172786e+01	-5.105821e+01
1.490000e-06	-1.633129e-06	-7.146806e-10	-1.141788e+01	-5.023819e+01
1.500000e-06	-1.588676e-06	-7.002830e-10	-1.110709e+01	-4.940850e+01
1.510000e-06	-1.544040e-06	-6.870976e-10	-1.079502e+01	-4.856875e+01
1.520000e-06	-1.499290e-06	-6.747482e-10	-1.048216e+01	-4.771851e+01
1.530000e-06	-1.454545e-06	-6.646396e-10	-1.016932e+01	-4.685733e+01
1.540000e-06	-1.409640e-06	-6.514956e-10	-9.855379e+00	-4.598473e+01
1.550000e-06	-1.364562e-06	-6.349692e-10	-9.540217e+00	-4.510021e+01
1.560000e-06	-1.319406e-06	-6.180769e-10	-9.224513e+00	-4.420325e+01
1.570000e-06	-1.274086e-06	-6.008800e-10	-8.907665e+00	-4.329330e+01
1.580000e-06	-1.228668e-06	-5.826797e-10	-8.590127e+00	-4.236982e+01
1.590000e-06	-1.183178e-06	-5.671706e-10	-8.272089e+00	-4.143223e+01
1.600000e-06	-1.137637e-06	-5.533314e-10	-7.953690e+00	-4.047998e+01
1.610000e-06	-1.091976e-06	-5.376598e-10	-7.634453e+00	-3.951248e+01
1.620000e-06	-1.046099e-06	-5.223566e-10	-7.313713e+00	-3.852917e+01
1.630000e-06	-1.000186e-06	-5.102785e-10	-6.992712e+00	-3.752950e+01
1.640000e-06	-9.542808e-07	-4.977443e-10	-6.671772e+00	-3.651292e+01
1.650000e-06	-9.083022e-07	-4.818687e-10	-6.350316e+00	-3.547889e+01
1.660000e-06	-8.623546e-07	-4.650578e-10	-6.029077e+00	-3.442693e+01
1.670000e-06	-8.164119e-07	-4.454575e-10	-5.707873e+00	-3.335656e+01
1.680000e-06	-7.704015e-07	-4.238894e-10	-5.386195e+00	-3.226735e+01
1.690000e-06	-7.243314e-07	-4.039269e-10	-5.064100e+00	-3.115889e+01
1.700000e-06	-6.781553e-07	-3.876795e-10	-4.741264e+00	-3.003085e+01
1.710000e-06	-6.318800e-07	-3.758758e-10	-4.417734e+00	-2.888292e+01
1.720000e-06	-5.855741e-07	-3.653122e-10	-4.093991e+00	-2.771486e+01
1.730000e-06	-5.392931e-07	-3.501613e-10	-3.770421e+00	-2.652649e+01
1.740000e-06	-4.930640e-07	-3.293601e-10	-3.447214e+00	-2.531769e+01
1.750000e-06	-4.467634e-07	-3.063293e-10	-3.123508e+00	-2.408841e+01
1.760000e-06	-4.003407e-07	-2.842162e-10	-2.798947e+00	-2.283868e+01
1.770000e-06	-3.538697e-07	-2.659937e-10	-2.474049e+00	-2.156859e+01
1.780000e-06	-3.072868e-07	-2.512521e-10	-2.148369e+00	-2.027831e+01
1.790000e-06	-2.607250e-07	-2.364310e-10	-1.822837e+00	-1.896811e+01
1.800000e-06	-2.142151e-07	-2.209127e-10	-1.497666e+00	-1.763831e+01
1.810000e-06	-1.676802e-07	-2.021056e-10	-1.172322e+00	-1.628933e+01
1.820000e-06	-1.211048e-07	-1.809668e-10	-8.466940e-01	-1.492166e+01
1.830000e-06	-7.448632e-08	-1.620463e-10	-5.207647e-01	-1.353588e+01
1.840000e-06	-2.794877e-08	-1.464830e-10	-1.954014e-01	-1.213264e+01
1.850000e-06	1.854473e-08	-1.294227e-10	1.296539e-01	-1.071268e+01
1.860000e-06	6.502538e-08	-1.115659e-10	4.546193e-01	-9.276811e+00
1.870000e-06	1.114740e-07	-9.105590e-11	7.793610e-01	-7.825908e+00
1.880000e-06	1.579658e-07	-6.893941e-11	1.104404e+00	-6.360926e+00
1.890000e-06	2.044816e-07	-4.775626e-11	1.429615e+00	-4.882880e+00
1.900000e-06	2.509817e-07	-2.631562e-11	1.754717e+00	-3.392851e+00
1.910000e-06	2.975216e-07	-4.599267e-12	2.080096e+00	-1.891971e+00
1.920000e-06	3.439806e-07	1.781433e-11	2.404910e+00	-3.814263e-01
1.930000e-06	3.902712e-07	3.672519e-11	2.728547e+00	1.137554e+00
1.940000e-06	4.366165e-07	5.577871e-11	3.052567e+00	2.663700e+00
1.950000e-06	4.829971e-07	7.733568e-11	3.376833e+00	4.195712e+00
1.960000e-06	5.293736e-07	9.937120e-11	3.701070e+00	5.732261e+00
1.970000e-06	5.757355e-07	1.209164e-10	4.025205e+00	7.272002e+00
1.980000e-06	6.219220e-07	1.429314e-10	4.348114e+00	8.813575e+00
1.990000e-06	6.680249e-07	1.654500e-10	4.670439e+00	1.035562e+01
2.000000e-06	7.141252e-07	1.887269e-10	4.992744e+00	1.189677e+01
2.010000e-06	7.601935e-07	2.112555e-10	5.314827e+00	1.343567e+01
2.020000e-06	8.062519e-07	2.341281e-10	5.636840e+00	1.497099e+01
2.030000e-06	8.522719e-07	2.582989e-10	5.958585e+00	1.650142e+01
2.040000e-06	8.981400e-07	2.802900e-10	6.279268e+00	1.802566e+01
2.050000e-06	9.439862e-07	2.999696e-10	6.599798e+00	1.954246e+01
2.060000e-06	9.898663e-07	3.194805e-10	6.920565e+00	2.105062e+01
2.070000e-06	1.035609e-06	3.399898e-10	7.240374e+00	2.254897e+01
2.080000e-06	1.081262e-06	3.627204e-10	7.559549e+00	2.403640e+01
2.090000e-06	1.126835e-06	3.859512e-10	7.878171e+00	2.551185e+01
2.100000e-06	1.172318e-06	4.096381e-10	8.196160e+00	2.697432e+01
2.110000e-06	1.217755e-06	4.327072e-10	8.513827e+00	2.842289e+01
2.120000e-06	1.263064e-06	4.526469e-10	8.830604e+00	2.985668e+01
2.130000e-06	1.308186e-06	4.704357e-10	9.146072e+00	3.127490e+01
2.140000e-06	1.353198e-06	4.878221e-10	9.460766e+00	3.267682e+01
2.150000e-06	1.398209e-06	5.075441e-10	9.775455e+00	3.406178e+01
2.160000e-06	1.443225e-06	5.272230e-10	1.009019e+01	3.542922e+01
2.170000e-06	1.488063e-06	5.461861e-10	1.040367e+01	3.677862e+01
2.180000e-06	1.532714e-06	5.677171e-10	1.071584e+01	3.810954e+01
2.190000e-06	1.577304e-06	5.898950e-10	1.102759e+01	3.942162e+01
2.200000e-06	1.621786e-06	6.098371e-10	1.133857e+01	4.071459e+01
2.210000e-06	1.666135e-06	6.267986e-10	1.164864e+01	4.198820e+01
2.220000e-06	1.710336e-06	6.421181e-10	1.195767e+01	4.324230e+01
2.230000e-06	1.754360e-06	6.588924e-10	1.226546e+01	4.447681e+01
2.240000e-06	1.798273e-06	6.753822e-10	1.257247e+01	4.569169e+01
2.250000e-06	1.842169e-06	6.910625e-10	1.287937e+01	4.688697e+01
2.260000e-06	1.886014e-06	7.049719e-10	1.318591e+01	4.806272e+01
2.270000e-06	1.929738e-06	7.200718e-10	1.349160e+01	4.921907e+01
2.280000e-06	1.973421e-06	7.391966e-10	1.379700e+01	5.035619e+01
2.290000e-06	2.017074e-06	7.574832e-10	1.410220e+01	5.147429e+01
2.300000e-06	2.060635e-06	7.741211e-10	1.440675e+01	5.257362e+01
2.310000e-06	2.104151e-06	7.898589e-10	1.471099e+01	5.365445e+01
2.320000e-06	2.147588e-06	8.047127e-10	1.501468e+01	5.471709e+01
2.330000e-06	2.190818e-06	8.177917e-10	1.531692e+01	5.576186e+01
2.340000e-06	2.233890e-06	8.275272e-10	1.561805e+01	5.678910e+01
2.350000e-06	2.276748e-06	8.378370e-10	1.591769e+01	5.779917e+01
2.360000e-06	2.319390e-06	8.539076e-10	1.621582e+01	5.879243e+01
2.370000e-06	2.361814e-06	8.729709e-10	1.651242e+01	5.976924e+01
2.380000e-06	2.403925e-06	8.902832e-10	1.680683e+01	6.072996e+01
2.390000e-06	2.445756e-06	9.069626e-10	1.709929e+01	6.167497e+01
2.400000e-06	2.487270e-06	9.206704e-10	1.738953e+01	6.260462e+01
2.410000e-06	2.528470e-06	9.308062e-10	1.767758e+01	6.351926e+01
2.420000e-06	2.569363e-06	9.404454e-10	1.796348e+01	6.441922e+01
2.430000e-06	2.610015e-06	9.532848e-10	1.824770e+01	6.530483e+01
2.440000e-06	2.650343e-06	9.677458e-10	1.852964e+01	6.617639e+01
2.450000e-06	2.690388e-06	9.815851e-10	1.880961e+01	6.703420e+01
2.460000e-06	2.730347e-06	9.955913e-10	1.908899e+01	6.787852e+01
2.470000e-06	2.770161e-06	1.010256e-09	1.936734e+01	6.870961e+01
2.480000e-06	2.809878e-06	1.023639e-09	1.964502e+01	6.952771e+01
2.490000e-06	2.849480e-06	1.034424e-09	1.992189e+01	7.033303e+01
2.500000e-06	2.888927e-06	1.044211e-09	2.019768e+01	7.112578e+01
2.510000e-06	2.928304e-06	1.054755e-09	2.047298e+01	7.190614e+01
2.520000e-06	2.967502e-06	1.066461e-09	2.074704e+01	7.267427e+01
2.530000e-06	3.006459e-06	1.078115e-09	2.101940e+01	7.343033e+01
2.540000e-06	3.045198e-06	1.089871e-09	2.129024e+01	7.417445e+01
2.550000e-06	3.083728e-06	1.101045e-09	2.155961e+01	7.490676e+01
2.560000e-06	3.122013e-06	1.110214e-09	2.182728e+01	7.562738e+01
2.570000e-06	3.160039e-06	1.118274e-09	2.209314e+01	7.633642e+01
2.580000e-06	3.197846e-06	1.126378e-09	2.235746e+01	7.703399e+01
2.590000e-06	3.235419e-06	1.134662e-09	2.262015e+01	7.772018e+01
2.600000e-06	3.272799e-06	1.143948e-09	2.288149e+01	7.839511e+01
2.610000e-06	3.309982e-06	1.153185e-09	2.314145e+01	7.905886e+01
2.620000e-06	3.346957e-06	1.161247e-09	2.339996e+01	7.971154e+01
2.630000e-06	3.383707e-06	1.168021e-09	2.365690e+01	8.035327e+01
2.640000e-06	3.420165e-06	1.175182e-09	2.391179e+01	8.098417e+01
2.650000e-06	3.456358e-06	1.184937e-09	2.416483e+01	8.160435e+01
2.660000e-06	3.492364e-06	1.195788e-09	2.441656e+01	8.221396e+01
2.670000e-06	3.528212e-06	1.204712e-09	2.466719e+01	8.281314e+01
2.680000e-06	3.563905e-06	1.211762e-09	2.491673e+01	8.340206e+01
2.690000e-06	3.599501e-06	1.219656e-09	2.516560e+01	8.398089e+01
2.700000e-06	3.634962e-06	1.229376e-09	2.541352e+01	8.454981e+01
2.710000e-06	3.670223e-06	1.238817e-09	2.566005e+01	8.510902e+01
2.720000e-06	3.705254e-06	1.247949e-09	2.590496e+01	8.565875e+01
2.730000e-06	3.739956e-06	1.257176e-09	2.614758e+01	8.619922e+01
2.740000e-06	3.774284e-06	1.265403e-09	2.638758e+01	8.673067e+01
2.750000e-06	3.808158e-06	1.271459e-09	2.662441e+01	8.725336e+01
2.760000e-06	3.841422e-06	1.277293e-09	2.685697e+01	8.776755e+01
2.770000e-06	3.874195e-06	1.284220e-09	2.708610e+01	8.827352e+01
2.780000e-06	3.906604e-06	1.292192e-09	2.731268e+01	8.877154e+01
2.790000e-06	3.938659e-06	1.300998e-09	2.753679e+01	8.926191e+01
2.800000e-06	3.970538e-06	1.310668e-09	2.775967e+01	8.974492e+01
2.810000e-06	4.002293e-06	1.319414e-09	2.798169e+01	9.022086e+01
2.820000e-06	4.033848e-06	1.325637e-09	2.820230e+01	9.069003e+01
2.830000e-06	4.065218e-06	1.331466e-09	2.842162e+01	9.115271e+01
2.840000e-06	4.096344e-06	1.336282e-09	2.863923e+01	9.160919e+01
2.850000e-06	4.127182e-06	1.341397e-09	2.885483e+01	9.205975e+01
2.860000e-06	4.157794e-06	1.347717e-09	2.906885e+01	9.250465e+01
2.870000e-06	4.188078e-06	1.353906e-09	2.928059e+01	9.294414e+01
2.880000e-06	4.218005e-06	1.358896e-09	2.948982e+01	9.337847e+01
2.890000e-06	4.247629e-06	1.366518e-09	2.969693e+01	9.380785e+01
2.900000e-06	4.277036e-06	1.376174e-09	2.990253e+01	9.423249e+01
