# Temperatura_=_-1.1
# Concentracion g/m^3_=_1620.0
# C_Vs_to_Am_M_A/Vsm_=_65563218390.804596
# pendiente_HvsI_1/m_=_3716.3
# ordenada_HvsI_A/m_=_1297.0
# frecuencia_Hz_=_135104.989607297

Tiempo_(s)	Campo_(V.s)	Magnetizacion_(V.s)	Campo_(kA/m)	Magnetizacion_(A/m)
0.000000e+00	-5.500221e-06	-1.084361e-09	-3.836273e+01	-7.209172e+01
1.000000e-08	-5.500339e-06	-1.082036e-09	-3.836355e+01	-7.199713e+01
2.000000e-08	-5.500118e-06	-1.080965e-09	-3.836201e+01	-7.189944e+01
3.000000e-08	-5.499510e-06	-1.080474e-09	-3.835777e+01	-7.179870e+01
4.000000e-08	-5.498512e-06	-1.076983e-09	-3.835081e+01	-7.169499e+01
5.000000e-08	-5.496954e-06	-1.065869e-09	-3.833995e+01	-7.158841e+01
6.000000e-08	-5.494686e-06	-1.070157e-09	-3.832412e+01	-7.147907e+01
7.000000e-08	-5.491824e-06	-1.099194e-09	-3.830416e+01	-7.136710e+01
8.000000e-08	-5.488581e-06	-1.115117e-09	-3.828154e+01	-7.125265e+01
9.000000e-08	-5.484926e-06	-1.121494e-09	-3.825605e+01	-7.113587e+01
1.000000e-07	-5.480901e-06	-1.136659e-09	-3.822798e+01	-7.101694e+01
1.100000e-07	-5.476556e-06	-1.079549e-09	-3.819767e+01	-7.089604e+01
1.200000e-07	-5.471909e-06	-1.035738e-09	-3.816526e+01	-7.077338e+01
1.300000e-07	-5.466997e-06	-1.057145e-09	-3.813100e+01	-7.064915e+01
1.400000e-07	-5.461730e-06	-1.108834e-09	-3.809426e+01	-7.052356e+01
1.500000e-07	-5.456075e-06	-1.092368e-09	-3.805483e+01	-7.039683e+01
1.600000e-07	-5.450062e-06	-1.041009e-09	-3.801289e+01	-7.026917e+01
1.700000e-07	-5.443647e-06	-1.067874e-09	-3.796814e+01	-7.014079e+01
1.800000e-07	-5.436775e-06	-1.121102e-09	-3.792021e+01	-7.001190e+01
1.900000e-07	-5.429534e-06	-1.076263e-09	-3.786970e+01	-6.988271e+01
2.000000e-07	-5.422030e-06	-1.032040e-09	-3.781737e+01	-6.975342e+01
2.100000e-07	-5.414268e-06	-1.049399e-09	-3.776323e+01	-6.962420e+01
2.200000e-07	-5.406156e-06	-1.100932e-09	-3.770665e+01	-6.949524e+01
2.300000e-07	-5.397677e-06	-1.063360e-09	-3.764751e+01	-6.936668e+01
2.400000e-07	-5.388777e-06	-1.016855e-09	-3.758543e+01	-6.923866e+01
2.500000e-07	-5.379199e-06	-1.020649e-09	-3.751863e+01	-6.911131e+01
2.600000e-07	-5.368928e-06	-1.036946e-09	-3.744699e+01	-6.898472e+01
2.700000e-07	-5.358196e-06	-1.025927e-09	-3.737214e+01	-6.885896e+01
2.800000e-07	-5.347117e-06	-1.025665e-09	-3.729487e+01	-6.873409e+01
2.900000e-07	-5.335612e-06	-1.043632e-09	-3.721463e+01	-6.861014e+01
3.000000e-07	-5.323727e-06	-1.029227e-09	-3.713172e+01	-6.848710e+01
3.100000e-07	-5.311528e-06	-1.025055e-09	-3.704665e+01	-6.836494e+01
3.200000e-07	-5.298849e-06	-1.021014e-09	-3.695821e+01	-6.824362e+01
3.300000e-07	-5.285685e-06	-1.013943e-09	-3.686639e+01	-6.812304e+01
3.400000e-07	-5.272167e-06	-1.003587e-09	-3.677211e+01	-6.800311e+01
3.500000e-07	-5.258258e-06	-1.033938e-09	-3.667510e+01	-6.788370e+01
3.600000e-07	-5.243809e-06	-1.018055e-09	-3.657432e+01	-6.776463e+01
3.700000e-07	-5.228850e-06	-1.009091e-09	-3.646999e+01	-6.764575e+01
3.800000e-07	-5.213463e-06	-1.024574e-09	-3.636266e+01	-6.752683e+01
3.900000e-07	-5.197608e-06	-1.022258e-09	-3.625207e+01	-6.740767e+01
4.000000e-07	-5.181277e-06	-9.805089e-10	-3.613817e+01	-6.728802e+01
4.100000e-07	-5.164574e-06	-1.011859e-09	-3.602168e+01	-6.716763e+01
4.200000e-07	-5.147529e-06	-1.030353e-09	-3.590279e+01	-6.704622e+01
4.300000e-07	-5.130100e-06	-9.835655e-10	-3.578123e+01	-6.692352e+01
4.400000e-07	-5.112403e-06	-9.847675e-10	-3.565779e+01	-6.679925e+01
4.500000e-07	-5.094449e-06	-1.045802e-09	-3.553257e+01	-6.667310e+01
4.600000e-07	-5.075987e-06	-1.002153e-09	-3.540380e+01	-6.654479e+01
4.700000e-07	-5.057091e-06	-9.652004e-10	-3.527201e+01	-6.641403e+01
4.800000e-07	-5.037897e-06	-1.028994e-09	-3.513813e+01	-6.628053e+01
4.900000e-07	-5.018419e-06	-1.029036e-09	-3.500228e+01	-6.614401e+01
5.000000e-07	-4.998776e-06	-9.544168e-10	-3.486528e+01	-6.600420e+01
5.100000e-07	-4.978903e-06	-9.884875e-10	-3.472666e+01	-6.586085e+01
5.200000e-07	-4.958654e-06	-1.028385e-09	-3.458543e+01	-6.571371e+01
5.300000e-07	-4.937996e-06	-9.688709e-10	-3.444135e+01	-6.556257e+01
5.400000e-07	-4.916967e-06	-9.709875e-10	-3.429468e+01	-6.540723e+01
5.500000e-07	-4.895633e-06	-1.024264e-09	-3.414588e+01	-6.524751e+01
5.600000e-07	-4.874012e-06	-9.784398e-10	-3.399508e+01	-6.508326e+01
5.700000e-07	-4.852052e-06	-9.498268e-10	-3.384191e+01	-6.491435e+01
5.800000e-07	-4.829709e-06	-1.008971e-09	-3.368607e+01	-6.474070e+01
5.900000e-07	-4.806981e-06	-9.943561e-10	-3.352755e+01	-6.456223e+01
6.000000e-07	-4.783977e-06	-9.439677e-10	-3.336710e+01	-6.437890e+01
6.100000e-07	-4.760774e-06	-9.739484e-10	-3.320527e+01	-6.419072e+01
6.200000e-07	-4.737279e-06	-9.877251e-10	-3.304139e+01	-6.399770e+01
6.300000e-07	-4.713494e-06	-9.418270e-10	-3.287550e+01	-6.379990e+01
6.400000e-07	-4.689573e-06	-9.552774e-10	-3.270866e+01	-6.359740e+01
6.500000e-07	-4.665344e-06	-9.756945e-10	-3.253966e+01	-6.339031e+01
6.600000e-07	-4.640628e-06	-9.467057e-10	-3.236728e+01	-6.317877e+01
6.700000e-07	-4.615406e-06	-9.379941e-10	-3.219136e+01	-6.296295e+01
6.800000e-07	-4.589571e-06	-9.627715e-10	-3.201117e+01	-6.274302e+01
6.900000e-07	-4.563227e-06	-9.489971e-10	-3.182742e+01	-6.251919e+01
7.000000e-07	-4.536472e-06	-9.375139e-10	-3.164081e+01	-6.229169e+01
7.100000e-07	-4.509369e-06	-9.473554e-10	-3.145177e+01	-6.206076e+01
7.200000e-07	-4.481989e-06	-9.465783e-10	-3.126081e+01	-6.182665e+01
7.300000e-07	-4.454373e-06	-9.303520e-10	-3.106819e+01	-6.158961e+01
7.400000e-07	-4.426605e-06	-9.303646e-10	-3.087451e+01	-6.134993e+01
7.500000e-07	-4.398557e-06	-9.271303e-10	-3.067889e+01	-6.110786e+01
7.600000e-07	-4.370181e-06	-9.199487e-10	-3.048097e+01	-6.086368e+01
7.700000e-07	-4.341530e-06	-9.143970e-10	-3.028114e+01	-6.061765e+01
7.800000e-07	-4.312518e-06	-9.145060e-10	-3.007879e+01	-6.037003e+01
7.900000e-07	-4.283190e-06	-9.116299e-10	-2.987423e+01	-6.012106e+01
8.000000e-07	-4.253586e-06	-9.084228e-10	-2.966775e+01	-5.987098e+01
8.100000e-07	-4.223688e-06	-9.047110e-10	-2.945922e+01	-5.962000e+01
8.200000e-07	-4.193584e-06	-9.006523e-10	-2.924925e+01	-5.936831e+01
8.300000e-07	-4.163182e-06	-8.954332e-10	-2.903721e+01	-5.911609e+01
8.400000e-07	-4.132399e-06	-8.909960e-10	-2.882250e+01	-5.886347e+01
8.500000e-07	-4.101431e-06	-8.822877e-10	-2.860651e+01	-5.861059e+01
8.600000e-07	-4.070268e-06	-8.708664e-10	-2.838915e+01	-5.835753e+01
8.700000e-07	-4.038890e-06	-8.654795e-10	-2.817030e+01	-5.810434e+01
8.800000e-07	-4.007328e-06	-8.628738e-10	-2.795016e+01	-5.785105e+01
8.900000e-07	-3.975580e-06	-8.609877e-10	-2.772872e+01	-5.759766e+01
9.000000e-07	-3.943608e-06	-8.585323e-10	-2.750572e+01	-5.734413e+01
9.100000e-07	-3.911322e-06	-8.571195e-10	-2.728054e+01	-5.709038e+01
9.200000e-07	-3.878802e-06	-8.452565e-10	-2.705372e+01	-5.683630e+01
9.300000e-07	-3.845906e-06	-8.350482e-10	-2.682428e+01	-5.658177e+01
9.400000e-07	-3.812427e-06	-8.302142e-10	-2.659077e+01	-5.632660e+01
9.500000e-07	-3.778451e-06	-8.279639e-10	-2.635379e+01	-5.607061e+01
9.600000e-07	-3.744092e-06	-8.207638e-10	-2.611415e+01	-5.581356e+01
9.700000e-07	-3.709345e-06	-8.195372e-10	-2.587179e+01	-5.555519e+01
9.800000e-07	-3.674273e-06	-8.177771e-10	-2.562718e+01	-5.529525e+01
9.900000e-07	-3.639005e-06	-8.135190e-10	-2.538119e+01	-5.503342e+01
1.000000e-06	-3.603511e-06	-8.075900e-10	-2.513363e+01	-5.476940e+01
1.010000e-06	-3.567813e-06	-8.042690e-10	-2.488465e+01	-5.450285e+01
1.020000e-06	-3.531987e-06	-7.972120e-10	-2.463477e+01	-5.423344e+01
1.030000e-06	-3.496016e-06	-7.895882e-10	-2.438388e+01	-5.396083e+01
1.040000e-06	-3.459889e-06	-7.859059e-10	-2.413190e+01	-5.368465e+01
1.050000e-06	-3.423482e-06	-7.820157e-10	-2.387797e+01	-5.340457e+01
1.060000e-06	-3.386708e-06	-7.740314e-10	-2.362148e+01	-5.312023e+01
1.070000e-06	-3.349718e-06	-7.712006e-10	-2.336348e+01	-5.283129e+01
1.080000e-06	-3.312512e-06	-7.673797e-10	-2.310398e+01	-5.253742e+01
1.090000e-06	-3.275047e-06	-7.574375e-10	-2.284267e+01	-5.223832e+01
1.100000e-06	-3.237397e-06	-7.484869e-10	-2.258007e+01	-5.193367e+01
1.110000e-06	-3.199518e-06	-7.449846e-10	-2.231588e+01	-5.162320e+01
1.120000e-06	-3.161352e-06	-7.395008e-10	-2.204968e+01	-5.130666e+01
1.130000e-06	-3.122882e-06	-7.333488e-10	-2.178136e+01	-5.098381e+01
1.140000e-06	-3.084246e-06	-7.322356e-10	-2.151188e+01	-5.065445e+01
1.150000e-06	-3.045513e-06	-7.274650e-10	-2.124173e+01	-5.031840e+01
1.160000e-06	-3.006565e-06	-7.192626e-10	-2.097007e+01	-4.997553e+01
1.170000e-06	-2.967425e-06	-7.128718e-10	-2.069708e+01	-4.962573e+01
1.180000e-06	-2.928143e-06	-7.082349e-10	-2.042310e+01	-4.926890e+01
1.190000e-06	-2.888718e-06	-7.008917e-10	-2.014812e+01	-4.890502e+01
1.200000e-06	-2.849183e-06	-6.957696e-10	-1.987237e+01	-4.853406e+01
1.210000e-06	-2.809486e-06	-6.923436e-10	-1.959550e+01	-4.815604e+01
1.220000e-06	-2.769673e-06	-6.850290e-10	-1.931781e+01	-4.777101e+01
1.230000e-06	-2.729741e-06	-6.751406e-10	-1.903930e+01	-4.737904e+01
1.240000e-06	-2.689587e-06	-6.684289e-10	-1.875923e+01	-4.698025e+01
1.250000e-06	-2.649228e-06	-6.609792e-10	-1.847773e+01	-4.657476e+01
1.260000e-06	-2.608671e-06	-6.531048e-10	-1.819486e+01	-4.616272e+01
1.270000e-06	-2.567870e-06	-6.460675e-10	-1.791028e+01	-4.574431e+01
1.280000e-06	-2.526824e-06	-6.442474e-10	-1.762399e+01	-4.531970e+01
1.290000e-06	-2.485513e-06	-6.405256e-10	-1.733586e+01	-4.488910e+01
1.300000e-06	-2.443799e-06	-6.345417e-10	-1.704492e+01	-4.445272e+01
1.310000e-06	-2.401637e-06	-6.263790e-10	-1.675085e+01	-4.401076e+01
1.320000e-06	-2.359093e-06	-6.169388e-10	-1.645411e+01	-4.356344e+01
1.330000e-06	-2.316318e-06	-6.085384e-10	-1.615577e+01	-4.311096e+01
1.340000e-06	-2.273406e-06	-6.034110e-10	-1.585647e+01	-4.265352e+01
1.350000e-06	-2.230256e-06	-5.996725e-10	-1.555550e+01	-4.219131e+01
1.360000e-06	-2.186911e-06	-5.942705e-10	-1.525318e+01	-4.172450e+01
1.370000e-06	-2.143459e-06	-5.882997e-10	-1.495011e+01	-4.125322e+01
1.380000e-06	-2.099972e-06	-5.835372e-10	-1.464680e+01	-4.077761e+01
1.390000e-06	-2.056433e-06	-5.765142e-10	-1.434313e+01	-4.029775e+01
1.400000e-06	-2.012740e-06	-5.674209e-10	-1.403838e+01	-3.981371e+01
1.410000e-06	-1.968956e-06	-5.589357e-10	-1.373300e+01	-3.932549e+01
1.420000e-06	-1.925125e-06	-5.523131e-10	-1.342729e+01	-3.883310e+01
1.430000e-06	-1.881210e-06	-5.463046e-10	-1.312099e+01	-3.833646e+01
1.440000e-06	-1.837185e-06	-5.392810e-10	-1.281393e+01	-3.783548e+01
1.450000e-06	-1.793127e-06	-5.331655e-10	-1.250664e+01	-3.733000e+01
1.460000e-06	-1.748943e-06	-5.255213e-10	-1.219846e+01	-3.681983e+01
1.470000e-06	-1.704549e-06	-5.153586e-10	-1.188883e+01	-3.630473e+01
1.480000e-06	-1.660077e-06	-5.052686e-10	-1.157864e+01	-3.578441e+01
1.490000e-06	-1.615557e-06	-4.959720e-10	-1.126813e+01	-3.525851e+01
1.500000e-06	-1.570802e-06	-4.874880e-10	-1.095597e+01	-3.472667e+01
1.510000e-06	-1.525797e-06	-4.818673e-10	-1.064207e+01	-3.418843e+01
1.520000e-06	-1.480751e-06	-4.772514e-10	-1.032789e+01	-3.364334e+01
1.530000e-06	-1.435682e-06	-4.715621e-10	-1.001354e+01	-3.309087e+01
1.540000e-06	-1.390566e-06	-4.622597e-10	-9.698864e+00	-3.253045e+01
1.550000e-06	-1.345379e-06	-4.523276e-10	-9.383701e+00	-3.196151e+01
1.560000e-06	-1.300046e-06	-4.405953e-10	-9.067514e+00	-3.138341e+01
1.570000e-06	-1.254637e-06	-4.277326e-10	-8.750796e+00	-3.079551e+01
1.580000e-06	-1.209230e-06	-4.189697e-10	-8.434090e+00	-3.019714e+01
1.590000e-06	-1.163755e-06	-4.133731e-10	-8.116916e+00	-2.958759e+01
1.600000e-06	-1.118089e-06	-4.083266e-10	-7.798402e+00	-2.896617e+01
1.610000e-06	-1.072263e-06	-4.010782e-10	-7.478781e+00	-2.833218e+01
1.620000e-06	-1.026505e-06	-3.915949e-10	-7.159627e+00	-2.768489e+01
1.630000e-06	-9.806201e-07	-3.818489e-10	-6.839591e+00	-2.702361e+01
1.640000e-06	-9.344755e-07	-3.705243e-10	-6.517744e+00	-2.634763e+01
1.650000e-06	-8.883323e-07	-3.577670e-10	-6.195906e+00	-2.565630e+01
1.660000e-06	-8.422140e-07	-3.457209e-10	-5.874242e+00	-2.494894e+01
1.670000e-06	-7.960225e-07	-3.344845e-10	-5.552068e+00	-2.422494e+01
1.680000e-06	-7.497567e-07	-3.234261e-10	-5.229374e+00	-2.348372e+01
1.690000e-06	-7.034257e-07	-3.130697e-10	-4.906227e+00	-2.272471e+01
1.700000e-06	-6.571009e-07	-3.004036e-10	-4.583122e+00	-2.194744e+01
1.710000e-06	-6.108135e-07	-2.874298e-10	-4.260279e+00	-2.115144e+01
1.720000e-06	-5.644457e-07	-2.742359e-10	-3.936874e+00	-2.033632e+01
1.730000e-06	-5.180376e-07	-2.590753e-10	-3.613189e+00	-1.950177e+01
1.740000e-06	-4.716245e-07	-2.424112e-10	-3.289469e+00	-1.864751e+01
1.750000e-06	-4.251579e-07	-2.278635e-10	-2.965375e+00	-1.777335e+01
1.760000e-06	-3.785575e-07	-2.147678e-10	-2.640349e+00	-1.687917e+01
1.770000e-06	-3.318674e-07	-2.013731e-10	-2.314696e+00	-1.596492e+01
1.780000e-06	-2.852593e-07	-1.898384e-10	-1.989616e+00	-1.503064e+01
1.790000e-06	-2.386562e-07	-1.792203e-10	-1.664570e+00	-1.407643e+01
1.800000e-06	-1.919509e-07	-1.662050e-10	-1.338812e+00	-1.310249e+01
1.810000e-06	-1.452878e-07	-1.520648e-10	-1.013348e+00	-1.210908e+01
1.820000e-06	-9.876026e-08	-1.376547e-10	-6.888293e-01	-1.109655e+01
1.830000e-06	-5.222620e-08	-1.225900e-10	-3.642653e-01	-1.006534e+01
1.840000e-06	-5.581232e-09	-1.075070e-10	-3.892777e-02	-9.015952e+00
1.850000e-06	4.105519e-08	-9.269295e-11	2.863502e-01	-7.948968e+00
1.860000e-06	8.758241e-08	-8.095315e-11	6.108665e-01	-6.865045e+00
1.870000e-06	1.342086e-07	-6.807779e-11	9.360730e-01	-5.764911e+00
1.880000e-06	1.809361e-07	-5.191162e-11	1.261986e+00	-4.649359e+00
1.890000e-06	2.275879e-07	-3.379928e-11	1.587371e+00	-3.519248e+00
1.900000e-06	2.741957e-07	-1.520327e-11	1.912450e+00	-2.375492e+00
1.910000e-06	3.208067e-07	1.613051e-12	2.237550e+00	-1.219062e+00
1.920000e-06	3.674016e-07	1.584768e-11	2.562539e+00	-5.097694e-02
1.930000e-06	4.139367e-07	2.896287e-11	2.887110e+00	1.127702e+00
1.940000e-06	4.604264e-07	4.282617e-11	3.211365e+00	2.315875e+00
1.950000e-06	5.069388e-07	5.749248e-11	3.535777e+00	3.512410e+00
1.960000e-06	5.534581e-07	7.467878e-11	3.860238e+00	4.716149e+00
1.970000e-06	5.998086e-07	9.382121e-11	4.183522e+00	5.925914e+00
1.980000e-06	6.460947e-07	1.114825e-10	4.506356e+00	7.140512e+00
1.990000e-06	6.923887e-07	1.280569e-10	4.829246e+00	8.358745e+00
2.000000e-06	7.385702e-07	1.406554e-10	5.151351e+00	9.579411e+00
2.010000e-06	7.846812e-07	1.537384e-10	5.472965e+00	1.080131e+01
2.020000e-06	8.307006e-07	1.705073e-10	5.793939e+00	1.202326e+01
2.030000e-06	8.766959e-07	1.905779e-10	6.114745e+00	1.324408e+01
2.040000e-06	9.226745e-07	2.099918e-10	6.435435e+00	1.446262e+01
2.050000e-06	9.685958e-07	2.277688e-10	6.755725e+00	1.567775e+01
2.060000e-06	1.014492e-06	2.432979e-10	7.075838e+00	1.688838e+01
2.070000e-06	1.060294e-06	2.561122e-10	7.395296e+00	1.809344e+01
2.080000e-06	1.105986e-06	2.702425e-10	7.713986e+00	1.929191e+01
2.090000e-06	1.151590e-06	2.866226e-10	8.032064e+00	2.048280e+01
2.100000e-06	1.197127e-06	3.047743e-10	8.349675e+00	2.166517e+01
2.110000e-06	1.242569e-06	3.210552e-10	8.666623e+00	2.283814e+01
2.120000e-06	1.287870e-06	3.360676e-10	8.982587e+00	2.400086e+01
2.130000e-06	1.333122e-06	3.515734e-10	9.298207e+00	2.515254e+01
2.140000e-06	1.378290e-06	3.667703e-10	9.613246e+00	2.629243e+01
2.150000e-06	1.423307e-06	3.822408e-10	9.927230e+00	2.741987e+01
2.160000e-06	1.468219e-06	3.981244e-10	1.024048e+01	2.853420e+01
2.170000e-06	1.513109e-06	4.128511e-10	1.055357e+01	2.963486e+01
2.180000e-06	1.557921e-06	4.298543e-10	1.086613e+01	3.072132e+01
2.190000e-06	1.602549e-06	4.462064e-10	1.117740e+01	3.179311e+01
2.200000e-06	1.647025e-06	4.620883e-10	1.148761e+01	3.284981e+01
2.210000e-06	1.691340e-06	4.768501e-10	1.179670e+01	3.389104e+01
2.220000e-06	1.735538e-06	4.908040e-10	1.210496e+01	3.491648e+01
2.230000e-06	1.779675e-06	5.066103e-10	1.241281e+01	3.592586e+01
2.240000e-06	1.823695e-06	5.200719e-10	1.271984e+01	3.691895e+01
2.250000e-06	1.867619e-06	5.319795e-10	1.302620e+01	3.789554e+01
2.260000e-06	1.911485e-06	5.414791e-10	1.333215e+01	3.885550e+01
2.270000e-06	1.955269e-06	5.554761e-10	1.363754e+01	3.979870e+01
2.280000e-06	1.998967e-06	5.731654e-10	1.394232e+01	4.072506e+01
2.290000e-06	2.042610e-06	5.903717e-10	1.424672e+01	4.163453e+01
2.300000e-06	2.086218e-06	6.053985e-10	1.455087e+01	4.252708e+01
2.310000e-06	2.129709e-06	6.169825e-10	1.485421e+01	4.340272e+01
2.320000e-06	2.173100e-06	6.267245e-10	1.515686e+01	4.426147e+01
2.330000e-06	2.216467e-06	6.363211e-10	1.545933e+01	4.510336e+01
2.340000e-06	2.259758e-06	6.497941e-10	1.576127e+01	4.592847e+01
2.350000e-06	2.302821e-06	6.678405e-10	1.606163e+01	4.673685e+01
2.360000e-06	2.345558e-06	6.867678e-10	1.635971e+01	4.752861e+01
2.370000e-06	2.387988e-06	6.987542e-10	1.665565e+01	4.830383e+01
2.380000e-06	2.430141e-06	7.053874e-10	1.694965e+01	4.906262e+01
2.390000e-06	2.472017e-06	7.118834e-10	1.724173e+01	4.980509e+01
2.400000e-06	2.513499e-06	7.195800e-10	1.753106e+01	5.053136e+01
2.410000e-06	2.554576e-06	7.263537e-10	1.781756e+01	5.124155e+01
2.420000e-06	2.595376e-06	7.360968e-10	1.810213e+01	5.193578e+01
2.430000e-06	2.635888e-06	7.498777e-10	1.838469e+01	5.261418e+01
2.440000e-06	2.676170e-06	7.620795e-10	1.866565e+01	5.327688e+01
2.450000e-06	2.716317e-06	7.694618e-10	1.894567e+01	5.392401e+01
2.460000e-06	2.756373e-06	7.781011e-10	1.922504e+01	5.455570e+01
2.470000e-06	2.796281e-06	7.883837e-10	1.950339e+01	5.517207e+01
2.480000e-06	2.836023e-06	7.980203e-10	1.978059e+01	5.577328e+01
2.490000e-06	2.875649e-06	8.079145e-10	2.005697e+01	5.635944e+01
2.500000e-06	2.915165e-06	8.172039e-10	2.033258e+01	5.693071e+01
2.510000e-06	2.954509e-06	8.266075e-10	2.060700e+01	5.748723e+01
2.520000e-06	2.993708e-06	8.360468e-10	2.088040e+01	5.802914e+01
2.530000e-06	3.032814e-06	8.422507e-10	2.115316e+01	5.855659e+01
2.540000e-06	3.071634e-06	8.458717e-10	2.142392e+01	5.906974e+01
2.550000e-06	3.110078e-06	8.513650e-10	2.169205e+01	5.956877e+01
2.560000e-06	3.148240e-06	8.575916e-10	2.195823e+01	6.005384e+01
2.570000e-06	3.186159e-06	8.631336e-10	2.222270e+01	6.052513e+01
2.580000e-06	3.223858e-06	8.691787e-10	2.248564e+01	6.098283e+01
2.590000e-06	3.261410e-06	8.755300e-10	2.274756e+01	6.142715e+01
2.600000e-06	3.298852e-06	8.827649e-10	2.300871e+01	6.185829e+01
2.610000e-06	3.336085e-06	8.868632e-10	2.326840e+01	6.227649e+01
2.620000e-06	3.373019e-06	8.860799e-10	2.352600e+01	6.268197e+01
2.630000e-06	3.409670e-06	8.864586e-10	2.378163e+01	6.307499e+01
2.640000e-06	3.446071e-06	8.894649e-10	2.403552e+01	6.345580e+01
2.650000e-06	3.482222e-06	8.942381e-10	2.428767e+01	6.382468e+01
2.660000e-06	3.518171e-06	9.001888e-10	2.453841e+01	6.418190e+01
2.670000e-06	3.554012e-06	9.065088e-10	2.478838e+01	6.452777e+01
2.680000e-06	3.589751e-06	9.120622e-10	2.503766e+01	6.486259e+01
2.690000e-06	3.625353e-06	9.168874e-10	2.528597e+01	6.518668e+01
2.700000e-06	3.660785e-06	9.204547e-10	2.553310e+01	6.550036e+01
2.710000e-06	3.696005e-06	9.226479e-10	2.577876e+01	6.580397e+01
2.720000e-06	3.730944e-06	9.256864e-10	2.602245e+01	6.609786e+01
2.730000e-06	3.765522e-06	9.305781e-10	2.626362e+01	6.638235e+01
2.740000e-06	3.799631e-06	9.351670e-10	2.650152e+01	6.665782e+01
2.750000e-06	3.833309e-06	9.382783e-10	2.673642e+01	6.692461e+01
2.760000e-06	3.866571e-06	9.410735e-10	2.696841e+01	6.718307e+01
2.770000e-06	3.899377e-06	9.459406e-10	2.719722e+01	6.743357e+01
2.780000e-06	3.931821e-06	9.506078e-10	2.742351e+01	6.767645e+01
2.790000e-06	3.963958e-06	9.546888e-10	2.764767e+01	6.791205e+01
2.800000e-06	3.995885e-06	9.593810e-10	2.787035e+01	6.814073e+01
2.810000e-06	4.027636e-06	9.641347e-10	2.809180e+01	6.836280e+01
2.820000e-06	4.059138e-06	9.685952e-10	2.831152e+01	6.857860e+01
2.830000e-06	4.090383e-06	9.727442e-10	2.852945e+01	6.878843e+01
2.840000e-06	4.121429e-06	9.773593e-10	2.874598e+01	6.899258e+01
2.850000e-06	4.152241e-06	9.833130e-10	2.896089e+01	6.919135e+01
2.860000e-06	4.182686e-06	9.883317e-10	2.917324e+01	6.938499e+01
2.870000e-06	4.212841e-06	9.902949e-10	2.938356e+01	6.957376e+01
2.880000e-06	4.242768e-06	9.921831e-10	2.959229e+01	6.975787e+01
2.890000e-06	4.272407e-06	9.960315e-10	2.979902e+01	6.993755e+01
2.900000e-06	4.301827e-06	1.000406e-09	3.000422e+01	7.011297e+01
2.910000e-06	4.331011e-06	1.005153e-09	3.020777e+01	7.028430e+01
