# Temperatura_=_-0.7
# Concentracion g/m^3_=_1620.0
# C_Vs_to_Am_M_A/Vsm_=_65563218390.804596
# pendiente_HvsI_1/m_=_3716.3
# ordenada_HvsI_A/m_=_1297.0
# frecuencia_Hz_=_135097.59816145108

Tiempo_(s)	Campo_(V.s)	Magnetizacion_(V.s)	Campo_(kA/m)	Magnetizacion_(A/m)
0.000000e+00	-5.522965e-06	-1.293719e-09	-3.837566e+01	-8.691616e+01
1.000000e-08	-5.523185e-06	-1.288217e-09	-3.837719e+01	-8.688210e+01
2.000000e-08	-5.523217e-06	-1.286453e-09	-3.837741e+01	-8.684838e+01
3.000000e-08	-5.522882e-06	-1.286850e-09	-3.837509e+01	-8.681474e+01
4.000000e-08	-5.522183e-06	-1.286003e-09	-3.837023e+01	-8.678089e+01
5.000000e-08	-5.521001e-06	-1.277276e-09	-3.836202e+01	-8.674656e+01
6.000000e-08	-5.519164e-06	-1.262471e-09	-3.834925e+01	-8.671141e+01
7.000000e-08	-5.516659e-06	-1.265975e-09	-3.833184e+01	-8.667514e+01
8.000000e-08	-5.513666e-06	-1.326003e-09	-3.831105e+01	-8.663739e+01
9.000000e-08	-5.510209e-06	-1.402856e-09	-3.828703e+01	-8.659783e+01
1.000000e-07	-5.506146e-06	-1.379074e-09	-3.825880e+01	-8.655610e+01
1.100000e-07	-5.501804e-06	-1.255110e-09	-3.822863e+01	-8.651186e+01
1.200000e-07	-5.497442e-06	-1.218405e-09	-3.819832e+01	-8.646476e+01
1.300000e-07	-5.492749e-06	-1.291574e-09	-3.816571e+01	-8.641446e+01
1.400000e-07	-5.487516e-06	-1.346305e-09	-3.812935e+01	-8.636062e+01
1.500000e-07	-5.481888e-06	-1.252310e-09	-3.809024e+01	-8.630292e+01
1.600000e-07	-5.476036e-06	-1.213737e-09	-3.804958e+01	-8.624106e+01
1.700000e-07	-5.469848e-06	-1.291735e-09	-3.800659e+01	-8.617474e+01
1.800000e-07	-5.463044e-06	-1.381593e-09	-3.795931e+01	-8.610369e+01
1.900000e-07	-5.455807e-06	-1.320608e-09	-3.790902e+01	-8.602766e+01
2.000000e-07	-5.448364e-06	-1.244684e-09	-3.785730e+01	-8.594642e+01
2.100000e-07	-5.440617e-06	-1.269710e-09	-3.780347e+01	-8.585978e+01
2.200000e-07	-5.432653e-06	-1.337340e-09	-3.774814e+01	-8.576755e+01
2.300000e-07	-5.424499e-06	-1.330451e-09	-3.769148e+01	-8.566960e+01
2.400000e-07	-5.415940e-06	-1.289626e-09	-3.763201e+01	-8.556579e+01
2.500000e-07	-5.406659e-06	-1.306637e-09	-3.756752e+01	-8.545606e+01
2.600000e-07	-5.396678e-06	-1.329914e-09	-3.749817e+01	-8.534032e+01
2.700000e-07	-5.386127e-06	-1.312135e-09	-3.742486e+01	-8.521857e+01
2.800000e-07	-5.375007e-06	-1.269308e-09	-3.734759e+01	-8.509079e+01
2.900000e-07	-5.363464e-06	-1.299095e-09	-3.726739e+01	-8.495701e+01
3.000000e-07	-5.351647e-06	-1.313320e-09	-3.718528e+01	-8.481730e+01
3.100000e-07	-5.339454e-06	-1.290164e-09	-3.710056e+01	-8.467174e+01
3.200000e-07	-5.326645e-06	-1.251612e-09	-3.701155e+01	-8.452042e+01
3.300000e-07	-5.313419e-06	-1.293473e-09	-3.691966e+01	-8.436350e+01
3.400000e-07	-5.299971e-06	-1.306465e-09	-3.682621e+01	-8.420112e+01
3.500000e-07	-5.286150e-06	-1.283142e-09	-3.673018e+01	-8.403345e+01
3.600000e-07	-5.271805e-06	-1.263241e-09	-3.663051e+01	-8.386069e+01
3.700000e-07	-5.257069e-06	-1.295050e-09	-3.652811e+01	-8.368305e+01
3.800000e-07	-5.241902e-06	-1.272651e-09	-3.642273e+01	-8.350073e+01
3.900000e-07	-5.226125e-06	-1.258066e-09	-3.631310e+01	-8.331399e+01
4.000000e-07	-5.209847e-06	-1.292703e-09	-3.620000e+01	-8.312305e+01
4.100000e-07	-5.193173e-06	-1.294981e-09	-3.608414e+01	-8.292815e+01
4.200000e-07	-5.176102e-06	-1.229694e-09	-3.596552e+01	-8.272954e+01
4.300000e-07	-5.158733e-06	-1.243190e-09	-3.584484e+01	-8.252748e+01
4.400000e-07	-5.141198e-06	-1.298730e-09	-3.572300e+01	-8.232219e+01
4.500000e-07	-5.123241e-06	-1.261704e-09	-3.559823e+01	-8.211393e+01
4.600000e-07	-5.104742e-06	-1.221301e-09	-3.546969e+01	-8.190292e+01
4.700000e-07	-5.085969e-06	-1.267249e-09	-3.533924e+01	-8.168938e+01
4.800000e-07	-5.066879e-06	-1.270019e-09	-3.520660e+01	-8.147352e+01
4.900000e-07	-5.047391e-06	-1.219201e-09	-3.507119e+01	-8.125555e+01
5.000000e-07	-5.027663e-06	-1.247985e-09	-3.493411e+01	-8.103564e+01
5.100000e-07	-5.007765e-06	-1.267632e-09	-3.479586e+01	-8.081396e+01
5.200000e-07	-4.987609e-06	-1.213841e-09	-3.465581e+01	-8.059065e+01
5.300000e-07	-4.967076e-06	-1.215472e-09	-3.451313e+01	-8.036586e+01
5.400000e-07	-4.946224e-06	-1.274365e-09	-3.436825e+01	-8.013968e+01
5.500000e-07	-4.924976e-06	-1.238763e-09	-3.422060e+01	-7.991222e+01
5.600000e-07	-4.903295e-06	-1.196623e-09	-3.406996e+01	-7.968353e+01
5.700000e-07	-4.881379e-06	-1.225978e-09	-3.391768e+01	-7.945368e+01
5.800000e-07	-4.859202e-06	-1.228818e-09	-3.376359e+01	-7.922268e+01
5.900000e-07	-4.836588e-06	-1.189800e-09	-3.360645e+01	-7.899055e+01
6.000000e-07	-4.813588e-06	-1.212632e-09	-3.344664e+01	-7.875729e+01
6.100000e-07	-4.790348e-06	-1.224374e-09	-3.328516e+01	-7.852285e+01
6.200000e-07	-4.766808e-06	-1.193491e-09	-3.312160e+01	-7.828720e+01
6.300000e-07	-4.743027e-06	-1.186362e-09	-3.295636e+01	-7.805028e+01
6.400000e-07	-4.719094e-06	-1.199957e-09	-3.279006e+01	-7.781201e+01
6.500000e-07	-4.694840e-06	-1.175135e-09	-3.262154e+01	-7.757229e+01
6.600000e-07	-4.670094e-06	-1.169676e-09	-3.244959e+01	-7.733103e+01
6.700000e-07	-4.644951e-06	-1.186293e-09	-3.227489e+01	-7.708811e+01
6.800000e-07	-4.619253e-06	-1.182269e-09	-3.209632e+01	-7.684340e+01
6.900000e-07	-4.592914e-06	-1.171367e-09	-3.191331e+01	-7.659679e+01
7.000000e-07	-4.566185e-06	-1.183068e-09	-3.172759e+01	-7.634813e+01
7.100000e-07	-4.539063e-06	-1.175283e-09	-3.153913e+01	-7.609729e+01
7.200000e-07	-4.511589e-06	-1.157448e-09	-3.134823e+01	-7.584412e+01
7.300000e-07	-4.483929e-06	-1.152396e-09	-3.115604e+01	-7.558848e+01
7.400000e-07	-4.456127e-06	-1.145370e-09	-3.096287e+01	-7.533024e+01
7.500000e-07	-4.428100e-06	-1.135462e-09	-3.076812e+01	-7.506925e+01
7.600000e-07	-4.399796e-06	-1.139117e-09	-3.057146e+01	-7.480539e+01
7.700000e-07	-4.371164e-06	-1.139489e-09	-3.037251e+01	-7.453852e+01
7.800000e-07	-4.342188e-06	-1.128541e-09	-3.017117e+01	-7.426852e+01
7.900000e-07	-4.312860e-06	-1.130782e-09	-2.996739e+01	-7.399529e+01
8.000000e-07	-4.283247e-06	-1.132657e-09	-2.976163e+01	-7.371872e+01
8.100000e-07	-4.253448e-06	-1.117188e-09	-2.955458e+01	-7.343871e+01
8.200000e-07	-4.223340e-06	-1.104442e-09	-2.934537e+01	-7.315517e+01
8.300000e-07	-4.192839e-06	-1.106133e-09	-2.913344e+01	-7.286805e+01
8.400000e-07	-4.162050e-06	-1.098347e-09	-2.891950e+01	-7.257726e+01
8.500000e-07	-4.131033e-06	-1.089960e-09	-2.870399e+01	-7.228277e+01
8.600000e-07	-4.099749e-06	-1.091000e-09	-2.848661e+01	-7.198452e+01
8.700000e-07	-4.068223e-06	-1.089934e-09	-2.826756e+01	-7.168250e+01
8.800000e-07	-4.036573e-06	-1.076369e-09	-2.804764e+01	-7.137666e+01
8.900000e-07	-4.004813e-06	-1.074752e-09	-2.782697e+01	-7.106702e+01
9.000000e-07	-3.972814e-06	-1.072034e-09	-2.760462e+01	-7.075356e+01
9.100000e-07	-3.940486e-06	-1.059651e-09	-2.738000e+01	-7.043629e+01
9.200000e-07	-3.907850e-06	-1.049553e-09	-2.715323e+01	-7.011522e+01
9.300000e-07	-3.874887e-06	-1.051234e-09	-2.692419e+01	-6.979038e+01
9.400000e-07	-3.841424e-06	-1.043457e-09	-2.669168e+01	-6.946179e+01
9.500000e-07	-3.807390e-06	-1.036560e-09	-2.645520e+01	-6.912948e+01
9.600000e-07	-3.772969e-06	-1.036625e-09	-2.621602e+01	-6.879348e+01
9.700000e-07	-3.738230e-06	-1.031770e-09	-2.597464e+01	-6.845383e+01
9.800000e-07	-3.703084e-06	-1.019606e-09	-2.573044e+01	-6.811057e+01
9.900000e-07	-3.667650e-06	-1.016230e-09	-2.548423e+01	-6.776374e+01
1.000000e-06	-3.632061e-06	-1.013825e-09	-2.523694e+01	-6.741335e+01
1.010000e-06	-3.596302e-06	-1.004476e-09	-2.498847e+01	-6.705946e+01
1.020000e-06	-3.560418e-06	-9.977724e-10	-2.473914e+01	-6.670208e+01
1.030000e-06	-3.524384e-06	-9.977667e-10	-2.448876e+01	-6.634124e+01
1.040000e-06	-3.488087e-06	-9.911435e-10	-2.423656e+01	-6.597695e+01
1.050000e-06	-3.451572e-06	-9.826448e-10	-2.398283e+01	-6.560923e+01
1.060000e-06	-3.414853e-06	-9.786502e-10	-2.372770e+01	-6.523808e+01
1.070000e-06	-3.377814e-06	-9.710757e-10	-2.347034e+01	-6.486350e+01
1.080000e-06	-3.340536e-06	-9.611182e-10	-2.321131e+01	-6.448547e+01
1.090000e-06	-3.303087e-06	-9.573955e-10	-2.295111e+01	-6.410396e+01
1.100000e-06	-3.265403e-06	-9.560830e-10	-2.268926e+01	-6.371896e+01
1.110000e-06	-3.227446e-06	-9.475770e-10	-2.242553e+01	-6.333040e+01
1.120000e-06	-3.189221e-06	-9.406860e-10	-2.215992e+01	-6.293825e+01
1.130000e-06	-3.150748e-06	-9.335478e-10	-2.189259e+01	-6.254244e+01
1.140000e-06	-3.112057e-06	-9.241042e-10	-2.162376e+01	-6.214289e+01
1.150000e-06	-3.073146e-06	-9.129564e-10	-2.135339e+01	-6.173953e+01
1.160000e-06	-3.034095e-06	-9.057338e-10	-2.108205e+01	-6.133225e+01
1.170000e-06	-2.994937e-06	-8.986917e-10	-2.080996e+01	-6.092096e+01
1.180000e-06	-2.955609e-06	-8.941155e-10	-2.053669e+01	-6.050554e+01
1.190000e-06	-2.916137e-06	-8.916182e-10	-2.026243e+01	-6.008588e+01
1.200000e-06	-2.876474e-06	-8.870187e-10	-1.998684e+01	-5.966184e+01
1.210000e-06	-2.836671e-06	-8.765528e-10	-1.971027e+01	-5.923328e+01
1.220000e-06	-2.796755e-06	-8.665357e-10	-1.943292e+01	-5.880006e+01
1.230000e-06	-2.756690e-06	-8.570984e-10	-1.915453e+01	-5.836202e+01
1.240000e-06	-2.716481e-06	-8.469662e-10	-1.887515e+01	-5.791900e+01
1.250000e-06	-2.676017e-06	-8.362606e-10	-1.859399e+01	-5.747084e+01
1.260000e-06	-2.635315e-06	-8.285722e-10	-1.831117e+01	-5.701735e+01
1.270000e-06	-2.594353e-06	-8.212025e-10	-1.802655e+01	-5.655836e+01
1.280000e-06	-2.553083e-06	-8.170973e-10	-1.773980e+01	-5.609368e+01
1.290000e-06	-2.511626e-06	-8.133892e-10	-1.745174e+01	-5.562312e+01
1.300000e-06	-2.469889e-06	-8.067244e-10	-1.716173e+01	-5.514648e+01
1.310000e-06	-2.427918e-06	-7.965247e-10	-1.687010e+01	-5.466356e+01
1.320000e-06	-2.385694e-06	-7.851288e-10	-1.657671e+01	-5.417415e+01
1.330000e-06	-2.343089e-06	-7.746273e-10	-1.628067e+01	-5.367803e+01
1.340000e-06	-2.300147e-06	-7.647496e-10	-1.598230e+01	-5.317499e+01
1.350000e-06	-2.256928e-06	-7.559345e-10	-1.568200e+01	-5.266479e+01
1.360000e-06	-2.213569e-06	-7.476758e-10	-1.538072e+01	-5.214722e+01
1.370000e-06	-2.170032e-06	-7.401488e-10	-1.507821e+01	-5.162202e+01
1.380000e-06	-2.126322e-06	-7.358197e-10	-1.477450e+01	-5.108896e+01
1.390000e-06	-2.082553e-06	-7.323653e-10	-1.447037e+01	-5.054778e+01
1.400000e-06	-2.038725e-06	-7.239182e-10	-1.416583e+01	-4.999822e+01
1.410000e-06	-1.994854e-06	-7.127855e-10	-1.386101e+01	-4.944001e+01
1.420000e-06	-1.950952e-06	-7.010095e-10	-1.355596e+01	-4.887288e+01
1.430000e-06	-1.906953e-06	-6.901513e-10	-1.325023e+01	-4.829654e+01
1.440000e-06	-1.862809e-06	-6.805246e-10	-1.294350e+01	-4.771069e+01
1.450000e-06	-1.818590e-06	-6.717369e-10	-1.263626e+01	-4.711502e+01
1.460000e-06	-1.774333e-06	-6.634932e-10	-1.232874e+01	-4.650923e+01
1.470000e-06	-1.730017e-06	-6.571273e-10	-1.202081e+01	-4.589298e+01
1.480000e-06	-1.685506e-06	-6.485383e-10	-1.171154e+01	-4.526593e+01
1.490000e-06	-1.640663e-06	-6.380825e-10	-1.139995e+01	-4.462774e+01
1.500000e-06	-1.595669e-06	-6.274239e-10	-1.108732e+01	-4.397805e+01
1.510000e-06	-1.550734e-06	-6.173679e-10	-1.077509e+01	-4.331648e+01
1.520000e-06	-1.505695e-06	-6.053985e-10	-1.046214e+01	-4.264266e+01
1.530000e-06	-1.460479e-06	-5.928935e-10	-1.014796e+01	-4.195618e+01
1.540000e-06	-1.415085e-06	-5.777958e-10	-9.832549e+00	-4.125667e+01
1.550000e-06	-1.369610e-06	-5.647307e-10	-9.516568e+00	-4.054370e+01
1.560000e-06	-1.324134e-06	-5.554109e-10	-9.200587e+00	-3.981686e+01
1.570000e-06	-1.278466e-06	-5.470370e-10	-8.883266e+00	-3.907574e+01
1.580000e-06	-1.232685e-06	-5.382901e-10	-8.565167e+00	-3.831990e+01
1.590000e-06	-1.186883e-06	-5.281618e-10	-8.246916e+00	-3.754892e+01
1.600000e-06	-1.140957e-06	-5.145272e-10	-7.927803e+00	-3.676237e+01
1.610000e-06	-1.094994e-06	-4.983207e-10	-7.608434e+00	-3.595983e+01
1.620000e-06	-1.049022e-06	-4.844326e-10	-7.289005e+00	-3.514088e+01
1.630000e-06	-1.002934e-06	-4.737878e-10	-6.968770e+00	-3.430509e+01
1.640000e-06	-9.567237e-07	-4.647502e-10	-6.647680e+00	-3.345207e+01
1.650000e-06	-9.104686e-07	-4.551846e-10	-6.326282e+00	-3.258142e+01
1.660000e-06	-8.642312e-07	-4.435394e-10	-6.005007e+00	-3.169277e+01
1.670000e-06	-8.179602e-07	-4.275811e-10	-5.683499e+00	-3.078574e+01
1.680000e-06	-7.716453e-07	-4.088891e-10	-5.361685e+00	-2.986001e+01
1.690000e-06	-7.253172e-07	-3.905139e-10	-5.039780e+00	-2.891525e+01
1.700000e-06	-6.788921e-07	-3.745926e-10	-4.717201e+00	-2.795119e+01
1.710000e-06	-6.323389e-07	-3.607718e-10	-4.393731e+00	-2.696757e+01
1.720000e-06	-5.857193e-07	-3.485246e-10	-4.069801e+00	-2.596417e+01
1.730000e-06	-5.391123e-07	-3.346266e-10	-3.745958e+00	-2.494081e+01
1.740000e-06	-4.924482e-07	-3.175004e-10	-3.421718e+00	-2.389735e+01
1.750000e-06	-4.456293e-07	-2.982301e-10	-3.096402e+00	-2.283370e+01
1.760000e-06	-3.988039e-07	-2.794306e-10	-2.771041e+00	-2.174981e+01
1.770000e-06	-3.519744e-07	-2.617452e-10	-2.445652e+00	-2.064568e+01
1.780000e-06	-3.051804e-07	-2.469421e-10	-2.120510e+00	-1.952139e+01
1.790000e-06	-2.583763e-07	-2.345400e-10	-1.795297e+00	-1.837703e+01
1.800000e-06	-2.115023e-07	-2.217735e-10	-1.469599e+00	-1.721278e+01
1.810000e-06	-1.645610e-07	-2.072741e-10	-1.143433e+00	-1.602888e+01
1.820000e-06	-1.176078e-07	-1.920990e-10	-8.171836e-01	-1.482562e+01
1.830000e-06	-7.078463e-08	-1.767187e-10	-4.918385e-01	-1.360335e+01
1.840000e-06	-2.404571e-08	-1.588584e-10	-1.670787e-01	-1.236250e+01
1.850000e-06	2.271632e-08	-1.390886e-10	1.578416e-01	-1.110354e+01
1.860000e-06	6.961886e-08	-1.196378e-10	4.837383e-01	-9.827042e+00
1.870000e-06	1.165303e-07	-1.005620e-10	8.096968e-01	-8.533603e+00
1.880000e-06	1.633303e-07	-8.213967e-11	1.134881e+00	-7.223905e+00
1.890000e-06	2.101263e-07	-6.241792e-11	1.460037e+00	-5.898688e+00
1.900000e-06	2.569577e-07	-4.516584e-11	1.785440e+00	-4.558750e+00
1.910000e-06	3.038207e-07	-2.905821e-11	2.111062e+00	-3.204953e+00
1.920000e-06	3.506159e-07	-1.181613e-11	2.436213e+00	-1.838211e+00
1.930000e-06	3.973450e-07	8.314884e-12	2.760904e+00	-4.594943e-01
1.940000e-06	4.440696e-07	3.045277e-11	3.085564e+00	9.301766e-01
1.950000e-06	4.907628e-07	5.330204e-11	3.410006e+00	2.329734e+00
1.960000e-06	5.373928e-07	7.558742e-11	3.734009e+00	3.738068e+00
1.970000e-06	5.839630e-07	9.249376e-11	4.057597e+00	5.154027e+00
1.980000e-06	6.305100e-07	1.075613e-10	4.381024e+00	6.576427e+00
1.990000e-06	6.770355e-07	1.249935e-10	4.704300e+00	8.004053e+00
2.000000e-06	7.235148e-07	1.436481e-10	5.027256e+00	9.435666e+00
2.010000e-06	7.698681e-07	1.639722e-10	5.349336e+00	1.087001e+01
2.020000e-06	8.161783e-07	1.874874e-10	5.671117e+00	1.230580e+01
2.030000e-06	8.625027e-07	2.129670e-10	5.992997e+00	1.374176e+01
2.040000e-06	9.087869e-07	2.385392e-10	6.314597e+00	1.517661e+01
2.050000e-06	9.549441e-07	2.586176e-10	6.635315e+00	1.660906e+01
2.060000e-06	1.001000e-06	2.751235e-10	6.955327e+00	1.803783e+01
2.070000e-06	1.047036e-06	2.879564e-10	7.275203e+00	1.946167e+01
2.080000e-06	1.092951e-06	3.028262e-10	7.594240e+00	2.087931e+01
2.090000e-06	1.138786e-06	3.221545e-10	7.912717e+00	2.228956e+01
2.100000e-06	1.184598e-06	3.461368e-10	8.231041e+00	2.369120e+01
2.110000e-06	1.230338e-06	3.740514e-10	8.548854e+00	2.508310e+01
2.120000e-06	1.275912e-06	3.985053e-10	8.865520e+00	2.646412e+01
2.130000e-06	1.321319e-06	4.186824e-10	9.181028e+00	2.783319e+01
2.140000e-06	1.366713e-06	4.337869e-10	9.496440e+00	2.918928e+01
2.150000e-06	1.412052e-06	4.479806e-10	9.811477e+00	3.053142e+01
2.160000e-06	1.457247e-06	4.634563e-10	1.012551e+01	3.185868e+01
2.170000e-06	1.502358e-06	4.819526e-10	1.043896e+01	3.317020e+01
2.180000e-06	1.547411e-06	5.046546e-10	1.075200e+01	3.446516e+01
2.190000e-06	1.592297e-06	5.275419e-10	1.106388e+01	3.574283e+01
2.200000e-06	1.636980e-06	5.480790e-10	1.137436e+01	3.700251e+01
2.210000e-06	1.681593e-06	5.655039e-10	1.168435e+01	3.824361e+01
2.220000e-06	1.726080e-06	5.807049e-10	1.199346e+01	3.946555e+01
2.230000e-06	1.770355e-06	5.960504e-10	1.230110e+01	4.066786e+01
2.240000e-06	1.814519e-06	6.103605e-10	1.260797e+01	4.185013e+01
2.250000e-06	1.858652e-06	6.229916e-10	1.291462e+01	4.301198e+01
2.260000e-06	1.902720e-06	6.345253e-10	1.322083e+01	4.415314e+01
2.270000e-06	1.946703e-06	6.517893e-10	1.352644e+01	4.527337e+01
2.280000e-06	1.990601e-06	6.731453e-10	1.383145e+01	4.637252e+01
2.290000e-06	2.034484e-06	6.905617e-10	1.413637e+01	4.745047e+01
2.300000e-06	2.078330e-06	7.043778e-10	1.444102e+01	4.850716e+01
2.310000e-06	2.122062e-06	7.156908e-10	1.474490e+01	4.954262e+01
2.320000e-06	2.165705e-06	7.271094e-10	1.504814e+01	5.055688e+01
2.330000e-06	2.209258e-06	7.379913e-10	1.535076e+01	5.155005e+01
2.340000e-06	2.252681e-06	7.513547e-10	1.565248e+01	5.252227e+01
2.350000e-06	2.295880e-06	7.669536e-10	1.595265e+01	5.347373e+01
2.360000e-06	2.338869e-06	7.847324e-10	1.625135e+01	5.440465e+01
2.370000e-06	2.381584e-06	8.018880e-10	1.654815e+01	5.531529e+01
2.380000e-06	2.423943e-06	8.147958e-10	1.684248e+01	5.620593e+01
2.390000e-06	2.466022e-06	8.250699e-10	1.713486e+01	5.707687e+01
2.400000e-06	2.507856e-06	8.331158e-10	1.742554e+01	5.792845e+01
2.410000e-06	2.549314e-06	8.397158e-10	1.771360e+01	5.876101e+01
2.420000e-06	2.590359e-06	8.492171e-10	1.799880e+01	5.957492e+01
2.430000e-06	2.631149e-06	8.635571e-10	1.828222e+01	6.037054e+01
2.440000e-06	2.671712e-06	8.811088e-10	1.856407e+01	6.114824e+01
2.450000e-06	2.712033e-06	8.963344e-10	1.884423e+01	6.190842e+01
2.460000e-06	2.752192e-06	9.080341e-10	1.912328e+01	6.265145e+01
2.470000e-06	2.792197e-06	9.190221e-10	1.940125e+01	6.337770e+01
2.480000e-06	2.832045e-06	9.289943e-10	1.967812e+01	6.408755e+01
2.490000e-06	2.871823e-06	9.389926e-10	1.995452e+01	6.478137e+01
2.500000e-06	2.911558e-06	9.496298e-10	2.023061e+01	6.545950e+01
2.510000e-06	2.951235e-06	9.582450e-10	2.050630e+01	6.612230e+01
2.520000e-06	2.990739e-06	9.659815e-10	2.078079e+01	6.677009e+01
2.530000e-06	3.029929e-06	9.753984e-10	2.105310e+01	6.740320e+01
2.540000e-06	3.068902e-06	9.844007e-10	2.132390e+01	6.802194e+01
2.550000e-06	3.107720e-06	9.928177e-10	2.159362e+01	6.862658e+01
2.560000e-06	3.146227e-06	1.002198e-09	2.186118e+01	6.921741e+01
2.570000e-06	3.184463e-06	1.012050e-09	2.212686e+01	6.979468e+01
2.580000e-06	3.222475e-06	1.019987e-09	2.239098e+01	7.035865e+01
2.590000e-06	3.260275e-06	1.025908e-09	2.265363e+01	7.090954e+01
2.600000e-06	3.297920e-06	1.032206e-09	2.291520e+01	7.144758e+01
2.610000e-06	3.335389e-06	1.038943e-09	2.317555e+01	7.197298e+01
2.620000e-06	3.372621e-06	1.043754e-09	2.343425e+01	7.248592e+01
2.630000e-06	3.409643e-06	1.049076e-09	2.369149e+01	7.298660e+01
2.640000e-06	3.446440e-06	1.056114e-09	2.394717e+01	7.347519e+01
2.650000e-06	3.482924e-06	1.064190e-09	2.420068e+01	7.395188e+01
2.660000e-06	3.519126e-06	1.072242e-09	2.445223e+01	7.441682e+01
2.670000e-06	3.555140e-06	1.077993e-09	2.470247e+01	7.487018e+01
2.680000e-06	3.591043e-06	1.081546e-09	2.495193e+01	7.531212e+01
2.690000e-06	3.626829e-06	1.086054e-09	2.520059e+01	7.574281e+01
2.700000e-06	3.662507e-06	1.093455e-09	2.544849e+01	7.616241e+01
2.710000e-06	3.697996e-06	1.102838e-09	2.569508e+01	7.657108e+01
2.720000e-06	3.733203e-06	1.111918e-09	2.593971e+01	7.696900e+01
2.730000e-06	3.768046e-06	1.117930e-09	2.618182e+01	7.735634e+01
2.740000e-06	3.802454e-06	1.120693e-09	2.642090e+01	7.773328e+01
2.750000e-06	3.836389e-06	1.123154e-09	2.665669e+01	7.810002e+01
2.760000e-06	3.869821e-06	1.126131e-09	2.688899e+01	7.845674e+01
2.770000e-06	3.902854e-06	1.131796e-09	2.711851e+01	7.880367e+01
2.780000e-06	3.935555e-06	1.140024e-09	2.734573e+01	7.914100e+01
2.790000e-06	3.967873e-06	1.149501e-09	2.757029e+01	7.946897e+01
2.800000e-06	3.999918e-06	1.156862e-09	2.779295e+01	7.978781e+01
2.810000e-06	4.031805e-06	1.160547e-09	2.801452e+01	8.009775e+01
2.820000e-06	4.063552e-06	1.163355e-09	2.823510e+01	8.039906e+01
2.830000e-06	4.095119e-06	1.166430e-09	2.845445e+01	8.069197e+01
2.840000e-06	4.126421e-06	1.170083e-09	2.867195e+01	8.097676e+01
2.850000e-06	4.157440e-06	1.176598e-09	2.888747e+01	8.125370e+01
2.860000e-06	4.188108e-06	1.185523e-09	2.910057e+01	8.152305e+01
2.870000e-06	4.218422e-06	1.193396e-09	2.931120e+01	8.178509e+01
2.880000e-06	4.248468e-06	1.198627e-09	2.951997e+01	8.204009e+01
2.890000e-06	4.278293e-06	1.202097e-09	2.972720e+01	8.228832e+01
2.900000e-06	4.307877e-06	1.205377e-09	2.993277e+01	8.253006e+01
