# Temperatura_=_-2.76
# Concentracion g/m^3_=_1620.0
# C_Vs_to_Am_M_A/Vsm_=_65563218390.804596
# pendiente_HvsI_1/m_=_3716.3
# ordenada_HvsI_A/m_=_1297.0
# frecuencia_Hz_=_135107.75973358256

Tiempo_(s)	Campo_(V.s)	Magnetizacion_(V.s)	Campo_(kA/m)	Magnetizacion_(A/m)
0.000000e+00	-5.515018e-06	-7.491221e-10	-3.836062e+01	-5.195094e+01
1.000000e-08	-5.515265e-06	-7.408359e-10	-3.836234e+01	-5.191473e+01
2.000000e-08	-5.515326e-06	-7.338239e-10	-3.836276e+01	-5.188014e+01
3.000000e-08	-5.515142e-06	-7.313969e-10	-3.836148e+01	-5.184712e+01
4.000000e-08	-5.514559e-06	-7.303629e-10	-3.835742e+01	-5.181563e+01
5.000000e-08	-5.513316e-06	-7.249679e-10	-3.834878e+01	-5.178560e+01
6.000000e-08	-5.511400e-06	-7.184840e-10	-3.833546e+01	-5.175694e+01
7.000000e-08	-5.508943e-06	-7.335111e-10	-3.831836e+01	-5.172955e+01
8.000000e-08	-5.505960e-06	-7.648595e-10	-3.829762e+01	-5.170331e+01
9.000000e-08	-5.502417e-06	-7.918597e-10	-3.827297e+01	-5.167810e+01
1.000000e-07	-5.498418e-06	-7.883213e-10	-3.824515e+01	-5.165378e+01
1.100000e-07	-5.494121e-06	-7.293450e-10	-3.821527e+01	-5.163018e+01
1.200000e-07	-5.489608e-06	-6.631187e-10	-3.818388e+01	-5.160715e+01
1.300000e-07	-5.484823e-06	-7.119503e-10	-3.815059e+01	-5.158450e+01
1.400000e-07	-5.479632e-06	-7.443762e-10	-3.811449e+01	-5.156205e+01
1.500000e-07	-5.474122e-06	-7.410586e-10	-3.807616e+01	-5.153961e+01
1.600000e-07	-5.468297e-06	-6.747929e-10	-3.803564e+01	-5.151699e+01
1.700000e-07	-5.462073e-06	-7.304973e-10	-3.799235e+01	-5.149398e+01
1.800000e-07	-5.455432e-06	-7.980133e-10	-3.794616e+01	-5.147038e+01
1.900000e-07	-5.448430e-06	-7.733164e-10	-3.789745e+01	-5.144600e+01
2.000000e-07	-5.441091e-06	-7.053258e-10	-3.784640e+01	-5.142063e+01
2.100000e-07	-5.433358e-06	-7.073880e-10	-3.779262e+01	-5.139407e+01
2.200000e-07	-5.425455e-06	-7.899967e-10	-3.773765e+01	-5.136613e+01
2.300000e-07	-5.417411e-06	-7.936473e-10	-3.768170e+01	-5.133663e+01
2.400000e-07	-5.408951e-06	-7.632876e-10	-3.762285e+01	-5.130539e+01
2.500000e-07	-5.399853e-06	-7.441079e-10	-3.755957e+01	-5.127224e+01
2.600000e-07	-5.389963e-06	-7.906130e-10	-3.749078e+01	-5.123702e+01
2.700000e-07	-5.379380e-06	-7.620572e-10	-3.741717e+01	-5.119960e+01
2.800000e-07	-5.368315e-06	-7.416139e-10	-3.734020e+01	-5.115983e+01
2.900000e-07	-5.356878e-06	-7.486590e-10	-3.726065e+01	-5.111760e+01
3.000000e-07	-5.345134e-06	-7.952084e-10	-3.717896e+01	-5.107281e+01
3.100000e-07	-5.333024e-06	-7.627449e-10	-3.709473e+01	-5.102536e+01
3.200000e-07	-5.320439e-06	-7.532890e-10	-3.700719e+01	-5.097519e+01
3.300000e-07	-5.307374e-06	-7.679253e-10	-3.691632e+01	-5.092224e+01
3.400000e-07	-5.294014e-06	-7.887913e-10	-3.682339e+01	-5.086648e+01
3.500000e-07	-5.280275e-06	-7.597693e-10	-3.672783e+01	-5.080787e+01
3.600000e-07	-5.266004e-06	-7.521350e-10	-3.662856e+01	-5.074642e+01
3.700000e-07	-5.251378e-06	-7.717408e-10	-3.652682e+01	-5.068212e+01
3.800000e-07	-5.236371e-06	-7.906985e-10	-3.642244e+01	-5.061502e+01
3.900000e-07	-5.220744e-06	-7.755512e-10	-3.631375e+01	-5.054513e+01
4.000000e-07	-5.204599e-06	-7.669853e-10	-3.620145e+01	-5.047252e+01
4.100000e-07	-5.188121e-06	-7.815828e-10	-3.608683e+01	-5.039725e+01
4.200000e-07	-5.171221e-06	-7.707011e-10	-3.596928e+01	-5.031940e+01
4.300000e-07	-5.153955e-06	-7.510123e-10	-3.584919e+01	-5.023905e+01
4.400000e-07	-5.136432e-06	-7.678202e-10	-3.572730e+01	-5.015630e+01
4.500000e-07	-5.118564e-06	-8.002546e-10	-3.560301e+01	-5.007126e+01
4.600000e-07	-5.100223e-06	-7.659706e-10	-3.547544e+01	-4.998402e+01
4.700000e-07	-5.081458e-06	-7.546904e-10	-3.534492e+01	-4.989471e+01
4.800000e-07	-5.062411e-06	-7.861719e-10	-3.521244e+01	-4.980344e+01
4.900000e-07	-5.043085e-06	-7.926893e-10	-3.507801e+01	-4.971033e+01
5.000000e-07	-5.023506e-06	-7.536816e-10	-3.494182e+01	-4.961549e+01
5.100000e-07	-5.003730e-06	-7.731432e-10	-3.480427e+01	-4.951906e+01
5.200000e-07	-4.983674e-06	-7.736661e-10	-3.466477e+01	-4.942113e+01
5.300000e-07	-4.963239e-06	-7.487357e-10	-3.452263e+01	-4.932183e+01
5.400000e-07	-4.942423e-06	-7.609228e-10	-3.437784e+01	-4.922124e+01
5.500000e-07	-4.921244e-06	-7.953380e-10	-3.423053e+01	-4.911948e+01
5.600000e-07	-4.899713e-06	-7.522190e-10	-3.408076e+01	-4.901664e+01
5.700000e-07	-4.877864e-06	-7.415936e-10	-3.392879e+01	-4.891278e+01
5.800000e-07	-4.855758e-06	-7.766364e-10	-3.377502e+01	-4.880799e+01
5.900000e-07	-4.833318e-06	-7.687499e-10	-3.361894e+01	-4.870232e+01
6.000000e-07	-4.810452e-06	-7.314369e-10	-3.345989e+01	-4.859583e+01
6.100000e-07	-4.787283e-06	-7.539686e-10	-3.329873e+01	-4.848854e+01
6.200000e-07	-4.763811e-06	-7.529750e-10	-3.313547e+01	-4.838050e+01
6.300000e-07	-4.740083e-06	-7.257493e-10	-3.297043e+01	-4.827171e+01
6.400000e-07	-4.716177e-06	-7.376319e-10	-3.280415e+01	-4.816217e+01
6.500000e-07	-4.692056e-06	-7.570991e-10	-3.263637e+01	-4.805188e+01
6.600000e-07	-4.667575e-06	-7.366208e-10	-3.246609e+01	-4.794081e+01
6.700000e-07	-4.642590e-06	-7.365373e-10	-3.229230e+01	-4.782894e+01
6.800000e-07	-4.616990e-06	-7.488960e-10	-3.211424e+01	-4.771622e+01
6.900000e-07	-4.590807e-06	-7.306335e-10	-3.193211e+01	-4.760260e+01
7.000000e-07	-4.564183e-06	-7.223369e-10	-3.174693e+01	-4.748802e+01
7.100000e-07	-4.537144e-06	-7.333328e-10	-3.155885e+01	-4.737242e+01
7.200000e-07	-4.509740e-06	-7.273674e-10	-3.136824e+01	-4.725572e+01
7.300000e-07	-4.482080e-06	-7.201382e-10	-3.117585e+01	-4.713784e+01
7.400000e-07	-4.454291e-06	-7.336529e-10	-3.098256e+01	-4.701870e+01
7.500000e-07	-4.426330e-06	-7.241288e-10	-3.078807e+01	-4.689821e+01
7.600000e-07	-4.398098e-06	-7.100018e-10	-3.059169e+01	-4.677628e+01
7.700000e-07	-4.369600e-06	-7.112346e-10	-3.039348e+01	-4.665283e+01
7.800000e-07	-4.340786e-06	-7.126021e-10	-3.019305e+01	-4.652775e+01
7.900000e-07	-4.311612e-06	-7.038275e-10	-2.999013e+01	-4.640097e+01
8.000000e-07	-4.282162e-06	-7.149862e-10	-2.978528e+01	-4.627241e+01
8.100000e-07	-4.252448e-06	-7.166352e-10	-2.957861e+01	-4.614197e+01
8.200000e-07	-4.222415e-06	-7.069064e-10	-2.936971e+01	-4.600960e+01
8.300000e-07	-4.192050e-06	-7.013961e-10	-2.915849e+01	-4.587520e+01
8.400000e-07	-4.161364e-06	-7.052508e-10	-2.894505e+01	-4.573874e+01
8.500000e-07	-4.130336e-06	-6.902401e-10	-2.872923e+01	-4.560015e+01
8.600000e-07	-4.099073e-06	-6.841856e-10	-2.851178e+01	-4.545938e+01
8.700000e-07	-4.067668e-06	-6.882100e-10	-2.829334e+01	-4.531639e+01
8.800000e-07	-4.036118e-06	-6.877880e-10	-2.807389e+01	-4.517117e+01
8.900000e-07	-4.004418e-06	-6.827364e-10	-2.785339e+01	-4.502368e+01
9.000000e-07	-3.972470e-06	-6.890347e-10	-2.763117e+01	-4.487392e+01
9.100000e-07	-3.940204e-06	-6.848068e-10	-2.740674e+01	-4.472190e+01
9.200000e-07	-3.907574e-06	-6.738027e-10	-2.717978e+01	-4.456760e+01
9.300000e-07	-3.874540e-06	-6.709752e-10	-2.695000e+01	-4.441106e+01
9.400000e-07	-3.841079e-06	-6.722163e-10	-2.671726e+01	-4.425229e+01
9.500000e-07	-3.807221e-06	-6.656942e-10	-2.648176e+01	-4.409134e+01
9.600000e-07	-3.772941e-06	-6.648571e-10	-2.624331e+01	-4.392823e+01
9.700000e-07	-3.738223e-06	-6.672647e-10	-2.600183e+01	-4.376301e+01
9.800000e-07	-3.703106e-06	-6.625888e-10	-2.575756e+01	-4.359573e+01
9.900000e-07	-3.667736e-06	-6.597316e-10	-2.551154e+01	-4.342644e+01
1.000000e-06	-3.632226e-06	-6.618526e-10	-2.526455e+01	-4.325519e+01
1.010000e-06	-3.596577e-06	-6.592906e-10	-2.501659e+01	-4.308205e+01
1.020000e-06	-3.560846e-06	-6.519151e-10	-2.476805e+01	-4.290705e+01
1.030000e-06	-3.524964e-06	-6.523282e-10	-2.451847e+01	-4.273027e+01
1.040000e-06	-3.488865e-06	-6.502415e-10	-2.426737e+01	-4.255174e+01
1.050000e-06	-3.452489e-06	-6.460193e-10	-2.401436e+01	-4.237152e+01
1.060000e-06	-3.415922e-06	-6.434988e-10	-2.376001e+01	-4.218963e+01
1.070000e-06	-3.379145e-06	-6.438872e-10	-2.350420e+01	-4.200612e+01
1.080000e-06	-3.342035e-06	-6.390552e-10	-2.324608e+01	-4.182100e+01
1.090000e-06	-3.304568e-06	-6.366628e-10	-2.298547e+01	-4.163429e+01
1.100000e-06	-3.266852e-06	-6.337761e-10	-2.272313e+01	-4.144600e+01
1.110000e-06	-3.228999e-06	-6.284337e-10	-2.245984e+01	-4.125610e+01
1.120000e-06	-3.190920e-06	-6.209534e-10	-2.219497e+01	-4.106458e+01
1.130000e-06	-3.152648e-06	-6.184447e-10	-2.192876e+01	-4.087140e+01
1.140000e-06	-3.114147e-06	-6.127988e-10	-2.166097e+01	-4.067650e+01
1.150000e-06	-3.075395e-06	-6.088330e-10	-2.139142e+01	-4.047983e+01
1.160000e-06	-3.036471e-06	-6.048962e-10	-2.112068e+01	-4.028129e+01
1.170000e-06	-2.997295e-06	-6.019651e-10	-2.084818e+01	-4.008079e+01
1.180000e-06	-2.957848e-06	-5.984893e-10	-2.057380e+01	-3.987820e+01
1.190000e-06	-2.918301e-06	-5.989227e-10	-2.029872e+01	-3.967341e+01
1.200000e-06	-2.878712e-06	-5.981076e-10	-2.002336e+01	-3.946625e+01
1.210000e-06	-2.838994e-06	-5.935295e-10	-1.974709e+01	-3.925656e+01
1.220000e-06	-2.799091e-06	-5.867952e-10	-1.946954e+01	-3.904415e+01
1.230000e-06	-2.759027e-06	-5.818964e-10	-1.919086e+01	-3.882884e+01
1.240000e-06	-2.718783e-06	-5.768690e-10	-1.891094e+01	-3.861041e+01
1.250000e-06	-2.678414e-06	-5.719566e-10	-1.863015e+01	-3.838863e+01
1.260000e-06	-2.637867e-06	-5.692055e-10	-1.834812e+01	-3.816327e+01
1.270000e-06	-2.597063e-06	-5.634338e-10	-1.806430e+01	-3.793407e+01
1.280000e-06	-2.555983e-06	-5.582211e-10	-1.777856e+01	-3.770077e+01
1.290000e-06	-2.514541e-06	-5.565871e-10	-1.749031e+01	-3.746310e+01
1.300000e-06	-2.472825e-06	-5.543906e-10	-1.720014e+01	-3.722079e+01
1.310000e-06	-2.430850e-06	-5.489363e-10	-1.690818e+01	-3.697353e+01
1.320000e-06	-2.388486e-06	-5.422642e-10	-1.661351e+01	-3.672104e+01
1.330000e-06	-2.345779e-06	-5.346972e-10	-1.631645e+01	-3.646303e+01
1.340000e-06	-2.302915e-06	-5.277906e-10	-1.601830e+01	-3.619918e+01
1.350000e-06	-2.259895e-06	-5.224104e-10	-1.571907e+01	-3.592920e+01
1.360000e-06	-2.216637e-06	-5.186830e-10	-1.541819e+01	-3.565277e+01
1.370000e-06	-2.173155e-06	-5.141491e-10	-1.511574e+01	-3.536960e+01
1.380000e-06	-2.129554e-06	-5.118389e-10	-1.481246e+01	-3.507939e+01
1.390000e-06	-2.085923e-06	-5.100242e-10	-1.450898e+01	-3.478182e+01
1.400000e-06	-2.042212e-06	-5.068987e-10	-1.420494e+01	-3.447662e+01
1.410000e-06	-1.998398e-06	-5.008611e-10	-1.390019e+01	-3.416347e+01
1.420000e-06	-1.954518e-06	-4.959728e-10	-1.359497e+01	-3.384211e+01
1.430000e-06	-1.910556e-06	-4.913274e-10	-1.328919e+01	-3.351224e+01
1.440000e-06	-1.866536e-06	-4.864395e-10	-1.298300e+01	-3.317360e+01
1.450000e-06	-1.822457e-06	-4.808341e-10	-1.267640e+01	-3.282592e+01
1.460000e-06	-1.778246e-06	-4.738397e-10	-1.236889e+01	-3.246895e+01
1.470000e-06	-1.733881e-06	-4.666044e-10	-1.206030e+01	-3.210243e+01
1.480000e-06	-1.689379e-06	-4.589189e-10	-1.175075e+01	-3.172613e+01
1.490000e-06	-1.644705e-06	-4.522278e-10	-1.144002e+01	-3.133981e+01
1.500000e-06	-1.599873e-06	-4.515793e-10	-1.112818e+01	-3.094326e+01
1.510000e-06	-1.554948e-06	-4.510710e-10	-1.081570e+01	-3.053626e+01
1.520000e-06	-1.509906e-06	-4.468338e-10	-1.050240e+01	-3.011860e+01
1.530000e-06	-1.464724e-06	-4.383892e-10	-1.018813e+01	-2.969010e+01
1.540000e-06	-1.419441e-06	-4.272692e-10	-9.873155e+00	-2.925055e+01
1.550000e-06	-1.374031e-06	-4.125786e-10	-9.557299e+00	-2.879979e+01
1.560000e-06	-1.328513e-06	-4.005729e-10	-9.240691e+00	-2.833765e+01
1.570000e-06	-1.282981e-06	-3.938912e-10	-8.923983e+00	-2.786394e+01
1.580000e-06	-1.237436e-06	-3.902541e-10	-8.607191e+00	-2.737853e+01
1.590000e-06	-1.191844e-06	-3.882524e-10	-8.290065e+00	-2.688125e+01
1.600000e-06	-1.146090e-06	-3.851259e-10	-7.971816e+00	-2.637196e+01
1.610000e-06	-1.100132e-06	-3.774479e-10	-7.652150e+00	-2.585053e+01
1.620000e-06	-1.054112e-06	-3.658028e-10	-7.332053e+00	-2.531681e+01
1.630000e-06	-1.008086e-06	-3.542979e-10	-7.011911e+00	-2.477069e+01
1.640000e-06	-9.619808e-07	-3.446220e-10	-6.691216e+00	-2.421204e+01
1.650000e-06	-9.158368e-07	-3.378863e-10	-6.370254e+00	-2.364074e+01
1.660000e-06	-8.696800e-07	-3.327450e-10	-6.049203e+00	-2.305668e+01
1.670000e-06	-8.234663e-07	-3.250074e-10	-5.727756e+00	-2.245976e+01
1.680000e-06	-7.771711e-07	-3.132965e-10	-5.405742e+00	-2.184988e+01
1.690000e-06	-7.307978e-07	-3.024085e-10	-5.083184e+00	-2.122694e+01
1.700000e-06	-6.843565e-07	-2.913667e-10	-4.760154e+00	-2.059087e+01
1.710000e-06	-6.378251e-07	-2.804171e-10	-4.436498e+00	-1.994158e+01
1.720000e-06	-5.912859e-07	-2.694908e-10	-4.112787e+00	-1.927902e+01
1.730000e-06	-5.447296e-07	-2.596688e-10	-3.788956e+00	-1.860311e+01
1.740000e-06	-4.980820e-07	-2.473773e-10	-3.464492e+00	-1.791382e+01
1.750000e-06	-4.513783e-07	-2.348029e-10	-3.139636e+00	-1.721111e+01
1.760000e-06	-4.046139e-07	-2.238528e-10	-2.814359e+00	-1.649496e+01
1.770000e-06	-3.578246e-07	-2.146751e-10	-2.488908e+00	-1.576536e+01
1.780000e-06	-3.110317e-07	-2.064026e-10	-2.163432e+00	-1.502234e+01
1.790000e-06	-2.641432e-07	-1.970911e-10	-1.837292e+00	-1.426591e+01
1.800000e-06	-2.172538e-07	-1.861103e-10	-1.511145e+00	-1.349613e+01
1.810000e-06	-1.705447e-07	-1.737381e-10	-1.186252e+00	-1.271308e+01
1.820000e-06	-1.238698e-07	-1.618314e-10	-8.615971e-01	-1.191685e+01
1.830000e-06	-7.709668e-08	-1.518478e-10	-5.362587e-01	-1.110755e+01
1.840000e-06	-3.024062e-08	-1.432605e-10	-2.103436e-01	-1.028535e+01
1.850000e-06	1.659835e-08	-1.330175e-10	1.154525e-01	-9.450423e+00
1.860000e-06	6.338808e-08	-1.212166e-10	4.409062e-01	-8.602974e+00
1.870000e-06	1.102125e-07	-1.099998e-10	7.666010e-01	-7.743247e+00
1.880000e-06	1.570645e-07	-9.749464e-11	1.092488e+00	-6.871519e+00
1.890000e-06	2.039164e-07	-8.329928e-11	1.418374e+00	-5.988101e+00
1.900000e-06	2.507320e-07	-6.990735e-11	1.744008e+00	-5.093341e+00
1.910000e-06	2.974937e-07	-5.595921e-11	2.069266e+00	-4.187623e+00
1.920000e-06	3.441975e-07	-4.153028e-11	2.394123e+00	-3.271372e+00
1.930000e-06	3.908504e-07	-2.913926e-11	2.718625e+00	-2.345050e+00
1.940000e-06	4.374353e-07	-1.704544e-11	3.042653e+00	-1.409159e+00
1.950000e-06	4.839808e-07	-1.527863e-12	3.366408e+00	-4.642400e-01
1.960000e-06	5.305453e-07	1.377550e-11	3.690295e+00	4.891259e-01
1.970000e-06	5.770909e-07	2.710580e-11	4.014051e+00	1.450319e+00
1.980000e-06	6.235490e-07	3.930524e-11	4.337198e+00	2.418681e+00
1.990000e-06	6.699250e-07	5.123216e-11	4.659774e+00	3.393517e+00
2.000000e-06	7.162769e-07	6.318115e-11	4.982182e+00	4.374095e+00
2.010000e-06	7.625327e-07	7.472221e-11	5.303922e+00	5.359649e+00
2.020000e-06	8.087247e-07	8.996429e-11	5.625218e+00	6.349380e+00
2.030000e-06	8.548953e-07	1.073827e-10	5.946366e+00	7.342459e+00
2.040000e-06	9.010354e-07	1.239977e-10	6.267300e+00	8.338028e+00
2.050000e-06	9.471501e-07	1.385313e-10	6.588059e+00	9.335204e+00
2.060000e-06	9.930939e-07	1.509123e-10	6.907629e+00	1.033308e+01
2.070000e-06	1.038935e-06	1.615421e-10	7.226482e+00	1.133074e+01
2.080000e-06	1.084834e-06	1.730953e-10	7.545742e+00	1.232722e+01
2.090000e-06	1.130715e-06	1.869031e-10	7.864875e+00	1.332159e+01
2.100000e-06	1.176386e-06	2.014629e-10	8.182545e+00	1.431289e+01
2.110000e-06	1.221900e-06	2.162619e-10	8.499130e+00	1.530013e+01
2.120000e-06	1.267439e-06	2.300331e-10	8.815881e+00	1.628236e+01
2.130000e-06	1.312981e-06	2.448726e-10	9.132658e+00	1.725861e+01
2.140000e-06	1.358392e-06	2.605099e-10	9.448519e+00	1.822792e+01
2.150000e-06	1.403634e-06	2.768082e-10	9.763208e+00	1.918936e+01
2.160000e-06	1.448752e-06	2.924167e-10	1.007703e+01	2.014199e+01
2.170000e-06	1.493786e-06	3.058303e-10	1.039028e+01	2.108490e+01
2.180000e-06	1.538764e-06	3.186520e-10	1.070313e+01	2.201722e+01
2.190000e-06	1.583640e-06	3.297145e-10	1.101527e+01	2.293808e+01
2.200000e-06	1.628410e-06	3.412388e-10	1.132667e+01	2.384667e+01
2.210000e-06	1.673001e-06	3.544065e-10	1.163684e+01	2.474220e+01
2.220000e-06	1.717430e-06	3.685278e-10	1.194587e+01	2.562392e+01
2.230000e-06	1.761783e-06	3.824604e-10	1.225437e+01	2.649113e+01
2.240000e-06	1.806009e-06	3.936667e-10	1.256199e+01	2.734317e+01
2.250000e-06	1.850130e-06	4.021862e-10	1.286888e+01	2.817944e+01
2.260000e-06	1.894111e-06	4.097344e-10	1.317480e+01	2.899938e+01
2.270000e-06	1.937959e-06	4.204892e-10	1.347979e+01	2.980248e+01
2.280000e-06	1.981713e-06	4.361710e-10	1.378413e+01	3.058831e+01
2.290000e-06	2.025395e-06	4.503874e-10	1.408797e+01	3.135645e+01
2.300000e-06	2.069076e-06	4.597461e-10	1.439180e+01	3.210660e+01
2.310000e-06	2.112747e-06	4.649627e-10	1.469556e+01	3.283846e+01
2.320000e-06	2.156306e-06	4.693094e-10	1.499854e+01	3.355183e+01
2.330000e-06	2.199696e-06	4.772223e-10	1.530035e+01	3.424655e+01
2.340000e-06	2.242941e-06	4.892231e-10	1.560114e+01	3.492252e+01
2.350000e-06	2.286032e-06	5.057392e-10	1.590087e+01	3.557971e+01
2.360000e-06	2.328958e-06	5.240839e-10	1.619945e+01	3.621812e+01
2.370000e-06	2.371645e-06	5.374452e-10	1.649636e+01	3.683784e+01
2.380000e-06	2.414026e-06	5.416117e-10	1.679116e+01	3.743900e+01
2.390000e-06	2.456081e-06	5.427701e-10	1.708368e+01	3.802175e+01
2.400000e-06	2.497852e-06	5.444994e-10	1.737422e+01	3.858634e+01
2.410000e-06	2.539317e-06	5.486906e-10	1.766264e+01	3.913303e+01
2.420000e-06	2.580489e-06	5.578038e-10	1.794902e+01	3.966215e+01
2.430000e-06	2.621404e-06	5.705373e-10	1.823361e+01	4.017403e+01
2.440000e-06	2.662020e-06	5.850038e-10	1.851612e+01	4.066908e+01
2.450000e-06	2.702404e-06	5.959619e-10	1.879702e+01	4.114771e+01
2.460000e-06	2.742585e-06	6.014452e-10	1.907650e+01	4.161038e+01
2.470000e-06	2.782585e-06	6.066276e-10	1.935473e+01	4.205757e+01
2.480000e-06	2.822426e-06	6.126715e-10	1.963185e+01	4.248977e+01
2.490000e-06	2.862169e-06	6.187859e-10	1.990829e+01	4.290749e+01
2.500000e-06	2.901825e-06	6.237810e-10	2.018412e+01	4.331127e+01
2.510000e-06	2.941312e-06	6.294076e-10	2.045878e+01	4.370163e+01
2.520000e-06	2.980649e-06	6.371854e-10	2.073239e+01	4.407913e+01
2.530000e-06	3.019832e-06	6.452931e-10	2.100494e+01	4.444430e+01
2.540000e-06	3.058846e-06	6.516112e-10	2.127631e+01	4.479769e+01
2.550000e-06	3.097590e-06	6.559344e-10	2.154580e+01	4.513982e+01
2.560000e-06	3.136046e-06	6.597315e-10	2.181328e+01	4.547124e+01
2.570000e-06	3.174340e-06	6.641694e-10	2.207964e+01	4.579244e+01
2.580000e-06	3.212467e-06	6.685866e-10	2.234484e+01	4.610393e+01
2.590000e-06	3.250358e-06	6.717916e-10	2.260840e+01	4.640619e+01
2.600000e-06	3.288041e-06	6.756404e-10	2.287051e+01	4.669967e+01
2.610000e-06	3.325511e-06	6.797318e-10	2.313114e+01	4.698482e+01
2.620000e-06	3.362705e-06	6.829101e-10	2.338985e+01	4.726206e+01
2.630000e-06	3.399589e-06	6.852162e-10	2.364641e+01	4.753176e+01
2.640000e-06	3.436217e-06	6.893800e-10	2.390118e+01	4.779429e+01
2.650000e-06	3.472646e-06	6.973400e-10	2.415457e+01	4.804998e+01
2.660000e-06	3.508845e-06	7.045153e-10	2.440635e+01	4.829914e+01
2.670000e-06	3.544886e-06	7.092126e-10	2.465704e+01	4.854205e+01
2.680000e-06	3.580793e-06	7.091301e-10	2.490680e+01	4.877894e+01
2.690000e-06	3.616555e-06	7.069113e-10	2.515555e+01	4.901005e+01
2.700000e-06	3.652157e-06	7.085910e-10	2.540318e+01	4.923555e+01
2.710000e-06	3.687530e-06	7.145520e-10	2.564922e+01	4.945562e+01
2.720000e-06	3.722621e-06	7.216501e-10	2.589331e+01	4.967040e+01
2.730000e-06	3.757456e-06	7.266688e-10	2.613561e+01	4.987998e+01
2.740000e-06	3.791885e-06	7.299095e-10	2.637508e+01	5.008447e+01
2.750000e-06	3.825799e-06	7.291058e-10	2.661098e+01	5.028393e+01
2.760000e-06	3.859329e-06	7.279110e-10	2.684420e+01	5.047840e+01
2.770000e-06	3.892395e-06	7.303521e-10	2.707420e+01	5.066792e+01
2.780000e-06	3.924978e-06	7.344737e-10	2.730083e+01	5.085250e+01
2.790000e-06	3.957226e-06	7.400612e-10	2.752514e+01	5.103213e+01
2.800000e-06	3.989298e-06	7.454354e-10	2.774822e+01	5.120680e+01
2.810000e-06	4.021247e-06	7.471572e-10	2.797045e+01	5.137648e+01
2.820000e-06	4.053028e-06	7.461661e-10	2.819151e+01	5.154115e+01
2.830000e-06	4.084576e-06	7.454525e-10	2.841094e+01	5.170077e+01
2.840000e-06	4.115909e-06	7.461435e-10	2.862889e+01	5.185529e+01
2.850000e-06	4.147059e-06	7.497225e-10	2.884556e+01	5.200467e+01
2.860000e-06	4.177889e-06	7.587893e-10	2.906000e+01	5.214887e+01
2.870000e-06	4.208348e-06	7.673074e-10	2.927186e+01	5.228784e+01
2.880000e-06	4.238460e-06	7.721821e-10	2.948131e+01	5.242156e+01
2.890000e-06	4.268259e-06	7.740413e-10	2.968858e+01	5.254998e+01
2.900000e-06	4.297793e-06	7.721850e-10	2.989401e+01	5.267309e+01
