# Temperatura_=_7.8
# Concentracion g/m^3_=_1620.0
# C_Vs_to_Am_M_A/Vsm_=_65563218390.804596
# pendiente_HvsI_1/m_=_3716.3
# ordenada_HvsI_A/m_=_1297.0
# frecuencia_Hz_=_135089.5105571093

Tiempo_(s)	Campo_(V.s)	Magnetizacion_(V.s)	Campo_(kA/m)	Magnetizacion_(A/m)
0.000000e+00	-5.513922e-06	-1.292489e-09	-3.836906e+01	-8.490404e+01
1.000000e-08	-5.513980e-06	-1.293357e-09	-3.836945e+01	-8.489195e+01
2.000000e-08	-5.513715e-06	-1.292597e-09	-3.836761e+01	-8.487962e+01
3.000000e-08	-5.513139e-06	-1.291652e-09	-3.836360e+01	-8.486706e+01
4.000000e-08	-5.512001e-06	-1.282490e-09	-3.835569e+01	-8.485427e+01
5.000000e-08	-5.510104e-06	-1.264364e-09	-3.834249e+01	-8.484121e+01
6.000000e-08	-5.507473e-06	-1.258416e-09	-3.832418e+01	-8.482786e+01
7.000000e-08	-5.504435e-06	-1.293445e-09	-3.830303e+01	-8.481414e+01
8.000000e-08	-5.501107e-06	-1.358291e-09	-3.827988e+01	-8.479997e+01
9.000000e-08	-5.497233e-06	-1.391244e-09	-3.825292e+01	-8.478524e+01
1.000000e-07	-5.492981e-06	-1.339631e-09	-3.822333e+01	-8.476985e+01
1.100000e-07	-5.488608e-06	-1.231454e-09	-3.819290e+01	-8.475364e+01
1.200000e-07	-5.484073e-06	-1.217915e-09	-3.816135e+01	-8.473648e+01
1.300000e-07	-5.479113e-06	-1.287832e-09	-3.812683e+01	-8.471818e+01
1.400000e-07	-5.473656e-06	-1.314277e-09	-3.808886e+01	-8.469856e+01
1.500000e-07	-5.467900e-06	-1.239156e-09	-3.804880e+01	-8.467743e+01
1.600000e-07	-5.461836e-06	-1.242725e-09	-3.800660e+01	-8.465457e+01
1.700000e-07	-5.455258e-06	-1.320086e-09	-3.796084e+01	-8.462975e+01
1.800000e-07	-5.448319e-06	-1.361884e-09	-3.791255e+01	-8.460274e+01
1.900000e-07	-5.441066e-06	-1.265434e-09	-3.786208e+01	-8.457330e+01
2.000000e-07	-5.433520e-06	-1.251551e-09	-3.780957e+01	-8.454118e+01
2.100000e-07	-5.425725e-06	-1.313800e-09	-3.775533e+01	-8.450612e+01
2.200000e-07	-5.417659e-06	-1.366159e-09	-3.769920e+01	-8.446785e+01
2.300000e-07	-5.409382e-06	-1.317093e-09	-3.764160e+01	-8.442611e+01
2.400000e-07	-5.400613e-06	-1.288548e-09	-3.758058e+01	-8.438065e+01
2.500000e-07	-5.390929e-06	-1.318809e-09	-3.751319e+01	-8.433118e+01
2.600000e-07	-5.380387e-06	-1.323128e-09	-3.743984e+01	-8.427746e+01
2.700000e-07	-5.369406e-06	-1.292245e-09	-3.736343e+01	-8.421921e+01
2.800000e-07	-5.358113e-06	-1.291944e-09	-3.728485e+01	-8.415620e+01
2.900000e-07	-5.346403e-06	-1.328623e-09	-3.720336e+01	-8.408816e+01
3.000000e-07	-5.334274e-06	-1.297991e-09	-3.711896e+01	-8.401487e+01
3.100000e-07	-5.321771e-06	-1.273228e-09	-3.703195e+01	-8.393609e+01
3.200000e-07	-5.308860e-06	-1.269711e-09	-3.694211e+01	-8.385162e+01
3.300000e-07	-5.295593e-06	-1.300438e-09	-3.684979e+01	-8.376124e+01
3.400000e-07	-5.281951e-06	-1.279343e-09	-3.675486e+01	-8.366477e+01
3.500000e-07	-5.267926e-06	-1.291209e-09	-3.665727e+01	-8.356204e+01
3.600000e-07	-5.253414e-06	-1.287735e-09	-3.655628e+01	-8.345289e+01
3.700000e-07	-5.238405e-06	-1.292769e-09	-3.645185e+01	-8.333719e+01
3.800000e-07	-5.222747e-06	-1.261093e-09	-3.634288e+01	-8.321482e+01
3.900000e-07	-5.206505e-06	-1.261469e-09	-3.622986e+01	-8.308567e+01
4.000000e-07	-5.190005e-06	-1.264764e-09	-3.611505e+01	-8.294967e+01
4.100000e-07	-5.173223e-06	-1.272339e-09	-3.599827e+01	-8.280676e+01
4.200000e-07	-5.156060e-06	-1.249226e-09	-3.587884e+01	-8.265690e+01
4.300000e-07	-5.138612e-06	-1.251380e-09	-3.575743e+01	-8.250007e+01
4.400000e-07	-5.120904e-06	-1.271314e-09	-3.563420e+01	-8.233629e+01
4.500000e-07	-5.102610e-06	-1.267987e-09	-3.550690e+01	-8.216558e+01
4.600000e-07	-5.083760e-06	-1.232191e-09	-3.537573e+01	-8.198798e+01
4.700000e-07	-5.064727e-06	-1.241509e-09	-3.524330e+01	-8.180357e+01
4.800000e-07	-5.045472e-06	-1.267371e-09	-3.510931e+01	-8.161243e+01
4.900000e-07	-5.025962e-06	-1.251323e-09	-3.497354e+01	-8.141468e+01
5.000000e-07	-5.006303e-06	-1.229059e-09	-3.483675e+01	-8.121044e+01
5.100000e-07	-4.986398e-06	-1.238658e-09	-3.469824e+01	-8.099985e+01
5.200000e-07	-4.966066e-06	-1.235614e-09	-3.455676e+01	-8.078309e+01
5.300000e-07	-4.945307e-06	-1.225167e-09	-3.441230e+01	-8.056032e+01
5.400000e-07	-4.924186e-06	-1.241368e-09	-3.426533e+01	-8.033175e+01
5.500000e-07	-4.902694e-06	-1.238364e-09	-3.411577e+01	-8.009757e+01
5.600000e-07	-4.880906e-06	-1.209163e-09	-3.396416e+01	-7.985800e+01
5.700000e-07	-4.858857e-06	-1.209370e-09	-3.381073e+01	-7.961328e+01
5.800000e-07	-4.836420e-06	-1.227226e-09	-3.365460e+01	-7.936363e+01
5.900000e-07	-4.813558e-06	-1.201028e-09	-3.349552e+01	-7.910930e+01
6.000000e-07	-4.790408e-06	-1.187353e-09	-3.333443e+01	-7.885054e+01
6.100000e-07	-4.767059e-06	-1.197229e-09	-3.317195e+01	-7.858759e+01
6.200000e-07	-4.743522e-06	-1.195786e-09	-3.300816e+01	-7.832070e+01
6.300000e-07	-4.719709e-06	-1.171807e-09	-3.284246e+01	-7.805012e+01
6.400000e-07	-4.695529e-06	-1.177298e-09	-3.267420e+01	-7.777610e+01
6.500000e-07	-4.671054e-06	-1.178196e-09	-3.250389e+01	-7.749888e+01
6.600000e-07	-4.646084e-06	-1.166458e-09	-3.233013e+01	-7.721870e+01
6.700000e-07	-4.620417e-06	-1.159032e-09	-3.215153e+01	-7.693577e+01
6.800000e-07	-4.594185e-06	-1.173236e-09	-3.196899e+01	-7.665032e+01
6.900000e-07	-4.567504e-06	-1.165817e-09	-3.178333e+01	-7.636254e+01
7.000000e-07	-4.540426e-06	-1.155216e-09	-3.159490e+01	-7.607263e+01
7.100000e-07	-4.513050e-06	-1.150746e-09	-3.140440e+01	-7.578076e+01
7.200000e-07	-4.485541e-06	-1.153818e-09	-3.121298e+01	-7.548709e+01
7.300000e-07	-4.457918e-06	-1.140407e-09	-3.102077e+01	-7.519175e+01
7.400000e-07	-4.430109e-06	-1.134355e-09	-3.082726e+01	-7.489488e+01
7.500000e-07	-4.402026e-06	-1.136818e-09	-3.063184e+01	-7.459657e+01
7.600000e-07	-4.373594e-06	-1.133962e-09	-3.043399e+01	-7.429690e+01
7.700000e-07	-4.344745e-06	-1.123043e-09	-3.023324e+01	-7.399594e+01
7.800000e-07	-4.315558e-06	-1.125464e-09	-3.003014e+01	-7.369371e+01
7.900000e-07	-4.286158e-06	-1.128951e-09	-2.982556e+01	-7.339023e+01
8.000000e-07	-4.256498e-06	-1.119291e-09	-2.961917e+01	-7.308549e+01
8.100000e-07	-4.226533e-06	-1.108487e-09	-2.941065e+01	-7.277947e+01
8.200000e-07	-4.196215e-06	-1.104133e-09	-2.919968e+01	-7.247212e+01
8.300000e-07	-4.165603e-06	-1.096746e-09	-2.898667e+01	-7.216335e+01
8.400000e-07	-4.134735e-06	-1.088931e-09	-2.877188e+01	-7.185308e+01
8.500000e-07	-4.103551e-06	-1.088714e-09	-2.855488e+01	-7.154118e+01
8.600000e-07	-4.072197e-06	-1.083846e-09	-2.833670e+01	-7.122753e+01
8.700000e-07	-4.040676e-06	-1.075278e-09	-2.811736e+01	-7.091197e+01
8.800000e-07	-4.008996e-06	-1.067608e-09	-2.789691e+01	-7.059434e+01
8.900000e-07	-3.977244e-06	-1.062997e-09	-2.767596e+01	-7.027444e+01
9.000000e-07	-3.945217e-06	-1.047835e-09	-2.745310e+01	-6.995208e+01
9.100000e-07	-3.912666e-06	-1.039697e-09	-2.722659e+01	-6.962705e+01
9.200000e-07	-3.879714e-06	-1.037278e-09	-2.699729e+01	-6.929913e+01
9.300000e-07	-3.846474e-06	-1.037303e-09	-2.676599e+01	-6.896809e+01
9.400000e-07	-3.812702e-06	-1.030435e-09	-2.653098e+01	-6.863370e+01
9.500000e-07	-3.778370e-06	-1.026094e-09	-2.629208e+01	-6.829571e+01
9.600000e-07	-3.743693e-06	-1.015915e-09	-2.605078e+01	-6.795388e+01
9.700000e-07	-3.708655e-06	-1.006765e-09	-2.580696e+01	-6.760797e+01
9.800000e-07	-3.673329e-06	-9.990965e-10	-2.556114e+01	-6.725775e+01
9.900000e-07	-3.637855e-06	-9.952227e-10	-2.531429e+01	-6.690297e+01
1.000000e-06	-3.602275e-06	-9.871482e-10	-2.506671e+01	-6.654341e+01
1.010000e-06	-3.566590e-06	-9.825073e-10	-2.481839e+01	-6.617885e+01
1.020000e-06	-3.530767e-06	-9.781983e-10	-2.456912e+01	-6.580908e+01
1.030000e-06	-3.494794e-06	-9.700271e-10	-2.431880e+01	-6.543389e+01
1.040000e-06	-3.458530e-06	-9.602514e-10	-2.406644e+01	-6.505312e+01
1.050000e-06	-3.422011e-06	-9.550899e-10	-2.381233e+01	-6.466658e+01
1.060000e-06	-3.385239e-06	-9.474349e-10	-2.355645e+01	-6.427412e+01
1.070000e-06	-3.348069e-06	-9.413300e-10	-2.329780e+01	-6.387562e+01
1.080000e-06	-3.310698e-06	-9.381917e-10	-2.303774e+01	-6.347095e+01
1.090000e-06	-3.273154e-06	-9.335535e-10	-2.277649e+01	-6.306003e+01
1.100000e-06	-3.235352e-06	-9.257623e-10	-2.251345e+01	-6.264279e+01
1.110000e-06	-3.197299e-06	-9.173165e-10	-2.224865e+01	-6.221916e+01
1.120000e-06	-3.158933e-06	-9.093203e-10	-2.198168e+01	-6.178911e+01
1.130000e-06	-3.120368e-06	-9.004327e-10	-2.171332e+01	-6.135265e+01
1.140000e-06	-3.081698e-06	-8.935345e-10	-2.144423e+01	-6.090978e+01
1.150000e-06	-3.042827e-06	-8.847246e-10	-2.117375e+01	-6.046053e+01
1.160000e-06	-3.003685e-06	-8.771376e-10	-2.090138e+01	-6.000495e+01
1.170000e-06	-2.964383e-06	-8.711710e-10	-2.062789e+01	-5.954312e+01
1.180000e-06	-2.924989e-06	-8.670456e-10	-2.035376e+01	-5.907512e+01
1.190000e-06	-2.885458e-06	-8.584231e-10	-2.007868e+01	-5.860106e+01
1.200000e-06	-2.845801e-06	-8.483346e-10	-1.980273e+01	-5.812104e+01
1.210000e-06	-2.806047e-06	-8.386185e-10	-1.952609e+01	-5.763521e+01
1.220000e-06	-2.766183e-06	-8.314664e-10	-1.924870e+01	-5.714371e+01
1.230000e-06	-2.726115e-06	-8.221955e-10	-1.896988e+01	-5.664667e+01
1.240000e-06	-2.685840e-06	-8.132484e-10	-1.868963e+01	-5.614425e+01
1.250000e-06	-2.645253e-06	-8.055073e-10	-1.840720e+01	-5.563661e+01
1.260000e-06	-2.604440e-06	-7.983671e-10	-1.812320e+01	-5.512390e+01
1.270000e-06	-2.563383e-06	-7.922468e-10	-1.783750e+01	-5.460628e+01
1.280000e-06	-2.521876e-06	-7.897030e-10	-1.754867e+01	-5.408388e+01
1.290000e-06	-2.480146e-06	-7.824320e-10	-1.725829e+01	-5.355685e+01
1.300000e-06	-2.438166e-06	-7.725833e-10	-1.696616e+01	-5.302531e+01
1.310000e-06	-2.395836e-06	-7.612067e-10	-1.667161e+01	-5.248937e+01
1.320000e-06	-2.353225e-06	-7.509557e-10	-1.637510e+01	-5.194912e+01
1.330000e-06	-2.310371e-06	-7.411581e-10	-1.607689e+01	-5.140464e+01
1.340000e-06	-2.267341e-06	-7.340245e-10	-1.577747e+01	-5.085598e+01
1.350000e-06	-2.224107e-06	-7.272278e-10	-1.547662e+01	-5.030315e+01
1.360000e-06	-2.180729e-06	-7.196549e-10	-1.517477e+01	-4.974615e+01
1.370000e-06	-2.137298e-06	-7.135147e-10	-1.487255e+01	-4.918495e+01
1.380000e-06	-2.093781e-06	-7.091055e-10	-1.456974e+01	-4.861948e+01
1.390000e-06	-2.050195e-06	-6.992915e-10	-1.426644e+01	-4.804964e+01
1.400000e-06	-2.006545e-06	-6.887552e-10	-1.396270e+01	-4.747528e+01
1.410000e-06	-1.962782e-06	-6.806359e-10	-1.365817e+01	-4.689624e+01
1.420000e-06	-1.918943e-06	-6.722493e-10	-1.335312e+01	-4.631230e+01
1.430000e-06	-1.874973e-06	-6.643766e-10	-1.304714e+01	-4.572320e+01
1.440000e-06	-1.830852e-06	-6.566864e-10	-1.274013e+01	-4.512866e+01
1.450000e-06	-1.786660e-06	-6.491647e-10	-1.243261e+01	-4.452836e+01
1.460000e-06	-1.742345e-06	-6.391256e-10	-1.212424e+01	-4.392191e+01
1.470000e-06	-1.697934e-06	-6.298161e-10	-1.181520e+01	-4.330893e+01
1.480000e-06	-1.653402e-06	-6.192175e-10	-1.150532e+01	-4.268896e+01
1.490000e-06	-1.608592e-06	-6.090501e-10	-1.119351e+01	-4.206153e+01
1.500000e-06	-1.563639e-06	-6.008591e-10	-1.088070e+01	-4.142614e+01
1.510000e-06	-1.518624e-06	-5.939284e-10	-1.056746e+01	-4.078224e+01
1.520000e-06	-1.473414e-06	-5.850838e-10	-1.025287e+01	-4.012927e+01
1.530000e-06	-1.428037e-06	-5.737198e-10	-9.937106e+00	-3.946664e+01
1.540000e-06	-1.382585e-06	-5.598543e-10	-9.620825e+00	-3.879373e+01
1.550000e-06	-1.337159e-06	-5.482049e-10	-9.304722e+00	-3.810993e+01
1.560000e-06	-1.291639e-06	-5.349234e-10	-8.987968e+00	-3.741457e+01
1.570000e-06	-1.245990e-06	-5.219170e-10	-8.670317e+00	-3.670701e+01
1.580000e-06	-1.200390e-06	-5.114108e-10	-8.353007e+00	-3.598658e+01
1.590000e-06	-1.154708e-06	-5.025333e-10	-8.035122e+00	-3.525263e+01
1.600000e-06	-1.108823e-06	-4.901060e-10	-7.715833e+00	-3.450449e+01
1.610000e-06	-1.062914e-06	-4.754589e-10	-7.396370e+00	-3.374153e+01
1.620000e-06	-1.016958e-06	-4.636470e-10	-7.076577e+00	-3.296309e+01
1.630000e-06	-9.708796e-07	-4.558235e-10	-6.755940e+00	-3.216857e+01
1.640000e-06	-9.248047e-07	-4.449014e-10	-6.435325e+00	-3.135737e+01
1.650000e-06	-8.787302e-07	-4.305719e-10	-6.114712e+00	-3.052893e+01
1.660000e-06	-8.325276e-07	-4.173623e-10	-5.793208e+00	-2.968271e+01
1.670000e-06	-7.862089e-07	-4.027063e-10	-5.470895e+00	-2.881821e+01
1.680000e-06	-7.398636e-07	-3.875350e-10	-5.148398e+00	-2.793499e+01
1.690000e-06	-6.935775e-07	-3.755974e-10	-4.826313e+00	-2.703265e+01
1.700000e-06	-6.472359e-07	-3.645791e-10	-4.503841e+00	-2.611082e+01
1.710000e-06	-6.007145e-07	-3.512139e-10	-4.180118e+00	-2.516921e+01
1.720000e-06	-5.541030e-07	-3.340520e-10	-3.855768e+00	-2.420759e+01
1.730000e-06	-5.074589e-07	-3.134337e-10	-3.531192e+00	-2.322578e+01
1.740000e-06	-4.608443e-07	-2.921080e-10	-3.206821e+00	-2.222367e+01
1.750000e-06	-4.142372e-07	-2.733781e-10	-2.882501e+00	-2.120121e+01
1.760000e-06	-3.676053e-07	-2.596540e-10	-2.558010e+00	-2.015845e+01
1.770000e-06	-3.208983e-07	-2.478855e-10	-2.232995e+00	-1.909548e+01
1.780000e-06	-2.741147e-07	-2.367766e-10	-1.907448e+00	-1.801249e+01
1.790000e-06	-2.273724e-07	-2.231092e-10	-1.582189e+00	-1.690971e+01
1.800000e-06	-1.806486e-07	-2.056691e-10	-1.257057e+00	-1.578749e+01
1.810000e-06	-1.338560e-07	-1.869811e-10	-9.314471e-01	-1.464623e+01
1.820000e-06	-8.707810e-08	-1.701489e-10	-6.059397e-01	-1.348641e+01
1.830000e-06	-4.044344e-08	-1.540945e-10	-2.814288e-01	-1.230859e+01
1.840000e-06	6.219979e-09	-1.380131e-10	4.328220e-02	-1.111338e+01
1.850000e-06	5.307428e-08	-1.214884e-10	3.693215e-01	-9.901505e+00
1.860000e-06	9.989038e-08	-1.042897e-10	6.950949e-01	-8.673718e+00
1.870000e-06	1.466415e-07	-8.460512e-11	1.020416e+00	-7.430859e+00
1.880000e-06	1.932937e-07	-6.708398e-11	1.345049e+00	-6.173827e+00
1.890000e-06	2.398768e-07	-5.288636e-11	1.669201e+00	-4.903580e+00
1.900000e-06	2.865720e-07	-3.722490e-11	1.994134e+00	-3.621132e+00
1.910000e-06	3.332434e-07	-1.838000e-11	2.318900e+00	-2.327548e+00
1.920000e-06	3.798803e-07	8.471368e-13	2.643427e+00	-1.023940e+00
1.930000e-06	4.265004e-07	2.091733e-11	2.967836e+00	2.885373e-01
1.940000e-06	4.729784e-07	4.135594e-11	3.291256e+00	1.608695e+00
1.950000e-06	5.194319e-07	5.789081e-11	3.614507e+00	2.935311e+00
1.960000e-06	5.659304e-07	7.151555e-11	3.938070e+00	4.267140e+00
1.970000e-06	6.123708e-07	8.631162e-11	4.261230e+00	5.602914e+00
1.980000e-06	6.587608e-07	1.035903e-10	4.584038e+00	6.941353e+00
1.990000e-06	7.050703e-07	1.230347e-10	4.906286e+00	8.281170e+00
2.000000e-06	7.512816e-07	1.428509e-10	5.227851e+00	9.621074e+00
2.010000e-06	7.975387e-07	1.643831e-10	5.549735e+00	1.095978e+01
2.020000e-06	8.437610e-07	1.844732e-10	5.871376e+00	1.229601e+01
2.030000e-06	8.898603e-07	2.017935e-10	6.192162e+00	1.362850e+01
2.040000e-06	9.360033e-07	2.182756e-10	6.513251e+00	1.495601e+01
2.050000e-06	9.820949e-07	2.321439e-10	6.833983e+00	1.627734e+01
2.060000e-06	1.028049e-06	2.482040e-10	7.153756e+00	1.759129e+01
2.070000e-06	1.073918e-06	2.697483e-10	7.472944e+00	1.889672e+01
2.080000e-06	1.119750e-06	2.934931e-10	7.791865e+00	2.019252e+01
2.090000e-06	1.165549e-06	3.136624e-10	8.110562e+00	2.147765e+01
2.100000e-06	1.211225e-06	3.322211e-10	8.428404e+00	2.275108e+01
2.110000e-06	1.256725e-06	3.474053e-10	8.745016e+00	2.401186e+01
2.120000e-06	1.302155e-06	3.608829e-10	9.061145e+00	2.525909e+01
2.130000e-06	1.347536e-06	3.792787e-10	9.376936e+00	2.649192e+01
2.140000e-06	1.392844e-06	4.025225e-10	9.692210e+00	2.770959e+01
2.150000e-06	1.438050e-06	4.230324e-10	1.000678e+01	2.891136e+01
2.160000e-06	1.483069e-06	4.395690e-10	1.032005e+01	3.009659e+01
2.170000e-06	1.528065e-06	4.555458e-10	1.063316e+01	3.126470e+01
2.180000e-06	1.572986e-06	4.724059e-10	1.094575e+01	3.241515e+01
2.190000e-06	1.617696e-06	4.902148e-10	1.125686e+01	3.354750e+01
2.200000e-06	1.662246e-06	5.078781e-10	1.156687e+01	3.466137e+01
2.210000e-06	1.706656e-06	5.246330e-10	1.187590e+01	3.575642e+01
2.220000e-06	1.750903e-06	5.411611e-10	1.218379e+01	3.683240e+01
2.230000e-06	1.794984e-06	5.560133e-10	1.249053e+01	3.788913e+01
2.240000e-06	1.839049e-06	5.685896e-10	1.279716e+01	3.892646e+01
2.250000e-06	1.883072e-06	5.817173e-10	1.310350e+01	3.994433e+01
2.260000e-06	1.926898e-06	5.948713e-10	1.340847e+01	4.094272e+01
2.270000e-06	1.970617e-06	6.123495e-10	1.371269e+01	4.192168e+01
2.280000e-06	2.014313e-06	6.310826e-10	1.401675e+01	4.288128e+01
2.290000e-06	2.057927e-06	6.483696e-10	1.432025e+01	4.382167e+01
2.300000e-06	2.101502e-06	6.593852e-10	1.462347e+01	4.474303e+01
2.310000e-06	2.144982e-06	6.667114e-10	1.492602e+01	4.564558e+01
2.320000e-06	2.188347e-06	6.763401e-10	1.522778e+01	4.652959e+01
2.330000e-06	2.231623e-06	6.897089e-10	1.552892e+01	4.739535e+01
2.340000e-06	2.274720e-06	7.058355e-10	1.582882e+01	4.824317e+01
2.350000e-06	2.317690e-06	7.247888e-10	1.612783e+01	4.907342e+01
2.360000e-06	2.360465e-06	7.419430e-10	1.642548e+01	4.988645e+01
2.370000e-06	2.402855e-06	7.534128e-10	1.672045e+01	5.068266e+01
2.380000e-06	2.444963e-06	7.606622e-10	1.701346e+01	5.146245e+01
2.390000e-06	2.486883e-06	7.662635e-10	1.730516e+01	5.222623e+01
2.400000e-06	2.528454e-06	7.728047e-10	1.759444e+01	5.297443e+01
2.410000e-06	2.569725e-06	7.812341e-10	1.788163e+01	5.370745e+01
2.420000e-06	2.610823e-06	7.954764e-10	1.816761e+01	5.442572e+01
2.430000e-06	2.651490e-06	8.127760e-10	1.845060e+01	5.512966e+01
2.440000e-06	2.691870e-06	8.281269e-10	1.873158e+01	5.581969e+01
2.450000e-06	2.732144e-06	8.368257e-10	1.901183e+01	5.649621e+01
2.460000e-06	2.772165e-06	8.457161e-10	1.929033e+01	5.715960e+01
2.470000e-06	2.812006e-06	8.551245e-10	1.956756e+01	5.781025e+01
2.480000e-06	2.851738e-06	8.624483e-10	1.984404e+01	5.844853e+01
2.490000e-06	2.891345e-06	8.713270e-10	2.011965e+01	5.907478e+01
2.500000e-06	2.930878e-06	8.808638e-10	2.039474e+01	5.968933e+01
2.510000e-06	2.970342e-06	8.932179e-10	2.066935e+01	6.029250e+01
2.520000e-06	3.009618e-06	9.067768e-10	2.094266e+01	6.088457e+01
2.530000e-06	3.048654e-06	9.164839e-10	2.121429e+01	6.146582e+01
2.540000e-06	3.087454e-06	9.239068e-10	2.148429e+01	6.203650e+01
2.550000e-06	3.126093e-06	9.295179e-10	2.175316e+01	6.259685e+01
2.560000e-06	3.164500e-06	9.361334e-10	2.202041e+01	6.314707e+01
2.570000e-06	3.202602e-06	9.428669e-10	2.228555e+01	6.368736e+01
2.580000e-06	3.240478e-06	9.487502e-10	2.254912e+01	6.421790e+01
2.590000e-06	3.278124e-06	9.570387e-10	2.281108e+01	6.473883e+01
2.600000e-06	3.315549e-06	9.644074e-10	2.307150e+01	6.525030e+01
2.610000e-06	3.352806e-06	9.690557e-10	2.333076e+01	6.575244e+01
2.620000e-06	3.389824e-06	9.748014e-10	2.358835e+01	6.624536e+01
2.630000e-06	3.426542e-06	9.820678e-10	2.384385e+01	6.672915e+01
2.640000e-06	3.462970e-06	9.899742e-10	2.409735e+01	6.720391e+01
2.650000e-06	3.499177e-06	9.973662e-10	2.434929e+01	6.766970e+01
2.660000e-06	3.535161e-06	1.004632e-09	2.459969e+01	6.812661e+01
2.670000e-06	3.570902e-06	1.010239e-09	2.484840e+01	6.857470e+01
2.680000e-06	3.606483e-06	1.014560e-09	2.509599e+01	6.901402e+01
2.690000e-06	3.641982e-06	1.021405e-09	2.534301e+01	6.944465e+01
2.700000e-06	3.677408e-06	1.028875e-09	2.558952e+01	6.986663e+01
2.710000e-06	3.712717e-06	1.034257e-09	2.583523e+01	7.028002e+01
2.720000e-06	3.747739e-06	1.039180e-09	2.607893e+01	7.068489e+01
2.730000e-06	3.782349e-06	1.045678e-09	2.631977e+01	7.108129e+01
2.740000e-06	3.816550e-06	1.051037e-09	2.655776e+01	7.146930e+01
2.750000e-06	3.850357e-06	1.055212e-09	2.679301e+01	7.184900e+01
2.760000e-06	3.883792e-06	1.059954e-09	2.702567e+01	7.222045e+01
2.770000e-06	3.916728e-06	1.065648e-09	2.725485e+01	7.258376e+01
2.780000e-06	3.949099e-06	1.071590e-09	2.748011e+01	7.293902e+01
2.790000e-06	3.981066e-06	1.077855e-09	2.770255e+01	7.328633e+01
2.800000e-06	4.012839e-06	1.083226e-09	2.792365e+01	7.362582e+01
2.810000e-06	4.044516e-06	1.086841e-09	2.814408e+01	7.395760e+01
2.820000e-06	4.076018e-06	1.092378e-09	2.836328e+01	7.428182e+01
2.830000e-06	4.107311e-06	1.099670e-09	2.858104e+01	7.459861e+01
2.840000e-06	4.138456e-06	1.106574e-09	2.879777e+01	7.490814e+01
2.850000e-06	4.169321e-06	1.115073e-09	2.901254e+01	7.521055e+01
2.860000e-06	4.199806e-06	1.122172e-09	2.922468e+01	7.550603e+01
2.870000e-06	4.229951e-06	1.125375e-09	2.943444e+01	7.579475e+01
2.880000e-06	4.259763e-06	1.126236e-09	2.964189e+01	7.607688e+01
2.890000e-06	4.289336e-06	1.128697e-09	2.984768e+01	7.635263e+01
2.900000e-06	4.318644e-06	1.134789e-09	3.005162e+01	7.662219e+01
2.910000e-06	4.347615e-06	1.142460e-09	3.025322e+01	7.688575e+01
