# Temperatura_=_-1.46
# Concentracion g/m^3_=_1620.0
# C_Vs_to_Am_M_A/Vsm_=_65563218390.804596
# pendiente_HvsI_1/m_=_3716.3
# ordenada_HvsI_A/m_=_1297.0
# frecuencia_Hz_=_135106.30845925532

Tiempo_(s)	Campo_(V.s)	Magnetizacion_(V.s)	Campo_(kA/m)	Magnetizacion_(A/m)
0.000000e+00	-5.508012e-06	-9.988211e-10	-3.836874e+01	-6.652738e+01
1.000000e-08	-5.508097e-06	-9.979383e-10	-3.836934e+01	-6.647705e+01
2.000000e-08	-5.507760e-06	-9.973717e-10	-3.836698e+01	-6.642632e+01
3.000000e-08	-5.507064e-06	-9.947451e-10	-3.836214e+01	-6.637511e+01
4.000000e-08	-5.505920e-06	-9.869634e-10	-3.835417e+01	-6.632330e+01
5.000000e-08	-5.504178e-06	-9.824580e-10	-3.834204e+01	-6.627079e+01
6.000000e-08	-5.501833e-06	-1.005195e-09	-3.832570e+01	-6.621747e+01
7.000000e-08	-5.498968e-06	-1.045692e-09	-3.830574e+01	-6.616324e+01
8.000000e-08	-5.495677e-06	-1.039534e-09	-3.828282e+01	-6.610797e+01
9.000000e-08	-5.491953e-06	-9.780579e-10	-3.825688e+01	-6.605156e+01
1.000000e-07	-5.487865e-06	-9.261769e-10	-3.822840e+01	-6.599389e+01
1.100000e-07	-5.483524e-06	-9.370318e-10	-3.819816e+01	-6.593486e+01
1.200000e-07	-5.478939e-06	-9.980395e-10	-3.816622e+01	-6.587437e+01
1.300000e-07	-5.473986e-06	-1.044424e-09	-3.813172e+01	-6.581230e+01
1.400000e-07	-5.468590e-06	-1.005572e-09	-3.809413e+01	-6.574858e+01
1.500000e-07	-5.462843e-06	-9.766539e-10	-3.805409e+01	-6.568309e+01
1.600000e-07	-5.456811e-06	-9.843142e-10	-3.801208e+01	-6.561577e+01
1.700000e-07	-5.450341e-06	-1.014238e-09	-3.796701e+01	-6.554653e+01
1.800000e-07	-5.443358e-06	-9.767883e-10	-3.791836e+01	-6.547529e+01
1.900000e-07	-5.436085e-06	-9.251443e-10	-3.786770e+01	-6.540200e+01
2.000000e-07	-5.428596e-06	-9.706097e-10	-3.781553e+01	-6.532659e+01
2.100000e-07	-5.420838e-06	-1.046761e-09	-3.776149e+01	-6.524902e+01
2.200000e-07	-5.412742e-06	-1.044986e-09	-3.770509e+01	-6.516923e+01
2.300000e-07	-5.404224e-06	-9.714679e-10	-3.764576e+01	-6.508719e+01
2.400000e-07	-5.395273e-06	-9.591216e-10	-3.758340e+01	-6.500288e+01
2.500000e-07	-5.385737e-06	-9.842471e-10	-3.751698e+01	-6.491626e+01
2.600000e-07	-5.375506e-06	-9.858925e-10	-3.744570e+01	-6.482732e+01
2.700000e-07	-5.364666e-06	-9.530246e-10	-3.737020e+01	-6.473604e+01
2.800000e-07	-5.353382e-06	-9.694164e-10	-3.729159e+01	-6.464242e+01
2.900000e-07	-5.341662e-06	-9.859137e-10	-3.720995e+01	-6.454645e+01
3.000000e-07	-5.329442e-06	-9.631138e-10	-3.712483e+01	-6.444813e+01
3.100000e-07	-5.316828e-06	-9.317909e-10	-3.703695e+01	-6.434747e+01
3.200000e-07	-5.303872e-06	-9.512194e-10	-3.694671e+01	-6.424448e+01
3.300000e-07	-5.290546e-06	-9.588587e-10	-3.685388e+01	-6.413917e+01
3.400000e-07	-5.276876e-06	-9.452700e-10	-3.675866e+01	-6.403154e+01
3.500000e-07	-5.262772e-06	-9.448534e-10	-3.666041e+01	-6.392161e+01
3.600000e-07	-5.248128e-06	-9.590050e-10	-3.655839e+01	-6.380939e+01
3.700000e-07	-5.233062e-06	-9.550736e-10	-3.645344e+01	-6.369490e+01
3.800000e-07	-5.217519e-06	-9.488975e-10	-3.634517e+01	-6.357814e+01
3.900000e-07	-5.201432e-06	-9.453518e-10	-3.623311e+01	-6.345914e+01
4.000000e-07	-5.184994e-06	-9.402359e-10	-3.611860e+01	-6.333789e+01
4.100000e-07	-5.168228e-06	-9.427573e-10	-3.600181e+01	-6.321442e+01
4.200000e-07	-5.151064e-06	-9.475375e-10	-3.588225e+01	-6.308872e+01
4.300000e-07	-5.133601e-06	-9.494971e-10	-3.576060e+01	-6.296081e+01
4.400000e-07	-5.115817e-06	-9.548587e-10	-3.563672e+01	-6.283068e+01
4.500000e-07	-5.097583e-06	-9.534856e-10	-3.550970e+01	-6.269835e+01
4.600000e-07	-5.078927e-06	-9.319703e-10	-3.537974e+01	-6.256380e+01
4.700000e-07	-5.059942e-06	-9.450290e-10	-3.524750e+01	-6.242704e+01
4.800000e-07	-5.040630e-06	-9.652908e-10	-3.511297e+01	-6.228806e+01
4.900000e-07	-5.021011e-06	-9.435997e-10	-3.497630e+01	-6.214686e+01
5.000000e-07	-5.001140e-06	-9.228355e-10	-3.483788e+01	-6.200342e+01
5.100000e-07	-4.980989e-06	-9.545107e-10	-3.469751e+01	-6.185775e+01
5.200000e-07	-4.960522e-06	-9.541625e-10	-3.455493e+01	-6.170982e+01
5.300000e-07	-4.939736e-06	-9.261461e-10	-3.441014e+01	-6.155963e+01
5.400000e-07	-4.918642e-06	-9.328079e-10	-3.426320e+01	-6.140717e+01
5.500000e-07	-4.897175e-06	-9.403412e-10	-3.411366e+01	-6.125243e+01
5.600000e-07	-4.875322e-06	-9.102189e-10	-3.396143e+01	-6.109540e+01
5.700000e-07	-4.853162e-06	-9.254132e-10	-3.380706e+01	-6.093607e+01
5.800000e-07	-4.830709e-06	-9.535670e-10	-3.365066e+01	-6.077444e+01
5.900000e-07	-4.807972e-06	-9.230242e-10	-3.349227e+01	-6.061050e+01
6.000000e-07	-4.784949e-06	-8.966868e-10	-3.333189e+01	-6.044424e+01
6.100000e-07	-4.761642e-06	-9.225939e-10	-3.316954e+01	-6.027568e+01
6.200000e-07	-4.738065e-06	-9.157419e-10	-3.300530e+01	-6.010480e+01
6.300000e-07	-4.714169e-06	-8.930688e-10	-3.283885e+01	-5.993162e+01
6.400000e-07	-4.690020e-06	-9.135303e-10	-3.267062e+01	-5.975615e+01
6.500000e-07	-4.665537e-06	-9.233983e-10	-3.250007e+01	-5.957839e+01
6.600000e-07	-4.640517e-06	-8.969131e-10	-3.232578e+01	-5.939838e+01
6.700000e-07	-4.615040e-06	-8.988478e-10	-3.214831e+01	-5.921611e+01
6.800000e-07	-4.589043e-06	-9.107552e-10	-3.196722e+01	-5.903163e+01
6.900000e-07	-4.562503e-06	-8.926434e-10	-3.178234e+01	-5.884495e+01
7.000000e-07	-4.535582e-06	-8.880326e-10	-3.159481e+01	-5.865610e+01
7.100000e-07	-4.508358e-06	-9.033555e-10	-3.140517e+01	-5.846512e+01
7.200000e-07	-4.480873e-06	-8.975263e-10	-3.121370e+01	-5.827205e+01
7.300000e-07	-4.453165e-06	-8.843965e-10	-3.102069e+01	-5.807690e+01
7.400000e-07	-4.425220e-06	-8.878334e-10	-3.082603e+01	-5.787974e+01
7.500000e-07	-4.396975e-06	-8.807537e-10	-3.062927e+01	-5.768059e+01
7.600000e-07	-4.368468e-06	-8.690170e-10	-3.043070e+01	-5.747949e+01
7.700000e-07	-4.339713e-06	-8.711583e-10	-3.023038e+01	-5.727648e+01
7.800000e-07	-4.310674e-06	-8.750087e-10	-3.002810e+01	-5.707159e+01
7.900000e-07	-4.281297e-06	-8.660989e-10	-2.982346e+01	-5.686488e+01
8.000000e-07	-4.251620e-06	-8.623699e-10	-2.961673e+01	-5.665636e+01
8.100000e-07	-4.221646e-06	-8.587885e-10	-2.940794e+01	-5.644606e+01
8.200000e-07	-4.191439e-06	-8.512670e-10	-2.919751e+01	-5.623402e+01
8.300000e-07	-4.160959e-06	-8.448830e-10	-2.898519e+01	-5.602025e+01
8.400000e-07	-4.130135e-06	-8.429876e-10	-2.877047e+01	-5.580476e+01
8.500000e-07	-4.099080e-06	-8.360470e-10	-2.855414e+01	-5.558758e+01
8.600000e-07	-4.067816e-06	-8.340608e-10	-2.833636e+01	-5.536869e+01
8.700000e-07	-4.036357e-06	-8.333681e-10	-2.811721e+01	-5.514810e+01
8.800000e-07	-4.004680e-06	-8.294618e-10	-2.789655e+01	-5.492579e+01
8.900000e-07	-3.972771e-06	-8.228933e-10	-2.767427e+01	-5.470175e+01
9.000000e-07	-3.940591e-06	-8.203663e-10	-2.745011e+01	-5.447593e+01
9.100000e-07	-3.908076e-06	-8.153659e-10	-2.722361e+01	-5.424831e+01
9.200000e-07	-3.875200e-06	-8.075382e-10	-2.699460e+01	-5.401883e+01
9.300000e-07	-3.841933e-06	-8.030067e-10	-2.676286e+01	-5.378743e+01
9.400000e-07	-3.808306e-06	-7.995408e-10	-2.652861e+01	-5.355407e+01
9.500000e-07	-3.774281e-06	-7.935456e-10	-2.629160e+01	-5.331864e+01
9.600000e-07	-3.739790e-06	-7.895985e-10	-2.605133e+01	-5.308108e+01
9.700000e-07	-3.704902e-06	-7.884420e-10	-2.580830e+01	-5.284129e+01
9.800000e-07	-3.669739e-06	-7.844785e-10	-2.556336e+01	-5.259917e+01
9.900000e-07	-3.634373e-06	-7.803408e-10	-2.531699e+01	-5.235461e+01
1.000000e-06	-3.598825e-06	-7.771759e-10	-2.506937e+01	-5.210750e+01
1.010000e-06	-3.563090e-06	-7.715044e-10	-2.482044e+01	-5.185771e+01
1.020000e-06	-3.527210e-06	-7.649950e-10	-2.457050e+01	-5.160512e+01
1.030000e-06	-3.491218e-06	-7.614708e-10	-2.431978e+01	-5.134960e+01
1.040000e-06	-3.455036e-06	-7.568651e-10	-2.406774e+01	-5.109101e+01
1.050000e-06	-3.418564e-06	-7.502245e-10	-2.381368e+01	-5.082921e+01
1.060000e-06	-3.381775e-06	-7.450411e-10	-2.355740e+01	-5.056406e+01
1.070000e-06	-3.344675e-06	-7.435899e-10	-2.329897e+01	-5.029543e+01
1.080000e-06	-3.307253e-06	-7.376792e-10	-2.303828e+01	-5.002317e+01
1.090000e-06	-3.269591e-06	-7.292685e-10	-2.277593e+01	-4.974714e+01
1.100000e-06	-3.231789e-06	-7.226124e-10	-2.251260e+01	-4.946721e+01
1.110000e-06	-3.193823e-06	-7.176889e-10	-2.224813e+01	-4.918324e+01
1.120000e-06	-3.155644e-06	-7.118606e-10	-2.198218e+01	-4.889510e+01
1.130000e-06	-3.117216e-06	-7.086969e-10	-2.171449e+01	-4.860266e+01
1.140000e-06	-3.078577e-06	-7.052189e-10	-2.144533e+01	-4.830582e+01
1.150000e-06	-3.039733e-06	-7.005265e-10	-2.117474e+01	-4.800445e+01
1.160000e-06	-3.000659e-06	-6.966563e-10	-2.090256e+01	-4.769844e+01
1.170000e-06	-2.961412e-06	-6.934442e-10	-2.062916e+01	-4.738770e+01
1.180000e-06	-2.921986e-06	-6.896771e-10	-2.035452e+01	-4.707215e+01
1.190000e-06	-2.882414e-06	-6.865588e-10	-2.007886e+01	-4.675168e+01
1.200000e-06	-2.842742e-06	-6.819456e-10	-1.980250e+01	-4.642623e+01
1.210000e-06	-2.802943e-06	-6.754680e-10	-1.952526e+01	-4.609573e+01
1.220000e-06	-2.762953e-06	-6.689299e-10	-1.924669e+01	-4.576012e+01
1.230000e-06	-2.722817e-06	-6.631497e-10	-1.896711e+01	-4.541935e+01
1.240000e-06	-2.682566e-06	-6.560881e-10	-1.868672e+01	-4.507337e+01
1.250000e-06	-2.642102e-06	-6.503493e-10	-1.840485e+01	-4.472214e+01
1.260000e-06	-2.601436e-06	-6.473961e-10	-1.812157e+01	-4.436562e+01
1.270000e-06	-2.560533e-06	-6.450402e-10	-1.783664e+01	-4.400379e+01
1.280000e-06	-2.519332e-06	-6.416880e-10	-1.754963e+01	-4.363661e+01
1.290000e-06	-2.477889e-06	-6.355477e-10	-1.726094e+01	-4.326405e+01
1.300000e-06	-2.436098e-06	-6.254975e-10	-1.696983e+01	-4.288611e+01
1.310000e-06	-2.393873e-06	-6.132949e-10	-1.667569e+01	-4.250274e+01
1.320000e-06	-2.351432e-06	-6.042511e-10	-1.638005e+01	-4.211391e+01
1.330000e-06	-2.308831e-06	-5.987138e-10	-1.608329e+01	-4.171961e+01
1.340000e-06	-2.265943e-06	-5.942867e-10	-1.578453e+01	-4.131978e+01
1.350000e-06	-2.222782e-06	-5.910278e-10	-1.548387e+01	-4.091438e+01
1.360000e-06	-2.179449e-06	-5.867152e-10	-1.518201e+01	-4.050335e+01
1.370000e-06	-2.136027e-06	-5.805473e-10	-1.487954e+01	-4.008664e+01
1.380000e-06	-2.092500e-06	-5.750533e-10	-1.457633e+01	-3.966416e+01
1.390000e-06	-2.048845e-06	-5.685854e-10	-1.427223e+01	-3.923583e+01
1.400000e-06	-2.005077e-06	-5.605150e-10	-1.396734e+01	-3.880153e+01
1.410000e-06	-1.961270e-06	-5.545398e-10	-1.366218e+01	-3.836114e+01
1.420000e-06	-1.917430e-06	-5.501567e-10	-1.335679e+01	-3.791454e+01
1.430000e-06	-1.873477e-06	-5.453994e-10	-1.305062e+01	-3.746154e+01
1.440000e-06	-1.829438e-06	-5.401872e-10	-1.274384e+01	-3.700199e+01
1.450000e-06	-1.785265e-06	-5.325597e-10	-1.243614e+01	-3.653567e+01
1.460000e-06	-1.740927e-06	-5.236809e-10	-1.212728e+01	-3.606236e+01
1.470000e-06	-1.696536e-06	-5.119548e-10	-1.181805e+01	-3.558184e+01
1.480000e-06	-1.652000e-06	-5.004642e-10	-1.150781e+01	-3.509382e+01
1.490000e-06	-1.607234e-06	-4.913741e-10	-1.119597e+01	-3.459802e+01
1.500000e-06	-1.562326e-06	-4.885782e-10	-1.088314e+01	-3.409415e+01
1.510000e-06	-1.517298e-06	-4.868254e-10	-1.056948e+01	-3.358186e+01
1.520000e-06	-1.472263e-06	-4.811494e-10	-1.025576e+01	-3.306082e+01
1.530000e-06	-1.427226e-06	-4.711411e-10	-9.942039e+00	-3.253065e+01
1.540000e-06	-1.382007e-06	-4.586737e-10	-9.627040e+00	-3.199099e+01
1.550000e-06	-1.336646e-06	-4.466502e-10	-9.311057e+00	-3.144141e+01
1.560000e-06	-1.291218e-06	-4.352030e-10	-8.994611e+00	-3.088152e+01
1.570000e-06	-1.245697e-06	-4.253872e-10	-8.677509e+00	-3.031089e+01
1.580000e-06	-1.200117e-06	-4.194547e-10	-8.359997e+00	-2.972909e+01
1.590000e-06	-1.154503e-06	-4.162747e-10	-8.042251e+00	-2.913567e+01
1.600000e-06	-1.108745e-06	-4.102172e-10	-7.723501e+00	-2.853019e+01
1.610000e-06	-1.062846e-06	-3.989147e-10	-7.403770e+00	-2.791221e+01
1.620000e-06	-1.016912e-06	-3.863084e-10	-7.083796e+00	-2.728128e+01
1.630000e-06	-9.708960e-07	-3.737923e-10	-6.763250e+00	-2.663696e+01
1.640000e-06	-9.247201e-07	-3.615896e-10	-6.441589e+00	-2.597884e+01
1.650000e-06	-8.785070e-07	-3.498722e-10	-6.119669e+00	-2.530648e+01
1.660000e-06	-8.323031e-07	-3.385669e-10	-5.797813e+00	-2.461949e+01
1.670000e-06	-7.860681e-07	-3.276698e-10	-5.475741e+00	-2.391749e+01
1.680000e-06	-7.397953e-07	-3.179589e-10	-5.153405e+00	-2.320012e+01
1.690000e-06	-6.933742e-07	-3.083768e-10	-4.830036e+00	-2.246704e+01
1.700000e-06	-6.468378e-07	-2.960568e-10	-4.505864e+00	-2.171796e+01
1.710000e-06	-6.002821e-07	-2.818029e-10	-4.181557e+00	-2.095260e+01
1.720000e-06	-5.537772e-07	-2.661378e-10	-3.857605e+00	-2.017073e+01
1.730000e-06	-5.072309e-07	-2.488801e-10	-3.533364e+00	-1.937216e+01
1.740000e-06	-4.606104e-07	-2.309109e-10	-3.208606e+00	-1.855673e+01
1.750000e-06	-4.139769e-07	-2.160362e-10	-2.883758e+00	-1.772434e+01
1.760000e-06	-3.673122e-07	-2.050812e-10	-2.558692e+00	-1.687493e+01
1.770000e-06	-3.206124e-07	-1.996262e-10	-2.233382e+00	-1.600850e+01
1.780000e-06	-2.739444e-07	-1.915032e-10	-1.908293e+00	-1.512508e+01
1.790000e-06	-2.273086e-07	-1.798365e-10	-1.583429e+00	-1.422477e+01
1.800000e-06	-1.806008e-07	-1.638622e-10	-1.258063e+00	-1.330773e+01
1.810000e-06	-1.338489e-07	-1.454267e-10	-9.323898e-01	-1.237415e+01
1.820000e-06	-8.713345e-08	-1.288825e-10	-6.069705e-01	-1.142432e+01
1.830000e-06	-4.046479e-08	-1.178411e-10	-2.818772e-01	-1.045854e+01
1.840000e-06	6.264572e-09	-1.084209e-10	4.363893e-02	-9.477187e+00
1.850000e-06	5.303842e-08	-9.924653e-11	3.694650e-01	-8.480703e+00
1.860000e-06	9.975246e-08	-9.083883e-11	6.948744e-01	-7.469574e+00
1.870000e-06	1.464795e-07	-7.712228e-11	1.020374e+00	-6.444342e+00
1.880000e-06	1.931763e-07	-5.909906e-11	1.345664e+00	-5.405603e+00
1.890000e-06	2.397965e-07	-3.894365e-11	1.670419e+00	-4.354004e+00
1.900000e-06	2.864710e-07	-1.911825e-11	1.995553e+00	-3.290241e+00
1.910000e-06	3.331998e-07	-2.040314e-12	2.321066e+00	-2.215054e+00
1.920000e-06	3.799058e-07	1.031523e-11	2.646419e+00	-1.129231e+00
1.930000e-06	4.265351e-07	1.929023e-11	2.971238e+00	-3.359478e-02
1.940000e-06	4.730775e-07	3.065410e-11	3.295452e+00	1.070990e+00
1.950000e-06	5.195525e-07	4.531489e-11	3.619196e+00	2.183629e+00
1.960000e-06	5.659700e-07	6.299232e-11	3.942540e+00	3.303394e+00
1.970000e-06	6.123898e-07	8.204243e-11	4.265900e+00	4.429335e+00
1.980000e-06	6.586903e-07	9.925434e-11	4.588428e+00	5.560479e+00
1.990000e-06	7.049037e-07	1.159432e-10	4.910351e+00	6.695834e+00
2.000000e-06	7.511689e-07	1.294643e-10	5.232633e+00	7.834396e+00
2.010000e-06	7.973883e-07	1.443912e-10	5.554597e+00	8.975152e+00
2.020000e-06	8.434824e-07	1.600859e-10	5.875688e+00	1.011708e+01
2.030000e-06	8.894940e-07	1.757717e-10	6.196204e+00	1.125918e+01
2.040000e-06	9.354305e-07	1.918981e-10	6.516197e+00	1.240041e+01
2.050000e-06	9.812874e-07	2.094065e-10	6.835636e+00	1.353979e+01
2.060000e-06	1.027105e-06	2.271865e-10	7.154801e+00	1.467631e+01
2.070000e-06	1.072891e-06	2.442253e-10	7.473742e+00	1.580900e+01
2.080000e-06	1.118675e-06	2.618089e-10	7.792677e+00	1.693690e+01
2.090000e-06	1.164401e-06	2.789319e-10	8.111203e+00	1.805908e+01
2.100000e-06	1.210025e-06	2.931328e-10	8.429016e+00	1.917462e+01
2.110000e-06	1.255524e-06	3.039752e-10	8.745967e+00	2.028267e+01
2.120000e-06	1.300982e-06	3.149937e-10	9.062626e+00	2.138236e+01
2.130000e-06	1.346341e-06	3.297603e-10	9.378596e+00	2.247290e+01
2.140000e-06	1.391547e-06	3.478023e-10	9.693498e+00	2.355351e+01
2.150000e-06	1.436691e-06	3.675409e-10	1.000797e+01	2.462345e+01
2.160000e-06	1.481780e-06	3.852677e-10	1.032206e+01	2.568206e+01
2.170000e-06	1.526770e-06	3.996289e-10	1.063546e+01	2.672866e+01
2.180000e-06	1.571568e-06	4.130528e-10	1.094753e+01	2.776267e+01
2.190000e-06	1.616207e-06	4.241720e-10	1.125848e+01	2.878353e+01
2.200000e-06	1.660696e-06	4.354644e-10	1.156839e+01	2.979072e+01
2.210000e-06	1.704991e-06	4.477150e-10	1.187695e+01	3.078378e+01
2.220000e-06	1.749192e-06	4.624707e-10	1.218485e+01	3.176228e+01
2.230000e-06	1.793355e-06	4.801782e-10	1.249249e+01	3.272585e+01
2.240000e-06	1.837443e-06	4.947916e-10	1.279960e+01	3.367416e+01
2.250000e-06	1.881444e-06	5.088155e-10	1.310611e+01	3.460691e+01
2.260000e-06	1.925345e-06	5.208481e-10	1.341193e+01	3.552385e+01
2.270000e-06	1.969175e-06	5.340839e-10	1.371725e+01	3.642479e+01
2.280000e-06	2.012943e-06	5.481173e-10	1.402214e+01	3.730955e+01
2.290000e-06	2.056671e-06	5.631459e-10	1.432675e+01	3.817800e+01
2.300000e-06	2.100378e-06	5.787106e-10	1.463121e+01	3.903005e+01
2.310000e-06	2.143970e-06	5.923762e-10	1.493487e+01	3.986563e+01
2.320000e-06	2.187383e-06	6.050413e-10	1.523729e+01	4.068471e+01
2.330000e-06	2.230673e-06	6.155086e-10	1.553884e+01	4.148729e+01
2.340000e-06	2.273770e-06	6.270403e-10	1.583906e+01	4.227339e+01
2.350000e-06	2.316625e-06	6.391829e-10	1.613758e+01	4.304307e+01
2.360000e-06	2.359258e-06	6.522860e-10	1.643456e+01	4.379639e+01
2.370000e-06	2.401554e-06	6.644489e-10	1.672919e+01	4.453345e+01
2.380000e-06	2.443572e-06	6.742916e-10	1.702189e+01	4.525436e+01
2.390000e-06	2.485421e-06	6.822388e-10	1.731341e+01	4.595924e+01
2.400000e-06	2.527038e-06	6.892863e-10	1.760331e+01	4.664823e+01
2.410000e-06	2.568256e-06	6.971222e-10	1.789044e+01	4.732149e+01
2.420000e-06	2.609061e-06	7.077561e-10	1.817468e+01	4.797916e+01
2.430000e-06	2.649660e-06	7.199794e-10	1.845750e+01	4.862143e+01
2.440000e-06	2.690050e-06	7.315393e-10	1.873885e+01	4.924846e+01
2.450000e-06	2.730154e-06	7.391525e-10	1.901822e+01	4.986044e+01
2.460000e-06	2.770079e-06	7.502018e-10	1.929633e+01	5.045756e+01
2.470000e-06	2.809932e-06	7.615497e-10	1.957395e+01	5.104000e+01
2.480000e-06	2.849718e-06	7.692123e-10	1.985110e+01	5.160794e+01
2.490000e-06	2.889384e-06	7.749839e-10	2.012741e+01	5.216159e+01
2.500000e-06	2.928907e-06	7.806681e-10	2.040273e+01	5.270113e+01
2.510000e-06	2.968253e-06	7.876021e-10	2.067681e+01	5.322676e+01
2.520000e-06	3.007410e-06	7.945913e-10	2.094958e+01	5.373867e+01
2.530000e-06	3.046408e-06	8.024836e-10	2.122124e+01	5.423704e+01
2.540000e-06	3.085140e-06	8.114372e-10	2.149105e+01	5.472208e+01
2.550000e-06	3.123548e-06	8.189411e-10	2.175860e+01	5.519396e+01
2.560000e-06	3.161751e-06	8.274693e-10	2.202472e+01	5.565289e+01
2.570000e-06	3.199795e-06	8.344986e-10	2.228973e+01	5.609905e+01
2.580000e-06	3.237658e-06	8.383260e-10	2.255349e+01	5.653263e+01
2.590000e-06	3.275297e-06	8.417514e-10	2.281568e+01	5.695383e+01
2.600000e-06	3.312750e-06	8.460019e-10	2.307657e+01	5.736285e+01
2.610000e-06	3.349973e-06	8.504392e-10	2.333587e+01	5.775987e+01
2.620000e-06	3.386817e-06	8.516136e-10	2.359253e+01	5.814510e+01
2.630000e-06	3.423338e-06	8.540991e-10	2.384693e+01	5.851874e+01
2.640000e-06	3.459688e-06	8.574463e-10	2.410014e+01	5.888100e+01
2.650000e-06	3.495891e-06	8.614844e-10	2.435234e+01	5.923209e+01
2.660000e-06	3.531951e-06	8.655374e-10	2.460352e+01	5.957221e+01
2.670000e-06	3.567860e-06	8.698681e-10	2.485367e+01	5.990159e+01
2.680000e-06	3.603627e-06	8.753150e-10	2.510282e+01	6.022047e+01
2.690000e-06	3.639241e-06	8.813904e-10	2.535091e+01	6.052905e+01
2.700000e-06	3.674661e-06	8.854981e-10	2.559764e+01	6.082759e+01
2.710000e-06	3.709844e-06	8.888693e-10	2.584273e+01	6.111633e+01
2.720000e-06	3.744683e-06	8.911878e-10	2.608542e+01	6.139551e+01
2.730000e-06	3.779085e-06	8.935957e-10	2.632506e+01	6.166538e+01
2.740000e-06	3.813051e-06	8.957868e-10	2.656166e+01	6.192621e+01
2.750000e-06	3.846659e-06	9.000968e-10	2.679578e+01	6.217825e+01
2.760000e-06	3.879822e-06	9.060787e-10	2.702679e+01	6.242179e+01
2.770000e-06	3.912559e-06	9.117543e-10	2.725483e+01	6.265708e+01
2.780000e-06	3.945001e-06	9.150152e-10	2.748083e+01	6.288440e+01
2.790000e-06	3.977167e-06	9.150743e-10	2.770489e+01	6.310403e+01
2.800000e-06	4.009132e-06	9.147952e-10	2.792756e+01	6.331624e+01
2.810000e-06	4.040894e-06	9.142957e-10	2.814882e+01	6.352133e+01
2.820000e-06	4.072420e-06	9.182110e-10	2.836842e+01	6.371955e+01
2.830000e-06	4.103694e-06	9.253401e-10	2.858628e+01	6.391120e+01
2.840000e-06	4.134662e-06	9.333948e-10	2.880200e+01	6.409653e+01
2.850000e-06	4.165354e-06	9.420766e-10	2.901580e+01	6.427583e+01
2.860000e-06	4.195861e-06	9.461454e-10	2.922831e+01	6.444935e+01
2.870000e-06	4.226113e-06	9.435012e-10	2.943905e+01	6.461735e+01
2.880000e-06	4.256005e-06	9.408945e-10	2.964728e+01	6.478008e+01
2.890000e-06	4.285518e-06	9.420310e-10	2.985287e+01	6.493778e+01
2.900000e-06	4.314714e-06	9.472350e-10	3.005625e+01	6.509068e+01
