# Temperatura_=_14.8
# Concentracion g/m^3_=_1620.0
# C_Vs_to_Am_M_A/Vsm_=_65563218390.804596
# pendiente_HvsI_1/m_=_3716.3
# ordenada_HvsI_A/m_=_1297.0
# frecuencia_Hz_=_135103.40971278498

Tiempo_(s)	Campo_(V.s)	Magnetizacion_(V.s)	Campo_(kA/m)	Magnetizacion_(A/m)
0.000000e+00	-5.505138e-06	-1.573960e-09	-3.837036e+01	-1.014994e+02
1.000000e-08	-5.505296e-06	-1.570207e-09	-3.837145e+01	-1.014797e+02
2.000000e-08	-5.505206e-06	-1.569242e-09	-3.837083e+01	-1.014549e+02
3.000000e-08	-5.504881e-06	-1.570028e-09	-3.836856e+01	-1.014252e+02
4.000000e-08	-5.504177e-06	-1.570101e-09	-3.836365e+01	-1.013905e+02
5.000000e-08	-5.502928e-06	-1.562021e-09	-3.835495e+01	-1.013507e+02
6.000000e-08	-5.501044e-06	-1.549398e-09	-3.834182e+01	-1.013060e+02
7.000000e-08	-5.498516e-06	-1.558344e-09	-3.832420e+01	-1.012563e+02
8.000000e-08	-5.495490e-06	-1.582604e-09	-3.830310e+01	-1.012016e+02
9.000000e-08	-5.491964e-06	-1.614441e-09	-3.827853e+01	-1.011420e+02
1.000000e-07	-5.487957e-06	-1.638593e-09	-3.825060e+01	-1.010775e+02
1.100000e-07	-5.483661e-06	-1.604600e-09	-3.822066e+01	-1.010083e+02
1.200000e-07	-5.479150e-06	-1.485147e-09	-3.818922e+01	-1.009342e+02
1.300000e-07	-5.474438e-06	-1.484823e-09	-3.815638e+01	-1.008554e+02
1.400000e-07	-5.469413e-06	-1.547289e-09	-3.812135e+01	-1.007720e+02
1.500000e-07	-5.463983e-06	-1.587571e-09	-3.808351e+01	-1.006841e+02
1.600000e-07	-5.458113e-06	-1.501783e-09	-3.804259e+01	-1.005917e+02
1.700000e-07	-5.451781e-06	-1.506932e-09	-3.799846e+01	-1.004949e+02
1.800000e-07	-5.445016e-06	-1.613496e-09	-3.795131e+01	-1.003939e+02
1.900000e-07	-5.437826e-06	-1.623700e-09	-3.790119e+01	-1.002886e+02
2.000000e-07	-5.430338e-06	-1.503039e-09	-3.784901e+01	-1.001793e+02
2.100000e-07	-5.422682e-06	-1.432839e-09	-3.779564e+01	-1.000659e+02
2.200000e-07	-5.414810e-06	-1.509709e-09	-3.774077e+01	-9.994857e+01
2.300000e-07	-5.406651e-06	-1.545089e-09	-3.768391e+01	-9.982740e+01
2.400000e-07	-5.398096e-06	-1.510876e-09	-3.762428e+01	-9.970245e+01
2.500000e-07	-5.388976e-06	-1.472550e-09	-3.756071e+01	-9.957379e+01
2.600000e-07	-5.379184e-06	-1.509316e-09	-3.749246e+01	-9.944147e+01
2.700000e-07	-5.368700e-06	-1.495797e-09	-3.741939e+01	-9.930555e+01
2.800000e-07	-5.357666e-06	-1.475802e-09	-3.734248e+01	-9.916607e+01
2.900000e-07	-5.346216e-06	-1.471334e-09	-3.726268e+01	-9.902305e+01
3.000000e-07	-5.334372e-06	-1.507836e-09	-3.718013e+01	-9.887651e+01
3.100000e-07	-5.322125e-06	-1.495037e-09	-3.709477e+01	-9.872645e+01
3.200000e-07	-5.309460e-06	-1.492405e-09	-3.700650e+01	-9.857286e+01
3.300000e-07	-5.296417e-06	-1.480003e-09	-3.691558e+01	-9.841572e+01
3.400000e-07	-5.283065e-06	-1.488248e-09	-3.682252e+01	-9.825499e+01
3.500000e-07	-5.269339e-06	-1.491148e-09	-3.672685e+01	-9.809060e+01
3.600000e-07	-5.255122e-06	-1.489734e-09	-3.662776e+01	-9.792250e+01
3.700000e-07	-5.240398e-06	-1.460140e-09	-3.652514e+01	-9.775059e+01
3.800000e-07	-5.225222e-06	-1.477735e-09	-3.641936e+01	-9.757479e+01
3.900000e-07	-5.209500e-06	-1.495894e-09	-3.630978e+01	-9.739497e+01
4.000000e-07	-5.193255e-06	-1.465582e-09	-3.619656e+01	-9.721103e+01
4.100000e-07	-5.176612e-06	-1.453953e-09	-3.608056e+01	-9.702281e+01
4.200000e-07	-5.159631e-06	-1.488473e-09	-3.596220e+01	-9.683018e+01
4.300000e-07	-5.142436e-06	-1.467725e-09	-3.584235e+01	-9.663298e+01
4.400000e-07	-5.125030e-06	-1.425733e-09	-3.572103e+01	-9.643104e+01
4.500000e-07	-5.107224e-06	-1.478234e-09	-3.559692e+01	-9.622420e+01
4.600000e-07	-5.088898e-06	-1.488645e-09	-3.546919e+01	-9.601229e+01
4.700000e-07	-5.070105e-06	-1.419215e-09	-3.533821e+01	-9.579511e+01
4.800000e-07	-5.050939e-06	-1.425150e-09	-3.520463e+01	-9.557250e+01
4.900000e-07	-5.031505e-06	-1.489478e-09	-3.506917e+01	-9.534428e+01
5.000000e-07	-5.011824e-06	-1.437634e-09	-3.493200e+01	-9.511026e+01
5.100000e-07	-4.991908e-06	-1.406898e-09	-3.479319e+01	-9.487028e+01
5.200000e-07	-4.971764e-06	-1.450765e-09	-3.465278e+01	-9.462416e+01
5.300000e-07	-4.951335e-06	-1.435199e-09	-3.451039e+01	-9.437176e+01
5.400000e-07	-4.930627e-06	-1.385009e-09	-3.436606e+01	-9.411291e+01
5.500000e-07	-4.909490e-06	-1.438937e-09	-3.421873e+01	-9.384747e+01
5.600000e-07	-4.887895e-06	-1.436063e-09	-3.406822e+01	-9.357534e+01
5.700000e-07	-4.866046e-06	-1.366470e-09	-3.391593e+01	-9.329638e+01
5.800000e-07	-4.843822e-06	-1.384617e-09	-3.376104e+01	-9.301052e+01
5.900000e-07	-4.821227e-06	-1.432228e-09	-3.360355e+01	-9.271766e+01
6.000000e-07	-4.798332e-06	-1.376080e-09	-3.344398e+01	-9.241775e+01
6.100000e-07	-4.775081e-06	-1.365631e-09	-3.328192e+01	-9.211075e+01
6.200000e-07	-4.751539e-06	-1.405255e-09	-3.311783e+01	-9.179664e+01
6.300000e-07	-4.727779e-06	-1.374410e-09	-3.295222e+01	-9.147542e+01
6.400000e-07	-4.703833e-06	-1.337379e-09	-3.278532e+01	-9.114712e+01
6.500000e-07	-4.679673e-06	-1.372996e-09	-3.261693e+01	-9.081176e+01
6.600000e-07	-4.655133e-06	-1.368409e-09	-3.244589e+01	-9.046942e+01
6.700000e-07	-4.630155e-06	-1.336911e-09	-3.227179e+01	-9.012018e+01
6.800000e-07	-4.604682e-06	-1.355303e-09	-3.209425e+01	-8.976414e+01
6.900000e-07	-4.578593e-06	-1.360706e-09	-3.191241e+01	-8.940142e+01
7.000000e-07	-4.551897e-06	-1.326020e-09	-3.172634e+01	-8.903217e+01
7.100000e-07	-4.524751e-06	-1.324955e-09	-3.153714e+01	-8.865654e+01
7.200000e-07	-4.497336e-06	-1.335101e-09	-3.134606e+01	-8.827470e+01
7.300000e-07	-4.469692e-06	-1.310231e-09	-3.115338e+01	-8.788685e+01
7.400000e-07	-4.441861e-06	-1.304023e-09	-3.095940e+01	-8.749318e+01
7.500000e-07	-4.413838e-06	-1.316125e-09	-3.076408e+01	-8.709391e+01
7.600000e-07	-4.385594e-06	-1.305426e-09	-3.056722e+01	-8.668925e+01
7.700000e-07	-4.357037e-06	-1.287746e-09	-3.036818e+01	-8.627943e+01
7.800000e-07	-4.328161e-06	-1.292376e-09	-3.016692e+01	-8.586468e+01
7.900000e-07	-4.299022e-06	-1.282890e-09	-2.996382e+01	-8.544523e+01
8.000000e-07	-4.269561e-06	-1.269294e-09	-2.975848e+01	-8.502132e+01
8.100000e-07	-4.239785e-06	-1.265812e-09	-2.955095e+01	-8.459318e+01
8.200000e-07	-4.209782e-06	-1.260341e-09	-2.934183e+01	-8.416103e+01
8.300000e-07	-4.179503e-06	-1.239662e-09	-2.913079e+01	-8.372510e+01
8.400000e-07	-4.148839e-06	-1.236246e-09	-2.891706e+01	-8.328559e+01
8.500000e-07	-4.117726e-06	-1.233203e-09	-2.870021e+01	-8.284270e+01
8.600000e-07	-4.086294e-06	-1.220980e-09	-2.848113e+01	-8.239663e+01
8.700000e-07	-4.054800e-06	-1.211286e-09	-2.826162e+01	-8.194754e+01
8.800000e-07	-4.023200e-06	-1.212319e-09	-2.804137e+01	-8.149559e+01
8.900000e-07	-3.991391e-06	-1.199780e-09	-2.781966e+01	-8.104093e+01
9.000000e-07	-3.959376e-06	-1.187788e-09	-2.759652e+01	-8.058367e+01
9.100000e-07	-3.927132e-06	-1.183738e-09	-2.737178e+01	-8.012392e+01
9.200000e-07	-3.894555e-06	-1.178888e-09	-2.714473e+01	-7.966175e+01
9.300000e-07	-3.861613e-06	-1.168484e-09	-2.691512e+01	-7.919722e+01
9.400000e-07	-3.828274e-06	-1.169597e-09	-2.668275e+01	-7.873038e+01
9.500000e-07	-3.794434e-06	-1.167271e-09	-2.644689e+01	-7.826123e+01
9.600000e-07	-3.760049e-06	-1.152162e-09	-2.620723e+01	-7.778976e+01
9.700000e-07	-3.725184e-06	-1.138853e-09	-2.596422e+01	-7.731596e+01
9.800000e-07	-3.690016e-06	-1.132019e-09	-2.571911e+01	-7.683977e+01
9.900000e-07	-3.654634e-06	-1.120573e-09	-2.547250e+01	-7.636112e+01
1.000000e-06	-3.619041e-06	-1.111720e-09	-2.522441e+01	-7.587992e+01
1.010000e-06	-3.583294e-06	-1.111289e-09	-2.497526e+01	-7.539607e+01
1.020000e-06	-3.547446e-06	-1.106448e-09	-2.472541e+01	-7.490944e+01
1.030000e-06	-3.511467e-06	-1.098268e-09	-2.447463e+01	-7.441988e+01
1.040000e-06	-3.475338e-06	-1.092158e-09	-2.422281e+01	-7.392726e+01
1.050000e-06	-3.438981e-06	-1.083503e-09	-2.396941e+01	-7.343140e+01
1.060000e-06	-3.402368e-06	-1.067318e-09	-2.371422e+01	-7.293213e+01
1.070000e-06	-3.365586e-06	-1.057662e-09	-2.345786e+01	-7.242927e+01
1.080000e-06	-3.328512e-06	-1.051776e-09	-2.319945e+01	-7.192262e+01
1.090000e-06	-3.291118e-06	-1.045768e-09	-2.293882e+01	-7.141200e+01
1.100000e-06	-3.253514e-06	-1.039286e-09	-2.267672e+01	-7.089721e+01
1.110000e-06	-3.215708e-06	-1.035553e-09	-2.241321e+01	-7.037805e+01
1.120000e-06	-3.177670e-06	-1.025250e-09	-2.214810e+01	-6.985434e+01
1.130000e-06	-3.139335e-06	-1.014052e-09	-2.188091e+01	-6.932589e+01
1.140000e-06	-3.100785e-06	-1.004268e-09	-2.161221e+01	-6.879251e+01
1.150000e-06	-3.062100e-06	-9.941559e-10	-2.134258e+01	-6.825403e+01
1.160000e-06	-3.023187e-06	-9.801109e-10	-2.107136e+01	-6.771028e+01
1.170000e-06	-2.984025e-06	-9.725392e-10	-2.079841e+01	-6.716112e+01
1.180000e-06	-2.944692e-06	-9.682004e-10	-2.052425e+01	-6.660638e+01
1.190000e-06	-2.905227e-06	-9.635057e-10	-2.024919e+01	-6.604595e+01
1.200000e-06	-2.865610e-06	-9.560088e-10	-1.997306e+01	-6.547970e+01
1.210000e-06	-2.825860e-06	-9.476219e-10	-1.969601e+01	-6.490753e+01
1.220000e-06	-2.786027e-06	-9.357843e-10	-1.941838e+01	-6.432935e+01
1.230000e-06	-2.746114e-06	-9.236870e-10	-1.914019e+01	-6.374506e+01
1.240000e-06	-2.706073e-06	-9.127116e-10	-1.886111e+01	-6.315462e+01
1.250000e-06	-2.665832e-06	-9.030156e-10	-1.858063e+01	-6.255796e+01
1.260000e-06	-2.625351e-06	-8.939516e-10	-1.829848e+01	-6.195505e+01
1.270000e-06	-2.584598e-06	-8.854473e-10	-1.801443e+01	-6.134584e+01
1.280000e-06	-2.543482e-06	-8.776117e-10	-1.772786e+01	-6.073033e+01
1.290000e-06	-2.502071e-06	-8.684680e-10	-1.743923e+01	-6.010849e+01
1.300000e-06	-2.460412e-06	-8.562108e-10	-1.714886e+01	-5.948031e+01
1.310000e-06	-2.418356e-06	-8.418535e-10	-1.685574e+01	-5.884580e+01
1.320000e-06	-2.375972e-06	-8.289857e-10	-1.656032e+01	-5.820494e+01
1.330000e-06	-2.333407e-06	-8.182153e-10	-1.626365e+01	-5.755773e+01
1.340000e-06	-2.290670e-06	-8.102814e-10	-1.596578e+01	-5.690416e+01
1.350000e-06	-2.247682e-06	-8.033117e-10	-1.566615e+01	-5.624423e+01
1.360000e-06	-2.204455e-06	-7.944795e-10	-1.536486e+01	-5.557791e+01
1.370000e-06	-2.161048e-06	-7.832067e-10	-1.506233e+01	-5.490517e+01
1.380000e-06	-2.117484e-06	-7.731562e-10	-1.475869e+01	-5.422596e+01
1.390000e-06	-2.073813e-06	-7.620083e-10	-1.445430e+01	-5.354024e+01
1.400000e-06	-2.030082e-06	-7.507882e-10	-1.414950e+01	-5.284791e+01
1.410000e-06	-1.986305e-06	-7.393692e-10	-1.384438e+01	-5.214890e+01
1.420000e-06	-1.942475e-06	-7.296887e-10	-1.353889e+01	-5.144307e+01
1.430000e-06	-1.898592e-06	-7.190506e-10	-1.323303e+01	-5.073028e+01
1.440000e-06	-1.854636e-06	-7.078652e-10	-1.292666e+01	-5.001038e+01
1.450000e-06	-1.810562e-06	-6.956737e-10	-1.261947e+01	-4.928315e+01
1.460000e-06	-1.766387e-06	-6.837096e-10	-1.231157e+01	-4.854839e+01
1.470000e-06	-1.722162e-06	-6.694057e-10	-1.200333e+01	-4.780584e+01
1.480000e-06	-1.677812e-06	-6.533635e-10	-1.169421e+01	-4.705522e+01
1.490000e-06	-1.633217e-06	-6.383625e-10	-1.138338e+01	-4.629621e+01
1.500000e-06	-1.588396e-06	-6.259993e-10	-1.107099e+01	-4.552848e+01
1.510000e-06	-1.543413e-06	-6.167871e-10	-1.075746e+01	-4.475165e+01
1.520000e-06	-1.498325e-06	-6.092922e-10	-1.044320e+01	-4.396533e+01
1.530000e-06	-1.453133e-06	-5.985310e-10	-1.012822e+01	-4.316910e+01
1.540000e-06	-1.407793e-06	-5.836612e-10	-9.812200e+00	-4.236249e+01
1.550000e-06	-1.362449e-06	-5.661862e-10	-9.496159e+00	-4.154505e+01
1.560000e-06	-1.317065e-06	-5.492062e-10	-9.179836e+00	-4.071626e+01
1.570000e-06	-1.271521e-06	-5.348718e-10	-8.862399e+00	-3.987563e+01
1.580000e-06	-1.225900e-06	-5.241800e-10	-8.544418e+00	-3.902262e+01
1.590000e-06	-1.180302e-06	-5.155796e-10	-8.226608e+00	-3.815669e+01
1.600000e-06	-1.134716e-06	-5.064974e-10	-7.908876e+00	-3.727729e+01
1.610000e-06	-1.088993e-06	-4.939614e-10	-7.590192e+00	-3.638388e+01
1.620000e-06	-1.043072e-06	-4.788198e-10	-7.270123e+00	-3.547589e+01
1.630000e-06	-9.971015e-07	-4.653143e-10	-6.949714e+00	-3.455279e+01
1.640000e-06	-9.510707e-07	-4.510292e-10	-6.628883e+00	-3.361403e+01
1.650000e-06	-9.049444e-07	-4.355117e-10	-6.307387e+00	-3.265909e+01
1.660000e-06	-8.588044e-07	-4.203716e-10	-5.985795e+00	-3.168747e+01
1.670000e-06	-8.126113e-07	-4.062384e-10	-5.663833e+00	-3.069868e+01
1.680000e-06	-7.663652e-07	-3.913339e-10	-5.341502e+00	-2.969227e+01
1.690000e-06	-7.201217e-07	-3.765600e-10	-5.019188e+00	-2.866783e+01
1.700000e-06	-6.739369e-07	-3.624097e-10	-4.697284e+00	-2.762497e+01
1.710000e-06	-6.277877e-07	-3.468151e-10	-4.375628e+00	-2.656335e+01
1.720000e-06	-5.815211e-07	-3.283795e-10	-4.053153e+00	-2.548270e+01
1.730000e-06	-5.350551e-07	-3.093312e-10	-3.729290e+00	-2.438276e+01
1.740000e-06	-4.885621e-07	-2.889611e-10	-3.405237e+00	-2.326335e+01
1.750000e-06	-4.420870e-07	-2.687773e-10	-3.081310e+00	-2.212437e+01
1.760000e-06	-3.955420e-07	-2.514023e-10	-2.756895e+00	-2.096573e+01
1.770000e-06	-3.488972e-07	-2.375132e-10	-2.431784e+00	-1.978747e+01
1.780000e-06	-3.022021e-07	-2.229783e-10	-2.106324e+00	-1.858964e+01
1.790000e-06	-2.554816e-07	-2.062146e-10	-1.780685e+00	-1.737241e+01
1.800000e-06	-2.087831e-07	-1.878136e-10	-1.455201e+00	-1.613598e+01
1.810000e-06	-1.621416e-07	-1.681229e-10	-1.130113e+00	-1.488067e+01
1.820000e-06	-1.154670e-07	-1.495875e-10	-8.047951e-01	-1.360682e+01
1.830000e-06	-6.879031e-08	-1.341130e-10	-4.794628e-01	-1.231491e+01
1.840000e-06	-2.208843e-08	-1.195183e-10	-1.539545e-01	-1.100543e+01
1.850000e-06	2.471716e-08	-1.022319e-10	1.722766e-01	-9.678998e+00
1.860000e-06	7.148872e-08	-8.521813e-11	4.982704e-01	-8.336274e+00
1.870000e-06	1.180960e-07	-6.908953e-11	8.231196e-01	-6.978000e+00
1.880000e-06	1.646821e-07	-4.961941e-11	1.147820e+00	-5.604988e+00
1.890000e-06	2.113566e-07	-2.772697e-11	1.473138e+00	-4.218113e+00
1.900000e-06	2.580621e-07	-6.377449e-12	1.798672e+00	-2.818316e+00
1.910000e-06	3.047708e-07	1.399446e-11	2.124227e+00	-1.406596e+00
1.920000e-06	3.514421e-07	3.281172e-11	2.449522e+00	1.598997e-02
1.930000e-06	3.980335e-07	5.076874e-11	2.774260e+00	1.448337e+00
1.940000e-06	4.445860e-07	7.056081e-11	3.098727e+00	2.889293e+00
1.950000e-06	4.910751e-07	9.185148e-11	3.422753e+00	4.337664e+00
1.960000e-06	5.374358e-07	1.126046e-10	3.745883e+00	5.792221e+00
1.970000e-06	5.837238e-07	1.331435e-10	4.068506e+00	7.251706e+00
1.980000e-06	6.300173e-07	1.532253e-10	4.391168e+00	8.714838e+00
1.990000e-06	6.763341e-07	1.731226e-10	4.713992e+00	1.018031e+01
2.000000e-06	7.226415e-07	1.913748e-10	5.036751e+00	1.164683e+01
2.010000e-06	7.688515e-07	2.103456e-10	5.358831e+00	1.311306e+01
2.020000e-06	8.149406e-07	2.316375e-10	5.680068e+00	1.457769e+01
2.030000e-06	8.609929e-07	2.547927e-10	6.001049e+00	1.603942e+01
2.040000e-06	9.070788e-07	2.773873e-10	6.322264e+00	1.749695e+01
2.050000e-06	9.531812e-07	2.984190e-10	6.643594e+00	1.894900e+01
2.060000e-06	9.992071e-07	3.186809e-10	6.964390e+00	2.039433e+01
2.070000e-06	1.045107e-06	3.386627e-10	7.284309e+00	2.183172e+01
2.080000e-06	1.090911e-06	3.582045e-10	7.603558e+00	2.325998e+01
2.090000e-06	1.136640e-06	3.779813e-10	7.922286e+00	2.467797e+01
2.100000e-06	1.182295e-06	3.996458e-10	8.240497e+00	2.608460e+01
2.110000e-06	1.227882e-06	4.207823e-10	8.558238e+00	2.747883e+01
2.120000e-06	1.273409e-06	4.398978e-10	8.875558e+00	2.885965e+01
2.130000e-06	1.318808e-06	4.592460e-10	9.191984e+00	3.022615e+01
2.140000e-06	1.364014e-06	4.783418e-10	9.507062e+00	3.157746e+01
2.150000e-06	1.409188e-06	4.954477e-10	9.821921e+00	3.291275e+01
2.160000e-06	1.454317e-06	5.127409e-10	1.013647e+01	3.423131e+01
2.170000e-06	1.499296e-06	5.301913e-10	1.044997e+01	3.553244e+01
2.180000e-06	1.544122e-06	5.488368e-10	1.076240e+01	3.681555e+01
2.190000e-06	1.588762e-06	5.678581e-10	1.107354e+01	3.808010e+01
2.200000e-06	1.633285e-06	5.856936e-10	1.138386e+01	3.932564e+01
2.210000e-06	1.677680e-06	6.021641e-10	1.169329e+01	4.055176e+01
2.220000e-06	1.721949e-06	6.174590e-10	1.200184e+01	4.175815e+01
2.230000e-06	1.766122e-06	6.336653e-10	1.230973e+01	4.294454e+01
2.240000e-06	1.810213e-06	6.489850e-10	1.261703e+01	4.411074e+01
2.250000e-06	1.854200e-06	6.638211e-10	1.292362e+01	4.525664e+01
2.260000e-06	1.898109e-06	6.786510e-10	1.322966e+01	4.638217e+01
2.270000e-06	1.941965e-06	6.959542e-10	1.353533e+01	4.748733e+01
2.280000e-06	1.985766e-06	7.158174e-10	1.384062e+01	4.857216e+01
2.290000e-06	2.029579e-06	7.332288e-10	1.414600e+01	4.963679e+01
2.300000e-06	2.073352e-06	7.482912e-10	1.445109e+01	5.068137e+01
2.310000e-06	2.117014e-06	7.613043e-10	1.475541e+01	5.170611e+01
2.320000e-06	2.160612e-06	7.735780e-10	1.505929e+01	5.271125e+01
2.330000e-06	2.203995e-06	7.863116e-10	1.536166e+01	5.369709e+01
2.340000e-06	2.247093e-06	7.995459e-10	1.566205e+01	5.466394e+01
2.350000e-06	2.290044e-06	8.160201e-10	1.596142e+01	5.561216e+01
2.360000e-06	2.332819e-06	8.351484e-10	1.625955e+01	5.654213e+01
2.370000e-06	2.375340e-06	8.517314e-10	1.655592e+01	5.745425e+01
2.380000e-06	2.417514e-06	8.643537e-10	1.684987e+01	5.834895e+01
2.390000e-06	2.459367e-06	8.744997e-10	1.714158e+01	5.922665e+01
2.400000e-06	2.500839e-06	8.833522e-10	1.743064e+01	6.008781e+01
2.410000e-06	2.541977e-06	8.929994e-10	1.771737e+01	6.093288e+01
2.420000e-06	2.582890e-06	9.055951e-10	1.800253e+01	6.176231e+01
2.430000e-06	2.623487e-06	9.205428e-10	1.828548e+01	6.257657e+01
2.440000e-06	2.663867e-06	9.350990e-10	1.856693e+01	6.337610e+01
2.450000e-06	2.704051e-06	9.467081e-10	1.884701e+01	6.416135e+01
2.460000e-06	2.744110e-06	9.574463e-10	1.912622e+01	6.493276e+01
2.470000e-06	2.784115e-06	9.683076e-10	1.940505e+01	6.569076e+01
2.480000e-06	2.824000e-06	9.778196e-10	1.968304e+01	6.643576e+01
2.490000e-06	2.863791e-06	9.867805e-10	1.996038e+01	6.716816e+01
2.500000e-06	2.903473e-06	9.955787e-10	2.023697e+01	6.788833e+01
2.510000e-06	2.942954e-06	1.005091e-09	2.051214e+01	6.859665e+01
2.520000e-06	2.982217e-06	1.017289e-09	2.078580e+01	6.929346e+01
2.530000e-06	3.021265e-06	1.030958e-09	2.105796e+01	6.997908e+01
2.540000e-06	3.060121e-06	1.041965e-09	2.132879e+01	7.065381e+01
2.550000e-06	3.098691e-06	1.049532e-09	2.159762e+01	7.131794e+01
2.560000e-06	3.136971e-06	1.058324e-09	2.186443e+01	7.197173e+01
2.570000e-06	3.175088e-06	1.068680e-09	2.213010e+01	7.261542e+01
2.580000e-06	3.213010e-06	1.077713e-09	2.239441e+01	7.324923e+01
2.590000e-06	3.250753e-06	1.086943e-09	2.265748e+01	7.387337e+01
2.600000e-06	3.288351e-06	1.097291e-09	2.291953e+01	7.448802e+01
2.610000e-06	3.325688e-06	1.106233e-09	2.317977e+01	7.509335e+01
2.620000e-06	3.362726e-06	1.111445e-09	2.343792e+01	7.568950e+01
2.630000e-06	3.399564e-06	1.115615e-09	2.369468e+01	7.627662e+01
2.640000e-06	3.436186e-06	1.122341e-09	2.394993e+01	7.685481e+01
2.650000e-06	3.472545e-06	1.130407e-09	2.420335e+01	7.742419e+01
2.660000e-06	3.508646e-06	1.139192e-09	2.445497e+01	7.798486e+01
2.670000e-06	3.544589e-06	1.148421e-09	2.470549e+01	7.853689e+01
2.680000e-06	3.580423e-06	1.156602e-09	2.495525e+01	7.908038e+01
2.690000e-06	3.616154e-06	1.163755e-09	2.520429e+01	7.961538e+01
2.700000e-06	3.651763e-06	1.171120e-09	2.545248e+01	8.014196e+01
2.710000e-06	3.687195e-06	1.178225e-09	2.569944e+01	8.066019e+01
2.720000e-06	3.722248e-06	1.185329e-09	2.594376e+01	8.117012e+01
2.730000e-06	3.756875e-06	1.192715e-09	2.618511e+01	8.167181e+01
2.740000e-06	3.791168e-06	1.199421e-09	2.642412e+01	8.216530e+01
2.750000e-06	3.824999e-06	1.205200e-09	2.665992e+01	8.265065e+01
2.760000e-06	3.858323e-06	1.211206e-09	2.689219e+01	8.312793e+01
2.770000e-06	3.891169e-06	1.218509e-09	2.712113e+01	8.359717e+01
2.780000e-06	3.923659e-06	1.225990e-09	2.734758e+01	8.405845e+01
2.790000e-06	3.955870e-06	1.232764e-09	2.757208e+01	8.451182e+01
2.800000e-06	3.987835e-06	1.238650e-09	2.779488e+01	8.495735e+01
2.810000e-06	4.019668e-06	1.244305e-09	2.801675e+01	8.539510e+01
2.820000e-06	4.051382e-06	1.249283e-09	2.823780e+01	8.582515e+01
2.830000e-06	4.082897e-06	1.254965e-09	2.845745e+01	8.624757e+01
2.840000e-06	4.114216e-06	1.262863e-09	2.867574e+01	8.666243e+01
2.850000e-06	4.145270e-06	1.273318e-09	2.889218e+01	8.706983e+01
2.860000e-06	4.175921e-06	1.282573e-09	2.910582e+01	8.746984e+01
2.870000e-06	4.206215e-06	1.288383e-09	2.931697e+01	8.786256e+01
2.880000e-06	4.236260e-06	1.293383e-09	2.952638e+01	8.824807e+01
2.890000e-06	4.266101e-06	1.298000e-09	2.973437e+01	8.862647e+01
2.900000e-06	4.295664e-06	1.303945e-09	2.994042e+01	8.899784e+01
2.910000e-06	4.324880e-06	1.308055e-09	3.014405e+01	8.936230e+01
