# Temperatura_=_-1.9
# Concentracion g/m^3_=_1620.0
# C_Vs_to_Am_M_A/Vsm_=_65563218390.804596
# pendiente_HvsI_1/m_=_3716.3
# ordenada_HvsI_A/m_=_1297.0
# frecuencia_Hz_=_135108.5435843726

Tiempo_(s)	Campo_(V.s)	Magnetizacion_(V.s)	Campo_(kA/m)	Magnetizacion_(A/m)
0.000000e+00	-5.503084e-06	-9.315051e-10	-3.836359e+01	-6.172190e+01
1.000000e-08	-5.503323e-06	-9.318143e-10	-3.836526e+01	-6.172188e+01
2.000000e-08	-5.503336e-06	-9.340333e-10	-3.836535e+01	-6.172109e+01
3.000000e-08	-5.503053e-06	-9.389341e-10	-3.836338e+01	-6.171912e+01
4.000000e-08	-5.502391e-06	-9.386943e-10	-3.835876e+01	-6.171558e+01
5.000000e-08	-5.501109e-06	-9.274741e-10	-3.834982e+01	-6.171009e+01
6.000000e-08	-5.499102e-06	-9.114082e-10	-3.833583e+01	-6.170224e+01
7.000000e-08	-5.496516e-06	-9.146404e-10	-3.831780e+01	-6.169169e+01
8.000000e-08	-5.493378e-06	-9.413672e-10	-3.829592e+01	-6.167806e+01
9.000000e-08	-5.489747e-06	-1.002784e-09	-3.827062e+01	-6.166102e+01
1.000000e-07	-5.485715e-06	-1.063214e-09	-3.824250e+01	-6.164025e+01
1.100000e-07	-5.481324e-06	-1.002889e-09	-3.821189e+01	-6.161547e+01
1.200000e-07	-5.476765e-06	-8.442771e-10	-3.818011e+01	-6.158640e+01
1.300000e-07	-5.472117e-06	-8.475473e-10	-3.814771e+01	-6.155283e+01
1.400000e-07	-5.467109e-06	-9.700596e-10	-3.811280e+01	-6.151454e+01
1.500000e-07	-5.461628e-06	-9.858300e-10	-3.807459e+01	-6.147138e+01
1.600000e-07	-5.455676e-06	-8.517140e-10	-3.803310e+01	-6.142320e+01
1.700000e-07	-5.449310e-06	-8.676374e-10	-3.798872e+01	-6.136992e+01
1.800000e-07	-5.442565e-06	-1.048670e-09	-3.794170e+01	-6.131148e+01
1.900000e-07	-5.435425e-06	-1.082525e-09	-3.789192e+01	-6.124785e+01
2.000000e-07	-5.428021e-06	-9.084253e-10	-3.784031e+01	-6.117905e+01
2.100000e-07	-5.420393e-06	-8.241774e-10	-3.778713e+01	-6.110513e+01
2.200000e-07	-5.412506e-06	-9.433110e-10	-3.773214e+01	-6.102619e+01
2.300000e-07	-5.404312e-06	-1.025753e-09	-3.767502e+01	-6.094232e+01
2.400000e-07	-5.395716e-06	-9.690020e-10	-3.761509e+01	-6.085370e+01
2.500000e-07	-5.386548e-06	-9.116521e-10	-3.755118e+01	-6.076050e+01
2.600000e-07	-5.376644e-06	-9.437676e-10	-3.748214e+01	-6.066292e+01
2.700000e-07	-5.366018e-06	-9.313617e-10	-3.740806e+01	-6.056120e+01
2.800000e-07	-5.354839e-06	-8.697075e-10	-3.733013e+01	-6.045559e+01
2.900000e-07	-5.343265e-06	-8.640313e-10	-3.724944e+01	-6.034636e+01
3.000000e-07	-5.331362e-06	-9.140291e-10	-3.716647e+01	-6.023380e+01
3.100000e-07	-5.319136e-06	-9.006168e-10	-3.708123e+01	-6.011820e+01
3.200000e-07	-5.306510e-06	-8.678371e-10	-3.699322e+01	-5.999988e+01
3.300000e-07	-5.293432e-06	-8.685416e-10	-3.690204e+01	-5.987914e+01
3.400000e-07	-5.279950e-06	-9.017941e-10	-3.680806e+01	-5.975628e+01
3.500000e-07	-5.266152e-06	-8.901628e-10	-3.671187e+01	-5.963162e+01
3.600000e-07	-5.251950e-06	-8.567268e-10	-3.661286e+01	-5.950545e+01
3.700000e-07	-5.237247e-06	-8.561232e-10	-3.651036e+01	-5.937807e+01
3.800000e-07	-5.222087e-06	-9.040004e-10	-3.640468e+01	-5.924974e+01
3.900000e-07	-5.206329e-06	-8.960220e-10	-3.629482e+01	-5.912073e+01
4.000000e-07	-5.189962e-06	-8.501942e-10	-3.618073e+01	-5.899128e+01
4.100000e-07	-5.173313e-06	-8.756755e-10	-3.606466e+01	-5.886159e+01
4.200000e-07	-5.156422e-06	-9.061675e-10	-3.594691e+01	-5.873187e+01
4.300000e-07	-5.139111e-06	-8.475536e-10	-3.582622e+01	-5.860227e+01
4.400000e-07	-5.121444e-06	-8.432429e-10	-3.570307e+01	-5.847294e+01
4.500000e-07	-5.103410e-06	-9.309823e-10	-3.557734e+01	-5.834397e+01
4.600000e-07	-5.084930e-06	-9.027480e-10	-3.544852e+01	-5.821546e+01
4.700000e-07	-5.066054e-06	-8.180619e-10	-3.531693e+01	-5.808743e+01
4.800000e-07	-5.046897e-06	-8.745926e-10	-3.518337e+01	-5.795990e+01
4.900000e-07	-5.027520e-06	-9.238705e-10	-3.504829e+01	-5.783286e+01
5.000000e-07	-5.007941e-06	-8.450763e-10	-3.491180e+01	-5.770625e+01
5.100000e-07	-4.988182e-06	-8.454046e-10	-3.477406e+01	-5.757999e+01
5.200000e-07	-4.968176e-06	-9.060678e-10	-3.463459e+01	-5.745398e+01
5.300000e-07	-4.947787e-06	-8.571424e-10	-3.449245e+01	-5.732808e+01
5.400000e-07	-4.926983e-06	-8.351789e-10	-3.434742e+01	-5.720213e+01
5.500000e-07	-4.905856e-06	-9.126309e-10	-3.420014e+01	-5.707594e+01
5.600000e-07	-4.884328e-06	-8.744302e-10	-3.405006e+01	-5.694931e+01
5.700000e-07	-4.862394e-06	-7.972053e-10	-3.389716e+01	-5.682202e+01
5.800000e-07	-4.840095e-06	-8.610904e-10	-3.374170e+01	-5.669382e+01
5.900000e-07	-4.817451e-06	-8.984058e-10	-3.358385e+01	-5.656448e+01
6.000000e-07	-4.794559e-06	-8.255503e-10	-3.342426e+01	-5.643372e+01
6.100000e-07	-4.771367e-06	-8.404617e-10	-3.326258e+01	-5.630130e+01
6.200000e-07	-4.747900e-06	-8.852145e-10	-3.309898e+01	-5.616694e+01
6.300000e-07	-4.724231e-06	-8.319302e-10	-3.293398e+01	-5.603037e+01
6.400000e-07	-4.700334e-06	-8.123472e-10	-3.276738e+01	-5.589134e+01
6.500000e-07	-4.676115e-06	-8.616974e-10	-3.259855e+01	-5.574960e+01
6.600000e-07	-4.651487e-06	-8.400755e-10	-3.242686e+01	-5.560490e+01
6.700000e-07	-4.626445e-06	-8.118033e-10	-3.225229e+01	-5.545702e+01
6.800000e-07	-4.600976e-06	-8.464190e-10	-3.207473e+01	-5.530575e+01
6.900000e-07	-4.574868e-06	-8.436611e-10	-3.189273e+01	-5.515089e+01
7.000000e-07	-4.548140e-06	-8.083992e-10	-3.170640e+01	-5.499228e+01
7.100000e-07	-4.521049e-06	-8.255183e-10	-3.151754e+01	-5.482976e+01
7.200000e-07	-4.493698e-06	-8.333843e-10	-3.132687e+01	-5.466322e+01
7.300000e-07	-4.466138e-06	-8.060440e-10	-3.113474e+01	-5.449257e+01
7.400000e-07	-4.438399e-06	-8.140768e-10	-3.094136e+01	-5.431773e+01
7.500000e-07	-4.410499e-06	-8.303953e-10	-3.074687e+01	-5.413866e+01
7.600000e-07	-4.382285e-06	-8.103859e-10	-3.055018e+01	-5.395537e+01
7.700000e-07	-4.353730e-06	-8.009784e-10	-3.035111e+01	-5.376785e+01
7.800000e-07	-4.324917e-06	-8.094574e-10	-3.015025e+01	-5.357617e+01
7.900000e-07	-4.295816e-06	-7.977473e-10	-2.994738e+01	-5.338040e+01
8.000000e-07	-4.266384e-06	-7.915494e-10	-2.974220e+01	-5.318064e+01
8.100000e-07	-4.236648e-06	-8.014783e-10	-2.953490e+01	-5.297701e+01
8.200000e-07	-4.206578e-06	-7.938174e-10	-2.932527e+01	-5.276966e+01
8.300000e-07	-4.176148e-06	-7.804781e-10	-2.911314e+01	-5.255877e+01
8.400000e-07	-4.145439e-06	-7.890665e-10	-2.889906e+01	-5.234452e+01
8.500000e-07	-4.114489e-06	-7.830326e-10	-2.868329e+01	-5.212713e+01
8.600000e-07	-4.083273e-06	-7.640045e-10	-2.846567e+01	-5.190680e+01
8.700000e-07	-4.051840e-06	-7.646919e-10	-2.824655e+01	-5.168378e+01
8.800000e-07	-4.020279e-06	-7.704171e-10	-2.802653e+01	-5.145830e+01
8.900000e-07	-3.988581e-06	-7.610683e-10	-2.780555e+01	-5.123061e+01
9.000000e-07	-3.956716e-06	-7.607132e-10	-2.758341e+01	-5.100094e+01
9.100000e-07	-3.924511e-06	-7.640664e-10	-2.735890e+01	-5.076955e+01
9.200000e-07	-3.891897e-06	-7.519617e-10	-2.713154e+01	-5.053667e+01
9.300000e-07	-3.858962e-06	-7.436820e-10	-2.690194e+01	-5.030253e+01
9.400000e-07	-3.825536e-06	-7.514666e-10	-2.666892e+01	-5.006735e+01
9.500000e-07	-3.791487e-06	-7.488243e-10	-2.643155e+01	-4.983134e+01
9.600000e-07	-3.757043e-06	-7.371573e-10	-2.619144e+01	-4.959468e+01
9.700000e-07	-3.722316e-06	-7.363348e-10	-2.594934e+01	-4.935754e+01
9.800000e-07	-3.687245e-06	-7.356234e-10	-2.570485e+01	-4.912007e+01
9.900000e-07	-3.651931e-06	-7.265793e-10	-2.545867e+01	-4.888238e+01
1.000000e-06	-3.616488e-06	-7.245683e-10	-2.521158e+01	-4.864458e+01
1.010000e-06	-3.580936e-06	-7.238566e-10	-2.496374e+01	-4.840674e+01
1.020000e-06	-3.545225e-06	-7.145360e-10	-2.471479e+01	-4.816888e+01
1.030000e-06	-3.509330e-06	-7.062602e-10	-2.446455e+01	-4.793103e+01
1.040000e-06	-3.473235e-06	-7.046485e-10	-2.421293e+01	-4.769316e+01
1.050000e-06	-3.436877e-06	-6.981893e-10	-2.395947e+01	-4.745522e+01
1.060000e-06	-3.400222e-06	-6.888128e-10	-2.370393e+01	-4.721713e+01
1.070000e-06	-3.363285e-06	-6.855377e-10	-2.344643e+01	-4.697877e+01
1.080000e-06	-3.326121e-06	-6.816158e-10	-2.318735e+01	-4.674001e+01
1.090000e-06	-3.288757e-06	-6.757208e-10	-2.292687e+01	-4.650069e+01
1.100000e-06	-3.251162e-06	-6.732695e-10	-2.266479e+01	-4.626059e+01
1.110000e-06	-3.213339e-06	-6.698876e-10	-2.240112e+01	-4.601950e+01
1.120000e-06	-3.175296e-06	-6.609907e-10	-2.213591e+01	-4.577719e+01
1.130000e-06	-3.136959e-06	-6.558428e-10	-2.186865e+01	-4.553337e+01
1.140000e-06	-3.098429e-06	-6.537474e-10	-2.160004e+01	-4.528777e+01
1.150000e-06	-3.059778e-06	-6.469946e-10	-2.133060e+01	-4.504009e+01
1.160000e-06	-3.020927e-06	-6.398675e-10	-2.105975e+01	-4.479002e+01
1.170000e-06	-2.981812e-06	-6.362726e-10	-2.078707e+01	-4.453722e+01
1.180000e-06	-2.942494e-06	-6.326200e-10	-2.051298e+01	-4.428137e+01
1.190000e-06	-2.903051e-06	-6.299477e-10	-2.023800e+01	-4.402213e+01
1.200000e-06	-2.863483e-06	-6.270340e-10	-1.996217e+01	-4.375916e+01
1.210000e-06	-2.823832e-06	-6.223635e-10	-1.968575e+01	-4.349212e+01
1.220000e-06	-2.784088e-06	-6.157236e-10	-1.940868e+01	-4.322067e+01
1.230000e-06	-2.744185e-06	-6.114403e-10	-1.913051e+01	-4.294448e+01
1.240000e-06	-2.704027e-06	-6.063426e-10	-1.885056e+01	-4.266323e+01
1.250000e-06	-2.663665e-06	-5.995166e-10	-1.856918e+01	-4.237660e+01
1.260000e-06	-2.623120e-06	-5.946061e-10	-1.828653e+01	-4.208430e+01
1.270000e-06	-2.582221e-06	-5.908048e-10	-1.800141e+01	-4.178603e+01
1.280000e-06	-2.541024e-06	-5.868176e-10	-1.771421e+01	-4.148154e+01
1.290000e-06	-2.499676e-06	-5.832102e-10	-1.742596e+01	-4.117056e+01
1.300000e-06	-2.457989e-06	-5.780605e-10	-1.713535e+01	-4.085286e+01
1.310000e-06	-2.415903e-06	-5.712228e-10	-1.684196e+01	-4.052823e+01
1.320000e-06	-2.373586e-06	-5.648356e-10	-1.654695e+01	-4.019646e+01
1.330000e-06	-2.331026e-06	-5.582184e-10	-1.625026e+01	-3.985738e+01
1.340000e-06	-2.288185e-06	-5.520334e-10	-1.595160e+01	-3.951083e+01
1.350000e-06	-2.245084e-06	-5.482538e-10	-1.565113e+01	-3.915668e+01
1.360000e-06	-2.201770e-06	-5.437524e-10	-1.534918e+01	-3.879478e+01
1.370000e-06	-2.158336e-06	-5.387981e-10	-1.504638e+01	-3.842505e+01
1.380000e-06	-2.114836e-06	-5.368422e-10	-1.474313e+01	-3.804738e+01
1.390000e-06	-2.071295e-06	-5.365084e-10	-1.443960e+01	-3.766171e+01
1.400000e-06	-2.027728e-06	-5.328777e-10	-1.413588e+01	-3.726795e+01
1.410000e-06	-1.984070e-06	-5.269282e-10	-1.383152e+01	-3.686606e+01
1.420000e-06	-1.940301e-06	-5.217208e-10	-1.352640e+01	-3.645598e+01
1.430000e-06	-1.896413e-06	-5.165591e-10	-1.322044e+01	-3.603766e+01
1.440000e-06	-1.852415e-06	-5.122246e-10	-1.291372e+01	-3.561107e+01
1.450000e-06	-1.808359e-06	-5.081219e-10	-1.260660e+01	-3.517615e+01
1.460000e-06	-1.764254e-06	-5.021393e-10	-1.229912e+01	-3.473286e+01
1.470000e-06	-1.720040e-06	-4.931162e-10	-1.199089e+01	-3.428115e+01
1.480000e-06	-1.675626e-06	-4.831791e-10	-1.168127e+01	-3.382096e+01
1.490000e-06	-1.630969e-06	-4.751528e-10	-1.136996e+01	-3.335222e+01
1.500000e-06	-1.586206e-06	-4.699570e-10	-1.105790e+01	-3.287484e+01
1.510000e-06	-1.541357e-06	-4.653700e-10	-1.074525e+01	-3.238874e+01
1.520000e-06	-1.496373e-06	-4.596584e-10	-1.043165e+01	-3.189379e+01
1.530000e-06	-1.451348e-06	-4.527614e-10	-1.011777e+01	-3.138986e+01
1.540000e-06	-1.406216e-06	-4.452596e-10	-9.803136e+00	-3.087681e+01
1.550000e-06	-1.360955e-06	-4.366975e-10	-9.487611e+00	-3.035447e+01
1.560000e-06	-1.315561e-06	-4.277081e-10	-9.171157e+00	-2.982265e+01
1.570000e-06	-1.270082e-06	-4.191733e-10	-8.854110e+00	-2.928113e+01
1.580000e-06	-1.224556e-06	-4.107350e-10	-8.536731e+00	-2.872969e+01
1.590000e-06	-1.178920e-06	-4.014431e-10	-8.218594e+00	-2.816807e+01
1.600000e-06	-1.133161e-06	-3.915553e-10	-7.899590e+00	-2.759600e+01
1.610000e-06	-1.087347e-06	-3.796966e-10	-7.580213e+00	-2.701318e+01
1.620000e-06	-1.041524e-06	-3.683129e-10	-7.260765e+00	-2.641932e+01
1.630000e-06	-9.955611e-07	-3.613402e-10	-6.940344e+00	-2.581408e+01
1.640000e-06	-9.495580e-07	-3.565245e-10	-6.619643e+00	-2.519712e+01
1.650000e-06	-9.035604e-07	-3.487397e-10	-6.298981e+00	-2.456811e+01
1.660000e-06	-8.574942e-07	-3.387067e-10	-5.977840e+00	-2.392667e+01
1.670000e-06	-8.113782e-07	-3.261355e-10	-5.656352e+00	-2.327247e+01
1.680000e-06	-7.651830e-07	-3.112952e-10	-5.334312e+00	-2.260512e+01
1.690000e-06	-7.189567e-07	-2.995032e-10	-5.012055e+00	-2.192428e+01
1.700000e-06	-6.726822e-07	-2.900082e-10	-4.689462e+00	-2.122959e+01
1.710000e-06	-6.262905e-07	-2.811211e-10	-4.366052e+00	-2.052072e+01
1.720000e-06	-5.798570e-07	-2.722370e-10	-4.042350e+00	-1.979733e+01
1.730000e-06	-5.334675e-07	-2.614439e-10	-3.718956e+00	-1.905912e+01
1.740000e-06	-4.869585e-07	-2.487785e-10	-3.394728e+00	-1.830581e+01
1.750000e-06	-4.403127e-07	-2.350768e-10	-3.069547e+00	-1.753713e+01
1.760000e-06	-3.936564e-07	-2.223505e-10	-2.744292e+00	-1.675288e+01
1.770000e-06	-3.469478e-07	-2.117541e-10	-2.418674e+00	-1.595286e+01
1.780000e-06	-3.001998e-07	-2.017928e-10	-2.092780e+00	-1.513692e+01
1.790000e-06	-2.534464e-07	-1.902574e-10	-1.766848e+00	-1.430496e+01
1.800000e-06	-2.067319e-07	-1.751469e-10	-1.441188e+00	-1.345692e+01
1.810000e-06	-1.600651e-07	-1.602567e-10	-1.115860e+00	-1.259281e+01
1.820000e-06	-1.133611e-07	-1.456041e-10	-7.902733e-01	-1.171267e+01
1.830000e-06	-6.668700e-08	-1.341904e-10	-4.648943e-01	-1.081660e+01
1.840000e-06	-1.998640e-08	-1.257260e-10	-1.393310e-01	-9.904773e+00
1.850000e-06	2.678641e-08	-1.163988e-10	1.867358e-01	-8.977411e+00
1.860000e-06	7.356980e-08	-1.061221e-10	5.128764e-01	-8.034800e+00
1.870000e-06	1.203439e-07	-9.179064e-11	8.389518e-01	-7.077290e+00
1.880000e-06	1.670697e-07	-7.364088e-11	1.164691e+00	-6.105294e+00
1.890000e-06	2.137686e-07	-5.513393e-11	1.490243e+00	-5.119286e+00
1.900000e-06	2.604554e-07	-4.036403e-11	1.815710e+00	-4.119804e+00
1.910000e-06	3.071930e-07	-2.781293e-11	2.141531e+00	-3.107449e+00
1.920000e-06	3.539062e-07	-1.614506e-11	2.467182e+00	-2.082879e+00
1.930000e-06	4.005493e-07	-4.948192e-12	2.792345e+00	-1.046811e+00
1.940000e-06	4.470859e-07	7.240709e-12	3.116765e+00	-1.883780e-05
1.950000e-06	4.934817e-07	2.212499e-11	3.440204e+00	1.056674e+00
1.960000e-06	5.397872e-07	4.124075e-11	3.763013e+00	2.122393e+00
1.970000e-06	5.860961e-07	6.019074e-11	4.085846e+00	3.196219e+00
1.980000e-06	6.324018e-07	7.440883e-11	4.408656e+00	4.277192e+00
1.990000e-06	6.786557e-07	8.586684e-11	4.731105e+00	5.364316e+00
2.000000e-06	7.248917e-07	9.552934e-11	5.053429e+00	6.456561e+00
2.010000e-06	7.710487e-07	1.064012e-10	5.375203e+00	7.552874e+00
2.020000e-06	8.171955e-07	1.202136e-10	5.696906e+00	8.652176e+00
2.030000e-06	8.633238e-07	1.386048e-10	6.018480e+00	9.753377e+00
2.040000e-06	9.093589e-07	1.570667e-10	6.339403e+00	1.085537e+01
2.050000e-06	9.553399e-07	1.740375e-10	6.659951e+00	1.195705e+01
2.060000e-06	1.001227e-06	1.890331e-10	6.979843e+00	1.305731e+01
2.070000e-06	1.046997e-06	2.010249e-10	7.298917e+00	1.415505e+01
2.080000e-06	1.092710e-06	2.136505e-10	7.617599e+00	1.524917e+01
2.090000e-06	1.138371e-06	2.282447e-10	7.935915e+00	1.633861e+01
2.100000e-06	1.183966e-06	2.462507e-10	8.253766e+00	1.742232e+01
2.110000e-06	1.229518e-06	2.637451e-10	8.571329e+00	1.849926e+01
2.120000e-06	1.274947e-06	2.795635e-10	8.888026e+00	1.956846e+01
2.130000e-06	1.320254e-06	2.944422e-10	9.203872e+00	2.062896e+01
2.140000e-06	1.365542e-06	3.075917e-10	9.519590e+00	2.167983e+01
2.150000e-06	1.410760e-06	3.198950e-10	9.834818e+00	2.272022e+01
2.160000e-06	1.455830e-06	3.322760e-10	1.014901e+01	2.374930e+01
2.170000e-06	1.500755e-06	3.443812e-10	1.046219e+01	2.476630e+01
2.180000e-06	1.545585e-06	3.587241e-10	1.077472e+01	2.577049e+01
2.190000e-06	1.590332e-06	3.729604e-10	1.108666e+01	2.676121e+01
2.200000e-06	1.634984e-06	3.860041e-10	1.139795e+01	2.773786e+01
2.210000e-06	1.679496e-06	3.976666e-10	1.170825e+01	2.869988e+01
2.220000e-06	1.723870e-06	4.092659e-10	1.201760e+01	2.964678e+01
2.230000e-06	1.768106e-06	4.231460e-10	1.232597e+01	3.057812e+01
2.240000e-06	1.812153e-06	4.361192e-10	1.263304e+01	3.149353e+01
2.250000e-06	1.856010e-06	4.491243e-10	1.293878e+01	3.239268e+01
2.260000e-06	1.899762e-06	4.616395e-10	1.324379e+01	3.327532e+01
2.270000e-06	1.943514e-06	4.741285e-10	1.354880e+01	3.414123e+01
2.280000e-06	1.987224e-06	4.868050e-10	1.385351e+01	3.499026e+01
2.290000e-06	2.030868e-06	5.009505e-10	1.415777e+01	3.582229e+01
2.300000e-06	2.074482e-06	5.152756e-10	1.446182e+01	3.663727e+01
2.310000e-06	2.118031e-06	5.258208e-10	1.476540e+01	3.743519e+01
2.320000e-06	2.161475e-06	5.352542e-10	1.506827e+01	3.821607e+01
2.330000e-06	2.204817e-06	5.456135e-10	1.537042e+01	3.897998e+01
2.340000e-06	2.248083e-06	5.573201e-10	1.567204e+01	3.972702e+01
2.350000e-06	2.291178e-06	5.713522e-10	1.597247e+01	4.045733e+01
2.360000e-06	2.333996e-06	5.866880e-10	1.627096e+01	4.117107e+01
2.370000e-06	2.376588e-06	5.987560e-10	1.656788e+01	4.186841e+01
2.380000e-06	2.418918e-06	6.073672e-10	1.686298e+01	4.254959e+01
2.390000e-06	2.460970e-06	6.161013e-10	1.715613e+01	4.321481e+01
2.400000e-06	2.502665e-06	6.248283e-10	1.744680e+01	4.386431e+01
2.410000e-06	2.543996e-06	6.328570e-10	1.773493e+01	4.449835e+01
2.420000e-06	2.585046e-06	6.428059e-10	1.802110e+01	4.511719e+01
2.430000e-06	2.625758e-06	6.541982e-10	1.830492e+01	4.572109e+01
2.440000e-06	2.666159e-06	6.649955e-10	1.858657e+01	4.631030e+01
2.450000e-06	2.706341e-06	6.735657e-10	1.886669e+01	4.688511e+01
2.460000e-06	2.746343e-06	6.817210e-10	1.914555e+01	4.744576e+01
2.470000e-06	2.786219e-06	6.896595e-10	1.942354e+01	4.799251e+01
2.480000e-06	2.825995e-06	6.974090e-10	1.970082e+01	4.852561e+01
2.490000e-06	2.865626e-06	7.055619e-10	1.997711e+01	4.904530e+01
2.500000e-06	2.905150e-06	7.131740e-10	2.025264e+01	4.955182e+01
2.510000e-06	2.944596e-06	7.196478e-10	2.052763e+01	5.004538e+01
2.520000e-06	2.983889e-06	7.252698e-10	2.080155e+01	5.052620e+01
2.530000e-06	3.023004e-06	7.320654e-10	2.107423e+01	5.099448e+01
2.540000e-06	3.061846e-06	7.394546e-10	2.134501e+01	5.145040e+01
2.550000e-06	3.100359e-06	7.456795e-10	2.161350e+01	5.189415e+01
2.560000e-06	3.138580e-06	7.523600e-10	2.187994e+01	5.232590e+01
2.570000e-06	3.176536e-06	7.580640e-10	2.214455e+01	5.274580e+01
2.580000e-06	3.214358e-06	7.628877e-10	2.240822e+01	5.315400e+01
2.590000e-06	3.252076e-06	7.684687e-10	2.267116e+01	5.355066e+01
2.600000e-06	3.289612e-06	7.742245e-10	2.293283e+01	5.393590e+01
2.610000e-06	3.326926e-06	7.791550e-10	2.319296e+01	5.430987e+01
2.620000e-06	3.364060e-06	7.819883e-10	2.345184e+01	5.467270e+01
2.630000e-06	3.401003e-06	7.845445e-10	2.370938e+01	5.502451e+01
2.640000e-06	3.437599e-06	7.871861e-10	2.396449e+01	5.536543e+01
2.650000e-06	3.473840e-06	7.918574e-10	2.421715e+01	5.569560e+01
2.660000e-06	3.509874e-06	7.989346e-10	2.446835e+01	5.601515e+01
2.670000e-06	3.545748e-06	8.060037e-10	2.471843e+01	5.632423e+01
2.680000e-06	3.581492e-06	8.112976e-10	2.496761e+01	5.662297e+01
2.690000e-06	3.617131e-06	8.152862e-10	2.521606e+01	5.691153e+01
2.700000e-06	3.652623e-06	8.188662e-10	2.546349e+01	5.719007e+01
2.710000e-06	3.687905e-06	8.215317e-10	2.570945e+01	5.745877e+01
2.720000e-06	3.722919e-06	8.233917e-10	2.595354e+01	5.771780e+01
2.730000e-06	3.757531e-06	8.269039e-10	2.619483e+01	5.796735e+01
2.740000e-06	3.791714e-06	8.322252e-10	2.643313e+01	5.820764e+01
2.750000e-06	3.825574e-06	8.378071e-10	2.666918e+01	5.843886e+01
2.760000e-06	3.859003e-06	8.432178e-10	2.690222e+01	5.866126e+01
2.770000e-06	3.891904e-06	8.477857e-10	2.713159e+01	5.887507e+01
2.780000e-06	3.924339e-06	8.508254e-10	2.735770e+01	5.908053e+01
2.790000e-06	3.956377e-06	8.523992e-10	2.758105e+01	5.927789e+01
2.800000e-06	3.988173e-06	8.533968e-10	2.780271e+01	5.946744e+01
2.810000e-06	4.019826e-06	8.553751e-10	2.802337e+01	5.964943e+01
2.820000e-06	4.051401e-06	8.590221e-10	2.824349e+01	5.982416e+01
2.830000e-06	4.082880e-06	8.643361e-10	2.846293e+01	5.999189e+01
2.840000e-06	4.114133e-06	8.702271e-10	2.868081e+01	6.015293e+01
2.850000e-06	4.145106e-06	8.756014e-10	2.889673e+01	6.030756e+01
2.860000e-06	4.175746e-06	8.788870e-10	2.911034e+01	6.045606e+01
2.870000e-06	4.206029e-06	8.795133e-10	2.932144e+01	6.059873e+01
2.880000e-06	4.236003e-06	8.789182e-10	2.953040e+01	6.073584e+01
2.890000e-06	4.265714e-06	8.796577e-10	2.973753e+01	6.086767e+01
2.900000e-06	4.295159e-06	8.823040e-10	2.994280e+01	6.099449e+01
