# Temperatura_=_-1.1
# Concentracion g/m^3_=_1620.0
# C_Vs_to_Am_M_A/Vsm_=_65563218390.804596
# pendiente_HvsI_1/m_=_3716.3
# ordenada_HvsI_A/m_=_1297.0
# frecuencia_Hz_=_135101.6441035567

Tiempo_(s)	Campo_(V.s)	Magnetizacion_(V.s)	Campo_(kA/m)	Magnetizacion_(A/m)
0.000000e+00	-5.525314e-06	-1.109449e-09	-3.837667e+01	-7.476001e+01
1.000000e-08	-5.525481e-06	-1.107394e-09	-3.837783e+01	-7.472696e+01
2.000000e-08	-5.525369e-06	-1.107913e-09	-3.837705e+01	-7.469439e+01
3.000000e-08	-5.524733e-06	-1.106334e-09	-3.837263e+01	-7.466222e+01
4.000000e-08	-5.523428e-06	-1.095263e-09	-3.836357e+01	-7.463035e+01
5.000000e-08	-5.521545e-06	-1.075108e-09	-3.835049e+01	-7.459869e+01
6.000000e-08	-5.519146e-06	-1.061311e-09	-3.833383e+01	-7.456712e+01
7.000000e-08	-5.516200e-06	-1.095766e-09	-3.831337e+01	-7.453550e+01
8.000000e-08	-5.512791e-06	-1.193488e-09	-3.828969e+01	-7.450369e+01
9.000000e-08	-5.508956e-06	-1.252625e-09	-3.826305e+01	-7.447154e+01
1.000000e-07	-5.504749e-06	-1.130815e-09	-3.823383e+01	-7.443889e+01
1.100000e-07	-5.500368e-06	-9.818679e-10	-3.820340e+01	-7.440555e+01
1.200000e-07	-5.495743e-06	-1.027164e-09	-3.817128e+01	-7.437136e+01
1.300000e-07	-5.490658e-06	-1.147940e-09	-3.813596e+01	-7.433613e+01
1.400000e-07	-5.485165e-06	-1.125253e-09	-3.809781e+01	-7.429966e+01
1.500000e-07	-5.479366e-06	-1.001918e-09	-3.805753e+01	-7.426176e+01
1.600000e-07	-5.473318e-06	-1.054642e-09	-3.801552e+01	-7.422225e+01
1.700000e-07	-5.466792e-06	-1.194675e-09	-3.797020e+01	-7.418092e+01
1.800000e-07	-5.459705e-06	-1.175515e-09	-3.792097e+01	-7.413758e+01
1.900000e-07	-5.452343e-06	-1.034175e-09	-3.786984e+01	-7.409204e+01
2.000000e-07	-5.444768e-06	-1.021640e-09	-3.781722e+01	-7.404412e+01
2.100000e-07	-5.436914e-06	-1.141360e-09	-3.776268e+01	-7.399362e+01
2.200000e-07	-5.428780e-06	-1.179627e-09	-3.770618e+01	-7.394037e+01
2.300000e-07	-5.420271e-06	-1.107729e-09	-3.764708e+01	-7.388419e+01
2.400000e-07	-5.411156e-06	-1.085233e-09	-3.758377e+01	-7.382494e+01
2.500000e-07	-5.401304e-06	-1.133713e-09	-3.751534e+01	-7.376244e+01
2.600000e-07	-5.390790e-06	-1.114075e-09	-3.744232e+01	-7.369655e+01
2.700000e-07	-5.379748e-06	-1.062141e-09	-3.736563e+01	-7.362714e+01
2.800000e-07	-5.368274e-06	-1.082302e-09	-3.728593e+01	-7.355408e+01
2.900000e-07	-5.356434e-06	-1.139414e-09	-3.720369e+01	-7.347726e+01
3.000000e-07	-5.344350e-06	-1.109215e-09	-3.711976e+01	-7.339657e+01
3.100000e-07	-5.331852e-06	-1.061018e-09	-3.703296e+01	-7.331192e+01
3.200000e-07	-5.318820e-06	-1.078571e-09	-3.694244e+01	-7.322323e+01
3.300000e-07	-5.305476e-06	-1.114623e-09	-3.684976e+01	-7.313043e+01
3.400000e-07	-5.291834e-06	-1.085966e-09	-3.675500e+01	-7.303346e+01
3.500000e-07	-5.277670e-06	-1.064800e-09	-3.665663e+01	-7.293228e+01
3.600000e-07	-5.263045e-06	-1.107089e-09	-3.655505e+01	-7.282684e+01
3.700000e-07	-5.248036e-06	-1.124650e-09	-3.645080e+01	-7.271713e+01
3.800000e-07	-5.232345e-06	-1.068645e-09	-3.634182e+01	-7.260313e+01
3.900000e-07	-5.216148e-06	-1.070210e-09	-3.622932e+01	-7.248484e+01
4.000000e-07	-5.199643e-06	-1.125470e-09	-3.611468e+01	-7.236225e+01
4.100000e-07	-5.182769e-06	-1.093114e-09	-3.599748e+01	-7.223539e+01
4.200000e-07	-5.165589e-06	-1.036264e-09	-3.587816e+01	-7.210428e+01
4.300000e-07	-5.148152e-06	-1.096373e-09	-3.575705e+01	-7.196894e+01
4.400000e-07	-5.130391e-06	-1.138412e-09	-3.563369e+01	-7.182941e+01
4.500000e-07	-5.112115e-06	-1.058594e-09	-3.550675e+01	-7.168573e+01
4.600000e-07	-5.093395e-06	-1.044702e-09	-3.537673e+01	-7.153795e+01
4.700000e-07	-5.074347e-06	-1.111070e-09	-3.524443e+01	-7.138612e+01
4.800000e-07	-5.054976e-06	-1.084636e-09	-3.510988e+01	-7.123030e+01
4.900000e-07	-5.035347e-06	-1.040147e-09	-3.497355e+01	-7.107055e+01
5.000000e-07	-5.015558e-06	-1.089459e-09	-3.483610e+01	-7.090692e+01
5.100000e-07	-4.995519e-06	-1.082961e-09	-3.469692e+01	-7.073949e+01
5.200000e-07	-4.975151e-06	-1.028744e-09	-3.455545e+01	-7.056832e+01
5.300000e-07	-4.954431e-06	-1.069374e-09	-3.441154e+01	-7.039348e+01
5.400000e-07	-4.933291e-06	-1.101197e-09	-3.426470e+01	-7.021504e+01
5.500000e-07	-4.911752e-06	-1.027675e-09	-3.411511e+01	-7.003306e+01
5.600000e-07	-4.889926e-06	-1.020622e-09	-3.396351e+01	-6.984761e+01
5.700000e-07	-4.867789e-06	-1.079680e-09	-3.380975e+01	-6.965876e+01
5.800000e-07	-4.845232e-06	-1.055821e-09	-3.365309e+01	-6.946657e+01
5.900000e-07	-4.822381e-06	-1.022412e-09	-3.349437e+01	-6.927112e+01
6.000000e-07	-4.799251e-06	-1.061428e-09	-3.333371e+01	-6.907247e+01
6.100000e-07	-4.775702e-06	-1.054055e-09	-3.317015e+01	-6.887067e+01
6.200000e-07	-4.751931e-06	-1.011710e-09	-3.300505e+01	-6.866580e+01
6.300000e-07	-4.728088e-06	-1.027993e-09	-3.283945e+01	-6.845791e+01
6.400000e-07	-4.703916e-06	-1.040617e-09	-3.267156e+01	-6.824705e+01
6.500000e-07	-4.679243e-06	-1.013291e-09	-3.250019e+01	-6.803330e+01
6.600000e-07	-4.654100e-06	-1.020650e-09	-3.232555e+01	-6.781669e+01
6.700000e-07	-4.628487e-06	-1.036209e-09	-3.214766e+01	-6.759729e+01
6.800000e-07	-4.602202e-06	-1.014632e-09	-3.196509e+01	-6.737515e+01
6.900000e-07	-4.575361e-06	-1.008038e-09	-3.177867e+01	-6.715031e+01
7.000000e-07	-4.548266e-06	-1.018342e-09	-3.159048e+01	-6.692284e+01
7.100000e-07	-4.520896e-06	-1.004271e-09	-3.140037e+01	-6.669276e+01
7.200000e-07	-4.493306e-06	-9.974238e-10	-3.120874e+01	-6.646014e+01
7.300000e-07	-4.465550e-06	-1.007642e-09	-3.101596e+01	-6.622502e+01
7.400000e-07	-4.437600e-06	-9.963857e-10	-3.082183e+01	-6.598744e+01
7.500000e-07	-4.409367e-06	-9.835098e-10	-3.062574e+01	-6.574744e+01
7.600000e-07	-4.380782e-06	-9.854007e-10	-3.042719e+01	-6.550507e+01
7.700000e-07	-4.351869e-06	-9.751946e-10	-3.022638e+01	-6.526036e+01
7.800000e-07	-4.322633e-06	-9.642550e-10	-3.002332e+01	-6.501336e+01
7.900000e-07	-4.293061e-06	-9.747179e-10	-2.981792e+01	-6.476411e+01
8.000000e-07	-4.263255e-06	-9.726442e-10	-2.961090e+01	-6.451263e+01
8.100000e-07	-4.233276e-06	-9.569539e-10	-2.940267e+01	-6.425897e+01
8.200000e-07	-4.203011e-06	-9.576058e-10	-2.919246e+01	-6.400316e+01
8.300000e-07	-4.172335e-06	-9.602103e-10	-2.897940e+01	-6.374522e+01
8.400000e-07	-4.141300e-06	-9.427158e-10	-2.876385e+01	-6.348519e+01
8.500000e-07	-4.110085e-06	-9.347527e-10	-2.854704e+01	-6.322309e+01
8.600000e-07	-4.078686e-06	-9.396113e-10	-2.832895e+01	-6.295894e+01
8.700000e-07	-4.047104e-06	-9.313045e-10	-2.810960e+01	-6.269275e+01
8.800000e-07	-4.015399e-06	-9.237428e-10	-2.788939e+01	-6.242456e+01
8.900000e-07	-3.983510e-06	-9.306448e-10	-2.766790e+01	-6.215435e+01
9.000000e-07	-3.951325e-06	-9.237127e-10	-2.744436e+01	-6.188215e+01
9.100000e-07	-3.918770e-06	-9.107338e-10	-2.721824e+01	-6.160795e+01
9.200000e-07	-3.885814e-06	-9.122228e-10	-2.698934e+01	-6.133174e+01
9.300000e-07	-3.852431e-06	-9.115506e-10	-2.675747e+01	-6.105352e+01
9.400000e-07	-3.818554e-06	-8.978563e-10	-2.652218e+01	-6.077327e+01
9.500000e-07	-3.784169e-06	-8.925516e-10	-2.628335e+01	-6.049097e+01
9.600000e-07	-3.749393e-06	-8.933686e-10	-2.604181e+01	-6.020658e+01
9.700000e-07	-3.714283e-06	-8.859863e-10	-2.579795e+01	-5.992008e+01
9.800000e-07	-3.678881e-06	-8.814631e-10	-2.555207e+01	-5.963141e+01
9.900000e-07	-3.643331e-06	-8.848310e-10	-2.530515e+01	-5.934054e+01
1.000000e-06	-3.607667e-06	-8.805009e-10	-2.505744e+01	-5.904739e+01
1.010000e-06	-3.571844e-06	-8.723083e-10	-2.480863e+01	-5.875191e+01
1.020000e-06	-3.535879e-06	-8.730485e-10	-2.455883e+01	-5.845402e+01
1.030000e-06	-3.499748e-06	-8.694265e-10	-2.430788e+01	-5.815364e+01
1.040000e-06	-3.463385e-06	-8.583863e-10	-2.405531e+01	-5.785068e+01
1.050000e-06	-3.426795e-06	-8.539232e-10	-2.380118e+01	-5.754505e+01
1.060000e-06	-3.389956e-06	-8.530148e-10	-2.354531e+01	-5.723664e+01
1.070000e-06	-3.352711e-06	-8.472835e-10	-2.328662e+01	-5.692534e+01
1.080000e-06	-3.315136e-06	-8.435426e-10	-2.302564e+01	-5.661105e+01
1.090000e-06	-3.277398e-06	-8.408787e-10	-2.276352e+01	-5.629362e+01
1.100000e-06	-3.239476e-06	-8.325959e-10	-2.250013e+01	-5.597295e+01
1.110000e-06	-3.201445e-06	-8.239070e-10	-2.223598e+01	-5.564888e+01
1.120000e-06	-3.163223e-06	-8.210009e-10	-2.197051e+01	-5.532128e+01
1.130000e-06	-3.124696e-06	-8.148863e-10	-2.170292e+01	-5.499001e+01
1.140000e-06	-3.085908e-06	-8.054004e-10	-2.143351e+01	-5.465493e+01
1.150000e-06	-3.046886e-06	-7.981958e-10	-2.116248e+01	-5.431586e+01
1.160000e-06	-3.007678e-06	-7.936896e-10	-2.089015e+01	-5.397267e+01
1.170000e-06	-2.968348e-06	-7.878552e-10	-2.061698e+01	-5.362520e+01
1.180000e-06	-2.928928e-06	-7.840808e-10	-2.034319e+01	-5.327328e+01
1.190000e-06	-2.889357e-06	-7.801602e-10	-2.006834e+01	-5.291676e+01
1.200000e-06	-2.849616e-06	-7.727957e-10	-1.979232e+01	-5.255547e+01
1.210000e-06	-2.809736e-06	-7.656586e-10	-1.951533e+01	-5.218926e+01
1.220000e-06	-2.769640e-06	-7.595655e-10	-1.923684e+01	-5.181795e+01
1.230000e-06	-2.729368e-06	-7.512259e-10	-1.895712e+01	-5.144139e+01
1.240000e-06	-2.688967e-06	-7.411035e-10	-1.867651e+01	-5.105942e+01
1.250000e-06	-2.648293e-06	-7.330003e-10	-1.839400e+01	-5.067188e+01
1.260000e-06	-2.607313e-06	-7.262741e-10	-1.810937e+01	-5.027860e+01
1.270000e-06	-2.566059e-06	-7.206404e-10	-1.782284e+01	-4.987943e+01
1.280000e-06	-2.524550e-06	-7.175935e-10	-1.753454e+01	-4.947420e+01
1.290000e-06	-2.482833e-06	-7.127048e-10	-1.724479e+01	-4.906278e+01
1.300000e-06	-2.440719e-06	-7.052895e-10	-1.695228e+01	-4.864499e+01
1.310000e-06	-2.398163e-06	-6.956267e-10	-1.665670e+01	-4.822069e+01
1.320000e-06	-2.355426e-06	-6.846282e-10	-1.635987e+01	-4.778972e+01
1.330000e-06	-2.312515e-06	-6.747235e-10	-1.606182e+01	-4.735193e+01
1.340000e-06	-2.269341e-06	-6.668067e-10	-1.576195e+01	-4.690717e+01
1.350000e-06	-2.225962e-06	-6.587479e-10	-1.546066e+01	-4.645528e+01
1.360000e-06	-2.182469e-06	-6.503964e-10	-1.515857e+01	-4.599610e+01
1.370000e-06	-2.138899e-06	-6.459293e-10	-1.485595e+01	-4.552948e+01
1.380000e-06	-2.095254e-06	-6.429109e-10	-1.455281e+01	-4.505526e+01
1.390000e-06	-2.051516e-06	-6.360311e-10	-1.424903e+01	-4.457328e+01
1.400000e-06	-2.007690e-06	-6.262708e-10	-1.394463e+01	-4.408336e+01
1.410000e-06	-1.963815e-06	-6.175064e-10	-1.363989e+01	-4.358535e+01
1.420000e-06	-1.919866e-06	-6.095163e-10	-1.333464e+01	-4.307906e+01
1.430000e-06	-1.875863e-06	-6.018389e-10	-1.302901e+01	-4.256430e+01
1.440000e-06	-1.831748e-06	-5.947749e-10	-1.272261e+01	-4.204090e+01
1.450000e-06	-1.787472e-06	-5.885415e-10	-1.241508e+01	-4.150866e+01
1.460000e-06	-1.743139e-06	-5.801968e-10	-1.210716e+01	-4.096736e+01
1.470000e-06	-1.698682e-06	-5.705074e-10	-1.179838e+01	-4.041681e+01
1.480000e-06	-1.653965e-06	-5.604135e-10	-1.148779e+01	-3.985677e+01
1.490000e-06	-1.609065e-06	-5.516414e-10	-1.117594e+01	-3.928701e+01
1.500000e-06	-1.564143e-06	-5.460223e-10	-1.086392e+01	-3.870730e+01
1.510000e-06	-1.519133e-06	-5.412038e-10	-1.055131e+01	-3.811739e+01
1.520000e-06	-1.473929e-06	-5.339232e-10	-1.023734e+01	-3.751701e+01
1.530000e-06	-1.428646e-06	-5.238304e-10	-9.922818e+00	-3.690590e+01
1.540000e-06	-1.383326e-06	-5.104190e-10	-9.608040e+00	-3.628378e+01
1.550000e-06	-1.337917e-06	-4.963709e-10	-9.292646e+00	-3.565036e+01
1.560000e-06	-1.292372e-06	-4.831081e-10	-8.976308e+00	-3.500535e+01
1.570000e-06	-1.246710e-06	-4.717074e-10	-8.659163e+00	-3.434844e+01
1.580000e-06	-1.200932e-06	-4.636433e-10	-8.341202e+00	-3.367932e+01
1.590000e-06	-1.155075e-06	-4.575180e-10	-8.022699e+00	-3.299769e+01
1.600000e-06	-1.109146e-06	-4.510280e-10	-7.703693e+00	-3.230323e+01
1.610000e-06	-1.063075e-06	-4.426953e-10	-7.383700e+00	-3.159560e+01
1.620000e-06	-1.017034e-06	-4.331295e-10	-7.063920e+00	-3.087450e+01
1.630000e-06	-9.709767e-07	-4.232143e-10	-6.744023e+00	-3.013961e+01
1.640000e-06	-9.248438e-07	-4.108672e-10	-6.423603e+00	-2.939060e+01
1.650000e-06	-8.787113e-07	-3.962307e-10	-6.103185e+00	-2.862717e+01
1.660000e-06	-8.324072e-07	-3.829185e-10	-5.781575e+00	-2.784902e+01
1.670000e-06	-7.859954e-07	-3.703256e-10	-5.459216e+00	-2.705585e+01
1.680000e-06	-7.395408e-07	-3.588860e-10	-5.136561e+00	-2.624738e+01
1.690000e-06	-6.929353e-07	-3.488026e-10	-4.812857e+00	-2.542335e+01
1.700000e-06	-6.462711e-07	-3.378032e-10	-4.488746e+00	-2.458351e+01
1.710000e-06	-5.996591e-07	-3.250703e-10	-4.164997e+00	-2.372763e+01
1.720000e-06	-5.530365e-07	-3.099591e-10	-3.841175e+00	-2.285552e+01
1.730000e-06	-5.063874e-07	-2.924480e-10	-3.517169e+00	-2.196699e+01
1.740000e-06	-4.596930e-07	-2.743457e-10	-3.192848e+00	-2.106191e+01
1.750000e-06	-4.129177e-07	-2.578499e-10	-2.867965e+00	-2.014014e+01
1.760000e-06	-3.661204e-07	-2.453227e-10	-2.542929e+00	-1.920163e+01
1.770000e-06	-3.193249e-07	-2.357428e-10	-2.217906e+00	-1.824631e+01
1.780000e-06	-2.724958e-07	-2.255829e-10	-1.892649e+00	-1.727419e+01
1.790000e-06	-2.256097e-07	-2.134582e-10	-1.566997e+00	-1.628531e+01
1.800000e-06	-1.786802e-07	-1.981389e-10	-1.241042e+00	-1.527975e+01
1.810000e-06	-1.316939e-07	-1.807622e-10	-9.146943e-01	-1.425763e+01
1.820000e-06	-8.476281e-08	-1.661064e-10	-5.887293e-01	-1.321914e+01
1.830000e-06	-3.787684e-08	-1.534826e-10	-2.630777e-01	-1.216449e+01
1.840000e-06	9.038156e-09	-1.395688e-10	6.277549e-02	-1.109397e+01
1.850000e-06	5.590026e-08	-1.245345e-10	3.882613e-01	-1.000791e+01
1.860000e-06	1.026836e-07	-1.094863e-10	7.132001e-01	-8.906673e+00
1.870000e-06	1.494306e-07	-9.322347e-11	1.037887e+00	-7.790705e+00
1.880000e-06	1.962633e-07	-7.503586e-11	1.363168e+00	-6.660490e+00
1.890000e-06	2.432317e-07	-5.665863e-11	1.689392e+00	-5.516566e+00
1.900000e-06	2.901569e-07	-3.920676e-11	2.015316e+00	-4.359526e+00
1.910000e-06	3.370582e-07	-2.247353e-11	2.341074e+00	-3.190010e+00
1.920000e-06	3.839912e-07	-7.649487e-12	2.667052e+00	-2.008714e+00
1.930000e-06	4.308202e-07	5.788019e-12	2.992308e+00	-8.163776e-01
1.940000e-06	4.775390e-07	2.148360e-11	3.316799e+00	3.862095e-01
1.950000e-06	5.241996e-07	3.987247e-11	3.640885e+00	1.598214e+00
1.960000e-06	5.707603e-07	6.011631e-11	3.964277e+00	2.818759e+00
1.970000e-06	6.172589e-07	7.935007e-11	4.287239e+00	4.046931e+00
1.980000e-06	6.637860e-07	9.650733e-11	4.610398e+00	5.281775e+00
1.990000e-06	7.102666e-07	1.126797e-10	4.933234e+00	6.522307e+00
2.000000e-06	7.566990e-07	1.275715e-10	5.255735e+00	7.767512e+00
2.010000e-06	8.030622e-07	1.451205e-10	5.577755e+00	9.016348e+00
2.020000e-06	8.493349e-07	1.655213e-10	5.899147e+00	1.026775e+01
2.030000e-06	8.955367e-07	1.856407e-10	6.220047e+00	1.152064e+01
2.040000e-06	9.416535e-07	2.035556e-10	6.540357e+00	1.277392e+01
2.050000e-06	9.876983e-07	2.208383e-10	6.860165e+00	1.402648e+01
2.060000e-06	1.033684e-06	2.389504e-10	7.179562e+00	1.527723e+01
2.070000e-06	1.079599e-06	2.570764e-10	7.498469e+00	1.652504e+01
2.080000e-06	1.125402e-06	2.749967e-10	7.816604e+00	1.776881e+01
2.090000e-06	1.171085e-06	2.939862e-10	8.133899e+00	1.900744e+01
2.100000e-06	1.216703e-06	3.124744e-10	8.450745e+00	2.023985e+01
2.110000e-06	1.262320e-06	3.280730e-10	8.767579e+00	2.146498e+01
2.120000e-06	1.307849e-06	3.435262e-10	9.083808e+00	2.268178e+01
2.130000e-06	1.353234e-06	3.599313e-10	9.399036e+00	2.388923e+01
2.140000e-06	1.398546e-06	3.765692e-10	9.713752e+00	2.508635e+01
2.150000e-06	1.443846e-06	3.924350e-10	1.002839e+01	2.627217e+01
2.160000e-06	1.489056e-06	4.088155e-10	1.034240e+01	2.744579e+01
2.170000e-06	1.534145e-06	4.258245e-10	1.065557e+01	2.860633e+01
2.180000e-06	1.579119e-06	4.425685e-10	1.096794e+01	2.975295e+01
2.190000e-06	1.623899e-06	4.573809e-10	1.127897e+01	3.088487e+01
2.200000e-06	1.668543e-06	4.706260e-10	1.158905e+01	3.200136e+01
2.210000e-06	1.713111e-06	4.831341e-10	1.189860e+01	3.310172e+01
2.220000e-06	1.757550e-06	4.969190e-10	1.220725e+01	3.418534e+01
2.230000e-06	1.801863e-06	5.118373e-10	1.251504e+01	3.525164e+01
2.240000e-06	1.846023e-06	5.254176e-10	1.282175e+01	3.630009e+01
2.250000e-06	1.890049e-06	5.388974e-10	1.312754e+01	3.733023e+01
2.260000e-06	1.933992e-06	5.527505e-10	1.343275e+01	3.834166e+01
2.270000e-06	1.977841e-06	5.695547e-10	1.373731e+01	3.933404e+01
2.280000e-06	2.021661e-06	5.860410e-10	1.404167e+01	4.030706e+01
2.290000e-06	2.065417e-06	6.008492e-10	1.434558e+01	4.126050e+01
2.300000e-06	2.109071e-06	6.122689e-10	1.464878e+01	4.219418e+01
2.310000e-06	2.152640e-06	6.220564e-10	1.495140e+01	4.310798e+01
2.320000e-06	2.196080e-06	6.328253e-10	1.525311e+01	4.400183e+01
2.330000e-06	2.239434e-06	6.443919e-10	1.555423e+01	4.487572e+01
2.340000e-06	2.282673e-06	6.585839e-10	1.585455e+01	4.572966e+01
2.350000e-06	2.325725e-06	6.756867e-10	1.615357e+01	4.656376e+01
2.360000e-06	2.368598e-06	6.926392e-10	1.645135e+01	4.737812e+01
2.370000e-06	2.411246e-06	7.036045e-10	1.674757e+01	4.817291e+01
2.380000e-06	2.453602e-06	7.115159e-10	1.704176e+01	4.894836e+01
2.390000e-06	2.495613e-06	7.194590e-10	1.733355e+01	4.970468e+01
2.400000e-06	2.537277e-06	7.265035e-10	1.762293e+01	5.044217e+01
2.410000e-06	2.578514e-06	7.348786e-10	1.790935e+01	5.116113e+01
2.420000e-06	2.619454e-06	7.470419e-10	1.819370e+01	5.186190e+01
2.430000e-06	2.660217e-06	7.618756e-10	1.847683e+01	5.254482e+01
2.440000e-06	2.700685e-06	7.756023e-10	1.875790e+01	5.321029e+01
2.450000e-06	2.740916e-06	7.860716e-10	1.903733e+01	5.385869e+01
2.460000e-06	2.780985e-06	7.950890e-10	1.931564e+01	5.449043e+01
2.470000e-06	2.820906e-06	8.037834e-10	1.959291e+01	5.510594e+01
2.480000e-06	2.860683e-06	8.138884e-10	1.986918e+01	5.570565e+01
2.490000e-06	2.900342e-06	8.237627e-10	2.014464e+01	5.628998e+01
2.500000e-06	2.939918e-06	8.327072e-10	2.041952e+01	5.685939e+01
2.510000e-06	2.979307e-06	8.417808e-10	2.069310e+01	5.741429e+01
2.520000e-06	3.018487e-06	8.511929e-10	2.096523e+01	5.795513e+01
2.530000e-06	3.057556e-06	8.592689e-10	2.123659e+01	5.848234e+01
2.540000e-06	3.096430e-06	8.656085e-10	2.150659e+01	5.899633e+01
2.550000e-06	3.135028e-06	8.716074e-10	2.177468e+01	5.949753e+01
2.560000e-06	3.173366e-06	8.783479e-10	2.204096e+01	5.998633e+01
2.570000e-06	3.211429e-06	8.848110e-10	2.230533e+01	6.046312e+01
2.580000e-06	3.249343e-06	8.914868e-10	2.256866e+01	6.092829e+01
2.590000e-06	3.287144e-06	8.987555e-10	2.283122e+01	6.138219e+01
2.600000e-06	3.324731e-06	9.052180e-10	2.309228e+01	6.182518e+01
2.610000e-06	3.362037e-06	9.099277e-10	2.335139e+01	6.225758e+01
2.620000e-06	3.399078e-06	9.125826e-10	2.360867e+01	6.267972e+01
2.630000e-06	3.435895e-06	9.176528e-10	2.386438e+01	6.309190e+01
2.640000e-06	3.472379e-06	9.240705e-10	2.411778e+01	6.349440e+01
2.650000e-06	3.508564e-06	9.314108e-10	2.436911e+01	6.388749e+01
2.660000e-06	3.544605e-06	9.395660e-10	2.461944e+01	6.427143e+01
2.670000e-06	3.580515e-06	9.455347e-10	2.486885e+01	6.464644e+01
2.680000e-06	3.616292e-06	9.516636e-10	2.511735e+01	6.501277e+01
2.690000e-06	3.651892e-06	9.579684e-10	2.536461e+01	6.537060e+01
2.700000e-06	3.687306e-06	9.631532e-10	2.561058e+01	6.572015e+01
2.710000e-06	3.722545e-06	9.661825e-10	2.585534e+01	6.606159e+01
2.720000e-06	3.757559e-06	9.689531e-10	2.609853e+01	6.639509e+01
2.730000e-06	3.792271e-06	9.723460e-10	2.633963e+01	6.672082e+01
2.740000e-06	3.826558e-06	9.767607e-10	2.657778e+01	6.703894e+01
2.750000e-06	3.860425e-06	9.819436e-10	2.681300e+01	6.734957e+01
2.760000e-06	3.893843e-06	9.864272e-10	2.704511e+01	6.765287e+01
2.770000e-06	3.926666e-06	9.910216e-10	2.727308e+01	6.794895e+01
2.780000e-06	3.959000e-06	9.960874e-10	2.749766e+01	6.823795e+01
2.790000e-06	3.991063e-06	1.000721e-09	2.772036e+01	6.851998e+01
2.800000e-06	4.022955e-06	1.003148e-09	2.794187e+01	6.879516e+01
2.810000e-06	4.054736e-06	1.006838e-09	2.816261e+01	6.906359e+01
2.820000e-06	4.086379e-06	1.011337e-09	2.838239e+01	6.932540e+01
2.830000e-06	4.117851e-06	1.014754e-09	2.860098e+01	6.958069e+01
2.840000e-06	4.149059e-06	1.019676e-09	2.881774e+01	6.982956e+01
2.850000e-06	4.179917e-06	1.026310e-09	2.903207e+01	7.007212e+01
2.860000e-06	4.210360e-06	1.031878e-09	2.924351e+01	7.030847e+01
2.870000e-06	4.240513e-06	1.032496e-09	2.945294e+01	7.053873e+01
2.880000e-06	4.270436e-06	1.032236e-09	2.966077e+01	7.076300e+01
2.890000e-06	4.300012e-06	1.035299e-09	2.986620e+01	7.098137e+01
2.900000e-06	4.329327e-06	1.040494e-09	3.006981e+01	7.119396e+01
