# Temperatura_=_9.0
# Concentracion g/m^3_=_1620.0
# C_Vs_to_Am_M_A/Vsm_=_65563218390.804596
# pendiente_HvsI_1/m_=_3716.3
# ordenada_HvsI_A/m_=_1297.0
# frecuencia_Hz_=_135087.67409961508

Tiempo_(s)	Campo_(V.s)	Magnetizacion_(V.s)	Campo_(kA/m)	Magnetizacion_(A/m)
0.000000e+00	-5.506688e-06	-1.444637e-09	-3.838132e+01	-9.303170e+01
1.000000e-08	-5.506765e-06	-1.447950e-09	-3.838186e+01	-9.303449e+01
2.000000e-08	-5.506589e-06	-1.452057e-09	-3.838063e+01	-9.303690e+01
3.000000e-08	-5.505970e-06	-1.451603e-09	-3.837632e+01	-9.303879e+01
4.000000e-08	-5.504805e-06	-1.441045e-09	-3.836820e+01	-9.304001e+01
5.000000e-08	-5.503050e-06	-1.425615e-09	-3.835596e+01	-9.304038e+01
6.000000e-08	-5.500717e-06	-1.435810e-09	-3.833971e+01	-9.303968e+01
7.000000e-08	-5.497891e-06	-1.494561e-09	-3.832000e+01	-9.303771e+01
8.000000e-08	-5.494481e-06	-1.486223e-09	-3.829624e+01	-9.303420e+01
9.000000e-08	-5.490621e-06	-1.401648e-09	-3.826933e+01	-9.302890e+01
1.000000e-07	-5.486647e-06	-1.389476e-09	-3.824164e+01	-9.302154e+01
1.100000e-07	-5.482419e-06	-1.492407e-09	-3.821216e+01	-9.301181e+01
1.200000e-07	-5.477692e-06	-1.484848e-09	-3.817922e+01	-9.299942e+01
1.300000e-07	-5.472543e-06	-1.409896e-09	-3.814333e+01	-9.298405e+01
1.400000e-07	-5.467147e-06	-1.352895e-09	-3.810572e+01	-9.296541e+01
1.500000e-07	-5.461510e-06	-1.463052e-09	-3.806644e+01	-9.294316e+01
1.600000e-07	-5.455370e-06	-1.468760e-09	-3.802363e+01	-9.291700e+01
1.700000e-07	-5.448708e-06	-1.431904e-09	-3.797720e+01	-9.288661e+01
1.800000e-07	-5.441674e-06	-1.392112e-09	-3.792817e+01	-9.285168e+01
1.900000e-07	-5.434291e-06	-1.446299e-09	-3.787672e+01	-9.281192e+01
2.000000e-07	-5.426633e-06	-1.436291e-09	-3.782334e+01	-9.276704e+01
2.100000e-07	-5.418781e-06	-1.410851e-09	-3.776861e+01	-9.271675e+01
2.200000e-07	-5.410725e-06	-1.401623e-09	-3.771246e+01	-9.266080e+01
2.300000e-07	-5.402275e-06	-1.420453e-09	-3.765357e+01	-9.259894e+01
2.400000e-07	-5.393240e-06	-1.440545e-09	-3.759059e+01	-9.253094e+01
2.500000e-07	-5.383558e-06	-1.422156e-09	-3.752311e+01	-9.245659e+01
2.600000e-07	-5.373321e-06	-1.412401e-09	-3.745176e+01	-9.237571e+01
2.700000e-07	-5.362543e-06	-1.387141e-09	-3.737664e+01	-9.228813e+01
2.800000e-07	-5.351215e-06	-1.422693e-09	-3.729768e+01	-9.219370e+01
2.900000e-07	-5.339558e-06	-1.403294e-09	-3.721643e+01	-9.209232e+01
3.000000e-07	-5.327521e-06	-1.390136e-09	-3.713254e+01	-9.198387e+01
3.100000e-07	-5.315005e-06	-1.371807e-09	-3.704530e+01	-9.186830e+01
3.200000e-07	-5.302118e-06	-1.443996e-09	-3.695548e+01	-9.174555e+01
3.300000e-07	-5.288886e-06	-1.397847e-09	-3.686325e+01	-9.161561e+01
3.400000e-07	-5.275265e-06	-1.378873e-09	-3.676832e+01	-9.147847e+01
3.500000e-07	-5.261218e-06	-1.389225e-09	-3.667041e+01	-9.133415e+01
3.600000e-07	-5.246689e-06	-1.419864e-09	-3.656914e+01	-9.118271e+01
3.700000e-07	-5.231521e-06	-1.342447e-09	-3.646342e+01	-9.102421e+01
3.800000e-07	-5.215808e-06	-1.386784e-09	-3.635390e+01	-9.085873e+01
3.900000e-07	-5.199841e-06	-1.428569e-09	-3.624261e+01	-9.068639e+01
4.000000e-07	-5.183538e-06	-1.357780e-09	-3.612898e+01	-9.050731e+01
4.100000e-07	-5.166727e-06	-1.311906e-09	-3.601181e+01	-9.032162e+01
4.200000e-07	-5.149571e-06	-1.419213e-09	-3.589224e+01	-9.012948e+01
4.300000e-07	-5.132176e-06	-1.397702e-09	-3.577099e+01	-8.993105e+01
4.400000e-07	-5.114398e-06	-1.296056e-09	-3.564708e+01	-8.972652e+01
4.500000e-07	-5.096209e-06	-1.368088e-09	-3.552031e+01	-8.951606e+01
4.600000e-07	-5.077679e-06	-1.427985e-09	-3.539115e+01	-8.929987e+01
4.700000e-07	-5.058760e-06	-1.312439e-09	-3.525929e+01	-8.907814e+01
4.800000e-07	-5.039517e-06	-1.313288e-09	-3.512517e+01	-8.885108e+01
4.900000e-07	-5.020038e-06	-1.417662e-09	-3.498939e+01	-8.861889e+01
5.000000e-07	-5.000325e-06	-1.334601e-09	-3.485199e+01	-8.838176e+01
5.100000e-07	-4.980304e-06	-1.276432e-09	-3.471245e+01	-8.813991e+01
5.200000e-07	-4.960024e-06	-1.382406e-09	-3.457110e+01	-8.789353e+01
5.300000e-07	-4.939383e-06	-1.375469e-09	-3.442724e+01	-8.764281e+01
5.400000e-07	-4.918368e-06	-1.260742e-09	-3.428076e+01	-8.738794e+01
5.500000e-07	-4.897052e-06	-1.333521e-09	-3.413219e+01	-8.712909e+01
5.600000e-07	-4.875389e-06	-1.370523e-09	-3.398120e+01	-8.686644e+01
5.700000e-07	-4.853325e-06	-1.271980e-09	-3.382742e+01	-8.660015e+01
5.800000e-07	-4.830811e-06	-1.278344e-09	-3.367050e+01	-8.633036e+01
5.900000e-07	-4.808052e-06	-1.362502e-09	-3.351186e+01	-8.605722e+01
6.000000e-07	-4.784987e-06	-1.288865e-09	-3.335110e+01	-8.578085e+01
6.100000e-07	-4.761573e-06	-1.260779e-09	-3.318791e+01	-8.550136e+01
6.200000e-07	-4.737956e-06	-1.320527e-09	-3.302330e+01	-8.521886e+01
6.300000e-07	-4.714125e-06	-1.298226e-09	-3.285720e+01	-8.493343e+01
6.400000e-07	-4.689958e-06	-1.237766e-09	-3.268876e+01	-8.464515e+01
6.500000e-07	-4.665407e-06	-1.289865e-09	-3.251764e+01	-8.435408e+01
6.600000e-07	-4.640390e-06	-1.287809e-09	-3.234327e+01	-8.406026e+01
6.700000e-07	-4.614837e-06	-1.239090e-09	-3.216517e+01	-8.376374e+01
6.800000e-07	-4.588836e-06	-1.254458e-09	-3.198394e+01	-8.346453e+01
6.900000e-07	-4.562449e-06	-1.281626e-09	-3.180002e+01	-8.316264e+01
7.000000e-07	-4.535599e-06	-1.236708e-09	-3.161288e+01	-8.285808e+01
7.100000e-07	-4.508397e-06	-1.235457e-09	-3.142329e+01	-8.255082e+01
7.200000e-07	-4.480906e-06	-1.259406e-09	-3.123168e+01	-8.224085e+01
7.300000e-07	-4.453143e-06	-1.238953e-09	-3.103817e+01	-8.192813e+01
7.400000e-07	-4.425224e-06	-1.222459e-09	-3.084357e+01	-8.161262e+01
7.500000e-07	-4.397113e-06	-1.243321e-09	-3.064764e+01	-8.129427e+01
7.600000e-07	-4.368745e-06	-1.228749e-09	-3.044992e+01	-8.097301e+01
7.700000e-07	-4.339948e-06	-1.201027e-09	-3.024920e+01	-8.064878e+01
7.800000e-07	-4.310789e-06	-1.212491e-09	-3.004597e+01	-8.032152e+01
7.900000e-07	-4.281418e-06	-1.210683e-09	-2.984126e+01	-7.999113e+01
8.000000e-07	-4.251869e-06	-1.187300e-09	-2.963530e+01	-7.965755e+01
8.100000e-07	-4.222024e-06	-1.189750e-09	-2.942728e+01	-7.932067e+01
8.200000e-07	-4.191805e-06	-1.200369e-09	-2.921666e+01	-7.898042e+01
8.300000e-07	-4.161316e-06	-1.174222e-09	-2.900415e+01	-7.863670e+01
8.400000e-07	-4.130532e-06	-1.165886e-09	-2.878959e+01	-7.828941e+01
8.500000e-07	-4.099465e-06	-1.169116e-09	-2.857306e+01	-7.793846e+01
8.600000e-07	-4.068106e-06	-1.154424e-09	-2.835448e+01	-7.758375e+01
8.700000e-07	-4.036520e-06	-1.132677e-09	-2.813433e+01	-7.722519e+01
8.800000e-07	-4.004835e-06	-1.143245e-09	-2.791349e+01	-7.686268e+01
8.900000e-07	-3.972926e-06	-1.136497e-09	-2.769108e+01	-7.649611e+01
9.000000e-07	-3.940769e-06	-1.120956e-09	-2.746695e+01	-7.612541e+01
9.100000e-07	-3.908439e-06	-1.121959e-09	-2.724161e+01	-7.575047e+01
9.200000e-07	-3.875779e-06	-1.125619e-09	-2.701397e+01	-7.537119e+01
9.300000e-07	-3.842650e-06	-1.103295e-09	-2.678306e+01	-7.498750e+01
9.400000e-07	-3.809031e-06	-1.101013e-09	-2.654874e+01	-7.459930e+01
9.500000e-07	-3.774929e-06	-1.103177e-09	-2.631105e+01	-7.420651e+01
9.600000e-07	-3.740414e-06	-1.087218e-09	-2.607049e+01	-7.380904e+01
9.700000e-07	-3.705522e-06	-1.070163e-09	-2.582729e+01	-7.340682e+01
9.800000e-07	-3.670358e-06	-1.077316e-09	-2.558220e+01	-7.299976e+01
9.900000e-07	-3.634958e-06	-1.069688e-09	-2.533546e+01	-7.258779e+01
1.000000e-06	-3.599365e-06	-1.053753e-09	-2.508738e+01	-7.217083e+01
1.010000e-06	-3.563708e-06	-1.053798e-09	-2.483885e+01	-7.174884e+01
1.020000e-06	-3.527890e-06	-1.055264e-09	-2.458920e+01	-7.132172e+01
1.030000e-06	-3.491852e-06	-1.038116e-09	-2.433802e+01	-7.088943e+01
1.040000e-06	-3.455612e-06	-1.029041e-09	-2.408543e+01	-7.045191e+01
1.050000e-06	-3.419153e-06	-1.027120e-09	-2.383132e+01	-7.000910e+01
1.060000e-06	-3.382428e-06	-1.011046e-09	-2.357534e+01	-6.956095e+01
1.070000e-06	-3.345437e-06	-9.992214e-10	-2.331752e+01	-6.910741e+01
1.080000e-06	-3.308168e-06	-9.974367e-10	-2.305776e+01	-6.864844e+01
1.090000e-06	-3.270649e-06	-9.885675e-10	-2.279625e+01	-6.818400e+01
1.100000e-06	-3.232983e-06	-9.758809e-10	-2.253372e+01	-6.771404e+01
1.110000e-06	-3.195034e-06	-9.744497e-10	-2.226922e+01	-6.723854e+01
1.120000e-06	-3.156781e-06	-9.683406e-10	-2.200260e+01	-6.675746e+01
1.130000e-06	-3.118282e-06	-9.557758e-10	-2.173426e+01	-6.627079e+01
1.140000e-06	-3.079730e-06	-9.457980e-10	-2.146555e+01	-6.577848e+01
1.150000e-06	-3.041058e-06	-9.404253e-10	-2.119601e+01	-6.528053e+01
1.160000e-06	-3.002003e-06	-9.271588e-10	-2.092380e+01	-6.477691e+01
1.170000e-06	-2.962685e-06	-9.202016e-10	-2.064975e+01	-6.426761e+01
1.180000e-06	-2.923242e-06	-9.184652e-10	-2.037484e+01	-6.375261e+01
1.190000e-06	-2.883711e-06	-9.135590e-10	-2.009931e+01	-6.323191e+01
1.200000e-06	-2.844082e-06	-9.016429e-10	-1.982310e+01	-6.270549e+01
1.210000e-06	-2.804344e-06	-8.962926e-10	-1.954613e+01	-6.217335e+01
1.220000e-06	-2.764425e-06	-8.858654e-10	-1.926790e+01	-6.163548e+01
1.230000e-06	-2.724307e-06	-8.740276e-10	-1.898827e+01	-6.109187e+01
1.240000e-06	-2.684114e-06	-8.653892e-10	-1.870813e+01	-6.054252e+01
1.250000e-06	-2.643851e-06	-8.598884e-10	-1.842750e+01	-5.998742e+01
1.260000e-06	-2.603237e-06	-8.491974e-10	-1.814442e+01	-5.942655e+01
1.270000e-06	-2.562270e-06	-8.382471e-10	-1.785888e+01	-5.885991e+01
1.280000e-06	-2.521016e-06	-8.310457e-10	-1.757135e+01	-5.828748e+01
1.290000e-06	-2.479393e-06	-8.215780e-10	-1.728124e+01	-5.770923e+01
1.300000e-06	-2.437545e-06	-8.067674e-10	-1.698955e+01	-5.712515e+01
1.310000e-06	-2.395488e-06	-7.963664e-10	-1.669642e+01	-5.653519e+01
1.320000e-06	-2.353047e-06	-7.861038e-10	-1.640061e+01	-5.593933e+01
1.330000e-06	-2.310386e-06	-7.779460e-10	-1.610326e+01	-5.533751e+01
1.340000e-06	-2.267550e-06	-7.717984e-10	-1.580470e+01	-5.472967e+01
1.350000e-06	-2.224391e-06	-7.653159e-10	-1.550389e+01	-5.411575e+01
1.360000e-06	-2.181003e-06	-7.531970e-10	-1.520147e+01	-5.349566e+01
1.370000e-06	-2.137507e-06	-7.412652e-10	-1.489831e+01	-5.286931e+01
1.380000e-06	-2.093923e-06	-7.325081e-10	-1.459453e+01	-5.223660e+01
1.390000e-06	-2.050247e-06	-7.214251e-10	-1.429011e+01	-5.159740e+01
1.400000e-06	-2.006501e-06	-7.110085e-10	-1.398520e+01	-5.095158e+01
1.410000e-06	-1.962669e-06	-7.015580e-10	-1.367970e+01	-5.029897e+01
1.420000e-06	-1.918786e-06	-6.955942e-10	-1.337384e+01	-4.963940e+01
1.430000e-06	-1.874886e-06	-6.876298e-10	-1.306786e+01	-4.897269e+01
1.440000e-06	-1.830895e-06	-6.781569e-10	-1.276124e+01	-4.829863e+01
1.450000e-06	-1.786735e-06	-6.672617e-10	-1.245345e+01	-4.761697e+01
1.460000e-06	-1.742465e-06	-6.533465e-10	-1.214489e+01	-4.692748e+01
1.470000e-06	-1.698199e-06	-6.364915e-10	-1.183636e+01	-4.622989e+01
1.480000e-06	-1.653811e-06	-6.211833e-10	-1.152697e+01	-4.552390e+01
1.490000e-06	-1.609191e-06	-6.079260e-10	-1.121598e+01	-4.480921e+01
1.500000e-06	-1.564446e-06	-6.021560e-10	-1.090410e+01	-4.408549e+01
1.510000e-06	-1.519628e-06	-5.959822e-10	-1.059173e+01	-4.335240e+01
1.520000e-06	-1.474696e-06	-5.886889e-10	-1.027855e+01	-4.260957e+01
1.530000e-06	-1.429598e-06	-5.771026e-10	-9.964223e+00	-4.185662e+01
1.540000e-06	-1.384394e-06	-5.647344e-10	-9.649152e+00	-4.109316e+01
1.550000e-06	-1.339048e-06	-5.497383e-10	-9.333094e+00	-4.031878e+01
1.560000e-06	-1.293544e-06	-5.341335e-10	-9.015935e+00	-3.953307e+01
1.570000e-06	-1.248047e-06	-5.180902e-10	-8.698818e+00	-3.873559e+01
1.580000e-06	-1.202527e-06	-5.055950e-10	-8.381548e+00	-3.792591e+01
1.590000e-06	-1.156857e-06	-4.982492e-10	-8.063234e+00	-3.710359e+01
1.600000e-06	-1.111161e-06	-4.914568e-10	-7.744730e+00	-3.626818e+01
1.610000e-06	-1.065448e-06	-4.795319e-10	-7.426115e+00	-3.541925e+01
1.620000e-06	-1.019607e-06	-4.638654e-10	-7.106608e+00	-3.455635e+01
1.630000e-06	-9.736561e-07	-4.481069e-10	-6.786331e+00	-3.367906e+01
1.640000e-06	-9.276204e-07	-4.332961e-10	-6.465464e+00	-3.278695e+01
1.650000e-06	-8.813867e-07	-4.186299e-10	-6.143218e+00	-3.187963e+01
1.660000e-06	-8.350333e-07	-4.051559e-10	-5.820138e+00	-3.095669e+01
1.670000e-06	-7.887754e-07	-3.929012e-10	-5.497722e+00	-3.001778e+01
1.680000e-06	-7.425435e-07	-3.785561e-10	-5.175489e+00	-2.906255e+01
1.690000e-06	-6.963126e-07	-3.646812e-10	-4.853261e+00	-2.809068e+01
1.700000e-06	-6.500141e-07	-3.500700e-10	-4.530563e+00	-2.710189e+01
1.710000e-06	-6.035692e-07	-3.351571e-10	-4.206845e+00	-2.609595e+01
1.720000e-06	-5.570587e-07	-3.164553e-10	-3.882670e+00	-2.507263e+01
1.730000e-06	-5.105367e-07	-2.972682e-10	-3.558414e+00	-2.403177e+01
1.740000e-06	-4.640177e-07	-2.781957e-10	-3.234179e+00	-2.297326e+01
1.750000e-06	-4.174574e-07	-2.620789e-10	-2.909656e+00	-2.189702e+01
1.760000e-06	-3.708678e-07	-2.495188e-10	-2.584928e+00	-2.080304e+01
1.770000e-06	-3.241918e-07	-2.370483e-10	-2.259600e+00	-1.969135e+01
1.780000e-06	-2.774430e-07	-2.222311e-10	-1.933763e+00	-1.856205e+01
1.790000e-06	-2.307424e-07	-2.054145e-10	-1.608262e+00	-1.741529e+01
1.800000e-06	-1.840021e-07	-1.866922e-10	-1.282485e+00	-1.625127e+01
1.810000e-06	-1.372347e-07	-1.697638e-10	-9.565185e-01	-1.507028e+01
1.820000e-06	-9.050401e-08	-1.543325e-10	-6.308081e-01	-1.387265e+01
1.830000e-06	-4.375140e-08	-1.406887e-10	-3.049449e-01	-1.265878e+01
1.840000e-06	3.081248e-09	-1.273253e-10	2.147613e-02	-1.142915e+01
1.850000e-06	4.985587e-08	-1.114044e-10	3.474928e-01	-1.018427e+01
1.860000e-06	9.659092e-08	-9.327543e-11	6.732335e-01	-8.924739e+00
1.870000e-06	1.433000e-07	-7.262463e-11	9.987930e-01	-7.651216e+00
1.880000e-06	1.899091e-07	-5.040229e-11	1.323656e+00	-6.364413e+00
1.890000e-06	2.365166e-07	-2.926221e-11	1.648508e+00	-5.065106e+00
1.900000e-06	2.830819e-07	-1.139856e-11	1.973065e+00	-3.754127e+00
1.910000e-06	3.296395e-07	4.712439e-12	2.297570e+00	-2.432359e+00
1.920000e-06	3.762894e-07	1.967380e-11	2.622717e+00	-1.100741e+00
1.930000e-06	4.228466e-07	3.466317e-11	2.947218e+00	2.397431e-01
1.940000e-06	4.692199e-07	5.276050e-11	3.270437e+00	1.588066e+00
1.950000e-06	5.156554e-07	7.333191e-11	3.594091e+00	2.943160e+00
1.960000e-06	5.620594e-07	9.501919e-11	3.917524e+00	4.303923e+00
1.970000e-06	6.083590e-07	1.152868e-10	4.240229e+00	5.669220e+00
1.980000e-06	6.546177e-07	1.348697e-10	4.562651e+00	7.037893e+00
1.990000e-06	7.008408e-07	1.544064e-10	4.884823e+00	8.408762e+00
2.000000e-06	7.470971e-07	1.692951e-10	5.207227e+00	9.780634e+00
2.010000e-06	7.933376e-07	1.850226e-10	5.529521e+00	1.115230e+01
2.020000e-06	8.395106e-07	2.053542e-10	5.851344e+00	1.252257e+01
2.030000e-06	8.855630e-07	2.274243e-10	6.172327e+00	1.389021e+01
2.040000e-06	9.315249e-07	2.468672e-10	6.492679e+00	1.525404e+01
2.050000e-06	9.774398e-07	2.650906e-10	6.812703e+00	1.661287e+01
2.060000e-06	1.023344e-06	2.834837e-10	7.132650e+00	1.796554e+01
2.070000e-06	1.069252e-06	3.028692e-10	7.452630e+00	1.931089e+01
2.080000e-06	1.115100e-06	3.221379e-10	7.772187e+00	2.064782e+01
2.090000e-06	1.160815e-06	3.416781e-10	8.090821e+00	2.197524e+01
2.100000e-06	1.206386e-06	3.609956e-10	8.408449e+00	2.329211e+01
2.110000e-06	1.251872e-06	3.778958e-10	8.725483e+00	2.459744e+01
2.120000e-06	1.297331e-06	3.936386e-10	9.042326e+00	2.589027e+01
2.130000e-06	1.342679e-06	4.095730e-10	9.358400e+00	2.716971e+01
2.140000e-06	1.387834e-06	4.266007e-10	9.673130e+00	2.843492e+01
2.150000e-06	1.432877e-06	4.445056e-10	9.987077e+00	2.968510e+01
2.160000e-06	1.477823e-06	4.617592e-10	1.030035e+01	3.091953e+01
2.170000e-06	1.522655e-06	4.800300e-10	1.061282e+01	3.213756e+01
2.180000e-06	1.567364e-06	5.012355e-10	1.092444e+01	3.333858e+01
2.190000e-06	1.611884e-06	5.196748e-10	1.123474e+01	3.452207e+01
2.200000e-06	1.656326e-06	5.342976e-10	1.154450e+01	3.568756e+01
2.210000e-06	1.700715e-06	5.484528e-10	1.185390e+01	3.683466e+01
2.220000e-06	1.745010e-06	5.641579e-10	1.216263e+01	3.796305e+01
2.230000e-06	1.789183e-06	5.800413e-10	1.247051e+01	3.907246e+01
2.240000e-06	1.833188e-06	5.922204e-10	1.277722e+01	4.016270e+01
2.250000e-06	1.877085e-06	6.027356e-10	1.308318e+01	4.123363e+01
2.260000e-06	1.920939e-06	6.147209e-10	1.338884e+01	4.228520e+01
2.270000e-06	1.964742e-06	6.343002e-10	1.369414e+01	4.331740e+01
2.280000e-06	2.008474e-06	6.553097e-10	1.399896e+01	4.433028e+01
2.290000e-06	2.052148e-06	6.734803e-10	1.430336e+01	4.532395e+01
2.300000e-06	2.095753e-06	6.864515e-10	1.460728e+01	4.629856e+01
2.310000e-06	2.139337e-06	6.962902e-10	1.491106e+01	4.725433e+01
2.320000e-06	2.182818e-06	7.074677e-10	1.521413e+01	4.819150e+01
2.330000e-06	2.226167e-06	7.177081e-10	1.551626e+01	4.911037e+01
2.340000e-06	2.269324e-06	7.310419e-10	1.581707e+01	5.001127e+01
2.350000e-06	2.312287e-06	7.500915e-10	1.611652e+01	5.089456e+01
2.360000e-06	2.354977e-06	7.702950e-10	1.641406e+01	5.176063e+01
2.370000e-06	2.397294e-06	7.856225e-10	1.670901e+01	5.260989e+01
2.380000e-06	2.439307e-06	7.978819e-10	1.700184e+01	5.344277e+01
2.390000e-06	2.481093e-06	8.082850e-10	1.729309e+01	5.425972e+01
2.400000e-06	2.522614e-06	8.182602e-10	1.758248e+01	5.506119e+01
2.410000e-06	2.563705e-06	8.278883e-10	1.786889e+01	5.584764e+01
2.420000e-06	2.604449e-06	8.390677e-10	1.815287e+01	5.661955e+01
2.430000e-06	2.644906e-06	8.529644e-10	1.843485e+01	5.737736e+01
2.440000e-06	2.685191e-06	8.652192e-10	1.871564e+01	5.812154e+01
2.450000e-06	2.725367e-06	8.753460e-10	1.899566e+01	5.885253e+01
2.460000e-06	2.765373e-06	8.895081e-10	1.927450e+01	5.957077e+01
2.470000e-06	2.805276e-06	9.030545e-10	1.955263e+01	6.027667e+01
2.480000e-06	2.845072e-06	9.140398e-10	1.983000e+01	6.097065e+01
2.490000e-06	2.884683e-06	9.232915e-10	2.010609e+01	6.165307e+01
2.500000e-06	2.924168e-06	9.307116e-10	2.038129e+01	6.232431e+01
2.510000e-06	2.963540e-06	9.388051e-10	2.065572e+01	6.298470e+01
2.520000e-06	3.002662e-06	9.477446e-10	2.092839e+01	6.363456e+01
2.530000e-06	3.041651e-06	9.565779e-10	2.120014e+01	6.427416e+01
2.540000e-06	3.080503e-06	9.648741e-10	2.147094e+01	6.490378e+01
2.550000e-06	3.119092e-06	9.740687e-10	2.173990e+01	6.552366e+01
2.560000e-06	3.157419e-06	9.834161e-10	2.200704e+01	6.613400e+01
2.570000e-06	3.195510e-06	9.906964e-10	2.227253e+01	6.673498e+01
2.580000e-06	3.233337e-06	9.980640e-10	2.253618e+01	6.732678e+01
2.590000e-06	3.270935e-06	1.006588e-09	2.279824e+01	6.790953e+01
2.600000e-06	3.308369e-06	1.016490e-09	2.305915e+01	6.848335e+01
2.610000e-06	3.345490e-06	1.024994e-09	2.331788e+01	6.904834e+01
2.620000e-06	3.382376e-06	1.030223e-09	2.357498e+01	6.960457e+01
2.630000e-06	3.419076e-06	1.031893e-09	2.383078e+01	7.015211e+01
2.640000e-06	3.455505e-06	1.032821e-09	2.408468e+01	7.069100e+01
2.650000e-06	3.491734e-06	1.038457e-09	2.433720e+01	7.122129e+01
2.660000e-06	3.527699e-06	1.046890e-09	2.458788e+01	7.174300e+01
2.670000e-06	3.563447e-06	1.056477e-09	2.483703e+01	7.225614e+01
2.680000e-06	3.599115e-06	1.067360e-09	2.508564e+01	7.276074e+01
2.690000e-06	3.634651e-06	1.076453e-09	2.533332e+01	7.325680e+01
2.700000e-06	3.670073e-06	1.082893e-09	2.558021e+01	7.374434e+01
2.710000e-06	3.705321e-06	1.089082e-09	2.582589e+01	7.422336e+01
2.720000e-06	3.740195e-06	1.093803e-09	2.606896e+01	7.469389e+01
2.730000e-06	3.774656e-06	1.097076e-09	2.630915e+01	7.515595e+01
2.740000e-06	3.808695e-06	1.101982e-09	2.654640e+01	7.560957e+01
2.750000e-06	3.842323e-06	1.108665e-09	2.678079e+01	7.605480e+01
2.760000e-06	3.875476e-06	1.116278e-09	2.701186e+01	7.649167e+01
2.770000e-06	3.908157e-06	1.125219e-09	2.723964e+01	7.692026e+01
2.780000e-06	3.940532e-06	1.134337e-09	2.746530e+01	7.734065e+01
2.790000e-06	3.972665e-06	1.143785e-09	2.768926e+01	7.775291e+01
2.800000e-06	4.004582e-06	1.151363e-09	2.791172e+01	7.815717e+01
2.810000e-06	4.036294e-06	1.158448e-09	2.813276e+01	7.855353e+01
2.820000e-06	4.067853e-06	1.164971e-09	2.835272e+01	7.894213e+01
2.830000e-06	4.099236e-06	1.170206e-09	2.857146e+01	7.932313e+01
2.840000e-06	4.130226e-06	1.175250e-09	2.878745e+01	7.969668e+01
2.850000e-06	4.160878e-06	1.182650e-09	2.900110e+01	8.006295e+01
2.860000e-06	4.191290e-06	1.189698e-09	2.921307e+01	8.042214e+01
2.870000e-06	4.221411e-06	1.193540e-09	2.942301e+01	8.077444e+01
2.880000e-06	4.251378e-06	1.198819e-09	2.963188e+01	8.112005e+01
2.890000e-06	4.281066e-06	1.205362e-09	2.983880e+01	8.145920e+01
2.900000e-06	4.310371e-06	1.211285e-09	3.004306e+01	8.179211e+01
2.910000e-06	4.339462e-06	1.216304e-09	3.024582e+01	8.211899e+01
