# Temperatura_=_-0.8
# Concentracion g/m^3_=_1620.0
# C_Vs_to_Am_M_A/Vsm_=_65563218390.804596
# pendiente_HvsI_1/m_=_3716.3
# ordenada_HvsI_A/m_=_1297.0
# frecuencia_Hz_=_135104.19261642345

Tiempo_(s)	Campo_(V.s)	Magnetizacion_(V.s)	Campo_(kA/m)	Magnetizacion_(A/m)
0.000000e+00	-5.522698e-06	-1.196843e-09	-3.837293e+01	-7.990568e+01
1.000000e-08	-5.522913e-06	-1.193573e-09	-3.837442e+01	-7.987274e+01
2.000000e-08	-5.522927e-06	-1.193136e-09	-3.837452e+01	-7.984059e+01
3.000000e-08	-5.522610e-06	-1.194291e-09	-3.837232e+01	-7.980920e+01
4.000000e-08	-5.521744e-06	-1.192509e-09	-3.836630e+01	-7.977853e+01
5.000000e-08	-5.520236e-06	-1.178950e-09	-3.835582e+01	-7.974850e+01
6.000000e-08	-5.518134e-06	-1.160213e-09	-3.834121e+01	-7.971904e+01
7.000000e-08	-5.515416e-06	-1.159094e-09	-3.832233e+01	-7.969002e+01
8.000000e-08	-5.512191e-06	-1.226135e-09	-3.829992e+01	-7.966132e+01
9.000000e-08	-5.508554e-06	-1.337755e-09	-3.827466e+01	-7.963279e+01
1.000000e-07	-5.504436e-06	-1.313728e-09	-3.824604e+01	-7.960426e+01
1.100000e-07	-5.499971e-06	-1.118676e-09	-3.821502e+01	-7.957555e+01
1.200000e-07	-5.495429e-06	-1.077339e-09	-3.818346e+01	-7.954646e+01
1.300000e-07	-5.490628e-06	-1.173160e-09	-3.815010e+01	-7.951680e+01
1.400000e-07	-5.485332e-06	-1.280117e-09	-3.811330e+01	-7.948632e+01
1.500000e-07	-5.479628e-06	-1.130367e-09	-3.807367e+01	-7.945481e+01
1.600000e-07	-5.473673e-06	-1.080793e-09	-3.803229e+01	-7.942202e+01
1.700000e-07	-5.467294e-06	-1.202365e-09	-3.798797e+01	-7.938771e+01
1.800000e-07	-5.460347e-06	-1.308969e-09	-3.793970e+01	-7.935164e+01
1.900000e-07	-5.453051e-06	-1.207066e-09	-3.788900e+01	-7.931356e+01
2.000000e-07	-5.445522e-06	-1.096293e-09	-3.783669e+01	-7.927320e+01
2.100000e-07	-5.437734e-06	-1.183322e-09	-3.778258e+01	-7.923033e+01
2.200000e-07	-5.429719e-06	-1.275977e-09	-3.772689e+01	-7.918470e+01
2.300000e-07	-5.421513e-06	-1.248859e-09	-3.766987e+01	-7.913606e+01
2.400000e-07	-5.412831e-06	-1.161602e-09	-3.760955e+01	-7.908418e+01
2.500000e-07	-5.403317e-06	-1.215479e-09	-3.754345e+01	-7.902884e+01
2.600000e-07	-5.393091e-06	-1.232607e-09	-3.747239e+01	-7.896981e+01
2.700000e-07	-5.382382e-06	-1.203754e-09	-3.739798e+01	-7.890690e+01
2.800000e-07	-5.371131e-06	-1.150376e-09	-3.731981e+01	-7.883989e+01
2.900000e-07	-5.359463e-06	-1.217425e-09	-3.723874e+01	-7.876861e+01
3.000000e-07	-5.347552e-06	-1.217423e-09	-3.715597e+01	-7.869288e+01
3.100000e-07	-5.335241e-06	-1.184090e-09	-3.707044e+01	-7.861256e+01
3.200000e-07	-5.322339e-06	-1.148334e-09	-3.698079e+01	-7.852749e+01
3.300000e-07	-5.308991e-06	-1.209867e-09	-3.688805e+01	-7.843755e+01
3.400000e-07	-5.295350e-06	-1.212260e-09	-3.679326e+01	-7.834263e+01
3.500000e-07	-5.281305e-06	-1.185841e-09	-3.669568e+01	-7.824263e+01
3.600000e-07	-5.266740e-06	-1.175985e-09	-3.659447e+01	-7.813747e+01
3.700000e-07	-5.251866e-06	-1.221591e-09	-3.649113e+01	-7.802709e+01
3.800000e-07	-5.236577e-06	-1.179594e-09	-3.638490e+01	-7.791143e+01
3.900000e-07	-5.220666e-06	-1.142868e-09	-3.627434e+01	-7.779046e+01
4.000000e-07	-5.204347e-06	-1.189471e-09	-3.616096e+01	-7.766417e+01
4.100000e-07	-5.187699e-06	-1.211399e-09	-3.604528e+01	-7.753253e+01
4.200000e-07	-5.170626e-06	-1.140635e-09	-3.592666e+01	-7.739557e+01
4.300000e-07	-5.153201e-06	-1.149019e-09	-3.580558e+01	-7.725331e+01
4.400000e-07	-5.135523e-06	-1.241304e-09	-3.568275e+01	-7.710577e+01
4.500000e-07	-5.117483e-06	-1.195494e-09	-3.555741e+01	-7.695299e+01
4.600000e-07	-5.098979e-06	-1.130669e-09	-3.542884e+01	-7.679505e+01
4.700000e-07	-5.080065e-06	-1.181037e-09	-3.529742e+01	-7.663199e+01
4.800000e-07	-5.060869e-06	-1.210589e-09	-3.516404e+01	-7.646390e+01
4.900000e-07	-5.041384e-06	-1.133009e-09	-3.502865e+01	-7.629086e+01
5.000000e-07	-5.021673e-06	-1.160218e-09	-3.489170e+01	-7.611296e+01
5.100000e-07	-5.001754e-06	-1.191108e-09	-3.475329e+01	-7.593030e+01
5.200000e-07	-4.981466e-06	-1.134008e-09	-3.461233e+01	-7.574298e+01
5.300000e-07	-4.960793e-06	-1.122235e-09	-3.446869e+01	-7.555111e+01
5.400000e-07	-4.939845e-06	-1.209093e-09	-3.432314e+01	-7.535480e+01
5.500000e-07	-4.918540e-06	-1.162204e-09	-3.417511e+01	-7.515416e+01
5.600000e-07	-4.896880e-06	-1.103480e-09	-3.402461e+01	-7.494933e+01
5.700000e-07	-4.874956e-06	-1.147273e-09	-3.387227e+01	-7.474042e+01
5.800000e-07	-4.852727e-06	-1.169278e-09	-3.371782e+01	-7.452756e+01
5.900000e-07	-4.830083e-06	-1.101920e-09	-3.356049e+01	-7.431087e+01
6.000000e-07	-4.807024e-06	-1.121917e-09	-3.340026e+01	-7.409048e+01
6.100000e-07	-4.783663e-06	-1.144893e-09	-3.323795e+01	-7.386652e+01
6.200000e-07	-4.760045e-06	-1.106360e-09	-3.307385e+01	-7.363910e+01
6.300000e-07	-4.736204e-06	-1.096212e-09	-3.290820e+01	-7.340837e+01
6.400000e-07	-4.712142e-06	-1.132878e-09	-3.274101e+01	-7.317443e+01
6.500000e-07	-4.687779e-06	-1.110471e-09	-3.257173e+01	-7.293743e+01
6.600000e-07	-4.663001e-06	-1.095565e-09	-3.239956e+01	-7.269747e+01
6.700000e-07	-4.637680e-06	-1.115922e-09	-3.222363e+01	-7.245469e+01
6.800000e-07	-4.611751e-06	-1.106589e-09	-3.204346e+01	-7.220919e+01
6.900000e-07	-4.585312e-06	-1.082373e-09	-3.185976e+01	-7.196109e+01
7.000000e-07	-4.558408e-06	-1.092430e-09	-3.167283e+01	-7.171050e+01
7.100000e-07	-4.531061e-06	-1.092543e-09	-3.148281e+01	-7.145754e+01
7.200000e-07	-4.503471e-06	-1.075386e-09	-3.129111e+01	-7.120231e+01
7.300000e-07	-4.475726e-06	-1.080489e-09	-3.109833e+01	-7.094491e+01
7.400000e-07	-4.447831e-06	-1.081041e-09	-3.090451e+01	-7.068544e+01
7.500000e-07	-4.419697e-06	-1.071076e-09	-3.070903e+01	-7.042399e+01
7.600000e-07	-4.391260e-06	-1.066955e-09	-3.051145e+01	-7.016066e+01
7.700000e-07	-4.362552e-06	-1.069340e-09	-3.031198e+01	-6.989551e+01
7.800000e-07	-4.333476e-06	-1.054600e-09	-3.010995e+01	-6.962864e+01
7.900000e-07	-4.304053e-06	-1.058915e-09	-2.990551e+01	-6.936012e+01
8.000000e-07	-4.274398e-06	-1.061818e-09	-2.969946e+01	-6.909000e+01
8.100000e-07	-4.244467e-06	-1.049848e-09	-2.949150e+01	-6.881835e+01
8.200000e-07	-4.214216e-06	-1.034040e-09	-2.928130e+01	-6.854523e+01
8.300000e-07	-4.183675e-06	-1.040338e-09	-2.906910e+01	-6.827067e+01
8.400000e-07	-4.152855e-06	-1.028906e-09	-2.885495e+01	-6.799470e+01
8.500000e-07	-4.121734e-06	-1.016312e-09	-2.863872e+01	-6.771737e+01
8.600000e-07	-4.090437e-06	-1.015408e-09	-2.842126e+01	-6.743868e+01
8.700000e-07	-4.058981e-06	-1.018461e-09	-2.820270e+01	-6.715864e+01
8.800000e-07	-4.027341e-06	-1.003580e-09	-2.798286e+01	-6.687725e+01
8.900000e-07	-3.995565e-06	-1.006353e-09	-2.776207e+01	-6.659450e+01
9.000000e-07	-3.963575e-06	-1.005185e-09	-2.753979e+01	-6.631036e+01
9.100000e-07	-3.931275e-06	-9.915135e-10	-2.731537e+01	-6.602481e+01
9.200000e-07	-3.898603e-06	-9.802335e-10	-2.708836e+01	-6.573779e+01
9.300000e-07	-3.865520e-06	-9.864123e-10	-2.685849e+01	-6.544924e+01
9.400000e-07	-3.831814e-06	-9.808866e-10	-2.662429e+01	-6.515911e+01
9.500000e-07	-3.797590e-06	-9.725832e-10	-2.638650e+01	-6.486731e+01
9.600000e-07	-3.763038e-06	-9.706095e-10	-2.614642e+01	-6.457374e+01
9.700000e-07	-3.728127e-06	-9.645502e-10	-2.590386e+01	-6.427829e+01
9.800000e-07	-3.692906e-06	-9.515519e-10	-2.565913e+01	-6.398087e+01
9.900000e-07	-3.657450e-06	-9.516396e-10	-2.541277e+01	-6.368132e+01
1.000000e-06	-3.621838e-06	-9.556196e-10	-2.516533e+01	-6.337953e+01
1.010000e-06	-3.586081e-06	-9.483069e-10	-2.491689e+01	-6.307533e+01
1.020000e-06	-3.550200e-06	-9.418607e-10	-2.466758e+01	-6.276856e+01
1.030000e-06	-3.514156e-06	-9.369643e-10	-2.441714e+01	-6.245906e+01
1.040000e-06	-3.477854e-06	-9.281260e-10	-2.416490e+01	-6.214664e+01
1.050000e-06	-3.441308e-06	-9.166028e-10	-2.391097e+01	-6.183112e+01
1.060000e-06	-3.404502e-06	-9.159599e-10	-2.365523e+01	-6.151231e+01
1.070000e-06	-3.367370e-06	-9.121029e-10	-2.339723e+01	-6.119000e+01
1.080000e-06	-3.329966e-06	-9.075424e-10	-2.313734e+01	-6.086398e+01
1.090000e-06	-3.292389e-06	-9.025573e-10	-2.287625e+01	-6.053404e+01
1.100000e-06	-3.254637e-06	-8.979590e-10	-2.261394e+01	-6.019998e+01
1.110000e-06	-3.216676e-06	-8.858134e-10	-2.235018e+01	-5.986157e+01
1.120000e-06	-3.178450e-06	-8.785206e-10	-2.208457e+01	-5.951859e+01
1.130000e-06	-3.139986e-06	-8.729180e-10	-2.181732e+01	-5.917083e+01
1.140000e-06	-3.101270e-06	-8.692125e-10	-2.154831e+01	-5.881807e+01
1.150000e-06	-3.062263e-06	-8.621007e-10	-2.127728e+01	-5.846010e+01
1.160000e-06	-3.023151e-06	-8.586537e-10	-2.100552e+01	-5.809671e+01
1.170000e-06	-2.983932e-06	-8.503686e-10	-2.073302e+01	-5.772768e+01
1.180000e-06	-2.944496e-06	-8.450920e-10	-2.045901e+01	-5.735283e+01
1.190000e-06	-2.904897e-06	-8.398971e-10	-2.018387e+01	-5.697195e+01
1.200000e-06	-2.865189e-06	-8.330420e-10	-1.990797e+01	-5.658487e+01
1.210000e-06	-2.825392e-06	-8.226766e-10	-1.963145e+01	-5.619140e+01
1.220000e-06	-2.785471e-06	-8.154358e-10	-1.935407e+01	-5.579138e+01
1.230000e-06	-2.745341e-06	-8.092460e-10	-1.907524e+01	-5.538464e+01
1.240000e-06	-2.705008e-06	-8.025532e-10	-1.879499e+01	-5.497105e+01
1.250000e-06	-2.664555e-06	-7.961183e-10	-1.851391e+01	-5.455045e+01
1.260000e-06	-2.623910e-06	-7.895579e-10	-1.823151e+01	-5.412272e+01
1.270000e-06	-2.582936e-06	-7.809372e-10	-1.794681e+01	-5.368774e+01
1.280000e-06	-2.541682e-06	-7.730495e-10	-1.766017e+01	-5.324540e+01
1.290000e-06	-2.500078e-06	-7.648970e-10	-1.737109e+01	-5.279561e+01
1.300000e-06	-2.458132e-06	-7.566621e-10	-1.707965e+01	-5.233826e+01
1.310000e-06	-2.415941e-06	-7.485099e-10	-1.678650e+01	-5.187329e+01
1.320000e-06	-2.373424e-06	-7.402093e-10	-1.649107e+01	-5.140060e+01
1.330000e-06	-2.330590e-06	-7.316547e-10	-1.619345e+01	-5.092015e+01
1.340000e-06	-2.287542e-06	-7.242890e-10	-1.589435e+01	-5.043185e+01
1.350000e-06	-2.244321e-06	-7.205421e-10	-1.559404e+01	-4.993565e+01
1.360000e-06	-2.200939e-06	-7.152587e-10	-1.529261e+01	-4.943149e+01
1.370000e-06	-2.157398e-06	-7.096222e-10	-1.499008e+01	-4.891932e+01
1.380000e-06	-2.113756e-06	-7.026355e-10	-1.468684e+01	-4.839907e+01
1.390000e-06	-2.070046e-06	-6.944168e-10	-1.438314e+01	-4.787068e+01
1.400000e-06	-2.026249e-06	-6.829963e-10	-1.407883e+01	-4.733410e+01
1.410000e-06	-1.982402e-06	-6.728712e-10	-1.377417e+01	-4.678924e+01
1.420000e-06	-1.938490e-06	-6.620896e-10	-1.346906e+01	-4.623602e+01
1.430000e-06	-1.894515e-06	-6.548235e-10	-1.316351e+01	-4.567436e+01
1.440000e-06	-1.850447e-06	-6.467999e-10	-1.285732e+01	-4.510416e+01
1.450000e-06	-1.806225e-06	-6.371620e-10	-1.255005e+01	-4.452529e+01
1.460000e-06	-1.761911e-06	-6.260370e-10	-1.224215e+01	-4.393763e+01
1.470000e-06	-1.717520e-06	-6.152331e-10	-1.193371e+01	-4.334103e+01
1.480000e-06	-1.672992e-06	-6.022717e-10	-1.162432e+01	-4.273532e+01
1.490000e-06	-1.628316e-06	-5.901273e-10	-1.131390e+01	-4.212032e+01
1.500000e-06	-1.583484e-06	-5.793024e-10	-1.100239e+01	-4.149584e+01
1.510000e-06	-1.538475e-06	-5.721862e-10	-1.068967e+01	-4.086163e+01
1.520000e-06	-1.493314e-06	-5.639278e-10	-1.037587e+01	-4.021745e+01
1.530000e-06	-1.448065e-06	-5.549763e-10	-1.006148e+01	-3.956305e+01
1.540000e-06	-1.402738e-06	-5.430952e-10	-9.746535e+00	-3.889812e+01
1.550000e-06	-1.357282e-06	-5.301982e-10	-9.430694e+00	-3.822235e+01
1.560000e-06	-1.311694e-06	-5.166716e-10	-9.113943e+00	-3.753541e+01
1.570000e-06	-1.266019e-06	-5.032751e-10	-8.796578e+00	-3.683695e+01
1.580000e-06	-1.220322e-06	-4.926091e-10	-8.479067e+00	-3.612659e+01
1.590000e-06	-1.174573e-06	-4.836886e-10	-8.161190e+00	-3.540394e+01
1.600000e-06	-1.128738e-06	-4.735811e-10	-7.842720e+00	-3.466860e+01
1.610000e-06	-1.082848e-06	-4.610977e-10	-7.523870e+00	-3.392014e+01
1.620000e-06	-1.036920e-06	-4.501867e-10	-7.204747e+00	-3.315814e+01
1.630000e-06	-9.909480e-07	-4.423596e-10	-6.885326e+00	-3.238215e+01
1.640000e-06	-9.448956e-07	-4.352190e-10	-6.565344e+00	-3.159172e+01
1.650000e-06	-8.987330e-07	-4.233543e-10	-6.244596e+00	-3.078641e+01
1.660000e-06	-8.524838e-07	-4.092431e-10	-5.923246e+00	-2.996576e+01
1.670000e-06	-8.062219e-07	-3.932842e-10	-5.601808e+00	-2.912933e+01
1.680000e-06	-7.598893e-07	-3.775636e-10	-5.279879e+00	-2.827668e+01
1.690000e-06	-7.134143e-07	-3.624567e-10	-4.956960e+00	-2.740738e+01
1.700000e-06	-6.668385e-07	-3.495699e-10	-4.633342e+00	-2.652103e+01
1.710000e-06	-6.202416e-07	-3.385405e-10	-4.309576e+00	-2.561724e+01
1.720000e-06	-5.736490e-07	-3.266989e-10	-3.985840e+00	-2.469564e+01
1.730000e-06	-5.270700e-07	-3.112867e-10	-3.662199e+00	-2.375590e+01
1.740000e-06	-4.804906e-07	-2.938201e-10	-3.338555e+00	-2.279772e+01
1.750000e-06	-4.337887e-07	-2.755065e-10	-3.014060e+00	-2.182082e+01
1.760000e-06	-3.870368e-07	-2.604760e-10	-2.689218e+00	-2.082500e+01
1.770000e-06	-3.402416e-07	-2.472965e-10	-2.364074e+00	-1.981007e+01
1.780000e-06	-2.933870e-07	-2.349322e-10	-2.038518e+00	-1.877590e+01
1.790000e-06	-2.465329e-07	-2.220273e-10	-1.712965e+00	-1.772243e+01
1.800000e-06	-1.996886e-07	-2.063066e-10	-1.387480e+00	-1.664964e+01
1.810000e-06	-1.528253e-07	-1.887204e-10	-1.061864e+00	-1.555756e+01
1.820000e-06	-1.059188e-07	-1.726072e-10	-7.359470e-01	-1.444632e+01
1.830000e-06	-5.901561e-08	-1.583657e-10	-4.100535e-01	-1.331607e+01
1.840000e-06	-1.215120e-08	-1.428724e-10	-8.442922e-02	-1.216706e+01
1.850000e-06	3.464192e-08	-1.258196e-10	2.406997e-01	-1.099959e+01
1.860000e-06	8.143445e-08	-1.091146e-10	5.658246e-01	-9.814055e+00
1.870000e-06	1.282552e-07	-9.151263e-11	8.911458e-01	-8.610894e+00
1.880000e-06	1.750962e-07	-7.294499e-11	1.216607e+00	-7.390632e+00
1.890000e-06	2.219434e-07	-5.386516e-11	1.542112e+00	-6.153862e+00
1.900000e-06	2.687813e-07	-3.506280e-11	1.867552e+00	-4.901250e+00
1.910000e-06	3.156035e-07	-1.604632e-11	2.192883e+00	-3.633530e+00
1.920000e-06	3.624636e-07	2.380363e-12	2.518478e+00	-2.351504e+00
1.930000e-06	4.093148e-07	1.857993e-11	2.844010e+00	-1.056043e+00
1.940000e-06	4.560903e-07	3.572165e-11	3.169017e+00	2.519213e-01
1.950000e-06	5.027930e-07	5.186054e-11	3.493517e+00	1.571395e+00
1.960000e-06	5.493847e-07	6.752139e-11	3.817246e+00	2.901327e+00
1.970000e-06	5.958972e-07	8.314930e-11	4.140426e+00	4.240615e+00
1.980000e-06	6.423359e-07	1.003322e-10	4.463092e+00	5.588105e+00
1.990000e-06	6.887525e-07	1.208614e-10	4.785605e+00	6.942600e+00
2.000000e-06	7.351178e-07	1.396613e-10	5.107761e+00	8.302863e+00
2.010000e-06	7.813866e-07	1.592220e-10	5.429247e+00	9.667626e+00
2.020000e-06	8.276326e-07	1.796420e-10	5.750575e+00	1.103559e+01
2.030000e-06	8.738519e-07	1.986792e-10	6.071716e+00	1.240543e+01
2.040000e-06	9.200045e-07	2.143632e-10	6.392395e+00	1.377582e+01
2.050000e-06	9.660600e-07	2.300280e-10	6.712399e+00	1.514540e+01
2.060000e-06	1.012012e-06	2.472123e-10	7.031683e+00	1.651283e+01
2.070000e-06	1.057935e-06	2.678539e-10	7.350764e+00	1.787676e+01
2.080000e-06	1.103819e-06	2.903902e-10	7.669576e+00	1.923584e+01
2.090000e-06	1.149659e-06	3.128893e-10	7.988083e+00	2.058875e+01
2.100000e-06	1.195462e-06	3.354876e-10	8.306337e+00	2.193419e+01
2.110000e-06	1.241162e-06	3.516179e-10	8.623871e+00	2.327088e+01
2.120000e-06	1.286735e-06	3.645600e-10	8.940518e+00	2.459758e+01
2.130000e-06	1.332204e-06	3.795026e-10	9.256451e+00	2.591308e+01
2.140000e-06	1.377644e-06	3.972335e-10	9.572176e+00	2.721622e+01
2.150000e-06	1.422983e-06	4.161584e-10	9.887204e+00	2.850589e+01
2.160000e-06	1.468137e-06	4.357750e-10	1.020094e+01	2.978103e+01
2.170000e-06	1.513132e-06	4.540273e-10	1.051358e+01	3.104063e+01
2.180000e-06	1.558002e-06	4.733424e-10	1.082534e+01	3.228375e+01
2.190000e-06	1.602769e-06	4.909170e-10	1.113639e+01	3.350953e+01
2.200000e-06	1.647422e-06	5.065098e-10	1.144666e+01	3.471715e+01
2.210000e-06	1.691962e-06	5.204046e-10	1.175612e+01	3.590587e+01
2.220000e-06	1.736441e-06	5.355492e-10	1.206518e+01	3.707502e+01
2.230000e-06	1.780815e-06	5.508973e-10	1.237349e+01	3.822402e+01
2.240000e-06	1.825040e-06	5.644732e-10	1.268078e+01	3.935235e+01
2.250000e-06	1.869154e-06	5.797083e-10	1.298729e+01	4.045955e+01
2.260000e-06	1.913183e-06	5.930924e-10	1.329322e+01	4.154526e+01
2.270000e-06	1.957150e-06	6.084647e-10	1.359871e+01	4.260918e+01
2.280000e-06	2.001029e-06	6.262744e-10	1.390359e+01	4.365108e+01
2.290000e-06	2.044833e-06	6.445602e-10	1.420795e+01	4.467082e+01
2.300000e-06	2.088584e-06	6.585341e-10	1.451194e+01	4.566831e+01
2.310000e-06	2.132234e-06	6.677195e-10	1.481523e+01	4.664352e+01
2.320000e-06	2.175828e-06	6.785269e-10	1.511814e+01	4.759651e+01
2.330000e-06	2.219336e-06	6.911946e-10	1.542044e+01	4.852737e+01
2.340000e-06	2.262649e-06	7.051285e-10	1.572139e+01	4.943628e+01
2.350000e-06	2.305811e-06	7.211161e-10	1.602128e+01	5.032343e+01
2.360000e-06	2.348823e-06	7.392174e-10	1.632015e+01	5.118910e+01
2.370000e-06	2.391559e-06	7.547982e-10	1.661708e+01	5.203358e+01
2.380000e-06	2.433956e-06	7.666918e-10	1.691167e+01	5.285724e+01
2.390000e-06	2.476072e-06	7.755860e-10	1.720430e+01	5.366044e+01
2.400000e-06	2.517917e-06	7.841823e-10	1.749504e+01	5.444360e+01
2.410000e-06	2.559388e-06	7.949610e-10	1.778320e+01	5.520715e+01
2.420000e-06	2.600502e-06	8.073058e-10	1.806886e+01	5.595156e+01
2.430000e-06	2.641329e-06	8.209697e-10	1.835254e+01	5.667729e+01
2.440000e-06	2.681871e-06	8.339986e-10	1.863423e+01	5.738484e+01
2.450000e-06	2.722126e-06	8.447516e-10	1.891394e+01	5.807470e+01
2.460000e-06	2.762166e-06	8.551627e-10	1.919214e+01	5.874736e+01
2.470000e-06	2.802127e-06	8.645593e-10	1.946980e+01	5.940333e+01
2.480000e-06	2.841982e-06	8.723969e-10	1.974672e+01	6.004309e+01
2.490000e-06	2.881727e-06	8.816039e-10	2.002288e+01	6.066712e+01
2.500000e-06	2.921414e-06	8.898923e-10	2.029863e+01	6.127591e+01
2.510000e-06	2.960920e-06	8.988354e-10	2.057313e+01	6.186990e+01
2.520000e-06	3.000201e-06	9.085774e-10	2.084606e+01	6.244953e+01
2.530000e-06	3.039305e-06	9.152468e-10	2.111776e+01	6.301524e+01
2.540000e-06	3.078196e-06	9.191566e-10	2.138799e+01	6.356742e+01
2.550000e-06	3.116828e-06	9.238954e-10	2.165641e+01	6.410645e+01
2.560000e-06	3.155232e-06	9.310396e-10	2.192325e+01	6.463268e+01
2.570000e-06	3.193440e-06	9.387710e-10	2.218873e+01	6.514644e+01
2.580000e-06	3.231440e-06	9.475462e-10	2.245276e+01	6.564805e+01
2.590000e-06	3.269258e-06	9.569376e-10	2.271553e+01	6.613778e+01
2.600000e-06	3.306886e-06	9.627009e-10	2.297698e+01	6.661588e+01
2.610000e-06	3.344226e-06	9.647378e-10	2.323642e+01	6.708259e+01
2.620000e-06	3.381396e-06	9.659623e-10	2.349469e+01	6.753812e+01
2.630000e-06	3.418388e-06	9.691445e-10	2.375172e+01	6.798265e+01
2.640000e-06	3.455119e-06	9.758060e-10	2.400693e+01	6.841636e+01
2.650000e-06	3.491530e-06	9.850694e-10	2.425993e+01	6.883938e+01
2.660000e-06	3.527560e-06	9.955676e-10	2.451027e+01	6.925186e+01
2.670000e-06	3.563431e-06	1.002082e-09	2.475951e+01	6.965390e+01
2.680000e-06	3.599251e-06	1.005156e-09	2.500839e+01	7.004561e+01
2.690000e-06	3.634991e-06	1.007387e-09	2.525672e+01	7.042708e+01
2.700000e-06	3.670608e-06	1.009567e-09	2.550420e+01	7.079840e+01
2.710000e-06	3.706065e-06	1.014356e-09	2.575056e+01	7.115964e+01
2.720000e-06	3.741267e-06	1.022491e-09	2.599515e+01	7.151087e+01
2.730000e-06	3.776116e-06	1.030299e-09	2.623729e+01	7.185218e+01
2.740000e-06	3.810571e-06	1.037074e-09	2.647669e+01	7.218363e+01
2.750000e-06	3.844549e-06	1.041950e-09	2.671278e+01	7.250531e+01
2.760000e-06	3.877994e-06	1.043994e-09	2.694516e+01	7.281729e+01
2.770000e-06	3.910924e-06	1.044049e-09	2.717397e+01	7.311966e+01
2.780000e-06	3.943457e-06	1.044403e-09	2.740002e+01	7.341253e+01
2.790000e-06	3.975715e-06	1.047586e-09	2.762415e+01	7.369600e+01
2.800000e-06	4.007731e-06	1.052527e-09	2.784660e+01	7.397020e+01
2.810000e-06	4.039555e-06	1.059756e-09	2.806772e+01	7.423525e+01
2.820000e-06	4.071251e-06	1.068202e-09	2.828795e+01	7.449131e+01
2.830000e-06	4.102771e-06	1.074757e-09	2.850696e+01	7.473854e+01
2.840000e-06	4.134043e-06	1.079667e-09	2.872425e+01	7.497711e+01
2.850000e-06	4.165061e-06	1.083939e-09	2.893977e+01	7.520721e+01
2.860000e-06	4.195766e-06	1.085139e-09	2.915311e+01	7.542906e+01
2.870000e-06	4.226090e-06	1.084717e-09	2.936381e+01	7.564287e+01
2.880000e-06	4.256141e-06	1.086947e-09	2.957261e+01	7.584888e+01
2.890000e-06	4.286000e-06	1.093157e-09	2.978007e+01	7.604733e+01
2.900000e-06	4.315495e-06	1.100876e-09	2.998501e+01	7.623849e+01
