# Temperatura_=_2.97
# Concentracion g/m^3_=_1620.0
# C_Vs_to_Am_M_A/Vsm_=_65563218390.804596
# pendiente_HvsI_1/m_=_3716.3
# ordenada_HvsI_A/m_=_1297.0
# frecuencia_Hz_=_135094.51227749465

Tiempo_(s)	Campo_(V.s)	Magnetizacion_(V.s)	Campo_(kA/m)	Magnetizacion_(A/m)
0.000000e+00	-5.524062e-06	-1.299028e-09	-3.836971e+01	-8.619230e+01
1.000000e-08	-5.524152e-06	-1.296914e-09	-3.837033e+01	-8.615451e+01
2.000000e-08	-5.523994e-06	-1.295684e-09	-3.836924e+01	-8.611714e+01
3.000000e-08	-5.523440e-06	-1.294356e-09	-3.836539e+01	-8.608004e+01
4.000000e-08	-5.522465e-06	-1.288787e-09	-3.835862e+01	-8.604306e+01
5.000000e-08	-5.520937e-06	-1.274710e-09	-3.834801e+01	-8.600603e+01
6.000000e-08	-5.518684e-06	-1.267334e-09	-3.833236e+01	-8.596875e+01
7.000000e-08	-5.515911e-06	-1.282370e-09	-3.831309e+01	-8.593102e+01
8.000000e-08	-5.512659e-06	-1.305149e-09	-3.829051e+01	-8.589261e+01
9.000000e-08	-5.508884e-06	-1.359469e-09	-3.826429e+01	-8.585328e+01
1.000000e-07	-5.504712e-06	-1.388914e-09	-3.823531e+01	-8.581279e+01
1.100000e-07	-5.500202e-06	-1.327667e-09	-3.820398e+01	-8.577087e+01
1.200000e-07	-5.495514e-06	-1.156909e-09	-3.817142e+01	-8.572726e+01
1.300000e-07	-5.490675e-06	-1.237918e-09	-3.813780e+01	-8.568168e+01
1.400000e-07	-5.485404e-06	-1.339632e-09	-3.810119e+01	-8.563388e+01
1.500000e-07	-5.479686e-06	-1.330789e-09	-3.806148e+01	-8.558356e+01
1.600000e-07	-5.473640e-06	-1.168773e-09	-3.801948e+01	-8.553045e+01
1.700000e-07	-5.467273e-06	-1.232210e-09	-3.797525e+01	-8.547427e+01
1.800000e-07	-5.460412e-06	-1.398523e-09	-3.792760e+01	-8.541476e+01
1.900000e-07	-5.453018e-06	-1.352309e-09	-3.787625e+01	-8.535165e+01
2.000000e-07	-5.445436e-06	-1.220762e-09	-3.782358e+01	-8.528469e+01
2.100000e-07	-5.437676e-06	-1.231105e-09	-3.776968e+01	-8.521361e+01
2.200000e-07	-5.429641e-06	-1.378313e-09	-3.771387e+01	-8.513820e+01
2.300000e-07	-5.421354e-06	-1.358063e-09	-3.765631e+01	-8.505820e+01
2.400000e-07	-5.412499e-06	-1.303734e-09	-3.759480e+01	-8.497342e+01
2.500000e-07	-5.402900e-06	-1.270354e-09	-3.752813e+01	-8.488365e+01
2.600000e-07	-5.392641e-06	-1.346182e-09	-3.745687e+01	-8.478870e+01
2.700000e-07	-5.381744e-06	-1.308980e-09	-3.738118e+01	-8.468840e+01
2.800000e-07	-5.370407e-06	-1.291048e-09	-3.730243e+01	-8.458259e+01
2.900000e-07	-5.358784e-06	-1.278632e-09	-3.722170e+01	-8.447114e+01
3.000000e-07	-5.346826e-06	-1.325080e-09	-3.713864e+01	-8.435392e+01
3.100000e-07	-5.334464e-06	-1.296295e-09	-3.705278e+01	-8.423083e+01
3.200000e-07	-5.321653e-06	-1.289011e-09	-3.696379e+01	-8.410177e+01
3.300000e-07	-5.308353e-06	-1.268790e-09	-3.687141e+01	-8.396668e+01
3.400000e-07	-5.294775e-06	-1.316127e-09	-3.677710e+01	-8.382550e+01
3.500000e-07	-5.280852e-06	-1.311291e-09	-3.668039e+01	-8.367820e+01
3.600000e-07	-5.266380e-06	-1.276266e-09	-3.657987e+01	-8.352475e+01
3.700000e-07	-5.251390e-06	-1.258138e-09	-3.647575e+01	-8.336515e+01
3.800000e-07	-5.235952e-06	-1.312637e-09	-3.636852e+01	-8.319940e+01
3.900000e-07	-5.219977e-06	-1.284719e-09	-3.625756e+01	-8.302754e+01
4.000000e-07	-5.203451e-06	-1.231427e-09	-3.614277e+01	-8.284960e+01
4.100000e-07	-5.186592e-06	-1.290428e-09	-3.602567e+01	-8.266563e+01
4.200000e-07	-5.169481e-06	-1.307301e-09	-3.590682e+01	-8.247569e+01
4.300000e-07	-5.152114e-06	-1.224617e-09	-3.578619e+01	-8.227987e+01
4.400000e-07	-5.134415e-06	-1.240982e-09	-3.566325e+01	-8.207825e+01
4.500000e-07	-5.116371e-06	-1.352525e-09	-3.553792e+01	-8.187093e+01
4.600000e-07	-5.097853e-06	-1.260283e-09	-3.540929e+01	-8.165801e+01
4.700000e-07	-5.078791e-06	-1.195746e-09	-3.527689e+01	-8.143960e+01
4.800000e-07	-5.059426e-06	-1.292052e-09	-3.514239e+01	-8.121583e+01
4.900000e-07	-5.039881e-06	-1.312742e-09	-3.500663e+01	-8.098681e+01
5.000000e-07	-5.020069e-06	-1.188770e-09	-3.486901e+01	-8.075269e+01
5.100000e-07	-5.000041e-06	-1.253964e-09	-3.472990e+01	-8.051359e+01
5.200000e-07	-4.979682e-06	-1.300895e-09	-3.458849e+01	-8.026966e+01
5.300000e-07	-4.958913e-06	-1.210167e-09	-3.444423e+01	-8.002103e+01
5.400000e-07	-4.937813e-06	-1.209738e-09	-3.429767e+01	-7.976784e+01
5.500000e-07	-4.916405e-06	-1.319458e-09	-3.414897e+01	-7.951024e+01
5.600000e-07	-4.894660e-06	-1.222555e-09	-3.399793e+01	-7.924837e+01
5.700000e-07	-4.872575e-06	-1.165840e-09	-3.384453e+01	-7.898236e+01
5.800000e-07	-4.850183e-06	-1.262806e-09	-3.368900e+01	-7.871236e+01
5.900000e-07	-4.827436e-06	-1.262755e-09	-3.353100e+01	-7.843849e+01
6.000000e-07	-4.804312e-06	-1.161121e-09	-3.337038e+01	-7.816090e+01
6.100000e-07	-4.780801e-06	-1.221426e-09	-3.320707e+01	-7.787971e+01
6.200000e-07	-4.757042e-06	-1.250115e-09	-3.304204e+01	-7.759504e+01
6.300000e-07	-4.733144e-06	-1.170673e-09	-3.287605e+01	-7.730701e+01
6.400000e-07	-4.709036e-06	-1.178298e-09	-3.270860e+01	-7.701573e+01
6.500000e-07	-4.684696e-06	-1.231745e-09	-3.253954e+01	-7.672132e+01
6.600000e-07	-4.659925e-06	-1.178023e-09	-3.236748e+01	-7.642387e+01
6.700000e-07	-4.634564e-06	-1.162480e-09	-3.219132e+01	-7.612347e+01
6.800000e-07	-4.608566e-06	-1.211550e-09	-3.201075e+01	-7.582022e+01
6.900000e-07	-4.582029e-06	-1.184739e-09	-3.182642e+01	-7.551418e+01
7.000000e-07	-4.555094e-06	-1.148954e-09	-3.163933e+01	-7.520544e+01
7.100000e-07	-4.527740e-06	-1.176305e-09	-3.144933e+01	-7.489405e+01
7.200000e-07	-4.500073e-06	-1.175979e-09	-3.125716e+01	-7.458007e+01
7.300000e-07	-4.472253e-06	-1.135243e-09	-3.106392e+01	-7.426354e+01
7.400000e-07	-4.444315e-06	-1.149747e-09	-3.086987e+01	-7.394451e+01
7.500000e-07	-4.416163e-06	-1.156178e-09	-3.067433e+01	-7.362300e+01
7.600000e-07	-4.387695e-06	-1.134324e-09	-3.047659e+01	-7.329903e+01
7.700000e-07	-4.358916e-06	-1.122578e-09	-3.027670e+01	-7.297261e+01
7.800000e-07	-4.329841e-06	-1.133326e-09	-3.007474e+01	-7.264375e+01
7.900000e-07	-4.300449e-06	-1.113054e-09	-2.987059e+01	-7.231244e+01
8.000000e-07	-4.270772e-06	-1.111054e-09	-2.966445e+01	-7.197867e+01
8.100000e-07	-4.240871e-06	-1.110690e-09	-2.945677e+01	-7.164241e+01
8.200000e-07	-4.210706e-06	-1.096694e-09	-2.924724e+01	-7.130363e+01
8.300000e-07	-4.180173e-06	-1.078446e-09	-2.903516e+01	-7.096229e+01
8.400000e-07	-4.149256e-06	-1.090411e-09	-2.882042e+01	-7.061835e+01
8.500000e-07	-4.118051e-06	-1.078005e-09	-2.860367e+01	-7.027174e+01
8.600000e-07	-4.086584e-06	-1.061344e-09	-2.838509e+01	-6.992242e+01
8.700000e-07	-4.054892e-06	-1.059014e-09	-2.816497e+01	-6.957030e+01
8.800000e-07	-4.023120e-06	-1.062545e-09	-2.794428e+01	-6.921532e+01
8.900000e-07	-3.991237e-06	-1.043677e-09	-2.772283e+01	-6.885739e+01
9.000000e-07	-3.959104e-06	-1.040550e-09	-2.749963e+01	-6.849643e+01
9.100000e-07	-3.926672e-06	-1.037694e-09	-2.727436e+01	-6.813234e+01
9.200000e-07	-3.893942e-06	-1.022712e-09	-2.704702e+01	-6.776503e+01
9.300000e-07	-3.860789e-06	-1.012584e-09	-2.681675e+01	-6.739441e+01
9.400000e-07	-3.827115e-06	-1.017800e-09	-2.658284e+01	-6.702037e+01
9.500000e-07	-3.792919e-06	-1.010535e-09	-2.634532e+01	-6.664281e+01
9.600000e-07	-3.758247e-06	-9.971610e-10	-2.610449e+01	-6.626162e+01
9.700000e-07	-3.723191e-06	-9.964825e-10	-2.586100e+01	-6.587670e+01
9.800000e-07	-3.687854e-06	-9.902728e-10	-2.561555e+01	-6.548795e+01
9.900000e-07	-3.652298e-06	-9.723921e-10	-2.536858e+01	-6.509525e+01
1.000000e-06	-3.616607e-06	-9.634312e-10	-2.512067e+01	-6.469852e+01
1.010000e-06	-3.580838e-06	-9.618173e-10	-2.487223e+01	-6.429765e+01
1.020000e-06	-3.544954e-06	-9.517981e-10	-2.462298e+01	-6.389255e+01
1.030000e-06	-3.508950e-06	-9.478129e-10	-2.437289e+01	-6.348312e+01
1.040000e-06	-3.472735e-06	-9.466272e-10	-2.412135e+01	-6.306929e+01
1.050000e-06	-3.436188e-06	-9.412949e-10	-2.386750e+01	-6.265096e+01
1.060000e-06	-3.399312e-06	-9.265809e-10	-2.361136e+01	-6.222807e+01
1.070000e-06	-3.362200e-06	-9.195485e-10	-2.335358e+01	-6.180056e+01
1.080000e-06	-3.324788e-06	-9.071567e-10	-2.309372e+01	-6.136836e+01
1.090000e-06	-3.287063e-06	-8.965802e-10	-2.283169e+01	-6.093142e+01
1.100000e-06	-3.249179e-06	-8.899116e-10	-2.256855e+01	-6.048969e+01
1.110000e-06	-3.211101e-06	-8.887708e-10	-2.230406e+01	-6.004316e+01
1.120000e-06	-3.172842e-06	-8.787641e-10	-2.203831e+01	-5.959178e+01
1.130000e-06	-3.134484e-06	-8.728571e-10	-2.177189e+01	-5.913554e+01
1.140000e-06	-3.095841e-06	-8.666082e-10	-2.150347e+01	-5.867444e+01
1.150000e-06	-3.056786e-06	-8.589716e-10	-2.123220e+01	-5.820847e+01
1.160000e-06	-3.017576e-06	-8.459672e-10	-2.095985e+01	-5.773765e+01
1.170000e-06	-2.978264e-06	-8.396805e-10	-2.068679e+01	-5.726198e+01
1.180000e-06	-2.938724e-06	-8.343709e-10	-2.041215e+01	-5.678150e+01
1.190000e-06	-2.899040e-06	-8.285542e-10	-2.013651e+01	-5.629622e+01
1.200000e-06	-2.859294e-06	-8.210164e-10	-1.986044e+01	-5.580619e+01
1.210000e-06	-2.819444e-06	-8.161063e-10	-1.958364e+01	-5.531144e+01
1.220000e-06	-2.779467e-06	-8.070408e-10	-1.930596e+01	-5.481201e+01
1.230000e-06	-2.739362e-06	-7.992751e-10	-1.902740e+01	-5.430795e+01
1.240000e-06	-2.698951e-06	-7.935329e-10	-1.874670e+01	-5.379930e+01
1.250000e-06	-2.658315e-06	-7.863899e-10	-1.846445e+01	-5.328611e+01
1.260000e-06	-2.617460e-06	-7.772333e-10	-1.818067e+01	-5.276840e+01
1.270000e-06	-2.576357e-06	-7.662904e-10	-1.789518e+01	-5.224623e+01
1.280000e-06	-2.535110e-06	-7.570241e-10	-1.760868e+01	-5.171961e+01
1.290000e-06	-2.493603e-06	-7.486935e-10	-1.732037e+01	-5.118858e+01
1.300000e-06	-2.451774e-06	-7.406590e-10	-1.702984e+01	-5.065313e+01
1.310000e-06	-2.409735e-06	-7.328481e-10	-1.673783e+01	-5.011328e+01
1.320000e-06	-2.367412e-06	-7.249732e-10	-1.644386e+01	-4.956900e+01
1.330000e-06	-2.324600e-06	-7.153631e-10	-1.614649e+01	-4.902026e+01
1.340000e-06	-2.281462e-06	-7.054279e-10	-1.584686e+01	-4.846703e+01
1.350000e-06	-2.238144e-06	-6.936648e-10	-1.554598e+01	-4.790924e+01
1.360000e-06	-2.194700e-06	-6.818483e-10	-1.524421e+01	-4.734678e+01
1.370000e-06	-2.151146e-06	-6.710208e-10	-1.494169e+01	-4.677957e+01
1.380000e-06	-2.107509e-06	-6.675023e-10	-1.463860e+01	-4.620746e+01
1.390000e-06	-2.063765e-06	-6.609558e-10	-1.433475e+01	-4.563030e+01
1.400000e-06	-2.019915e-06	-6.519829e-10	-1.403017e+01	-4.504789e+01
1.410000e-06	-1.976018e-06	-6.421369e-10	-1.372527e+01	-4.446003e+01
1.420000e-06	-1.932051e-06	-6.337789e-10	-1.341988e+01	-4.386648e+01
1.430000e-06	-1.887943e-06	-6.208200e-10	-1.311350e+01	-4.326696e+01
1.440000e-06	-1.843766e-06	-6.069253e-10	-1.280665e+01	-4.266117e+01
1.450000e-06	-1.799561e-06	-5.941075e-10	-1.249961e+01	-4.204878e+01
1.460000e-06	-1.755232e-06	-5.836612e-10	-1.219170e+01	-4.142944e+01
1.470000e-06	-1.710736e-06	-5.724351e-10	-1.188264e+01	-4.080275e+01
1.480000e-06	-1.666129e-06	-5.649019e-10	-1.157281e+01	-4.016830e+01
1.490000e-06	-1.621436e-06	-5.598019e-10	-1.126237e+01	-3.952565e+01
1.500000e-06	-1.576558e-06	-5.532542e-10	-1.095065e+01	-3.887432e+01
1.510000e-06	-1.531521e-06	-5.408345e-10	-1.063783e+01	-3.821382e+01
1.520000e-06	-1.486333e-06	-5.276743e-10	-1.032396e+01	-3.754363e+01
1.530000e-06	-1.440987e-06	-5.153634e-10	-1.000898e+01	-3.686322e+01
1.540000e-06	-1.395547e-06	-5.041923e-10	-9.693362e+00	-3.617203e+01
1.550000e-06	-1.350119e-06	-4.947331e-10	-9.377823e+00	-3.546949e+01
1.560000e-06	-1.304578e-06	-4.853543e-10	-9.061497e+00	-3.475502e+01
1.570000e-06	-1.258886e-06	-4.723286e-10	-8.744126e+00	-3.402803e+01
1.580000e-06	-1.213139e-06	-4.601450e-10	-8.426372e+00	-3.328791e+01
1.590000e-06	-1.167254e-06	-4.484875e-10	-8.107659e+00	-3.253407e+01
1.600000e-06	-1.121334e-06	-4.336209e-10	-7.788700e+00	-3.176592e+01
1.610000e-06	-1.075420e-06	-4.175918e-10	-7.469783e+00	-3.098286e+01
1.620000e-06	-1.029369e-06	-4.051749e-10	-7.149919e+00	-3.018432e+01
1.630000e-06	-9.832125e-07	-3.975434e-10	-6.829318e+00	-2.936972e+01
1.640000e-06	-9.370277e-07	-3.887445e-10	-6.508522e+00	-2.853852e+01
1.650000e-06	-8.907613e-07	-3.766256e-10	-6.187159e+00	-2.769020e+01
1.660000e-06	-8.444421e-07	-3.602610e-10	-5.865430e+00	-2.682426e+01
1.670000e-06	-7.981229e-07	-3.414085e-10	-5.543700e+00	-2.594024e+01
1.680000e-06	-7.517252e-07	-3.229398e-10	-5.221426e+00	-2.503771e+01
1.690000e-06	-7.052218e-07	-3.120202e-10	-4.898416e+00	-2.411628e+01
1.700000e-06	-6.586519e-07	-3.016714e-10	-4.574945e+00	-2.317562e+01
1.710000e-06	-6.121149e-07	-2.905620e-10	-4.251703e+00	-2.221543e+01
1.720000e-06	-5.655403e-07	-2.741860e-10	-3.928200e+00	-2.123547e+01
1.730000e-06	-5.188732e-07	-2.546093e-10	-3.604054e+00	-2.023555e+01
1.740000e-06	-4.721818e-07	-2.363379e-10	-3.279738e+00	-1.921555e+01
1.750000e-06	-4.254767e-07	-2.206694e-10	-2.955329e+00	-1.817541e+01
1.760000e-06	-3.788141e-07	-2.058856e-10	-2.631214e+00	-1.711512e+01
1.770000e-06	-3.321461e-07	-1.915610e-10	-2.307061e+00	-1.603476e+01
1.780000e-06	-2.853515e-07	-1.800324e-10	-1.982030e+00	-1.493446e+01
1.790000e-06	-2.384128e-07	-1.676260e-10	-1.655997e+00	-1.381443e+01
1.800000e-06	-1.914521e-07	-1.498346e-10	-1.329811e+00	-1.267494e+01
1.810000e-06	-1.445491e-07	-1.326471e-10	-1.004027e+00	-1.151635e+01
1.820000e-06	-9.765734e-08	-1.170442e-10	-6.783204e-01	-1.033907e+01
1.830000e-06	-5.072294e-08	-1.028155e-10	-3.523176e-01	-9.143605e+00
1.840000e-06	-3.812768e-09	-8.926513e-11	-2.648319e-02	-7.930514e+00
1.850000e-06	4.301041e-08	-7.381575e-11	2.987470e-01	-6.700434e+00
1.860000e-06	8.982259e-08	-5.858830e-11	6.239008e-01	-5.454066e+00
1.870000e-06	1.366988e-07	-4.153365e-11	9.494993e-01	-4.192180e+00
1.880000e-06	1.836142e-07	-2.208900e-11	1.275370e+00	-2.915610e+00
1.890000e-06	2.304406e-07	-1.996932e-12	1.600622e+00	-1.625249e+00
1.900000e-06	2.771866e-07	1.745389e-11	1.925317e+00	-3.220487e-01
1.910000e-06	3.240003e-07	3.539702e-11	2.250481e+00	9.929847e-01
1.920000e-06	3.708890e-07	5.149920e-11	2.576167e+00	2.318796e+00
1.930000e-06	4.177363e-07	6.756535e-11	2.901564e+00	3.654284e+00
1.940000e-06	4.644640e-07	8.541937e-11	3.226131e+00	4.998307e+00
1.950000e-06	5.110527e-07	1.045096e-10	3.549733e+00	6.349686e+00
1.960000e-06	5.576064e-07	1.247140e-10	3.873091e+00	7.707214e+00
1.970000e-06	6.041722e-07	1.450903e-10	4.196533e+00	9.069655e+00
1.980000e-06	6.506667e-07	1.640341e-10	4.519481e+00	1.043576e+01
1.990000e-06	6.970593e-07	1.842777e-10	4.841720e+00	1.180425e+01
2.000000e-06	7.434196e-07	2.015696e-10	5.163735e+00	1.317385e+01
2.010000e-06	7.898554e-07	2.206982e-10	5.486275e+00	1.454329e+01
2.020000e-06	8.362170e-07	2.437420e-10	5.808299e+00	1.591128e+01
2.030000e-06	8.824850e-07	2.663017e-10	6.129673e+00	1.727655e+01
2.040000e-06	9.287113e-07	2.860709e-10	6.450757e+00	1.863785e+01
2.050000e-06	9.748471e-07	3.047124e-10	6.771213e+00	1.999395e+01
2.060000e-06	1.020987e-06	3.221841e-10	7.091695e+00	2.134362e+01
2.070000e-06	1.067094e-06	3.403751e-10	7.411953e+00	2.268569e+01
2.080000e-06	1.113054e-06	3.587020e-10	7.731188e+00	2.401901e+01
2.090000e-06	1.158822e-06	3.784955e-10	8.049087e+00	2.534247e+01
2.100000e-06	1.204463e-06	4.011904e-10	8.366108e+00	2.665500e+01
2.110000e-06	1.250106e-06	4.188674e-10	8.683137e+00	2.795558e+01
2.120000e-06	1.295706e-06	4.327884e-10	8.999873e+00	2.924325e+01
2.130000e-06	1.341225e-06	4.482055e-10	9.316049e+00	3.051709e+01
2.140000e-06	1.386651e-06	4.646484e-10	9.631568e+00	3.177624e+01
2.150000e-06	1.431900e-06	4.821067e-10	9.945866e+00	3.301989e+01
2.160000e-06	1.477084e-06	5.012984e-10	1.025971e+01	3.424732e+01
2.170000e-06	1.522284e-06	5.190541e-10	1.057367e+01	3.545785e+01
2.180000e-06	1.567368e-06	5.383222e-10	1.088682e+01	3.665085e+01
2.190000e-06	1.612244e-06	5.555823e-10	1.119852e+01	3.782578e+01
2.200000e-06	1.656975e-06	5.700766e-10	1.150922e+01	3.898215e+01
2.210000e-06	1.701529e-06	5.832359e-10	1.181869e+01	4.011955e+01
2.220000e-06	1.745921e-06	5.983135e-10	1.212703e+01	4.123760e+01
2.230000e-06	1.790185e-06	6.149329e-10	1.243449e+01	4.233603e+01
2.240000e-06	1.834346e-06	6.291607e-10	1.274122e+01	4.341458e+01
2.250000e-06	1.878403e-06	6.439468e-10	1.304724e+01	4.447309e+01
2.260000e-06	1.922316e-06	6.575228e-10	1.335226e+01	4.551143e+01
2.270000e-06	1.966189e-06	6.746238e-10	1.365700e+01	4.652955e+01
2.280000e-06	2.010038e-06	6.907474e-10	1.396157e+01	4.752742e+01
2.290000e-06	2.053824e-06	7.054772e-10	1.426570e+01	4.850509e+01
2.300000e-06	2.097568e-06	7.190087e-10	1.456955e+01	4.946265e+01
2.310000e-06	2.141255e-06	7.300615e-10	1.487299e+01	5.040021e+01
2.320000e-06	2.184793e-06	7.435463e-10	1.517540e+01	5.131795e+01
2.330000e-06	2.228196e-06	7.578247e-10	1.547688e+01	5.221606e+01
2.340000e-06	2.271455e-06	7.721829e-10	1.577735e+01	5.309479e+01
2.350000e-06	2.314549e-06	7.881210e-10	1.607668e+01	5.395440e+01
2.360000e-06	2.357417e-06	8.034857e-10	1.637444e+01	5.479518e+01
2.370000e-06	2.399978e-06	8.138626e-10	1.667006e+01	5.561744e+01
2.380000e-06	2.442259e-06	8.216888e-10	1.696374e+01	5.642152e+01
2.390000e-06	2.484226e-06	8.310831e-10	1.725525e+01	5.720775e+01
2.400000e-06	2.525945e-06	8.421480e-10	1.754502e+01	5.797650e+01
2.410000e-06	2.567321e-06	8.538572e-10	1.783241e+01	5.872813e+01
2.420000e-06	2.608282e-06	8.679338e-10	1.811693e+01	5.946301e+01
2.430000e-06	2.649000e-06	8.811360e-10	1.839975e+01	6.018152e+01
2.440000e-06	2.689538e-06	8.904688e-10	1.868133e+01	6.088402e+01
2.450000e-06	2.729927e-06	8.965129e-10	1.896186e+01	6.157090e+01
2.460000e-06	2.770205e-06	9.055362e-10	1.924163e+01	6.224252e+01
2.470000e-06	2.810302e-06	9.171405e-10	1.952014e+01	6.289923e+01
2.480000e-06	2.850172e-06	9.284527e-10	1.979708e+01	6.354139e+01
2.490000e-06	2.889913e-06	9.406134e-10	2.007311e+01	6.416934e+01
2.500000e-06	2.929537e-06	9.522219e-10	2.034834e+01	6.478342e+01
2.510000e-06	2.969005e-06	9.615158e-10	2.062248e+01	6.538394e+01
2.520000e-06	3.008372e-06	9.685810e-10	2.089592e+01	6.597121e+01
2.530000e-06	3.047595e-06	9.727027e-10	2.116836e+01	6.654552e+01
2.540000e-06	3.086487e-06	9.756305e-10	2.143850e+01	6.710717e+01
2.550000e-06	3.125083e-06	9.815773e-10	2.170659e+01	6.765641e+01
2.560000e-06	3.163462e-06	9.919383e-10	2.197316e+01	6.819350e+01
2.570000e-06	3.201638e-06	1.002786e-09	2.223833e+01	6.871870e+01
2.580000e-06	3.239592e-06	1.012455e-09	2.250196e+01	6.923224e+01
2.590000e-06	3.277305e-06	1.019759e-09	2.276391e+01	6.973433e+01
2.600000e-06	3.314835e-06	1.025724e-09	2.302459e+01	7.022520e+01
2.610000e-06	3.352155e-06	1.028860e-09	2.328381e+01	7.070505e+01
2.620000e-06	3.389215e-06	1.029982e-09	2.354122e+01	7.117408e+01
2.630000e-06	3.426019e-06	1.033754e-09	2.379687e+01	7.163249e+01
2.640000e-06	3.462621e-06	1.041515e-09	2.405110e+01	7.208045e+01
2.650000e-06	3.498952e-06	1.053467e-09	2.430345e+01	7.251815e+01
2.660000e-06	3.535037e-06	1.066404e-09	2.455409e+01	7.294578e+01
2.670000e-06	3.571026e-06	1.075774e-09	2.480407e+01	7.336352e+01
2.680000e-06	3.606898e-06	1.080784e-09	2.505324e+01	7.377155e+01
2.690000e-06	3.642624e-06	1.084536e-09	2.530139e+01	7.417004e+01
2.700000e-06	3.678183e-06	1.085733e-09	2.554838e+01	7.455919e+01
2.710000e-06	3.713455e-06	1.086673e-09	2.579338e+01	7.493917e+01
2.720000e-06	3.748473e-06	1.091857e-09	2.603660e+01	7.531019e+01
2.730000e-06	3.783269e-06	1.100260e-09	2.627830e+01	7.567242e+01
2.740000e-06	3.817617e-06	1.108636e-09	2.651687e+01	7.602608e+01
2.750000e-06	3.851500e-06	1.116184e-09	2.675222e+01	7.637137e+01
2.760000e-06	3.884878e-06	1.120354e-09	2.698407e+01	7.670849e+01
2.770000e-06	3.917711e-06	1.123068e-09	2.721212e+01	7.703766e+01
2.780000e-06	3.950159e-06	1.126146e-09	2.743750e+01	7.735911e+01
2.790000e-06	3.982298e-06	1.130591e-09	2.766074e+01	7.767304e+01
2.800000e-06	4.014239e-06	1.136889e-09	2.788260e+01	7.797970e+01
2.810000e-06	4.046099e-06	1.144286e-09	2.810389e+01	7.827932e+01
2.820000e-06	4.077827e-06	1.152421e-09	2.832427e+01	7.857213e+01
2.830000e-06	4.109323e-06	1.158504e-09	2.854304e+01	7.885836e+01
2.840000e-06	4.140541e-06	1.162829e-09	2.875988e+01	7.913826e+01
2.850000e-06	4.171449e-06	1.168361e-09	2.897456e+01	7.941205e+01
2.860000e-06	4.202100e-06	1.173685e-09	2.918746e+01	7.967999e+01
2.870000e-06	4.232417e-06	1.177021e-09	2.939805e+01	7.994228e+01
2.880000e-06	4.262427e-06	1.180347e-09	2.960649e+01	8.019918e+01
2.890000e-06	4.292165e-06	1.185244e-09	2.981305e+01	8.045089e+01
2.900000e-06	4.321637e-06	1.191194e-09	3.001776e+01	8.069763e+01
2.910000e-06	4.350863e-06	1.197218e-09	3.022076e+01	8.093960e+01
