# Temperatura_=_8.69
# Concentracion g/m^3_=_1620.0
# C_Vs_to_Am_M_A/Vsm_=_65563218390.804596
# pendiente_HvsI_1/m_=_3716.3
# ordenada_HvsI_A/m_=_1297.0
# frecuencia_Hz_=_135090.38956885546

Tiempo_(s)	Campo_(V.s)	Magnetizacion_(V.s)	Campo_(kA/m)	Magnetizacion_(A/m)
0.000000e+00	-5.509286e-06	-1.327108e-09	-3.838197e+01	-8.779700e+01
1.000000e-08	-5.509280e-06	-1.330223e-09	-3.838193e+01	-8.777601e+01
2.000000e-08	-5.509071e-06	-1.333769e-09	-3.838047e+01	-8.775275e+01
3.000000e-08	-5.508472e-06	-1.334534e-09	-3.837630e+01	-8.772719e+01
4.000000e-08	-5.507365e-06	-1.327123e-09	-3.836859e+01	-8.769930e+01
5.000000e-08	-5.505783e-06	-1.312201e-09	-3.835756e+01	-8.766904e+01
6.000000e-08	-5.503630e-06	-1.315457e-09	-3.834256e+01	-8.763638e+01
7.000000e-08	-5.500901e-06	-1.366602e-09	-3.832355e+01	-8.760126e+01
8.000000e-08	-5.497659e-06	-1.386869e-09	-3.830096e+01	-8.756365e+01
9.000000e-08	-5.493911e-06	-1.355096e-09	-3.827485e+01	-8.752350e+01
1.000000e-07	-5.489810e-06	-1.309092e-09	-3.824629e+01	-8.748074e+01
1.100000e-07	-5.485509e-06	-1.287380e-09	-3.821632e+01	-8.743532e+01
1.200000e-07	-5.480870e-06	-1.291157e-09	-3.818400e+01	-8.738720e+01
1.300000e-07	-5.475813e-06	-1.302524e-09	-3.814877e+01	-8.733629e+01
1.400000e-07	-5.470503e-06	-1.294863e-09	-3.811178e+01	-8.728256e+01
1.500000e-07	-5.464786e-06	-1.306757e-09	-3.807195e+01	-8.722593e+01
1.600000e-07	-5.458586e-06	-1.293285e-09	-3.802875e+01	-8.716634e+01
1.700000e-07	-5.452057e-06	-1.345570e-09	-3.798327e+01	-8.710374e+01
1.800000e-07	-5.445075e-06	-1.320448e-09	-3.793463e+01	-8.703805e+01
1.900000e-07	-5.437704e-06	-1.306025e-09	-3.788327e+01	-8.696922e+01
2.000000e-07	-5.430037e-06	-1.274312e-09	-3.782986e+01	-8.689718e+01
2.100000e-07	-5.422070e-06	-1.336316e-09	-3.777436e+01	-8.682186e+01
2.200000e-07	-5.413948e-06	-1.347388e-09	-3.771777e+01	-8.674321e+01
2.300000e-07	-5.405520e-06	-1.332339e-09	-3.765905e+01	-8.666115e+01
2.400000e-07	-5.396502e-06	-1.307270e-09	-3.759623e+01	-8.657563e+01
2.500000e-07	-5.386837e-06	-1.313557e-09	-3.752889e+01	-8.648657e+01
2.600000e-07	-5.376572e-06	-1.309343e-09	-3.745738e+01	-8.639391e+01
2.700000e-07	-5.365795e-06	-1.287460e-09	-3.738230e+01	-8.629758e+01
2.800000e-07	-5.354538e-06	-1.308656e-09	-3.730387e+01	-8.619751e+01
2.900000e-07	-5.342892e-06	-1.316433e-09	-3.722274e+01	-8.609364e+01
3.000000e-07	-5.330814e-06	-1.309478e-09	-3.713859e+01	-8.598589e+01
3.100000e-07	-5.318278e-06	-1.267137e-09	-3.705126e+01	-8.587419e+01
3.200000e-07	-5.305377e-06	-1.309277e-09	-3.696138e+01	-8.575846e+01
3.300000e-07	-5.292099e-06	-1.290079e-09	-3.686887e+01	-8.563865e+01
3.400000e-07	-5.278456e-06	-1.294308e-09	-3.677383e+01	-8.551466e+01
3.500000e-07	-5.264406e-06	-1.289002e-09	-3.667594e+01	-8.538642e+01
3.600000e-07	-5.249928e-06	-1.323430e-09	-3.657508e+01	-8.525386e+01
3.700000e-07	-5.234969e-06	-1.288372e-09	-3.647087e+01	-8.511690e+01
3.800000e-07	-5.219357e-06	-1.307251e-09	-3.636210e+01	-8.497547e+01
3.900000e-07	-5.203252e-06	-1.305688e-09	-3.624990e+01	-8.482947e+01
4.000000e-07	-5.186604e-06	-1.283895e-09	-3.613391e+01	-8.467885e+01
4.100000e-07	-5.169553e-06	-1.263150e-09	-3.601512e+01	-8.452351e+01
4.200000e-07	-5.152385e-06	-1.307205e-09	-3.589552e+01	-8.436339e+01
4.300000e-07	-5.134899e-06	-1.294068e-09	-3.577370e+01	-8.419841e+01
4.400000e-07	-5.117076e-06	-1.274316e-09	-3.564953e+01	-8.402850e+01
4.500000e-07	-5.098836e-06	-1.291979e-09	-3.552246e+01	-8.385360e+01
4.600000e-07	-5.080247e-06	-1.297104e-09	-3.539295e+01	-8.367364e+01
4.700000e-07	-5.061216e-06	-1.255752e-09	-3.526037e+01	-8.348856e+01
4.800000e-07	-5.041772e-06	-1.274400e-09	-3.512491e+01	-8.329830e+01
4.900000e-07	-5.022132e-06	-1.293894e-09	-3.498807e+01	-8.310283e+01
5.000000e-07	-5.002328e-06	-1.251976e-09	-3.485011e+01	-8.290209e+01
5.100000e-07	-4.982258e-06	-1.240617e-09	-3.471028e+01	-8.269606e+01
5.200000e-07	-4.961841e-06	-1.278088e-09	-3.456804e+01	-8.248470e+01
5.300000e-07	-4.941142e-06	-1.264322e-09	-3.442383e+01	-8.226800e+01
5.400000e-07	-4.920081e-06	-1.235670e-09	-3.427711e+01	-8.204595e+01
5.500000e-07	-4.898629e-06	-1.260018e-09	-3.412766e+01	-8.181855e+01
5.600000e-07	-4.876922e-06	-1.250657e-09	-3.397643e+01	-8.158582e+01
5.700000e-07	-4.854961e-06	-1.227770e-09	-3.382343e+01	-8.134777e+01
5.800000e-07	-4.832600e-06	-1.246183e-09	-3.366764e+01	-8.110444e+01
5.900000e-07	-4.809891e-06	-1.257782e-09	-3.350944e+01	-8.085588e+01
6.000000e-07	-4.786841e-06	-1.218585e-09	-3.334885e+01	-8.060213e+01
6.100000e-07	-4.763434e-06	-1.224773e-09	-3.318578e+01	-8.034327e+01
6.200000e-07	-4.739755e-06	-1.232216e-09	-3.302082e+01	-8.007938e+01
6.300000e-07	-4.715807e-06	-1.212978e-09	-3.285398e+01	-7.981054e+01
6.400000e-07	-4.691598e-06	-1.201277e-09	-3.268532e+01	-7.953686e+01
6.500000e-07	-4.667104e-06	-1.224652e-09	-3.251467e+01	-7.925844e+01
6.600000e-07	-4.642347e-06	-1.208957e-09	-3.234220e+01	-7.897541e+01
6.700000e-07	-4.617120e-06	-1.203071e-09	-3.216644e+01	-7.868790e+01
6.800000e-07	-4.591216e-06	-1.210748e-09	-3.198598e+01	-7.839604e+01
6.900000e-07	-4.564711e-06	-1.211675e-09	-3.180132e+01	-7.809998e+01
7.000000e-07	-4.537717e-06	-1.189596e-09	-3.161326e+01	-7.779986e+01
7.100000e-07	-4.510353e-06	-1.194668e-09	-3.142263e+01	-7.749585e+01
7.200000e-07	-4.482741e-06	-1.192665e-09	-3.123026e+01	-7.718810e+01
7.300000e-07	-4.454950e-06	-1.181933e-09	-3.103664e+01	-7.687677e+01
7.400000e-07	-4.426948e-06	-1.176261e-09	-3.084156e+01	-7.656203e+01
7.500000e-07	-4.398742e-06	-1.182455e-09	-3.064506e+01	-7.624403e+01
7.600000e-07	-4.370302e-06	-1.171260e-09	-3.044692e+01	-7.592294e+01
7.700000e-07	-4.341594e-06	-1.164106e-09	-3.024692e+01	-7.559891e+01
7.800000e-07	-4.312631e-06	-1.165770e-09	-3.004514e+01	-7.527208e+01
7.900000e-07	-4.283307e-06	-1.161972e-09	-2.984085e+01	-7.494261e+01
8.000000e-07	-4.253563e-06	-1.146812e-09	-2.963362e+01	-7.461063e+01
8.100000e-07	-4.223569e-06	-1.140260e-09	-2.942467e+01	-7.427626e+01
8.200000e-07	-4.193353e-06	-1.136958e-09	-2.921416e+01	-7.393961e+01
8.300000e-07	-4.162765e-06	-1.126574e-09	-2.900106e+01	-7.360079e+01
8.400000e-07	-4.131844e-06	-1.122191e-09	-2.878564e+01	-7.325988e+01
8.500000e-07	-4.100729e-06	-1.117903e-09	-2.856887e+01	-7.291695e+01
8.600000e-07	-4.069349e-06	-1.113703e-09	-2.835025e+01	-7.257206e+01
8.700000e-07	-4.037743e-06	-1.106021e-09	-2.813006e+01	-7.222525e+01
8.800000e-07	-4.006052e-06	-1.104770e-09	-2.790928e+01	-7.187653e+01
8.900000e-07	-3.974145e-06	-1.095208e-09	-2.768698e+01	-7.152591e+01
9.000000e-07	-3.942004e-06	-1.086789e-09	-2.746306e+01	-7.117337e+01
9.100000e-07	-3.909665e-06	-1.080809e-09	-2.723776e+01	-7.081888e+01
9.200000e-07	-3.876961e-06	-1.078483e-09	-2.700993e+01	-7.046238e+01
9.300000e-07	-3.843874e-06	-1.067182e-09	-2.677942e+01	-7.010379e+01
9.400000e-07	-3.810392e-06	-1.065778e-09	-2.654615e+01	-6.974303e+01
9.500000e-07	-3.776443e-06	-1.062224e-09	-2.630964e+01	-6.937998e+01
9.600000e-07	-3.742015e-06	-1.054131e-09	-2.606979e+01	-6.901452e+01
9.700000e-07	-3.707187e-06	-1.040698e-09	-2.582715e+01	-6.864650e+01
9.800000e-07	-3.672001e-06	-1.037077e-09	-2.558202e+01	-6.827575e+01
9.900000e-07	-3.636561e-06	-1.030238e-09	-2.533511e+01	-6.790212e+01
1.000000e-06	-3.600936e-06	-1.023748e-09	-2.508692e+01	-6.752541e+01
1.010000e-06	-3.565118e-06	-1.019315e-09	-2.483739e+01	-6.714542e+01
1.020000e-06	-3.529136e-06	-1.019435e-09	-2.458670e+01	-6.676195e+01
1.030000e-06	-3.492989e-06	-1.013311e-09	-2.433488e+01	-6.637478e+01
1.040000e-06	-3.456644e-06	-1.006980e-09	-2.408167e+01	-6.598369e+01
1.050000e-06	-3.420052e-06	-9.993788e-10	-2.382674e+01	-6.558847e+01
1.060000e-06	-3.383216e-06	-9.889682e-10	-2.357012e+01	-6.518887e+01
1.070000e-06	-3.346131e-06	-9.779143e-10	-2.331175e+01	-6.478469e+01
1.080000e-06	-3.308813e-06	-9.740741e-10	-2.305176e+01	-6.437569e+01
1.090000e-06	-3.271262e-06	-9.694226e-10	-2.279015e+01	-6.396165e+01
1.100000e-06	-3.233417e-06	-9.617096e-10	-2.252649e+01	-6.354237e+01
1.110000e-06	-3.195360e-06	-9.555730e-10	-2.226136e+01	-6.311764e+01
1.120000e-06	-3.157176e-06	-9.493336e-10	-2.199534e+01	-6.268725e+01
1.130000e-06	-3.118799e-06	-9.410629e-10	-2.172797e+01	-6.225104e+01
1.140000e-06	-3.080174e-06	-9.303913e-10	-2.145889e+01	-6.180882e+01
1.150000e-06	-3.041231e-06	-9.225683e-10	-2.118758e+01	-6.136045e+01
1.160000e-06	-3.002137e-06	-9.149928e-10	-2.091522e+01	-6.090577e+01
1.170000e-06	-2.962936e-06	-9.093896e-10	-2.064212e+01	-6.044467e+01
1.180000e-06	-2.923563e-06	-9.034397e-10	-2.036781e+01	-5.997704e+01
1.190000e-06	-2.883964e-06	-8.971410e-10	-2.009194e+01	-5.950277e+01
1.200000e-06	-2.844155e-06	-8.874580e-10	-1.981459e+01	-5.902181e+01
1.210000e-06	-2.804262e-06	-8.793175e-10	-1.953667e+01	-5.853410e+01
1.220000e-06	-2.764294e-06	-8.698795e-10	-1.925822e+01	-5.803959e+01
1.230000e-06	-2.724147e-06	-8.604113e-10	-1.897852e+01	-5.753827e+01
1.240000e-06	-2.683833e-06	-8.495744e-10	-1.869767e+01	-5.703013e+01
1.250000e-06	-2.643405e-06	-8.425122e-10	-1.841601e+01	-5.651517e+01
1.260000e-06	-2.602776e-06	-8.323479e-10	-1.813296e+01	-5.599343e+01
1.270000e-06	-2.561935e-06	-8.230762e-10	-1.784843e+01	-5.546494e+01
1.280000e-06	-2.520892e-06	-8.160156e-10	-1.756249e+01	-5.492974e+01
1.290000e-06	-2.479602e-06	-8.097748e-10	-1.727484e+01	-5.438789e+01
1.300000e-06	-2.437987e-06	-8.001898e-10	-1.698491e+01	-5.383945e+01
1.310000e-06	-2.396019e-06	-7.900829e-10	-1.669253e+01	-5.328447e+01
1.320000e-06	-2.353658e-06	-7.790622e-10	-1.639741e+01	-5.272303e+01
1.330000e-06	-2.311019e-06	-7.690952e-10	-1.610035e+01	-5.215520e+01
1.340000e-06	-2.268086e-06	-7.595838e-10	-1.580125e+01	-5.158102e+01
1.350000e-06	-2.224811e-06	-7.523928e-10	-1.549976e+01	-5.100055e+01
1.360000e-06	-2.181316e-06	-7.455836e-10	-1.519674e+01	-5.041383e+01
1.370000e-06	-2.137726e-06	-7.402941e-10	-1.489306e+01	-4.982091e+01
1.380000e-06	-2.094124e-06	-7.352267e-10	-1.458929e+01	-4.922178e+01
1.390000e-06	-2.050421e-06	-7.262073e-10	-1.428482e+01	-4.861646e+01
1.400000e-06	-2.006621e-06	-7.144027e-10	-1.397968e+01	-4.800492e+01
1.410000e-06	-1.962747e-06	-7.036344e-10	-1.367402e+01	-4.738711e+01
1.420000e-06	-1.918785e-06	-6.934550e-10	-1.336775e+01	-4.676296e+01
1.430000e-06	-1.874764e-06	-6.833621e-10	-1.306107e+01	-4.613238e+01
1.440000e-06	-1.830617e-06	-6.750616e-10	-1.275350e+01	-4.549524e+01
1.450000e-06	-1.786421e-06	-6.676118e-10	-1.244559e+01	-4.485139e+01
1.460000e-06	-1.742144e-06	-6.582337e-10	-1.213713e+01	-4.420063e+01
1.470000e-06	-1.697696e-06	-6.464062e-10	-1.182747e+01	-4.354275e+01
1.480000e-06	-1.653186e-06	-6.342775e-10	-1.151738e+01	-4.287749e+01
1.490000e-06	-1.608483e-06	-6.223915e-10	-1.120594e+01	-4.220457e+01
1.500000e-06	-1.563633e-06	-6.137144e-10	-1.089348e+01	-4.152367e+01
1.510000e-06	-1.518717e-06	-6.040099e-10	-1.058057e+01	-4.083443e+01
1.520000e-06	-1.473729e-06	-5.941442e-10	-1.026714e+01	-4.013646e+01
1.530000e-06	-1.428650e-06	-5.839466e-10	-9.953085e+00	-3.942936e+01
1.540000e-06	-1.383478e-06	-5.716900e-10	-9.638383e+00	-3.871268e+01
1.550000e-06	-1.338189e-06	-5.573840e-10	-9.322864e+00	-3.798595e+01
1.560000e-06	-1.292731e-06	-5.453114e-10	-9.006168e+00	-3.724867e+01
1.570000e-06	-1.247159e-06	-5.317933e-10	-8.688682e+00	-3.650033e+01
1.580000e-06	-1.201445e-06	-5.206869e-10	-8.370199e+00	-3.574039e+01
1.590000e-06	-1.155709e-06	-5.113434e-10	-8.051565e+00	-3.496831e+01
1.600000e-06	-1.109947e-06	-4.994407e-10	-7.732753e+00	-3.418353e+01
1.610000e-06	-1.064030e-06	-4.840433e-10	-7.412862e+00	-3.338549e+01
1.620000e-06	-1.018063e-06	-4.714748e-10	-7.092618e+00	-3.257361e+01
1.630000e-06	-9.721235e-07	-4.648982e-10	-6.772568e+00	-3.174733e+01
1.640000e-06	-9.260552e-07	-4.560601e-10	-6.451620e+00	-3.090610e+01
1.650000e-06	-8.798287e-07	-4.422081e-10	-6.129571e+00	-3.004938e+01
1.660000e-06	-8.336387e-07	-4.273646e-10	-5.807775e+00	-2.917664e+01
1.670000e-06	-7.873717e-07	-4.099448e-10	-5.485443e+00	-2.828737e+01
1.680000e-06	-7.410404e-07	-3.925743e-10	-5.162663e+00	-2.738111e+01
1.690000e-06	-6.947506e-07	-3.791978e-10	-4.840173e+00	-2.645741e+01
1.700000e-06	-6.483622e-07	-3.669204e-10	-4.516995e+00	-2.551587e+01
1.710000e-06	-6.020430e-07	-3.540456e-10	-4.194299e+00	-2.455613e+01
1.720000e-06	-5.557172e-07	-3.370749e-10	-3.871558e+00	-2.357788e+01
1.730000e-06	-5.092009e-07	-3.167240e-10	-3.547489e+00	-2.258087e+01
1.740000e-06	-4.626777e-07	-2.959880e-10	-3.223372e+00	-2.156488e+01
1.750000e-06	-4.161298e-07	-2.781228e-10	-2.899084e+00	-2.052978e+01
1.760000e-06	-3.694892e-07	-2.636886e-10	-2.574149e+00	-1.947549e+01
1.770000e-06	-3.227927e-07	-2.504353e-10	-2.248825e+00	-1.840202e+01
1.780000e-06	-2.761243e-07	-2.367086e-10	-1.923697e+00	-1.730940e+01
1.790000e-06	-2.294227e-07	-2.229953e-10	-1.598337e+00	-1.619779e+01
1.800000e-06	-1.827093e-07	-2.074848e-10	-1.272895e+00	-1.506740e+01
1.810000e-06	-1.360782e-07	-1.915117e-10	-9.480266e-01	-1.391851e+01
1.820000e-06	-8.941028e-08	-1.762607e-10	-6.229015e-01	-1.275148e+01
1.830000e-06	-4.267443e-08	-1.615445e-10	-2.973033e-01	-1.156675e+01
1.840000e-06	4.079467e-09	-1.461005e-10	2.842074e-02	-1.036486e+01
1.850000e-06	5.074040e-08	-1.300722e-10	3.534971e-01	-9.146386e+00
1.860000e-06	9.745412e-08	-1.150531e-10	6.789411e-01	-7.912008e+00
1.870000e-06	1.442775e-07	-9.655465e-11	1.005150e+00	-6.662469e+00
1.880000e-06	1.910536e-07	-7.558285e-11	1.331028e+00	-5.398588e+00
1.890000e-06	2.377453e-07	-5.527063e-11	1.656318e+00	-4.121249e+00
1.900000e-06	2.844058e-07	-3.478071e-11	1.981392e+00	-2.831403e+00
1.910000e-06	3.310620e-07	-1.526890e-11	2.306435e+00	-1.530062e+00
1.920000e-06	3.776725e-07	2.484199e-12	2.631160e+00	-2.182944e-01
1.930000e-06	4.242372e-07	1.908327e-11	2.955566e+00	1.102779e+00
1.940000e-06	4.707967e-07	3.726340e-11	3.279936e+00	2.431990e+00
1.950000e-06	5.173313e-07	5.517011e-11	3.604132e+00	3.768129e+00
1.960000e-06	5.637498e-07	7.272829e-11	3.927519e+00	5.109950e+00
1.970000e-06	6.101508e-07	9.075787e-11	4.250784e+00	6.456179e+00
1.980000e-06	6.565321e-07	1.076812e-10	4.573913e+00	7.805516e+00
1.990000e-06	7.028717e-07	1.260323e-10	4.896750e+00	9.156645e+00
2.000000e-06	7.491344e-07	1.450689e-10	5.219053e+00	1.050824e+01
2.010000e-06	7.952919e-07	1.655138e-10	5.540621e+00	1.185897e+01
2.020000e-06	8.414621e-07	1.864869e-10	5.862279e+00	1.320751e+01
2.030000e-06	8.876104e-07	2.072946e-10	6.183784e+00	1.455254e+01
2.040000e-06	9.337040e-07	2.270656e-10	6.504907e+00	1.589276e+01
2.050000e-06	9.796798e-07	2.441878e-10	6.825211e+00	1.722688e+01
2.060000e-06	1.025509e-06	2.611290e-10	7.144492e+00	1.855366e+01
2.070000e-06	1.071280e-06	2.801436e-10	7.463372e+00	1.987187e+01
2.080000e-06	1.117063e-06	3.000709e-10	7.782329e+00	2.118034e+01
2.090000e-06	1.162760e-06	3.217154e-10	8.100687e+00	2.247794e+01
2.100000e-06	1.208281e-06	3.431045e-10	8.417824e+00	2.376358e+01
2.110000e-06	1.253741e-06	3.603211e-10	8.734536e+00	2.503623e+01
2.120000e-06	1.299208e-06	3.746172e-10	9.051295e+00	2.629493e+01
2.130000e-06	1.344572e-06	3.888200e-10	9.367331e+00	2.753876e+01
2.140000e-06	1.389773e-06	4.050490e-10	9.682241e+00	2.876689e+01
2.150000e-06	1.434892e-06	4.222562e-10	9.996573e+00	2.997855e+01
2.160000e-06	1.480029e-06	4.386639e-10	1.031103e+01	3.117303e+01
2.170000e-06	1.525064e-06	4.559493e-10	1.062478e+01	3.234971e+01
2.180000e-06	1.569899e-06	4.758523e-10	1.093713e+01	3.350802e+01
2.190000e-06	1.614661e-06	4.929012e-10	1.124898e+01	3.464749e+01
2.200000e-06	1.659329e-06	5.059999e-10	1.156018e+01	3.576772e+01
2.210000e-06	1.703830e-06	5.193296e-10	1.187020e+01	3.686835e+01
2.220000e-06	1.748166e-06	5.338732e-10	1.217909e+01	3.794915e+01
2.230000e-06	1.792342e-06	5.495838e-10	1.248685e+01	3.900991e+01
2.240000e-06	1.836342e-06	5.633133e-10	1.279339e+01	4.005052e+01
2.250000e-06	1.880288e-06	5.759626e-10	1.309955e+01	4.107093e+01
2.260000e-06	1.924272e-06	5.884585e-10	1.340597e+01	4.207114e+01
2.270000e-06	1.968173e-06	6.062291e-10	1.371182e+01	4.305124e+01
2.280000e-06	2.012002e-06	6.242316e-10	1.401717e+01	4.401136e+01
2.290000e-06	2.055756e-06	6.395571e-10	1.432199e+01	4.495168e+01
2.300000e-06	2.099460e-06	6.526451e-10	1.462647e+01	4.587244e+01
2.310000e-06	2.143135e-06	6.630731e-10	1.493075e+01	4.677392e+01
2.320000e-06	2.186687e-06	6.739161e-10	1.523416e+01	4.765646e+01
2.330000e-06	2.230009e-06	6.853181e-10	1.553598e+01	4.852041e+01
2.340000e-06	2.273083e-06	6.992476e-10	1.583606e+01	4.936617e+01
2.350000e-06	2.315957e-06	7.164022e-10	1.613476e+01	5.019416e+01
2.360000e-06	2.358576e-06	7.345527e-10	1.643168e+01	5.100484e+01
2.370000e-06	2.400929e-06	7.467579e-10	1.672674e+01	5.179866e+01
2.380000e-06	2.442966e-06	7.552328e-10	1.701960e+01	5.257612e+01
2.390000e-06	2.484636e-06	7.638944e-10	1.730991e+01	5.333768e+01
2.400000e-06	2.525844e-06	7.716640e-10	1.759699e+01	5.408387e+01
2.410000e-06	2.566762e-06	7.803877e-10	1.788206e+01	5.481516e+01
2.420000e-06	2.607556e-06	7.937009e-10	1.816626e+01	5.553205e+01
2.430000e-06	2.648065e-06	8.095969e-10	1.844848e+01	5.623504e+01
2.440000e-06	2.688333e-06	8.239710e-10	1.872902e+01	5.692460e+01
2.450000e-06	2.728524e-06	8.328758e-10	1.900902e+01	5.760119e+01
2.460000e-06	2.768621e-06	8.420648e-10	1.928837e+01	5.826527e+01
2.470000e-06	2.808590e-06	8.499879e-10	1.956682e+01	5.891726e+01
2.480000e-06	2.848411e-06	8.580966e-10	1.984424e+01	5.955758e+01
2.490000e-06	2.888045e-06	8.701775e-10	2.012036e+01	6.018662e+01
2.500000e-06	2.927558e-06	8.817515e-10	2.039565e+01	6.080474e+01
2.510000e-06	2.966973e-06	8.934610e-10	2.067024e+01	6.141229e+01
2.520000e-06	3.006113e-06	9.063634e-10	2.094292e+01	6.200958e+01
2.530000e-06	3.044956e-06	9.172274e-10	2.121353e+01	6.259690e+01
2.540000e-06	3.083636e-06	9.242918e-10	2.148300e+01	6.317452e+01
2.550000e-06	3.122136e-06	9.311529e-10	2.175123e+01	6.374267e+01
2.560000e-06	3.160408e-06	9.363921e-10	2.201786e+01	6.430157e+01
2.570000e-06	3.198357e-06	9.388820e-10	2.228224e+01	6.485142e+01
2.580000e-06	3.236122e-06	9.444020e-10	2.254534e+01	6.539236e+01
2.590000e-06	3.273856e-06	9.557059e-10	2.280823e+01	6.592456e+01
2.600000e-06	3.311364e-06	9.676285e-10	2.306954e+01	6.644813e+01
2.610000e-06	3.348603e-06	9.748303e-10	2.332897e+01	6.696318e+01
2.620000e-06	3.385657e-06	9.789548e-10	2.358712e+01	6.746980e+01
2.630000e-06	3.422465e-06	9.835070e-10	2.384355e+01	6.796806e+01
2.640000e-06	3.459011e-06	9.893822e-10	2.409816e+01	6.845802e+01
2.650000e-06	3.495358e-06	9.960380e-10	2.435138e+01	6.893972e+01
2.660000e-06	3.531490e-06	1.003164e-09	2.460311e+01	6.941322e+01
2.670000e-06	3.567408e-06	1.010036e-09	2.485334e+01	6.987853e+01
2.680000e-06	3.603192e-06	1.016721e-09	2.510264e+01	7.033569e+01
2.690000e-06	3.638843e-06	1.024761e-09	2.535101e+01	7.078472e+01
2.700000e-06	3.674269e-06	1.033089e-09	2.559782e+01	7.122565e+01
2.710000e-06	3.709461e-06	1.039901e-09	2.584299e+01	7.165850e+01
2.720000e-06	3.744444e-06	1.044009e-09	2.608670e+01	7.208330e+01
2.730000e-06	3.778991e-06	1.047435e-09	2.632739e+01	7.250008e+01
2.740000e-06	3.813007e-06	1.051399e-09	2.656437e+01	7.290889e+01
2.750000e-06	3.846613e-06	1.055344e-09	2.679850e+01	7.330975e+01
2.760000e-06	3.879696e-06	1.061743e-09	2.702898e+01	7.370274e+01
2.770000e-06	3.912371e-06	1.069969e-09	2.725662e+01	7.408790e+01
2.780000e-06	3.944772e-06	1.078580e-09	2.748235e+01	7.446532e+01
2.790000e-06	3.976894e-06	1.086147e-09	2.770614e+01	7.483507e+01
2.800000e-06	4.008871e-06	1.091885e-09	2.792891e+01	7.519725e+01
2.810000e-06	4.040723e-06	1.096804e-09	2.815082e+01	7.555197e+01
2.820000e-06	4.072410e-06	1.100575e-09	2.837157e+01	7.589932e+01
2.830000e-06	4.103820e-06	1.104539e-09	2.859040e+01	7.623945e+01
2.840000e-06	4.134913e-06	1.110405e-09	2.880702e+01	7.657248e+01
2.850000e-06	4.165770e-06	1.120046e-09	2.902199e+01	7.689856e+01
2.860000e-06	4.196321e-06	1.128529e-09	2.923483e+01	7.721783e+01
2.870000e-06	4.226491e-06	1.133773e-09	2.944502e+01	7.753046e+01
2.880000e-06	4.256370e-06	1.138328e-09	2.965318e+01	7.783662e+01
2.890000e-06	4.286030e-06	1.141401e-09	2.985982e+01	7.813647e+01
2.900000e-06	4.315409e-06	1.144197e-09	3.006449e+01	7.843019e+01
2.910000e-06	4.344439e-06	1.149924e-09	3.026674e+01	7.871795e+01
