# Temperatura_=_12.5
# Concentracion g/m^3_=_1620.0
# C_Vs_to_Am_M_A/Vsm_=_65563218390.804596
# pendiente_HvsI_1/m_=_3716.3
# ordenada_HvsI_A/m_=_1297.0
# frecuencia_Hz_=_135093.61238669656

Tiempo_(s)	Campo_(V.s)	Magnetizacion_(V.s)	Campo_(kA/m)	Magnetizacion_(A/m)
0.000000e+00	-5.511058e-06	-1.596486e-09	-3.837822e+01	-1.044449e+02
1.000000e-08	-5.511337e-06	-1.594397e-09	-3.838016e+01	-1.044470e+02
2.000000e-08	-5.511384e-06	-1.594638e-09	-3.838048e+01	-1.044451e+02
3.000000e-08	-5.511075e-06	-1.593867e-09	-3.837833e+01	-1.044389e+02
4.000000e-08	-5.510313e-06	-1.590104e-09	-3.837303e+01	-1.044283e+02
5.000000e-08	-5.509052e-06	-1.580385e-09	-3.836425e+01	-1.044131e+02
6.000000e-08	-5.507234e-06	-1.563954e-09	-3.835159e+01	-1.043930e+02
7.000000e-08	-5.504790e-06	-1.569857e-09	-3.833456e+01	-1.043680e+02
8.000000e-08	-5.501738e-06	-1.611928e-09	-3.831331e+01	-1.043377e+02
9.000000e-08	-5.498207e-06	-1.645353e-09	-3.828872e+01	-1.043020e+02
1.000000e-07	-5.494290e-06	-1.622629e-09	-3.826144e+01	-1.042608e+02
1.100000e-07	-5.490059e-06	-1.568342e-09	-3.823198e+01	-1.042138e+02
1.200000e-07	-5.485627e-06	-1.532246e-09	-3.820111e+01	-1.041609e+02
1.300000e-07	-5.480938e-06	-1.546509e-09	-3.816846e+01	-1.041020e+02
1.400000e-07	-5.475874e-06	-1.581059e-09	-3.813320e+01	-1.040369e+02
1.500000e-07	-5.470376e-06	-1.560384e-09	-3.809491e+01	-1.039655e+02
1.600000e-07	-5.464468e-06	-1.543333e-09	-3.805377e+01	-1.038878e+02
1.700000e-07	-5.458221e-06	-1.553133e-09	-3.801027e+01	-1.038036e+02
1.800000e-07	-5.451539e-06	-1.599859e-09	-3.796373e+01	-1.037129e+02
1.900000e-07	-5.444379e-06	-1.582711e-09	-3.791387e+01	-1.036156e+02
2.000000e-07	-5.436918e-06	-1.530301e-09	-3.786191e+01	-1.035117e+02
2.100000e-07	-5.429266e-06	-1.529750e-09	-3.780863e+01	-1.034011e+02
2.200000e-07	-5.421401e-06	-1.586969e-09	-3.775386e+01	-1.032840e+02
2.300000e-07	-5.413294e-06	-1.600848e-09	-3.769740e+01	-1.031602e+02
2.400000e-07	-5.404740e-06	-1.565875e-09	-3.763783e+01	-1.030299e+02
2.500000e-07	-5.395515e-06	-1.558574e-09	-3.757359e+01	-1.028930e+02
2.600000e-07	-5.385628e-06	-1.562540e-09	-3.750474e+01	-1.027497e+02
2.700000e-07	-5.375098e-06	-1.542670e-09	-3.743141e+01	-1.025999e+02
2.800000e-07	-5.364075e-06	-1.517971e-09	-3.735464e+01	-1.024438e+02
2.900000e-07	-5.352642e-06	-1.547475e-09	-3.727503e+01	-1.022814e+02
3.000000e-07	-5.340847e-06	-1.556475e-09	-3.719289e+01	-1.021129e+02
3.100000e-07	-5.328694e-06	-1.534448e-09	-3.710826e+01	-1.019383e+02
3.200000e-07	-5.316078e-06	-1.520513e-09	-3.702040e+01	-1.017578e+02
3.300000e-07	-5.303006e-06	-1.542840e-09	-3.692937e+01	-1.015714e+02
3.400000e-07	-5.289605e-06	-1.526829e-09	-3.683605e+01	-1.013793e+02
3.500000e-07	-5.275816e-06	-1.513577e-09	-3.674002e+01	-1.011816e+02
3.600000e-07	-5.261576e-06	-1.524652e-09	-3.664086e+01	-1.009784e+02
3.700000e-07	-5.246968e-06	-1.535774e-09	-3.653913e+01	-1.007698e+02
3.800000e-07	-5.231832e-06	-1.518083e-09	-3.643373e+01	-1.005559e+02
3.900000e-07	-5.216114e-06	-1.526009e-09	-3.632426e+01	-1.003368e+02
4.000000e-07	-5.199895e-06	-1.520077e-09	-3.621132e+01	-1.001127e+02
4.100000e-07	-5.183283e-06	-1.494465e-09	-3.609564e+01	-9.988359e+01
4.200000e-07	-5.166385e-06	-1.493831e-09	-3.597796e+01	-9.964959e+01
4.300000e-07	-5.149187e-06	-1.512308e-09	-3.585820e+01	-9.941077e+01
4.400000e-07	-5.131639e-06	-1.498920e-09	-3.573599e+01	-9.916722e+01
4.500000e-07	-5.113700e-06	-1.494289e-09	-3.561107e+01	-9.891899e+01
4.600000e-07	-5.095362e-06	-1.509895e-09	-3.548337e+01	-9.866615e+01
4.700000e-07	-5.076640e-06	-1.480950e-09	-3.535299e+01	-9.840873e+01
4.800000e-07	-5.057513e-06	-1.459064e-09	-3.521979e+01	-9.814679e+01
4.900000e-07	-5.038028e-06	-1.487491e-09	-3.508410e+01	-9.788034e+01
5.000000e-07	-5.018382e-06	-1.487186e-09	-3.494729e+01	-9.760942e+01
5.100000e-07	-4.998552e-06	-1.445528e-09	-3.480919e+01	-9.733404e+01
5.200000e-07	-4.978403e-06	-1.462759e-09	-3.466888e+01	-9.705421e+01
5.300000e-07	-4.957850e-06	-1.483881e-09	-3.452575e+01	-9.676993e+01
5.400000e-07	-4.936985e-06	-1.456908e-09	-3.438045e+01	-9.648119e+01
5.500000e-07	-4.915822e-06	-1.448053e-09	-3.423307e+01	-9.618799e+01
5.600000e-07	-4.894277e-06	-1.464424e-09	-3.408304e+01	-9.589032e+01
5.700000e-07	-4.872380e-06	-1.435077e-09	-3.393056e+01	-9.558814e+01
5.800000e-07	-4.850180e-06	-1.426008e-09	-3.377596e+01	-9.528146e+01
5.900000e-07	-4.827628e-06	-1.450718e-09	-3.361890e+01	-9.497024e+01
6.000000e-07	-4.804669e-06	-1.437737e-09	-3.345902e+01	-9.465447e+01
6.100000e-07	-4.781456e-06	-1.410532e-09	-3.329737e+01	-9.433412e+01
6.200000e-07	-4.758043e-06	-1.428381e-09	-3.313433e+01	-9.400918e+01
6.300000e-07	-4.734417e-06	-1.421807e-09	-3.296980e+01	-9.367962e+01
6.400000e-07	-4.710469e-06	-1.395207e-09	-3.280303e+01	-9.334542e+01
6.500000e-07	-4.686168e-06	-1.402046e-09	-3.263380e+01	-9.300659e+01
6.600000e-07	-4.661545e-06	-1.404727e-09	-3.246233e+01	-9.266310e+01
6.700000e-07	-4.636482e-06	-1.377642e-09	-3.228779e+01	-9.231496e+01
6.800000e-07	-4.610898e-06	-1.380374e-09	-3.210963e+01	-9.196216e+01
6.900000e-07	-4.584747e-06	-1.392147e-09	-3.192752e+01	-9.160472e+01
7.000000e-07	-4.558060e-06	-1.373523e-09	-3.174167e+01	-9.124263e+01
7.100000e-07	-4.530934e-06	-1.365068e-09	-3.155277e+01	-9.087593e+01
7.200000e-07	-4.503477e-06	-1.374677e-09	-3.136157e+01	-9.050463e+01
7.300000e-07	-4.475858e-06	-1.361604e-09	-3.116923e+01	-9.012876e+01
7.400000e-07	-4.448116e-06	-1.345511e-09	-3.097604e+01	-8.974836e+01
7.500000e-07	-4.420108e-06	-1.347615e-09	-3.078099e+01	-8.936345e+01
7.600000e-07	-4.391857e-06	-1.337841e-09	-3.058426e+01	-8.897409e+01
7.700000e-07	-4.363405e-06	-1.319592e-09	-3.038613e+01	-8.858032e+01
7.800000e-07	-4.334696e-06	-1.316530e-09	-3.018620e+01	-8.818218e+01
7.900000e-07	-4.305673e-06	-1.316251e-09	-2.998408e+01	-8.777974e+01
8.000000e-07	-4.276206e-06	-1.304637e-09	-2.977889e+01	-8.737303e+01
8.100000e-07	-4.246365e-06	-1.299976e-09	-2.957107e+01	-8.696212e+01
8.200000e-07	-4.216326e-06	-1.297319e-09	-2.936189e+01	-8.654706e+01
8.300000e-07	-4.185982e-06	-1.286531e-09	-2.915058e+01	-8.612790e+01
8.400000e-07	-4.155292e-06	-1.276151e-09	-2.893685e+01	-8.570470e+01
8.500000e-07	-4.124360e-06	-1.274322e-09	-2.872145e+01	-8.527749e+01
8.600000e-07	-4.093090e-06	-1.265288e-09	-2.850369e+01	-8.484632e+01
8.700000e-07	-4.061570e-06	-1.255875e-09	-2.828419e+01	-8.441124e+01
8.800000e-07	-4.029977e-06	-1.252103e-09	-2.806418e+01	-8.397227e+01
8.900000e-07	-3.998230e-06	-1.249440e-09	-2.784310e+01	-8.352945e+01
9.000000e-07	-3.966268e-06	-1.236900e-09	-2.762052e+01	-8.308280e+01
9.100000e-07	-3.934079e-06	-1.226728e-09	-2.739636e+01	-8.263232e+01
9.200000e-07	-3.901658e-06	-1.219887e-09	-2.717058e+01	-8.217802e+01
9.300000e-07	-3.868804e-06	-1.210909e-09	-2.694179e+01	-8.171990e+01
9.400000e-07	-3.835392e-06	-1.203799e-09	-2.670912e+01	-8.125795e+01
9.500000e-07	-3.801588e-06	-1.202933e-09	-2.647371e+01	-8.079215e+01
9.600000e-07	-3.767381e-06	-1.195456e-09	-2.623550e+01	-8.032246e+01
9.700000e-07	-3.732689e-06	-1.182978e-09	-2.599391e+01	-7.984885e+01
9.800000e-07	-3.697697e-06	-1.175317e-09	-2.575023e+01	-7.937128e+01
9.900000e-07	-3.662490e-06	-1.169839e-09	-2.550505e+01	-7.888967e+01
1.000000e-06	-3.627022e-06	-1.160353e-09	-2.525806e+01	-7.840398e+01
1.010000e-06	-3.591349e-06	-1.154186e-09	-2.500963e+01	-7.791412e+01
1.020000e-06	-3.555524e-06	-1.151662e-09	-2.476016e+01	-7.742002e+01
1.030000e-06	-3.519544e-06	-1.144287e-09	-2.450960e+01	-7.692160e+01
1.040000e-06	-3.483358e-06	-1.135212e-09	-2.425760e+01	-7.641876e+01
1.050000e-06	-3.446972e-06	-1.127276e-09	-2.400422e+01	-7.591141e+01
1.060000e-06	-3.410345e-06	-1.115426e-09	-2.374915e+01	-7.539945e+01
1.070000e-06	-3.373401e-06	-1.101502e-09	-2.349188e+01	-7.488279e+01
1.080000e-06	-3.336175e-06	-1.093599e-09	-2.323264e+01	-7.436131e+01
1.090000e-06	-3.298741e-06	-1.087384e-09	-2.297196e+01	-7.383492e+01
1.100000e-06	-3.261075e-06	-1.080140e-09	-2.270966e+01	-7.330351e+01
1.110000e-06	-3.223212e-06	-1.072537e-09	-2.244598e+01	-7.276698e+01
1.120000e-06	-3.185183e-06	-1.065589e-09	-2.218116e+01	-7.222524e+01
1.130000e-06	-3.146899e-06	-1.055052e-09	-2.191455e+01	-7.167819e+01
1.140000e-06	-3.108319e-06	-1.046204e-09	-2.164589e+01	-7.112574e+01
1.150000e-06	-3.069583e-06	-1.038392e-09	-2.137613e+01	-7.056780e+01
1.160000e-06	-3.030700e-06	-1.028520e-09	-2.110536e+01	-7.000429e+01
1.170000e-06	-2.991579e-06	-1.018744e-09	-2.083293e+01	-6.943514e+01
1.180000e-06	-2.952305e-06	-1.012092e-09	-2.055943e+01	-6.886027e+01
1.190000e-06	-2.912846e-06	-1.003227e-09	-2.028464e+01	-6.827964e+01
1.200000e-06	-2.873232e-06	-9.944976e-10	-2.000877e+01	-6.769318e+01
1.210000e-06	-2.833489e-06	-9.868855e-10	-1.973201e+01	-6.710084e+01
1.220000e-06	-2.793617e-06	-9.781768e-10	-1.945435e+01	-6.650258e+01
1.230000e-06	-2.753620e-06	-9.656483e-10	-1.917582e+01	-6.589837e+01
1.240000e-06	-2.713476e-06	-9.518586e-10	-1.889625e+01	-6.528817e+01
1.250000e-06	-2.673186e-06	-9.400861e-10	-1.861568e+01	-6.467195e+01
1.260000e-06	-2.632615e-06	-9.290072e-10	-1.833315e+01	-6.404969e+01
1.270000e-06	-2.591789e-06	-9.195464e-10	-1.804884e+01	-6.342137e+01
1.280000e-06	-2.550748e-06	-9.114408e-10	-1.776304e+01	-6.278696e+01
1.290000e-06	-2.509557e-06	-9.024268e-10	-1.747619e+01	-6.214645e+01
1.300000e-06	-2.468085e-06	-8.923034e-10	-1.718739e+01	-6.149980e+01
1.310000e-06	-2.426102e-06	-8.810785e-10	-1.689502e+01	-6.084699e+01
1.320000e-06	-2.383774e-06	-8.673662e-10	-1.660026e+01	-6.018798e+01
1.330000e-06	-2.341124e-06	-8.536191e-10	-1.630325e+01	-5.952273e+01
1.340000e-06	-2.298274e-06	-8.439548e-10	-1.600485e+01	-5.885119e+01
1.350000e-06	-2.255281e-06	-8.351746e-10	-1.570545e+01	-5.817329e+01
1.360000e-06	-2.212031e-06	-8.235780e-10	-1.540427e+01	-5.748896e+01
1.370000e-06	-2.168638e-06	-8.132808e-10	-1.510209e+01	-5.679810e+01
1.380000e-06	-2.125144e-06	-8.046788e-10	-1.479920e+01	-5.610061e+01
1.390000e-06	-2.081525e-06	-7.953448e-10	-1.449544e+01	-5.539636e+01
1.400000e-06	-2.037802e-06	-7.832482e-10	-1.419096e+01	-5.468520e+01
1.410000e-06	-1.994008e-06	-7.696384e-10	-1.388598e+01	-5.396696e+01
1.420000e-06	-1.950186e-06	-7.568841e-10	-1.358081e+01	-5.324144e+01
1.430000e-06	-1.906261e-06	-7.481993e-10	-1.327492e+01	-5.250843e+01
1.440000e-06	-1.862209e-06	-7.394961e-10	-1.296816e+01	-5.176768e+01
1.450000e-06	-1.818129e-06	-7.267142e-10	-1.266119e+01	-5.101892e+01
1.460000e-06	-1.773937e-06	-7.141273e-10	-1.235344e+01	-5.026187e+01
1.470000e-06	-1.729608e-06	-7.008061e-10	-1.204474e+01	-4.949618e+01
1.480000e-06	-1.685167e-06	-6.855704e-10	-1.173526e+01	-4.872153e+01
1.490000e-06	-1.640597e-06	-6.702866e-10	-1.142488e+01	-4.793753e+01
1.500000e-06	-1.595901e-06	-6.570959e-10	-1.111362e+01	-4.714378e+01
1.510000e-06	-1.551049e-06	-6.488069e-10	-1.080128e+01	-4.633985e+01
1.520000e-06	-1.506039e-06	-6.403019e-10	-1.048784e+01	-4.552532e+01
1.530000e-06	-1.460894e-06	-6.274215e-10	-1.017346e+01	-4.469969e+01
1.540000e-06	-1.415645e-06	-6.114787e-10	-9.858347e+00	-4.386250e+01
1.550000e-06	-1.370354e-06	-5.964303e-10	-9.542950e+00	-4.301324e+01
1.560000e-06	-1.324978e-06	-5.822214e-10	-9.226953e+00	-4.215139e+01
1.570000e-06	-1.279491e-06	-5.656312e-10	-8.910194e+00	-4.127643e+01
1.580000e-06	-1.233995e-06	-5.497934e-10	-8.593360e+00	-4.038783e+01
1.590000e-06	-1.188427e-06	-5.365764e-10	-8.276033e+00	-3.948505e+01
1.600000e-06	-1.142736e-06	-5.228000e-10	-7.957852e+00	-3.856755e+01
1.610000e-06	-1.096972e-06	-5.085495e-10	-7.639152e+00	-3.763481e+01
1.620000e-06	-1.051096e-06	-4.950519e-10	-7.319680e+00	-3.668631e+01
1.630000e-06	-1.005123e-06	-4.827306e-10	-6.999534e+00	-3.572154e+01
1.640000e-06	-9.590162e-07	-4.711751e-10	-6.678451e+00	-3.474001e+01
1.650000e-06	-9.128735e-07	-4.558650e-10	-6.357120e+00	-3.374124e+01
1.660000e-06	-8.666665e-07	-4.385234e-10	-6.035341e+00	-3.272480e+01
1.670000e-06	-8.203382e-07	-4.213162e-10	-5.712717e+00	-3.169029e+01
1.680000e-06	-7.740155e-07	-4.025694e-10	-5.390132e+00	-3.063732e+01
1.690000e-06	-7.277471e-07	-3.857427e-10	-5.067926e+00	-2.956556e+01
1.700000e-06	-6.814483e-07	-3.709106e-10	-4.745508e+00	-2.847473e+01
1.710000e-06	-6.351050e-07	-3.551298e-10	-4.422780e+00	-2.736459e+01
1.720000e-06	-5.887035e-07	-3.389900e-10	-4.099646e+00	-2.623495e+01
1.730000e-06	-5.421014e-07	-3.199880e-10	-3.775116e+00	-2.508568e+01
1.740000e-06	-4.953539e-07	-2.978524e-10	-3.449573e+00	-2.391672e+01
1.750000e-06	-4.486929e-07	-2.763099e-10	-3.124632e+00	-2.272806e+01
1.760000e-06	-4.021501e-07	-2.591744e-10	-2.800515e+00	-2.151976e+01
1.770000e-06	-3.554877e-07	-2.444596e-10	-2.475565e+00	-2.029195e+01
1.780000e-06	-3.087531e-07	-2.296887e-10	-2.150112e+00	-1.904483e+01
1.790000e-06	-2.619289e-07	-2.153454e-10	-1.824035e+00	-1.777867e+01
1.800000e-06	-2.151077e-07	-1.989745e-10	-1.497979e+00	-1.649382e+01
1.810000e-06	-1.683917e-07	-1.796384e-10	-1.172656e+00	-1.519069e+01
1.820000e-06	-1.216654e-07	-1.599097e-10	-8.472605e-01	-1.386977e+01
1.830000e-06	-7.496646e-08	-1.433124e-10	-5.220556e-01	-1.253163e+01
1.840000e-06	-2.825910e-08	-1.282216e-10	-1.967923e-01	-1.117690e+01
1.850000e-06	1.854478e-08	-1.135054e-10	1.291432e-01	-9.806282e+00
1.860000e-06	6.534240e-08	-9.638940e-11	4.550350e-01	-8.420558e+00
1.870000e-06	1.120708e-07	-7.518819e-11	7.804446e-01	-7.020564e+00
1.880000e-06	1.587549e-07	-5.279969e-11	1.105546e+00	-5.607203e+00
1.890000e-06	2.054088e-07	-3.030018e-11	1.430437e+00	-4.181436e+00
1.900000e-06	2.520630e-07	-9.758397e-12	1.755331e+00	-2.744281e+00
1.910000e-06	2.987110e-07	1.036195e-11	2.080181e+00	-1.296807e+00
1.920000e-06	3.453803e-07	2.755051e-11	2.405179e+00	1.598724e-01
1.930000e-06	3.920410e-07	4.138998e-11	2.730117e+00	1.624599e+00
1.940000e-06	4.386581e-07	5.794530e-11	3.054752e+00	3.096179e+00
1.950000e-06	4.851607e-07	7.814048e-11	3.378590e+00	4.573389e+00
1.960000e-06	5.315655e-07	1.025110e-10	3.701746e+00	6.054980e+00
1.970000e-06	5.779383e-07	1.279691e-10	4.024679e+00	7.539684e+00
1.980000e-06	6.242742e-07	1.505659e-10	4.347355e+00	9.026220e+00
1.990000e-06	6.706436e-07	1.708301e-10	4.670266e+00	1.051330e+01
2.000000e-06	7.169497e-07	1.896888e-10	4.992734e+00	1.199964e+01
2.010000e-06	7.631055e-07	2.067460e-10	5.314157e+00	1.348395e+01
2.020000e-06	8.091960e-07	2.252226e-10	5.635124e+00	1.496496e+01
2.030000e-06	8.553464e-07	2.492537e-10	5.956509e+00	1.644142e+01
2.040000e-06	9.014805e-07	2.755170e-10	6.277780e+00	1.791210e+01
2.050000e-06	9.475773e-07	2.975815e-10	6.598792e+00	1.937581e+01
2.060000e-06	9.935185e-07	3.160622e-10	6.918720e+00	2.083137e+01
2.070000e-06	1.039236e-06	3.353464e-10	7.237089e+00	2.227766e+01
2.080000e-06	1.084959e-06	3.568000e-10	7.555496e+00	2.371360e+01
2.090000e-06	1.130717e-06	3.784207e-10	7.874153e+00	2.513816e+01
2.100000e-06	1.176335e-06	4.020880e-10	8.191827e+00	2.655036e+01
2.110000e-06	1.221886e-06	4.259592e-10	8.509040e+00	2.794929e+01
2.120000e-06	1.267440e-06	4.449393e-10	8.826268e+00	2.933407e+01
2.130000e-06	1.312894e-06	4.612686e-10	9.142803e+00	3.070391e+01
2.140000e-06	1.358264e-06	4.778692e-10	9.458757e+00	3.205808e+01
2.150000e-06	1.403454e-06	4.954846e-10	9.773453e+00	3.339590e+01
2.160000e-06	1.448544e-06	5.141495e-10	1.008745e+01	3.471679e+01
2.170000e-06	1.493504e-06	5.340302e-10	1.040055e+01	3.602020e+01
2.180000e-06	1.538310e-06	5.555397e-10	1.071257e+01	3.730568e+01
2.190000e-06	1.583010e-06	5.766428e-10	1.102386e+01	3.857283e+01
2.200000e-06	1.627610e-06	5.950679e-10	1.133444e+01	3.982132e+01
2.210000e-06	1.672105e-06	6.096295e-10	1.164430e+01	4.105091e+01
2.220000e-06	1.716413e-06	6.227200e-10	1.195285e+01	4.226138e+01
2.230000e-06	1.760599e-06	6.389135e-10	1.226056e+01	4.345261e+01
2.240000e-06	1.804770e-06	6.559204e-10	1.256816e+01	4.462453e+01
2.250000e-06	1.848889e-06	6.733943e-10	1.287540e+01	4.577713e+01
2.260000e-06	1.892857e-06	6.906373e-10	1.318158e+01	4.691044e+01
2.270000e-06	1.936725e-06	7.068564e-10	1.348708e+01	4.802456e+01
2.280000e-06	1.980589e-06	7.248205e-10	1.379254e+01	4.911962e+01
2.290000e-06	2.024395e-06	7.407795e-10	1.409760e+01	5.019581e+01
2.300000e-06	2.068124e-06	7.553910e-10	1.440212e+01	5.125336e+01
2.310000e-06	2.111744e-06	7.682966e-10	1.470588e+01	5.229251e+01
2.320000e-06	2.155343e-06	7.824381e-10	1.500950e+01	5.331355e+01
2.330000e-06	2.198926e-06	7.983848e-10	1.531301e+01	5.431681e+01
2.340000e-06	2.242309e-06	8.128625e-10	1.561512e+01	5.530262e+01
2.350000e-06	2.285515e-06	8.291634e-10	1.591600e+01	5.627134e+01
2.360000e-06	2.328444e-06	8.481270e-10	1.621495e+01	5.722333e+01
2.370000e-06	2.371018e-06	8.647584e-10	1.651143e+01	5.815897e+01
2.380000e-06	2.413272e-06	8.750836e-10	1.680568e+01	5.907866e+01
2.390000e-06	2.455213e-06	8.833147e-10	1.709775e+01	5.998278e+01
2.400000e-06	2.496808e-06	8.948281e-10	1.738741e+01	6.087172e+01
2.410000e-06	2.538021e-06	9.070453e-10	1.767441e+01	6.174586e+01
2.420000e-06	2.578918e-06	9.200698e-10	1.795921e+01	6.260559e+01
2.430000e-06	2.619526e-06	9.351637e-10	1.824200e+01	6.345125e+01
2.440000e-06	2.659944e-06	9.485906e-10	1.852347e+01	6.428321e+01
2.450000e-06	2.700233e-06	9.575065e-10	1.880403e+01	6.510182e+01
2.460000e-06	2.740340e-06	9.647565e-10	1.908334e+01	6.590738e+01
2.470000e-06	2.780286e-06	9.756589e-10	1.936151e+01	6.670021e+01
2.480000e-06	2.820108e-06	9.875038e-10	1.963883e+01	6.748059e+01
2.490000e-06	2.859846e-06	1.000017e-09	1.991556e+01	6.824879e+01
2.500000e-06	2.899495e-06	1.012389e-09	2.019166e+01	6.900505e+01
2.510000e-06	2.939038e-06	1.021967e-09	2.046704e+01	6.974962e+01
2.520000e-06	2.978391e-06	1.030009e-09	2.074109e+01	7.048268e+01
2.530000e-06	3.017520e-06	1.039547e-09	2.101357e+01	7.120443e+01
2.540000e-06	3.056450e-06	1.048676e-09	2.128468e+01	7.191505e+01
2.550000e-06	3.095113e-06	1.058483e-09	2.155392e+01	7.261467e+01
2.560000e-06	3.133477e-06	1.070654e-09	2.182108e+01	7.330344e+01
2.570000e-06	3.171657e-06	1.082712e-09	2.208696e+01	7.398147e+01
2.580000e-06	3.209662e-06	1.093329e-09	2.235162e+01	7.464888e+01
2.590000e-06	3.247454e-06	1.104136e-09	2.261480e+01	7.530575e+01
2.600000e-06	3.285059e-06	1.114932e-09	2.287668e+01	7.595218e+01
2.610000e-06	3.322386e-06	1.123697e-09	2.313662e+01	7.658823e+01
2.620000e-06	3.359451e-06	1.129573e-09	2.339473e+01	7.721398e+01
2.630000e-06	3.396360e-06	1.134910e-09	2.365176e+01	7.782949e+01
2.640000e-06	3.432983e-06	1.141777e-09	2.390680e+01	7.843484e+01
2.650000e-06	3.469338e-06	1.150171e-09	2.415997e+01	7.903007e+01
2.660000e-06	3.505503e-06	1.160829e-09	2.441182e+01	7.961525e+01
2.670000e-06	3.541501e-06	1.170443e-09	2.466250e+01	8.019046e+01
2.680000e-06	3.577426e-06	1.178049e-09	2.491268e+01	8.075576e+01
2.690000e-06	3.613199e-06	1.186832e-09	2.516179e+01	8.131123e+01
2.700000e-06	3.648771e-06	1.195592e-09	2.540952e+01	8.185695e+01
2.710000e-06	3.684171e-06	1.203008e-09	2.565603e+01	8.239303e+01
2.720000e-06	3.719400e-06	1.209939e-09	2.590137e+01	8.291956e+01
2.730000e-06	3.754303e-06	1.217529e-09	2.614443e+01	8.343665e+01
2.740000e-06	3.788738e-06	1.224906e-09	2.638423e+01	8.394443e+01
2.750000e-06	3.822562e-06	1.231738e-09	2.661977e+01	8.444304e+01
2.760000e-06	3.855975e-06	1.238869e-09	2.685245e+01	8.493261e+01
2.770000e-06	3.889036e-06	1.246208e-09	2.708269e+01	8.541331e+01
2.780000e-06	3.921691e-06	1.254443e-09	2.731009e+01	8.588530e+01
2.790000e-06	3.954042e-06	1.264131e-09	2.753538e+01	8.634876e+01
2.800000e-06	3.986096e-06	1.273698e-09	2.775860e+01	8.680388e+01
2.810000e-06	4.017972e-06	1.281575e-09	2.798057e+01	8.725084e+01
2.820000e-06	4.049713e-06	1.289026e-09	2.820162e+01	8.768985e+01
2.830000e-06	4.081279e-06	1.295882e-09	2.842144e+01	8.812112e+01
2.840000e-06	4.112536e-06	1.302465e-09	2.863911e+01	8.854486e+01
2.850000e-06	4.143530e-06	1.309972e-09	2.885494e+01	8.896128e+01
2.860000e-06	4.174310e-06	1.319872e-09	2.906929e+01	8.937059e+01
2.870000e-06	4.204710e-06	1.328154e-09	2.928100e+01	8.977302e+01
2.880000e-06	4.234681e-06	1.332914e-09	2.948971e+01	9.016877e+01
2.890000e-06	4.264384e-06	1.339322e-09	2.969656e+01	9.055806e+01
2.900000e-06	4.293979e-06	1.347693e-09	2.990265e+01	9.094109e+01
2.910000e-06	4.323364e-06	1.354495e-09	3.010729e+01	9.131805e+01
