# Temperatura_=_-1.0
# Concentracion g/m^3_=_1620.0
# C_Vs_to_Am_M_A/Vsm_=_65563218390.804596
# pendiente_HvsI_1/m_=_3716.3
# ordenada_HvsI_A/m_=_1297.0
# frecuencia_Hz_=_135103.6762000387

Tiempo_(s)	Campo_(V.s)	Magnetizacion_(V.s)	Campo_(kA/m)	Magnetizacion_(A/m)
0.000000e+00	-5.495062e-06	-1.153944e-09	-3.837322e+01	-7.635586e+01
1.000000e-08	-5.495274e-06	-1.152801e-09	-3.837470e+01	-7.631808e+01
2.000000e-08	-5.495234e-06	-1.151604e-09	-3.837442e+01	-7.627972e+01
3.000000e-08	-5.494923e-06	-1.149285e-09	-3.837225e+01	-7.624066e+01
4.000000e-08	-5.494177e-06	-1.142498e-09	-3.836704e+01	-7.620075e+01
5.000000e-08	-5.492948e-06	-1.130489e-09	-3.835846e+01	-7.615985e+01
6.000000e-08	-5.491097e-06	-1.121764e-09	-3.834553e+01	-7.611781e+01
7.000000e-08	-5.488587e-06	-1.149670e-09	-3.832800e+01	-7.607448e+01
8.000000e-08	-5.485576e-06	-1.204808e-09	-3.830698e+01	-7.602969e+01
9.000000e-08	-5.482062e-06	-1.206226e-09	-3.828244e+01	-7.598330e+01
1.000000e-07	-5.478064e-06	-1.123599e-09	-3.825452e+01	-7.593513e+01
1.100000e-07	-5.473809e-06	-1.089379e-09	-3.822480e+01	-7.588503e+01
1.200000e-07	-5.469281e-06	-1.147432e-09	-3.819319e+01	-7.583285e+01
1.300000e-07	-5.464407e-06	-1.187876e-09	-3.815915e+01	-7.577843e+01
1.400000e-07	-5.459243e-06	-1.127126e-09	-3.812309e+01	-7.572161e+01
1.500000e-07	-5.453802e-06	-1.089586e-09	-3.808510e+01	-7.566227e+01
1.600000e-07	-5.447977e-06	-1.134936e-09	-3.804441e+01	-7.560026e+01
1.700000e-07	-5.441675e-06	-1.192943e-09	-3.800040e+01	-7.553545e+01
1.800000e-07	-5.434944e-06	-1.145526e-09	-3.795340e+01	-7.546772e+01
1.900000e-07	-5.427874e-06	-1.109771e-09	-3.790403e+01	-7.539696e+01
2.000000e-07	-5.420536e-06	-1.129703e-09	-3.785278e+01	-7.532308e+01
2.100000e-07	-5.412865e-06	-1.203785e-09	-3.779922e+01	-7.524597e+01
2.200000e-07	-5.404919e-06	-1.196986e-09	-3.774373e+01	-7.516555e+01
2.300000e-07	-5.396765e-06	-1.158151e-09	-3.768679e+01	-7.508177e+01
2.400000e-07	-5.388212e-06	-1.144876e-09	-3.762706e+01	-7.499455e+01
2.500000e-07	-5.379099e-06	-1.169127e-09	-3.756343e+01	-7.490385e+01
2.600000e-07	-5.369350e-06	-1.161862e-09	-3.749535e+01	-7.480962e+01
2.700000e-07	-5.359009e-06	-1.136359e-09	-3.742313e+01	-7.471186e+01
2.800000e-07	-5.348041e-06	-1.145226e-09	-3.734654e+01	-7.461053e+01
2.900000e-07	-5.336541e-06	-1.159651e-09	-3.726623e+01	-7.450563e+01
3.000000e-07	-5.324701e-06	-1.143436e-09	-3.718355e+01	-7.439716e+01
3.100000e-07	-5.312494e-06	-1.101754e-09	-3.709831e+01	-7.428514e+01
3.200000e-07	-5.299904e-06	-1.126096e-09	-3.701039e+01	-7.416958e+01
3.300000e-07	-5.286913e-06	-1.141095e-09	-3.691967e+01	-7.405051e+01
3.400000e-07	-5.273560e-06	-1.132902e-09	-3.682642e+01	-7.392796e+01
3.500000e-07	-5.259844e-06	-1.105573e-09	-3.673064e+01	-7.380198e+01
3.600000e-07	-5.245742e-06	-1.147409e-09	-3.663216e+01	-7.367261e+01
3.700000e-07	-5.231135e-06	-1.139440e-09	-3.653016e+01	-7.353989e+01
3.800000e-07	-5.216046e-06	-1.107795e-09	-3.642479e+01	-7.340389e+01
3.900000e-07	-5.200475e-06	-1.109628e-09	-3.631605e+01	-7.326464e+01
4.000000e-07	-5.184435e-06	-1.149959e-09	-3.620404e+01	-7.312222e+01
4.100000e-07	-5.167978e-06	-1.105265e-09	-3.608912e+01	-7.297668e+01
4.200000e-07	-5.151056e-06	-1.084334e-09	-3.597095e+01	-7.282807e+01
4.300000e-07	-5.133839e-06	-1.135838e-09	-3.585072e+01	-7.267645e+01
4.400000e-07	-5.116376e-06	-1.144488e-09	-3.572877e+01	-7.252187e+01
4.500000e-07	-5.098533e-06	-1.077086e-09	-3.560417e+01	-7.236440e+01
4.600000e-07	-5.080238e-06	-1.094856e-09	-3.547641e+01	-7.220408e+01
4.700000e-07	-5.061597e-06	-1.139998e-09	-3.534624e+01	-7.204095e+01
4.800000e-07	-5.042603e-06	-1.102496e-09	-3.521360e+01	-7.187507e+01
4.900000e-07	-5.023197e-06	-1.079857e-09	-3.507808e+01	-7.170647e+01
5.000000e-07	-5.003484e-06	-1.122819e-09	-3.494042e+01	-7.153519e+01
5.100000e-07	-4.983560e-06	-1.101576e-09	-3.480129e+01	-7.136126e+01
5.200000e-07	-4.963415e-06	-1.062698e-09	-3.466061e+01	-7.118470e+01
5.300000e-07	-4.943000e-06	-1.103808e-09	-3.451805e+01	-7.100555e+01
5.400000e-07	-4.922260e-06	-1.110486e-09	-3.437322e+01	-7.082383e+01
5.500000e-07	-4.901145e-06	-1.058855e-09	-3.422577e+01	-7.063954e+01
5.600000e-07	-4.879610e-06	-1.073347e-09	-3.407538e+01	-7.045269e+01
5.700000e-07	-4.857700e-06	-1.111202e-09	-3.392238e+01	-7.026330e+01
5.800000e-07	-4.835534e-06	-1.073440e-09	-3.376759e+01	-7.007137e+01
5.900000e-07	-4.812975e-06	-1.063327e-09	-3.361006e+01	-6.987690e+01
6.000000e-07	-4.790090e-06	-1.092780e-09	-3.345025e+01	-6.967988e+01
6.100000e-07	-4.766951e-06	-1.076324e-09	-3.328866e+01	-6.948031e+01
6.200000e-07	-4.743442e-06	-1.049117e-09	-3.312449e+01	-6.927820e+01
6.300000e-07	-4.719681e-06	-1.073459e-09	-3.295856e+01	-6.907352e+01
6.400000e-07	-4.695711e-06	-1.065774e-09	-3.279117e+01	-6.886626e+01
6.500000e-07	-4.671490e-06	-1.044309e-09	-3.262204e+01	-6.865643e+01
6.600000e-07	-4.646931e-06	-1.052760e-09	-3.245053e+01	-6.844402e+01
6.700000e-07	-4.621952e-06	-1.057956e-09	-3.227610e+01	-6.822900e+01
6.800000e-07	-4.596493e-06	-1.036611e-09	-3.209831e+01	-6.801138e+01
6.900000e-07	-4.570534e-06	-1.046804e-09	-3.191704e+01	-6.779115e+01
7.000000e-07	-4.544050e-06	-1.047070e-09	-3.173210e+01	-6.756830e+01
7.100000e-07	-4.517123e-06	-1.030205e-09	-3.154406e+01	-6.734283e+01
7.200000e-07	-4.489785e-06	-1.029155e-09	-3.135315e+01	-6.711474e+01
7.300000e-07	-4.462084e-06	-1.032871e-09	-3.115971e+01	-6.688402e+01
7.400000e-07	-4.434277e-06	-1.010482e-09	-3.096553e+01	-6.665070e+01
7.500000e-07	-4.406396e-06	-1.006068e-09	-3.077083e+01	-6.641476e+01
7.600000e-07	-4.378263e-06	-1.014005e-09	-3.057437e+01	-6.617622e+01
7.700000e-07	-4.349782e-06	-1.004204e-09	-3.037548e+01	-6.593509e+01
7.800000e-07	-4.320987e-06	-9.976766e-10	-3.017440e+01	-6.569137e+01
7.900000e-07	-4.291857e-06	-1.007630e-09	-2.997098e+01	-6.544510e+01
8.000000e-07	-4.262414e-06	-9.972605e-10	-2.976537e+01	-6.519627e+01
8.100000e-07	-4.232731e-06	-9.790246e-10	-2.955809e+01	-6.494492e+01
8.200000e-07	-4.202804e-06	-9.798852e-10	-2.934910e+01	-6.469105e+01
8.300000e-07	-4.172622e-06	-9.744693e-10	-2.913833e+01	-6.443469e+01
8.400000e-07	-4.142092e-06	-9.598935e-10	-2.892513e+01	-6.417586e+01
8.500000e-07	-4.111194e-06	-9.612908e-10	-2.870937e+01	-6.391458e+01
8.600000e-07	-4.080008e-06	-9.679572e-10	-2.849159e+01	-6.365086e+01
8.700000e-07	-4.048598e-06	-9.589059e-10	-2.827224e+01	-6.338472e+01
8.800000e-07	-4.016961e-06	-9.557152e-10	-2.805131e+01	-6.311617e+01
8.900000e-07	-3.985188e-06	-9.575577e-10	-2.782944e+01	-6.284523e+01
9.000000e-07	-3.953280e-06	-9.496387e-10	-2.760662e+01	-6.257191e+01
9.100000e-07	-3.921102e-06	-9.368143e-10	-2.738191e+01	-6.229620e+01
9.200000e-07	-3.888706e-06	-9.390872e-10	-2.715568e+01	-6.201812e+01
9.300000e-07	-3.856015e-06	-9.343255e-10	-2.692739e+01	-6.173765e+01
9.400000e-07	-3.822944e-06	-9.243525e-10	-2.669646e+01	-6.145479e+01
9.500000e-07	-3.789446e-06	-9.231711e-10	-2.646253e+01	-6.116952e+01
9.600000e-07	-3.755452e-06	-9.257825e-10	-2.622514e+01	-6.088182e+01
9.700000e-07	-3.720962e-06	-9.145710e-10	-2.598429e+01	-6.059166e+01
9.800000e-07	-3.686035e-06	-9.070899e-10	-2.574039e+01	-6.029900e+01
9.900000e-07	-3.650761e-06	-9.061032e-10	-2.549407e+01	-6.000380e+01
1.000000e-06	-3.615185e-06	-9.021510e-10	-2.524563e+01	-5.970602e+01
1.010000e-06	-3.579400e-06	-8.942501e-10	-2.499573e+01	-5.940560e+01
1.020000e-06	-3.543534e-06	-8.934540e-10	-2.474527e+01	-5.910247e+01
1.030000e-06	-3.507617e-06	-8.883329e-10	-2.449446e+01	-5.879655e+01
1.040000e-06	-3.471509e-06	-8.789896e-10	-2.424231e+01	-5.848778e+01
1.050000e-06	-3.435133e-06	-8.721540e-10	-2.398828e+01	-5.817607e+01
1.060000e-06	-3.398601e-06	-8.666837e-10	-2.373318e+01	-5.786132e+01
1.070000e-06	-3.361832e-06	-8.574423e-10	-2.347641e+01	-5.754344e+01
1.080000e-06	-3.324761e-06	-8.512195e-10	-2.321753e+01	-5.722231e+01
1.090000e-06	-3.287509e-06	-8.492302e-10	-2.295739e+01	-5.689784e+01
1.100000e-06	-3.250007e-06	-8.463649e-10	-2.269551e+01	-5.656990e+01
1.110000e-06	-3.212222e-06	-8.429285e-10	-2.243165e+01	-5.623837e+01
1.120000e-06	-3.174225e-06	-8.382681e-10	-2.216630e+01	-5.590313e+01
1.130000e-06	-3.136080e-06	-8.297774e-10	-2.189993e+01	-5.556405e+01
1.140000e-06	-3.097744e-06	-8.182759e-10	-2.163222e+01	-5.522099e+01
1.150000e-06	-3.059172e-06	-8.082803e-10	-2.136287e+01	-5.487383e+01
1.160000e-06	-3.020299e-06	-7.999932e-10	-2.109141e+01	-5.452242e+01
1.170000e-06	-2.981148e-06	-7.957284e-10	-2.081801e+01	-5.416663e+01
1.180000e-06	-2.941838e-06	-7.943627e-10	-2.054350e+01	-5.380632e+01
1.190000e-06	-2.902361e-06	-7.938484e-10	-2.026782e+01	-5.344133e+01
1.200000e-06	-2.862751e-06	-7.886727e-10	-1.999122e+01	-5.307154e+01
1.210000e-06	-2.823036e-06	-7.822738e-10	-1.971387e+01	-5.269680e+01
1.220000e-06	-2.783203e-06	-7.725241e-10	-1.943572e+01	-5.231697e+01
1.230000e-06	-2.743289e-06	-7.634885e-10	-1.915699e+01	-5.193190e+01
1.240000e-06	-2.703269e-06	-7.549487e-10	-1.887752e+01	-5.154146e+01
1.250000e-06	-2.663036e-06	-7.478413e-10	-1.859656e+01	-5.114551e+01
1.260000e-06	-2.622669e-06	-7.399596e-10	-1.831467e+01	-5.074389e+01
1.270000e-06	-2.582142e-06	-7.331840e-10	-1.803166e+01	-5.033648e+01
1.280000e-06	-2.541378e-06	-7.279584e-10	-1.774700e+01	-4.992313e+01
1.290000e-06	-2.500448e-06	-7.234534e-10	-1.746118e+01	-4.950370e+01
1.300000e-06	-2.459292e-06	-7.159335e-10	-1.717377e+01	-4.907805e+01
1.310000e-06	-2.417765e-06	-7.043013e-10	-1.688378e+01	-4.864604e+01
1.320000e-06	-2.375812e-06	-6.922137e-10	-1.659082e+01	-4.820751e+01
1.330000e-06	-2.333632e-06	-6.820331e-10	-1.629626e+01	-4.776233e+01
1.340000e-06	-2.291153e-06	-6.720936e-10	-1.599962e+01	-4.731035e+01
1.350000e-06	-2.248247e-06	-6.636781e-10	-1.570000e+01	-4.685140e+01
1.360000e-06	-2.205096e-06	-6.571197e-10	-1.539867e+01	-4.638533e+01
1.370000e-06	-2.161802e-06	-6.536077e-10	-1.509633e+01	-4.591199e+01
1.380000e-06	-2.118276e-06	-6.515581e-10	-1.479239e+01	-4.543119e+01
1.390000e-06	-2.074559e-06	-6.468996e-10	-1.448710e+01	-4.494277e+01
1.400000e-06	-2.030795e-06	-6.365442e-10	-1.418149e+01	-4.444653e+01
1.410000e-06	-1.987010e-06	-6.252660e-10	-1.387573e+01	-4.394229e+01
1.420000e-06	-1.943190e-06	-6.179531e-10	-1.356972e+01	-4.342985e+01
1.430000e-06	-1.899259e-06	-6.140759e-10	-1.326294e+01	-4.290899e+01
1.440000e-06	-1.855240e-06	-6.108929e-10	-1.295555e+01	-4.237950e+01
1.450000e-06	-1.811174e-06	-6.047492e-10	-1.264782e+01	-4.184115e+01
1.460000e-06	-1.766995e-06	-5.963003e-10	-1.233931e+01	-4.129368e+01
1.470000e-06	-1.722713e-06	-5.864727e-10	-1.203008e+01	-4.073685e+01
1.480000e-06	-1.678447e-06	-5.737655e-10	-1.172096e+01	-4.017038e+01
1.490000e-06	-1.634126e-06	-5.599358e-10	-1.141146e+01	-3.959401e+01
1.500000e-06	-1.589645e-06	-5.513377e-10	-1.110084e+01	-3.900745e+01
1.510000e-06	-1.544990e-06	-5.475291e-10	-1.078900e+01	-3.841038e+01
1.520000e-06	-1.500146e-06	-5.446795e-10	-1.047585e+01	-3.780251e+01
1.530000e-06	-1.455175e-06	-5.363205e-10	-1.016180e+01	-3.718350e+01
1.540000e-06	-1.410095e-06	-5.212777e-10	-9.847001e+00	-3.655304e+01
1.550000e-06	-1.364889e-06	-5.049287e-10	-9.531320e+00	-3.591077e+01
1.560000e-06	-1.319646e-06	-4.912635e-10	-9.215379e+00	-3.525636e+01
1.570000e-06	-1.274414e-06	-4.781778e-10	-8.899512e+00	-3.458945e+01
1.580000e-06	-1.229091e-06	-4.681709e-10	-8.583012e+00	-3.390968e+01
1.590000e-06	-1.183577e-06	-4.618615e-10	-8.265175e+00	-3.321670e+01
1.600000e-06	-1.137876e-06	-4.558690e-10	-7.946033e+00	-3.251014e+01
1.610000e-06	-1.092093e-06	-4.460696e-10	-7.626323e+00	-3.178965e+01
1.620000e-06	-1.046261e-06	-4.334939e-10	-7.306272e+00	-3.105486e+01
1.630000e-06	-1.000276e-06	-4.196605e-10	-6.985147e+00	-3.030545e+01
1.640000e-06	-9.542587e-07	-4.060824e-10	-6.663797e+00	-2.954105e+01
1.650000e-06	-9.082544e-07	-3.936873e-10	-6.342539e+00	-2.876134e+01
1.660000e-06	-8.621594e-07	-3.816716e-10	-6.020648e+00	-2.796601e+01
1.670000e-06	-8.160445e-07	-3.698544e-10	-5.698617e+00	-2.715475e+01
1.680000e-06	-7.699506e-07	-3.583893e-10	-5.376734e+00	-2.632729e+01
1.690000e-06	-7.237609e-07	-3.470658e-10	-5.054181e+00	-2.548337e+01
1.700000e-06	-6.774665e-07	-3.350188e-10	-4.730896e+00	-2.462275e+01
1.710000e-06	-6.311624e-07	-3.234077e-10	-4.407545e+00	-2.374523e+01
1.720000e-06	-5.848543e-07	-3.103155e-10	-4.084165e+00	-2.285064e+01
1.730000e-06	-5.385330e-07	-2.928091e-10	-3.760693e+00	-2.193882e+01
1.740000e-06	-4.921703e-07	-2.731890e-10	-3.436933e+00	-2.100969e+01
1.750000e-06	-4.457193e-07	-2.549310e-10	-3.112556e+00	-2.006316e+01
1.760000e-06	-3.991916e-07	-2.397689e-10	-2.787642e+00	-1.909922e+01
1.770000e-06	-3.526482e-07	-2.282038e-10	-2.462620e+00	-1.811788e+01
1.780000e-06	-3.060590e-07	-2.186052e-10	-2.137277e+00	-1.711920e+01
1.790000e-06	-2.594342e-07	-2.077513e-10	-1.811686e+00	-1.610330e+01
1.800000e-06	-2.128005e-07	-1.940343e-10	-1.486032e+00	-1.507033e+01
1.810000e-06	-1.662004e-07	-1.790912e-10	-1.160614e+00	-1.402049e+01
1.820000e-06	-1.196359e-07	-1.627854e-10	-8.354438e-01	-1.295405e+01
1.830000e-06	-7.305634e-08	-1.463462e-10	-5.101684e-01	-1.187132e+01
1.840000e-06	-2.642978e-08	-1.313593e-10	-1.845650e-01	-1.077266e+01
1.850000e-06	2.021258e-08	-1.172871e-10	1.411489e-01	-9.658487e+00
1.860000e-06	6.680022e-08	-1.027490e-10	4.664806e-01	-8.529267e+00
1.870000e-06	1.134173e-07	-8.862442e-11	7.920175e-01	-7.385522e+00
1.880000e-06	1.600041e-07	-7.420704e-11	1.117344e+00	-6.227824e+00
1.890000e-06	2.065665e-07	-5.678313e-11	1.442499e+00	-5.056796e+00
1.900000e-06	2.531730e-07	-3.848224e-11	1.767963e+00	-3.873107e+00
1.910000e-06	2.997302e-07	-2.071841e-11	2.093081e+00	-2.677478e+00
1.920000e-06	3.462661e-07	-3.410075e-12	2.418052e+00	-1.470672e+00
1.930000e-06	3.927413e-07	1.254741e-11	2.742599e+00	-2.534965e-01
1.940000e-06	4.391716e-07	2.930548e-11	3.066831e+00	9.732003e-01
1.950000e-06	4.856450e-07	4.707158e-11	3.391365e+00	2.208533e+00
1.960000e-06	5.320544e-07	6.551166e-11	3.715452e+00	3.451580e+00
1.970000e-06	5.783645e-07	8.299351e-11	4.038846e+00	4.701390e+00
1.980000e-06	6.246089e-07	9.793047e-11	4.361780e+00	5.956983e+00
1.990000e-06	6.707724e-07	1.138441e-10	4.684151e+00	7.217354e+00
2.000000e-06	7.169189e-07	1.315163e-10	5.006401e+00	8.481479e+00
2.010000e-06	7.630514e-07	1.498902e-10	5.328555e+00	9.748315e+00
2.020000e-06	8.091541e-07	1.700338e-10	5.650500e+00	1.101681e+01
2.030000e-06	8.551682e-07	1.914442e-10	5.971827e+00	1.228590e+01
2.040000e-06	9.010743e-07	2.109619e-10	6.292399e+00	1.355452e+01
2.050000e-06	9.469627e-07	2.277945e-10	6.612848e+00	1.482160e+01
2.060000e-06	9.927909e-07	2.431798e-10	6.932876e+00	1.608608e+01
2.070000e-06	1.038505e-06	2.584606e-10	7.252107e+00	1.734690e+01
2.080000e-06	1.084108e-06	2.763942e-10	7.570564e+00	1.860304e+01
2.090000e-06	1.129640e-06	2.955655e-10	7.888526e+00	1.985345e+01
2.100000e-06	1.175177e-06	3.153902e-10	8.206516e+00	2.109713e+01
2.110000e-06	1.220698e-06	3.344417e-10	8.524404e+00	2.233311e+01
2.120000e-06	1.266153e-06	3.498766e-10	8.841821e+00	2.356044e+01
2.130000e-06	1.311496e-06	3.663034e-10	9.158466e+00	2.477818e+01
2.140000e-06	1.356668e-06	3.839223e-10	9.473910e+00	2.598545e+01
2.150000e-06	1.401654e-06	4.039401e-10	9.788053e+00	2.718139e+01
2.160000e-06	1.446569e-06	4.238834e-10	1.010171e+01	2.836521e+01
2.170000e-06	1.491433e-06	4.392409e-10	1.041501e+01	2.953612e+01
2.180000e-06	1.536156e-06	4.543239e-10	1.072732e+01	3.069340e+01
2.190000e-06	1.580762e-06	4.695719e-10	1.103881e+01	3.183637e+01
2.200000e-06	1.625251e-06	4.837322e-10	1.134949e+01	3.296439e+01
2.210000e-06	1.669581e-06	4.966330e-10	1.165905e+01	3.407687e+01
2.220000e-06	1.713826e-06	5.123431e-10	1.196802e+01	3.517329e+01
2.230000e-06	1.758032e-06	5.294129e-10	1.227672e+01	3.625315e+01
2.240000e-06	1.802142e-06	5.456465e-10	1.258475e+01	3.731601e+01
2.250000e-06	1.846192e-06	5.596679e-10	1.289236e+01	3.836149e+01
2.260000e-06	1.890181e-06	5.714367e-10	1.319955e+01	3.938925e+01
2.270000e-06	1.934086e-06	5.839242e-10	1.350615e+01	4.039900e+01
2.280000e-06	1.977918e-06	6.003811e-10	1.381223e+01	4.139049e+01
2.290000e-06	2.021685e-06	6.192546e-10	1.411787e+01	4.236353e+01
2.300000e-06	2.065413e-06	6.372846e-10	1.442323e+01	4.331797e+01
2.310000e-06	2.109077e-06	6.508444e-10	1.472815e+01	4.425370e+01
2.320000e-06	2.152596e-06	6.606697e-10	1.503205e+01	4.517067e+01
2.330000e-06	2.195862e-06	6.705293e-10	1.533418e+01	4.606884e+01
2.340000e-06	2.238812e-06	6.810428e-10	1.563412e+01	4.694822e+01
2.350000e-06	2.281506e-06	6.940045e-10	1.593226e+01	4.780888e+01
2.360000e-06	2.324060e-06	7.111593e-10	1.622942e+01	4.865090e+01
2.370000e-06	2.366336e-06	7.279251e-10	1.652464e+01	4.947437e+01
2.380000e-06	2.408227e-06	7.402130e-10	1.681717e+01	5.027946e+01
2.390000e-06	2.449878e-06	7.504057e-10	1.710804e+01	5.106633e+01
2.400000e-06	2.491225e-06	7.573891e-10	1.739677e+01	5.183517e+01
2.410000e-06	2.532292e-06	7.623400e-10	1.768355e+01	5.258620e+01
2.420000e-06	2.573189e-06	7.693868e-10	1.796914e+01	5.331965e+01
2.430000e-06	2.613804e-06	7.807658e-10	1.825276e+01	5.403576e+01
2.440000e-06	2.654161e-06	7.941517e-10	1.853459e+01	5.473481e+01
2.450000e-06	2.694355e-06	8.078344e-10	1.881527e+01	5.541706e+01
2.460000e-06	2.734396e-06	8.204423e-10	1.909489e+01	5.608281e+01
2.470000e-06	2.774356e-06	8.317710e-10	1.937393e+01	5.673233e+01
2.480000e-06	2.814276e-06	8.403674e-10	1.965271e+01	5.736593e+01
2.490000e-06	2.854104e-06	8.466511e-10	1.993083e+01	5.798391e+01
2.500000e-06	2.893747e-06	8.514366e-10	2.020767e+01	5.858658e+01
2.510000e-06	2.933192e-06	8.561963e-10	2.048312e+01	5.917423e+01
2.520000e-06	2.972432e-06	8.627437e-10	2.075714e+01	5.974718e+01
2.530000e-06	3.011448e-06	8.727399e-10	2.102960e+01	6.030571e+01
2.540000e-06	3.050248e-06	8.834872e-10	2.130055e+01	6.085014e+01
2.550000e-06	3.088788e-06	8.931441e-10	2.156968e+01	6.138075e+01
2.560000e-06	3.127158e-06	9.029388e-10	2.183763e+01	6.189784e+01
2.570000e-06	3.165400e-06	9.119582e-10	2.210468e+01	6.240169e+01
2.580000e-06	3.203357e-06	9.190240e-10	2.236974e+01	6.289258e+01
2.590000e-06	3.241057e-06	9.240183e-10	2.263301e+01	6.337080e+01
2.600000e-06	3.278549e-06	9.281698e-10	2.289482e+01	6.383660e+01
2.610000e-06	3.315759e-06	9.342189e-10	2.315467e+01	6.429026e+01
2.620000e-06	3.352717e-06	9.402491e-10	2.341276e+01	6.473202e+01
2.630000e-06	3.389382e-06	9.454982e-10	2.366880e+01	6.516216e+01
2.640000e-06	3.425837e-06	9.523798e-10	2.392337e+01	6.558090e+01
2.650000e-06	3.462161e-06	9.607059e-10	2.417703e+01	6.598851e+01
2.660000e-06	3.498304e-06	9.681089e-10	2.442942e+01	6.638521e+01
2.670000e-06	3.534308e-06	9.711922e-10	2.468084e+01	6.677123e+01
2.680000e-06	3.570204e-06	9.724601e-10	2.493151e+01	6.714682e+01
2.690000e-06	3.605914e-06	9.746142e-10	2.518089e+01	6.751220e+01
2.700000e-06	3.641423e-06	9.785187e-10	2.542885e+01	6.786759e+01
2.710000e-06	3.676816e-06	9.831032e-10	2.567601e+01	6.821322e+01
2.720000e-06	3.711848e-06	9.888596e-10	2.592064e+01	6.854931e+01
2.730000e-06	3.746292e-06	9.949975e-10	2.616118e+01	6.887608e+01
2.740000e-06	3.780315e-06	1.000194e-09	2.639877e+01	6.919373e+01
2.750000e-06	3.813970e-06	1.005418e-09	2.663379e+01	6.950250e+01
2.760000e-06	3.847175e-06	1.009467e-09	2.686566e+01	6.980260e+01
2.770000e-06	3.879983e-06	1.011243e-09	2.709477e+01	7.009423e+01
2.780000e-06	3.912475e-06	1.013733e-09	2.732167e+01	7.037762e+01
2.790000e-06	3.944710e-06	1.018100e-09	2.754677e+01	7.065298e+01
2.800000e-06	3.976760e-06	1.023272e-09	2.777058e+01	7.092052e+01
2.810000e-06	4.008663e-06	1.028874e-09	2.799337e+01	7.118045e+01
2.820000e-06	4.040425e-06	1.033471e-09	2.821517e+01	7.143298e+01
2.830000e-06	4.072001e-06	1.037472e-09	2.843567e+01	7.167831e+01
2.840000e-06	4.103219e-06	1.042494e-09	2.865368e+01	7.191666e+01
2.850000e-06	4.134127e-06	1.048436e-09	2.886951e+01	7.214822e+01
2.860000e-06	4.164764e-06	1.054312e-09	2.908346e+01	7.237320e+01
2.870000e-06	4.195025e-06	1.058356e-09	2.929477e+01	7.259179e+01
2.880000e-06	4.224981e-06	1.060630e-09	2.950396e+01	7.280418e+01
2.890000e-06	4.254675e-06	1.062260e-09	2.971133e+01	7.301056e+01
2.900000e-06	4.284101e-06	1.064574e-09	2.991682e+01	7.321111e+01
