# Temperatura_=_-0.6
# Concentracion g/m^3_=_1620.0
# C_Vs_to_Am_M_A/Vsm_=_65563218390.804596
# pendiente_HvsI_1/m_=_3716.3
# ordenada_HvsI_A/m_=_1297.0
# frecuencia_Hz_=_135095.5019315452

Tiempo_(s)	Campo_(V.s)	Magnetizacion_(V.s)	Campo_(kA/m)	Magnetizacion_(A/m)
0.000000e+00	-5.522618e-06	-1.397844e-09	-3.837291e+01	-9.322301e+01
1.000000e-08	-5.522797e-06	-1.397859e-09	-3.837416e+01	-9.317207e+01
2.000000e-08	-5.522690e-06	-1.400513e-09	-3.837341e+01	-9.312063e+01
3.000000e-08	-5.522123e-06	-1.400925e-09	-3.836947e+01	-9.306874e+01
4.000000e-08	-5.520920e-06	-1.394768e-09	-3.836111e+01	-9.301644e+01
5.000000e-08	-5.519047e-06	-1.379189e-09	-3.834809e+01	-9.296376e+01
6.000000e-08	-5.516613e-06	-1.370227e-09	-3.833118e+01	-9.291070e+01
7.000000e-08	-5.513739e-06	-1.395272e-09	-3.831122e+01	-9.285724e+01
8.000000e-08	-5.510395e-06	-1.429669e-09	-3.828798e+01	-9.280337e+01
9.000000e-08	-5.506560e-06	-1.489600e-09	-3.826133e+01	-9.274902e+01
1.000000e-07	-5.502312e-06	-1.511231e-09	-3.823182e+01	-9.269414e+01
1.100000e-07	-5.497741e-06	-1.404869e-09	-3.820006e+01	-9.263865e+01
1.200000e-07	-5.493037e-06	-1.270020e-09	-3.816737e+01	-9.258245e+01
1.300000e-07	-5.488129e-06	-1.361897e-09	-3.813327e+01	-9.252544e+01
1.400000e-07	-5.482784e-06	-1.458430e-09	-3.809613e+01	-9.246748e+01
1.500000e-07	-5.477015e-06	-1.425096e-09	-3.805605e+01	-9.240845e+01
1.600000e-07	-5.470882e-06	-1.284734e-09	-3.801343e+01	-9.234820e+01
1.700000e-07	-5.464319e-06	-1.389032e-09	-3.796783e+01	-9.228657e+01
1.800000e-07	-5.457323e-06	-1.518873e-09	-3.791922e+01	-9.222340e+01
1.900000e-07	-5.450037e-06	-1.452855e-09	-3.786859e+01	-9.215851e+01
2.000000e-07	-5.442604e-06	-1.304540e-09	-3.781695e+01	-9.209173e+01
2.100000e-07	-5.434905e-06	-1.340095e-09	-3.776345e+01	-9.202286e+01
2.200000e-07	-5.426873e-06	-1.471234e-09	-3.770764e+01	-9.195171e+01
2.300000e-07	-5.418518e-06	-1.454696e-09	-3.764959e+01	-9.187811e+01
2.400000e-07	-5.409582e-06	-1.385770e-09	-3.758750e+01	-9.180184e+01
2.500000e-07	-5.399924e-06	-1.375565e-09	-3.752039e+01	-9.172273e+01
2.600000e-07	-5.389487e-06	-1.436113e-09	-3.744787e+01	-9.164057e+01
2.700000e-07	-5.378437e-06	-1.393216e-09	-3.737109e+01	-9.155517e+01
2.800000e-07	-5.367008e-06	-1.374743e-09	-3.729168e+01	-9.146636e+01
2.900000e-07	-5.355227e-06	-1.383784e-09	-3.720982e+01	-9.137394e+01
3.000000e-07	-5.343177e-06	-1.427540e-09	-3.712610e+01	-9.127774e+01
3.100000e-07	-5.330789e-06	-1.384165e-09	-3.704002e+01	-9.117759e+01
3.200000e-07	-5.317889e-06	-1.380472e-09	-3.695039e+01	-9.107333e+01
3.300000e-07	-5.304509e-06	-1.369345e-09	-3.685742e+01	-9.096480e+01
3.400000e-07	-5.290859e-06	-1.406581e-09	-3.676257e+01	-9.085186e+01
3.500000e-07	-5.276869e-06	-1.389440e-09	-3.666537e+01	-9.073437e+01
3.600000e-07	-5.262381e-06	-1.372415e-09	-3.656470e+01	-9.061220e+01
3.700000e-07	-5.247401e-06	-1.367067e-09	-3.646062e+01	-9.048524e+01
3.800000e-07	-5.231864e-06	-1.413103e-09	-3.635266e+01	-9.035338e+01
3.900000e-07	-5.215808e-06	-1.373688e-09	-3.624109e+01	-9.021653e+01
4.000000e-07	-5.199357e-06	-1.336854e-09	-3.612679e+01	-9.007461e+01
4.100000e-07	-5.182634e-06	-1.388865e-09	-3.601059e+01	-8.992754e+01
4.200000e-07	-5.165657e-06	-1.396333e-09	-3.589263e+01	-8.977527e+01
4.300000e-07	-5.148300e-06	-1.318863e-09	-3.577203e+01	-8.961775e+01
4.400000e-07	-5.130501e-06	-1.354974e-09	-3.564835e+01	-8.945494e+01
4.500000e-07	-5.112282e-06	-1.443823e-09	-3.552176e+01	-8.928681e+01
4.600000e-07	-5.093617e-06	-1.351109e-09	-3.539207e+01	-8.911334e+01
4.700000e-07	-5.074579e-06	-1.295040e-09	-3.525979e+01	-8.893454e+01
4.800000e-07	-5.055296e-06	-1.398487e-09	-3.512581e+01	-8.875041e+01
4.900000e-07	-5.035777e-06	-1.399125e-09	-3.499019e+01	-8.856096e+01
5.000000e-07	-5.016078e-06	-1.287447e-09	-3.485331e+01	-8.836621e+01
5.100000e-07	-4.996131e-06	-1.352928e-09	-3.471471e+01	-8.816619e+01
5.200000e-07	-4.975752e-06	-1.398498e-09	-3.457311e+01	-8.796096e+01
5.300000e-07	-4.954948e-06	-1.311881e-09	-3.442856e+01	-8.775054e+01
5.400000e-07	-4.933852e-06	-1.327062e-09	-3.428197e+01	-8.753501e+01
5.500000e-07	-4.912423e-06	-1.418135e-09	-3.413308e+01	-8.731440e+01
5.600000e-07	-4.890667e-06	-1.317519e-09	-3.398191e+01	-8.708880e+01
5.700000e-07	-4.868635e-06	-1.274412e-09	-3.382882e+01	-8.685827e+01
5.800000e-07	-4.846345e-06	-1.372624e-09	-3.367395e+01	-8.662288e+01
5.900000e-07	-4.823661e-06	-1.359970e-09	-3.351633e+01	-8.638271e+01
6.000000e-07	-4.800551e-06	-1.272889e-09	-3.335576e+01	-8.613783e+01
6.100000e-07	-4.777174e-06	-1.336778e-09	-3.319333e+01	-8.588834e+01
6.200000e-07	-4.753563e-06	-1.348782e-09	-3.302927e+01	-8.563432e+01
6.300000e-07	-4.729756e-06	-1.272100e-09	-3.286385e+01	-8.537584e+01
6.400000e-07	-4.705681e-06	-1.290509e-09	-3.269657e+01	-8.511299e+01
6.500000e-07	-4.681142e-06	-1.337342e-09	-3.252606e+01	-8.484585e+01
6.600000e-07	-4.656025e-06	-1.282103e-09	-3.235155e+01	-8.457450e+01
6.700000e-07	-4.630420e-06	-1.279955e-09	-3.217363e+01	-8.429903e+01
6.800000e-07	-4.604338e-06	-1.319838e-09	-3.199241e+01	-8.401951e+01
6.900000e-07	-4.577760e-06	-1.289306e-09	-3.180774e+01	-8.373602e+01
7.000000e-07	-4.550785e-06	-1.261651e-09	-3.162030e+01	-8.344862e+01
7.100000e-07	-4.523520e-06	-1.290254e-09	-3.143086e+01	-8.315739e+01
7.200000e-07	-4.496054e-06	-1.282764e-09	-3.124002e+01	-8.286238e+01
7.300000e-07	-4.468440e-06	-1.258987e-09	-3.104814e+01	-8.256367e+01
7.400000e-07	-4.440602e-06	-1.277363e-09	-3.085472e+01	-8.226129e+01
7.500000e-07	-4.412475e-06	-1.277199e-09	-3.065929e+01	-8.195531e+01
7.600000e-07	-4.384013e-06	-1.253427e-09	-3.046152e+01	-8.164576e+01
7.700000e-07	-4.355243e-06	-1.249365e-09	-3.026162e+01	-8.133268e+01
7.800000e-07	-4.326178e-06	-1.252022e-09	-3.005967e+01	-8.101611e+01
7.900000e-07	-4.296733e-06	-1.236886e-09	-2.985507e+01	-8.069607e+01
8.000000e-07	-4.267051e-06	-1.241137e-09	-2.964883e+01	-8.037259e+01
8.100000e-07	-4.237128e-06	-1.241555e-09	-2.944092e+01	-8.004567e+01
8.200000e-07	-4.206859e-06	-1.226151e-09	-2.923060e+01	-7.971533e+01
8.300000e-07	-4.176251e-06	-1.213851e-09	-2.901792e+01	-7.938157e+01
8.400000e-07	-4.145335e-06	-1.221000e-09	-2.880311e+01	-7.904438e+01
8.500000e-07	-4.114133e-06	-1.205009e-09	-2.858631e+01	-7.870376e+01
8.600000e-07	-4.082708e-06	-1.192892e-09	-2.836796e+01	-7.835969e+01
8.700000e-07	-4.051195e-06	-1.193521e-09	-2.814899e+01	-7.801215e+01
8.800000e-07	-4.019547e-06	-1.192978e-09	-2.792909e+01	-7.766111e+01
8.900000e-07	-3.987712e-06	-1.178561e-09	-2.770789e+01	-7.730655e+01
9.000000e-07	-3.955600e-06	-1.179688e-09	-2.748477e+01	-7.694842e+01
9.100000e-07	-3.923132e-06	-1.174086e-09	-2.725917e+01	-7.658669e+01
9.200000e-07	-3.890273e-06	-1.156457e-09	-2.703085e+01	-7.622131e+01
9.300000e-07	-3.856866e-06	-1.148046e-09	-2.679874e+01	-7.585223e+01
9.400000e-07	-3.823044e-06	-1.154557e-09	-2.656373e+01	-7.547940e+01
9.500000e-07	-3.788832e-06	-1.144741e-09	-2.632601e+01	-7.510277e+01
9.600000e-07	-3.754101e-06	-1.133018e-09	-2.608469e+01	-7.472227e+01
9.700000e-07	-3.719007e-06	-1.131555e-09	-2.584084e+01	-7.433785e+01
9.800000e-07	-3.683718e-06	-1.124291e-09	-2.559565e+01	-7.394944e+01
9.900000e-07	-3.648280e-06	-1.108071e-09	-2.534941e+01	-7.355699e+01
1.000000e-06	-3.612649e-06	-1.101485e-09	-2.510184e+01	-7.316042e+01
1.010000e-06	-3.576913e-06	-1.098076e-09	-2.485353e+01	-7.275967e+01
1.020000e-06	-3.541056e-06	-1.088372e-09	-2.460438e+01	-7.235468e+01
1.030000e-06	-3.505062e-06	-1.082788e-09	-2.435429e+01	-7.194538e+01
1.040000e-06	-3.468877e-06	-1.080382e-09	-2.410286e+01	-7.153171e+01
1.050000e-06	-3.432223e-06	-1.071468e-09	-2.384818e+01	-7.111361e+01
1.060000e-06	-3.395176e-06	-1.059838e-09	-2.359077e+01	-7.069101e+01
1.070000e-06	-3.357958e-06	-1.055970e-09	-2.333216e+01	-7.026386e+01
1.080000e-06	-3.320527e-06	-1.047728e-09	-2.307208e+01	-6.983210e+01
1.090000e-06	-3.282939e-06	-1.037837e-09	-2.281090e+01	-6.939567e+01
1.100000e-06	-3.245137e-06	-1.029460e-09	-2.254824e+01	-6.895453e+01
1.110000e-06	-3.207109e-06	-1.023493e-09	-2.228402e+01	-6.850862e+01
1.120000e-06	-3.168914e-06	-1.013115e-09	-2.201863e+01	-6.805789e+01
1.130000e-06	-3.130523e-06	-1.009495e-09	-2.175187e+01	-6.760230e+01
1.140000e-06	-3.091823e-06	-1.004771e-09	-2.148297e+01	-6.714181e+01
1.150000e-06	-3.052815e-06	-9.966421e-10	-2.121193e+01	-6.667637e+01
1.160000e-06	-3.013680e-06	-9.844892e-10	-2.094001e+01	-6.620596e+01
1.170000e-06	-2.974377e-06	-9.779195e-10	-2.066692e+01	-6.573052e+01
1.180000e-06	-2.934898e-06	-9.690526e-10	-2.039260e+01	-6.525003e+01
1.190000e-06	-2.895324e-06	-9.610730e-10	-2.011764e+01	-6.476446e+01
1.200000e-06	-2.855627e-06	-9.549766e-10	-1.984180e+01	-6.427375e+01
1.210000e-06	-2.815787e-06	-9.500203e-10	-1.956498e+01	-6.377789e+01
1.220000e-06	-2.775839e-06	-9.418661e-10	-1.928741e+01	-6.327683e+01
1.230000e-06	-2.735721e-06	-9.333844e-10	-1.900866e+01	-6.277054e+01
1.240000e-06	-2.695341e-06	-9.207029e-10	-1.872809e+01	-6.225896e+01
1.250000e-06	-2.654726e-06	-9.068463e-10	-1.844588e+01	-6.174206e+01
1.260000e-06	-2.613903e-06	-8.961685e-10	-1.816223e+01	-6.121977e+01
1.270000e-06	-2.572876e-06	-8.887212e-10	-1.787716e+01	-6.069205e+01
1.280000e-06	-2.531416e-06	-8.831523e-10	-1.758909e+01	-6.015883e+01
1.290000e-06	-2.489531e-06	-8.763229e-10	-1.729805e+01	-5.962002e+01
1.300000e-06	-2.447446e-06	-8.666195e-10	-1.700563e+01	-5.907555e+01
1.310000e-06	-2.405043e-06	-8.556886e-10	-1.671100e+01	-5.852533e+01
1.320000e-06	-2.362373e-06	-8.479815e-10	-1.641452e+01	-5.796923e+01
1.330000e-06	-2.319504e-06	-8.402773e-10	-1.611665e+01	-5.740715e+01
1.340000e-06	-2.276433e-06	-8.332365e-10	-1.581738e+01	-5.683894e+01
1.350000e-06	-2.233159e-06	-8.266542e-10	-1.551670e+01	-5.626446e+01
1.360000e-06	-2.189711e-06	-8.184249e-10	-1.521481e+01	-5.568353e+01
1.370000e-06	-2.146188e-06	-8.092202e-10	-1.491240e+01	-5.509596e+01
1.380000e-06	-2.102649e-06	-8.016460e-10	-1.460987e+01	-5.450156e+01
1.390000e-06	-2.059020e-06	-7.928162e-10	-1.430673e+01	-5.390009e+01
1.400000e-06	-2.015315e-06	-7.822461e-10	-1.400305e+01	-5.329131e+01
1.410000e-06	-1.971585e-06	-7.705059e-10	-1.369920e+01	-5.267495e+01
1.420000e-06	-1.927695e-06	-7.629026e-10	-1.339424e+01	-5.205072e+01
1.430000e-06	-1.883685e-06	-7.534220e-10	-1.308844e+01	-5.141832e+01
1.440000e-06	-1.839620e-06	-7.428945e-10	-1.278226e+01	-5.077740e+01
1.450000e-06	-1.795441e-06	-7.324924e-10	-1.247530e+01	-5.012762e+01
1.460000e-06	-1.751110e-06	-7.198702e-10	-1.216727e+01	-4.946859e+01
1.470000e-06	-1.706644e-06	-7.026677e-10	-1.185831e+01	-4.879993e+01
1.480000e-06	-1.661998e-06	-6.888390e-10	-1.154809e+01	-4.812121e+01
1.490000e-06	-1.617135e-06	-6.789406e-10	-1.123637e+01	-4.743199e+01
1.500000e-06	-1.572164e-06	-6.694431e-10	-1.092389e+01	-4.673182e+01
1.510000e-06	-1.527114e-06	-6.597145e-10	-1.061087e+01	-4.602022e+01
1.520000e-06	-1.481932e-06	-6.504890e-10	-1.029693e+01	-4.529671e+01
1.530000e-06	-1.436680e-06	-6.388577e-10	-9.982508e+00	-4.456077e+01
1.540000e-06	-1.391367e-06	-6.247617e-10	-9.667662e+00	-4.381190e+01
1.550000e-06	-1.345962e-06	-6.089752e-10	-9.352175e+00	-4.304956e+01
1.560000e-06	-1.300478e-06	-5.941984e-10	-9.036133e+00	-4.227323e+01
1.570000e-06	-1.254899e-06	-5.793781e-10	-8.719439e+00	-4.148236e+01
1.580000e-06	-1.209208e-06	-5.688083e-10	-8.401962e+00	-4.067642e+01
1.590000e-06	-1.163421e-06	-5.605501e-10	-8.083817e+00	-3.985487e+01
1.600000e-06	-1.117607e-06	-5.490853e-10	-7.765493e+00	-3.901716e+01
1.610000e-06	-1.071732e-06	-5.353203e-10	-7.446737e+00	-3.816278e+01
1.620000e-06	-1.025783e-06	-5.223411e-10	-7.127468e+00	-3.729120e+01
1.630000e-06	-9.797619e-07	-5.120657e-10	-6.807698e+00	-3.640192e+01
1.640000e-06	-9.336140e-07	-5.009487e-10	-6.487047e+00	-3.549447e+01
1.650000e-06	-8.873676e-07	-4.872589e-10	-6.165713e+00	-3.456836e+01
1.660000e-06	-8.410597e-07	-4.709410e-10	-5.843951e+00	-3.362317e+01
1.670000e-06	-7.946634e-07	-4.526402e-10	-5.521575e+00	-3.265849e+01
1.680000e-06	-7.482395e-07	-4.333571e-10	-5.199006e+00	-3.167394e+01
1.690000e-06	-7.018203e-07	-4.176017e-10	-4.876471e+00	-3.066918e+01
1.700000e-06	-6.552505e-07	-4.036822e-10	-4.552889e+00	-2.964392e+01
1.710000e-06	-6.085968e-07	-3.910492e-10	-4.228725e+00	-2.859789e+01
1.720000e-06	-5.620167e-07	-3.746563e-10	-3.905071e+00	-2.753089e+01
1.730000e-06	-5.153167e-07	-3.549005e-10	-3.580585e+00	-2.644276e+01
1.740000e-06	-4.685164e-07	-3.335146e-10	-3.255401e+00	-2.533339e+01
1.750000e-06	-4.217937e-07	-3.138290e-10	-2.930757e+00	-2.420273e+01
1.760000e-06	-3.750652e-07	-2.965177e-10	-2.606073e+00	-2.305079e+01
1.770000e-06	-3.283073e-07	-2.825446e-10	-2.281184e+00	-2.187765e+01
1.780000e-06	-2.815479e-07	-2.694429e-10	-1.956284e+00	-2.068343e+01
1.790000e-06	-2.347117e-07	-2.550535e-10	-1.630852e+00	-1.946832e+01
1.800000e-06	-1.878114e-07	-2.376058e-10	-1.304974e+00	-1.823260e+01
1.810000e-06	-1.409806e-07	-2.178581e-10	-9.795783e-01	-1.697659e+01
1.820000e-06	-9.418300e-08	-1.980395e-10	-6.544135e-01	-1.570068e+01
1.830000e-06	-4.734884e-08	-1.820515e-10	-3.289948e-01	-1.440535e+01
1.840000e-06	-4.650391e-10	-1.675450e-10	-3.231240e-03	-1.309112e+01
1.850000e-06	4.641109e-08	-1.502511e-10	3.224790e-01	-1.175859e+01
1.860000e-06	9.325116e-08	-1.330518e-10	6.479388e-01	-1.040844e+01
1.870000e-06	1.400984e-07	-1.134455e-10	9.734485e-01	-9.041375e+00
1.880000e-06	1.868804e-07	-9.099411e-11	1.298505e+00	-7.658208e+00
1.890000e-06	2.336813e-07	-6.875555e-11	1.623692e+00	-6.259788e+00
1.900000e-06	2.804957e-07	-4.764252e-11	1.948973e+00	-4.847029e+00
1.910000e-06	3.272032e-07	-2.686892e-11	2.273512e+00	-3.420901e+00
1.920000e-06	3.739440e-07	-7.481991e-12	2.598282e+00	-1.982426e+00
1.930000e-06	4.207226e-07	1.122872e-11	2.923315e+00	-5.326764e-01
1.940000e-06	4.674683e-07	3.072267e-11	3.248119e+00	9.272317e-01
1.950000e-06	5.141822e-07	5.050483e-11	3.572702e+00	2.396140e+00
1.960000e-06	5.607650e-07	7.088839e-11	3.896374e+00	3.872852e+00
1.970000e-06	6.072637e-07	9.101928e-11	4.219462e+00	5.356143e+00
1.980000e-06	6.537711e-07	1.112145e-10	4.542610e+00	6.844756e+00
1.990000e-06	7.002725e-07	1.342421e-10	4.865716e+00	8.337415e+00
2.000000e-06	7.467206e-07	1.544721e-10	5.188453e+00	9.832825e+00
2.010000e-06	7.930891e-07	1.759386e-10	5.510636e+00	1.132968e+01
2.020000e-06	8.393217e-07	1.993993e-10	5.831875e+00	1.282667e+01
2.030000e-06	8.854976e-07	2.205753e-10	6.152720e+00	1.432249e+01
2.040000e-06	9.317324e-07	2.401008e-10	6.473974e+00	1.581581e+01
2.050000e-06	9.779033e-07	2.601712e-10	6.794784e+00	1.730535e+01
2.060000e-06	1.023877e-06	2.806346e-10	7.114226e+00	1.878981e+01
2.070000e-06	1.069731e-06	3.032301e-10	7.432833e+00	2.026795e+01
2.080000e-06	1.115574e-06	3.279251e-10	7.751363e+00	2.173851e+01
2.090000e-06	1.161437e-06	3.519403e-10	8.070033e+00	2.320030e+01
2.100000e-06	1.207254e-06	3.740480e-10	8.388385e+00	2.465213e+01
2.110000e-06	1.252926e-06	3.918240e-10	8.705728e+00	2.609289e+01
2.120000e-06	1.298470e-06	4.081074e-10	9.022182e+00	2.752147e+01
2.130000e-06	1.343864e-06	4.268300e-10	9.337593e+00	2.893684e+01
2.140000e-06	1.389106e-06	4.477056e-10	9.651953e+00	3.033801e+01
2.150000e-06	1.434341e-06	4.688407e-10	9.966259e+00	3.172404e+01
2.160000e-06	1.479617e-06	4.897774e-10	1.028085e+01	3.309406e+01
2.170000e-06	1.524811e-06	5.107691e-10	1.059487e+01	3.444724e+01
2.180000e-06	1.569813e-06	5.329370e-10	1.090756e+01	3.578283e+01
2.190000e-06	1.614656e-06	5.509879e-10	1.121914e+01	3.710014e+01
2.200000e-06	1.659387e-06	5.665989e-10	1.152995e+01	3.839854e+01
2.210000e-06	1.703950e-06	5.810835e-10	1.183959e+01	3.967747e+01
2.220000e-06	1.748342e-06	5.952714e-10	1.214804e+01	4.093643e+01
2.230000e-06	1.792578e-06	6.112302e-10	1.245541e+01	4.217499e+01
2.240000e-06	1.836708e-06	6.264813e-10	1.276203e+01	4.339278e+01
2.250000e-06	1.880747e-06	6.415543e-10	1.306803e+01	4.458951e+01
2.260000e-06	1.924703e-06	6.561189e-10	1.337345e+01	4.576494e+01
2.270000e-06	1.968585e-06	6.755702e-10	1.367836e+01	4.691890e+01
2.280000e-06	2.012291e-06	6.936156e-10	1.398204e+01	4.805127e+01
2.290000e-06	2.055893e-06	7.093539e-10	1.428500e+01	4.916200e+01
2.300000e-06	2.099504e-06	7.237122e-10	1.458802e+01	5.025108e+01
2.310000e-06	2.143035e-06	7.366128e-10	1.489049e+01	5.131858e+01
2.320000e-06	2.186473e-06	7.506392e-10	1.519231e+01	5.236460e+01
2.330000e-06	2.229888e-06	7.652725e-10	1.549397e+01	5.338928e+01
2.340000e-06	2.273238e-06	7.835633e-10	1.579519e+01	5.439282e+01
2.350000e-06	2.316352e-06	8.046348e-10	1.609475e+01	5.537545e+01
2.360000e-06	2.359221e-06	8.247586e-10	1.639262e+01	5.633745e+01
2.370000e-06	2.401942e-06	8.385688e-10	1.668946e+01	5.727910e+01
2.380000e-06	2.444351e-06	8.487701e-10	1.698413e+01	5.820074e+01
2.390000e-06	2.486378e-06	8.591286e-10	1.727615e+01	5.910272e+01
2.400000e-06	2.528127e-06	8.690179e-10	1.756623e+01	5.998541e+01
2.410000e-06	2.569558e-06	8.795517e-10	1.785411e+01	6.084921e+01
2.420000e-06	2.610777e-06	8.939825e-10	1.814051e+01	6.169452e+01
2.430000e-06	2.651694e-06	9.114816e-10	1.842482e+01	6.252175e+01
2.440000e-06	2.692191e-06	9.253248e-10	1.870620e+01	6.333132e+01
2.450000e-06	2.732456e-06	9.335325e-10	1.898597e+01	6.412365e+01
2.460000e-06	2.772571e-06	9.429401e-10	1.926471e+01	6.489915e+01
2.470000e-06	2.812473e-06	9.528806e-10	1.954196e+01	6.565825e+01
2.480000e-06	2.852163e-06	9.643943e-10	1.981774e+01	6.640136e+01
2.490000e-06	2.891743e-06	9.767031e-10	2.009275e+01	6.712886e+01
2.500000e-06	2.931220e-06	9.884336e-10	2.036705e+01	6.784116e+01
2.510000e-06	2.970553e-06	1.001781e-09	2.064035e+01	6.853863e+01
2.520000e-06	3.009789e-06	1.014549e-09	2.091298e+01	6.922164e+01
2.530000e-06	3.048908e-06	1.024001e-09	2.118479e+01	6.989051e+01
2.540000e-06	3.087775e-06	1.031300e-09	2.145484e+01	7.054559e+01
2.550000e-06	3.126418e-06	1.038361e-09	2.172335e+01	7.118719e+01
2.560000e-06	3.164825e-06	1.047242e-09	2.199022e+01	7.181558e+01
2.570000e-06	3.203008e-06	1.056878e-09	2.225552e+01	7.243106e+01
2.580000e-06	3.240982e-06	1.066298e-09	2.251937e+01	7.303386e+01
2.590000e-06	3.278684e-06	1.074835e-09	2.278134e+01	7.362422e+01
2.600000e-06	3.316210e-06	1.083085e-09	2.304208e+01	7.420236e+01
2.610000e-06	3.353577e-06	1.089112e-09	2.330172e+01	7.476847e+01
2.620000e-06	3.390683e-06	1.091937e-09	2.355955e+01	7.532274e+01
2.630000e-06	3.427476e-06	1.096413e-09	2.381520e+01	7.586533e+01
2.640000e-06	3.464029e-06	1.104982e-09	2.406918e+01	7.639638e+01
2.650000e-06	3.500341e-06	1.114680e-09	2.432149e+01	7.691605e+01
2.660000e-06	3.536362e-06	1.123901e-09	2.457177e+01	7.742445e+01
2.670000e-06	3.572156e-06	1.130689e-09	2.482048e+01	7.792170e+01
2.680000e-06	3.607788e-06	1.136061e-09	2.506806e+01	7.840791e+01
2.690000e-06	3.643324e-06	1.142597e-09	2.531498e+01	7.888318e+01
2.700000e-06	3.678767e-06	1.148981e-09	2.556125e+01	7.934760e+01
2.710000e-06	3.714084e-06	1.155462e-09	2.580664e+01	7.980127e+01
2.720000e-06	3.749173e-06	1.160813e-09	2.605045e+01	8.024429e+01
2.730000e-06	3.784020e-06	1.167353e-09	2.629258e+01	8.067675e+01
2.740000e-06	3.818505e-06	1.171886e-09	2.653219e+01	8.109874e+01
2.750000e-06	3.852433e-06	1.174725e-09	2.676793e+01	8.151036e+01
2.760000e-06	3.885818e-06	1.177741e-09	2.699990e+01	8.191172e+01
2.770000e-06	3.918764e-06	1.181530e-09	2.722882e+01	8.230292e+01
2.780000e-06	3.951257e-06	1.187161e-09	2.745459e+01	8.268409e+01
2.790000e-06	3.983369e-06	1.194997e-09	2.767771e+01	8.305536e+01
2.800000e-06	4.015267e-06	1.202877e-09	2.789935e+01	8.341685e+01
2.810000e-06	4.047001e-06	1.210161e-09	2.811985e+01	8.376872e+01
2.820000e-06	4.078568e-06	1.216530e-09	2.833919e+01	8.411113e+01
2.830000e-06	4.109940e-06	1.220885e-09	2.855717e+01	8.444424e+01
2.840000e-06	4.141169e-06	1.225034e-09	2.877416e+01	8.476824e+01
2.850000e-06	4.172191e-06	1.230319e-09	2.898971e+01	8.508330e+01
2.860000e-06	4.202883e-06	1.234784e-09	2.920297e+01	8.538964e+01
2.870000e-06	4.233182e-06	1.237752e-09	2.941350e+01	8.568747e+01
2.880000e-06	4.263132e-06	1.241689e-09	2.962160e+01	8.597701e+01
2.890000e-06	4.292758e-06	1.249608e-09	2.982745e+01	8.625848e+01
2.900000e-06	4.322144e-06	1.259227e-09	3.003163e+01	8.653213e+01
