# Temperatura_=_-2.2
# Concentracion g/m^3_=_1620.0
# C_Vs_to_Am_M_A/Vsm_=_65563218390.804596
# pendiente_HvsI_1/m_=_3716.3
# ordenada_HvsI_A/m_=_1297.0
# frecuencia_Hz_=_135104.6275334105

Tiempo_(s)	Campo_(V.s)	Magnetizacion_(V.s)	Campo_(kA/m)	Magnetizacion_(A/m)
0.000000e+00	-5.514428e-06	-8.370640e-10	-3.836790e+01	-5.639420e+01
1.000000e-08	-5.514498e-06	-8.367748e-10	-3.836838e+01	-5.637840e+01
2.000000e-08	-5.514254e-06	-8.388728e-10	-3.836669e+01	-5.636255e+01
3.000000e-08	-5.513628e-06	-8.395166e-10	-3.836232e+01	-5.634637e+01
4.000000e-08	-5.512424e-06	-8.317626e-10	-3.835395e+01	-5.632954e+01
5.000000e-08	-5.510600e-06	-8.172939e-10	-3.834126e+01	-5.631180e+01
6.000000e-08	-5.508210e-06	-8.164286e-10	-3.832463e+01	-5.629285e+01
7.000000e-08	-5.505313e-06	-8.462273e-10	-3.830447e+01	-5.627241e+01
8.000000e-08	-5.501954e-06	-8.861952e-10	-3.828110e+01	-5.625020e+01
9.000000e-08	-5.498154e-06	-8.897875e-10	-3.825466e+01	-5.622596e+01
1.000000e-07	-5.493969e-06	-8.467237e-10	-3.822555e+01	-5.619943e+01
1.100000e-07	-5.489473e-06	-8.221909e-10	-3.819426e+01	-5.617039e+01
1.200000e-07	-5.484710e-06	-7.947883e-10	-3.816112e+01	-5.613860e+01
1.300000e-07	-5.479635e-06	-8.076116e-10	-3.812581e+01	-5.610388e+01
1.400000e-07	-5.474236e-06	-8.193422e-10	-3.808825e+01	-5.606602e+01
1.500000e-07	-5.468502e-06	-8.116666e-10	-3.804835e+01	-5.602487e+01
1.600000e-07	-5.462426e-06	-8.284275e-10	-3.800608e+01	-5.598029e+01
1.700000e-07	-5.455910e-06	-8.359287e-10	-3.796074e+01	-5.593216e+01
1.800000e-07	-5.448969e-06	-8.805142e-10	-3.791245e+01	-5.588038e+01
1.900000e-07	-5.441702e-06	-8.343683e-10	-3.786188e+01	-5.582489e+01
2.000000e-07	-5.434157e-06	-8.258922e-10	-3.780939e+01	-5.576564e+01
2.100000e-07	-5.426344e-06	-8.293616e-10	-3.775503e+01	-5.570261e+01
2.200000e-07	-5.418284e-06	-8.773044e-10	-3.769895e+01	-5.563579e+01
2.300000e-07	-5.409937e-06	-8.591930e-10	-3.764087e+01	-5.556522e+01
2.400000e-07	-5.400957e-06	-8.484147e-10	-3.757839e+01	-5.549095e+01
2.500000e-07	-5.391129e-06	-8.334820e-10	-3.751001e+01	-5.541303e+01
2.600000e-07	-5.380731e-06	-8.224741e-10	-3.743767e+01	-5.533157e+01
2.700000e-07	-5.369844e-06	-7.959723e-10	-3.736192e+01	-5.524667e+01
2.800000e-07	-5.358509e-06	-8.035639e-10	-3.728305e+01	-5.515846e+01
2.900000e-07	-5.346887e-06	-8.286481e-10	-3.720219e+01	-5.506708e+01
3.000000e-07	-5.334904e-06	-8.140436e-10	-3.711881e+01	-5.497269e+01
3.100000e-07	-5.322451e-06	-8.102210e-10	-3.703217e+01	-5.487547e+01
3.200000e-07	-5.309523e-06	-8.156493e-10	-3.694222e+01	-5.477558e+01
3.300000e-07	-5.296256e-06	-8.284968e-10	-3.684991e+01	-5.467322e+01
3.400000e-07	-5.282638e-06	-7.926569e-10	-3.675516e+01	-5.456859e+01
3.500000e-07	-5.268576e-06	-8.048078e-10	-3.665732e+01	-5.446188e+01
3.600000e-07	-5.254075e-06	-8.119381e-10	-3.655643e+01	-5.435330e+01
3.700000e-07	-5.239092e-06	-8.182740e-10	-3.645218e+01	-5.424305e+01
3.800000e-07	-5.223517e-06	-8.111206e-10	-3.634382e+01	-5.413132e+01
3.900000e-07	-5.207472e-06	-8.389261e-10	-3.623217e+01	-5.401832e+01
4.000000e-07	-5.191016e-06	-8.084186e-10	-3.611768e+01	-5.390422e+01
4.100000e-07	-5.174190e-06	-7.908425e-10	-3.600061e+01	-5.378923e+01
4.200000e-07	-5.157072e-06	-8.082200e-10	-3.588151e+01	-5.367349e+01
4.300000e-07	-5.139613e-06	-8.294121e-10	-3.576003e+01	-5.355719e+01
4.400000e-07	-5.121771e-06	-8.011852e-10	-3.563589e+01	-5.344046e+01
4.500000e-07	-5.103477e-06	-8.252339e-10	-3.550861e+01	-5.332344e+01
4.600000e-07	-5.084741e-06	-8.413829e-10	-3.537825e+01	-5.320626e+01
4.700000e-07	-5.065659e-06	-8.140904e-10	-3.524548e+01	-5.308901e+01
4.800000e-07	-5.046315e-06	-7.989036e-10	-3.511089e+01	-5.297178e+01
4.900000e-07	-5.026750e-06	-8.350237e-10	-3.497476e+01	-5.285465e+01
5.000000e-07	-5.006981e-06	-8.089557e-10	-3.483722e+01	-5.273767e+01
5.100000e-07	-4.986984e-06	-7.777614e-10	-3.469808e+01	-5.262087e+01
5.200000e-07	-4.966589e-06	-8.120394e-10	-3.455618e+01	-5.250428e+01
5.300000e-07	-4.945824e-06	-8.331781e-10	-3.441170e+01	-5.238788e+01
5.400000e-07	-4.924740e-06	-7.970357e-10	-3.426500e+01	-5.227168e+01
5.500000e-07	-4.903256e-06	-7.982910e-10	-3.411552e+01	-5.215562e+01
5.600000e-07	-4.881436e-06	-8.108632e-10	-3.396371e+01	-5.203968e+01
5.700000e-07	-4.859342e-06	-7.816866e-10	-3.380998e+01	-5.192377e+01
5.800000e-07	-4.836894e-06	-7.839102e-10	-3.365380e+01	-5.180783e+01
5.900000e-07	-4.814111e-06	-8.125334e-10	-3.349528e+01	-5.169177e+01
6.000000e-07	-4.790984e-06	-7.944491e-10	-3.333437e+01	-5.157547e+01
6.100000e-07	-4.767549e-06	-7.703032e-10	-3.317131e+01	-5.145883e+01
6.200000e-07	-4.743997e-06	-7.930551e-10	-3.300745e+01	-5.134173e+01
6.300000e-07	-4.720219e-06	-7.829719e-10	-3.284201e+01	-5.122404e+01
6.400000e-07	-4.696052e-06	-7.631042e-10	-3.267385e+01	-5.110561e+01
6.500000e-07	-4.671542e-06	-7.771266e-10	-3.250332e+01	-5.098632e+01
6.600000e-07	-4.646601e-06	-7.902903e-10	-3.232979e+01	-5.086601e+01
6.700000e-07	-4.621069e-06	-7.699319e-10	-3.215214e+01	-5.074454e+01
6.800000e-07	-4.594965e-06	-7.819320e-10	-3.197052e+01	-5.062176e+01
6.900000e-07	-4.568353e-06	-7.879397e-10	-3.178536e+01	-5.049753e+01
7.000000e-07	-4.541315e-06	-7.699544e-10	-3.159724e+01	-5.037170e+01
7.100000e-07	-4.513956e-06	-7.600737e-10	-3.140688e+01	-5.024413e+01
7.200000e-07	-4.486452e-06	-7.770238e-10	-3.121551e+01	-5.011469e+01
7.300000e-07	-4.458808e-06	-7.653989e-10	-3.102318e+01	-4.998325e+01
7.400000e-07	-4.430926e-06	-7.598327e-10	-3.082918e+01	-4.984969e+01
7.500000e-07	-4.402784e-06	-7.658727e-10	-3.063338e+01	-4.971388e+01
7.600000e-07	-4.374289e-06	-7.623810e-10	-3.043511e+01	-4.957573e+01
7.700000e-07	-4.345542e-06	-7.453614e-10	-3.023510e+01	-4.943513e+01
7.800000e-07	-4.316541e-06	-7.491973e-10	-3.003332e+01	-4.929200e+01
7.900000e-07	-4.287206e-06	-7.464744e-10	-2.982921e+01	-4.914625e+01
8.000000e-07	-4.257553e-06	-7.342560e-10	-2.962290e+01	-4.899783e+01
8.100000e-07	-4.227541e-06	-7.337690e-10	-2.941409e+01	-4.884666e+01
8.200000e-07	-4.197176e-06	-7.411168e-10	-2.920281e+01	-4.869271e+01
8.300000e-07	-4.166533e-06	-7.333382e-10	-2.898961e+01	-4.853593e+01
8.400000e-07	-4.135645e-06	-7.264028e-10	-2.877470e+01	-4.837630e+01
8.500000e-07	-4.104498e-06	-7.273709e-10	-2.855798e+01	-4.821380e+01
8.600000e-07	-4.073189e-06	-7.206420e-10	-2.834014e+01	-4.804841e+01
8.700000e-07	-4.041686e-06	-7.124577e-10	-2.812096e+01	-4.788013e+01
8.800000e-07	-4.009928e-06	-7.149790e-10	-2.789999e+01	-4.770898e+01
8.900000e-07	-3.977948e-06	-7.152916e-10	-2.767748e+01	-4.753496e+01
9.000000e-07	-3.945740e-06	-7.024316e-10	-2.745339e+01	-4.735809e+01
9.100000e-07	-3.913244e-06	-6.991718e-10	-2.722729e+01	-4.717840e+01
9.200000e-07	-3.880398e-06	-6.994421e-10	-2.699876e+01	-4.699591e+01
9.300000e-07	-3.847124e-06	-6.967093e-10	-2.676724e+01	-4.681066e+01
9.400000e-07	-3.813322e-06	-6.945892e-10	-2.653206e+01	-4.662267e+01
9.500000e-07	-3.779071e-06	-6.995158e-10	-2.629375e+01	-4.643200e+01
9.600000e-07	-3.744517e-06	-6.914614e-10	-2.605333e+01	-4.623867e+01
9.700000e-07	-3.709654e-06	-6.825461e-10	-2.581077e+01	-4.604273e+01
9.800000e-07	-3.674504e-06	-6.778651e-10	-2.556620e+01	-4.584420e+01
9.900000e-07	-3.639097e-06	-6.778485e-10	-2.531985e+01	-4.564313e+01
1.000000e-06	-3.603504e-06	-6.737075e-10	-2.507220e+01	-4.543954e+01
1.010000e-06	-3.567830e-06	-6.784966e-10	-2.482399e+01	-4.523346e+01
1.020000e-06	-3.532035e-06	-6.811817e-10	-2.457494e+01	-4.502492e+01
1.030000e-06	-3.496021e-06	-6.756962e-10	-2.432436e+01	-4.481393e+01
1.040000e-06	-3.459692e-06	-6.661751e-10	-2.407159e+01	-4.460051e+01
1.050000e-06	-3.423112e-06	-6.602554e-10	-2.381708e+01	-4.438467e+01
1.060000e-06	-3.386252e-06	-6.492069e-10	-2.356062e+01	-4.416641e+01
1.070000e-06	-3.349072e-06	-6.446941e-10	-2.330194e+01	-4.394571e+01
1.080000e-06	-3.311721e-06	-6.472308e-10	-2.304206e+01	-4.372258e+01
1.090000e-06	-3.274148e-06	-6.488974e-10	-2.278064e+01	-4.349698e+01
1.100000e-06	-3.236338e-06	-6.447954e-10	-2.251756e+01	-4.326890e+01
1.110000e-06	-3.198412e-06	-6.419734e-10	-2.225368e+01	-4.303829e+01
1.120000e-06	-3.160242e-06	-6.382095e-10	-2.198811e+01	-4.280511e+01
1.130000e-06	-3.121755e-06	-6.291807e-10	-2.172032e+01	-4.256931e+01
1.140000e-06	-3.082996e-06	-6.203349e-10	-2.145065e+01	-4.233084e+01
1.150000e-06	-3.044085e-06	-6.161153e-10	-2.117992e+01	-4.208963e+01
1.160000e-06	-3.005083e-06	-6.140943e-10	-2.090855e+01	-4.184559e+01
1.170000e-06	-2.965869e-06	-6.123531e-10	-2.063571e+01	-4.159866e+01
1.180000e-06	-2.926468e-06	-6.132136e-10	-2.036157e+01	-4.134873e+01
1.190000e-06	-2.886943e-06	-6.097553e-10	-2.008657e+01	-4.109573e+01
1.200000e-06	-2.847282e-06	-6.032857e-10	-1.981061e+01	-4.083953e+01
1.210000e-06	-2.807433e-06	-5.960629e-10	-1.953336e+01	-4.058003e+01
1.220000e-06	-2.767470e-06	-5.900505e-10	-1.925531e+01	-4.031711e+01
1.230000e-06	-2.727384e-06	-5.835370e-10	-1.897640e+01	-4.005065e+01
1.240000e-06	-2.687067e-06	-5.791949e-10	-1.869588e+01	-3.978052e+01
1.250000e-06	-2.646504e-06	-5.747079e-10	-1.841365e+01	-3.950657e+01
1.260000e-06	-2.605627e-06	-5.725203e-10	-1.812925e+01	-3.922867e+01
1.270000e-06	-2.564434e-06	-5.693344e-10	-1.784264e+01	-3.894666e+01
1.280000e-06	-2.522981e-06	-5.673395e-10	-1.755422e+01	-3.866038e+01
1.290000e-06	-2.481238e-06	-5.624133e-10	-1.726378e+01	-3.836967e+01
1.300000e-06	-2.439116e-06	-5.544257e-10	-1.697071e+01	-3.807436e+01
1.310000e-06	-2.396635e-06	-5.460326e-10	-1.667513e+01	-3.777427e+01
1.320000e-06	-2.353934e-06	-5.421372e-10	-1.637803e+01	-3.746921e+01
1.330000e-06	-2.311105e-06	-5.394461e-10	-1.608004e+01	-3.715899e+01
1.340000e-06	-2.268146e-06	-5.372349e-10	-1.578114e+01	-3.684341e+01
1.350000e-06	-2.224947e-06	-5.343160e-10	-1.548058e+01	-3.652226e+01
1.360000e-06	-2.181552e-06	-5.305255e-10	-1.517865e+01	-3.619533e+01
1.370000e-06	-2.138094e-06	-5.251747e-10	-1.487628e+01	-3.586239e+01
1.380000e-06	-2.094550e-06	-5.200946e-10	-1.457331e+01	-3.552322e+01
1.390000e-06	-2.050886e-06	-5.140157e-10	-1.426951e+01	-3.517756e+01
1.400000e-06	-2.007141e-06	-5.071141e-10	-1.396514e+01	-3.482518e+01
1.410000e-06	-1.963375e-06	-5.003699e-10	-1.366063e+01	-3.446582e+01
1.420000e-06	-1.919540e-06	-4.967395e-10	-1.335563e+01	-3.409920e+01
1.430000e-06	-1.875571e-06	-4.930852e-10	-1.304971e+01	-3.372506e+01
1.440000e-06	-1.831452e-06	-4.878566e-10	-1.274275e+01	-3.334312e+01
1.450000e-06	-1.787225e-06	-4.830679e-10	-1.243503e+01	-3.295308e+01
1.460000e-06	-1.742882e-06	-4.766702e-10	-1.212650e+01	-3.255464e+01
1.470000e-06	-1.698418e-06	-4.664108e-10	-1.181713e+01	-3.214750e+01
1.480000e-06	-1.653887e-06	-4.561077e-10	-1.150730e+01	-3.173135e+01
1.490000e-06	-1.609218e-06	-4.478872e-10	-1.119650e+01	-3.130585e+01
1.500000e-06	-1.564307e-06	-4.400137e-10	-1.088403e+01	-3.087070e+01
1.510000e-06	-1.519187e-06	-4.353818e-10	-1.057009e+01	-3.042555e+01
1.520000e-06	-1.474015e-06	-4.315941e-10	-1.025580e+01	-2.997008e+01
1.530000e-06	-1.428805e-06	-4.254661e-10	-9.941237e+00	-2.950393e+01
1.540000e-06	-1.383451e-06	-4.142159e-10	-9.625674e+00	-2.902678e+01
1.550000e-06	-1.337945e-06	-4.015625e-10	-9.309060e+00	-2.853827e+01
1.560000e-06	-1.292395e-06	-3.892776e-10	-8.992133e+00	-2.803808e+01
1.570000e-06	-1.246829e-06	-3.792755e-10	-8.675095e+00	-2.752585e+01
1.580000e-06	-1.201166e-06	-3.726401e-10	-8.357385e+00	-2.700125e+01
1.590000e-06	-1.155457e-06	-3.695204e-10	-8.039353e+00	-2.646397e+01
1.600000e-06	-1.109653e-06	-3.650738e-10	-7.720666e+00	-2.591366e+01
1.610000e-06	-1.063638e-06	-3.566794e-10	-7.400504e+00	-2.535003e+01
1.620000e-06	-1.017522e-06	-3.464725e-10	-7.079639e+00	-2.477277e+01
1.630000e-06	-9.713931e-07	-3.392407e-10	-6.758690e+00	-2.418160e+01
1.640000e-06	-9.251957e-07	-3.309706e-10	-6.437260e+00	-2.357624e+01
1.650000e-06	-8.788697e-07	-3.197379e-10	-6.114937e+00	-2.295644e+01
1.660000e-06	-8.324436e-07	-3.077432e-10	-5.791917e+00	-2.232197e+01
1.670000e-06	-7.860130e-07	-2.960066e-10	-5.468865e+00	-2.167262e+01
1.680000e-06	-7.396455e-07	-2.851371e-10	-5.146252e+00	-2.100820e+01
1.690000e-06	-6.933078e-07	-2.751097e-10	-4.823848e+00	-2.032856e+01
1.700000e-06	-6.468613e-07	-2.647693e-10	-4.500685e+00	-1.963356e+01
1.710000e-06	-6.002977e-07	-2.532541e-10	-4.176708e+00	-1.892311e+01
1.720000e-06	-5.537613e-07	-2.400388e-10	-3.852921e+00	-1.819713e+01
1.730000e-06	-5.072064e-07	-2.260932e-10	-3.529005e+00	-1.745560e+01
1.740000e-06	-4.606198e-07	-2.131992e-10	-3.204868e+00	-1.669852e+01
1.750000e-06	-4.140144e-07	-2.029324e-10	-2.880600e+00	-1.592593e+01
1.760000e-06	-3.673422e-07	-1.957658e-10	-2.555867e+00	-1.513791e+01
1.770000e-06	-3.206088e-07	-1.888878e-10	-2.230709e+00	-1.433459e+01
1.780000e-06	-2.739147e-07	-1.797716e-10	-1.905824e+00	-1.351613e+01
1.790000e-06	-2.270989e-07	-1.679271e-10	-1.580093e+00	-1.268273e+01
1.800000e-06	-1.801714e-07	-1.532421e-10	-1.253584e+00	-1.183464e+01
1.810000e-06	-1.333102e-07	-1.373842e-10	-9.275360e-01	-1.097215e+01
1.820000e-06	-8.648134e-08	-1.250273e-10	-6.017137e-01	-1.009560e+01
1.830000e-06	-3.965534e-08	-1.157027e-10	-2.759111e-01	-9.205360e+00
1.840000e-06	7.150962e-09	-1.056859e-10	4.975445e-02	-8.301850e+00
1.850000e-06	5.393343e-08	-9.491574e-11	3.752542e-01	-7.385534e+00
1.860000e-06	1.007519e-07	-8.391266e-11	7.010044e-01	-6.456912e+00
1.870000e-06	1.475364e-07	-6.917424e-11	1.026518e+00	-5.516529e+00
1.880000e-06	1.942845e-07	-5.082712e-11	1.351779e+00	-4.564965e+00
1.890000e-06	2.409662e-07	-3.242496e-11	1.676578e+00	-3.602839e+00
1.900000e-06	2.876353e-07	-1.716490e-11	2.001289e+00	-2.630803e+00
1.910000e-06	3.343248e-07	-4.419461e-12	2.326141e+00	-1.649545e+00
1.920000e-06	3.810115e-07	6.168516e-12	2.650974e+00	-6.597823e-01
1.930000e-06	4.277020e-07	1.694319e-11	2.975835e+00	3.377396e-01
1.940000e-06	4.743211e-07	3.043171e-11	3.300197e+00	1.342249e+00
1.950000e-06	5.208691e-07	4.456610e-11	3.624066e+00	2.352949e+00
1.960000e-06	5.673468e-07	5.848294e-11	3.947445e+00	3.369027e+00
1.970000e-06	6.137936e-07	7.270590e-11	4.270609e+00	4.389648e+00
1.980000e-06	6.602271e-07	8.733565e-11	4.593681e+00	5.413966e+00
1.990000e-06	7.065303e-07	1.033468e-10	4.915846e+00	6.441123e+00
2.000000e-06	7.527472e-07	1.178324e-10	5.237411e+00	7.470253e+00
2.010000e-06	7.989289e-07	1.323808e-10	5.558731e+00	8.500487e+00
2.020000e-06	8.450879e-07	1.486302e-10	5.879892e+00	9.530951e+00
2.030000e-06	8.912058e-07	1.661019e-10	6.200768e+00	1.056078e+01
2.040000e-06	9.372200e-07	1.817961e-10	6.520922e+00	1.158910e+01
2.050000e-06	9.831985e-07	1.954096e-10	6.840829e+00	1.261506e+01
2.060000e-06	1.029152e-06	2.089794e-10	7.160562e+00	1.363781e+01
2.070000e-06	1.075039e-06	2.229436e-10	7.479829e+00	1.465653e+01
2.080000e-06	1.120828e-06	2.386304e-10	7.798419e+00	1.567039e+01
2.090000e-06	1.166514e-06	2.556824e-10	8.116288e+00	1.667860e+01
2.100000e-06	1.212137e-06	2.722779e-10	8.433719e+00	1.768039e+01
2.110000e-06	1.257710e-06	2.847726e-10	8.750808e+00	1.867500e+01
2.120000e-06	1.303181e-06	2.955472e-10	9.067177e+00	1.966172e+01
2.130000e-06	1.348527e-06	3.081626e-10	9.382681e+00	2.063984e+01
2.140000e-06	1.393811e-06	3.228957e-10	9.697761e+00	2.160871e+01
2.150000e-06	1.439041e-06	3.373969e-10	1.001246e+01	2.256767e+01
2.160000e-06	1.484177e-06	3.511269e-10	1.032650e+01	2.351615e+01
2.170000e-06	1.529123e-06	3.655422e-10	1.063922e+01	2.445355e+01
2.180000e-06	1.573856e-06	3.814457e-10	1.095046e+01	2.537935e+01
2.190000e-06	1.618493e-06	3.958185e-10	1.126103e+01	2.629306e+01
2.200000e-06	1.663070e-06	4.077437e-10	1.157119e+01	2.719419e+01
2.210000e-06	1.707520e-06	4.186738e-10	1.188046e+01	2.808234e+01
2.220000e-06	1.751860e-06	4.288186e-10	1.218897e+01	2.895709e+01
2.230000e-06	1.796064e-06	4.398842e-10	1.249653e+01	2.981809e+01
2.240000e-06	1.840143e-06	4.499260e-10	1.280321e+01	3.066502e+01
2.250000e-06	1.884104e-06	4.586591e-10	1.310908e+01	3.149759e+01
2.260000e-06	1.927951e-06	4.693136e-10	1.341416e+01	3.231553e+01
2.270000e-06	1.971734e-06	4.849309e-10	1.371879e+01	3.311863e+01
2.280000e-06	2.015432e-06	5.007352e-10	1.402283e+01	3.390669e+01
2.290000e-06	2.059058e-06	5.137923e-10	1.432637e+01	3.467954e+01
2.300000e-06	2.102616e-06	5.244898e-10	1.462943e+01	3.543704e+01
2.310000e-06	2.146104e-06	5.318910e-10	1.493201e+01	3.617910e+01
2.320000e-06	2.189496e-06	5.395046e-10	1.523392e+01	3.690563e+01
2.330000e-06	2.232750e-06	5.500165e-10	1.553487e+01	3.761657e+01
2.340000e-06	2.275933e-06	5.628380e-10	1.583532e+01	3.831189e+01
2.350000e-06	2.318930e-06	5.772893e-10	1.613449e+01	3.899157e+01
2.360000e-06	2.361692e-06	5.904480e-10	1.643201e+01	3.965562e+01
2.370000e-06	2.404214e-06	5.988612e-10	1.672787e+01	4.030408e+01
2.380000e-06	2.446463e-06	6.043387e-10	1.702183e+01	4.093698e+01
2.390000e-06	2.488511e-06	6.093891e-10	1.731438e+01	4.155438e+01
2.400000e-06	2.530234e-06	6.156414e-10	1.760468e+01	4.215637e+01
2.410000e-06	2.571538e-06	6.210246e-10	1.789206e+01	4.274302e+01
2.420000e-06	2.612482e-06	6.283626e-10	1.817694e+01	4.331445e+01
2.430000e-06	2.653249e-06	6.377907e-10	1.846059e+01	4.387077e+01
2.440000e-06	2.693755e-06	6.453146e-10	1.874242e+01	4.441209e+01
2.450000e-06	2.733896e-06	6.492166e-10	1.902171e+01	4.493856e+01
2.460000e-06	2.773913e-06	6.539965e-10	1.930013e+01	4.545031e+01
2.470000e-06	2.813860e-06	6.616631e-10	1.957807e+01	4.594751e+01
2.480000e-06	2.853632e-06	6.699060e-10	1.985480e+01	4.643030e+01
2.490000e-06	2.893273e-06	6.779851e-10	2.013061e+01	4.689886e+01
2.500000e-06	2.932826e-06	6.854206e-10	2.040581e+01	4.735337e+01
2.510000e-06	2.972269e-06	6.926557e-10	2.068024e+01	4.779400e+01
2.520000e-06	3.011477e-06	6.995900e-10	2.095304e+01	4.822094e+01
2.530000e-06	3.050448e-06	7.050607e-10	2.122419e+01	4.863440e+01
2.540000e-06	3.089192e-06	7.096967e-10	2.149376e+01	4.903456e+01
2.550000e-06	3.127729e-06	7.144004e-10	2.176189e+01	4.942165e+01
2.560000e-06	3.166109e-06	7.182826e-10	2.202893e+01	4.979587e+01
2.570000e-06	3.204299e-06	7.212659e-10	2.229464e+01	5.015746e+01
2.580000e-06	3.242241e-06	7.247791e-10	2.255863e+01	5.050664e+01
2.590000e-06	3.279914e-06	7.301307e-10	2.282075e+01	5.084364e+01
2.600000e-06	3.317400e-06	7.361652e-10	2.308157e+01	5.116873e+01
2.610000e-06	3.354655e-06	7.398771e-10	2.334078e+01	5.148213e+01
2.620000e-06	3.391703e-06	7.419213e-10	2.359855e+01	5.178412e+01
2.630000e-06	3.428534e-06	7.454077e-10	2.385481e+01	5.207497e+01
2.640000e-06	3.465033e-06	7.492434e-10	2.410876e+01	5.235493e+01
2.650000e-06	3.501213e-06	7.541051e-10	2.436049e+01	5.262431e+01
2.660000e-06	3.537180e-06	7.586975e-10	2.461074e+01	5.288338e+01
2.670000e-06	3.573028e-06	7.598774e-10	2.486016e+01	5.313243e+01
2.680000e-06	3.608749e-06	7.607885e-10	2.510870e+01	5.337177e+01
2.690000e-06	3.644326e-06	7.641264e-10	2.535623e+01	5.360171e+01
2.700000e-06	3.679735e-06	7.687752e-10	2.560259e+01	5.382255e+01
2.710000e-06	3.714927e-06	7.741147e-10	2.584745e+01	5.403460e+01
2.720000e-06	3.749854e-06	7.794003e-10	2.609046e+01	5.423820e+01
2.730000e-06	3.784479e-06	7.833142e-10	2.633138e+01	5.443366e+01
2.740000e-06	3.818705e-06	7.850962e-10	2.656951e+01	5.462130e+01
2.750000e-06	3.852364e-06	7.873491e-10	2.680370e+01	5.480144e+01
2.760000e-06	3.885460e-06	7.899594e-10	2.703398e+01	5.497442e+01
2.770000e-06	3.918209e-06	7.939460e-10	2.726184e+01	5.514054e+01
2.780000e-06	3.950587e-06	7.984726e-10	2.748711e+01	5.530014e+01
2.790000e-06	3.982610e-06	8.022908e-10	2.770992e+01	5.545352e+01
2.800000e-06	4.014473e-06	8.057097e-10	2.793161e+01	5.560100e+01
2.810000e-06	4.046180e-06	8.079856e-10	2.815223e+01	5.574287e+01
2.820000e-06	4.077721e-06	8.089102e-10	2.837168e+01	5.587943e+01
2.830000e-06	4.109048e-06	8.098461e-10	2.858964e+01	5.601096e+01
2.840000e-06	4.140136e-06	8.127752e-10	2.880594e+01	5.613775e+01
2.850000e-06	4.170952e-06	8.179457e-10	2.902035e+01	5.626004e+01
2.860000e-06	4.201386e-06	8.210477e-10	2.923210e+01	5.637808e+01
2.870000e-06	4.231487e-06	8.209656e-10	2.944154e+01	5.649211e+01
2.880000e-06	4.261293e-06	8.213860e-10	2.964892e+01	5.660235e+01
2.890000e-06	4.290814e-06	8.233571e-10	2.985432e+01	5.670898e+01
2.900000e-06	4.320184e-06	8.267953e-10	3.005867e+01	5.681220e+01
2.910000e-06	4.349362e-06	8.307068e-10	3.026168e+01	5.691217e+01
