# Temperatura_=_-0.6
# Concentracion g/m^3_=_1620.0
# C_Vs_to_Am_M_A/Vsm_=_65563218390.804596
# pendiente_HvsI_1/m_=_3716.3
# ordenada_HvsI_A/m_=_1297.0
# frecuencia_Hz_=_135098.27197010312

Tiempo_(s)	Campo_(V.s)	Magnetizacion_(V.s)	Campo_(kA/m)	Magnetizacion_(A/m)
0.000000e+00	-5.511766e-06	-1.369881e-09	-3.836686e+01	-9.057180e+01
1.000000e-08	-5.511982e-06	-1.367647e-09	-3.836836e+01	-9.049049e+01
2.000000e-08	-5.511983e-06	-1.365732e-09	-3.836837e+01	-9.040807e+01
3.000000e-08	-5.511725e-06	-1.367134e-09	-3.836657e+01	-9.032461e+01
4.000000e-08	-5.511058e-06	-1.365077e-09	-3.836193e+01	-9.024017e+01
5.000000e-08	-5.509818e-06	-1.352835e-09	-3.835330e+01	-9.015480e+01
6.000000e-08	-5.508005e-06	-1.337686e-09	-3.834067e+01	-9.006857e+01
7.000000e-08	-5.505653e-06	-1.347863e-09	-3.832431e+01	-8.998151e+01
8.000000e-08	-5.502664e-06	-1.392074e-09	-3.830350e+01	-8.989367e+01
9.000000e-08	-5.499099e-06	-1.445969e-09	-3.827868e+01	-8.980508e+01
1.000000e-07	-5.495092e-06	-1.463926e-09	-3.825079e+01	-8.971577e+01
1.100000e-07	-5.490746e-06	-1.401958e-09	-3.822054e+01	-8.962575e+01
1.200000e-07	-5.486220e-06	-1.292240e-09	-3.818903e+01	-8.953504e+01
1.300000e-07	-5.481516e-06	-1.316170e-09	-3.815629e+01	-8.944364e+01
1.400000e-07	-5.476397e-06	-1.382269e-09	-3.812065e+01	-8.935155e+01
1.500000e-07	-5.470790e-06	-1.390837e-09	-3.808163e+01	-8.925875e+01
1.600000e-07	-5.464865e-06	-1.321056e-09	-3.804038e+01	-8.916522e+01
1.700000e-07	-5.458569e-06	-1.328374e-09	-3.799656e+01	-8.907092e+01
1.800000e-07	-5.451786e-06	-1.405147e-09	-3.794934e+01	-8.897583e+01
1.900000e-07	-5.444600e-06	-1.390709e-09	-3.789932e+01	-8.887989e+01
2.000000e-07	-5.437120e-06	-1.320049e-09	-3.784725e+01	-8.878303e+01
2.100000e-07	-5.429464e-06	-1.301408e-09	-3.779396e+01	-8.868520e+01
2.200000e-07	-5.421647e-06	-1.374426e-09	-3.773955e+01	-8.858630e+01
2.300000e-07	-5.413481e-06	-1.379832e-09	-3.768270e+01	-8.848626e+01
2.400000e-07	-5.404858e-06	-1.341490e-09	-3.762268e+01	-8.838498e+01
2.500000e-07	-5.395614e-06	-1.305503e-09	-3.755833e+01	-8.828234e+01
2.600000e-07	-5.385585e-06	-1.329191e-09	-3.748852e+01	-8.817823e+01
2.700000e-07	-5.375001e-06	-1.324795e-09	-3.741485e+01	-8.807253e+01
2.800000e-07	-5.364014e-06	-1.322814e-09	-3.733837e+01	-8.796511e+01
2.900000e-07	-5.352574e-06	-1.321226e-09	-3.725874e+01	-8.785582e+01
3.000000e-07	-5.340779e-06	-1.327136e-09	-3.717663e+01	-8.774451e+01
3.100000e-07	-5.328576e-06	-1.316624e-09	-3.709169e+01	-8.763103e+01
3.200000e-07	-5.315906e-06	-1.314550e-09	-3.700349e+01	-8.751523e+01
3.300000e-07	-5.302816e-06	-1.303134e-09	-3.691238e+01	-8.739693e+01
3.400000e-07	-5.289322e-06	-1.300355e-09	-3.681844e+01	-8.727596e+01
3.500000e-07	-5.275425e-06	-1.318892e-09	-3.672171e+01	-8.715216e+01
3.600000e-07	-5.261120e-06	-1.327384e-09	-3.662213e+01	-8.702535e+01
3.700000e-07	-5.246448e-06	-1.312506e-09	-3.652001e+01	-8.689534e+01
3.800000e-07	-5.231277e-06	-1.315215e-09	-3.641440e+01	-8.676198e+01
3.900000e-07	-5.215493e-06	-1.321294e-09	-3.630453e+01	-8.662507e+01
4.000000e-07	-5.199241e-06	-1.296214e-09	-3.619140e+01	-8.648445e+01
4.100000e-07	-5.182635e-06	-1.301287e-09	-3.607581e+01	-8.633995e+01
4.200000e-07	-5.165699e-06	-1.323767e-09	-3.595792e+01	-8.619140e+01
4.300000e-07	-5.148413e-06	-1.301585e-09	-3.583759e+01	-8.603865e+01
4.400000e-07	-5.130756e-06	-1.277523e-09	-3.571468e+01	-8.588153e+01
4.500000e-07	-5.112752e-06	-1.325284e-09	-3.558936e+01	-8.571991e+01
4.600000e-07	-5.094372e-06	-1.315073e-09	-3.546142e+01	-8.555366e+01
4.700000e-07	-5.075625e-06	-1.260484e-09	-3.533092e+01	-8.538263e+01
4.800000e-07	-5.056518e-06	-1.279656e-09	-3.519792e+01	-8.520674e+01
4.900000e-07	-5.037105e-06	-1.322687e-09	-3.506279e+01	-8.502586e+01
5.000000e-07	-5.017455e-06	-1.267443e-09	-3.492601e+01	-8.483992e+01
5.100000e-07	-4.997583e-06	-1.256927e-09	-3.478768e+01	-8.464884e+01
5.200000e-07	-4.977519e-06	-1.302839e-09	-3.464802e+01	-8.445256e+01
5.300000e-07	-4.957109e-06	-1.281961e-09	-3.450595e+01	-8.425105e+01
5.400000e-07	-4.936208e-06	-1.243906e-09	-3.436045e+01	-8.404426e+01
5.500000e-07	-4.914975e-06	-1.287783e-09	-3.421265e+01	-8.383220e+01
5.600000e-07	-4.893431e-06	-1.277415e-09	-3.406269e+01	-8.361487e+01
5.700000e-07	-4.871556e-06	-1.227152e-09	-3.391042e+01	-8.339229e+01
5.800000e-07	-4.849381e-06	-1.255202e-09	-3.375606e+01	-8.316449e+01
5.900000e-07	-4.826782e-06	-1.283418e-09	-3.359875e+01	-8.293155e+01
6.000000e-07	-4.803750e-06	-1.231556e-09	-3.343843e+01	-8.269352e+01
6.100000e-07	-4.780464e-06	-1.228999e-09	-3.327633e+01	-8.245049e+01
6.200000e-07	-4.756998e-06	-1.259171e-09	-3.311299e+01	-8.220258e+01
6.300000e-07	-4.733308e-06	-1.225624e-09	-3.294809e+01	-8.194989e+01
6.400000e-07	-4.709335e-06	-1.205435e-09	-3.278121e+01	-8.169255e+01
6.500000e-07	-4.685034e-06	-1.235839e-09	-3.261206e+01	-8.143071e+01
6.600000e-07	-4.660380e-06	-1.223874e-09	-3.244045e+01	-8.116453e+01
6.700000e-07	-4.635287e-06	-1.200143e-09	-3.226577e+01	-8.089416e+01
6.800000e-07	-4.609734e-06	-1.224953e-09	-3.208790e+01	-8.061977e+01
6.900000e-07	-4.583618e-06	-1.222792e-09	-3.190611e+01	-8.034155e+01
7.000000e-07	-4.556945e-06	-1.194476e-09	-3.172044e+01	-8.005969e+01
7.100000e-07	-4.529852e-06	-1.201006e-09	-3.153185e+01	-7.977436e+01
7.200000e-07	-4.502400e-06	-1.210525e-09	-3.134076e+01	-7.948577e+01
7.300000e-07	-4.474724e-06	-1.186679e-09	-3.114811e+01	-7.919409e+01
7.400000e-07	-4.446854e-06	-1.182534e-09	-3.095411e+01	-7.889952e+01
7.500000e-07	-4.418851e-06	-1.186994e-09	-3.075919e+01	-7.860224e+01
7.600000e-07	-4.390641e-06	-1.174968e-09	-3.056282e+01	-7.830244e+01
7.700000e-07	-4.362185e-06	-1.165537e-09	-3.036474e+01	-7.800028e+01
7.800000e-07	-4.333440e-06	-1.170834e-09	-3.016465e+01	-7.769593e+01
7.900000e-07	-4.304298e-06	-1.160504e-09	-2.996180e+01	-7.738955e+01
8.000000e-07	-4.274761e-06	-1.154760e-09	-2.975619e+01	-7.708127e+01
8.100000e-07	-4.244937e-06	-1.157316e-09	-2.954859e+01	-7.677122e+01
8.200000e-07	-4.214870e-06	-1.151419e-09	-2.933929e+01	-7.645951e+01
8.300000e-07	-4.184513e-06	-1.136156e-09	-2.912798e+01	-7.614624e+01
8.400000e-07	-4.153913e-06	-1.137127e-09	-2.891498e+01	-7.583149e+01
8.500000e-07	-4.122951e-06	-1.133096e-09	-2.869945e+01	-7.551532e+01
8.600000e-07	-4.091643e-06	-1.120321e-09	-2.848152e+01	-7.519776e+01
8.700000e-07	-4.060132e-06	-1.113860e-09	-2.826217e+01	-7.487884e+01
8.800000e-07	-4.028516e-06	-1.114138e-09	-2.804210e+01	-7.455855e+01
8.900000e-07	-3.996758e-06	-1.103460e-09	-2.782104e+01	-7.423687e+01
9.000000e-07	-3.964782e-06	-1.094839e-09	-2.759846e+01	-7.391376e+01
9.100000e-07	-3.932585e-06	-1.093060e-09	-2.737434e+01	-7.358915e+01
9.200000e-07	-3.900083e-06	-1.084680e-09	-2.714809e+01	-7.326295e+01
9.300000e-07	-3.867151e-06	-1.074969e-09	-2.691885e+01	-7.293507e+01
9.400000e-07	-3.833781e-06	-1.075057e-09	-2.668657e+01	-7.260537e+01
9.500000e-07	-3.800061e-06	-1.072852e-09	-2.645185e+01	-7.227371e+01
9.600000e-07	-3.765959e-06	-1.062053e-09	-2.621447e+01	-7.193991e+01
9.700000e-07	-3.731411e-06	-1.055282e-09	-2.597398e+01	-7.160381e+01
9.800000e-07	-3.696434e-06	-1.052145e-09	-2.573051e+01	-7.126521e+01
9.900000e-07	-3.661095e-06	-1.046270e-09	-2.548452e+01	-7.092389e+01
1.000000e-06	-3.625475e-06	-1.041681e-09	-2.523657e+01	-7.057964e+01
1.010000e-06	-3.589737e-06	-1.043150e-09	-2.498780e+01	-7.023220e+01
1.020000e-06	-3.553944e-06	-1.037152e-09	-2.473865e+01	-6.988136e+01
1.030000e-06	-3.518023e-06	-1.027716e-09	-2.448861e+01	-6.952685e+01
1.040000e-06	-3.481910e-06	-1.021318e-09	-2.423723e+01	-6.916841e+01
1.050000e-06	-3.445583e-06	-1.016408e-09	-2.398436e+01	-6.880579e+01
1.060000e-06	-3.408969e-06	-1.005941e-09	-2.372950e+01	-6.843874e+01
1.070000e-06	-3.372019e-06	-9.991799e-10	-2.347229e+01	-6.806698e+01
1.080000e-06	-3.334830e-06	-9.934113e-10	-2.321342e+01	-6.769027e+01
1.090000e-06	-3.297387e-06	-9.859402e-10	-2.295279e+01	-6.730834e+01
1.100000e-06	-3.259648e-06	-9.791567e-10	-2.269009e+01	-6.692097e+01
1.110000e-06	-3.221712e-06	-9.777406e-10	-2.242602e+01	-6.652790e+01
1.120000e-06	-3.183605e-06	-9.712392e-10	-2.216076e+01	-6.612892e+01
1.130000e-06	-3.145241e-06	-9.624853e-10	-2.189371e+01	-6.572380e+01
1.140000e-06	-3.106613e-06	-9.567757e-10	-2.162483e+01	-6.531235e+01
1.150000e-06	-3.067809e-06	-9.507374e-10	-2.135471e+01	-6.489438e+01
1.160000e-06	-3.028895e-06	-9.388443e-10	-2.108384e+01	-6.446971e+01
1.170000e-06	-2.989815e-06	-9.291943e-10	-2.081181e+01	-6.403818e+01
1.180000e-06	-2.950512e-06	-9.229650e-10	-2.053822e+01	-6.359966e+01
1.190000e-06	-2.911003e-06	-9.167127e-10	-2.026320e+01	-6.315403e+01
1.200000e-06	-2.871331e-06	-9.098521e-10	-1.998705e+01	-6.270116e+01
1.210000e-06	-2.831540e-06	-9.047902e-10	-1.971007e+01	-6.224099e+01
1.220000e-06	-2.791657e-06	-8.974259e-10	-1.943245e+01	-6.177342e+01
1.230000e-06	-2.751673e-06	-8.879353e-10	-1.915412e+01	-6.129841e+01
1.240000e-06	-2.711553e-06	-8.794726e-10	-1.887485e+01	-6.081591e+01
1.250000e-06	-2.671226e-06	-8.682694e-10	-1.859414e+01	-6.032589e+01
1.260000e-06	-2.630736e-06	-8.579016e-10	-1.831229e+01	-5.982834e+01
1.270000e-06	-2.590051e-06	-8.496597e-10	-1.802909e+01	-5.932326e+01
1.280000e-06	-2.549061e-06	-8.444499e-10	-1.774376e+01	-5.881065e+01
1.290000e-06	-2.507794e-06	-8.397488e-10	-1.745650e+01	-5.829053e+01
1.300000e-06	-2.466162e-06	-8.328405e-10	-1.716671e+01	-5.776292e+01
1.310000e-06	-2.424128e-06	-8.219776e-10	-1.687411e+01	-5.722784e+01
1.320000e-06	-2.381775e-06	-8.080008e-10	-1.657930e+01	-5.668531e+01
1.330000e-06	-2.339157e-06	-7.942643e-10	-1.628264e+01	-5.613538e+01
1.340000e-06	-2.296263e-06	-7.826425e-10	-1.598406e+01	-5.557805e+01
1.350000e-06	-2.253147e-06	-7.736721e-10	-1.568393e+01	-5.501334e+01
1.360000e-06	-2.209889e-06	-7.659264e-10	-1.538282e+01	-5.444126e+01
1.370000e-06	-2.166418e-06	-7.587152e-10	-1.508022e+01	-5.386181e+01
1.380000e-06	-2.122780e-06	-7.546903e-10	-1.477646e+01	-5.327498e+01
1.390000e-06	-2.079083e-06	-7.479407e-10	-1.447229e+01	-5.268073e+01
1.400000e-06	-2.035302e-06	-7.409021e-10	-1.416754e+01	-5.207900e+01
1.410000e-06	-1.991512e-06	-7.318918e-10	-1.386272e+01	-5.146974e+01
1.420000e-06	-1.947682e-06	-7.218176e-10	-1.355762e+01	-5.085285e+01
1.430000e-06	-1.903741e-06	-7.111376e-10	-1.325175e+01	-5.022822e+01
1.440000e-06	-1.859712e-06	-7.017252e-10	-1.294527e+01	-4.959569e+01
1.450000e-06	-1.815565e-06	-6.933211e-10	-1.263797e+01	-4.895511e+01
1.460000e-06	-1.771384e-06	-6.847984e-10	-1.233043e+01	-4.830627e+01
1.470000e-06	-1.727116e-06	-6.755990e-10	-1.202228e+01	-4.764894e+01
1.480000e-06	-1.682697e-06	-6.638260e-10	-1.171309e+01	-4.698288e+01
1.490000e-06	-1.638174e-06	-6.513496e-10	-1.140317e+01	-4.630779e+01
1.500000e-06	-1.593533e-06	-6.398798e-10	-1.109242e+01	-4.562335e+01
1.510000e-06	-1.548754e-06	-6.302366e-10	-1.078072e+01	-4.492921e+01
1.520000e-06	-1.503812e-06	-6.219818e-10	-1.046789e+01	-4.422499e+01
1.530000e-06	-1.458685e-06	-6.132413e-10	-1.015376e+01	-4.351030e+01
1.540000e-06	-1.413398e-06	-6.027223e-10	-9.838522e+00	-4.278469e+01
1.550000e-06	-1.368012e-06	-5.901408e-10	-9.522593e+00	-4.204770e+01
1.560000e-06	-1.322527e-06	-5.768145e-10	-9.205978e+00	-4.129885e+01
1.570000e-06	-1.276988e-06	-5.629383e-10	-8.888990e+00	-4.053765e+01
1.580000e-06	-1.231449e-06	-5.492177e-10	-8.571997e+00	-3.976355e+01
1.590000e-06	-1.185813e-06	-5.393400e-10	-8.254328e+00	-3.897603e+01
1.600000e-06	-1.140078e-06	-5.310577e-10	-7.935973e+00	-3.817454e+01
1.610000e-06	-1.094266e-06	-5.219660e-10	-7.617078e+00	-3.735851e+01
1.620000e-06	-1.048293e-06	-5.108290e-10	-7.297062e+00	-3.652738e+01
1.630000e-06	-1.002239e-06	-4.996662e-10	-6.976484e+00	-3.568058e+01
1.640000e-06	-9.561196e-07	-4.885537e-10	-6.655454e+00	-3.481756e+01
1.650000e-06	-9.099517e-07	-4.743523e-10	-6.334084e+00	-3.393775e+01
1.660000e-06	-8.638160e-07	-4.583799e-10	-6.012937e+00	-3.304061e+01
1.670000e-06	-8.176871e-07	-4.432916e-10	-5.691839e+00	-3.212561e+01
1.680000e-06	-7.714350e-07	-4.275008e-10	-5.369882e+00	-3.119225e+01
1.690000e-06	-7.250665e-07	-4.117161e-10	-5.047116e+00	-3.024005e+01
1.700000e-06	-6.786776e-07	-3.963644e-10	-4.724208e+00	-2.926855e+01
1.710000e-06	-6.322350e-07	-3.819679e-10	-4.400925e+00	-2.827733e+01
1.720000e-06	-5.856846e-07	-3.663715e-10	-4.076893e+00	-2.726602e+01
1.730000e-06	-5.391143e-07	-3.500027e-10	-3.752722e+00	-2.623429e+01
1.740000e-06	-4.925532e-07	-3.319315e-10	-3.428614e+00	-2.518184e+01
1.750000e-06	-4.458795e-07	-3.126543e-10	-3.103723e+00	-2.410844e+01
1.760000e-06	-3.991352e-07	-2.962323e-10	-2.778340e+00	-2.301391e+01
1.770000e-06	-3.524191e-07	-2.809580e-10	-2.453154e+00	-2.189812e+01
1.780000e-06	-3.056545e-07	-2.655705e-10	-2.127630e+00	-2.076102e+01
1.790000e-06	-2.588310e-07	-2.526855e-10	-1.801697e+00	-1.960260e+01
1.800000e-06	-2.120309e-07	-2.392146e-10	-1.475926e+00	-1.842294e+01
1.810000e-06	-1.651803e-07	-2.212984e-10	-1.149804e+00	-1.722218e+01
1.820000e-06	-1.183240e-07	-2.023988e-10	-8.236415e-01	-1.600052e+01
1.830000e-06	-7.154711e-08	-1.856956e-10	-4.980324e-01	-1.475824e+01
1.840000e-06	-2.480418e-08	-1.706064e-10	-1.726595e-01	-1.349570e+01
1.850000e-06	2.195801e-08	-1.541626e-10	1.528476e-01	-1.221333e+01
1.860000e-06	6.875181e-08	-1.368954e-10	4.785745e-01	-1.091163e+01
1.870000e-06	1.155556e-07	-1.195198e-10	8.043707e-01	-9.591160e+00
1.880000e-06	1.623276e-07	-9.984173e-11	1.129946e+00	-8.252576e+00
1.890000e-06	2.090731e-07	-7.770570e-11	1.455337e+00	-6.896589e+00
1.900000e-06	2.558153e-07	-5.540390e-11	1.780705e+00	-5.523981e+00
1.910000e-06	3.024870e-07	-3.368617e-11	2.105582e+00	-4.135603e+00
1.920000e-06	3.491532e-07	-1.400768e-11	2.430421e+00	-2.732367e+00
1.930000e-06	3.958410e-07	4.396423e-12	2.755410e+00	-1.315246e+00
1.940000e-06	4.424390e-07	2.280421e-11	3.079774e+00	1.147297e-01
1.950000e-06	4.889793e-07	4.211920e-11	3.403736e+00	1.556476e+00
1.960000e-06	5.355038e-07	6.204836e-11	3.727589e+00	3.008859e+00
1.970000e-06	5.819243e-07	8.354980e-11	4.050718e+00	4.470702e+00
1.980000e-06	6.282612e-07	1.049995e-10	4.373264e+00	5.940787e+00
1.990000e-06	6.746417e-07	1.265059e-10	4.696114e+00	7.417861e+00
2.000000e-06	7.209715e-07	1.471990e-10	5.018611e+00	8.900639e+00
2.010000e-06	7.672786e-07	1.665830e-10	5.340950e+00	1.038781e+01
2.020000e-06	8.135667e-07	1.869734e-10	5.663157e+00	1.187806e+01
2.030000e-06	8.597551e-07	2.077027e-10	5.984670e+00	1.337003e+01
2.040000e-06	9.058971e-07	2.278925e-10	6.305860e+00	1.486238e+01
2.050000e-06	9.520250e-07	2.482874e-10	6.626951e+00	1.635376e+01
2.060000e-06	9.980835e-07	2.690335e-10	6.947561e+00	1.784281e+01
2.070000e-06	1.044022e-06	2.902028e-10	7.267331e+00	1.932819e+01
2.080000e-06	1.089835e-06	3.133763e-10	7.586235e+00	2.080858e+01
2.090000e-06	1.135565e-06	3.358024e-10	7.904557e+00	2.228267e+01
2.100000e-06	1.181278e-06	3.571424e-10	8.222759e+00	2.374917e+01
2.110000e-06	1.226898e-06	3.776093e-10	8.540315e+00	2.520683e+01
2.120000e-06	1.272423e-06	3.953590e-10	8.857207e+00	2.665442e+01
2.130000e-06	1.317814e-06	4.130956e-10	9.173172e+00	2.809076e+01
2.140000e-06	1.363098e-06	4.332912e-10	9.488388e+00	2.951471e+01
2.150000e-06	1.408356e-06	4.546043e-10	9.803427e+00	3.092518e+01
2.160000e-06	1.453494e-06	4.748928e-10	1.011763e+01	3.232111e+01
2.170000e-06	1.498478e-06	4.937710e-10	1.043076e+01	3.370153e+01
2.180000e-06	1.543311e-06	5.145258e-10	1.074283e+01	3.506548e+01
2.190000e-06	1.588064e-06	5.341862e-10	1.105436e+01	3.641210e+01
2.200000e-06	1.632787e-06	5.516695e-10	1.136567e+01	3.774057e+01
2.210000e-06	1.677369e-06	5.696889e-10	1.167600e+01	3.905013e+01
2.220000e-06	1.721850e-06	5.874657e-10	1.198563e+01	4.034010e+01
2.230000e-06	1.766235e-06	6.055660e-10	1.229458e+01	4.160984e+01
2.240000e-06	1.810477e-06	6.223554e-10	1.260255e+01	4.285879e+01
2.250000e-06	1.854612e-06	6.378903e-10	1.290977e+01	4.408647e+01
2.260000e-06	1.898583e-06	6.529478e-10	1.321585e+01	4.529244e+01
2.270000e-06	1.942463e-06	6.706204e-10	1.352129e+01	4.647633e+01
2.280000e-06	1.986322e-06	6.912794e-10	1.382659e+01	4.763786e+01
2.290000e-06	2.030115e-06	7.102184e-10	1.413143e+01	4.877677e+01
2.300000e-06	2.073835e-06	7.264975e-10	1.443576e+01	4.989289e+01
2.310000e-06	2.117493e-06	7.396234e-10	1.473966e+01	5.098611e+01
2.320000e-06	2.161108e-06	7.522612e-10	1.504326e+01	5.205637e+01
2.330000e-06	2.204626e-06	7.648097e-10	1.534619e+01	5.310366e+01
2.340000e-06	2.247962e-06	7.784059e-10	1.564784e+01	5.412805e+01
2.350000e-06	2.291108e-06	7.957280e-10	1.594818e+01	5.512961e+01
2.360000e-06	2.334055e-06	8.160550e-10	1.624712e+01	5.610852e+01
2.370000e-06	2.376767e-06	8.329554e-10	1.654444e+01	5.706495e+01
2.380000e-06	2.419091e-06	8.431544e-10	1.683905e+01	5.799915e+01
2.390000e-06	2.460957e-06	8.516088e-10	1.713048e+01	5.891138e+01
2.400000e-06	2.502526e-06	8.596167e-10	1.741984e+01	5.980196e+01
2.410000e-06	2.543857e-06	8.674507e-10	1.770754e+01	6.067122e+01
2.420000e-06	2.584928e-06	8.786087e-10	1.799343e+01	6.151954e+01
2.430000e-06	2.625649e-06	8.940505e-10	1.827688e+01	6.234730e+01
2.440000e-06	2.666058e-06	9.098727e-10	1.855817e+01	6.315492e+01
2.450000e-06	2.706294e-06	9.222149e-10	1.883825e+01	6.394283e+01
2.460000e-06	2.746432e-06	9.316086e-10	1.911764e+01	6.471149e+01
2.470000e-06	2.786528e-06	9.417536e-10	1.939675e+01	6.546136e+01
2.480000e-06	2.826500e-06	9.526045e-10	1.967499e+01	6.619290e+01
2.490000e-06	2.866266e-06	9.633297e-10	1.995180e+01	6.690660e+01
2.500000e-06	2.905874e-06	9.729350e-10	2.022750e+01	6.760294e+01
2.510000e-06	2.945305e-06	9.819059e-10	2.050197e+01	6.828241e+01
2.520000e-06	2.984577e-06	9.921624e-10	2.077534e+01	6.894548e+01
2.530000e-06	3.023737e-06	1.003200e-09	2.104794e+01	6.959264e+01
2.540000e-06	3.062666e-06	1.012321e-09	2.131892e+01	7.022435e+01
2.550000e-06	3.101354e-06	1.019481e-09	2.158822e+01	7.084111e+01
2.560000e-06	3.139823e-06	1.028099e-09	2.185599e+01	7.144335e+01
2.570000e-06	3.178114e-06	1.037838e-09	2.212254e+01	7.203153e+01
2.580000e-06	3.216195e-06	1.046926e-09	2.238762e+01	7.260608e+01
2.590000e-06	3.253980e-06	1.056332e-09	2.265063e+01	7.316745e+01
2.600000e-06	3.291588e-06	1.065665e-09	2.291242e+01	7.371602e+01
2.610000e-06	3.329077e-06	1.073552e-09	2.317337e+01	7.425221e+01
2.620000e-06	3.366315e-06	1.079379e-09	2.343258e+01	7.477640e+01
2.630000e-06	3.403205e-06	1.082237e-09	2.368937e+01	7.528895e+01
2.640000e-06	3.439821e-06	1.084351e-09	2.394426e+01	7.579022e+01
2.650000e-06	3.476188e-06	1.089754e-09	2.419740e+01	7.628054e+01
2.660000e-06	3.512362e-06	1.097209e-09	2.444920e+01	7.676023e+01
2.670000e-06	3.548399e-06	1.103996e-09	2.470006e+01	7.722960e+01
2.680000e-06	3.584244e-06	1.111372e-09	2.494957e+01	7.768893e+01
2.690000e-06	3.619893e-06	1.119555e-09	2.519772e+01	7.813850e+01
2.700000e-06	3.655447e-06	1.125816e-09	2.544520e+01	7.857856e+01
2.710000e-06	3.690843e-06	1.129030e-09	2.569159e+01	7.900936e+01
2.720000e-06	3.725975e-06	1.131658e-09	2.593614e+01	7.943113e+01
2.730000e-06	3.760737e-06	1.136179e-09	2.617812e+01	7.984407e+01
2.740000e-06	3.795117e-06	1.142945e-09	2.641743e+01	8.024840e+01
2.750000e-06	3.829078e-06	1.150703e-09	2.665383e+01	8.064429e+01
2.760000e-06	3.862482e-06	1.157532e-09	2.688636e+01	8.103193e+01
2.770000e-06	3.895416e-06	1.164063e-09	2.711561e+01	8.141148e+01
2.780000e-06	3.928064e-06	1.171029e-09	2.734287e+01	8.178310e+01
2.790000e-06	3.960465e-06	1.176528e-09	2.756840e+01	8.214693e+01
2.800000e-06	3.992587e-06	1.180167e-09	2.779200e+01	8.250310e+01
2.810000e-06	4.024471e-06	1.183352e-09	2.801394e+01	8.285174e+01
2.820000e-06	4.056144e-06	1.187065e-09	2.823442e+01	8.319298e+01
2.830000e-06	4.087618e-06	1.191961e-09	2.845350e+01	8.352691e+01
2.840000e-06	4.118843e-06	1.199892e-09	2.867086e+01	8.385364e+01
2.850000e-06	4.149786e-06	1.209448e-09	2.888625e+01	8.417327e+01
2.860000e-06	4.180362e-06	1.217011e-09	2.909909e+01	8.448588e+01
2.870000e-06	4.210606e-06	1.221797e-09	2.930961e+01	8.479157e+01
2.880000e-06	4.240641e-06	1.225305e-09	2.951868e+01	8.509041e+01
2.890000e-06	4.270438e-06	1.229319e-09	2.972609e+01	8.538246e+01
2.900000e-06	4.299995e-06	1.234527e-09	2.993184e+01	8.566782e+01
