# Temperatura_=_-1.8
# Concentracion g/m^3_=_1620.0
# C_Vs_to_Am_M_A/Vsm_=_65563218390.804596
# pendiente_HvsI_1/m_=_3716.3
# ordenada_HvsI_A/m_=_1297.0
# frecuencia_Hz_=_135106.90313250612

Tiempo_(s)	Campo_(V.s)	Magnetizacion_(V.s)	Campo_(kA/m)	Magnetizacion_(A/m)
0.000000e+00	-5.513937e-06	-9.188160e-10	-3.837001e+01	-6.312497e+01
1.000000e-08	-5.514131e-06	-9.193759e-10	-3.837136e+01	-6.310248e+01
2.000000e-08	-5.514076e-06	-9.217936e-10	-3.837097e+01	-6.308128e+01
3.000000e-08	-5.513670e-06	-9.216243e-10	-3.836815e+01	-6.306126e+01
4.000000e-08	-5.512752e-06	-9.159406e-10	-3.836176e+01	-6.304227e+01
5.000000e-08	-5.511272e-06	-9.043464e-10	-3.835146e+01	-6.302413e+01
6.000000e-08	-5.509209e-06	-9.059556e-10	-3.833710e+01	-6.300669e+01
7.000000e-08	-5.506655e-06	-9.367717e-10	-3.831933e+01	-6.298975e+01
8.000000e-08	-5.503528e-06	-9.635766e-10	-3.829757e+01	-6.297310e+01
9.000000e-08	-5.499889e-06	-9.519342e-10	-3.827225e+01	-6.295653e+01
1.000000e-07	-5.495981e-06	-9.300901e-10	-3.824505e+01	-6.293983e+01
1.100000e-07	-5.491785e-06	-9.100359e-10	-3.821585e+01	-6.292276e+01
1.200000e-07	-5.487315e-06	-9.137499e-10	-3.818475e+01	-6.290509e+01
1.300000e-07	-5.482569e-06	-9.235267e-10	-3.815172e+01	-6.288657e+01
1.400000e-07	-5.477478e-06	-9.393791e-10	-3.811630e+01	-6.286696e+01
1.500000e-07	-5.471965e-06	-9.349619e-10	-3.807793e+01	-6.284601e+01
1.600000e-07	-5.466045e-06	-9.018617e-10	-3.803674e+01	-6.282349e+01
1.700000e-07	-5.459690e-06	-9.265446e-10	-3.799252e+01	-6.279914e+01
1.800000e-07	-5.452871e-06	-9.626675e-10	-3.794507e+01	-6.277274e+01
1.900000e-07	-5.445683e-06	-9.689353e-10	-3.789504e+01	-6.274405e+01
2.000000e-07	-5.438245e-06	-9.188995e-10	-3.784328e+01	-6.271284e+01
2.100000e-07	-5.430528e-06	-9.277899e-10	-3.778958e+01	-6.267890e+01
2.200000e-07	-5.422562e-06	-9.707502e-10	-3.773415e+01	-6.264202e+01
2.300000e-07	-5.414332e-06	-9.939528e-10	-3.767688e+01	-6.260201e+01
2.400000e-07	-5.405610e-06	-9.595407e-10	-3.761618e+01	-6.255869e+01
2.500000e-07	-5.396231e-06	-9.553333e-10	-3.755092e+01	-6.251188e+01
2.600000e-07	-5.386244e-06	-9.740411e-10	-3.748142e+01	-6.246144e+01
2.700000e-07	-5.375804e-06	-9.645629e-10	-3.740877e+01	-6.240723e+01
2.800000e-07	-5.364830e-06	-9.386665e-10	-3.733241e+01	-6.234913e+01
2.900000e-07	-5.353356e-06	-9.348653e-10	-3.725257e+01	-6.228704e+01
3.000000e-07	-5.341522e-06	-9.457286e-10	-3.717021e+01	-6.222087e+01
3.100000e-07	-5.329288e-06	-9.321133e-10	-3.708508e+01	-6.215055e+01
3.200000e-07	-5.316559e-06	-9.310257e-10	-3.699651e+01	-6.207604e+01
3.300000e-07	-5.303402e-06	-9.296049e-10	-3.690495e+01	-6.199730e+01
3.400000e-07	-5.289919e-06	-9.367706e-10	-3.681112e+01	-6.191433e+01
3.500000e-07	-5.276117e-06	-9.299211e-10	-3.671508e+01	-6.182713e+01
3.600000e-07	-5.261869e-06	-9.277017e-10	-3.661593e+01	-6.173572e+01
3.700000e-07	-5.247147e-06	-9.099919e-10	-3.651349e+01	-6.164015e+01
3.800000e-07	-5.231980e-06	-9.243226e-10	-3.640794e+01	-6.154046e+01
3.900000e-07	-5.216232e-06	-9.346951e-10	-3.629835e+01	-6.143673e+01
4.000000e-07	-5.199949e-06	-9.277173e-10	-3.618505e+01	-6.132905e+01
4.100000e-07	-5.183287e-06	-9.082718e-10	-3.606910e+01	-6.121751e+01
4.200000e-07	-5.166306e-06	-9.226847e-10	-3.595094e+01	-6.110223e+01
4.300000e-07	-5.149017e-06	-9.184298e-10	-3.583063e+01	-6.098333e+01
4.400000e-07	-5.131460e-06	-9.134762e-10	-3.570845e+01	-6.086094e+01
4.500000e-07	-5.113522e-06	-9.281523e-10	-3.558362e+01	-6.073520e+01
4.600000e-07	-5.095007e-06	-9.305736e-10	-3.545478e+01	-6.060626e+01
4.700000e-07	-5.076049e-06	-9.073190e-10	-3.532286e+01	-6.047426e+01
4.800000e-07	-5.056832e-06	-9.154885e-10	-3.518913e+01	-6.033938e+01
4.900000e-07	-5.037343e-06	-9.308847e-10	-3.505352e+01	-6.020175e+01
5.000000e-07	-5.017644e-06	-9.089793e-10	-3.491644e+01	-6.006155e+01
5.100000e-07	-4.997700e-06	-9.034493e-10	-3.477765e+01	-5.991892e+01
5.200000e-07	-4.977480e-06	-9.288236e-10	-3.463694e+01	-5.977404e+01
5.300000e-07	-4.957010e-06	-9.204601e-10	-3.449450e+01	-5.962704e+01
5.400000e-07	-4.936186e-06	-9.004316e-10	-3.434959e+01	-5.947808e+01
5.500000e-07	-4.914931e-06	-9.213004e-10	-3.420168e+01	-5.932729e+01
5.600000e-07	-4.893234e-06	-9.189520e-10	-3.405070e+01	-5.917482e+01
5.700000e-07	-4.871225e-06	-8.922853e-10	-3.389755e+01	-5.902077e+01
5.800000e-07	-4.849023e-06	-9.071620e-10	-3.374305e+01	-5.886528e+01
5.900000e-07	-4.826470e-06	-9.294362e-10	-3.358611e+01	-5.870845e+01
6.000000e-07	-4.803497e-06	-9.008514e-10	-3.342624e+01	-5.855035e+01
6.100000e-07	-4.780212e-06	-8.930155e-10	-3.326421e+01	-5.839109e+01
6.200000e-07	-4.756686e-06	-9.101767e-10	-3.310050e+01	-5.823072e+01
6.300000e-07	-4.732944e-06	-8.968148e-10	-3.293529e+01	-5.806929e+01
6.400000e-07	-4.708988e-06	-8.778896e-10	-3.276858e+01	-5.790686e+01
6.500000e-07	-4.684722e-06	-8.994084e-10	-3.259972e+01	-5.774343e+01
6.600000e-07	-4.659927e-06	-8.985504e-10	-3.242718e+01	-5.757903e+01
6.700000e-07	-4.634687e-06	-8.789494e-10	-3.225154e+01	-5.741366e+01
6.800000e-07	-4.609014e-06	-8.867090e-10	-3.207289e+01	-5.724729e+01
6.900000e-07	-4.582865e-06	-8.957830e-10	-3.189093e+01	-5.707990e+01
7.000000e-07	-4.556242e-06	-8.730147e-10	-3.170566e+01	-5.691144e+01
7.100000e-07	-4.529128e-06	-8.704752e-10	-3.151698e+01	-5.674186e+01
7.200000e-07	-4.501703e-06	-8.830351e-10	-3.132614e+01	-5.657109e+01
7.300000e-07	-4.474061e-06	-8.732652e-10	-3.113378e+01	-5.639905e+01
7.400000e-07	-4.446223e-06	-8.614966e-10	-3.094007e+01	-5.622565e+01
7.500000e-07	-4.418164e-06	-8.731360e-10	-3.074482e+01	-5.605078e+01
7.600000e-07	-4.389868e-06	-8.677015e-10	-3.054791e+01	-5.587436e+01
7.700000e-07	-4.361264e-06	-8.519375e-10	-3.034886e+01	-5.569624e+01
7.800000e-07	-4.332263e-06	-8.558496e-10	-3.014705e+01	-5.551632e+01
7.900000e-07	-4.302917e-06	-8.589334e-10	-2.994284e+01	-5.533447e+01
8.000000e-07	-4.273318e-06	-8.462384e-10	-2.973687e+01	-5.515054e+01
8.100000e-07	-4.243486e-06	-8.419029e-10	-2.952928e+01	-5.496442e+01
8.200000e-07	-4.213418e-06	-8.419655e-10	-2.932004e+01	-5.477595e+01
8.300000e-07	-4.183054e-06	-8.293461e-10	-2.910875e+01	-5.458501e+01
8.400000e-07	-4.152293e-06	-8.221940e-10	-2.889469e+01	-5.439145e+01
8.500000e-07	-4.121265e-06	-8.222453e-10	-2.867878e+01	-5.419514e+01
8.600000e-07	-4.090041e-06	-8.160737e-10	-2.846150e+01	-5.399595e+01
8.700000e-07	-4.058617e-06	-8.079643e-10	-2.824283e+01	-5.379375e+01
8.800000e-07	-4.027029e-06	-8.089306e-10	-2.802301e+01	-5.358842e+01
8.900000e-07	-3.995246e-06	-8.035124e-10	-2.780184e+01	-5.337984e+01
9.000000e-07	-3.963301e-06	-7.935812e-10	-2.757955e+01	-5.316790e+01
9.100000e-07	-3.931075e-06	-7.897792e-10	-2.735529e+01	-5.295250e+01
9.200000e-07	-3.898414e-06	-7.873818e-10	-2.712801e+01	-5.273355e+01
9.300000e-07	-3.865420e-06	-7.789130e-10	-2.689842e+01	-5.251096e+01
9.400000e-07	-3.832080e-06	-7.781863e-10	-2.666642e+01	-5.228466e+01
9.500000e-07	-3.798233e-06	-7.783485e-10	-2.643088e+01	-5.205459e+01
9.600000e-07	-3.763836e-06	-7.698599e-10	-2.619153e+01	-5.182070e+01
9.700000e-07	-3.729024e-06	-7.601980e-10	-2.594928e+01	-5.158294e+01
9.800000e-07	-3.693937e-06	-7.582850e-10	-2.570511e+01	-5.134129e+01
9.900000e-07	-3.658589e-06	-7.529411e-10	-2.545913e+01	-5.109573e+01
1.000000e-06	-3.623020e-06	-7.504396e-10	-2.521162e+01	-5.084625e+01
1.010000e-06	-3.587292e-06	-7.545429e-10	-2.496300e+01	-5.059285e+01
1.020000e-06	-3.551425e-06	-7.551244e-10	-2.471341e+01	-5.033556e+01
1.030000e-06	-3.515379e-06	-7.461898e-10	-2.446258e+01	-5.007440e+01
1.040000e-06	-3.479162e-06	-7.403975e-10	-2.421055e+01	-4.980940e+01
1.050000e-06	-3.442783e-06	-7.358868e-10	-2.395740e+01	-4.954060e+01
1.060000e-06	-3.406121e-06	-7.282832e-10	-2.370228e+01	-4.926807e+01
1.070000e-06	-3.369114e-06	-7.243446e-10	-2.344476e+01	-4.899185e+01
1.080000e-06	-3.331875e-06	-7.242102e-10	-2.318562e+01	-4.871202e+01
1.090000e-06	-3.294399e-06	-7.204238e-10	-2.292484e+01	-4.842865e+01
1.100000e-06	-3.256680e-06	-7.162704e-10	-2.266236e+01	-4.814181e+01
1.110000e-06	-3.218847e-06	-7.137199e-10	-2.239909e+01	-4.785159e+01
1.120000e-06	-3.180764e-06	-7.065422e-10	-2.213408e+01	-4.755807e+01
1.130000e-06	-3.142356e-06	-6.979796e-10	-2.186681e+01	-4.726133e+01
1.140000e-06	-3.103727e-06	-6.934448e-10	-2.159800e+01	-4.696145e+01
1.150000e-06	-3.064860e-06	-6.894830e-10	-2.132754e+01	-4.665852e+01
1.160000e-06	-3.025866e-06	-6.838985e-10	-2.105619e+01	-4.635261e+01
1.170000e-06	-2.986772e-06	-6.833956e-10	-2.078414e+01	-4.604380e+01
1.180000e-06	-2.947433e-06	-6.839415e-10	-2.051039e+01	-4.573214e+01
1.190000e-06	-2.907819e-06	-6.805373e-10	-2.023473e+01	-4.541772e+01
1.200000e-06	-2.868073e-06	-6.761030e-10	-1.995815e+01	-4.510056e+01
1.210000e-06	-2.828289e-06	-6.743652e-10	-1.968130e+01	-4.478072e+01
1.220000e-06	-2.788451e-06	-6.699853e-10	-1.940408e+01	-4.445822e+01
1.230000e-06	-2.748477e-06	-6.650786e-10	-1.912592e+01	-4.413308e+01
1.240000e-06	-2.708304e-06	-6.609155e-10	-1.884636e+01	-4.380531e+01
1.250000e-06	-2.667932e-06	-6.551398e-10	-1.856542e+01	-4.347488e+01
1.260000e-06	-2.627372e-06	-6.467535e-10	-1.828318e+01	-4.314178e+01
1.270000e-06	-2.586506e-06	-6.408583e-10	-1.799880e+01	-4.280595e+01
1.280000e-06	-2.545293e-06	-6.379301e-10	-1.771201e+01	-4.246733e+01
1.290000e-06	-2.503843e-06	-6.330148e-10	-1.742357e+01	-4.212584e+01
1.300000e-06	-2.462101e-06	-6.255911e-10	-1.713310e+01	-4.178137e+01
1.310000e-06	-2.420091e-06	-6.171622e-10	-1.684076e+01	-4.143380e+01
1.320000e-06	-2.377840e-06	-6.085567e-10	-1.654675e+01	-4.108300e+01
1.330000e-06	-2.335343e-06	-6.023000e-10	-1.625102e+01	-4.072878e+01
1.340000e-06	-2.292679e-06	-5.969251e-10	-1.595414e+01	-4.037097e+01
1.350000e-06	-2.249740e-06	-5.915359e-10	-1.565533e+01	-4.000935e+01
1.360000e-06	-2.206477e-06	-5.850307e-10	-1.535428e+01	-3.964370e+01
1.370000e-06	-2.162984e-06	-5.808329e-10	-1.505162e+01	-3.927377e+01
1.380000e-06	-2.119391e-06	-5.791177e-10	-1.474827e+01	-3.889927e+01
1.390000e-06	-2.075763e-06	-5.757136e-10	-1.444467e+01	-3.851992e+01
1.400000e-06	-2.032045e-06	-5.694867e-10	-1.414046e+01	-3.813540e+01
1.410000e-06	-1.988255e-06	-5.618117e-10	-1.383573e+01	-3.774538e+01
1.420000e-06	-1.944390e-06	-5.538380e-10	-1.353049e+01	-3.734951e+01
1.430000e-06	-1.900408e-06	-5.480242e-10	-1.322443e+01	-3.694740e+01
1.440000e-06	-1.856327e-06	-5.435020e-10	-1.291768e+01	-3.653868e+01
1.450000e-06	-1.812186e-06	-5.380849e-10	-1.261052e+01	-3.612294e+01
1.460000e-06	-1.767986e-06	-5.318091e-10	-1.230294e+01	-3.569976e+01
1.470000e-06	-1.723577e-06	-5.236726e-10	-1.199391e+01	-3.526871e+01
1.480000e-06	-1.678953e-06	-5.151291e-10	-1.168338e+01	-3.482935e+01
1.490000e-06	-1.634247e-06	-5.077374e-10	-1.137229e+01	-3.438122e+01
1.500000e-06	-1.589422e-06	-5.016829e-10	-1.106036e+01	-3.392387e+01
1.510000e-06	-1.544410e-06	-4.974321e-10	-1.074713e+01	-3.345683e+01
1.520000e-06	-1.499279e-06	-4.936944e-10	-1.043308e+01	-3.297964e+01
1.530000e-06	-1.454093e-06	-4.870588e-10	-1.011864e+01	-3.249181e+01
1.540000e-06	-1.408801e-06	-4.772193e-10	-9.803467e+00	-3.199288e+01
1.550000e-06	-1.363431e-06	-4.657402e-10	-9.487746e+00	-3.148238e+01
1.560000e-06	-1.318050e-06	-4.550754e-10	-9.171958e+00	-3.095984e+01
1.570000e-06	-1.272584e-06	-4.452768e-10	-8.855571e+00	-3.042481e+01
1.580000e-06	-1.226934e-06	-4.384581e-10	-8.537905e+00	-2.987684e+01
1.590000e-06	-1.181162e-06	-4.329630e-10	-8.219390e+00	-2.931550e+01
1.600000e-06	-1.135267e-06	-4.263222e-10	-7.900017e+00	-2.874035e+01
1.610000e-06	-1.089313e-06	-4.170014e-10	-7.580237e+00	-2.815100e+01
1.620000e-06	-1.043353e-06	-4.061361e-10	-7.260414e+00	-2.754707e+01
1.630000e-06	-9.973290e-07	-3.959732e-10	-6.940144e+00	-2.692817e+01
1.640000e-06	-9.512543e-07	-3.878778e-10	-6.619523e+00	-2.629397e+01
1.650000e-06	-9.051580e-07	-3.781726e-10	-6.298751e+00	-2.564416e+01
1.660000e-06	-8.589863e-07	-3.670296e-10	-5.977455e+00	-2.497845e+01
1.670000e-06	-8.127304e-07	-3.554404e-10	-5.655572e+00	-2.429657e+01
1.680000e-06	-7.664170e-07	-3.431337e-10	-5.333290e+00	-2.359830e+01
1.690000e-06	-7.200161e-07	-3.321193e-10	-5.010399e+00	-2.288344e+01
1.700000e-06	-6.735310e-07	-3.232327e-10	-4.686921e+00	-2.215184e+01
1.710000e-06	-6.270060e-07	-3.147443e-10	-4.363166e+00	-2.140338e+01
1.720000e-06	-5.804598e-07	-3.028115e-10	-4.039264e+00	-2.063797e+01
1.730000e-06	-5.338251e-07	-2.880090e-10	-3.714745e+00	-1.985557e+01
1.740000e-06	-4.871289e-07	-2.712146e-10	-3.389799e+00	-1.905618e+01
1.750000e-06	-4.404401e-07	-2.544731e-10	-3.064904e+00	-1.823984e+01
1.760000e-06	-3.937714e-07	-2.405286e-10	-2.740149e+00	-1.740663e+01
1.770000e-06	-3.470464e-07	-2.305765e-10	-2.415002e+00	-1.655670e+01
1.780000e-06	-3.002286e-07	-2.223740e-10	-2.089210e+00	-1.569020e+01
1.790000e-06	-2.533787e-07	-2.135330e-10	-1.763194e+00	-1.480735e+01
1.800000e-06	-2.065809e-07	-2.022058e-10	-1.437541e+00	-1.390843e+01
1.810000e-06	-1.598093e-07	-1.884003e-10	-1.112070e+00	-1.299373e+01
1.820000e-06	-1.129751e-07	-1.733077e-10	-7.861631e-01	-1.206361e+01
1.830000e-06	-6.616655e-08	-1.591796e-10	-4.604353e-01	-1.111846e+01
1.840000e-06	-1.945591e-08	-1.471939e-10	-1.353885e-01	-1.015873e+01
1.850000e-06	2.727079e-08	-1.370238e-10	1.897701e-01	-9.184903e+00
1.860000e-06	7.412925e-08	-1.272572e-10	5.158455e-01	-8.197497e+00
1.870000e-06	1.209983e-07	-1.146856e-10	8.419947e-01	-7.197080e+00
1.880000e-06	1.677807e-07	-9.845246e-11	1.167541e+00	-6.184256e+00
1.890000e-06	2.145363e-07	-8.026962e-11	1.492901e+00	-5.159668e+00
1.900000e-06	2.612466e-07	-6.269933e-11	1.817945e+00	-4.123992e+00
1.910000e-06	3.079544e-07	-4.605590e-11	2.142972e+00	-3.077940e+00
1.920000e-06	3.546434e-07	-3.059372e-11	2.467868e+00	-2.022255e+00
1.930000e-06	4.011827e-07	-1.947239e-11	2.791722e+00	-9.577086e-01
1.940000e-06	4.477002e-07	-7.687240e-12	3.115425e+00	1.149005e-01
1.950000e-06	4.942672e-07	6.242540e-12	3.439472e+00	1.194749e+00
1.960000e-06	5.407625e-07	2.246205e-11	3.763021e+00	2.280991e+00
1.970000e-06	5.871620e-07	3.936906e-11	4.085902e+00	3.372762e+00
1.980000e-06	6.335237e-07	5.673703e-11	4.408521e+00	4.469183e+00
1.990000e-06	6.798880e-07	7.601576e-11	4.731158e+00	5.569359e+00
2.000000e-06	7.261982e-07	9.185856e-11	5.053418e+00	6.672386e+00
2.010000e-06	7.724484e-07	1.059898e-10	5.375260e+00	7.777353e+00
2.020000e-06	8.186938e-07	1.209612e-10	5.697070e+00	8.883343e+00
2.030000e-06	8.649354e-07	1.366285e-10	6.018853e+00	9.989438e+00
2.040000e-06	9.111407e-07	1.519679e-10	6.340383e+00	1.109472e+01
2.050000e-06	9.572248e-07	1.681300e-10	6.661070e+00	1.219829e+01
2.060000e-06	1.003212e-06	1.850124e-10	6.981082e+00	1.329923e+01
2.070000e-06	1.049183e-06	2.024305e-10	7.300981e+00	1.439665e+01
2.080000e-06	1.095086e-06	2.216338e-10	7.620410e+00	1.548967e+01
2.090000e-06	1.140914e-06	2.386368e-10	7.939314e+00	1.657743e+01
2.100000e-06	1.186645e-06	2.523931e-10	8.257544e+00	1.765908e+01
2.110000e-06	1.232224e-06	2.647471e-10	8.574715e+00	1.873379e+01
2.120000e-06	1.277728e-06	2.761525e-10	8.891366e+00	1.980077e+01
2.130000e-06	1.323164e-06	2.901034e-10	9.207545e+00	2.085924e+01
2.140000e-06	1.368516e-06	3.061013e-10	9.523136e+00	2.190844e+01
2.150000e-06	1.413797e-06	3.244077e-10	9.838236e+00	2.294767e+01
2.160000e-06	1.459007e-06	3.432542e-10	1.015284e+01	2.397623e+01
2.170000e-06	1.504095e-06	3.601113e-10	1.046659e+01	2.499348e+01
2.180000e-06	1.548983e-06	3.760049e-10	1.077895e+01	2.599878e+01
2.190000e-06	1.593667e-06	3.877346e-10	1.108990e+01	2.699156e+01
2.200000e-06	1.638224e-06	3.978261e-10	1.139996e+01	2.797127e+01
2.210000e-06	1.682674e-06	4.099088e-10	1.170927e+01	2.893740e+01
2.220000e-06	1.726972e-06	4.214301e-10	1.201753e+01	2.988947e+01
2.230000e-06	1.771203e-06	4.353726e-10	1.232533e+01	3.082706e+01
2.240000e-06	1.815336e-06	4.504590e-10	1.263243e+01	3.174977e+01
2.250000e-06	1.859347e-06	4.645794e-10	1.293870e+01	3.265723e+01
2.260000e-06	1.903292e-06	4.763046e-10	1.324450e+01	3.354915e+01
2.270000e-06	1.947162e-06	4.896267e-10	1.354978e+01	3.442523e+01
2.280000e-06	1.990975e-06	5.034555e-10	1.385466e+01	3.528524e+01
2.290000e-06	2.034789e-06	5.153226e-10	1.415955e+01	3.612897e+01
2.300000e-06	2.078597e-06	5.251308e-10	1.446439e+01	3.695626e+01
2.310000e-06	2.122313e-06	5.334711e-10	1.476861e+01	3.776698e+01
2.320000e-06	2.165928e-06	5.449501e-10	1.507211e+01	3.856104e+01
2.330000e-06	2.209442e-06	5.583241e-10	1.537491e+01	3.933836e+01
2.340000e-06	2.252809e-06	5.715277e-10	1.567670e+01	4.009892e+01
2.350000e-06	2.295984e-06	5.863398e-10	1.597714e+01	4.084272e+01
2.360000e-06	2.338879e-06	6.038594e-10	1.627563e+01	4.156980e+01
2.370000e-06	2.381407e-06	6.173903e-10	1.657157e+01	4.228020e+01
2.380000e-06	2.423662e-06	6.258754e-10	1.686561e+01	4.297402e+01
2.390000e-06	2.465661e-06	6.324518e-10	1.715787e+01	4.365137e+01
2.400000e-06	2.507263e-06	6.385930e-10	1.744737e+01	4.431237e+01
2.410000e-06	2.548613e-06	6.451713e-10	1.773512e+01	4.495718e+01
2.420000e-06	2.589714e-06	6.541921e-10	1.802113e+01	4.558597e+01
2.430000e-06	2.630459e-06	6.652949e-10	1.830466e+01	4.619894e+01
2.440000e-06	2.670895e-06	6.765595e-10	1.858604e+01	4.679629e+01
2.450000e-06	2.711172e-06	6.850325e-10	1.886632e+01	4.737824e+01
2.460000e-06	2.751329e-06	6.933001e-10	1.914576e+01	4.794503e+01
2.470000e-06	2.791333e-06	7.020482e-10	1.942413e+01	4.849690e+01
2.480000e-06	2.831273e-06	7.103940e-10	1.970207e+01	4.903411e+01
2.490000e-06	2.871114e-06	7.182594e-10	1.997931e+01	4.955692e+01
2.500000e-06	2.910815e-06	7.238263e-10	2.025558e+01	5.006560e+01
2.510000e-06	2.950309e-06	7.287828e-10	2.053041e+01	5.056043e+01
2.520000e-06	2.989659e-06	7.350216e-10	2.080424e+01	5.104169e+01
2.530000e-06	3.028852e-06	7.412571e-10	2.107697e+01	5.150965e+01
2.540000e-06	3.067781e-06	7.478807e-10	2.134786e+01	5.196462e+01
2.550000e-06	3.106444e-06	7.542999e-10	2.161691e+01	5.240686e+01
2.560000e-06	3.144818e-06	7.606745e-10	2.188394e+01	5.283667e+01
2.570000e-06	3.183000e-06	7.678953e-10	2.214964e+01	5.325433e+01
2.580000e-06	3.221014e-06	7.738461e-10	2.241417e+01	5.366013e+01
2.590000e-06	3.258803e-06	7.784120e-10	2.267713e+01	5.405435e+01
2.600000e-06	3.296430e-06	7.826701e-10	2.293897e+01	5.443727e+01
2.610000e-06	3.333856e-06	7.861102e-10	2.319941e+01	5.480915e+01
2.620000e-06	3.370952e-06	7.886092e-10	2.345755e+01	5.517029e+01
2.630000e-06	3.407722e-06	7.909546e-10	2.371342e+01	5.552094e+01
2.640000e-06	3.444243e-06	7.954616e-10	2.396756e+01	5.586137e+01
2.650000e-06	3.480526e-06	8.039031e-10	2.422004e+01	5.619184e+01
2.660000e-06	3.516651e-06	8.123856e-10	2.447143e+01	5.651260e+01
2.670000e-06	3.552646e-06	8.173268e-10	2.472191e+01	5.682391e+01
2.680000e-06	3.588519e-06	8.194219e-10	2.497154e+01	5.712601e+01
2.690000e-06	3.624299e-06	8.229828e-10	2.522052e+01	5.741915e+01
2.700000e-06	3.659892e-06	8.282282e-10	2.546820e+01	5.770355e+01
2.710000e-06	3.695213e-06	8.334324e-10	2.571399e+01	5.797947e+01
2.720000e-06	3.730256e-06	8.371693e-10	2.595785e+01	5.824711e+01
2.730000e-06	3.764942e-06	8.396007e-10	2.619922e+01	5.850671e+01
2.740000e-06	3.799162e-06	8.425661e-10	2.643735e+01	5.875849e+01
2.750000e-06	3.832947e-06	8.459728e-10	2.667245e+01	5.900265e+01
2.760000e-06	3.866310e-06	8.498978e-10	2.690461e+01	5.923941e+01
2.770000e-06	3.899251e-06	8.542137e-10	2.713384e+01	5.946898e+01
2.780000e-06	3.931834e-06	8.594631e-10	2.736057e+01	5.969155e+01
2.790000e-06	3.964148e-06	8.649651e-10	2.758544e+01	5.990733e+01
2.800000e-06	3.996238e-06	8.693004e-10	2.780875e+01	6.011650e+01
2.810000e-06	4.028149e-06	8.721471e-10	2.803081e+01	6.031925e+01
2.820000e-06	4.059877e-06	8.733833e-10	2.825159e+01	6.051577e+01
2.830000e-06	4.091286e-06	8.752311e-10	2.847016e+01	6.070624e+01
2.840000e-06	4.122425e-06	8.792534e-10	2.868685e+01	6.089082e+01
2.850000e-06	4.153344e-06	8.867655e-10	2.890200e+01	6.106968e+01
2.860000e-06	4.183937e-06	8.946366e-10	2.911489e+01	6.124299e+01
2.870000e-06	4.214231e-06	8.993404e-10	2.932570e+01	6.141091e+01
2.880000e-06	4.244306e-06	9.016818e-10	2.953499e+01	6.157359e+01
2.890000e-06	4.274173e-06	9.038160e-10	2.974282e+01	6.173117e+01
2.900000e-06	4.303736e-06	9.062505e-10	2.994854e+01	6.188379e+01
