# Temperatura_=_12.7
# Concentracion g/m^3_=_1620.0
# C_Vs_to_Am_M_A/Vsm_=_65563218390.804596
# pendiente_HvsI_1/m_=_3716.3
# ordenada_HvsI_A/m_=_1297.0
# frecuencia_Hz_=_135092.67455660948

Tiempo_(s)	Campo_(V.s)	Magnetizacion_(V.s)	Campo_(kA/m)	Magnetizacion_(A/m)
0.000000e+00	-5.515295e-06	-1.601837e-09	-3.837296e+01	-1.049573e+02
1.000000e-08	-5.515475e-06	-1.597013e-09	-3.837421e+01	-1.049456e+02
2.000000e-08	-5.515302e-06	-1.593885e-09	-3.837301e+01	-1.049306e+02
3.000000e-08	-5.514701e-06	-1.590049e-09	-3.836883e+01	-1.049120e+02
4.000000e-08	-5.513623e-06	-1.582243e-09	-3.836133e+01	-1.048898e+02
5.000000e-08	-5.511977e-06	-1.567774e-09	-3.834988e+01	-1.048639e+02
6.000000e-08	-5.509786e-06	-1.563391e-09	-3.833463e+01	-1.048340e+02
7.000000e-08	-5.507035e-06	-1.604841e-09	-3.831549e+01	-1.048002e+02
8.000000e-08	-5.503766e-06	-1.636911e-09	-3.829274e+01	-1.047623e+02
9.000000e-08	-5.500108e-06	-1.620971e-09	-3.826729e+01	-1.047201e+02
1.000000e-07	-5.496035e-06	-1.597543e-09	-3.823895e+01	-1.046735e+02
1.100000e-07	-5.491623e-06	-1.612216e-09	-3.820826e+01	-1.046225e+02
1.200000e-07	-5.486950e-06	-1.535603e-09	-3.817575e+01	-1.045669e+02
1.300000e-07	-5.482011e-06	-1.541311e-09	-3.814138e+01	-1.045066e+02
1.400000e-07	-5.476792e-06	-1.545544e-09	-3.810507e+01	-1.044415e+02
1.500000e-07	-5.471188e-06	-1.606549e-09	-3.806608e+01	-1.043716e+02
1.600000e-07	-5.465150e-06	-1.555846e-09	-3.802408e+01	-1.042968e+02
1.700000e-07	-5.458756e-06	-1.547571e-09	-3.797959e+01	-1.042170e+02
1.800000e-07	-5.451954e-06	-1.592419e-09	-3.793226e+01	-1.041322e+02
1.900000e-07	-5.444755e-06	-1.602583e-09	-3.788218e+01	-1.040423e+02
2.000000e-07	-5.437233e-06	-1.544977e-09	-3.782984e+01	-1.039473e+02
2.100000e-07	-5.429457e-06	-1.522792e-09	-3.777574e+01	-1.038471e+02
2.200000e-07	-5.421506e-06	-1.583588e-09	-3.772042e+01	-1.037417e+02
2.300000e-07	-5.413183e-06	-1.606157e-09	-3.766251e+01	-1.036310e+02
2.400000e-07	-5.404296e-06	-1.590450e-09	-3.760068e+01	-1.035152e+02
2.500000e-07	-5.394881e-06	-1.539313e-09	-3.753517e+01	-1.033941e+02
2.600000e-07	-5.384697e-06	-1.566351e-09	-3.746431e+01	-1.032678e+02
2.700000e-07	-5.373754e-06	-1.540378e-09	-3.738818e+01	-1.031363e+02
2.800000e-07	-5.362448e-06	-1.559777e-09	-3.730951e+01	-1.029995e+02
2.900000e-07	-5.350814e-06	-1.552854e-09	-3.722857e+01	-1.028574e+02
3.000000e-07	-5.338883e-06	-1.573754e-09	-3.714556e+01	-1.027101e+02
3.100000e-07	-5.326564e-06	-1.542895e-09	-3.705985e+01	-1.025576e+02
3.200000e-07	-5.313742e-06	-1.571434e-09	-3.697064e+01	-1.023998e+02
3.300000e-07	-5.300512e-06	-1.538103e-09	-3.687860e+01	-1.022368e+02
3.400000e-07	-5.286869e-06	-1.536214e-09	-3.678367e+01	-1.020685e+02
3.500000e-07	-5.272897e-06	-1.543362e-09	-3.668646e+01	-1.018951e+02
3.600000e-07	-5.258511e-06	-1.562793e-09	-3.658637e+01	-1.017163e+02
3.700000e-07	-5.243519e-06	-1.509385e-09	-3.648206e+01	-1.015323e+02
3.800000e-07	-5.227964e-06	-1.541238e-09	-3.637384e+01	-1.013431e+02
3.900000e-07	-5.211933e-06	-1.572058e-09	-3.626230e+01	-1.011485e+02
4.000000e-07	-5.195473e-06	-1.519195e-09	-3.614778e+01	-1.009487e+02
4.100000e-07	-5.178807e-06	-1.494281e-09	-3.603183e+01	-1.007435e+02
4.200000e-07	-5.161899e-06	-1.562957e-09	-3.591419e+01	-1.005330e+02
4.300000e-07	-5.144604e-06	-1.537238e-09	-3.579386e+01	-1.003172e+02
4.400000e-07	-5.126956e-06	-1.457748e-09	-3.567107e+01	-1.000959e+02
4.500000e-07	-5.108896e-06	-1.527218e-09	-3.554542e+01	-9.986916e+01
4.600000e-07	-5.090368e-06	-1.545954e-09	-3.541650e+01	-9.963698e+01
4.700000e-07	-5.071339e-06	-1.453229e-09	-3.528411e+01	-9.939931e+01
4.800000e-07	-5.051982e-06	-1.463080e-09	-3.514943e+01	-9.915610e+01
4.900000e-07	-5.032478e-06	-1.557855e-09	-3.501373e+01	-9.890734e+01
5.000000e-07	-5.012815e-06	-1.478600e-09	-3.487693e+01	-9.865298e+01
5.100000e-07	-4.992879e-06	-1.444813e-09	-3.473822e+01	-9.839301e+01
5.200000e-07	-4.972676e-06	-1.523809e-09	-3.459766e+01	-9.812739e+01
5.300000e-07	-4.952102e-06	-1.504628e-09	-3.445452e+01	-9.785612e+01
5.400000e-07	-4.931085e-06	-1.414541e-09	-3.430829e+01	-9.757917e+01
5.500000e-07	-4.909762e-06	-1.484602e-09	-3.415993e+01	-9.729654e+01
5.600000e-07	-4.888167e-06	-1.490199e-09	-3.400968e+01	-9.700822e+01
5.700000e-07	-4.866247e-06	-1.413026e-09	-3.385717e+01	-9.671423e+01
5.800000e-07	-4.843843e-06	-1.442930e-09	-3.370129e+01	-9.641457e+01
5.900000e-07	-4.821070e-06	-1.510782e-09	-3.354285e+01	-9.610927e+01
6.000000e-07	-4.798055e-06	-1.437012e-09	-3.338272e+01	-9.579836e+01
6.100000e-07	-4.774754e-06	-1.425803e-09	-3.322061e+01	-9.548188e+01
6.200000e-07	-4.751237e-06	-1.469241e-09	-3.305698e+01	-9.515989e+01
6.300000e-07	-4.727524e-06	-1.427467e-09	-3.289200e+01	-9.483243e+01
6.400000e-07	-4.703545e-06	-1.383040e-09	-3.272516e+01	-9.449957e+01
6.500000e-07	-4.679143e-06	-1.433342e-09	-3.255539e+01	-9.416140e+01
6.600000e-07	-4.654269e-06	-1.425784e-09	-3.238233e+01	-9.381800e+01
6.700000e-07	-4.628766e-06	-1.394206e-09	-3.220489e+01	-9.346946e+01
6.800000e-07	-4.602642e-06	-1.422249e-09	-3.202312e+01	-9.311588e+01
6.900000e-07	-4.576075e-06	-1.426754e-09	-3.183829e+01	-9.275738e+01
7.000000e-07	-4.549113e-06	-1.386317e-09	-3.165069e+01	-9.239405e+01
7.100000e-07	-4.521863e-06	-1.387986e-09	-3.146110e+01	-9.202603e+01
7.200000e-07	-4.494411e-06	-1.396157e-09	-3.127010e+01	-9.165343e+01
7.300000e-07	-4.466788e-06	-1.365593e-09	-3.107792e+01	-9.127638e+01
7.400000e-07	-4.439033e-06	-1.362307e-09	-3.088481e+01	-9.089499e+01
7.500000e-07	-4.411069e-06	-1.375339e-09	-3.069025e+01	-9.050940e+01
7.600000e-07	-4.382799e-06	-1.361465e-09	-3.049356e+01	-9.011972e+01
7.700000e-07	-4.354179e-06	-1.346564e-09	-3.029443e+01	-8.972608e+01
7.800000e-07	-4.325220e-06	-1.357247e-09	-3.009295e+01	-8.932858e+01
7.900000e-07	-4.295928e-06	-1.343330e-09	-2.988915e+01	-8.892733e+01
8.000000e-07	-4.266290e-06	-1.331363e-09	-2.968294e+01	-8.852244e+01
8.100000e-07	-4.236403e-06	-1.331058e-09	-2.947500e+01	-8.811399e+01
8.200000e-07	-4.206195e-06	-1.329696e-09	-2.926483e+01	-8.770207e+01
8.300000e-07	-4.175699e-06	-1.305536e-09	-2.905265e+01	-8.728673e+01
8.400000e-07	-4.144935e-06	-1.302993e-09	-2.883860e+01	-8.686804e+01
8.500000e-07	-4.113788e-06	-1.294660e-09	-2.862190e+01	-8.644604e+01
8.600000e-07	-4.082440e-06	-1.279098e-09	-2.840379e+01	-8.602076e+01
8.700000e-07	-4.051006e-06	-1.268855e-09	-2.818509e+01	-8.559219e+01
8.800000e-07	-4.019395e-06	-1.278405e-09	-2.796515e+01	-8.516035e+01
8.900000e-07	-3.987599e-06	-1.269838e-09	-2.774394e+01	-8.472520e+01
9.000000e-07	-3.955581e-06	-1.261090e-09	-2.752116e+01	-8.428671e+01
9.100000e-07	-3.923184e-06	-1.257993e-09	-2.729576e+01	-8.384483e+01
9.200000e-07	-3.890413e-06	-1.248322e-09	-2.706776e+01	-8.339947e+01
9.300000e-07	-3.857238e-06	-1.226338e-09	-2.683694e+01	-8.295056e+01
9.400000e-07	-3.823609e-06	-1.223355e-09	-2.660296e+01	-8.249799e+01
9.500000e-07	-3.789553e-06	-1.220604e-09	-2.636602e+01	-8.204164e+01
9.600000e-07	-3.755117e-06	-1.205138e-09	-2.612643e+01	-8.158137e+01
9.700000e-07	-3.720247e-06	-1.195474e-09	-2.588382e+01	-8.111704e+01
9.800000e-07	-3.684996e-06	-1.198746e-09	-2.563855e+01	-8.064850e+01
9.900000e-07	-3.649524e-06	-1.193341e-09	-2.539176e+01	-8.017557e+01
1.000000e-06	-3.613934e-06	-1.183911e-09	-2.514414e+01	-7.969808e+01
1.010000e-06	-3.578266e-06	-1.181214e-09	-2.489598e+01	-7.921584e+01
1.020000e-06	-3.542455e-06	-1.173013e-09	-2.464682e+01	-7.872867e+01
1.030000e-06	-3.506486e-06	-1.156756e-09	-2.439656e+01	-7.823637e+01
1.040000e-06	-3.470194e-06	-1.144429e-09	-2.414406e+01	-7.773875e+01
1.050000e-06	-3.433541e-06	-1.138187e-09	-2.388905e+01	-7.723562e+01
1.060000e-06	-3.396613e-06	-1.124801e-09	-2.363212e+01	-7.672678e+01
1.070000e-06	-3.359494e-06	-1.118937e-09	-2.337386e+01	-7.621206e+01
1.080000e-06	-3.322161e-06	-1.115639e-09	-2.311411e+01	-7.569126e+01
1.090000e-06	-3.284566e-06	-1.109642e-09	-2.285255e+01	-7.516422e+01
1.100000e-06	-3.246734e-06	-1.097215e-09	-2.258933e+01	-7.463077e+01
1.110000e-06	-3.208671e-06	-1.090569e-09	-2.232450e+01	-7.409077e+01
1.120000e-06	-3.170451e-06	-1.079988e-09	-2.205858e+01	-7.354407e+01
1.130000e-06	-3.132044e-06	-1.069941e-09	-2.179136e+01	-7.299056e+01
1.140000e-06	-3.093363e-06	-1.060564e-09	-2.152224e+01	-7.243013e+01
1.150000e-06	-3.054454e-06	-1.051766e-09	-2.125152e+01	-7.186268e+01
1.160000e-06	-3.015389e-06	-1.036024e-09	-2.097973e+01	-7.128813e+01
1.170000e-06	-2.976113e-06	-1.026025e-09	-2.070646e+01	-7.070644e+01
1.180000e-06	-2.936662e-06	-1.019078e-09	-2.043198e+01	-7.011756e+01
1.190000e-06	-2.897142e-06	-1.014662e-09	-2.015702e+01	-6.952146e+01
1.200000e-06	-2.857576e-06	-1.006912e-09	-1.988174e+01	-6.891814e+01
1.210000e-06	-2.817865e-06	-1.001627e-09	-1.960544e+01	-6.830762e+01
1.220000e-06	-2.777985e-06	-9.919716e-10	-1.932798e+01	-6.768991e+01
1.230000e-06	-2.737909e-06	-9.787992e-10	-1.904915e+01	-6.706505e+01
1.240000e-06	-2.697539e-06	-9.653289e-10	-1.876827e+01	-6.643311e+01
1.250000e-06	-2.656914e-06	-9.526923e-10	-1.848562e+01	-6.579414e+01
1.260000e-06	-2.616049e-06	-9.387697e-10	-1.820130e+01	-6.514821e+01
1.270000e-06	-2.574842e-06	-9.257204e-10	-1.791460e+01	-6.449541e+01
1.280000e-06	-2.533403e-06	-9.189438e-10	-1.762628e+01	-6.383582e+01
1.290000e-06	-2.491780e-06	-9.159488e-10	-1.733669e+01	-6.316953e+01
1.300000e-06	-2.449791e-06	-9.099148e-10	-1.704455e+01	-6.249663e+01
1.310000e-06	-2.407347e-06	-9.006313e-10	-1.674925e+01	-6.181720e+01
1.320000e-06	-2.364679e-06	-8.884176e-10	-1.645238e+01	-6.113131e+01
1.330000e-06	-2.321883e-06	-8.734755e-10	-1.615462e+01	-6.043904e+01
1.340000e-06	-2.278880e-06	-8.589275e-10	-1.585543e+01	-5.974045e+01
1.350000e-06	-2.235708e-06	-8.449509e-10	-1.555505e+01	-5.903558e+01
1.360000e-06	-2.192289e-06	-8.335603e-10	-1.525296e+01	-5.832445e+01
1.370000e-06	-2.148752e-06	-8.256258e-10	-1.495006e+01	-5.760706e+01
1.380000e-06	-2.105205e-06	-8.228969e-10	-1.464708e+01	-5.688341e+01
1.390000e-06	-2.061619e-06	-8.165164e-10	-1.434382e+01	-5.615344e+01
1.400000e-06	-2.017993e-06	-8.045696e-10	-1.404030e+01	-5.541709e+01
1.410000e-06	-1.974259e-06	-7.880295e-10	-1.373601e+01	-5.467426e+01
1.420000e-06	-1.930448e-06	-7.733180e-10	-1.343119e+01	-5.392481e+01
1.430000e-06	-1.886537e-06	-7.590665e-10	-1.312568e+01	-5.316857e+01
1.440000e-06	-1.842410e-06	-7.480504e-10	-1.281866e+01	-5.240536e+01
1.450000e-06	-1.798158e-06	-7.380056e-10	-1.251078e+01	-5.163492e+01
1.460000e-06	-1.753878e-06	-7.279486e-10	-1.220270e+01	-5.085700e+01
1.470000e-06	-1.709464e-06	-7.144602e-10	-1.189369e+01	-5.007128e+01
1.480000e-06	-1.664854e-06	-7.011634e-10	-1.158331e+01	-4.927742e+01
1.490000e-06	-1.620065e-06	-6.883705e-10	-1.127169e+01	-4.847506e+01
1.500000e-06	-1.575161e-06	-6.770485e-10	-1.095927e+01	-4.766377e+01
1.510000e-06	-1.530195e-06	-6.663893e-10	-1.064641e+01	-4.684311e+01
1.520000e-06	-1.485127e-06	-6.559186e-10	-1.033285e+01	-4.601261e+01
1.530000e-06	-1.439882e-06	-6.426041e-10	-1.001805e+01	-4.517178e+01
1.540000e-06	-1.394582e-06	-6.267395e-10	-9.702876e+00	-4.432008e+01
1.550000e-06	-1.349290e-06	-6.075324e-10	-9.387754e+00	-4.345697e+01
1.560000e-06	-1.303828e-06	-5.907292e-10	-9.071455e+00	-4.258189e+01
1.570000e-06	-1.258275e-06	-5.762957e-10	-8.754513e+00	-4.169425e+01
1.580000e-06	-1.212596e-06	-5.662711e-10	-8.436701e+00	-4.079346e+01
1.590000e-06	-1.166821e-06	-5.590325e-10	-8.118216e+00	-3.987894e+01
1.600000e-06	-1.121061e-06	-5.499092e-10	-7.799842e+00	-3.895007e+01
1.610000e-06	-1.075257e-06	-5.363738e-10	-7.481161e+00	-3.800627e+01
1.620000e-06	-1.029311e-06	-5.194273e-10	-7.161487e+00	-3.704696e+01
1.630000e-06	-9.833007e-07	-5.023099e-10	-6.841367e+00	-3.607155e+01
1.640000e-06	-9.372336e-07	-4.863158e-10	-6.520853e+00	-3.507951e+01
1.650000e-06	-8.910299e-07	-4.708227e-10	-6.199388e+00	-3.407031e+01
1.660000e-06	-8.447670e-07	-4.543887e-10	-5.877511e+00	-3.304344e+01
1.670000e-06	-7.983870e-07	-4.376027e-10	-5.554820e+00	-3.199846e+01
1.680000e-06	-7.519700e-07	-4.206796e-10	-5.231872e+00	-3.093493e+01
1.690000e-06	-7.055361e-07	-4.080953e-10	-4.908805e+00	-2.985249e+01
1.700000e-06	-6.589983e-07	-3.951762e-10	-4.585016e+00	-2.875080e+01
1.710000e-06	-6.124685e-07	-3.811974e-10	-4.261282e+00	-2.762960e+01
1.720000e-06	-5.659265e-07	-3.615279e-10	-3.937464e+00	-2.648868e+01
1.730000e-06	-5.192791e-07	-3.380649e-10	-3.612912e+00	-2.532789e+01
1.740000e-06	-4.726010e-07	-3.154935e-10	-3.288146e+00	-2.414714e+01
1.750000e-06	-4.258556e-07	-2.965921e-10	-2.962913e+00	-2.294643e+01
1.760000e-06	-3.790360e-07	-2.799279e-10	-2.637163e+00	-2.172581e+01
1.770000e-06	-3.323200e-07	-2.644024e-10	-2.312134e+00	-2.048542e+01
1.780000e-06	-2.855924e-07	-2.469395e-10	-1.987025e+00	-1.922546e+01
1.790000e-06	-2.388851e-07	-2.297014e-10	-1.662056e+00	-1.794624e+01
1.800000e-06	-1.920928e-07	-2.123158e-10	-1.336496e+00	-1.664809e+01
1.810000e-06	-1.452008e-07	-1.948955e-10	-1.010243e+00	-1.533148e+01
1.820000e-06	-9.847047e-08	-1.782368e-10	-6.851136e-01	-1.399693e+01
1.830000e-06	-5.169061e-08	-1.626828e-10	-3.596402e-01	-1.264501e+01
1.840000e-06	-4.875669e-09	-1.453179e-10	-3.392272e-02	-1.127642e+01
1.850000e-06	4.190785e-08	-1.256455e-10	2.915761e-01	-9.891885e+00
1.860000e-06	8.873740e-08	-1.066815e-10	6.173952e-01	-8.492225e+00
1.870000e-06	1.355806e-07	-8.596240e-11	9.433092e-01	-7.078318e+00
1.880000e-06	1.824424e-07	-6.377320e-11	1.269353e+00	-5.651107e+00
1.890000e-06	2.292974e-07	-4.238169e-11	1.595349e+00	-4.211594e+00
1.900000e-06	2.760611e-07	-2.354936e-11	1.920710e+00	-2.760835e+00
1.910000e-06	3.228005e-07	-4.750535e-12	2.245901e+00	-1.299934e+00
1.920000e-06	3.695164e-07	1.505150e-11	2.570930e+00	1.699580e-01
1.930000e-06	4.162224e-07	3.453654e-11	2.895890e+00	1.647654e+00
1.940000e-06	4.628508e-07	5.536532e-11	3.220309e+00	3.131934e+00
1.950000e-06	5.093587e-07	7.695719e-11	3.543890e+00	4.621549e+00
1.960000e-06	5.558752e-07	9.906435e-11	3.867531e+00	6.115232e+00
1.970000e-06	6.024073e-07	1.211482e-10	4.191281e+00	7.611702e+00
1.980000e-06	6.488656e-07	1.416599e-10	4.514517e+00	9.109669e+00
1.990000e-06	6.952916e-07	1.627106e-10	4.837528e+00	1.060784e+01
2.000000e-06	7.416291e-07	1.799295e-10	5.159924e+00	1.210494e+01
2.010000e-06	7.878413e-07	1.981344e-10	5.481448e+00	1.359968e+01
2.020000e-06	8.340947e-07	2.191116e-10	5.803258e+00	1.509080e+01
2.030000e-06	8.802807e-07	2.415507e-10	6.124600e+00	1.657709e+01
2.040000e-06	9.263702e-07	2.642650e-10	6.445270e+00	1.805733e+01
2.050000e-06	9.723224e-07	2.870411e-10	6.764985e+00	1.953034e+01
2.060000e-06	1.018192e-06	3.081989e-10	7.084127e+00	2.099501e+01
2.070000e-06	1.064121e-06	3.286692e-10	7.403680e+00	2.245024e+01
2.080000e-06	1.110049e-06	3.496476e-10	7.723228e+00	2.389500e+01
2.090000e-06	1.155837e-06	3.698519e-10	8.041794e+00	2.532829e+01
2.100000e-06	1.201470e-06	3.902160e-10	8.359292e+00	2.674920e+01
2.110000e-06	1.247065e-06	4.081863e-10	8.676520e+00	2.815685e+01
2.120000e-06	1.292635e-06	4.252988e-10	8.993576e+00	2.955042e+01
2.130000e-06	1.338093e-06	4.445960e-10	9.309854e+00	3.092918e+01
2.140000e-06	1.383384e-06	4.671414e-10	9.624970e+00	3.229244e+01
2.150000e-06	1.428617e-06	4.918283e-10	9.939681e+00	3.363959e+01
2.160000e-06	1.473749e-06	5.157249e-10	1.025369e+01	3.497006e+01
2.170000e-06	1.518652e-06	5.380805e-10	1.056610e+01	3.628339e+01
2.180000e-06	1.563380e-06	5.611447e-10	1.087730e+01	3.757915e+01
2.190000e-06	1.607943e-06	5.796543e-10	1.118735e+01	3.885699e+01
2.200000e-06	1.652453e-06	5.941755e-10	1.149703e+01	4.011661e+01
2.210000e-06	1.696927e-06	6.080214e-10	1.180646e+01	4.135780e+01
2.220000e-06	1.741283e-06	6.234795e-10	1.211507e+01	4.258037e+01
2.230000e-06	1.785557e-06	6.404923e-10	1.242311e+01	4.378422e+01
2.240000e-06	1.829703e-06	6.573592e-10	1.273026e+01	4.496928e+01
2.250000e-06	1.873707e-06	6.771765e-10	1.303642e+01	4.613556e+01
2.260000e-06	1.917545e-06	6.946996e-10	1.334142e+01	4.728307e+01
2.270000e-06	1.961270e-06	7.123645e-10	1.364564e+01	4.841192e+01
2.280000e-06	2.004959e-06	7.287053e-10	1.394961e+01	4.952221e+01
2.290000e-06	2.048591e-06	7.437783e-10	1.425318e+01	5.061412e+01
2.300000e-06	2.092176e-06	7.579396e-10	1.455642e+01	5.168781e+01
2.310000e-06	2.135727e-06	7.697756e-10	1.485944e+01	5.274353e+01
2.320000e-06	2.179219e-06	7.831111e-10	1.516203e+01	5.378150e+01
2.330000e-06	2.222592e-06	7.966844e-10	1.546380e+01	5.480198e+01
2.340000e-06	2.265838e-06	8.123847e-10	1.576469e+01	5.580526e+01
2.350000e-06	2.308948e-06	8.321524e-10	1.606463e+01	5.679163e+01
2.360000e-06	2.351810e-06	8.530636e-10	1.636284e+01	5.776138e+01
2.370000e-06	2.394336e-06	8.678413e-10	1.665872e+01	5.871481e+01
2.380000e-06	2.436547e-06	8.789126e-10	1.695240e+01	5.965224e+01
2.390000e-06	2.478444e-06	8.893653e-10	1.724390e+01	6.057396e+01
2.400000e-06	2.520048e-06	8.979048e-10	1.753337e+01	6.148029e+01
2.410000e-06	2.561303e-06	9.073946e-10	1.782040e+01	6.237151e+01
2.420000e-06	2.602217e-06	9.206531e-10	1.810506e+01	6.324791e+01
2.430000e-06	2.642949e-06	9.366424e-10	1.838846e+01	6.410977e+01
2.440000e-06	2.683497e-06	9.528104e-10	1.867057e+01	6.495737e+01
2.450000e-06	2.723870e-06	9.648911e-10	1.895147e+01	6.579094e+01
2.460000e-06	2.764020e-06	9.760593e-10	1.923081e+01	6.661074e+01
2.470000e-06	2.803931e-06	9.870938e-10	1.950850e+01	6.741698e+01
2.480000e-06	2.843728e-06	9.994240e-10	1.978539e+01	6.820990e+01
2.490000e-06	2.883393e-06	1.012305e-09	2.006136e+01	6.898967e+01
2.500000e-06	2.922847e-06	1.024242e-09	2.033586e+01	6.975650e+01
2.510000e-06	2.962182e-06	1.037006e-09	2.060954e+01	7.051054e+01
2.520000e-06	3.001460e-06	1.047750e-09	2.088282e+01	7.125197e+01
2.530000e-06	3.040543e-06	1.054705e-09	2.115474e+01	7.198093e+01
2.540000e-06	3.079319e-06	1.062022e-09	2.142452e+01	7.269756e+01
2.550000e-06	3.117843e-06	1.072869e-09	2.169256e+01	7.340200e+01
2.560000e-06	3.156181e-06	1.085243e-09	2.195930e+01	7.409436e+01
2.570000e-06	3.194277e-06	1.097734e-09	2.222435e+01	7.477476e+01
2.580000e-06	3.232195e-06	1.109392e-09	2.248817e+01	7.544332e+01
2.590000e-06	3.269988e-06	1.118426e-09	2.275111e+01	7.610016e+01
2.600000e-06	3.307510e-06	1.125808e-09	2.301218e+01	7.674537e+01
2.610000e-06	3.344751e-06	1.131325e-09	2.327128e+01	7.737909e+01
2.620000e-06	3.381790e-06	1.135413e-09	2.352899e+01	7.800142e+01
2.630000e-06	3.418555e-06	1.141950e-09	2.378478e+01	7.861249e+01
2.640000e-06	3.454992e-06	1.150808e-09	2.403829e+01	7.921242e+01
2.650000e-06	3.491209e-06	1.163371e-09	2.429027e+01	7.980135e+01
2.660000e-06	3.527248e-06	1.176078e-09	2.454102e+01	8.037943e+01
2.670000e-06	3.563129e-06	1.186418e-09	2.479066e+01	8.094680e+01
2.680000e-06	3.598868e-06	1.195121e-09	2.503932e+01	8.150363e+01
2.690000e-06	3.634448e-06	1.200702e-09	2.528687e+01	8.205010e+01
2.700000e-06	3.669940e-06	1.203863e-09	2.553381e+01	8.258640e+01
2.710000e-06	3.705256e-06	1.207123e-09	2.577952e+01	8.311271e+01
2.720000e-06	3.740321e-06	1.212931e-09	2.602348e+01	8.362927e+01
2.730000e-06	3.775045e-06	1.221044e-09	2.626507e+01	8.413628e+01
2.740000e-06	3.809309e-06	1.230667e-09	2.650347e+01	8.463397e+01
2.750000e-06	3.843215e-06	1.240300e-09	2.673937e+01	8.512261e+01
2.760000e-06	3.876689e-06	1.248278e-09	2.697227e+01	8.560243e+01
2.770000e-06	3.909623e-06	1.257166e-09	2.720141e+01	8.607370e+01
2.780000e-06	3.942152e-06	1.265839e-09	2.742773e+01	8.653669e+01
2.790000e-06	3.974412e-06	1.273811e-09	2.765218e+01	8.699168e+01
2.800000e-06	4.006390e-06	1.279938e-09	2.787467e+01	8.743894e+01
2.810000e-06	4.038148e-06	1.284038e-09	2.809563e+01	8.787875e+01
2.820000e-06	4.069743e-06	1.289494e-09	2.831545e+01	8.831141e+01
2.830000e-06	4.101183e-06	1.296553e-09	2.853420e+01	8.873718e+01
2.840000e-06	4.132402e-06	1.306632e-09	2.875141e+01	8.915635e+01
2.850000e-06	4.163300e-06	1.319590e-09	2.896638e+01	8.956918e+01
2.860000e-06	4.193830e-06	1.330207e-09	2.917879e+01	8.997595e+01
2.870000e-06	4.224001e-06	1.337472e-09	2.938871e+01	9.037691e+01
2.880000e-06	4.253945e-06	1.342199e-09	2.959705e+01	9.077231e+01
2.890000e-06	4.283700e-06	1.345948e-09	2.980407e+01	9.116237e+01
2.900000e-06	4.313160e-06	1.349841e-09	3.000904e+01	9.154730e+01
