# Temperatura_=_-0.6
# Concentracion g/m^3_=_1620.0
# C_Vs_to_Am_M_A/Vsm_=_65563218390.804596
# pendiente_HvsI_1/m_=_3716.3
# ordenada_HvsI_A/m_=_1297.0
# frecuencia_Hz_=_135097.8327183129

Tiempo_(s)	Campo_(V.s)	Magnetizacion_(V.s)	Campo_(kA/m)	Magnetizacion_(A/m)
0.000000e+00	-5.497652e-06	-1.398975e-09	-3.837400e+01	-9.079611e+01
1.000000e-08	-5.497924e-06	-1.395260e-09	-3.837590e+01	-9.072922e+01
2.000000e-08	-5.497998e-06	-1.395371e-09	-3.837641e+01	-9.066049e+01
3.000000e-08	-5.497754e-06	-1.398465e-09	-3.837471e+01	-9.058987e+01
4.000000e-08	-5.497062e-06	-1.397785e-09	-3.836988e+01	-9.051732e+01
5.000000e-08	-5.495773e-06	-1.387449e-09	-3.836088e+01	-9.044282e+01
6.000000e-08	-5.493867e-06	-1.369420e-09	-3.834758e+01	-9.036632e+01
7.000000e-08	-5.491430e-06	-1.362044e-09	-3.833057e+01	-9.028778e+01
8.000000e-08	-5.488484e-06	-1.407897e-09	-3.831001e+01	-9.020719e+01
9.000000e-08	-5.485036e-06	-1.494936e-09	-3.828594e+01	-9.012452e+01
1.000000e-07	-5.481133e-06	-1.500984e-09	-3.825870e+01	-9.003975e+01
1.100000e-07	-5.476886e-06	-1.395262e-09	-3.822905e+01	-8.995286e+01
1.200000e-07	-5.472465e-06	-1.331785e-09	-3.819819e+01	-8.986385e+01
1.300000e-07	-5.467841e-06	-1.362736e-09	-3.816592e+01	-8.977271e+01
1.400000e-07	-5.462858e-06	-1.427387e-09	-3.813113e+01	-8.967946e+01
1.500000e-07	-5.457456e-06	-1.375685e-09	-3.809343e+01	-8.958410e+01
1.600000e-07	-5.451692e-06	-1.337151e-09	-3.805319e+01	-8.948665e+01
1.700000e-07	-5.445483e-06	-1.392284e-09	-3.800986e+01	-8.938714e+01
1.800000e-07	-5.438753e-06	-1.439494e-09	-3.796288e+01	-8.928560e+01
1.900000e-07	-5.431681e-06	-1.405186e-09	-3.791352e+01	-8.918206e+01
2.000000e-07	-5.424284e-06	-1.312074e-09	-3.786188e+01	-8.907657e+01
2.100000e-07	-5.416585e-06	-1.337404e-09	-3.780815e+01	-8.896917e+01
2.200000e-07	-5.408648e-06	-1.383458e-09	-3.775275e+01	-8.885990e+01
2.300000e-07	-5.400511e-06	-1.406459e-09	-3.769595e+01	-8.874882e+01
2.400000e-07	-5.392038e-06	-1.355573e-09	-3.763680e+01	-8.863598e+01
2.500000e-07	-5.382937e-06	-1.347381e-09	-3.757328e+01	-8.852142e+01
2.600000e-07	-5.373156e-06	-1.345789e-09	-3.750501e+01	-8.840519e+01
2.700000e-07	-5.362763e-06	-1.349854e-09	-3.743246e+01	-8.828735e+01
2.800000e-07	-5.351671e-06	-1.330995e-09	-3.735504e+01	-8.816793e+01
2.900000e-07	-5.340059e-06	-1.345426e-09	-3.727399e+01	-8.804697e+01
3.000000e-07	-5.328228e-06	-1.356738e-09	-3.719141e+01	-8.792450e+01
3.100000e-07	-5.316124e-06	-1.343342e-09	-3.710692e+01	-8.780055e+01
3.200000e-07	-5.303614e-06	-1.317630e-09	-3.701960e+01	-8.767512e+01
3.300000e-07	-5.290692e-06	-1.315131e-09	-3.692940e+01	-8.754822e+01
3.400000e-07	-5.277400e-06	-1.334798e-09	-3.683662e+01	-8.741986e+01
3.500000e-07	-5.263671e-06	-1.325104e-09	-3.674080e+01	-8.729000e+01
3.600000e-07	-5.249477e-06	-1.326986e-09	-3.664172e+01	-8.715862e+01
3.700000e-07	-5.234806e-06	-1.331682e-09	-3.653932e+01	-8.702567e+01
3.800000e-07	-5.219631e-06	-1.329913e-09	-3.643339e+01	-8.689111e+01
3.900000e-07	-5.203873e-06	-1.303609e-09	-3.632340e+01	-8.675485e+01
4.000000e-07	-5.187628e-06	-1.321005e-09	-3.621001e+01	-8.661680e+01
4.100000e-07	-5.171076e-06	-1.323912e-09	-3.609447e+01	-8.647688e+01
4.200000e-07	-5.154171e-06	-1.304160e-09	-3.597647e+01	-8.633497e+01
4.300000e-07	-5.137003e-06	-1.296195e-09	-3.585664e+01	-8.619093e+01
4.400000e-07	-5.119549e-06	-1.331124e-09	-3.573481e+01	-8.604462e+01
4.500000e-07	-5.101704e-06	-1.316804e-09	-3.561025e+01	-8.589590e+01
4.600000e-07	-5.083422e-06	-1.296463e-09	-3.548264e+01	-8.574460e+01
4.700000e-07	-5.064656e-06	-1.301598e-09	-3.535166e+01	-8.559053e+01
4.800000e-07	-5.045528e-06	-1.311412e-09	-3.521814e+01	-8.543352e+01
4.900000e-07	-5.026094e-06	-1.294397e-09	-3.508249e+01	-8.527336e+01
5.000000e-07	-5.006463e-06	-1.305901e-09	-3.494546e+01	-8.510986e+01
5.100000e-07	-4.986720e-06	-1.302214e-09	-3.480766e+01	-8.494280e+01
5.200000e-07	-4.966675e-06	-1.280783e-09	-3.466774e+01	-8.477198e+01
5.300000e-07	-4.946256e-06	-1.283055e-09	-3.452521e+01	-8.459718e+01
5.400000e-07	-4.925519e-06	-1.310008e-09	-3.438047e+01	-8.441819e+01
5.500000e-07	-4.904372e-06	-1.292429e-09	-3.423286e+01	-8.423479e+01
5.600000e-07	-4.882918e-06	-1.273998e-09	-3.408311e+01	-8.404678e+01
5.700000e-07	-4.861262e-06	-1.279880e-09	-3.393195e+01	-8.385395e+01
5.800000e-07	-4.839228e-06	-1.277892e-09	-3.377815e+01	-8.365611e+01
5.900000e-07	-4.816758e-06	-1.265774e-09	-3.362131e+01	-8.345308e+01
6.000000e-07	-4.793948e-06	-1.270912e-09	-3.346210e+01	-8.324466e+01
6.100000e-07	-4.770792e-06	-1.266732e-09	-3.330046e+01	-8.303070e+01
6.200000e-07	-4.747334e-06	-1.251195e-09	-3.313673e+01	-8.281106e+01
6.300000e-07	-4.723715e-06	-1.252666e-09	-3.297186e+01	-8.258558e+01
6.400000e-07	-4.699914e-06	-1.249861e-09	-3.280573e+01	-8.235417e+01
6.500000e-07	-4.675823e-06	-1.242809e-09	-3.263757e+01	-8.211670e+01
6.600000e-07	-4.651399e-06	-1.244596e-09	-3.246709e+01	-8.187312e+01
6.700000e-07	-4.626503e-06	-1.246900e-09	-3.229332e+01	-8.162334e+01
6.800000e-07	-4.601001e-06	-1.236503e-09	-3.211531e+01	-8.136734e+01
6.900000e-07	-4.574956e-06	-1.235622e-09	-3.193352e+01	-8.110508e+01
7.000000e-07	-4.548441e-06	-1.228796e-09	-3.174844e+01	-8.083658e+01
7.100000e-07	-4.521486e-06	-1.218044e-09	-3.156029e+01	-8.056184e+01
7.200000e-07	-4.494155e-06	-1.210799e-09	-3.136952e+01	-8.028092e+01
7.300000e-07	-4.466612e-06	-1.213851e-09	-3.117727e+01	-7.999386e+01
7.400000e-07	-4.438930e-06	-1.203019e-09	-3.098404e+01	-7.970075e+01
7.500000e-07	-4.411018e-06	-1.200818e-09	-3.078922e+01	-7.940169e+01
7.600000e-07	-4.382867e-06	-1.197776e-09	-3.059272e+01	-7.909679e+01
7.700000e-07	-4.354486e-06	-1.188291e-09	-3.039462e+01	-7.878618e+01
7.800000e-07	-4.325739e-06	-1.177253e-09	-3.019396e+01	-7.847001e+01
7.900000e-07	-4.296624e-06	-1.181392e-09	-2.999074e+01	-7.814843e+01
8.000000e-07	-4.267204e-06	-1.178106e-09	-2.978538e+01	-7.782162e+01
8.100000e-07	-4.237479e-06	-1.168372e-09	-2.957790e+01	-7.748974e+01
8.200000e-07	-4.207537e-06	-1.158414e-09	-2.936891e+01	-7.715299e+01
8.300000e-07	-4.177393e-06	-1.154492e-09	-2.915850e+01	-7.681156e+01
8.400000e-07	-4.146966e-06	-1.145549e-09	-2.894612e+01	-7.646563e+01
8.500000e-07	-4.116160e-06	-1.138674e-09	-2.873109e+01	-7.611541e+01
8.600000e-07	-4.085047e-06	-1.133011e-09	-2.851391e+01	-7.576107e+01
8.700000e-07	-4.053728e-06	-1.125715e-09	-2.829531e+01	-7.540282e+01
8.800000e-07	-4.022228e-06	-1.115584e-09	-2.807544e+01	-7.504083e+01
8.900000e-07	-3.990531e-06	-1.109832e-09	-2.785419e+01	-7.467528e+01
9.000000e-07	-3.958666e-06	-1.104160e-09	-2.763177e+01	-7.430633e+01
9.100000e-07	-3.926597e-06	-1.092100e-09	-2.740792e+01	-7.393414e+01
9.200000e-07	-3.894255e-06	-1.084006e-09	-2.718217e+01	-7.355885e+01
9.300000e-07	-3.861545e-06	-1.080356e-09	-2.695386e+01	-7.318059e+01
9.400000e-07	-3.828350e-06	-1.075636e-09	-2.672215e+01	-7.279946e+01
9.500000e-07	-3.794653e-06	-1.068746e-09	-2.648695e+01	-7.241556e+01
9.600000e-07	-3.760477e-06	-1.065015e-09	-2.624839e+01	-7.202896e+01
9.700000e-07	-3.725813e-06	-1.054884e-09	-2.600644e+01	-7.163973e+01
9.800000e-07	-3.690740e-06	-1.044191e-09	-2.576163e+01	-7.124789e+01
9.900000e-07	-3.655474e-06	-1.037512e-09	-2.551547e+01	-7.085346e+01
1.000000e-06	-3.620021e-06	-1.034629e-09	-2.526800e+01	-7.045645e+01
1.010000e-06	-3.584393e-06	-1.027576e-09	-2.501932e+01	-7.005683e+01
1.020000e-06	-3.548679e-06	-1.023368e-09	-2.477003e+01	-6.965455e+01
1.030000e-06	-3.512871e-06	-1.017520e-09	-2.452008e+01	-6.924956e+01
1.040000e-06	-3.476921e-06	-1.009069e-09	-2.426915e+01	-6.884178e+01
1.050000e-06	-3.440667e-06	-9.961247e-10	-2.401610e+01	-6.843111e+01
1.060000e-06	-3.404036e-06	-9.872827e-10	-2.376041e+01	-6.801743e+01
1.070000e-06	-3.367156e-06	-9.786032e-10	-2.350299e+01	-6.760063e+01
1.080000e-06	-3.330030e-06	-9.693929e-10	-2.324384e+01	-6.718056e+01
1.090000e-06	-3.292665e-06	-9.606036e-10	-2.298303e+01	-6.675707e+01
1.100000e-06	-3.255093e-06	-9.549743e-10	-2.272078e+01	-6.633000e+01
1.110000e-06	-3.217330e-06	-9.471065e-10	-2.245719e+01	-6.589918e+01
1.120000e-06	-3.179377e-06	-9.396659e-10	-2.219228e+01	-6.546442e+01
1.130000e-06	-3.141165e-06	-9.338159e-10	-2.192555e+01	-6.502556e+01
1.140000e-06	-3.102746e-06	-9.276496e-10	-2.165738e+01	-6.458240e+01
1.150000e-06	-3.064163e-06	-9.159565e-10	-2.138807e+01	-6.413476e+01
1.160000e-06	-3.025354e-06	-9.058148e-10	-2.111718e+01	-6.368245e+01
1.170000e-06	-2.986300e-06	-8.990077e-10	-2.084459e+01	-6.322530e+01
1.180000e-06	-2.947047e-06	-8.929364e-10	-2.057059e+01	-6.276312e+01
1.190000e-06	-2.907603e-06	-8.864987e-10	-2.029528e+01	-6.229573e+01
1.200000e-06	-2.868018e-06	-8.790993e-10	-2.001897e+01	-6.182298e+01
1.210000e-06	-2.828334e-06	-8.705908e-10	-1.974197e+01	-6.134470e+01
1.220000e-06	-2.788565e-06	-8.610055e-10	-1.946438e+01	-6.086074e+01
1.230000e-06	-2.748742e-06	-8.504119e-10	-1.918641e+01	-6.037095e+01
1.240000e-06	-2.708756e-06	-8.394389e-10	-1.890731e+01	-5.987522e+01
1.250000e-06	-2.668584e-06	-8.321307e-10	-1.862690e+01	-5.937340e+01
1.260000e-06	-2.628193e-06	-8.259720e-10	-1.834497e+01	-5.886540e+01
1.270000e-06	-2.587514e-06	-8.203773e-10	-1.806103e+01	-5.835110e+01
1.280000e-06	-2.546459e-06	-8.132567e-10	-1.777446e+01	-5.783041e+01
1.290000e-06	-2.505055e-06	-8.065060e-10	-1.748546e+01	-5.730325e+01
1.300000e-06	-2.463462e-06	-7.988188e-10	-1.719514e+01	-5.676954e+01
1.310000e-06	-2.421658e-06	-7.888122e-10	-1.690334e+01	-5.622921e+01
1.320000e-06	-2.379530e-06	-7.768299e-10	-1.660928e+01	-5.568219e+01
1.330000e-06	-2.337200e-06	-7.673894e-10	-1.631382e+01	-5.512841e+01
1.340000e-06	-2.294649e-06	-7.587598e-10	-1.601681e+01	-5.456782e+01
1.350000e-06	-2.251729e-06	-7.514172e-10	-1.571723e+01	-5.400034e+01
1.360000e-06	-2.208568e-06	-7.446873e-10	-1.541596e+01	-5.342593e+01
1.370000e-06	-2.165250e-06	-7.391032e-10	-1.511360e+01	-5.284449e+01
1.380000e-06	-2.121798e-06	-7.329570e-10	-1.481030e+01	-5.225597e+01
1.390000e-06	-2.078262e-06	-7.258796e-10	-1.450642e+01	-5.166026e+01
1.400000e-06	-2.034654e-06	-7.146221e-10	-1.420203e+01	-5.105728e+01
1.410000e-06	-1.990896e-06	-7.026286e-10	-1.389659e+01	-5.044691e+01
1.420000e-06	-1.947061e-06	-6.916702e-10	-1.359062e+01	-4.982903e+01
1.430000e-06	-1.903227e-06	-6.832065e-10	-1.328466e+01	-4.920348e+01
1.440000e-06	-1.859326e-06	-6.747453e-10	-1.297823e+01	-4.857009e+01
1.450000e-06	-1.815308e-06	-6.657416e-10	-1.267097e+01	-4.792869e+01
1.460000e-06	-1.771130e-06	-6.556682e-10	-1.236261e+01	-4.727905e+01
1.470000e-06	-1.726889e-06	-6.437182e-10	-1.205381e+01	-4.662094e+01
1.480000e-06	-1.682592e-06	-6.310794e-10	-1.174461e+01	-4.595409e+01
1.490000e-06	-1.638135e-06	-6.192618e-10	-1.143430e+01	-4.527821e+01
1.500000e-06	-1.593536e-06	-6.075253e-10	-1.112299e+01	-4.459297e+01
1.510000e-06	-1.548684e-06	-5.970223e-10	-1.080992e+01	-4.389802e+01
1.520000e-06	-1.503715e-06	-5.880552e-10	-1.049604e+01	-4.319298e+01
1.530000e-06	-1.458738e-06	-5.796172e-10	-1.018209e+01	-4.247745e+01
1.540000e-06	-1.413691e-06	-5.696140e-10	-9.867662e+00	-4.175099e+01
1.550000e-06	-1.368641e-06	-5.575333e-10	-9.553213e+00	-4.101313e+01
1.560000e-06	-1.323419e-06	-5.454980e-10	-9.237555e+00	-4.026338e+01
1.570000e-06	-1.277990e-06	-5.320051e-10	-8.920458e+00	-3.950125e+01
1.580000e-06	-1.232443e-06	-5.180111e-10	-8.602536e+00	-3.872618e+01
1.590000e-06	-1.186828e-06	-5.049925e-10	-8.284143e+00	-3.793765e+01
1.600000e-06	-1.141252e-06	-4.946740e-10	-7.966016e+00	-3.713507e+01
1.610000e-06	-1.095650e-06	-4.837785e-10	-7.647712e+00	-3.631787e+01
1.620000e-06	-1.049868e-06	-4.717758e-10	-7.328155e+00	-3.548547e+01
1.630000e-06	-1.003935e-06	-4.598627e-10	-7.007537e+00	-3.463728e+01
1.640000e-06	-9.580572e-07	-4.486437e-10	-6.687307e+00	-3.377270e+01
1.650000e-06	-9.121445e-07	-4.346319e-10	-6.366833e+00	-3.289117e+01
1.660000e-06	-8.660920e-07	-4.180657e-10	-6.045383e+00	-3.199209e+01
1.670000e-06	-8.199520e-07	-4.006851e-10	-5.723323e+00	-3.107492e+01
1.680000e-06	-7.737286e-07	-3.848708e-10	-5.400680e+00	-3.013911e+01
1.690000e-06	-7.274881e-07	-3.714664e-10	-5.077918e+00	-2.918415e+01
1.700000e-06	-6.812213e-07	-3.584111e-10	-4.754973e+00	-2.820955e+01
1.710000e-06	-6.349277e-07	-3.434693e-10	-4.431840e+00	-2.721487e+01
1.720000e-06	-5.885257e-07	-3.271440e-10	-4.107951e+00	-2.619970e+01
1.730000e-06	-5.420866e-07	-3.083466e-10	-3.783803e+00	-2.516366e+01
1.740000e-06	-4.957726e-07	-2.893094e-10	-3.460528e+00	-2.410646e+01
1.750000e-06	-4.493526e-07	-2.720052e-10	-3.136513e+00	-2.302783e+01
1.760000e-06	-4.028230e-07	-2.580410e-10	-2.811733e+00	-2.192757e+01
1.770000e-06	-3.562890e-07	-2.464708e-10	-2.486922e+00	-2.080556e+01
1.780000e-06	-3.096795e-07	-2.341895e-10	-2.161585e+00	-1.966172e+01
1.790000e-06	-2.630546e-07	-2.197146e-10	-1.836140e+00	-1.849606e+01
1.800000e-06	-2.164396e-07	-2.015046e-10	-1.510764e+00	-1.730866e+01
1.810000e-06	-1.698937e-07	-1.812749e-10	-1.185870e+00	-1.609968e+01
1.820000e-06	-1.233956e-07	-1.631495e-10	-8.613098e-01	-1.486934e+01
1.830000e-06	-7.678839e-08	-1.476665e-10	-5.359883e-01	-1.361798e+01
1.840000e-06	-3.009878e-08	-1.331113e-10	-2.100916e-01	-1.234598e+01
1.850000e-06	1.648325e-08	-1.184200e-10	1.150543e-01	-1.105382e+01
1.860000e-06	6.301743e-08	-1.020082e-10	4.398661e-01	-9.742082e+00
1.870000e-06	1.096328e-07	-8.312842e-11	7.652448e-01	-8.411397e+00
1.880000e-06	1.561765e-07	-6.164031e-11	1.090123e+00	-7.062495e+00
1.890000e-06	2.025928e-07	-4.004463e-11	1.414112e+00	-5.696184e+00
1.900000e-06	2.490663e-07	-1.896445e-11	1.738500e+00	-4.313346e+00
1.910000e-06	2.956148e-07	-1.891809e-13	2.063412e+00	-2.914939e+00
1.920000e-06	3.421670e-07	1.654846e-11	2.388349e+00	-1.501991e+00
1.930000e-06	3.886625e-07	3.241825e-11	2.712891e+00	-7.560005e-02
1.940000e-06	4.351095e-07	4.980043e-11	3.037095e+00	1.363076e+00
1.950000e-06	4.816191e-07	6.997457e-11	3.361736e+00	2.812821e+00
1.960000e-06	5.280656e-07	9.287836e-11	3.685935e+00	4.272364e+00
1.970000e-06	5.744234e-07	1.158438e-10	4.009516e+00	5.740388e+00
1.980000e-06	6.207771e-07	1.368922e-10	4.333068e+00	7.215534e+00
1.990000e-06	6.670264e-07	1.571186e-10	4.655892e+00	8.696409e+00
2.000000e-06	7.130983e-07	1.779713e-10	4.977476e+00	1.018159e+01
2.010000e-06	7.590985e-07	1.976455e-10	5.298561e+00	1.166963e+01
2.020000e-06	8.051327e-07	2.176917e-10	5.619883e+00	1.315908e+01
2.030000e-06	8.511366e-07	2.405982e-10	5.940993e+00	1.464846e+01
2.040000e-06	8.970928e-07	2.635433e-10	6.261771e+00	1.613631e+01
2.050000e-06	9.429789e-07	2.837182e-10	6.582059e+00	1.762116e+01
2.060000e-06	9.887619e-07	3.013971e-10	6.901628e+00	1.910157e+01
2.070000e-06	1.034499e-06	3.189836e-10	7.220876e+00	2.057610e+01
2.080000e-06	1.080204e-06	3.387014e-10	7.539898e+00	2.204335e+01
2.090000e-06	1.125846e-06	3.614128e-10	7.858487e+00	2.350195e+01
2.100000e-06	1.171393e-06	3.855946e-10	8.176403e+00	2.495057e+01
2.110000e-06	1.216886e-06	4.085598e-10	8.493948e+00	2.638791e+01
2.120000e-06	1.262271e-06	4.274624e-10	8.810743e+00	2.781275e+01
2.130000e-06	1.307482e-06	4.442248e-10	9.126315e+00	2.922389e+01
2.140000e-06	1.352620e-06	4.610236e-10	9.441380e+00	3.062021e+01
2.150000e-06	1.397773e-06	4.779608e-10	9.756556e+00	3.200066e+01
2.160000e-06	1.442778e-06	4.972761e-10	1.007069e+01	3.336425e+01
2.170000e-06	1.487597e-06	5.188780e-10	1.038353e+01	3.471004e+01
2.180000e-06	1.532344e-06	5.426096e-10	1.069587e+01	3.603721e+01
2.190000e-06	1.576933e-06	5.657780e-10	1.100710e+01	3.734497e+01
2.200000e-06	1.621361e-06	5.838924e-10	1.131721e+01	3.863264e+01
2.210000e-06	1.665684e-06	5.988428e-10	1.162659e+01	3.989960e+01
2.220000e-06	1.709940e-06	6.110954e-10	1.193550e+01	4.114530e+01
2.230000e-06	1.754131e-06	6.245931e-10	1.224396e+01	4.236931e+01
2.240000e-06	1.798230e-06	6.405439e-10	1.255177e+01	4.357123e+01
2.250000e-06	1.842272e-06	6.572462e-10	1.285919e+01	4.475077e+01
2.260000e-06	1.886231e-06	6.750198e-10	1.316602e+01	4.590770e+01
2.270000e-06	1.930064e-06	6.940646e-10	1.347199e+01	4.704186e+01
2.280000e-06	1.973832e-06	7.137093e-10	1.377749e+01	4.815318e+01
2.290000e-06	2.017538e-06	7.294392e-10	1.408255e+01	4.924165e+01
2.300000e-06	2.061196e-06	7.422841e-10	1.438730e+01	5.030731e+01
2.310000e-06	2.104806e-06	7.526180e-10	1.469169e+01	5.135029e+01
2.320000e-06	2.148303e-06	7.638441e-10	1.499531e+01	5.237074e+01
2.330000e-06	2.191668e-06	7.780178e-10	1.529800e+01	5.336890e+01
2.340000e-06	2.234924e-06	7.941228e-10	1.559993e+01	5.434504e+01
2.350000e-06	2.277928e-06	8.118908e-10	1.590010e+01	5.529948e+01
2.360000e-06	2.320583e-06	8.301743e-10	1.619783e+01	5.623257e+01
2.370000e-06	2.363096e-06	8.450018e-10	1.649458e+01	5.714472e+01
2.380000e-06	2.405442e-06	8.531855e-10	1.679016e+01	5.803633e+01
2.390000e-06	2.447446e-06	8.607936e-10	1.708334e+01	5.890787e+01
2.400000e-06	2.489109e-06	8.703761e-10	1.737416e+01	5.975981e+01
2.410000e-06	2.530351e-06	8.802550e-10	1.766203e+01	6.059262e+01
2.420000e-06	2.571243e-06	8.910779e-10	1.794746e+01	6.140681e+01
2.430000e-06	2.611906e-06	9.064605e-10	1.823129e+01	6.220288e+01
2.440000e-06	2.652323e-06	9.233339e-10	1.851340e+01	6.298135e+01
2.450000e-06	2.692532e-06	9.358494e-10	1.879407e+01	6.374272e+01
2.460000e-06	2.732579e-06	9.453845e-10	1.907359e+01	6.448751e+01
2.470000e-06	2.772502e-06	9.544833e-10	1.935226e+01	6.521619e+01
2.480000e-06	2.812271e-06	9.624083e-10	1.962985e+01	6.592928e+01
2.490000e-06	2.851889e-06	9.712887e-10	1.990639e+01	6.662723e+01
2.500000e-06	2.891470e-06	9.813807e-10	2.018266e+01	6.731050e+01
2.510000e-06	2.930943e-06	9.923795e-10	2.045819e+01	6.797955e+01
2.520000e-06	2.970153e-06	1.006534e-09	2.073188e+01	6.863478e+01
2.530000e-06	3.009103e-06	1.021626e-09	2.100375e+01	6.927661e+01
2.540000e-06	3.047811e-06	1.031542e-09	2.127394e+01	6.990540e+01
2.550000e-06	3.086310e-06	1.036117e-09	2.154266e+01	7.052152e+01
2.560000e-06	3.124567e-06	1.040252e-09	2.180970e+01	7.112529e+01
2.570000e-06	3.162649e-06	1.047019e-09	2.207551e+01	7.171703e+01
2.580000e-06	3.200613e-06	1.053999e-09	2.234050e+01	7.229702e+01
2.590000e-06	3.238403e-06	1.061711e-09	2.260428e+01	7.286553e+01
2.600000e-06	3.275970e-06	1.073733e-09	2.286650e+01	7.342279e+01
2.610000e-06	3.313295e-06	1.085615e-09	2.312703e+01	7.396904e+01
2.620000e-06	3.350339e-06	1.092729e-09	2.338560e+01	7.450446e+01
2.630000e-06	3.387139e-06	1.097330e-09	2.364247e+01	7.502924e+01
2.640000e-06	3.423702e-06	1.101662e-09	2.389768e+01	7.554355e+01
2.650000e-06	3.459951e-06	1.106913e-09	2.415070e+01	7.604753e+01
2.660000e-06	3.495934e-06	1.114601e-09	2.440186e+01	7.654132e+01
2.670000e-06	3.531761e-06	1.122008e-09	2.465194e+01	7.702504e+01
2.680000e-06	3.567499e-06	1.128776e-09	2.490140e+01	7.749881e+01
2.690000e-06	3.603150e-06	1.137142e-09	2.515024e+01	7.796272e+01
2.700000e-06	3.638639e-06	1.145353e-09	2.539796e+01	7.841688e+01
2.710000e-06	3.673983e-06	1.151246e-09	2.564466e+01	7.886137e+01
2.720000e-06	3.709121e-06	1.157484e-09	2.588992e+01	7.929629e+01
2.730000e-06	3.743954e-06	1.164028e-09	2.613306e+01	7.972171e+01
2.740000e-06	3.778407e-06	1.169088e-09	2.637354e+01	8.013774e+01
2.750000e-06	3.812341e-06	1.174023e-09	2.661041e+01	8.054444e+01
2.760000e-06	3.845687e-06	1.178237e-09	2.684317e+01	8.094191e+01
2.770000e-06	3.878455e-06	1.183326e-09	2.707189e+01	8.133024e+01
2.780000e-06	3.910897e-06	1.190861e-09	2.729834e+01	8.170952e+01
2.790000e-06	3.943114e-06	1.198452e-09	2.752322e+01	8.207986e+01
2.800000e-06	3.975104e-06	1.205843e-09	2.774650e+01	8.244136e+01
2.810000e-06	4.006928e-06	1.211749e-09	2.796864e+01	8.279413e+01
2.820000e-06	4.038601e-06	1.217208e-09	2.818972e+01	8.313829e+01
2.830000e-06	4.070128e-06	1.222982e-09	2.840978e+01	8.347396e+01
2.840000e-06	4.101455e-06	1.226999e-09	2.862844e+01	8.380127e+01
2.850000e-06	4.132402e-06	1.232659e-09	2.884446e+01	8.412035e+01
2.860000e-06	4.162960e-06	1.241255e-09	2.905775e+01	8.443134e+01
2.870000e-06	4.193272e-06	1.246734e-09	2.926933e+01	8.473439e+01
2.880000e-06	4.223314e-06	1.250550e-09	2.947903e+01	8.502964e+01
2.890000e-06	4.253052e-06	1.253082e-09	2.968661e+01	8.531725e+01
2.900000e-06	4.282536e-06	1.255327e-09	2.989240e+01	8.559736e+01
