# Temperatura_=_-11.02
# Concentracion g/m^3_=_1620.0
# C_Vs_to_Am_M_A/Vsm_=_65563218390.804596
# pendiente_HvsI_1/m_=_3716.3
# ordenada_HvsI_A/m_=_1297.0
# frecuencia_Hz_=_135108.32173906316

Tiempo_(s)	Campo_(V.s)	Magnetizacion_(V.s)	Campo_(kA/m)	Magnetizacion_(A/m)
0.000000e+00	-5.506477e-06	-5.552190e-10	-3.836799e+01	-3.750008e+01
1.000000e-08	-5.506775e-06	-5.505962e-10	-3.837006e+01	-3.748829e+01
2.000000e-08	-5.506783e-06	-5.493379e-10	-3.837012e+01	-3.748234e+01
3.000000e-08	-5.506413e-06	-5.491502e-10	-3.836753e+01	-3.748223e+01
4.000000e-08	-5.505491e-06	-5.465187e-10	-3.836111e+01	-3.748791e+01
5.000000e-08	-5.503919e-06	-5.350832e-10	-3.835016e+01	-3.749931e+01
6.000000e-08	-5.501747e-06	-5.262291e-10	-3.833503e+01	-3.751631e+01
7.000000e-08	-5.499061e-06	-5.479943e-10	-3.831631e+01	-3.753876e+01
8.000000e-08	-5.495959e-06	-5.857879e-10	-3.829470e+01	-3.756647e+01
9.000000e-08	-5.492400e-06	-6.069088e-10	-3.826990e+01	-3.759922e+01
1.000000e-07	-5.488376e-06	-6.072312e-10	-3.824186e+01	-3.763676e+01
1.100000e-07	-5.484002e-06	-5.615975e-10	-3.821138e+01	-3.767880e+01
1.200000e-07	-5.479420e-06	-4.731438e-10	-3.817945e+01	-3.772504e+01
1.300000e-07	-5.474652e-06	-5.093194e-10	-3.814624e+01	-3.777512e+01
1.400000e-07	-5.469485e-06	-5.636944e-10	-3.811023e+01	-3.782868e+01
1.500000e-07	-5.463872e-06	-5.724713e-10	-3.807112e+01	-3.788533e+01
1.600000e-07	-5.457930e-06	-5.092258e-10	-3.802972e+01	-3.794465e+01
1.700000e-07	-5.451617e-06	-5.207854e-10	-3.798573e+01	-3.800621e+01
1.800000e-07	-5.444875e-06	-6.193223e-10	-3.793876e+01	-3.806956e+01
1.900000e-07	-5.437768e-06	-5.831995e-10	-3.788923e+01	-3.813424e+01
2.000000e-07	-5.430450e-06	-5.148627e-10	-3.783824e+01	-3.819979e+01
2.100000e-07	-5.422868e-06	-5.053452e-10	-3.778541e+01	-3.826572e+01
2.200000e-07	-5.414992e-06	-6.179062e-10	-3.773054e+01	-3.833156e+01
2.300000e-07	-5.406804e-06	-6.224970e-10	-3.767348e+01	-3.839683e+01
2.400000e-07	-5.398135e-06	-5.845897e-10	-3.761308e+01	-3.846105e+01
2.500000e-07	-5.388857e-06	-5.549265e-10	-3.754843e+01	-3.852376e+01
2.600000e-07	-5.378800e-06	-5.898334e-10	-3.747836e+01	-3.858450e+01
2.700000e-07	-5.368076e-06	-5.722228e-10	-3.740364e+01	-3.864281e+01
2.800000e-07	-5.356970e-06	-5.674753e-10	-3.732625e+01	-3.869828e+01
2.900000e-07	-5.345522e-06	-5.830802e-10	-3.724648e+01	-3.875049e+01
3.000000e-07	-5.333622e-06	-5.950564e-10	-3.716357e+01	-3.879906e+01
3.100000e-07	-5.321307e-06	-5.767967e-10	-3.707776e+01	-3.884362e+01
3.200000e-07	-5.308616e-06	-5.732576e-10	-3.698933e+01	-3.888383e+01
3.300000e-07	-5.295564e-06	-5.773475e-10	-3.689838e+01	-3.891940e+01
3.400000e-07	-5.282177e-06	-5.644516e-10	-3.680511e+01	-3.895003e+01
3.500000e-07	-5.268372e-06	-5.817737e-10	-3.670892e+01	-3.897550e+01
3.600000e-07	-5.254026e-06	-5.881158e-10	-3.660896e+01	-3.899558e+01
3.700000e-07	-5.239110e-06	-5.899963e-10	-3.650502e+01	-3.901012e+01
3.800000e-07	-5.223594e-06	-5.943335e-10	-3.639691e+01	-3.901896e+01
3.900000e-07	-5.207559e-06	-6.051523e-10	-3.628519e+01	-3.902202e+01
4.000000e-07	-5.191243e-06	-5.629862e-10	-3.617150e+01	-3.901922e+01
4.100000e-07	-5.174599e-06	-5.759141e-10	-3.605553e+01	-3.901054e+01
4.200000e-07	-5.157529e-06	-6.035082e-10	-3.593659e+01	-3.899600e+01
4.300000e-07	-5.140197e-06	-5.834997e-10	-3.581582e+01	-3.897563e+01
4.400000e-07	-5.122691e-06	-5.575683e-10	-3.569384e+01	-3.894952e+01
4.500000e-07	-5.104769e-06	-6.259399e-10	-3.556897e+01	-3.891779e+01
4.600000e-07	-5.086305e-06	-6.084954e-10	-3.544031e+01	-3.888059e+01
4.700000e-07	-5.067437e-06	-5.452342e-10	-3.530884e+01	-3.883808e+01
4.800000e-07	-5.048264e-06	-5.803334e-10	-3.517525e+01	-3.879050e+01
4.900000e-07	-5.028879e-06	-6.361232e-10	-3.504018e+01	-3.873806e+01
5.000000e-07	-5.009294e-06	-5.582296e-10	-3.490371e+01	-3.868103e+01
5.100000e-07	-4.989475e-06	-5.519856e-10	-3.476562e+01	-3.861970e+01
5.200000e-07	-4.969367e-06	-6.183187e-10	-3.462551e+01	-3.855435e+01
5.300000e-07	-4.948901e-06	-5.878072e-10	-3.448291e+01	-3.848532e+01
5.400000e-07	-4.928084e-06	-5.431580e-10	-3.433786e+01	-3.841293e+01
5.500000e-07	-4.906877e-06	-6.107463e-10	-3.419010e+01	-3.833752e+01
5.600000e-07	-4.885301e-06	-5.997828e-10	-3.403976e+01	-3.825945e+01
5.700000e-07	-4.863368e-06	-5.397360e-10	-3.388694e+01	-3.817907e+01
5.800000e-07	-4.841031e-06	-5.894418e-10	-3.373129e+01	-3.809672e+01
5.900000e-07	-4.818409e-06	-6.258877e-10	-3.357367e+01	-3.801277e+01
6.000000e-07	-4.795522e-06	-5.578023e-10	-3.341420e+01	-3.792757e+01
6.100000e-07	-4.772335e-06	-5.593470e-10	-3.325263e+01	-3.784145e+01
6.200000e-07	-4.748943e-06	-6.046141e-10	-3.308965e+01	-3.775475e+01
6.300000e-07	-4.725340e-06	-5.630220e-10	-3.292518e+01	-3.766779e+01
6.400000e-07	-4.701438e-06	-5.496812e-10	-3.275864e+01	-3.758085e+01
6.500000e-07	-4.677159e-06	-5.959477e-10	-3.258947e+01	-3.749424e+01
6.600000e-07	-4.652394e-06	-5.863187e-10	-3.241691e+01	-3.740821e+01
6.700000e-07	-4.627083e-06	-5.584815e-10	-3.224055e+01	-3.732301e+01
6.800000e-07	-4.601090e-06	-5.939720e-10	-3.205944e+01	-3.723885e+01
6.900000e-07	-4.574529e-06	-5.902230e-10	-3.187436e+01	-3.715593e+01
7.000000e-07	-4.547654e-06	-5.598508e-10	-3.168710e+01	-3.707441e+01
7.100000e-07	-4.520546e-06	-5.700638e-10	-3.149822e+01	-3.699443e+01
7.200000e-07	-4.493187e-06	-5.886382e-10	-3.130759e+01	-3.691611e+01
7.300000e-07	-4.465582e-06	-5.663329e-10	-3.111525e+01	-3.683952e+01
7.400000e-07	-4.437859e-06	-5.703239e-10	-3.092208e+01	-3.676472e+01
7.500000e-07	-4.409935e-06	-5.779395e-10	-3.072751e+01	-3.669173e+01
7.600000e-07	-4.381744e-06	-5.672165e-10	-3.053108e+01	-3.662054e+01
7.700000e-07	-4.353215e-06	-5.583659e-10	-3.033230e+01	-3.655114e+01
7.800000e-07	-4.324302e-06	-5.701869e-10	-3.013084e+01	-3.648345e+01
7.900000e-07	-4.295122e-06	-5.615046e-10	-2.992751e+01	-3.641740e+01
8.000000e-07	-4.265618e-06	-5.567430e-10	-2.972194e+01	-3.635286e+01
8.100000e-07	-4.235765e-06	-5.610486e-10	-2.951393e+01	-3.628972e+01
8.200000e-07	-4.205619e-06	-5.590832e-10	-2.930388e+01	-3.622781e+01
8.300000e-07	-4.175247e-06	-5.461506e-10	-2.909225e+01	-3.616697e+01
8.400000e-07	-4.144684e-06	-5.509382e-10	-2.887930e+01	-3.610700e+01
8.500000e-07	-4.113839e-06	-5.499514e-10	-2.866437e+01	-3.604769e+01
8.600000e-07	-4.082727e-06	-5.405608e-10	-2.844759e+01	-3.598882e+01
8.700000e-07	-4.051381e-06	-5.411982e-10	-2.822918e+01	-3.593016e+01
8.800000e-07	-4.019847e-06	-5.478980e-10	-2.800946e+01	-3.587147e+01
8.900000e-07	-3.988171e-06	-5.405818e-10	-2.778875e+01	-3.581250e+01
9.000000e-07	-3.956297e-06	-5.321794e-10	-2.756665e+01	-3.575300e+01
9.100000e-07	-3.924120e-06	-5.356623e-10	-2.734245e+01	-3.569273e+01
9.200000e-07	-3.891524e-06	-5.324753e-10	-2.711533e+01	-3.563142e+01
9.300000e-07	-3.858459e-06	-5.280846e-10	-2.688494e+01	-3.556883e+01
9.400000e-07	-3.824944e-06	-5.346942e-10	-2.665142e+01	-3.550471e+01
9.500000e-07	-3.790950e-06	-5.389614e-10	-2.641455e+01	-3.543883e+01
9.600000e-07	-3.756499e-06	-5.290769e-10	-2.617450e+01	-3.537096e+01
9.700000e-07	-3.721644e-06	-5.281212e-10	-2.593164e+01	-3.530089e+01
9.800000e-07	-3.686514e-06	-5.296434e-10	-2.568686e+01	-3.522841e+01
9.900000e-07	-3.651219e-06	-5.254010e-10	-2.544093e+01	-3.515334e+01
1.000000e-06	-3.615774e-06	-5.192755e-10	-2.519396e+01	-3.507550e+01
1.010000e-06	-3.580189e-06	-5.251445e-10	-2.494601e+01	-3.499473e+01
1.020000e-06	-3.544411e-06	-5.221867e-10	-2.469672e+01	-3.491091e+01
1.030000e-06	-3.508483e-06	-5.170508e-10	-2.444638e+01	-3.482390e+01
1.040000e-06	-3.472396e-06	-5.173932e-10	-2.419493e+01	-3.473361e+01
1.050000e-06	-3.436045e-06	-5.207066e-10	-2.394164e+01	-3.463996e+01
1.060000e-06	-3.399409e-06	-5.156320e-10	-2.368637e+01	-3.454288e+01
1.070000e-06	-3.362498e-06	-5.161152e-10	-2.342919e+01	-3.444233e+01
1.080000e-06	-3.325283e-06	-5.151938e-10	-2.316988e+01	-3.433829e+01
1.090000e-06	-3.287841e-06	-5.098300e-10	-2.290899e+01	-3.423074e+01
1.100000e-06	-3.250201e-06	-5.034813e-10	-2.264672e+01	-3.411971e+01
1.110000e-06	-3.212300e-06	-5.023584e-10	-2.238263e+01	-3.400521e+01
1.120000e-06	-3.174146e-06	-4.980354e-10	-2.211679e+01	-3.388729e+01
1.130000e-06	-3.135791e-06	-4.957206e-10	-2.184954e+01	-3.376600e+01
1.140000e-06	-3.097250e-06	-4.974448e-10	-2.158099e+01	-3.364141e+01
1.150000e-06	-3.058504e-06	-4.968724e-10	-2.131102e+01	-3.351359e+01
1.160000e-06	-3.019589e-06	-4.911739e-10	-2.103986e+01	-3.338263e+01
1.170000e-06	-2.980518e-06	-4.894989e-10	-2.076763e+01	-3.324862e+01
1.180000e-06	-2.941302e-06	-4.900938e-10	-2.049438e+01	-3.311166e+01
1.190000e-06	-2.901936e-06	-4.875030e-10	-2.022009e+01	-3.297184e+01
1.200000e-06	-2.862457e-06	-4.840206e-10	-1.994500e+01	-3.282926e+01
1.210000e-06	-2.822836e-06	-4.831218e-10	-1.966893e+01	-3.268402e+01
1.220000e-06	-2.783071e-06	-4.818701e-10	-1.939186e+01	-3.253621e+01
1.230000e-06	-2.743064e-06	-4.783807e-10	-1.911310e+01	-3.238591e+01
1.240000e-06	-2.702797e-06	-4.798447e-10	-1.883252e+01	-3.223319e+01
1.250000e-06	-2.662306e-06	-4.787068e-10	-1.855039e+01	-3.207813e+01
1.260000e-06	-2.621560e-06	-4.777125e-10	-1.826649e+01	-3.192077e+01
1.270000e-06	-2.580639e-06	-4.729429e-10	-1.798135e+01	-3.176115e+01
1.280000e-06	-2.539514e-06	-4.718717e-10	-1.769480e+01	-3.159929e+01
1.290000e-06	-2.498029e-06	-4.697645e-10	-1.740575e+01	-3.143519e+01
1.300000e-06	-2.456201e-06	-4.649931e-10	-1.711429e+01	-3.126884e+01
1.310000e-06	-2.414126e-06	-4.598645e-10	-1.682113e+01	-3.110018e+01
1.320000e-06	-2.371788e-06	-4.565291e-10	-1.652613e+01	-3.092916e+01
1.330000e-06	-2.329132e-06	-4.524803e-10	-1.622891e+01	-3.075569e+01
1.340000e-06	-2.286196e-06	-4.500193e-10	-1.592974e+01	-3.057966e+01
1.350000e-06	-2.243123e-06	-4.480177e-10	-1.562961e+01	-3.040093e+01
1.360000e-06	-2.199863e-06	-4.453561e-10	-1.532819e+01	-3.021934e+01
1.370000e-06	-2.156455e-06	-4.414859e-10	-1.502573e+01	-3.003469e+01
1.380000e-06	-2.113027e-06	-4.419652e-10	-1.472313e+01	-2.984677e+01
1.390000e-06	-2.069522e-06	-4.425024e-10	-1.442000e+01	-2.965534e+01
1.400000e-06	-2.025920e-06	-4.396930e-10	-1.411619e+01	-2.946013e+01
1.410000e-06	-1.982271e-06	-4.344938e-10	-1.381205e+01	-2.926084e+01
1.420000e-06	-1.938577e-06	-4.317260e-10	-1.350760e+01	-2.905716e+01
1.430000e-06	-1.894806e-06	-4.317228e-10	-1.320261e+01	-2.884874e+01
1.440000e-06	-1.850857e-06	-4.303962e-10	-1.289638e+01	-2.863522e+01
1.450000e-06	-1.806719e-06	-4.284981e-10	-1.258884e+01	-2.841621e+01
1.460000e-06	-1.762461e-06	-4.244651e-10	-1.228046e+01	-2.819132e+01
1.470000e-06	-1.718121e-06	-4.158724e-10	-1.197151e+01	-2.796011e+01
1.480000e-06	-1.673647e-06	-4.069906e-10	-1.166162e+01	-2.772216e+01
1.490000e-06	-1.629047e-06	-4.009362e-10	-1.135086e+01	-2.747700e+01
1.500000e-06	-1.584266e-06	-3.971647e-10	-1.103884e+01	-2.722418e+01
1.510000e-06	-1.539321e-06	-3.956559e-10	-1.072567e+01	-2.696322e+01
1.520000e-06	-1.494324e-06	-3.936311e-10	-1.041214e+01	-2.669365e+01
1.530000e-06	-1.449228e-06	-3.881442e-10	-1.009792e+01	-2.641498e+01
1.540000e-06	-1.404047e-06	-3.766103e-10	-9.783105e+00	-2.612672e+01
1.550000e-06	-1.358752e-06	-3.642703e-10	-9.467498e+00	-2.582840e+01
1.560000e-06	-1.313307e-06	-3.550490e-10	-9.150852e+00	-2.551952e+01
1.570000e-06	-1.267728e-06	-3.520698e-10	-8.833261e+00	-2.519963e+01
1.580000e-06	-1.221988e-06	-3.533159e-10	-8.514559e+00	-2.486825e+01
1.590000e-06	-1.176054e-06	-3.559925e-10	-8.194501e+00	-2.452492e+01
1.600000e-06	-1.130092e-06	-3.508559e-10	-7.874248e+00	-2.416922e+01
1.610000e-06	-1.084218e-06	-3.371935e-10	-7.554608e+00	-2.380071e+01
1.620000e-06	-1.038355e-06	-3.218139e-10	-7.235043e+00	-2.341899e+01
1.630000e-06	-9.924823e-07	-3.120305e-10	-6.915410e+00	-2.302368e+01
1.640000e-06	-9.465460e-07	-3.070803e-10	-6.595335e+00	-2.261442e+01
1.650000e-06	-9.004460e-07	-3.043524e-10	-6.274120e+00	-2.219088e+01
1.660000e-06	-8.542886e-07	-3.008927e-10	-5.952505e+00	-2.175275e+01
1.670000e-06	-8.080816e-07	-2.947504e-10	-5.630544e+00	-2.129978e+01
1.680000e-06	-7.617534e-07	-2.844228e-10	-5.307739e+00	-2.083170e+01
1.690000e-06	-7.154158e-07	-2.720321e-10	-4.984868e+00	-2.034832e+01
1.700000e-06	-6.691083e-07	-2.602625e-10	-4.662207e+00	-1.984947e+01
1.710000e-06	-6.227845e-07	-2.521760e-10	-4.339432e+00	-1.933500e+01
1.720000e-06	-5.763982e-07	-2.462538e-10	-4.016223e+00	-1.880484e+01
1.730000e-06	-5.299471e-07	-2.402072e-10	-3.692561e+00	-1.825892e+01
1.740000e-06	-4.833851e-07	-2.311265e-10	-3.368127e+00	-1.769722e+01
1.750000e-06	-4.368054e-07	-2.201050e-10	-3.043569e+00	-1.711977e+01
1.760000e-06	-3.902531e-07	-2.109068e-10	-2.719202e+00	-1.652663e+01
1.770000e-06	-3.436475e-07	-2.026115e-10	-2.394464e+00	-1.591792e+01
1.780000e-06	-2.970268e-07	-1.955231e-10	-2.069621e+00	-1.529378e+01
1.790000e-06	-2.503270e-07	-1.890502e-10	-1.744226e+00	-1.465440e+01
1.800000e-06	-2.035056e-07	-1.801119e-10	-1.417985e+00	-1.400002e+01
1.810000e-06	-1.567590e-07	-1.697198e-10	-1.092264e+00	-1.333092e+01
1.820000e-06	-1.101259e-07	-1.607034e-10	-7.673345e-01	-1.264739e+01
1.830000e-06	-6.345299e-08	-1.551505e-10	-4.421272e-01	-1.194981e+01
1.840000e-06	-1.671131e-08	-1.516658e-10	-1.164409e-01	-1.123856e+01
1.850000e-06	3.010182e-08	-1.441896e-10	2.097432e-01	-1.051407e+01
1.860000e-06	7.689166e-08	-1.361243e-10	5.357651e-01	-9.776805e+00
1.870000e-06	1.235524e-07	-1.264221e-10	8.608875e-01	-9.027275e+00
1.880000e-06	1.701680e-07	-1.141477e-10	1.185695e+00	-8.266013e+00
1.890000e-06	2.168677e-07	-1.002587e-10	1.511089e+00	-7.493584e+00
1.900000e-06	2.636384e-07	-8.832221e-11	1.836977e+00	-6.710586e+00
1.910000e-06	3.103665e-07	-7.875402e-11	2.162569e+00	-5.917645e+00
1.920000e-06	3.570143e-07	-7.058540e-11	2.487601e+00	-5.115412e+00
1.930000e-06	4.037329e-07	-6.208988e-11	2.813127e+00	-4.304563e+00
1.940000e-06	4.504286e-07	-5.146459e-11	3.138492e+00	-3.485795e+00
1.950000e-06	4.970066e-07	-3.902726e-11	3.463039e+00	-2.659825e+00
1.960000e-06	5.435824e-07	-2.542410e-11	3.787569e+00	-1.827389e+00
1.970000e-06	5.900707e-07	-1.262276e-11	4.111490e+00	-9.892353e-01
1.980000e-06	6.364479e-07	-2.851340e-12	4.434636e+00	-1.461267e-01
1.990000e-06	6.826905e-07	7.107468e-12	4.756845e+00	7.011643e-01
2.000000e-06	7.289417e-07	1.462860e-11	5.079113e+00	1.551857e+00
2.010000e-06	7.752565e-07	2.356424e-11	5.401826e+00	2.405166e+00
2.020000e-06	8.214775e-07	3.950013e-11	5.723884e+00	3.260302e+00
2.030000e-06	8.676708e-07	5.620250e-11	6.045749e+00	4.116475e+00
2.040000e-06	9.137959e-07	7.078229e-11	6.367139e+00	4.972897e+00
2.050000e-06	9.598287e-07	8.328489e-11	6.687887e+00	5.828784e+00
2.060000e-06	1.005739e-06	9.296208e-11	7.007782e+00	6.683359e+00
2.070000e-06	1.051493e-06	1.021366e-10	7.326585e+00	7.535851e+00
2.080000e-06	1.097171e-06	1.150481e-10	7.644861e+00	8.385503e+00
2.090000e-06	1.142780e-06	1.295085e-10	7.962650e+00	9.231568e+00
2.100000e-06	1.188345e-06	1.456186e-10	8.280138e+00	1.007332e+01
2.110000e-06	1.233896e-06	1.592513e-10	8.597533e+00	1.091003e+01
2.120000e-06	1.279390e-06	1.701806e-10	8.914524e+00	1.174101e+01
2.130000e-06	1.324748e-06	1.816304e-10	9.230566e+00	1.256559e+01
2.140000e-06	1.369947e-06	1.941383e-10	9.545506e+00	1.338311e+01
2.150000e-06	1.415041e-06	2.070101e-10	9.859708e+00	1.419293e+01
2.160000e-06	1.460109e-06	2.199533e-10	1.017373e+01	1.499446e+01
2.170000e-06	1.505126e-06	2.321761e-10	1.048741e+01	1.578710e+01
2.180000e-06	1.550025e-06	2.444750e-10	1.080025e+01	1.657030e+01
2.190000e-06	1.594774e-06	2.549650e-10	1.111205e+01	1.734354e+01
2.200000e-06	1.639350e-06	2.648583e-10	1.142265e+01	1.810631e+01
2.210000e-06	1.683801e-06	2.739950e-10	1.173238e+01	1.885815e+01
2.220000e-06	1.728090e-06	2.839622e-10	1.204097e+01	1.959862e+01
2.230000e-06	1.772184e-06	2.970868e-10	1.234821e+01	2.032730e+01
2.240000e-06	1.816087e-06	3.071838e-10	1.265411e+01	2.104382e+01
2.250000e-06	1.859922e-06	3.160063e-10	1.295955e+01	2.174782e+01
2.260000e-06	1.903729e-06	3.239934e-10	1.326479e+01	2.243900e+01
2.270000e-06	1.947436e-06	3.354488e-10	1.356933e+01	2.311706e+01
2.280000e-06	1.991129e-06	3.481593e-10	1.387377e+01	2.378174e+01
2.290000e-06	2.034779e-06	3.574478e-10	1.417792e+01	2.443281e+01
2.300000e-06	2.078326e-06	3.647889e-10	1.448135e+01	2.507009e+01
2.310000e-06	2.121779e-06	3.742122e-10	1.478411e+01	2.569340e+01
2.320000e-06	2.165175e-06	3.863899e-10	1.508649e+01	2.630259e+01
2.330000e-06	2.208503e-06	3.962225e-10	1.538839e+01	2.689757e+01
2.340000e-06	2.251725e-06	4.033888e-10	1.568955e+01	2.747823e+01
2.350000e-06	2.294823e-06	4.132989e-10	1.598985e+01	2.804452e+01
2.360000e-06	2.337769e-06	4.259082e-10	1.628909e+01	2.859641e+01
2.370000e-06	2.380501e-06	4.353365e-10	1.658683e+01	2.913389e+01
2.380000e-06	2.422914e-06	4.409197e-10	1.688236e+01	2.965695e+01
2.390000e-06	2.465004e-06	4.449472e-10	1.717563e+01	3.016565e+01
2.400000e-06	2.506739e-06	4.495458e-10	1.746644e+01	3.066002e+01
2.410000e-06	2.548084e-06	4.553387e-10	1.775452e+01	3.114015e+01
2.420000e-06	2.589179e-06	4.602540e-10	1.804086e+01	3.160613e+01
2.430000e-06	2.629999e-06	4.677318e-10	1.832528e+01	3.205805e+01
2.440000e-06	2.670429e-06	4.786948e-10	1.860699e+01	3.249605e+01
2.450000e-06	2.710581e-06	4.877825e-10	1.888676e+01	3.292026e+01
2.460000e-06	2.750525e-06	4.940026e-10	1.916508e+01	3.333083e+01
2.470000e-06	2.790332e-06	4.968651e-10	1.944245e+01	3.372792e+01
2.480000e-06	2.830057e-06	4.977671e-10	1.971925e+01	3.411171e+01
2.490000e-06	2.869617e-06	4.994787e-10	1.999489e+01	3.448237e+01
2.500000e-06	2.909037e-06	5.042109e-10	2.026957e+01	3.484010e+01
2.510000e-06	2.948382e-06	5.120180e-10	2.054371e+01	3.518510e+01
2.520000e-06	2.987617e-06	5.198539e-10	2.081710e+01	3.551757e+01
2.530000e-06	3.026642e-06	5.246021e-10	2.108901e+01	3.583773e+01
2.540000e-06	3.065418e-06	5.255451e-10	2.135919e+01	3.614578e+01
2.550000e-06	3.103898e-06	5.259857e-10	2.162731e+01	3.644194e+01
2.560000e-06	3.142123e-06	5.284615e-10	2.189366e+01	3.672645e+01
2.570000e-06	3.180183e-06	5.320486e-10	2.215885e+01	3.699952e+01
2.580000e-06	3.218000e-06	5.355861e-10	2.242235e+01	3.726138e+01
2.590000e-06	3.255608e-06	5.378146e-10	2.268440e+01	3.751226e+01
2.600000e-06	3.293072e-06	5.410826e-10	2.294544e+01	3.775239e+01
2.610000e-06	3.330346e-06	5.431442e-10	2.320516e+01	3.798200e+01
2.620000e-06	3.367430e-06	5.433158e-10	2.346355e+01	3.820132e+01
2.630000e-06	3.404276e-06	5.444876e-10	2.372029e+01	3.841059e+01
2.640000e-06	3.440768e-06	5.473813e-10	2.397456e+01	3.861003e+01
2.650000e-06	3.476964e-06	5.523761e-10	2.422676e+01	3.879988e+01
2.660000e-06	3.512956e-06	5.568663e-10	2.447755e+01	3.898036e+01
2.670000e-06	3.548776e-06	5.570670e-10	2.472713e+01	3.915171e+01
2.680000e-06	3.584429e-06	5.548988e-10	2.497556e+01	3.931416e+01
2.690000e-06	3.619909e-06	5.547807e-10	2.522277e+01	3.946794e+01
2.700000e-06	3.655306e-06	5.563306e-10	2.546941e+01	3.961327e+01
2.710000e-06	3.690652e-06	5.584248e-10	2.571570e+01	3.975040e+01
2.720000e-06	3.725794e-06	5.615987e-10	2.596055e+01	3.987955e+01
2.730000e-06	3.760601e-06	5.648562e-10	2.620309e+01	4.000095e+01
2.740000e-06	3.795089e-06	5.678854e-10	2.644339e+01	4.011482e+01
2.750000e-06	3.829167e-06	5.680978e-10	2.668084e+01	4.022141e+01
2.760000e-06	3.862745e-06	5.662111e-10	2.691480e+01	4.032095e+01
2.770000e-06	3.895867e-06	5.667996e-10	2.714559e+01	4.041365e+01
2.780000e-06	3.928573e-06	5.689052e-10	2.737348e+01	4.049976e+01
2.790000e-06	3.960868e-06	5.725750e-10	2.759850e+01	4.057951e+01
2.800000e-06	3.992793e-06	5.763705e-10	2.782095e+01	4.065313e+01
2.810000e-06	4.024507e-06	5.777049e-10	2.804193e+01	4.072085e+01
2.820000e-06	4.056073e-06	5.771954e-10	2.826187e+01	4.078289e+01
2.830000e-06	4.087470e-06	5.772547e-10	2.848064e+01	4.083950e+01
2.840000e-06	4.118643e-06	5.789959e-10	2.869784e+01	4.089091e+01
2.850000e-06	4.149551e-06	5.834647e-10	2.891321e+01	4.093733e+01
2.860000e-06	4.180148e-06	5.872179e-10	2.912640e+01	4.097901e+01
2.870000e-06	4.210345e-06	5.883666e-10	2.933681e+01	4.101616e+01
2.880000e-06	4.240220e-06	5.888891e-10	2.954497e+01	4.104900e+01
2.890000e-06	4.269856e-06	5.889690e-10	2.975147e+01	4.107777e+01
2.900000e-06	4.299287e-06	5.896469e-10	2.995653e+01	4.110267e+01
