# Temperatura_=_-1.38
# Concentracion g/m^3_=_1620.0
# C_Vs_to_Am_M_A/Vsm_=_65563218390.804596
# pendiente_HvsI_1/m_=_3716.3
# ordenada_HvsI_A/m_=_1297.0
# frecuencia_Hz_=_135104.2551624219

Tiempo_(s)	Campo_(V.s)	Magnetizacion_(V.s)	Campo_(kA/m)	Magnetizacion_(A/m)
0.000000e+00	-5.509235e-06	-9.834915e-10	-3.837386e+01	-6.657477e+01
1.000000e-08	-5.509389e-06	-9.824140e-10	-3.837494e+01	-6.653192e+01
2.000000e-08	-5.509272e-06	-9.855756e-10	-3.837412e+01	-6.648668e+01
3.000000e-08	-5.508847e-06	-9.876775e-10	-3.837116e+01	-6.643878e+01
4.000000e-08	-5.508014e-06	-9.849525e-10	-3.836536e+01	-6.638798e+01
5.000000e-08	-5.506551e-06	-9.709181e-10	-3.835517e+01	-6.633404e+01
6.000000e-08	-5.504380e-06	-9.575303e-10	-3.834004e+01	-6.627674e+01
7.000000e-08	-5.501686e-06	-9.763193e-10	-3.832129e+01	-6.621588e+01
8.000000e-08	-5.498478e-06	-9.990650e-10	-3.829894e+01	-6.615129e+01
9.000000e-08	-5.494739e-06	-1.021851e-09	-3.827290e+01	-6.608282e+01
1.000000e-07	-5.490658e-06	-1.064509e-09	-3.824447e+01	-6.601032e+01
1.100000e-07	-5.486321e-06	-1.042731e-09	-3.821426e+01	-6.593370e+01
1.200000e-07	-5.481792e-06	-9.027467e-10	-3.818271e+01	-6.585286e+01
1.300000e-07	-5.477015e-06	-9.070235e-10	-3.814944e+01	-6.576777e+01
1.400000e-07	-5.471817e-06	-9.876240e-10	-3.811324e+01	-6.567838e+01
1.500000e-07	-5.466221e-06	-1.049342e-09	-3.807425e+01	-6.558469e+01
1.600000e-07	-5.460254e-06	-9.336713e-10	-3.803269e+01	-6.548672e+01
1.700000e-07	-5.453885e-06	-9.148663e-10	-3.798833e+01	-6.538452e+01
1.800000e-07	-5.447060e-06	-1.023784e-09	-3.794079e+01	-6.527815e+01
1.900000e-07	-5.439764e-06	-1.031510e-09	-3.788998e+01	-6.516770e+01
2.000000e-07	-5.432194e-06	-9.198573e-10	-3.783724e+01	-6.505328e+01
2.100000e-07	-5.424448e-06	-8.594213e-10	-3.778329e+01	-6.493503e+01
2.200000e-07	-5.416515e-06	-9.554145e-10	-3.772804e+01	-6.481309e+01
2.300000e-07	-5.408261e-06	-9.714446e-10	-3.767054e+01	-6.468762e+01
2.400000e-07	-5.399565e-06	-9.262163e-10	-3.760997e+01	-6.455881e+01
2.500000e-07	-5.390227e-06	-8.759846e-10	-3.754493e+01	-6.442683e+01
2.600000e-07	-5.380174e-06	-9.171312e-10	-3.747491e+01	-6.429190e+01
2.700000e-07	-5.369526e-06	-9.084741e-10	-3.740074e+01	-6.415421e+01
2.800000e-07	-5.358322e-06	-9.057742e-10	-3.732270e+01	-6.401398e+01
2.900000e-07	-5.346665e-06	-8.948286e-10	-3.724150e+01	-6.387142e+01
3.000000e-07	-5.334652e-06	-9.152297e-10	-3.715783e+01	-6.372675e+01
3.100000e-07	-5.322336e-06	-9.031627e-10	-3.707204e+01	-6.358019e+01
3.200000e-07	-5.309605e-06	-9.137242e-10	-3.698336e+01	-6.343193e+01
3.300000e-07	-5.296400e-06	-8.877285e-10	-3.689139e+01	-6.328219e+01
3.400000e-07	-5.282875e-06	-8.894195e-10	-3.679718e+01	-6.313118e+01
3.500000e-07	-5.269048e-06	-9.186180e-10	-3.670087e+01	-6.297907e+01
3.600000e-07	-5.254770e-06	-9.216636e-10	-3.660142e+01	-6.282605e+01
3.700000e-07	-5.239944e-06	-8.807002e-10	-3.649815e+01	-6.267228e+01
3.800000e-07	-5.224709e-06	-9.053445e-10	-3.639203e+01	-6.251793e+01
3.900000e-07	-5.209003e-06	-9.212629e-10	-3.628264e+01	-6.236313e+01
4.000000e-07	-5.192631e-06	-8.628176e-10	-3.616860e+01	-6.220801e+01
4.100000e-07	-5.175873e-06	-8.779384e-10	-3.605188e+01	-6.205268e+01
4.200000e-07	-5.158932e-06	-9.381561e-10	-3.593387e+01	-6.189724e+01
4.300000e-07	-5.141644e-06	-8.850466e-10	-3.581345e+01	-6.174177e+01
4.400000e-07	-5.123999e-06	-8.391331e-10	-3.569055e+01	-6.158633e+01
4.500000e-07	-5.106058e-06	-9.446298e-10	-3.556559e+01	-6.143097e+01
4.600000e-07	-5.087647e-06	-9.315270e-10	-3.543735e+01	-6.127571e+01
4.700000e-07	-5.068636e-06	-8.306670e-10	-3.530493e+01	-6.112058e+01
4.800000e-07	-5.049275e-06	-8.852050e-10	-3.517007e+01	-6.096558e+01
4.900000e-07	-5.029751e-06	-9.613272e-10	-3.503408e+01	-6.081069e+01
5.000000e-07	-5.010011e-06	-8.481149e-10	-3.489658e+01	-6.065588e+01
5.100000e-07	-4.990075e-06	-8.452825e-10	-3.475772e+01	-6.050112e+01
5.200000e-07	-4.969902e-06	-9.393596e-10	-3.461721e+01	-6.034636e+01
5.300000e-07	-4.949367e-06	-8.834239e-10	-3.447417e+01	-6.019152e+01
5.400000e-07	-4.928462e-06	-8.224588e-10	-3.432857e+01	-6.003655e+01
5.500000e-07	-4.907209e-06	-9.339337e-10	-3.418053e+01	-5.988136e+01
5.600000e-07	-4.885506e-06	-9.150685e-10	-3.402936e+01	-5.972587e+01
5.700000e-07	-4.863464e-06	-8.177063e-10	-3.387583e+01	-5.956999e+01
5.800000e-07	-4.841194e-06	-8.795062e-10	-3.372071e+01	-5.941361e+01
5.900000e-07	-4.818630e-06	-9.289688e-10	-3.356354e+01	-5.925664e+01
6.000000e-07	-4.795606e-06	-8.302623e-10	-3.340317e+01	-5.909898e+01
6.100000e-07	-4.772209e-06	-8.465465e-10	-3.324020e+01	-5.894052e+01
6.200000e-07	-4.748634e-06	-9.124276e-10	-3.307600e+01	-5.878115e+01
6.300000e-07	-4.724866e-06	-8.521062e-10	-3.291044e+01	-5.862078e+01
6.400000e-07	-4.700875e-06	-8.246133e-10	-3.274334e+01	-5.845931e+01
6.500000e-07	-4.676550e-06	-8.875129e-10	-3.257390e+01	-5.829662e+01
6.600000e-07	-4.651835e-06	-8.601729e-10	-3.240175e+01	-5.813262e+01
6.700000e-07	-4.626654e-06	-8.206979e-10	-3.222636e+01	-5.796722e+01
6.800000e-07	-4.601018e-06	-8.664294e-10	-3.204780e+01	-5.780033e+01
6.900000e-07	-4.574900e-06	-8.642345e-10	-3.186588e+01	-5.763184e+01
7.000000e-07	-4.548105e-06	-8.176553e-10	-3.167924e+01	-5.746169e+01
7.100000e-07	-4.520765e-06	-8.356781e-10	-3.148881e+01	-5.728978e+01
7.200000e-07	-4.493212e-06	-8.520567e-10	-3.129688e+01	-5.711605e+01
7.300000e-07	-4.465529e-06	-8.158066e-10	-3.110407e+01	-5.694040e+01
7.400000e-07	-4.437668e-06	-8.199835e-10	-3.091000e+01	-5.676278e+01
7.500000e-07	-4.409632e-06	-8.381416e-10	-3.071472e+01	-5.658311e+01
7.600000e-07	-4.381430e-06	-8.249085e-10	-3.051828e+01	-5.640132e+01
7.700000e-07	-4.352896e-06	-8.118368e-10	-3.031953e+01	-5.621736e+01
7.800000e-07	-4.323966e-06	-8.222316e-10	-3.011803e+01	-5.603115e+01
7.900000e-07	-4.294741e-06	-8.060560e-10	-2.991446e+01	-5.584264e+01
8.000000e-07	-4.265176e-06	-7.956752e-10	-2.970853e+01	-5.565177e+01
8.100000e-07	-4.235345e-06	-8.028563e-10	-2.950075e+01	-5.545846e+01
8.200000e-07	-4.205282e-06	-8.012462e-10	-2.929135e+01	-5.526266e+01
8.300000e-07	-4.174879e-06	-7.820852e-10	-2.907958e+01	-5.506431e+01
8.400000e-07	-4.144166e-06	-7.887912e-10	-2.886565e+01	-5.486334e+01
8.500000e-07	-4.113172e-06	-7.877912e-10	-2.864977e+01	-5.465969e+01
8.600000e-07	-4.081903e-06	-7.733839e-10	-2.843197e+01	-5.445328e+01
8.700000e-07	-4.050407e-06	-7.694527e-10	-2.821258e+01	-5.424404e+01
8.800000e-07	-4.018741e-06	-7.797194e-10	-2.799202e+01	-5.403191e+01
8.900000e-07	-3.986906e-06	-7.705430e-10	-2.777028e+01	-5.381681e+01
9.000000e-07	-3.954867e-06	-7.630333e-10	-2.754711e+01	-5.359866e+01
9.100000e-07	-3.922636e-06	-7.648334e-10	-2.732262e+01	-5.337738e+01
9.200000e-07	-3.890156e-06	-7.554258e-10	-2.709638e+01	-5.315289e+01
9.300000e-07	-3.857284e-06	-7.399038e-10	-2.686741e+01	-5.292511e+01
9.400000e-07	-3.823905e-06	-7.447934e-10	-2.663492e+01	-5.269395e+01
9.500000e-07	-3.789990e-06	-7.475894e-10	-2.639869e+01	-5.245933e+01
9.600000e-07	-3.755629e-06	-7.347313e-10	-2.615935e+01	-5.222117e+01
9.700000e-07	-3.720857e-06	-7.321586e-10	-2.591715e+01	-5.197938e+01
9.800000e-07	-3.685730e-06	-7.356974e-10	-2.567247e+01	-5.173387e+01
9.900000e-07	-3.650347e-06	-7.274548e-10	-2.542602e+01	-5.148458e+01
1.000000e-06	-3.614756e-06	-7.188250e-10	-2.517812e+01	-5.123141e+01
1.010000e-06	-3.579018e-06	-7.223545e-10	-2.492919e+01	-5.097431e+01
1.020000e-06	-3.543158e-06	-7.180633e-10	-2.467941e+01	-5.071320e+01
1.030000e-06	-3.507186e-06	-7.075720e-10	-2.442885e+01	-5.044803e+01
1.040000e-06	-3.471037e-06	-7.056383e-10	-2.417706e+01	-5.017873e+01
1.050000e-06	-3.434625e-06	-7.042224e-10	-2.392344e+01	-4.990527e+01
1.060000e-06	-3.397891e-06	-6.921508e-10	-2.366757e+01	-4.962759e+01
1.070000e-06	-3.360775e-06	-6.908255e-10	-2.340904e+01	-4.934568e+01
1.080000e-06	-3.323397e-06	-6.926544e-10	-2.314869e+01	-4.905951e+01
1.090000e-06	-3.285916e-06	-6.891863e-10	-2.288762e+01	-4.876907e+01
1.100000e-06	-3.248226e-06	-6.805949e-10	-2.262510e+01	-4.847436e+01
1.110000e-06	-3.210309e-06	-6.777203e-10	-2.236099e+01	-4.817540e+01
1.120000e-06	-3.172210e-06	-6.666054e-10	-2.209562e+01	-4.787220e+01
1.130000e-06	-3.133839e-06	-6.556334e-10	-2.182835e+01	-4.756481e+01
1.140000e-06	-3.095203e-06	-6.533283e-10	-2.155923e+01	-4.725325e+01
1.150000e-06	-3.056317e-06	-6.552145e-10	-2.128838e+01	-4.693759e+01
1.160000e-06	-3.017249e-06	-6.495236e-10	-2.101626e+01	-4.661789e+01
1.170000e-06	-2.978028e-06	-6.461561e-10	-2.074307e+01	-4.629421e+01
1.180000e-06	-2.938626e-06	-6.444018e-10	-2.046862e+01	-4.596664e+01
1.190000e-06	-2.899110e-06	-6.390199e-10	-2.019338e+01	-4.563527e+01
1.200000e-06	-2.859450e-06	-6.306413e-10	-1.991713e+01	-4.530017e+01
1.210000e-06	-2.819618e-06	-6.253798e-10	-1.963969e+01	-4.496145e+01
1.220000e-06	-2.779673e-06	-6.192329e-10	-1.936145e+01	-4.461920e+01
1.230000e-06	-2.739577e-06	-6.149965e-10	-1.908217e+01	-4.427351e+01
1.240000e-06	-2.699299e-06	-6.136154e-10	-1.880162e+01	-4.392448e+01
1.250000e-06	-2.658912e-06	-6.093293e-10	-1.852031e+01	-4.357220e+01
1.260000e-06	-2.618307e-06	-6.029655e-10	-1.823748e+01	-4.321674e+01
1.270000e-06	-2.577389e-06	-5.953566e-10	-1.795247e+01	-4.285818e+01
1.280000e-06	-2.536235e-06	-5.888093e-10	-1.766582e+01	-4.249659e+01
1.290000e-06	-2.494825e-06	-5.826650e-10	-1.737738e+01	-4.213200e+01
1.300000e-06	-2.453125e-06	-5.770685e-10	-1.708693e+01	-4.176446e+01
1.310000e-06	-2.411115e-06	-5.720295e-10	-1.679431e+01	-4.139397e+01
1.320000e-06	-2.368835e-06	-5.683918e-10	-1.649981e+01	-4.102053e+01
1.330000e-06	-2.326318e-06	-5.638385e-10	-1.620367e+01	-4.064410e+01
1.340000e-06	-2.283515e-06	-5.600679e-10	-1.590553e+01	-4.026465e+01
1.350000e-06	-2.240502e-06	-5.542081e-10	-1.560592e+01	-3.988207e+01
1.360000e-06	-2.197265e-06	-5.462511e-10	-1.530477e+01	-3.949626e+01
1.370000e-06	-2.153812e-06	-5.373346e-10	-1.500210e+01	-3.910708e+01
1.380000e-06	-2.110288e-06	-5.355865e-10	-1.469894e+01	-3.871435e+01
1.390000e-06	-2.066655e-06	-5.356781e-10	-1.439502e+01	-3.831786e+01
1.400000e-06	-2.022909e-06	-5.336313e-10	-1.409031e+01	-3.791739e+01
1.410000e-06	-1.979141e-06	-5.283666e-10	-1.378545e+01	-3.751264e+01
1.420000e-06	-1.935335e-06	-5.225090e-10	-1.348033e+01	-3.710330e+01
1.430000e-06	-1.891426e-06	-5.153209e-10	-1.317448e+01	-3.668904e+01
1.440000e-06	-1.847319e-06	-5.089380e-10	-1.286726e+01	-3.626946e+01
1.450000e-06	-1.803055e-06	-5.029337e-10	-1.255894e+01	-3.584416e+01
1.460000e-06	-1.758784e-06	-4.974671e-10	-1.225059e+01	-3.541268e+01
1.470000e-06	-1.714509e-06	-4.895290e-10	-1.194219e+01	-3.497454e+01
1.480000e-06	-1.670117e-06	-4.813483e-10	-1.163298e+01	-3.452923e+01
1.490000e-06	-1.625498e-06	-4.719654e-10	-1.132220e+01	-3.407621e+01
1.500000e-06	-1.580667e-06	-4.653405e-10	-1.100993e+01	-3.361492e+01
1.510000e-06	-1.535705e-06	-4.613710e-10	-1.069676e+01	-3.314477e+01
1.520000e-06	-1.490653e-06	-4.548861e-10	-1.038295e+01	-3.266515e+01
1.530000e-06	-1.445532e-06	-4.456791e-10	-1.006867e+01	-3.217544e+01
1.540000e-06	-1.400291e-06	-4.338708e-10	-9.753546e+00	-3.167499e+01
1.550000e-06	-1.354898e-06	-4.212657e-10	-9.437370e+00	-3.116317e+01
1.560000e-06	-1.309449e-06	-4.096423e-10	-9.120798e+00	-3.063931e+01
1.570000e-06	-1.263978e-06	-4.013388e-10	-8.804077e+00	-3.010277e+01
1.580000e-06	-1.218359e-06	-3.966054e-10	-8.486323e+00	-2.955290e+01
1.590000e-06	-1.172573e-06	-3.943217e-10	-8.167408e+00	-2.898905e+01
1.600000e-06	-1.126768e-06	-3.889737e-10	-7.848357e+00	-2.841060e+01
1.610000e-06	-1.080935e-06	-3.792399e-10	-7.529113e+00	-2.781694e+01
1.620000e-06	-1.034994e-06	-3.669533e-10	-7.209118e+00	-2.720747e+01
1.630000e-06	-9.889741e-07	-3.568004e-10	-6.888571e+00	-2.658163e+01
1.640000e-06	-9.428940e-07	-3.487900e-10	-6.567606e+00	-2.593888e+01
1.650000e-06	-8.967928e-07	-3.412477e-10	-6.246494e+00	-2.527874e+01
1.660000e-06	-8.506293e-07	-3.331026e-10	-5.924948e+00	-2.460075e+01
1.670000e-06	-8.043228e-07	-3.246478e-10	-5.602406e+00	-2.390448e+01
1.680000e-06	-7.579248e-07	-3.131021e-10	-5.279227e+00	-2.318958e+01
1.690000e-06	-7.115227e-07	-3.020004e-10	-4.956019e+00	-2.245573e+01
1.700000e-06	-6.651268e-07	-2.885634e-10	-4.632855e+00	-2.170268e+01
1.710000e-06	-6.186759e-07	-2.737932e-10	-4.309307e+00	-2.093021e+01
1.720000e-06	-5.722127e-07	-2.579036e-10	-3.985673e+00	-2.013819e+01
1.730000e-06	-5.256670e-07	-2.417514e-10	-3.661466e+00	-1.932653e+01
1.740000e-06	-4.790958e-07	-2.293222e-10	-3.337080e+00	-1.849523e+01
1.750000e-06	-4.324788e-07	-2.210156e-10	-3.012375e+00	-1.764433e+01
1.760000e-06	-3.857402e-07	-2.143042e-10	-2.686823e+00	-1.677395e+01
1.770000e-06	-3.390538e-07	-2.037627e-10	-2.361635e+00	-1.588427e+01
1.780000e-06	-2.923905e-07	-1.905815e-10	-2.036608e+00	-1.497554e+01
1.790000e-06	-2.456971e-07	-1.744989e-10	-1.711371e+00	-1.404809e+01
1.800000e-06	-1.989439e-07	-1.563645e-10	-1.385718e+00	-1.310230e+01
1.810000e-06	-1.521615e-07	-1.398055e-10	-1.059861e+00	-1.213861e+01
1.820000e-06	-1.054238e-07	-1.295083e-10	-7.343160e-01	-1.115754e+01
1.830000e-06	-5.868219e-08	-1.243697e-10	-4.087432e-01	-1.015967e+01
1.840000e-06	-1.192135e-08	-1.185270e-10	-8.303659e-02	-9.145630e+00
1.850000e-06	3.488370e-08	-1.081599e-10	2.429779e-01	-8.116103e+00
1.860000e-06	8.172057e-08	-9.409188e-11	5.692141e-01	-7.071835e+00
1.870000e-06	1.285554e-07	-7.624337e-11	8.954358e-01	-6.013615e+00
1.880000e-06	1.753406e-07	-5.590698e-11	1.221312e+00	-4.942281e+00
1.890000e-06	2.220540e-07	-3.715869e-11	1.546688e+00	-3.858710e+00
1.900000e-06	2.688551e-07	-2.214324e-11	1.872675e+00	-2.763816e+00
1.910000e-06	3.156825e-07	-1.089304e-11	2.198846e+00	-1.658546e+00
1.920000e-06	3.623917e-07	-2.539291e-12	2.524193e+00	-5.438758e-01
1.930000e-06	4.090841e-07	6.995260e-12	2.849423e+00	5.791966e-01
1.940000e-06	4.557858e-07	2.176234e-11	3.174717e+00	1.709655e+00
1.950000e-06	5.024456e-07	4.138939e-11	3.499720e+00	2.846468e+00
1.960000e-06	5.490606e-07	6.179115e-11	3.824411e+00	3.988596e+00
1.970000e-06	5.955685e-07	7.877184e-11	4.148356e+00	5.134998e+00
1.980000e-06	6.419503e-07	9.201990e-11	4.471422e+00	6.284630e+00
1.990000e-06	6.882818e-07	1.051420e-10	4.794138e+00	7.436453e+00
2.000000e-06	7.345465e-07	1.166978e-10	5.116388e+00	8.589441e+00
2.010000e-06	7.807246e-07	1.308257e-10	5.438036e+00	9.742578e+00
2.020000e-06	8.268611e-07	1.490661e-10	5.759394e+00	1.089487e+01
2.030000e-06	8.730361e-07	1.701380e-10	6.081020e+00	1.204533e+01
2.040000e-06	9.191634e-07	1.916947e-10	6.402314e+00	1.319302e+01
2.050000e-06	9.651576e-07	2.095242e-10	6.722680e+00	1.433701e+01
2.060000e-06	1.011095e-06	2.231766e-10	7.042650e+00	1.547641e+01
2.070000e-06	1.056951e-06	2.355532e-10	7.362059e+00	1.661035e+01
2.080000e-06	1.102750e-06	2.500620e-10	7.681061e+00	1.773802e+01
2.090000e-06	1.148465e-06	2.667442e-10	7.999486e+00	1.885862e+01
2.100000e-06	1.194149e-06	2.866652e-10	8.317689e+00	1.997139e+01
2.110000e-06	1.239743e-06	3.075261e-10	8.635266e+00	2.107564e+01
2.120000e-06	1.285157e-06	3.257402e-10	8.951595e+00	2.217068e+01
2.130000e-06	1.330403e-06	3.412574e-10	9.266750e+00	2.325589e+01
2.140000e-06	1.375561e-06	3.561462e-10	9.581293e+00	2.433066e+01
2.150000e-06	1.420719e-06	3.684925e-10	9.895831e+00	2.539446e+01
2.160000e-06	1.465781e-06	3.810811e-10	1.020971e+01	2.644677e+01
2.170000e-06	1.510720e-06	3.966271e-10	1.052273e+01	2.748711e+01
2.180000e-06	1.555511e-06	4.160172e-10	1.083471e+01	2.851505e+01
2.190000e-06	1.600163e-06	4.343961e-10	1.114573e+01	2.953018e+01
2.200000e-06	1.644719e-06	4.511198e-10	1.145608e+01	3.053214e+01
2.210000e-06	1.689180e-06	4.664362e-10	1.176576e+01	3.152060e+01
2.220000e-06	1.733602e-06	4.794189e-10	1.207518e+01	3.249525e+01
2.230000e-06	1.777924e-06	4.921518e-10	1.238390e+01	3.345583e+01
2.240000e-06	1.822047e-06	5.040523e-10	1.269123e+01	3.440208e+01
2.250000e-06	1.866082e-06	5.161503e-10	1.299795e+01	3.533378e+01
2.260000e-06	1.910092e-06	5.272975e-10	1.330450e+01	3.625075e+01
2.270000e-06	1.954010e-06	5.430602e-10	1.361041e+01	3.715280e+01
2.280000e-06	1.997838e-06	5.608260e-10	1.391568e+01	3.803977e+01
2.290000e-06	2.041584e-06	5.763806e-10	1.422039e+01	3.891153e+01
2.300000e-06	2.085232e-06	5.885167e-10	1.452441e+01	3.976795e+01
2.310000e-06	2.128818e-06	5.972139e-10	1.482800e+01	4.060893e+01
2.320000e-06	2.172319e-06	6.062649e-10	1.513101e+01	4.143436e+01
2.330000e-06	2.215704e-06	6.167387e-10	1.543320e+01	4.224416e+01
2.340000e-06	2.258946e-06	6.291963e-10	1.573440e+01	4.303825e+01
2.350000e-06	2.301945e-06	6.444608e-10	1.603390e+01	4.381656e+01
2.360000e-06	2.344719e-06	6.622464e-10	1.633184e+01	4.457904e+01
2.370000e-06	2.387221e-06	6.764439e-10	1.662788e+01	4.532562e+01
2.380000e-06	2.429385e-06	6.853459e-10	1.692157e+01	4.605627e+01
2.390000e-06	2.471265e-06	6.913430e-10	1.721328e+01	4.677095e+01
2.400000e-06	2.512842e-06	6.954211e-10	1.750288e+01	4.746962e+01
2.410000e-06	2.554079e-06	6.997475e-10	1.779010e+01	4.815226e+01
2.420000e-06	2.594981e-06	7.074417e-10	1.807500e+01	4.881885e+01
2.430000e-06	2.635646e-06	7.197191e-10	1.835825e+01	4.946937e+01
2.440000e-06	2.676037e-06	7.329660e-10	1.863959e+01	5.010384e+01
2.450000e-06	2.716249e-06	7.421374e-10	1.891968e+01	5.072226e+01
2.460000e-06	2.756374e-06	7.491584e-10	1.919917e+01	5.132464e+01
2.470000e-06	2.796330e-06	7.540953e-10	1.947748e+01	5.191102e+01
2.480000e-06	2.836191e-06	7.577108e-10	1.975512e+01	5.248144e+01
2.490000e-06	2.876009e-06	7.635879e-10	2.003247e+01	5.303596e+01
2.500000e-06	2.915703e-06	7.719539e-10	2.030895e+01	5.357464e+01
2.510000e-06	2.955211e-06	7.812473e-10	2.058414e+01	5.409759e+01
2.520000e-06	2.994531e-06	7.903814e-10	2.085802e+01	5.460490e+01
2.530000e-06	3.033633e-06	7.970480e-10	2.113038e+01	5.509670e+01
2.540000e-06	3.072452e-06	7.999581e-10	2.140077e+01	5.557314e+01
2.550000e-06	3.110937e-06	8.015125e-10	2.166883e+01	5.603437e+01
2.560000e-06	3.149159e-06	8.051542e-10	2.193506e+01	5.648059e+01
2.570000e-06	3.187244e-06	8.097540e-10	2.220033e+01	5.691201e+01
2.580000e-06	3.225218e-06	8.136486e-10	2.246484e+01	5.732886e+01
2.590000e-06	3.263054e-06	8.183972e-10	2.272838e+01	5.773139e+01
2.600000e-06	3.300694e-06	8.251974e-10	2.299056e+01	5.811988e+01
2.610000e-06	3.338063e-06	8.303554e-10	2.325085e+01	5.849463e+01
2.620000e-06	3.375087e-06	8.325619e-10	2.350873e+01	5.885597e+01
2.630000e-06	3.411743e-06	8.335136e-10	2.376405e+01	5.920424e+01
2.640000e-06	3.448192e-06	8.355101e-10	2.401794e+01	5.953981e+01
2.650000e-06	3.484488e-06	8.416427e-10	2.427075e+01	5.986306e+01
2.660000e-06	3.520552e-06	8.495477e-10	2.452195e+01	6.017440e+01
2.670000e-06	3.556488e-06	8.560604e-10	2.477226e+01	6.047426e+01
2.680000e-06	3.592340e-06	8.616648e-10	2.502198e+01	6.076306e+01
2.690000e-06	3.627959e-06	8.677409e-10	2.527008e+01	6.104128e+01
2.700000e-06	3.663351e-06	8.718720e-10	2.551660e+01	6.130936e+01
2.710000e-06	3.698595e-06	8.742076e-10	2.576208e+01	6.156779e+01
2.720000e-06	3.733636e-06	8.769562e-10	2.600616e+01	6.181703e+01
2.730000e-06	3.768242e-06	8.802216e-10	2.624720e+01	6.205758e+01
2.740000e-06	3.802404e-06	8.836655e-10	2.648515e+01	6.228993e+01
2.750000e-06	3.836250e-06	8.865191e-10	2.672090e+01	6.251454e+01
2.760000e-06	3.869548e-06	8.897941e-10	2.695284e+01	6.273191e+01
2.770000e-06	3.902274e-06	8.946739e-10	2.718079e+01	6.294250e+01
2.780000e-06	3.934665e-06	8.993858e-10	2.740640e+01	6.314677e+01
2.790000e-06	3.966812e-06	9.028456e-10	2.763032e+01	6.334518e+01
2.800000e-06	3.998713e-06	9.053422e-10	2.785252e+01	6.353814e+01
2.810000e-06	4.030482e-06	9.089247e-10	2.807380e+01	6.372609e+01
2.820000e-06	4.062137e-06	9.141012e-10	2.829429e+01	6.390940e+01
2.830000e-06	4.093641e-06	9.201646e-10	2.851373e+01	6.408845e+01
2.840000e-06	4.124862e-06	9.265790e-10	2.873120e+01	6.426357e+01
2.850000e-06	4.155685e-06	9.339722e-10	2.894589e+01	6.443508e+01
2.860000e-06	4.186209e-06	9.398112e-10	2.915850e+01	6.460327e+01
2.870000e-06	4.216433e-06	9.407974e-10	2.936902e+01	6.476838e+01
2.880000e-06	4.246388e-06	9.393588e-10	2.957767e+01	6.493063e+01
2.890000e-06	4.276147e-06	9.396095e-10	2.978495e+01	6.509022e+01
2.900000e-06	4.305613e-06	9.432801e-10	2.999019e+01	6.524729e+01
