# Temperatura_=_-5.87
# Concentracion g/m^3_=_1620.0
# C_Vs_to_Am_M_A/Vsm_=_65563218390.804596
# pendiente_HvsI_1/m_=_3716.3
# ordenada_HvsI_A/m_=_1297.0
# frecuencia_Hz_=_135108.58010337866

Tiempo_(s)	Campo_(V.s)	Magnetizacion_(V.s)	Campo_(kA/m)	Magnetizacion_(A/m)
0.000000e+00	-5.521180e-06	-5.997883e-10	-3.836050e+01	-4.225420e+01
1.000000e-08	-5.521459e-06	-5.971778e-10	-3.836244e+01	-4.223347e+01
2.000000e-08	-5.521372e-06	-5.977211e-10	-3.836184e+01	-4.221747e+01
3.000000e-08	-5.520929e-06	-5.985819e-10	-3.835876e+01	-4.220621e+01
4.000000e-08	-5.519975e-06	-5.963845e-10	-3.835213e+01	-4.219964e+01
5.000000e-08	-5.518544e-06	-5.860939e-10	-3.834219e+01	-4.219768e+01
6.000000e-08	-5.516649e-06	-5.816251e-10	-3.832902e+01	-4.220022e+01
7.000000e-08	-5.514070e-06	-5.975198e-10	-3.831110e+01	-4.220711e+01
8.000000e-08	-5.510899e-06	-6.253253e-10	-3.828907e+01	-4.221816e+01
9.000000e-08	-5.507335e-06	-6.462004e-10	-3.826431e+01	-4.223317e+01
1.000000e-07	-5.503304e-06	-6.158104e-10	-3.823630e+01	-4.225187e+01
1.100000e-07	-5.498848e-06	-5.310246e-10	-3.820535e+01	-4.227401e+01
1.200000e-07	-5.494256e-06	-5.479725e-10	-3.817344e+01	-4.229927e+01
1.300000e-07	-5.489470e-06	-6.397837e-10	-3.814019e+01	-4.232732e+01
1.400000e-07	-5.484194e-06	-6.522909e-10	-3.810353e+01	-4.235782e+01
1.500000e-07	-5.478479e-06	-5.242618e-10	-3.806382e+01	-4.239040e+01
1.600000e-07	-5.472569e-06	-4.962774e-10	-3.802276e+01	-4.242467e+01
1.700000e-07	-5.466249e-06	-6.191917e-10	-3.797885e+01	-4.246024e+01
1.800000e-07	-5.459411e-06	-7.002875e-10	-3.793134e+01	-4.249668e+01
1.900000e-07	-5.452229e-06	-5.898759e-10	-3.788144e+01	-4.253360e+01
2.000000e-07	-5.444823e-06	-5.406898e-10	-3.782998e+01	-4.257056e+01
2.100000e-07	-5.437195e-06	-6.197875e-10	-3.777699e+01	-4.260715e+01
2.200000e-07	-5.429194e-06	-6.903718e-10	-3.772139e+01	-4.264295e+01
2.300000e-07	-5.420872e-06	-6.276771e-10	-3.766358e+01	-4.267755e+01
2.400000e-07	-5.412140e-06	-5.801970e-10	-3.760291e+01	-4.271056e+01
2.500000e-07	-5.402662e-06	-6.342746e-10	-3.753705e+01	-4.274158e+01
2.600000e-07	-5.392490e-06	-6.820062e-10	-3.746638e+01	-4.277025e+01
2.700000e-07	-5.381924e-06	-6.376817e-10	-3.739297e+01	-4.279621e+01
2.800000e-07	-5.370919e-06	-5.950176e-10	-3.731651e+01	-4.281913e+01
2.900000e-07	-5.359431e-06	-6.438814e-10	-3.723669e+01	-4.283870e+01
3.000000e-07	-5.347554e-06	-6.606170e-10	-3.715417e+01	-4.285465e+01
3.100000e-07	-5.335327e-06	-6.236797e-10	-3.706922e+01	-4.286672e+01
3.200000e-07	-5.322628e-06	-5.980262e-10	-3.698099e+01	-4.287468e+01
3.300000e-07	-5.309549e-06	-6.581051e-10	-3.689012e+01	-4.287835e+01
3.400000e-07	-5.296078e-06	-6.646725e-10	-3.679652e+01	-4.287755e+01
3.500000e-07	-5.282029e-06	-6.327791e-10	-3.669891e+01	-4.287217e+01
3.600000e-07	-5.267529e-06	-6.086226e-10	-3.659817e+01	-4.286210e+01
3.700000e-07	-5.252643e-06	-6.581901e-10	-3.649474e+01	-4.284728e+01
3.800000e-07	-5.237269e-06	-6.462092e-10	-3.638792e+01	-4.282767e+01
3.900000e-07	-5.221333e-06	-6.229767e-10	-3.627720e+01	-4.280328e+01
4.000000e-07	-5.205033e-06	-6.441492e-10	-3.616395e+01	-4.277415e+01
4.100000e-07	-5.188482e-06	-6.814216e-10	-3.604896e+01	-4.274032e+01
4.200000e-07	-5.171480e-06	-6.192746e-10	-3.593083e+01	-4.270190e+01
4.300000e-07	-5.154137e-06	-6.096187e-10	-3.581033e+01	-4.265899e+01
4.400000e-07	-5.136545e-06	-6.842960e-10	-3.568810e+01	-4.261174e+01
4.500000e-07	-5.118556e-06	-6.757702e-10	-3.556312e+01	-4.256032e+01
4.600000e-07	-5.100089e-06	-5.951898e-10	-3.543481e+01	-4.250492e+01
4.700000e-07	-5.081269e-06	-6.444859e-10	-3.530405e+01	-4.244573e+01
4.800000e-07	-5.062264e-06	-7.010932e-10	-3.517201e+01	-4.238297e+01
4.900000e-07	-5.042924e-06	-6.286308e-10	-3.503764e+01	-4.231689e+01
5.000000e-07	-5.023279e-06	-6.109334e-10	-3.490114e+01	-4.224772e+01
5.100000e-07	-5.003382e-06	-6.813179e-10	-3.476290e+01	-4.217572e+01
5.200000e-07	-4.983144e-06	-6.451005e-10	-3.462230e+01	-4.210114e+01
5.300000e-07	-4.962576e-06	-5.962899e-10	-3.447939e+01	-4.202423e+01
5.400000e-07	-4.941716e-06	-6.722425e-10	-3.433446e+01	-4.194527e+01
5.500000e-07	-4.920502e-06	-6.749371e-10	-3.418706e+01	-4.186450e+01
5.600000e-07	-4.898922e-06	-5.936088e-10	-3.403713e+01	-4.178218e+01
5.700000e-07	-4.877019e-06	-6.281130e-10	-3.388495e+01	-4.169853e+01
5.800000e-07	-4.854750e-06	-6.916061e-10	-3.373023e+01	-4.161380e+01
5.900000e-07	-4.832087e-06	-6.244227e-10	-3.357277e+01	-4.152820e+01
6.000000e-07	-4.809137e-06	-6.082526e-10	-3.341331e+01	-4.144193e+01
6.100000e-07	-4.785938e-06	-6.656620e-10	-3.325213e+01	-4.135518e+01
6.200000e-07	-4.762455e-06	-6.422766e-10	-3.308897e+01	-4.126811e+01
6.300000e-07	-4.738727e-06	-5.967326e-10	-3.292411e+01	-4.118089e+01
6.400000e-07	-4.714739e-06	-6.446177e-10	-3.275745e+01	-4.109363e+01
6.500000e-07	-4.690301e-06	-6.524405e-10	-3.258766e+01	-4.100644e+01
6.600000e-07	-4.665411e-06	-6.169550e-10	-3.241472e+01	-4.091942e+01
6.700000e-07	-4.640124e-06	-6.318885e-10	-3.223903e+01	-4.083262e+01
6.800000e-07	-4.614328e-06	-6.534198e-10	-3.205981e+01	-4.074610e+01
6.900000e-07	-4.587962e-06	-6.186609e-10	-3.187662e+01	-4.065987e+01
7.000000e-07	-4.561130e-06	-6.187545e-10	-3.169019e+01	-4.057393e+01
7.100000e-07	-4.533992e-06	-6.381431e-10	-3.150164e+01	-4.048827e+01
7.200000e-07	-4.506617e-06	-6.282151e-10	-3.131144e+01	-4.040285e+01
7.300000e-07	-4.479010e-06	-6.181521e-10	-3.111963e+01	-4.031760e+01
7.400000e-07	-4.451164e-06	-6.355065e-10	-3.092616e+01	-4.023246e+01
7.500000e-07	-4.423029e-06	-6.314459e-10	-3.073068e+01	-4.014732e+01
7.600000e-07	-4.394611e-06	-6.195841e-10	-3.053324e+01	-4.006210e+01
7.700000e-07	-4.365955e-06	-6.218210e-10	-3.033414e+01	-3.997666e+01
7.800000e-07	-4.337046e-06	-6.193881e-10	-3.013328e+01	-3.989088e+01
7.900000e-07	-4.307827e-06	-6.107730e-10	-2.993027e+01	-3.980463e+01
8.000000e-07	-4.278274e-06	-6.143412e-10	-2.972494e+01	-3.971775e+01
8.100000e-07	-4.248477e-06	-6.143761e-10	-2.951792e+01	-3.963010e+01
8.200000e-07	-4.218420e-06	-6.069527e-10	-2.930908e+01	-3.954152e+01
8.300000e-07	-4.187997e-06	-6.115681e-10	-2.909771e+01	-3.945185e+01
8.400000e-07	-4.157213e-06	-6.114226e-10	-2.888382e+01	-3.936095e+01
8.500000e-07	-4.126251e-06	-5.967526e-10	-2.866870e+01	-3.926866e+01
8.600000e-07	-4.095088e-06	-5.890106e-10	-2.845218e+01	-3.917482e+01
8.700000e-07	-4.063651e-06	-5.945368e-10	-2.823377e+01	-3.907930e+01
8.800000e-07	-4.032077e-06	-5.868937e-10	-2.801439e+01	-3.898196e+01
8.900000e-07	-4.000388e-06	-5.837760e-10	-2.779422e+01	-3.888266e+01
9.000000e-07	-3.968476e-06	-5.863756e-10	-2.757250e+01	-3.878130e+01
9.100000e-07	-3.936183e-06	-5.841222e-10	-2.734813e+01	-3.867775e+01
9.200000e-07	-3.903381e-06	-5.753127e-10	-2.712023e+01	-3.857193e+01
9.300000e-07	-3.870152e-06	-5.772554e-10	-2.688936e+01	-3.846374e+01
9.400000e-07	-3.836495e-06	-5.721242e-10	-2.665551e+01	-3.835311e+01
9.500000e-07	-3.802423e-06	-5.651236e-10	-2.641878e+01	-3.823998e+01
9.600000e-07	-3.767990e-06	-5.661495e-10	-2.617955e+01	-3.812431e+01
9.700000e-07	-3.733107e-06	-5.703490e-10	-2.593719e+01	-3.800604e+01
9.800000e-07	-3.697917e-06	-5.631525e-10	-2.569269e+01	-3.788517e+01
9.900000e-07	-3.662582e-06	-5.629020e-10	-2.544718e+01	-3.776167e+01
1.000000e-06	-3.627118e-06	-5.665669e-10	-2.520079e+01	-3.763555e+01
1.010000e-06	-3.591531e-06	-5.649412e-10	-2.495353e+01	-3.750681e+01
1.020000e-06	-3.555769e-06	-5.620747e-10	-2.470506e+01	-3.737548e+01
1.030000e-06	-3.519785e-06	-5.646517e-10	-2.445505e+01	-3.724157e+01
1.040000e-06	-3.483553e-06	-5.615390e-10	-2.420331e+01	-3.710513e+01
1.050000e-06	-3.447050e-06	-5.557553e-10	-2.394969e+01	-3.696619e+01
1.060000e-06	-3.410293e-06	-5.546585e-10	-2.369431e+01	-3.682479e+01
1.070000e-06	-3.373277e-06	-5.549704e-10	-2.343713e+01	-3.668099e+01
1.080000e-06	-3.335992e-06	-5.502092e-10	-2.317808e+01	-3.653482e+01
1.090000e-06	-3.298484e-06	-5.475975e-10	-2.291747e+01	-3.638635e+01
1.100000e-06	-3.260751e-06	-5.480246e-10	-2.265531e+01	-3.623560e+01
1.110000e-06	-3.222831e-06	-5.439455e-10	-2.239185e+01	-3.608264e+01
1.120000e-06	-3.184671e-06	-5.402533e-10	-2.212672e+01	-3.592748e+01
1.130000e-06	-3.146254e-06	-5.383571e-10	-2.185980e+01	-3.577018e+01
1.140000e-06	-3.107627e-06	-5.347405e-10	-2.159143e+01	-3.561074e+01
1.150000e-06	-3.068751e-06	-5.261083e-10	-2.132132e+01	-3.544919e+01
1.160000e-06	-3.029728e-06	-5.206544e-10	-2.105019e+01	-3.528552e+01
1.170000e-06	-2.990604e-06	-5.182251e-10	-2.077836e+01	-3.511974e+01
1.180000e-06	-2.951304e-06	-5.183689e-10	-2.050531e+01	-3.495182e+01
1.190000e-06	-2.911828e-06	-5.166924e-10	-2.023104e+01	-3.478172e+01
1.200000e-06	-2.872235e-06	-5.152362e-10	-1.995595e+01	-3.460941e+01
1.210000e-06	-2.832552e-06	-5.131060e-10	-1.968023e+01	-3.443482e+01
1.220000e-06	-2.792684e-06	-5.120998e-10	-1.940324e+01	-3.425786e+01
1.230000e-06	-2.752541e-06	-5.094024e-10	-1.912433e+01	-3.407846e+01
1.240000e-06	-2.712113e-06	-5.050853e-10	-1.884344e+01	-3.389648e+01
1.250000e-06	-2.671484e-06	-4.976848e-10	-1.856116e+01	-3.371182e+01
1.260000e-06	-2.630680e-06	-4.912830e-10	-1.827765e+01	-3.352432e+01
1.270000e-06	-2.589543e-06	-4.860801e-10	-1.799184e+01	-3.333383e+01
1.280000e-06	-2.548074e-06	-4.839371e-10	-1.770371e+01	-3.314018e+01
1.290000e-06	-2.506367e-06	-4.835464e-10	-1.741394e+01	-3.294317e+01
1.300000e-06	-2.464437e-06	-4.833702e-10	-1.712262e+01	-3.274259e+01
1.310000e-06	-2.422268e-06	-4.799445e-10	-1.682963e+01	-3.253824e+01
1.320000e-06	-2.379776e-06	-4.727557e-10	-1.653440e+01	-3.232988e+01
1.330000e-06	-2.337017e-06	-4.633472e-10	-1.623732e+01	-3.211727e+01
1.340000e-06	-2.294094e-06	-4.559608e-10	-1.593910e+01	-3.190014e+01
1.350000e-06	-2.250934e-06	-4.514472e-10	-1.563922e+01	-3.167825e+01
1.360000e-06	-2.207605e-06	-4.487504e-10	-1.533818e+01	-3.145130e+01
1.370000e-06	-2.164204e-06	-4.472332e-10	-1.503663e+01	-3.121902e+01
1.380000e-06	-2.120704e-06	-4.498414e-10	-1.473440e+01	-3.098113e+01
1.390000e-06	-2.077107e-06	-4.503210e-10	-1.443149e+01	-3.073732e+01
1.400000e-06	-2.033480e-06	-4.442596e-10	-1.412838e+01	-3.048729e+01
1.410000e-06	-1.989820e-06	-4.365654e-10	-1.382503e+01	-3.023074e+01
1.420000e-06	-1.946022e-06	-4.281916e-10	-1.352073e+01	-2.996737e+01
1.430000e-06	-1.902107e-06	-4.237318e-10	-1.321561e+01	-2.969687e+01
1.440000e-06	-1.858089e-06	-4.219803e-10	-1.290978e+01	-2.941894e+01
1.450000e-06	-1.813904e-06	-4.221932e-10	-1.260279e+01	-2.913326e+01
1.460000e-06	-1.769570e-06	-4.222668e-10	-1.229477e+01	-2.883953e+01
1.470000e-06	-1.725086e-06	-4.168715e-10	-1.198569e+01	-2.853745e+01
1.480000e-06	-1.680428e-06	-4.075562e-10	-1.167542e+01	-2.822673e+01
1.490000e-06	-1.635753e-06	-3.992035e-10	-1.136502e+01	-2.790707e+01
1.500000e-06	-1.590963e-06	-3.934424e-10	-1.105382e+01	-2.757819e+01
1.510000e-06	-1.545941e-06	-3.898830e-10	-1.074102e+01	-2.723979e+01
1.520000e-06	-1.500818e-06	-3.856821e-10	-1.042751e+01	-2.689162e+01
1.530000e-06	-1.455615e-06	-3.815878e-10	-1.011344e+01	-2.653339e+01
1.540000e-06	-1.410251e-06	-3.773171e-10	-9.798256e+00	-2.616485e+01
1.550000e-06	-1.364765e-06	-3.725321e-10	-9.482224e+00	-2.578576e+01
1.560000e-06	-1.319264e-06	-3.643582e-10	-9.166091e+00	-2.539585e+01
1.570000e-06	-1.273696e-06	-3.535217e-10	-8.849489e+00	-2.499491e+01
1.580000e-06	-1.228025e-06	-3.447693e-10	-8.532171e+00	-2.458270e+01
1.590000e-06	-1.182292e-06	-3.380652e-10	-8.214426e+00	-2.415902e+01
1.600000e-06	-1.136440e-06	-3.323611e-10	-7.895849e+00	-2.372365e+01
1.610000e-06	-1.090508e-06	-3.271854e-10	-7.576720e+00	-2.327640e+01
1.620000e-06	-1.044560e-06	-3.221811e-10	-7.257480e+00	-2.281708e+01
1.630000e-06	-9.984753e-07	-3.153279e-10	-6.937288e+00	-2.234554e+01
1.640000e-06	-9.522499e-07	-3.076900e-10	-6.616119e+00	-2.186159e+01
1.650000e-06	-9.059672e-07	-3.001490e-10	-6.294552e+00	-2.136510e+01
1.660000e-06	-8.596171e-07	-2.931363e-10	-5.972517e+00	-2.085593e+01
1.670000e-06	-8.132271e-07	-2.843260e-10	-5.650205e+00	-2.033394e+01
1.680000e-06	-7.668129e-07	-2.720419e-10	-5.327725e+00	-1.979904e+01
1.690000e-06	-7.203662e-07	-2.629217e-10	-5.005019e+00	-1.925113e+01
1.700000e-06	-6.738395e-07	-2.570775e-10	-4.681757e+00	-1.869011e+01
1.710000e-06	-6.272250e-07	-2.527946e-10	-4.357885e+00	-1.811593e+01
1.720000e-06	-5.806711e-07	-2.466844e-10	-4.034434e+00	-1.752853e+01
1.730000e-06	-5.341033e-07	-2.350180e-10	-3.710886e+00	-1.692789e+01
1.740000e-06	-4.873838e-07	-2.206693e-10	-3.386285e+00	-1.631397e+01
1.750000e-06	-4.405031e-07	-2.071466e-10	-3.060564e+00	-1.568680e+01
1.760000e-06	-3.935810e-07	-1.959243e-10	-2.734554e+00	-1.504638e+01
1.770000e-06	-3.467446e-07	-1.868381e-10	-2.409141e+00	-1.439276e+01
1.780000e-06	-2.999554e-07	-1.796807e-10	-2.084054e+00	-1.372601e+01
1.790000e-06	-2.531635e-07	-1.740862e-10	-1.758950e+00	-1.304621e+01
1.800000e-06	-2.062658e-07	-1.667632e-10	-1.433110e+00	-1.235347e+01
1.810000e-06	-1.592739e-07	-1.571531e-10	-1.106616e+00	-1.164794e+01
1.820000e-06	-1.122702e-07	-1.475713e-10	-7.800400e-01	-1.092977e+01
1.830000e-06	-6.529645e-08	-1.404498e-10	-4.536720e-01	-1.019915e+01
1.840000e-06	-1.837855e-08	-1.329726e-10	-1.276920e-01	-9.456308e+00
1.850000e-06	2.851736e-08	-1.232580e-10	1.981353e-01	-8.701482e+00
1.860000e-06	7.538697e-08	-1.151938e-10	5.237797e-01	-7.934951e+00
1.870000e-06	1.223184e-07	-1.080618e-10	8.498534e-01	-7.157023e+00
1.880000e-06	1.692617e-07	-9.758487e-11	1.176010e+00	-6.368036e+00
1.890000e-06	2.160515e-07	-8.259110e-11	1.501100e+00	-5.568361e+00
1.900000e-06	2.627849e-07	-6.615899e-11	1.825798e+00	-4.758402e+00
1.910000e-06	3.095299e-07	-5.185271e-11	2.150577e+00	-3.938593e+00
1.920000e-06	3.563103e-07	-4.193215e-11	2.475601e+00	-3.109403e+00
1.930000e-06	4.031441e-07	-3.526682e-11	2.800998e+00	-2.271331e+00
1.940000e-06	4.499390e-07	-2.643909e-11	3.126123e+00	-1.424911e+00
1.950000e-06	4.966253e-07	-1.514726e-11	3.450494e+00	-5.707070e-01
1.960000e-06	5.432016e-07	-2.215472e-12	3.774100e+00	2.906856e-01
1.970000e-06	5.897790e-07	1.002845e-11	4.097715e+00	1.158641e+00
1.980000e-06	6.363360e-07	2.124553e-11	4.421187e+00	2.032505e+00
1.990000e-06	6.828019e-07	3.446365e-11	4.744027e+00	2.911595e+00
2.000000e-06	7.292604e-07	4.569817e-11	5.066815e+00	3.795203e+00
2.010000e-06	7.756786e-07	5.657296e-11	5.389323e+00	4.682596e+00
2.020000e-06	8.220173e-07	6.950072e-11	5.711278e+00	5.573018e+00
2.030000e-06	8.682103e-07	8.454203e-11	6.032222e+00	6.465695e+00
2.040000e-06	9.142313e-07	9.930816e-11	6.351971e+00	7.359832e+00
2.050000e-06	9.602122e-07	1.133692e-10	6.671440e+00	8.254621e+00
2.060000e-06	1.006183e-06	1.264496e-10	6.990839e+00	9.149240e+00
2.070000e-06	1.052172e-06	1.388086e-10	7.310368e+00	1.004286e+01
2.080000e-06	1.098125e-06	1.537326e-10	7.629645e+00	1.093464e+01
2.090000e-06	1.143926e-06	1.701032e-10	7.947860e+00	1.182374e+01
2.100000e-06	1.189621e-06	1.864159e-10	8.265344e+00	1.270931e+01
2.110000e-06	1.235275e-06	2.004397e-10	8.582544e+00	1.359052e+01
2.120000e-06	1.280815e-06	2.118506e-10	8.898953e+00	1.446654e+01
2.130000e-06	1.326217e-06	2.223001e-10	9.214400e+00	1.533654e+01
2.140000e-06	1.371564e-06	2.332934e-10	9.529462e+00	1.619970e+01
2.150000e-06	1.416890e-06	2.454532e-10	9.844385e+00	1.705524e+01
2.160000e-06	1.462156e-06	2.580231e-10	1.015888e+01	1.790238e+01
2.170000e-06	1.507308e-06	2.705116e-10	1.047260e+01	1.874036e+01
2.180000e-06	1.552322e-06	2.851208e-10	1.078535e+01	1.956846e+01
2.190000e-06	1.597194e-06	2.981149e-10	1.109712e+01	2.038598e+01
2.200000e-06	1.641920e-06	3.089581e-10	1.140787e+01	2.119224e+01
2.210000e-06	1.686493e-06	3.188108e-10	1.171755e+01	2.198662e+01
2.220000e-06	1.730895e-06	3.268752e-10	1.202605e+01	2.276852e+01
2.230000e-06	1.775181e-06	3.361062e-10	1.233375e+01	2.353737e+01
2.240000e-06	1.819435e-06	3.455125e-10	1.264122e+01	2.429266e+01
2.250000e-06	1.863567e-06	3.555485e-10	1.294784e+01	2.503392e+01
2.260000e-06	1.907479e-06	3.650276e-10	1.325294e+01	2.576070e+01
2.270000e-06	1.951239e-06	3.767751e-10	1.355698e+01	2.647261e+01
2.280000e-06	1.994960e-06	3.913135e-10	1.386075e+01	2.716933e+01
2.290000e-06	2.038615e-06	4.037503e-10	1.416406e+01	2.785053e+01
2.300000e-06	2.082156e-06	4.122341e-10	1.446657e+01	2.851599e+01
2.310000e-06	2.125633e-06	4.164661e-10	1.476865e+01	2.916548e+01
2.320000e-06	2.169039e-06	4.196469e-10	1.507022e+01	2.979885e+01
2.330000e-06	2.212377e-06	4.249253e-10	1.537133e+01	3.041599e+01
2.340000e-06	2.255685e-06	4.333537e-10	1.567223e+01	3.101682e+01
2.350000e-06	2.298917e-06	4.478843e-10	1.597260e+01	3.160132e+01
2.360000e-06	2.342012e-06	4.642661e-10	1.627202e+01	3.216950e+01
2.370000e-06	2.384836e-06	4.755531e-10	1.656956e+01	3.272141e+01
2.380000e-06	2.427338e-06	4.802856e-10	1.686485e+01	3.325715e+01
2.390000e-06	2.469659e-06	4.827902e-10	1.715890e+01	3.377685e+01
2.400000e-06	2.511770e-06	4.842989e-10	1.745148e+01	3.428066e+01
2.410000e-06	2.553498e-06	4.875476e-10	1.774140e+01	3.476878e+01
2.420000e-06	2.594749e-06	4.951330e-10	1.802801e+01	3.524143e+01
2.430000e-06	2.635549e-06	5.056317e-10	1.831148e+01	3.569885e+01
2.440000e-06	2.676086e-06	5.167650e-10	1.859313e+01	3.614131e+01
2.450000e-06	2.716453e-06	5.238980e-10	1.887360e+01	3.656910e+01
2.460000e-06	2.756637e-06	5.298485e-10	1.915279e+01	3.698253e+01
2.470000e-06	2.796661e-06	5.351783e-10	1.943087e+01	3.738191e+01
2.480000e-06	2.836503e-06	5.404252e-10	1.970769e+01	3.776757e+01
2.490000e-06	2.876153e-06	5.463158e-10	1.998317e+01	3.813985e+01
2.500000e-06	2.915653e-06	5.514096e-10	2.025761e+01	3.849909e+01
2.510000e-06	2.955039e-06	5.544810e-10	2.053126e+01	3.884565e+01
2.520000e-06	2.994362e-06	5.563922e-10	2.080447e+01	3.917986e+01
2.530000e-06	3.033581e-06	5.596489e-10	2.107696e+01	3.950207e+01
2.540000e-06	3.072572e-06	5.640452e-10	2.134786e+01	3.981262e+01
2.550000e-06	3.111273e-06	5.693775e-10	2.161676e+01	4.011184e+01
2.560000e-06	3.149739e-06	5.760309e-10	2.188402e+01	4.040006e+01
2.570000e-06	3.188006e-06	5.804894e-10	2.214989e+01	4.067759e+01
2.580000e-06	3.226048e-06	5.818683e-10	2.241420e+01	4.094474e+01
2.590000e-06	3.263856e-06	5.830649e-10	2.267689e+01	4.120179e+01
2.600000e-06	3.301489e-06	5.869446e-10	2.293835e+01	4.144903e+01
2.610000e-06	3.338939e-06	5.911559e-10	2.319855e+01	4.168672e+01
2.620000e-06	3.376114e-06	5.950457e-10	2.345684e+01	4.191511e+01
2.630000e-06	3.413035e-06	5.998898e-10	2.371336e+01	4.213443e+01
2.640000e-06	3.449699e-06	6.032046e-10	2.396810e+01	4.234491e+01
2.650000e-06	3.486096e-06	6.052920e-10	2.422098e+01	4.254675e+01
2.660000e-06	3.522242e-06	6.058845e-10	2.447212e+01	4.274014e+01
2.670000e-06	3.558157e-06	6.048468e-10	2.472166e+01	4.292526e+01
2.680000e-06	3.593934e-06	6.062525e-10	2.497023e+01	4.310228e+01
2.690000e-06	3.629578e-06	6.113976e-10	2.521788e+01	4.327136e+01
2.700000e-06	3.665033e-06	6.187922e-10	2.546422e+01	4.343263e+01
2.710000e-06	3.700318e-06	6.230732e-10	2.570937e+01	4.358625e+01
2.720000e-06	3.735434e-06	6.241448e-10	2.595335e+01	4.373233e+01
2.730000e-06	3.770235e-06	6.241918e-10	2.619514e+01	4.387099e+01
2.740000e-06	3.804620e-06	6.219907e-10	2.643405e+01	4.400237e+01
2.750000e-06	3.838627e-06	6.187263e-10	2.667033e+01	4.412656e+01
2.760000e-06	3.872246e-06	6.179648e-10	2.690391e+01	4.424369e+01
2.770000e-06	3.905378e-06	6.221978e-10	2.713410e+01	4.435388e+01
2.780000e-06	3.938019e-06	6.293776e-10	2.736089e+01	4.445723e+01
2.790000e-06	3.970299e-06	6.354935e-10	2.758516e+01	4.455386e+01
2.800000e-06	4.002312e-06	6.377430e-10	2.780759e+01	4.464390e+01
2.810000e-06	4.034115e-06	6.384182e-10	2.802855e+01	4.472747e+01
2.820000e-06	4.065710e-06	6.384246e-10	2.824807e+01	4.480471e+01
2.830000e-06	4.097150e-06	6.370918e-10	2.846651e+01	4.487577e+01
2.840000e-06	4.128462e-06	6.371834e-10	2.868406e+01	4.494078e+01
2.850000e-06	4.159511e-06	6.418623e-10	2.889979e+01	4.499992e+01
2.860000e-06	4.190174e-06	6.491280e-10	2.911283e+01	4.505334e+01
2.870000e-06	4.220534e-06	6.530464e-10	2.932377e+01	4.510123e+01
2.880000e-06	4.250587e-06	6.521830e-10	2.953258e+01	4.514378e+01
2.890000e-06	4.280329e-06	6.510780e-10	2.973922e+01	4.518117e+01
2.900000e-06	4.309827e-06	6.499598e-10	2.994417e+01	4.521363e+01
