# Temperatura_=_-0.56
# Concentracion g/m^3_=_1620.0
# C_Vs_to_Am_M_A/Vsm_=_65563218390.804596
# pendiente_HvsI_1/m_=_3716.3
# ordenada_HvsI_A/m_=_1297.0
# frecuencia_Hz_=_135094.6705124506

Tiempo_(s)	Campo_(V.s)	Magnetizacion_(V.s)	Campo_(kA/m)	Magnetizacion_(A/m)
0.000000e+00	-5.507136e-06	-1.339211e-09	-3.837539e+01	-8.814891e+01
1.000000e-08	-5.507460e-06	-1.335707e-09	-3.837765e+01	-8.809174e+01
2.000000e-08	-5.507518e-06	-1.334491e-09	-3.837805e+01	-8.803566e+01
3.000000e-08	-5.507320e-06	-1.333043e-09	-3.837667e+01	-8.798063e+01
4.000000e-08	-5.506756e-06	-1.327883e-09	-3.837274e+01	-8.792657e+01
5.000000e-08	-5.505696e-06	-1.317270e-09	-3.836535e+01	-8.787338e+01
6.000000e-08	-5.504066e-06	-1.305291e-09	-3.835400e+01	-8.782095e+01
7.000000e-08	-5.501754e-06	-1.315638e-09	-3.833789e+01	-8.776915e+01
8.000000e-08	-5.498850e-06	-1.352541e-09	-3.831765e+01	-8.771783e+01
9.000000e-08	-5.495471e-06	-1.391766e-09	-3.829411e+01	-8.766682e+01
1.000000e-07	-5.491611e-06	-1.400337e-09	-3.826721e+01	-8.761593e+01
1.100000e-07	-5.487353e-06	-1.355844e-09	-3.823754e+01	-8.756497e+01
1.200000e-07	-5.482883e-06	-1.297245e-09	-3.820639e+01	-8.751375e+01
1.300000e-07	-5.478188e-06	-1.279933e-09	-3.817368e+01	-8.746203e+01
1.400000e-07	-5.473197e-06	-1.328772e-09	-3.813890e+01	-8.740960e+01
1.500000e-07	-5.467863e-06	-1.337595e-09	-3.810173e+01	-8.735622e+01
1.600000e-07	-5.462135e-06	-1.293113e-09	-3.806181e+01	-8.730166e+01
1.700000e-07	-5.455970e-06	-1.304204e-09	-3.801885e+01	-8.724568e+01
1.800000e-07	-5.449301e-06	-1.341668e-09	-3.797238e+01	-8.718803e+01
1.900000e-07	-5.442240e-06	-1.369808e-09	-3.792318e+01	-8.712847e+01
2.000000e-07	-5.434894e-06	-1.295348e-09	-3.787199e+01	-8.706677e+01
2.100000e-07	-5.427299e-06	-1.301618e-09	-3.781906e+01	-8.700267e+01
2.200000e-07	-5.419425e-06	-1.339443e-09	-3.776420e+01	-8.693595e+01
2.300000e-07	-5.411260e-06	-1.372435e-09	-3.770730e+01	-8.686637e+01
2.400000e-07	-5.402653e-06	-1.326752e-09	-3.764732e+01	-8.679369e+01
2.500000e-07	-5.393582e-06	-1.306970e-09	-3.758412e+01	-8.671771e+01
2.600000e-07	-5.383894e-06	-1.312565e-09	-3.751660e+01	-8.663820e+01
2.700000e-07	-5.373467e-06	-1.314929e-09	-3.744394e+01	-8.655496e+01
2.800000e-07	-5.362492e-06	-1.287991e-09	-3.736747e+01	-8.646779e+01
2.900000e-07	-5.351103e-06	-1.293590e-09	-3.728811e+01	-8.637650e+01
3.000000e-07	-5.339428e-06	-1.317432e-09	-3.720675e+01	-8.628092e+01
3.100000e-07	-5.327418e-06	-1.294757e-09	-3.712306e+01	-8.618087e+01
3.200000e-07	-5.314963e-06	-1.279167e-09	-3.703627e+01	-8.607619e+01
3.300000e-07	-5.301958e-06	-1.276895e-09	-3.694565e+01	-8.596674e+01
3.400000e-07	-5.288642e-06	-1.292003e-09	-3.685286e+01	-8.585238e+01
3.500000e-07	-5.274997e-06	-1.271237e-09	-3.675777e+01	-8.573299e+01
3.600000e-07	-5.260882e-06	-1.279135e-09	-3.665942e+01	-8.560844e+01
3.700000e-07	-5.246389e-06	-1.277099e-09	-3.655843e+01	-8.547863e+01
3.800000e-07	-5.231445e-06	-1.283129e-09	-3.645429e+01	-8.534348e+01
3.900000e-07	-5.215880e-06	-1.269720e-09	-3.634583e+01	-8.520289e+01
4.000000e-07	-5.199802e-06	-1.270901e-09	-3.623379e+01	-8.505679e+01
4.100000e-07	-5.183377e-06	-1.263555e-09	-3.611934e+01	-8.490513e+01
4.200000e-07	-5.166475e-06	-1.273557e-09	-3.600157e+01	-8.474784e+01
4.300000e-07	-5.149317e-06	-1.262120e-09	-3.588200e+01	-8.458490e+01
4.400000e-07	-5.132041e-06	-1.265725e-09	-3.576161e+01	-8.441626e+01
4.500000e-07	-5.114380e-06	-1.270566e-09	-3.563855e+01	-8.424191e+01
4.600000e-07	-5.096163e-06	-1.275774e-09	-3.551161e+01	-8.406183e+01
4.700000e-07	-5.077436e-06	-1.245490e-09	-3.538111e+01	-8.387602e+01
4.800000e-07	-5.058423e-06	-1.256292e-09	-3.524862e+01	-8.368449e+01
4.900000e-07	-5.039086e-06	-1.270772e-09	-3.511388e+01	-8.348724e+01
5.000000e-07	-5.019453e-06	-1.258658e-09	-3.497707e+01	-8.328431e+01
5.100000e-07	-4.999625e-06	-1.234701e-09	-3.483890e+01	-8.307573e+01
5.200000e-07	-4.979557e-06	-1.250463e-09	-3.469906e+01	-8.286153e+01
5.300000e-07	-4.959081e-06	-1.245711e-09	-3.455638e+01	-8.264176e+01
5.400000e-07	-4.938249e-06	-1.232680e-09	-3.441121e+01	-8.241648e+01
5.500000e-07	-4.917156e-06	-1.238966e-09	-3.426423e+01	-8.218575e+01
5.600000e-07	-4.895702e-06	-1.237866e-09	-3.411473e+01	-8.194964e+01
5.700000e-07	-4.873944e-06	-1.212044e-09	-3.396312e+01	-8.170823e+01
5.800000e-07	-4.851857e-06	-1.217103e-09	-3.380921e+01	-8.146159e+01
5.900000e-07	-4.829302e-06	-1.235211e-09	-3.365204e+01	-8.120983e+01
6.000000e-07	-4.806414e-06	-1.219047e-09	-3.349255e+01	-8.095303e+01
6.100000e-07	-4.783271e-06	-1.205602e-09	-3.333128e+01	-8.069130e+01
6.200000e-07	-4.759903e-06	-1.212620e-09	-3.316845e+01	-8.042475e+01
6.300000e-07	-4.736306e-06	-1.207766e-09	-3.300401e+01	-8.015349e+01
6.400000e-07	-4.712342e-06	-1.186529e-09	-3.283703e+01	-7.987763e+01
6.500000e-07	-4.688110e-06	-1.192671e-09	-3.266817e+01	-7.959729e+01
6.600000e-07	-4.663592e-06	-1.193979e-09	-3.249732e+01	-7.931261e+01
6.700000e-07	-4.638597e-06	-1.186399e-09	-3.232315e+01	-7.902371e+01
6.800000e-07	-4.613048e-06	-1.180645e-09	-3.214512e+01	-7.873072e+01
6.900000e-07	-4.586925e-06	-1.189059e-09	-3.196308e+01	-7.843378e+01
7.000000e-07	-4.560324e-06	-1.175779e-09	-3.177772e+01	-7.813301e+01
7.100000e-07	-4.533372e-06	-1.165837e-09	-3.158991e+01	-7.782855e+01
7.200000e-07	-4.506071e-06	-1.161982e-09	-3.139967e+01	-7.752054e+01
7.300000e-07	-4.478505e-06	-1.163672e-09	-3.120758e+01	-7.720911e+01
7.400000e-07	-4.450774e-06	-1.149384e-09	-3.101434e+01	-7.689440e+01
7.500000e-07	-4.422868e-06	-1.144099e-09	-3.081988e+01	-7.657653e+01
7.600000e-07	-4.394730e-06	-1.140212e-09	-3.062381e+01	-7.625562e+01
7.700000e-07	-4.366298e-06	-1.135328e-09	-3.042569e+01	-7.593181e+01
7.800000e-07	-4.337501e-06	-1.121783e-09	-3.022502e+01	-7.560521e+01
7.900000e-07	-4.308397e-06	-1.122532e-09	-3.002221e+01	-7.527593e+01
8.000000e-07	-4.278993e-06	-1.119127e-09	-2.981732e+01	-7.494407e+01
8.100000e-07	-4.249283e-06	-1.108768e-09	-2.961029e+01	-7.460973e+01
8.200000e-07	-4.219313e-06	-1.098791e-09	-2.940145e+01	-7.427301e+01
8.300000e-07	-4.189033e-06	-1.097248e-09	-2.919045e+01	-7.393398e+01
8.400000e-07	-4.158491e-06	-1.089889e-09	-2.897762e+01	-7.359271e+01
8.500000e-07	-4.127682e-06	-1.081802e-09	-2.876294e+01	-7.324926e+01
8.600000e-07	-4.096535e-06	-1.075995e-09	-2.854589e+01	-7.290368e+01
8.700000e-07	-4.065221e-06	-1.068853e-09	-2.832769e+01	-7.255601e+01
8.800000e-07	-4.033794e-06	-1.060115e-09	-2.810870e+01	-7.220628e+01
8.900000e-07	-4.002124e-06	-1.055254e-09	-2.788801e+01	-7.185450e+01
9.000000e-07	-3.970260e-06	-1.053043e-09	-2.766597e+01	-7.150067e+01
9.100000e-07	-3.938161e-06	-1.042552e-09	-2.744230e+01	-7.114478e+01
9.200000e-07	-3.905693e-06	-1.034245e-09	-2.721605e+01	-7.078681e+01
9.300000e-07	-3.872833e-06	-1.028049e-09	-2.698707e+01	-7.042672e+01
9.400000e-07	-3.839525e-06	-1.022271e-09	-2.675498e+01	-7.006446e+01
9.500000e-07	-3.805703e-06	-1.011375e-09	-2.651929e+01	-6.969999e+01
9.600000e-07	-3.771517e-06	-1.004885e-09	-2.628107e+01	-6.933321e+01
9.700000e-07	-3.736911e-06	-9.948293e-10	-2.603993e+01	-6.896406e+01
9.800000e-07	-3.701846e-06	-9.903922e-10	-2.579558e+01	-6.859245e+01
9.900000e-07	-3.666530e-06	-9.889158e-10	-2.554949e+01	-6.821826e+01
1.000000e-06	-3.631070e-06	-9.885180e-10	-2.530240e+01	-6.784139e+01
1.010000e-06	-3.595461e-06	-9.810560e-10	-2.505426e+01	-6.746173e+01
1.020000e-06	-3.559700e-06	-9.750641e-10	-2.480507e+01	-6.707914e+01
1.030000e-06	-3.523831e-06	-9.666106e-10	-2.455512e+01	-6.669350e+01
1.040000e-06	-3.487698e-06	-9.584099e-10	-2.430334e+01	-6.630467e+01
1.050000e-06	-3.451252e-06	-9.483844e-10	-2.404937e+01	-6.591252e+01
1.060000e-06	-3.414633e-06	-9.423748e-10	-2.379419e+01	-6.551690e+01
1.070000e-06	-3.377840e-06	-9.328901e-10	-2.353781e+01	-6.511767e+01
1.080000e-06	-3.340763e-06	-9.263086e-10	-2.327945e+01	-6.471468e+01
1.090000e-06	-3.303377e-06	-9.204409e-10	-2.301893e+01	-6.430781e+01
1.100000e-06	-3.265798e-06	-9.162123e-10	-2.275707e+01	-6.389690e+01
1.110000e-06	-3.228038e-06	-9.103101e-10	-2.249395e+01	-6.348183e+01
1.120000e-06	-3.190033e-06	-9.041037e-10	-2.222912e+01	-6.306246e+01
1.130000e-06	-3.151872e-06	-8.967314e-10	-2.196320e+01	-6.263866e+01
1.140000e-06	-3.113455e-06	-8.873258e-10	-2.169550e+01	-6.221033e+01
1.150000e-06	-3.074697e-06	-8.778487e-10	-2.142542e+01	-6.177734e+01
1.160000e-06	-3.035750e-06	-8.697689e-10	-2.115402e+01	-6.133958e+01
1.170000e-06	-2.996659e-06	-8.629690e-10	-2.088163e+01	-6.089697e+01
1.180000e-06	-2.957406e-06	-8.603133e-10	-2.060810e+01	-6.044942e+01
1.190000e-06	-2.918019e-06	-8.594944e-10	-2.033364e+01	-5.999683e+01
1.200000e-06	-2.878501e-06	-8.543970e-10	-2.005827e+01	-5.953914e+01
1.210000e-06	-2.838833e-06	-8.480846e-10	-1.978185e+01	-5.907629e+01
1.220000e-06	-2.799016e-06	-8.387513e-10	-1.950439e+01	-5.860821e+01
1.230000e-06	-2.759020e-06	-8.281232e-10	-1.922568e+01	-5.813486e+01
1.240000e-06	-2.718908e-06	-8.180627e-10	-1.894618e+01	-5.765619e+01
1.250000e-06	-2.678675e-06	-8.122467e-10	-1.866582e+01	-5.717216e+01
1.260000e-06	-2.638165e-06	-8.070617e-10	-1.838353e+01	-5.668275e+01
1.270000e-06	-2.597442e-06	-8.010103e-10	-1.809976e+01	-5.618791e+01
1.280000e-06	-2.556486e-06	-7.909315e-10	-1.781437e+01	-5.568762e+01
1.290000e-06	-2.515286e-06	-7.837907e-10	-1.752728e+01	-5.518185e+01
1.300000e-06	-2.473827e-06	-7.767586e-10	-1.723838e+01	-5.467057e+01
1.310000e-06	-2.432005e-06	-7.692526e-10	-1.694695e+01	-5.415374e+01
1.320000e-06	-2.389886e-06	-7.589126e-10	-1.665345e+01	-5.363133e+01
1.330000e-06	-2.347479e-06	-7.478724e-10	-1.635794e+01	-5.310329e+01
1.340000e-06	-2.304726e-06	-7.377205e-10	-1.606003e+01	-5.256955e+01
1.350000e-06	-2.261637e-06	-7.306174e-10	-1.575977e+01	-5.203006e+01
1.360000e-06	-2.218320e-06	-7.211755e-10	-1.545793e+01	-5.148473e+01
1.370000e-06	-2.174951e-06	-7.120192e-10	-1.515572e+01	-5.093347e+01
1.380000e-06	-2.131506e-06	-7.052244e-10	-1.485298e+01	-5.037616e+01
1.390000e-06	-2.087905e-06	-7.009268e-10	-1.454916e+01	-4.981266e+01
1.400000e-06	-2.044217e-06	-6.912142e-10	-1.424472e+01	-4.924283e+01
1.410000e-06	-2.000478e-06	-6.804956e-10	-1.393993e+01	-4.866649e+01
1.420000e-06	-1.956692e-06	-6.715944e-10	-1.363482e+01	-4.808342e+01
1.430000e-06	-1.912832e-06	-6.638376e-10	-1.332919e+01	-4.749341e+01
1.440000e-06	-1.868830e-06	-6.556633e-10	-1.302258e+01	-4.689620e+01
1.450000e-06	-1.824782e-06	-6.452232e-10	-1.271563e+01	-4.629151e+01
1.460000e-06	-1.780639e-06	-6.345163e-10	-1.240803e+01	-4.567901e+01
1.470000e-06	-1.736366e-06	-6.223335e-10	-1.209952e+01	-4.505838e+01
1.480000e-06	-1.692014e-06	-6.093672e-10	-1.179046e+01	-4.442924e+01
1.490000e-06	-1.647465e-06	-5.985387e-10	-1.148003e+01	-4.379119e+01
1.500000e-06	-1.602755e-06	-5.899704e-10	-1.116848e+01	-4.314381e+01
1.510000e-06	-1.557883e-06	-5.835132e-10	-1.085580e+01	-4.248663e+01
1.520000e-06	-1.512904e-06	-5.772559e-10	-1.054237e+01	-4.181917e+01
1.530000e-06	-1.467933e-06	-5.668973e-10	-1.022900e+01	-4.114092e+01
1.540000e-06	-1.422791e-06	-5.531649e-10	-9.914441e+00	-4.045135e+01
1.550000e-06	-1.377469e-06	-5.363560e-10	-9.598623e+00	-3.974991e+01
1.560000e-06	-1.332080e-06	-5.226546e-10	-9.282339e+00	-3.903601e+01
1.570000e-06	-1.286581e-06	-5.104993e-10	-8.965289e+00	-3.830908e+01
1.580000e-06	-1.240922e-06	-5.001104e-10	-8.647122e+00	-3.756851e+01
1.590000e-06	-1.195188e-06	-4.909987e-10	-8.328428e+00	-3.681369e+01
1.600000e-06	-1.149497e-06	-4.827618e-10	-8.010044e+00	-3.604399e+01
1.610000e-06	-1.103701e-06	-4.703513e-10	-7.690925e+00	-3.525880e+01
1.620000e-06	-1.057785e-06	-4.567337e-10	-7.370970e+00	-3.445749e+01
1.630000e-06	-1.011850e-06	-4.468961e-10	-7.050879e+00	-3.363946e+01
1.640000e-06	-9.657921e-07	-4.376788e-10	-6.729932e+00	-3.280410e+01
1.650000e-06	-9.196327e-07	-4.250328e-10	-6.408279e+00	-3.195082e+01
1.660000e-06	-8.734721e-07	-4.111105e-10	-6.086618e+00	-3.107905e+01
1.670000e-06	-8.271898e-07	-3.961322e-10	-5.764109e+00	-3.018826e+01
1.680000e-06	-7.808844e-07	-3.797906e-10	-5.441439e+00	-2.927793e+01
1.690000e-06	-7.346816e-07	-3.648394e-10	-5.119484e+00	-2.834757e+01
1.700000e-06	-6.883948e-07	-3.520792e-10	-4.796943e+00	-2.739676e+01
1.710000e-06	-6.420308e-07	-3.383205e-10	-4.473865e+00	-2.642508e+01
1.720000e-06	-5.956714e-07	-3.242073e-10	-4.150819e+00	-2.543220e+01
1.730000e-06	-5.492144e-07	-3.076207e-10	-3.827092e+00	-2.441782e+01
1.740000e-06	-5.026612e-07	-2.873192e-10	-3.502695e+00	-2.338170e+01
1.750000e-06	-4.560358e-07	-2.666413e-10	-3.177796e+00	-2.232366e+01
1.760000e-06	-4.093290e-07	-2.509417e-10	-2.852328e+00	-2.124358e+01
1.770000e-06	-3.626521e-07	-2.380694e-10	-2.527070e+00	-2.014141e+01
1.780000e-06	-3.160565e-07	-2.239020e-10	-2.202377e+00	-1.901718e+01
1.790000e-06	-2.694881e-07	-2.106223e-10	-1.877875e+00	-1.787098e+01
1.800000e-06	-2.228419e-07	-1.965352e-10	-1.552830e+00	-1.670298e+01
1.810000e-06	-1.760829e-07	-1.791660e-10	-1.226999e+00	-1.551342e+01
1.820000e-06	-1.293612e-07	-1.598734e-10	-9.014284e-01	-1.430263e+01
1.830000e-06	-8.270954e-08	-1.419017e-10	-5.763451e-01	-1.307100e+01
1.840000e-06	-3.605076e-08	-1.263450e-10	-2.512126e-01	-1.181901e+01
1.850000e-06	1.067232e-08	-1.111208e-10	7.436797e-02	-1.054721e+01
1.860000e-06	5.743501e-08	-9.375734e-11	4.002246e-01	-9.256244e+00
1.870000e-06	1.040785e-07	-7.697037e-11	7.252508e-01	-7.946809e+00
1.880000e-06	1.507290e-07	-5.854705e-11	1.050325e+00	-6.619690e+00
1.890000e-06	1.974214e-07	-3.811994e-11	1.375692e+00	-5.275739e+00
1.900000e-06	2.440551e-07	-1.831644e-11	1.700650e+00	-3.915878e+00
1.910000e-06	2.908004e-07	-7.725852e-13	2.026385e+00	-2.541092e+00
1.920000e-06	3.375593e-07	1.634386e-11	2.352216e+00	-1.152432e+00
1.930000e-06	3.841846e-07	3.375444e-11	2.677115e+00	2.489982e-01
1.940000e-06	4.307638e-07	5.206369e-11	3.001693e+00	1.662037e+00
1.950000e-06	4.772896e-07	7.182468e-11	3.325898e+00	3.085478e+00
1.960000e-06	5.237772e-07	9.268933e-11	3.649838e+00	4.518068e+00
1.970000e-06	5.702200e-07	1.131980e-10	3.973465e+00	5.958518e+00
1.980000e-06	6.165509e-07	1.321205e-10	4.296313e+00	7.405508e+00
1.990000e-06	6.628430e-07	1.491351e-10	4.618891e+00	8.857688e+00
2.000000e-06	7.091301e-07	1.667793e-10	4.941433e+00	1.031369e+01
2.010000e-06	7.553881e-07	1.847580e-10	5.263773e+00	1.177213e+01
2.020000e-06	8.016212e-07	2.051120e-10	5.585940e+00	1.323162e+01
2.030000e-06	8.478409e-07	2.302371e-10	5.908012e+00	1.469077e+01
2.040000e-06	8.939628e-07	2.546387e-10	6.229403e+00	1.614818e+01
2.050000e-06	9.399798e-07	2.731990e-10	6.550064e+00	1.760248e+01
2.060000e-06	9.859890e-07	2.884141e-10	6.870670e+00	1.905231e+01
2.070000e-06	1.031890e-06	3.038018e-10	7.190521e+00	2.049632e+01
2.080000e-06	1.077666e-06	3.221745e-10	7.509506e+00	2.193321e+01
2.090000e-06	1.123348e-06	3.433916e-10	7.827830e+00	2.336170e+01
2.100000e-06	1.169014e-06	3.677302e-10	8.146042e+00	2.478054e+01
2.110000e-06	1.214659e-06	3.934931e-10	8.464111e+00	2.618854e+01
2.120000e-06	1.260151e-06	4.123880e-10	8.781111e+00	2.758454e+01
2.130000e-06	1.305524e-06	4.267048e-10	9.097288e+00	2.896746e+01
2.140000e-06	1.350862e-06	4.430331e-10	9.413218e+00	3.033624e+01
2.150000e-06	1.396112e-06	4.622548e-10	9.728534e+00	3.168990e+01
2.160000e-06	1.441132e-06	4.827334e-10	1.004225e+01	3.302753e+01
2.170000e-06	1.485986e-06	5.039556e-10	1.035480e+01	3.434825e+01
2.180000e-06	1.530769e-06	5.272077e-10	1.066686e+01	3.565127e+01
2.190000e-06	1.575529e-06	5.507186e-10	1.097877e+01	3.693587e+01
2.200000e-06	1.620205e-06	5.675331e-10	1.129008e+01	3.820139e+01
2.210000e-06	1.664718e-06	5.794091e-10	1.160026e+01	3.944724e+01
2.220000e-06	1.709140e-06	5.897998e-10	1.190981e+01	4.067289e+01
2.230000e-06	1.753406e-06	6.021704e-10	1.221826e+01	4.187790e+01
2.240000e-06	1.797473e-06	6.192174e-10	1.252533e+01	4.306187e+01
2.250000e-06	1.841486e-06	6.383648e-10	1.283203e+01	4.422449e+01
2.260000e-06	1.885500e-06	6.571629e-10	1.313874e+01	4.536550e+01
2.270000e-06	1.929400e-06	6.752699e-10	1.344464e+01	4.648471e+01
2.280000e-06	1.973173e-06	6.944503e-10	1.374967e+01	4.758198e+01
2.290000e-06	2.016913e-06	7.101825e-10	1.405446e+01	4.865725e+01
2.300000e-06	2.060595e-06	7.244411e-10	1.435885e+01	4.971049e+01
2.310000e-06	2.104241e-06	7.368624e-10	1.466299e+01	5.074174e+01
2.320000e-06	2.147778e-06	7.482907e-10	1.496637e+01	5.175107e+01
2.330000e-06	2.191170e-06	7.606317e-10	1.526874e+01	5.273862e+01
2.340000e-06	2.234450e-06	7.747647e-10	1.557032e+01	5.370454e+01
2.350000e-06	2.277624e-06	7.942221e-10	1.587117e+01	5.464905e+01
2.360000e-06	2.320620e-06	8.116219e-10	1.617079e+01	5.557239e+01
2.370000e-06	2.363278e-06	8.287489e-10	1.646804e+01	5.647482e+01
2.380000e-06	2.405590e-06	8.388941e-10	1.676288e+01	5.735665e+01
2.390000e-06	2.447633e-06	8.417219e-10	1.705585e+01	5.821818e+01
2.400000e-06	2.489273e-06	8.476248e-10	1.734601e+01	5.905976e+01
2.410000e-06	2.530457e-06	8.550911e-10	1.763299e+01	5.988175e+01
2.420000e-06	2.571475e-06	8.681600e-10	1.791882e+01	6.068450e+01
2.430000e-06	2.612363e-06	8.841078e-10	1.820374e+01	6.146839e+01
2.440000e-06	2.653012e-06	9.019740e-10	1.848699e+01	6.223382e+01
2.450000e-06	2.693405e-06	9.149822e-10	1.876846e+01	6.298115e+01
2.460000e-06	2.733555e-06	9.219695e-10	1.904824e+01	6.371078e+01
2.470000e-06	2.773496e-06	9.300062e-10	1.932656e+01	6.442309e+01
2.480000e-06	2.813319e-06	9.403228e-10	1.960406e+01	6.511847e+01
2.490000e-06	2.853083e-06	9.509698e-10	1.988115e+01	6.579728e+01
2.500000e-06	2.892745e-06	9.616070e-10	2.015752e+01	6.645990e+01
2.510000e-06	2.932278e-06	9.714293e-10	2.043300e+01	6.710669e+01
2.520000e-06	2.971623e-06	9.799895e-10	2.070717e+01	6.773799e+01
2.530000e-06	3.010743e-06	9.896253e-10	2.097977e+01	6.835416e+01
2.540000e-06	3.049593e-06	9.956877e-10	2.125049e+01	6.895552e+01
2.550000e-06	3.088278e-06	1.001270e-09	2.152006e+01	6.954239e+01
2.560000e-06	3.126764e-06	1.009663e-09	2.178824e+01	7.011509e+01
2.570000e-06	3.164957e-06	1.018257e-09	2.205438e+01	7.067391e+01
2.580000e-06	3.202973e-06	1.025084e-09	2.231929e+01	7.121915e+01
2.590000e-06	3.240811e-06	1.031718e-09	2.258295e+01	7.175109e+01
2.600000e-06	3.278393e-06	1.039729e-09	2.284484e+01	7.226999e+01
2.610000e-06	3.315745e-06	1.045810e-09	2.310511e+01	7.277613e+01
2.620000e-06	3.352874e-06	1.049292e-09	2.336384e+01	7.326976e+01
2.630000e-06	3.389716e-06	1.052963e-09	2.362057e+01	7.375114e+01
2.640000e-06	3.426271e-06	1.059167e-09	2.387529e+01	7.422052e+01
2.650000e-06	3.462587e-06	1.068624e-09	2.412835e+01	7.467813e+01
2.660000e-06	3.498687e-06	1.078237e-09	2.437991e+01	7.512422e+01
2.670000e-06	3.534619e-06	1.087311e-09	2.463030e+01	7.555904e+01
2.680000e-06	3.570457e-06	1.093965e-09	2.488003e+01	7.598282e+01
2.690000e-06	3.606189e-06	1.099614e-09	2.512902e+01	7.639581e+01
2.700000e-06	3.641754e-06	1.104476e-09	2.537684e+01	7.679826e+01
2.710000e-06	3.677137e-06	1.108112e-09	2.562341e+01	7.719040e+01
2.720000e-06	3.712307e-06	1.110867e-09	2.586848e+01	7.757249e+01
2.730000e-06	3.747109e-06	1.115814e-09	2.611099e+01	7.794479e+01
2.740000e-06	3.781544e-06	1.123585e-09	2.635094e+01	7.830755e+01
2.750000e-06	3.815596e-06	1.129601e-09	2.658823e+01	7.866104e+01
2.760000e-06	3.849289e-06	1.134880e-09	2.682301e+01	7.900552e+01
2.770000e-06	3.882435e-06	1.139199e-09	2.705398e+01	7.934128e+01
2.780000e-06	3.914950e-06	1.141638e-09	2.728055e+01	7.966858e+01
2.790000e-06	3.947154e-06	1.144843e-09	2.750497e+01	7.998772e+01
2.800000e-06	3.979189e-06	1.150313e-09	2.772819e+01	8.029897e+01
2.810000e-06	4.011097e-06	1.156059e-09	2.795054e+01	8.060264e+01
2.820000e-06	4.042840e-06	1.160843e-09	2.817173e+01	8.089899e+01
2.830000e-06	4.074377e-06	1.165797e-09	2.839149e+01	8.118834e+01
2.840000e-06	4.105648e-06	1.170748e-09	2.860940e+01	8.147097e+01
2.850000e-06	4.136614e-06	1.176635e-09	2.882518e+01	8.174717e+01
2.860000e-06	4.167269e-06	1.183020e-09	2.903879e+01	8.201723e+01
2.870000e-06	4.197650e-06	1.187298e-09	2.925050e+01	8.228143e+01
2.880000e-06	4.227784e-06	1.189943e-09	2.946048e+01	8.254004e+01
2.890000e-06	4.257630e-06	1.193370e-09	2.966845e+01	8.279334e+01
2.900000e-06	4.287144e-06	1.198484e-09	2.987412e+01	8.304158e+01
