# Temperatura_=_-9.56
# Concentracion g/m^3_=_1620.0
# C_Vs_to_Am_M_A/Vsm_=_65563218390.804596
# pendiente_HvsI_1/m_=_3716.3
# ordenada_HvsI_A/m_=_1297.0
# frecuencia_Hz_=_135107.84343420027

Tiempo_(s)	Campo_(V.s)	Magnetizacion_(V.s)	Campo_(kA/m)	Magnetizacion_(A/m)
0.000000e+00	-5.516370e-06	-5.688874e-10	-3.836438e+01	-4.029095e+01
1.000000e-08	-5.516628e-06	-5.683017e-10	-3.836618e+01	-4.027021e+01
2.000000e-08	-5.516591e-06	-5.666190e-10	-3.836592e+01	-4.025325e+01
3.000000e-08	-5.516253e-06	-5.650389e-10	-3.836357e+01	-4.024009e+01
4.000000e-08	-5.515474e-06	-5.597154e-10	-3.835815e+01	-4.023071e+01
5.000000e-08	-5.514115e-06	-5.493450e-10	-3.834870e+01	-4.022507e+01
6.000000e-08	-5.512086e-06	-5.493602e-10	-3.833459e+01	-4.022311e+01
7.000000e-08	-5.509566e-06	-5.782478e-10	-3.831706e+01	-4.022474e+01
8.000000e-08	-5.506622e-06	-6.012192e-10	-3.829659e+01	-4.022984e+01
9.000000e-08	-5.503174e-06	-5.779175e-10	-3.827261e+01	-4.023827e+01
1.000000e-07	-5.499270e-06	-5.525975e-10	-3.824546e+01	-4.024986e+01
1.100000e-07	-5.495024e-06	-5.703486e-10	-3.821593e+01	-4.026443e+01
1.200000e-07	-5.490588e-06	-5.972939e-10	-3.818508e+01	-4.028174e+01
1.300000e-07	-5.485856e-06	-5.624006e-10	-3.815217e+01	-4.030158e+01
1.400000e-07	-5.480754e-06	-5.209861e-10	-3.811668e+01	-4.032366e+01
1.500000e-07	-5.475313e-06	-5.494501e-10	-3.807885e+01	-4.034773e+01
1.600000e-07	-5.469465e-06	-5.815178e-10	-3.803818e+01	-4.037347e+01
1.700000e-07	-5.463247e-06	-5.693016e-10	-3.799493e+01	-4.040057e+01
1.800000e-07	-5.456698e-06	-5.299947e-10	-3.794938e+01	-4.042870e+01
1.900000e-07	-5.449814e-06	-5.590974e-10	-3.790151e+01	-4.045753e+01
2.000000e-07	-5.442530e-06	-5.853997e-10	-3.785085e+01	-4.048669e+01
2.100000e-07	-5.434851e-06	-5.976978e-10	-3.779745e+01	-4.051584e+01
2.200000e-07	-5.426923e-06	-5.859458e-10	-3.774231e+01	-4.054460e+01
2.300000e-07	-5.418730e-06	-5.980197e-10	-3.768533e+01	-4.057261e+01
2.400000e-07	-5.410028e-06	-5.932942e-10	-3.762481e+01	-4.059951e+01
2.500000e-07	-5.400737e-06	-5.946080e-10	-3.756020e+01	-4.062494e+01
2.600000e-07	-5.390870e-06	-5.969489e-10	-3.749158e+01	-4.064853e+01
2.700000e-07	-5.380445e-06	-5.984932e-10	-3.741908e+01	-4.066994e+01
2.800000e-07	-5.369544e-06	-6.015173e-10	-3.734326e+01	-4.068884e+01
2.900000e-07	-5.358142e-06	-6.033052e-10	-3.726396e+01	-4.070490e+01
3.000000e-07	-5.346261e-06	-6.050498e-10	-3.718134e+01	-4.071781e+01
3.100000e-07	-5.334028e-06	-5.930041e-10	-3.709626e+01	-4.072729e+01
3.200000e-07	-5.321462e-06	-6.110731e-10	-3.700886e+01	-4.073307e+01
3.300000e-07	-5.308461e-06	-6.148654e-10	-3.691845e+01	-4.073489e+01
3.400000e-07	-5.294983e-06	-6.058920e-10	-3.682472e+01	-4.073254e+01
3.500000e-07	-5.281055e-06	-5.943496e-10	-3.672785e+01	-4.072583e+01
3.600000e-07	-5.266815e-06	-6.189140e-10	-3.662882e+01	-4.071458e+01
3.700000e-07	-5.252196e-06	-6.082894e-10	-3.652715e+01	-4.069864e+01
3.800000e-07	-5.236999e-06	-6.036108e-10	-3.642146e+01	-4.067792e+01
3.900000e-07	-5.221314e-06	-6.238360e-10	-3.631237e+01	-4.065231e+01
4.000000e-07	-5.205245e-06	-6.304664e-10	-3.620062e+01	-4.062178e+01
4.100000e-07	-5.188712e-06	-5.904915e-10	-3.608564e+01	-4.058629e+01
4.200000e-07	-5.171745e-06	-6.038604e-10	-3.596764e+01	-4.054584e+01
4.300000e-07	-5.154467e-06	-6.364041e-10	-3.584748e+01	-4.050048e+01
4.400000e-07	-5.136842e-06	-6.143976e-10	-3.572490e+01	-4.045027e+01
4.500000e-07	-5.118765e-06	-5.905057e-10	-3.559918e+01	-4.039529e+01
4.600000e-07	-5.100291e-06	-6.289278e-10	-3.547070e+01	-4.033566e+01
4.700000e-07	-5.081583e-06	-6.285408e-10	-3.534060e+01	-4.027152e+01
4.800000e-07	-5.062611e-06	-5.947425e-10	-3.520865e+01	-4.020303e+01
4.900000e-07	-5.043338e-06	-6.127727e-10	-3.507461e+01	-4.013039e+01
5.000000e-07	-5.023801e-06	-6.350798e-10	-3.493874e+01	-4.005380e+01
5.100000e-07	-5.003962e-06	-6.044487e-10	-3.480077e+01	-3.997348e+01
5.200000e-07	-4.983776e-06	-6.061882e-10	-3.466038e+01	-3.988966e+01
5.300000e-07	-4.963236e-06	-6.376934e-10	-3.451753e+01	-3.980260e+01
5.400000e-07	-4.942426e-06	-6.162311e-10	-3.437281e+01	-3.971257e+01
5.500000e-07	-4.921290e-06	-5.962483e-10	-3.422582e+01	-3.961982e+01
5.600000e-07	-4.899755e-06	-6.210024e-10	-3.407605e+01	-3.952464e+01
5.700000e-07	-4.877886e-06	-6.188464e-10	-3.392396e+01	-3.942731e+01
5.800000e-07	-4.855671e-06	-5.937171e-10	-3.376946e+01	-3.932810e+01
5.900000e-07	-4.833075e-06	-6.130494e-10	-3.361231e+01	-3.922729e+01
6.000000e-07	-4.810203e-06	-6.228856e-10	-3.345324e+01	-3.912515e+01
6.100000e-07	-4.787080e-06	-6.008119e-10	-3.329243e+01	-3.902195e+01
6.200000e-07	-4.763612e-06	-6.008497e-10	-3.312922e+01	-3.891795e+01
6.300000e-07	-4.739885e-06	-6.149599e-10	-3.296421e+01	-3.881340e+01
6.400000e-07	-4.715863e-06	-5.941508e-10	-3.279714e+01	-3.870853e+01
6.500000e-07	-4.691400e-06	-5.891210e-10	-3.262701e+01	-3.860356e+01
6.600000e-07	-4.666587e-06	-6.029237e-10	-3.245445e+01	-3.849869e+01
6.700000e-07	-4.641392e-06	-5.987866e-10	-3.227922e+01	-3.839411e+01
6.800000e-07	-4.615647e-06	-5.928123e-10	-3.210017e+01	-3.828999e+01
6.900000e-07	-4.589380e-06	-6.103638e-10	-3.191750e+01	-3.818648e+01
7.000000e-07	-4.562737e-06	-6.062919e-10	-3.173220e+01	-3.808371e+01
7.100000e-07	-4.535735e-06	-5.939204e-10	-3.154442e+01	-3.798178e+01
7.200000e-07	-4.508382e-06	-5.985597e-10	-3.135419e+01	-3.788078e+01
7.300000e-07	-4.480751e-06	-6.008896e-10	-3.116202e+01	-3.778078e+01
7.400000e-07	-4.452890e-06	-5.861143e-10	-3.096826e+01	-3.768181e+01
7.500000e-07	-4.424863e-06	-5.874820e-10	-3.077335e+01	-3.758391e+01
7.600000e-07	-4.396613e-06	-5.927608e-10	-3.057687e+01	-3.748707e+01
7.700000e-07	-4.368061e-06	-5.845952e-10	-3.037830e+01	-3.739127e+01
7.800000e-07	-4.339188e-06	-5.806214e-10	-3.017750e+01	-3.729648e+01
7.900000e-07	-4.310051e-06	-5.863772e-10	-2.997486e+01	-3.720264e+01
8.000000e-07	-4.280592e-06	-5.773579e-10	-2.976999e+01	-3.710968e+01
8.100000e-07	-4.250764e-06	-5.684554e-10	-2.956255e+01	-3.701752e+01
8.200000e-07	-4.220630e-06	-5.729730e-10	-2.935298e+01	-3.692604e+01
8.300000e-07	-4.190220e-06	-5.688126e-10	-2.914148e+01	-3.683514e+01
8.400000e-07	-4.159604e-06	-5.596253e-10	-2.892856e+01	-3.674469e+01
8.500000e-07	-4.128760e-06	-5.591468e-10	-2.871405e+01	-3.665455e+01
8.600000e-07	-4.097622e-06	-5.593955e-10	-2.849750e+01	-3.656458e+01
8.700000e-07	-4.066209e-06	-5.539780e-10	-2.827903e+01	-3.647463e+01
8.800000e-07	-4.034604e-06	-5.569572e-10	-2.805923e+01	-3.638455e+01
8.900000e-07	-4.002815e-06	-5.594383e-10	-2.783815e+01	-3.629418e+01
9.000000e-07	-3.970825e-06	-5.526310e-10	-2.761567e+01	-3.620335e+01
9.100000e-07	-3.938585e-06	-5.477962e-10	-2.739146e+01	-3.611192e+01
9.200000e-07	-3.905975e-06	-5.501917e-10	-2.716466e+01	-3.601973e+01
9.300000e-07	-3.872906e-06	-5.456893e-10	-2.693468e+01	-3.592661e+01
9.400000e-07	-3.839372e-06	-5.429796e-10	-2.670146e+01	-3.583243e+01
9.500000e-07	-3.805417e-06	-5.480405e-10	-2.646532e+01	-3.573703e+01
9.600000e-07	-3.771120e-06	-5.503469e-10	-2.622679e+01	-3.564028e+01
9.700000e-07	-3.736489e-06	-5.417800e-10	-2.598595e+01	-3.554206e+01
9.800000e-07	-3.701515e-06	-5.400100e-10	-2.574271e+01	-3.544224e+01
9.900000e-07	-3.666322e-06	-5.399688e-10	-2.549796e+01	-3.534070e+01
1.000000e-06	-3.630907e-06	-5.345136e-10	-2.525166e+01	-3.523734e+01
1.010000e-06	-3.595250e-06	-5.314958e-10	-2.500368e+01	-3.513208e+01
1.020000e-06	-3.559408e-06	-5.346536e-10	-2.475441e+01	-3.502482e+01
1.030000e-06	-3.523316e-06	-5.350429e-10	-2.450341e+01	-3.491549e+01
1.040000e-06	-3.487064e-06	-5.342678e-10	-2.425129e+01	-3.480403e+01
1.050000e-06	-3.450696e-06	-5.336113e-10	-2.399836e+01	-3.469038e+01
1.060000e-06	-3.414083e-06	-5.294549e-10	-2.374373e+01	-3.457449e+01
1.070000e-06	-3.377157e-06	-5.213293e-10	-2.348692e+01	-3.445632e+01
1.080000e-06	-3.339894e-06	-5.186145e-10	-2.322777e+01	-3.433584e+01
1.090000e-06	-3.302370e-06	-5.173774e-10	-2.296680e+01	-3.421303e+01
1.100000e-06	-3.264656e-06	-5.136390e-10	-2.270452e+01	-3.408787e+01
1.110000e-06	-3.226751e-06	-5.132483e-10	-2.244090e+01	-3.396033e+01
1.120000e-06	-3.188629e-06	-5.149764e-10	-2.217577e+01	-3.383041e+01
1.130000e-06	-3.150281e-06	-5.128670e-10	-2.190908e+01	-3.369810e+01
1.140000e-06	-3.111695e-06	-5.105900e-10	-2.164073e+01	-3.356340e+01
1.150000e-06	-3.072913e-06	-5.102993e-10	-2.137101e+01	-3.342628e+01
1.160000e-06	-3.033953e-06	-5.052743e-10	-2.110006e+01	-3.328674e+01
1.170000e-06	-2.994803e-06	-4.983995e-10	-2.082778e+01	-3.314477e+01
1.180000e-06	-2.955511e-06	-4.953178e-10	-2.055452e+01	-3.300035e+01
1.190000e-06	-2.916068e-06	-4.954519e-10	-2.028021e+01	-3.285346e+01
1.200000e-06	-2.876472e-06	-4.953678e-10	-2.000483e+01	-3.270407e+01
1.210000e-06	-2.836769e-06	-4.969037e-10	-1.972871e+01	-3.255214e+01
1.220000e-06	-2.796932e-06	-4.957080e-10	-1.945166e+01	-3.239764e+01
1.230000e-06	-2.756873e-06	-4.905336e-10	-1.917306e+01	-3.224050e+01
1.240000e-06	-2.716628e-06	-4.838490e-10	-1.889318e+01	-3.208066e+01
1.250000e-06	-2.676216e-06	-4.786648e-10	-1.861213e+01	-3.191805e+01
1.260000e-06	-2.635619e-06	-4.733779e-10	-1.832979e+01	-3.175259e+01
1.270000e-06	-2.594793e-06	-4.689597e-10	-1.804586e+01	-3.158416e+01
1.280000e-06	-2.553615e-06	-4.672443e-10	-1.775948e+01	-3.141266e+01
1.290000e-06	-2.512059e-06	-4.703271e-10	-1.747047e+01	-3.123797e+01
1.300000e-06	-2.470257e-06	-4.729212e-10	-1.717976e+01	-3.105995e+01
1.310000e-06	-2.428258e-06	-4.691045e-10	-1.688766e+01	-3.087844e+01
1.320000e-06	-2.386025e-06	-4.605011e-10	-1.659395e+01	-3.069327e+01
1.330000e-06	-2.343520e-06	-4.544130e-10	-1.629834e+01	-3.050428e+01
1.340000e-06	-2.300757e-06	-4.507612e-10	-1.600094e+01	-3.031126e+01
1.350000e-06	-2.257723e-06	-4.469688e-10	-1.570166e+01	-3.011402e+01
1.360000e-06	-2.214453e-06	-4.422825e-10	-1.540073e+01	-2.991232e+01
1.370000e-06	-2.171013e-06	-4.399972e-10	-1.509862e+01	-2.970595e+01
1.380000e-06	-2.127384e-06	-4.413212e-10	-1.479519e+01	-2.949467e+01
1.390000e-06	-2.083696e-06	-4.424831e-10	-1.449137e+01	-2.927822e+01
1.400000e-06	-2.039971e-06	-4.394853e-10	-1.418727e+01	-2.905633e+01
1.410000e-06	-1.996212e-06	-4.345583e-10	-1.388294e+01	-2.882875e+01
1.420000e-06	-1.952405e-06	-4.321074e-10	-1.357828e+01	-2.859519e+01
1.430000e-06	-1.908469e-06	-4.302393e-10	-1.327272e+01	-2.835537e+01
1.440000e-06	-1.864446e-06	-4.265840e-10	-1.296655e+01	-2.810900e+01
1.450000e-06	-1.820337e-06	-4.219929e-10	-1.265979e+01	-2.785578e+01
1.460000e-06	-1.776091e-06	-4.175622e-10	-1.235208e+01	-2.759541e+01
1.470000e-06	-1.731724e-06	-4.126627e-10	-1.204353e+01	-2.732758e+01
1.480000e-06	-1.687236e-06	-4.060155e-10	-1.173413e+01	-2.705200e+01
1.490000e-06	-1.642537e-06	-3.982275e-10	-1.142326e+01	-2.676835e+01
1.500000e-06	-1.597640e-06	-3.927192e-10	-1.111102e+01	-2.647633e+01
1.510000e-06	-1.552683e-06	-3.900773e-10	-1.079835e+01	-2.617564e+01
1.520000e-06	-1.507642e-06	-3.876488e-10	-1.048511e+01	-2.586598e+01
1.530000e-06	-1.462505e-06	-3.851002e-10	-1.017120e+01	-2.554704e+01
1.540000e-06	-1.417302e-06	-3.800269e-10	-9.856826e+00	-2.521853e+01
1.550000e-06	-1.371943e-06	-3.693602e-10	-9.541375e+00	-2.488016e+01
1.560000e-06	-1.326461e-06	-3.577071e-10	-9.225064e+00	-2.453165e+01
1.570000e-06	-1.280909e-06	-3.495241e-10	-8.908266e+00	-2.417273e+01
1.580000e-06	-1.235268e-06	-3.456934e-10	-8.590845e+00	-2.380312e+01
1.590000e-06	-1.189584e-06	-3.453939e-10	-8.273129e+00	-2.342256e+01
1.600000e-06	-1.143848e-06	-3.467082e-10	-7.955051e+00	-2.303082e+01
1.610000e-06	-1.097985e-06	-3.429643e-10	-7.636095e+00	-2.262764e+01
1.620000e-06	-1.052046e-06	-3.352649e-10	-7.316606e+00	-2.221279e+01
1.630000e-06	-1.006003e-06	-3.289586e-10	-6.996391e+00	-2.178608e+01
1.640000e-06	-9.598610e-07	-3.239567e-10	-6.675490e+00	-2.134728e+01
1.650000e-06	-9.136364e-07	-3.171326e-10	-6.354015e+00	-2.089621e+01
1.660000e-06	-8.673975e-07	-3.091021e-10	-6.032440e+00	-2.043270e+01
1.670000e-06	-8.211189e-07	-3.005932e-10	-5.710589e+00	-1.995657e+01
1.680000e-06	-7.746940e-07	-2.897989e-10	-5.387720e+00	-1.946770e+01
1.690000e-06	-7.282478e-07	-2.804197e-10	-5.064704e+00	-1.896594e+01
1.700000e-06	-6.818067e-07	-2.739305e-10	-4.741722e+00	-1.845119e+01
1.710000e-06	-6.353733e-07	-2.668140e-10	-4.418795e+00	-1.792334e+01
1.720000e-06	-5.888738e-07	-2.591990e-10	-4.095407e+00	-1.738233e+01
1.730000e-06	-5.423033e-07	-2.499035e-10	-3.771526e+00	-1.682809e+01
1.740000e-06	-4.957042e-07	-2.366071e-10	-3.447446e+00	-1.626059e+01
1.750000e-06	-4.490514e-07	-2.217507e-10	-3.122992e+00	-1.567982e+01
1.760000e-06	-4.023199e-07	-2.123177e-10	-2.797991e+00	-1.508576e+01
1.770000e-06	-3.554991e-07	-2.087327e-10	-2.472370e+00	-1.447846e+01
1.780000e-06	-3.086677e-07	-2.052211e-10	-2.146674e+00	-1.385796e+01
1.790000e-06	-2.618600e-07	-1.993493e-10	-1.821142e+00	-1.322433e+01
1.800000e-06	-2.150892e-07	-1.900972e-10	-1.495869e+00	-1.257767e+01
1.810000e-06	-1.683292e-07	-1.782993e-10	-1.170670e+00	-1.191811e+01
1.820000e-06	-1.215478e-07	-1.678594e-10	-8.453213e-01	-1.124579e+01
1.830000e-06	-7.475876e-08	-1.598358e-10	-5.199205e-01	-1.056090e+01
1.840000e-06	-2.795052e-08	-1.519185e-10	-1.943859e-01	-9.863620e+00
1.850000e-06	1.885238e-08	-1.422409e-10	1.311116e-01	-9.154200e+00
1.860000e-06	6.559456e-08	-1.317242e-10	4.561868e-01	-8.432896e+00
1.870000e-06	1.123026e-07	-1.218466e-10	7.810244e-01	-7.699995e+00
1.880000e-06	1.590798e-07	-1.095248e-10	1.106343e+00	-6.955820e+00
1.890000e-06	2.058892e-07	-9.697965e-11	1.431886e+00	-6.200717e+00
1.900000e-06	2.526269e-07	-8.565616e-11	1.756930e+00	-5.435069e+00
1.910000e-06	2.993493e-07	-7.436607e-11	2.081867e+00	-4.659285e+00
1.920000e-06	3.460336e-07	-6.481828e-11	2.406540e+00	-3.873807e+00
1.930000e-06	3.926522e-07	-5.767688e-11	2.730756e+00	-3.079107e+00
1.940000e-06	4.392722e-07	-4.877151e-11	3.054981e+00	-2.275686e+00
1.950000e-06	4.859205e-07	-3.658088e-11	3.379403e+00	-1.464078e+00
1.960000e-06	5.325446e-07	-2.265398e-11	3.703658e+00	-6.448451e-01
1.970000e-06	5.790453e-07	-8.296124e-12	4.027053e+00	1.814229e-01
1.980000e-06	6.254400e-07	3.633992e-12	4.349712e+00	1.014107e+00
1.990000e-06	6.718519e-07	1.332838e-11	4.672490e+00	1.852560e+00
2.000000e-06	7.182043e-07	2.163896e-11	4.994854e+00	2.696111e+00
2.010000e-06	7.644957e-07	3.183004e-11	5.316794e+00	3.544064e+00
2.020000e-06	8.107654e-07	4.600806e-11	5.638584e+00	4.395699e+00
2.030000e-06	8.569531e-07	6.199500e-11	5.959803e+00	5.250277e+00
2.040000e-06	9.031138e-07	7.805938e-11	6.280834e+00	6.107037e+00
2.050000e-06	9.492130e-07	9.161701e-11	6.601438e+00	6.965203e+00
2.060000e-06	9.951644e-07	1.023395e-10	6.921013e+00	7.823983e+00
2.070000e-06	1.041032e-06	1.125034e-10	7.240009e+00	8.682573e+00
2.080000e-06	1.086956e-06	1.247195e-10	7.559390e+00	9.540159e+00
2.090000e-06	1.132817e-06	1.376516e-10	7.878338e+00	1.039592e+01
2.100000e-06	1.178514e-06	1.506301e-10	8.196143e+00	1.124903e+01
2.110000e-06	1.224156e-06	1.645577e-10	8.513571e+00	1.209866e+01
2.120000e-06	1.269746e-06	1.761212e-10	8.830632e+00	1.294399e+01
2.130000e-06	1.315243e-06	1.865195e-10	9.147047e+00	1.378420e+01
2.140000e-06	1.360674e-06	1.980785e-10	9.463001e+00	1.461847e+01
2.150000e-06	1.405988e-06	2.115823e-10	9.778146e+00	1.544600e+01
2.160000e-06	1.451158e-06	2.264145e-10	1.009228e+01	1.626600e+01
2.170000e-06	1.496247e-06	2.401794e-10	1.040587e+01	1.707771e+01
2.180000e-06	1.541258e-06	2.539261e-10	1.071890e+01	1.788037e+01
2.190000e-06	1.586140e-06	2.656597e-10	1.103104e+01	1.867325e+01
2.200000e-06	1.630829e-06	2.734071e-10	1.134184e+01	1.945566e+01
2.210000e-06	1.675401e-06	2.808682e-10	1.165182e+01	2.022693e+01
2.220000e-06	1.719834e-06	2.907108e-10	1.196083e+01	2.098642e+01
2.230000e-06	1.764076e-06	3.031679e-10	1.226852e+01	2.173352e+01
2.240000e-06	1.808268e-06	3.151127e-10	1.257586e+01	2.246767e+01
2.250000e-06	1.852397e-06	3.244736e-10	1.288276e+01	2.318834e+01
2.260000e-06	1.896390e-06	3.332226e-10	1.318872e+01	2.389505e+01
2.270000e-06	1.940249e-06	3.441041e-10	1.349374e+01	2.458735e+01
2.280000e-06	1.984005e-06	3.563421e-10	1.379805e+01	2.526486e+01
2.290000e-06	2.027715e-06	3.681629e-10	1.410203e+01	2.592721e+01
2.300000e-06	2.071414e-06	3.778835e-10	1.440595e+01	2.657410e+01
2.310000e-06	2.115074e-06	3.843247e-10	1.470958e+01	2.720529e+01
2.320000e-06	2.158602e-06	3.900810e-10	1.501231e+01	2.782056e+01
2.330000e-06	2.201995e-06	3.960466e-10	1.531409e+01	2.841976e+01
2.340000e-06	2.245284e-06	4.020916e-10	1.561515e+01	2.900277e+01
2.350000e-06	2.288433e-06	4.109082e-10	1.591524e+01	2.956953e+01
2.360000e-06	2.331387e-06	4.244175e-10	1.621396e+01	3.012003e+01
2.370000e-06	2.374158e-06	4.371750e-10	1.651142e+01	3.065431e+01
2.380000e-06	2.416664e-06	4.442175e-10	1.680704e+01	3.117243e+01
2.390000e-06	2.458835e-06	4.481568e-10	1.710032e+01	3.167452e+01
2.400000e-06	2.500708e-06	4.510701e-10	1.739153e+01	3.216074e+01
2.410000e-06	2.542267e-06	4.531686e-10	1.768056e+01	3.263129e+01
2.420000e-06	2.583493e-06	4.564621e-10	1.796727e+01	3.308640e+01
2.430000e-06	2.624425e-06	4.653402e-10	1.825194e+01	3.352636e+01
2.440000e-06	2.665104e-06	4.785049e-10	1.853484e+01	3.395146e+01
2.450000e-06	2.705474e-06	4.894577e-10	1.881561e+01	3.436204e+01
2.460000e-06	2.745577e-06	4.979625e-10	1.909451e+01	3.475846e+01
2.470000e-06	2.785502e-06	5.049943e-10	1.937217e+01	3.514110e+01
2.480000e-06	2.825341e-06	5.082283e-10	1.964924e+01	3.551036e+01
2.490000e-06	2.865127e-06	5.101626e-10	1.992594e+01	3.586666e+01
2.500000e-06	2.904726e-06	5.138241e-10	2.020133e+01	3.621042e+01
2.510000e-06	2.944167e-06	5.185597e-10	2.047563e+01	3.654210e+01
2.520000e-06	2.983494e-06	5.252132e-10	2.074914e+01	3.686213e+01
2.530000e-06	3.022624e-06	5.333439e-10	2.102127e+01	3.717097e+01
2.540000e-06	3.061538e-06	5.399956e-10	2.129190e+01	3.746906e+01
2.550000e-06	3.100244e-06	5.431242e-10	2.156109e+01	3.775685e+01
2.560000e-06	3.138750e-06	5.451862e-10	2.182888e+01	3.803478e+01
2.570000e-06	3.176988e-06	5.470244e-10	2.209481e+01	3.830328e+01
2.580000e-06	3.214972e-06	5.500225e-10	2.235899e+01	3.856277e+01
2.590000e-06	3.252766e-06	5.557330e-10	2.262183e+01	3.881365e+01
2.600000e-06	3.290399e-06	5.631155e-10	2.288355e+01	3.905631e+01
2.610000e-06	3.327901e-06	5.680399e-10	2.314436e+01	3.929113e+01
2.620000e-06	3.365183e-06	5.671321e-10	2.340364e+01	3.951844e+01
2.630000e-06	3.402178e-06	5.643053e-10	2.366093e+01	3.973858e+01
2.640000e-06	3.438903e-06	5.634772e-10	2.391635e+01	3.995186e+01
2.650000e-06	3.475291e-06	5.667351e-10	2.416941e+01	4.015854e+01
2.660000e-06	3.511397e-06	5.732096e-10	2.442051e+01	4.035890e+01
2.670000e-06	3.547356e-06	5.781349e-10	2.467059e+01	4.055315e+01
2.680000e-06	3.583143e-06	5.802747e-10	2.491948e+01	4.074151e+01
2.690000e-06	3.618787e-06	5.816449e-10	2.516737e+01	4.092416e+01
2.700000e-06	3.654334e-06	5.832650e-10	2.541459e+01	4.110125e+01
2.710000e-06	3.689734e-06	5.842598e-10	2.566078e+01	4.127291e+01
2.720000e-06	3.724990e-06	5.853339e-10	2.590598e+01	4.143925e+01
2.730000e-06	3.759912e-06	5.884772e-10	2.614884e+01	4.160035e+01
2.740000e-06	3.794294e-06	5.930129e-10	2.638796e+01	4.175628e+01
2.750000e-06	3.828325e-06	5.967522e-10	2.662463e+01	4.190709e+01
2.760000e-06	3.862057e-06	5.991166e-10	2.685923e+01	4.205279e+01
2.770000e-06	3.895381e-06	6.038040e-10	2.709098e+01	4.219340e+01
2.780000e-06	3.928219e-06	6.100238e-10	2.731936e+01	4.232891e+01
2.790000e-06	3.960633e-06	6.144432e-10	2.754479e+01	4.245931e+01
2.800000e-06	3.992728e-06	6.179877e-10	2.776799e+01	4.258456e+01
2.810000e-06	4.024548e-06	6.204902e-10	2.798929e+01	4.270463e+01
2.820000e-06	4.056204e-06	6.203901e-10	2.820945e+01	4.281947e+01
2.830000e-06	4.087723e-06	6.204936e-10	2.842865e+01	4.292904e+01
2.840000e-06	4.119067e-06	6.232504e-10	2.864664e+01	4.303328e+01
2.850000e-06	4.150132e-06	6.278713e-10	2.886268e+01	4.313215e+01
2.860000e-06	4.180850e-06	6.322987e-10	2.907632e+01	4.322558e+01
2.870000e-06	4.211234e-06	6.346562e-10	2.928763e+01	4.331355e+01
2.880000e-06	4.241388e-06	6.343124e-10	2.949734e+01	4.339601e+01
2.890000e-06	4.271293e-06	6.328872e-10	2.970531e+01	4.347292e+01
2.900000e-06	4.300843e-06	6.325754e-10	2.991083e+01	4.354425e+01
