# Temperatura_=_-0.7
# Concentracion g/m^3_=_1620.0
# C_Vs_to_Am_M_A/Vsm_=_65563218390.804596
# pendiente_HvsI_1/m_=_3716.3
# ordenada_HvsI_A/m_=_1297.0
# frecuencia_Hz_=_135100.49795233438

Tiempo_(s)	Campo_(V.s)	Magnetizacion_(V.s)	Campo_(kA/m)	Magnetizacion_(A/m)
0.000000e+00	-5.514225e-06	-1.287716e-09	-3.837369e+01	-8.627174e+01
1.000000e-08	-5.514501e-06	-1.284359e-09	-3.837562e+01	-8.623669e+01
2.000000e-08	-5.514567e-06	-1.282698e-09	-3.837608e+01	-8.620189e+01
3.000000e-08	-5.514288e-06	-1.281846e-09	-3.837413e+01	-8.616723e+01
4.000000e-08	-5.513577e-06	-1.277420e-09	-3.836919e+01	-8.613260e+01
5.000000e-08	-5.512374e-06	-1.265186e-09	-3.836082e+01	-8.609783e+01
6.000000e-08	-5.510579e-06	-1.249551e-09	-3.834833e+01	-8.606276e+01
7.000000e-08	-5.508171e-06	-1.253760e-09	-3.833157e+01	-8.602722e+01
8.000000e-08	-5.505240e-06	-1.311184e-09	-3.831117e+01	-8.599101e+01
9.000000e-08	-5.501842e-06	-1.387641e-09	-3.828752e+01	-8.595394e+01
1.000000e-07	-5.497921e-06	-1.357354e-09	-3.826023e+01	-8.591579e+01
1.100000e-07	-5.493665e-06	-1.232961e-09	-3.823062e+01	-8.587636e+01
1.200000e-07	-5.489304e-06	-1.197657e-09	-3.820027e+01	-8.583541e+01
1.300000e-07	-5.484692e-06	-1.285379e-09	-3.816818e+01	-8.579273e+01
1.400000e-07	-5.479610e-06	-1.339607e-09	-3.813281e+01	-8.574809e+01
1.500000e-07	-5.474113e-06	-1.245416e-09	-3.809456e+01	-8.570128e+01
1.600000e-07	-5.468332e-06	-1.191122e-09	-3.805433e+01	-8.565206e+01
1.700000e-07	-5.462204e-06	-1.287768e-09	-3.801168e+01	-8.560024e+01
1.800000e-07	-5.455500e-06	-1.358243e-09	-3.796503e+01	-8.554560e+01
1.900000e-07	-5.448341e-06	-1.299556e-09	-3.791521e+01	-8.548795e+01
2.000000e-07	-5.441013e-06	-1.204748e-09	-3.786421e+01	-8.542710e+01
2.100000e-07	-5.433418e-06	-1.276793e-09	-3.781136e+01	-8.536287e+01
2.200000e-07	-5.425492e-06	-1.356300e-09	-3.775620e+01	-8.529510e+01
2.300000e-07	-5.417310e-06	-1.353155e-09	-3.769926e+01	-8.522363e+01
2.400000e-07	-5.408782e-06	-1.290272e-09	-3.763991e+01	-8.514833e+01
2.500000e-07	-5.399600e-06	-1.315753e-09	-3.757601e+01	-8.506909e+01
2.600000e-07	-5.389678e-06	-1.337960e-09	-3.750697e+01	-8.498578e+01
2.700000e-07	-5.379302e-06	-1.311415e-09	-3.743476e+01	-8.489832e+01
2.800000e-07	-5.368438e-06	-1.272609e-09	-3.735916e+01	-8.480662e+01
2.900000e-07	-5.357060e-06	-1.305643e-09	-3.727998e+01	-8.471064e+01
3.000000e-07	-5.345328e-06	-1.329043e-09	-3.719834e+01	-8.461031e+01
3.100000e-07	-5.333264e-06	-1.289633e-09	-3.711438e+01	-8.450561e+01
3.200000e-07	-5.320739e-06	-1.267675e-09	-3.702722e+01	-8.439651e+01
3.300000e-07	-5.307731e-06	-1.292903e-09	-3.693670e+01	-8.428301e+01
3.400000e-07	-5.294395e-06	-1.313782e-09	-3.684389e+01	-8.416510e+01
3.500000e-07	-5.280677e-06	-1.272367e-09	-3.674842e+01	-8.404281e+01
3.600000e-07	-5.266481e-06	-1.278306e-09	-3.664964e+01	-8.391615e+01
3.700000e-07	-5.251943e-06	-1.300627e-09	-3.654847e+01	-8.378517e+01
3.800000e-07	-5.236992e-06	-1.291935e-09	-3.644442e+01	-8.364989e+01
3.900000e-07	-5.221269e-06	-1.255272e-09	-3.633501e+01	-8.351036e+01
4.000000e-07	-5.204990e-06	-1.293401e-09	-3.622172e+01	-8.336664e+01
4.100000e-07	-5.188508e-06	-1.298846e-09	-3.610702e+01	-8.321877e+01
4.200000e-07	-5.171636e-06	-1.252750e-09	-3.598961e+01	-8.306681e+01
4.300000e-07	-5.154370e-06	-1.251546e-09	-3.586945e+01	-8.291082e+01
4.400000e-07	-5.136899e-06	-1.319647e-09	-3.574787e+01	-8.275085e+01
4.500000e-07	-5.119116e-06	-1.290730e-09	-3.562412e+01	-8.258696e+01
4.600000e-07	-5.100890e-06	-1.238300e-09	-3.549728e+01	-8.241919e+01
4.700000e-07	-5.082192e-06	-1.263809e-09	-3.536716e+01	-8.224761e+01
4.800000e-07	-5.063170e-06	-1.290409e-09	-3.523478e+01	-8.207225e+01
4.900000e-07	-5.043864e-06	-1.243404e-09	-3.510043e+01	-8.189315e+01
5.000000e-07	-5.024254e-06	-1.255116e-09	-3.496397e+01	-8.171036e+01
5.100000e-07	-5.004415e-06	-1.284046e-09	-3.482591e+01	-8.152390e+01
5.200000e-07	-4.984340e-06	-1.249086e-09	-3.468620e+01	-8.133380e+01
5.300000e-07	-4.963868e-06	-1.233433e-09	-3.454374e+01	-8.114007e+01
5.400000e-07	-4.943009e-06	-1.279246e-09	-3.439858e+01	-8.094274e+01
5.500000e-07	-4.921861e-06	-1.255216e-09	-3.425141e+01	-8.074181e+01
5.600000e-07	-4.900395e-06	-1.205169e-09	-3.410203e+01	-8.053729e+01
5.700000e-07	-4.878641e-06	-1.232969e-09	-3.395065e+01	-8.032917e+01
5.800000e-07	-4.856501e-06	-1.256453e-09	-3.379657e+01	-8.011744e+01
5.900000e-07	-4.833952e-06	-1.226240e-09	-3.363965e+01	-7.990211e+01
6.000000e-07	-4.811100e-06	-1.229402e-09	-3.348062e+01	-7.968316e+01
6.100000e-07	-4.787901e-06	-1.248503e-09	-3.331918e+01	-7.946057e+01
6.200000e-07	-4.764430e-06	-1.216892e-09	-3.315584e+01	-7.923434e+01
6.300000e-07	-4.740757e-06	-1.200100e-09	-3.299110e+01	-7.900444e+01
6.400000e-07	-4.716799e-06	-1.212385e-09	-3.282438e+01	-7.877086e+01
6.500000e-07	-4.692537e-06	-1.206723e-09	-3.265554e+01	-7.853359e+01
6.600000e-07	-4.667958e-06	-1.192357e-09	-3.248449e+01	-7.829261e+01
6.700000e-07	-4.643005e-06	-1.206777e-09	-3.231084e+01	-7.804793e+01
6.800000e-07	-4.617449e-06	-1.204793e-09	-3.213300e+01	-7.779953e+01
6.900000e-07	-4.591294e-06	-1.194206e-09	-3.195099e+01	-7.754742e+01
7.000000e-07	-4.564718e-06	-1.191243e-09	-3.176604e+01	-7.729159e+01
7.100000e-07	-4.537707e-06	-1.191106e-09	-3.157807e+01	-7.703208e+01
7.200000e-07	-4.510375e-06	-1.176530e-09	-3.138787e+01	-7.676888e+01
7.300000e-07	-4.482822e-06	-1.177060e-09	-3.119612e+01	-7.650203e+01
7.400000e-07	-4.455057e-06	-1.173402e-09	-3.100291e+01	-7.623156e+01
7.500000e-07	-4.427103e-06	-1.167559e-09	-3.080838e+01	-7.595751e+01
7.600000e-07	-4.398856e-06	-1.163100e-09	-3.061180e+01	-7.567992e+01
7.700000e-07	-4.370302e-06	-1.160144e-09	-3.041309e+01	-7.539884e+01
7.800000e-07	-4.341452e-06	-1.146800e-09	-3.021232e+01	-7.511435e+01
7.900000e-07	-4.312238e-06	-1.147137e-09	-3.000902e+01	-7.482649e+01
8.000000e-07	-4.282725e-06	-1.147790e-09	-2.980364e+01	-7.453534e+01
8.100000e-07	-4.252946e-06	-1.137824e-09	-2.959641e+01	-7.424099e+01
8.200000e-07	-4.222905e-06	-1.128461e-09	-2.938735e+01	-7.394350e+01
8.300000e-07	-4.192568e-06	-1.132008e-09	-2.917624e+01	-7.364296e+01
8.400000e-07	-4.161893e-06	-1.125351e-09	-2.896277e+01	-7.333945e+01
8.500000e-07	-4.130944e-06	-1.111802e-09	-2.874739e+01	-7.303307e+01
8.600000e-07	-4.099785e-06	-1.106374e-09	-2.853056e+01	-7.272388e+01
8.700000e-07	-4.068428e-06	-1.101821e-09	-2.831234e+01	-7.241199e+01
8.800000e-07	-4.036859e-06	-1.092885e-09	-2.809265e+01	-7.209746e+01
8.900000e-07	-4.005121e-06	-1.091371e-09	-2.787179e+01	-7.178037e+01
9.000000e-07	-3.973256e-06	-1.093213e-09	-2.765004e+01	-7.146080e+01
9.100000e-07	-3.941101e-06	-1.082944e-09	-2.742627e+01	-7.113880e+01
9.200000e-07	-3.908529e-06	-1.074995e-09	-2.719960e+01	-7.081443e+01
9.300000e-07	-3.875590e-06	-1.071843e-09	-2.697037e+01	-7.048774e+01
9.400000e-07	-3.842227e-06	-1.065293e-09	-2.673820e+01	-7.015875e+01
9.500000e-07	-3.808335e-06	-1.054800e-09	-2.650234e+01	-6.982748e+01
9.600000e-07	-3.774020e-06	-1.056733e-09	-2.626354e+01	-6.949396e+01
9.700000e-07	-3.739338e-06	-1.054247e-09	-2.602219e+01	-6.915816e+01
9.800000e-07	-3.704272e-06	-1.046251e-09	-2.577817e+01	-6.882007e+01
9.900000e-07	-3.668947e-06	-1.042176e-09	-2.553234e+01	-6.847966e+01
1.000000e-06	-3.633441e-06	-1.043746e-09	-2.528525e+01	-6.813687e+01
1.010000e-06	-3.597788e-06	-1.036162e-09	-2.503714e+01	-6.779164e+01
1.020000e-06	-3.562011e-06	-1.030237e-09	-2.478817e+01	-6.744388e+01
1.030000e-06	-3.526080e-06	-1.026342e-09	-2.453812e+01	-6.709349e+01
1.040000e-06	-3.489914e-06	-1.018573e-09	-2.428644e+01	-6.674036e+01
1.050000e-06	-3.453484e-06	-1.007430e-09	-2.403292e+01	-6.638436e+01
1.060000e-06	-3.416820e-06	-1.002624e-09	-2.377777e+01	-6.602535e+01
1.070000e-06	-3.379982e-06	-9.957409e-10	-2.352142e+01	-6.566316e+01
1.080000e-06	-3.342858e-06	-9.891805e-10	-2.326307e+01	-6.529762e+01
1.090000e-06	-3.305408e-06	-9.842257e-10	-2.300245e+01	-6.492855e+01
1.100000e-06	-3.267695e-06	-9.802053e-10	-2.274001e+01	-6.455576e+01
1.110000e-06	-3.229755e-06	-9.714867e-10	-2.247598e+01	-6.417905e+01
1.120000e-06	-3.191643e-06	-9.629949e-10	-2.221076e+01	-6.379820e+01
1.130000e-06	-3.153355e-06	-9.561866e-10	-2.194431e+01	-6.341299e+01
1.140000e-06	-3.114828e-06	-9.468232e-10	-2.167620e+01	-6.302321e+01
1.150000e-06	-3.076059e-06	-9.349987e-10	-2.140641e+01	-6.262864e+01
1.160000e-06	-3.037097e-06	-9.256856e-10	-2.113527e+01	-6.222904e+01
1.170000e-06	-2.997885e-06	-9.196059e-10	-2.086239e+01	-6.182420e+01
1.180000e-06	-2.958483e-06	-9.132927e-10	-2.058819e+01	-6.141388e+01
1.190000e-06	-2.918974e-06	-9.082181e-10	-2.031325e+01	-6.099789e+01
1.200000e-06	-2.879345e-06	-9.011779e-10	-2.003747e+01	-6.057599e+01
1.210000e-06	-2.839565e-06	-8.919720e-10	-1.976064e+01	-6.014800e+01
1.220000e-06	-2.799652e-06	-8.824974e-10	-1.948288e+01	-5.971370e+01
1.230000e-06	-2.759658e-06	-8.737640e-10	-1.920456e+01	-5.927292e+01
1.240000e-06	-2.719506e-06	-8.633685e-10	-1.892514e+01	-5.882548e+01
1.250000e-06	-2.679157e-06	-8.541045e-10	-1.864435e+01	-5.837120e+01
1.260000e-06	-2.638630e-06	-8.445271e-10	-1.836232e+01	-5.790995e+01
1.270000e-06	-2.597851e-06	-8.354837e-10	-1.807854e+01	-5.744157e+01
1.280000e-06	-2.556679e-06	-8.273302e-10	-1.779202e+01	-5.696594e+01
1.290000e-06	-2.515194e-06	-8.223827e-10	-1.750333e+01	-5.648293e+01
1.300000e-06	-2.473540e-06	-8.168077e-10	-1.721346e+01	-5.599246e+01
1.310000e-06	-2.431550e-06	-8.098835e-10	-1.692124e+01	-5.549442e+01
1.320000e-06	-2.389200e-06	-7.998242e-10	-1.662653e+01	-5.498873e+01
1.330000e-06	-2.346670e-06	-7.900290e-10	-1.633056e+01	-5.447533e+01
1.340000e-06	-2.303893e-06	-7.797127e-10	-1.603288e+01	-5.395414e+01
1.350000e-06	-2.260818e-06	-7.699184e-10	-1.573312e+01	-5.342511e+01
1.360000e-06	-2.217636e-06	-7.593347e-10	-1.543261e+01	-5.288820e+01
1.370000e-06	-2.174294e-06	-7.511429e-10	-1.513100e+01	-5.234335e+01
1.380000e-06	-2.130767e-06	-7.457028e-10	-1.482808e+01	-5.179052e+01
1.390000e-06	-2.087187e-06	-7.409416e-10	-1.452481e+01	-5.122966e+01
1.400000e-06	-2.043529e-06	-7.327538e-10	-1.422099e+01	-5.066073e+01
1.410000e-06	-1.999766e-06	-7.240047e-10	-1.391645e+01	-5.008367e+01
1.420000e-06	-1.955939e-06	-7.162265e-10	-1.361145e+01	-4.949841e+01
1.430000e-06	-1.912000e-06	-7.080968e-10	-1.330568e+01	-4.890490e+01
1.440000e-06	-1.867948e-06	-6.994943e-10	-1.299912e+01	-4.830303e+01
1.450000e-06	-1.823806e-06	-6.906390e-10	-1.269193e+01	-4.769272e+01
1.460000e-06	-1.779560e-06	-6.817379e-10	-1.238402e+01	-4.707385e+01
1.470000e-06	-1.735208e-06	-6.723288e-10	-1.207538e+01	-4.644627e+01
1.480000e-06	-1.690733e-06	-6.611450e-10	-1.176587e+01	-4.580984e+01
1.490000e-06	-1.646185e-06	-6.478667e-10	-1.145586e+01	-4.516437e+01
1.500000e-06	-1.601473e-06	-6.354996e-10	-1.114471e+01	-4.450965e+01
1.510000e-06	-1.556584e-06	-6.279326e-10	-1.083233e+01	-4.384544e+01
1.520000e-06	-1.511604e-06	-6.230045e-10	-1.051931e+01	-4.317150e+01
1.530000e-06	-1.466505e-06	-6.159898e-10	-1.020546e+01	-4.248752e+01
1.540000e-06	-1.421315e-06	-6.060709e-10	-9.890983e+00	-4.179319e+01
1.550000e-06	-1.375953e-06	-5.905562e-10	-9.575306e+00	-4.108817e+01
1.560000e-06	-1.330438e-06	-5.744844e-10	-9.258565e+00	-4.037206e+01
1.570000e-06	-1.284792e-06	-5.597583e-10	-8.940918e+00	-3.964447e+01
1.580000e-06	-1.239051e-06	-5.470672e-10	-8.622605e+00	-3.890497e+01
1.590000e-06	-1.193309e-06	-5.371899e-10	-8.304283e+00	-3.815309e+01
1.600000e-06	-1.147528e-06	-5.294248e-10	-7.985688e+00	-3.738835e+01
1.610000e-06	-1.101726e-06	-5.195392e-10	-7.666950e+00	-3.661025e+01
1.620000e-06	-1.055883e-06	-5.078058e-10	-7.347929e+00	-3.581827e+01
1.630000e-06	-1.009873e-06	-4.955069e-10	-7.027747e+00	-3.501185e+01
1.640000e-06	-9.637754e-07	-4.837068e-10	-6.706949e+00	-3.419046e+01
1.650000e-06	-9.176610e-07	-4.687938e-10	-6.386037e+00	-3.335354e+01
1.660000e-06	-8.714300e-07	-4.522766e-10	-6.064313e+00	-3.250050e+01
1.670000e-06	-8.251695e-07	-4.369855e-10	-5.742385e+00	-3.163080e+01
1.680000e-06	-7.788951e-07	-4.229293e-10	-5.420360e+00	-3.074386e+01
1.690000e-06	-7.325273e-07	-4.097816e-10	-5.097685e+00	-2.983915e+01
1.700000e-06	-6.861251e-07	-3.982235e-10	-4.774770e+00	-2.891612e+01
1.710000e-06	-6.396851e-07	-3.869096e-10	-4.451592e+00	-2.797425e+01
1.720000e-06	-5.931429e-07	-3.728838e-10	-4.127703e+00	-2.701306e+01
1.730000e-06	-5.465976e-07	-3.540213e-10	-3.803793e+00	-2.603209e+01
1.740000e-06	-5.000895e-07	-3.319557e-10	-3.480141e+00	-2.503091e+01
1.750000e-06	-4.534275e-07	-3.104513e-10	-3.155419e+00	-2.400914e+01
1.760000e-06	-4.066452e-07	-2.917807e-10	-2.829859e+00	-2.296646e+01
1.770000e-06	-3.599654e-07	-2.772652e-10	-2.505013e+00	-2.190258e+01
1.780000e-06	-3.133682e-07	-2.653516e-10	-2.180741e+00	-2.081728e+01
1.790000e-06	-2.667294e-07	-2.532497e-10	-1.856180e+00	-1.971040e+01
1.800000e-06	-2.199813e-07	-2.384666e-10	-1.530858e+00	-1.858185e+01
1.810000e-06	-1.732402e-07	-2.209615e-10	-1.205585e+00	-1.743160e+01
1.820000e-06	-1.265595e-07	-2.019524e-10	-8.807320e-01	-1.625972e+01
1.830000e-06	-7.983095e-08	-1.847494e-10	-5.555465e-01	-1.506632e+01
1.840000e-06	-3.303822e-08	-1.702293e-10	-2.299142e-01	-1.385164e+01
1.850000e-06	1.373959e-08	-1.560005e-10	9.561433e-02	-1.261595e+01
1.860000e-06	6.051497e-08	-1.402719e-10	4.211259e-01	-1.135965e+01
1.870000e-06	1.072874e-07	-1.232836e-10	7.466173e-01	-1.008320e+01
1.880000e-06	1.539971e-07	-1.021800e-10	1.071671e+00	-8.787160e+00
1.890000e-06	2.007273e-07	-7.979475e-11	1.396869e+00	-7.472169e+00
1.900000e-06	2.475129e-07	-5.976525e-11	1.722451e+00	-6.138957e+00
1.910000e-06	2.942658e-07	-4.143358e-11	2.047807e+00	-4.788337e+00
1.920000e-06	3.410110e-07	-2.402257e-11	2.373108e+00	-3.421206e+00
1.930000e-06	3.876672e-07	-8.242578e-12	2.697790e+00	-2.038541e+00
1.940000e-06	4.341357e-07	9.232600e-12	3.021166e+00	-6.413972e-01
1.950000e-06	4.806333e-07	3.007447e-11	3.344745e+00	7.690961e-01
1.960000e-06	5.272254e-07	5.161876e-11	3.668981e+00	2.191741e+00
1.970000e-06	5.737752e-07	7.314853e-11	3.992923e+00	3.625275e+00
1.980000e-06	6.202493e-07	9.362704e-11	4.316338e+00	5.068375e+00
1.990000e-06	6.666827e-07	1.129782e-10	4.639470e+00	6.519666e+00
2.000000e-06	7.130579e-07	1.318298e-10	4.962196e+00	7.977726e+00
2.010000e-06	7.593433e-07	1.492129e-10	5.284298e+00	9.441091e+00
2.020000e-06	8.055481e-07	1.681294e-10	5.605839e+00	1.090826e+01
2.030000e-06	8.517264e-07	1.905168e-10	5.927196e+00	1.237772e+01
2.040000e-06	8.978399e-07	2.137879e-10	6.248101e+00	1.384793e+01
2.050000e-06	9.438716e-07	2.350398e-10	6.568438e+00	1.531733e+01
2.060000e-06	9.899167e-07	2.544364e-10	6.888867e+00	1.678436e+01
2.070000e-06	1.035935e-06	2.736737e-10	7.209113e+00	1.824748e+01
2.080000e-06	1.081813e-06	2.941854e-10	7.528376e+00	1.970515e+01
2.090000e-06	1.127567e-06	3.160782e-10	7.846783e+00	2.115584e+01
2.100000e-06	1.173256e-06	3.380156e-10	8.164732e+00	2.259807e+01
2.110000e-06	1.218876e-06	3.581295e-10	8.482200e+00	2.403039e+01
2.120000e-06	1.264382e-06	3.756505e-10	8.798880e+00	2.545136e+01
2.130000e-06	1.309744e-06	3.940045e-10	9.114559e+00	2.685965e+01
2.140000e-06	1.355038e-06	4.138258e-10	9.429757e+00	2.825392e+01
2.150000e-06	1.400311e-06	4.328966e-10	9.744818e+00	2.963294e+01
2.160000e-06	1.445493e-06	4.513086e-10	1.005924e+01	3.099551e+01
2.170000e-06	1.490514e-06	4.703105e-10	1.037254e+01	3.234054e+01
2.180000e-06	1.535428e-06	4.906214e-10	1.068510e+01	3.366699e+01
2.190000e-06	1.580304e-06	5.115011e-10	1.099740e+01	3.497390e+01
2.200000e-06	1.625100e-06	5.295500e-10	1.130913e+01	3.626040e+01
2.210000e-06	1.669734e-06	5.455073e-10	1.161974e+01	3.752570e+01
2.220000e-06	1.714185e-06	5.598115e-10	1.192908e+01	3.876912e+01
2.230000e-06	1.758514e-06	5.749168e-10	1.223756e+01	3.999003e+01
2.240000e-06	1.802753e-06	5.906240e-10	1.254542e+01	4.118793e+01
2.250000e-06	1.846874e-06	6.055549e-10	1.285247e+01	4.236239e+01
2.260000e-06	1.890864e-06	6.200755e-10	1.315859e+01	4.351307e+01
2.270000e-06	1.934744e-06	6.352306e-10	1.346395e+01	4.463971e+01
2.280000e-06	1.978577e-06	6.536145e-10	1.376899e+01	4.574215e+01
2.290000e-06	2.022377e-06	6.719086e-10	1.407380e+01	4.682032e+01
2.300000e-06	2.066120e-06	6.889841e-10	1.437821e+01	4.787421e+01
2.310000e-06	2.109795e-06	7.024061e-10	1.468214e+01	4.890391e+01
2.320000e-06	2.153420e-06	7.127782e-10	1.498573e+01	4.990956e+01
2.330000e-06	2.196979e-06	7.249641e-10	1.528886e+01	5.089139e+01
2.340000e-06	2.240305e-06	7.396210e-10	1.559036e+01	5.184969e+01
2.350000e-06	2.283335e-06	7.568058e-10	1.588981e+01	5.278479e+01
2.360000e-06	2.326198e-06	7.774877e-10	1.618810e+01	5.369711e+01
2.370000e-06	2.368863e-06	7.978873e-10	1.648501e+01	5.458708e+01
2.380000e-06	2.411262e-06	8.119700e-10	1.678006e+01	5.545520e+01
2.390000e-06	2.453409e-06	8.209855e-10	1.707337e+01	5.630200e+01
2.400000e-06	2.495332e-06	8.285748e-10	1.736511e+01	5.712804e+01
2.410000e-06	2.536850e-06	8.356537e-10	1.765403e+01	5.793389e+01
2.420000e-06	2.577943e-06	8.451167e-10	1.794000e+01	5.872018e+01
2.430000e-06	2.618760e-06	8.585516e-10	1.822405e+01	5.948750e+01
2.440000e-06	2.659332e-06	8.732778e-10	1.850639e+01	6.023650e+01
2.450000e-06	2.699663e-06	8.873353e-10	1.878706e+01	6.096779e+01
2.460000e-06	2.739821e-06	9.015430e-10	1.906652e+01	6.168200e+01
2.470000e-06	2.779829e-06	9.160212e-10	1.934494e+01	6.237974e+01
2.480000e-06	2.819690e-06	9.271081e-10	1.962233e+01	6.306163e+01
2.490000e-06	2.859480e-06	9.357047e-10	1.989923e+01	6.372825e+01
2.500000e-06	2.899176e-06	9.420353e-10	2.017547e+01	6.438017e+01
2.510000e-06	2.938731e-06	9.474515e-10	2.045074e+01	6.501793e+01
2.520000e-06	2.978102e-06	9.565993e-10	2.072472e+01	6.564206e+01
2.530000e-06	3.017271e-06	9.678436e-10	2.099730e+01	6.625304e+01
2.540000e-06	3.056250e-06	9.778900e-10	2.126856e+01	6.685133e+01
2.550000e-06	3.095053e-06	9.864581e-10	2.153859e+01	6.743736e+01
2.560000e-06	3.133633e-06	9.939338e-10	2.180707e+01	6.801152e+01
2.570000e-06	3.171918e-06	1.001837e-09	2.207349e+01	6.857417e+01
2.580000e-06	3.209940e-06	1.011136e-09	2.233809e+01	6.912563e+01
2.590000e-06	3.247712e-06	1.020145e-09	2.260095e+01	6.966619e+01
2.600000e-06	3.285255e-06	1.028089e-09	2.286221e+01	7.019610e+01
2.610000e-06	3.322640e-06	1.035775e-09	2.312238e+01	7.071559e+01
2.620000e-06	3.359829e-06	1.041265e-09	2.338118e+01	7.122485e+01
2.630000e-06	3.396730e-06	1.044381e-09	2.363797e+01	7.172404e+01
2.640000e-06	3.433318e-06	1.047837e-09	2.389259e+01	7.221328e+01
2.650000e-06	3.469683e-06	1.054559e-09	2.414565e+01	7.269270e+01
2.660000e-06	3.505839e-06	1.065169e-09	2.439726e+01	7.316238e+01
2.670000e-06	3.541852e-06	1.075494e-09	2.464788e+01	7.362237e+01
2.680000e-06	3.577746e-06	1.083443e-09	2.489767e+01	7.407272e+01
2.690000e-06	3.613452e-06	1.089300e-09	2.514615e+01	7.451348e+01
2.700000e-06	3.648973e-06	1.093736e-09	2.539334e+01	7.494465e+01
2.710000e-06	3.684399e-06	1.098741e-09	2.563987e+01	7.536624e+01
2.720000e-06	3.719697e-06	1.103865e-09	2.588551e+01	7.577827e+01
2.730000e-06	3.754636e-06	1.108606e-09	2.612865e+01	7.618074e+01
2.740000e-06	3.789181e-06	1.113114e-09	2.636905e+01	7.657365e+01
2.750000e-06	3.823347e-06	1.116915e-09	2.660682e+01	7.695700e+01
2.760000e-06	3.856951e-06	1.120498e-09	2.684066e+01	7.733080e+01
2.770000e-06	3.889967e-06	1.125245e-09	2.707043e+01	7.769508e+01
2.780000e-06	3.922566e-06	1.131685e-09	2.729728e+01	7.804985e+01
2.790000e-06	3.954886e-06	1.137469e-09	2.752219e+01	7.839516e+01
2.800000e-06	3.986972e-06	1.141601e-09	2.774549e+01	7.873106e+01
2.810000e-06	4.018858e-06	1.144264e-09	2.796738e+01	7.905761e+01
2.820000e-06	4.050565e-06	1.147158e-09	2.818803e+01	7.937490e+01
2.830000e-06	4.082101e-06	1.151120e-09	2.840749e+01	7.968302e+01
2.840000e-06	4.113453e-06	1.154967e-09	2.862567e+01	7.998208e+01
2.850000e-06	4.144517e-06	1.160437e-09	2.884184e+01	8.027222e+01
2.860000e-06	4.175230e-06	1.168630e-09	2.905558e+01	8.055359e+01
2.870000e-06	4.205633e-06	1.175368e-09	2.926716e+01	8.082634e+01
2.880000e-06	4.235733e-06	1.180807e-09	2.947662e+01	8.109066e+01
2.890000e-06	4.265555e-06	1.186421e-09	2.968415e+01	8.134673e+01
2.900000e-06	4.295135e-06	1.190234e-09	2.989000e+01	8.159478e+01
