# Temperatura_=_11.81
# Concentracion g/m^3_=_1620.0
# C_Vs_to_Am_M_A/Vsm_=_65563218390.804596
# pendiente_HvsI_1/m_=_3716.3
# ordenada_HvsI_A/m_=_1297.0
# frecuencia_Hz_=_135090.60272666754

Tiempo_(s)	Campo_(V.s)	Magnetizacion_(V.s)	Campo_(kA/m)	Magnetizacion_(A/m)
0.000000e+00	-5.512008e-06	-1.582490e-09	-3.837545e+01	-1.031310e+02
1.000000e-08	-5.512266e-06	-1.576789e-09	-3.837724e+01	-1.031458e+02
2.000000e-08	-5.512342e-06	-1.574064e-09	-3.837777e+01	-1.031584e+02
3.000000e-08	-5.512132e-06	-1.575222e-09	-3.837631e+01	-1.031686e+02
4.000000e-08	-5.511380e-06	-1.577306e-09	-3.837107e+01	-1.031763e+02
5.000000e-08	-5.510011e-06	-1.574141e-09	-3.836154e+01	-1.031813e+02
6.000000e-08	-5.508121e-06	-1.564911e-09	-3.834839e+01	-1.031835e+02
7.000000e-08	-5.505645e-06	-1.576462e-09	-3.833114e+01	-1.031825e+02
8.000000e-08	-5.502703e-06	-1.611707e-09	-3.831066e+01	-1.031782e+02
9.000000e-08	-5.499283e-06	-1.626894e-09	-3.828685e+01	-1.031705e+02
1.000000e-07	-5.495328e-06	-1.636038e-09	-3.825932e+01	-1.031590e+02
1.100000e-07	-5.491048e-06	-1.605408e-09	-3.822952e+01	-1.031436e+02
1.200000e-07	-5.486613e-06	-1.516860e-09	-3.819865e+01	-1.031241e+02
1.300000e-07	-5.481961e-06	-1.512764e-09	-3.816626e+01	-1.031003e+02
1.400000e-07	-5.476941e-06	-1.585857e-09	-3.813130e+01	-1.030720e+02
1.500000e-07	-5.471599e-06	-1.609592e-09	-3.809411e+01	-1.030390e+02
1.600000e-07	-5.465886e-06	-1.537539e-09	-3.805434e+01	-1.030011e+02
1.700000e-07	-5.459686e-06	-1.500845e-09	-3.801117e+01	-1.029582e+02
1.800000e-07	-5.453105e-06	-1.633605e-09	-3.796535e+01	-1.029101e+02
1.900000e-07	-5.446089e-06	-1.648654e-09	-3.791651e+01	-1.028566e+02
2.000000e-07	-5.438716e-06	-1.540950e-09	-3.786518e+01	-1.027976e+02
2.100000e-07	-5.431113e-06	-1.478890e-09	-3.781224e+01	-1.027330e+02
2.200000e-07	-5.423190e-06	-1.584703e-09	-3.775708e+01	-1.026626e+02
2.300000e-07	-5.414969e-06	-1.630608e-09	-3.769985e+01	-1.025864e+02
2.400000e-07	-5.406384e-06	-1.567367e-09	-3.764007e+01	-1.025042e+02
2.500000e-07	-5.397297e-06	-1.528610e-09	-3.757681e+01	-1.024160e+02
2.600000e-07	-5.387400e-06	-1.572002e-09	-3.750791e+01	-1.023216e+02
2.700000e-07	-5.376798e-06	-1.581242e-09	-3.743409e+01	-1.022212e+02
2.800000e-07	-5.365886e-06	-1.538563e-09	-3.735812e+01	-1.021145e+02
2.900000e-07	-5.354547e-06	-1.547020e-09	-3.727918e+01	-1.020015e+02
3.000000e-07	-5.342756e-06	-1.567565e-09	-3.719709e+01	-1.018823e+02
3.100000e-07	-5.330668e-06	-1.557955e-09	-3.711293e+01	-1.017568e+02
3.200000e-07	-5.318236e-06	-1.523936e-09	-3.702638e+01	-1.016249e+02
3.300000e-07	-5.305263e-06	-1.537984e-09	-3.693605e+01	-1.014867e+02
3.400000e-07	-5.291860e-06	-1.541169e-09	-3.684274e+01	-1.013422e+02
3.500000e-07	-5.278130e-06	-1.557917e-09	-3.674715e+01	-1.011914e+02
3.600000e-07	-5.263999e-06	-1.539516e-09	-3.664877e+01	-1.010343e+02
3.700000e-07	-5.249485e-06	-1.531522e-09	-3.654772e+01	-1.008709e+02
3.800000e-07	-5.234516e-06	-1.538962e-09	-3.644350e+01	-1.007011e+02
3.900000e-07	-5.219047e-06	-1.554730e-09	-3.633581e+01	-1.005251e+02
4.000000e-07	-5.202846e-06	-1.507550e-09	-3.622301e+01	-1.003429e+02
4.100000e-07	-5.186170e-06	-1.509343e-09	-3.610691e+01	-1.001544e+02
4.200000e-07	-5.169359e-06	-1.552438e-09	-3.598987e+01	-9.995968e+01
4.300000e-07	-5.152182e-06	-1.520866e-09	-3.587028e+01	-9.975877e+01
4.400000e-07	-5.134665e-06	-1.468470e-09	-3.574832e+01	-9.955168e+01
4.500000e-07	-5.116877e-06	-1.537971e-09	-3.562449e+01	-9.933842e+01
4.600000e-07	-5.098635e-06	-1.549137e-09	-3.549748e+01	-9.911901e+01
4.700000e-07	-5.079906e-06	-1.455687e-09	-3.536709e+01	-9.889346e+01
4.800000e-07	-5.060884e-06	-1.477745e-09	-3.523465e+01	-9.866178e+01
4.900000e-07	-5.041596e-06	-1.561473e-09	-3.510037e+01	-9.842397e+01
5.000000e-07	-5.021976e-06	-1.490709e-09	-3.496377e+01	-9.818006e+01
5.100000e-07	-5.002103e-06	-1.443392e-09	-3.482541e+01	-9.793005e+01
5.200000e-07	-4.982040e-06	-1.521617e-09	-3.468572e+01	-9.767394e+01
5.300000e-07	-4.961673e-06	-1.499543e-09	-3.454393e+01	-9.741176e+01
5.400000e-07	-4.940933e-06	-1.430067e-09	-3.439953e+01	-9.714349e+01
5.500000e-07	-4.919877e-06	-1.494898e-09	-3.425294e+01	-9.686916e+01
5.600000e-07	-4.898444e-06	-1.513338e-09	-3.410372e+01	-9.658878e+01
5.700000e-07	-4.876599e-06	-1.420086e-09	-3.395163e+01	-9.630237e+01
5.800000e-07	-4.854412e-06	-1.452329e-09	-3.379716e+01	-9.600993e+01
5.900000e-07	-4.831852e-06	-1.515663e-09	-3.364010e+01	-9.571150e+01
6.000000e-07	-4.808985e-06	-1.444111e-09	-3.348089e+01	-9.540710e+01
6.100000e-07	-4.785863e-06	-1.415445e-09	-3.331991e+01	-9.509675e+01
6.200000e-07	-4.762429e-06	-1.477962e-09	-3.315676e+01	-9.478051e+01
6.300000e-07	-4.738780e-06	-1.437597e-09	-3.299212e+01	-9.445841e+01
6.400000e-07	-4.714968e-06	-1.392048e-09	-3.282634e+01	-9.413049e+01
6.500000e-07	-4.690856e-06	-1.437124e-09	-3.265846e+01	-9.379683e+01
6.600000e-07	-4.666354e-06	-1.439748e-09	-3.248787e+01	-9.345748e+01
6.700000e-07	-4.641325e-06	-1.390513e-09	-3.231362e+01	-9.311250e+01
6.800000e-07	-4.615792e-06	-1.415073e-09	-3.213585e+01	-9.276199e+01
6.900000e-07	-4.589815e-06	-1.429483e-09	-3.195500e+01	-9.240603e+01
7.000000e-07	-4.563269e-06	-1.394308e-09	-3.177018e+01	-9.204470e+01
7.100000e-07	-4.536256e-06	-1.388941e-09	-3.158211e+01	-9.167811e+01
7.200000e-07	-4.508937e-06	-1.405271e-09	-3.139191e+01	-9.130637e+01
7.300000e-07	-4.481357e-06	-1.379949e-09	-3.119989e+01	-9.092959e+01
7.400000e-07	-4.453532e-06	-1.367826e-09	-3.100618e+01	-9.054788e+01
7.500000e-07	-4.425509e-06	-1.377031e-09	-3.081108e+01	-9.016137e+01
7.600000e-07	-4.397305e-06	-1.367288e-09	-3.061471e+01	-8.977018e+01
7.700000e-07	-4.368805e-06	-1.350751e-09	-3.041629e+01	-8.937445e+01
7.800000e-07	-4.339976e-06	-1.352651e-09	-3.021558e+01	-8.897430e+01
7.900000e-07	-4.310921e-06	-1.344203e-09	-3.001329e+01	-8.856986e+01
8.000000e-07	-4.281590e-06	-1.332666e-09	-2.980909e+01	-8.816127e+01
8.100000e-07	-4.251947e-06	-1.330641e-09	-2.960271e+01	-8.774866e+01
8.200000e-07	-4.221948e-06	-1.319146e-09	-2.939385e+01	-8.733215e+01
8.300000e-07	-4.191571e-06	-1.302202e-09	-2.918236e+01	-8.691186e+01
8.400000e-07	-4.161007e-06	-1.300485e-09	-2.896957e+01	-8.648791e+01
8.500000e-07	-4.130187e-06	-1.297366e-09	-2.875500e+01	-8.606042e+01
8.600000e-07	-4.099028e-06	-1.279955e-09	-2.853807e+01	-8.562947e+01
8.700000e-07	-4.067657e-06	-1.274620e-09	-2.831965e+01	-8.519518e+01
8.800000e-07	-4.036084e-06	-1.276050e-09	-2.809984e+01	-8.475762e+01
8.900000e-07	-4.004322e-06	-1.267822e-09	-2.787870e+01	-8.431685e+01
9.000000e-07	-3.972364e-06	-1.258092e-09	-2.765621e+01	-8.387295e+01
9.100000e-07	-3.940146e-06	-1.256528e-09	-2.743190e+01	-8.342597e+01
9.200000e-07	-3.907616e-06	-1.243153e-09	-2.720542e+01	-8.297592e+01
9.300000e-07	-3.874697e-06	-1.227719e-09	-2.697623e+01	-8.252284e+01
9.400000e-07	-3.841316e-06	-1.222015e-09	-2.674383e+01	-8.206672e+01
9.500000e-07	-3.807509e-06	-1.218199e-09	-2.650846e+01	-8.160757e+01
9.600000e-07	-3.773251e-06	-1.205231e-09	-2.626996e+01	-8.114534e+01
9.700000e-07	-3.738464e-06	-1.198496e-09	-2.602776e+01	-8.068002e+01
9.800000e-07	-3.703376e-06	-1.195313e-09	-2.578347e+01	-8.021153e+01
9.900000e-07	-3.668128e-06	-1.189495e-09	-2.553807e+01	-7.973981e+01
1.000000e-06	-3.632671e-06	-1.180177e-09	-2.529121e+01	-7.926479e+01
1.010000e-06	-3.597064e-06	-1.176364e-09	-2.504331e+01	-7.878636e+01
1.020000e-06	-3.561303e-06	-1.168529e-09	-2.479434e+01	-7.830442e+01
1.030000e-06	-3.525381e-06	-1.160695e-09	-2.454424e+01	-7.781885e+01
1.040000e-06	-3.489287e-06	-1.153711e-09	-2.429295e+01	-7.732952e+01
1.050000e-06	-3.452973e-06	-1.144357e-09	-2.404013e+01	-7.683630e+01
1.060000e-06	-3.416389e-06	-1.132735e-09	-2.378542e+01	-7.633904e+01
1.070000e-06	-3.379538e-06	-1.125634e-09	-2.352886e+01	-7.583759e+01
1.080000e-06	-3.342416e-06	-1.120714e-09	-2.327041e+01	-7.533179e+01
1.090000e-06	-3.305078e-06	-1.114786e-09	-2.301046e+01	-7.482148e+01
1.100000e-06	-3.267486e-06	-1.105259e-09	-2.274874e+01	-7.430651e+01
1.110000e-06	-3.229623e-06	-1.095810e-09	-2.248513e+01	-7.378670e+01
1.120000e-06	-3.191581e-06	-1.084393e-09	-2.222028e+01	-7.326191e+01
1.130000e-06	-3.153241e-06	-1.071845e-09	-2.195335e+01	-7.273198e+01
1.140000e-06	-3.114765e-06	-1.063121e-09	-2.168548e+01	-7.219674e+01
1.150000e-06	-3.076135e-06	-1.055139e-09	-2.141652e+01	-7.165605e+01
1.160000e-06	-3.037229e-06	-1.044381e-09	-2.114565e+01	-7.110978e+01
1.170000e-06	-2.998131e-06	-1.034199e-09	-2.087345e+01	-7.055777e+01
1.180000e-06	-2.958832e-06	-1.028510e-09	-2.059985e+01	-6.999992e+01
1.190000e-06	-2.919369e-06	-1.021899e-09	-2.032509e+01	-6.943610e+01
1.200000e-06	-2.879752e-06	-1.013794e-09	-2.004927e+01	-6.886620e+01
1.210000e-06	-2.840051e-06	-1.003815e-09	-1.977287e+01	-6.829013e+01
1.220000e-06	-2.800195e-06	-9.949082e-10	-1.949539e+01	-6.770779e+01
1.230000e-06	-2.760161e-06	-9.825023e-10	-1.921666e+01	-6.711912e+01
1.240000e-06	-2.720023e-06	-9.715003e-10	-1.893722e+01	-6.652404e+01
1.250000e-06	-2.679673e-06	-9.600672e-10	-1.865629e+01	-6.592250e+01
1.260000e-06	-2.638981e-06	-9.512853e-10	-1.837299e+01	-6.531444e+01
1.270000e-06	-2.598108e-06	-9.415055e-10	-1.808843e+01	-6.469983e+01
1.280000e-06	-2.556964e-06	-9.304486e-10	-1.780198e+01	-6.407863e+01
1.290000e-06	-2.515519e-06	-9.216412e-10	-1.751343e+01	-6.345081e+01
1.300000e-06	-2.473917e-06	-9.118925e-10	-1.722379e+01	-6.281634e+01
1.310000e-06	-2.431964e-06	-8.992544e-10	-1.693171e+01	-6.217522e+01
1.320000e-06	-2.389623e-06	-8.850397e-10	-1.663693e+01	-6.152740e+01
1.330000e-06	-2.347011e-06	-8.726767e-10	-1.634025e+01	-6.087287e+01
1.340000e-06	-2.304255e-06	-8.655747e-10	-1.604258e+01	-6.021160e+01
1.350000e-06	-2.261334e-06	-8.588061e-10	-1.574375e+01	-5.954355e+01
1.360000e-06	-2.218166e-06	-8.517009e-10	-1.544322e+01	-5.886870e+01
1.370000e-06	-2.174868e-06	-8.375588e-10	-1.514177e+01	-5.818699e+01
1.380000e-06	-2.131462e-06	-8.274753e-10	-1.483957e+01	-5.749835e+01
1.390000e-06	-2.087862e-06	-8.205533e-10	-1.453601e+01	-5.680271e+01
1.400000e-06	-2.044071e-06	-8.102792e-10	-1.423114e+01	-5.609997e+01
1.410000e-06	-2.000254e-06	-8.000081e-10	-1.392608e+01	-5.539003e+01
1.420000e-06	-1.956470e-06	-7.909446e-10	-1.362124e+01	-5.467276e+01
1.430000e-06	-1.912597e-06	-7.806413e-10	-1.331579e+01	-5.394799e+01
1.440000e-06	-1.868587e-06	-7.683266e-10	-1.300939e+01	-5.321556e+01
1.450000e-06	-1.824377e-06	-7.550821e-10	-1.270160e+01	-5.247526e+01
1.460000e-06	-1.780093e-06	-7.424269e-10	-1.239328e+01	-5.172685e+01
1.470000e-06	-1.735781e-06	-7.286866e-10	-1.208477e+01	-5.097010e+01
1.480000e-06	-1.691306e-06	-7.120117e-10	-1.177513e+01	-5.020471e+01
1.490000e-06	-1.646792e-06	-6.976137e-10	-1.146522e+01	-4.943037e+01
1.500000e-06	-1.602163e-06	-6.867307e-10	-1.115451e+01	-4.864674e+01
1.510000e-06	-1.557329e-06	-6.796476e-10	-1.084237e+01	-4.785347e+01
1.520000e-06	-1.512382e-06	-6.724234e-10	-1.052944e+01	-4.705015e+01
1.530000e-06	-1.467385e-06	-6.611973e-10	-1.021616e+01	-4.623638e+01
1.540000e-06	-1.422270e-06	-6.446758e-10	-9.902059e+00	-4.541171e+01
1.550000e-06	-1.376978e-06	-6.243436e-10	-9.586733e+00	-4.457567e+01
1.560000e-06	-1.331660e-06	-6.048517e-10	-9.271223e+00	-4.372780e+01
1.570000e-06	-1.286321e-06	-5.896681e-10	-8.955568e+00	-4.286758e+01
1.580000e-06	-1.240891e-06	-5.758531e-10	-8.639275e+00	-4.199452e+01
1.590000e-06	-1.195314e-06	-5.667978e-10	-8.321963e+00	-4.110808e+01
1.600000e-06	-1.149557e-06	-5.582768e-10	-8.003394e+00	-4.020773e+01
1.610000e-06	-1.103704e-06	-5.469840e-10	-7.684159e+00	-3.929294e+01
1.620000e-06	-1.057780e-06	-5.301449e-10	-7.364429e+00	-3.836319e+01
1.630000e-06	-1.011766e-06	-5.137583e-10	-7.044073e+00	-3.741794e+01
1.640000e-06	-9.656763e-07	-4.972398e-10	-6.723187e+00	-3.645667e+01
1.650000e-06	-9.196133e-07	-4.787868e-10	-6.402489e+00	-3.547888e+01
1.660000e-06	-8.735621e-07	-4.631877e-10	-6.081873e+00	-3.448410e+01
1.670000e-06	-8.273415e-07	-4.513014e-10	-5.760079e+00	-3.347185e+01
1.680000e-06	-7.809629e-07	-4.370480e-10	-5.437184e+00	-3.244171e+01
1.690000e-06	-7.345026e-07	-4.215072e-10	-5.113720e+00	-3.139328e+01
1.700000e-06	-6.881124e-07	-4.052715e-10	-4.790744e+00	-3.032621e+01
1.710000e-06	-6.417580e-07	-3.885362e-10	-4.468018e+00	-2.924018e+01
1.720000e-06	-5.952673e-07	-3.707514e-10	-4.144342e+00	-2.813492e+01
1.730000e-06	-5.486381e-07	-3.515834e-10	-3.819703e+00	-2.701021e+01
1.740000e-06	-5.019732e-07	-3.295275e-10	-3.494815e+00	-2.586590e+01
1.750000e-06	-4.553498e-07	-3.070074e-10	-3.170215e+00	-2.470189e+01
1.760000e-06	-4.087666e-07	-2.893922e-10	-2.845896e+00	-2.351815e+01
1.770000e-06	-3.621136e-07	-2.754079e-10	-2.521090e+00	-2.231470e+01
1.780000e-06	-3.153896e-07	-2.624546e-10	-2.195791e+00	-2.109165e+01
1.790000e-06	-2.687000e-07	-2.488240e-10	-1.870731e+00	-1.984917e+01
1.800000e-06	-2.220015e-07	-2.333030e-10	-1.545608e+00	-1.858751e+01
1.810000e-06	-1.751732e-07	-2.133826e-10	-1.219582e+00	-1.730698e+01
1.820000e-06	-1.283318e-07	-1.928982e-10	-8.934656e-01	-1.600798e+01
1.830000e-06	-8.157173e-08	-1.745238e-10	-5.679150e-01	-1.469100e+01
1.840000e-06	-3.482085e-08	-1.574639e-10	-2.424281e-01	-1.335656e+01
1.850000e-06	1.193254e-08	-1.404832e-10	8.307620e-02	-1.200531e+01
1.860000e-06	5.870912e-08	-1.230134e-10	4.087419e-01	-1.063793e+01
1.870000e-06	1.055128e-07	-1.055971e-10	7.345960e-01	-9.255189e+00
1.880000e-06	1.523323e-07	-8.633164e-11	1.060561e+00	-7.857932e+00
1.890000e-06	1.991194e-07	-6.340947e-11	1.386300e+00	-6.447061e+00
1.900000e-06	2.458082e-07	-4.107462e-11	1.711354e+00	-5.023543e+00
1.910000e-06	2.924320e-07	-2.172615e-11	2.035956e+00	-3.588405e+00
1.920000e-06	3.390732e-07	-3.493891e-12	2.360680e+00	-2.142728e+00
1.930000e-06	3.857599e-07	1.439126e-11	2.685720e+00	-6.876436e-01
1.940000e-06	4.323702e-07	3.187039e-11	3.010228e+00	7.756715e-01
1.950000e-06	4.788557e-07	5.096604e-11	3.333867e+00	2.246002e+00
1.960000e-06	5.253083e-07	7.145454e-11	3.657277e+00	3.722098e+00
1.970000e-06	5.717650e-07	9.471235e-11	3.980716e+00	5.202682e+00
1.980000e-06	6.182704e-07	1.166464e-10	4.304494e+00	6.686457e+00
1.990000e-06	6.646197e-07	1.358487e-10	4.627184e+00	8.172110e+00
2.000000e-06	7.107582e-07	1.543616e-10	4.948408e+00	9.658319e+00
2.010000e-06	7.569071e-07	1.713224e-10	5.269704e+00	1.114376e+01
2.020000e-06	8.031045e-07	1.897582e-10	5.591337e+00	1.262712e+01
2.030000e-06	8.493094e-07	2.134844e-10	5.913023e+00	1.410708e+01
2.040000e-06	8.954121e-07	2.379665e-10	6.233996e+00	1.558236e+01
2.050000e-06	9.414375e-07	2.611320e-10	6.554432e+00	1.705170e+01
2.060000e-06	9.874531e-07	2.840100e-10	6.874800e+00	1.851386e+01
2.070000e-06	1.033385e-06	3.046621e-10	7.194585e+00	1.996764e+01
2.080000e-06	1.079234e-06	3.232964e-10	7.513794e+00	2.141188e+01
2.090000e-06	1.125014e-06	3.403574e-10	7.832521e+00	2.284547e+01
2.100000e-06	1.170718e-06	3.601617e-10	8.150716e+00	2.426736e+01
2.110000e-06	1.216299e-06	3.809089e-10	8.468057e+00	2.567654e+01
2.120000e-06	1.261760e-06	3.989622e-10	8.784567e+00	2.707207e+01
2.130000e-06	1.307178e-06	4.185085e-10	9.100775e+00	2.845307e+01
2.140000e-06	1.352595e-06	4.398971e-10	9.416973e+00	2.981872e+01
2.150000e-06	1.397857e-06	4.611166e-10	9.732095e+00	3.116829e+01
2.160000e-06	1.442964e-06	4.818287e-10	1.004613e+01	3.250109e+01
2.170000e-06	1.488050e-06	5.000598e-10	1.036003e+01	3.381653e+01
2.180000e-06	1.533071e-06	5.174703e-10	1.067347e+01	3.511408e+01
2.190000e-06	1.578087e-06	5.350275e-10	1.098688e+01	3.639327e+01
2.200000e-06	1.622987e-06	5.509927e-10	1.129949e+01	3.765373e+01
2.210000e-06	1.667552e-06	5.670879e-10	1.160975e+01	3.889514e+01
2.220000e-06	1.711897e-06	5.827362e-10	1.191849e+01	4.011727e+01
2.230000e-06	1.756141e-06	6.005539e-10	1.222653e+01	4.131994e+01
2.240000e-06	1.800302e-06	6.184664e-10	1.253398e+01	4.250305e+01
2.250000e-06	1.844347e-06	6.341143e-10	1.284063e+01	4.366656e+01
2.260000e-06	1.888275e-06	6.509056e-10	1.314646e+01	4.481049e+01
2.270000e-06	1.932118e-06	6.639917e-10	1.345170e+01	4.593491e+01
2.280000e-06	1.975877e-06	6.814999e-10	1.375636e+01	4.703996e+01
2.290000e-06	2.019602e-06	6.990042e-10	1.406078e+01	4.812581e+01
2.300000e-06	2.063286e-06	7.195600e-10	1.436492e+01	4.919271e+01
2.310000e-06	2.106918e-06	7.349721e-10	1.466869e+01	5.024091e+01
2.320000e-06	2.150466e-06	7.491926e-10	1.497187e+01	5.127071e+01
2.330000e-06	2.193924e-06	7.658821e-10	1.527444e+01	5.228247e+01
2.340000e-06	2.237265e-06	7.795344e-10	1.557619e+01	5.327653e+01
2.350000e-06	2.280412e-06	7.955504e-10	1.587658e+01	5.425329e+01
2.360000e-06	2.323299e-06	8.126845e-10	1.617517e+01	5.521315e+01
2.370000e-06	2.365816e-06	8.318256e-10	1.647117e+01	5.615653e+01
2.380000e-06	2.408109e-06	8.475076e-10	1.676562e+01	5.708385e+01
2.390000e-06	2.450198e-06	8.586860e-10	1.705866e+01	5.799554e+01
2.400000e-06	2.491892e-06	8.681089e-10	1.734894e+01	5.889203e+01
2.410000e-06	2.533216e-06	8.756903e-10	1.763664e+01	5.977375e+01
2.420000e-06	2.574263e-06	8.845758e-10	1.792241e+01	6.064111e+01
2.430000e-06	2.615079e-06	8.986635e-10	1.820658e+01	6.149452e+01
2.440000e-06	2.655660e-06	9.136137e-10	1.848911e+01	6.233437e+01
2.450000e-06	2.695978e-06	9.309686e-10	1.876981e+01	6.316104e+01
2.460000e-06	2.736117e-06	9.453301e-10	1.904927e+01	6.397489e+01
2.470000e-06	2.776151e-06	9.595914e-10	1.932799e+01	6.477625e+01
2.480000e-06	2.816036e-06	9.695025e-10	1.960568e+01	6.556545e+01
2.490000e-06	2.855820e-06	9.776784e-10	1.988266e+01	6.634276e+01
2.500000e-06	2.895469e-06	9.866907e-10	2.015870e+01	6.710846e+01
2.510000e-06	2.934960e-06	9.956933e-10	2.043364e+01	6.786279e+01
2.520000e-06	2.974290e-06	1.006394e-09	2.070746e+01	6.860596e+01
2.530000e-06	3.013419e-06	1.020189e-09	2.097989e+01	6.933818e+01
2.540000e-06	3.052422e-06	1.031383e-09	2.125143e+01	7.005960e+01
2.550000e-06	3.091136e-06	1.040881e-09	2.152096e+01	7.077038e+01
2.560000e-06	3.129605e-06	1.050998e-09	2.178879e+01	7.147063e+01
2.570000e-06	3.167888e-06	1.061433e-09	2.205532e+01	7.216047e+01
2.580000e-06	3.205868e-06	1.070874e-09	2.231974e+01	7.283997e+01
2.590000e-06	3.243685e-06	1.079666e-09	2.258303e+01	7.350921e+01
2.600000e-06	3.281378e-06	1.088608e-09	2.284546e+01	7.416824e+01
2.610000e-06	3.318878e-06	1.097150e-09	2.310654e+01	7.481710e+01
2.620000e-06	3.356176e-06	1.103322e-09	2.336621e+01	7.545583e+01
2.630000e-06	3.393174e-06	1.107216e-09	2.362380e+01	7.608444e+01
2.640000e-06	3.429847e-06	1.113960e-09	2.387912e+01	7.670297e+01
2.650000e-06	3.466217e-06	1.123414e-09	2.413234e+01	7.731141e+01
2.660000e-06	3.502316e-06	1.135778e-09	2.438366e+01	7.790980e+01
2.670000e-06	3.538268e-06	1.146717e-09	2.463396e+01	7.849814e+01
2.680000e-06	3.574094e-06	1.153207e-09	2.488339e+01	7.907645e+01
2.690000e-06	3.609796e-06	1.158577e-09	2.513196e+01	7.964478e+01
2.700000e-06	3.645342e-06	1.163871e-09	2.537943e+01	8.020314e+01
2.710000e-06	3.680784e-06	1.170733e-09	2.562619e+01	8.075159e+01
2.720000e-06	3.716132e-06	1.179351e-09	2.587228e+01	8.129017e+01
2.730000e-06	3.751153e-06	1.187943e-09	2.611610e+01	8.181897e+01
2.740000e-06	3.785719e-06	1.197455e-09	2.635676e+01	8.233806e+01
2.750000e-06	3.819741e-06	1.204914e-09	2.659362e+01	8.284754e+01
2.760000e-06	3.853235e-06	1.212364e-09	2.682681e+01	8.334752e+01
2.770000e-06	3.886287e-06	1.220826e-09	2.705693e+01	8.383812e+01
2.780000e-06	3.918898e-06	1.231859e-09	2.728397e+01	8.431949e+01
2.790000e-06	3.951219e-06	1.241785e-09	2.750900e+01	8.479179e+01
2.800000e-06	3.983320e-06	1.247791e-09	2.773249e+01	8.525517e+01
2.810000e-06	4.015224e-06	1.251849e-09	2.795461e+01	8.570984e+01
2.820000e-06	4.046958e-06	1.257253e-09	2.817554e+01	8.615598e+01
2.830000e-06	4.078490e-06	1.263024e-09	2.839507e+01	8.659381e+01
2.840000e-06	4.109834e-06	1.269352e-09	2.861329e+01	8.702354e+01
2.850000e-06	4.140943e-06	1.278182e-09	2.882988e+01	8.744540e+01
2.860000e-06	4.171673e-06	1.290202e-09	2.904383e+01	8.785963e+01
2.870000e-06	4.202046e-06	1.298340e-09	2.925529e+01	8.826645e+01
2.880000e-06	4.232140e-06	1.301634e-09	2.946481e+01	8.866613e+01
2.890000e-06	4.261923e-06	1.305938e-09	2.967216e+01	8.905889e+01
2.900000e-06	4.291431e-06	1.311798e-09	2.987760e+01	8.944498e+01
