# Temperatura_=_-1.5
# Concentracion g/m^3_=_1620.0
# C_Vs_to_Am_M_A/Vsm_=_65563218390.804596
# pendiente_HvsI_1/m_=_3716.3
# ordenada_HvsI_A/m_=_1297.0
# frecuencia_Hz_=_135106.52633534235

Tiempo_(s)	Campo_(V.s)	Magnetizacion_(V.s)	Campo_(kA/m)	Magnetizacion_(A/m)
0.000000e+00	-5.515889e-06	-9.767490e-10	-3.836369e+01	-6.713536e+01
1.000000e-08	-5.516060e-06	-9.767031e-10	-3.836488e+01	-6.710823e+01
2.000000e-08	-5.516003e-06	-9.808426e-10	-3.836449e+01	-6.708145e+01
3.000000e-08	-5.515562e-06	-9.847804e-10	-3.836142e+01	-6.705473e+01
4.000000e-08	-5.514677e-06	-9.817988e-10	-3.835526e+01	-6.702780e+01
5.000000e-08	-5.513269e-06	-9.660067e-10	-3.834547e+01	-6.700035e+01
6.000000e-08	-5.511228e-06	-9.556012e-10	-3.833127e+01	-6.697209e+01
7.000000e-08	-5.508521e-06	-9.743260e-10	-3.831244e+01	-6.694270e+01
8.000000e-08	-5.505296e-06	-9.901394e-10	-3.829001e+01	-6.691187e+01
9.000000e-08	-5.501647e-06	-1.013089e-09	-3.826464e+01	-6.687930e+01
1.000000e-07	-5.497571e-06	-1.058704e-09	-3.823629e+01	-6.684468e+01
1.100000e-07	-5.493169e-06	-1.015957e-09	-3.820567e+01	-6.680770e+01
1.200000e-07	-5.488526e-06	-9.045554e-10	-3.817338e+01	-6.676809e+01
1.300000e-07	-5.483648e-06	-9.228250e-10	-3.813945e+01	-6.672556e+01
1.400000e-07	-5.478412e-06	-9.858970e-10	-3.810303e+01	-6.667984e+01
1.500000e-07	-5.472766e-06	-1.019275e-09	-3.806376e+01	-6.663067e+01
1.600000e-07	-5.466746e-06	-9.051583e-10	-3.802189e+01	-6.657783e+01
1.700000e-07	-5.460390e-06	-9.481086e-10	-3.797769e+01	-6.652109e+01
1.800000e-07	-5.453680e-06	-1.040203e-09	-3.793102e+01	-6.646026e+01
1.900000e-07	-5.446553e-06	-1.023199e-09	-3.788145e+01	-6.639516e+01
2.000000e-07	-5.439069e-06	-9.006210e-10	-3.782940e+01	-6.632563e+01
2.100000e-07	-5.431373e-06	-9.063743e-10	-3.777587e+01	-6.625154e+01
2.200000e-07	-5.423427e-06	-1.031193e-09	-3.772061e+01	-6.617278e+01
2.300000e-07	-5.415195e-06	-1.064505e-09	-3.766335e+01	-6.608927e+01
2.400000e-07	-5.406562e-06	-1.004924e-09	-3.760331e+01	-6.600095e+01
2.500000e-07	-5.397249e-06	-9.776578e-10	-3.753854e+01	-6.590778e+01
2.600000e-07	-5.387124e-06	-1.027828e-09	-3.746811e+01	-6.580974e+01
2.700000e-07	-5.376405e-06	-9.908455e-10	-3.739356e+01	-6.570685e+01
2.800000e-07	-5.365263e-06	-9.667661e-10	-3.731607e+01	-6.559913e+01
2.900000e-07	-5.353674e-06	-9.708121e-10	-3.723546e+01	-6.548664e+01
3.000000e-07	-5.341744e-06	-1.011133e-09	-3.715249e+01	-6.536944e+01
3.100000e-07	-5.329461e-06	-9.717886e-10	-3.706706e+01	-6.524764e+01
3.200000e-07	-5.316762e-06	-9.751016e-10	-3.697874e+01	-6.512135e+01
3.300000e-07	-5.303640e-06	-9.678406e-10	-3.688747e+01	-6.499067e+01
3.400000e-07	-5.290089e-06	-9.897818e-10	-3.679323e+01	-6.485576e+01
3.500000e-07	-5.276202e-06	-9.710069e-10	-3.669664e+01	-6.471676e+01
3.600000e-07	-5.261972e-06	-9.634566e-10	-3.659767e+01	-6.457384e+01
3.700000e-07	-5.247311e-06	-9.564531e-10	-3.649570e+01	-6.442717e+01
3.800000e-07	-5.232139e-06	-1.001690e-09	-3.639017e+01	-6.427692e+01
3.900000e-07	-5.216298e-06	-9.751019e-10	-3.627999e+01	-6.412328e+01
4.000000e-07	-5.199983e-06	-9.291632e-10	-3.616652e+01	-6.396643e+01
4.100000e-07	-5.183313e-06	-9.582293e-10	-3.605058e+01	-6.380657e+01
4.200000e-07	-5.166236e-06	-9.941704e-10	-3.593181e+01	-6.364386e+01
4.300000e-07	-5.148813e-06	-9.319403e-10	-3.581063e+01	-6.347851e+01
4.400000e-07	-5.131084e-06	-9.338473e-10	-3.568732e+01	-6.331068e+01
4.500000e-07	-5.113091e-06	-1.019222e-09	-3.556218e+01	-6.314056e+01
4.600000e-07	-5.094660e-06	-9.704225e-10	-3.543399e+01	-6.296832e+01
4.700000e-07	-5.075732e-06	-8.963882e-10	-3.530234e+01	-6.279410e+01
4.800000e-07	-5.056489e-06	-9.645472e-10	-3.516850e+01	-6.261807e+01
4.900000e-07	-5.037014e-06	-9.986812e-10	-3.503305e+01	-6.244037e+01
5.000000e-07	-5.017324e-06	-9.083884e-10	-3.489611e+01	-6.226112e+01
5.100000e-07	-4.997398e-06	-9.367315e-10	-3.475752e+01	-6.208044e+01
5.200000e-07	-4.977141e-06	-9.922972e-10	-3.461663e+01	-6.189845e+01
5.300000e-07	-4.956467e-06	-9.348169e-10	-3.447284e+01	-6.171522e+01
5.400000e-07	-4.935444e-06	-9.176082e-10	-3.432663e+01	-6.153085e+01
5.500000e-07	-4.914131e-06	-9.920894e-10	-3.417839e+01	-6.134540e+01
5.600000e-07	-4.892446e-06	-9.340453e-10	-3.402757e+01	-6.115893e+01
5.700000e-07	-4.870412e-06	-8.847760e-10	-3.387432e+01	-6.097148e+01
5.800000e-07	-4.848067e-06	-9.539961e-10	-3.371890e+01	-6.078308e+01
5.900000e-07	-4.825344e-06	-9.675732e-10	-3.356086e+01	-6.059374e+01
6.000000e-07	-4.802344e-06	-8.924940e-10	-3.340090e+01	-6.040349e+01
6.100000e-07	-4.779092e-06	-9.260150e-10	-3.323917e+01	-6.021230e+01
6.200000e-07	-4.755488e-06	-9.486525e-10	-3.307501e+01	-6.002018e+01
6.300000e-07	-4.731642e-06	-8.969620e-10	-3.290916e+01	-5.982710e+01
6.400000e-07	-4.707609e-06	-8.981027e-10	-3.274200e+01	-5.963303e+01
6.500000e-07	-4.683315e-06	-9.408005e-10	-3.257303e+01	-5.943794e+01
6.600000e-07	-4.658578e-06	-9.053809e-10	-3.240098e+01	-5.924177e+01
6.700000e-07	-4.633338e-06	-8.949515e-10	-3.222544e+01	-5.904450e+01
6.800000e-07	-4.607621e-06	-9.243121e-10	-3.204658e+01	-5.884606e+01
6.900000e-07	-4.581310e-06	-9.081883e-10	-3.186358e+01	-5.864640e+01
7.000000e-07	-4.554444e-06	-8.789114e-10	-3.167672e+01	-5.844546e+01
7.100000e-07	-4.527233e-06	-8.943584e-10	-3.148746e+01	-5.824319e+01
7.200000e-07	-4.499771e-06	-8.908979e-10	-3.129646e+01	-5.803953e+01
7.300000e-07	-4.472103e-06	-8.739600e-10	-3.110403e+01	-5.783441e+01
7.400000e-07	-4.444289e-06	-8.868245e-10	-3.091058e+01	-5.762779e+01
7.500000e-07	-4.416247e-06	-8.872701e-10	-3.071554e+01	-5.741959e+01
7.600000e-07	-4.387889e-06	-8.666924e-10	-3.051831e+01	-5.720978e+01
7.700000e-07	-4.359204e-06	-8.619373e-10	-3.031880e+01	-5.699829e+01
7.800000e-07	-4.330168e-06	-8.634534e-10	-3.011686e+01	-5.678508e+01
7.900000e-07	-4.300834e-06	-8.492292e-10	-2.991283e+01	-5.657010e+01
8.000000e-07	-4.271208e-06	-8.513257e-10	-2.970678e+01	-5.635330e+01
8.100000e-07	-4.241353e-06	-8.559339e-10	-2.949914e+01	-5.613466e+01
8.200000e-07	-4.211298e-06	-8.464845e-10	-2.929009e+01	-5.591411e+01
8.300000e-07	-4.180923e-06	-8.348484e-10	-2.907884e+01	-5.569165e+01
8.400000e-07	-4.150159e-06	-8.433536e-10	-2.886487e+01	-5.546722e+01
8.500000e-07	-4.119053e-06	-8.340468e-10	-2.864852e+01	-5.524080e+01
8.600000e-07	-4.087770e-06	-8.251524e-10	-2.843095e+01	-5.501236e+01
8.700000e-07	-4.056319e-06	-8.262625e-10	-2.821220e+01	-5.478189e+01
8.800000e-07	-4.024633e-06	-8.274080e-10	-2.799182e+01	-5.454934e+01
8.900000e-07	-3.992753e-06	-8.150993e-10	-2.777009e+01	-5.431469e+01
9.000000e-07	-3.960689e-06	-8.150600e-10	-2.754708e+01	-5.407792e+01
9.100000e-07	-3.928384e-06	-8.137658e-10	-2.732240e+01	-5.383901e+01
9.200000e-07	-3.895776e-06	-8.050995e-10	-2.709560e+01	-5.359793e+01
9.300000e-07	-3.862749e-06	-7.994060e-10	-2.686590e+01	-5.335464e+01
9.400000e-07	-3.829230e-06	-8.058794e-10	-2.663277e+01	-5.310912e+01
9.500000e-07	-3.795228e-06	-7.988141e-10	-2.639628e+01	-5.286133e+01
9.600000e-07	-3.760817e-06	-7.873744e-10	-2.615695e+01	-5.261123e+01
9.700000e-07	-3.725999e-06	-7.816057e-10	-2.591478e+01	-5.235879e+01
9.800000e-07	-3.690824e-06	-7.782293e-10	-2.567014e+01	-5.210396e+01
9.900000e-07	-3.655387e-06	-7.711724e-10	-2.542367e+01	-5.184669e+01
1.000000e-06	-3.619760e-06	-7.701870e-10	-2.517588e+01	-5.158692e+01
1.010000e-06	-3.584015e-06	-7.694802e-10	-2.492727e+01	-5.132460e+01
1.020000e-06	-3.548140e-06	-7.648504e-10	-2.467775e+01	-5.105966e+01
1.030000e-06	-3.512137e-06	-7.604145e-10	-2.442735e+01	-5.079202e+01
1.040000e-06	-3.475920e-06	-7.562959e-10	-2.417545e+01	-5.052163e+01
1.050000e-06	-3.439449e-06	-7.499080e-10	-2.392180e+01	-5.024838e+01
1.060000e-06	-3.402723e-06	-7.418833e-10	-2.366636e+01	-4.997221e+01
1.070000e-06	-3.365767e-06	-7.397698e-10	-2.340933e+01	-4.969301e+01
1.080000e-06	-3.328553e-06	-7.363982e-10	-2.315050e+01	-4.941070e+01
1.090000e-06	-3.291069e-06	-7.336099e-10	-2.288979e+01	-4.912518e+01
1.100000e-06	-3.253319e-06	-7.312048e-10	-2.262723e+01	-4.883634e+01
1.110000e-06	-3.215335e-06	-7.289464e-10	-2.236305e+01	-4.854407e+01
1.120000e-06	-3.177201e-06	-7.226811e-10	-2.209783e+01	-4.824828e+01
1.130000e-06	-3.138782e-06	-7.175641e-10	-2.183062e+01	-4.794886e+01
1.140000e-06	-3.100141e-06	-7.101910e-10	-2.156187e+01	-4.764568e+01
1.150000e-06	-3.061379e-06	-7.032865e-10	-2.129227e+01	-4.733863e+01
1.160000e-06	-3.022389e-06	-6.964561e-10	-2.102109e+01	-4.702761e+01
1.170000e-06	-2.983159e-06	-6.947617e-10	-2.074824e+01	-4.671250e+01
1.180000e-06	-2.943742e-06	-6.927037e-10	-2.047409e+01	-4.639318e+01
1.190000e-06	-2.904165e-06	-6.915887e-10	-2.019882e+01	-4.606955e+01
1.200000e-06	-2.864452e-06	-6.860565e-10	-1.992262e+01	-4.574149e+01
1.210000e-06	-2.824619e-06	-6.793903e-10	-1.964557e+01	-4.540889e+01
1.220000e-06	-2.784647e-06	-6.686399e-10	-1.936756e+01	-4.507165e+01
1.230000e-06	-2.744539e-06	-6.602670e-10	-1.908861e+01	-4.472965e+01
1.240000e-06	-2.704300e-06	-6.543191e-10	-1.880874e+01	-4.438280e+01
1.250000e-06	-2.663845e-06	-6.496081e-10	-1.852737e+01	-4.403099e+01
1.260000e-06	-2.623171e-06	-6.466199e-10	-1.824448e+01	-4.367412e+01
1.270000e-06	-2.582312e-06	-6.425208e-10	-1.796030e+01	-4.331209e+01
1.280000e-06	-2.541199e-06	-6.372951e-10	-1.767435e+01	-4.294482e+01
1.290000e-06	-2.499774e-06	-6.311059e-10	-1.738624e+01	-4.257219e+01
1.300000e-06	-2.458040e-06	-6.224476e-10	-1.709597e+01	-4.219412e+01
1.310000e-06	-2.415980e-06	-6.144401e-10	-1.680344e+01	-4.181051e+01
1.320000e-06	-2.373582e-06	-6.075783e-10	-1.650855e+01	-4.142127e+01
1.330000e-06	-2.330965e-06	-6.028224e-10	-1.621215e+01	-4.102629e+01
1.340000e-06	-2.288119e-06	-5.982765e-10	-1.591415e+01	-4.062548e+01
1.350000e-06	-2.245042e-06	-5.936001e-10	-1.561455e+01	-4.021874e+01
1.360000e-06	-2.201789e-06	-5.877741e-10	-1.531371e+01	-3.980595e+01
1.370000e-06	-2.158376e-06	-5.795806e-10	-1.501177e+01	-3.938701e+01
1.380000e-06	-2.114830e-06	-5.730163e-10	-1.470891e+01	-3.896179e+01
1.390000e-06	-2.071126e-06	-5.656773e-10	-1.440494e+01	-3.853017e+01
1.400000e-06	-2.027340e-06	-5.582213e-10	-1.410040e+01	-3.809201e+01
1.410000e-06	-1.983505e-06	-5.512857e-10	-1.379552e+01	-3.764718e+01
1.420000e-06	-1.939599e-06	-5.463127e-10	-1.349015e+01	-3.719551e+01
1.430000e-06	-1.895621e-06	-5.406608e-10	-1.318428e+01	-3.673684e+01
1.440000e-06	-1.851514e-06	-5.337007e-10	-1.287751e+01	-3.627099e+01
1.450000e-06	-1.807290e-06	-5.257293e-10	-1.256993e+01	-3.579777e+01
1.460000e-06	-1.762938e-06	-5.172477e-10	-1.226145e+01	-3.531697e+01
1.470000e-06	-1.718482e-06	-5.078391e-10	-1.195226e+01	-3.482839e+01
1.480000e-06	-1.673930e-06	-4.983161e-10	-1.164239e+01	-3.433177e+01
1.490000e-06	-1.629225e-06	-4.877135e-10	-1.133146e+01	-3.382688e+01
1.500000e-06	-1.584414e-06	-4.794402e-10	-1.101979e+01	-3.331345e+01
1.510000e-06	-1.539439e-06	-4.721365e-10	-1.070699e+01	-3.279120e+01
1.520000e-06	-1.494294e-06	-4.658375e-10	-1.039300e+01	-3.225985e+01
1.530000e-06	-1.449057e-06	-4.577365e-10	-1.007837e+01	-3.171908e+01
1.540000e-06	-1.403734e-06	-4.488840e-10	-9.763143e+00	-3.116858e+01
1.550000e-06	-1.358360e-06	-4.390306e-10	-9.447559e+00	-3.060801e+01
1.560000e-06	-1.312884e-06	-4.293410e-10	-9.131267e+00	-3.003703e+01
1.570000e-06	-1.267253e-06	-4.184621e-10	-8.813901e+00	-2.945529e+01
1.580000e-06	-1.221552e-06	-4.094078e-10	-8.496047e+00	-2.886243e+01
1.590000e-06	-1.175828e-06	-4.025437e-10	-8.178030e+00	-2.825808e+01
1.600000e-06	-1.130049e-06	-3.965182e-10	-7.859628e+00	-2.764187e+01
1.610000e-06	-1.084169e-06	-3.880940e-10	-7.540531e+00	-2.701343e+01
1.620000e-06	-1.038159e-06	-3.784438e-10	-7.220526e+00	-2.637238e+01
1.630000e-06	-9.920281e-07	-3.703906e-10	-6.899678e+00	-2.571835e+01
1.640000e-06	-9.458445e-07	-3.612915e-10	-6.578465e+00	-2.505098e+01
1.650000e-06	-8.996329e-07	-3.494668e-10	-6.257058e+00	-2.436991e+01
1.660000e-06	-8.533758e-07	-3.371234e-10	-5.935334e+00	-2.367480e+01
1.670000e-06	-8.070721e-07	-3.265636e-10	-5.613286e+00	-2.296530e+01
1.680000e-06	-7.607482e-07	-3.154951e-10	-5.291098e+00	-2.224112e+01
1.690000e-06	-7.143460e-07	-3.059202e-10	-4.968365e+00	-2.150194e+01
1.700000e-06	-6.678302e-07	-2.949769e-10	-4.644842e+00	-2.074750e+01
1.710000e-06	-6.213128e-07	-2.830434e-10	-4.321307e+00	-1.997756e+01
1.720000e-06	-5.748414e-07	-2.696408e-10	-3.998093e+00	-1.919190e+01
1.730000e-06	-5.283519e-07	-2.543837e-10	-3.674753e+00	-1.839034e+01
1.740000e-06	-4.818409e-07	-2.376307e-10	-3.351263e+00	-1.757272e+01
1.750000e-06	-4.353108e-07	-2.237404e-10	-3.027640e+00	-1.673894e+01
1.760000e-06	-3.886877e-07	-2.121614e-10	-2.703371e+00	-1.588893e+01
1.770000e-06	-3.419641e-07	-2.025027e-10	-2.378402e+00	-1.502266e+01
1.780000e-06	-2.952149e-07	-1.938441e-10	-2.053256e+00	-1.414015e+01
1.790000e-06	-2.484369e-07	-1.827270e-10	-1.727909e+00	-1.324146e+01
1.800000e-06	-2.015950e-07	-1.672162e-10	-1.402118e+00	-1.232672e+01
1.810000e-06	-1.547734e-07	-1.502600e-10	-1.076468e+00	-1.139607e+01
1.820000e-06	-1.079731e-07	-1.359356e-10	-7.509659e-01	-1.044974e+01
1.830000e-06	-6.115682e-08	-1.253511e-10	-4.253532e-01	-9.487995e+00
1.840000e-06	-1.435123e-08	-1.150558e-10	-9.981460e-02	-8.511155e+00
1.850000e-06	3.244407e-08	-1.027259e-10	2.256525e-01	-7.519591e+00
1.860000e-06	7.918816e-08	-8.990703e-11	5.507635e-01	-6.513729e+00
1.870000e-06	1.259326e-07	-7.750550e-11	8.758769e-01	-5.494045e+00
1.880000e-06	1.726709e-07	-6.284403e-11	1.200947e+00	-4.461069e+00
1.890000e-06	2.193871e-07	-4.436671e-11	1.525864e+00	-3.415377e+00
1.900000e-06	2.661483e-07	-2.612689e-11	1.851094e+00	-2.357597e+00
1.910000e-06	3.129092e-07	-1.014193e-11	2.176322e+00	-1.288401e+00
1.920000e-06	3.595737e-07	3.766013e-12	2.500880e+00	-2.085075e-01
1.930000e-06	4.061480e-07	1.463546e-11	2.824810e+00	8.813248e-01
1.940000e-06	4.527284e-07	2.737928e-11	3.148782e+00	1.980297e+00
1.950000e-06	4.993286e-07	4.291773e-11	3.472892e+00	3.087575e+00
1.960000e-06	5.458971e-07	6.003894e-11	3.796782e+00	4.202292e+00
1.970000e-06	5.922955e-07	7.591159e-11	4.119489e+00	5.323549e+00
1.980000e-06	6.386415e-07	9.162511e-11	4.441830e+00	6.450426e+00
1.990000e-06	6.850327e-07	1.092010e-10	4.764487e+00	7.581978e+00
2.000000e-06	7.313233e-07	1.249452e-10	5.086444e+00	8.717243e+00
2.010000e-06	7.775361e-07	1.412268e-10	5.407860e+00	9.855244e+00
2.020000e-06	8.237473e-07	1.591379e-10	5.729264e+00	1.099500e+01
2.030000e-06	8.699329e-07	1.785267e-10	6.050491e+00	1.213551e+01
2.040000e-06	9.160520e-07	1.958599e-10	6.371255e+00	1.327580e+01
2.050000e-06	9.621184e-07	2.129551e-10	6.691653e+00	1.441486e+01
2.060000e-06	1.008103e-06	2.295767e-10	7.011484e+00	1.555173e+01
2.070000e-06	1.053998e-06	2.451709e-10	7.330687e+00	1.668542e+01
2.080000e-06	1.099887e-06	2.616925e-10	7.649848e+00	1.781499e+01
2.090000e-06	1.145710e-06	2.791558e-10	7.968554e+00	1.893949e+01
2.100000e-06	1.191407e-06	2.983928e-10	8.286384e+00	2.005802e+01
2.110000e-06	1.237028e-06	3.167718e-10	8.603681e+00	2.116968e+01
2.120000e-06	1.282560e-06	3.317139e-10	8.920363e+00	2.227362e+01
2.130000e-06	1.328055e-06	3.473743e-10	9.236789e+00	2.336901e+01
2.140000e-06	1.373435e-06	3.621699e-10	9.552409e+00	2.445506e+01
2.150000e-06	1.418625e-06	3.760821e-10	9.866714e+00	2.553101e+01
2.160000e-06	1.463727e-06	3.899664e-10	1.018040e+01	2.659615e+01
2.170000e-06	1.508798e-06	4.042196e-10	1.049387e+01	2.764979e+01
2.180000e-06	1.553730e-06	4.223363e-10	1.080638e+01	2.869132e+01
2.190000e-06	1.598482e-06	4.409014e-10	1.111764e+01	2.972013e+01
2.200000e-06	1.643180e-06	4.575620e-10	1.142852e+01	3.073569e+01
2.210000e-06	1.687805e-06	4.714443e-10	1.173889e+01	3.173748e+01
2.220000e-06	1.732256e-06	4.825680e-10	1.204805e+01	3.272507e+01
2.230000e-06	1.776541e-06	4.945935e-10	1.235606e+01	3.369803e+01
2.240000e-06	1.820718e-06	5.062438e-10	1.266332e+01	3.465601e+01
2.250000e-06	1.864814e-06	5.183254e-10	1.297001e+01	3.559867e+01
2.260000e-06	1.908843e-06	5.298622e-10	1.327624e+01	3.652574e+01
2.270000e-06	1.952780e-06	5.455604e-10	1.358183e+01	3.743698e+01
2.280000e-06	1.996635e-06	5.639749e-10	1.388684e+01	3.833219e+01
2.290000e-06	2.040441e-06	5.795788e-10	1.419152e+01	3.921122e+01
2.300000e-06	2.084216e-06	5.917009e-10	1.449598e+01	4.007395e+01
2.310000e-06	2.127913e-06	6.016601e-10	1.479990e+01	4.092028e+01
2.320000e-06	2.171483e-06	6.117288e-10	1.510293e+01	4.175016e+01
2.330000e-06	2.214907e-06	6.215082e-10	1.540495e+01	4.256356e+01
2.340000e-06	2.258110e-06	6.334160e-10	1.570543e+01	4.336050e+01
2.350000e-06	2.301110e-06	6.491160e-10	1.600451e+01	4.414101e+01
2.360000e-06	2.343886e-06	6.670764e-10	1.630201e+01	4.490513e+01
2.370000e-06	2.386453e-06	6.802533e-10	1.659807e+01	4.565294e+01
2.380000e-06	2.428745e-06	6.880788e-10	1.689222e+01	4.638453e+01
2.390000e-06	2.470784e-06	6.949896e-10	1.718461e+01	4.710002e+01
2.400000e-06	2.512560e-06	7.025496e-10	1.747517e+01	4.779954e+01
2.410000e-06	2.553892e-06	7.089947e-10	1.776263e+01	4.848321e+01
2.420000e-06	2.594917e-06	7.179966e-10	1.804797e+01	4.915119e+01
2.430000e-06	2.635742e-06	7.311453e-10	1.833191e+01	4.980364e+01
2.440000e-06	2.676265e-06	7.446891e-10	1.861375e+01	5.044071e+01
2.450000e-06	2.716537e-06	7.549363e-10	1.889385e+01	5.106258e+01
2.460000e-06	2.756694e-06	7.652628e-10	1.917315e+01	5.166941e+01
2.470000e-06	2.796696e-06	7.750644e-10	1.945137e+01	5.226139e+01
2.480000e-06	2.836564e-06	7.841915e-10	1.972865e+01	5.283869e+01
2.490000e-06	2.876298e-06	7.922764e-10	2.000501e+01	5.340147e+01
2.500000e-06	2.915888e-06	7.994980e-10	2.028036e+01	5.394993e+01
2.510000e-06	2.955367e-06	8.092066e-10	2.055494e+01	5.448424e+01
2.520000e-06	2.994680e-06	8.192356e-10	2.082837e+01	5.500457e+01
2.530000e-06	3.033800e-06	8.277862e-10	2.110045e+01	5.551109e+01
2.540000e-06	3.072731e-06	8.340723e-10	2.137123e+01	5.600399e+01
2.550000e-06	3.111409e-06	8.411007e-10	2.164023e+01	5.648342e+01
2.560000e-06	3.149833e-06	8.484473e-10	2.190748e+01	5.694957e+01
2.570000e-06	3.188102e-06	8.516537e-10	2.217365e+01	5.740260e+01
2.580000e-06	3.226133e-06	8.535075e-10	2.243816e+01	5.784269e+01
2.590000e-06	3.263879e-06	8.572875e-10	2.270068e+01	5.827001e+01
2.600000e-06	3.301453e-06	8.663505e-10	2.296201e+01	5.868474e+01
2.610000e-06	3.338824e-06	8.747734e-10	2.322194e+01	5.908704e+01
2.620000e-06	3.375910e-06	8.801408e-10	2.347987e+01	5.947711e+01
2.630000e-06	3.412709e-06	8.836928e-10	2.373581e+01	5.985512e+01
2.640000e-06	3.449297e-06	8.856969e-10	2.399029e+01	6.022126e+01
2.650000e-06	3.485734e-06	8.888279e-10	2.424371e+01	6.057574e+01
2.660000e-06	3.521943e-06	8.935873e-10	2.449555e+01	6.091874e+01
2.670000e-06	3.557961e-06	8.975509e-10	2.474606e+01	6.125048e+01
2.680000e-06	3.593837e-06	9.012255e-10	2.499558e+01	6.157117e+01
2.690000e-06	3.629570e-06	9.077068e-10	2.524411e+01	6.188104e+01
2.700000e-06	3.665195e-06	9.154148e-10	2.549188e+01	6.218030e+01
2.710000e-06	3.700605e-06	9.207677e-10	2.573817e+01	6.246921e+01
2.720000e-06	3.735758e-06	9.229728e-10	2.598266e+01	6.274800e+01
2.730000e-06	3.770639e-06	9.246071e-10	2.622526e+01	6.301694e+01
2.740000e-06	3.805132e-06	9.256170e-10	2.646516e+01	6.327628e+01
2.750000e-06	3.839022e-06	9.284095e-10	2.670087e+01	6.352631e+01
2.760000e-06	3.872314e-06	9.324116e-10	2.693242e+01	6.376728e+01
2.770000e-06	3.905146e-06	9.378595e-10	2.716077e+01	6.399950e+01
2.780000e-06	3.937663e-06	9.446050e-10	2.738693e+01	6.422325e+01
2.790000e-06	3.969969e-06	9.505723e-10	2.761163e+01	6.443882e+01
2.800000e-06	4.002030e-06	9.534456e-10	2.783461e+01	6.464652e+01
2.810000e-06	4.033901e-06	9.541074e-10	2.805628e+01	6.484664e+01
2.820000e-06	4.065629e-06	9.548825e-10	2.827695e+01	6.503950e+01
2.830000e-06	4.097197e-06	9.593529e-10	2.849651e+01	6.522539e+01
2.840000e-06	4.128531e-06	9.653725e-10	2.871445e+01	6.540461e+01
2.850000e-06	4.159510e-06	9.718343e-10	2.892991e+01	6.557747e+01
2.860000e-06	4.190149e-06	9.766733e-10	2.914301e+01	6.574425e+01
2.870000e-06	4.220487e-06	9.782589e-10	2.935401e+01	6.590526e+01
2.880000e-06	4.250518e-06	9.785928e-10	2.956288e+01	6.606075e+01
2.890000e-06	4.280290e-06	9.788511e-10	2.976994e+01	6.621102e+01
2.900000e-06	4.309776e-06	9.810122e-10	2.997502e+01	6.635630e+01
