# Temperatura_=_-0.9
# Concentracion g/m^3_=_1620.0
# C_Vs_to_Am_M_A/Vsm_=_65563218390.804596
# pendiente_HvsI_1/m_=_3716.3
# ordenada_HvsI_A/m_=_1297.0
# frecuencia_Hz_=_135105.06608410817

Tiempo_(s)	Campo_(V.s)	Magnetizacion_(V.s)	Campo_(kA/m)	Magnetizacion_(A/m)
0.000000e+00	-5.502652e-06	-1.226251e-09	-3.836252e+01	-7.948119e+01
1.000000e-08	-5.502735e-06	-1.226128e-09	-3.836310e+01	-7.940803e+01
2.000000e-08	-5.502632e-06	-1.229391e-09	-3.836238e+01	-7.933165e+01
3.000000e-08	-5.502334e-06	-1.231466e-09	-3.836030e+01	-7.925193e+01
4.000000e-08	-5.501605e-06	-1.229429e-09	-3.835522e+01	-7.916877e+01
5.000000e-08	-5.500200e-06	-1.221337e-09	-3.834542e+01	-7.908207e+01
6.000000e-08	-5.498137e-06	-1.228895e-09	-3.833104e+01	-7.899178e+01
7.000000e-08	-5.495484e-06	-1.263141e-09	-3.831255e+01	-7.889784e+01
8.000000e-08	-5.492265e-06	-1.246309e-09	-3.829011e+01	-7.880021e+01
9.000000e-08	-5.488555e-06	-1.191396e-09	-3.826424e+01	-7.869890e+01
1.000000e-07	-5.484526e-06	-1.256815e-09	-3.823615e+01	-7.859390e+01
1.100000e-07	-5.480255e-06	-1.346422e-09	-3.820638e+01	-7.848525e+01
1.200000e-07	-5.475655e-06	-1.228458e-09	-3.817431e+01	-7.837301e+01
1.300000e-07	-5.470786e-06	-1.120985e-09	-3.814036e+01	-7.825724e+01
1.400000e-07	-5.465641e-06	-1.176892e-09	-3.810449e+01	-7.813805e+01
1.500000e-07	-5.460051e-06	-1.319994e-09	-3.806552e+01	-7.801553e+01
1.600000e-07	-5.454004e-06	-1.238707e-09	-3.802336e+01	-7.788983e+01
1.700000e-07	-5.447601e-06	-1.127392e-09	-3.797872e+01	-7.776108e+01
1.800000e-07	-5.440880e-06	-1.230731e-09	-3.793187e+01	-7.762945e+01
1.900000e-07	-5.433698e-06	-1.311666e-09	-3.788180e+01	-7.749510e+01
2.000000e-07	-5.426133e-06	-1.223348e-09	-3.782906e+01	-7.735823e+01
2.100000e-07	-5.418394e-06	-1.088748e-09	-3.777510e+01	-7.721901e+01
2.200000e-07	-5.410362e-06	-1.150851e-09	-3.771911e+01	-7.707766e+01
2.300000e-07	-5.401974e-06	-1.204956e-09	-3.766063e+01	-7.693436e+01
2.400000e-07	-5.393218e-06	-1.177646e-09	-3.759959e+01	-7.678932e+01
2.500000e-07	-5.384033e-06	-1.114334e-09	-3.753555e+01	-7.664274e+01
2.600000e-07	-5.374241e-06	-1.143883e-09	-3.746729e+01	-7.649481e+01
2.700000e-07	-5.363636e-06	-1.137807e-09	-3.739335e+01	-7.634573e+01
2.800000e-07	-5.352508e-06	-1.125940e-09	-3.731577e+01	-7.619568e+01
2.900000e-07	-5.341119e-06	-1.119802e-09	-3.723637e+01	-7.604481e+01
3.000000e-07	-5.329259e-06	-1.127544e-09	-3.715368e+01	-7.589330e+01
3.100000e-07	-5.316905e-06	-1.117890e-09	-3.706756e+01	-7.574128e+01
3.200000e-07	-5.304203e-06	-1.137209e-09	-3.697900e+01	-7.558887e+01
3.300000e-07	-5.291088e-06	-1.129061e-09	-3.688758e+01	-7.543618e+01
3.400000e-07	-5.277541e-06	-1.102346e-09	-3.679313e+01	-7.528329e+01
3.500000e-07	-5.263613e-06	-1.133055e-09	-3.669602e+01	-7.513027e+01
3.600000e-07	-5.249339e-06	-1.142276e-09	-3.659651e+01	-7.497715e+01
3.700000e-07	-5.234632e-06	-1.095342e-09	-3.649398e+01	-7.482396e+01
3.800000e-07	-5.219480e-06	-1.113983e-09	-3.638835e+01	-7.467069e+01
3.900000e-07	-5.203913e-06	-1.164232e-09	-3.627982e+01	-7.451730e+01
4.000000e-07	-5.187639e-06	-1.086891e-09	-3.616636e+01	-7.436375e+01
4.100000e-07	-5.170810e-06	-1.071021e-09	-3.604904e+01	-7.420996e+01
4.200000e-07	-5.153758e-06	-1.163863e-09	-3.593015e+01	-7.405583e+01
4.300000e-07	-5.136370e-06	-1.130203e-09	-3.580894e+01	-7.390125e+01
4.400000e-07	-5.118636e-06	-1.020687e-09	-3.568530e+01	-7.374607e+01
4.500000e-07	-5.100613e-06	-1.125773e-09	-3.555965e+01	-7.359014e+01
4.600000e-07	-5.082286e-06	-1.174291e-09	-3.543188e+01	-7.343329e+01
4.700000e-07	-5.063533e-06	-1.045159e-09	-3.530114e+01	-7.327533e+01
4.800000e-07	-5.044339e-06	-1.050979e-09	-3.516733e+01	-7.311606e+01
4.900000e-07	-5.024909e-06	-1.175183e-09	-3.503187e+01	-7.295526e+01
5.000000e-07	-5.005277e-06	-1.079748e-09	-3.489500e+01	-7.279273e+01
5.100000e-07	-4.985374e-06	-1.028122e-09	-3.475624e+01	-7.262824e+01
5.200000e-07	-4.965200e-06	-1.146144e-09	-3.461559e+01	-7.246157e+01
5.300000e-07	-4.944683e-06	-1.121189e-09	-3.447256e+01	-7.229248e+01
5.400000e-07	-4.923764e-06	-1.011437e-09	-3.432672e+01	-7.212076e+01
5.500000e-07	-4.902562e-06	-1.115720e-09	-3.417891e+01	-7.194619e+01
5.600000e-07	-4.881070e-06	-1.148557e-09	-3.402907e+01	-7.176855e+01
5.700000e-07	-4.859188e-06	-1.022085e-09	-3.387652e+01	-7.158766e+01
5.800000e-07	-4.836952e-06	-1.050856e-09	-3.372150e+01	-7.140331e+01
5.900000e-07	-4.814345e-06	-1.138288e-09	-3.356389e+01	-7.121534e+01
6.000000e-07	-4.791310e-06	-1.045320e-09	-3.340330e+01	-7.102358e+01
6.100000e-07	-4.767970e-06	-1.019087e-09	-3.324058e+01	-7.082790e+01
6.200000e-07	-4.744437e-06	-1.105071e-09	-3.307652e+01	-7.062818e+01
6.300000e-07	-4.720699e-06	-1.065095e-09	-3.291102e+01	-7.042432e+01
6.400000e-07	-4.696693e-06	-1.011776e-09	-3.274366e+01	-7.021623e+01
6.500000e-07	-4.672434e-06	-1.072673e-09	-3.257454e+01	-7.000387e+01
6.600000e-07	-4.647893e-06	-1.071276e-09	-3.240345e+01	-6.978720e+01
6.700000e-07	-4.622824e-06	-1.012384e-09	-3.222867e+01	-6.956620e+01
6.800000e-07	-4.597141e-06	-1.048449e-09	-3.204962e+01	-6.934088e+01
6.900000e-07	-4.570919e-06	-1.065140e-09	-3.186681e+01	-6.911129e+01
7.000000e-07	-4.544189e-06	-1.018901e-09	-3.168046e+01	-6.887747e+01
7.100000e-07	-4.517035e-06	-1.021665e-09	-3.149115e+01	-6.863951e+01
7.200000e-07	-4.489589e-06	-1.052257e-09	-3.129981e+01	-6.839748e+01
7.300000e-07	-4.461890e-06	-1.024627e-09	-3.110670e+01	-6.815150e+01
7.400000e-07	-4.433979e-06	-1.017296e-09	-3.091212e+01	-6.790171e+01
7.500000e-07	-4.405923e-06	-1.034406e-09	-3.071652e+01	-6.764823e+01
7.600000e-07	-4.377657e-06	-1.023920e-09	-3.051946e+01	-6.739121e+01
7.700000e-07	-4.349097e-06	-1.002158e-09	-3.032035e+01	-6.713082e+01
7.800000e-07	-4.320206e-06	-1.013656e-09	-3.011893e+01	-6.686723e+01
7.900000e-07	-4.291035e-06	-1.006578e-09	-2.991556e+01	-6.660059e+01
8.000000e-07	-4.261579e-06	-9.942043e-10	-2.971021e+01	-6.633109e+01
8.100000e-07	-4.231765e-06	-1.000219e-09	-2.950235e+01	-6.605889e+01
8.200000e-07	-4.201573e-06	-1.005004e-09	-2.929186e+01	-6.578416e+01
8.300000e-07	-4.171078e-06	-9.848016e-10	-2.907926e+01	-6.550706e+01
8.400000e-07	-4.140395e-06	-9.834540e-10	-2.886535e+01	-6.522773e+01
8.500000e-07	-4.109496e-06	-9.851752e-10	-2.864993e+01	-6.494632e+01
8.600000e-07	-4.078338e-06	-9.691908e-10	-2.843271e+01	-6.466296e+01
8.700000e-07	-4.046896e-06	-9.571244e-10	-2.821351e+01	-6.437775e+01
8.800000e-07	-4.015235e-06	-9.650362e-10	-2.799278e+01	-6.409079e+01
8.900000e-07	-3.983424e-06	-9.586418e-10	-2.777101e+01	-6.380215e+01
9.000000e-07	-3.951452e-06	-9.445662e-10	-2.754811e+01	-6.351187e+01
9.100000e-07	-3.919247e-06	-9.469348e-10	-2.732359e+01	-6.322001e+01
9.200000e-07	-3.886713e-06	-9.414652e-10	-2.709677e+01	-6.292655e+01
9.300000e-07	-3.853783e-06	-9.238009e-10	-2.686720e+01	-6.263150e+01
9.400000e-07	-3.820414e-06	-9.242910e-10	-2.663456e+01	-6.233480e+01
9.500000e-07	-3.786587e-06	-9.310258e-10	-2.639873e+01	-6.203640e+01
9.600000e-07	-3.752344e-06	-9.153644e-10	-2.616000e+01	-6.173622e+01
9.700000e-07	-3.717713e-06	-9.057748e-10	-2.591856e+01	-6.143413e+01
9.800000e-07	-3.682662e-06	-9.092008e-10	-2.567420e+01	-6.113003e+01
9.900000e-07	-3.647271e-06	-9.032608e-10	-2.542747e+01	-6.082375e+01
1.000000e-06	-3.611683e-06	-8.893452e-10	-2.517936e+01	-6.051514e+01
1.010000e-06	-3.575954e-06	-8.913548e-10	-2.493027e+01	-6.020399e+01
1.020000e-06	-3.540059e-06	-8.892810e-10	-2.468002e+01	-5.989011e+01
1.030000e-06	-3.504017e-06	-8.772411e-10	-2.442875e+01	-5.957330e+01
1.040000e-06	-3.467850e-06	-8.707985e-10	-2.417661e+01	-5.925331e+01
1.050000e-06	-3.431502e-06	-8.724923e-10	-2.392320e+01	-5.892992e+01
1.060000e-06	-3.394961e-06	-8.617604e-10	-2.366845e+01	-5.860288e+01
1.070000e-06	-3.358105e-06	-8.549543e-10	-2.341150e+01	-5.827196e+01
1.080000e-06	-3.320890e-06	-8.532517e-10	-2.315206e+01	-5.793690e+01
1.090000e-06	-3.283493e-06	-8.462574e-10	-2.289134e+01	-5.759746e+01
1.100000e-06	-3.245909e-06	-8.338539e-10	-2.262931e+01	-5.725342e+01
1.110000e-06	-3.208102e-06	-8.314961e-10	-2.236574e+01	-5.690452e+01
1.120000e-06	-3.170063e-06	-8.265747e-10	-2.210055e+01	-5.655056e+01
1.130000e-06	-3.131776e-06	-8.167817e-10	-2.183362e+01	-5.619132e+01
1.140000e-06	-3.093277e-06	-8.118906e-10	-2.156522e+01	-5.582661e+01
1.150000e-06	-3.054503e-06	-8.107080e-10	-2.129490e+01	-5.545624e+01
1.160000e-06	-3.015488e-06	-8.018532e-10	-2.102290e+01	-5.508004e+01
1.170000e-06	-2.976306e-06	-7.927431e-10	-2.074974e+01	-5.469789e+01
1.180000e-06	-2.936978e-06	-7.883720e-10	-2.047556e+01	-5.430964e+01
1.190000e-06	-2.897476e-06	-7.811302e-10	-2.020017e+01	-5.391520e+01
1.200000e-06	-2.857798e-06	-7.732650e-10	-1.992355e+01	-5.351448e+01
1.210000e-06	-2.817959e-06	-7.690864e-10	-1.964580e+01	-5.310742e+01
1.220000e-06	-2.777951e-06	-7.634634e-10	-1.936688e+01	-5.269397e+01
1.230000e-06	-2.737874e-06	-7.545168e-10	-1.908748e+01	-5.227413e+01
1.240000e-06	-2.697688e-06	-7.482916e-10	-1.880732e+01	-5.184788e+01
1.250000e-06	-2.657356e-06	-7.412616e-10	-1.852613e+01	-5.141524e+01
1.260000e-06	-2.616802e-06	-7.326280e-10	-1.824341e+01	-5.097625e+01
1.270000e-06	-2.576005e-06	-7.236066e-10	-1.795899e+01	-5.053095e+01
1.280000e-06	-2.534937e-06	-7.203519e-10	-1.767268e+01	-5.007940e+01
1.290000e-06	-2.493555e-06	-7.177441e-10	-1.738418e+01	-4.962168e+01
1.300000e-06	-2.451943e-06	-7.111180e-10	-1.709407e+01	-4.915787e+01
1.310000e-06	-2.409992e-06	-6.999679e-10	-1.680160e+01	-4.868804e+01
1.320000e-06	-2.367735e-06	-6.871023e-10	-1.650700e+01	-4.821227e+01
1.330000e-06	-2.325284e-06	-6.737322e-10	-1.621105e+01	-4.773066e+01
1.340000e-06	-2.282632e-06	-6.653678e-10	-1.591369e+01	-4.724327e+01
1.350000e-06	-2.239732e-06	-6.631768e-10	-1.561461e+01	-4.675017e+01
1.360000e-06	-2.196495e-06	-6.616557e-10	-1.531318e+01	-4.625141e+01
1.370000e-06	-2.153020e-06	-6.586472e-10	-1.501009e+01	-4.574704e+01
1.380000e-06	-2.109424e-06	-6.570041e-10	-1.470615e+01	-4.523707e+01
1.390000e-06	-2.065750e-06	-6.488769e-10	-1.440167e+01	-4.472149e+01
1.400000e-06	-2.022015e-06	-6.359040e-10	-1.409676e+01	-4.420028e+01
1.410000e-06	-1.978206e-06	-6.230732e-10	-1.379134e+01	-4.367338e+01
1.420000e-06	-1.934326e-06	-6.165511e-10	-1.348543e+01	-4.314068e+01
1.430000e-06	-1.890352e-06	-6.139956e-10	-1.317886e+01	-4.260208e+01
1.440000e-06	-1.846307e-06	-6.110158e-10	-1.287179e+01	-4.205741e+01
1.450000e-06	-1.802207e-06	-6.065631e-10	-1.256435e+01	-4.150646e+01
1.460000e-06	-1.757908e-06	-5.985575e-10	-1.225551e+01	-4.094900e+01
1.470000e-06	-1.713419e-06	-5.850184e-10	-1.194534e+01	-4.038475e+01
1.480000e-06	-1.668865e-06	-5.689242e-10	-1.163473e+01	-3.981339e+01
1.490000e-06	-1.624220e-06	-5.542989e-10	-1.132348e+01	-3.923456e+01
1.500000e-06	-1.579458e-06	-5.442857e-10	-1.101141e+01	-3.864786e+01
1.510000e-06	-1.534516e-06	-5.386103e-10	-1.069809e+01	-3.805284e+01
1.520000e-06	-1.489429e-06	-5.325582e-10	-1.038377e+01	-3.744904e+01
1.530000e-06	-1.444363e-06	-5.236360e-10	-1.006958e+01	-3.683594e+01
1.540000e-06	-1.399258e-06	-5.122591e-10	-9.755123e+00	-3.621298e+01
1.550000e-06	-1.353970e-06	-4.993900e-10	-9.439396e+00	-3.557959e+01
1.560000e-06	-1.308593e-06	-4.853142e-10	-9.123042e+00	-3.493517e+01
1.570000e-06	-1.263160e-06	-4.712641e-10	-8.806297e+00	-3.427908e+01
1.580000e-06	-1.217586e-06	-4.593727e-10	-8.488571e+00	-3.361067e+01
1.590000e-06	-1.171876e-06	-4.511354e-10	-8.169898e+00	-3.292929e+01
1.600000e-06	-1.126034e-06	-4.435433e-10	-7.850305e+00	-3.223425e+01
1.610000e-06	-1.080123e-06	-4.337910e-10	-7.530233e+00	-3.152488e+01
1.620000e-06	-1.034191e-06	-4.212347e-10	-7.210012e+00	-3.080049e+01
1.630000e-06	-9.881819e-07	-4.122867e-10	-6.889251e+00	-3.006043e+01
1.640000e-06	-9.421206e-07	-4.036722e-10	-6.568128e+00	-2.930402e+01
1.650000e-06	-8.960635e-07	-3.891554e-10	-6.247034e+00	-2.853062e+01
1.660000e-06	-8.499417e-07	-3.726494e-10	-5.925489e+00	-2.773962e+01
1.670000e-06	-8.037444e-07	-3.573189e-10	-5.603418e+00	-2.693042e+01
1.680000e-06	-7.575461e-07	-3.422457e-10	-5.281340e+00	-2.610248e+01
1.690000e-06	-7.113299e-07	-3.302642e-10	-4.959137e+00	-2.525529e+01
1.700000e-06	-6.650832e-07	-3.197489e-10	-4.636722e+00	-2.438837e+01
1.710000e-06	-6.187453e-07	-3.081954e-10	-4.313671e+00	-2.350132e+01
1.720000e-06	-5.723172e-07	-2.919742e-10	-3.989990e+00	-2.259378e+01
1.730000e-06	-5.258002e-07	-2.722546e-10	-3.665691e+00	-2.166547e+01
1.740000e-06	-4.792112e-07	-2.520829e-10	-3.340889e+00	-2.071615e+01
1.750000e-06	-4.326833e-07	-2.350513e-10	-3.016513e+00	-1.974567e+01
1.760000e-06	-3.862030e-07	-2.214544e-10	-2.692469e+00	-1.875395e+01
1.770000e-06	-3.396862e-07	-2.102418e-10	-2.368171e+00	-1.774099e+01
1.780000e-06	-2.930675e-07	-2.008032e-10	-2.043162e+00	-1.670686e+01
1.790000e-06	-2.463784e-07	-1.892726e-10	-1.717662e+00	-1.565173e+01
1.800000e-06	-1.996225e-07	-1.739140e-10	-1.391697e+00	-1.457582e+01
1.810000e-06	-1.528952e-07	-1.557708e-10	-1.065931e+00	-1.347947e+01
1.820000e-06	-1.062579e-07	-1.372890e-10	-7.407923e-01	-1.236308e+01
1.830000e-06	-5.961528e-08	-1.227292e-10	-4.156164e-01	-1.122713e+01
1.840000e-06	-1.298259e-08	-1.113854e-10	-9.050994e-02	-1.007221e+01
1.850000e-06	3.363675e-08	-9.894816e-11	2.345034e-01	-8.898948e+00
1.860000e-06	8.023867e-08	-8.592466e-11	5.593953e-01	-7.708086e+00
1.870000e-06	1.268091e-07	-7.018478e-11	8.840677e-01	-6.500422e+00
1.880000e-06	1.734252e-07	-5.072774e-11	1.209058e+00	-5.276829e+00
1.890000e-06	2.200584e-07	-3.006761e-11	1.534168e+00	-4.038247e+00
1.900000e-06	2.666989e-07	-1.065469e-11	1.859329e+00	-2.785676e+00
1.910000e-06	3.133586e-07	8.173865e-12	2.184624e+00	-1.520177e+00
1.920000e-06	3.599542e-07	2.487340e-11	2.509472e+00	-2.428613e-01
1.930000e-06	4.065093e-07	3.872047e-11	2.834037e+00	1.045114e+00
1.940000e-06	4.530345e-07	5.357181e-11	3.158395e+00	2.342551e+00
1.950000e-06	4.994884e-07	7.106652e-11	3.482255e+00	3.648217e+00
1.960000e-06	5.458888e-07	9.028794e-11	3.805741e+00	4.960853e+00
1.970000e-06	5.922239e-07	1.093119e-10	4.128773e+00	6.279179e+00
1.980000e-06	6.385452e-07	1.271952e-10	4.451708e+00	7.601899e+00
1.990000e-06	6.848763e-07	1.458558e-10	4.774713e+00	8.927713e+00
2.000000e-06	7.311222e-07	1.615609e-10	5.097122e+00	1.025532e+01
2.010000e-06	7.773184e-07	1.768712e-10	5.419186e+00	1.158341e+01
2.020000e-06	8.234637e-07	1.940354e-10	5.740894e+00	1.291072e+01
2.030000e-06	8.695259e-07	2.142096e-10	6.062024e+00	1.423596e+01
2.040000e-06	9.155203e-07	2.349636e-10	6.382680e+00	1.555791e+01
2.050000e-06	9.614562e-07	2.538314e-10	6.702929e+00	1.687534e+01
2.060000e-06	1.007370e-06	2.708295e-10	7.023021e+00	1.818709e+01
2.070000e-06	1.053202e-06	2.873664e-10	7.342550e+00	1.949202e+01
2.080000e-06	1.098955e-06	3.040190e-10	7.661522e+00	2.078903e+01
2.090000e-06	1.144635e-06	3.212581e-10	7.979985e+00	2.207709e+01
2.100000e-06	1.190228e-06	3.413513e-10	8.297843e+00	2.335521e+01
2.110000e-06	1.235762e-06	3.610793e-10	8.615288e+00	2.462245e+01
2.120000e-06	1.281142e-06	3.792309e-10	8.931665e+00	2.587795e+01
2.130000e-06	1.326381e-06	3.966638e-10	9.247052e+00	2.712089e+01
2.140000e-06	1.371591e-06	4.142563e-10	9.562244e+00	2.835052e+01
2.150000e-06	1.416727e-06	4.313638e-10	9.876913e+00	2.956615e+01
2.160000e-06	1.461676e-06	4.496111e-10	1.019028e+01	3.076716e+01
2.170000e-06	1.506479e-06	4.687050e-10	1.050263e+01	3.195299e+01
2.180000e-06	1.551204e-06	4.885626e-10	1.081444e+01	3.312315e+01
2.190000e-06	1.595852e-06	5.053478e-10	1.112571e+01	3.427719e+01
2.200000e-06	1.640376e-06	5.206045e-10	1.143611e+01	3.541475e+01
2.210000e-06	1.684807e-06	5.342424e-10	1.174587e+01	3.653551e+01
2.220000e-06	1.729181e-06	5.468699e-10	1.205523e+01	3.763921e+01
2.230000e-06	1.773441e-06	5.635262e-10	1.236380e+01	3.872565e+01
2.240000e-06	1.817558e-06	5.823452e-10	1.267136e+01	3.979467e+01
2.250000e-06	1.861584e-06	6.000347e-10	1.297830e+01	4.084616e+01
2.260000e-06	1.905556e-06	6.134408e-10	1.328485e+01	4.188007e+01
2.270000e-06	1.949431e-06	6.277121e-10	1.359074e+01	4.289638e+01
2.280000e-06	1.993276e-06	6.408252e-10	1.389640e+01	4.389509e+01
2.290000e-06	2.037051e-06	6.528352e-10	1.420159e+01	4.487625e+01
2.300000e-06	2.080702e-06	6.671797e-10	1.450591e+01	4.583995e+01
2.310000e-06	2.124258e-06	6.829744e-10	1.480957e+01	4.678628e+01
2.320000e-06	2.167708e-06	7.003601e-10	1.511248e+01	4.771536e+01
2.330000e-06	2.211007e-06	7.166255e-10	1.541435e+01	4.862734e+01
2.340000e-06	2.254084e-06	7.311083e-10	1.571467e+01	4.952236e+01
2.350000e-06	2.297033e-06	7.439488e-10	1.601409e+01	5.040060e+01
2.360000e-06	2.339782e-06	7.565215e-10	1.631212e+01	5.126221e+01
2.370000e-06	2.382085e-06	7.678658e-10	1.660704e+01	5.210737e+01
2.380000e-06	2.424083e-06	7.766713e-10	1.689984e+01	5.293625e+01
2.390000e-06	2.465835e-06	7.852744e-10	1.719092e+01	5.374903e+01
2.400000e-06	2.507186e-06	7.966438e-10	1.747920e+01	5.454588e+01
2.410000e-06	2.548277e-06	8.087556e-10	1.776568e+01	5.532695e+01
2.420000e-06	2.589131e-06	8.216499e-10	1.805049e+01	5.609240e+01
2.430000e-06	2.629717e-06	8.361847e-10	1.833345e+01	5.684237e+01
2.440000e-06	2.670176e-06	8.478283e-10	1.861551e+01	5.757701e+01
2.450000e-06	2.710432e-06	8.548484e-10	1.889616e+01	5.829643e+01
2.460000e-06	2.750479e-06	8.614022e-10	1.917535e+01	5.900075e+01
2.470000e-06	2.790437e-06	8.688023e-10	1.945393e+01	5.969007e+01
2.480000e-06	2.830252e-06	8.768141e-10	1.973151e+01	6.036450e+01
2.490000e-06	2.869893e-06	8.870076e-10	2.000787e+01	6.102411e+01
2.500000e-06	2.909396e-06	8.992010e-10	2.028327e+01	6.166899e+01
2.510000e-06	2.948803e-06	9.109513e-10	2.055800e+01	6.229919e+01
2.520000e-06	2.988079e-06	9.204820e-10	2.083182e+01	6.291480e+01
2.530000e-06	3.027121e-06	9.274590e-10	2.110400e+01	6.351586e+01
2.540000e-06	3.065988e-06	9.335243e-10	2.137497e+01	6.410243e+01
2.550000e-06	3.104666e-06	9.394291e-10	2.164462e+01	6.467458e+01
2.560000e-06	3.143074e-06	9.463770e-10	2.191239e+01	6.523236e+01
2.570000e-06	3.181161e-06	9.551345e-10	2.217791e+01	6.577583e+01
2.580000e-06	3.218953e-06	9.647215e-10	2.244139e+01	6.630506e+01
2.590000e-06	3.256570e-06	9.740789e-10	2.270364e+01	6.682012e+01
2.600000e-06	3.294076e-06	9.831563e-10	2.296512e+01	6.732110e+01
2.610000e-06	3.331430e-06	9.887135e-10	2.322554e+01	6.780810e+01
2.620000e-06	3.368571e-06	9.898161e-10	2.348447e+01	6.828122e+01
2.630000e-06	3.405490e-06	9.918538e-10	2.374186e+01	6.874059e+01
2.640000e-06	3.442175e-06	9.951243e-10	2.399762e+01	6.918634e+01
2.650000e-06	3.478539e-06	9.989888e-10	2.425113e+01	6.961864e+01
2.660000e-06	3.514605e-06	1.004520e-09	2.450257e+01	7.003764e+01
2.670000e-06	3.550532e-06	1.009292e-09	2.475304e+01	7.044356e+01
2.680000e-06	3.586290e-06	1.013536e-09	2.500233e+01	7.083659e+01
2.690000e-06	3.621813e-06	1.018526e-09	2.524999e+01	7.121698e+01
2.700000e-06	3.657152e-06	1.022739e-09	2.549635e+01	7.158496e+01
2.710000e-06	3.692384e-06	1.025704e-09	2.574198e+01	7.194082e+01
2.720000e-06	3.727356e-06	1.029772e-09	2.598579e+01	7.228483e+01
2.730000e-06	3.761957e-06	1.036207e-09	2.622702e+01	7.261731e+01
2.740000e-06	3.796200e-06	1.041721e-09	2.646574e+01	7.293859e+01
2.750000e-06	3.830028e-06	1.045528e-09	2.670158e+01	7.324898e+01
2.760000e-06	3.863404e-06	1.047391e-09	2.693427e+01	7.354886e+01
2.770000e-06	3.896246e-06	1.050149e-09	2.716323e+01	7.383858e+01
2.780000e-06	3.928611e-06	1.053985e-09	2.738887e+01	7.411852e+01
2.790000e-06	3.960680e-06	1.058060e-09	2.761244e+01	7.438905e+01
2.800000e-06	3.992556e-06	1.062861e-09	2.783467e+01	7.465057e+01
2.810000e-06	4.024278e-06	1.068184e-09	2.805583e+01	7.490347e+01
2.820000e-06	4.055839e-06	1.072258e-09	2.827586e+01	7.514813e+01
2.830000e-06	4.087314e-06	1.075134e-09	2.849529e+01	7.538494e+01
2.840000e-06	4.118585e-06	1.078327e-09	2.871330e+01	7.561429e+01
2.850000e-06	4.149461e-06	1.083581e-09	2.892856e+01	7.583656e+01
2.860000e-06	4.180037e-06	1.089788e-09	2.914172e+01	7.605211e+01
2.870000e-06	4.210326e-06	1.092812e-09	2.935288e+01	7.626130e+01
2.880000e-06	4.240271e-06	1.093845e-09	2.956165e+01	7.646447e+01
2.890000e-06	4.269948e-06	1.094276e-09	2.976855e+01	7.666194e+01
2.900000e-06	4.299417e-06	1.095372e-09	2.997399e+01	7.685402e+01
