# Temperatura_=_12.7
# Concentracion g/m^3_=_1620.0
# C_Vs_to_Am_M_A/Vsm_=_65563218390.804596
# pendiente_HvsI_1/m_=_3716.3
# ordenada_HvsI_A/m_=_1297.0
# frecuencia_Hz_=_135089.0904477743

Tiempo_(s)	Campo_(V.s)	Magnetizacion_(V.s)	Campo_(kA/m)	Magnetizacion_(A/m)
0.000000e+00	-5.513155e-06	-1.659907e-09	-3.836562e+01	-1.067971e+02
1.000000e-08	-5.513482e-06	-1.656287e-09	-3.836790e+01	-1.067902e+02
2.000000e-08	-5.513503e-06	-1.655844e-09	-3.836805e+01	-1.067801e+02
3.000000e-08	-5.513071e-06	-1.655212e-09	-3.836504e+01	-1.067664e+02
4.000000e-08	-5.512128e-06	-1.651295e-09	-3.835848e+01	-1.067491e+02
5.000000e-08	-5.510564e-06	-1.641816e-09	-3.834759e+01	-1.067280e+02
6.000000e-08	-5.508373e-06	-1.638872e-09	-3.833235e+01	-1.067030e+02
7.000000e-08	-5.505543e-06	-1.629438e-09	-3.831265e+01	-1.066737e+02
8.000000e-08	-5.502269e-06	-1.626459e-09	-3.828987e+01	-1.066402e+02
9.000000e-08	-5.498711e-06	-1.719548e-09	-3.826511e+01	-1.066022e+02
1.000000e-07	-5.494728e-06	-1.823128e-09	-3.823739e+01	-1.065595e+02
1.100000e-07	-5.490368e-06	-1.669885e-09	-3.820705e+01	-1.065120e+02
1.200000e-07	-5.485817e-06	-1.510412e-09	-3.817538e+01	-1.064596e+02
1.300000e-07	-5.481085e-06	-1.541592e-09	-3.814245e+01	-1.064021e+02
1.400000e-07	-5.475947e-06	-1.750917e-09	-3.810670e+01	-1.063393e+02
1.500000e-07	-5.470306e-06	-1.697277e-09	-3.806744e+01	-1.062712e+02
1.600000e-07	-5.464369e-06	-1.517900e-09	-3.802613e+01	-1.061976e+02
1.700000e-07	-5.458142e-06	-1.559071e-09	-3.798279e+01	-1.061184e+02
1.800000e-07	-5.451499e-06	-1.738806e-09	-3.793657e+01	-1.060335e+02
1.900000e-07	-5.444389e-06	-1.713595e-09	-3.788708e+01	-1.059429e+02
2.000000e-07	-5.437007e-06	-1.520974e-09	-3.783572e+01	-1.058464e+02
2.100000e-07	-5.429499e-06	-1.530391e-09	-3.778347e+01	-1.057440e+02
2.200000e-07	-5.421678e-06	-1.686683e-09	-3.772904e+01	-1.056357e+02
2.300000e-07	-5.413472e-06	-1.717987e-09	-3.767194e+01	-1.055213e+02
2.400000e-07	-5.404840e-06	-1.591124e-09	-3.761187e+01	-1.054010e+02
2.500000e-07	-5.395488e-06	-1.581950e-09	-3.754679e+01	-1.052745e+02
2.600000e-07	-5.385256e-06	-1.626561e-09	-3.747559e+01	-1.051421e+02
2.700000e-07	-5.374460e-06	-1.633931e-09	-3.740046e+01	-1.050035e+02
2.800000e-07	-5.363259e-06	-1.567570e-09	-3.732251e+01	-1.048589e+02
2.900000e-07	-5.351643e-06	-1.601988e-09	-3.724167e+01	-1.047083e+02
3.000000e-07	-5.339701e-06	-1.627263e-09	-3.715857e+01	-1.045517e+02
3.100000e-07	-5.327374e-06	-1.618115e-09	-3.707279e+01	-1.043891e+02
3.200000e-07	-5.314624e-06	-1.553578e-09	-3.698406e+01	-1.042205e+02
3.300000e-07	-5.301477e-06	-1.563408e-09	-3.689257e+01	-1.040460e+02
3.400000e-07	-5.288054e-06	-1.593507e-09	-3.679917e+01	-1.038657e+02
3.500000e-07	-5.274357e-06	-1.601676e-09	-3.670385e+01	-1.036796e+02
3.600000e-07	-5.260005e-06	-1.553416e-09	-3.660398e+01	-1.034877e+02
3.700000e-07	-5.245068e-06	-1.588758e-09	-3.650003e+01	-1.032901e+02
3.800000e-07	-5.229741e-06	-1.612710e-09	-3.639337e+01	-1.030869e+02
3.900000e-07	-5.213784e-06	-1.540862e-09	-3.628233e+01	-1.028782e+02
4.000000e-07	-5.197315e-06	-1.509604e-09	-3.616771e+01	-1.026639e+02
4.100000e-07	-5.180677e-06	-1.601492e-09	-3.605193e+01	-1.024441e+02
4.200000e-07	-5.163730e-06	-1.587033e-09	-3.593400e+01	-1.022190e+02
4.300000e-07	-5.146380e-06	-1.471116e-09	-3.581326e+01	-1.019885e+02
4.400000e-07	-5.128824e-06	-1.546738e-09	-3.569109e+01	-1.017527e+02
4.500000e-07	-5.110955e-06	-1.628813e-09	-3.556674e+01	-1.015118e+02
4.600000e-07	-5.092447e-06	-1.508907e-09	-3.543795e+01	-1.012656e+02
4.700000e-07	-5.073509e-06	-1.450871e-09	-3.530616e+01	-1.010144e+02
4.800000e-07	-5.054412e-06	-1.586297e-09	-3.517327e+01	-1.007581e+02
4.900000e-07	-5.035068e-06	-1.554062e-09	-3.503865e+01	-1.004968e+02
5.000000e-07	-5.015485e-06	-1.464543e-09	-3.490237e+01	-1.002305e+02
5.100000e-07	-4.995666e-06	-1.543176e-09	-3.476446e+01	-9.995935e+01
5.200000e-07	-4.975511e-06	-1.572832e-09	-3.462420e+01	-9.968332e+01
5.300000e-07	-4.954987e-06	-1.444506e-09	-3.448138e+01	-9.940246e+01
5.400000e-07	-4.934090e-06	-1.494186e-09	-3.433595e+01	-9.911682e+01
5.500000e-07	-4.912852e-06	-1.571877e-09	-3.418816e+01	-9.882644e+01
5.600000e-07	-4.891308e-06	-1.468670e-09	-3.403824e+01	-9.853136e+01
5.700000e-07	-4.869390e-06	-1.432624e-09	-3.388572e+01	-9.823161e+01
5.800000e-07	-4.847207e-06	-1.553742e-09	-3.373134e+01	-9.792724e+01
5.900000e-07	-4.824600e-06	-1.512187e-09	-3.357403e+01	-9.761827e+01
6.000000e-07	-4.801601e-06	-1.433118e-09	-3.341397e+01	-9.730475e+01
6.100000e-07	-4.778357e-06	-1.496012e-09	-3.325222e+01	-9.698670e+01
6.200000e-07	-4.754848e-06	-1.506875e-09	-3.308862e+01	-9.666416e+01
6.300000e-07	-4.731061e-06	-1.420289e-09	-3.292309e+01	-9.633716e+01
6.400000e-07	-4.707102e-06	-1.450644e-09	-3.275636e+01	-9.600574e+01
6.500000e-07	-4.682849e-06	-1.486935e-09	-3.258759e+01	-9.566992e+01
6.600000e-07	-4.658036e-06	-1.428971e-09	-3.241492e+01	-9.532974e+01
6.700000e-07	-4.632697e-06	-1.428272e-09	-3.223858e+01	-9.498522e+01
6.800000e-07	-4.606692e-06	-1.473842e-09	-3.205762e+01	-9.463640e+01
6.900000e-07	-4.580102e-06	-1.438065e-09	-3.187258e+01	-9.428330e+01
7.000000e-07	-4.553186e-06	-1.411633e-09	-3.168528e+01	-9.392595e+01
7.100000e-07	-4.525991e-06	-1.442097e-09	-3.149603e+01	-9.356437e+01
7.200000e-07	-4.498545e-06	-1.425228e-09	-3.130503e+01	-9.319858e+01
7.300000e-07	-4.470968e-06	-1.394409e-09	-3.111312e+01	-9.282861e+01
7.400000e-07	-4.443232e-06	-1.403912e-09	-3.092011e+01	-9.245446e+01
7.500000e-07	-4.415199e-06	-1.401381e-09	-3.072503e+01	-9.207615e+01
7.600000e-07	-4.386890e-06	-1.375511e-09	-3.052803e+01	-9.169369e+01
7.700000e-07	-4.358271e-06	-1.386725e-09	-3.032887e+01	-9.130709e+01
7.800000e-07	-4.329255e-06	-1.385637e-09	-3.012695e+01	-9.091634e+01
7.900000e-07	-4.299917e-06	-1.368579e-09	-2.992280e+01	-9.052145e+01
8.000000e-07	-4.270425e-06	-1.369260e-09	-2.971756e+01	-9.012239e+01
8.100000e-07	-4.240626e-06	-1.371558e-09	-2.951019e+01	-8.971915e+01
8.200000e-07	-4.210448e-06	-1.337011e-09	-2.930019e+01	-8.931171e+01
8.300000e-07	-4.180056e-06	-1.329166e-09	-2.908869e+01	-8.890005e+01
8.400000e-07	-4.149301e-06	-1.337552e-09	-2.887467e+01	-8.848412e+01
8.500000e-07	-4.118207e-06	-1.321436e-09	-2.865829e+01	-8.806388e+01
8.600000e-07	-4.086891e-06	-1.299253e-09	-2.844036e+01	-8.763929e+01
8.700000e-07	-4.055485e-06	-1.306235e-09	-2.822181e+01	-8.721028e+01
8.800000e-07	-4.024029e-06	-1.293995e-09	-2.800291e+01	-8.677680e+01
8.900000e-07	-3.992344e-06	-1.275863e-09	-2.778242e+01	-8.633877e+01
9.000000e-07	-3.960307e-06	-1.275510e-09	-2.755947e+01	-8.589612e+01
9.100000e-07	-3.928043e-06	-1.273634e-09	-2.733495e+01	-8.544877e+01
9.200000e-07	-3.895463e-06	-1.250793e-09	-2.710823e+01	-8.499662e+01
9.300000e-07	-3.862336e-06	-1.248901e-09	-2.687770e+01	-8.453958e+01
9.400000e-07	-3.828668e-06	-1.254350e-09	-2.664341e+01	-8.407756e+01
9.500000e-07	-3.794532e-06	-1.237425e-09	-2.640586e+01	-8.361045e+01
9.600000e-07	-3.759985e-06	-1.219481e-09	-2.616545e+01	-8.313814e+01
9.700000e-07	-3.725127e-06	-1.218343e-09	-2.592288e+01	-8.266053e+01
9.800000e-07	-3.690047e-06	-1.208642e-09	-2.567876e+01	-8.217750e+01
9.900000e-07	-3.654685e-06	-1.194428e-09	-2.543267e+01	-8.168895e+01
1.000000e-06	-3.619176e-06	-1.196837e-09	-2.518557e+01	-8.119476e+01
1.010000e-06	-3.583592e-06	-1.194151e-09	-2.493794e+01	-8.069482e+01
1.020000e-06	-3.547890e-06	-1.182114e-09	-2.468949e+01	-8.018902e+01
1.030000e-06	-3.512022e-06	-1.174327e-09	-2.443989e+01	-7.967726e+01
1.040000e-06	-3.475891e-06	-1.169304e-09	-2.418846e+01	-7.915943e+01
1.050000e-06	-3.439476e-06	-1.149333e-09	-2.393505e+01	-7.863545e+01
1.060000e-06	-3.402743e-06	-1.135905e-09	-2.367943e+01	-7.810521e+01
1.070000e-06	-3.365723e-06	-1.133060e-09	-2.342181e+01	-7.756865e+01
1.080000e-06	-3.328498e-06	-1.126587e-09	-2.316276e+01	-7.702567e+01
1.090000e-06	-3.291080e-06	-1.113066e-09	-2.290237e+01	-7.647621e+01
1.100000e-06	-3.253481e-06	-1.109853e-09	-2.264073e+01	-7.592023e+01
1.110000e-06	-3.215662e-06	-1.101756e-09	-2.237754e+01	-7.535766e+01
1.120000e-06	-3.177639e-06	-1.088517e-09	-2.211295e+01	-7.478846e+01
1.130000e-06	-3.139391e-06	-1.076823e-09	-2.184678e+01	-7.421262e+01
1.140000e-06	-3.100909e-06	-1.069966e-09	-2.157899e+01	-7.363012e+01
1.150000e-06	-3.062177e-06	-1.056297e-09	-2.130946e+01	-7.304094e+01
1.160000e-06	-3.023187e-06	-1.043887e-09	-2.103813e+01	-7.244509e+01
1.170000e-06	-2.984038e-06	-1.034610e-09	-2.076569e+01	-7.184258e+01
1.180000e-06	-2.944772e-06	-1.027991e-09	-2.049244e+01	-7.123345e+01
1.190000e-06	-2.905353e-06	-1.020068e-09	-2.021813e+01	-7.061771e+01
1.200000e-06	-2.865779e-06	-1.014485e-09	-1.994273e+01	-6.999541e+01
1.210000e-06	-2.826019e-06	-1.005572e-09	-1.966605e+01	-6.936660e+01
1.220000e-06	-2.786113e-06	-9.938246e-10	-1.938835e+01	-6.873134e+01
1.230000e-06	-2.746167e-06	-9.818458e-10	-1.911037e+01	-6.808967e+01
1.240000e-06	-2.706083e-06	-9.694872e-10	-1.883142e+01	-6.744166e+01
1.250000e-06	-2.665724e-06	-9.576520e-10	-1.855057e+01	-6.678738e+01
1.260000e-06	-2.625104e-06	-9.457146e-10	-1.826790e+01	-6.612689e+01
1.270000e-06	-2.584148e-06	-9.358821e-10	-1.798289e+01	-6.546024e+01
1.280000e-06	-2.542693e-06	-9.299685e-10	-1.769440e+01	-6.478751e+01
1.290000e-06	-2.500961e-06	-9.230426e-10	-1.740399e+01	-6.410873e+01
1.300000e-06	-2.459092e-06	-9.118645e-10	-1.711263e+01	-6.342395e+01
1.310000e-06	-2.416866e-06	-8.966603e-10	-1.681879e+01	-6.273321e+01
1.320000e-06	-2.374380e-06	-8.809481e-10	-1.652313e+01	-6.203653e+01
1.330000e-06	-2.331695e-06	-8.693153e-10	-1.622609e+01	-6.133392e+01
1.340000e-06	-2.288692e-06	-8.595986e-10	-1.592683e+01	-6.062536e+01
1.350000e-06	-2.245470e-06	-8.512073e-10	-1.562605e+01	-5.991083e+01
1.360000e-06	-2.202156e-06	-8.402543e-10	-1.532464e+01	-5.919029e+01
1.370000e-06	-2.158769e-06	-8.287996e-10	-1.502271e+01	-5.846367e+01
1.380000e-06	-2.115247e-06	-8.180172e-10	-1.471984e+01	-5.773087e+01
1.390000e-06	-2.071680e-06	-8.094055e-10	-1.441667e+01	-5.699178e+01
1.400000e-06	-2.028058e-06	-7.968498e-10	-1.411310e+01	-5.624626e+01
1.410000e-06	-1.984300e-06	-7.858747e-10	-1.380859e+01	-5.549413e+01
1.420000e-06	-1.940482e-06	-7.741079e-10	-1.350367e+01	-5.473520e+01
1.430000e-06	-1.896629e-06	-7.634865e-10	-1.319850e+01	-5.396924e+01
1.440000e-06	-1.852630e-06	-7.545128e-10	-1.289231e+01	-5.319599e+01
1.450000e-06	-1.808413e-06	-7.446826e-10	-1.258461e+01	-5.241517e+01
1.460000e-06	-1.764138e-06	-7.315583e-10	-1.227650e+01	-5.162646e+01
1.470000e-06	-1.719729e-06	-7.131963e-10	-1.196746e+01	-5.082953e+01
1.480000e-06	-1.675129e-06	-6.958380e-10	-1.165710e+01	-5.002399e+01
1.490000e-06	-1.630443e-06	-6.822040e-10	-1.134613e+01	-4.920945e+01
1.500000e-06	-1.585619e-06	-6.715033e-10	-1.103420e+01	-4.838548e+01
1.510000e-06	-1.540662e-06	-6.647956e-10	-1.072135e+01	-4.755165e+01
1.520000e-06	-1.495555e-06	-6.562336e-10	-1.040745e+01	-4.670748e+01
1.530000e-06	-1.450330e-06	-6.433069e-10	-1.009274e+01	-4.585248e+01
1.540000e-06	-1.405068e-06	-6.258376e-10	-9.777760e+00	-4.498616e+01
1.550000e-06	-1.359738e-06	-6.073045e-10	-9.462311e+00	-4.410798e+01
1.560000e-06	-1.314363e-06	-5.889425e-10	-9.146551e+00	-4.321744e+01
1.570000e-06	-1.268871e-06	-5.711244e-10	-8.829978e+00	-4.231398e+01
1.580000e-06	-1.223240e-06	-5.587461e-10	-8.512431e+00	-4.139707e+01
1.590000e-06	-1.177472e-06	-5.531143e-10	-8.193936e+00	-4.046619e+01
1.600000e-06	-1.131638e-06	-5.454724e-10	-7.874980e+00	-3.952078e+01
1.610000e-06	-1.085820e-06	-5.307649e-10	-7.556141e+00	-3.856033e+01
1.620000e-06	-1.039894e-06	-5.125502e-10	-7.236542e+00	-3.758433e+01
1.630000e-06	-9.938688e-07	-4.966720e-10	-6.916257e+00	-3.659229e+01
1.640000e-06	-9.478467e-07	-4.807437e-10	-6.595993e+00	-3.558372e+01
1.650000e-06	-9.018247e-07	-4.623772e-10	-6.275729e+00	-3.455818e+01
1.660000e-06	-8.556218e-07	-4.454985e-10	-5.954207e+00	-3.351526e+01
1.670000e-06	-8.093186e-07	-4.274488e-10	-5.631986e+00	-3.245458e+01
1.680000e-06	-7.629770e-07	-4.069246e-10	-5.309498e+00	-3.137578e+01
1.690000e-06	-7.165291e-07	-3.875106e-10	-4.986271e+00	-3.027857e+01
1.700000e-06	-6.700576e-07	-3.725181e-10	-4.662879e+00	-2.916269e+01
1.710000e-06	-6.235864e-07	-3.582507e-10	-4.339490e+00	-2.802793e+01
1.720000e-06	-5.770902e-07	-3.421677e-10	-4.015926e+00	-2.687414e+01
1.730000e-06	-5.305356e-07	-3.212816e-10	-3.691957e+00	-2.570123e+01
1.740000e-06	-4.839368e-07	-2.966963e-10	-3.367679e+00	-2.450916e+01
1.750000e-06	-4.373524e-07	-2.737910e-10	-3.043502e+00	-2.329794e+01
1.760000e-06	-3.906603e-07	-2.538532e-10	-2.718575e+00	-2.206767e+01
1.770000e-06	-3.439732e-07	-2.372228e-10	-2.393683e+00	-2.081849e+01
1.780000e-06	-2.973033e-07	-2.237623e-10	-2.068911e+00	-1.955063e+01
1.790000e-06	-2.505389e-07	-2.112904e-10	-1.743481e+00	-1.826436e+01
1.800000e-06	-2.037455e-07	-1.958675e-10	-1.417850e+00	-1.696005e+01
1.810000e-06	-1.569262e-07	-1.763529e-10	-1.092037e+00	-1.563810e+01
1.820000e-06	-1.101146e-07	-1.566843e-10	-7.662793e-01	-1.429900e+01
1.830000e-06	-6.330380e-08	-1.399819e-10	-4.405263e-01	-1.294331e+01
1.840000e-06	-1.653585e-08	-1.231216e-10	-1.150717e-01	-1.157164e+01
1.850000e-06	3.019597e-08	-1.027195e-10	2.101314e-01	-1.018467e+01
1.860000e-06	7.696985e-08	-8.328169e-11	5.356273e-01	-8.783143e+00
1.870000e-06	1.238400e-07	-6.445657e-11	8.617929e-01	-7.367855e+00
1.880000e-06	1.706520e-07	-4.502222e-11	1.187555e+00	-5.939659e+00
1.890000e-06	2.173704e-07	-2.625368e-11	1.512664e+00	-4.499461e+00
1.900000e-06	2.641214e-07	-7.958923e-12	1.838000e+00	-3.048216e+00
1.910000e-06	3.109425e-07	9.900123e-12	2.163825e+00	-1.586920e+00
1.920000e-06	3.577615e-07	2.823164e-11	2.489635e+00	-1.166128e-01
1.930000e-06	4.044966e-07	4.752464e-11	2.814861e+00	1.361634e+00
1.940000e-06	4.511520e-07	6.901114e-11	3.139532e+00	2.846715e+00
1.950000e-06	4.977544e-07	9.219576e-11	3.463835e+00	4.337500e+00
1.960000e-06	5.442795e-07	1.146098e-10	3.787599e+00	5.832840e+00
1.970000e-06	5.907747e-07	1.352323e-10	4.111156e+00	7.331567e+00
1.980000e-06	6.372611e-07	1.547886e-10	4.434651e+00	8.832506e+00
1.990000e-06	6.837047e-07	1.743520e-10	4.757849e+00	1.033447e+01
2.000000e-06	7.300026e-07	1.922473e-10	5.080032e+00	1.183629e+01
2.010000e-06	7.761385e-07	2.118271e-10	5.401089e+00	1.333678e+01
2.020000e-06	8.223550e-07	2.347119e-10	5.722706e+00	1.483477e+01
2.030000e-06	8.685805e-07	2.589208e-10	6.044385e+00	1.632911e+01
2.040000e-06	9.147365e-07	2.817024e-10	6.365581e+00	1.781868e+01
2.050000e-06	9.607818e-07	3.023481e-10	6.686007e+00	1.930237e+01
2.060000e-06	1.006678e-06	3.214851e-10	7.005398e+00	2.077910e+01
2.070000e-06	1.052510e-06	3.416072e-10	7.324336e+00	2.224783e+01
2.080000e-06	1.098256e-06	3.640568e-10	7.642679e+00	2.370756e+01
2.090000e-06	1.143969e-06	3.861255e-10	7.960791e+00	2.515731e+01
2.100000e-06	1.189576e-06	4.091021e-10	8.278168e+00	2.659617e+01
2.110000e-06	1.235009e-06	4.306230e-10	8.594332e+00	2.802326e+01
2.120000e-06	1.280387e-06	4.497698e-10	8.910113e+00	2.943775e+01
2.130000e-06	1.325764e-06	4.696762e-10	9.225893e+00	3.083888e+01
2.140000e-06	1.371094e-06	4.897066e-10	9.541337e+00	3.222592e+01
2.150000e-06	1.416393e-06	5.103502e-10	9.856571e+00	3.359820e+01
2.160000e-06	1.461561e-06	5.328634e-10	1.017089e+01	3.495511e+01
2.170000e-06	1.506571e-06	5.542435e-10	1.048411e+01	3.629610e+01
2.180000e-06	1.551547e-06	5.753367e-10	1.079709e+01	3.762067e+01
2.190000e-06	1.596324e-06	5.932285e-10	1.110870e+01	3.892837e+01
2.200000e-06	1.640922e-06	6.078825e-10	1.141905e+01	4.021881e+01
2.210000e-06	1.685475e-06	6.219503e-10	1.172909e+01	4.149167e+01
2.220000e-06	1.729865e-06	6.368264e-10	1.203800e+01	4.274665e+01
2.230000e-06	1.774052e-06	6.553270e-10	1.234549e+01	4.398354e+01
2.240000e-06	1.818161e-06	6.742883e-10	1.265245e+01	4.520216e+01
2.250000e-06	1.862187e-06	6.928405e-10	1.295882e+01	4.640237e+01
2.260000e-06	1.906067e-06	7.093332e-10	1.326417e+01	4.758408e+01
2.270000e-06	1.949873e-06	7.263031e-10	1.356902e+01	4.874727e+01
2.280000e-06	1.993624e-06	7.455683e-10	1.387347e+01	4.989192e+01
2.290000e-06	2.037277e-06	7.630291e-10	1.417725e+01	5.101808e+01
2.300000e-06	2.080877e-06	7.769767e-10	1.448066e+01	5.212582e+01
2.310000e-06	2.124454e-06	7.871644e-10	1.478391e+01	5.321525e+01
2.320000e-06	2.167920e-06	7.989268e-10	1.508639e+01	5.428649e+01
2.330000e-06	2.211271e-06	8.128440e-10	1.538807e+01	5.533971e+01
2.340000e-06	2.254530e-06	8.274596e-10	1.568910e+01	5.637510e+01
2.350000e-06	2.297588e-06	8.457908e-10	1.598874e+01	5.739286e+01
2.360000e-06	2.340467e-06	8.676187e-10	1.628713e+01	5.839321e+01
2.370000e-06	2.383170e-06	8.851699e-10	1.658430e+01	5.937639e+01
2.380000e-06	2.425627e-06	8.968369e-10	1.687975e+01	6.034265e+01
2.390000e-06	2.467767e-06	9.069540e-10	1.717300e+01	6.129225e+01
2.400000e-06	2.509543e-06	9.168249e-10	1.746372e+01	6.222545e+01
2.410000e-06	2.550885e-06	9.259907e-10	1.775142e+01	6.314253e+01
2.420000e-06	2.591866e-06	9.380745e-10	1.803660e+01	6.404376e+01
2.430000e-06	2.632556e-06	9.559525e-10	1.831976e+01	6.492941e+01
2.440000e-06	2.673038e-06	9.743800e-10	1.860147e+01	6.579977e+01
2.450000e-06	2.713458e-06	9.900002e-10	1.888275e+01	6.665510e+01
2.460000e-06	2.753665e-06	1.004244e-09	1.916255e+01	6.749568e+01
2.470000e-06	2.793536e-06	1.016486e-09	1.944000e+01	6.832177e+01
2.480000e-06	2.833204e-06	1.027009e-09	1.971605e+01	6.913363e+01
2.490000e-06	2.872807e-06	1.038046e-09	1.999165e+01	6.993151e+01
2.500000e-06	2.912314e-06	1.049823e-09	2.026657e+01	7.071568e+01
2.510000e-06	2.951719e-06	1.062501e-09	2.054079e+01	7.148636e+01
2.520000e-06	2.990981e-06	1.075312e-09	2.081401e+01	7.224380e+01
2.530000e-06	3.030048e-06	1.086007e-09	2.108588e+01	7.298823e+01
2.540000e-06	3.068965e-06	1.093865e-09	2.135669e+01	7.371987e+01
2.550000e-06	3.107592e-06	1.100188e-09	2.162550e+01	7.443894e+01
2.560000e-06	3.145958e-06	1.108585e-09	2.189248e+01	7.514565e+01
2.570000e-06	3.184137e-06	1.120581e-09	2.215816e+01	7.584023e+01
2.580000e-06	3.222057e-06	1.132915e-09	2.242205e+01	7.652286e+01
2.590000e-06	3.259740e-06	1.146155e-09	2.268428e+01	7.719375e+01
2.600000e-06	3.297207e-06	1.158645e-09	2.294501e+01	7.785311e+01
2.610000e-06	3.334546e-06	1.165748e-09	2.320485e+01	7.850112e+01
2.620000e-06	3.371696e-06	1.167551e-09	2.346337e+01	7.913799e+01
2.630000e-06	3.408526e-06	1.167227e-09	2.371967e+01	7.976392e+01
2.640000e-06	3.445048e-06	1.169847e-09	2.397383e+01	8.037909e+01
2.650000e-06	3.481409e-06	1.180727e-09	2.422686e+01	8.098371e+01
2.660000e-06	3.517552e-06	1.196097e-09	2.447837e+01	8.157798e+01
2.670000e-06	3.553440e-06	1.209598e-09	2.472812e+01	8.216209e+01
2.680000e-06	3.589168e-06	1.221571e-09	2.497674e+01	8.273626e+01
2.690000e-06	3.624750e-06	1.230348e-09	2.522436e+01	8.330067e+01
2.700000e-06	3.660200e-06	1.232917e-09	2.547105e+01	8.385555e+01
2.710000e-06	3.695482e-06	1.232723e-09	2.571658e+01	8.440111e+01
2.720000e-06	3.730459e-06	1.234183e-09	2.595998e+01	8.493755e+01
2.730000e-06	3.765144e-06	1.240020e-09	2.620135e+01	8.546509e+01
2.740000e-06	3.799679e-06	1.249918e-09	2.644168e+01	8.598395e+01
2.750000e-06	3.833879e-06	1.262518e-09	2.667967e+01	8.649434e+01
2.760000e-06	3.867512e-06	1.275925e-09	2.691372e+01	8.699650e+01
2.770000e-06	3.900568e-06	1.287554e-09	2.714375e+01	8.749063e+01
2.780000e-06	3.933188e-06	1.295591e-09	2.737075e+01	8.797695e+01
2.790000e-06	3.965422e-06	1.297652e-09	2.759507e+01	8.845569e+01
2.800000e-06	3.997392e-06	1.298548e-09	2.781754e+01	8.892705e+01
2.810000e-06	4.029187e-06	1.300176e-09	2.803880e+01	8.939125e+01
2.820000e-06	4.060737e-06	1.305537e-09	2.825836e+01	8.984849e+01
2.830000e-06	4.092150e-06	1.315962e-09	2.847696e+01	9.029898e+01
2.840000e-06	4.123409e-06	1.330054e-09	2.869449e+01	9.074291e+01
2.850000e-06	4.154369e-06	1.345704e-09	2.890994e+01	9.118045e+01
2.860000e-06	4.185000e-06	1.357930e-09	2.912310e+01	9.161180e+01
2.870000e-06	4.215316e-06	1.364709e-09	2.933406e+01	9.203711e+01
2.880000e-06	4.245233e-06	1.366544e-09	2.954225e+01	9.245653e+01
2.890000e-06	4.274834e-06	1.367747e-09	2.974825e+01	9.287022e+01
2.900000e-06	4.304326e-06	1.371899e-09	2.995347e+01	9.327828e+01
2.910000e-06	4.333565e-06	1.379744e-09	3.015695e+01	9.368085e+01
