# Temperatura_=_-0.6
# Concentracion g/m^3_=_1620.0
# C_Vs_to_Am_M_A/Vsm_=_65563218390.804596
# pendiente_HvsI_1/m_=_3716.3
# ordenada_HvsI_A/m_=_1297.0
# frecuencia_Hz_=_135098.92321124018

Tiempo_(s)	Campo_(V.s)	Magnetizacion_(V.s)	Campo_(kA/m)	Magnetizacion_(A/m)
0.000000e+00	-5.517954e-06	-1.403718e-09	-3.837353e+01	-9.335594e+01
1.000000e-08	-5.518304e-06	-1.399493e-09	-3.837596e+01	-9.330953e+01
2.000000e-08	-5.518479e-06	-1.395393e-09	-3.837717e+01	-9.326424e+01
3.000000e-08	-5.518348e-06	-1.393117e-09	-3.837627e+01	-9.322002e+01
4.000000e-08	-5.517705e-06	-1.390864e-09	-3.837179e+01	-9.317681e+01
5.000000e-08	-5.516456e-06	-1.381292e-09	-3.836310e+01	-9.313453e+01
6.000000e-08	-5.514602e-06	-1.359864e-09	-3.835021e+01	-9.309304e+01
7.000000e-08	-5.512167e-06	-1.344077e-09	-3.833328e+01	-9.305218e+01
8.000000e-08	-5.509196e-06	-1.377794e-09	-3.831262e+01	-9.301179e+01
9.000000e-08	-5.505776e-06	-1.464697e-09	-3.828884e+01	-9.297165e+01
1.000000e-07	-5.501966e-06	-1.532401e-09	-3.826234e+01	-9.293153e+01
1.100000e-07	-5.497676e-06	-1.432305e-09	-3.823250e+01	-9.289118e+01
1.200000e-07	-5.493118e-06	-1.273424e-09	-3.820081e+01	-9.285032e+01
1.300000e-07	-5.488436e-06	-1.276947e-09	-3.816825e+01	-9.280866e+01
1.400000e-07	-5.483446e-06	-1.421846e-09	-3.813355e+01	-9.276588e+01
1.500000e-07	-5.478073e-06	-1.421579e-09	-3.809618e+01	-9.272167e+01
1.600000e-07	-5.472344e-06	-1.306393e-09	-3.805634e+01	-9.267569e+01
1.700000e-07	-5.466279e-06	-1.296065e-09	-3.801417e+01	-9.262758e+01
1.800000e-07	-5.459735e-06	-1.461246e-09	-3.796865e+01	-9.257700e+01
1.900000e-07	-5.452641e-06	-1.481226e-09	-3.791932e+01	-9.252360e+01
2.000000e-07	-5.445227e-06	-1.354206e-09	-3.786776e+01	-9.246702e+01
2.100000e-07	-5.437635e-06	-1.292134e-09	-3.781496e+01	-9.240692e+01
2.200000e-07	-5.429808e-06	-1.403027e-09	-3.776053e+01	-9.234293e+01
2.300000e-07	-5.421733e-06	-1.459203e-09	-3.770437e+01	-9.227473e+01
2.400000e-07	-5.413302e-06	-1.400546e-09	-3.764575e+01	-9.220199e+01
2.500000e-07	-5.404132e-06	-1.369083e-09	-3.758197e+01	-9.212439e+01
2.600000e-07	-5.394129e-06	-1.419428e-09	-3.751241e+01	-9.204164e+01
2.700000e-07	-5.383507e-06	-1.437765e-09	-3.743854e+01	-9.195346e+01
2.800000e-07	-5.372394e-06	-1.378390e-09	-3.736126e+01	-9.185959e+01
2.900000e-07	-5.360884e-06	-1.380316e-09	-3.728121e+01	-9.175979e+01
3.000000e-07	-5.349067e-06	-1.415605e-09	-3.719903e+01	-9.165386e+01
3.100000e-07	-5.336998e-06	-1.420640e-09	-3.711510e+01	-9.154160e+01
3.200000e-07	-5.324477e-06	-1.359444e-09	-3.702803e+01	-9.142285e+01
3.300000e-07	-5.311454e-06	-1.374876e-09	-3.693747e+01	-9.129749e+01
3.400000e-07	-5.298104e-06	-1.401670e-09	-3.684462e+01	-9.116541e+01
3.500000e-07	-5.284397e-06	-1.417190e-09	-3.674930e+01	-9.102653e+01
3.600000e-07	-5.270165e-06	-1.375200e-09	-3.665033e+01	-9.088080e+01
3.700000e-07	-5.255598e-06	-1.389563e-09	-3.654902e+01	-9.072822e+01
3.800000e-07	-5.240662e-06	-1.395385e-09	-3.644515e+01	-9.056878e+01
3.900000e-07	-5.225035e-06	-1.374984e-09	-3.633648e+01	-9.040253e+01
4.000000e-07	-5.208849e-06	-1.346772e-09	-3.622391e+01	-9.022952e+01
4.100000e-07	-5.192316e-06	-1.389526e-09	-3.610894e+01	-9.004986e+01
4.200000e-07	-5.175487e-06	-1.392642e-09	-3.599191e+01	-8.986365e+01
4.300000e-07	-5.158303e-06	-1.344384e-09	-3.587241e+01	-8.967102e+01
4.400000e-07	-5.140817e-06	-1.354165e-09	-3.575080e+01	-8.947214e+01
4.500000e-07	-5.123090e-06	-1.415237e-09	-3.562752e+01	-8.926718e+01
4.600000e-07	-5.104963e-06	-1.370392e-09	-3.550146e+01	-8.905632e+01
4.700000e-07	-5.086254e-06	-1.308132e-09	-3.537135e+01	-8.883977e+01
4.800000e-07	-5.067136e-06	-1.355620e-09	-3.523840e+01	-8.861776e+01
4.900000e-07	-5.047775e-06	-1.383751e-09	-3.510376e+01	-8.839049e+01
5.000000e-07	-5.028194e-06	-1.330926e-09	-3.496759e+01	-8.815821e+01
5.100000e-07	-5.008463e-06	-1.337675e-09	-3.483037e+01	-8.792114e+01
5.200000e-07	-4.988448e-06	-1.370907e-09	-3.469118e+01	-8.767953e+01
5.300000e-07	-4.968024e-06	-1.316562e-09	-3.454914e+01	-8.743361e+01
5.400000e-07	-4.947155e-06	-1.310379e-09	-3.440402e+01	-8.718361e+01
5.500000e-07	-4.925980e-06	-1.364208e-09	-3.425676e+01	-8.692976e+01
5.600000e-07	-4.904506e-06	-1.331725e-09	-3.410742e+01	-8.667228e+01
5.700000e-07	-4.882695e-06	-1.271798e-09	-3.395574e+01	-8.641137e+01
5.800000e-07	-4.860530e-06	-1.322112e-09	-3.380160e+01	-8.614722e+01
5.900000e-07	-4.837949e-06	-1.337218e-09	-3.364456e+01	-8.588003e+01
6.000000e-07	-4.815081e-06	-1.286389e-09	-3.348553e+01	-8.560996e+01
6.100000e-07	-4.791982e-06	-1.295241e-09	-3.332489e+01	-8.533714e+01
6.200000e-07	-4.768679e-06	-1.325854e-09	-3.316284e+01	-8.506172e+01
6.300000e-07	-4.745107e-06	-1.276970e-09	-3.299891e+01	-8.478380e+01
6.400000e-07	-4.721280e-06	-1.266023e-09	-3.283321e+01	-8.450348e+01
6.500000e-07	-4.697113e-06	-1.292005e-09	-3.266515e+01	-8.422081e+01
6.600000e-07	-4.672433e-06	-1.276948e-09	-3.249351e+01	-8.393586e+01
6.700000e-07	-4.647398e-06	-1.256181e-09	-3.231941e+01	-8.364864e+01
6.800000e-07	-4.621906e-06	-1.284171e-09	-3.214214e+01	-8.335917e+01
6.900000e-07	-4.595661e-06	-1.275596e-09	-3.195962e+01	-8.306742e+01
7.000000e-07	-4.568801e-06	-1.255972e-09	-3.177283e+01	-8.277337e+01
7.100000e-07	-4.541663e-06	-1.262534e-09	-3.158410e+01	-8.247697e+01
7.200000e-07	-4.514354e-06	-1.258389e-09	-3.139419e+01	-8.217813e+01
7.300000e-07	-4.486846e-06	-1.232452e-09	-3.120289e+01	-8.187677e+01
7.400000e-07	-4.459119e-06	-1.233998e-09	-3.101007e+01	-8.157279e+01
7.500000e-07	-4.431165e-06	-1.236231e-09	-3.081567e+01	-8.126606e+01
7.600000e-07	-4.402991e-06	-1.224802e-09	-3.061973e+01	-8.095647e+01
7.700000e-07	-4.374514e-06	-1.224959e-09	-3.042169e+01	-8.064386e+01
7.800000e-07	-4.345665e-06	-1.225065e-09	-3.022107e+01	-8.032810e+01
7.900000e-07	-4.316428e-06	-1.211971e-09	-3.001775e+01	-8.000901e+01
8.000000e-07	-4.286962e-06	-1.207698e-09	-2.981284e+01	-7.968645e+01
8.100000e-07	-4.257269e-06	-1.203914e-09	-2.960634e+01	-7.936024e+01
8.200000e-07	-4.227198e-06	-1.182562e-09	-2.939722e+01	-7.903023e+01
8.300000e-07	-4.196784e-06	-1.175224e-09	-2.918571e+01	-7.869624e+01
8.400000e-07	-4.166050e-06	-1.181792e-09	-2.897198e+01	-7.835812e+01
8.500000e-07	-4.135087e-06	-1.177056e-09	-2.875665e+01	-7.801570e+01
8.600000e-07	-4.103839e-06	-1.163643e-09	-2.853934e+01	-7.766885e+01
8.700000e-07	-4.072354e-06	-1.165395e-09	-2.832039e+01	-7.731741e+01
8.800000e-07	-4.040809e-06	-1.156079e-09	-2.810101e+01	-7.696125e+01
8.900000e-07	-4.009094e-06	-1.142033e-09	-2.788046e+01	-7.660025e+01
9.000000e-07	-3.977132e-06	-1.138168e-09	-2.765818e+01	-7.623430e+01
9.100000e-07	-3.944873e-06	-1.139197e-09	-2.743385e+01	-7.586329e+01
9.200000e-07	-3.912307e-06	-1.127327e-09	-2.720737e+01	-7.548716e+01
9.300000e-07	-3.879434e-06	-1.122523e-09	-2.697876e+01	-7.510582e+01
9.400000e-07	-3.846153e-06	-1.121817e-09	-2.674731e+01	-7.471923e+01
9.500000e-07	-3.812311e-06	-1.113039e-09	-2.651197e+01	-7.432733e+01
9.600000e-07	-3.777885e-06	-1.098174e-09	-2.627256e+01	-7.393011e+01
9.700000e-07	-3.743114e-06	-1.094452e-09	-2.603075e+01	-7.352755e+01
9.800000e-07	-3.708057e-06	-1.087108e-09	-2.578695e+01	-7.311967e+01
9.900000e-07	-3.672742e-06	-1.080114e-09	-2.554136e+01	-7.270647e+01
1.000000e-06	-3.637313e-06	-1.079688e-09	-2.529497e+01	-7.228800e+01
1.010000e-06	-3.601719e-06	-1.078772e-09	-2.504744e+01	-7.186429e+01
1.020000e-06	-3.565934e-06	-1.067145e-09	-2.479859e+01	-7.143539e+01
1.030000e-06	-3.530003e-06	-1.058280e-09	-2.454871e+01	-7.100139e+01
1.040000e-06	-3.493857e-06	-1.051198e-09	-2.429734e+01	-7.056234e+01
1.050000e-06	-3.457448e-06	-1.041539e-09	-2.404414e+01	-7.011834e+01
1.060000e-06	-3.420765e-06	-1.034140e-09	-2.378904e+01	-6.966947e+01
1.070000e-06	-3.383843e-06	-1.031938e-09	-2.353227e+01	-6.921582e+01
1.080000e-06	-3.346672e-06	-1.024616e-09	-2.327377e+01	-6.875750e+01
1.090000e-06	-3.309230e-06	-1.013859e-09	-2.301339e+01	-6.829459e+01
1.100000e-06	-3.271590e-06	-1.007251e-09	-2.275163e+01	-6.782719e+01
1.110000e-06	-3.233681e-06	-9.970536e-10	-2.248800e+01	-6.735540e+01
1.120000e-06	-3.195490e-06	-9.842449e-10	-2.222241e+01	-6.687931e+01
1.130000e-06	-3.157142e-06	-9.750663e-10	-2.195572e+01	-6.639899e+01
1.140000e-06	-3.118637e-06	-9.701739e-10	-2.168795e+01	-6.591453e+01
1.150000e-06	-3.079908e-06	-9.602972e-10	-2.141861e+01	-6.542599e+01
1.160000e-06	-3.040941e-06	-9.509013e-10	-2.114762e+01	-6.493342e+01
1.170000e-06	-3.001801e-06	-9.418613e-10	-2.087544e+01	-6.443687e+01
1.180000e-06	-2.962447e-06	-9.343318e-10	-2.060175e+01	-6.393638e+01
1.190000e-06	-2.922969e-06	-9.279825e-10	-2.032721e+01	-6.343194e+01
1.200000e-06	-2.883407e-06	-9.231169e-10	-2.005209e+01	-6.292357e+01
1.210000e-06	-2.843654e-06	-9.143722e-10	-1.977563e+01	-6.241124e+01
1.220000e-06	-2.803821e-06	-9.058136e-10	-1.949862e+01	-6.189491e+01
1.230000e-06	-2.763884e-06	-8.973873e-10	-1.922089e+01	-6.137454e+01
1.240000e-06	-2.723676e-06	-8.882947e-10	-1.894127e+01	-6.085004e+01
1.250000e-06	-2.683289e-06	-8.765116e-10	-1.866040e+01	-6.032133e+01
1.260000e-06	-2.642640e-06	-8.669858e-10	-1.837772e+01	-5.978828e+01
1.270000e-06	-2.601727e-06	-8.568661e-10	-1.809320e+01	-5.925076e+01
1.280000e-06	-2.560615e-06	-8.481386e-10	-1.780729e+01	-5.870863e+01
1.290000e-06	-2.519104e-06	-8.402407e-10	-1.751861e+01	-5.816169e+01
1.300000e-06	-2.477250e-06	-8.328856e-10	-1.722755e+01	-5.760977e+01
1.310000e-06	-2.435190e-06	-8.228911e-10	-1.693505e+01	-5.705264e+01
1.320000e-06	-2.392890e-06	-8.122169e-10	-1.664088e+01	-5.649007e+01
1.330000e-06	-2.350310e-06	-8.005782e-10	-1.634477e+01	-5.592182e+01
1.340000e-06	-2.307402e-06	-7.886757e-10	-1.604637e+01	-5.534760e+01
1.350000e-06	-2.264238e-06	-7.789771e-10	-1.574620e+01	-5.476714e+01
1.360000e-06	-2.220941e-06	-7.691302e-10	-1.544509e+01	-5.418014e+01
1.370000e-06	-2.177543e-06	-7.584162e-10	-1.514329e+01	-5.358627e+01
1.380000e-06	-2.134054e-06	-7.507849e-10	-1.484086e+01	-5.298520e+01
1.390000e-06	-2.090476e-06	-7.443563e-10	-1.453781e+01	-5.237660e+01
1.400000e-06	-2.046807e-06	-7.360282e-10	-1.423412e+01	-5.176011e+01
1.410000e-06	-2.003030e-06	-7.254459e-10	-1.392968e+01	-5.113537e+01
1.420000e-06	-1.959190e-06	-7.134879e-10	-1.362480e+01	-5.050198e+01
1.430000e-06	-1.915297e-06	-7.031402e-10	-1.331956e+01	-4.985959e+01
1.440000e-06	-1.871316e-06	-6.934871e-10	-1.301370e+01	-4.920779e+01
1.450000e-06	-1.827226e-06	-6.836907e-10	-1.270708e+01	-4.854618e+01
1.460000e-06	-1.782958e-06	-6.724525e-10	-1.239923e+01	-4.787437e+01
1.470000e-06	-1.738557e-06	-6.622782e-10	-1.209045e+01	-4.719196e+01
1.480000e-06	-1.694059e-06	-6.516988e-10	-1.178100e+01	-4.649854e+01
1.490000e-06	-1.649356e-06	-6.406209e-10	-1.147012e+01	-4.579369e+01
1.500000e-06	-1.604569e-06	-6.283783e-10	-1.115866e+01	-4.507702e+01
1.510000e-06	-1.559647e-06	-6.171316e-10	-1.084626e+01	-4.434812e+01
1.520000e-06	-1.514517e-06	-6.069973e-10	-1.053241e+01	-4.360658e+01
1.530000e-06	-1.469249e-06	-5.961597e-10	-1.021761e+01	-4.285200e+01
1.540000e-06	-1.423862e-06	-5.817494e-10	-9.901970e+00	-4.208400e+01
1.550000e-06	-1.378437e-06	-5.676027e-10	-9.586066e+00	-4.130217e+01
1.560000e-06	-1.332947e-06	-5.526113e-10	-9.269719e+00	-4.050614e+01
1.570000e-06	-1.287438e-06	-5.387260e-10	-8.953234e+00	-3.969553e+01
1.580000e-06	-1.241860e-06	-5.261464e-10	-8.636273e+00	-3.886998e+01
1.590000e-06	-1.196197e-06	-5.157899e-10	-8.318717e+00	-3.802913e+01
1.600000e-06	-1.150487e-06	-5.040175e-10	-8.000837e+00	-3.717264e+01
1.610000e-06	-1.104623e-06	-4.906453e-10	-7.681880e+00	-3.630016e+01
1.620000e-06	-1.058658e-06	-4.761611e-10	-7.362228e+00	-3.541139e+01
1.630000e-06	-1.012636e-06	-4.615610e-10	-7.042179e+00	-3.450602e+01
1.640000e-06	-9.665334e-07	-4.483416e-10	-6.721567e+00	-3.358376e+01
1.650000e-06	-9.203352e-07	-4.331502e-10	-6.400290e+00	-3.264434e+01
1.660000e-06	-8.740746e-07	-4.172987e-10	-6.078580e+00	-3.168750e+01
1.670000e-06	-8.278211e-07	-4.026003e-10	-5.756919e+00	-3.071301e+01
1.680000e-06	-7.815473e-07	-3.877197e-10	-5.435117e+00	-2.972066e+01
1.690000e-06	-7.352247e-07	-3.735001e-10	-5.112975e+00	-2.871026e+01
1.700000e-06	-6.888725e-07	-3.620659e-10	-4.790628e+00	-2.768164e+01
1.710000e-06	-6.424008e-07	-3.500473e-10	-4.467450e+00	-2.663466e+01
1.720000e-06	-5.958312e-07	-3.347406e-10	-4.143591e+00	-2.556921e+01
1.730000e-06	-5.492538e-07	-3.154478e-10	-3.819677e+00	-2.448520e+01
1.740000e-06	-5.026137e-07	-2.943787e-10	-3.495328e+00	-2.338257e+01
1.750000e-06	-4.559579e-07	-2.741025e-10	-3.170870e+00	-2.226131e+01
1.760000e-06	-4.092613e-07	-2.576894e-10	-2.846127e+00	-2.112142e+01
1.770000e-06	-3.625517e-07	-2.442353e-10	-2.521294e+00	-1.996294e+01
1.780000e-06	-3.158306e-07	-2.311714e-10	-2.196382e+00	-1.878596e+01
1.790000e-06	-2.691003e-07	-2.173251e-10	-1.871405e+00	-1.759060e+01
1.800000e-06	-2.223614e-07	-2.017601e-10	-1.546369e+00	-1.637701e+01
1.810000e-06	-1.755310e-07	-1.821661e-10	-1.220696e+00	-1.514540e+01
1.820000e-06	-1.286767e-07	-1.623836e-10	-8.948566e-01	-1.389600e+01
1.830000e-06	-8.176336e-08	-1.448313e-10	-5.686072e-01	-1.262910e+01
1.840000e-06	-3.491208e-08	-1.281425e-10	-2.427892e-01	-1.134502e+01
1.850000e-06	1.180962e-08	-1.101079e-10	8.212770e-02	-1.004416e+01
1.860000e-06	5.859923e-08	-9.247242e-11	4.075168e-01	-8.726921e+00
1.870000e-06	1.055161e-07	-7.455305e-11	7.337906e-01	-7.393779e+00
1.880000e-06	1.523742e-07	-5.481266e-11	1.059656e+00	-6.045252e+00
1.890000e-06	1.992042e-07	-3.540599e-11	1.385326e+00	-4.681905e+00
1.900000e-06	2.460916e-07	-1.603749e-11	1.711396e+00	-3.304351e+00
1.910000e-06	2.929234e-07	3.843520e-12	2.037078e+00	-1.913254e+00
1.920000e-06	3.396959e-07	2.262725e-11	2.362348e+00	-5.093235e-01
1.930000e-06	3.864009e-07	4.181643e-11	2.687149e+00	9.066832e-01
1.940000e-06	4.330592e-07	6.164209e-11	3.011625e+00	2.333962e+00
1.950000e-06	4.796535e-07	8.213127e-11	3.335656e+00	3.771663e+00
1.960000e-06	5.261406e-07	1.042998e-10	3.658941e+00	5.218892e+00
1.970000e-06	5.725656e-07	1.256213e-10	3.981795e+00	6.674715e+00
1.980000e-06	6.190030e-07	1.443037e-10	4.304735e+00	8.138154e+00
1.990000e-06	6.654122e-07	1.628213e-10	4.627478e+00	9.608194e+00
2.000000e-06	7.117287e-07	1.827155e-10	4.949577e+00	1.108379e+01
2.010000e-06	7.580367e-07	2.030805e-10	5.271617e+00	1.256385e+01
2.020000e-06	8.042832e-07	2.254260e-10	5.593229e+00	1.404726e+01
2.030000e-06	8.504638e-07	2.493845e-10	5.914383e+00	1.553289e+01
2.040000e-06	8.966560e-07	2.717053e-10	6.235618e+00	1.701957e+01
2.050000e-06	9.428228e-07	2.917902e-10	6.556676e+00	1.850613e+01
2.060000e-06	9.888395e-07	3.115762e-10	6.876690e+00	1.999135e+01
2.070000e-06	1.034753e-06	3.312130e-10	7.195989e+00	2.147403e+01
2.080000e-06	1.080697e-06	3.512255e-10	7.515494e+00	2.295296e+01
2.090000e-06	1.126533e-06	3.714144e-10	7.834253e+00	2.442692e+01
2.100000e-06	1.172202e-06	3.928224e-10	8.151851e+00	2.589469e+01
2.110000e-06	1.217827e-06	4.148119e-10	8.469136e+00	2.735505e+01
2.120000e-06	1.263388e-06	4.351678e-10	8.785980e+00	2.880681e+01
2.130000e-06	1.308861e-06	4.539845e-10	9.102214e+00	3.024879e+01
2.140000e-06	1.354297e-06	4.735697e-10	9.418190e+00	3.167981e+01
2.150000e-06	1.399646e-06	4.939429e-10	9.733564e+00	3.309875e+01
2.160000e-06	1.444911e-06	5.144937e-10	1.004835e+01	3.450448e+01
2.170000e-06	1.490103e-06	5.343323e-10	1.036263e+01	3.589594e+01
2.180000e-06	1.535146e-06	5.529997e-10	1.067587e+01	3.727209e+01
2.190000e-06	1.580034e-06	5.706894e-10	1.098803e+01	3.863193e+01
2.200000e-06	1.624759e-06	5.879197e-10	1.129907e+01	3.997451e+01
2.210000e-06	1.669328e-06	6.053301e-10	1.160901e+01	4.129894e+01
2.220000e-06	1.713781e-06	6.212351e-10	1.191815e+01	4.260436e+01
2.230000e-06	1.758104e-06	6.383586e-10	1.222639e+01	4.388999e+01
2.240000e-06	1.802320e-06	6.582249e-10	1.253388e+01	4.515509e+01
2.250000e-06	1.846409e-06	6.765853e-10	1.284049e+01	4.639900e+01
2.260000e-06	1.890383e-06	6.937088e-10	1.314630e+01	4.762110e+01
2.270000e-06	1.934277e-06	7.108907e-10	1.345155e+01	4.882087e+01
2.280000e-06	1.978095e-06	7.277975e-10	1.375628e+01	4.999781e+01
2.290000e-06	2.021891e-06	7.432040e-10	1.406084e+01	5.115153e+01
2.300000e-06	2.065613e-06	7.593512e-10	1.436490e+01	5.228169e+01
2.310000e-06	2.109226e-06	7.750508e-10	1.466820e+01	5.338802e+01
2.320000e-06	2.152809e-06	7.902187e-10	1.497128e+01	5.447031e+01
2.330000e-06	2.196334e-06	8.057884e-10	1.527397e+01	5.552844e+01
2.340000e-06	2.239706e-06	8.206059e-10	1.557559e+01	5.656233e+01
2.350000e-06	2.282874e-06	8.357162e-10	1.587580e+01	5.757198e+01
2.360000e-06	2.325852e-06	8.508108e-10	1.617468e+01	5.855745e+01
2.370000e-06	2.368638e-06	8.665812e-10	1.647223e+01	5.951886e+01
2.380000e-06	2.411119e-06	8.796296e-10	1.676765e+01	6.045640e+01
2.390000e-06	2.453243e-06	8.892035e-10	1.706059e+01	6.137030e+01
2.400000e-06	2.495091e-06	9.005878e-10	1.735162e+01	6.226084e+01
2.410000e-06	2.536576e-06	9.139724e-10	1.764012e+01	6.312838e+01
2.420000e-06	2.577712e-06	9.278356e-10	1.792619e+01	6.397329e+01
2.430000e-06	2.618606e-06	9.429354e-10	1.821058e+01	6.479601e+01
2.440000e-06	2.659218e-06	9.559317e-10	1.849301e+01	6.559699e+01
2.450000e-06	2.699564e-06	9.662476e-10	1.877359e+01	6.637674e+01
2.460000e-06	2.739704e-06	9.743896e-10	1.905273e+01	6.713579e+01
2.470000e-06	2.779697e-06	9.845748e-10	1.933086e+01	6.787470e+01
2.480000e-06	2.819560e-06	9.967589e-10	1.960808e+01	6.859404e+01
2.490000e-06	2.859322e-06	1.011680e-09	1.988459e+01	6.929442e+01
2.500000e-06	2.899001e-06	1.024984e-09	2.016053e+01	6.997643e+01
2.510000e-06	2.938565e-06	1.033967e-09	2.043567e+01	7.064070e+01
2.520000e-06	2.977971e-06	1.041546e-09	2.070971e+01	7.128786e+01
2.530000e-06	3.017245e-06	1.047977e-09	2.098283e+01	7.191852e+01
2.540000e-06	3.056300e-06	1.055087e-09	2.125444e+01	7.253330e+01
2.550000e-06	3.095085e-06	1.064114e-09	2.152416e+01	7.313283e+01
2.560000e-06	3.133682e-06	1.076652e-09	2.179257e+01	7.371771e+01
2.570000e-06	3.171974e-06	1.089693e-09	2.205887e+01	7.428853e+01
2.580000e-06	3.209961e-06	1.099032e-09	2.232304e+01	7.484586e+01
2.590000e-06	3.247786e-06	1.106624e-09	2.258609e+01	7.539028e+01
2.600000e-06	3.285381e-06	1.112327e-09	2.284753e+01	7.592230e+01
2.610000e-06	3.322790e-06	1.116593e-09	2.310769e+01	7.644246e+01
2.620000e-06	3.360088e-06	1.121769e-09	2.336707e+01	7.695124e+01
2.630000e-06	3.397094e-06	1.126864e-09	2.362442e+01	7.744910e+01
2.640000e-06	3.433758e-06	1.134263e-09	2.387939e+01	7.793648e+01
2.650000e-06	3.470157e-06	1.143624e-09	2.413252e+01	7.841379e+01
2.660000e-06	3.506325e-06	1.155278e-09	2.438405e+01	7.888142e+01
2.670000e-06	3.542301e-06	1.164453e-09	2.463423e+01	7.933971e+01
2.680000e-06	3.578101e-06	1.169474e-09	2.488320e+01	7.978900e+01
2.690000e-06	3.613816e-06	1.173922e-09	2.513158e+01	8.022956e+01
2.700000e-06	3.649459e-06	1.179565e-09	2.537945e+01	8.066168e+01
2.710000e-06	3.684931e-06	1.185108e-09	2.562612e+01	8.108559e+01
2.720000e-06	3.720204e-06	1.192009e-09	2.587143e+01	8.150151e+01
2.730000e-06	3.755225e-06	1.201981e-09	2.611498e+01	8.190962e+01
2.740000e-06	3.789796e-06	1.210180e-09	2.635539e+01	8.231010e+01
2.750000e-06	3.823858e-06	1.215914e-09	2.659227e+01	8.270308e+01
2.760000e-06	3.857452e-06	1.220841e-09	2.682589e+01	8.308870e+01
2.770000e-06	3.890540e-06	1.223555e-09	2.705600e+01	8.346706e+01
2.780000e-06	3.923258e-06	1.226444e-09	2.728353e+01	8.383824e+01
2.790000e-06	3.955627e-06	1.230768e-09	2.750863e+01	8.420233e+01
2.800000e-06	3.987677e-06	1.236515e-09	2.773152e+01	8.455938e+01
2.810000e-06	4.019514e-06	1.241423e-09	2.795292e+01	8.490945e+01
2.820000e-06	4.051200e-06	1.247170e-09	2.817328e+01	8.525258e+01
2.830000e-06	4.082757e-06	1.253146e-09	2.839273e+01	8.558881e+01
2.840000e-06	4.114115e-06	1.256535e-09	2.861080e+01	8.591816e+01
2.850000e-06	4.145240e-06	1.260665e-09	2.882725e+01	8.624066e+01
2.860000e-06	4.176082e-06	1.266713e-09	2.904174e+01	8.655634e+01
2.870000e-06	4.206604e-06	1.272660e-09	2.925400e+01	8.686521e+01
2.880000e-06	4.236773e-06	1.279004e-09	2.946381e+01	8.716731e+01
2.890000e-06	4.266619e-06	1.284474e-09	2.967137e+01	8.746266e+01
2.900000e-06	4.296213e-06	1.288112e-09	2.987717e+01	8.775129e+01
