# Temperatura_=_24.6
# Concentracion g/m^3_=_1620.0
# C_Vs_to_Am_M_A/Vsm_=_65563218390.804596
# pendiente_HvsI_1/m_=_3716.3
# ordenada_HvsI_A/m_=_1297.0
# frecuencia_Hz_=_135097.59183187055

Tiempo_(s)	Campo_(V.s)	Magnetizacion_(V.s)	Campo_(kA/m)	Magnetizacion_(A/m)
0.000000e+00	-5.509445e-06	-1.280318e-09	-3.837815e+01	-8.022441e+01
1.000000e-08	-5.509515e-06	-1.278081e-09	-3.837863e+01	-8.019426e+01
2.000000e-08	-5.509322e-06	-1.272998e-09	-3.837729e+01	-8.016503e+01
3.000000e-08	-5.508738e-06	-1.266332e-09	-3.837322e+01	-8.013666e+01
4.000000e-08	-5.507590e-06	-1.261307e-09	-3.836522e+01	-8.010907e+01
5.000000e-08	-5.505820e-06	-1.260521e-09	-3.835290e+01	-8.008216e+01
6.000000e-08	-5.503420e-06	-1.269729e-09	-3.833618e+01	-8.005583e+01
7.000000e-08	-5.500472e-06	-1.286549e-09	-3.831564e+01	-8.003000e+01
8.000000e-08	-5.497002e-06	-1.275605e-09	-3.829147e+01	-8.000455e+01
9.000000e-08	-5.493089e-06	-1.234350e-09	-3.826421e+01	-7.997936e+01
1.000000e-07	-5.488851e-06	-1.250693e-09	-3.823469e+01	-7.995433e+01
1.100000e-07	-5.484441e-06	-1.287080e-09	-3.820397e+01	-7.992933e+01
1.200000e-07	-5.479797e-06	-1.306016e-09	-3.817162e+01	-7.990426e+01
1.300000e-07	-5.474795e-06	-1.245742e-09	-3.813678e+01	-7.987899e+01
1.400000e-07	-5.469466e-06	-1.233828e-09	-3.809966e+01	-7.985341e+01
1.500000e-07	-5.463717e-06	-1.280459e-09	-3.805961e+01	-7.982739e+01
1.600000e-07	-5.457525e-06	-1.287284e-09	-3.801648e+01	-7.980084e+01
1.700000e-07	-5.451004e-06	-1.241156e-09	-3.797105e+01	-7.977362e+01
1.800000e-07	-5.444119e-06	-1.202774e-09	-3.792310e+01	-7.974565e+01
1.900000e-07	-5.436788e-06	-1.265251e-09	-3.787203e+01	-7.971680e+01
2.000000e-07	-5.429110e-06	-1.298583e-09	-3.781854e+01	-7.968699e+01
2.100000e-07	-5.421237e-06	-1.279630e-09	-3.776370e+01	-7.965610e+01
2.200000e-07	-5.413095e-06	-1.226233e-09	-3.770699e+01	-7.962405e+01
2.300000e-07	-5.404529e-06	-1.243304e-09	-3.764732e+01	-7.959073e+01
2.400000e-07	-5.395465e-06	-1.256676e-09	-3.758418e+01	-7.955607e+01
2.500000e-07	-5.385818e-06	-1.252184e-09	-3.751698e+01	-7.951998e+01
2.600000e-07	-5.375574e-06	-1.227312e-09	-3.744561e+01	-7.948237e+01
2.700000e-07	-5.364819e-06	-1.251008e-09	-3.737070e+01	-7.944316e+01
2.800000e-07	-5.353627e-06	-1.262267e-09	-3.729273e+01	-7.940227e+01
2.900000e-07	-5.341999e-06	-1.247726e-09	-3.721174e+01	-7.935964e+01
3.000000e-07	-5.329921e-06	-1.233751e-09	-3.712760e+01	-7.931518e+01
3.100000e-07	-5.317380e-06	-1.250068e-09	-3.704024e+01	-7.926883e+01
3.200000e-07	-5.304472e-06	-1.258095e-09	-3.695033e+01	-7.922052e+01
3.300000e-07	-5.291264e-06	-1.231263e-09	-3.685833e+01	-7.917017e+01
3.400000e-07	-5.277637e-06	-1.218103e-09	-3.676340e+01	-7.911773e+01
3.500000e-07	-5.263547e-06	-1.233096e-09	-3.666525e+01	-7.906312e+01
3.600000e-07	-5.248964e-06	-1.234879e-09	-3.656367e+01	-7.900629e+01
3.700000e-07	-5.233930e-06	-1.212750e-09	-3.645894e+01	-7.894717e+01
3.800000e-07	-5.218368e-06	-1.222940e-09	-3.635054e+01	-7.888570e+01
3.900000e-07	-5.202233e-06	-1.234446e-09	-3.623814e+01	-7.882181e+01
4.000000e-07	-5.185693e-06	-1.216059e-09	-3.612293e+01	-7.875546e+01
4.100000e-07	-5.168695e-06	-1.202622e-09	-3.600452e+01	-7.868659e+01
4.200000e-07	-5.151330e-06	-1.235472e-09	-3.588356e+01	-7.861514e+01
4.300000e-07	-5.133766e-06	-1.224116e-09	-3.576121e+01	-7.854106e+01
4.400000e-07	-5.115893e-06	-1.198437e-09	-3.563671e+01	-7.846431e+01
4.500000e-07	-5.097679e-06	-1.208791e-09	-3.550984e+01	-7.838485e+01
4.600000e-07	-5.079176e-06	-1.234084e-09	-3.538094e+01	-7.830264e+01
4.700000e-07	-5.060267e-06	-1.205814e-09	-3.524922e+01	-7.821765e+01
4.800000e-07	-5.040933e-06	-1.207810e-09	-3.511455e+01	-7.812984e+01
4.900000e-07	-5.021330e-06	-1.223970e-09	-3.497800e+01	-7.803921e+01
5.000000e-07	-5.001534e-06	-1.210193e-09	-3.484010e+01	-7.794574e+01
5.100000e-07	-4.981498e-06	-1.191515e-09	-3.470053e+01	-7.784942e+01
5.200000e-07	-4.961207e-06	-1.221833e-09	-3.455919e+01	-7.775026e+01
5.300000e-07	-4.940515e-06	-1.212774e-09	-3.441505e+01	-7.764827e+01
5.400000e-07	-4.919434e-06	-1.182190e-09	-3.426820e+01	-7.754348e+01
5.500000e-07	-4.898053e-06	-1.193197e-09	-3.411926e+01	-7.743591e+01
5.600000e-07	-4.876253e-06	-1.211160e-09	-3.396741e+01	-7.732561e+01
5.700000e-07	-4.854121e-06	-1.183005e-09	-3.381324e+01	-7.721264e+01
5.800000e-07	-4.831771e-06	-1.180298e-09	-3.365755e+01	-7.709705e+01
5.900000e-07	-4.809090e-06	-1.200366e-09	-3.349955e+01	-7.697893e+01
6.000000e-07	-4.786028e-06	-1.191475e-09	-3.333891e+01	-7.685835e+01
6.100000e-07	-4.762680e-06	-1.178440e-09	-3.317627e+01	-7.673541e+01
6.200000e-07	-4.739100e-06	-1.191000e-09	-3.301202e+01	-7.661022e+01
6.300000e-07	-4.715297e-06	-1.187355e-09	-3.284620e+01	-7.648289e+01
6.400000e-07	-4.691156e-06	-1.167520e-09	-3.267804e+01	-7.635354e+01
6.500000e-07	-4.666599e-06	-1.170618e-09	-3.250698e+01	-7.622230e+01
6.600000e-07	-4.641672e-06	-1.171067e-09	-3.233334e+01	-7.608930e+01
6.700000e-07	-4.616180e-06	-1.161270e-09	-3.215577e+01	-7.595470e+01
6.800000e-07	-4.590089e-06	-1.162948e-09	-3.197402e+01	-7.581863e+01
6.900000e-07	-4.563568e-06	-1.172204e-09	-3.178928e+01	-7.568124e+01
7.000000e-07	-4.536625e-06	-1.158895e-09	-3.160160e+01	-7.554268e+01
7.100000e-07	-4.509267e-06	-1.153561e-09	-3.141102e+01	-7.540310e+01
7.200000e-07	-4.481689e-06	-1.158338e-09	-3.121892e+01	-7.526265e+01
7.300000e-07	-4.453980e-06	-1.156216e-09	-3.102590e+01	-7.512146e+01
7.400000e-07	-4.426053e-06	-1.142409e-09	-3.083137e+01	-7.497967e+01
7.500000e-07	-4.397917e-06	-1.143997e-09	-3.063537e+01	-7.483741e+01
7.600000e-07	-4.369508e-06	-1.141047e-09	-3.043748e+01	-7.469480e+01
7.700000e-07	-4.340761e-06	-1.136433e-09	-3.023723e+01	-7.455195e+01
7.800000e-07	-4.311694e-06	-1.136447e-09	-3.003475e+01	-7.440894e+01
7.900000e-07	-4.282314e-06	-1.139424e-09	-2.983010e+01	-7.426586e+01
8.000000e-07	-4.252664e-06	-1.128588e-09	-2.962356e+01	-7.412276e+01
8.100000e-07	-4.222758e-06	-1.124149e-09	-2.941523e+01	-7.397968e+01
8.200000e-07	-4.192538e-06	-1.118734e-09	-2.920473e+01	-7.383666e+01
8.300000e-07	-4.162016e-06	-1.108343e-09	-2.899212e+01	-7.369369e+01
8.400000e-07	-4.131148e-06	-1.101921e-09	-2.877709e+01	-7.355074e+01
8.500000e-07	-4.099991e-06	-1.108924e-09	-2.856005e+01	-7.340778e+01
8.600000e-07	-4.068619e-06	-1.109031e-09	-2.834152e+01	-7.326473e+01
8.700000e-07	-4.037050e-06	-1.104938e-09	-2.812162e+01	-7.312150e+01
8.800000e-07	-4.005358e-06	-1.105355e-09	-2.790085e+01	-7.297798e+01
8.900000e-07	-3.973489e-06	-1.101251e-09	-2.767886e+01	-7.283402e+01
9.000000e-07	-3.941374e-06	-1.091070e-09	-2.745515e+01	-7.268945e+01
9.100000e-07	-3.908828e-06	-1.086747e-09	-2.722844e+01	-7.254408e+01
9.200000e-07	-3.875945e-06	-1.083326e-09	-2.699938e+01	-7.239770e+01
9.300000e-07	-3.842745e-06	-1.076092e-09	-2.676811e+01	-7.225008e+01
9.400000e-07	-3.809051e-06	-1.075478e-09	-2.653340e+01	-7.210096e+01
9.500000e-07	-3.774918e-06	-1.075162e-09	-2.629563e+01	-7.195006e+01
9.600000e-07	-3.740309e-06	-1.067881e-09	-2.605455e+01	-7.179709e+01
9.700000e-07	-3.705296e-06	-1.059053e-09	-2.581065e+01	-7.164175e+01
9.800000e-07	-3.670056e-06	-1.055610e-09	-2.556518e+01	-7.148371e+01
9.900000e-07	-3.634609e-06	-1.048656e-09	-2.531826e+01	-7.132264e+01
1.000000e-06	-3.598974e-06	-1.044401e-09	-2.507003e+01	-7.115821e+01
1.010000e-06	-3.563235e-06	-1.044076e-09	-2.482108e+01	-7.099008e+01
1.020000e-06	-3.527343e-06	-1.043850e-09	-2.457106e+01	-7.081789e+01
1.030000e-06	-3.491269e-06	-1.035090e-09	-2.431977e+01	-7.064131e+01
1.040000e-06	-3.455027e-06	-1.029547e-09	-2.406731e+01	-7.045999e+01
1.050000e-06	-3.418480e-06	-1.025701e-09	-2.381273e+01	-7.027360e+01
1.060000e-06	-3.381601e-06	-1.020138e-09	-2.355584e+01	-7.008182e+01
1.070000e-06	-3.344459e-06	-1.014396e-09	-2.329711e+01	-6.988432e+01
1.080000e-06	-3.307151e-06	-1.013382e-09	-2.303722e+01	-6.968082e+01
1.090000e-06	-3.269637e-06	-1.008133e-09	-2.277590e+01	-6.947104e+01
1.100000e-06	-3.231897e-06	-1.004043e-09	-2.251302e+01	-6.925471e+01
1.110000e-06	-3.193939e-06	-1.002942e-09	-2.224860e+01	-6.903159e+01
1.120000e-06	-3.155739e-06	-9.991645e-10	-2.198251e+01	-6.880148e+01
1.130000e-06	-3.117351e-06	-9.883432e-10	-2.171510e+01	-6.856417e+01
1.140000e-06	-3.078688e-06	-9.808359e-10	-2.144578e+01	-6.831952e+01
1.150000e-06	-3.039770e-06	-9.753427e-10	-2.117468e+01	-6.806739e+01
1.160000e-06	-3.000616e-06	-9.687891e-10	-2.090194e+01	-6.780766e+01
1.170000e-06	-2.961242e-06	-9.647653e-10	-2.062767e+01	-6.754027e+01
1.180000e-06	-2.921760e-06	-9.617465e-10	-2.035264e+01	-6.726515e+01
1.190000e-06	-2.882218e-06	-9.548314e-10	-2.007719e+01	-6.698230e+01
1.200000e-06	-2.842587e-06	-9.460045e-10	-1.980113e+01	-6.669172e+01
1.210000e-06	-2.802841e-06	-9.391095e-10	-1.952426e+01	-6.639342e+01
1.220000e-06	-2.762928e-06	-9.330761e-10	-1.924623e+01	-6.608748e+01
1.230000e-06	-2.722877e-06	-9.269732e-10	-1.896724e+01	-6.577395e+01
1.240000e-06	-2.682698e-06	-9.208436e-10	-1.868736e+01	-6.545294e+01
1.250000e-06	-2.642312e-06	-9.151718e-10	-1.840603e+01	-6.512454e+01
1.260000e-06	-2.601595e-06	-9.076060e-10	-1.812241e+01	-6.478888e+01
1.270000e-06	-2.560543e-06	-9.008265e-10	-1.783644e+01	-6.444608e+01
1.280000e-06	-2.519271e-06	-8.946656e-10	-1.754895e+01	-6.409627e+01
1.290000e-06	-2.477759e-06	-8.902155e-10	-1.725978e+01	-6.373958e+01
1.300000e-06	-2.435974e-06	-8.859809e-10	-1.696871e+01	-6.337612e+01
1.310000e-06	-2.393861e-06	-8.822514e-10	-1.667535e+01	-6.300603e+01
1.320000e-06	-2.351414e-06	-8.765219e-10	-1.637967e+01	-6.262938e+01
1.330000e-06	-2.308645e-06	-8.713199e-10	-1.608175e+01	-6.224627e+01
1.340000e-06	-2.265607e-06	-8.651830e-10	-1.578195e+01	-6.185674e+01
1.350000e-06	-2.222395e-06	-8.570016e-10	-1.548094e+01	-6.146082e+01
1.360000e-06	-2.179008e-06	-8.473766e-10	-1.517871e+01	-6.105849e+01
1.370000e-06	-2.135491e-06	-8.381306e-10	-1.487558e+01	-6.064970e+01
1.380000e-06	-2.091887e-06	-8.289674e-10	-1.457184e+01	-6.023437e+01
1.390000e-06	-2.048176e-06	-8.207887e-10	-1.426735e+01	-5.981234e+01
1.400000e-06	-2.004375e-06	-8.131947e-10	-1.396224e+01	-5.938342e+01
1.410000e-06	-1.960510e-06	-8.066288e-10	-1.365668e+01	-5.894736e+01
1.420000e-06	-1.916598e-06	-7.994112e-10	-1.335079e+01	-5.850384e+01
1.430000e-06	-1.872546e-06	-7.902274e-10	-1.304393e+01	-5.805250e+01
1.440000e-06	-1.828427e-06	-7.811700e-10	-1.273661e+01	-5.759290e+01
1.450000e-06	-1.784281e-06	-7.720288e-10	-1.242909e+01	-5.712454e+01
1.460000e-06	-1.739983e-06	-7.595455e-10	-1.212052e+01	-5.664685e+01
1.470000e-06	-1.695525e-06	-7.478319e-10	-1.181083e+01	-5.615919e+01
1.480000e-06	-1.650979e-06	-7.380783e-10	-1.150052e+01	-5.566087e+01
1.490000e-06	-1.606393e-06	-7.304034e-10	-1.118995e+01	-5.515111e+01
1.500000e-06	-1.561643e-06	-7.255188e-10	-1.087822e+01	-5.462909e+01
1.510000e-06	-1.516674e-06	-7.209245e-10	-1.056497e+01	-5.409390e+01
1.520000e-06	-1.471534e-06	-7.136077e-10	-1.025053e+01	-5.354461e+01
1.530000e-06	-1.426378e-06	-7.021745e-10	-9.935981e+00	-5.298020e+01
1.540000e-06	-1.381204e-06	-6.894953e-10	-9.621304e+00	-5.239962e+01
1.550000e-06	-1.335877e-06	-6.771347e-10	-9.305560e+00	-5.180176e+01
1.560000e-06	-1.290434e-06	-6.629243e-10	-8.989012e+00	-5.118548e+01
1.570000e-06	-1.244894e-06	-6.511158e-10	-8.671787e+00	-5.054962e+01
1.580000e-06	-1.199283e-06	-6.458679e-10	-8.354063e+00	-4.989296e+01
1.590000e-06	-1.153568e-06	-6.418531e-10	-8.035617e+00	-4.921429e+01
1.600000e-06	-1.107702e-06	-6.347409e-10	-7.716119e+00	-4.851238e+01
1.610000e-06	-1.061824e-06	-6.249284e-10	-7.396539e+00	-4.778599e+01
1.620000e-06	-1.015956e-06	-6.120662e-10	-7.077031e+00	-4.703391e+01
1.630000e-06	-9.699832e-07	-5.941561e-10	-6.756789e+00	-4.625492e+01
1.640000e-06	-9.238703e-07	-5.783535e-10	-6.435572e+00	-4.544784e+01
1.650000e-06	-8.777343e-07	-5.652031e-10	-6.114194e+00	-4.461151e+01
1.660000e-06	-8.316917e-07	-5.540057e-10	-5.793467e+00	-4.374484e+01
1.670000e-06	-7.856320e-07	-5.459114e-10	-5.472620e+00	-4.284676e+01
1.680000e-06	-7.394235e-07	-5.381294e-10	-5.150737e+00	-4.191629e+01
1.690000e-06	-6.930831e-07	-5.234261e-10	-4.827935e+00	-4.095251e+01
1.700000e-06	-6.467074e-07	-5.020356e-10	-4.504888e+00	-3.995458e+01
1.710000e-06	-6.003136e-07	-4.813229e-10	-4.181714e+00	-3.892175e+01
1.720000e-06	-5.538941e-07	-4.629989e-10	-3.858361e+00	-3.785338e+01
1.730000e-06	-5.074102e-07	-4.461329e-10	-3.534560e+00	-3.674892e+01
1.740000e-06	-4.608504e-07	-4.326209e-10	-3.210230e+00	-3.560795e+01
1.750000e-06	-4.142639e-07	-4.202571e-10	-2.885714e+00	-3.443015e+01
1.760000e-06	-3.676715e-07	-4.045498e-10	-2.561156e+00	-3.321534e+01
1.770000e-06	-3.210567e-07	-3.882237e-10	-2.236443e+00	-3.196346e+01
1.780000e-06	-2.744139e-07	-3.712946e-10	-1.911535e+00	-3.067461e+01
1.790000e-06	-2.277355e-07	-3.503357e-10	-1.586379e+00	-2.934900e+01
1.800000e-06	-1.810163e-07	-3.261383e-10	-1.260938e+00	-2.798699e+01
1.810000e-06	-1.342422e-07	-3.039182e-10	-9.351154e-01	-2.658911e+01
1.820000e-06	-8.746865e-08	-2.856437e-10	-6.092964e-01	-2.515598e+01
1.830000e-06	-4.075277e-08	-2.697393e-10	-2.838790e-01	-2.368843e+01
1.840000e-06	5.950344e-09	-2.533276e-10	4.144940e-02	-2.218738e+01
1.850000e-06	5.267306e-08	-2.334316e-10	3.669144e-01	-2.065393e+01
1.860000e-06	9.938440e-08	-2.107231e-10	6.923001e-01	-1.908928e+01
1.870000e-06	1.460637e-07	-1.865937e-10	1.017463e+00	-1.749481e+01
1.880000e-06	1.927487e-07	-1.610314e-10	1.342665e+00	-1.587199e+01
1.890000e-06	2.394438e-07	-1.354894e-10	1.667938e+00	-1.422244e+01
1.900000e-06	2.860650e-07	-1.113562e-10	1.992695e+00	-1.254788e+01
1.910000e-06	3.326666e-07	-8.908239e-11	2.317317e+00	-1.085016e+01
1.920000e-06	3.792650e-07	-6.882039e-11	2.641916e+00	-9.131225e+00
1.930000e-06	4.257832e-07	-4.809918e-11	2.965956e+00	-7.393101e+00
1.940000e-06	4.723319e-07	-2.477893e-11	3.290209e+00	-5.637912e+00
1.950000e-06	5.188443e-07	2.001463e-12	3.614208e+00	-3.867853e+00
1.960000e-06	5.652537e-07	3.191790e-11	3.937491e+00	-2.085182e+00
1.970000e-06	6.116850e-07	6.131503e-11	4.260926e+00	-2.922109e-01
1.980000e-06	6.580504e-07	8.769509e-11	4.583902e+00	1.508707e+00
1.990000e-06	7.042583e-07	1.105521e-10	4.905781e+00	3.315187e+00
2.000000e-06	7.504795e-07	1.316940e-10	5.227752e+00	5.124827e+00
2.010000e-06	7.967713e-07	1.537874e-10	5.550216e+00	6.935217e+00
2.020000e-06	8.429565e-07	1.776554e-10	5.871936e+00	8.743951e+00
2.030000e-06	8.889915e-07	2.039747e-10	6.192610e+00	1.054864e+01
2.040000e-06	9.350117e-07	2.328232e-10	6.513181e+00	1.234692e+01
2.050000e-06	9.809557e-07	2.618138e-10	6.833223e+00	1.413646e+01
2.060000e-06	1.026778e-06	2.886670e-10	7.152418e+00	1.591500e+01
2.070000e-06	1.072587e-06	3.119962e-10	7.471516e+00	1.768031e+01
2.080000e-06	1.118392e-06	3.314020e-10	7.790588e+00	1.943024e+01
2.090000e-06	1.164112e-06	3.482997e-10	8.109068e+00	2.116274e+01
2.100000e-06	1.209733e-06	3.670781e-10	8.426857e+00	2.287580e+01
2.110000e-06	1.255302e-06	3.888806e-10	8.744286e+00	2.456755e+01
2.120000e-06	1.300760e-06	4.156562e-10	9.060938e+00	2.623619e+01
2.130000e-06	1.346108e-06	4.447954e-10	9.376830e+00	2.788005e+01
2.140000e-06	1.391373e-06	4.696566e-10	9.692144e+00	2.949755e+01
2.150000e-06	1.436512e-06	4.883464e-10	1.000657e+01	3.108727e+01
2.160000e-06	1.481555e-06	5.035128e-10	1.032034e+01	3.264785e+01
2.170000e-06	1.526444e-06	5.190352e-10	1.063303e+01	3.417812e+01
2.180000e-06	1.571188e-06	5.371679e-10	1.094471e+01	3.567698e+01
2.190000e-06	1.615850e-06	5.584919e-10	1.125582e+01	3.714350e+01
2.200000e-06	1.660352e-06	5.814792e-10	1.156582e+01	3.857686e+01
2.210000e-06	1.704668e-06	6.030377e-10	1.187452e+01	3.997637e+01
2.220000e-06	1.748863e-06	6.222991e-10	1.218238e+01	4.134148e+01
2.230000e-06	1.792989e-06	6.398993e-10	1.248975e+01	4.267173e+01
2.240000e-06	1.837011e-06	6.558885e-10	1.279640e+01	4.396683e+01
2.250000e-06	1.880970e-06	6.711934e-10	1.310262e+01	4.522657e+01
2.260000e-06	1.924891e-06	6.870543e-10	1.340857e+01	4.645088e+01
2.270000e-06	1.968734e-06	7.036918e-10	1.371397e+01	4.763978e+01
2.280000e-06	2.012538e-06	7.190533e-10	1.401910e+01	4.879341e+01
2.290000e-06	2.056331e-06	7.334996e-10	1.432416e+01	4.991200e+01
2.300000e-06	2.100020e-06	7.465890e-10	1.462849e+01	5.099587e+01
2.310000e-06	2.143608e-06	7.583659e-10	1.493212e+01	5.204543e+01
2.320000e-06	2.187125e-06	7.714146e-10	1.523526e+01	5.306118e+01
2.330000e-06	2.230429e-06	7.864991e-10	1.553691e+01	5.404368e+01
2.340000e-06	2.273538e-06	8.012906e-10	1.583720e+01	5.499354e+01
2.350000e-06	2.316452e-06	8.149611e-10	1.613613e+01	5.591146e+01
2.360000e-06	2.359101e-06	8.266553e-10	1.643322e+01	5.679817e+01
2.370000e-06	2.401396e-06	8.372951e-10	1.672784e+01	5.765444e+01
2.380000e-06	2.443326e-06	8.460750e-10	1.701992e+01	5.848109e+01
2.390000e-06	2.484960e-06	8.553182e-10	1.730994e+01	5.927895e+01
2.400000e-06	2.526322e-06	8.634939e-10	1.759806e+01	6.004889e+01
2.410000e-06	2.567498e-06	8.691417e-10	1.788489e+01	6.079178e+01
2.420000e-06	2.608344e-06	8.774396e-10	1.816942e+01	6.150851e+01
2.430000e-06	2.648883e-06	8.893953e-10	1.845180e+01	6.219996e+01
2.440000e-06	2.689226e-06	9.028254e-10	1.873283e+01	6.286703e+01
2.450000e-06	2.729376e-06	9.132981e-10	1.901251e+01	6.351058e+01
2.460000e-06	2.769389e-06	9.207129e-10	1.929124e+01	6.413149e+01
2.470000e-06	2.809274e-06	9.255150e-10	1.956907e+01	6.473061e+01
2.480000e-06	2.849025e-06	9.275920e-10	1.984598e+01	6.530876e+01
2.490000e-06	2.888596e-06	9.337147e-10	2.012162e+01	6.586675e+01
2.500000e-06	2.928059e-06	9.458234e-10	2.039651e+01	6.640535e+01
2.510000e-06	2.967419e-06	9.609873e-10	2.067069e+01	6.692533e+01
2.520000e-06	3.006556e-06	9.716956e-10	2.094332e+01	6.742740e+01
2.530000e-06	3.045440e-06	9.789926e-10	2.121418e+01	6.791226e+01
2.540000e-06	3.084118e-06	9.847217e-10	2.148361e+01	6.838056e+01
2.550000e-06	3.122588e-06	9.866378e-10	2.175158e+01	6.883294e+01
2.560000e-06	3.160826e-06	9.873419e-10	2.201794e+01	6.926998e+01
2.570000e-06	3.198811e-06	9.908757e-10	2.228254e+01	6.969226e+01
2.580000e-06	3.236598e-06	1.000207e-09	2.254576e+01	7.010030e+01
2.590000e-06	3.274255e-06	1.011803e-09	2.280808e+01	7.049461e+01
2.600000e-06	3.311663e-06	1.022256e-09	2.306866e+01	7.087568e+01
2.610000e-06	3.348819e-06	1.030090e-09	2.332748e+01	7.124394e+01
2.620000e-06	3.385752e-06	1.034901e-09	2.358475e+01	7.159982e+01
2.630000e-06	3.422467e-06	1.037748e-09	2.384050e+01	7.194373e+01
2.640000e-06	3.458938e-06	1.041058e-09	2.409455e+01	7.227606e+01
2.650000e-06	3.495151e-06	1.046224e-09	2.434681e+01	7.259716e+01
2.660000e-06	3.531179e-06	1.051427e-09	2.459778e+01	7.290738e+01
2.670000e-06	3.567074e-06	1.054678e-09	2.484782e+01	7.320706e+01
2.680000e-06	3.602857e-06	1.059786e-09	2.509708e+01	7.349653e+01
2.690000e-06	3.638472e-06	1.066145e-09	2.534517e+01	7.377610e+01
2.700000e-06	3.673940e-06	1.070124e-09	2.559224e+01	7.404607e+01
2.710000e-06	3.709273e-06	1.073620e-09	2.583836e+01	7.430675e+01
2.720000e-06	3.744261e-06	1.077845e-09	2.608208e+01	7.455844e+01
2.730000e-06	3.778808e-06	1.080165e-09	2.632273e+01	7.480143e+01
2.740000e-06	3.812879e-06	1.082648e-09	2.656007e+01	7.503601e+01
2.750000e-06	3.846371e-06	1.087035e-09	2.679337e+01	7.526249e+01
2.760000e-06	3.879383e-06	1.092435e-09	2.702332e+01	7.548115e+01
2.770000e-06	3.911995e-06	1.096667e-09	2.725050e+01	7.569230e+01
2.780000e-06	3.944290e-06	1.099543e-09	2.747546e+01	7.589623e+01
2.790000e-06	3.976458e-06	1.101219e-09	2.769954e+01	7.609324e+01
2.800000e-06	4.008428e-06	1.101838e-09	2.792224e+01	7.628364e+01
2.810000e-06	4.040165e-06	1.104257e-09	2.814331e+01	7.646773e+01
2.820000e-06	4.071719e-06	1.107899e-09	2.836312e+01	7.664582e+01
2.830000e-06	4.103076e-06	1.111579e-09	2.858155e+01	7.681821e+01
2.840000e-06	4.134190e-06	1.116254e-09	2.879828e+01	7.698521e+01
2.850000e-06	4.164909e-06	1.120786e-09	2.901227e+01	7.714711e+01
2.860000e-06	4.195251e-06	1.125637e-09	2.922363e+01	7.730422e+01
2.870000e-06	4.225365e-06	1.129515e-09	2.943340e+01	7.745684e+01
2.880000e-06	4.255262e-06	1.131538e-09	2.964165e+01	7.760524e+01
2.890000e-06	4.284850e-06	1.131996e-09	2.984776e+01	7.774972e+01
2.900000e-06	4.314073e-06	1.131126e-09	3.005133e+01	7.789054e+01
